time,RectFemL,VastusMedL,VastusLatL,TibAntL,HamMedL,HamLatL,GastroMedL,GastroLatL,RectFemR,VastusMedR,VastusLatR,TibAntR,HamMedR,HamLatR,GastroMedR,GastroLatR
7.8,-0.01678,-0.08545,0.00366,-0.00717,-0.04547,-0.05219,-0.09949,0.01205,0.00229,-0.01282,-0.08591,0.00717,-0.03418,-0.02167,0.01266,-0.01678
7.8005,-0.01373,-0.0766,-0.01144,-0.00778,-0.04135,-0.05173,-0.05417,0.08575,0.00748,0.0032,-0.08408,0.0061,-0.03204,-0.02167,0.01236,-0.01709
7.801,-0.00916,-0.05936,-0.02335,-0.00824,-0.03784,-0.04974,0.00244,0.08972,0.00778,0.02151,-0.07904,0.00198,-0.03174,-0.01984,0.01282,-0.0235
7.8015,-0.0032,-0.05371,-0.03265,-0.00946,-0.03738,-0.04822,0.01877,0.0206,0.00412,0.04074,-0.06836,-0.0058,-0.03387,-0.01968,0.01282,-0.02884
7.802,0.00229,-0.07248,-0.0444,-0.01205,-0.03738,-0.04929,0.01434,-0.0621,-0.00061,0.06363,-0.05478,-0.01526,-0.03571,-0.01831,0.01266,-0.03006
7.8025,0.00275,-0.09857,-0.05569,-0.01373,-0.03891,-0.05005,0.02045,-0.09811,-0.00397,0.09415,-0.04272,-0.02426,-0.03769,-0.0177,0.01129,-0.03067
7.803,-0.00153,-0.10818,-0.06165,-0.01541,-0.03922,-0.04944,0.02258,-0.0769,-0.00748,0.12207,-0.02945,-0.03159,-0.03876,-0.01801,0.01175,-0.03662
7.8035,-0.00854,-0.0914,-0.05997,-0.01556,-0.04074,-0.04822,-0.0087,-0.03204,-0.01297,0.12222,-0.01358,-0.03708,-0.04028,-0.01816,0.01205,-0.04761
7.804,-0.01694,-0.06317,-0.05234,-0.0145,-0.04349,-0.047,-0.07095,-0.00275,-0.02014,0.08713,0.00076,-0.04227,-0.04166,-0.01846,0.01114,-0.05585
7.8045,-0.02304,-0.0415,-0.04456,-0.0119,-0.04532,-0.04852,-0.1178,-0.0032,-0.02533,0.04333,0.0058,-0.04715,-0.04074,-0.0209,0.00946,-0.05676
7.805,-0.02548,-0.02869,-0.0412,-0.00946,-0.04425,-0.05219,-0.1178,-0.02716,-0.02563,0.01816,-0.00061,-0.04898,-0.0386,-0.02075,0.00839,-0.05173
7.8055,-0.02243,-0.01984,-0.04181,-0.0087,-0.0412,-0.05493,-0.07813,-0.05615,-0.02289,0.01999,-0.01129,-0.04471,-0.03479,-0.02014,0.00824,-0.0499
7.806,-0.01892,-0.01144,-0.04547,-0.00977,-0.04013,-0.05447,-0.00488,-0.06531,-0.02121,0.03128,-0.01205,-0.03738,-0.03311,-0.02045,0.00946,-0.05188
7.8065,-0.0177,-0.0058,-0.04944,-0.01083,-0.03998,-0.05356,0.10269,-0.0351,-0.02136,0.04639,0.00488,-0.03143,-0.03326,-0.01953,0.01022,-0.05341
7.807,-0.01785,-0.00824,-0.05432,-0.01175,-0.03983,-0.05173,0.1944,0.01968,-0.02182,0.07309,0.03281,-0.02762,-0.03281,-0.01999,0.00977,-0.04623
7.8075,-0.01556,-0.02106,-0.05737,-0.01266,-0.03937,-0.05096,0.19028,0.04593,-0.01907,0.11505,0.05905,-0.02518,-0.03143,-0.02014,0.01038,-0.02884
7.808,-0.01175,-0.03784,-0.05524,-0.01343,-0.03906,-0.04959,0.09781,0.00443,-0.0148,0.15244,0.08087,-0.02335,-0.02991,-0.02075,0.01038,-0.01556
7.8085,-0.00717,-0.04639,-0.04791,-0.01373,-0.0383,-0.04974,0.01526,-0.07996,-0.01205,0.16068,0.10681,-0.02121,-0.02853,-0.01953,0.01007,-0.01968
7.809,-0.00366,-0.03754,-0.03708,-0.01251,-0.03555,-0.0502,-0.00412,-0.14252,-0.01312,0.13748,0.13702,-0.01923,-0.02777,-0.01785,0.00946,-0.03159
7.8095,-0.00137,-0.02075,-0.02319,-0.01068,-0.03143,-0.04959,-0.01099,-0.14954,-0.01343,0.10498,0.16525,-0.01984,-0.02701,-0.01633,0.00946,-0.04562
7.81,0.00061,-0.01068,-0.00656,-0.01129,-0.02884,-0.04593,-0.07172,-0.12161,-0.00809,0.08148,0.18265,-0.02441,-0.02655,-0.01648,0.01053,-0.05386
7.8105,0.00214,-0.01053,0.00793,-0.01236,-0.02716,-0.04242,-0.19394,-0.0827,0.00397,0.06027,0.18509,-0.03006,-0.02747,-0.01923,0.00992,-0.05386
7.811,0.00427,-0.01282,0.01587,-0.01358,-0.0267,-0.04074,-0.33401,-0.03754,0.01801,0.02655,0.16556,-0.03021,-0.02792,-0.01999,0.00946,-0.04898
7.8115,0.00443,-0.0116,0.01678,-0.01282,-0.02731,-0.04074,-0.44159,0.01862,0.02502,-0.01236,0.11444,-0.02289,-0.02716,-0.01968,0.00793,-0.04425
7.812,0.00259,-0.00824,0.01694,-0.01129,-0.03113,-0.04272,-0.49896,0.07919,0.01907,-0.02701,0.03021,-0.01312,-0.02655,-0.01892,0.00763,-0.04486
7.8125,0.0,-0.00793,0.02136,-0.00992,-0.03754,-0.04623,-0.51895,0.12909,0.00366,0.00336,-0.07355,-0.009,-0.02747,-0.01785,0.00839,-0.04257
7.813,-0.00168,-0.01343,0.02625,-0.00946,-0.0444,-0.05035,-0.48141,0.14771,-0.01526,0.0647,-0.16846,-0.01419,-0.02747,-0.01785,0.0087,-0.03525
7.8135,-0.00443,-0.02136,0.02686,-0.00916,-0.04929,-0.05371,-0.33859,0.11826,-0.02975,0.11932,-0.2301,-0.0235,-0.02808,-0.0174,0.00839,-0.03021
7.814,-0.00778,-0.02899,0.02258,-0.00809,-0.05188,-0.05463,-0.13443,0.05386,-0.0383,0.12772,-0.25696,-0.02914,-0.02853,-0.01526,0.00885,-0.02579
7.8145,-0.01038,-0.03616,0.01648,-0.0061,-0.05142,-0.05524,-0.00854,-0.00381,-0.0444,0.08209,-0.26566,-0.02991,-0.02991,-0.01328,0.00778,-0.02823
7.815,-0.00946,-0.04349,0.01389,-0.00473,-0.04807,-0.05585,-0.00488,-0.01617,-0.0502,0.00824,-0.26291,-0.02762,-0.02899,-0.01328,0.00885,-0.0325
7.8155,-0.00717,-0.05051,0.0148,-0.00366,-0.04257,-0.05615,-0.00061,0.02289,-0.0563,-0.05615,-0.24536,-0.02502,-0.02899,-0.01434,0.009,-0.03403
7.816,-0.00549,-0.05219,0.01587,-0.00275,-0.03876,-0.05539,0.09583,0.09003,-0.0621,-0.09018,-0.21317,-0.02304,-0.02625,-0.01495,0.00977,-0.03174
7.8165,-0.00504,-0.04715,0.01694,-0.00229,-0.03784,-0.05524,0.20142,0.14542,-0.06424,-0.10086,-0.17349,-0.02258,-0.0267,-0.01572,0.00885,-0.0293
7.817,-0.00412,-0.03922,0.01862,-0.00168,-0.03845,-0.05432,0.22171,0.15625,-0.06439,-0.10117,-0.13092,-0.02258,-0.02869,-0.01572,0.00793,-0.02457
7.8175,-0.00198,-0.03098,0.02243,-0.00336,-0.03937,-0.05417,0.21515,0.12405,-0.06241,-0.09949,-0.0882,-0.02228,-0.03021,-0.01617,0.00717,-0.02365
7.818,-0.00046,-0.02518,0.02625,-0.00488,-0.04135,-0.05524,0.27756,0.07828,-0.05829,-0.09415,-0.05325,-0.01953,-0.03174,-0.01938,0.00748,-0.02548
7.8185,0.0,-0.02167,0.02777,-0.00656,-0.04333,-0.05493,0.35858,0.0444,-0.05402,-0.08698,-0.03555,-0.01678,-0.03311,-0.02167,0.009,-0.02853
7.819,0.0,-0.02197,0.0267,-0.0061,-0.04242,-0.05249,0.34241,0.0264,-0.04974,-0.08194,-0.03677,-0.01724,-0.03464,-0.02319,0.00793,-0.02991
7.8195,0.00076,-0.02487,0.02655,-0.0061,-0.03983,-0.04562,0.21606,0.01419,-0.04547,-0.07675,-0.04379,-0.01831,-0.03738,-0.0238,0.00763,-0.02777
7.82,0.00275,-0.0293,0.02853,-0.00549,-0.03784,-0.03632,0.07706,0.00916,-0.03998,-0.06927,-0.04623,-0.01709,-0.03632,-0.02396,0.00702,-0.02655
7.8205,0.00336,-0.03311,0.0325,-0.00412,-0.03662,-0.02762,0.01923,0.01434,-0.03235,-0.0592,-0.04623,-0.01205,-0.03662,-0.02472,0.00641,-0.03265
7.821,0.00168,-0.03479,0.03418,-0.00351,-0.03738,-0.02304,0.05127,0.02579,-0.02304,-0.05096,-0.05112,-0.0061,-0.03555,-0.02472,0.00549,-0.04761
7.8215,0.00061,-0.03586,0.03403,-0.00534,-0.03922,-0.02487,0.10147,0.03494,-0.0148,-0.04517,-0.06149,-0.00229,-0.03601,-0.02411,0.00351,-0.06805
7.822,0.00336,-0.03433,0.03174,-0.00916,-0.04471,-0.03052,0.09293,0.03571,-0.00839,-0.03937,-0.0705,-0.00031,-0.03708,-0.02411,0.00137,-0.08606
7.8225,0.01114,-0.03189,0.02808,-0.01099,-0.0528,-0.03494,0.01175,0.02899,-0.00214,-0.03052,-0.0708,0.00137,-0.03815,-0.02579,-0.00076,-0.09033
7.823,0.02029,-0.02777,0.0238,-0.01114,-0.06088,-0.03342,-0.08743,0.01938,0.00443,-0.01938,-0.06454,0.00473,-0.03647,-0.02838,-0.00061,-0.07889
7.8235,0.02686,-0.0235,0.01938,-0.00793,-0.06271,-0.03006,-0.13901,0.00946,0.00946,-0.0087,-0.05707,0.01221,-0.03662,-0.02701,0.00122,-0.05981
7.824,0.02975,-0.0235,0.0145,-0.00412,-0.05798,-0.02625,-0.11124,-0.00259,0.01251,-0.0061,-0.05219,0.02319,-0.03708,-0.02533,0.00351,-0.04333
7.8245,0.03036,-0.02502,0.00854,-0.00488,-0.05051,-0.02838,-0.02045,-0.02014,0.01541,-0.01297,-0.04776,0.03464,-0.03677,-0.02274,0.0058,-0.03586
7.825,0.02869,-0.02502,-0.00244,-0.00946,-0.04562,-0.03922,0.07355,-0.04028,0.02106,-0.02014,-0.04303,0.04135,-0.03433,-0.0206,0.00656,-0.03586
7.8255,0.02731,-0.02411,-0.03021,-0.01312,-0.04562,-0.05463,0.11902,-0.05249,0.02548,-0.02014,-0.03754,0.04044,-0.03311,-0.01846,0.00565,-0.03876
7.826,0.02762,-0.02533,-0.0769,-0.01373,-0.04868,-0.07294,0.10452,-0.05142,0.02548,-0.01495,-0.03494,0.0354,-0.03265,-0.01617,0.00458,-0.03769
7.8265,0.02808,-0.03418,-0.12085,-0.0119,-0.05188,-0.08972,0.05569,-0.04135,0.02258,-0.01236,-0.03372,0.03159,-0.03296,-0.01419,0.00534,-0.03082
7.827,0.02747,-0.047,-0.12665,-0.00961,-0.05188,-0.10132,-0.00061,-0.02838,0.02136,-0.01678,-0.02533,0.03098,-0.03326,-0.01007,0.00519,-0.02029
7.8275,0.02213,-0.05798,-0.08224,-0.00931,-0.04913,-0.09781,-0.05188,-0.0148,0.0238,-0.02289,-0.00137,0.03113,-0.03479,-0.00824,0.0058,-0.01831
7.828,0.01251,-0.06363,-0.01297,-0.01038,-0.04456,-0.08163,-0.08484,-0.00443,0.02731,-0.02716,0.03586,0.03036,-0.03433,-0.00702,0.00565,-0.02258
7.8285,0.00031,-0.06302,0.04105,-0.0116,-0.03799,-0.05966,-0.08255,-0.00504,0.0296,-0.01556,0.07401,0.02686,-0.03479,-0.00458,0.00473,-0.03357
7.829,-0.01114,-0.06058,0.06439,-0.01236,-0.03357,-0.04196,-0.05859,-0.0206,0.03052,0.01648,0.11063,0.02151,-0.03586,-0.00168,0.00504,-0.04105
7.8295,-0.01907,-0.05844,0.06332,-0.01434,-0.03189,-0.02991,-0.06149,-0.04456,0.02991,0.06348,0.15823,0.0145,-0.03708,0.00137,0.00427,-0.04013
7.83,-0.02502,-0.05569,0.05463,-0.01663,-0.03143,-0.02228,-0.10544,-0.0647,0.02975,0.10406,0.22049,0.00793,-0.03769,0.00336,0.00458,-0.03815
7.8305,-0.02991,-0.05249,0.03922,-0.0177,-0.0322,-0.01953,-0.12177,-0.07355,0.03143,0.10712,0.27695,0.00412,-0.0386,0.00504,0.00626,-0.03784
7.831,-0.03357,-0.0502,0.00641,-0.01694,-0.03067,-0.02182,-0.03357,-0.07065,0.03708,0.05844,0.30411,0.00488,-0.03983,0.00595,0.00748,-0.03708
7.8315,-0.03723,-0.04868,-0.05524,-0.01465,-0.02625,-0.03525,0.11063,-0.06195,0.04517,-0.0235,0.3038,0.00549,-0.0412,0.00687,0.00763,-0.03586
7.832,-0.04089,-0.05051,-0.1329,-0.0145,-0.01877,-0.06042,0.16953,-0.05569,0.0502,-0.09521,0.28992,0.00092,-0.04074,0.00702,0.00641,-0.03586
7.8325,-0.04532,-0.05203,-0.18616,-0.01617,-0.009,-0.08377,0.09354,-0.05066,0.04898,-0.12955,0.25436,-0.00763,-0.03845,0.00717,0.00595,-0.03723
7.833,-0.04623,-0.05203,-0.18555,-0.01816,0.00183,-0.09079,-0.01236,-0.03983,0.04303,-0.13092,0.17685,-0.01389,-0.03922,0.00565,0.0061,-0.03937
7.8335,-0.04517,-0.04959,-0.14236,-0.01968,0.01083,-0.08438,-0.03876,-0.02747,0.03372,-0.12207,0.05524,-0.01495,-0.0383,0.00092,0.00595,-0.04166
7.834,-0.04242,-0.04776,-0.09644,-0.01846,0.01358,-0.07523,-0.0087,-0.03006,0.02487,-0.11597,-0.0798,-0.01389,-0.03754,-0.0061,0.00626,-0.04227
7.8345,-0.03754,-0.04837,-0.06836,-0.01602,0.01038,-0.06241,-0.0029,-0.05478,0.01801,-0.11688,-0.19119,-0.01541,-0.03693,-0.0116,0.00687,-0.0444
7.835,-0.03082,-0.04761,-0.05219,-0.01404,0.00183,-0.04761,-0.01389,-0.07645,0.01144,-0.12039,-0.2626,-0.02014,-0.03647,-0.01495,0.00717,-0.04608
7.8355,-0.02304,-0.04593,-0.04059,-0.01465,-0.00885,-0.0351,0.03296,-0.05829,0.00198,-0.12024,-0.29739,-0.02686,-0.03799,-0.01846,0.00702,-0.04868
7.836,-0.01602,-0.04196,-0.03662,-0.01266,-0.01938,-0.03128,0.12589,0.0,-0.01251,-0.11047,-0.30685,-0.03159,-0.04028,-0.02335,0.00626,-0.05173
7.8365,-0.00992,-0.04395,-0.04898,-0.01251,-0.02716,-0.03189,0.15137,0.04333,-0.02914,-0.09003,-0.29633,-0.03052,-0.04044,-0.03113,0.00641,-0.05295
7.837,-0.00458,-0.04593,-0.07858,-0.01221,-0.03448,-0.03098,0.06012,0.02701,-0.04578,-0.06668,-0.28336,-0.02228,-0.03632,-0.03769,0.00687,-0.05203
7.8375,-0.00229,-0.04883,-0.12024,-0.01221,-0.0444,-0.02731,-0.05646,-0.03067,-0.06042,-0.04593,-0.28061,-0.00931,-0.03159,-0.04227,0.00687,-0.05035
7.838,-0.00122,-0.05081,-0.16418,-0.01175,-0.05661,-0.02396,-0.1004,-0.08148,-0.07339,-0.03082,-0.28519,0.00381,-0.02869,-0.04364,0.00656,-0.04837
7.8385,0.00153,-0.05234,-0.18707,-0.01251,-0.06638,-0.01892,-0.08347,-0.09476,-0.08545,-0.01801,-0.28107,0.01251,-0.03036,-0.04471,0.00641,-0.04608
7.839,0.0061,-0.05493,-0.1712,-0.01144,-0.06973,-0.01083,-0.05508,-0.06271,-0.0972,-0.00748,-0.25894,0.01495,-0.03296,-0.04486,0.00748,-0.04318
7.8395,0.01083,-0.05341,-0.12543,-0.00946,-0.07233,-0.00412,-0.02243,0.00961,-0.10681,-0.00046,-0.22781,0.01129,-0.03448,-0.04349,0.00824,-0.04242
7.84,0.01266,-0.04639,-0.07843,-0.00732,-0.07996,-0.00473,0.01831,0.0885,-0.10773,0.00046,-0.2002,0.00458,-0.03235,-0.04135,0.00809,-0.0444
7.8405,0.01129,-0.03403,-0.05264,-0.00519,-0.09262,-0.01602,0.0354,0.12085,-0.09674,-0.00366,-0.18494,-0.00275,-0.03036,-0.03937,0.00778,-0.04745
7.841,0.00931,-0.02151,-0.05356,-0.00504,-0.09811,-0.03265,-0.01221,0.08728,-0.0766,-0.00946,-0.17395,-0.00732,-0.02686,-0.03769,0.00641,-0.04486
7.8415,0.00504,-0.01678,-0.08514,-0.0058,-0.08942,-0.04669,-0.11032,0.03189,-0.05432,-0.01419,-0.14847,-0.01038,-0.02396,-0.03723,0.00702,-0.04303
7.842,0.00015,-0.0235,-0.14175,-0.00793,-0.07431,-0.05661,-0.20142,0.00961,-0.03586,-0.01541,-0.09964,-0.01404,-0.02258,-0.03845,0.00824,-0.03906
7.8425,-0.00214,-0.03418,-0.1947,-0.01068,-0.06546,-0.06622,-0.24994,0.02487,-0.02167,-0.01373,-0.03922,-0.0148,-0.02365,-0.03906,0.00961,-0.03983
7.843,-0.00214,-0.03784,-0.20493,-0.01236,-0.0647,-0.06927,-0.25223,0.0412,-0.00854,-0.00702,0.01083,-0.01282,-0.02151,-0.03891,0.00916,-0.04288
7.8435,-0.00168,-0.03891,-0.16357,-0.01389,-0.06393,-0.06622,-0.2092,0.03967,0.00366,0.0032,0.04074,-0.00809,-0.01816,-0.03555,0.00916,-0.04227
7.844,-0.00305,-0.04227,-0.09933,-0.0145,-0.05859,-0.05936,-0.11581,0.03143,0.01328,0.0119,0.05676,-0.00412,-0.01572,-0.03235,0.00931,-0.04272
7.8445,-0.00412,-0.04929,-0.04318,-0.01419,-0.05096,-0.05127,0.01251,0.0322,0.01846,0.0177,0.06897,-0.00275,-0.01755,-0.0293,0.00931,-0.04608
7.845,-0.00397,-0.05539,-0.00504,-0.01343,-0.04608,-0.04501,0.13107,0.03769,0.01953,0.02045,0.07904,-0.00214,-0.01877,-0.0264,0.00931,-0.04974
7.8455,-0.00305,-0.05661,0.02258,-0.01343,-0.04425,-0.04089,0.18265,0.03464,0.01862,0.02258,0.08255,-0.00229,-0.02213,-0.02426,0.00854,-0.05173
7.846,-0.00534,-0.05646,0.04211,-0.01541,-0.03784,-0.04074,0.12878,0.01434,0.01816,0.02258,0.08057,-0.0029,-0.02426,-0.0235,0.00885,-0.05157
7.8465,-0.01022,-0.05661,0.05157,-0.01694,-0.02228,-0.04959,-0.0032,-0.01709,0.01892,0.01984,0.07446,-0.00366,-0.02533,-0.02289,0.00748,-0.05234
7.847,-0.0145,-0.0563,0.04807,-0.01648,-0.00076,-0.07217,-0.12314,-0.04364,0.02151,0.01923,0.07004,-0.0029,-0.02686,-0.02243,0.00748,-0.05722
7.8475,-0.01572,-0.05615,0.03128,-0.01846,0.02213,-0.10635,-0.17197,-0.05432,0.02518,0.02884,0.07126,-0.00168,-0.0264,-0.01877,0.00824,-0.06241
7.848,-0.01221,-0.05524,0.01221,-0.02121,0.03952,-0.13596,-0.159,-0.05066,0.02869,0.05386,0.07568,-0.00046,-0.02686,-0.01511,0.0087,-0.06317
7.8485,-0.00534,-0.05508,-0.00519,-0.02274,0.05035,-0.1413,-0.08926,-0.03418,0.02945,0.09918,0.08163,0.00092,-0.02884,-0.01236,0.00931,-0.05722
7.849,0.00366,-0.05478,-0.01602,-0.02304,0.05554,-0.11581,0.06577,-0.00824,0.02838,0.16586,0.08682,0.0032,-0.03204,-0.00977,0.00992,-0.04852
7.8495,0.01266,-0.05295,-0.02151,-0.01999,0.05554,-0.07782,0.25162,0.01907,0.02563,0.24826,0.09186,0.00687,-0.03418,-0.00702,0.01038,-0.04471
7.85,0.01892,-0.05295,-0.02518,-0.01617,0.05539,-0.04837,0.29068,0.03159,0.02182,0.32135,0.09567,0.01053,-0.03494,-0.00473,0.01022,-0.04608
7.8505,0.02106,-0.05432,-0.0235,-0.01328,0.05722,-0.03174,0.11566,0.02518,0.01617,0.35019,0.10056,0.01282,-0.03464,-0.0029,0.01022,-0.04822
7.851,0.02228,-0.05798,-0.01465,-0.01266,0.0589,-0.02258,-0.07385,0.00916,0.01053,0.32181,0.10803,0.01373,-0.03479,-0.00153,0.01068,-0.04974
7.8515,0.02335,-0.06149,-0.00198,-0.01389,0.05371,-0.01953,-0.10239,-0.00473,0.00443,0.25757,0.12421,0.01099,-0.03586,0.00153,0.01053,-0.05127
7.852,0.02335,-0.06607,0.00504,-0.01526,0.03494,-0.02716,-0.0441,-0.01129,-0.00122,0.17838,0.14725,0.0058,-0.0383,0.00412,0.00916,-0.05249
7.8525,0.02136,-0.06699,0.00748,-0.01648,0.00031,-0.03891,-0.03052,-0.01282,-0.00748,0.08133,0.16937,-0.00137,-0.03998,0.00381,0.009,-0.05463
7.853,0.01633,-0.05798,0.0116,-0.01602,-0.0415,-0.04211,-0.03662,-0.01099,-0.01297,-0.03769,0.18433,-0.00778,-0.0415,0.0032,0.01038,-0.05508
7.8535,0.01205,-0.04517,0.02106,-0.01389,-0.08621,-0.03235,-0.00214,-0.00824,-0.01953,-0.15808,0.18265,-0.01175,-0.04074,0.00229,0.01038,-0.05478
7.854,0.00854,-0.04227,0.03387,-0.01251,-0.12024,-0.02121,0.02716,-0.0058,-0.02594,-0.24506,0.15823,-0.01297,-0.03983,0.00153,0.01114,-0.05356
7.8545,0.00763,-0.05402,0.03922,-0.01205,-0.13504,-0.02289,-0.00397,-0.00427,-0.03281,-0.28717,0.1152,-0.00977,-0.03845,-0.00122,0.0116,-0.05112
7.855,0.00992,-0.06927,0.02808,-0.01251,-0.1387,-0.03006,-0.06149,-0.00565,-0.03693,-0.29877,0.065,-0.00458,-0.03891,-0.00427,0.01083,-0.04883
7.8555,0.01282,-0.06927,-0.01251,-0.01328,-0.14175,-0.02563,-0.09506,-0.00961,-0.04089,-0.29373,0.02274,0.00061,-0.03967,-0.00778,0.01083,-0.04593
7.856,0.01328,-0.05356,-0.09109,-0.01312,-0.15045,-0.00214,-0.11322,-0.01266,-0.04608,-0.28214,-0.00504,0.00443,-0.03998,-0.00961,0.0116,-0.04318
7.8565,0.009,-0.03922,-0.19821,-0.01389,-0.15442,0.03006,-0.12085,-0.01312,-0.05356,-0.26779,-0.0116,0.00809,-0.04028,-0.01144,0.01038,-0.04318
7.857,0.00397,-0.0351,-0.28763,-0.01526,-0.14465,0.0502,-0.06073,-0.00946,-0.06226,-0.25513,0.00259,0.01434,-0.03937,-0.01251,0.01022,-0.04288
7.8575,0.00214,-0.03326,-0.29053,-0.01526,-0.12512,0.04089,0.10147,-0.00519,-0.0679,-0.24475,0.02289,0.02487,-0.0386,-0.01282,0.01099,-0.04257
7.858,0.0032,-0.02533,-0.18341,-0.01373,-0.10208,0.00275,0.25833,-0.00473,-0.06927,-0.23239,0.03418,0.0322,-0.03799,-0.01434,0.01099,-0.04257
7.8585,0.00122,-0.01526,-0.01556,-0.0119,-0.08224,-0.04974,0.24216,-0.00946,-0.0679,-0.2153,0.02869,0.03372,-0.03769,-0.01678,0.01114,-0.04242
7.859,-0.00351,-0.00748,0.13535,-0.01221,-0.07217,-0.09277,0.04044,-0.01831,-0.06378,-0.19424,0.01465,0.03342,-0.03799,-0.01938,0.01099,-0.04227
7.8595,-0.00793,-0.01022,0.22888,-0.0145,-0.06989,-0.11017,-0.16327,-0.0293,-0.05936,-0.17426,0.0087,0.03464,-0.03647,-0.02258,0.01144,-0.04089
7.86,-0.00854,-0.03067,0.26352,-0.01526,-0.07095,-0.10956,-0.21591,-0.03983,-0.05692,-0.15686,0.01846,0.03525,-0.03616,-0.02594,0.01236,-0.03876
7.8605,-0.00427,-0.06668,0.25574,-0.01373,-0.065,-0.10452,-0.15198,-0.05264,-0.05661,-0.14252,0.03738,0.03418,-0.03555,-0.0293,0.0119,-0.03616
7.861,0.00092,-0.09033,0.22308,-0.01221,-0.04913,-0.10147,-0.07797,-0.07065,-0.05844,-0.13031,0.05722,0.03052,-0.03433,-0.03082,0.01205,-0.03693
7.8615,0.00488,-0.0853,0.18021,-0.0116,-0.03128,-0.09216,-0.02213,-0.09674,-0.05875,-0.11475,0.07065,0.02731,-0.03036,-0.02975,0.01175,-0.03815
7.862,0.00671,-0.06439,0.14145,-0.01083,-0.0209,-0.07202,0.04562,-0.12482,-0.05539,-0.09689,0.07675,0.02258,-0.02441,-0.02655,0.01205,-0.04028
7.8625,0.0058,-0.05356,0.11444,-0.01099,-0.01999,-0.04501,0.10132,-0.14297,-0.04807,-0.07614,0.07385,0.01892,-0.02151,-0.02396,0.0119,-0.0412
7.863,0.00412,-0.05676,0.09735,-0.00961,-0.02319,-0.02289,0.06546,-0.13779,-0.03769,-0.0563,0.06134,0.01755,-0.02182,-0.02228,0.01236,-0.04318
7.8635,0.0058,-0.05798,0.08881,-0.00839,-0.02533,-0.01572,-0.07431,-0.10559,-0.02701,-0.0412,0.04059,0.01785,-0.02411,-0.02197,0.01236,-0.0444
7.864,0.01068,-0.04745,0.08179,-0.00778,-0.03067,-0.02182,-0.22385,-0.05798,-0.01953,-0.03036,0.01541,0.01648,-0.02335,-0.01984,0.01251,-0.0473
7.8645,0.01648,-0.03372,0.07156,-0.00565,-0.04166,-0.03021,-0.28702,-0.02274,-0.01678,-0.01984,-0.00229,0.01526,-0.02045,-0.0177,0.01282,-0.04593
7.865,0.01938,-0.02563,0.06058,-0.00366,-0.04898,-0.03586,-0.25787,-0.01266,-0.0177,-0.01251,-0.01038,0.01602,-0.0209,-0.01556,0.01282,-0.04303
7.8655,0.01801,-0.02609,0.05417,-0.0029,-0.04593,-0.03891,-0.19745,-0.00595,-0.02014,-0.00702,-0.00504,0.02014,-0.02258,-0.01556,0.01297,-0.03952
7.866,0.01343,-0.0322,0.05005,-0.00336,-0.0351,-0.04364,-0.15961,0.02182,-0.02151,-0.00366,0.00549,0.02289,-0.02594,-0.01617,0.01297,-0.03876
7.8665,0.00854,-0.04044,0.04272,-0.00549,-0.02441,-0.04898,-0.14618,0.05829,-0.02121,0.00015,0.01923,0.01923,-0.03021,-0.01633,0.0119,-0.04028
7.867,0.00351,-0.04211,0.03403,-0.0061,-0.01755,-0.04944,-0.12115,0.06271,-0.02106,0.00458,0.03342,0.01099,-0.03265,-0.01587,0.01282,-0.0412
7.8675,0.0,-0.03357,0.02823,-0.00534,-0.01389,-0.04349,-0.07538,0.02197,-0.02075,0.00977,0.04593,0.00549,-0.03418,-0.01602,0.01175,-0.04211
7.868,-0.0032,-0.0177,0.02716,-0.00534,-0.01251,-0.03036,-0.06134,-0.03571,-0.0206,0.01556,0.05585,0.00275,-0.03326,-0.01648,0.01236,-0.04211
7.8685,-0.009,0.00046,0.02899,-0.00748,-0.01389,-0.01389,-0.08728,-0.07019,-0.02136,0.02136,0.06088,0.00061,-0.03189,-0.0145,0.01328,-0.04166
7.869,-0.0148,0.01968,0.02777,-0.0087,-0.01648,0.00458,-0.05402,-0.05554,-0.02243,0.02533,0.06226,-0.00168,-0.02914,-0.01297,0.01328,-0.0412
7.8695,-0.01816,0.03311,0.02304,-0.01144,-0.02136,0.01785,0.1123,0.01144,-0.02426,0.02716,0.06302,-0.00259,-0.02884,-0.0119,0.01328,-0.04044
7.87,-0.01663,0.02731,0.01419,-0.01343,-0.02853,0.01923,0.31662,0.11032,-0.02396,0.02838,0.06622,-0.00198,-0.02884,-0.0119,0.01419,-0.03983
7.8705,-0.01419,0.00259,0.00015,-0.01465,-0.03342,0.00809,0.38101,0.19058,-0.02365,0.02853,0.07263,-0.00107,-0.03128,-0.01282,0.01373,-0.03922
7.871,-0.01236,-0.01984,-0.01205,-0.01358,-0.03174,-0.01175,0.26215,0.20203,-0.02563,0.03006,0.0795,-0.00259,-0.03204,-0.01358,0.01282,-0.0386
7.8715,-0.01083,-0.02029,-0.01724,-0.01236,-0.02609,-0.03326,0.10056,0.14496,-0.02869,0.03387,0.0824,-0.00656,-0.0325,-0.01419,0.01221,-0.03769
7.872,-0.01053,-0.00381,-0.01617,-0.01511,-0.02029,-0.05173,0.04089,0.08179,-0.03067,0.03815,0.07843,-0.00931,-0.0322,-0.01572,0.01343,-0.03693
7.8725,-0.01297,0.01038,-0.00824,-0.0209,-0.0177,-0.05951,0.07019,0.06546,-0.0296,0.03906,0.07217,-0.00946,-0.03357,-0.01694,0.01465,-0.03601
7.873,-0.01831,0.01602,0.00336,-0.02441,-0.01724,-0.05554,0.07706,0.08362,-0.02777,0.03815,0.06424,-0.00854,-0.03464,-0.0177,0.01389,-0.03555
7.8735,-0.02731,0.0174,0.01678,-0.02594,-0.01678,-0.04761,0.00381,0.08682,-0.02838,0.03616,0.06088,-0.00793,-0.0354,-0.0174,0.01328,-0.03525
7.874,-0.03769,0.01892,0.02625,-0.02701,-0.01694,-0.04272,-0.11169,0.05737,-0.03082,0.03769,0.06058,-0.00732,-0.03494,-0.01602,0.01251,-0.03586
7.8745,-0.04501,0.01358,0.03036,-0.03189,-0.01587,-0.04242,-0.21057,0.02029,-0.03235,0.04257,0.06088,-0.0061,-0.03464,-0.01648,0.01099,-0.03647
7.875,-0.04654,-0.00458,0.03235,-0.03937,-0.00992,-0.03922,-0.27344,0.00031,-0.03174,0.06409,0.05905,-0.00397,-0.03479,-0.01816,0.01099,-0.0354
7.8755,-0.04135,-0.02914,0.03601,-0.04852,0.00229,-0.02365,-0.30975,-0.00092,-0.03082,0.10544,0.05539,-0.0029,-0.03525,-0.01892,0.01083,-0.03494
7.876,-0.03281,-0.047,0.04166,-0.06699,0.01938,0.00046,-0.3093,0.009,-0.03113,0.14328,0.04822,-0.00305,-0.03555,-0.01816,0.01144,-0.03433
7.8765,-0.02441,-0.05478,0.05142,-0.09613,0.03326,0.02441,-0.24521,0.0267,-0.03128,0.13702,0.04135,-0.00534,-0.03372,-0.01831,0.01221,-0.03586
7.877,-0.01877,-0.05356,0.06058,-0.11429,0.03922,0.02869,-0.11368,0.04257,-0.03189,0.07538,0.04211,-0.00885,-0.03204,-0.0174,0.01266,-0.03693
7.8775,-0.01419,-0.04868,0.06287,-0.08789,0.04166,0.00519,0.02136,0.04669,-0.03281,0.00122,0.047,-0.01373,-0.03021,-0.01541,0.0119,-0.04059
7.878,-0.00931,-0.04105,0.05585,-0.01068,0.04471,-0.04288,0.07599,0.03433,-0.03265,-0.04608,0.05295,-0.01678,-0.02792,-0.01389,0.01175,-0.0415
7.8785,-0.00656,-0.03159,0.0412,0.07141,0.04974,-0.09415,0.0444,0.0116,-0.03265,-0.05951,0.05463,-0.01694,-0.02869,-0.0148,0.01144,-0.04181
7.879,-0.00854,-0.01923,0.02548,0.10315,0.05615,-0.12924,0.02151,-0.00656,-0.03265,-0.05554,0.05386,-0.01434,-0.02899,-0.01663,0.01144,-0.04227
7.8795,-0.01328,-0.00885,0.01877,0.08347,0.05905,-0.13458,0.09415,-0.01144,-0.03296,-0.04883,0.05157,-0.0119,-0.03082,-0.01816,0.01251,-0.0412
7.88,-0.0174,-0.01266,0.02808,0.05417,0.05569,-0.11246,0.21378,-0.00458,-0.03296,-0.03937,0.04791,-0.01053,-0.03174,-0.01984,0.01297,-0.0386
7.8805,-0.01877,-0.0322,0.04242,0.04272,0.04166,-0.08179,0.23712,0.00168,-0.0322,-0.02777,0.04364,-0.01175,-0.03479,-0.02182,0.01251,-0.03632
7.881,-0.01907,-0.05417,0.04715,0.04181,0.01755,-0.06714,0.09903,0.00015,-0.03098,-0.0209,0.04456,-0.01389,-0.03571,-0.02243,0.0116,-0.03677
7.8815,-0.02075,-0.06851,0.03738,0.03555,-0.00885,-0.07294,-0.10498,-0.0061,-0.03098,-0.02045,0.05188,-0.01801,-0.03601,-0.02213,0.01083,-0.04135
7.882,-0.02365,-0.08118,0.02518,0.02304,-0.03632,-0.09018,-0.2179,-0.00977,-0.03159,-0.02731,0.0618,-0.02045,-0.03525,-0.0235,0.01053,-0.04807
7.8825,-0.02426,-0.10406,0.0177,0.01434,-0.0592,-0.09979,-0.17838,-0.00916,-0.0322,-0.03403,0.06775,-0.01801,-0.03799,-0.02502,0.00977,-0.05356
7.883,-0.02213,-0.12878,0.01114,0.01236,-0.06577,-0.0972,-0.06607,-0.00839,-0.03159,-0.03281,0.0705,-0.00946,-0.04059,-0.02594,0.01053,-0.05173
7.8835,-0.01938,-0.13336,-0.00229,0.01099,-0.04822,-0.08774,-0.01465,-0.0119,-0.03128,-0.02167,0.07034,0.00137,-0.04211,-0.02502,0.01144,-0.04639
7.884,-0.02029,-0.11032,-0.01831,0.00671,-0.02289,-0.07782,-0.06226,-0.01526,-0.03021,-0.00824,0.06927,0.00977,-0.04089,-0.02396,0.01175,-0.04135
7.8845,-0.02106,-0.07767,-0.02991,0.00107,-0.01434,-0.06897,-0.11642,-0.01404,-0.02945,-0.00137,0.06165,0.01053,-0.03738,-0.02426,0.01129,-0.0386
7.885,-0.01968,-0.05524,-0.0351,-0.00259,-0.02975,-0.06134,-0.09216,-0.01099,-0.0296,0.00031,0.04166,0.00275,-0.03555,-0.02518,0.01022,-0.03983
7.8855,-0.01678,-0.04471,-0.04028,-0.00519,-0.04944,-0.05615,-0.01862,-0.0174,-0.03067,0.00046,0.01434,-0.00687,-0.03464,-0.02594,0.00854,-0.04166
7.886,-0.01373,-0.03998,-0.04486,-0.00778,-0.0528,-0.05325,0.0145,-0.0415,-0.03052,0.00107,-0.01877,-0.01175,-0.03525,-0.02533,0.00854,-0.04196
7.8865,-0.01129,-0.03876,-0.04944,-0.00809,-0.03922,-0.04959,-0.02441,-0.07309,-0.02899,0.00168,-0.05234,-0.01022,-0.03555,-0.02548,0.00885,-0.04196
7.887,-0.00992,-0.03952,-0.05295,-0.0058,-0.02533,-0.0441,-0.06287,-0.09476,-0.02579,0.00519,-0.0769,-0.00778,-0.03571,-0.02594,0.009,-0.03891
7.8875,-0.00931,-0.04059,-0.05463,-0.00107,-0.02045,-0.03769,-0.00076,-0.1033,-0.02167,0.00839,-0.0885,-0.00534,-0.03464,-0.02579,0.00931,-0.03479
7.888,-0.00534,-0.03754,-0.05417,0.00305,-0.01999,-0.02869,0.14267,-0.10605,-0.01663,0.00122,-0.08942,-0.00565,-0.03433,-0.02502,0.00809,-0.03387
7.8885,0.00443,-0.03143,-0.05325,0.00443,-0.02197,-0.01755,0.22797,-0.10803,-0.01144,-0.01373,-0.08514,-0.00656,-0.03387,-0.02533,0.00671,-0.03464
7.889,0.01678,-0.02136,-0.05508,0.00381,-0.02304,-0.009,0.19928,-0.10239,-0.0087,-0.02365,-0.08224,-0.0087,-0.03342,-0.02563,0.00595,-0.03494
7.8895,0.02304,-0.00977,-0.06577,0.00015,-0.02319,-0.00992,0.2002,-0.0824,-0.00778,-0.01602,-0.08194,-0.00916,-0.03189,-0.02365,0.00671,-0.03601
7.89,0.02014,0.00305,-0.08118,-0.00153,-0.02563,-0.02762,0.33463,-0.0531,-0.00885,-0.00015,-0.08789,-0.00992,-0.03296,-0.02151,0.00656,-0.03815
7.8905,0.01068,0.01328,-0.08698,-0.00351,-0.02975,-0.056,0.44312,-0.02579,-0.01038,0.00534,-0.103,-0.01083,-0.03555,-0.0209,0.00595,-0.04196
7.891,0.00076,0.01984,-0.07614,-0.00381,-0.03159,-0.07797,0.31326,-0.00214,-0.01205,0.00046,-0.12711,-0.01328,-0.03647,-0.02045,0.00565,-0.04318
7.8915,-0.00809,0.02487,-0.05692,-0.00244,-0.02426,-0.08438,0.0029,0.02625,-0.01526,-0.00488,-0.15442,-0.01587,-0.03418,-0.02045,0.00732,-0.04395
7.892,-0.01495,0.0325,-0.03891,-0.00153,-0.00595,-0.07614,-0.23285,0.05676,-0.01755,-0.00488,-0.17731,-0.01785,-0.03296,-0.02213,0.00687,-0.04333
7.8925,-0.02121,0.04639,-0.02609,-0.00168,0.01663,-0.06516,-0.26794,0.06454,-0.01923,-0.00473,-0.18646,-0.01999,-0.03281,-0.0235,0.00732,-0.04517
7.893,-0.02487,0.06592,-0.01801,-0.00351,0.03571,-0.05966,-0.18448,0.03799,-0.02106,-0.01083,-0.18066,-0.02045,-0.03326,-0.02518,0.00717,-0.04532
7.8935,-0.02518,0.07919,-0.01312,-0.00565,0.04547,-0.05875,-0.11841,-0.00107,-0.02457,-0.01907,-0.16571,-0.0206,-0.03098,-0.02579,0.00656,-0.04532
7.894,-0.02457,0.07431,-0.01129,-0.00763,0.05249,-0.05798,-0.12192,-0.01709,-0.02762,-0.02319,-0.14923,-0.0209,-0.0296,-0.02563,0.0061,-0.04456
7.8945,-0.02472,0.05325,-0.01266,-0.00885,0.06073,-0.05493,-0.15366,-0.00717,-0.02884,-0.02548,-0.13351,-0.02045,-0.02945,-0.02609,0.00549,-0.04318
7.895,-0.02609,0.03082,-0.01785,-0.00931,0.06729,-0.05173,-0.14435,0.0061,-0.0293,-0.0293,-0.12146,-0.01953,-0.02991,-0.02701,0.00473,-0.0412
7.8955,-0.02869,0.01175,-0.02884,-0.01068,0.06531,-0.04852,-0.07553,0.0116,-0.02899,-0.03311,-0.1149,-0.01801,-0.03067,-0.02716,0.00458,-0.04074
7.896,-0.03098,-0.00732,-0.03983,-0.01389,0.05005,-0.04486,-0.02136,0.01938,-0.02701,-0.0351,-0.11124,-0.01678,-0.03311,-0.02731,0.00458,-0.03876
7.8965,-0.03326,-0.02853,-0.04837,-0.01709,0.01648,-0.03967,-0.06454,0.03815,-0.0238,-0.03723,-0.10757,-0.01587,-0.03616,-0.02777,0.00519,-0.03708
7.897,-0.03555,-0.04517,-0.05386,-0.01877,-0.03372,-0.03952,-0.17395,0.05829,-0.01999,-0.04105,-0.09979,-0.01678,-0.03586,-0.02914,0.00565,-0.03815
7.8975,-0.03647,-0.05676,-0.06027,-0.01907,-0.08896,-0.04745,-0.2507,0.06027,-0.01801,-0.04288,-0.09094,-0.02075,-0.03372,-0.03067,0.00488,-0.03891
7.898,-0.03357,-0.06165,-0.06668,-0.01709,-0.12421,-0.05463,-0.27786,0.03983,-0.01663,-0.0441,-0.08865,-0.02686,-0.03281,-0.03082,0.00427,-0.03723
7.8985,-0.02487,-0.0589,-0.06714,-0.01709,-0.12131,-0.05249,-0.28992,0.01282,-0.0177,-0.04257,-0.09216,-0.03159,-0.03326,-0.02777,0.00351,-0.03418
7.899,-0.00977,-0.04898,-0.06607,-0.02014,-0.09537,-0.03845,-0.22308,-0.00229,-0.01984,-0.03937,-0.09201,-0.03006,-0.03174,-0.02487,0.00305,-0.03326
7.8995,0.00885,-0.03937,-0.06897,-0.0238,-0.0766,-0.02121,0.02045,-0.00504,-0.02213,-0.03754,-0.07919,-0.02426,-0.02716,-0.02396,0.00275,-0.03448
7.9,0.02365,-0.03601,-0.07721,-0.02426,-0.07233,-0.00748,0.36041,-0.00763,-0.02365,-0.0383,-0.05936,-0.01907,-0.02029,-0.02411,0.00259,-0.03754
7.9005,0.03021,-0.03265,-0.08163,-0.02106,-0.06958,-0.00061,0.55267,-0.0177,-0.02441,-0.0415,-0.04745,-0.01648,-0.01419,-0.02411,0.0032,-0.03983
7.901,0.0296,-0.0206,-0.07095,-0.01907,-0.05951,0.00137,0.45807,-0.03754,-0.0238,-0.04242,-0.05081,-0.01358,-0.00946,-0.02319,0.0032,-0.04135
7.9015,0.0235,0.00107,-0.05035,-0.01968,-0.0499,-0.0032,0.21713,-0.05753,-0.02106,-0.03998,-0.06638,-0.00854,-0.0058,-0.02258,0.00305,-0.04074
7.902,0.01511,0.02716,-0.03479,-0.02274,-0.0502,-0.02106,0.06653,-0.05249,-0.01724,-0.03693,-0.08743,-0.00046,-0.00473,-0.01831,0.00397,-0.03784
7.9025,0.00839,0.04456,-0.04349,-0.02548,-0.05386,-0.0528,0.05646,-0.00229,-0.01251,-0.03387,-0.11124,0.00671,-0.00916,-0.0116,0.00412,-0.0383
7.903,0.00565,0.04379,-0.0795,-0.02655,-0.05676,-0.08865,0.05463,0.05951,-0.0087,-0.03387,-0.1326,0.00763,-0.01495,-0.00656,0.00397,-0.03815
7.9035,0.00381,0.02197,-0.13107,-0.02716,-0.05676,-0.11505,-0.02289,0.065,-0.00656,-0.03174,-0.14328,0.00153,-0.02151,-0.00549,0.00351,-0.03906
7.904,-0.00061,-0.01007,-0.17593,-0.0293,-0.0502,-0.11887,-0.12009,-0.00473,-0.00427,-0.02899,-0.1445,-0.0061,-0.03006,-0.01022,0.00366,-0.03983
7.9045,-0.00931,-0.03647,-0.19669,-0.03067,-0.03525,-0.10422,-0.15167,-0.08835,-0.00259,-0.02335,-0.13382,-0.01144,-0.0412,-0.01572,0.00351,-0.03906
7.905,-0.02136,-0.05295,-0.177,-0.02869,-0.02243,-0.0856,-0.11276,-0.11002,-0.00076,-0.01678,-0.11871,-0.01297,-0.05066,-0.01907,0.0029,-0.03922
7.9055,-0.03296,-0.06317,-0.11169,-0.02594,-0.02167,-0.08026,-0.06836,-0.05783,0.0,-0.01266,-0.10193,-0.0119,-0.05325,-0.02106,0.00305,-0.03983
7.906,-0.03998,-0.07294,-0.01678,-0.02304,-0.02991,-0.08591,-0.07919,0.0029,-0.00153,-0.01083,-0.08469,-0.01038,-0.05142,-0.02319,0.00275,-0.04013
7.9065,-0.04257,-0.07919,0.0708,-0.02014,-0.03281,-0.09415,-0.16479,0.01129,-0.00412,-0.00961,-0.07156,-0.00946,-0.05005,-0.02625,0.00275,-0.03708
7.907,-0.04135,-0.08423,0.13168,-0.01617,-0.02518,-0.09094,-0.29175,-0.02167,-0.00641,-0.00992,-0.06317,-0.00931,-0.04898,-0.02945,0.00275,-0.03845
7.9075,-0.03799,-0.09033,0.17105,-0.01328,-0.01572,-0.07889,-0.39017,-0.03754,-0.00793,-0.01022,-0.05661,-0.00916,-0.0441,-0.03098,0.00198,-0.03693
7.908,-0.03189,-0.0975,0.19791,-0.01175,-0.01038,-0.06744,-0.38818,-0.01282,-0.00885,-0.01221,-0.04959,-0.00931,-0.03418,-0.02899,0.00153,-0.03922
7.9085,-0.02594,-0.09766,0.19608,-0.01099,-0.00839,-0.06088,-0.26703,0.01602,-0.01007,-0.01495,-0.04318,-0.01251,-0.02274,-0.02548,0.00214,-0.04135
7.909,-0.02121,-0.08972,0.14557,-0.01022,-0.00885,-0.05753,-0.0824,0.00336,-0.01053,-0.01648,-0.03815,-0.01724,-0.01846,-0.02167,0.00305,-0.04379
7.9095,-0.01556,-0.08194,0.05371,-0.01129,-0.00854,-0.05249,0.08102,-0.05127,-0.01038,-0.01419,-0.0325,-0.02151,-0.01923,-0.01816,0.0029,-0.0444
7.91,-0.00839,-0.07919,-0.04181,-0.01343,-0.00931,-0.04639,0.17685,-0.09918,-0.00946,-0.00961,-0.02838,-0.0235,-0.02457,-0.01587,0.00305,-0.04333
7.9105,-0.00168,-0.07751,-0.11414,-0.01495,-0.01282,-0.0412,0.22293,-0.09567,-0.01038,-0.00565,-0.02472,-0.0235,-0.03082,-0.01511,0.00336,-0.0415
7.911,0.0029,-0.07217,-0.15594,-0.0148,-0.0174,-0.0412,0.24933,-0.04974,-0.01038,-0.00427,-0.01968,-0.02121,-0.03418,-0.0148,0.00473,-0.04318
7.9115,0.00778,-0.0647,-0.16541,-0.01389,-0.02213,-0.04333,0.24445,-0.00015,-0.01022,-0.00748,-0.01099,-0.01831,-0.03525,-0.01465,0.00412,-0.04135
7.912,0.01389,-0.05936,-0.13611,-0.01282,-0.02487,-0.04517,0.17487,0.03708,-0.01053,-0.00961,0.00702,-0.01663,-0.03387,-0.01434,0.00336,-0.03952
7.9125,0.01907,-0.05432,-0.07629,-0.01205,-0.0238,-0.04608,0.06683,0.06897,-0.01144,-0.01007,0.04196,-0.01755,-0.03159,-0.01282,0.00244,-0.03906
7.913,0.02014,-0.04929,-0.01099,-0.01114,-0.01892,-0.04318,-0.00885,0.08682,-0.0119,-0.01022,0.08102,-0.02228,-0.03036,-0.01236,0.00351,-0.03799
7.9135,0.01587,-0.04364,0.03693,-0.01205,-0.0116,-0.03677,-0.03433,0.06866,-0.00977,-0.01083,0.09384,-0.02808,-0.03204,-0.01251,0.00427,-0.03677
7.914,0.01038,-0.04196,0.06592,-0.01297,-0.00153,-0.03006,-0.05768,0.0148,-0.00793,-0.01083,0.07385,-0.03052,-0.03632,-0.01343,0.00504,-0.03632
7.9145,0.00839,-0.047,0.08148,-0.01221,0.01282,-0.02609,-0.09583,-0.04547,-0.0061,-0.01022,0.0444,-0.02594,-0.03937,-0.01312,0.00504,-0.0354
7.915,0.01022,-0.05753,0.08133,-0.01053,0.02945,-0.02548,-0.09247,-0.07431,-0.00702,-0.01038,0.03113,-0.01587,-0.04227,-0.01297,0.00397,-0.03616
7.9155,0.01541,-0.06531,0.06058,-0.00992,0.04776,-0.02625,-0.00732,-0.04868,-0.00824,-0.01297,0.03113,-0.00656,-0.04318,-0.01282,0.00458,-0.03754
7.916,0.02197,-0.06516,0.02747,-0.00946,0.06531,-0.02121,0.09964,0.02869,-0.00961,-0.01556,0.02792,0.00351,-0.04181,-0.01251,0.00473,-0.03632
7.9165,0.02853,-0.0621,-0.00443,-0.00885,0.08087,-0.01236,0.13107,0.12177,-0.00992,-0.01709,0.01831,0.01465,-0.03998,-0.01221,0.00549,-0.03586
7.917,0.03372,-0.06195,-0.02701,-0.00778,0.0885,-0.00534,0.07492,0.17639,-0.00931,-0.01648,0.00946,0.02853,-0.03769,-0.01221,0.00565,-0.03799
7.9175,0.03769,-0.06424,-0.0412,-0.00748,0.08179,-0.00259,0.00732,0.15533,-0.00793,-0.01556,-0.00031,0.03937,-0.03708,-0.01221,0.0058,-0.03662
7.918,0.03967,-0.06348,-0.05508,-0.00671,0.06088,-0.0029,-0.02579,0.07721,-0.00702,-0.01602,-0.01328,0.04059,-0.03754,-0.01205,0.00504,-0.03815
7.9185,0.03967,-0.06088,-0.07263,-0.00381,0.02686,-0.00107,-0.04089,0.0032,-0.00565,-0.01648,-0.02533,0.02991,-0.03693,-0.01221,0.00427,-0.03922
7.919,0.0386,-0.06195,-0.10132,-0.00137,-0.0174,-0.00153,-0.05081,-0.02365,-0.00565,-0.01633,-0.03052,0.01282,-0.03555,-0.01236,0.00519,-0.04074
7.9195,0.03799,-0.06775,-0.15045,0.00031,-0.05951,-0.01678,-0.04562,-0.01251,-0.00458,-0.01495,-0.0296,-0.00412,-0.03418,-0.01343,0.0058,-0.04044
7.92,0.03708,-0.07324,-0.22491,0.00153,-0.08911,-0.05005,-0.03265,0.00214,-0.00275,-0.01312,-0.02884,-0.01465,-0.03357,-0.01495,0.00763,-0.04074
7.9205,0.0351,-0.07675,-0.30777,0.00229,-0.11322,-0.08423,-0.02197,0.00458,-0.00153,-0.01312,-0.03067,-0.01694,-0.03387,-0.01495,0.00824,-0.0383
7.921,0.03036,-0.0795,-0.36362,0.00092,-0.13382,-0.09415,-0.00458,0.00092,-0.00061,-0.01526,-0.03128,-0.01373,-0.03525,-0.01389,0.00763,-0.03799
7.9215,0.02472,-0.08255,-0.36407,-0.00244,-0.13077,-0.08209,0.03296,-0.00031,-0.00046,-0.01724,-0.03128,-0.00748,-0.03586,-0.01297,0.00687,-0.03174
7.922,0.01923,-0.08438,-0.30319,-0.00488,-0.09705,-0.06622,0.06134,-0.00107,0.0,-0.01877,-0.03082,-0.0029,-0.03403,-0.01129,0.00702,-0.02625
7.9225,0.01663,-0.08347,-0.19958,-0.00732,-0.05325,-0.05966,0.03876,-0.00549,0.00031,-0.01816,-0.03143,-0.00183,-0.03098,-0.01022,0.00732,-0.02304
7.923,0.01816,-0.08118,-0.07721,-0.01038,-0.02899,-0.06058,-0.02167,-0.01099,-0.00046,-0.01663,-0.03006,-0.00427,-0.03113,-0.00946,0.00778,-0.02701
7.9235,0.02213,-0.07751,0.04181,-0.0119,-0.02182,-0.06058,-0.06134,-0.01144,-0.00244,-0.01572,-0.02808,-0.00961,-0.03113,-0.00992,0.00778,-0.03647
7.924,0.02365,-0.07248,0.13779,-0.01343,-0.0119,-0.0618,-0.05417,-0.00565,-0.00381,-0.01617,-0.02563,-0.0145,-0.03204,-0.01038,0.00717,-0.04471
7.9245,0.02029,-0.06744,0.19104,-0.01556,0.00443,-0.06393,-0.02594,-0.00244,-0.00259,-0.01785,-0.02457,-0.01282,-0.03159,-0.00992,0.00671,-0.04807
7.925,0.01251,-0.07019,0.19653,-0.01663,0.01358,-0.06592,-0.01007,-0.00656,-0.00153,-0.01755,-0.02457,-0.00595,-0.02945,-0.00946,0.00656,-0.04456
7.9255,0.0029,-0.09079,0.17334,-0.01709,0.00534,-0.06256,-0.01099,-0.01343,-0.00153,-0.01602,-0.02686,-0.00168,-0.02945,-0.01007,0.00702,-0.04089
7.926,-0.00717,-0.12573,0.13748,-0.01724,-0.01556,-0.05707,-0.02121,-0.0177,-0.00153,-0.01434,-0.02899,-0.00595,-0.03479,-0.01129,0.00824,-0.03586
7.9265,-0.0174,-0.14786,0.07889,-0.01709,-0.04089,-0.05539,-0.03479,-0.01801,-0.00046,-0.01343,-0.02914,-0.0148,-0.03906,-0.0119,0.00824,-0.0386
7.927,-0.02472,-0.13733,-0.01434,-0.01755,-0.06821,-0.05692,-0.04639,-0.01816,0.00031,-0.01221,-0.02792,-0.02151,-0.0415,-0.00992,0.00916,-0.03754
7.9275,-0.02975,-0.10391,-0.10574,-0.01724,-0.09445,-0.05661,-0.05081,-0.01816,0.00046,-0.01038,-0.02579,-0.02304,-0.03937,-0.00778,0.00809,-0.03769
7.928,-0.03632,-0.07965,-0.13733,-0.01663,-0.11505,-0.047,-0.05051,-0.01846,0.00092,-0.00854,-0.02502,-0.02319,-0.03601,-0.00641,0.00702,-0.03647
7.9285,-0.04379,-0.07782,-0.09583,-0.01633,-0.1236,-0.03311,-0.05005,-0.01709,0.00107,-0.00778,-0.0238,-0.0235,-0.03281,-0.00687,0.00702,-0.03647
7.929,-0.05035,-0.08041,-0.02457,-0.01678,-0.11871,-0.02319,-0.04929,-0.01602,0.00168,-0.00763,-0.02319,-0.02213,-0.03143,-0.00717,0.00748,-0.0354
7.9295,-0.05112,-0.06744,0.02838,-0.01572,-0.10025,-0.02396,-0.04654,-0.01419,0.00214,-0.00763,-0.02289,-0.01846,-0.03113,-0.00778,0.00839,-0.03433
7.93,-0.04868,-0.04684,0.04562,-0.01404,-0.07629,-0.02884,-0.04135,-0.01358,0.00122,-0.00702,-0.02365,-0.01556,-0.03128,-0.00854,0.00977,-0.03647
7.9305,-0.04684,-0.04288,0.03403,-0.0119,-0.05447,-0.03189,-0.03586,-0.01389,0.0,-0.00656,-0.02304,-0.01556,-0.02945,-0.00931,0.00946,-0.03799
7.931,-0.04684,-0.0679,0.01541,-0.01083,-0.03891,-0.03006,-0.03357,-0.01511,-0.00092,-0.00656,-0.01999,-0.01602,-0.03098,-0.01007,0.00961,-0.04059
7.9315,-0.04684,-0.10834,0.00641,-0.01053,-0.02716,-0.02853,-0.03342,-0.01587,-0.00061,-0.00763,-0.01678,-0.01602,-0.03082,-0.01114,0.00854,-0.04242
7.932,-0.04684,-0.13168,0.01312,-0.00961,-0.01694,-0.03036,-0.03326,-0.01694,-0.00031,-0.00839,-0.01465,-0.01831,-0.03265,-0.01328,0.009,-0.04532
7.9325,-0.04745,-0.12451,0.02808,-0.00931,-0.01389,-0.03433,-0.03159,-0.01846,-0.00122,-0.00763,-0.01556,-0.02563,-0.03296,-0.01495,0.00885,-0.04929
7.933,-0.04654,-0.10345,0.04166,-0.00778,-0.02014,-0.03738,-0.02792,-0.02106,-0.00275,-0.00397,-0.01678,-0.03662,-0.03387,-0.01556,0.00885,-0.05142
7.9335,-0.03983,-0.09247,0.04257,-0.00717,-0.03265,-0.03677,-0.02625,-0.0238,-0.00397,0.00122,-0.01556,-0.04379,-0.03403,-0.01511,0.00916,-0.05051
7.934,-0.02609,-0.09277,0.02686,-0.00702,-0.04242,-0.03784,-0.02472,-0.02609,-0.00366,0.00519,-0.01099,-0.04562,-0.03403,-0.01419,0.00824,-0.04807
7.9345,-0.01434,-0.09125,-0.00275,-0.00641,-0.04913,-0.03983,-0.02289,-0.02655,-0.00153,0.00778,-0.00763,-0.04456,-0.03235,-0.01389,0.00809,-0.04852
7.935,-0.00748,-0.08194,-0.04196,-0.00504,-0.05371,-0.04532,-0.02045,-0.02533,0.00015,0.00977,-0.00534,-0.04242,-0.03052,-0.01434,0.00824,-0.05142
7.9355,-0.00443,-0.07446,-0.08423,-0.00229,-0.05676,-0.04929,-0.01755,-0.02304,-0.00031,0.00931,-0.00412,-0.0386,-0.03021,-0.01526,0.00931,-0.05295
7.936,-0.00214,-0.0798,-0.12238,-0.00046,-0.05371,-0.04898,-0.01862,-0.02167,-0.00229,0.00946,-0.00198,-0.03067,-0.03036,-0.01587,0.009,-0.0502
7.9365,0.00122,-0.09979,-0.14633,0.00092,-0.04654,-0.04486,-0.0325,-0.01984,-0.00198,0.00931,-0.00015,-0.02258,-0.02914,-0.01556,0.00763,-0.047
7.937,0.0032,-0.13016,-0.15167,0.00061,-0.03967,-0.03952,-0.06027,-0.01877,0.00092,0.00778,-0.00168,-0.01663,-0.02945,-0.01373,0.00763,-0.047
7.9375,0.00397,-0.1651,-0.14099,-0.00168,-0.03693,-0.03464,-0.08713,-0.01709,0.00473,0.0058,-0.0061,-0.01465,-0.03113,-0.01175,0.00717,-0.0499
7.938,0.0029,-0.19623,-0.12375,-0.00626,-0.0351,-0.02945,-0.09293,-0.01633,0.00488,0.00595,-0.0087,-0.01221,-0.03189,-0.01083,0.00824,-0.05234
7.9385,-0.00107,-0.20981,-0.10773,-0.00977,-0.03128,-0.02304,-0.07675,-0.01633,0.00259,0.00626,-0.00793,-0.00595,-0.03235,-0.01297,0.00839,-0.05341
7.939,-0.00519,-0.19394,-0.09766,-0.01328,-0.02655,-0.01831,-0.06149,-0.0177,0.00122,0.00534,-0.00565,0.00458,-0.03036,-0.01511,0.00839,-0.05325
7.9395,-0.00702,-0.15701,-0.09247,-0.01663,-0.02319,-0.01709,-0.05539,-0.01724,0.00229,0.00458,-0.00488,0.0148,-0.02991,-0.01541,0.00885,-0.05249
7.94,-0.00671,-0.11719,-0.09094,-0.01816,-0.01984,-0.0206,-0.0415,-0.01389,0.00244,0.00427,-0.0058,0.01846,-0.03128,-0.01404,0.00916,-0.05081
7.9405,-0.00732,-0.08362,-0.09186,-0.02167,-0.01755,-0.0325,-0.00015,-0.00732,0.00244,0.00259,-0.00504,0.01312,-0.03235,-0.01236,0.00885,-0.04913
7.941,-0.00961,-0.05966,-0.09399,-0.03098,-0.01678,-0.05096,0.05249,0.00259,0.00214,0.00061,-0.00244,0.0061,-0.03265,-0.01205,0.00931,-0.04761
7.9415,-0.01175,-0.04166,-0.09689,-0.04761,-0.01602,-0.06378,0.07507,0.01373,0.00275,-0.00198,-0.00183,0.00336,-0.03174,-0.01282,0.00916,-0.04562
7.942,-0.01007,-0.02747,-0.10132,-0.07446,-0.0148,-0.06348,0.05615,0.02228,0.00259,-0.00565,-0.00168,0.00412,-0.03082,-0.01312,0.00839,-0.04379
7.9425,-0.00549,-0.01556,-0.10696,-0.09827,-0.01312,-0.05493,0.03571,0.02457,0.00259,-0.00992,-0.00336,0.00473,-0.03143,-0.01358,0.00854,-0.04257
7.943,0.0,-0.00702,-0.11398,-0.0856,-0.01114,-0.04562,0.04242,0.01968,0.00381,-0.01328,-0.00824,0.00504,-0.03052,-0.01343,0.00961,-0.04181
7.9435,0.00534,-0.00473,-0.11887,-0.01755,-0.01022,-0.04684,0.04608,0.00961,0.00504,-0.01328,-0.01816,0.00763,-0.03036,-0.01358,0.01007,-0.04288
7.944,0.00992,-0.00656,-0.1207,0.07538,-0.01038,-0.05783,0.00778,-0.00092,0.00549,-0.01419,-0.02762,0.01297,-0.03235,-0.01434,0.009,-0.04456
7.9445,0.01511,-0.00854,-0.11948,0.13031,-0.01175,-0.07065,-0.03616,-0.00854,0.00458,-0.01648,-0.03342,0.01785,-0.03387,-0.01511,0.00809,-0.0441
7.945,0.02151,-0.00885,-0.11734,0.12039,-0.01282,-0.07401,-0.02426,-0.01694,0.00351,-0.01968,-0.03387,0.02029,-0.03387,-0.01617,0.0087,-0.04333
7.9455,0.02884,-0.00397,-0.11642,0.08148,-0.01328,-0.06683,0.03128,-0.02731,0.00427,-0.02228,-0.03204,0.02365,-0.03189,-0.01724,0.00854,-0.04272
7.946,0.03571,0.00275,-0.12222,0.05646,-0.01495,-0.05493,0.05783,-0.03204,0.00488,-0.0238,-0.03281,0.02914,-0.03021,-0.01678,0.00854,-0.04166
7.9465,0.03738,0.00931,-0.13382,0.05066,-0.01633,-0.04974,0.03189,-0.02579,0.00443,-0.02441,-0.03464,0.03632,-0.03021,-0.01572,0.0087,-0.04288
7.947,0.03433,0.01419,-0.1413,0.0441,-0.0177,-0.04761,-0.00244,-0.01068,0.00275,-0.02487,-0.03693,0.03998,-0.03113,-0.0145,0.00854,-0.04242
7.9475,0.02457,0.01709,-0.13351,0.02991,-0.02045,-0.047,-0.00885,0.00275,0.00076,-0.02502,-0.03677,0.03983,-0.03159,-0.01526,0.00809,-0.04227
7.948,0.00793,0.01328,-0.11292,0.01617,-0.02594,-0.04303,0.00122,0.009,-0.00046,-0.02502,-0.03769,0.03525,-0.03159,-0.01709,0.00885,-0.04486
7.9485,-0.00854,-0.00534,-0.08469,0.00992,-0.03113,-0.04318,0.0029,0.00824,-0.00046,-0.02686,-0.0383,0.02899,-0.03204,-0.01877,0.00885,-0.04547
7.949,-0.02167,-0.03769,-0.05707,0.00748,-0.03479,-0.04745,-0.01083,0.00244,0.0,-0.02808,-0.04196,0.0238,-0.03403,-0.0209,0.00854,-0.04715
7.9495,-0.02808,-0.06241,-0.03235,0.0061,-0.03571,-0.05646,-0.02762,-0.00122,0.0,-0.02563,-0.04456,0.02045,-0.03616,-0.02304,0.00809,-0.04593
7.95,-0.02945,-0.05829,-0.01541,0.00427,-0.03632,-0.06134,-0.04135,-0.00336,-0.00076,-0.0206,-0.04379,0.01862,-0.0351,-0.02426,0.00809,-0.0441
7.9505,-0.02777,-0.02975,-0.01007,0.0029,-0.03586,-0.05966,-0.05875,-0.00366,-0.0029,-0.01877,-0.03983,0.01862,-0.03311,-0.02533,0.00748,-0.04318
7.951,-0.02655,-0.00092,-0.01755,0.00061,-0.03311,-0.05264,-0.08972,-0.00153,-0.00427,-0.02075,-0.0383,0.02029,-0.03204,-0.02426,0.00717,-0.04379
7.9515,-0.03098,0.01251,-0.03128,-0.00061,-0.02777,-0.0499,-0.12085,0.00046,-0.00626,-0.0235,-0.04044,0.02197,-0.03174,-0.02335,0.00824,-0.04425
7.952,-0.0412,0.01251,-0.0473,-0.00092,-0.02274,-0.05203,-0.12161,0.00122,-0.00854,-0.02518,-0.04288,0.02411,-0.03143,-0.02258,0.009,-0.04456
7.9525,-0.05112,0.00656,-0.06577,0.00183,-0.01907,-0.05524,-0.08148,0.00122,-0.01099,-0.02625,-0.04272,0.02533,-0.03128,-0.02304,0.00992,-0.04517
7.953,-0.05402,0.00122,-0.0827,0.00427,-0.0145,-0.05646,-0.03357,0.00137,-0.01251,-0.02579,-0.03967,0.02579,-0.03189,-0.02411,0.00916,-0.04608
7.9535,-0.04913,-0.00061,-0.09811,0.00427,-0.0058,-0.05371,-0.01266,0.00046,-0.0119,-0.02502,-0.03738,0.02533,-0.03311,-0.02472,0.009,-0.04623
7.954,-0.04059,0.00458,-0.1152,0.00061,0.00443,-0.05035,0.00336,-0.00076,-0.00977,-0.02167,-0.0383,0.02441,-0.03387,-0.02426,0.00763,-0.04364
7.9545,-0.03311,0.01526,-0.1329,-0.00443,0.01022,-0.04959,0.06851,-0.00046,-0.01007,-0.02014,-0.04089,0.02304,-0.03204,-0.02213,0.00687,-0.04028
7.955,-0.02853,0.0267,-0.13947,-0.00839,0.01434,-0.05112,0.17197,0.00092,-0.01266,-0.01953,-0.04272,0.02274,-0.03067,-0.01862,0.00946,-0.03632
7.9555,-0.02457,0.03189,-0.13016,-0.01221,0.01877,-0.0528,0.22354,0.00153,-0.01404,-0.01938,-0.04349,0.02136,-0.03098,-0.01587,0.00839,-0.03632
7.956,-0.01999,0.0264,-0.1178,-0.01648,0.01907,-0.0531,0.16205,0.0,-0.01495,-0.01953,-0.04547,0.01831,-0.03159,-0.01678,0.00763,-0.03738
7.9565,-0.01465,0.01068,-0.1181,-0.02121,0.00778,-0.05356,0.04272,-0.00046,-0.01465,-0.01709,-0.04822,0.01602,-0.03174,-0.01999,0.00732,-0.04044
7.957,-0.00854,-0.00748,-0.12634,-0.02579,-0.01053,-0.05478,-0.03128,-0.00046,-0.01419,-0.01282,-0.05081,0.0148,-0.03174,-0.02289,0.00702,-0.04135
7.9575,-0.00183,-0.01907,-0.12497,-0.03021,-0.02563,-0.05692,-0.03143,-0.00046,-0.01251,-0.00824,-0.05234,0.01434,-0.03128,-0.02533,0.00702,-0.04211
7.958,0.00534,-0.02136,-0.10544,-0.03494,-0.03387,-0.05966,-0.00641,-0.00275,-0.01114,-0.00626,-0.05341,0.0119,-0.03052,-0.02716,0.00687,-0.04349
7.9585,0.01114,-0.0206,-0.08026,-0.0386,-0.04288,-0.0621,0.00107,-0.00732,-0.01068,-0.00671,-0.0531,0.00732,-0.03021,-0.02716,0.00854,-0.04562
7.959,0.01221,-0.0235,-0.05829,-0.04044,-0.06241,-0.06454,-0.00443,-0.01022,-0.01038,-0.00702,-0.05081,0.00259,-0.03159,-0.02579,0.00839,-0.04654
7.9595,0.009,-0.02853,-0.04166,-0.0415,-0.09445,-0.06348,-0.00656,-0.01007,-0.01083,-0.0061,-0.04822,-0.00061,-0.03235,-0.02441,0.00824,-0.04608
7.96,0.00427,-0.03281,-0.02441,-0.04181,-0.12726,-0.06104,-0.00671,-0.00687,-0.00946,-0.00473,-0.04639,-0.00275,-0.03204,-0.02457,0.0087,-0.04639
7.9605,-0.00153,-0.04013,-0.01541,-0.04135,-0.14435,-0.05859,-0.009,-0.00259,-0.00717,-0.00366,-0.04669,-0.00626,-0.03265,-0.02716,0.00885,-0.04868
7.961,-0.0061,-0.04868,-0.01587,-0.03967,-0.13565,-0.05554,-0.0119,-0.00137,-0.00687,-0.00412,-0.04593,-0.01099,-0.03265,-0.03113,0.0087,-0.05234
7.9615,-0.00519,-0.05035,-0.02777,-0.03815,-0.11215,-0.05066,-0.01236,-0.00381,-0.00717,-0.00534,-0.04501,-0.01572,-0.03433,-0.0322,0.00717,-0.05356
7.962,0.00259,-0.04486,-0.04456,-0.0351,-0.09415,-0.0441,-0.01175,-0.01007,-0.00916,-0.0061,-0.04578,-0.01923,-0.03662,-0.03021,0.00641,-0.04868
7.9625,0.01343,-0.03769,-0.0592,-0.03296,-0.09033,-0.0354,-0.01221,-0.01526,-0.01221,-0.00671,-0.04578,-0.01877,-0.03952,-0.02853,0.00595,-0.03967
7.963,0.02151,-0.03281,-0.07156,-0.03128,-0.0882,-0.03082,-0.01282,-0.0145,-0.01724,-0.00809,-0.04456,-0.01389,-0.04059,-0.0293,0.00885,-0.03326
7.9635,0.02579,-0.02625,-0.08118,-0.03006,-0.07751,-0.02899,-0.01221,-0.00946,-0.02228,-0.00839,-0.04456,-0.00565,-0.03784,-0.03143,0.00809,-0.03616
7.964,0.02457,-0.0145,-0.08377,-0.0293,-0.0618,-0.0296,-0.01312,-0.00565,-0.02762,-0.00931,-0.04745,0.0,-0.03143,-0.03235,0.00793,-0.04272
7.9645,0.0174,0.00275,-0.07599,-0.02869,-0.05325,-0.02838,-0.02014,-0.00641,-0.03189,-0.00931,-0.05142,0.0029,-0.02426,-0.0325,0.00671,-0.04684
7.965,0.00977,0.02182,-0.06531,-0.02777,-0.0531,-0.02609,-0.04593,-0.00977,-0.03586,-0.01022,-0.05386,0.00336,-0.02197,-0.0322,0.00687,-0.04593
7.9655,0.00397,0.04074,-0.06042,-0.0264,-0.05386,-0.02563,-0.09567,-0.01114,-0.04074,-0.01297,-0.05234,0.00458,-0.0206,-0.03098,0.00793,-0.04349
7.966,0.00259,0.05859,-0.06317,-0.02487,-0.05234,-0.02609,-0.15549,-0.01068,-0.0444,-0.01572,-0.05035,0.00809,-0.01999,-0.03143,0.00717,-0.04074
7.9665,0.00015,0.0708,-0.06317,-0.02365,-0.04959,-0.02731,-0.19638,-0.01099,-0.04669,-0.01648,-0.04974,0.01373,-0.01663,-0.03311,0.00763,-0.03876
7.967,-0.00671,0.07172,-0.05753,-0.02243,-0.0473,-0.03036,-0.21103,-0.01221,-0.04837,-0.01663,-0.04929,0.0177,-0.01556,-0.03952,0.00778,-0.03723
7.9675,-0.01373,0.06134,-0.05081,-0.01968,-0.04837,-0.03418,-0.21057,-0.01328,-0.04883,-0.01663,-0.04883,0.01892,-0.01892,-0.04578,0.00702,-0.03586
7.968,-0.01755,0.04608,-0.05249,-0.01617,-0.04974,-0.03738,-0.19928,-0.01358,-0.04837,-0.0177,-0.04852,0.01495,-0.0293,-0.04974,0.00717,-0.03693
7.9685,-0.01724,0.03357,-0.05722,-0.01221,-0.05112,-0.0415,-0.15869,-0.01343,-0.04547,-0.01785,-0.04715,0.0119,-0.04593,-0.0502,0.00687,-0.03876
7.969,-0.0145,0.02686,-0.05478,-0.01007,-0.05081,-0.04684,-0.06195,-0.01068,-0.04089,-0.01709,-0.04486,0.0087,-0.06058,-0.04974,0.00778,-0.03891
7.9695,-0.00992,0.02396,-0.05005,-0.00946,-0.04959,-0.05157,0.07401,-0.00427,-0.03571,-0.0174,-0.04288,0.00824,-0.06622,-0.04929,0.0087,-0.03845
7.97,-0.0029,0.01801,-0.04974,-0.0116,-0.04761,-0.05508,0.14572,0.00381,-0.0322,-0.0206,-0.04318,0.00793,-0.06332,-0.04578,0.009,-0.03632
7.9705,0.00671,0.00748,-0.05234,-0.01556,-0.04761,-0.05508,0.05157,0.00748,-0.02991,-0.0235,-0.04333,0.00793,-0.05417,-0.03967,0.00992,-0.03479
7.971,0.01801,-0.00305,-0.05737,-0.01785,-0.04883,-0.05066,-0.1622,0.00809,-0.02853,-0.02319,-0.04608,0.00763,-0.04242,-0.03616,0.00931,-0.03372
7.9715,0.0322,-0.00854,-0.05676,-0.01724,-0.04959,-0.04608,-0.3299,0.00839,-0.02731,-0.02167,-0.04654,0.00565,-0.03235,-0.03616,0.0087,-0.03418
7.972,0.04333,-0.009,-0.0531,-0.01404,-0.04852,-0.04196,-0.33569,0.01129,-0.02731,-0.02213,-0.04608,0.0029,-0.02792,-0.03723,0.00702,-0.03479
7.9725,0.04837,-0.00687,-0.04791,-0.01083,-0.04761,-0.04242,-0.18616,0.01297,-0.02762,-0.02579,-0.04501,0.00122,-0.02716,-0.03632,0.00748,-0.0354
7.973,0.04913,-0.00488,-0.03754,-0.00946,-0.04669,-0.04456,0.02823,0.00809,-0.02731,-0.02655,-0.04486,0.00092,-0.02594,-0.03479,0.00824,-0.03586
7.9735,0.04868,-0.00397,-0.02853,-0.009,-0.04578,-0.04578,0.20203,-0.00122,-0.02472,-0.02426,-0.04562,0.00214,-0.0235,-0.03342,0.00778,-0.03662
7.974,0.04471,-0.00275,-0.01373,-0.009,-0.04593,-0.04562,0.29114,-0.0116,-0.02228,-0.02426,-0.04532,0.00443,-0.02289,-0.03357,0.00839,-0.03815
7.9745,0.03693,-0.00259,-0.00504,-0.00717,-0.04608,-0.04501,0.30899,-0.01511,-0.0209,-0.0267,-0.04364,0.0087,-0.02441,-0.03326,0.00732,-0.03937
7.975,0.02289,-0.00763,-0.01846,-0.00275,-0.04807,-0.04562,0.26276,-0.00992,-0.02121,-0.03265,-0.04379,0.01465,-0.02655,-0.03342,0.00916,-0.03967
7.9755,0.00549,-0.0206,-0.04623,0.00031,-0.05066,-0.04669,0.16251,-0.00107,-0.02151,-0.03525,-0.04608,0.01846,-0.02655,-0.03372,0.00961,-0.03952
7.976,-0.0116,-0.03662,-0.07248,-0.02426,-0.05295,-0.05081,0.05981,0.00519,-0.01984,-0.0351,-0.04822,0.01953,-0.02579,-0.03494,0.00946,-0.03967
7.9765,-0.02365,-0.04944,-0.09369,-0.10544,-0.0531,-0.05127,0.0116,0.00885,-0.01892,-0.03448,-0.04807,0.01877,-0.02518,-0.03723,0.00931,-0.04044
7.977,-0.02777,-0.05814,-0.11887,-0.22614,-0.05066,-0.05157,0.01663,0.01083,-0.01831,-0.03448,-0.04776,0.0177,-0.02838,-0.0383,0.0087,-0.04028
7.9775,-0.02869,-0.06653,-0.1564,-0.31281,-0.04913,-0.05188,0.03235,0.0119,-0.01755,-0.03357,-0.04776,0.01694,-0.0351,-0.0386,0.00931,-0.03937
7.978,-0.03098,-0.07614,-0.18219,-0.31723,-0.04868,-0.05127,0.03799,0.00809,-0.01755,-0.03296,-0.04883,0.01495,-0.04074,-0.03998,0.00946,-0.0383
7.9785,-0.03845,-0.08224,-0.16724,-0.24551,-0.04852,-0.05142,0.05432,0.00229,-0.01678,-0.03494,-0.04776,0.01221,-0.04242,-0.03937,0.00885,-0.03845
7.979,-0.04776,-0.08179,-0.10956,-0.12512,-0.04654,-0.05234,0.08667,-0.00015,-0.01663,-0.0383,-0.04517,0.00931,-0.03906,-0.03571,0.00839,-0.03906
7.9795,-0.05463,-0.07675,-0.03586,0.03357,-0.04425,-0.05295,0.103,0.00305,-0.01526,-0.03967,-0.04074,0.00687,-0.03387,-0.03113,0.01114,-0.03998
7.98,-0.05615,-0.07034,0.02884,0.21561,-0.04395,-0.05203,0.07278,0.00702,-0.01434,-0.03876,-0.03769,0.00473,-0.03067,-0.02899,0.01022,-0.04074
7.9805,-0.05234,-0.06561,0.07111,0.38437,-0.04471,-0.04974,-0.00122,0.00931,-0.01465,-0.03815,-0.03601,0.0032,-0.03235,-0.03113,0.01099,-0.04135
7.981,-0.04379,-0.05936,0.08087,0.48416,-0.04349,-0.04868,-0.07996,0.00946,-0.01465,-0.04166,-0.03693,0.00381,-0.0322,-0.03342,0.00916,-0.04166
7.9815,-0.03372,-0.0499,0.06287,0.44891,-0.04135,-0.04898,-0.09995,0.00946,-0.01373,-0.04196,-0.03677,0.00687,-0.03143,-0.03387,0.00763,-0.04242
7.982,-0.02594,-0.04486,0.03387,0.26291,-0.03922,-0.04883,-0.02914,0.00885,-0.01221,-0.04364,-0.03601,0.00961,-0.03052,-0.03189,0.00793,-0.04349
7.9825,-0.01724,-0.05203,0.00946,0.02838,-0.03876,-0.04791,0.08209,0.00748,-0.01007,-0.04471,-0.03448,0.01007,-0.03021,-0.02884,0.00854,-0.04379
7.983,-0.0058,-0.06973,-0.00198,-0.10254,-0.03662,-0.04471,0.1413,0.00687,-0.00809,-0.04654,-0.0322,0.01099,-0.03128,-0.02747,0.01175,-0.04333
7.9835,0.00702,-0.08743,-0.00168,-0.08865,-0.03647,-0.04105,0.11108,0.00595,-0.00641,-0.04578,-0.03036,0.01236,-0.03128,-0.02731,0.01205,-0.04242
7.984,0.01678,-0.09369,0.00412,-0.02502,-0.03677,-0.03876,0.03983,0.00366,-0.00473,-0.04623,-0.02975,0.0148,-0.03143,-0.0296,0.01221,-0.04257
7.9845,0.0206,-0.08911,0.01419,-0.00351,-0.03708,-0.03738,-0.00336,0.00183,-0.00458,-0.047,-0.02945,0.0145,-0.03204,-0.03143,0.01175,-0.04181
7.985,0.02014,-0.07782,0.02563,-0.02258,-0.03922,-0.03815,-0.00687,0.00122,-0.00641,-0.0473,-0.02853,0.01266,-0.03357,-0.03311,0.01068,-0.04227
7.9855,0.01648,-0.06454,0.03326,-0.03922,-0.04211,-0.03983,-0.00061,0.00214,-0.00839,-0.04822,-0.02533,0.01221,-0.03433,-0.03418,0.01053,-0.04272
7.986,0.00916,-0.05905,0.03586,-0.04166,-0.04379,-0.04227,-0.00687,0.00198,-0.009,-0.04883,-0.02335,0.01083,-0.03448,-0.03632,0.00931,-0.04211
7.9865,-0.00107,-0.07507,0.03525,-0.04242,-0.04486,-0.04532,-0.01724,0.00183,-0.0087,-0.05203,-0.02243,0.01114,-0.03357,-0.03616,0.01083,-0.04089
7.987,-0.00961,-0.11551,0.02991,-0.04288,-0.04517,-0.0473,-0.02274,0.0029,-0.00931,-0.05188,-0.02213,0.01038,-0.0325,-0.03494,0.01068,-0.0386
7.9875,-0.01358,-0.15411,0.02014,-0.03647,-0.04532,-0.0499,-0.02289,0.00351,-0.01129,-0.05569,-0.01968,0.00961,-0.03204,-0.03296,0.0119,-0.03922
7.988,-0.01373,-0.16174,0.00839,-0.02731,-0.0444,-0.05127,-0.02518,0.00336,-0.01404,-0.05753,-0.01724,0.00839,-0.03052,-0.03128,0.01205,-0.04059
7.9885,-0.00931,-0.13657,-0.00534,-0.02747,-0.04486,-0.05295,-0.02716,0.00198,-0.01495,-0.05966,-0.01694,0.00717,-0.03036,-0.03174,0.01053,-0.04196
7.989,-0.00031,-0.10223,-0.02274,-0.03723,-0.04562,-0.05417,-0.02686,0.00137,-0.01251,-0.06027,-0.01724,0.00671,-0.03113,-0.0325,0.01022,-0.04257
7.9895,0.009,-0.0737,-0.03342,-0.04562,-0.04517,-0.05493,-0.02548,0.00183,-0.00854,-0.05905,-0.01846,0.00778,-0.0322,-0.03082,0.01053,-0.04303
7.99,0.01404,-0.04974,-0.04181,-0.04623,-0.04318,-0.05447,-0.02533,0.0029,-0.0061,-0.06119,-0.01816,0.00854,-0.03235,-0.02884,0.01251,-0.04547
7.9905,0.01587,-0.02625,-0.04288,-0.04272,-0.04349,-0.05188,-0.02792,0.0029,-0.00534,-0.06302,-0.01968,0.00824,-0.03159,-0.02747,0.01266,-0.0473
7.991,0.01678,-0.00549,-0.03799,-0.04089,-0.04395,-0.04929,-0.02884,0.00092,-0.00443,-0.06729,-0.0206,0.00671,-0.03189,-0.02808,0.0119,-0.04944
7.9915,0.0174,0.00854,-0.03143,-0.04013,-0.04501,-0.04669,-0.02655,-0.00137,-0.00275,-0.06851,-0.01953,0.00519,-0.03281,-0.02838,0.01129,-0.04913
7.992,0.0174,0.0177,-0.02411,-0.03769,-0.04532,-0.04547,-0.02243,-0.00336,-0.00153,-0.06897,-0.02014,0.00351,-0.03479,-0.02747,0.00977,-0.04807
7.9925,0.01572,0.02518,-0.01175,-0.03464,-0.04349,-0.04639,-0.02075,-0.00519,-0.00153,-0.06775,-0.02426,0.00305,-0.03845,-0.02426,0.01099,-0.04791
7.993,0.01373,0.03067,-0.00153,-0.0322,-0.0412,-0.04578,-0.02167,-0.00671,-0.00046,-0.06638,-0.02914,0.0029,-0.04242,-0.02167,0.01129,-0.0473
7.9935,0.01251,0.03036,0.00626,-0.03159,-0.03799,-0.04517,-0.02487,-0.00763,0.0,-0.06607,-0.03113,0.0029,-0.04272,-0.01846,0.01053,-0.047
7.994,0.01251,0.02335,0.00443,-0.03326,-0.03647,-0.04639,-0.02838,-0.0087,0.00031,-0.06729,-0.02884,0.00214,-0.03983,-0.0148,0.01099,-0.0473
7.9945,0.01617,0.00931,-0.00183,-0.03479,-0.03555,-0.0473,-0.02808,-0.0087,-0.00031,-0.06653,-0.02579,0.00015,-0.03555,-0.01068,0.01251,-0.0473
7.995,0.02151,-0.01053,-0.01038,-0.03418,-0.03616,-0.04745,-0.0238,-0.00687,-0.00214,-0.06424,-0.02579,-0.00229,-0.03113,-0.00793,0.01297,-0.04807
7.9955,0.02747,-0.0267,-0.01633,-0.03113,-0.03937,-0.04807,-0.02075,-0.00305,-0.00275,-0.0589,-0.02747,-0.00397,-0.02609,-0.00702,0.01266,-0.04837
7.996,0.02914,-0.03021,-0.02502,-0.0296,-0.04669,-0.04883,-0.02365,0.00122,-0.00198,-0.05432,-0.02777,-0.0058,-0.02136,-0.00748,0.01205,-0.04761
7.9965,0.02365,-0.02335,-0.02716,-0.02945,-0.05722,-0.04944,-0.03143,0.00198,-0.00137,-0.05341,-0.02747,-0.00687,-0.0174,-0.00961,0.0119,-0.04639
7.997,0.01495,-0.01419,-0.02243,-0.03082,-0.06989,-0.04807,-0.03876,-0.00244,-0.00183,-0.05508,-0.02747,-0.00885,-0.01633,-0.0119,0.01099,-0.04364
7.9975,0.00671,-0.00839,-0.02106,-0.0325,-0.08224,-0.04456,-0.04517,-0.00977,-0.0029,-0.05463,-0.02914,-0.01312,-0.01648,-0.01587,0.01068,-0.04288
7.998,0.00198,-0.00565,-0.01892,-0.03265,-0.08896,-0.04242,-0.05981,-0.01556,-0.00443,-0.05402,-0.03143,-0.0177,-0.0174,-0.01907,0.0119,-0.0444
7.9985,0.00122,-0.00275,-0.02182,-0.02991,-0.0885,-0.04349,-0.08759,-0.0177,-0.00534,-0.05585,-0.03296,-0.02106,-0.02106,-0.02243,0.01251,-0.04562
7.999,0.00473,0.00015,-0.02594,-0.02563,-0.07965,-0.04486,-0.11536,-0.01434,-0.0058,-0.05798,-0.0325,-0.02075,-0.03098,-0.02502,0.00992,-0.04639
7.9995,0.01144,-0.00015,-0.02594,-0.02106,-0.06485,-0.04501,-0.12344,-0.01144,-0.00534,-0.05814,-0.02975,-0.01984,-0.04852,-0.0264,0.00824,-0.04608
8.0,0.01526,-0.00809,-0.02136,-0.01892,-0.05417,-0.04578,-0.11536,-0.01389,-0.00549,-0.05646,-0.02625,-0.02045,-0.06287,-0.02472,0.01312,-0.04623
8.0005,0.01358,-0.02106,-0.01587,-0.02014,-0.04807,-0.04822,-0.11475,-0.02243,-0.00488,-0.05432,-0.02426,-0.02106,-0.06348,-0.0206,0.01389,-0.04822
8.001,0.0087,-0.03403,-0.01221,-0.02228,-0.04349,-0.05188,-0.12756,-0.03036,-0.00427,-0.05356,-0.02274,-0.02014,-0.05219,-0.01526,0.01114,-0.04974
8.0015,0.0058,-0.04471,-0.01007,-0.0238,-0.03876,-0.05402,-0.12253,-0.03387,-0.00397,-0.05081,-0.02258,-0.01389,-0.04318,-0.01038,0.01175,-0.04929
8.002,0.00519,-0.05081,-0.00687,-0.02411,-0.04013,-0.05508,-0.05829,-0.03036,-0.00473,-0.04837,-0.02213,-0.00305,-0.04028,-0.00702,0.01053,-0.04807
8.0025,0.00641,-0.0528,-0.00198,-0.02243,-0.04684,-0.05524,0.03784,-0.02258,-0.00549,-0.04456,-0.01968,0.01236,-0.03952,-0.00381,0.01053,-0.04593
8.003,0.00488,-0.05188,0.00153,-0.02151,-0.05661,-0.05219,0.08575,-0.01495,-0.00656,-0.04318,-0.01663,0.03052,-0.03738,-0.00031,0.01038,-0.04517
8.0035,-0.00107,-0.04913,0.00458,-0.02182,-0.05966,-0.04471,0.0737,-0.00961,-0.00702,-0.04013,-0.01328,0.0444,-0.03296,0.00153,0.01053,-0.04517
8.004,-0.01068,-0.0473,0.00778,-0.02045,-0.05692,-0.03372,0.06805,-0.00916,-0.00824,-0.0386,-0.01221,0.0502,-0.03281,-0.00031,0.01068,-0.04532
8.0045,-0.02106,-0.04608,0.0145,-0.01709,-0.05096,-0.02411,0.07538,-0.01099,-0.01022,-0.03799,-0.01266,0.04959,-0.03464,-0.00397,0.01068,-0.0444
8.005,-0.0293,-0.04517,0.02121,-0.01343,-0.04761,-0.02319,0.03494,-0.0119,-0.01297,-0.03738,-0.01373,0.04089,-0.03708,-0.00626,0.00946,-0.04333
8.0055,-0.03357,-0.04364,0.02365,-0.01053,-0.04761,-0.03464,-0.0473,-0.00854,-0.01419,-0.03754,-0.01511,0.02563,-0.03647,-0.00549,0.00977,-0.0444
8.006,-0.03586,-0.04257,0.02457,-0.009,-0.04822,-0.05173,-0.10468,-0.00336,-0.01511,-0.04013,-0.01633,0.00717,-0.03403,-0.00336,0.00992,-0.04486
8.0065,-0.03815,-0.04272,0.02396,-0.009,-0.04974,-0.06241,-0.12299,-0.00168,-0.01572,-0.03983,-0.01816,-0.00778,-0.03418,-0.00336,0.00977,-0.04272
8.007,-0.04089,-0.0441,0.02335,-0.00854,-0.04913,-0.06332,-0.1329,-0.00504,-0.01663,-0.0415,-0.01938,-0.01633,-0.03403,-0.00534,0.01144,-0.03983
8.0075,-0.04166,-0.04913,0.02426,-0.00778,-0.04822,-0.06058,-0.12695,-0.00748,-0.01587,-0.03998,-0.0209,-0.02121,-0.03387,-0.00565,0.00763,-0.03799
8.008,-0.03708,-0.0563,0.02563,-0.00641,-0.04456,-0.06119,-0.07858,-0.00534,-0.01404,-0.03983,-0.02182,-0.02579,-0.03342,-0.00504,0.00854,-0.03647
8.0085,-0.03006,-0.06119,0.01999,-0.00732,-0.0412,-0.0618,0.00092,-0.00183,-0.01251,-0.04257,-0.02151,-0.03021,-0.03189,-0.00534,0.00916,-0.03555
8.009,-0.02243,-0.06027,-0.00473,-0.0087,-0.04013,-0.05905,0.07416,0.00031,-0.0119,-0.0473,-0.01907,-0.03418,-0.0322,-0.00671,0.00931,-0.03494
8.0095,-0.0145,-0.05447,-0.04593,-0.00778,-0.03983,-0.05402,0.13184,0.00275,-0.01205,-0.047,-0.01572,-0.03296,-0.03326,-0.00778,0.00931,-0.03357
8.01,-0.00748,-0.05173,-0.0795,-0.00702,-0.0383,-0.05203,0.17563,0.0061,-0.01099,-0.04608,-0.01343,-0.0325,-0.03433,-0.00671,0.00885,-0.03555
8.0105,-0.00198,-0.05508,-0.07782,-0.00656,-0.03525,-0.05051,0.19379,0.00641,-0.01068,-0.04593,-0.01266,-0.0412,-0.03281,-0.00534,0.00824,-0.04074
8.011,0.00214,-0.06058,-0.04776,-0.00763,-0.03326,-0.04715,0.18417,0.00305,-0.01068,-0.04654,-0.00931,-0.06073,-0.03143,-0.00519,0.00793,-0.047
8.0115,0.0061,-0.05829,-0.00366,-0.00626,-0.03159,-0.04059,0.15625,0.00031,-0.00977,-0.04868,-0.00473,-0.0827,-0.03189,-0.00534,0.00748,-0.05173
8.012,0.0087,-0.04761,0.03555,-0.00305,-0.03281,-0.0354,0.10178,0.00046,-0.00854,-0.04913,-0.00198,-0.09628,-0.03235,-0.00565,0.00687,-0.05325
8.0125,0.00824,-0.03616,0.05753,-0.00259,-0.03128,-0.0322,0.0296,0.00122,-0.0087,-0.04959,-0.00137,-0.09888,-0.03067,-0.00366,0.00687,-0.05356
8.013,0.0061,-0.02838,0.06348,-0.00427,-0.0293,-0.03006,-0.0148,0.00153,-0.00824,-0.04883,-0.00153,-0.09201,-0.02975,-0.00046,0.00778,-0.05356
8.0135,0.00534,-0.02777,0.05554,-0.00549,-0.0264,-0.03036,-0.00732,0.00259,-0.00687,-0.04883,0.00031,-0.07492,-0.03082,0.00183,0.00961,-0.05157
8.014,0.00397,-0.03098,0.04089,-0.00305,-0.02426,-0.03159,0.02121,0.0029,-0.00381,-0.04715,0.00137,-0.05447,-0.03052,0.00092,0.0087,-0.04868
8.0145,0.00137,-0.03403,0.02823,0.0,-0.02335,-0.03448,0.0296,0.00214,-0.00137,-0.04608,0.00381,-0.0415,-0.03113,-0.00061,0.009,-0.04578
8.015,-0.0029,-0.03662,0.02335,0.00198,-0.02609,-0.03632,0.01343,-0.00031,-0.00031,-0.04562,0.00687,-0.0383,-0.03128,-0.00122,0.01053,-0.0444
8.0155,-0.00565,-0.03876,0.02197,0.00244,-0.02747,-0.04089,-0.00458,-0.00214,-0.00031,-0.04578,0.01038,-0.03662,-0.0296,0.00046,0.00641,-0.04333
8.016,-0.00778,-0.04074,0.0238,0.00275,-0.02899,-0.04593,-0.0116,-0.0032,-0.00061,-0.04593,0.00992,-0.02869,-0.02975,0.00412,0.00793,-0.04318
8.0165,-0.01114,-0.04318,0.0267,0.00336,-0.03021,-0.05051,-0.01312,-0.00183,-0.00153,-0.04608,0.0087,-0.0206,-0.03128,0.00748,0.00732,-0.04364
8.017,-0.01282,-0.04318,0.01953,0.00336,-0.02945,-0.05432,-0.01877,0.00076,-0.00168,-0.04395,0.01175,-0.0209,-0.03235,0.00885,0.00732,-0.04364
8.0175,-0.00824,-0.0415,-0.0148,0.00305,-0.02777,-0.05447,-0.02792,0.00275,-0.00153,-0.04028,0.01984,-0.02716,-0.03128,0.00778,0.00717,-0.04318
8.018,0.0,-0.0415,-0.07462,0.0029,-0.02655,-0.05341,-0.03418,0.00244,-0.00153,-0.03815,0.02609,-0.03296,-0.03006,0.00824,0.00717,-0.04349
8.0185,0.00519,-0.04715,-0.1416,0.00259,-0.02609,-0.05219,-0.03708,0.00031,-0.00046,-0.03738,0.02838,-0.03784,-0.03052,0.01038,0.00748,-0.04471
8.019,0.00595,-0.05539,-0.177,0.00198,-0.02625,-0.05325,-0.03815,-0.00107,0.00137,-0.03601,0.02884,-0.04501,-0.03082,0.0119,0.00854,-0.04639
8.0195,0.00366,-0.05981,-0.17029,0.00137,-0.02533,-0.05585,-0.03815,-0.00015,0.00366,-0.03326,0.03113,-0.04929,-0.03189,0.01297,0.00961,-0.04578
8.02,0.00031,-0.05371,-0.12482,0.00259,-0.02411,-0.0589,-0.03815,0.00198,0.00488,-0.0296,0.03403,-0.04517,-0.03174,0.01266,0.00916,-0.04395
8.0205,-0.00412,-0.03952,-0.06485,0.00366,-0.02274,-0.05951,-0.03784,0.00183,0.00366,-0.02853,0.03738,-0.03922,-0.03113,0.01266,0.00931,-0.04303
8.021,-0.009,-0.02945,-0.01434,0.00412,-0.02289,-0.05676,-0.03845,0.00092,0.00198,-0.02991,0.04044,-0.04547,-0.03174,0.0116,0.00885,-0.04318
8.0215,-0.0116,-0.03723,0.00214,0.00397,-0.0264,-0.05371,-0.03952,0.0,0.00092,-0.02731,0.04288,-0.06622,-0.03143,0.0116,0.009,-0.0444
8.022,-0.01144,-0.05844,-0.02518,0.00336,-0.02762,-0.05096,-0.03906,-0.00168,0.00015,-0.02365,0.04333,-0.08316,-0.03159,0.01205,0.01068,-0.04532
8.0225,-0.0116,-0.07813,-0.06729,0.00305,-0.02747,-0.05066,-0.03845,-0.00351,0.00015,-0.01968,0.04395,-0.07675,-0.03006,0.01389,0.00885,-0.04547
8.023,-0.01419,-0.09384,-0.08163,0.00122,-0.02518,-0.05051,-0.03754,-0.00443,0.0,-0.01602,0.04623,-0.05112,-0.02975,0.0148,0.00793,-0.04562
8.0235,-0.01526,-0.11185,-0.05737,-0.00153,-0.02487,-0.05035,-0.03693,-0.00397,0.0,-0.01343,0.04974,-0.02533,-0.03036,0.0145,0.00931,-0.04532
8.024,-0.01175,-0.12634,-0.01862,-0.00366,-0.0264,-0.04898,-0.03632,-0.0032,-0.00031,-0.01358,0.05203,-0.01038,-0.0296,0.01373,0.0087,-0.04593
8.0245,-0.00336,-0.12482,0.01144,-0.00336,-0.02777,-0.0473,-0.03555,-0.00534,-0.00061,-0.01282,0.05066,-0.00015,-0.02869,0.01251,0.00885,-0.047
8.025,0.00504,-0.10315,0.03189,-0.00229,-0.02533,-0.047,-0.03387,-0.0061,-0.00092,-0.01236,0.04944,0.0174,-0.02991,0.0116,0.00824,-0.04776
8.0255,0.01083,-0.07568,0.0473,-0.00076,-0.01877,-0.04669,-0.0325,-0.00626,-0.00183,-0.01114,0.05157,0.04852,-0.03174,0.00977,0.00931,-0.0473
8.026,0.01099,-0.05569,0.05875,-0.00107,-0.009,-0.04822,-0.03159,-0.00473,-0.00198,-0.00854,0.05615,0.08957,-0.0325,0.00732,0.00824,-0.04547
8.0265,0.00854,-0.04364,0.05127,-0.0032,0.0029,-0.04883,-0.03036,-0.00381,-0.00244,-0.00717,0.06088,0.1268,-0.03296,0.00519,0.00824,-0.04532
8.027,0.00748,-0.03464,0.03174,-0.00534,0.01602,-0.05051,-0.02808,-0.00381,-0.00351,-0.00702,0.06271,0.14877,-0.03281,0.00305,0.00854,-0.04501
8.0275,0.00809,-0.0264,-0.0148,-0.00671,0.02853,-0.05112,-0.02701,-0.00183,-0.00458,-0.00656,0.06271,0.15732,-0.03418,0.00122,0.00748,-0.04578
8.028,0.00763,-0.01816,-0.10468,-0.00687,0.0441,-0.05341,-0.02792,0.00168,-0.0058,-0.00565,0.06317,0.16266,-0.03632,-0.00015,0.00671,-0.04669
8.0285,0.0061,-0.00824,-0.22369,-0.00839,0.06195,-0.05676,-0.02914,0.00275,-0.00824,-0.0058,0.0647,0.16663,-0.03754,-0.00153,0.00809,-0.04578
8.029,0.00351,-0.00092,-0.31357,-0.01053,0.07828,-0.06058,-0.02777,-0.00015,-0.01083,-0.00092,0.06592,0.16449,-0.03754,-0.0032,0.01129,-0.04456
8.0295,0.00153,-0.00351,-0.32303,-0.0116,0.08453,-0.06348,-0.02609,-0.00778,-0.0116,-0.00137,0.06577,0.15305,-0.03494,-0.00381,0.0061,-0.0444
8.03,0.00137,-0.0177,-0.25833,-0.0116,0.07568,-0.06638,-0.03189,-0.01617,-0.01099,-0.00031,0.06607,0.1355,-0.03235,-0.00458,0.0087,-0.04532
8.0305,0.00198,-0.03448,-0.17136,-0.01068,0.04639,-0.06851,-0.04944,-0.01999,-0.01068,-0.00168,0.06729,0.11002,-0.0325,-0.00595,0.00854,-0.04501
8.031,0.00412,-0.04211,-0.09613,-0.00916,0.00092,-0.0705,-0.07263,-0.01862,-0.01129,-0.00336,0.07034,0.08026,-0.03342,-0.00717,0.00748,-0.04501
8.0315,0.00366,-0.03983,-0.03693,-0.00778,-0.05096,-0.07004,-0.08698,-0.01755,-0.01251,-0.00275,0.07263,0.06119,-0.03448,-0.00885,0.00778,-0.04395
8.032,-0.00122,-0.03326,0.0032,-0.00717,-0.09033,-0.06699,-0.08453,-0.02518,-0.01434,-0.00229,0.07233,0.05966,-0.03418,-0.00992,0.00809,-0.04395
8.0325,-0.009,-0.02716,0.02594,-0.00839,-0.10788,-0.0618,-0.06943,-0.03616,-0.01694,-0.00183,0.06973,0.06409,-0.03571,-0.0119,0.00763,-0.04547
8.033,-0.01617,-0.02014,0.03845,-0.01022,-0.11017,-0.05432,-0.05188,-0.02716,-0.01953,-0.00046,0.06683,0.05783,-0.03525,-0.01389,0.00809,-0.04562
8.0335,-0.01999,-0.0119,0.06287,-0.01205,-0.12421,-0.04456,-0.03922,0.01236,-0.02258,0.00092,0.065,0.03738,-0.03281,-0.01541,0.0087,-0.04349
8.034,-0.01724,-0.00595,0.1001,-0.01373,-0.14862,-0.03799,-0.02289,0.05768,-0.02579,0.00198,0.05981,0.01801,-0.03174,-0.01678,0.0087,-0.04211
8.0345,-0.01297,-0.00397,0.12741,-0.01511,-0.16281,-0.03586,0.00977,0.06927,-0.02716,0.00061,0.05035,0.0116,-0.03159,-0.01587,0.00916,-0.04181
8.035,-0.0087,-0.0061,0.12878,-0.01465,-0.14618,-0.0383,0.04547,0.03952,-0.02762,-0.00031,0.04272,0.01999,-0.03311,-0.01358,0.00809,-0.04318
8.0355,-0.00443,-0.00793,0.10818,-0.01266,-0.11154,-0.0412,0.0444,-0.00534,-0.02808,-0.00031,0.04211,0.03403,-0.03296,-0.01312,0.00885,-0.04333
8.036,-0.00168,-0.00793,0.08728,-0.01114,-0.08194,-0.04242,-0.00534,-0.03769,-0.02945,0.00488,0.04517,0.0444,-0.03204,-0.01312,0.00824,-0.04379
8.0365,-0.00015,-0.00824,0.07614,-0.01328,-0.06866,-0.04333,-0.06271,-0.04333,-0.03098,0.00885,0.04578,0.04364,-0.03189,-0.01358,0.00717,-0.0441
8.037,-0.00137,-0.01022,0.07355,-0.02319,-0.06317,-0.0441,-0.08423,-0.02106,-0.03143,0.00824,0.0444,0.03586,-0.0325,-0.01419,0.009,-0.04395
8.0375,-0.00549,-0.00992,0.06927,-0.04333,-0.0563,-0.04501,-0.06851,0.01343,-0.03204,0.00671,0.04425,0.02914,-0.03281,-0.01556,0.0087,-0.04318
8.038,-0.01236,-0.00244,0.05737,-0.07172,-0.04807,-0.04593,-0.03448,0.03113,-0.03235,0.00641,0.0473,0.03021,-0.03326,-0.01511,0.00763,-0.04288
8.0385,-0.0206,0.01007,0.03799,-0.08331,-0.04333,-0.04578,0.01434,0.02213,-0.0322,0.00854,0.04974,0.03357,-0.03265,-0.01236,0.00671,-0.0444
8.039,-0.02548,0.02487,0.0116,-0.04181,-0.04211,-0.04669,0.06668,0.00534,-0.03204,0.01114,0.05051,0.03372,-0.0322,-0.009,0.00748,-0.04639
8.0395,-0.02533,0.03418,-0.00839,0.04547,-0.03754,-0.04761,0.08972,0.00061,-0.03265,0.01205,0.0499,0.0325,-0.03265,-0.00763,0.00885,-0.047
8.04,-0.01999,0.04044,-0.03586,0.11932,-0.03372,-0.04791,0.0647,0.00824,-0.03296,0.01068,0.05066,0.0354,-0.0322,-0.00931,0.00916,-0.04578
8.0405,-0.01541,0.04517,-0.05432,0.12665,-0.02975,-0.04883,0.01984,0.01221,-0.03342,0.01099,0.0502,0.04211,-0.03128,-0.01083,0.009,-0.04501
8.041,-0.01343,0.04959,-0.07568,0.08606,-0.02502,-0.04898,-0.00336,0.01007,-0.03387,0.0116,0.04807,0.04578,-0.03159,-0.01038,0.00854,-0.0444
8.0415,-0.00946,0.05447,-0.09521,0.04974,-0.0209,-0.04745,-0.00092,0.00595,-0.03342,0.01343,0.04623,0.04059,-0.0322,-0.00992,0.00809,-0.04532
8.042,-0.00458,0.05981,-0.11292,0.03738,-0.01694,-0.04623,0.00397,0.00275,-0.03357,0.01358,0.04547,0.02914,-0.03265,-0.01022,0.00793,-0.04654
8.0425,-0.00229,0.06287,-0.12054,0.03357,-0.01801,-0.04715,-0.00061,-0.00183,-0.03479,0.01404,0.04456,0.01266,-0.0325,-0.0116,0.00961,-0.047
8.043,-0.00412,0.06104,-0.11917,0.02396,-0.01755,-0.05035,-0.00778,-0.00626,-0.03723,0.0116,0.0412,-0.00305,-0.03326,-0.01389,0.0087,-0.04532
8.0435,-0.00717,0.04776,-0.11612,0.01373,-0.01724,-0.05249,-0.00946,-0.00839,-0.03891,0.01144,0.03586,-0.01556,-0.03235,-0.01465,0.00885,-0.04349
8.044,-0.00992,0.01831,-0.12024,0.00931,-0.01694,-0.05188,-0.00839,-0.00671,-0.04059,0.00977,0.0325,-0.02258,-0.03189,-0.01495,0.00839,-0.04257
8.0445,-0.01144,-0.01266,-0.13321,0.00717,-0.0174,-0.05051,-0.00809,-0.00488,-0.04196,0.00854,0.03036,-0.02838,-0.03098,-0.01511,0.00854,-0.04272
8.045,-0.01236,-0.02304,-0.14496,0.00305,-0.01953,-0.0499,-0.00992,-0.00534,-0.04257,0.00763,0.02792,-0.03296,-0.03006,-0.01602,0.00992,-0.04425
8.0455,-0.01343,-0.00854,-0.14755,-0.00244,-0.01923,-0.04944,-0.01114,-0.0061,-0.04211,0.00717,0.02533,-0.0354,-0.03128,-0.01755,0.00961,-0.04456
8.046,-0.01556,0.0116,-0.1506,-0.0087,-0.01724,-0.04822,-0.01282,-0.00702,-0.04181,0.00732,0.02197,-0.03662,-0.03235,-0.01923,0.00885,-0.0441
8.0465,-0.01831,0.0206,-0.1828,-0.01526,-0.01587,-0.04944,-0.01434,-0.00732,-0.04288,0.00732,0.02075,-0.03876,-0.03189,-0.01801,0.00839,-0.04318
8.047,-0.02121,0.0206,-0.24658,-0.01892,-0.01724,-0.05035,-0.01587,-0.00809,-0.04242,0.00824,0.01907,-0.03998,-0.03098,-0.01724,0.00839,-0.04333
8.0475,-0.02426,0.02014,-0.32883,-0.01984,-0.01678,-0.05051,-0.01572,-0.00778,-0.04303,0.01053,0.01785,-0.04135,-0.03159,-0.01709,0.00885,-0.04257
8.048,-0.02686,0.02136,-0.40009,-0.01984,-0.01694,-0.05051,-0.01465,-0.00778,-0.04227,0.01053,0.0174,-0.03937,-0.03159,-0.01602,0.00916,-0.04242
8.0485,-0.02655,0.01877,-0.43701,-0.01968,-0.01312,-0.0499,-0.01266,-0.00687,-0.04379,0.00977,0.01526,-0.03677,-0.03082,-0.0145,0.01007,-0.04257
8.049,-0.02121,0.01358,-0.40512,-0.01953,-0.01083,-0.04852,-0.01297,-0.00763,-0.04608,0.00778,0.01328,-0.03601,-0.03128,-0.01343,0.00931,-0.04303
8.0495,-0.01266,0.0087,-0.28625,-0.01709,-0.01053,-0.04654,-0.01404,-0.00793,-0.047,0.00854,0.00992,-0.03586,-0.03159,-0.01312,0.00885,-0.04318
8.05,-0.00687,0.0029,-0.11047,-0.01419,-0.01038,-0.0441,-0.01602,-0.00778,-0.047,0.0119,0.00809,-0.03571,-0.03204,-0.01205,0.009,-0.0415
8.0505,-0.00717,-0.00824,0.05692,-0.0148,-0.01007,-0.04425,-0.01678,-0.00793,-0.0473,0.01129,0.00763,-0.03433,-0.03098,-0.01053,0.00946,-0.04074
8.051,-0.00946,-0.02884,0.17059,-0.01801,-0.01221,-0.0473,-0.01678,-0.00961,-0.04761,0.01068,0.00824,-0.03311,-0.02975,-0.009,0.00946,-0.04074
8.0515,-0.01175,-0.05554,0.23132,-0.0209,-0.01343,-0.04959,-0.01709,-0.01038,-0.04776,0.00946,0.00656,-0.03021,-0.03052,-0.009,0.00931,-0.04105
8.052,-0.01022,-0.07645,0.25482,-0.02213,-0.0145,-0.04868,-0.01663,-0.01022,-0.04745,0.00717,0.00198,-0.02914,-0.03082,-0.00931,0.00992,-0.04028
8.0525,-0.00641,-0.08514,0.24506,-0.02258,-0.01495,-0.047,-0.01511,-0.01083,-0.047,0.00702,-0.00214,-0.0293,-0.03113,-0.00931,0.00961,-0.03937
8.053,0.0,-0.08453,0.20462,-0.02289,-0.01633,-0.047,-0.01526,-0.01221,-0.04684,0.01038,-0.00458,-0.03098,-0.03006,-0.00854,0.00916,-0.03906
8.0535,0.00641,-0.09171,0.14923,-0.0235,-0.01526,-0.04852,-0.01678,-0.01297,-0.04669,0.01282,-0.00473,-0.03281,-0.02945,-0.00793,0.00916,-0.03983
8.054,0.00992,-0.1149,0.0972,-0.02457,-0.01236,-0.04868,-0.01953,-0.01175,-0.0473,0.01389,-0.00687,-0.0325,-0.02884,-0.00763,0.00885,-0.04074
8.0545,0.01038,-0.14328,0.0592,-0.02502,-0.00916,-0.04837,-0.02151,-0.00931,-0.047,0.01389,-0.01083,-0.03189,-0.02762,-0.00702,0.00916,-0.04105
8.055,0.01114,-0.1622,0.02701,-0.02426,-0.009,-0.04883,-0.02243,-0.00717,-0.04822,0.01358,-0.0145,-0.03174,-0.02625,-0.00793,0.00931,-0.04074
8.0555,0.01083,-0.17166,0.00137,-0.02396,-0.01266,-0.05066,-0.02365,-0.00687,-0.04944,0.01312,-0.01572,-0.03265,-0.02655,-0.00977,0.00916,-0.03922
8.056,0.01328,-0.17899,-0.0174,-0.0238,-0.01785,-0.05295,-0.02533,-0.00732,-0.05081,0.01328,-0.01556,-0.03387,-0.02716,-0.01129,0.009,-0.03769
8.0565,0.01968,-0.18616,-0.02991,-0.02335,-0.02274,-0.05493,-0.02563,-0.00839,-0.05096,0.01099,-0.01785,-0.03555,-0.02808,-0.0116,0.00809,-0.0383
8.057,0.02853,-0.18875,-0.04181,-0.02182,-0.02502,-0.05539,-0.02441,-0.00885,-0.05035,0.01053,-0.02197,-0.03738,-0.0296,-0.01251,0.00778,-0.03922
8.0575,0.03525,-0.18204,-0.06439,-0.02075,-0.02441,-0.05524,-0.02304,-0.00931,-0.05096,0.0116,-0.02518,-0.03738,-0.03036,-0.01373,0.00809,-0.03983
8.058,0.03632,-0.16571,-0.10422,-0.02151,-0.02533,-0.05539,-0.02289,-0.0087,-0.0531,0.01114,-0.02396,-0.0322,-0.02991,-0.0145,0.00809,-0.03799
8.0585,0.03403,-0.15167,-0.14694,-0.02319,-0.03281,-0.05371,-0.02579,-0.0087,-0.05508,0.01099,-0.02274,-0.02319,-0.0296,-0.01526,0.00809,-0.03677
8.059,0.03326,-0.15381,-0.17136,-0.02396,-0.04623,-0.05524,-0.03204,-0.01007,-0.0563,0.01022,-0.02396,-0.01495,-0.02838,-0.01556,0.00793,-0.03555
8.0595,0.03433,-0.17334,-0.16144,-0.02365,-0.05875,-0.05539,-0.0412,-0.01099,-0.05569,0.01053,-0.02701,-0.01053,-0.02853,-0.01602,0.00839,-0.03525
8.06,0.03189,-0.19791,-0.12451,-0.02258,-0.06622,-0.05432,-0.04898,-0.01038,-0.05356,0.01129,-0.02853,-0.00763,-0.02945,-0.01526,0.00824,-0.03571
8.0605,0.02396,-0.21362,-0.07828,-0.02213,-0.06592,-0.05356,-0.05051,-0.00977,-0.05386,0.01205,-0.02899,-0.00763,-0.03082,-0.01511,0.00748,-0.03571
8.061,0.01038,-0.21942,-0.03281,-0.02136,-0.05844,-0.05005,-0.04547,-0.01144,-0.05569,0.01114,-0.02823,-0.01099,-0.03128,-0.01434,0.00717,-0.03525
8.0615,-0.00107,-0.22461,0.00885,-0.02121,-0.05066,-0.04837,-0.03769,-0.01343,-0.05692,0.00824,-0.02869,-0.01617,-0.03113,-0.01373,0.00732,-0.03555
8.062,-0.01053,-0.23209,0.04089,-0.02075,-0.04639,-0.04807,-0.02838,-0.01266,-0.05569,0.0061,-0.03067,-0.02289,-0.03036,-0.01297,0.00778,-0.03525
8.0625,-0.01923,-0.233,0.05692,-0.02014,-0.04593,-0.05066,-0.01389,-0.01038,-0.05341,0.00504,-0.03052,-0.02853,-0.02945,-0.01404,0.00854,-0.03494
8.063,-0.03128,-0.22186,0.04745,-0.02029,-0.04608,-0.05127,0.009,-0.00763,-0.05264,0.00748,-0.03036,-0.03387,-0.02899,-0.01312,0.00961,-0.03448
8.0635,-0.04456,-0.20065,0.01099,-0.01862,-0.04471,-0.05081,0.02899,-0.00641,-0.05417,0.00961,-0.02869,-0.03967,-0.02991,-0.01236,0.00931,-0.03387
8.064,-0.05722,-0.17807,-0.04395,-0.01709,-0.04211,-0.04974,0.02884,-0.00549,-0.05539,0.00992,-0.02563,-0.04837,-0.02991,-0.01282,0.00717,-0.03403
8.0645,-0.06653,-0.16266,-0.08926,-0.01617,-0.04044,-0.04837,0.00732,-0.00443,-0.056,0.00916,-0.02396,-0.05722,-0.02899,-0.01434,0.00549,-0.03433
8.065,-0.07202,-0.15793,-0.09766,-0.01587,-0.04028,-0.04959,-0.01312,-0.0029,-0.05585,0.00885,-0.0235,-0.06516,-0.02808,-0.01526,0.00549,-0.0351
8.0655,-0.07202,-0.15991,-0.07004,-0.01465,-0.04105,-0.04974,-0.01541,-0.00153,-0.05524,0.01022,-0.02319,-0.07339,-0.02899,-0.01556,0.00595,-0.03494
8.066,-0.06821,-0.15961,-0.02548,-0.01175,-0.04089,-0.0499,-0.00961,-0.00092,-0.05539,0.01053,-0.02243,-0.08301,-0.03128,-0.01587,0.00641,-0.03433
8.0665,-0.06393,-0.15274,0.01495,-0.01099,-0.04089,-0.05081,-0.01129,-0.00198,-0.05463,0.00961,-0.0206,-0.09415,-0.03128,-0.01648,0.00549,-0.03296
8.067,-0.0618,-0.13977,0.03784,-0.01297,-0.03998,-0.04929,-0.01648,-0.00412,-0.05371,0.00931,-0.02045,-0.10483,-0.03082,-0.01709,0.00534,-0.03235
8.0675,-0.06058,-0.12238,0.03571,-0.01724,-0.03937,-0.04822,-0.0177,-0.00702,-0.05386,0.00916,-0.02228,-0.11765,-0.03021,-0.01953,0.00534,-0.03433
8.068,-0.05737,-0.10147,0.01511,-0.0206,-0.03983,-0.04715,-0.02243,-0.00931,-0.05432,0.00931,-0.02518,-0.13107,-0.03052,-0.02197,0.00656,-0.03738
8.0685,-0.04944,-0.08011,-0.0116,-0.02243,-0.03815,-0.04593,-0.04074,-0.00946,-0.05325,0.00824,-0.02914,-0.14084,-0.03082,-0.02411,0.00641,-0.03799
8.069,-0.04059,-0.0592,-0.03433,-0.02655,-0.03677,-0.04456,-0.05661,-0.00885,-0.05188,0.00717,-0.03235,-0.14923,-0.03036,-0.02396,0.00565,-0.03632
8.0695,-0.03082,-0.03677,-0.05081,-0.03052,-0.0354,-0.04227,-0.047,-0.00671,-0.05005,0.00809,-0.03265,-0.1532,-0.03098,-0.02243,0.0058,-0.03494
8.07,-0.02151,-0.01266,-0.0676,-0.03372,-0.0354,-0.04333,-0.01984,-0.0032,-0.0499,0.00946,-0.02945,-0.1474,-0.03143,-0.02197,0.0061,-0.03464
8.0705,-0.01389,0.00732,-0.08698,-0.0383,-0.03632,-0.04898,-0.00275,-0.00076,-0.04944,0.00916,-0.02701,-0.12817,-0.03189,-0.02197,0.00595,-0.03387
8.071,-0.00916,0.01053,-0.10437,-0.04303,-0.03662,-0.04822,-0.00732,-0.00031,-0.04807,0.00824,-0.02487,-0.10345,-0.0322,-0.02289,0.0058,-0.03448
8.0715,-0.0058,-0.00381,-0.11383,-0.04227,-0.03616,-0.0502,-0.01633,-0.00153,-0.04517,0.00793,-0.02289,-0.07935,-0.03174,-0.02411,0.00534,-0.03464
8.072,0.0,-0.02594,-0.11276,-0.02655,-0.03601,-0.04837,-0.01648,-0.00061,-0.04257,0.00732,-0.01999,-0.056,-0.03159,-0.0238,0.00549,-0.0351
8.0725,0.00809,-0.04196,-0.10834,0.00244,-0.03464,-0.04822,-0.01083,0.00092,-0.04303,0.00519,-0.0174,-0.03448,-0.03067,-0.02319,0.00534,-0.03647
8.073,0.01434,-0.05234,-0.1001,0.03006,-0.03296,-0.05051,-0.0087,0.00198,-0.04349,0.00229,-0.0148,-0.0119,-0.0296,-0.02335,0.00565,-0.03769
8.0735,0.01511,-0.05783,-0.09308,0.03799,-0.03143,-0.05081,-0.01038,0.00122,-0.04349,0.0029,-0.01114,0.00946,-0.0296,-0.02258,0.00565,-0.03815
8.074,0.01266,-0.06027,-0.08926,0.02426,-0.03067,-0.04761,-0.0119,-0.00168,-0.04257,0.00473,-0.00854,0.02945,-0.03036,-0.02213,0.00656,-0.03845
8.0745,0.01099,-0.05859,-0.08362,0.00336,-0.02991,-0.04639,-0.0116,-0.00412,-0.04211,0.00565,-0.00671,0.04745,-0.03128,-0.02197,0.00671,-0.0386
8.075,0.01083,-0.05432,-0.07965,-0.0119,-0.02975,-0.047,-0.01068,-0.00412,-0.04105,0.00443,-0.00488,0.06409,-0.03128,-0.02228,0.00732,-0.03845
8.0755,0.00961,-0.04715,-0.07492,-0.01541,-0.02991,-0.04791,-0.01175,-0.00381,-0.03891,0.00198,-0.00015,0.07858,-0.03235,-0.02213,0.00763,-0.03876
8.076,0.00626,-0.03799,-0.06943,-0.01221,-0.03082,-0.04868,-0.01328,-0.00351,-0.03769,0.00229,0.00641,0.09186,-0.03235,-0.02197,0.00763,-0.04028
8.0765,0.0058,-0.03113,-0.06561,-0.0087,-0.03098,-0.04623,-0.01465,-0.0029,-0.03784,0.00488,0.0116,0.10345,-0.0322,-0.02151,0.00778,-0.04135
8.077,0.00854,-0.02762,-0.06439,-0.00854,-0.03098,-0.04684,-0.01648,-0.0029,-0.03738,0.00397,0.01602,0.11322,-0.03159,-0.0209,0.00916,-0.0415
8.0775,0.01038,-0.02686,-0.06821,-0.01022,-0.03021,-0.04669,-0.0177,-0.00305,-0.03601,0.00229,0.01984,0.1207,-0.03128,-0.02121,0.00687,-0.04074
8.078,0.01083,-0.02548,-0.07416,-0.0119,-0.02762,-0.04623,-0.01801,-0.00305,-0.03448,-0.00031,0.0264,0.12619,-0.03235,-0.02213,0.00885,-0.0412
8.0785,0.01068,-0.02228,-0.06882,-0.01038,-0.02441,-0.04562,-0.01648,-0.00168,-0.03326,-0.00107,0.03265,0.13184,-0.03342,-0.02228,0.00656,-0.04242
8.079,0.009,-0.01984,-0.05798,-0.0087,-0.02106,-0.04547,-0.01556,-0.00092,-0.0325,0.00015,0.03616,0.13687,-0.03387,-0.02197,0.00778,-0.0444
8.0795,0.0061,-0.01953,-0.04196,-0.00702,-0.02045,-0.04501,-0.01495,0.0,-0.03098,0.00061,0.03815,0.14053,-0.0322,-0.01984,0.00809,-0.04501
8.08,0.00183,-0.01968,-0.02945,-0.00824,-0.0206,-0.04364,-0.01541,0.00092,-0.02914,0.00229,0.04303,0.1445,-0.03036,-0.01678,0.0087,-0.04379
8.0805,-0.00168,-0.01709,-0.01923,-0.01022,-0.02121,-0.04379,-0.01633,0.00168,-0.02838,0.00549,0.05234,0.1503,-0.03021,-0.01495,0.01007,-0.04303
8.081,-0.00381,-0.01282,-0.01205,-0.01282,-0.02167,-0.04349,-0.01678,0.00061,-0.0293,0.00732,0.06058,0.15625,-0.03082,-0.01389,0.01144,-0.04227
8.0815,-0.00427,-0.00748,-0.00931,-0.01312,-0.0209,-0.04715,-0.01678,-0.00031,-0.0296,0.00778,0.0647,0.15701,-0.03052,-0.01495,0.01099,-0.0412
8.082,-0.00504,-0.00305,-0.01175,-0.01266,-0.01923,-0.04868,-0.01617,-0.00076,-0.02991,0.00748,0.06851,0.15488,-0.03021,-0.01617,0.00977,-0.04028
8.0825,-0.00732,0.00015,-0.01511,-0.01083,-0.01694,-0.04959,-0.01663,-0.00153,-0.03052,0.00702,0.07446,0.15289,-0.03098,-0.01801,0.009,-0.03952
8.083,-0.00809,0.00259,-0.01938,-0.00931,-0.01648,-0.04852,-0.01648,-0.00168,-0.03098,0.00641,0.0798,0.15259,-0.0322,-0.02014,0.00916,-0.03998
8.0835,-0.00839,0.00519,-0.01678,-0.01022,-0.01572,-0.04745,-0.01724,-0.00244,-0.03052,0.00717,0.08163,0.15137,-0.03342,-0.0209,0.01251,-0.04196
8.084,-0.00961,0.00595,-0.01999,-0.01022,-0.01511,-0.04959,-0.01724,-0.00153,-0.03021,0.00641,0.08118,0.14694,-0.03418,-0.02167,0.01038,-0.04379
8.0845,-0.01083,0.00549,-0.0209,-0.01053,-0.01328,-0.05127,-0.01633,-0.00015,-0.03082,0.00473,0.0827,0.14267,-0.03433,-0.02197,0.01053,-0.04364
8.085,-0.01053,0.00443,-0.01648,-0.01083,-0.01099,-0.05096,-0.01526,0.00061,-0.03128,0.00336,0.08728,0.14069,-0.03311,-0.02243,0.00931,-0.04181
8.0855,-0.00885,0.00504,-0.01358,-0.01266,-0.00931,-0.05035,-0.01495,-0.00015,-0.03143,0.00381,0.09369,0.1413,-0.0322,-0.02319,0.00885,-0.04044
8.086,-0.00916,0.00824,-0.00412,-0.01465,-0.00839,-0.04837,-0.0148,-0.00214,-0.03021,0.00671,0.09781,0.14435,-0.03204,-0.02457,0.01007,-0.04059
8.0865,-0.01205,0.01236,0.01266,-0.01572,-0.00778,-0.04639,-0.0145,-0.00412,-0.02899,0.00656,0.10025,0.14938,-0.03189,-0.02457,0.01083,-0.04257
8.087,-0.0119,0.01678,0.0267,-0.0145,-0.00763,-0.0441,-0.0145,-0.00519,-0.02991,0.00595,0.10132,0.15411,-0.03159,-0.02609,0.00931,-0.04471
8.0875,-0.00824,0.02197,0.0267,-0.01328,-0.00687,-0.04395,-0.01419,-0.00504,-0.03098,0.00488,0.10162,0.1532,-0.02991,-0.02792,0.01007,-0.04288
8.088,-0.0029,0.03052,0.00931,-0.01221,-0.00626,-0.04395,-0.01419,-0.0058,-0.03021,0.00366,0.10132,0.14267,-0.02731,-0.03067,0.01083,-0.04074
8.0885,-0.00092,0.04349,-0.0087,-0.01236,-0.00397,-0.0441,-0.01434,-0.00641,-0.02884,0.00183,0.10086,0.12772,-0.02472,-0.03143,0.01129,-0.03922
8.089,-0.00122,0.05569,-0.01999,-0.01175,-0.00259,-0.0441,-0.01419,-0.00793,-0.02716,0.00076,0.10162,0.11353,-0.02365,-0.03189,0.00702,-0.03967
8.0895,0.0,0.06302,-0.03372,-0.00977,-0.00061,-0.04517,-0.01328,-0.00977,-0.02762,0.00183,0.10361,0.1001,-0.02396,-0.03235,0.00977,-0.04105
8.09,0.00015,0.06302,-0.04181,-0.00717,-0.00061,-0.04684,-0.01343,-0.01022,-0.02838,-0.00092,0.10529,0.08804,-0.02472,-0.03326,0.01205,-0.04105
8.0905,-0.00061,0.05936,-0.04364,-0.00641,-0.00076,-0.04623,-0.01419,-0.0087,-0.02747,-0.00031,0.10513,0.07233,-0.02655,-0.03479,0.01129,-0.04181
8.091,-0.00244,0.05692,-0.04486,-0.0087,-0.00076,-0.04639,-0.01495,-0.00641,-0.02518,0.00092,0.10193,0.05493,-0.0293,-0.0354,0.01221,-0.04272
8.0915,-0.0032,0.05386,-0.04135,-0.01099,-0.00183,-0.04791,-0.01526,-0.00473,-0.0238,0.00061,0.09644,0.0383,-0.03326,-0.03601,0.00671,-0.04349
8.092,-0.00412,0.04807,-0.04196,-0.01099,-0.00153,-0.04837,-0.01389,-0.00381,-0.02472,-0.00046,0.09201,0.02258,-0.03845,-0.03708,0.0119,-0.0441
8.0925,-0.00549,0.04013,-0.04364,-0.00916,-0.00168,-0.04868,-0.01373,-0.00336,-0.02609,-0.00366,0.09064,0.0061,-0.04379,-0.03906,0.01328,-0.0444
8.093,-0.00702,0.03296,-0.04547,-0.00824,0.00015,-0.04837,-0.01465,-0.00305,-0.02518,-0.00687,0.08972,-0.01007,-0.04578,-0.03845,0.01221,-0.0441
8.0935,-0.00839,0.02838,-0.04333,-0.009,0.00305,-0.04639,-0.01495,-0.00198,-0.02457,-0.00778,0.08667,-0.02533,-0.04395,-0.03677,0.009,-0.04395
8.094,-0.00839,0.02609,-0.03601,-0.01099,0.00549,-0.04425,-0.01404,-0.00229,-0.02411,-0.00839,0.0827,-0.0412,-0.04028,-0.03357,0.00992,-0.04517
8.0945,-0.00504,0.02258,-0.04059,-0.01114,0.00702,-0.04303,-0.01236,-0.0029,-0.02579,-0.00854,0.07767,-0.05676,-0.03738,-0.0322,0.00732,-0.04547
8.095,0.00198,0.0148,-0.04517,-0.01114,0.00565,-0.04501,-0.01282,-0.00259,-0.02609,-0.00931,0.07309,-0.07187,-0.03494,-0.03326,0.01007,-0.04639
8.0955,0.01007,0.00946,-0.04318,-0.01083,0.00534,-0.04791,-0.01495,-0.00229,-0.02487,-0.00992,0.06775,-0.08347,-0.0325,-0.03372,0.01144,-0.04639
8.096,0.01389,0.0119,-0.04395,-0.01038,0.00595,-0.04944,-0.01602,-0.00229,-0.0235,-0.0116,0.06195,-0.09186,-0.03067,-0.03387,0.00824,-0.04486
8.0965,0.01465,0.01968,-0.04059,-0.00946,0.00732,-0.05005,-0.0148,-0.00397,-0.02243,-0.01404,0.05493,-0.10132,-0.0293,-0.03418,0.00793,-0.0444
8.097,0.0148,0.02441,-0.03922,-0.00931,0.00671,-0.0502,-0.01343,-0.00549,-0.02243,-0.01328,0.04684,-0.1149,-0.03021,-0.03448,0.00824,-0.04425
8.0975,0.01572,0.02457,-0.03098,-0.01007,0.00626,-0.05051,-0.01221,-0.00504,-0.02274,-0.00992,0.03845,-0.13306,-0.03204,-0.03418,0.00977,-0.04486
8.098,0.01572,0.02213,-0.03113,-0.01038,0.00641,-0.05127,-0.01144,-0.00458,-0.02274,-0.00992,0.0293,-0.15411,-0.03143,-0.03357,0.00763,-0.04486
8.0985,0.01617,0.02029,-0.03479,-0.01068,0.00748,-0.05051,-0.01022,-0.00427,-0.0209,-0.01175,0.0174,-0.18158,-0.03052,-0.03342,0.009,-0.04532
8.099,0.01709,0.01785,-0.05554,-0.01129,0.00778,-0.04868,-0.01129,-0.00504,-0.01923,-0.01419,0.00687,-0.21271,-0.02991,-0.03403,0.00809,-0.04623
8.0995,0.01465,0.01526,-0.10223,-0.01007,0.00687,-0.04715,-0.01251,-0.00427,-0.0177,-0.01587,-0.00153,-0.2356,-0.03006,-0.03342,0.00824,-0.04517
8.1,0.00687,0.01495,-0.16464,-0.00839,0.00656,-0.04745,-0.01358,-0.00183,-0.01602,-0.01602,-0.00778,-0.24261,-0.02914,-0.03204,0.00885,-0.04272
8.1005,-0.00549,0.01556,-0.20538,-0.00778,0.00626,-0.04868,-0.01389,-0.00076,-0.01495,-0.01968,-0.01633,-0.24033,-0.02869,-0.03204,0.0061,-0.04211
8.101,-0.01816,0.01495,-0.20905,-0.00839,0.00671,-0.05005,-0.01465,-0.00137,-0.01556,-0.0209,-0.02472,-0.23895,-0.02823,-0.03281,0.0087,-0.04349
8.1015,-0.03021,0.00824,-0.19455,-0.009,0.00793,-0.05173,-0.01526,-0.00198,-0.01511,-0.02106,-0.03082,-0.23468,-0.02899,-0.0322,0.00443,-0.04456
8.102,-0.03967,-0.0058,-0.17563,-0.0087,0.00793,-0.04929,-0.01617,-0.00061,-0.01465,-0.0174,-0.03571,-0.22141,-0.02991,-0.03174,0.0116,-0.04471
8.1025,-0.04715,-0.01877,-0.13458,-0.00961,0.00809,-0.04501,-0.01816,0.00122,-0.01328,-0.01801,-0.04364,-0.19775,-0.03021,-0.03143,0.00626,-0.04379
8.103,-0.0528,-0.01968,-0.06668,-0.00854,0.00748,-0.03845,-0.02289,0.00259,-0.01282,-0.02197,-0.05371,-0.17136,-0.03067,-0.03113,0.01022,-0.04349
8.1035,-0.05859,-0.01129,-0.00168,-0.00671,0.00549,-0.02975,-0.0296,0.00305,-0.01328,-0.0235,-0.06104,-0.14618,-0.0322,-0.03098,0.009,-0.0441
8.104,-0.06363,-0.00488,0.03952,-0.00534,0.00412,-0.02365,-0.03464,0.00366,-0.01236,-0.02594,-0.0647,-0.12329,-0.03372,-0.02945,0.00961,-0.04654
8.1045,-0.06546,-0.00793,0.07965,-0.00412,0.00351,-0.02274,-0.0354,0.00519,-0.01144,-0.02762,-0.0679,-0.09995,-0.03555,-0.02869,0.00931,-0.04852
8.105,-0.06332,-0.01846,0.12527,-0.00259,0.00397,-0.02762,-0.0322,0.00748,-0.01114,-0.0293,-0.07416,-0.07538,-0.03708,-0.02914,0.00778,-0.04868
8.1055,-0.05707,-0.0322,0.1683,-0.00076,0.00412,-0.03494,-0.02884,0.00992,-0.01312,-0.03235,-0.08179,-0.05051,-0.0383,-0.0296,0.00839,-0.04822
8.106,-0.04639,-0.04776,0.18082,0.00183,0.00336,-0.03891,-0.02838,0.01129,-0.01526,-0.0325,-0.08896,-0.0267,-0.04028,-0.03174,0.00687,-0.04852
8.1065,-0.03265,-0.05844,0.17395,0.00244,0.00275,-0.03967,-0.02945,0.01129,-0.01495,-0.03448,-0.09506,-0.00183,-0.04135,-0.03418,0.00778,-0.04944
8.107,-0.02045,-0.06027,0.17044,0.00229,0.00381,-0.0412,-0.03006,0.00931,-0.01465,-0.03601,-0.10056,0.02487,-0.04028,-0.03632,0.00763,-0.05066
8.1075,-0.01114,-0.05325,0.15518,0.00046,0.00565,-0.04364,-0.02808,0.00839,-0.01465,-0.03677,-0.10925,0.04715,-0.03754,-0.03708,0.00641,-0.05264
8.108,-0.00473,-0.04822,0.13412,-0.00031,0.00763,-0.04623,-0.02441,0.00946,-0.01419,-0.03616,-0.12146,0.05722,-0.03677,-0.03815,0.00626,-0.05234
8.1085,0.00137,-0.04822,0.09048,-0.00107,0.00778,-0.04654,-0.02167,0.0116,-0.01251,-0.03845,-0.13412,0.06195,-0.03693,-0.04044,0.00687,-0.05081
8.109,0.00885,-0.0499,0.04669,-0.00122,0.00549,-0.04654,-0.02106,0.01221,-0.00977,-0.04181,-0.14053,0.07278,-0.03769,-0.04257,0.00656,-0.04868
8.1095,0.0145,-0.05035,0.01175,-0.00168,0.00366,-0.04837,-0.01953,0.01068,-0.00732,-0.0441,-0.14084,0.09155,-0.03769,-0.04288,0.00793,-0.04532
8.11,0.01678,-0.05005,-0.0119,-0.00443,0.00153,-0.0502,-0.01587,0.00992,-0.00641,-0.0444,-0.13962,0.10513,-0.03708,-0.04272,0.00793,-0.04288
8.1105,0.01526,-0.0531,-0.03647,-0.00702,0.00107,-0.0502,-0.01266,0.00992,-0.00504,-0.04456,-0.14297,0.11002,-0.03662,-0.04288,0.00763,-0.04303
8.111,0.01312,-0.05676,-0.05402,-0.01007,0.00092,-0.04898,-0.01022,0.01129,-0.00412,-0.04395,-0.14862,0.1123,-0.03662,-0.04272,0.00717,-0.04456
8.1115,0.01328,-0.06271,-0.06546,-0.01236,-0.00092,-0.04822,-0.01068,0.01099,-0.00412,-0.04089,-0.15457,0.11719,-0.03693,-0.04303,0.00687,-0.04532
8.112,0.01694,-0.06927,-0.08408,-0.01328,-0.00351,-0.04929,-0.01297,0.00534,-0.00351,-0.03708,-0.16098,0.1207,-0.03693,-0.04257,0.00809,-0.04532
8.1125,0.01999,-0.07523,-0.08957,-0.01602,-0.0061,-0.05005,-0.01602,-0.00412,-0.00076,-0.03479,-0.1651,0.11856,-0.03662,-0.04272,0.00885,-0.0473
8.113,0.02075,-0.07599,-0.09033,-0.02121,-0.00839,-0.04959,-0.01831,-0.01495,0.00305,-0.03418,-0.16785,0.11246,-0.03662,-0.04303,0.009,-0.05463
8.1135,0.01648,-0.07401,-0.08682,-0.02655,-0.00854,-0.0499,-0.01938,-0.02335,0.00534,-0.03525,-0.16953,0.10651,-0.0354,-0.0444,0.0087,-0.06332
8.114,0.00946,-0.07141,-0.08118,-0.02975,-0.009,-0.05066,-0.01831,-0.02808,0.0061,-0.0354,-0.17166,0.10193,-0.03448,-0.04471,0.00656,-0.06943
8.1145,0.00412,-0.07111,-0.07874,-0.02808,-0.00778,-0.05035,-0.01816,-0.02762,0.00717,-0.03464,-0.17548,0.09674,-0.03403,-0.04364,0.00671,-0.06927
8.115,0.00061,-0.06989,-0.07645,-0.02426,-0.00732,-0.0473,-0.01755,-0.02365,0.01053,-0.0354,-0.17868,0.09064,-0.03418,-0.04089,0.00839,-0.06638
8.1155,-0.0029,-0.06714,-0.07599,-0.02167,-0.00839,-0.0444,-0.01648,-0.01892,0.01266,-0.03433,-0.18143,0.08377,-0.03418,-0.03952,0.00687,-0.06424
8.116,-0.00641,-0.06378,-0.07492,-0.0206,-0.01038,-0.04395,-0.01617,-0.01541,0.01251,-0.03479,-0.18417,0.07538,-0.03357,-0.03906,0.00946,-0.06516
8.1165,-0.00839,-0.06226,-0.07278,-0.01907,-0.01236,-0.04639,-0.01617,-0.01312,0.01312,-0.0383,-0.18539,0.06866,-0.03326,-0.03891,0.00656,-0.0647
8.117,-0.00656,-0.06073,-0.07324,-0.01556,-0.0145,-0.04898,-0.01678,-0.01175,0.01572,-0.03937,-0.18387,0.06439,-0.03357,-0.03784,0.01022,-0.06256
8.1175,-0.00015,-0.05875,-0.07507,-0.01144,-0.01678,-0.04944,-0.01801,-0.01144,0.01785,-0.04028,-0.18143,0.0618,-0.03372,-0.03616,0.00839,-0.06058
8.118,0.00671,-0.05722,-0.07828,-0.00854,-0.01892,-0.04776,-0.01938,-0.01083,0.02029,-0.04044,-0.17838,0.05783,-0.03204,-0.03448,0.009,-0.05814
8.1185,0.0116,-0.05661,-0.07919,-0.009,-0.01999,-0.04684,-0.02014,-0.00977,0.0209,-0.03769,-0.177,0.0528,-0.03067,-0.03235,0.00809,-0.04837
8.119,0.01282,-0.05753,-0.0766,-0.0119,-0.02106,-0.04929,-0.02014,-0.00885,0.02228,-0.03891,-0.17532,0.047,-0.03021,-0.03036,0.01068,-0.0354
8.1195,0.01251,-0.05707,-0.07156,-0.01541,-0.02289,-0.05249,-0.01846,-0.00595,0.02426,-0.04028,-0.17426,0.03784,-0.03052,-0.02792,0.00885,-0.03036
8.12,0.01404,-0.05554,-0.06531,-0.01633,-0.02426,-0.05508,-0.01678,-0.00397,0.02762,-0.04013,-0.17258,0.02625,-0.03067,-0.0264,0.00824,-0.03937
8.1205,0.0145,-0.05417,-0.06134,-0.0148,-0.02563,-0.05569,-0.01694,-0.00092,0.03143,-0.0412,-0.16998,0.01297,-0.03235,-0.02533,0.01099,-0.05157
8.121,0.01282,-0.05341,-0.05539,-0.01328,-0.02731,-0.05661,-0.01572,0.00153,0.03372,-0.04181,-0.16693,0.00031,-0.03494,-0.02472,0.009,-0.05417
8.1215,0.00946,-0.05325,-0.04959,-0.01282,-0.03159,-0.05692,-0.01114,0.00504,0.03448,-0.04211,-0.16357,-0.009,-0.03586,-0.0235,0.00992,-0.04593
8.122,0.00717,-0.05356,-0.0444,-0.01358,-0.03693,-0.05493,-0.00702,0.00549,0.0354,-0.04227,-0.15823,-0.01648,-0.03555,-0.02319,0.00961,-0.03998
8.1225,0.0061,-0.05402,-0.0383,-0.01358,-0.03845,-0.05386,-0.00656,0.00107,0.03815,-0.04257,-0.15167,-0.02258,-0.03387,-0.02289,0.00717,-0.04196
8.123,0.00534,-0.05463,-0.03799,-0.01266,-0.03815,-0.0531,-0.00778,-0.00397,0.04181,-0.04379,-0.14374,-0.02838,-0.03326,-0.02289,0.00732,-0.04684
8.1235,0.00351,-0.05341,-0.03815,-0.0119,-0.03738,-0.05325,-0.00702,-0.00702,0.04242,-0.04486,-0.13809,-0.03586,-0.03387,-0.02243,0.00824,-0.05051
8.124,0.00107,-0.0531,-0.0383,-0.01236,-0.03723,-0.05203,-0.00473,-0.00732,0.04089,-0.04593,-0.13596,-0.04517,-0.0354,-0.02213,0.00809,-0.05234
8.1245,-0.00031,-0.05325,-0.03815,-0.01297,-0.03723,-0.04852,-0.00519,-0.00702,0.04013,-0.047,-0.13565,-0.05188,-0.0354,-0.02136,0.00793,-0.05371
8.125,-0.00122,-0.05188,-0.0354,-0.01373,-0.03693,-0.0441,-0.01175,-0.00946,0.04135,-0.0499,-0.1355,-0.05615,-0.03311,-0.01877,0.00885,-0.05447
8.1255,-0.00107,-0.05035,-0.02975,-0.01373,-0.03616,-0.0412,-0.02365,-0.01221,0.04288,-0.05203,-0.13321,-0.05707,-0.03204,-0.01694,0.00946,-0.05447
8.126,0.00015,-0.05096,-0.02441,-0.01328,-0.0383,-0.04242,-0.03586,-0.01221,0.04257,-0.05295,-0.13016,-0.05905,-0.0325,-0.01587,0.00946,-0.05478
8.1265,0.00198,-0.05432,-0.02243,-0.01144,-0.04257,-0.04318,-0.04089,-0.01022,0.04227,-0.05249,-0.12573,-0.06134,-0.03235,-0.01526,0.0087,-0.05646
8.127,0.00275,-0.05692,-0.01724,-0.01038,-0.04639,-0.04196,-0.03525,-0.01038,0.04288,-0.05234,-0.12131,-0.06393,-0.03082,-0.01358,0.00885,-0.05692
8.1275,0.00031,-0.05661,-0.01617,-0.01053,-0.04913,-0.03815,-0.02304,-0.01266,0.04379,-0.0531,-0.11673,-0.06683,-0.02899,-0.01083,0.0087,-0.05707
8.128,-0.00259,-0.05585,-0.01526,-0.01083,-0.04959,-0.03342,-0.00977,-0.01389,0.04333,-0.05447,-0.11368,-0.06973,-0.02945,-0.01022,0.00778,-0.05478
8.1285,-0.00504,-0.0563,-0.01556,-0.01038,-0.0473,-0.03082,0.00122,-0.01221,0.04211,-0.05524,-0.11139,-0.07156,-0.0296,-0.01144,0.00778,-0.05096
8.129,-0.00656,-0.05722,-0.01846,-0.00931,-0.04562,-0.03082,0.00687,-0.00961,0.0415,-0.05508,-0.10956,-0.07263,-0.02945,-0.01144,0.00671,-0.04929
8.1295,-0.00702,-0.05585,-0.01755,-0.00854,-0.04227,-0.03281,0.00549,-0.0061,0.04272,-0.05371,-0.10605,-0.07309,-0.02762,-0.01022,0.00839,-0.04868
8.13,-0.00854,-0.05417,-0.01755,-0.00916,-0.04089,-0.0351,0.0,-0.00183,0.0441,-0.05264,-0.10147,-0.07385,-0.02686,-0.00854,0.00916,-0.04807
8.1305,-0.01053,-0.05219,-0.01694,-0.009,-0.03937,-0.0354,-0.00473,0.00076,0.04395,-0.05157,-0.09933,-0.07599,-0.02991,-0.00717,0.00977,-0.04715
8.131,-0.01205,-0.05005,-0.01938,-0.00885,-0.03891,-0.03342,-0.00626,0.00107,0.04211,-0.05203,-0.09811,-0.07858,-0.03403,-0.00717,0.00885,-0.04669
8.1315,-0.01053,-0.04715,-0.02182,-0.00931,-0.03677,-0.03021,-0.00687,0.0,0.04074,-0.05295,-0.09628,-0.0798,-0.03662,-0.00748,0.00854,-0.0473
8.132,-0.00702,-0.04456,-0.02716,-0.01114,-0.03372,-0.02792,-0.0145,-0.00122,0.03967,-0.05371,-0.09262,-0.0795,-0.03662,-0.009,0.009,-0.0473
8.1325,-0.00397,-0.04395,-0.03464,-0.01068,-0.03189,-0.0264,-0.03601,-0.00061,0.0386,-0.05386,-0.08698,-0.07553,-0.03571,-0.01038,0.00885,-0.0444
8.133,-0.00198,-0.04349,-0.04257,-0.00992,-0.0322,-0.03189,-0.07263,-0.00107,0.03723,-0.05295,-0.08087,-0.06973,-0.03586,-0.0116,0.00763,-0.04105
8.1335,-0.00107,-0.0415,-0.03922,-0.00916,-0.03464,-0.04745,-0.11002,-0.00214,0.03677,-0.05203,-0.07538,-0.06378,-0.03616,-0.01114,0.00824,-0.04166
8.134,-0.00122,-0.0383,-0.0325,-0.0087,-0.03876,-0.06775,-0.13748,-0.0029,0.03632,-0.05112,-0.07126,-0.05981,-0.03677,-0.00992,0.00809,-0.04593
8.1345,-0.00198,-0.03021,-0.02289,-0.00992,-0.04272,-0.08224,-0.16129,-0.00015,0.0354,-0.05096,-0.06882,-0.05676,-0.03784,-0.0087,0.00763,-0.05203
8.135,-0.00137,-0.02045,-0.01495,-0.01114,-0.04562,-0.08286,-0.19714,0.00458,0.03448,-0.05127,-0.06638,-0.05539,-0.0383,-0.00839,0.00824,-0.05234
8.1355,0.00061,-0.01495,-0.00946,-0.01175,-0.04593,-0.07477,-0.24231,0.01251,0.0325,-0.05264,-0.06287,-0.05432,-0.03738,-0.01038,0.00839,-0.04578
8.136,0.00504,-0.02151,-0.0058,-0.01022,-0.04868,-0.06454,-0.27069,0.01984,0.03021,-0.05508,-0.05966,-0.0531,-0.03571,-0.01343,0.01007,-0.03784
8.1365,0.01022,-0.03693,0.00046,-0.00809,-0.05264,-0.05829,-0.24414,0.02731,0.02655,-0.0563,-0.05692,-0.05112,-0.03403,-0.01511,0.00946,-0.03357
8.137,0.0145,-0.05173,0.00351,-0.00534,-0.05829,-0.05569,-0.14267,0.03403,0.02441,-0.05798,-0.05325,-0.04745,-0.03159,-0.01572,0.00748,-0.03265
8.1375,0.01404,-0.06409,0.00381,-0.0032,-0.06302,-0.05569,0.0032,0.03464,0.0235,-0.05905,-0.04852,-0.04517,-0.03128,-0.01633,0.00824,-0.03387
8.138,0.00931,-0.07889,0.00259,-0.00122,-0.06577,-0.05676,0.10345,0.02487,0.02182,-0.05768,-0.0441,-0.04395,-0.0322,-0.01785,0.00687,-0.03418
8.1385,0.00427,-0.09323,-0.00076,-0.00046,-0.07019,-0.05722,0.08667,0.0061,0.01923,-0.0563,-0.04227,-0.04181,-0.03342,-0.01938,0.00778,-0.03433
8.139,0.00275,-0.09949,-0.00214,-0.00092,-0.07507,-0.05493,0.01495,-0.01389,0.01694,-0.05554,-0.04074,-0.03815,-0.03357,-0.02167,0.00763,-0.03403
8.1395,0.00549,-0.09232,-0.00198,-0.00229,-0.07767,-0.04684,0.04044,-0.02991,0.01678,-0.056,-0.0386,-0.03418,-0.03311,-0.02213,0.00885,-0.03311
8.14,0.01038,-0.07629,-0.00092,-0.00381,-0.07187,-0.03433,0.20981,-0.04288,0.0174,-0.05737,-0.03464,-0.03067,-0.03281,-0.02197,0.00778,-0.03235
8.1405,0.01328,-0.06012,-0.00107,-0.00656,-0.06302,-0.02426,0.37949,-0.0473,0.01801,-0.05905,-0.03052,-0.02808,-0.03372,-0.02136,0.00824,-0.03189
8.141,0.0116,-0.04715,0.00015,-0.00809,-0.05524,-0.01877,0.37933,-0.04288,0.01709,-0.05844,-0.02609,-0.02609,-0.03479,-0.02029,0.01022,-0.03189
8.1415,0.00595,-0.03647,0.00122,-0.00732,-0.05219,-0.01984,0.22903,-0.03647,0.0145,-0.05783,-0.02426,-0.02258,-0.03525,-0.01953,0.01068,-0.03082
8.142,-0.00153,-0.02823,0.00259,-0.00626,-0.05096,-0.0235,0.11917,-0.03525,0.01175,-0.05707,-0.02319,-0.01999,-0.03479,-0.0206,0.01038,-0.03036
8.1425,-0.00916,-0.02762,0.00488,-0.0061,-0.04944,-0.02701,0.15411,-0.03494,0.00931,-0.05539,-0.02182,-0.0174,-0.03433,-0.02182,0.00824,-0.03113
8.143,-0.01663,-0.0325,0.00229,-0.00519,-0.0473,-0.03159,0.22003,-0.02426,0.00885,-0.05524,-0.01846,-0.01495,-0.0351,-0.02075,0.00793,-0.0322
8.1435,-0.02426,-0.03616,-0.02548,-0.0029,-0.04745,-0.03799,0.17151,-0.00641,0.00885,-0.05325,-0.01419,-0.01205,-0.03647,-0.01862,0.00671,-0.03159
8.144,-0.0322,-0.03387,-0.09827,-0.00107,-0.05005,-0.04333,0.04013,0.00687,0.00793,-0.05096,-0.00992,-0.00793,-0.03616,-0.01877,0.00717,-0.0293
8.1445,-0.03738,-0.02991,-0.20538,-0.00061,-0.05173,-0.0473,-0.03342,0.00992,0.0058,-0.04883,-0.00977,-0.00504,-0.0354,-0.02121,0.0087,-0.02609
8.145,-0.03891,-0.02777,-0.2858,-0.00061,-0.05173,-0.04654,0.00305,0.00793,0.00336,-0.04807,-0.01236,-0.00229,-0.03525,-0.02518,0.00931,-0.02502
8.1455,-0.03922,-0.02731,-0.28717,-0.00015,-0.04761,-0.04578,0.07706,0.00671,0.00244,-0.04761,-0.01465,0.00076,-0.0354,-0.02792,0.01053,-0.02686
8.146,-0.04288,-0.02625,-0.21561,0.00336,-0.04486,-0.04669,0.1059,0.00671,0.00275,-0.0473,-0.01556,0.00275,-0.0351,-0.02975,0.00946,-0.02823
8.1465,-0.04807,-0.02441,-0.11536,0.00809,-0.04395,-0.04852,0.08133,0.00427,0.00229,-0.04654,-0.01358,0.00488,-0.03403,-0.03036,0.00931,-0.02838
8.147,-0.04974,-0.01877,-0.0148,0.01328,-0.04303,-0.04974,0.03891,0.00305,0.00107,-0.0473,-0.01114,0.00641,-0.03357,-0.02975,0.0087,-0.02792
8.1475,-0.0473,-0.0116,0.07996,0.01816,-0.04028,-0.05096,0.00458,0.00702,0.00153,-0.04822,-0.00793,0.00687,-0.03433,-0.02777,0.00854,-0.02792
8.148,-0.04211,-0.00839,0.16083,0.02075,-0.0383,-0.05157,-0.01572,0.01312,0.00214,-0.04898,-0.00656,0.00702,-0.03387,-0.02594,0.00916,-0.02869
8.1485,-0.03754,-0.01312,0.2095,0.0206,-0.03571,-0.05203,-0.02686,0.01678,0.00275,-0.04837,-0.0058,0.00687,-0.03204,-0.0238,0.00931,-0.02823
8.149,-0.03159,-0.02228,0.21683,0.01938,-0.03342,-0.05325,-0.03723,0.01495,0.00168,-0.04715,-0.00549,0.0087,-0.03021,-0.02167,0.00763,-0.02808
8.1495,-0.02365,-0.03113,0.19577,0.0177,-0.03189,-0.05356,-0.05234,0.01297,-0.00061,-0.04486,-0.00305,0.01114,-0.0293,-0.01968,0.00839,-0.02914
8.15,-0.01511,-0.03754,0.16327,0.01587,-0.03082,-0.05371,-0.06912,0.01511,-0.00153,-0.04242,0.00015,0.0145,-0.03006,-0.01938,0.00931,-0.03143
8.1505,-0.00992,-0.04135,0.12802,0.01419,-0.02991,-0.05402,-0.07904,0.01755,-0.00259,-0.03876,0.00244,0.01556,-0.03204,-0.0206,0.01038,-0.03433
8.151,-0.00656,-0.04349,0.08972,0.01083,-0.02823,-0.05295,-0.0827,0.01709,-0.00397,-0.03555,0.00366,0.01541,-0.0325,-0.0238,0.00992,-0.03433
8.1515,-0.0029,-0.04425,0.05325,0.00458,-0.02762,-0.05188,-0.08667,0.01236,-0.00534,-0.03372,0.00366,0.01816,-0.03342,-0.02762,0.00885,-0.03265
8.152,0.00229,-0.04349,0.0264,-0.00412,-0.02823,-0.05173,-0.09384,0.0058,-0.00763,-0.03296,0.00336,0.02228,-0.0351,-0.03143,0.00931,-0.02945
8.1525,0.00656,-0.04379,0.00793,-0.01511,-0.03006,-0.05035,-0.10101,-0.00107,-0.00977,-0.0322,0.00366,0.02609,-0.03662,-0.03357,0.01022,-0.02853
8.153,0.00778,-0.04623,-0.00427,-0.0264,-0.03311,-0.04715,-0.1062,-0.00961,-0.01129,-0.03052,0.0058,0.02701,-0.03662,-0.03525,0.00824,-0.02914
8.1535,0.00443,-0.04715,-0.0174,-0.0351,-0.03372,-0.04379,-0.10864,-0.01877,-0.01251,-0.02945,0.00748,0.02563,-0.03632,-0.03708,0.00595,-0.02945
8.154,0.00153,-0.04593,-0.03098,-0.03708,-0.03311,-0.04211,-0.10941,-0.02579,-0.01495,-0.02991,0.00732,0.02411,-0.03494,-0.04089,0.0058,-0.02991
8.1545,0.00107,-0.04456,-0.04486,-0.03479,-0.03265,-0.04166,-0.10925,-0.03159,-0.01709,-0.03189,0.00656,0.02457,-0.03387,-0.04379,0.00656,-0.03082
8.155,0.00214,-0.047,-0.05508,-0.0351,-0.03387,-0.04333,-0.11078,-0.03784,-0.01953,-0.03342,0.0058,0.02609,-0.03342,-0.04379,0.00626,-0.03159
8.1555,0.00381,-0.0502,-0.06042,-0.03906,-0.03571,-0.04547,-0.11398,-0.04501,-0.02167,-0.03357,0.00641,0.0267,-0.03342,-0.04379,0.00656,-0.03128
8.156,0.0032,-0.05157,-0.06195,-0.04288,-0.03693,-0.04776,-0.11795,-0.04974,-0.02258,-0.03159,0.00702,0.02777,-0.03372,-0.04486,0.00641,-0.02945
8.1565,0.00137,-0.0499,-0.06149,-0.04211,-0.03754,-0.04822,-0.11963,-0.04745,-0.02365,-0.02945,0.00824,0.02716,-0.03296,-0.04654,0.00717,-0.02701
8.157,-0.00122,-0.04654,-0.06119,-0.03662,-0.03616,-0.04852,-0.11734,-0.03906,-0.02518,-0.02747,0.01068,0.02655,-0.03296,-0.04547,0.00931,-0.02609
8.1575,-0.00198,-0.04364,-0.06195,-0.02991,-0.03372,-0.04913,-0.11124,-0.02945,-0.02609,-0.0264,0.01266,0.02579,-0.03372,-0.04211,0.01144,-0.02457
8.158,-0.00107,-0.04272,-0.06027,-0.02502,-0.0322,-0.05081,-0.10452,-0.02136,-0.0267,-0.02441,0.01373,0.02396,-0.03372,-0.03815,0.01266,-0.02487
8.1585,0.00076,-0.04135,-0.05569,-0.02258,-0.03418,-0.05066,-0.10056,-0.01648,-0.02747,-0.02121,0.01404,0.02304,-0.03387,-0.03403,0.01175,-0.02701
8.159,0.00092,-0.03937,-0.05234,-0.02151,-0.03601,-0.05096,-0.09796,-0.01343,-0.02838,-0.02029,0.01328,0.02106,-0.03189,-0.03143,0.00961,-0.02975
8.1595,0.00061,-0.03677,-0.04913,-0.02106,-0.03601,-0.05096,-0.0946,-0.01175,-0.02899,-0.01816,0.01236,0.02121,-0.02914,-0.02869,0.00946,-0.03021
8.16,0.00107,-0.03525,-0.04639,-0.02029,-0.03601,-0.04898,-0.09445,-0.00931,-0.02777,-0.0174,0.01221,0.02319,-0.02701,-0.02548,0.01022,-0.0296
8.1605,0.0032,-0.03586,-0.04349,-0.01892,-0.03754,-0.04654,-0.10239,-0.00626,-0.02777,-0.01755,0.0145,0.02548,-0.02472,-0.02274,0.01053,-0.02869
8.161,0.00549,-0.03754,-0.04303,-0.01755,-0.04044,-0.04623,-0.11551,-0.00458,-0.02899,-0.01801,0.0177,0.02686,-0.02197,-0.01984,0.00885,-0.02899
8.1615,0.00641,-0.03769,-0.04318,-0.01587,-0.04105,-0.04761,-0.12909,-0.00427,-0.02945,-0.01999,0.01846,0.02686,-0.0206,-0.01617,0.00839,-0.03098
8.162,0.00565,-0.0383,-0.04395,-0.01526,-0.03952,-0.04898,-0.14297,-0.00565,-0.03006,-0.02136,0.01663,0.02335,-0.02228,-0.01068,0.00885,-0.0325
8.1625,0.00427,-0.03922,-0.04211,-0.01572,-0.03815,-0.04776,-0.15945,-0.00595,-0.02899,-0.01999,0.01648,0.01923,-0.02625,-0.00687,0.00885,-0.03326
8.163,0.00305,-0.0415,-0.04059,-0.01556,-0.03784,-0.04654,-0.16739,-0.00488,-0.02762,-0.01831,0.01984,0.01923,-0.03006,-0.00595,0.00931,-0.0325
8.1635,0.00107,-0.04257,-0.04044,-0.0148,-0.03708,-0.04807,-0.15549,-0.00366,-0.02655,-0.01709,0.02441,0.02197,-0.03159,-0.00748,0.00854,-0.03113
8.164,-0.00153,-0.04288,-0.04074,-0.01343,-0.03616,-0.0499,-0.13077,-0.00107,-0.02701,-0.01755,0.02594,0.02258,-0.03159,-0.00656,0.00778,-0.03036
8.1645,-0.00351,-0.04333,-0.03876,-0.01297,-0.03586,-0.04929,-0.10254,0.00336,-0.02701,-0.01648,0.02609,0.02289,-0.03143,-0.00458,0.00656,-0.02991
8.165,-0.00305,-0.04379,-0.03662,-0.01144,-0.03418,-0.04852,-0.065,0.00549,-0.02625,-0.01282,0.02457,0.02213,-0.03235,-0.00427,0.0061,-0.03021
8.1655,-0.00259,-0.04562,-0.03418,-0.01068,-0.03464,-0.04822,-0.00671,0.0058,-0.02594,-0.00854,0.02472,0.02228,-0.03464,-0.00351,0.00549,-0.0296
8.166,-0.00244,-0.04654,-0.03494,-0.01053,-0.03693,-0.04959,0.0473,0.0032,-0.02716,-0.00656,0.0238,0.02121,-0.03464,-0.00076,0.00534,-0.0293
8.1665,-0.0029,-0.04623,-0.03662,-0.01129,-0.03906,-0.04929,0.06897,-0.00214,-0.02838,-0.00427,0.02319,0.02014,-0.03113,0.00336,0.00534,-0.03021
8.167,-0.00381,-0.04395,-0.03784,-0.01251,-0.04105,-0.04898,0.07156,-0.00961,-0.02914,-0.00259,0.02396,0.01877,-0.02731,0.00717,0.00519,-0.03174
8.1675,-0.00549,-0.04196,-0.03708,-0.01373,-0.0415,-0.0499,0.0769,-0.01328,-0.02991,-0.00198,0.02563,0.01678,-0.02594,0.01053,0.00427,-0.03372
8.168,-0.00687,-0.0415,-0.03571,-0.01556,-0.04211,-0.05203,0.06195,-0.01297,-0.02975,-0.00214,0.02548,0.01541,-0.02701,0.01556,0.00458,-0.03494
8.1685,-0.00534,-0.0415,-0.03693,-0.01633,-0.04227,-0.05249,0.00809,-0.01129,-0.02975,-0.00214,0.0235,0.0145,-0.02808,0.01968,0.00397,-0.03418
8.169,-0.0032,-0.04257,-0.03723,-0.01633,-0.04211,-0.05066,-0.02823,-0.00885,-0.0296,-0.00168,0.02167,0.01434,-0.02762,0.01831,0.00397,-0.03296
8.1695,-0.00229,-0.04272,-0.03662,-0.01556,-0.04135,-0.04822,0.01968,-0.00504,-0.02777,0.0,0.02258,0.01541,-0.0264,0.01221,0.00412,-0.03098
8.17,-0.00153,-0.04303,-0.03265,-0.01556,-0.0415,-0.04807,0.11307,-0.00076,-0.02777,0.00153,0.02426,0.0174,-0.0264,0.00687,0.00595,-0.02853
8.1705,-0.00137,-0.04303,-0.03067,-0.01648,-0.04318,-0.04913,0.14328,0.00076,-0.0264,0.00046,0.02548,0.0209,-0.02747,0.0087,0.00626,-0.02518
8.171,-0.00259,-0.04303,-0.03098,-0.01709,-0.04303,-0.05051,0.08987,0.00183,-0.02609,-0.00046,0.02472,0.0206,-0.02914,0.01389,0.00702,-0.02304
8.1715,-0.00351,-0.04425,-0.03342,-0.01678,-0.04379,-0.05142,0.03647,0.00275,-0.02609,-0.00107,0.02304,0.01831,-0.03128,0.01694,0.00854,-0.02396
8.172,-0.00275,-0.04562,-0.03525,-0.01617,-0.04456,-0.05127,0.03616,0.00427,-0.02609,0.00229,0.02319,0.01251,-0.03372,0.0116,0.00916,-0.02762
8.1725,-0.00061,-0.04562,-0.0354,-0.01495,-0.04517,-0.05051,0.05737,0.00519,-0.02533,0.0061,0.02594,0.00916,-0.03418,0.00107,0.00809,-0.03342
8.173,0.00259,-0.04547,-0.03708,-0.0145,-0.04395,-0.05096,0.06027,0.0058,-0.02396,0.00717,0.03006,0.00946,-0.03311,-0.00473,0.0061,-0.04013
8.1735,0.00488,-0.04562,-0.03815,-0.01495,-0.04318,-0.04944,0.05173,0.0061,-0.02274,0.00595,0.03159,0.01312,-0.03174,-0.00153,0.00427,-0.04517
8.174,0.00519,-0.04639,-0.03784,-0.0148,-0.04318,-0.04761,0.05096,0.00565,-0.02228,0.00427,0.03052,0.01541,-0.03128,0.00473,0.00488,-0.04715
8.1745,0.00519,-0.04684,-0.0386,-0.01343,-0.04486,-0.04715,0.05371,0.00443,-0.02197,0.00534,0.03006,0.01358,-0.03021,0.00824,0.00519,-0.04913
8.175,0.00458,-0.04898,-0.04074,-0.01312,-0.04578,-0.04974,0.04852,0.00351,-0.02258,0.00839,0.03113,0.01175,-0.02884,0.00977,0.00458,-0.05173
8.1755,0.00351,-0.05096,-0.04242,-0.01328,-0.04456,-0.05234,0.03403,0.00351,-0.02396,0.01068,0.03204,0.0119,-0.02762,0.01144,0.0032,-0.05234
8.176,0.00183,-0.05219,-0.04089,-0.01343,-0.04364,-0.05432,0.01663,0.00336,-0.02533,0.01236,0.03006,0.0145,-0.02899,0.01389,0.00473,-0.04745
8.1765,0.00061,-0.05157,-0.03937,-0.01389,-0.04425,-0.05432,0.00336,0.00076,-0.02609,0.01144,0.02563,0.01587,-0.03174,0.01648,0.00534,-0.03891
8.177,0.0,-0.05157,-0.04028,-0.01495,-0.04578,-0.0528,0.0,-0.00259,-0.02686,0.00977,0.02151,0.01556,-0.03326,0.0174,0.0061,-0.03204
8.1775,0.00031,-0.05127,-0.04166,-0.01602,-0.04501,-0.05173,0.00656,-0.0058,-0.0267,0.00824,0.01923,0.01114,-0.03403,0.01511,0.00534,-0.03159
8.178,0.00031,-0.05142,-0.04333,-0.01617,-0.04471,-0.05173,0.01892,-0.00702,-0.02686,0.00793,0.01877,0.00824,-0.03571,0.01022,0.00671,-0.0354
8.1785,0.0,-0.05127,-0.04395,-0.0148,-0.04364,-0.05432,0.03357,-0.00931,-0.02625,0.00717,0.01663,0.00397,-0.03647,0.00198,0.0058,-0.03952
8.179,0.00076,-0.05096,-0.04501,-0.01389,-0.04349,-0.0563,0.04776,-0.01251,-0.02609,0.00763,0.00992,0.00229,-0.03448,-0.01007,0.00565,-0.04013
8.1795,0.00275,-0.05112,-0.04379,-0.01282,-0.04318,-0.05676,0.05997,-0.01236,-0.02655,0.00763,0.00351,0.00259,-0.03098,-0.0238,0.00671,-0.03922
8.18,0.00504,-0.04959,-0.04364,-0.01266,-0.04364,-0.05539,0.06302,-0.00244,-0.02701,0.00778,0.00046,0.00458,-0.02884,-0.03036,0.00854,-0.03906
8.1805,0.00549,-0.04761,-0.03876,-0.01343,-0.04501,-0.05325,0.05615,0.01785,-0.0267,0.00778,0.00076,0.00824,-0.02945,-0.02762,0.00748,-0.04013
8.181,0.00336,-0.04578,-0.02487,-0.01434,-0.04425,-0.05142,0.04044,0.04013,-0.02655,0.00717,0.00168,0.00839,-0.03265,-0.02014,0.0058,-0.04379
8.1815,0.00031,-0.0444,-0.00793,-0.01465,-0.0441,-0.0499,0.01038,0.04959,-0.02548,0.00732,0.00031,0.00656,-0.03494,-0.01709,0.00366,-0.04883
8.182,-0.00244,-0.0441,0.00168,-0.01587,-0.04486,-0.05035,-0.04028,0.03876,-0.02548,0.00778,-0.00198,0.00366,-0.03586,-0.01892,0.00351,-0.05325
8.1825,-0.00397,-0.04333,-0.00381,-0.01785,-0.04562,-0.05066,-0.1033,0.01541,-0.0267,0.00702,-0.00519,0.00168,-0.0354,-0.01907,0.00458,-0.05524
8.183,-0.00504,-0.04303,-0.01862,-0.01907,-0.04715,-0.05051,-0.15244,-0.00473,-0.02792,0.00534,-0.00534,-0.00168,-0.0354,-0.01465,0.00534,-0.05386
8.1835,-0.00443,-0.04074,-0.03067,-0.01907,-0.04639,-0.0502,-0.17136,-0.01083,-0.02808,0.00397,-0.0029,-0.00488,-0.03525,-0.00977,0.00519,-0.04959
8.184,-0.00275,-0.03937,-0.03906,-0.01801,-0.04623,-0.05081,-0.15976,-0.00656,-0.02731,0.00153,0.0,-0.00504,-0.03555,-0.009,0.00412,-0.04196
8.1845,-0.00061,-0.03891,-0.04761,-0.01587,-0.04456,-0.05142,-0.10422,-0.00031,-0.02701,0.00122,0.00168,-0.00107,-0.0351,-0.00977,0.00305,-0.0354
8.185,0.00214,-0.04059,-0.05524,-0.01328,-0.04349,-0.05081,0.01328,0.00046,-0.02808,0.00107,0.00259,0.00259,-0.03372,-0.01129,0.00458,-0.03281
8.1855,0.00397,-0.04318,-0.06104,-0.01068,-0.04456,-0.04898,0.15137,-0.00336,-0.02777,0.00092,0.00336,0.0,-0.03235,-0.01144,0.00427,-0.03571
8.186,0.00519,-0.04517,-0.0621,-0.00992,-0.04608,-0.04898,0.20523,-0.00732,-0.02731,-0.00061,0.00504,-0.00702,-0.03067,-0.01099,0.00381,-0.04288
8.1865,0.0058,-0.04425,-0.0618,-0.01053,-0.04532,-0.04974,0.15884,-0.00793,-0.0267,-0.00061,0.00778,-0.01419,-0.03082,-0.01144,0.00305,-0.04852
8.187,0.00534,-0.04318,-0.05951,-0.01129,-0.0444,-0.04883,0.1503,-0.00534,-0.02762,-0.00198,0.0119,-0.01846,-0.03174,-0.01328,0.00458,-0.0502
8.1875,0.0029,-0.04303,-0.0592,-0.01022,-0.04486,-0.04883,0.2713,-0.00168,-0.02808,-0.0032,0.01419,-0.01907,-0.0351,-0.01602,0.00717,-0.04761
8.188,0.00031,-0.04395,-0.06287,-0.00824,-0.04608,-0.04974,0.39551,-0.00168,-0.02762,-0.00427,0.01419,-0.01694,-0.03754,-0.01709,0.01038,-0.04562
8.1885,-0.00107,-0.0444,-0.06912,-0.0058,-0.04868,-0.05127,0.36667,-0.00671,-0.02609,-0.00443,0.01358,-0.01251,-0.03784,-0.01648,0.01038,-0.04517
8.189,-0.00153,-0.04425,-0.07126,-0.00519,-0.04776,-0.0531,0.23849,-0.01328,-0.02548,-0.00565,0.01343,-0.00809,-0.03693,-0.01541,0.00824,-0.04745
8.1895,-0.00214,-0.04379,-0.07248,-0.0058,-0.04745,-0.05402,0.16357,-0.0145,-0.02609,-0.00519,0.01251,-0.00809,-0.03586,-0.01526,0.00702,-0.05219
8.19,-0.00168,-0.04471,-0.07492,-0.00595,-0.04654,-0.0531,0.16266,-0.01236,-0.02792,-0.00427,0.01129,-0.0145,-0.03601,-0.01694,0.00732,-0.05936
8.1905,0.00015,-0.04654,-0.07538,-0.00702,-0.04562,-0.05051,0.14389,-0.00793,-0.02808,-0.0029,0.01068,-0.02182,-0.03662,-0.01953,0.00717,-0.06577
8.191,0.00412,-0.04822,-0.07065,-0.00717,-0.04608,-0.04639,0.08011,-0.00336,-0.02731,-0.00305,0.01022,-0.02731,-0.03769,-0.02213,0.00626,-0.06592
8.1915,0.00916,-0.04944,-0.06165,-0.00748,-0.04501,-0.04318,0.03479,0.00168,-0.02655,-0.00412,0.0087,-0.02808,-0.03815,-0.02289,0.0058,-0.06104
8.192,0.0116,-0.04898,-0.05432,-0.0058,-0.04105,-0.04257,0.04669,0.00656,-0.02716,-0.00412,0.00854,-0.0264,-0.0386,-0.02151,0.00595,-0.05615
8.1925,0.01099,-0.04486,-0.05219,-0.00443,-0.03906,-0.04349,0.07935,0.00854,-0.02899,-0.00366,0.01083,-0.02563,-0.03922,-0.01801,0.00381,-0.05356
8.193,0.00931,-0.03845,-0.05356,-0.00305,-0.03616,-0.04501,0.08606,0.00671,-0.03036,-0.00381,0.01358,-0.02625,-0.03983,-0.01312,0.00275,-0.05371
8.1935,0.00916,-0.03281,-0.05371,-0.0029,-0.03586,-0.04623,0.06363,0.00351,-0.03036,-0.00458,0.01328,-0.02365,-0.04013,-0.01007,0.00305,-0.05447
8.194,0.00778,-0.02945,-0.05081,-0.00488,-0.03738,-0.04578,0.0322,0.0,-0.02914,-0.00427,0.01083,-0.01801,-0.04105,-0.0087,0.00381,-0.05493
8.1945,0.00473,-0.02899,-0.04532,-0.00763,-0.03952,-0.04547,0.00641,-0.00244,-0.02914,-0.00488,0.00977,-0.01129,-0.04227,-0.00931,0.00443,-0.05524
8.195,0.00031,-0.02914,-0.0412,-0.00946,-0.04028,-0.04669,-0.01129,-0.0029,-0.03082,-0.00549,0.0116,-0.00549,-0.04196,-0.00946,0.00427,-0.05432
8.1955,-0.00443,-0.0293,-0.03952,-0.00916,-0.04044,-0.04974,-0.0235,-0.00381,-0.03113,-0.0061,0.01602,-0.00229,-0.04059,-0.00854,0.00427,-0.05234
8.196,-0.00824,-0.02914,-0.03937,-0.00839,-0.03952,-0.05264,-0.03036,-0.00443,-0.03021,-0.00656,0.01953,-0.00015,-0.03922,-0.00732,0.00458,-0.05112
8.1965,-0.00992,-0.03021,-0.03967,-0.00763,-0.04028,-0.05432,-0.03479,-0.0061,-0.0296,-0.00656,0.02106,-0.00061,-0.0386,-0.00717,0.0058,-0.05081
8.197,-0.01175,-0.03128,-0.03922,-0.00717,-0.04288,-0.05463,-0.03891,-0.00687,-0.03052,-0.00809,0.01877,-0.00122,-0.03967,-0.00793,0.00778,-0.05112
8.1975,-0.01236,-0.03143,-0.03983,-0.00656,-0.04578,-0.05356,-0.04288,-0.00641,-0.03204,-0.00992,0.01511,-0.00351,-0.03952,-0.01007,0.01099,-0.05127
8.198,-0.01221,-0.03052,-0.03906,-0.0058,-0.04684,-0.05096,-0.0444,-0.00671,-0.03235,-0.00946,0.01221,-0.00397,-0.03586,-0.01587,0.01053,-0.05081
8.1985,-0.01144,-0.02869,-0.03418,-0.00504,-0.0444,-0.04745,-0.04532,-0.00626,-0.03128,-0.00931,0.01068,-0.00214,-0.03021,-0.02655,0.00702,-0.05112
8.199,-0.01053,-0.02548,-0.02823,-0.00381,-0.04242,-0.04562,-0.05051,-0.00626,-0.03067,-0.01068,0.00824,-0.00046,-0.02579,-0.0412,0.00412,-0.05112
8.1995,-0.01068,-0.02426,-0.02365,-0.00397,-0.0386,-0.04578,-0.06027,-0.00504,-0.03098,-0.01251,0.00565,0.00244,-0.02304,-0.05569,0.00397,-0.05005
8.2,-0.01251,-0.02487,-0.02106,-0.00443,-0.03754,-0.04593,-0.06821,-0.00412,-0.02899,-0.0145,0.00427,0.00595,-0.02045,-0.06607,0.00687,-0.04761
8.2005,-0.01465,-0.02594,-0.01877,-0.00504,-0.03677,-0.04471,-0.06973,-0.00427,-0.02716,-0.01495,0.00168,0.01068,-0.01846,-0.0705,0.0087,-0.04623
8.201,-0.01541,-0.02594,-0.0174,-0.00412,-0.03723,-0.04395,-0.06683,-0.00488,-0.02594,-0.01404,-0.00198,0.01205,-0.01694,-0.06836,0.00809,-0.04517
8.2015,-0.01434,-0.02472,-0.01633,-0.00275,-0.03738,-0.04288,-0.06531,-0.00595,-0.02457,-0.01236,-0.00366,0.01068,-0.01709,-0.06073,0.00656,-0.04593
8.202,-0.01144,-0.02472,-0.01694,-0.00183,-0.03876,-0.0441,-0.06943,-0.00626,-0.02335,-0.01251,-0.00443,0.00839,-0.01907,-0.05295,0.00717,-0.04639
8.2025,-0.00732,-0.02563,-0.02075,-0.00214,-0.03967,-0.04501,-0.07401,-0.00671,-0.02228,-0.0145,-0.00549,0.0087,-0.02167,-0.0528,0.01221,-0.0473
8.203,-0.00473,-0.02747,-0.02289,-0.00366,-0.03967,-0.04608,-0.0766,-0.00702,-0.02167,-0.01617,-0.00717,0.01068,-0.0235,-0.06302,0.0177,-0.04715
8.2035,-0.00214,-0.02853,-0.02304,-0.00504,-0.03891,-0.04562,-0.07584,-0.00641,-0.02289,-0.01801,-0.01007,0.01266,-0.02426,-0.07523,0.02014,-0.04608
8.204,0.00015,-0.02975,-0.02136,-0.00473,-0.03769,-0.04562,-0.07523,-0.00534,-0.02411,-0.01938,-0.00961,0.01511,-0.02518,-0.08087,0.01785,-0.04517
8.2045,0.00031,-0.03174,-0.02045,-0.00366,-0.03616,-0.04822,-0.07599,-0.00305,-0.02457,-0.02045,-0.00961,0.01633,-0.02716,-0.07629,0.01312,-0.04486
8.205,0.00015,-0.0325,-0.02136,-0.0029,-0.03571,-0.05066,-0.07614,-0.00198,-0.02365,-0.02136,-0.01083,0.01755,-0.03021,-0.06638,0.01007,-0.04547
8.2055,-0.00122,-0.03113,-0.02243,-0.0032,-0.03677,-0.05051,-0.07431,-0.00244,-0.02258,-0.02304,-0.01251,0.01938,-0.03281,-0.05646,0.0087,-0.0473
8.206,-0.00061,-0.02975,-0.02274,-0.00565,-0.03708,-0.04913,-0.07309,-0.00397,-0.02289,-0.02518,-0.01495,0.01984,-0.03433,-0.05081,0.00931,-0.04852
8.2065,0.00092,-0.02914,-0.0238,-0.00748,-0.03571,-0.04715,-0.07187,-0.00534,-0.02396,-0.02655,-0.01892,0.02197,-0.03342,-0.04791,0.01007,-0.04868
8.207,0.00153,-0.02945,-0.02594,-0.00717,-0.03326,-0.04562,-0.07111,-0.0058,-0.02655,-0.02655,-0.02426,0.02396,-0.03159,-0.04776,0.00992,-0.04684
8.2075,0.00168,-0.03006,-0.02716,-0.00671,-0.03204,-0.04471,-0.07126,-0.0061,-0.0267,-0.02609,-0.02823,0.02594,-0.03067,-0.04898,0.01038,-0.04562
8.208,0.0032,-0.03006,-0.02487,-0.0058,-0.03265,-0.04456,-0.07217,-0.00549,-0.02472,-0.02579,-0.02869,0.02899,-0.03113,-0.05096,0.00961,-0.04349
8.2085,0.00549,-0.03113,-0.02274,-0.00519,-0.03342,-0.0444,-0.07217,-0.00534,-0.02197,-0.0267,-0.02701,0.03036,-0.03174,-0.05096,0.00809,-0.04349
8.209,0.00885,-0.03342,-0.02167,-0.00397,-0.03235,-0.04349,-0.07111,-0.00366,-0.02121,-0.02869,-0.02625,0.03036,-0.03113,-0.04929,0.00732,-0.04471
8.2095,0.00946,-0.03571,-0.02213,-0.00366,-0.03052,-0.04303,-0.06943,-0.00336,-0.0209,-0.02899,-0.02487,0.02945,-0.02991,-0.04807,0.00732,-0.04501
8.21,0.00885,-0.03738,-0.02289,-0.00397,-0.02884,-0.04364,-0.07126,-0.00381,-0.02182,-0.02777,-0.02502,0.03113,-0.0296,-0.04791,0.00946,-0.04379
8.2105,0.00748,-0.03906,-0.02319,-0.00458,-0.02762,-0.04562,-0.08041,-0.00458,-0.02411,-0.02731,-0.02716,0.0354,-0.03082,-0.04761,0.01007,-0.04196
8.211,0.00565,-0.04333,-0.02182,-0.00534,-0.02945,-0.04761,-0.09384,-0.00458,-0.02487,-0.0267,-0.02991,0.03998,-0.03143,-0.04639,0.0087,-0.0415
8.2115,0.00534,-0.04883,-0.02136,-0.00641,-0.03082,-0.04852,-0.10422,-0.0032,-0.02472,-0.02579,-0.03387,0.04532,-0.03067,-0.04456,0.00839,-0.04089
8.212,0.0029,-0.05219,-0.02304,-0.00656,-0.0296,-0.04807,-0.10818,-0.0029,-0.02335,-0.02304,-0.03754,0.0499,-0.02945,-0.04379,0.00809,-0.03967
8.2125,0.00046,-0.05142,-0.02472,-0.0061,-0.02884,-0.04791,-0.10895,-0.0032,-0.02258,-0.02289,-0.03967,0.05127,-0.02869,-0.04333,0.00793,-0.03922
8.213,0.00031,-0.04639,-0.02274,-0.00626,-0.02731,-0.04959,-0.10956,-0.00244,-0.02243,-0.0235,-0.0415,0.05173,-0.02777,-0.03326,0.00671,-0.03922
8.2135,0.00046,-0.04044,-0.01663,-0.00656,-0.03067,-0.05051,-0.11108,-0.00076,-0.02182,-0.02472,-0.04044,0.05035,-0.02792,-0.00793,0.00656,-0.04028
8.214,0.00015,-0.0351,-0.00885,-0.00656,-0.0293,-0.05096,-0.10986,0.00061,-0.02228,-0.0238,-0.03799,0.04761,-0.02914,0.03082,0.00732,-0.04181
8.2145,0.00076,-0.0322,-0.00641,-0.0058,-0.03006,-0.05081,-0.10681,0.00183,-0.02243,-0.02274,-0.0351,0.04684,-0.03235,0.06912,0.00946,-0.04074
