time,RectFemL,VastusMedL,VastusLatL,TibAntL,HamMedL,HamLatL,GastroMedL,GastroLatL,RectFemR,VastusMedR,VastusLatR,TibAntR,HamMedR,HamLatR,GastroMedR,GastroLatR
10.35,0.01495,-0.03632,-0.10468,-0.01907,-0.01465,-0.06027,-0.01251,-0.00473,0.00244,0.00488,-0.04196,0.00534,-0.02853,0.00198,0.01541,-0.02823
10.3505,0.01297,-0.03616,-0.09888,0.0528,-0.01297,-0.05615,-0.0119,-0.00458,-0.00427,0.00137,-0.04303,0.00641,-0.03006,0.00427,0.07187,-0.02731
10.351,0.01205,-0.03494,-0.09796,0.12695,-0.01541,-0.05264,-0.01221,-0.00458,-0.01083,-0.00198,-0.04379,0.00854,-0.03265,0.00488,0.08804,-0.02563
10.3515,0.01251,-0.03738,-0.09552,0.1651,-0.03265,-0.05005,-0.01205,-0.0029,-0.01389,0.00107,-0.04379,0.01053,-0.0325,0.00244,0.06226,-0.02396
10.352,0.01465,-0.04395,-0.09476,0.14282,-0.06454,-0.04761,-0.01434,-0.00351,-0.01541,0.01007,-0.04288,0.01022,-0.0293,-0.01022,0.01907,-0.02426
10.3525,0.0145,-0.05417,-0.0943,0.07965,-0.09399,-0.04547,-0.01831,-0.00443,-0.0177,0.01556,-0.03998,0.00748,-0.02365,-0.03586,-0.00473,-0.02426
10.353,0.0119,-0.06424,-0.09476,0.01938,-0.10498,-0.04028,-0.02136,-0.0058,-0.01968,0.01617,-0.03616,0.00565,-0.01709,-0.06256,0.00336,-0.02365
10.3535,0.00748,-0.07355,-0.09491,-0.01648,-0.09705,-0.03571,-0.02136,-0.00534,-0.02136,0.01663,-0.03296,0.00351,-0.01007,-0.06851,0.02716,-0.02579
10.354,0.00305,-0.08118,-0.10056,-0.02884,-0.08041,-0.03235,-0.01984,-0.00397,-0.02197,0.0235,-0.03006,0.00244,-0.00412,-0.04913,0.05096,-0.03067
10.3545,0.00092,-0.08453,-0.10498,-0.03036,-0.06714,-0.03021,-0.01785,-0.00244,-0.02167,0.03403,-0.02487,0.00336,-0.00031,-0.02243,0.06134,-0.03464
10.355,-0.00015,-0.08316,-0.10925,-0.02884,-0.05951,-0.03021,-0.01785,-0.00244,-0.02411,0.03952,-0.01556,0.00427,0.00031,-0.01358,0.06027,-0.03204
10.3555,-0.00259,-0.07813,-0.11124,-0.02731,-0.0528,-0.03128,-0.01862,-0.00305,-0.0267,0.03815,-0.00397,0.0032,-0.00137,-0.01938,0.05646,-0.02472
10.356,-0.00519,-0.07263,-0.10864,-0.02487,-0.0441,-0.03265,-0.01907,-0.0029,-0.02914,0.03326,0.00671,0.00015,-0.0032,-0.02838,0.06439,-0.01663
10.3565,-0.0058,-0.06714,-0.09613,-0.02731,-0.0354,-0.03235,-0.01907,-0.00351,-0.02838,0.02747,0.01236,-0.00229,-0.00488,-0.03464,0.06058,-0.00885
10.357,-0.00565,-0.06241,-0.07813,-0.03448,-0.03052,-0.02945,-0.01877,-0.00473,-0.02579,0.0206,0.01373,-0.00397,-0.00977,-0.04028,0.03159,-0.00351
10.3575,-0.00656,-0.056,-0.06775,-0.04364,-0.0296,-0.02548,-0.01755,-0.00565,-0.02533,0.01617,0.01038,-0.00641,-0.02075,-0.04852,-0.01816,-0.00443
10.358,-0.00732,-0.04883,-0.06958,-0.0415,-0.02289,-0.02151,-0.01633,-0.00519,-0.0264,0.01266,0.00427,-0.00946,-0.03937,-0.05417,-0.06317,-0.00946
10.3585,-0.00687,-0.04593,-0.07492,-0.02838,-0.00473,-0.01862,-0.01587,-0.00397,-0.02609,0.01312,-0.00336,-0.01205,-0.0592,-0.05768,-0.09354,-0.01511
10.359,-0.0058,-0.04715,-0.07675,-0.0119,0.01404,-0.01755,-0.01694,-0.00351,-0.02441,0.01663,-0.00916,-0.01205,-0.07156,-0.0563,-0.11337,-0.02792
10.3595,-0.00458,-0.05005,-0.08026,0.0032,0.02151,-0.01755,-0.01862,-0.00412,-0.01968,0.02213,-0.01053,-0.01175,-0.07126,-0.04837,-0.1239,-0.05127
10.36,-0.00351,-0.05005,-0.08759,0.01648,0.0209,-0.01938,-0.01816,-0.00412,-0.01312,0.02884,-0.00839,-0.01129,-0.06378,-0.03571,-0.11948,-0.07996
10.3605,-0.00366,-0.04852,-0.09628,0.02441,0.01984,-0.02335,-0.01801,-0.00259,-0.0061,0.03555,-0.00626,-0.01022,-0.05936,-0.02365,-0.08911,-0.09415
10.361,-0.00565,-0.04715,-0.10269,0.02625,0.0209,-0.0293,-0.01801,-0.00168,-0.00229,0.04547,-0.00732,-0.00793,-0.05936,-0.0145,-0.04486,-0.08286
10.3615,-0.00839,-0.04761,-0.10391,0.03036,0.01862,-0.03799,-0.01907,-0.00183,-0.00351,0.05325,-0.01114,-0.00259,-0.05737,-0.00931,0.00061,-0.05997
10.362,-0.01205,-0.04807,-0.10559,0.04837,0.01053,-0.05341,-0.01999,-0.0029,-0.00534,0.05615,-0.01495,0.00244,-0.05066,-0.00565,0.0238,-0.04868
10.3625,-0.01419,-0.04776,-0.10712,0.07278,-0.00076,-0.07813,-0.0209,-0.00381,-0.00549,0.05859,-0.01587,0.00626,-0.04227,-0.00092,0.01099,-0.05585
10.363,-0.0145,-0.04761,-0.10284,0.07904,-0.01083,-0.09842,-0.02106,-0.00366,-0.00397,0.06104,-0.01297,0.009,-0.03891,0.00458,-0.01617,-0.06805
10.3635,-0.01282,-0.0473,-0.09613,0.04776,-0.01495,-0.10025,-0.02106,-0.00381,-0.00549,0.05936,-0.00977,0.01007,-0.03876,0.00687,-0.00702,-0.07675
10.364,-0.01083,-0.04456,-0.08499,-0.00763,-0.02045,-0.08377,-0.0209,-0.00351,-0.01114,0.04608,-0.01022,0.00946,-0.03906,0.0029,0.04211,-0.07797
10.3645,-0.009,-0.04135,-0.07858,-0.04517,-0.03784,-0.06607,-0.01938,-0.00183,-0.01602,0.02579,-0.01221,0.00809,-0.03815,-0.00381,0.07797,-0.07614
10.365,-0.00732,-0.04089,-0.07172,-0.03204,-0.06958,-0.06104,-0.01587,0.00046,-0.01556,0.00595,-0.01068,0.00961,-0.03708,-0.01038,0.05905,-0.06744
10.3655,-0.00519,-0.04303,-0.06821,0.02319,-0.10101,-0.06561,-0.01389,-0.00031,-0.01114,-0.00473,-0.00748,0.01556,-0.03922,-0.01282,0.01633,-0.05692
10.366,-0.0032,-0.04517,-0.06882,0.07233,-0.12177,-0.06882,-0.01343,-0.00107,-0.00458,-0.00809,-0.00656,0.02304,-0.04135,-0.01434,-0.00595,-0.04807
10.3665,-0.00336,-0.04578,-0.07248,0.07935,-0.12985,-0.06287,-0.0119,-0.00122,-0.00229,-0.00946,-0.00671,0.02472,-0.03906,-0.01541,-0.01373,-0.04974
10.367,-0.00504,-0.04486,-0.07858,0.05844,-0.13382,-0.05142,-0.00961,0.00061,-0.00626,-0.00824,-0.00824,0.01968,-0.03159,-0.01389,-0.03418,-0.05447
10.3675,-0.0061,-0.04395,-0.07935,0.03723,-0.13184,-0.04364,-0.00793,0.00137,-0.01343,-0.00641,-0.00824,0.01633,-0.02319,-0.01038,-0.0528,-0.05478
10.368,-0.00443,-0.04318,-0.0769,0.01068,-0.11932,-0.03891,-0.00824,0.00107,-0.02014,-0.00412,-0.00717,0.02121,-0.01968,-0.009,-0.02686,-0.04807
10.3685,0.00015,-0.04318,-0.07233,-0.05249,-0.09445,-0.03784,-0.00977,0.00015,-0.02319,-0.00275,-0.00977,0.02945,-0.02319,-0.01251,0.03708,-0.03754
10.369,0.00473,-0.04227,-0.06714,-0.15213,-0.06256,-0.04227,-0.01038,-0.00183,-0.02258,-0.00549,-0.01465,0.03357,-0.03098,-0.01877,0.08102,-0.02548
10.3695,0.00778,-0.04059,-0.06226,-0.25208,-0.03448,-0.05569,-0.01083,-0.0029,-0.01892,-0.00839,-0.01968,0.03189,-0.0383,-0.02243,0.06927,-0.01419
10.37,0.00931,-0.03967,-0.05768,-0.30869,-0.01816,-0.07797,-0.0116,-0.00412,-0.01236,-0.009,-0.02151,0.02869,-0.04074,-0.0235,0.03494,-0.00839
10.3705,0.01053,-0.04257,-0.05463,-0.29022,-0.01709,-0.10605,-0.01358,-0.0061,-0.00519,-0.01099,-0.0209,0.02426,-0.03555,-0.02289,0.02213,-0.01617
10.371,0.01099,-0.05249,-0.05142,-0.19913,-0.01816,-0.13138,-0.01434,-0.00717,-0.00168,-0.01205,-0.01892,0.01801,-0.02426,-0.02029,0.03983,-0.03632
10.3715,0.01068,-0.06546,-0.047,-0.08316,-0.0087,-0.1416,-0.01328,-0.00702,-0.00275,-0.01236,-0.01953,0.01205,-0.01358,-0.01587,0.06638,-0.05661
10.372,0.00992,-0.07477,-0.03723,-0.00412,0.0061,-0.12955,-0.01221,-0.00549,-0.00732,-0.01114,-0.02136,0.0087,-0.00977,-0.01236,0.06744,-0.06729
10.3725,0.00687,-0.07462,-0.02167,0.0206,0.01007,-0.09995,-0.01266,-0.00366,-0.01312,-0.00824,-0.01999,0.00595,-0.01358,-0.0116,0.02304,-0.06546
10.373,0.00229,-0.0679,-0.00656,0.03311,-0.00793,-0.0705,-0.01266,-0.0029,-0.01816,-0.00458,-0.01511,0.00092,-0.01892,-0.01266,-0.03372,-0.06241
10.3735,-0.00031,-0.06363,0.00076,0.07721,-0.03342,-0.05417,-0.01099,-0.00412,-0.02182,-0.00259,-0.01236,-0.00305,-0.02106,-0.01175,-0.0531,-0.06454
10.374,-0.00198,-0.06241,0.00046,0.13885,-0.05524,-0.04593,-0.01038,-0.00595,-0.02365,-0.00122,-0.01465,-0.00366,-0.02289,-0.00931,-0.02808,-0.07202
10.3745,-0.00549,-0.06149,-0.00137,0.16129,-0.06317,-0.04349,-0.01053,-0.00656,-0.02472,-0.00015,-0.01877,-0.00244,-0.02594,-0.00916,-0.0061,-0.07309
10.375,-0.01083,-0.05524,-0.00046,0.11627,-0.05814,-0.04089,-0.0119,-0.00519,-0.02609,0.00229,-0.01877,-0.00397,-0.02731,-0.01068,-0.02457,-0.06271
10.3755,-0.01678,-0.04532,0.00015,0.03571,-0.04074,-0.04105,-0.01282,-0.00412,-0.02747,0.00687,-0.01556,-0.0087,-0.02472,-0.01373,-0.06699,-0.05432
10.376,-0.02045,-0.03403,-0.00168,-0.02899,-0.01694,-0.04044,-0.01297,-0.00366,-0.02655,0.00885,-0.01129,-0.01205,-0.0209,-0.0148,-0.08347,-0.05753
10.3765,-0.02319,-0.02609,-0.0058,-0.05615,0.00412,-0.03647,-0.01434,-0.00412,-0.02213,0.01144,-0.00885,-0.01205,-0.01984,-0.0148,-0.0621,-0.06119
10.377,-0.02441,-0.02762,-0.01083,-0.05386,0.01419,-0.02457,-0.01556,-0.00458,-0.01953,0.01007,-0.00824,-0.0058,-0.02548,-0.01541,-0.02808,-0.05112
10.3775,-0.02487,-0.03647,-0.01816,-0.04028,0.01968,-0.00732,-0.01587,-0.00458,-0.02289,0.00885,-0.01144,0.0029,-0.03403,-0.01877,0.00351,-0.03342
10.378,-0.02655,-0.04745,-0.02533,-0.02426,0.03418,0.0116,-0.01419,-0.00305,-0.02975,0.00778,-0.01663,0.01053,-0.03708,-0.02121,0.05524,-0.0209
10.3785,-0.0293,-0.05463,-0.03052,-0.01434,0.05997,0.02609,-0.01297,-0.00214,-0.03494,0.00992,-0.01953,0.01343,-0.03235,-0.0209,0.13885,-0.01572
10.379,-0.03296,-0.05768,-0.03082,-0.01038,0.08072,0.0325,-0.01221,-0.00259,-0.03479,0.01221,-0.02014,0.01129,-0.02594,-0.01953,0.19287,-0.00931
10.3795,-0.03265,-0.05768,-0.02472,-0.01282,0.08743,0.03006,-0.01221,-0.00229,-0.03052,0.00931,-0.01846,0.00595,-0.02548,-0.0209,0.14786,-0.00214
10.38,-0.02884,-0.05417,-0.01648,-0.0177,0.08148,0.02289,-0.01266,-0.00229,-0.02563,0.00488,-0.01587,0.00046,-0.02991,-0.0235,0.01999,-0.00366
10.3805,-0.0235,-0.04669,-0.01099,-0.02136,0.0679,0.01099,-0.01312,-0.00244,-0.01907,0.00336,-0.01495,-0.00427,-0.03235,-0.0235,-0.08392,-0.01343
10.381,-0.01923,-0.03799,-0.0116,-0.01678,0.04959,-0.00351,-0.01343,-0.00259,-0.01343,0.00397,-0.01526,-0.00656,-0.02914,-0.02106,-0.08774,-0.02258
10.3815,-0.01694,-0.03113,-0.01511,-0.0058,0.02991,-0.01862,-0.01205,-0.00275,-0.00946,0.00412,-0.01617,-0.00732,-0.0296,-0.01892,-0.0177,-0.02487
10.382,-0.01617,-0.02655,-0.01892,0.0058,0.01617,-0.03143,-0.00961,-0.00183,-0.00748,0.0032,-0.01663,-0.00534,-0.03632,-0.01953,0.04181,-0.02151
10.3825,-0.01572,-0.0238,-0.01709,0.0145,0.00534,-0.0444,-0.00748,-0.00122,-0.00732,0.00214,-0.01663,-0.00366,-0.04791,-0.02563,0.04562,-0.02121
10.383,-0.01526,-0.01999,-0.0145,0.02365,-0.01389,-0.05493,-0.0058,-0.00061,-0.00854,0.00229,-0.01617,-0.00336,-0.05676,-0.03433,0.02258,-0.02396
10.3835,-0.0119,-0.01587,0.00366,0.03616,-0.04898,-0.06088,-0.00565,0.00015,-0.00961,0.00534,-0.01633,-0.00565,-0.05905,-0.03983,0.01877,-0.02853
10.384,-0.00809,-0.01434,0.04562,0.04959,-0.08728,-0.05966,-0.00732,0.00198,-0.01007,0.00717,-0.01801,-0.01083,-0.05615,-0.03998,0.03418,-0.03006
10.3845,-0.00504,-0.01663,0.09262,0.05798,-0.11002,-0.05219,-0.00885,0.00275,-0.00824,0.00717,-0.01862,-0.01572,-0.05356,-0.03708,0.03281,-0.0293
10.385,-0.00397,-0.0206,0.09155,0.06287,-0.1091,-0.0412,-0.00946,0.00153,-0.00549,0.01083,-0.01801,-0.01877,-0.05508,-0.03326,0.00214,-0.03372
10.3855,-0.00443,-0.01999,0.02548,0.06775,-0.09537,-0.02945,-0.00931,-0.00229,-0.0029,0.01633,-0.0145,-0.01877,-0.05692,-0.03174,-0.02548,-0.04608
10.386,-0.00595,-0.01053,-0.05768,0.06393,-0.08911,-0.01984,-0.00946,-0.00565,-0.00412,0.0209,-0.0087,-0.01831,-0.05447,-0.02808,-0.02792,-0.05508
10.3865,-0.0087,0.00595,-0.09979,0.03006,-0.09888,-0.01556,-0.00946,-0.00687,-0.00763,0.02121,-0.00137,-0.0174,-0.04639,-0.02304,-0.0145,-0.04944
10.387,-0.01266,0.01312,-0.09918,-0.03418,-0.11154,-0.01892,-0.00839,-0.00549,-0.0116,0.01785,0.00519,-0.01617,-0.03723,-0.01678,-0.00168,-0.03616
10.3875,-0.01511,-0.00137,-0.08728,-0.09064,-0.11124,-0.03159,-0.00824,-0.00381,-0.01083,0.01343,0.00946,-0.01663,-0.03159,-0.01389,0.01526,-0.02899
10.388,-0.01678,-0.03571,-0.08087,-0.09705,-0.09415,-0.0473,-0.00809,-0.00076,-0.00854,0.00885,0.01022,-0.01709,-0.02838,-0.01373,0.04868,-0.02823
10.3885,-0.01709,-0.07034,-0.07294,-0.05478,-0.07462,-0.04837,-0.0087,0.00107,-0.00702,0.0061,0.00824,-0.01663,-0.02579,-0.0148,0.08698,-0.02853
10.389,-0.01785,-0.08652,-0.05646,-0.00031,-0.06454,-0.02701,-0.00961,0.00076,-0.00641,0.0032,0.00641,-0.01587,-0.02441,-0.01282,0.09888,-0.0264
10.3895,-0.01724,-0.0827,-0.02945,0.04547,-0.07828,-0.00351,-0.01099,-0.00092,-0.00412,0.00198,0.0061,-0.0145,-0.02365,-0.01038,0.07645,-0.02762
10.39,-0.01648,-0.06943,-0.00824,0.08133,-0.11902,-0.01663,-0.01099,-0.00168,-0.00214,0.00137,0.00488,-0.01129,-0.02319,-0.00885,0.04532,-0.03128
10.3905,-0.01648,-0.06058,0.00122,0.09781,-0.1709,-0.07919,-0.01221,-0.00046,-0.00031,-0.00076,0.00137,-0.00656,-0.02075,-0.00916,0.02975,-0.03479
10.391,-0.01785,-0.06226,-0.00031,0.07095,-0.19714,-0.15625,-0.0145,0.00137,0.00031,-0.00397,-0.00153,-0.00565,-0.02136,-0.01221,0.02533,-0.03708
10.3915,-0.01785,-0.06897,0.00137,0.00748,-0.17548,-0.19455,-0.0177,0.00122,0.00046,-0.00656,-0.00259,-0.00763,-0.02686,-0.01663,0.00961,-0.04395
10.392,-0.01587,-0.07309,0.0119,-0.04745,-0.12146,-0.17929,-0.02014,-0.00122,-0.00076,-0.00854,-0.00351,-0.01129,-0.03357,-0.02243,-0.01846,-0.06241
10.3925,-0.01251,-0.07202,0.02747,-0.05692,-0.07813,-0.1442,-0.02106,-0.00488,-0.00183,-0.01266,-0.0061,-0.01389,-0.03815,-0.02579,-0.04379,-0.08743
10.393,-0.00793,-0.07019,0.03906,-0.03601,-0.06149,-0.12039,-0.02213,-0.00809,-0.00534,-0.01953,-0.01068,-0.01465,-0.03632,-0.02808,-0.05402,-0.09933
10.3935,-0.00504,-0.0676,0.04456,-0.02792,-0.05692,-0.1062,-0.02365,-0.00946,-0.00946,-0.02533,-0.01465,-0.0145,-0.03265,-0.02823,-0.04745,-0.08896
10.394,-0.00717,-0.05783,0.04471,-0.04929,-0.04562,-0.08621,-0.02365,-0.00946,-0.01404,-0.02945,-0.01968,-0.01556,-0.03189,-0.02731,-0.03784,-0.06409
10.3945,-0.01221,-0.04272,0.03876,-0.07675,-0.03006,-0.05829,-0.02228,-0.00854,-0.01678,-0.03418,-0.02533,-0.01556,-0.03555,-0.02533,-0.03387,-0.04211
10.395,-0.01495,-0.03021,0.02182,-0.08057,-0.01999,-0.0354,-0.02167,-0.00671,-0.01709,-0.03922,-0.03387,-0.01358,-0.03998,-0.02426,-0.0322,-0.03128
10.3955,-0.01282,-0.02487,0.00229,-0.06104,-0.02167,-0.02655,-0.02151,-0.00595,-0.01648,-0.04318,-0.04333,-0.00961,-0.04318,-0.0206,-0.02365,-0.0267
10.396,-0.00946,-0.02396,-0.01938,-0.04181,-0.03189,-0.02655,-0.02121,-0.00595,-0.01312,-0.04395,-0.0528,-0.00366,-0.04089,-0.01709,-0.0058,-0.02426
10.3965,-0.0061,-0.02258,-0.04929,-0.03937,-0.04456,-0.03113,-0.02045,-0.00687,-0.0116,-0.0412,-0.05814,0.00137,-0.03601,-0.01526,0.00931,-0.03036
10.397,-0.00458,-0.02121,-0.08636,-0.05157,-0.04623,-0.03387,-0.02075,-0.00702,-0.01129,-0.03769,-0.05463,0.00275,-0.03387,-0.01465,0.00763,-0.04654
10.3975,-0.0058,-0.02014,-0.11078,-0.06805,-0.03815,-0.0351,-0.02319,-0.00519,-0.01541,-0.03708,-0.04562,0.00305,-0.0325,-0.01602,-0.00122,-0.06424
10.398,-0.00931,-0.01785,-0.1088,-0.08331,-0.02914,-0.03326,-0.02899,-0.00366,-0.02151,-0.03555,-0.03494,0.00504,-0.03265,-0.0177,-0.0029,-0.06958
10.3985,-0.0116,-0.00488,-0.09094,-0.09201,-0.0238,-0.02777,-0.03296,-0.00122,-0.0264,-0.0322,-0.02731,0.00702,-0.03357,-0.0177,0.00397,-0.06378
10.399,-0.01282,0.01953,-0.07843,-0.09338,-0.01785,-0.02411,-0.03189,0.00107,-0.02991,-0.02747,-0.02304,0.00732,-0.03494,-0.01831,0.009,-0.05508
10.3995,-0.01282,0.04105,-0.07339,-0.09247,-0.00809,-0.02106,-0.02686,0.00381,-0.03143,-0.02304,-0.02182,0.00534,-0.03601,-0.01862,0.00931,-0.04364
10.4,-0.01266,0.0354,-0.07233,-0.0943,-0.00122,-0.01984,-0.0235,0.00626,-0.03098,-0.01968,-0.0206,0.00443,-0.03647,-0.01846,0.00519,-0.02823
10.4005,-0.01266,0.00031,-0.07126,-0.09796,-0.00305,-0.01999,-0.02319,0.00519,-0.02808,-0.01587,-0.01877,0.00488,-0.03769,-0.01831,0.00305,-0.01541
10.401,-0.01312,-0.04303,-0.06836,-0.10086,-0.01083,-0.02167,-0.02502,0.00153,-0.02335,-0.01068,-0.01648,0.00504,-0.03906,-0.01877,0.00183,-0.01312
10.4015,-0.01251,-0.07095,-0.06241,-0.10391,-0.01617,-0.02319,-0.02609,-0.00305,-0.01999,-0.00839,-0.01511,0.00351,-0.03983,-0.01907,0.00473,-0.01816
10.402,-0.01083,-0.08041,-0.05035,-0.10971,-0.01816,-0.02533,-0.02594,-0.00809,-0.01892,-0.00732,-0.01312,0.00168,-0.03799,-0.01892,0.01083,-0.02533
10.4025,-0.00992,-0.08011,-0.03418,-0.12329,-0.01938,-0.02792,-0.0264,-0.01022,-0.01923,-0.009,-0.0119,0.00046,-0.03708,-0.02121,0.01526,-0.03403
10.403,-0.01175,-0.07874,-0.02029,-0.14267,-0.01831,-0.03143,-0.02792,-0.01007,-0.01923,-0.01297,-0.01053,-0.00031,-0.0386,-0.02289,0.01495,-0.03632
10.4035,-0.01312,-0.07492,-0.01083,-0.1622,-0.01053,-0.0325,-0.03159,-0.00809,-0.01999,-0.01404,-0.00778,0.00031,-0.04013,-0.02106,0.01205,-0.02274
10.404,-0.01251,-0.06485,-0.00839,-0.17334,-0.00076,-0.03281,-0.03418,-0.00488,-0.02136,-0.01602,-0.00626,-0.00031,-0.03891,-0.0177,0.01282,-0.00168
10.4045,-0.0087,-0.05066,-0.00931,-0.17441,0.0058,-0.03387,-0.0351,-0.00336,-0.02213,-0.01572,-0.00732,-0.00092,-0.03525,-0.01572,0.01022,0.00412
10.405,-0.0029,-0.0386,-0.01129,-0.17365,0.00504,-0.0351,-0.03357,-0.00198,-0.02106,-0.01495,-0.009,-0.00122,-0.03052,-0.01572,-0.00275,-0.01099
10.4055,0.00107,-0.03174,-0.00168,-0.17639,0.00198,-0.03525,-0.03143,-0.00305,-0.02045,-0.01389,-0.00839,-0.00275,-0.0267,-0.01587,-0.02426,-0.03754
10.406,0.00275,-0.03021,0.02121,-0.17517,0.0032,-0.03525,-0.03052,-0.00504,-0.01953,-0.01541,-0.0029,-0.00473,-0.02487,-0.01343,-0.04578,-0.06165
10.4065,0.00122,-0.0267,0.05325,-0.1619,0.00671,-0.03677,-0.03052,-0.0061,-0.01801,-0.01678,0.01678,-0.00595,-0.02167,-0.00992,-0.05569,-0.07294
10.407,-0.00092,-0.02258,0.07538,-0.14664,0.00977,-0.03967,-0.0293,-0.00488,-0.01663,-0.01572,0.04868,-0.00366,-0.01846,-0.00778,-0.04837,-0.06622
10.4075,-0.00122,-0.0206,0.08133,-0.14542,0.0116,-0.04333,-0.02579,-0.00214,-0.01495,-0.0148,0.07233,-0.00046,-0.01801,-0.00839,-0.03159,-0.04669
10.408,0.00122,-0.02396,0.08698,-0.15884,0.01205,-0.04593,-0.0209,-0.00061,-0.01404,-0.01587,0.06073,0.00107,-0.02213,-0.01236,-0.02304,-0.03128
10.4085,0.00305,-0.02853,0.10727,-0.18585,0.01022,-0.04837,-0.01907,0.0,-0.01404,-0.01907,0.01785,0.00061,-0.03113,-0.01526,-0.02518,-0.03357
10.409,0.00107,-0.02945,0.12772,-0.22049,0.00107,-0.05051,-0.01877,0.00168,-0.01511,-0.01862,-0.02121,0.00015,-0.03784,-0.0177,-0.01694,-0.05096
10.4095,-0.00381,-0.02548,0.12177,-0.23041,-0.01587,-0.05356,-0.01984,0.00259,-0.01465,-0.01129,-0.03555,0.00214,-0.03952,-0.01938,0.01801,-0.07019
10.41,-0.01053,-0.01938,0.08545,-0.18127,-0.03723,-0.05569,-0.02106,0.00137,-0.01282,0.00198,-0.03052,0.00458,-0.03677,-0.02029,0.06058,-0.08102
10.4105,-0.0174,-0.01526,0.0441,-0.10559,-0.04807,-0.05829,-0.02274,-0.00015,-0.01114,0.01877,-0.02289,0.0061,-0.03616,-0.02106,0.06592,-0.08179
10.411,-0.02258,-0.01572,0.01465,-0.07401,-0.04318,-0.05997,-0.02411,-0.00137,-0.01083,0.02701,-0.01968,0.00488,-0.03922,-0.02243,0.01053,-0.07523
10.4115,-0.02563,-0.01694,-0.00504,-0.09186,-0.03021,-0.05875,-0.02258,-0.00137,-0.009,0.02274,-0.02121,0.00214,-0.04593,-0.02335,-0.06195,-0.06134
10.412,-0.02838,-0.01404,-0.01831,-0.09323,-0.02975,-0.05829,-0.0206,-0.00137,-0.00656,0.00824,-0.02472,-0.00031,-0.05341,-0.0238,-0.08942,-0.04883
10.4125,-0.02975,-0.00809,-0.02548,-0.04684,-0.047,-0.0589,-0.01892,-0.00244,-0.0058,-0.00931,-0.02838,-0.00092,-0.05692,-0.02426,-0.05417,-0.04196
10.413,-0.02838,-0.00671,-0.02258,0.00488,-0.06516,-0.06088,-0.01862,-0.00397,-0.00839,-0.02289,-0.0296,0.00092,-0.05569,-0.02563,0.0,-0.04074
10.4135,-0.02579,-0.00961,-0.01297,0.03967,-0.07126,-0.06287,-0.01831,-0.00534,-0.01343,-0.0322,-0.0293,0.00427,-0.05096,-0.02609,0.01846,-0.04181
10.414,-0.02365,-0.01434,0.00168,0.09689,-0.06836,-0.06363,-0.01877,-0.00671,-0.0177,-0.03891,-0.03021,0.00565,-0.04715,-0.02487,-0.00015,-0.04578
10.4145,-0.02396,-0.01419,0.02106,0.19852,-0.06653,-0.06561,-0.01953,-0.00732,-0.01556,-0.0441,-0.0325,0.0058,-0.04456,-0.02121,-0.02472,-0.05203
10.415,-0.02441,-0.00351,0.05142,0.29037,-0.06516,-0.0676,-0.0206,-0.00732,-0.00931,-0.04623,-0.03708,0.00275,-0.04288,-0.01831,-0.01923,-0.05096
10.4155,-0.02167,0.01312,0.08942,0.29755,-0.0676,-0.06561,-0.02182,-0.00809,-0.00305,-0.04669,-0.03967,0.00031,-0.04272,-0.01709,0.02457,-0.0325
10.416,-0.01755,0.02182,0.11871,0.21133,-0.07538,-0.06287,-0.02167,-0.00702,0.00168,-0.04456,-0.03906,0.00153,-0.04227,-0.01663,0.08148,-0.00519
10.4165,-0.01419,0.00427,0.11673,0.09277,-0.09232,-0.05951,-0.02136,-0.00519,0.00687,-0.03967,-0.03647,0.00504,-0.03784,-0.01373,0.1033,0.0061
10.417,-0.01099,-0.04105,0.08759,0.02701,-0.11261,-0.05798,-0.01968,-0.00168,0.01251,-0.03403,-0.03387,0.0061,-0.0296,-0.00961,0.07843,-0.0058
10.4175,-0.00717,-0.09399,0.05875,0.0589,-0.11856,-0.05569,-0.0174,0.00076,0.0174,-0.02899,-0.03052,0.00427,-0.02151,-0.00824,0.04211,-0.02563
10.418,-0.00244,-0.13,0.05096,0.16144,-0.1033,-0.05096,-0.01419,0.00198,0.02014,-0.02823,-0.02518,0.00137,-0.01877,-0.01007,0.02716,-0.03387
10.4185,0.0,-0.13397,0.05539,0.25833,-0.07401,-0.04761,-0.01358,0.00305,0.02106,-0.03036,-0.01877,-0.00046,-0.02289,-0.01358,0.03006,-0.0322
10.419,-0.00183,-0.11383,0.0528,0.28992,-0.04654,-0.04379,-0.0145,0.00351,0.01968,-0.03159,-0.01221,-0.00153,-0.0238,-0.01587,0.03174,-0.03281
10.4195,-0.0058,-0.08377,0.04227,0.25543,-0.03082,-0.04333,-0.01556,0.0029,0.0174,-0.0322,-0.00504,-0.00107,-0.01953,-0.01541,0.03082,-0.03738
10.42,-0.00854,-0.0592,0.0325,0.19943,-0.02686,-0.0441,-0.01572,0.00153,0.01053,-0.02991,0.00183,-0.00168,-0.01358,-0.01373,0.02884,-0.04196
10.4205,-0.00839,-0.04272,0.03281,0.16724,-0.02701,-0.04364,-0.01511,0.00107,0.00031,-0.02655,0.00809,-0.00229,-0.01358,-0.01419,0.02686,-0.04181
10.421,-0.00793,-0.0293,0.03983,0.17014,-0.02411,-0.04532,-0.01434,0.00092,-0.00992,-0.02136,0.01129,-0.00305,-0.01999,-0.0174,0.02487,-0.03952
10.4215,-0.00748,-0.01907,0.04944,0.19363,-0.02304,-0.04349,-0.01465,0.00076,-0.01617,-0.01572,0.01053,-0.00366,-0.02945,-0.01923,0.0264,-0.03799
10.422,-0.00717,-0.0116,0.05661,0.21408,-0.02319,-0.04227,-0.01495,0.00092,-0.01755,-0.009,0.0061,-0.00366,-0.03586,-0.01831,0.02747,-0.0383
10.4225,-0.00793,-0.00778,0.06256,0.22064,-0.02289,-0.04288,-0.01526,0.00214,-0.01434,-0.00534,-0.00259,-0.00473,-0.03967,-0.01465,0.02151,-0.03998
10.423,-0.00977,-0.0058,0.06561,0.22476,-0.01617,-0.04395,-0.01495,0.00305,-0.00946,-0.009,-0.0145,-0.00549,-0.04135,-0.01236,0.01266,-0.04211
10.4235,-0.01297,-0.00519,0.06409,0.2272,-0.00244,-0.04547,-0.0148,0.00183,-0.00443,-0.01953,-0.02792,-0.00656,-0.04135,-0.01129,0.0119,-0.04364
10.424,-0.0145,-0.00671,0.05768,0.21118,0.01053,-0.04593,-0.01511,0.0,-0.00244,-0.03326,-0.03616,-0.00656,-0.03937,-0.0119,0.01709,-0.04318
10.4245,-0.01511,-0.00885,0.05203,0.18066,0.0206,-0.04868,-0.01602,0.00031,-0.00214,-0.0441,-0.03571,-0.00671,-0.03662,-0.01221,0.01633,-0.0415
10.425,-0.01663,-0.00885,0.04913,0.16281,0.02792,-0.05325,-0.01633,0.00183,-0.00275,-0.04761,-0.02899,-0.00793,-0.03418,-0.01297,0.00748,-0.03876
10.4255,-0.01846,-0.00473,0.04791,0.17075,0.03708,-0.06042,-0.01633,0.00168,-0.00214,-0.0383,-0.02441,-0.00931,-0.03357,-0.01419,0.00336,-0.03632
10.426,-0.01968,-0.00031,0.04608,0.18845,0.04227,-0.06454,-0.01633,0.0,0.00061,-0.01846,-0.0264,-0.01022,-0.03296,-0.01831,0.00671,-0.03448
10.4265,-0.01907,0.00229,0.03891,0.2095,0.03525,-0.06958,-0.01678,-0.00168,0.00229,-0.0032,-0.03403,-0.01022,-0.03296,-0.02365,0.01343,-0.03372
10.427,-0.01694,0.00381,0.0325,0.2478,0.02304,-0.07339,-0.01678,-0.00229,0.00076,-0.01053,-0.04013,-0.01007,-0.03387,-0.03098,0.01678,-0.03281
10.4275,-0.01373,0.00534,0.03647,0.30121,0.01892,-0.07629,-0.01602,-0.00168,-0.00153,-0.0351,-0.04364,-0.0087,-0.03845,-0.0383,0.01694,-0.03067
10.428,-0.00885,0.00931,0.0528,0.33691,0.02762,-0.07736,-0.01495,-0.00229,-0.00229,-0.05402,-0.04288,-0.00748,-0.04272,-0.04379,0.01968,-0.02884
10.4285,-0.00366,0.00961,0.05783,0.33096,0.03281,-0.0766,-0.01389,-0.00259,-0.00168,-0.05951,-0.04013,-0.00671,-0.04242,-0.04501,0.02167,-0.03159
10.429,0.00198,0.0032,0.03204,0.2977,0.02167,-0.07278,-0.01251,-0.0032,-0.0029,-0.05783,-0.0383,-0.00626,-0.03952,-0.04257,0.01968,-0.03891
10.4295,0.00793,-0.00717,-0.00946,0.2655,0.00122,-0.06821,-0.0116,-0.00259,-0.00748,-0.0621,-0.03891,-0.00717,-0.03662,-0.03998,0.01373,-0.04654
10.43,0.01404,-0.01709,-0.03967,0.24063,-0.01282,-0.06317,-0.01068,-0.0029,-0.01358,-0.07034,-0.04242,-0.00687,-0.03311,-0.03754,0.0087,-0.05081
10.4305,0.01694,-0.02396,-0.05371,0.21698,-0.01862,-0.05997,-0.00961,-0.00397,-0.01785,-0.07629,-0.04288,-0.00671,-0.02502,-0.03235,0.00717,-0.05188
10.431,0.01816,-0.02808,-0.07843,0.2005,-0.02274,-0.05905,-0.00854,-0.0029,-0.0177,-0.07538,-0.03952,-0.00504,-0.01389,-0.02167,0.00687,-0.05173
10.4315,0.01846,-0.03082,-0.12299,0.19867,-0.02594,-0.05997,-0.00793,-0.00183,-0.01511,-0.07248,-0.03342,-0.00275,-0.00687,-0.00931,0.00137,-0.047
10.432,0.01816,-0.03235,-0.17075,0.19943,-0.02777,-0.05768,-0.00961,-0.00244,-0.01419,-0.06897,-0.02914,-0.00092,-0.00595,-0.00259,-0.00977,-0.04013
10.4325,0.01816,-0.03098,-0.19806,0.18143,-0.03479,-0.05539,-0.01144,-0.00412,-0.01495,-0.06516,-0.02762,0.00031,-0.0058,-0.00229,-0.01816,-0.03632
10.433,0.01846,-0.03021,-0.20996,0.13977,-0.05722,-0.05325,-0.01297,-0.00412,-0.01465,-0.05829,-0.02823,0.00137,-0.00473,-0.0058,-0.01358,-0.03983
10.4335,0.02014,-0.03021,-0.21439,0.09003,-0.08469,-0.05112,-0.01297,-0.00183,-0.0148,-0.04745,-0.03021,0.00244,-0.00946,-0.01175,-0.00092,-0.0441
10.434,0.02243,-0.02823,-0.21072,0.04913,-0.0975,-0.04822,-0.0116,-0.00031,-0.01434,-0.03693,-0.03128,0.00183,-0.02457,-0.02045,0.01312,-0.04288
10.4345,0.02426,-0.02319,-0.19806,0.01999,-0.08835,-0.0444,-0.01068,-0.00107,-0.01465,-0.03555,-0.03021,0.00076,-0.04761,-0.02899,0.01968,-0.03983
10.435,0.02426,-0.0177,-0.17792,-0.01114,-0.07095,-0.03815,-0.00977,-0.00381,-0.01328,-0.04364,-0.02716,0.0,-0.07477,-0.03479,0.01465,-0.04333
10.4355,0.02213,-0.0174,-0.15991,-0.04791,-0.05783,-0.03143,-0.01022,-0.00656,-0.01205,-0.05569,-0.02197,-0.00229,-0.09827,-0.03601,0.00763,-0.05447
10.436,0.01816,-0.02136,-0.14801,-0.07782,-0.04852,-0.02563,-0.00961,-0.0087,-0.01129,-0.06927,-0.01526,-0.00244,-0.11215,-0.03616,0.00366,-0.05768
10.4365,0.01495,-0.02945,-0.14404,-0.08774,-0.0383,-0.02411,-0.00748,-0.01175,-0.01266,-0.08896,-0.00946,-0.00076,-0.11185,-0.03372,0.00793,-0.0473
10.437,0.01175,-0.04028,-0.14252,-0.08942,-0.03281,-0.02502,-0.00305,-0.01556,-0.01419,-0.10849,-0.00595,0.00015,-0.09583,-0.02625,0.01572,-0.03265
10.4375,0.00763,-0.05066,-0.14175,-0.09705,-0.03876,-0.02991,0.00153,-0.01907,-0.01358,-0.11353,-0.00366,-0.00076,-0.07294,-0.0148,0.0206,-0.02655
10.438,0.00275,-0.05539,-0.14435,-0.10681,-0.05005,-0.03464,0.00519,-0.02029,-0.01083,-0.09979,-0.00031,-0.00351,-0.05325,-0.00443,0.01755,-0.03281
10.4385,-0.00107,-0.05493,-0.15564,-0.10284,-0.05219,-0.03754,0.00549,-0.01984,-0.00809,-0.07568,0.00244,-0.00534,-0.04379,0.00092,0.01007,-0.04303
10.439,-0.00595,-0.05463,-0.17197,-0.07797,-0.03891,-0.03708,0.00443,-0.01938,-0.00885,-0.05005,0.00351,-0.00534,-0.04135,0.00259,0.00732,-0.05249
10.4395,-0.01236,-0.05768,-0.18448,-0.04257,-0.01617,-0.0354,0.00336,-0.01785,-0.01236,-0.03204,0.00397,-0.00519,-0.03891,0.00168,0.0087,-0.05615
10.44,-0.0206,-0.06088,-0.19012,-0.01007,0.00229,-0.03616,0.00397,-0.01541,-0.01663,-0.02823,0.0032,-0.00488,-0.03479,-0.00122,0.01343,-0.05264
10.4405,-0.02701,-0.06256,-0.19562,0.01236,0.01007,-0.04028,0.00504,-0.01297,-0.01923,-0.0386,0.00061,-0.00458,-0.0322,-0.00473,0.01663,-0.04562
10.441,-0.02701,-0.06119,-0.20691,0.0296,0.01297,-0.04272,0.00748,-0.01099,-0.02045,-0.05035,-0.00198,-0.00366,-0.03326,-0.009,0.01633,-0.04196
10.4415,-0.01862,-0.05859,-0.22186,0.04669,0.01785,-0.04242,0.01007,-0.00916,-0.02197,-0.05951,-0.0032,-0.0029,-0.03662,-0.01266,0.01175,-0.04333
10.442,-0.00519,-0.05432,-0.23605,0.05463,0.02701,-0.04028,0.01251,-0.00854,-0.0235,-0.06134,-0.00198,-0.00275,-0.0412,-0.01495,0.00717,-0.04303
10.4425,0.00961,-0.04807,-0.24704,0.0383,0.03418,-0.03891,0.01236,-0.00793,-0.02533,-0.05768,-0.00137,-0.00198,-0.04456,-0.01709,0.00626,-0.03616
10.443,0.02197,-0.03494,-0.24567,0.00336,0.03815,-0.03769,0.01068,-0.00885,-0.02625,-0.05157,-0.00198,-0.00122,-0.04562,-0.01877,0.00885,-0.0235
10.4435,0.02869,-0.01419,-0.21545,-0.01663,0.03632,-0.03754,0.00885,-0.01022,-0.02716,-0.04471,-0.00397,-0.00183,-0.0441,-0.01953,0.01022,-0.01022
10.444,0.03143,0.00992,-0.15259,0.00153,0.0264,-0.03937,0.00946,-0.01175,-0.02853,-0.04074,-0.00671,-0.00351,-0.04044,-0.02045,0.01129,-0.00137
10.4445,0.03159,0.02884,-0.10178,0.0441,0.00885,-0.04242,0.01099,-0.01114,-0.02914,-0.0386,-0.00931,-0.00443,-0.03555,-0.02167,0.01144,0.00214
10.445,0.03036,0.03372,-0.11887,0.08087,-0.01129,-0.04623,0.01175,-0.009,-0.02808,-0.03601,-0.00977,-0.00381,-0.03098,-0.02304,0.01083,-0.00336
10.4455,0.02975,0.02441,-0.19791,0.10071,-0.0325,-0.04898,0.0116,-0.00732,-0.02655,-0.03067,-0.01038,-0.00275,-0.02731,-0.02563,0.01083,-0.01678
10.446,0.03052,0.00244,-0.2832,0.09842,-0.05371,-0.05005,0.01175,-0.00671,-0.02533,-0.02701,-0.01236,-0.00122,-0.02533,-0.02853,0.01221,-0.03479
10.4465,0.03311,-0.02823,-0.33508,0.06226,-0.07309,-0.04944,0.01251,-0.00687,-0.02518,-0.02533,-0.01526,0.00061,-0.02411,-0.03036,0.01205,-0.05249
10.447,0.03494,-0.06638,-0.3566,-0.01846,-0.08286,-0.05005,0.01297,-0.00549,-0.02625,-0.02518,-0.0174,0.00183,-0.02335,-0.03052,0.00732,-0.07263
10.4475,0.0322,-0.10315,-0.36224,-0.12695,-0.07385,-0.05386,0.01434,-0.00366,-0.0264,-0.02426,-0.01785,0.0029,-0.02289,-0.02869,-0.00381,-0.09872
10.448,0.02472,-0.12878,-0.35568,-0.23193,-0.04425,-0.05829,0.01587,-0.00381,-0.02579,-0.02274,-0.01892,0.00275,-0.02029,-0.02579,-0.01236,-0.11902
10.4485,0.01663,-0.13702,-0.33051,-0.31006,-0.01831,-0.06042,0.01526,-0.00534,-0.02548,-0.02274,-0.01877,0.00198,-0.01572,-0.02396,-0.01495,-0.12283
10.449,0.01129,-0.13306,-0.28519,-0.35141,-0.02045,-0.06027,0.01434,-0.00778,-0.02518,-0.0267,-0.01633,0.00183,-0.00977,-0.02182,-0.01389,-0.11124
10.4495,0.00977,-0.12482,-0.23743,-0.36804,-0.047,-0.05783,0.0148,-0.00824,-0.02502,-0.03128,-0.0119,0.00504,-0.00458,-0.01968,-0.0148,-0.10223
10.45,0.01022,-0.11475,-0.20325,-0.37827,-0.07278,-0.05249,0.01541,-0.00809,-0.0238,-0.0354,-0.009,0.01068,0.00061,-0.01862,-0.01831,-0.10284
10.4505,0.00946,-0.10056,-0.18829,-0.39398,-0.08743,-0.04791,0.0145,-0.00885,-0.02258,-0.03586,-0.009,0.01495,0.00381,-0.01999,-0.02167,-0.09781
10.451,0.00641,-0.07767,-0.17929,-0.40375,-0.09674,-0.04532,0.01312,-0.009,-0.02151,-0.03067,-0.00992,0.01617,0.00656,-0.02228,-0.02731,-0.0708
10.4515,0.00412,-0.05219,-0.16663,-0.39917,-0.10056,-0.04364,0.01404,-0.00793,-0.01953,-0.01923,-0.00931,0.01709,0.00992,-0.0235,-0.02853,-0.03311
10.452,0.00381,-0.0386,-0.15137,-0.39291,-0.09583,-0.04044,0.01663,-0.00595,-0.01709,-0.00763,-0.00793,0.01831,0.01114,-0.02548,-0.01862,-0.01373
10.4525,0.0061,-0.04486,-0.13641,-0.40237,-0.08362,-0.03555,0.01755,-0.00488,-0.01495,-0.00031,-0.00992,0.01953,0.00793,-0.02823,-0.00259,-0.02045
10.453,0.00793,-0.06516,-0.12177,-0.41702,-0.07065,-0.02975,0.01541,-0.00656,-0.01511,0.0029,-0.0119,0.02106,0.00015,-0.03326,0.0087,-0.02869
10.4535,0.00778,-0.08377,-0.10483,-0.40878,-0.06577,-0.02441,0.01328,-0.00763,-0.01633,0.00549,-0.01221,0.02274,-0.01007,-0.03815,0.01251,-0.02014
10.454,0.00671,-0.08789,-0.08484,-0.35858,-0.06256,-0.01953,0.01175,-0.00626,-0.01831,0.00809,-0.01053,0.02335,-0.02075,-0.04105,0.01358,-0.00916
10.4545,0.00671,-0.08026,-0.05753,-0.27359,-0.05905,-0.01465,0.00977,-0.00366,-0.01862,0.01221,-0.00885,0.02289,-0.02991,-0.04074,0.01312,-0.01404
10.455,0.00793,-0.06775,-0.02167,-0.17517,-0.05402,-0.00946,0.00641,-0.0029,-0.01816,0.01907,-0.00793,0.02121,-0.03723,-0.03647,0.01083,-0.03067
10.4555,0.00916,-0.0563,0.0145,-0.09079,-0.04715,-0.00626,0.0029,-0.00397,-0.01694,0.03036,-0.00732,0.01953,-0.04242,-0.03113,0.00641,-0.04196
10.456,0.00717,-0.04593,0.04593,-0.03922,-0.03754,-0.00427,0.00107,-0.00458,-0.01526,0.04349,-0.00626,0.01923,-0.04501,-0.02716,0.00595,-0.04242
10.4565,0.00458,-0.03632,0.0708,-0.03021,-0.02563,-0.00473,0.00107,-0.00458,-0.0148,0.05859,-0.00488,0.01923,-0.04608,-0.02289,0.00793,-0.03525
10.457,0.00076,-0.02975,0.09293,-0.05127,-0.01343,-0.0087,0.00031,-0.00534,-0.01556,0.07156,-0.0029,0.01968,-0.04684,-0.01907,0.00916,-0.02716
10.4575,-0.00381,-0.02808,0.11383,-0.06775,-0.00168,-0.01419,-0.00107,-0.00626,-0.01556,0.07813,-0.00168,0.01907,-0.04562,-0.01633,0.00824,-0.01968
10.458,-0.00931,-0.0325,0.13046,-0.04745,0.00748,-0.01953,-0.00336,-0.00626,-0.01541,0.0766,-0.00168,0.01801,-0.03983,-0.01404,0.00839,-0.01755
10.4585,-0.01266,-0.03952,0.14069,-0.00061,0.01358,-0.02182,-0.00458,-0.00549,-0.01465,0.06927,-0.00229,0.0174,-0.03235,-0.01129,0.00854,-0.0209
10.459,-0.01373,-0.04501,0.14847,0.02747,0.01785,-0.02258,-0.0058,-0.00473,-0.01526,0.05676,-0.0032,0.01709,-0.02945,-0.00793,0.0087,-0.02777
10.4595,-0.01282,-0.04578,0.15549,0.01678,0.02167,-0.02426,-0.0061,-0.00458,-0.01709,0.04715,-0.00412,0.01816,-0.03204,-0.00641,0.009,-0.02884
10.46,-0.01266,-0.04547,0.15823,-0.01801,0.02548,-0.02808,-0.00534,-0.00366,-0.02014,0.04822,-0.00381,0.02014,-0.03571,-0.00763,0.00885,-0.02869
10.4605,-0.01358,-0.0473,0.16083,-0.06058,0.03067,-0.03143,-0.00717,-0.00198,-0.02243,0.05539,-0.00458,0.01968,-0.03647,-0.01053,0.00931,-0.03235
10.461,-0.01511,-0.04974,0.16266,-0.09918,0.03769,-0.03418,-0.0087,-0.00107,-0.02243,0.05829,-0.00519,0.01816,-0.03494,-0.01221,0.00916,-0.0441
10.4615,-0.01541,-0.05173,0.1683,-0.11932,0.04517,-0.03403,-0.00961,0.0,-0.02167,0.05051,-0.00458,0.01694,-0.03342,-0.01221,0.00946,-0.06226
10.462,-0.01266,-0.05173,0.17242,-0.11536,0.04959,-0.03342,-0.01053,-0.00153,-0.02151,0.03632,-0.0032,0.01617,-0.03311,-0.01251,0.00641,-0.07034
10.4625,-0.00778,-0.05371,0.17502,-0.09872,0.04791,-0.03616,-0.01282,-0.00168,-0.02487,0.02548,-0.00244,0.01572,-0.03387,-0.01404,0.00412,-0.05844
10.463,-0.00458,-0.05814,0.17548,-0.08942,0.03998,-0.04074,-0.01511,-0.00107,-0.0296,0.02014,-0.0029,0.01556,-0.03494,-0.01633,0.00488,-0.03708
10.4635,-0.00244,-0.05966,0.18219,-0.09628,0.02411,-0.04501,-0.01694,0.00031,-0.03372,0.0174,-0.00443,0.01526,-0.0383,-0.02014,0.00443,-0.02594
10.464,-0.00092,-0.05447,0.19119,-0.11902,0.0,-0.04501,-0.01801,0.0,-0.03555,0.01465,-0.00534,0.01404,-0.04059,-0.0235,0.00458,-0.03296
10.4645,-0.00015,-0.047,0.19852,-0.15259,-0.02716,-0.04349,-0.02045,-0.00153,-0.03403,0.01175,-0.00641,0.01373,-0.04059,-0.02502,0.0058,-0.04044
10.465,-0.00198,-0.04837,0.20172,-0.19806,-0.05173,-0.04486,-0.02335,-0.00275,-0.03174,0.0087,-0.00839,0.01343,-0.03952,-0.02472,0.00732,-0.04059
10.4655,-0.0061,-0.05997,0.20706,-0.24811,-0.07462,-0.04715,-0.02533,-0.00061,-0.03021,0.00626,-0.01205,0.01251,-0.03876,-0.02502,0.00839,-0.03876
10.466,-0.01022,-0.07156,0.21866,-0.29373,-0.09567,-0.04639,-0.02457,0.00397,-0.03067,0.00381,-0.0145,0.01099,-0.03845,-0.02808,0.00824,-0.03906
10.4665,-0.01266,-0.07492,0.23224,-0.32501,-0.11185,-0.04013,-0.02289,0.00809,-0.03174,0.00381,-0.01587,0.01007,-0.03754,-0.03021,0.00854,-0.04135
10.467,-0.01434,-0.07095,0.23972,-0.32501,-0.12482,-0.03174,-0.02426,0.00748,-0.03021,0.00381,-0.0177,0.00992,-0.03677,-0.03006,0.0087,-0.04242
10.4675,-0.01556,-0.06424,0.23483,-0.25101,-0.13687,-0.02441,-0.02594,0.0032,-0.02701,0.00336,-0.02029,0.01068,-0.03632,-0.0267,0.00793,-0.04211
10.468,-0.01663,-0.05646,0.21683,-0.06134,-0.1413,-0.02121,-0.0264,-0.00031,-0.02365,0.00122,-0.02289,0.01007,-0.03738,-0.02426,0.00885,-0.04166
10.4685,-0.01801,-0.05219,0.20584,0.21454,-0.13123,-0.01999,-0.02533,0.00061,-0.02167,-0.0029,-0.02396,0.00885,-0.03891,-0.02289,0.00702,-0.04166
10.469,-0.01984,-0.05219,0.20782,0.45151,-0.11353,-0.01846,-0.02457,0.00519,-0.01846,-0.00626,-0.02243,0.00793,-0.03815,-0.02167,0.00778,-0.04318
10.4695,-0.02014,-0.0528,0.21454,0.53726,-0.09521,-0.01389,-0.02609,0.00824,-0.0145,-0.00656,-0.01862,0.00732,-0.03494,-0.01816,0.01022,-0.04105
10.47,-0.01877,-0.04684,0.20203,0.48218,-0.08148,-0.00946,-0.02869,0.00656,-0.0119,-0.00443,-0.01419,0.00687,-0.03082,-0.01572,0.01221,-0.03983
10.4705,-0.01755,-0.03235,0.15808,0.37628,-0.07401,-0.00931,-0.03174,-0.00061,-0.01129,-0.00259,-0.01221,0.00687,-0.02747,-0.0148,0.00778,-0.04105
10.471,-0.01846,-0.01999,0.09781,0.25848,-0.06912,-0.01526,-0.03326,-0.00885,-0.01099,-0.00427,-0.01175,0.00641,-0.02548,-0.01556,0.00809,-0.04318
10.4715,-0.02182,-0.01694,0.03723,0.12085,-0.06134,-0.02167,-0.03479,-0.01755,-0.01099,-0.00824,-0.01236,0.00519,-0.02502,-0.01678,0.00626,-0.0444
10.472,-0.02441,-0.02014,-0.01022,-0.01434,-0.04532,-0.02396,-0.03616,-0.02487,-0.0116,-0.01022,-0.01083,0.00336,-0.02594,-0.01633,0.00702,-0.04456
10.4725,-0.02457,-0.02396,-0.04242,-0.09918,-0.02869,-0.02167,-0.03754,-0.03235,-0.01144,-0.00809,-0.01038,0.00244,-0.03082,-0.01678,0.00793,-0.04532
10.473,-0.02304,-0.02548,-0.0589,-0.12314,-0.02487,-0.02121,-0.0383,-0.03876,-0.01038,-0.00488,-0.01083,0.00351,-0.0383,-0.01877,0.00519,-0.04593
10.4735,-0.02151,-0.02731,-0.05661,-0.11154,-0.03876,-0.02411,-0.03983,-0.04288,-0.00824,-0.00183,-0.01144,0.00351,-0.04257,-0.02121,0.00244,-0.04486
10.474,-0.02167,-0.03067,-0.03326,-0.07935,-0.05844,-0.02823,-0.04074,-0.04364,-0.00763,0.00046,-0.0119,0.0029,-0.04044,-0.02289,-0.00015,-0.0444
10.4745,-0.02548,-0.03494,-0.00031,-0.02411,-0.065,-0.02975,-0.04059,-0.04044,-0.00916,0.009,-0.01099,0.00168,-0.03632,-0.02365,0.00107,-0.04303
10.475,-0.03387,-0.03998,0.03098,0.03677,-0.05295,-0.02914,-0.04013,-0.02914,-0.01129,0.03342,-0.01083,0.00107,-0.03494,-0.02304,0.0029,-0.04349
10.4755,-0.04364,-0.04623,0.04303,0.06088,-0.02884,-0.02899,-0.0386,-0.00443,-0.01221,0.07156,-0.01129,0.00214,-0.03571,-0.02106,0.00168,-0.04227
10.476,-0.05081,-0.05356,0.03967,0.02594,-0.0061,-0.02975,-0.03571,0.03036,-0.01266,0.09995,-0.0116,0.00259,-0.03357,-0.01907,0.00412,-0.0412
10.4765,-0.05142,-0.05905,0.02945,-0.04974,0.009,-0.03021,-0.03342,0.05844,-0.01282,0.09537,-0.01144,0.00244,-0.02518,-0.01755,0.00748,-0.04089
10.477,-0.04684,-0.06699,0.0206,-0.13367,0.0174,-0.02899,-0.03174,0.06592,-0.01419,0.07217,-0.00992,0.00168,-0.01099,-0.01633,0.01007,-0.04166
10.4775,-0.03891,-0.07568,0.01358,-0.20966,0.02197,-0.02457,-0.03128,0.05264,-0.01572,0.05539,-0.00809,-0.00015,0.00259,-0.01358,0.01053,-0.04364
10.478,-0.02914,-0.07736,0.00961,-0.26886,0.02533,-0.01968,-0.03082,0.03372,-0.01556,0.05508,-0.00687,-0.00198,0.00931,-0.01114,0.00946,-0.04471
10.4785,-0.01846,-0.06348,0.0061,-0.30655,0.03036,-0.01801,-0.03113,0.02167,-0.01526,0.06409,-0.00626,-0.00305,0.00595,-0.00931,0.00809,-0.04364
10.479,-0.0061,-0.04135,-0.00534,-0.33051,0.03311,-0.02136,-0.0325,0.01846,-0.01556,0.08835,-0.00595,-0.00427,-0.00458,-0.00809,0.00977,-0.04318
10.4795,0.00641,-0.03067,-0.02396,-0.35385,0.03326,-0.02716,-0.03433,0.01572,-0.01511,0.1413,-0.00641,-0.00504,-0.01541,-0.00748,0.01404,-0.04257
10.48,0.01602,-0.0383,-0.03815,-0.36026,0.03494,-0.03342,-0.03723,0.01038,-0.01358,0.19669,-0.00748,-0.00488,-0.02426,-0.00854,0.01724,-0.04135
10.4805,0.01984,-0.04654,-0.03952,-0.3183,0.03464,-0.04059,-0.03906,0.00443,-0.01251,0.2002,-0.00824,-0.00351,-0.03387,-0.01236,0.01633,-0.03998
10.481,0.01877,-0.04211,-0.02808,-0.23163,0.02975,-0.04684,-0.0386,0.00015,-0.0145,0.14297,-0.009,-0.00229,-0.04593,-0.01938,0.01663,-0.03922
10.4815,0.01617,-0.03021,-0.0119,-0.15045,0.02411,-0.05295,-0.03479,-0.00412,-0.01785,0.07675,-0.00977,-0.00183,-0.05371,-0.02594,0.01602,-0.04074
10.482,0.01526,-0.02716,0.0061,-0.11688,0.02106,-0.05722,-0.03113,-0.01068,-0.02014,0.047,-0.01007,-0.00214,-0.05402,-0.02884,0.01556,-0.04227
10.4825,0.01831,-0.03677,0.03601,-0.11749,0.02106,-0.06149,-0.0293,-0.01907,-0.02106,0.04074,-0.01038,-0.00244,-0.05035,-0.02441,0.01602,-0.04227
10.483,0.02365,-0.04974,0.06256,-0.11017,0.02396,-0.06332,-0.02823,-0.02884,-0.02167,0.03189,-0.00931,-0.00244,-0.04745,-0.01755,0.0177,-0.04105
10.4835,0.0264,-0.05676,0.05798,-0.08209,0.0267,-0.065,-0.02518,-0.03784,-0.02319,0.01572,-0.00839,-0.00275,-0.04745,-0.01205,0.01892,-0.03983
10.484,0.02426,-0.05722,0.01663,-0.05676,0.0267,-0.06668,-0.0235,-0.0412,-0.02518,0.0058,-0.009,-0.00244,-0.04547,-0.00854,0.01785,-0.03998
10.4845,0.01907,-0.04837,-0.0351,-0.06042,0.02365,-0.06897,-0.0238,-0.02731,-0.02625,0.00076,-0.01114,-0.00137,-0.04044,-0.0087,0.01785,-0.04105
10.485,0.0145,-0.03052,-0.07462,-0.08224,0.02014,-0.07187,-0.02487,0.01114,-0.02655,-0.00549,-0.01205,-0.00076,-0.03387,-0.00854,0.01556,-0.04196
10.4855,0.01053,-0.01495,-0.1001,-0.09521,0.01846,-0.07385,-0.02396,0.05447,-0.02594,-0.0145,-0.01129,-0.00076,-0.02945,-0.00931,0.01373,-0.04318
10.486,0.00717,-0.01495,-0.11871,-0.08728,0.01648,-0.07523,-0.0206,0.06714,-0.02609,-0.02151,-0.01114,-0.00107,-0.02792,-0.00931,0.01358,-0.04395
10.4865,0.00473,-0.02899,-0.13672,-0.07172,0.01236,-0.07446,-0.01846,0.03906,-0.02777,-0.02594,-0.01144,-0.00198,-0.02777,-0.00946,0.01144,-0.04333
10.487,0.00565,-0.04486,-0.1535,-0.05997,0.00931,-0.07477,-0.01602,0.00031,-0.03113,-0.02914,-0.01205,-0.00137,-0.0296,-0.01114,0.01236,-0.0412
10.4875,0.01099,-0.05676,-0.16418,-0.04898,0.0087,-0.07568,-0.01587,-0.01404,-0.03265,-0.0322,-0.01221,-0.00244,-0.03448,-0.01572,0.01434,-0.03952
10.488,0.01648,-0.07385,-0.16449,-0.03311,0.01312,-0.07797,-0.01373,-0.00656,-0.03296,-0.0322,-0.0119,-0.00351,-0.03998,-0.02075,0.01358,-0.03922
10.4885,0.02274,-0.10101,-0.1532,-0.01404,0.02151,-0.07782,-0.01266,0.00229,-0.03403,-0.03082,-0.01144,-0.00366,-0.04227,-0.02151,0.01633,-0.03983
10.489,0.0293,-0.12146,-0.13031,0.00397,0.02838,-0.07568,-0.01389,0.00183,-0.03479,-0.03021,-0.01144,-0.00412,-0.0386,-0.01633,0.01358,-0.04044
10.4895,0.03555,-0.11566,-0.09933,0.02197,0.0325,-0.07172,-0.01587,-0.00214,-0.03418,-0.02991,-0.01221,-0.00443,-0.03235,-0.00992,0.01266,-0.03983
10.49,0.04074,-0.08621,-0.06302,0.0444,0.03555,-0.06912,-0.01556,-0.0029,-0.03296,-0.02808,-0.01266,-0.00473,-0.02808,-0.00702,0.01419,-0.03906
10.4905,0.04395,-0.05402,-0.02304,0.0705,0.03464,-0.06973,-0.01266,-0.00076,-0.0322,-0.02594,-0.01312,-0.00504,-0.03036,-0.00931,0.01495,-0.03937
10.491,0.04654,-0.03464,0.03159,0.09445,0.0264,-0.07324,-0.01144,0.00092,-0.0322,-0.02289,-0.0145,-0.00488,-0.03845,-0.0148,0.01617,-0.03876
10.4915,0.04929,-0.02579,0.11566,0.11078,0.01602,-0.07767,-0.01312,0.00137,-0.03265,-0.0206,-0.01526,-0.00366,-0.04486,-0.01984,0.01801,-0.03876
10.492,0.04974,-0.02045,0.22415,0.11963,-0.00351,-0.0824,-0.01572,-0.00015,-0.03418,-0.01938,-0.01617,-0.00214,-0.04471,-0.02258,0.01862,-0.03998
10.4925,0.0473,-0.0148,0.31006,0.12604,-0.03067,-0.08698,-0.01724,-0.00275,-0.03525,-0.01862,-0.01587,-0.00061,-0.04044,-0.02472,0.01556,-0.0415
10.493,0.0444,-0.00748,0.32181,0.1329,-0.06546,-0.08957,-0.01801,-0.00412,-0.03571,-0.0177,-0.01541,0.00092,-0.03754,-0.02625,0.01282,-0.04166
10.4935,0.04166,-0.00153,0.26642,0.13977,-0.09293,-0.09064,-0.01938,-0.0029,-0.03677,-0.01526,-0.01541,0.00275,-0.03693,-0.02579,0.01266,-0.04028
10.494,0.0386,-0.00122,0.19211,0.14175,-0.10223,-0.0914,-0.02029,-0.00107,-0.0386,-0.0119,-0.01495,0.00412,-0.03647,-0.02365,0.0116,-0.0386
10.4945,0.03296,-0.01526,0.15732,0.1384,-0.09201,-0.08957,-0.02197,-0.00031,-0.04074,-0.00946,-0.0145,0.00458,-0.03601,-0.02106,0.01343,-0.03922
10.495,0.02838,-0.04486,0.17715,0.13351,-0.07523,-0.08377,-0.02258,-0.00015,-0.03967,-0.00641,-0.01419,0.00366,-0.03723,-0.01907,0.01404,-0.03983
10.4955,0.0267,-0.07523,0.22873,0.13046,-0.06393,-0.07629,-0.02289,-0.00183,-0.03769,-0.0029,-0.01587,0.00336,-0.04105,-0.01694,0.01114,-0.04013
10.496,0.0264,-0.0882,0.27725,0.12527,-0.06073,-0.06927,-0.02258,-0.00275,-0.03738,-0.00092,-0.01724,0.00412,-0.04379,-0.01312,0.01297,-0.04089
10.4965,0.02411,-0.07904,0.29572,0.11063,-0.06393,-0.06439,-0.02197,-0.00229,-0.03922,0.00305,-0.01755,0.00443,-0.04547,-0.00671,0.01572,-0.04211
10.497,0.0209,-0.05997,0.28152,0.08987,-0.0676,-0.05951,-0.02151,-0.00198,-0.04044,0.00717,-0.01663,0.00351,-0.04684,-0.00061,0.01694,-0.04211
10.4975,0.01892,-0.04303,0.2623,0.07721,-0.07385,-0.05508,-0.02075,-0.00214,-0.04028,0.01205,-0.01526,0.00275,-0.04776,0.00092,0.0148,-0.04227
10.498,0.01816,-0.03235,0.2449,0.08286,-0.07538,-0.05234,-0.02075,-0.0029,-0.03891,0.01923,-0.01282,0.00183,-0.04501,-0.00092,0.0119,-0.04181
10.4985,0.01892,-0.03052,0.21317,0.10452,-0.07172,-0.0531,-0.01999,-0.0029,-0.03906,0.02731,-0.01007,0.00137,-0.04013,-0.00397,0.01221,-0.04105
10.499,0.01846,-0.03815,0.15289,0.12558,-0.06989,-0.05493,-0.02029,-0.00092,-0.04166,0.03525,-0.00641,0.00076,-0.03815,-0.00717,0.01495,-0.04135
10.4995,0.01892,-0.04837,0.07568,0.13458,-0.06638,-0.05447,-0.02151,0.00214,-0.0444,0.03723,-0.00473,0.00092,-0.04089,-0.01007,0.01465,-0.04135
10.5,0.01724,-0.05295,-0.00168,0.13474,-0.06607,-0.0528,-0.02167,0.00183,-0.04639,0.0325,-0.00473,0.00107,-0.04349,-0.0116,0.01328,-0.04059
10.5005,0.01648,-0.05615,-0.05936,0.13306,-0.06561,-0.0502,-0.0206,-0.00259,-0.04684,0.02396,-0.00671,0.00092,-0.04181,-0.01251,0.01434,-0.03922
10.501,0.01678,-0.06561,-0.09415,0.13458,-0.06577,-0.04974,-0.01907,-0.00824,-0.04608,0.01877,-0.00946,-0.00046,-0.03815,-0.01251,0.0119,-0.03845
10.5015,0.01816,-0.07919,-0.10376,0.14099,-0.06577,-0.05066,-0.01831,-0.01312,-0.04517,0.01663,-0.01251,-0.00168,-0.03662,-0.01266,0.01175,-0.03952
10.502,0.01633,-0.09537,-0.09201,0.14618,-0.0621,-0.05142,-0.01953,-0.01984,-0.04318,0.01511,-0.01419,-0.00107,-0.03784,-0.01358,0.01175,-0.04074
10.5025,0.01007,-0.12375,-0.08652,0.14404,-0.05829,-0.05173,-0.02182,-0.03067,-0.04257,0.01282,-0.01465,0.00015,-0.0383,-0.01404,0.01007,-0.04044
10.503,0.00122,-0.16678,-0.11597,0.13611,-0.05142,-0.05203,-0.0235,-0.04196,-0.04532,0.01236,-0.01434,0.00076,-0.03769,-0.01465,0.00885,-0.03906
10.5035,-0.00763,-0.19958,-0.17654,0.13199,-0.04608,-0.05203,-0.02411,-0.04791,-0.04959,0.01312,-0.01572,0.00137,-0.03662,-0.01587,0.00778,-0.03845
10.504,-0.01495,-0.1886,-0.24231,0.14023,-0.03876,-0.05157,-0.02426,-0.04395,-0.05142,0.01465,-0.0174,0.00076,-0.03601,-0.01831,0.00671,-0.03738
10.5045,-0.02014,-0.13657,-0.28671,0.15717,-0.02747,-0.05157,-0.02533,-0.03067,-0.05096,0.01526,-0.01816,0.00015,-0.03403,-0.02045,0.00351,-0.0383
10.505,-0.02258,-0.07904,-0.31204,0.17105,-0.02045,-0.05173,-0.02396,-0.0145,-0.04868,0.01663,-0.01907,-0.00107,-0.0322,-0.01999,0.00412,-0.0386
10.5055,-0.02335,-0.04517,-0.32562,0.17151,-0.02014,-0.05249,-0.02319,-0.00168,-0.0473,0.01724,-0.02228,-0.00214,-0.02991,-0.01907,0.00031,-0.03876
10.506,-0.02396,-0.03433,-0.3241,0.16022,-0.03098,-0.05417,-0.02258,0.00244,-0.04669,0.01389,-0.02731,-0.0032,-0.02914,-0.02045,0.00107,-0.03845
10.5065,-0.02487,-0.0351,-0.30914,0.14587,-0.04501,-0.05508,-0.0238,0.00351,-0.04593,0.00244,-0.03296,-0.00336,-0.0296,-0.02258,0.00214,-0.03799
10.507,-0.02731,-0.04257,-0.28534,0.13565,-0.05966,-0.05463,-0.02533,0.00732,-0.0444,-0.01526,-0.03754,-0.00229,-0.03052,-0.02441,0.00092,-0.03967
10.5075,-0.03006,-0.0499,-0.24292,0.1326,-0.07813,-0.05264,-0.02655,0.01648,-0.04089,-0.03052,-0.04044,-0.00168,-0.03204,-0.02502,-0.00031,-0.04349
10.508,-0.03296,-0.04654,-0.18234,0.13443,-0.10605,-0.04913,-0.02563,0.02106,-0.0383,-0.03754,-0.04135,-0.00198,-0.03372,-0.02411,-0.00198,-0.04532
10.5085,-0.03433,-0.02991,-0.14404,0.13351,-0.13123,-0.04486,-0.02502,0.01373,-0.03632,-0.03876,-0.03906,-0.00366,-0.03433,-0.0238,-0.00031,-0.04547
10.509,-0.03525,-0.0116,-0.17822,0.12909,-0.13992,-0.04242,-0.02518,-0.00031,-0.03586,-0.03677,-0.03433,-0.00397,-0.03235,-0.02197,-0.00015,-0.0444
10.5095,-0.03525,-0.00214,-0.27664,0.11993,-0.13489,-0.04333,-0.02731,-0.0116,-0.03571,-0.03357,-0.02731,-0.0032,-0.02884,-0.01923,0.00046,-0.04288
10.51,-0.03616,-0.00259,-0.37567,0.10742,-0.12436,-0.04669,-0.02869,-0.0148,-0.03448,-0.02701,-0.02243,-0.00153,-0.02487,-0.01724,0.00244,-0.04059
10.5105,-0.0386,-0.00793,-0.42404,0.0943,-0.11383,-0.05081,-0.03036,-0.01251,-0.03357,-0.01999,-0.02136,-0.0029,-0.02197,-0.01801,0.00305,-0.03922
10.511,-0.04272,-0.01389,-0.42862,0.08636,-0.10422,-0.056,-0.03113,-0.01022,-0.03311,-0.01556,-0.02045,-0.0061,-0.02014,-0.01862,0.00076,-0.04028
10.5115,-0.047,-0.01923,-0.41336,0.08087,-0.09872,-0.0592,-0.03067,-0.00565,-0.03326,-0.01511,-0.01907,-0.00809,-0.01923,-0.01801,-0.00092,-0.04196
10.512,-0.04944,-0.02396,-0.39169,0.07339,-0.09445,-0.06027,-0.03082,0.00015,-0.03433,-0.0145,-0.01617,-0.00824,-0.01877,-0.01816,0.00122,-0.0444
10.5125,-0.04868,-0.02762,-0.36713,0.06165,-0.09155,-0.06073,-0.02899,0.00656,-0.03571,-0.01129,-0.01495,-0.00732,-0.01816,-0.02014,-0.00092,-0.04547
10.513,-0.04578,-0.0296,-0.34897,0.04791,-0.08652,-0.05981,-0.0267,0.0119,-0.03632,-0.00717,-0.01465,-0.00717,-0.01831,-0.02228,-0.0032,-0.04395
10.5135,-0.04105,-0.03189,-0.33997,0.03937,-0.08286,-0.06027,-0.02518,0.01297,-0.03677,-0.00458,-0.01511,-0.00824,-0.01984,-0.02487,-0.00488,-0.04333
10.514,-0.03632,-0.03662,-0.33691,0.04028,-0.08209,-0.06302,-0.02441,0.0087,-0.03708,-0.00351,-0.01434,-0.00885,-0.02335,-0.02625,-0.0058,-0.04318
10.5145,-0.03265,-0.03998,-0.32471,0.04852,-0.07797,-0.0679,-0.02365,-0.00046,-0.03784,-0.00305,-0.01343,-0.00778,-0.02655,-0.02716,-0.00565,-0.04395
10.515,-0.02975,-0.04044,-0.3064,0.0589,-0.06912,-0.06943,-0.02335,-0.00977,-0.03708,-0.0032,-0.01251,-0.00671,-0.02975,-0.02731,-0.00534,-0.04395
10.5155,-0.02716,-0.03662,-0.28824,0.06317,-0.0589,-0.06821,-0.02426,-0.01694,-0.03586,-0.00275,-0.01251,-0.00687,-0.03296,-0.02686,-0.00687,-0.04211
10.516,-0.02487,-0.03159,-0.27176,0.05905,-0.05386,-0.06577,-0.02533,-0.02197,-0.0351,-0.00153,-0.01205,-0.00717,-0.03693,-0.02655,-0.00809,-0.03998
10.5165,-0.02136,-0.02533,-0.25085,0.05188,-0.05447,-0.06699,-0.02579,-0.02808,-0.0354,0.00168,-0.01221,-0.0061,-0.03983,-0.02609,-0.00824,-0.03952
10.517,-0.01709,-0.02136,-0.23193,0.04761,-0.0621,-0.07019,-0.02502,-0.03448,-0.03754,0.00214,-0.01083,-0.00671,-0.03967,-0.02533,-0.00977,-0.04135
10.5175,-0.01404,-0.02045,-0.22095,0.047,-0.07004,-0.07187,-0.02441,-0.03723,-0.03937,0.00076,-0.01083,-0.00702,-0.03738,-0.02319,-0.00931,-0.04395
10.518,-0.0148,-0.02014,-0.21286,0.04791,-0.07507,-0.07019,-0.02472,-0.03525,-0.04013,0.00137,-0.01022,-0.00717,-0.0351,-0.02121,-0.00809,-0.04562
10.5185,-0.02167,-0.01862,-0.19333,0.04776,-0.07553,-0.06851,-0.02472,-0.03265,-0.03922,0.0032,-0.00916,-0.00671,-0.03525,-0.02167,-0.00626,-0.04684
10.519,-0.03281,-0.01495,-0.15793,0.04822,-0.07156,-0.06958,-0.02487,-0.02762,-0.03677,0.00717,-0.00809,-0.00656,-0.0354,-0.02258,-0.009,-0.04883
10.5195,-0.04364,-0.01068,-0.11887,0.05005,-0.06241,-0.07523,-0.02502,-0.01465,-0.0351,0.01419,-0.00732,-0.00671,-0.03372,-0.02243,-0.00809,-0.0502
10.52,-0.05203,-0.00595,-0.09628,0.0502,-0.05371,-0.08072,-0.02426,0.00351,-0.03464,0.02426,-0.00687,-0.00702,-0.03342,-0.02106,-0.00702,-0.04822
10.5205,-0.05539,-0.0029,-0.09964,0.04425,-0.04471,-0.08469,-0.02228,0.01678,-0.03616,0.03387,-0.0058,-0.00687,-0.03433,-0.01923,-0.00595,-0.04501
10.521,-0.056,-0.00137,-0.11383,0.03784,-0.03769,-0.08484,-0.01984,0.02045,-0.03693,0.03799,-0.00443,-0.00565,-0.03647,-0.01724,-0.00443,-0.04257
10.5215,-0.056,-0.00275,-0.13092,0.03586,-0.0296,-0.08224,-0.01709,0.01862,-0.03601,0.03571,-0.00259,-0.00565,-0.03677,-0.01526,-0.00336,-0.04181
10.522,-0.05554,-0.00778,-0.1445,0.03372,-0.02182,-0.07965,-0.01495,0.01862,-0.03433,0.03204,-0.00244,-0.00641,-0.03494,-0.0148,-0.00351,-0.04166
10.5225,-0.056,-0.01465,-0.16144,0.0293,-0.01465,-0.07889,-0.01312,0.01953,-0.03387,0.03159,-0.00366,-0.00687,-0.03357,-0.01556,-0.0058,-0.04166
10.523,-0.05569,-0.02136,-0.18463,0.02594,-0.0087,-0.08072,-0.00916,0.01541,-0.03601,0.03143,-0.00427,-0.00717,-0.03464,-0.01511,-0.0061,-0.04181
10.5235,-0.05692,-0.02625,-0.21194,0.02594,-0.00366,-0.08133,-0.00504,0.00946,-0.0386,0.03052,-0.00504,-0.00702,-0.03693,-0.01511,-0.00458,-0.04166
10.524,-0.05585,-0.02777,-0.2388,0.02655,-0.00397,-0.08316,-0.00198,0.00763,-0.03845,0.02762,-0.0061,-0.00793,-0.03876,-0.01617,-0.00565,-0.04074
10.5245,-0.05585,-0.02411,-0.25467,0.02243,-0.00778,-0.08652,-0.0032,0.01114,-0.03662,0.0238,-0.00717,-0.00687,-0.03967,-0.0174,-0.00458,-0.04028
10.525,-0.05295,-0.01831,-0.26535,0.01404,-0.01007,-0.08896,-0.00732,0.01343,-0.03525,0.02258,-0.00839,-0.00641,-0.03906,-0.01846,-0.00458,-0.04059
10.5255,-0.04883,-0.01205,-0.27527,0.00229,-0.00885,-0.08835,-0.01144,0.0119,-0.0351,0.02136,-0.0087,-0.00687,-0.03784,-0.0177,-0.00351,-0.04135
10.526,-0.04501,-0.01068,-0.28854,-0.00549,-0.00381,-0.0856,-0.01419,0.00916,-0.03494,0.02014,-0.00809,-0.00717,-0.03723,-0.01572,-0.00214,-0.04333
10.5265,-0.04044,-0.01373,-0.30624,-0.0058,0.00122,-0.08392,-0.0119,0.01007,-0.03281,0.01755,-0.00839,-0.0061,-0.03571,-0.01282,0.0,-0.04471
10.527,-0.03311,-0.01816,-0.32013,0.0,0.00229,-0.0856,-0.00595,0.00778,-0.03082,0.01328,-0.00916,-0.00549,-0.03235,-0.01099,-0.00046,-0.04532
10.5275,-0.02457,-0.01129,-0.32532,0.00641,0.00336,-0.0882,-0.00107,-0.00183,-0.02975,0.00763,-0.01114,-0.00443,-0.02609,-0.01007,-0.00046,-0.04395
10.528,-0.01617,0.01511,-0.32898,0.00961,0.00671,-0.08789,0.00122,-0.01846,-0.02945,0.00031,-0.01434,-0.00381,-0.01724,-0.01007,-0.00107,-0.04318
10.5285,-0.01038,0.04883,-0.33508,0.01022,0.01465,-0.08331,0.00183,-0.03662,-0.02792,-0.00732,-0.01617,-0.00366,-0.00961,-0.01099,-0.00015,-0.04364
10.529,-0.0058,0.0618,-0.34164,0.00671,0.02258,-0.07889,0.00168,-0.05844,-0.02609,-0.01648,-0.01572,-0.00336,-0.00626,-0.01251,0.00107,-0.04501
10.5295,0.00092,0.04807,-0.34164,-0.00092,0.02182,-0.07523,0.00076,-0.08438,-0.02274,-0.02243,-0.01373,-0.0029,-0.00961,-0.01541,0.00458,-0.04425
10.53,0.009,0.03494,-0.33203,-0.01129,0.00961,-0.07294,0.0,-0.11108,-0.01999,-0.02792,-0.01144,-0.00244,-0.01801,-0.01907,0.00824,-0.0415
10.5305,0.01266,0.04272,-0.30792,-0.01846,-0.00702,-0.07141,-0.00015,-0.12009,-0.01907,-0.03448,-0.01068,-0.00229,-0.02747,-0.02441,0.00641,-0.04074
10.531,0.01022,0.05371,-0.27328,-0.02197,-0.01877,-0.07187,0.00412,-0.10788,-0.01953,-0.04395,-0.01129,-0.0029,-0.03815,-0.0296,0.00519,-0.04181
10.5315,0.00458,0.0354,-0.23254,-0.02075,-0.01999,-0.07278,0.00961,-0.09262,-0.01862,-0.05417,-0.0119,-0.00244,-0.04929,-0.03326,0.00763,-0.04196
10.532,0.00046,-0.01556,-0.19363,-0.01221,-0.01602,-0.07233,0.00885,-0.09598,-0.01663,-0.06241,-0.01129,-0.00168,-0.05844,-0.0354,0.00916,-0.04135
10.5325,-0.00336,-0.07324,-0.17014,0.00275,-0.01129,-0.06989,-0.00488,-0.1181,-0.01511,-0.06607,-0.01129,-0.00107,-0.06088,-0.03494,0.01038,-0.04074
10.533,-0.00839,-0.11337,-0.17487,0.01663,-0.00687,-0.06516,-0.02853,-0.14786,-0.01419,-0.06729,-0.01251,-0.00046,-0.05875,-0.03326,0.01266,-0.04135
10.5335,-0.01343,-0.13153,-0.19485,0.01892,-0.00168,-0.06119,-0.04944,-0.17365,-0.0119,-0.06729,-0.01297,-0.00015,-0.05981,-0.02823,0.01587,-0.04288
10.534,-0.01648,-0.13062,-0.20172,0.00961,0.00305,-0.05783,-0.05539,-0.17838,-0.00839,-0.06851,-0.01175,-0.00031,-0.06348,-0.02151,0.01312,-0.04318
10.5345,-0.01831,-0.11749,-0.18143,-0.00214,0.0058,-0.05646,-0.0499,-0.14389,-0.00427,-0.07095,-0.01129,0.00092,-0.06348,-0.01434,0.01404,-0.04196
10.535,-0.02213,-0.09857,-0.14526,-0.01144,0.00473,-0.05692,-0.04669,-0.07217,-0.00107,-0.07385,-0.01175,0.00183,-0.05463,-0.00885,0.01419,-0.04242
10.5355,-0.02853,-0.07797,-0.10895,-0.0177,0.0029,-0.05737,-0.05554,0.01175,0.00031,-0.07736,-0.01205,0.00214,-0.04501,-0.00946,0.01389,-0.04364
10.536,-0.03571,-0.05615,-0.0856,-0.02045,0.00351,-0.05844,-0.07248,0.07446,0.00137,-0.08133,-0.01236,0.00275,-0.0415,-0.01373,0.01358,-0.04501
10.5365,-0.03952,-0.03357,-0.06454,-0.01602,0.0058,-0.05737,-0.08438,0.11154,0.00214,-0.08514,-0.01175,0.00244,-0.04333,-0.01877,0.01389,-0.04333
10.537,-0.03754,-0.01144,-0.03586,-0.00702,0.00854,-0.05371,-0.07889,0.14938,0.0029,-0.08713,-0.01129,0.00381,-0.04425,-0.0209,0.01404,-0.0412
10.5375,-0.03067,0.00336,-0.00061,0.00198,0.00824,-0.05051,-0.04974,0.20935,0.00351,-0.08865,-0.0119,0.00565,-0.0412,-0.02151,0.01495,-0.04089
10.538,-0.02289,0.00275,0.03311,0.00671,0.00778,-0.04868,0.00565,0.26459,0.00458,-0.08728,-0.01266,0.00854,-0.03448,-0.02213,0.01419,-0.04227
10.5385,-0.01617,-0.01694,0.05875,0.00748,0.00656,-0.0473,0.07858,0.26413,0.0061,-0.08316,-0.01312,0.01251,-0.02426,-0.02121,0.01389,-0.04318
10.539,-0.00961,-0.04272,0.08286,0.00214,0.00595,-0.04715,0.14008,0.19958,0.00763,-0.07843,-0.01419,0.01526,-0.01266,-0.01953,0.01617,-0.04379
10.5395,-0.00305,-0.05615,0.12146,-0.00488,0.00641,-0.04654,0.15549,0.11703,0.0087,-0.07706,-0.01556,0.01923,-0.00412,-0.01907,0.01953,-0.04349
10.54,0.00443,-0.05081,0.1886,-0.01038,0.00565,-0.04379,0.12405,0.07004,0.01038,-0.08026,-0.01511,0.02274,-0.00244,-0.01984,0.02197,-0.0441
10.5405,0.01144,-0.03494,0.27969,-0.01221,0.00473,-0.03967,0.08469,0.06393,0.01236,-0.08392,-0.0145,0.02518,-0.00641,-0.02136,0.02289,-0.04517
10.541,0.01633,-0.02289,0.37323,-0.00961,0.00519,-0.03616,0.07294,0.06836,0.01389,-0.08636,-0.01358,0.0267,-0.01038,-0.02243,0.01862,-0.04639
10.5415,0.01907,-0.0177,0.42404,-0.00885,0.00488,-0.03357,0.0798,0.06042,0.01526,-0.08896,-0.01266,0.02808,-0.01343,-0.02167,0.0206,-0.047
10.542,0.01984,-0.01572,0.42313,-0.01373,0.00275,-0.03189,0.07889,0.04745,0.01663,-0.09277,-0.01328,0.03113,-0.01694,-0.02106,0.02151,-0.04669
10.5425,0.01892,-0.01465,0.38406,-0.02472,-0.00183,-0.03082,0.06226,0.0415,0.0177,-0.09384,-0.01434,0.03693,-0.02472,-0.01984,0.02182,-0.04593
10.543,0.01694,-0.0177,0.34836,-0.0351,-0.00488,-0.02884,0.03998,0.0415,0.01785,-0.0943,-0.01343,0.04517,-0.0354,-0.01816,0.01923,-0.04593
10.5435,0.01419,-0.02014,0.33096,-0.03799,-0.00381,-0.02731,0.01633,0.0383,0.01892,-0.09521,-0.01236,0.05188,-0.04456,-0.01694,0.01694,-0.04623
10.544,0.01328,-0.02029,0.31631,-0.03235,-0.00488,-0.0264,-0.00748,0.03113,0.01984,-0.09552,-0.01221,0.05234,-0.04669,-0.01709,0.01755,-0.04501
10.5445,0.01587,-0.01831,0.30014,-0.0267,-0.00519,-0.02365,-0.01678,0.0235,0.02106,-0.08102,-0.01404,0.04745,-0.0444,-0.01938,0.01694,-0.04471
10.545,0.02075,-0.01724,0.27069,-0.02731,-0.00809,-0.01831,0.00183,0.01846,0.02075,-0.04059,-0.01541,0.04105,-0.04059,-0.02258,0.01511,-0.04486
10.5455,0.0238,-0.01678,0.24063,-0.03235,-0.01038,-0.01205,0.03357,0.01434,0.01968,0.00366,-0.01617,0.03616,-0.0386,-0.02563,0.01816,-0.04669
10.546,0.02411,-0.01587,0.21744,-0.03754,-0.01404,-0.00931,0.04272,0.00916,0.01877,0.02014,-0.01434,0.03296,-0.03906,-0.02808,0.0145,-0.047
10.5465,0.02289,-0.01617,0.21561,-0.04044,-0.01801,-0.0116,0.02472,0.0032,0.01877,0.00122,-0.01465,0.02899,-0.04013,-0.0293,0.01434,-0.04715
10.547,0.02274,-0.02075,0.23788,-0.04181,-0.02274,-0.01389,0.0029,-0.0029,0.01846,-0.03067,-0.01602,0.02518,-0.03891,-0.02853,0.01297,-0.0473
10.5475,0.02396,-0.02563,0.26154,-0.04211,-0.02548,-0.01328,-0.00687,-0.00763,0.01755,-0.0563,-0.01602,0.02197,-0.03479,-0.02625,0.01541,-0.04822
10.548,0.02335,-0.02609,0.26443,-0.04135,-0.02716,-0.00916,-0.00977,-0.01099,0.0174,-0.07477,-0.01389,0.01862,-0.02914,-0.02319,0.01694,-0.04913
10.5485,0.02014,-0.02075,0.23956,-0.0412,-0.02731,-0.00397,-0.00946,-0.01282,0.01678,-0.09003,-0.01251,0.01526,-0.02075,-0.02136,0.01251,-0.04868
10.549,0.01358,-0.01419,0.21255,-0.04211,-0.02884,-0.00107,-0.00565,-0.01419,0.0148,-0.09857,-0.01297,0.01175,-0.01221,-0.02167,0.01053,-0.04761
10.5495,0.00534,-0.00763,0.19821,-0.04349,-0.03098,-0.00229,-0.00076,-0.01587,0.01343,-0.10178,-0.01419,0.0087,-0.00641,-0.02289,0.01205,-0.04684
10.55,-0.00214,-0.0032,0.19928,-0.04089,-0.03189,-0.00351,0.00031,-0.01785,0.01495,-0.10132,-0.0148,0.00687,-0.00381,-0.02365,0.01694,-0.04593
10.5505,-0.00656,0.00031,0.20035,-0.03815,-0.03159,-0.00397,-0.00015,-0.01953,0.01541,-0.09842,-0.01572,0.00458,-0.00488,-0.0235,0.01877,-0.04654
10.551,-0.00885,0.00031,0.19867,-0.03693,-0.03113,-0.00259,0.00458,-0.02045,0.0145,-0.08499,-0.01648,0.00122,-0.00839,-0.02441,0.01663,-0.04623
10.5515,-0.01144,-0.00351,0.19974,-0.03693,-0.03265,-0.00137,0.01236,-0.02121,0.01282,-0.05356,-0.01663,-0.00153,-0.01495,-0.02502,0.01633,-0.04623
10.552,-0.01678,-0.00992,0.19547,-0.0383,-0.03403,-0.00046,0.0145,-0.02396,0.01266,-0.0174,-0.01678,-0.00259,-0.02609,-0.02594,0.0148,-0.04593
10.5525,-0.0238,-0.01389,0.19379,-0.03906,-0.03479,-0.00107,0.00732,-0.02853,0.01389,-0.00092,-0.01663,-0.0032,-0.03845,-0.02655,0.01755,-0.0473
10.553,-0.03006,-0.01236,0.1944,-0.04166,-0.03448,-0.00061,-0.0058,-0.0325,0.01297,-0.01144,-0.01678,-0.00473,-0.04562,-0.02487,0.01785,-0.04852
10.5535,-0.03616,-0.00504,0.18951,-0.04425,-0.03494,-0.00046,-0.02106,-0.03433,0.01129,-0.03311,-0.0174,-0.00641,-0.04578,-0.02182,0.01633,-0.04868
10.554,-0.04364,0.00153,0.18784,-0.0473,-0.03738,-0.00153,-0.03998,-0.03403,0.01007,-0.0502,-0.01755,-0.00717,-0.04013,-0.01801,0.01801,-0.04852
10.5545,-0.0531,0.00137,0.18356,-0.04883,-0.03952,-0.00153,-0.0676,-0.03265,0.01068,-0.06302,-0.01831,-0.00977,-0.0325,-0.01724,0.01892,-0.04745
10.555,-0.06134,-0.00534,0.18417,-0.04898,-0.03906,-0.00092,-0.09796,-0.02975,0.01236,-0.07767,-0.01831,-0.01389,-0.02533,-0.01694,0.01892,-0.04715
10.5555,-0.06714,-0.01556,0.1825,-0.04959,-0.03998,-0.00183,-0.1123,-0.02594,0.01297,-0.09415,-0.01755,-0.01923,-0.02167,-0.01801,0.01816,-0.04822
10.556,-0.06882,-0.02533,0.18158,-0.05249,-0.04089,-0.00244,-0.0885,-0.0238,0.01114,-0.10712,-0.01663,-0.02182,-0.02213,-0.01892,0.02182,-0.04776
10.5565,-0.06973,-0.03235,0.17105,-0.05692,-0.04135,-0.00153,-0.02655,-0.02426,0.01022,-0.11368,-0.01602,-0.0206,-0.02472,-0.01907,0.02151,-0.04654
10.557,-0.0705,-0.03983,0.16632,-0.06134,-0.04181,-0.00046,0.03952,-0.02716,0.01053,-0.1181,-0.01572,-0.01663,-0.02518,-0.01968,0.02121,-0.04547
10.5575,-0.07034,-0.047,0.16388,-0.06653,-0.04211,-0.0032,0.05951,-0.03006,0.01068,-0.12573,-0.01541,-0.01617,-0.0267,-0.02075,0.01907,-0.04684
10.558,-0.06927,-0.05234,0.16632,-0.07126,-0.04486,-0.00931,0.02396,-0.03128,0.00839,-0.1358,-0.01724,-0.01816,-0.02716,-0.02014,0.01953,-0.04745
10.5585,-0.06927,-0.04807,0.16876,-0.07385,-0.04837,-0.0145,-0.02365,-0.03052,0.00656,-0.14587,-0.01923,-0.02136,-0.02655,-0.01923,0.02258,-0.04715
10.559,-0.06927,-0.02853,0.1651,-0.07477,-0.05173,-0.01633,-0.04272,-0.02853,0.00671,-0.1535,-0.0206,-0.02228,-0.02457,-0.01953,0.01999,-0.04593
10.5595,-0.06866,0.00687,0.16418,-0.07278,-0.05447,-0.01465,-0.03571,-0.02716,0.00763,-0.15976,-0.02121,-0.02045,-0.02396,-0.01907,0.02075,-0.04486
10.56,-0.06638,0.04395,0.17212,-0.06866,-0.0563,-0.01343,-0.02884,-0.02655,0.00824,-0.16373,-0.02106,-0.0174,-0.02548,-0.01907,0.01938,-0.0441
10.5605,-0.06531,0.05569,0.17883,-0.06683,-0.05753,-0.01358,-0.03235,-0.0264,0.00793,-0.16632,-0.02121,-0.01251,-0.02731,-0.01816,0.02151,-0.0441
10.561,-0.06714,0.02823,0.1799,-0.06683,-0.05829,-0.01663,-0.03876,-0.02655,0.00778,-0.16159,-0.0209,-0.00702,-0.02792,-0.01465,0.02258,-0.04349
10.5615,-0.07004,-0.0235,0.17395,-0.07141,-0.05783,-0.01938,-0.04028,-0.02609,0.00687,-0.13412,-0.02045,-0.00046,-0.02716,-0.01266,0.02213,-0.04257
10.562,-0.07172,-0.07263,0.16006,-0.07309,-0.05539,-0.02121,-0.03586,-0.02411,0.0058,-0.08011,-0.02121,0.00595,-0.02686,-0.01389,0.02151,-0.0415
10.5625,-0.07095,-0.10788,0.13885,-0.07263,-0.05386,-0.02335,-0.0267,-0.02136,0.00504,-0.03021,-0.02213,0.00977,-0.02792,-0.01755,0.01984,-0.04135
10.563,-0.07019,-0.13138,0.10956,-0.06927,-0.05447,-0.02533,-0.01938,-0.01816,0.00458,-0.02274,-0.02304,0.00732,-0.03052,-0.02029,0.02304,-0.04196
10.5635,-0.06973,-0.14755,0.07401,-0.06531,-0.056,-0.02701,-0.01892,-0.01617,0.0032,-0.0528,-0.02167,0.00183,-0.03342,-0.0209,0.02014,-0.04242
10.564,-0.07202,-0.15625,0.04669,-0.065,-0.05783,-0.02747,-0.02289,-0.01556,0.00076,-0.08026,-0.02106,-0.00137,-0.03632,-0.02151,0.01846,-0.04242
10.5645,-0.07614,-0.15533,0.02686,-0.06958,-0.05661,-0.02701,-0.02762,-0.01495,-0.00031,-0.08743,-0.01999,0.00107,-0.03555,-0.02289,0.02045,-0.04242
10.565,-0.08163,-0.15137,0.00748,-0.07797,-0.05569,-0.02701,-0.02945,-0.01434,0.0,-0.08957,-0.01968,0.00412,-0.03326,-0.02487,0.02121,-0.04181
10.5655,-0.08286,-0.14725,-0.02106,-0.08728,-0.056,-0.02792,-0.03052,-0.01465,-0.00046,-0.10071,-0.02197,0.00351,-0.02823,-0.02548,0.02213,-0.04105
10.566,-0.07813,-0.14389,-0.0563,-0.09628,-0.0563,-0.03021,-0.03204,-0.01495,-0.00168,-0.11841,-0.02411,0.0,-0.02289,-0.02502,0.02243,-0.03998
10.5665,-0.06973,-0.13947,-0.09216,-0.10712,-0.05447,-0.03265,-0.03113,-0.01358,-0.0029,-0.13245,-0.02441,-0.00107,-0.02014,-0.02533,0.02167,-0.03891
10.567,-0.06073,-0.13489,-0.12589,-0.12131,-0.05127,-0.03357,-0.02838,-0.0119,-0.0029,-0.14099,-0.02289,0.00107,-0.02029,-0.02533,0.02213,-0.03983
10.5675,-0.05142,-0.13474,-0.14984,-0.13733,-0.04868,-0.03357,-0.02716,-0.01068,-0.0029,-0.14725,-0.02182,0.0032,-0.02136,-0.02487,0.02289,-0.04028
10.568,-0.0386,-0.13855,-0.16052,-0.1503,-0.04654,-0.03098,-0.02869,-0.01053,-0.0032,-0.15427,-0.02258,0.00351,-0.02319,-0.02304,0.02274,-0.04196
10.5685,-0.02075,-0.13885,-0.16281,-0.14923,-0.04349,-0.02808,-0.03143,-0.01083,-0.00336,-0.15701,-0.02243,0.00275,-0.02716,-0.02136,0.02502,-0.03998
10.569,0.00092,-0.12695,-0.16281,-0.12299,-0.04013,-0.02396,-0.03174,-0.00916,-0.00412,-0.15198,-0.0209,0.00259,-0.03113,-0.02136,0.0264,-0.03891
10.5695,0.02213,-0.10208,-0.168,-0.07721,-0.03738,-0.01984,-0.02869,-0.00809,-0.00504,-0.14297,-0.01938,0.00275,-0.03113,-0.02167,0.02777,-0.03723
10.57,0.03525,-0.07523,-0.17227,-0.03433,-0.03632,-0.01587,-0.02502,-0.00687,-0.00687,-0.13947,-0.01816,0.00443,-0.02441,-0.02151,0.02762,-0.03647
10.5705,0.03906,-0.05661,-0.17395,-0.01892,-0.03906,-0.01633,-0.0235,-0.00763,-0.00793,-0.14648,-0.01709,0.00809,-0.01358,-0.01923,0.02747,-0.03662
10.571,0.0386,-0.04913,-0.17548,-0.02716,-0.04242,-0.02319,-0.0235,-0.00671,-0.00778,-0.15793,-0.01755,0.01312,-0.00412,-0.01846,0.03052,-0.03601
10.5715,0.03769,-0.0473,-0.17166,-0.03998,-0.04623,-0.03204,-0.02228,-0.00717,-0.00671,-0.16525,-0.01938,0.01511,0.00107,-0.0177,0.02975,-0.0354
10.572,0.03967,-0.04517,-0.15625,-0.04669,-0.04761,-0.03845,-0.01968,-0.00778,-0.00595,-0.16785,-0.01984,0.01236,0.00198,-0.0174,0.02823,-0.03372
10.5725,0.04288,-0.04135,-0.12344,-0.0531,-0.04745,-0.04059,-0.01755,-0.0087,-0.00565,-0.16891,-0.01923,0.00763,0.00351,-0.01556,0.02762,-0.03372
10.573,0.04471,-0.03876,-0.09323,-0.06958,-0.04791,-0.04028,-0.01678,-0.00885,-0.00549,-0.17151,-0.01846,0.00381,0.0061,-0.01373,0.02838,-0.03494
10.5735,0.04456,-0.03906,-0.09033,-0.08972,-0.05096,-0.04166,-0.02213,-0.00839,-0.00504,-0.17258,-0.01892,0.00107,0.00763,-0.01526,0.02625,-0.03632
10.574,0.04379,-0.0415,-0.11765,-0.10178,-0.05142,-0.04471,-0.03754,-0.00824,-0.00412,-0.17303,-0.01968,-0.00397,0.00626,-0.01678,0.02304,-0.03647
10.5745,0.04349,-0.04211,-0.15503,-0.10239,-0.05096,-0.04608,-0.0621,-0.00778,-0.00336,-0.17319,-0.01999,-0.01114,0.00259,-0.01923,0.01801,-0.03693
10.575,0.0441,-0.03998,-0.18677,-0.10361,-0.04868,-0.04684,-0.08408,-0.00732,-0.00488,-0.1741,-0.01938,-0.01923,-0.0029,-0.01923,0.01663,-0.03784
10.5755,0.04547,-0.03784,-0.21118,-0.10986,-0.04608,-0.04684,-0.09628,-0.00504,-0.00717,-0.17334,-0.01938,-0.02319,-0.01053,-0.01938,0.0174,-0.03769
10.576,0.04761,-0.03906,-0.23209,-0.11642,-0.04608,-0.04684,-0.10681,-0.00061,-0.00702,-0.1709,-0.01892,-0.02167,-0.01678,-0.02167,0.01907,-0.03647
10.5765,0.04959,-0.03983,-0.24872,-0.11581,-0.04578,-0.0473,-0.1236,0.00275,-0.00565,-0.16983,-0.01816,-0.0148,-0.01633,-0.0238,0.01892,-0.03372
10.577,0.05142,-0.03784,-0.26428,-0.10803,-0.04639,-0.04822,-0.13992,0.00473,-0.00458,-0.16632,-0.01755,-0.00626,-0.01221,-0.02182,0.01785,-0.03159
10.5775,0.05356,-0.03403,-0.28366,-0.09293,-0.04608,-0.04807,-0.1442,0.00519,-0.00443,-0.16373,-0.0177,0.00092,-0.00961,-0.01923,0.01984,-0.0322
10.578,0.056,-0.03342,-0.29755,-0.07339,-0.04562,-0.04684,-0.13702,0.00565,-0.00427,-0.15976,-0.0177,0.00565,-0.0119,-0.01785,0.0235,-0.03372
10.5785,0.05814,-0.03906,-0.27267,-0.04959,-0.04486,-0.04471,-0.11658,0.0061,-0.00519,-0.15518,-0.01862,0.00809,-0.01938,-0.01892,0.02502,-0.03342
10.579,0.05966,-0.04822,-0.16006,-0.02731,-0.04425,-0.04211,-0.05951,0.00656,-0.00549,-0.14999,-0.01846,0.0087,-0.02625,-0.02121,0.02335,-0.03357
10.5795,0.06042,-0.05157,0.03235,-0.01129,-0.04242,-0.04044,0.05157,0.0061,-0.00595,-0.14435,-0.01816,0.00412,-0.02686,-0.02075,0.02243,-0.03357
10.58,0.05966,-0.04562,0.18524,0.00381,-0.03983,-0.04028,0.16083,0.00702,-0.00504,-0.13718,-0.01633,-0.00717,-0.02243,-0.01831,0.02213,-0.0325
10.5805,0.0589,-0.03586,0.21896,0.01907,-0.03952,-0.04059,0.17517,0.00809,-0.00412,-0.12909,-0.01434,-0.02304,-0.01816,-0.01648,0.01846,-0.03281
10.581,0.06119,-0.02914,0.20355,0.03036,-0.03983,-0.03754,0.09964,0.00626,-0.00412,-0.12161,-0.01312,-0.03754,-0.01953,-0.01602,0.0145,-0.03372
10.5815,0.06653,-0.02747,0.25192,0.03632,-0.04044,-0.03189,0.03326,0.0,-0.00443,-0.11536,-0.01205,-0.04517,-0.02441,-0.01678,0.01343,-0.03387
10.582,0.07217,-0.02716,0.34195,0.03693,-0.03906,-0.02533,0.01602,-0.0087,-0.00427,-0.10773,-0.01129,-0.04486,-0.0293,-0.0177,0.01404,-0.03479
10.5825,0.07492,-0.02823,0.37308,0.0354,-0.03784,-0.01984,-0.01312,-0.01389,-0.0061,-0.10162,-0.01099,-0.0412,-0.0322,-0.01831,0.01175,-0.03616
10.583,0.07523,-0.03403,0.33142,0.03616,-0.03632,-0.01617,-0.09003,-0.01099,-0.00763,-0.09415,-0.01083,-0.03738,-0.03586,-0.01831,0.00458,-0.0354
10.5835,0.07401,-0.04471,0.28091,0.04303,-0.03555,-0.0148,-0.16464,-0.00366,-0.00839,-0.08728,-0.01129,-0.02823,-0.03937,-0.01907,-0.00443,-0.03738
10.584,0.07202,-0.05325,0.25497,0.05051,-0.0354,-0.01953,-0.18402,0.00107,-0.00687,-0.07935,-0.01282,-0.01068,-0.04227,-0.01938,-0.01068,-0.0386
10.5845,0.07004,-0.04929,0.22964,0.06119,-0.03464,-0.03143,-0.15747,0.00092,-0.00519,-0.07416,-0.01465,0.00549,-0.04211,-0.01907,-0.01648,-0.03998
10.585,0.0708,-0.03586,0.18738,0.06622,-0.03296,-0.05295,-0.11292,-0.00214,-0.00366,-0.06958,-0.01419,0.00519,-0.0415,-0.01816,-0.02274,-0.04089
10.5855,0.07629,-0.01984,0.14008,0.06241,-0.03113,-0.07935,-0.03922,-0.0032,-0.00275,-0.06531,-0.01312,-0.01495,-0.04105,-0.0177,-0.02716,-0.04135
10.586,0.08545,-0.00244,0.09399,0.04074,-0.03036,-0.10239,0.07431,-0.00336,-0.00137,-0.05981,-0.01297,-0.03387,-0.04196,-0.01755,-0.02899,-0.03967
10.5865,0.09415,0.02304,0.03799,-0.00183,-0.02975,-0.1149,0.15976,-0.00244,-0.00015,-0.05493,-0.01312,-0.0325,-0.04272,-0.01801,-0.03082,-0.0351
10.587,0.09842,0.05676,-0.02396,-0.04761,-0.03036,-0.1149,0.1152,-0.00183,0.00107,-0.05081,-0.01328,-0.01953,-0.04471,-0.01862,-0.0351,-0.03265
10.5875,0.09964,0.07889,-0.07141,-0.06592,-0.0296,-0.10406,-0.04608,-0.00198,0.00198,-0.04547,-0.01205,-0.0145,-0.04761,-0.01877,-0.04211,-0.03082
10.588,0.09918,0.06668,-0.09888,-0.03571,-0.02792,-0.08728,-0.17639,0.00031,0.00214,-0.0383,-0.01221,-0.02243,-0.05066,-0.01892,-0.04868,-0.02991
10.5885,0.09933,0.02197,-0.1268,0.03159,-0.02777,-0.07172,-0.16846,0.0029,0.0032,-0.03204,-0.01297,-0.02808,-0.05295,-0.02151,-0.05112,-0.02853
10.589,0.09827,-0.02548,-0.1712,0.103,-0.02792,-0.06134,-0.06958,0.00381,0.00504,-0.02777,-0.01419,-0.02441,-0.05234,-0.02243,-0.04608,-0.0267
10.5895,0.09323,-0.0412,-0.22141,0.1474,-0.02808,-0.05463,0.01572,0.00336,0.0087,-0.02228,-0.01389,-0.01266,-0.04868,-0.02182,-0.03189,-0.0267
10.59,0.08163,-0.01328,-0.25436,0.16296,-0.02686,-0.04959,0.07309,0.00198,0.01175,-0.0145,-0.01205,0.00778,-0.04486,-0.02106,-0.01266,-0.02869
10.5905,0.06592,0.03494,-0.27039,0.15671,-0.02716,-0.04562,0.15732,0.00168,0.01251,-0.00626,-0.01053,0.04181,-0.04318,-0.02014,0.00244,-0.03021
10.591,0.05264,0.05875,-0.27344,0.13779,-0.02838,-0.0415,0.26733,0.00305,0.0116,0.00076,-0.01083,0.08331,-0.04395,-0.01938,0.01312,-0.03052
10.5915,0.0444,0.03235,-0.27832,0.1088,-0.02869,-0.0354,0.32944,0.00443,0.01144,0.00839,-0.01251,0.11627,-0.04623,-0.01862,0.02075,-0.03357
10.592,0.03647,-0.03036,-0.28091,0.06546,-0.02823,-0.02853,0.3064,0.00732,0.01266,0.0148,-0.01358,0.12772,-0.04852,-0.01846,0.02762,-0.03586
10.5925,0.02594,-0.09247,-0.28076,0.01251,-0.02777,-0.02319,0.24231,0.00885,0.01389,0.0206,-0.0145,0.11719,-0.0528,-0.01892,0.03159,-0.04318
10.593,0.01282,-0.12894,-0.27481,-0.04105,-0.02594,-0.02014,0.18875,0.00839,0.01419,0.02441,-0.01389,0.09247,-0.05783,-0.01877,0.03067,-0.04654
10.5935,0.00397,-0.14038,-0.26764,-0.07828,-0.02472,-0.01572,0.15289,0.00671,0.01404,0.02838,-0.01282,0.06516,-0.06058,-0.01816,0.02808,-0.04929
10.594,0.00137,-0.13519,-0.27557,-0.08575,-0.02563,-0.0087,0.12726,0.00534,0.01602,0.03174,-0.01236,0.04929,-0.0592,-0.01709,0.02579,-0.0499
10.5945,0.00259,-0.12222,-0.31067,-0.06058,-0.02777,-0.0087,0.10971,0.00504,0.01862,0.0322,-0.01312,0.05386,-0.0528,-0.01526,0.02396,-0.05112
10.595,0.00122,-0.10574,-0.35965,-0.02014,-0.03082,-0.02579,0.09048,0.00534,0.02029,0.01068,-0.01373,0.06699,-0.04471,-0.01251,0.02457,-0.0502
10.5955,-0.00381,-0.09033,-0.39276,0.02197,-0.03311,-0.05722,0.0563,0.00656,0.0209,-0.04868,-0.01541,0.07172,-0.03906,-0.01099,0.02579,-0.04929
10.596,-0.00992,-0.07736,-0.38849,0.05005,-0.03342,-0.0882,0.01022,0.00931,0.02014,-0.13245,-0.01556,0.06485,-0.03815,-0.0119,0.02457,-0.0499
10.5965,-0.01633,-0.06714,-0.35706,0.06042,-0.03159,-0.10254,-0.02319,0.01221,0.0209,-0.19119,-0.0145,0.05951,-0.0386,-0.01465,0.02151,-0.05081
10.597,-0.01984,-0.06073,-0.32486,0.04868,-0.02716,-0.09995,-0.02823,0.01236,0.02274,-0.20355,-0.01358,0.06332,-0.04044,-0.01694,0.0174,-0.04974
10.5975,-0.02182,-0.05814,-0.30273,0.01663,-0.02304,-0.08728,-0.01175,0.00809,0.02396,-0.19623,-0.01236,0.07019,-0.0415,-0.01633,0.01404,-0.04868
10.598,-0.02258,-0.05737,-0.28656,-0.02396,-0.02136,-0.07828,-0.00366,0.0029,0.0238,-0.19073,-0.01175,0.07416,-0.04272,-0.01617,0.00961,-0.04807
10.5985,-0.02014,-0.05585,-0.27405,-0.04501,-0.02029,-0.07431,-0.02182,-0.00153,0.02411,-0.18005,-0.01251,0.07263,-0.04425,-0.01724,0.00717,-0.04837
10.599,-0.01266,-0.04929,-0.27298,-0.02777,-0.0206,-0.07217,-0.05844,-0.00488,0.02579,-0.15991,-0.01282,0.06927,-0.04364,-0.01877,0.00504,-0.0499
10.5995,-0.00229,-0.03876,-0.28915,-0.00397,-0.01984,-0.06821,-0.09811,-0.00854,0.02808,-0.14496,-0.0116,0.06561,-0.04257,-0.01938,0.00397,-0.04868
10.6,0.00641,-0.02869,-0.31418,-0.03082,-0.01907,-0.06332,-0.13641,-0.01221,0.02945,-0.14359,-0.00839,0.05844,-0.0412,-0.01785,0.00397,-0.04715
10.6005,0.0087,-0.02319,-0.3363,-0.10406,-0.01999,-0.06104,-0.16449,-0.01419,0.02884,-0.14603,-0.00748,0.04776,-0.04181,-0.0174,0.00443,-0.04791
10.601,0.00702,-0.0235,-0.35309,-0.15808,-0.02182,-0.06088,-0.14343,-0.01343,0.02808,-0.14328,-0.00839,0.03754,-0.04303,-0.01846,0.00351,-0.04822
10.6015,0.00519,-0.02716,-0.36957,-0.15335,-0.02197,-0.05981,-0.03464,-0.01205,0.02823,-0.13458,-0.00931,0.03311,-0.04333,-0.01968,0.00305,-0.04761
10.602,0.00702,-0.02945,-0.38513,-0.12497,-0.02136,-0.05737,0.11734,-0.01205,0.02884,-0.12314,-0.00977,0.03189,-0.04471,-0.01923,0.00031,-0.04913
10.6025,0.01083,-0.02808,-0.40085,-0.11688,-0.01984,-0.05524,0.19012,-0.01312,0.02899,-0.11154,-0.00977,0.03006,-0.04608,-0.01801,-0.00244,-0.04807
10.603,0.01434,-0.02457,-0.40695,-0.11185,-0.01923,-0.05341,0.11948,-0.01358,0.02838,-0.1062,-0.00961,0.02502,-0.04822,-0.01801,-0.00702,-0.05066
10.6035,0.01709,-0.02365,-0.39597,-0.07584,-0.01892,-0.05341,-0.01251,-0.01083,0.02701,-0.10712,-0.00977,0.0174,-0.04745,-0.01938,-0.01389,-0.04959
10.604,0.01923,-0.02808,-0.36179,-0.02625,-0.02075,-0.0531,-0.08423,-0.00824,0.02396,-0.1091,-0.00992,0.00687,-0.04486,-0.02106,-0.02182,-0.04883
10.6045,0.02213,-0.03632,-0.31937,-0.00443,-0.02289,-0.05142,-0.07538,-0.00549,0.01999,-0.10452,-0.01007,-0.00107,-0.04166,-0.02197,-0.02533,-0.04776
10.605,0.0238,-0.04425,-0.30273,-0.02975,-0.02258,-0.05051,-0.05569,-0.0029,0.0174,-0.09338,-0.00946,-0.0058,-0.04059,-0.02136,-0.02945,-0.04837
10.6055,0.02289,-0.05127,-0.33173,-0.08499,-0.02075,-0.05081,-0.07294,-0.00214,0.01633,-0.08698,-0.00763,-0.00778,-0.04028,-0.02045,-0.0354,-0.04868
10.606,0.01862,-0.05753,-0.38345,-0.1413,-0.0174,-0.05066,-0.11673,-0.00397,0.01556,-0.09033,-0.00732,-0.00931,-0.03952,-0.01923,-0.04257,-0.04852
10.6065,0.01251,-0.06256,-0.42404,-0.1622,-0.01572,-0.04929,-0.15778,-0.00641,0.01373,-0.10391,-0.00793,-0.01389,-0.03693,-0.01862,-0.04822,-0.04791
10.607,0.0061,-0.06927,-0.4393,-0.12558,-0.01602,-0.05035,-0.18494,-0.0061,0.01129,-0.11871,-0.00824,-0.02045,-0.03571,-0.01801,-0.05203,-0.04913
10.6075,0.00244,-0.0737,-0.43594,-0.0412,-0.01862,-0.05676,-0.1944,-0.00412,0.00992,-0.12344,-0.00687,-0.02502,-0.03555,-0.01785,-0.05524,-0.04868
10.608,0.00275,-0.07172,-0.42313,0.03876,-0.0209,-0.06699,-0.18951,0.00015,0.00748,-0.11703,-0.00626,-0.02533,-0.03494,-0.01755,-0.05737,-0.047
10.6085,0.00534,-0.06241,-0.39902,0.06607,-0.0209,-0.07568,-0.18845,0.00305,0.00504,-0.10834,-0.00595,-0.02243,-0.03418,-0.01816,-0.0589,-0.0473
10.609,0.00427,-0.05249,-0.36911,0.04333,-0.02121,-0.07874,-0.21301,0.00549,0.00168,-0.10452,-0.00626,-0.01923,-0.03265,-0.01846,-0.05798,-0.04745
10.6095,0.00061,-0.04959,-0.34378,-0.01389,-0.02213,-0.0795,-0.25818,0.00488,-0.00031,-0.10757,-0.00549,-0.01724,-0.03128,-0.01801,-0.05936,-0.04623
10.61,-0.00473,-0.05325,-0.32745,-0.09186,-0.0235,-0.08362,-0.28275,0.0029,-0.00229,-0.11368,-0.00412,-0.01755,-0.02975,-0.01694,-0.06012,-0.04517
10.6105,-0.01068,-0.05798,-0.31296,-0.17746,-0.02457,-0.0914,-0.23575,0.00046,-0.00381,-0.11307,-0.00336,-0.01663,-0.02869,-0.01785,-0.05997,-0.0441
10.611,-0.01648,-0.05707,-0.29388,-0.26047,-0.02609,-0.09766,-0.08682,0.00046,-0.00626,-0.09644,-0.00366,-0.01602,-0.02838,-0.01831,-0.05997,-0.04196
10.6115,-0.02396,-0.04791,-0.27191,-0.31891,-0.02579,-0.09796,0.1413,0.00473,-0.00778,-0.0705,-0.00534,-0.01923,-0.02884,-0.01785,-0.05875,-0.04166
10.612,-0.03006,-0.03693,-0.24963,-0.34851,-0.02609,-0.09338,0.34439,0.01175,-0.00748,-0.05066,-0.00626,-0.02792,-0.02869,-0.01755,-0.05844,-0.04257
10.6125,-0.03281,-0.02777,-0.21881,-0.34058,-0.02594,-0.09018,0.39276,0.0145,-0.00687,-0.03845,-0.00687,-0.03708,-0.02747,-0.01724,-0.05829,-0.04364
10.613,-0.02914,-0.0209,-0.17471,-0.27908,-0.02701,-0.08835,0.26917,0.01099,-0.00702,-0.02243,-0.00763,-0.04257,-0.02533,-0.01678,-0.05753,-0.04242
10.6135,-0.02365,-0.01709,-0.11871,-0.14877,-0.02792,-0.08606,0.10757,0.00305,-0.00854,0.0032,-0.00778,-0.04364,-0.02457,-0.01709,-0.056,-0.04166
10.614,-0.02243,-0.0148,-0.06393,0.02182,-0.02716,-0.08392,0.03006,-0.00137,-0.01007,0.03601,-0.00763,-0.04364,-0.02548,-0.01801,-0.05188,-0.04181
10.6145,-0.02625,-0.01266,-0.01556,0.1651,-0.0238,-0.08118,0.01343,0.00031,-0.01236,0.06866,-0.00809,-0.04456,-0.02747,-0.01846,-0.05005,-0.0444
10.615,-0.0296,-0.00946,0.03128,0.24216,-0.02106,-0.07614,-0.02014,0.00687,-0.0148,0.09796,-0.00854,-0.04791,-0.02853,-0.01846,-0.04761,-0.04547
10.6155,-0.02899,-0.009,0.07813,0.27008,-0.02075,-0.07156,-0.07141,0.01129,-0.01724,0.12131,-0.0087,-0.05295,-0.02792,-0.0177,-0.04608,-0.04471
10.616,-0.02579,-0.01434,0.10971,0.26993,-0.02197,-0.06378,-0.09857,0.01328,-0.01923,0.14099,-0.00916,-0.05798,-0.02655,-0.01755,-0.04547,-0.04227
10.6165,-0.02243,-0.01755,0.1091,0.22736,-0.02182,-0.05188,-0.0972,0.01526,-0.02075,0.16357,-0.01022,-0.06363,-0.02609,-0.01801,-0.04364,-0.04166
10.617,-0.02136,-0.01205,0.09369,0.14771,-0.02121,-0.03952,-0.08408,0.01694,-0.02289,0.19104,-0.01175,-0.06866,-0.0264,-0.01923,-0.04257,-0.04166
10.6175,-0.01938,-0.00473,0.09186,0.08621,-0.02151,-0.03021,-0.06668,0.01724,-0.02457,0.21683,-0.01236,-0.0705,-0.02716,-0.01892,-0.03998,-0.04272
10.618,-0.01572,-0.01007,0.11429,0.09338,-0.02151,-0.02731,-0.04654,0.01251,-0.02533,0.23605,-0.01236,-0.0705,-0.02853,-0.01831,-0.03738,-0.04379
10.6185,-0.01068,-0.02869,0.14145,0.1532,-0.02014,-0.02975,-0.02991,0.00519,-0.02457,0.24918,-0.01328,-0.06744,-0.02899,-0.01831,-0.03448,-0.04211
10.619,-0.00763,-0.04074,0.15991,0.2211,-0.01862,-0.03418,-0.01602,-0.00397,-0.02396,0.25803,-0.01282,-0.06378,-0.02899,-0.02014,-0.03235,-0.04242
10.6195,-0.00656,-0.0264,0.16861,0.27542,-0.01816,-0.04135,0.00702,-0.0116,-0.02426,0.25635,-0.01221,-0.06119,-0.0293,-0.02167,-0.02899,-0.04105
10.62,-0.00702,0.0061,0.17822,0.30594,-0.01968,-0.05081,0.0351,-0.01572,-0.02594,0.23575,-0.01129,-0.06134,-0.02975,-0.02228,-0.02563,-0.04044
10.6205,-0.00778,0.02518,0.18982,0.29419,-0.02228,-0.05737,0.04105,-0.01495,-0.02716,0.19608,-0.01251,-0.0647,-0.03006,-0.02075,-0.02136,-0.04181
10.621,-0.00946,0.00748,0.20416,0.23834,-0.02502,-0.05783,0.01465,-0.01312,-0.02808,0.15686,-0.01343,-0.06943,-0.03174,-0.02029,-0.01526,-0.04181
10.6215,-0.01236,-0.03342,0.21881,0.16861,-0.02502,-0.05463,-0.01938,-0.01526,-0.02762,0.13489,-0.01358,-0.0737,-0.03296,-0.02029,-0.01099,-0.04166
10.622,-0.01541,-0.06882,0.23575,0.12131,-0.02502,-0.05219,-0.03265,-0.02335,-0.02777,0.1326,-0.01221,-0.07904,-0.03464,-0.02075,-0.00702,-0.04089
10.6225,-0.0174,-0.08698,0.25635,0.10345,-0.02594,-0.05386,-0.0293,-0.03098,-0.02945,0.13504,-0.01144,-0.08743,-0.0354,-0.02045,-0.00427,-0.04089
10.623,-0.01953,-0.09415,0.27771,0.09644,-0.0267,-0.05554,-0.03006,-0.03098,-0.03265,0.13641,-0.01297,-0.10086,-0.03525,-0.02045,-0.00275,-0.04211
10.6235,-0.02045,-0.09918,0.29388,0.08514,-0.02579,-0.05707,-0.0383,-0.02274,-0.03571,0.13733,-0.01419,-0.11108,-0.03601,-0.02075,0.00061,-0.04349
10.624,-0.01984,-0.09979,0.30533,0.07996,-0.02441,-0.05676,-0.04166,-0.01251,-0.03662,0.14114,-0.01495,-0.11032,-0.03616,-0.02136,0.00473,-0.04364
10.6245,-0.01877,-0.09216,0.31067,0.09064,-0.02411,-0.05508,-0.03464,-0.00793,-0.03754,0.14694,-0.01419,-0.09842,-0.03616,-0.02197,0.00793,-0.04105
10.625,-0.01877,-0.08148,0.31601,0.1004,-0.02594,-0.05371,-0.02472,-0.00946,-0.03891,0.15472,-0.01297,-0.08698,-0.03677,-0.02136,0.00763,-0.04013
10.6255,-0.02304,-0.07339,0.32043,0.07538,-0.02914,-0.05356,-0.01877,-0.01343,-0.03922,0.16052,-0.01358,-0.08255,-0.03601,-0.02213,0.00793,-0.03952
10.626,-0.03036,-0.07156,0.32272,0.00885,-0.03189,-0.05493,-0.0148,-0.01526,-0.03769,0.16144,-0.01297,-0.08224,-0.03555,-0.02258,0.01053,-0.03952
10.6265,-0.03708,-0.07156,0.32364,-0.06729,-0.03174,-0.05493,-0.01068,-0.01358,-0.03601,0.15594,-0.01175,-0.07584,-0.0354,-0.02274,0.01709,-0.03983
10.627,-0.04074,-0.06638,0.32394,-0.12543,-0.03159,-0.05371,-0.00656,-0.01099,-0.03708,0.15213,-0.01114,-0.05936,-0.03586,-0.02136,0.02258,-0.04044
10.6275,-0.03952,-0.05524,0.32578,-0.15686,-0.03143,-0.0531,-0.00793,-0.01068,-0.04044,0.15381,-0.01221,-0.03754,-0.0354,-0.0209,0.02289,-0.0415
10.628,-0.03464,-0.04105,0.33112,-0.15106,-0.03174,-0.0531,-0.01556,-0.01144,-0.04227,0.16602,-0.01389,-0.01892,-0.03403,-0.02014,0.02319,-0.04196
10.6285,-0.0267,-0.02502,0.33676,-0.08514,-0.03235,-0.05554,-0.02579,-0.00992,-0.04272,0.18143,-0.01511,-0.01068,-0.03265,-0.0206,0.02289,-0.04135
10.629,-0.01907,-0.00656,0.3334,0.03571,-0.03387,-0.05814,-0.03555,-0.00549,-0.04242,0.19455,-0.01541,-0.01434,-0.03143,-0.02151,0.0267,-0.03952
10.6295,-0.01251,0.00732,0.31967,0.15671,-0.03571,-0.05814,-0.04074,-0.00153,-0.04303,0.20432,-0.0148,-0.02609,-0.03067,-0.02228,0.0293,-0.03769
10.63,-0.00778,0.00977,0.29953,0.21851,-0.03677,-0.056,-0.04059,-0.00061,-0.04425,0.21469,-0.01434,-0.03677,-0.02899,-0.02167,0.03143,-0.03708
10.6305,-0.00839,0.00397,0.27893,0.2066,-0.0383,-0.05295,-0.04013,-0.00275,-0.04486,0.22339,-0.01434,-0.04456,-0.02731,-0.02029,0.03357,-0.03784
10.631,-0.01312,0.00046,0.2597,0.13763,-0.03952,-0.05325,-0.04257,-0.00504,-0.04517,0.2298,-0.0145,-0.04883,-0.02518,-0.01968,0.03494,-0.03769
10.6315,-0.0174,0.00214,0.24658,0.03983,-0.03967,-0.05356,-0.04745,-0.00656,-0.04517,0.23575,-0.01541,-0.0531,-0.02411,-0.0206,0.03616,-0.03677
10.632,-0.01877,0.00061,0.24445,-0.0325,-0.04166,-0.05371,-0.05005,-0.00763,-0.04578,0.2449,-0.01663,-0.05539,-0.02335,-0.02243,0.03693,-0.03525
10.6325,-0.0174,-0.01114,0.24796,-0.0267,-0.04379,-0.05264,-0.04944,-0.00839,-0.04669,0.25482,-0.01709,-0.05569,-0.02274,-0.02167,0.03677,-0.03479
10.633,-0.01587,-0.02731,0.24796,0.03922,-0.04547,-0.0531,-0.04822,-0.00961,-0.04807,0.25894,-0.01694,-0.05569,-0.02121,-0.02014,0.0386,-0.03555
10.6335,-0.01755,-0.04425,0.23834,0.06302,-0.04532,-0.05234,-0.0502,-0.01068,-0.04913,0.25177,-0.01678,-0.05569,-0.02029,-0.02029,0.04211,-0.0354
10.634,-0.02472,-0.06836,0.22339,-0.03754,-0.04364,-0.05112,-0.05341,-0.00992,-0.05005,0.23666,-0.01724,-0.05432,-0.02014,-0.01953,0.0444,-0.03586
10.6345,-0.03616,-0.103,0.20935,-0.21683,-0.04059,-0.05112,-0.05234,-0.00809,-0.04974,0.21851,-0.01648,-0.05173,-0.02029,-0.02014,0.04837,-0.03723
10.635,-0.04761,-0.12817,0.20447,-0.33493,-0.03723,-0.05325,-0.04623,-0.00717,-0.04959,0.19913,-0.01633,-0.05173,-0.02075,-0.01984,0.04974,-0.03784
10.6355,-0.05524,-0.11398,0.2037,-0.31311,-0.03677,-0.05508,-0.03677,-0.00702,-0.05051,0.17456,-0.0177,-0.05325,-0.02045,-0.02014,0.05005,-0.03723
10.636,-0.0592,-0.0676,0.20187,-0.21454,-0.03754,-0.05646,-0.02975,-0.00931,-0.05188,0.14603,-0.02106,-0.05661,-0.01907,-0.0206,0.04929,-0.03693
10.6365,-0.06409,-0.03464,0.18997,-0.16876,-0.03891,-0.05676,-0.02792,-0.0116,-0.05264,0.10956,-0.02228,-0.06165,-0.01831,-0.02014,0.05005,-0.03693
10.637,-0.06912,-0.04303,0.1622,-0.242,-0.03983,-0.05661,-0.03052,-0.01038,-0.0531,0.06302,-0.02197,-0.07202,-0.01846,-0.01984,0.05219,-0.03769
10.6375,-0.07278,-0.07187,0.12466,-0.38788,-0.04013,-0.05737,-0.03403,-0.00565,-0.05264,0.00565,-0.02106,-0.08392,-0.01892,-0.01938,0.05463,-0.03754
10.638,-0.07294,-0.0882,0.08514,-0.50873,-0.04044,-0.05569,-0.03632,-0.00015,-0.05234,-0.05737,-0.02151,-0.08636,-0.01831,-0.01892,0.05692,-0.03586
10.6385,-0.06699,-0.08743,0.04974,-0.53406,-0.03906,-0.05325,-0.04135,0.00153,-0.05295,-0.11673,-0.02151,-0.07782,-0.0177,-0.01892,0.05646,-0.03494
10.639,-0.05798,-0.08072,0.02228,-0.43777,-0.03784,-0.04959,-0.05646,0.0,-0.05432,-0.15854,-0.02228,-0.06516,-0.01678,-0.01831,0.05539,-0.03464
10.6395,-0.04791,-0.0737,0.00641,-0.22751,-0.03784,-0.04745,-0.08148,-0.00092,-0.05341,-0.1828,-0.02289,-0.05661,-0.01572,-0.01938,0.05554,-0.03433
10.64,-0.04105,-0.06668,-0.00153,0.03235,-0.03708,-0.04761,-0.11108,0.00046,-0.05096,-0.1889,-0.02228,-0.05188,-0.01572,-0.01923,0.05508,-0.03174
10.6405,-0.03677,-0.06012,-0.00931,0.22278,-0.03555,-0.04684,-0.13107,0.00443,-0.04913,-0.18204,-0.02228,-0.04883,-0.01694,-0.01968,0.05524,-0.03159
10.641,-0.03387,-0.05722,-0.02243,0.25818,-0.03494,-0.04196,-0.14511,0.00595,-0.04791,-0.17242,-0.02243,-0.04242,-0.01831,-0.02075,0.05569,-0.03159
10.6415,-0.03143,-0.05615,-0.03632,0.17487,-0.03525,-0.03845,-0.18387,0.00244,-0.04562,-0.16861,-0.02319,-0.03128,-0.01816,-0.01999,0.05508,-0.0322
10.642,-0.02838,-0.05432,-0.05051,0.10391,-0.03601,-0.03738,-0.26611,-0.00336,-0.04501,-0.17029,-0.02243,-0.01709,-0.01709,-0.02014,0.05173,-0.03418
10.6425,-0.02426,-0.05203,-0.06226,0.11612,-0.03677,-0.03906,-0.36163,-0.00671,-0.04501,-0.17502,-0.02045,-0.00626,-0.01617,-0.01999,0.0502,-0.0351
10.643,-0.02151,-0.05066,-0.07553,0.16022,-0.03784,-0.04257,-0.42084,-0.00534,-0.04517,-0.1767,-0.01968,-0.0029,-0.01633,-0.01999,0.04807,-0.03662
10.6435,-0.01968,-0.04639,-0.08286,0.16373,-0.03784,-0.04715,-0.43015,-0.00275,-0.04456,-0.16891,-0.02075,-0.00458,-0.01587,-0.0206,0.04822,-0.03754
10.644,-0.02045,-0.03555,-0.08133,0.13718,-0.03738,-0.05386,-0.41565,-0.00275,-0.04532,-0.15289,-0.02197,-0.0058,-0.01572,-0.01831,0.04852,-0.03693
10.6445,-0.02106,-0.02045,-0.07294,0.13016,-0.03738,-0.06134,-0.38055,-0.00488,-0.04745,-0.13412,-0.02289,-0.00366,-0.01556,-0.01801,0.05081,-0.03616
10.645,-0.0206,-0.00443,-0.07004,0.13687,-0.03845,-0.06409,-0.28351,-0.00748,-0.04807,-0.11719,-0.02258,-0.00244,-0.01556,-0.0174,0.05051,-0.03586
10.6455,-0.01923,0.01053,-0.07553,0.10834,-0.03891,-0.05783,-0.12329,-0.00793,-0.04593,-0.10269,-0.02167,-0.00305,-0.01648,-0.01785,0.04852,-0.03555
10.646,-0.01953,0.02335,-0.0827,0.04379,-0.04059,-0.04761,0.01526,-0.00656,-0.04227,-0.08575,-0.02136,-0.00366,-0.01602,-0.01938,0.04837,-0.03616
10.6465,-0.01999,0.03067,-0.08423,-0.00092,-0.04196,-0.04089,0.09003,-0.00458,-0.03967,-0.06805,-0.02106,-0.00214,-0.01633,-0.01907,0.04669,-0.0386
10.647,-0.02121,0.03143,-0.08438,-0.009,-0.04196,-0.04059,0.19455,-0.00168,-0.03784,-0.05035,-0.0206,0.00092,-0.01892,-0.01755,0.04852,-0.04044
10.6475,-0.02182,0.02731,-0.09003,-0.02609,-0.04089,-0.04257,0.39581,-0.00015,-0.03815,-0.03357,-0.02045,0.00366,-0.02243,-0.01709,0.04776,-0.0412
10.648,-0.02304,0.01648,-0.10147,-0.08499,-0.04089,-0.04501,0.56702,0.00153,-0.03906,-0.0145,-0.01999,0.00534,-0.02563,-0.01785,0.04684,-0.04074
10.6485,-0.02426,0.00061,-0.11429,-0.14603,-0.04105,-0.04593,0.57556,0.00443,-0.04059,0.00244,-0.01984,0.00763,-0.02686,-0.01877,0.04517,-0.04028
10.649,-0.02502,-0.01678,-0.12756,-0.13657,-0.0412,-0.047,0.50537,0.00961,-0.04028,0.01587,-0.02029,0.01022,-0.02869,-0.01907,0.04486,-0.03922
10.6495,-0.0238,-0.03265,-0.13458,-0.02029,-0.04196,-0.04623,0.50064,0.01572,-0.03922,0.02686,-0.01953,0.01221,-0.0322,-0.01892,0.04395,-0.0383
10.65,-0.0209,-0.04669,-0.13611,0.19012,-0.04303,-0.04501,0.51788,0.01587,-0.03769,0.03754,-0.01678,0.01282,-0.03479,-0.01846,0.04318,-0.03784
10.6505,-0.01785,-0.05615,-0.13168,0.45395,-0.04257,-0.04349,0.43365,0.01068,-0.03693,0.05005,-0.01434,0.01221,-0.03357,-0.01801,0.0412,-0.0383
10.651,-0.01465,-0.0589,-0.13031,0.70328,-0.04059,-0.04395,0.28763,0.00198,-0.03586,0.06073,-0.0145,0.01282,-0.03021,-0.01755,0.03952,-0.03922
10.6515,-0.01282,-0.05829,-0.13153,0.83511,-0.0386,-0.0444,0.21576,-0.00336,-0.03448,0.06882,-0.01541,0.01556,-0.02716,-0.01556,0.03815,-0.03845
10.652,-0.01236,-0.05768,-0.13184,0.7666,-0.03769,-0.04501,0.24536,-0.00259,-0.03357,0.07492,-0.01526,0.0206,-0.02502,-0.0116,0.03708,-0.03815
10.6525,-0.01205,-0.06027,-0.1268,0.51498,-0.03769,-0.04196,0.28076,0.00198,-0.03326,0.08286,-0.0148,0.02701,-0.02502,-0.01022,0.03815,-0.03784
10.653,-0.01068,-0.06454,-0.11871,0.18433,-0.03754,-0.04028,0.25406,0.00641,-0.03265,0.09033,-0.01434,0.03296,-0.02747,-0.01144,0.03906,-0.03876
10.6535,-0.01022,-0.0679,-0.11169,-0.13245,-0.03555,-0.04028,0.17731,0.0087,-0.03189,0.09705,-0.01602,0.0386,-0.03189,-0.01297,0.03799,-0.03952
10.654,-0.01038,-0.07019,-0.10559,-0.42343,-0.03326,-0.03998,0.09979,0.00809,-0.03235,0.10086,-0.01709,0.04761,-0.03586,-0.01511,0.03769,-0.03922
10.6545,-0.01099,-0.07263,-0.10086,-0.70343,-0.03098,-0.03784,0.04868,0.00412,-0.03342,0.10406,-0.01648,0.05905,-0.03815,-0.01511,0.03632,-0.03845
10.655,-0.01083,-0.07568,-0.09354,-0.93246,-0.02808,-0.03586,0.02426,-0.00244,-0.03357,0.10773,-0.01617,0.06912,-0.04044,-0.01465,0.03662,-0.03799
10.6555,-0.00946,-0.07462,-0.08759,-1.01273,-0.02548,-0.03662,0.01358,-0.00839,-0.03296,0.10818,-0.01419,0.07538,-0.04395,-0.01511,0.03647,-0.03906
10.656,-0.00885,-0.06546,-0.08392,-0.88074,-0.02151,-0.03815,0.00534,-0.0119,-0.03143,0.10437,-0.01404,0.07904,-0.04761,-0.01617,0.0383,-0.0415
10.6565,-0.01007,-0.05447,-0.08118,-0.59128,-0.01724,-0.04013,-0.00793,-0.01373,-0.03082,0.09796,-0.01343,0.08163,-0.04807,-0.01617,0.03815,-0.04227
10.657,-0.01251,-0.04456,-0.07538,-0.29816,-0.01282,-0.04059,-0.02609,-0.01602,-0.0296,0.0943,-0.01282,0.08316,-0.047,-0.01434,0.03723,-0.0415
10.6575,-0.0148,-0.03937,-0.06851,-0.12619,-0.01038,-0.03952,-0.04517,-0.02045,-0.02945,0.0943,-0.0119,0.08148,-0.04684,-0.01358,0.03494,-0.04196
10.658,-0.01495,-0.03601,-0.05997,-0.08118,-0.00946,-0.04013,-0.05783,-0.02518,-0.02899,0.09537,-0.01205,0.07629,-0.04761,-0.01343,0.03357,-0.04272
10.6585,-0.01465,-0.03235,-0.05234,-0.08575,-0.00839,-0.04211,-0.06256,-0.02686,-0.02808,0.09567,-0.01328,0.06943,-0.04868,-0.01511,0.03311,-0.04288
10.659,-0.01465,-0.02853,-0.04654,-0.0592,-0.00717,-0.04547,-0.06195,-0.02426,-0.02792,0.09567,-0.0145,0.06042,-0.05142,-0.0177,0.03174,-0.04211
10.6595,-0.01495,-0.02579,-0.04059,0.02289,-0.00778,-0.04883,-0.05814,-0.01984,-0.02808,0.0946,-0.01419,0.047,-0.05356,-0.01938,0.03235,-0.0415
10.66,-0.01602,-0.02609,-0.03387,0.13031,-0.01053,-0.04898,-0.05615,-0.01526,-0.02899,0.0943,-0.01312,0.03098,-0.05219,-0.0177,0.03571,-0.0412
10.6605,-0.0174,-0.0322,-0.02457,0.20889,-0.01862,-0.05035,-0.06348,-0.01251,-0.0293,0.09384,-0.01221,0.01968,-0.04776,-0.01724,0.03845,-0.04227
10.661,-0.01846,-0.04333,-0.01328,0.22446,-0.03052,-0.04883,-0.08301,-0.0119,-0.02884,0.09476,-0.01129,0.01938,-0.04364,-0.0145,0.03906,-0.04303
10.6615,-0.0174,-0.05264,-0.00122,0.19287,-0.04379,-0.04776,-0.11627,-0.01465,-0.02792,0.09491,-0.01114,0.02594,-0.04242,-0.0145,0.03815,-0.04379
10.662,-0.0148,-0.05081,0.01114,0.16251,-0.05295,-0.04807,-0.15839,-0.0174,-0.02655,0.09537,-0.01144,0.03311,-0.04395,-0.01312,0.03769,-0.04425
10.6625,-0.0116,-0.03799,0.03113,0.15366,-0.05676,-0.04791,-0.19852,-0.0174,-0.02518,0.09476,-0.01099,0.03693,-0.04593,-0.01236,0.03708,-0.0441
10.663,-0.00931,-0.02182,0.05646,0.13733,-0.05692,-0.04684,-0.22034,-0.01343,-0.02426,0.09415,-0.00931,0.03906,-0.04776,-0.01282,0.03723,-0.04501
10.6635,-0.0087,-0.01053,0.07782,0.08682,-0.06012,-0.04349,-0.22049,-0.00854,-0.02365,0.09369,-0.00809,0.0415,-0.04883,-0.0148,0.03693,-0.04745
10.664,-0.00854,-0.00443,0.08926,0.00793,-0.07004,-0.04013,-0.21072,-0.00687,-0.02335,0.08972,-0.00702,0.04669,-0.05096,-0.01587,0.03586,-0.04959
10.6645,-0.00854,-0.00153,0.09048,-0.08347,-0.07782,-0.04013,-0.20432,-0.00473,-0.02167,0.08453,-0.0058,0.05615,-0.0531,-0.01541,0.03601,-0.0502
10.665,-0.00854,-0.00061,0.07736,-0.16724,-0.07874,-0.04181,-0.20142,-0.00198,-0.02045,0.08209,-0.00519,0.06866,-0.05447,-0.01343,0.03738,-0.05051
10.6655,-0.0087,-0.00122,0.05798,-0.20081,-0.07111,-0.04272,-0.18723,0.00015,-0.02029,0.08118,-0.00519,0.08148,-0.05539,-0.01266,0.0383,-0.05127
10.666,-0.00824,-0.00412,0.04044,-0.13916,-0.0592,-0.04044,-0.121,0.00153,-0.02151,0.08118,-0.0061,0.08682,-0.05402,-0.01007,0.03738,-0.0502
10.6665,-0.0058,-0.0087,0.03052,-0.00092,-0.04745,-0.03723,0.02731,0.00153,-0.02121,0.07904,-0.00656,0.08163,-0.04974,-0.01068,0.03586,-0.04913
10.667,-0.00381,-0.01541,0.02228,0.11703,-0.03662,-0.03128,0.20264,0.00122,-0.01984,0.0769,-0.0058,0.06927,-0.04776,-0.01038,0.03494,-0.04761
10.6675,-0.00565,-0.01892,0.00763,0.12894,-0.03113,-0.0296,0.26321,0.00046,-0.01846,0.07217,-0.00427,0.05569,-0.04822,-0.01083,0.03677,-0.04837
10.668,-0.01251,-0.01541,-0.01053,0.04669,-0.02823,-0.0322,0.1413,-0.00015,-0.01617,0.06805,-0.00336,0.04608,-0.04837,-0.0119,0.03754,-0.04822
10.6685,-0.02075,-0.00153,-0.02609,-0.03433,-0.0264,-0.03876,-0.05463,0.00015,-0.0148,0.06424,-0.0029,0.03693,-0.04807,-0.01312,0.03815,-0.04959
10.669,-0.02594,0.0116,-0.03616,-0.06012,-0.02274,-0.04257,-0.168,0.0,-0.01236,0.05936,-0.00259,0.02777,-0.04639,-0.01419,0.0386,-0.04852
10.6695,-0.02609,0.01266,-0.04883,-0.06104,-0.0206,-0.04517,-0.17639,0.00046,-0.00977,0.05585,-0.0029,0.02045,-0.04532,-0.01404,0.04028,-0.04807
10.67,-0.02121,-0.00015,-0.06989,-0.07782,-0.02136,-0.04715,-0.16724,-0.00168,-0.00763,0.04959,-0.0032,0.01724,-0.04593,-0.01419,0.0412,-0.04761
10.6705,-0.01541,-0.02136,-0.09796,-0.10452,-0.02319,-0.04562,-0.18692,-0.00565,-0.00702,0.04272,-0.0029,0.01862,-0.04684,-0.01404,0.04028,-0.04761
10.671,-0.00885,-0.04227,-0.12253,-0.11307,-0.02548,-0.04257,-0.20279,-0.00809,-0.00626,0.03998,-0.00229,0.02197,-0.04791,-0.01404,0.03998,-0.04745
10.6715,-0.00153,-0.05783,-0.1358,-0.1004,-0.03006,-0.03952,-0.18265,-0.00488,-0.00519,0.05005,-0.00122,0.02518,-0.04745,-0.01373,0.04105,-0.04776
10.672,0.00839,-0.06973,-0.13763,-0.08392,-0.04089,-0.03876,-0.14862,0.00122,-0.00427,0.07431,0.0,0.02655,-0.04608,-0.01404,0.04318,-0.04745
10.6725,0.01602,-0.07462,-0.12527,-0.07263,-0.05173,-0.04135,-0.14008,0.00687,-0.0032,0.09659,-0.00015,0.02457,-0.04608,-0.01541,0.04272,-0.04883
10.673,0.01846,-0.07355,-0.10376,-0.06653,-0.05371,-0.04471,-0.13184,0.00977,-0.00137,0.10025,0.0,0.02029,-0.047,-0.01678,0.04089,-0.04883
10.6735,0.01602,-0.06531,-0.08209,-0.06424,-0.04364,-0.04654,-0.05096,0.01099,0.0,0.08789,0.00046,0.01266,-0.04807,-0.01831,0.03799,-0.04822
10.674,0.01266,-0.05234,-0.06897,-0.06607,-0.03204,-0.04532,0.09949,0.01053,0.00076,0.07355,0.00122,-0.00122,-0.04852,-0.01877,0.03632,-0.04761
10.6745,0.00992,-0.03693,-0.06653,-0.06866,-0.02686,-0.0441,0.19608,0.00778,0.00214,0.06607,0.00046,-0.01907,-0.04868,-0.02045,0.03632,-0.04684
10.675,0.00717,-0.0264,-0.08514,-0.06699,-0.02869,-0.04456,0.14618,0.00244,0.00443,0.06271,-0.00015,-0.03403,-0.04929,-0.01984,0.03693,-0.04532
10.6755,0.00397,-0.0264,-0.13611,-0.0589,-0.03021,-0.04486,0.01373,-0.00458,0.00671,0.06729,0.00015,-0.03723,-0.0499,-0.01999,0.03662,-0.04303
10.676,0.00031,-0.03723,-0.20432,-0.05142,-0.03082,-0.04257,-0.08392,-0.01083,0.00687,0.10254,0.00046,-0.02747,-0.04852,-0.01801,0.03616,-0.04135
10.6765,-0.00198,-0.05402,-0.24963,-0.05402,-0.03082,-0.03799,-0.12802,-0.01526,0.00671,0.18005,0.00137,-0.01007,-0.04639,-0.01678,0.03632,-0.04028
10.677,-0.00076,-0.06836,-0.2417,-0.05997,-0.03311,-0.03403,-0.15472,-0.01511,0.00702,0.26443,0.00229,0.00854,-0.0444,-0.01602,0.03738,-0.03967
10.6775,0.00259,-0.0737,-0.18463,-0.05142,-0.03677,-0.03235,-0.14008,-0.00885,0.00885,0.29755,0.00183,0.02396,-0.04257,-0.0174,0.03799,-0.03845
10.678,0.00458,-0.06851,-0.11444,-0.02289,-0.03708,-0.03448,-0.03952,-0.00259,0.01221,0.2681,0.00015,0.03494,-0.04166,-0.01846,0.0383,-0.03769
10.6785,0.00198,-0.06027,-0.08057,0.0058,-0.03387,-0.03937,0.10696,-0.00214,0.01541,0.22339,-0.00061,0.04166,-0.04105,-0.01907,0.03601,-0.03784
10.679,-0.00595,-0.0563,-0.10345,0.01312,-0.02762,-0.04608,0.20676,-0.00595,0.01572,0.19821,-0.00015,0.05569,-0.03937,-0.0177,0.03357,-0.03693
10.6795,-0.01724,-0.05936,-0.13931,0.00153,-0.02258,-0.0531,0.22583,-0.00885,0.01389,0.19028,0.00061,0.09003,-0.03876,-0.01678,0.03082,-0.03662
10.68,-0.02884,-0.07126,-0.14008,-0.01236,-0.01892,-0.05707,0.19882,-0.00671,0.0119,0.17914,0.00046,0.13916,-0.03799,-0.01572,0.02991,-0.03616
10.6805,-0.03448,-0.09155,-0.12711,-0.02365,-0.01556,-0.05661,0.14862,-0.00153,0.01038,0.15808,-0.00031,0.17487,-0.03723,-0.01633,0.02792,-0.03693
10.681,-0.02975,-0.10941,-0.14389,-0.04288,-0.00671,-0.05463,0.08118,0.00443,0.01007,0.13412,-0.00046,0.17838,-0.03616,-0.01633,0.02609,-0.03708
10.6815,-0.01816,-0.11337,-0.16998,-0.07339,0.00839,-0.0499,0.02365,0.01083,0.01007,0.10803,-0.00015,0.16113,-0.03647,-0.01572,0.02411,-0.03708
10.682,-0.00763,-0.10178,-0.15259,-0.11002,0.03357,-0.04532,0.00458,0.01633,0.0116,0.08011,0.00031,0.14175,-0.0386,-0.01678,0.02426,-0.03616
10.6825,-0.00458,-0.0853,-0.08255,-0.14709,0.06378,-0.04303,0.01343,0.01755,0.01297,0.05157,-0.00046,0.12619,-0.03906,-0.01709,0.0235,-0.03525
10.683,-0.00687,-0.07309,-0.00595,-0.17792,0.08911,-0.0412,0.01938,0.01572,0.0119,0.02411,-0.00122,0.11017,-0.0383,-0.01678,0.02136,-0.03418
10.6835,-0.00961,-0.06317,0.03708,-0.18768,0.09933,-0.04211,0.01404,0.01297,0.00885,-0.00153,-0.00153,0.09933,-0.03708,-0.01633,0.01755,-0.03403
10.684,-0.01144,-0.0502,0.04929,-0.1709,0.09369,-0.04501,0.00641,0.01022,0.00671,-0.02457,-0.00214,0.09979,-0.03647,-0.01617,0.0148,-0.03311
10.6845,-0.01068,-0.03632,0.05402,-0.14725,0.08408,-0.04959,-0.00229,0.00595,0.00732,-0.04135,-0.00153,0.10468,-0.03632,-0.01678,0.01343,-0.03281
10.685,-0.009,-0.02472,0.05798,-0.13687,0.07736,-0.05432,-0.01526,-0.0032,0.00687,-0.05432,-0.00153,0.09811,-0.0351,-0.0177,0.01114,-0.03311
10.6855,-0.00626,-0.01938,0.05371,-0.12466,0.07202,-0.05844,-0.0296,-0.0119,0.00641,-0.06821,-0.00366,0.07721,-0.03571,-0.01923,0.00702,-0.03555
10.686,-0.0029,-0.01953,0.03555,-0.0705,0.05142,-0.06027,-0.03769,-0.01648,0.00641,-0.08698,-0.00504,0.05371,-0.0351,-0.01831,0.00458,-0.03784
10.6865,0.00183,-0.02136,0.01022,0.04013,0.00504,-0.0618,-0.0383,-0.01617,0.00641,-0.10544,-0.00702,0.03799,-0.03403,-0.01831,0.0032,-0.03906
10.687,0.00549,-0.01968,-0.01389,0.168,-0.05981,-0.06454,-0.0351,-0.01221,0.00595,-0.12131,-0.00656,0.03189,-0.03265,-0.01831,0.00259,-0.03876
10.6875,0.00732,-0.01587,-0.03067,0.24582,-0.11673,-0.0679,-0.03342,-0.00687,0.00504,-0.13184,-0.00595,0.02945,-0.03235,-0.01892,0.00153,-0.03799
10.688,0.00717,-0.01572,-0.03815,0.23315,-0.159,-0.07034,-0.03479,-0.00351,0.00488,-0.13962,-0.00687,0.02411,-0.03189,-0.01892,0.0,-0.03677
10.6885,0.00931,-0.02075,-0.03967,0.15823,-0.18967,-0.06821,-0.03662,-0.00122,0.00351,-0.14587,-0.00702,0.01694,-0.0322,-0.01938,-0.00122,-0.03662
10.689,0.01343,-0.0264,-0.04028,0.0946,-0.20248,-0.06058,-0.03906,0.0,0.00214,-0.14511,-0.00809,0.01266,-0.03281,-0.01923,-0.00137,-0.03647
10.6895,0.01755,-0.02747,-0.03738,0.08698,-0.18326,-0.04868,-0.04089,0.00061,0.00076,-0.12985,-0.009,0.01556,-0.03174,-0.0206,-0.00305,-0.03723
10.69,0.02045,-0.02274,-0.02838,0.11917,-0.14191,-0.0383,-0.04272,0.00153,0.00122,-0.10605,-0.00946,0.02243,-0.03113,-0.02136,-0.00671,-0.03586
10.6905,0.02075,-0.01862,-0.01373,0.14755,-0.10254,-0.03433,-0.04074,0.00168,0.00244,-0.08377,-0.009,0.02777,-0.0296,-0.01984,-0.00977,-0.03555
10.691,0.01862,-0.01816,-0.00595,0.14908,-0.07416,-0.03342,-0.03723,0.00092,0.0029,-0.07263,-0.00931,0.02655,-0.03021,-0.01709,-0.00992,-0.03616
10.6915,0.0145,-0.02151,-0.01282,0.12894,-0.04623,-0.03098,-0.03433,-0.00031,0.00229,-0.07477,-0.00885,0.01801,-0.03204,-0.01541,-0.00946,-0.03784
10.692,0.01175,-0.02731,-0.02975,0.09872,-0.01801,-0.02975,-0.03448,-0.00183,0.00198,-0.08835,-0.00854,0.00488,-0.03357,-0.01724,-0.0087,-0.03647
10.6925,0.0116,-0.03616,-0.04364,0.06775,0.00122,-0.03067,-0.03632,-0.00275,0.00244,-0.10773,-0.00961,-0.01175,-0.03433,-0.01907,-0.00885,-0.03464
10.693,0.01236,-0.04517,-0.04822,0.0441,0.00885,-0.03159,-0.03769,-0.0029,0.00336,-0.1123,-0.01038,-0.0296,-0.03326,-0.02075,-0.01038,-0.03296
10.6935,0.0119,-0.05081,-0.04669,0.02945,0.00793,-0.0322,-0.0386,-0.00275,0.00305,-0.0769,-0.00946,-0.04974,-0.03265,-0.02075,-0.009,-0.03296
10.694,0.01129,-0.0531,-0.03937,0.02182,-0.00381,-0.0325,-0.03769,-0.00305,0.00153,-0.00214,-0.01099,-0.0676,-0.03265,-0.02014,-0.00641,-0.03296
10.6945,0.01221,-0.05432,-0.01999,0.01541,-0.02869,-0.03479,-0.03525,-0.00427,-0.00153,0.07263,-0.01236,-0.08133,-0.03281,-0.0206,-0.00473,-0.03265
10.695,0.01373,-0.05478,0.00702,0.00717,-0.05692,-0.04196,-0.03281,-0.00748,-0.00488,0.10605,-0.0145,-0.09247,-0.03159,-0.02182,-0.0058,-0.03021
10.6955,0.01328,-0.056,0.0267,-0.00305,-0.08209,-0.05157,-0.03113,-0.01114,-0.00748,0.09338,-0.01541,-0.10666,-0.03143,-0.02319,-0.0087,-0.03006
10.696,0.01175,-0.05661,0.02808,-0.01358,-0.10422,-0.05692,-0.03098,-0.01266,-0.009,0.05829,-0.01526,-0.12665,-0.03265,-0.0235,-0.01068,-0.03098
10.6965,0.01038,-0.05569,0.01648,-0.01999,-0.11414,-0.05463,-0.03143,-0.0119,-0.00931,0.02274,-0.01572,-0.14923,-0.03372,-0.02365,-0.01099,-0.03418
10.697,0.01068,-0.05417,0.00534,-0.02197,-0.09613,-0.04517,-0.03128,-0.01068,-0.00992,-0.00244,-0.0174,-0.16129,-0.03311,-0.02365,-0.01053,-0.03738
10.6975,0.01266,-0.05325,0.00214,-0.02258,-0.056,-0.03464,-0.03006,-0.0116,-0.01022,-0.0148,-0.01938,-0.15808,-0.03113,-0.02258,-0.01114,-0.03952
10.698,0.01602,-0.0528,0.00412,-0.02609,-0.02884,-0.02716,-0.02945,-0.01373,-0.0116,-0.02014,-0.02075,-0.14938,-0.0293,-0.02228,-0.0119,-0.03937
10.6985,0.02029,-0.05173,0.0061,-0.03296,-0.03983,-0.02365,-0.0296,-0.01434,-0.01328,-0.02289,-0.02167,-0.1503,-0.0293,-0.02213,-0.01328,-0.03845
10.699,0.02411,-0.04898,0.00687,-0.03738,-0.07416,-0.0264,-0.03036,-0.01358,-0.01465,-0.03128,-0.02243,-0.16449,-0.03021,-0.02304,-0.01419,-0.03662
10.6995,0.02777,-0.04684,0.00809,-0.03906,-0.09598,-0.03098,-0.02869,-0.01007,-0.01526,-0.04379,-0.02289,-0.17944,-0.03067,-0.02365,-0.01373,-0.0354
10.7,0.03113,-0.04501,0.00961,-0.04166,-0.09079,-0.0325,-0.02396,-0.00549,-0.01511,-0.05875,-0.0235,-0.17883,-0.03036,-0.0235,-0.01236,-0.03525
10.7005,0.03281,-0.04517,0.00946,-0.04639,-0.0766,-0.02975,-0.02121,-0.00259,-0.01556,-0.06958,-0.02304,-0.1622,-0.02914,-0.02289,-0.01312,-0.03677
10.701,0.03311,-0.04608,0.00961,-0.0499,-0.07446,-0.02411,-0.02121,-0.00427,-0.01755,-0.07507,-0.02213,-0.13947,-0.02899,-0.02319,-0.01556,-0.03845
10.7015,0.03235,-0.04608,0.0087,-0.04791,-0.08423,-0.02136,-0.01984,-0.0087,-0.01801,-0.0798,-0.02121,-0.12604,-0.02853,-0.02426,-0.01846,-0.03937
10.702,0.03189,-0.04425,0.00824,-0.03906,-0.0914,-0.02213,-0.01724,-0.01038,-0.01938,-0.08987,-0.01999,-0.12283,-0.02808,-0.02548,-0.01907,-0.03952
10.7025,0.03021,-0.04196,0.00839,-0.0264,-0.08499,-0.02533,-0.0145,-0.00732,-0.0206,-0.1004,-0.02106,-0.1181,-0.02716,-0.02441,-0.01801,-0.04105
10.703,0.02747,-0.03815,0.01083,-0.01282,-0.06653,-0.02533,-0.01328,-0.00183,-0.02106,-0.10712,-0.02304,-0.0946,-0.02731,-0.02136,-0.01724,-0.04181
10.7035,0.02686,-0.03464,0.01434,-0.00122,-0.04196,-0.02579,-0.01312,0.00122,-0.02014,-0.11414,-0.02411,-0.05783,-0.02808,-0.01999,-0.01724,-0.04303
10.704,0.0267,-0.03342,0.01831,0.00412,-0.02304,-0.02747,-0.01251,0.00092,-0.02014,-0.12222,-0.02304,-0.03387,-0.02869,-0.01999,-0.01801,-0.0441
10.7045,0.0267,-0.03326,0.01938,0.00153,-0.01572,-0.03189,-0.01175,0.00092,-0.0206,-0.13184,-0.02258,-0.03967,-0.03021,-0.0209,-0.01984,-0.04517
10.705,0.02625,-0.0325,0.0174,-0.009,-0.01541,-0.03708,-0.01129,0.00229,-0.02228,-0.13824,-0.02304,-0.05753,-0.03265,-0.02304,-0.01968,-0.04608
10.7055,0.02563,-0.02655,0.01434,-0.02487,-0.01236,-0.03937,-0.0119,0.0058,-0.02472,-0.14435,-0.02533,-0.06104,-0.03342,-0.0238,-0.0206,-0.04776
10.706,0.02533,-0.01709,0.01129,-0.0412,-0.00748,-0.03998,-0.01343,0.00824,-0.0264,-0.1535,-0.02731,-0.05142,-0.03342,-0.02304,-0.02106,-0.04868
10.7065,0.02472,-0.00931,0.00748,-0.05371,-0.00381,-0.04089,-0.01648,0.00885,-0.02701,-0.16388,-0.02853,-0.04791,-0.03204,-0.02167,-0.02289,-0.04837
10.707,0.02335,-0.00565,0.00351,-0.06134,-0.00168,-0.04333,-0.01846,0.00763,-0.02701,-0.17181,-0.02823,-0.05646,-0.03098,-0.02029,-0.02304,-0.04791
10.7075,0.01953,-0.00641,0.00046,-0.06271,-0.00092,-0.04501,-0.01892,0.00732,-0.02579,-0.17548,-0.02884,-0.06317,-0.03021,-0.01953,-0.02151,-0.04868
10.708,0.01602,-0.00504,0.00305,-0.06104,0.00061,-0.04593,-0.01816,0.00916,-0.02563,-0.17822,-0.02777,-0.05936,-0.03067,-0.01938,-0.0209,-0.0502
10.7085,0.0145,-0.00183,0.01022,-0.06149,0.00229,-0.04669,-0.01602,0.00992,-0.02533,-0.18478,-0.02701,-0.04883,-0.03128,-0.02014,-0.01984,-0.04974
10.709,0.01617,-0.00031,0.01816,-0.06836,0.00443,-0.0473,-0.01434,0.00671,-0.02502,-0.19272,-0.0264,-0.03845,-0.03372,-0.0209,-0.01968,-0.04868
10.7095,0.01663,0.00244,0.01999,-0.07584,0.00702,-0.04745,-0.01282,0.00122,-0.02441,-0.20142,-0.02686,-0.03052,-0.03601,-0.02106,-0.01907,-0.04745
10.71,0.01328,0.01068,0.01434,-0.07507,0.01083,-0.04501,-0.01175,-0.00153,-0.02548,-0.20752,-0.02792,-0.0238,-0.03616,-0.0209,-0.01801,-0.04608
10.7105,0.00748,0.0148,0.00244,-0.065,0.01282,-0.04318,-0.01038,-0.00092,-0.02701,-0.21057,-0.02838,-0.01953,-0.03494,-0.02045,-0.01587,-0.04623
10.711,0.00412,-0.00229,-0.01465,-0.05096,0.01556,-0.04471,-0.00656,-0.00107,-0.02777,-0.21149,-0.02914,-0.01556,-0.03418,-0.01923,-0.01236,-0.047
10.7115,0.00259,-0.04318,-0.02808,-0.03601,0.02182,-0.04837,-0.00214,-0.00763,-0.02777,-0.21332,-0.03006,-0.00931,-0.03403,-0.01831,-0.00885,-0.04822
10.712,0.00046,-0.08667,-0.03403,-0.01923,0.03265,-0.04944,0.00046,-0.01953,-0.02686,-0.21637,-0.03067,-0.00122,-0.03464,-0.01877,-0.00793,-0.04745
10.7125,-0.00336,-0.11108,-0.03326,-0.00473,0.04333,-0.04913,-0.00031,-0.02655,-0.02625,-0.21957,-0.03143,0.00488,-0.03448,-0.01816,-0.00778,-0.04608
10.713,-0.00687,-0.11139,-0.03006,0.00244,0.05219,-0.04974,-0.00412,-0.02029,-0.02594,-0.21927,-0.03159,0.00778,-0.03342,-0.01907,-0.00763,-0.04486
10.7135,-0.01007,-0.103,-0.02777,0.00259,0.06027,-0.05112,-0.00824,-0.00488,-0.02426,-0.21835,-0.0322,0.01099,-0.03189,-0.01923,-0.00641,-0.04578
10.714,-0.01297,-0.09537,-0.0264,0.00137,0.07385,-0.05249,-0.01068,0.0058,-0.02136,-0.21606,-0.0322,0.01831,-0.03204,-0.01968,-0.00732,-0.04654
10.7145,-0.01678,-0.08911,-0.02625,0.0,0.09354,-0.05341,-0.01007,-0.00275,-0.01984,-0.2121,-0.03143,0.02823,-0.03082,-0.02121,-0.00748,-0.04837
10.715,-0.01907,-0.08194,-0.02808,-0.00381,0.10727,-0.05386,-0.00809,-0.02594,-0.02014,-0.20615,-0.03067,0.0322,-0.0293,-0.02304,-0.00732,-0.0502
10.7155,-0.01709,-0.07446,-0.02884,-0.01373,0.10254,-0.05539,-0.00854,-0.0412,-0.02136,-0.20386,-0.02991,0.02762,-0.03098,-0.02441,-0.0061,-0.05127
10.716,-0.01236,-0.06882,-0.02838,-0.02838,0.0766,-0.05783,-0.00977,-0.03418,-0.02151,-0.20325,-0.0293,0.02121,-0.03189,-0.02563,-0.00427,-0.05173
10.7165,-0.00809,-0.06393,-0.02792,-0.03525,0.03464,-0.0618,-0.00992,-0.02243,-0.02121,-0.20416,-0.03021,0.01526,-0.03235,-0.02609,-0.00198,-0.05066
10.717,-0.00595,-0.06119,-0.02914,-0.02853,-0.01358,-0.06561,-0.00793,-0.02518,-0.0206,-0.20142,-0.03128,0.01144,-0.03067,-0.02518,-0.00092,-0.04959
10.7175,-0.00381,-0.0618,-0.03174,-0.01572,-0.06058,-0.06897,-0.00763,-0.04028,-0.0206,-0.19516,-0.03189,0.0058,-0.02914,-0.02289,0.00092,-0.04822
10.718,0.00031,-0.06409,-0.03555,-0.00946,-0.10239,-0.07004,-0.01038,-0.05234,-0.02014,-0.186,-0.03128,-0.0032,-0.02808,-0.02228,0.00259,-0.04761
10.7185,0.0058,-0.065,-0.03525,-0.0145,-0.14267,-0.06851,-0.01312,-0.06256,-0.01953,-0.17914,-0.03052,-0.01266,-0.02838,-0.02274,0.00458,-0.04868
10.719,0.00977,-0.05875,-0.02594,-0.02411,-0.18417,-0.06699,-0.01266,-0.07111,-0.01984,-0.17426,-0.02975,-0.02075,-0.02884,-0.02243,0.00549,-0.04898
10.7195,0.01129,-0.04807,-0.00839,-0.03403,-0.21271,-0.06378,-0.01083,-0.05997,-0.01968,-0.16907,-0.02914,-0.02396,-0.02884,-0.02167,0.00656,-0.04852
10.72,0.01389,-0.03784,0.00519,-0.04379,-0.20599,-0.06027,-0.01129,-0.01587,-0.01984,-0.16129,-0.02838,-0.01968,-0.02792,-0.02197,0.00961,-0.04669
10.7205,0.01755,-0.03098,0.00824,-0.05219,-0.16464,-0.05386,-0.01465,0.0386,-0.02106,-0.15289,-0.02823,-0.00885,-0.02777,-0.02274,0.00931,-0.04608
10.721,0.0209,-0.02609,0.00641,-0.05371,-0.11322,-0.04868,-0.01862,0.06622,-0.02228,-0.14542,-0.02899,0.00168,-0.02823,-0.0238,0.00763,-0.04623
10.7215,0.02213,-0.02182,0.00351,-0.03998,-0.07706,-0.04349,-0.02274,0.06134,-0.02274,-0.13824,-0.02945,0.00961,-0.02808,-0.02457,0.00534,-0.04578
10.722,0.02045,-0.01816,0.00183,-0.01282,-0.06058,-0.04028,-0.02243,0.05661,-0.02243,-0.13153,-0.03082,0.01465,-0.02792,-0.02335,0.0058,-0.04456
10.7225,0.01556,-0.01785,-0.00061,0.0174,-0.0528,-0.0383,-0.01816,0.07965,-0.02396,-0.12527,-0.03174,0.02029,-0.02869,-0.02319,0.00793,-0.04425
10.723,0.0119,-0.02167,-0.0029,0.03448,-0.04562,-0.03754,-0.01541,0.11765,-0.02518,-0.12146,-0.03174,0.03006,-0.03067,-0.02289,0.00977,-0.04501
10.7235,0.00961,-0.02686,-0.00534,0.03494,-0.04196,-0.03891,-0.01465,0.1384,-0.02579,-0.1178,-0.03036,0.04303,-0.03036,-0.02304,0.01144,-0.04501
10.724,0.01099,-0.03342,-0.0058,0.03189,-0.04211,-0.03967,-0.01694,0.12115,-0.02548,-0.11322,-0.02945,0.0528,-0.02838,-0.02319,0.01251,-0.04517
10.7245,0.01343,-0.04044,-0.00732,0.04257,-0.04013,-0.03952,-0.01968,0.07339,-0.02533,-0.10986,-0.02914,0.05264,-0.02686,-0.02441,0.01404,-0.04715
10.725,0.01541,-0.04837,-0.00732,0.06683,-0.03815,-0.03632,-0.0209,0.01862,-0.02594,-0.10788,-0.02914,0.04257,-0.02869,-0.02472,0.01511,-0.04913
10.7255,0.01404,-0.05478,0.00015,0.08881,-0.03555,-0.03387,-0.02075,-0.02258,-0.02716,-0.10513,-0.02838,0.03296,-0.03189,-0.02274,0.0145,-0.05066
10.726,0.01022,-0.05646,0.01129,0.10223,-0.03494,-0.03296,-0.0206,-0.04349,-0.02655,-0.1001,-0.02747,0.02884,-0.03311,-0.02014,0.01373,-0.05051
10.7265,0.00549,-0.05417,0.01572,0.10544,-0.03128,-0.03464,-0.01938,-0.04944,-0.02625,-0.09415,-0.0267,0.03143,-0.03204,-0.01862,0.01312,-0.05127
10.727,0.00381,-0.05188,0.00473,0.09811,-0.02502,-0.03677,-0.01877,-0.04593,-0.02594,-0.08835,-0.02609,0.03326,-0.03128,-0.01862,0.01434,-0.05112
10.7275,0.00397,-0.05096,-0.01587,0.08362,-0.01938,-0.04013,-0.01862,-0.03479,-0.02731,-0.0824,-0.02426,0.03296,-0.03067,-0.02029,0.0145,-0.05112
10.728,0.00443,-0.05051,-0.03418,0.07584,-0.01602,-0.04654,-0.01648,-0.01953,-0.02777,-0.07629,-0.02243,0.03143,-0.02991,-0.02167,0.01389,-0.05051
10.7285,0.0029,-0.05081,-0.04639,0.08469,-0.01434,-0.0528,-0.01266,-0.00793,-0.02686,-0.07217,-0.02228,0.03128,-0.0296,-0.02258,0.01358,-0.04974
10.729,0.00015,-0.05005,-0.05264,0.09888,-0.00961,-0.0563,-0.00824,-0.00244,-0.02655,-0.07004,-0.02304,0.03265,-0.0293,-0.02136,0.01526,-0.04868
10.7295,-0.00183,-0.04669,-0.05676,0.10391,-0.00198,-0.05539,-0.00549,0.00702,-0.02533,-0.06561,-0.02289,0.03418,-0.02853,-0.01953,0.01663,-0.04791
10.73,-0.00198,-0.04211,-0.06042,0.0972,0.00214,-0.05386,-0.00458,0.0296,-0.02335,-0.05829,-0.02121,0.03586,-0.0267,-0.01755,0.01816,-0.04669
10.7305,-0.00092,-0.03632,-0.06302,0.08759,0.00229,-0.05295,-0.00458,0.05646,-0.02182,-0.05051,-0.01892,0.03891,-0.0267,-0.01785,0.01724,-0.04593
10.731,-0.00046,-0.02991,-0.06516,0.07751,0.00229,-0.05264,-0.00458,0.06104,-0.02182,-0.04135,-0.01862,0.04288,-0.02838,-0.01663,0.01434,-0.04578
10.7315,-0.00168,-0.02365,-0.06958,0.06973,0.01221,-0.05188,-0.0029,0.02945,-0.02197,-0.03189,-0.01984,0.04608,-0.0296,-0.01602,0.0116,-0.04623
10.732,-0.00122,-0.01999,-0.07431,0.06683,0.03448,-0.05127,-0.00046,-0.0206,-0.02289,-0.02213,-0.02045,0.04715,-0.0293,-0.01709,0.01053,-0.04669
10.7325,0.00153,-0.02182,-0.07751,0.07355,0.05539,-0.05173,0.00122,-0.05951,-0.0235,-0.01358,-0.02029,0.0473,-0.02762,-0.0177,0.00977,-0.04608
10.733,0.00687,-0.02777,-0.07614,0.08698,0.06332,-0.05325,-0.00061,-0.07523,-0.02411,-0.0058,-0.01968,0.04715,-0.02777,-0.0177,0.0087,-0.04639
10.7335,0.01114,-0.03326,-0.07065,0.09979,0.05844,-0.05493,-0.00565,-0.07141,-0.02487,0.00137,-0.01877,0.0473,-0.0293,-0.01633,0.00778,-0.04639
10.734,0.01266,-0.03494,-0.06317,0.10696,0.05066,-0.05829,-0.0087,-0.05951,-0.02472,0.00793,-0.01923,0.04684,-0.03052,-0.01587,0.00793,-0.04578
10.7345,0.01251,-0.03662,-0.05753,0.10941,0.0386,-0.06393,-0.009,-0.05081,-0.02289,0.01465,-0.01999,0.04532,-0.03113,-0.0174,0.00839,-0.04501
10.735,0.01129,-0.04059,-0.05539,0.10834,0.01511,-0.07187,-0.00549,-0.05524,-0.02136,0.02045,-0.02029,0.04364,-0.03021,-0.01831,0.00793,-0.04227
10.7355,0.00809,-0.04593,-0.05371,0.10742,-0.01892,-0.07736,-0.00259,-0.07111,-0.02014,0.02762,-0.01907,0.04135,-0.03006,-0.0177,0.00641,-0.04135
10.736,0.00244,-0.04837,-0.05096,0.11017,-0.05096,-0.07782,-0.00122,-0.08163,-0.01984,0.03525,-0.01709,0.03876,-0.02991,-0.01633,0.00641,-0.04044
10.7365,-0.00275,-0.04623,-0.04745,0.1181,-0.07172,-0.07446,-0.00031,-0.07095,-0.0209,0.03906,-0.01526,0.03555,-0.02991,-0.01495,0.00671,-0.04181
10.737,-0.00641,-0.0412,-0.047,0.12527,-0.08224,-0.07004,0.00076,-0.05066,-0.02121,0.03403,-0.0148,0.03235,-0.02991,-0.0148,0.0058,-0.04303
10.7375,-0.00854,-0.03769,-0.05081,0.12131,-0.0856,-0.06821,0.00244,-0.0531,-0.02014,0.0235,-0.01419,0.02975,-0.02945,-0.01587,0.00412,-0.04349
10.738,-0.00748,-0.03677,-0.05737,0.10605,-0.09033,-0.06622,0.00504,-0.10239,-0.01801,0.01648,-0.01419,0.02716,-0.02853,-0.01709,0.00259,-0.04364
10.7385,-0.00305,-0.0444,-0.06393,0.08987,-0.10086,-0.06378,0.00778,-0.18768,-0.01495,0.01984,-0.01328,0.02365,-0.02792,-0.01709,0.00198,-0.04333
10.739,0.00351,-0.06226,-0.06989,0.08148,-0.11749,-0.05844,0.00839,-0.26611,-0.0145,0.02563,-0.01373,0.01938,-0.02808,-0.01663,0.00275,-0.04272
10.7395,0.00992,-0.07919,-0.07813,0.0769,-0.13229,-0.0499,0.00748,-0.28122,-0.01541,0.02655,-0.01434,0.01556,-0.02808,-0.01556,0.00305,-0.04257
10.74,0.01526,-0.08087,-0.08636,0.06882,-0.13458,-0.0412,0.00549,-0.19714,-0.01556,0.01816,-0.01343,0.01434,-0.02747,-0.01602,0.00153,-0.04196
10.7405,0.01709,-0.06592,-0.08881,0.05646,-0.12375,-0.03479,0.00381,-0.02899,-0.01587,0.00702,-0.01205,0.01511,-0.02762,-0.01602,0.00107,-0.04013
10.741,0.01724,-0.04761,-0.08286,0.04684,-0.10376,-0.0322,0.00198,0.14832,-0.01587,-0.0032,-0.0116,0.01465,-0.02991,-0.01633,0.00015,-0.03952
10.7415,0.01602,-0.03616,-0.07446,0.04425,-0.07874,-0.03174,-0.00137,0.25772,-0.01694,-0.01038,-0.01251,0.01236,-0.03067,-0.01663,-0.00122,-0.03922
10.742,0.01434,-0.03159,-0.06744,0.04715,-0.05371,-0.03174,-0.00519,0.26581,-0.01678,-0.0145,-0.01297,0.00763,-0.03021,-0.01556,-0.00198,-0.03967
10.7425,0.01251,-0.02609,-0.06485,0.0499,-0.03586,-0.03113,-0.0119,0.19577,-0.01556,-0.01053,-0.01266,0.0032,-0.02945,-0.01511,-0.0058,-0.04013
10.743,0.00961,-0.01816,-0.0618,0.047,-0.02945,-0.03265,-0.02075,0.10452,-0.01572,0.00137,-0.01221,0.0,-0.03006,-0.01495,-0.00793,-0.03906
10.7435,0.00763,-0.00931,-0.05508,0.04135,-0.02945,-0.03708,-0.02884,0.03708,-0.01572,0.0209,-0.0119,-0.00244,-0.02945,-0.01556,-0.00702,-0.0386
10.744,0.00488,-0.00153,-0.04242,0.03754,-0.03098,-0.0441,-0.03174,0.00183,-0.01526,0.03983,-0.01205,-0.00504,-0.03021,-0.01511,-0.00534,-0.03906
10.7445,0.00015,0.00443,-0.02838,0.03693,-0.03052,-0.04913,-0.03372,-0.01282,-0.01358,0.05005,-0.01007,-0.0058,-0.03067,-0.0148,-0.00336,-0.04074
10.745,-0.00687,0.009,-0.02045,0.03555,-0.0296,-0.05157,-0.03632,-0.01083,-0.01266,0.04333,-0.0087,-0.00778,-0.03067,-0.01389,-0.00412,-0.0415
10.7455,-0.01282,0.01022,-0.02106,0.03036,-0.02838,-0.05051,-0.0383,0.01175,-0.01343,0.02426,-0.00931,-0.01083,-0.0322,-0.0145,-0.00214,-0.04135
10.746,-0.01633,0.00748,-0.02731,0.02548,-0.0264,-0.05081,-0.0383,0.03784,-0.01587,0.00305,-0.01053,-0.01526,-0.03357,-0.01663,-0.00443,-0.04074
10.7465,-0.01587,-0.00153,-0.03647,0.02441,-0.02335,-0.0531,-0.03494,0.0444,-0.01587,-0.01083,-0.01068,-0.01831,-0.03403,-0.01801,-0.00732,-0.04059
10.747,-0.0148,-0.01541,-0.04669,0.02808,-0.0209,-0.05447,-0.03036,0.03555,-0.01404,-0.01831,-0.01038,-0.02136,-0.03342,-0.01877,-0.00961,-0.04074
10.7475,-0.01419,-0.02686,-0.05676,0.03174,-0.01831,-0.05356,-0.0264,0.0325,-0.0119,-0.0238,-0.00946,-0.02411,-0.03464,-0.01968,-0.01038,-0.0415
10.748,-0.01663,-0.0293,-0.06058,0.03143,-0.01633,-0.05341,-0.02319,0.03983,-0.01038,-0.02884,-0.01038,-0.02625,-0.0354,-0.02014,-0.00916,-0.0412
10.7485,-0.01877,-0.02304,-0.0621,0.03082,-0.0148,-0.05432,-0.02121,0.04898,-0.00946,-0.02731,-0.00961,-0.02594,-0.03723,-0.02075,-0.00732,-0.04028
10.749,-0.01862,-0.01541,-0.06531,0.03601,-0.01373,-0.05447,-0.02075,0.06577,-0.00961,-0.01648,-0.00854,-0.02487,-0.0386,-0.01999,-0.00748,-0.03983
10.7495,-0.01602,-0.01129,-0.07172,0.04684,-0.01053,-0.05539,-0.01968,0.09781,-0.01038,-0.00427,-0.00854,-0.02441,-0.03998,-0.01907,-0.00793,-0.04044
10.75,-0.01419,-0.0116,-0.07645,0.05585,-0.00687,-0.05661,-0.0177,0.13107,-0.01083,-0.00565,-0.00885,-0.0238,-0.03937,-0.01801,-0.00748,-0.04089
10.7505,-0.01328,-0.01434,-0.07874,0.05814,-0.00427,-0.05737,-0.01633,0.13763,-0.01038,-0.02258,-0.00931,-0.02487,-0.0383,-0.0174,-0.00687,-0.04013
10.751,-0.01144,-0.01968,-0.07706,0.05692,-0.00412,-0.05722,-0.01541,0.10666,-0.00977,-0.05173,-0.0087,-0.02502,-0.03754,-0.01755,-0.00824,-0.03876
10.7515,-0.00763,-0.02502,-0.07004,0.05707,-0.00275,-0.05753,-0.0145,0.05692,-0.00977,-0.08118,-0.00763,-0.02594,-0.03693,-0.01938,-0.00839,-0.03891
10.752,-0.00458,-0.02975,-0.06226,0.0589,-0.0032,-0.05722,-0.0145,0.00961,-0.00977,-0.10681,-0.00793,-0.02731,-0.03571,-0.01999,-0.00961,-0.03876
10.7525,-0.00153,-0.03418,-0.05829,0.0589,-0.00259,-0.05798,-0.01587,-0.0238,-0.01068,-0.13672,-0.0087,-0.02777,-0.03555,-0.01953,-0.00916,-0.03876
10.753,0.00061,-0.03967,-0.05844,0.05112,-0.00443,-0.056,-0.01663,-0.03891,-0.01358,-0.16434,-0.01007,-0.02838,-0.03433,-0.0177,-0.01068,-0.03906
10.7535,0.0029,-0.04608,-0.05875,0.03662,-0.00519,-0.05539,-0.01678,-0.0351,-0.01419,-0.18082,-0.01114,-0.02884,-0.03403,-0.01678,-0.01175,-0.03998
10.754,0.00427,-0.05035,-0.05936,0.0174,-0.00504,-0.056,-0.0174,-0.0296,-0.01205,-0.18402,-0.01053,-0.02975,-0.0325,-0.01633,-0.00885,-0.04089
10.7545,0.00656,-0.05188,-0.05325,-0.00046,-0.00565,-0.05722,-0.01877,-0.04013,-0.00992,-0.18127,-0.01083,-0.03235,-0.03143,-0.01526,-0.00977,-0.04074
10.755,0.00824,-0.04913,-0.04715,-0.01373,-0.00824,-0.05722,-0.01999,-0.06638,-0.00946,-0.17776,-0.01114,-0.03769,-0.03128,-0.01495,-0.00793,-0.04105
10.7555,0.00961,-0.0441,-0.03998,-0.02274,-0.0116,-0.05692,-0.01953,-0.0882,-0.00885,-0.16937,-0.01144,-0.04288,-0.03174,-0.01556,-0.00549,-0.04303
10.756,0.01053,-0.03891,-0.03174,-0.0296,-0.01114,-0.05569,-0.0174,-0.09964,-0.00885,-0.15244,-0.01144,-0.04364,-0.03204,-0.01755,-0.00366,-0.04395
10.7565,0.00916,-0.03784,-0.02975,-0.03494,-0.00504,-0.05508,-0.01495,-0.10498,-0.00931,-0.13077,-0.01114,-0.04013,-0.03174,-0.01801,-0.00229,-0.04318
10.757,0.00565,-0.03922,-0.02777,-0.03876,0.00183,-0.05753,-0.01343,-0.09903,-0.01129,-0.11017,-0.01038,-0.03632,-0.03021,-0.01648,-0.00229,-0.04257
10.7575,0.00092,-0.04303,-0.02914,-0.04044,0.00626,-0.06073,-0.01236,-0.06958,-0.0119,-0.09079,-0.00992,-0.03387,-0.02991,-0.01617,-0.00198,-0.04257
10.758,-0.00214,-0.0444,-0.03098,-0.04242,0.00839,-0.06439,-0.01083,-0.03693,-0.01083,-0.07065,-0.00916,-0.03143,-0.03036,-0.01648,-0.00458,-0.04349
10.7585,-0.00351,-0.04227,-0.03326,-0.04654,0.00717,-0.06546,-0.00885,-0.03494,-0.00992,-0.0499,-0.0087,-0.02731,-0.02975,-0.0174,-0.00488,-0.04349
10.759,-0.0029,-0.03998,-0.0354,-0.0502,0.00549,-0.06607,-0.00717,-0.07065,-0.00961,-0.03235,-0.00946,-0.0209,-0.02899,-0.01831,-0.00336,-0.04196
10.7595,-0.00153,-0.03815,-0.03433,-0.04623,0.00244,-0.0679,-0.00412,-0.1059,-0.01007,-0.01526,-0.00961,-0.01556,-0.0293,-0.01831,-0.00107,-0.04181
10.76,-0.00168,-0.03952,-0.03418,-0.03693,-0.00107,-0.0679,0.0,-0.10635,-0.009,0.0029,-0.00839,-0.0145,-0.0293,-0.01862,0.0029,-0.04303
10.7605,-0.00488,-0.04303,-0.03647,-0.02701,-0.00626,-0.07019,0.00198,-0.06683,-0.00656,0.0235,-0.00793,-0.01892,-0.03098,-0.01907,0.00458,-0.0444
