time,RectFemL,VastusMedL,VastusLatL,TibAntL,HamMedL,HamLatL,GastroMedL,GastroLatL,RectFemR,VastusMedR,VastusLatR,TibAntR,HamMedR,HamLatR,GastroMedR,GastroLatR
5.1,-0.00198,-0.08194,0.02228,-0.03708,-0.02533,-0.04852,-0.0119,-0.00244,-0.01144,0.01556,-0.00992,-0.02136,-0.03143,-0.01312,0.01022,-0.0354
5.1005,-0.00168,-0.11444,0.03357,-0.04776,-0.02594,-0.04913,-0.0116,-0.00244,-0.01328,0.01587,-0.00351,-0.01404,-0.03159,-0.01251,0.01129,-0.03479
5.101,-0.00275,-0.13184,0.0264,-0.0502,-0.02686,-0.04837,-0.01022,-0.0032,-0.01617,0.01587,0.00107,0.00275,-0.03174,-0.01266,0.01038,-0.0354
5.1015,-0.00427,-0.11322,0.00946,-0.04105,-0.02747,-0.04639,-0.01038,-0.00336,-0.01892,0.01709,0.00168,0.04684,-0.03265,-0.01328,0.00824,-0.03784
5.102,-0.00519,-0.06622,-0.00977,-0.02701,-0.02914,-0.04608,-0.0119,-0.0032,-0.0209,0.01648,-0.00198,0.09323,-0.03372,-0.01495,0.0061,-0.04135
5.1025,-0.0058,-0.02075,-0.02518,-0.0148,-0.03021,-0.04654,-0.01312,-0.0032,-0.02319,0.01541,-0.009,0.103,-0.03296,-0.01724,0.00412,-0.0441
5.103,-0.00504,0.00061,-0.03754,-0.00458,-0.03159,-0.04623,-0.01312,-0.00412,-0.02594,0.01328,-0.01602,0.07446,-0.03311,-0.01785,0.00412,-0.04425
5.1035,-0.00458,0.00244,-0.04196,0.0032,-0.03159,-0.04639,-0.0119,-0.0058,-0.02731,0.0087,-0.01846,0.04211,-0.03357,-0.01846,0.00519,-0.04288
5.104,-0.00473,-0.00381,-0.03571,0.00397,-0.03159,-0.04532,-0.01144,-0.00565,-0.02701,-0.0029,-0.0206,0.03326,-0.03387,-0.01984,0.0058,-0.04257
5.1045,-0.00626,-0.00946,-0.03036,-0.00504,-0.03189,-0.04593,-0.01282,-0.00427,-0.02655,-0.02213,-0.02396,0.03906,-0.03311,-0.01968,0.00458,-0.04272
5.105,-0.00702,-0.01389,-0.03571,-0.01694,-0.03281,-0.04532,-0.01373,-0.0029,-0.02457,-0.04318,-0.02899,0.03983,-0.0322,-0.01892,0.00351,-0.04318
5.1055,-0.00885,-0.02151,-0.04929,-0.02167,-0.03387,-0.04684,-0.01312,-0.0029,-0.02243,-0.05188,-0.0325,0.02823,-0.0322,-0.01709,0.00397,-0.04349
5.106,-0.01144,-0.03052,-0.06134,-0.02014,-0.03571,-0.04776,-0.01251,-0.00336,-0.02121,-0.04379,-0.03265,0.01236,-0.03174,-0.0174,0.00381,-0.04349
5.1065,-0.01343,-0.03601,-0.06958,-0.01831,-0.03708,-0.04761,-0.01328,-0.0032,-0.02228,-0.02655,-0.0322,0.00092,-0.03128,-0.01846,0.00397,-0.04318
5.107,-0.01328,-0.03677,-0.07645,-0.01678,-0.03876,-0.04684,-0.01495,-0.00336,-0.02487,-0.01282,-0.0351,-0.00717,-0.03082,-0.02014,0.00336,-0.04211
5.1075,-0.01282,-0.0351,-0.08301,-0.01465,-0.03998,-0.04684,-0.0148,-0.00443,-0.02655,-0.00885,-0.03998,-0.01785,-0.03143,-0.02151,0.00458,-0.04135
5.108,-0.01312,-0.03525,-0.08469,-0.01129,-0.03983,-0.04761,-0.0145,-0.00534,-0.02655,-0.0119,-0.04318,-0.03143,-0.03265,-0.02274,0.0061,-0.04196
5.1085,-0.01205,-0.03784,-0.08255,-0.00946,-0.03967,-0.04852,-0.01328,-0.00519,-0.02533,-0.0174,-0.04257,-0.04059,-0.03311,-0.02441,0.00778,-0.04227
5.109,-0.01007,-0.03845,-0.0795,-0.0087,-0.04059,-0.04959,-0.01312,-0.00488,-0.02304,-0.0235,-0.03998,-0.03693,-0.03128,-0.02487,0.00809,-0.04211
5.1095,-0.00839,-0.03647,-0.07584,-0.00656,-0.04181,-0.0502,-0.01282,-0.00427,-0.02136,-0.02991,-0.03693,-0.01938,-0.02914,-0.02472,0.00809,-0.04272
5.11,-0.00778,-0.03311,-0.07294,-0.00183,-0.04211,-0.0499,-0.01114,-0.00473,-0.01953,-0.03494,-0.03448,0.00488,-0.02777,-0.02365,0.00885,-0.04272
5.1105,-0.00671,-0.03403,-0.06958,0.00534,-0.03983,-0.0499,-0.01221,-0.00381,-0.01816,-0.03708,-0.03159,0.02441,-0.02853,-0.02457,0.00916,-0.04257
5.111,-0.00458,-0.03845,-0.06592,0.01511,-0.03754,-0.04913,-0.01373,-0.0032,-0.01434,-0.03708,-0.02609,0.03067,-0.02853,-0.02533,0.00992,-0.04105
5.1115,-0.00275,-0.04166,-0.06134,0.02533,-0.03647,-0.04807,-0.01389,-0.0032,-0.01099,-0.03647,-0.01907,0.02472,-0.02838,-0.02457,0.00992,-0.04135
5.112,-0.0032,-0.0441,-0.056,0.0322,-0.03616,-0.04791,-0.01328,-0.00259,-0.00824,-0.03601,-0.01465,0.01556,-0.02853,-0.0209,0.00977,-0.04257
5.1125,-0.00519,-0.04501,-0.05035,0.03494,-0.03738,-0.04837,-0.01343,-0.00198,-0.00854,-0.03525,-0.01694,0.00916,-0.02869,-0.01785,0.00885,-0.04257
5.113,-0.0058,-0.04608,-0.04532,0.03448,-0.03784,-0.04898,-0.01389,-0.00183,-0.00946,-0.03067,-0.0264,0.00595,-0.02991,-0.0177,0.00748,-0.04181
5.1135,-0.00595,-0.04639,-0.04013,0.0322,-0.03754,-0.04868,-0.01389,-0.00214,-0.00885,-0.02609,-0.04364,0.0029,-0.03143,-0.02029,0.00687,-0.03937
5.114,-0.00671,-0.04684,-0.03448,0.02411,-0.03647,-0.04822,-0.0145,-0.0032,-0.00656,-0.02106,-0.06607,0.00122,-0.03403,-0.02319,0.00717,-0.03937
5.1145,-0.00687,-0.04684,-0.02899,0.00961,-0.03525,-0.04837,-0.01495,-0.00381,-0.00366,-0.01328,-0.08316,0.00168,-0.03571,-0.0238,0.00656,-0.04059
5.115,-0.00595,-0.047,-0.02426,-0.00259,-0.0351,-0.04852,-0.01648,-0.00275,-0.00015,-0.00412,-0.08743,0.00198,-0.03677,-0.0238,0.00504,-0.04166
5.1155,-0.00534,-0.04593,-0.02121,-0.00809,-0.03571,-0.04852,-0.0174,-0.00137,0.00259,0.00381,-0.07996,0.00092,-0.03647,-0.02228,0.00626,-0.04135
5.116,-0.00443,-0.04608,-0.01877,-0.01022,-0.03525,-0.04898,-0.01694,-0.00137,0.00519,0.00458,-0.06409,-0.00015,-0.03616,-0.02151,0.00824,-0.04044
5.1165,-0.00427,-0.04654,-0.01648,-0.01968,-0.03479,-0.04944,-0.01572,-0.00137,0.00656,0.00427,-0.04196,-0.00107,-0.03616,-0.02121,0.01099,-0.03967
5.117,-0.00275,-0.04578,-0.01495,-0.03616,-0.03372,-0.05051,-0.01434,-0.00229,0.00702,0.00671,-0.01343,-0.00046,-0.03677,-0.02151,0.01129,-0.04013
5.1175,-0.00122,-0.04166,-0.01511,-0.0531,-0.03311,-0.05142,-0.01465,-0.00259,0.0032,0.01495,0.01846,0.00168,-0.03632,-0.02014,0.00961,-0.03998
5.118,0.00061,-0.03662,-0.01602,-0.0618,-0.03235,-0.05219,-0.01511,-0.00351,-0.00275,0.02258,0.04944,0.00427,-0.03616,-0.01816,0.00732,-0.04074
5.1185,0.00214,-0.03464,-0.01755,-0.05707,-0.03159,-0.05203,-0.01419,-0.00427,-0.00809,0.02579,0.07523,0.00473,-0.03616,-0.01617,0.00748,-0.04059
5.119,0.00305,-0.0412,-0.01984,-0.04425,-0.03098,-0.05096,-0.01373,-0.00504,-0.01022,0.02121,0.09308,0.00259,-0.03647,-0.01511,0.009,-0.04089
5.1195,0.00427,-0.05539,-0.02274,-0.03006,-0.03021,-0.0499,-0.01343,-0.00305,-0.01038,0.00275,0.10468,0.00153,-0.03586,-0.01419,0.01068,-0.04074
5.12,0.00595,-0.06378,-0.02625,-0.02167,-0.03036,-0.05005,-0.01434,-0.00122,-0.00946,-0.03891,0.10864,0.00229,-0.03448,-0.01282,0.01144,-0.0412
5.1205,0.00671,-0.05829,-0.02975,-0.01755,-0.03098,-0.05051,-0.0145,-0.00107,-0.00778,-0.10361,0.10605,0.00336,-0.03372,-0.01266,0.00931,-0.04196
5.121,0.00473,-0.04425,-0.03311,-0.01358,-0.03113,-0.0499,-0.01465,-0.00305,-0.00473,-0.16998,0.09323,0.00244,-0.03403,-0.01312,0.0087,-0.04196
5.1215,0.00183,-0.0386,-0.03784,-0.00626,-0.03021,-0.04959,-0.01465,-0.00351,-0.00397,-0.21347,0.0676,0.00061,-0.03464,-0.0119,0.00961,-0.04166
5.122,-0.00046,-0.04364,-0.0444,0.00473,-0.02899,-0.04929,-0.0145,-0.0032,-0.00656,-0.21606,0.03204,0.00092,-0.03326,-0.00977,0.01053,-0.04181
5.1225,-0.00214,-0.04929,-0.05493,0.01495,-0.02655,-0.0502,-0.01404,-0.00183,-0.00916,-0.17731,-0.00259,0.00458,-0.03296,-0.00839,0.00946,-0.04211
5.123,-0.00259,-0.05157,-0.06226,0.0177,-0.02609,-0.04959,-0.01343,-0.00214,-0.00977,-0.10574,-0.02914,0.01144,-0.03296,-0.00854,0.00824,-0.04318
5.1235,-0.00381,-0.06622,-0.06516,0.01114,-0.02823,-0.0473,-0.01343,-0.00244,-0.00977,-0.02075,-0.04379,0.01587,-0.03372,-0.00992,0.00931,-0.04211
5.124,-0.00671,-0.10468,-0.05966,0.00107,-0.02991,-0.04623,-0.01572,-0.0032,-0.0116,0.05112,-0.04669,0.01144,-0.03372,-0.01129,0.01007,-0.04135
5.1245,-0.009,-0.14832,-0.047,-0.00397,-0.02869,-0.04486,-0.01663,-0.0032,-0.01526,0.09583,-0.04044,-0.00198,-0.03311,-0.01312,0.01007,-0.0415
5.125,-0.00946,-0.15991,-0.03021,-0.00488,-0.02716,-0.04456,-0.01663,-0.00214,-0.01968,0.11154,-0.02853,-0.01266,-0.0325,-0.01297,0.00977,-0.04227
5.1255,-0.00992,-0.12344,-0.01434,-0.00641,-0.02548,-0.04364,-0.0148,-0.00076,-0.02289,0.10941,-0.01312,-0.01266,-0.03326,-0.01297,0.01053,-0.0444
5.126,-0.01236,-0.05219,0.00046,-0.01144,-0.02655,-0.04333,-0.01312,-0.00061,-0.02594,0.09842,0.0058,-0.00839,-0.03311,-0.01419,0.0119,-0.0444
5.1265,-0.01587,0.02487,0.0145,-0.01678,-0.02747,-0.04425,-0.01404,-0.00107,-0.03067,0.08057,0.02792,-0.01205,-0.03265,-0.01556,0.0119,-0.04364
5.127,-0.01801,0.08133,0.02518,-0.01923,-0.02823,-0.04349,-0.01526,-0.00122,-0.03662,0.05768,0.05081,-0.01633,-0.03189,-0.01572,0.01022,-0.04242
5.1275,-0.01694,0.10666,0.03113,-0.01755,-0.02792,-0.03967,-0.01587,-0.00046,-0.04181,0.03403,0.07339,-0.00946,-0.03204,-0.01694,0.009,-0.04211
5.128,-0.01511,0.11139,0.03357,-0.01282,-0.02777,-0.03723,-0.01602,-0.00046,-0.04486,0.01282,0.09323,0.00427,-0.03204,-0.01801,0.00748,-0.0441
5.1285,-0.01541,0.11063,0.02899,-0.00473,-0.02731,-0.03723,-0.01633,-0.00214,-0.04593,-0.00168,0.11002,0.00854,-0.03159,-0.02045,0.00809,-0.04486
5.129,-0.01633,0.10666,0.01938,0.00549,-0.02716,-0.03998,-0.01572,-0.00351,-0.04379,-0.01144,0.12177,-0.00137,-0.03143,-0.02258,0.009,-0.04471
5.1295,-0.01572,0.09293,0.00702,0.01129,-0.02747,-0.04318,-0.01434,-0.00351,-0.03998,-0.0206,0.12772,-0.01816,-0.03113,-0.02441,0.00977,-0.04333
5.13,-0.01404,0.06805,-0.00565,0.00504,-0.02853,-0.04318,-0.01312,-0.00168,-0.03632,-0.03113,0.12878,-0.03067,-0.03006,-0.02563,0.00885,-0.04227
5.1305,-0.01434,0.03952,-0.01633,-0.00977,-0.02838,-0.04272,-0.01297,-0.00137,-0.03525,-0.03891,0.12405,-0.03311,-0.02838,-0.02625,0.00793,-0.04135
5.131,-0.01801,0.01022,-0.02487,-0.02029,-0.03021,-0.04456,-0.01312,-0.00244,-0.0354,-0.04303,0.11063,-0.02625,-0.02731,-0.02594,0.00778,-0.04105
5.1315,-0.02106,-0.02502,-0.02609,-0.01816,-0.03052,-0.04807,-0.01434,-0.00412,-0.03479,-0.04227,0.07996,-0.01785,-0.0267,-0.02563,0.0087,-0.0412
5.132,-0.02045,-0.06989,-0.02014,-0.00946,-0.03128,-0.05112,-0.01541,-0.00443,-0.03067,-0.0441,0.02762,-0.01419,-0.02731,-0.02731,0.00946,-0.04196
5.1325,-0.01892,-0.10666,-0.01144,-0.00305,-0.03174,-0.05188,-0.01556,-0.00443,-0.02609,-0.04929,-0.03815,-0.01221,-0.02716,-0.03006,0.00961,-0.04211
5.133,-0.02014,-0.11429,-0.00885,-0.00427,-0.03296,-0.05173,-0.01495,-0.00366,-0.02365,-0.05356,-0.10468,-0.0058,-0.0264,-0.03128,0.009,-0.04135
5.1335,-0.02304,-0.09521,-0.01877,-0.00702,-0.03281,-0.0528,-0.01312,-0.0029,-0.02304,-0.05661,-0.16052,0.0032,-0.0267,-0.03098,0.00885,-0.04227
5.134,-0.02686,-0.07355,-0.03723,-0.00854,-0.0325,-0.05524,-0.01251,-0.00351,-0.02289,-0.05569,-0.20065,0.00763,-0.02701,-0.02975,0.00946,-0.04166
5.1345,-0.0267,-0.06958,-0.05722,-0.00885,-0.03128,-0.05722,-0.01328,-0.00366,-0.02304,-0.056,-0.22018,0.00458,-0.02777,-0.03052,0.01022,-0.04181
5.135,-0.02136,-0.08972,-0.07477,-0.01083,-0.03204,-0.0563,-0.01419,-0.00336,-0.0209,-0.05676,-0.22186,-0.00015,-0.02747,-0.03174,0.00977,-0.0415
5.1355,-0.01312,-0.1181,-0.08911,-0.01587,-0.03479,-0.056,-0.01434,-0.00336,-0.0148,-0.05493,-0.21164,-0.00107,-0.02731,-0.03296,0.00854,-0.0412
5.136,-0.00488,-0.12726,-0.0975,-0.01968,-0.03601,-0.05447,-0.01373,-0.00305,-0.00488,-0.0502,-0.19562,0.00015,-0.02808,-0.0322,0.00839,-0.0412
5.1365,0.0,-0.10208,-0.10025,-0.01709,-0.03555,-0.05295,-0.01419,-0.00397,0.00198,-0.04425,-0.177,0.00015,-0.02838,-0.0296,0.00885,-0.04089
5.137,0.00107,-0.05905,-0.1004,-0.00992,-0.03448,-0.05142,-0.01556,-0.00473,0.00122,-0.03906,-0.15991,-0.00061,-0.02731,-0.02594,0.00916,-0.0415
5.1375,0.00153,-0.02563,-0.09918,-0.00244,-0.03433,-0.04944,-0.01617,-0.00488,-0.00427,-0.03418,-0.14648,-0.00137,-0.02548,-0.02426,0.00977,-0.04211
5.138,0.00259,-0.01205,-0.09506,0.00198,-0.03372,-0.04608,-0.01511,-0.00443,-0.00671,-0.02991,-0.13687,-0.00137,-0.02533,-0.02243,0.00916,-0.04166
5.1385,0.00381,-0.01053,-0.0853,0.00381,-0.03296,-0.04318,-0.01358,-0.00305,-0.00595,-0.02563,-0.12756,-0.00198,-0.02762,-0.02045,0.00916,-0.04013
5.139,0.00397,-0.01495,-0.07309,0.0032,-0.03159,-0.04288,-0.01312,-0.00244,-0.00671,-0.02213,-0.11551,-0.00275,-0.0296,-0.01846,0.00977,-0.04013
5.1395,0.00381,-0.02335,-0.05981,0.00229,-0.03021,-0.04349,-0.0119,-0.00351,-0.00961,-0.02106,-0.09995,-0.00275,-0.0296,-0.01663,0.01068,-0.03998
5.14,0.00504,-0.03662,-0.04791,0.0029,-0.03067,-0.0444,-0.01221,-0.00336,-0.01236,-0.02594,-0.08316,-0.00305,-0.0293,-0.01587,0.01114,-0.04013
5.1405,0.00412,-0.04929,-0.04028,0.00305,-0.03036,-0.04333,-0.01266,-0.00305,-0.01175,-0.04028,-0.06699,-0.00412,-0.03036,-0.01617,0.00961,-0.04028
5.141,0.00046,-0.05859,-0.03998,0.00259,-0.03067,-0.04303,-0.01373,-0.00336,-0.00671,-0.04822,-0.05554,-0.00504,-0.03189,-0.01556,0.00916,-0.04059
5.1415,-0.00595,-0.06744,-0.04166,0.00031,-0.0296,-0.04379,-0.01328,-0.00458,0.00153,-0.03952,-0.05615,-0.00534,-0.03143,-0.01419,0.01083,-0.04166
5.142,-0.01282,-0.07584,-0.04288,-0.00412,-0.02884,-0.04593,-0.01266,-0.0058,0.01465,-0.01556,-0.06882,-0.00641,-0.03159,-0.01282,0.01297,-0.04181
5.1425,-0.01511,-0.08224,-0.0412,-0.00824,-0.02991,-0.047,-0.01343,-0.00595,0.0293,0.0058,-0.08804,-0.0058,-0.03204,-0.01343,0.01328,-0.04105
5.143,-0.01297,-0.08667,-0.04044,-0.01022,-0.03082,-0.04608,-0.01419,-0.00504,0.04013,0.01999,-0.09964,-0.00748,-0.03342,-0.01511,0.01221,-0.04013
5.1435,-0.00717,-0.09247,-0.0415,-0.01022,-0.0296,-0.04562,-0.01465,-0.00458,0.03998,0.02472,-0.09613,-0.00931,-0.03494,-0.01648,0.01129,-0.04135
5.144,-0.00229,-0.09933,-0.04623,-0.01129,-0.02838,-0.04547,-0.0145,-0.00351,0.02838,0.0235,-0.07767,-0.00702,-0.03494,-0.01617,0.01022,-0.04257
5.1445,0.0,-0.10391,-0.05615,-0.01236,-0.02563,-0.04532,-0.01343,-0.00214,0.01175,0.01083,-0.05005,0.00244,-0.03433,-0.01572,0.01129,-0.04272
5.145,0.0,-0.11047,-0.06668,-0.01282,-0.02258,-0.04379,-0.01297,-0.00198,-0.00458,-0.01022,-0.01602,0.01953,-0.03311,-0.01526,0.01221,-0.04288
5.1455,-0.00168,-0.12436,-0.06516,-0.00992,-0.02045,-0.04272,-0.01221,-0.00305,-0.01923,-0.04608,0.0235,0.03769,-0.03281,-0.01556,0.01266,-0.04364
5.146,-0.00046,-0.14145,-0.03937,-0.00137,-0.01877,-0.04272,-0.0119,-0.00412,-0.0322,-0.09491,0.0592,0.04395,-0.03464,-0.0174,0.01236,-0.04395
5.1465,0.0029,-0.14297,0.00732,0.0116,-0.01846,-0.04425,-0.01221,-0.00473,-0.04364,-0.14664,0.08652,0.03311,-0.03708,-0.01816,0.0116,-0.04242
5.147,0.00763,-0.12405,0.06516,0.02151,-0.01953,-0.04639,-0.01205,-0.00427,-0.05142,-0.16739,0.10696,0.01022,-0.03754,-0.01907,0.01251,-0.04105
5.1475,0.01114,-0.09415,0.12115,0.01785,-0.01938,-0.0473,-0.01297,-0.00412,-0.05569,-0.12589,0.1265,-0.01312,-0.03632,-0.01923,0.01129,-0.04044
5.148,0.0116,-0.06683,0.16022,-0.00015,-0.0206,-0.04807,-0.01343,-0.00275,-0.05692,-0.03021,0.14587,-0.02792,-0.03494,-0.01724,0.00992,-0.04059
5.1485,0.00946,-0.0531,0.17395,-0.02655,-0.02014,-0.04837,-0.01404,-0.00229,-0.056,0.06805,0.16037,-0.02716,-0.0351,-0.0148,0.00839,-0.04105
5.149,0.00687,-0.06042,0.16312,-0.04791,-0.02151,-0.04791,-0.0148,-0.00275,-0.05463,0.11261,0.16602,-0.01343,-0.03647,-0.01221,0.00885,-0.04044
5.1495,0.00397,-0.08667,0.13535,-0.05249,-0.02274,-0.0473,-0.01404,-0.00244,-0.05203,0.09476,0.15793,0.00153,-0.03632,-0.01236,0.01114,-0.04028
5.15,0.00198,-0.11307,0.08804,-0.03296,-0.02365,-0.04684,-0.01221,-0.00259,-0.05203,0.05875,0.13596,0.00305,-0.03525,-0.01114,0.01404,-0.03967
5.1505,-0.00076,-0.1207,0.01892,0.00031,-0.02457,-0.0473,-0.01083,-0.00168,-0.05692,0.05371,0.10422,-0.01022,-0.0351,-0.00916,0.01663,-0.0383
5.151,-0.00381,-0.10666,-0.0531,0.02731,-0.02487,-0.04807,-0.01068,-0.00061,-0.06378,0.0853,0.06912,-0.03098,-0.03571,-0.00717,0.0174,-0.03754
5.1515,-0.00687,-0.08118,-0.11017,0.02838,-0.02533,-0.04852,-0.01099,0.00061,-0.06668,0.12543,0.03555,-0.04883,-0.03632,-0.00778,0.01617,-0.03677
5.152,-0.00931,-0.05768,-0.14786,0.00015,-0.02579,-0.04715,-0.01099,-0.00061,-0.06348,0.14862,0.00595,-0.05524,-0.03601,-0.01068,0.01389,-0.03891
5.1525,-0.01221,-0.04013,-0.17593,-0.03647,-0.02762,-0.04807,-0.01175,-0.00198,-0.05859,0.15244,-0.0174,-0.04608,-0.03571,-0.01343,0.0116,-0.04105
5.153,-0.01617,-0.0206,-0.19501,-0.05539,-0.02945,-0.04684,-0.01297,-0.0029,-0.05432,0.13367,-0.03906,-0.03052,-0.03464,-0.01434,0.01007,-0.04333
5.1535,-0.02167,0.01007,-0.20233,-0.05661,-0.03082,-0.04578,-0.01343,-0.00336,-0.04974,0.09506,-0.06546,-0.02563,-0.03418,-0.01343,0.00702,-0.04471
5.154,-0.02823,0.04837,-0.19363,-0.05661,-0.03143,-0.04318,-0.01282,-0.00351,-0.04517,0.04349,-0.09979,-0.03922,-0.03387,-0.01343,0.0058,-0.04669
5.1545,-0.03098,0.07645,-0.17227,-0.0563,-0.03342,-0.0415,-0.01251,-0.0032,-0.0412,-0.00381,-0.13901,-0.05783,-0.03464,-0.01556,0.00565,-0.047
5.155,-0.03067,0.0853,-0.1416,-0.04181,-0.03494,-0.04135,-0.01312,-0.0029,-0.04059,-0.03433,-0.17807,-0.06012,-0.03387,-0.01892,0.00717,-0.04715
5.1555,-0.02945,0.08133,-0.10101,-0.01251,-0.03799,-0.04333,-0.01312,-0.00275,-0.04135,-0.04471,-0.21484,-0.04242,-0.03342,-0.02106,0.00839,-0.04593
5.156,-0.03098,0.07919,-0.04944,0.00641,-0.03891,-0.04501,-0.01221,-0.00244,-0.03998,-0.0383,-0.24857,-0.01968,-0.03418,-0.02213,0.00809,-0.04471
5.1565,-0.03342,0.08316,0.00397,-0.00214,-0.03952,-0.04639,-0.01205,-0.00305,-0.02823,-0.02335,-0.27344,-0.0058,-0.03647,-0.02243,0.009,-0.0444
5.157,-0.0322,0.08636,0.05402,-0.0296,-0.04028,-0.04791,-0.01236,-0.00427,-0.00549,-0.00885,-0.28259,0.00214,-0.03723,-0.02258,0.01144,-0.04471
5.1575,-0.02731,0.07797,0.09277,-0.04807,-0.04288,-0.04959,-0.01266,-0.00549,0.02014,-0.00076,-0.27298,0.01114,-0.03601,-0.0235,0.01022,-0.0444
5.158,-0.02121,0.04349,0.11749,-0.04288,-0.04501,-0.04959,-0.01266,-0.0061,0.03754,-0.00229,-0.24429,0.02335,-0.03448,-0.02411,0.00961,-0.04364
5.1585,-0.01724,-0.01343,0.12238,-0.01862,-0.04517,-0.04974,-0.0119,-0.00671,0.04501,-0.01129,-0.19547,0.02991,-0.03326,-0.0238,0.00809,-0.04166
5.159,-0.01587,-0.06332,0.10437,0.00961,-0.04578,-0.05066,-0.01312,-0.00748,0.05005,-0.02045,-0.13123,0.02884,-0.03235,-0.02274,0.0087,-0.04257
5.1595,-0.01587,-0.07385,0.06821,0.02808,-0.04532,-0.05157,-0.01328,-0.00656,0.05508,-0.02411,-0.05875,0.02563,-0.03098,-0.02029,0.00931,-0.04196
5.16,-0.01434,-0.0473,0.02686,0.03174,-0.04532,-0.05142,-0.01312,-0.00473,0.05615,-0.02045,0.0119,0.02563,-0.03067,-0.01923,0.01114,-0.04089
5.1605,-0.01236,-0.01404,-0.00824,0.02701,-0.04547,-0.05142,-0.01221,-0.00366,0.04959,-0.00809,0.07126,0.02808,-0.03174,-0.01938,0.01175,-0.03952
5.161,-0.01205,0.00336,-0.03311,0.02258,-0.04623,-0.05096,-0.01221,-0.00336,0.0354,0.03647,0.11276,0.02686,-0.03296,-0.01907,0.01114,-0.03906
5.1615,-0.01633,0.00412,-0.04639,0.01892,-0.04547,-0.0499,-0.01266,-0.00381,0.0177,0.1358,0.12833,0.02136,-0.03296,-0.0174,0.01022,-0.03937
5.162,-0.0264,-0.00397,-0.04517,0.01358,-0.04532,-0.04883,-0.01266,-0.00427,0.00397,0.2507,0.11765,0.0174,-0.03204,-0.01633,0.00931,-0.03983
5.1625,-0.03418,-0.01556,-0.03754,0.0061,-0.04364,-0.04623,-0.01236,-0.00412,0.00336,0.29694,0.09232,0.01694,-0.03143,-0.01602,0.00916,-0.03937
5.163,-0.03296,-0.03021,-0.04501,0.00092,-0.04318,-0.04333,-0.0119,-0.0032,0.01389,0.24902,0.07614,0.01801,-0.03082,-0.01495,0.01007,-0.04074
5.1635,-0.02594,-0.05646,-0.0769,-0.00153,-0.04333,-0.0415,-0.01297,-0.00168,0.02396,0.16891,0.0856,0.0174,-0.03204,-0.01526,0.00961,-0.04166
5.164,-0.02167,-0.1004,-0.12299,-0.00244,-0.04181,-0.04059,-0.0145,-0.00259,0.0238,0.1091,0.1207,0.01648,-0.03265,-0.01663,0.00824,-0.04166
5.1645,-0.02609,-0.14221,-0.16495,-0.00336,-0.03967,-0.04044,-0.01587,-0.00351,0.01846,0.04822,0.16617,0.01694,-0.03189,-0.0174,0.00793,-0.04288
5.165,-0.03555,-0.14282,-0.19531,-0.00504,-0.03815,-0.04089,-0.01541,-0.00381,0.01434,-0.0322,0.19592,0.01801,-0.03113,-0.01831,0.00763,-0.04379
5.1655,-0.04105,-0.09583,-0.2153,-0.00793,-0.03677,-0.04196,-0.01541,-0.00412,0.00916,-0.09033,0.18997,0.01923,-0.03128,-0.01831,0.0087,-0.04395
5.166,-0.03723,-0.03708,-0.22202,-0.01114,-0.03738,-0.0415,-0.01465,-0.00443,-0.00366,-0.07904,0.15869,0.0209,-0.0322,-0.01862,0.00961,-0.0444
5.1665,-0.02731,-0.00336,-0.21103,-0.01221,-0.03784,-0.04227,-0.0145,-0.00427,-0.02213,-0.02441,0.13138,0.02335,-0.03265,-0.01999,0.00778,-0.04379
5.167,-0.01663,0.0061,-0.18631,-0.01205,-0.03677,-0.04364,-0.01419,-0.00366,-0.03876,0.00992,0.12024,0.02533,-0.0325,-0.02243,0.00427,-0.04349
5.1675,-0.00595,0.00717,-0.15839,-0.01236,-0.0354,-0.04578,-0.01434,-0.00351,-0.04883,-0.00275,0.11719,0.02701,-0.03265,-0.02533,0.00137,-0.04257
5.168,0.00565,0.00595,-0.13336,-0.01297,-0.03372,-0.04837,-0.01526,-0.00336,-0.05127,-0.03174,0.11444,0.02625,-0.03326,-0.02747,0.00031,-0.0415
5.1685,0.01633,0.00092,-0.1062,-0.01343,-0.03326,-0.04974,-0.01526,-0.00305,-0.04822,-0.03448,0.11078,0.02213,-0.03387,-0.0267,0.00244,-0.03952
5.169,0.02243,-0.00458,-0.07019,-0.0119,-0.03372,-0.04959,-0.01434,-0.0029,-0.04166,0.0029,0.11215,0.01495,-0.03403,-0.02548,0.00381,-0.03754
5.1695,0.02533,-0.009,-0.03052,-0.00977,-0.0325,-0.04868,-0.01328,-0.00229,-0.03098,0.05936,0.1152,0.0119,-0.03357,-0.02487,0.00427,-0.03571
5.17,0.0267,-0.01663,-0.00275,-0.00687,-0.03128,-0.04883,-0.0116,-0.00229,-0.02274,0.10239,0.11627,0.0209,-0.03204,-0.0235,0.00565,-0.03677
5.1705,0.02792,-0.02914,0.00763,-0.0029,-0.03036,-0.0502,-0.0116,-0.00229,-0.02213,0.11719,0.11734,0.04608,-0.03189,-0.02151,0.00702,-0.03769
5.171,0.03006,-0.04074,0.01297,0.00137,-0.0296,-0.05188,-0.01221,-0.00351,-0.02747,0.10956,0.12451,0.08987,-0.03189,-0.01999,0.00793,-0.03693
5.1715,0.03067,-0.04257,0.02289,0.00778,-0.02716,-0.05234,-0.01282,-0.00381,-0.03799,0.08835,0.13947,0.13977,-0.03189,-0.01785,0.00839,-0.03632
5.172,0.03067,-0.03845,0.03647,0.01434,-0.02472,-0.0528,-0.01328,-0.00305,-0.05264,0.04761,0.15854,0.16418,-0.03098,-0.01572,0.00992,-0.0351
5.1725,0.02945,-0.03754,0.04303,0.01465,-0.02151,-0.05234,-0.01297,-0.00168,-0.0679,-0.04028,0.18066,0.14832,-0.02975,-0.01312,0.01099,-0.03479
5.173,0.02869,-0.0441,0.04456,0.01205,-0.01923,-0.05081,-0.01328,-0.00061,-0.07401,-0.18036,0.20447,0.11383,-0.02853,-0.009,0.01343,-0.03555
5.1735,0.02884,-0.056,0.05478,0.02563,-0.01801,-0.04868,-0.01328,-0.00092,-0.06744,-0.3125,0.22934,0.09186,-0.02914,-0.00656,0.0145,-0.03922
5.174,0.02838,-0.06668,0.07492,0.06546,-0.01755,-0.04745,-0.01251,-0.00183,-0.05402,-0.33691,0.25085,0.07034,-0.03082,-0.00458,0.01053,-0.04333
5.1745,0.0264,-0.07263,0.08881,0.10681,-0.01694,-0.0473,-0.01221,-0.00275,-0.03845,-0.23575,0.26169,0.01602,-0.03235,-0.00427,0.00839,-0.04349
5.175,0.02289,-0.07111,0.08682,0.11841,-0.01678,-0.0473,-0.0116,-0.00244,-0.02228,-0.09613,0.26535,-0.07309,-0.03342,-0.00534,0.00854,-0.04059
5.1755,0.01831,-0.06195,0.07034,0.09918,-0.01663,-0.04623,-0.01175,-0.00183,-0.00717,-0.01358,0.26733,-0.16983,-0.03418,-0.00839,0.0116,-0.03784
5.176,0.01114,-0.0499,0.05035,0.07294,-0.01709,-0.04456,-0.01114,-0.00153,0.00534,-0.00854,0.26001,-0.25269,-0.0354,-0.01099,0.01236,-0.03601
5.1765,0.00305,-0.0499,0.02808,0.05463,-0.01938,-0.04395,-0.01175,-0.00198,0.0119,-0.03998,0.23056,-0.31845,-0.03632,-0.01266,0.01022,-0.03815
5.177,-0.0029,-0.07935,-0.00595,0.03372,-0.02304,-0.04486,-0.01266,-0.00168,0.01007,-0.06241,0.18295,-0.3624,-0.03616,-0.01297,0.00732,-0.04196
5.1775,-0.00641,-0.13611,-0.05524,-0.00809,-0.02502,-0.04654,-0.01358,-0.00137,0.00092,-0.05737,0.13977,-0.37003,-0.03632,-0.01404,0.0058,-0.04593
5.178,-0.00595,-0.19135,-0.10468,-0.07065,-0.02533,-0.04669,-0.01312,-0.00046,-0.00916,-0.03326,0.11719,-0.3447,-0.0351,-0.01511,0.00595,-0.05005
5.1785,-0.00381,-0.22141,-0.12405,-0.14038,-0.02487,-0.04639,-0.0119,0.0,-0.01465,-0.01221,0.10818,-0.30167,-0.03281,-0.01572,0.00565,-0.05188
5.179,-0.00229,-0.24094,-0.10437,-0.2092,-0.0264,-0.04791,-0.01175,-0.00031,-0.01602,-0.00961,0.09277,-0.23056,-0.03082,-0.01663,0.00473,-0.05157
5.1795,-0.00458,-0.2681,-0.07614,-0.27405,-0.02747,-0.04761,-0.01282,-0.00137,-0.01526,-0.0209,0.056,-0.10056,-0.03082,-0.01801,0.00488,-0.04944
5.18,-0.00656,-0.27512,-0.06821,-0.32211,-0.02823,-0.047,-0.0148,-0.00183,-0.01266,-0.03632,-0.0029,0.08286,-0.03204,-0.01877,0.0061,-0.04654
5.1805,-0.00656,-0.22141,-0.07858,-0.32761,-0.03021,-0.04547,-0.01556,-0.00259,-0.00656,-0.05219,-0.07431,0.24597,-0.03326,-0.01785,0.00732,-0.04593
5.181,-0.00717,-0.12268,-0.08621,-0.27939,-0.03036,-0.04425,-0.01556,-0.00244,0.00061,-0.06989,-0.14679,0.32684,-0.0325,-0.01633,0.00687,-0.04547
5.1815,-0.01297,-0.0444,-0.08026,-0.18936,-0.03082,-0.04349,-0.01572,-0.00381,0.00427,-0.08865,-0.21225,0.31754,-0.03082,-0.01602,0.00549,-0.04471
5.182,-0.02228,-0.01282,-0.0621,-0.09323,-0.03128,-0.04242,-0.01556,-0.00595,0.00534,-0.11093,-0.2742,0.25116,-0.02991,-0.01694,0.00626,-0.04318
5.1825,-0.03036,-0.00214,-0.03357,-0.02548,-0.03204,-0.04074,-0.01373,-0.00641,0.00244,-0.13489,-0.32639,0.16953,-0.03098,-0.01907,0.00732,-0.0441
5.183,-0.03464,0.00473,0.00717,0.00229,-0.03387,-0.04028,-0.01343,-0.00534,-0.0087,-0.15671,-0.35355,0.10132,-0.03159,-0.0206,0.00717,-0.04593
5.1835,-0.0354,0.01114,0.05295,0.00687,-0.03632,-0.04196,-0.01358,-0.00473,-0.02808,-0.16357,-0.3392,0.06058,-0.03265,-0.02243,0.00565,-0.04868
5.184,-0.03357,0.03204,0.09644,0.01404,-0.03738,-0.0441,-0.01434,-0.00519,-0.04654,-0.14557,-0.28717,0.05096,-0.03326,-0.02563,0.0029,-0.04868
5.1845,-0.02701,0.08118,0.13367,0.0267,-0.03738,-0.0444,-0.01419,-0.0058,-0.05371,-0.10468,-0.22049,0.06683,-0.03326,-0.0296,0.00183,-0.04608
5.185,-0.01694,0.1355,0.16037,0.02975,-0.03647,-0.04425,-0.01404,-0.00595,-0.0499,-0.06561,-0.17578,0.08652,-0.03326,-0.03342,0.0029,-0.04364
5.1855,-0.00778,0.16602,0.16113,0.01938,-0.03616,-0.04456,-0.01495,-0.00519,-0.04669,-0.05203,-0.17715,0.08102,-0.03387,-0.03784,0.00504,-0.04227
5.186,-0.00397,0.17502,0.12665,0.0087,-0.03555,-0.0473,-0.01541,-0.00519,-0.05051,-0.06561,-0.21683,0.04776,-0.03311,-0.04089,0.00717,-0.04211
5.1865,-0.00854,0.17624,0.07233,0.00641,-0.0354,-0.05051,-0.0145,-0.0058,-0.05951,-0.08591,-0.25925,0.01617,-0.03311,-0.0412,0.00793,-0.04242
5.187,-0.01709,0.16479,0.02304,0.0087,-0.03555,-0.05234,-0.01328,-0.0061,-0.06638,-0.09476,-0.27466,0.01389,-0.03296,-0.03876,0.00824,-0.04196
5.1875,-0.02518,0.13611,-0.00961,0.01251,-0.03525,-0.05203,-0.0119,-0.00549,-0.06744,-0.09659,-0.27222,0.03342,-0.03281,-0.03662,0.00763,-0.04105
5.188,-0.02747,0.1001,-0.0293,0.01526,-0.0354,-0.05249,-0.01175,-0.00397,-0.065,-0.10529,-0.27878,0.04807,-0.03159,-0.03525,0.00702,-0.04074
5.1885,-0.02426,0.07095,-0.04257,0.01526,-0.03632,-0.05402,-0.01328,-0.0032,-0.06348,-0.11841,-0.3038,0.04196,-0.03036,-0.03403,0.00778,-0.04074
5.189,-0.01724,0.04608,-0.05264,0.01007,-0.03677,-0.05463,-0.0148,-0.00366,-0.06561,-0.11383,-0.33249,0.02319,-0.02853,-0.03174,0.00809,-0.03998
5.1895,-0.00702,0.01297,-0.0621,0.00305,-0.03632,-0.05295,-0.01434,-0.00488,-0.07339,-0.08545,-0.34821,0.00641,-0.02686,-0.02792,0.00778,-0.04028
5.19,0.00763,-0.02106,-0.07492,0.00061,-0.03571,-0.04959,-0.01343,-0.00443,-0.08331,-0.04822,-0.34454,0.00076,-0.02625,-0.02411,0.00854,-0.03967
5.1905,0.0235,-0.03983,-0.09354,0.00214,-0.03403,-0.04791,-0.01266,-0.00305,-0.08636,-0.02548,-0.3183,0.00259,-0.02594,-0.02396,0.00961,-0.03967
5.191,0.03601,-0.03586,-0.11429,0.00397,-0.03265,-0.04852,-0.0119,-0.00244,-0.07797,-0.01999,-0.27298,0.00595,-0.02563,-0.02457,0.00854,-0.03937
5.1915,0.0441,-0.02106,-0.1326,0.00183,-0.03159,-0.04807,-0.01282,-0.00244,-0.06378,-0.02029,-0.21317,0.00641,-0.02472,-0.02441,0.00717,-0.03922
5.192,0.0499,-0.0087,-0.14389,-0.00229,-0.03204,-0.04684,-0.01389,-0.00259,-0.04776,-0.02014,-0.15259,0.00412,-0.02518,-0.02274,0.00549,-0.04028
5.1925,0.05417,-0.00092,-0.15106,-0.00504,-0.0325,-0.04486,-0.01465,-0.00229,-0.02655,-0.02518,-0.09689,0.00229,-0.0267,-0.02197,0.00519,-0.04135
5.193,0.05524,0.00626,-0.15671,-0.00671,-0.03082,-0.04532,-0.0148,-0.00259,0.00107,-0.03632,-0.04456,0.00107,-0.02731,-0.02289,0.00443,-0.04257
5.1935,0.05142,0.00732,-0.15823,-0.00534,-0.0293,-0.04578,-0.01541,-0.00412,0.02716,-0.04684,0.00183,0.0,-0.02777,-0.02441,0.00381,-0.04227
5.194,0.04761,-0.00198,-0.14374,-0.00351,-0.02838,-0.04517,-0.01572,-0.00488,0.04364,-0.05249,0.03677,-0.0029,-0.02777,-0.02533,0.00351,-0.04349
5.1945,0.05203,-0.0116,-0.09735,0.0,-0.02823,-0.04547,-0.01602,-0.00458,0.04715,-0.05417,0.04929,-0.00595,-0.02808,-0.02548,0.00122,-0.04608
5.195,0.06027,-0.01328,-0.0116,0.00565,-0.02701,-0.04745,-0.01633,-0.0032,0.04196,-0.05356,0.03281,-0.00793,-0.02884,-0.02853,0.00031,-0.047
5.1955,0.06042,-0.00977,0.09064,0.01129,-0.02518,-0.05127,-0.01633,-0.00275,0.03189,-0.05371,-0.00946,-0.00748,-0.02899,-0.03204,0.00137,-0.047
5.196,0.04837,-0.01434,0.16571,0.01251,-0.02441,-0.05463,-0.01587,-0.00183,0.02243,-0.05142,-0.07111,-0.00717,-0.0293,-0.03387,0.00183,-0.04547
5.1965,0.03204,-0.03174,0.18051,0.00961,-0.02487,-0.05646,-0.01602,-0.00198,0.01831,-0.04684,-0.1384,-0.00839,-0.02991,-0.03357,0.00244,-0.0441
5.197,0.02075,-0.05524,0.14679,0.00778,-0.02655,-0.05646,-0.01617,-0.00229,0.01755,-0.04059,-0.20218,-0.00992,-0.03006,-0.0322,0.00381,-0.04379
5.1975,0.01602,-0.0737,0.09659,0.00946,-0.02487,-0.05417,-0.01633,-0.00305,0.01495,-0.03693,-0.26077,-0.00839,-0.0293,-0.03052,0.00504,-0.04318
5.198,0.01328,-0.08804,0.047,0.01205,-0.0238,-0.05051,-0.01648,-0.0029,0.00626,-0.03662,-0.31342,-0.00122,-0.02823,-0.02899,0.00397,-0.04333
5.1985,0.00641,-0.10834,-0.01236,0.01511,-0.02411,-0.04745,-0.01526,-0.0029,-0.00305,-0.0386,-0.34164,0.01053,-0.02777,-0.02701,0.00366,-0.04395
5.199,-0.00519,-0.13916,-0.0882,0.02106,-0.02274,-0.04654,-0.01312,-0.00198,-0.00793,-0.03906,-0.31769,0.02304,-0.02975,-0.02502,0.00473,-0.04272
5.1995,-0.01862,-0.18463,-0.16479,0.03204,-0.0209,-0.04715,-0.01205,-0.00153,-0.00656,-0.0386,-0.24918,0.02701,-0.03143,-0.02365,0.00763,-0.04044
5.2,-0.02808,-0.25894,-0.2243,0.03937,-0.01968,-0.04807,-0.01282,-0.00168,0.00183,-0.05112,-0.17487,0.02014,-0.03235,-0.02335,0.00839,-0.03937
5.2005,-0.02823,-0.3508,-0.25467,0.02945,-0.01984,-0.04684,-0.01373,-0.00183,0.02792,-0.08835,-0.12665,0.00854,-0.03204,-0.02213,0.00748,-0.0415
5.201,-0.01724,-0.40115,-0.26093,-0.00732,-0.0206,-0.0441,-0.01389,-0.00275,0.07385,-0.15106,-0.10895,-0.0029,-0.03113,-0.01862,0.00793,-0.04288
5.2015,0.00046,-0.35782,-0.23849,-0.07111,-0.02213,-0.04303,-0.01343,-0.00198,0.12283,-0.21393,-0.09964,-0.01648,-0.03067,-0.01495,0.00885,-0.04135
5.202,0.01602,-0.24567,-0.1828,-0.15182,-0.02472,-0.04364,-0.01297,0.0,0.15076,-0.24094,-0.06821,-0.03052,-0.03113,-0.01144,0.0087,-0.03937
5.2025,0.02502,-0.14053,-0.10193,-0.21896,-0.02548,-0.04501,-0.01251,0.00046,0.1535,-0.21149,-0.02182,-0.03265,-0.03296,-0.00778,0.00824,-0.03891
5.203,0.02747,-0.09094,-0.0235,-0.2475,-0.02533,-0.04547,-0.01251,-0.00168,0.14297,-0.13519,-0.06119,-0.02396,-0.03448,-0.00504,0.00824,-0.04013
5.2035,0.02457,-0.08179,0.01968,-0.2417,-0.02563,-0.04608,-0.01343,-0.00381,0.13214,-0.04776,-0.29907,-0.0148,-0.0354,-0.00366,0.00885,-0.03983
5.204,0.01556,-0.0766,0.02274,-0.22278,-0.02609,-0.04761,-0.01434,-0.00412,0.11826,0.00885,-0.64407,-0.01068,-0.03601,-0.00336,0.00961,-0.03906
5.2045,0.00015,-0.0528,0.01907,-0.19424,-0.02792,-0.04974,-0.01495,-0.00259,0.09262,0.01816,-0.82504,-0.00809,-0.03708,-0.0032,0.01068,-0.0383
5.205,-0.01602,-0.0061,0.03342,-0.15549,-0.03006,-0.05295,-0.01495,-0.00183,0.04898,-0.00137,-0.72937,-0.01266,-0.0386,-0.00092,0.0119,-0.03723
5.2055,-0.0264,0.05798,0.04227,-0.10712,-0.03326,-0.05554,-0.01404,-0.00229,-0.00885,-0.01373,-0.53757,-0.03006,-0.03937,0.00183,0.01297,-0.03662
5.206,-0.03357,0.12573,0.01251,-0.05005,-0.03479,-0.05676,-0.01419,-0.00198,-0.06683,-0.00015,-0.44464,-0.05035,-0.04044,0.00595,0.01236,-0.03662
5.2065,-0.04395,0.17868,-0.03494,0.00916,-0.03418,-0.05432,-0.01465,-0.00168,-0.10529,0.03265,-0.45273,-0.05692,-0.04135,0.0087,0.01053,-0.03738
5.207,-0.0589,0.20187,-0.05249,0.04868,-0.03387,-0.05157,-0.01526,-0.00259,-0.11887,0.07126,-0.46967,-0.05142,-0.04257,0.00916,0.01007,-0.04013
5.2075,-0.07126,0.18707,-0.02808,0.05737,-0.03433,-0.04959,-0.01495,-0.00458,-0.11902,0.10574,-0.44907,-0.04974,-0.04303,0.00687,0.01099,-0.04211
5.208,-0.07309,0.12741,0.00854,0.06775,-0.03616,-0.0502,-0.0148,-0.00687,-0.12009,0.11856,-0.39047,-0.05997,-0.04211,0.00549,0.01007,-0.04517
5.2085,-0.06393,0.03082,0.02853,0.12665,-0.03555,-0.05157,-0.0148,-0.00732,-0.1239,0.09811,-0.30197,-0.07385,-0.04272,0.00519,0.00748,-0.04608
5.209,-0.04684,-0.06256,0.02365,0.22537,-0.0351,-0.05127,-0.01648,-0.00626,-0.12375,0.05936,-0.20111,-0.08224,-0.04364,0.00351,0.00473,-0.04623
5.2095,-0.02747,-0.10208,-0.00198,0.29175,-0.03372,-0.04776,-0.01694,-0.00473,-0.11597,0.0383,-0.11551,-0.08179,-0.04333,0.00122,0.00519,-0.04532
5.21,-0.01099,-0.08072,-0.0412,0.26733,-0.0325,-0.04333,-0.01511,-0.00458,-0.10071,0.04501,-0.06165,-0.0769,-0.04166,-0.00381,0.00671,-0.04395
5.2105,0.00061,-0.04333,-0.09109,0.16388,-0.03052,-0.04013,-0.01343,-0.00473,-0.07904,0.06119,-0.04776,-0.07034,-0.03952,-0.00916,0.00732,-0.04288
5.211,0.00824,-0.03586,-0.1506,0.05753,-0.03067,-0.04013,-0.01175,-0.00351,-0.05402,0.06714,-0.06332,-0.0589,-0.03799,-0.01343,0.00809,-0.04196
5.2115,0.01404,-0.05905,-0.21774,0.01984,-0.0322,-0.03876,-0.01175,-0.00137,-0.03204,0.06393,-0.06149,-0.0386,-0.0386,-0.0174,0.00702,-0.04059
5.212,0.01938,-0.07721,-0.27771,0.0499,-0.03357,-0.03784,-0.0116,0.0,-0.01465,0.06546,-0.00336,-0.01175,-0.03876,-0.01938,0.00641,-0.03983
5.2125,0.0235,-0.06104,-0.30136,0.08377,-0.03372,-0.03922,-0.01099,0.0,-0.00153,0.07401,0.09979,0.00809,-0.03708,-0.0206,0.00595,-0.03998
5.213,0.02518,-0.01846,-0.27283,0.07263,-0.03418,-0.04227,-0.01205,-0.00107,0.0058,0.07462,0.20508,0.01236,-0.03586,-0.02487,0.00748,-0.04044
5.2135,0.02258,0.01526,-0.20538,0.03387,-0.0354,-0.04608,-0.01373,-0.00397,0.00443,0.05325,0.289,0.00381,-0.03555,-0.0296,0.01022,-0.0412
5.214,0.01648,0.01724,-0.12314,0.01053,-0.03799,-0.04776,-0.01526,-0.00671,-0.00107,0.00702,0.35309,-0.00336,-0.03494,-0.03204,0.00946,-0.04272
5.2145,0.00824,-0.00504,-0.0444,0.01587,-0.03998,-0.04822,-0.01465,-0.00702,-0.00061,-0.05386,0.39642,-0.00061,-0.03433,-0.03281,0.00717,-0.04288
5.215,0.00137,-0.04013,0.02426,0.02945,-0.04028,-0.04807,-0.01312,-0.00549,0.00259,-0.10239,0.40894,0.01022,-0.03357,-0.03204,0.00549,-0.04181
5.2155,-0.00366,-0.08408,0.08438,0.03281,-0.03922,-0.04776,-0.01343,-0.00427,0.00275,-0.11414,0.38498,0.01801,-0.03357,-0.03265,0.0058,-0.04028
5.216,-0.00778,-0.12619,0.13504,0.0264,-0.03891,-0.047,-0.01526,-0.00366,-0.00137,-0.08698,0.34073,0.01633,-0.03296,-0.03448,0.00702,-0.04028
5.2165,-0.01389,-0.14084,0.15732,0.01907,-0.03952,-0.04745,-0.01541,-0.00366,-0.00763,-0.04837,0.30441,0.01099,-0.03113,-0.03555,0.00839,-0.04074
5.217,-0.02274,-0.11826,0.13275,0.0145,-0.03891,-0.0499,-0.01434,-0.00305,-0.01404,-0.02136,0.28915,0.00763,-0.02853,-0.03586,0.00824,-0.04089
5.2175,-0.02899,-0.07767,0.05646,0.01266,-0.03769,-0.05142,-0.01343,-0.00305,-0.01968,-0.01007,0.29099,0.00748,-0.02716,-0.03433,0.00839,-0.04135
5.218,-0.02747,-0.04501,-0.04318,0.01205,-0.03647,-0.05157,-0.0145,-0.00427,-0.01938,-0.00443,0.30518,0.00732,-0.02533,-0.03204,0.00885,-0.04135
5.2185,-0.02289,-0.02579,-0.12497,0.01114,-0.03555,-0.04898,-0.01526,-0.0061,-0.01282,0.0,0.33279,0.00656,-0.02365,-0.02975,0.01007,-0.04272
5.219,-0.02258,-0.01221,-0.15869,0.01007,-0.03479,-0.04639,-0.01526,-0.00702,-0.00946,0.00397,0.37094,0.0061,-0.02304,-0.02945,0.01007,-0.04349
5.2195,-0.02792,0.00259,-0.14389,0.00824,-0.03464,-0.04623,-0.01465,-0.00565,-0.01892,0.01099,0.40268,0.00793,-0.02258,-0.02991,0.00763,-0.04318
5.22,-0.03326,0.02274,-0.09995,0.00565,-0.03403,-0.04623,-0.01312,-0.00305,-0.0386,0.03769,0.41321,0.01221,-0.02213,-0.03113,0.0058,-0.04166
5.2205,-0.03754,0.04501,-0.05249,0.00443,-0.03372,-0.04654,-0.01236,-0.00168,-0.05142,0.08987,0.40558,0.01465,-0.02228,-0.03067,0.00702,-0.04135
5.221,-0.0444,0.05905,-0.009,0.00412,-0.03326,-0.04578,-0.01282,-0.00168,-0.04486,0.16342,0.39368,0.01465,-0.02258,-0.0293,0.00717,-0.0415
5.2215,-0.05402,0.05737,0.03342,0.00229,-0.03403,-0.04608,-0.01205,-0.00137,-0.02518,0.25146,0.392,0.01343,-0.02319,-0.02701,0.00885,-0.04105
5.222,-0.06119,0.04532,0.07645,-0.00168,-0.03616,-0.04517,-0.01205,-0.00214,-0.00885,0.33493,0.40771,0.01358,-0.02335,-0.0235,0.00854,-0.03998
5.2225,-0.06378,0.03052,0.11093,-0.00656,-0.03708,-0.04562,-0.01358,-0.00305,-0.00153,0.37552,0.44312,0.01404,-0.0235,-0.01999,0.00748,-0.04044
5.223,-0.05981,0.0119,0.13062,-0.01694,-0.03647,-0.04578,-0.01511,-0.00397,0.00275,0.36041,0.48721,0.01556,-0.02335,-0.01862,0.00717,-0.04105
5.2235,-0.04913,-0.02228,0.13428,-0.03571,-0.03601,-0.04562,-0.01648,-0.00336,0.01236,0.32272,0.52567,0.01648,-0.02335,-0.01923,0.00916,-0.04074
5.224,-0.03098,-0.07324,0.12711,-0.05463,-0.0351,-0.04532,-0.01694,-0.0029,0.0238,0.30746,0.54459,0.01617,-0.02396,-0.01999,0.01129,-0.04105
5.2245,-0.00778,-0.13779,0.11108,-0.05798,-0.03372,-0.04425,-0.01648,-0.00381,0.02579,0.30914,0.54214,0.0145,-0.02655,-0.01923,0.01083,-0.04135
5.225,0.02045,-0.22003,0.08438,-0.03815,-0.0322,-0.04227,-0.01602,-0.00443,0.01373,0.29205,0.5275,0.01465,-0.02899,-0.01678,0.00839,-0.04166
5.2255,0.04837,-0.31479,0.04715,-0.0058,-0.03052,-0.04074,-0.01465,-0.00443,-0.00519,0.24857,0.50949,0.02838,-0.03082,-0.01312,0.00824,-0.04135
5.226,0.06973,-0.37125,0.00839,0.01968,-0.02914,-0.04059,-0.01373,-0.0029,-0.01953,0.19394,0.49149,0.06775,-0.03281,-0.00854,0.00854,-0.04074
5.2265,0.07339,-0.33569,-0.01572,0.02274,-0.02792,-0.04028,-0.01297,-0.00198,-0.0238,0.14008,0.47485,0.13,-0.03616,-0.00443,0.00763,-0.03983
5.227,0.06439,-0.22324,-0.01236,0.01175,-0.02808,-0.04181,-0.01297,-0.00229,-0.01724,0.08713,0.45425,0.1825,-0.03784,-0.00092,0.00687,-0.03937
5.2275,0.04929,-0.10834,0.02625,0.01343,-0.02914,-0.04303,-0.01389,-0.00214,-0.00229,0.04852,0.4184,0.19318,-0.03616,0.00031,0.00763,-0.03983
5.228,0.03082,-0.03586,0.09094,0.03967,-0.03189,-0.0444,-0.01556,-0.00198,0.01373,0.04807,0.36758,0.15839,-0.03448,-0.00229,0.00916,-0.03876
5.2285,0.01404,0.00931,0.14572,0.07019,-0.03479,-0.04654,-0.01633,-0.0029,0.02502,0.08682,0.3154,0.09659,-0.03418,-0.0061,0.00977,-0.03723
5.229,0.00656,0.03693,0.15015,0.07507,-0.03632,-0.04776,-0.01572,-0.00366,0.03067,0.12939,0.27969,0.03448,-0.03494,-0.00763,0.01114,-0.03555
5.2295,0.01144,0.02579,0.09567,0.05386,-0.03693,-0.04944,-0.01434,-0.00244,0.03265,0.1297,0.27374,-0.0087,-0.03555,-0.00488,0.01328,-0.03464
5.23,0.01633,-0.01907,0.00778,0.02686,-0.03647,-0.04959,-0.01389,-0.00061,0.03036,0.06134,0.29984,-0.03799,-0.03555,-0.00076,0.01541,-0.03357
5.2305,0.00717,-0.03723,-0.08179,0.01007,-0.03754,-0.05005,-0.01465,0.00015,0.02548,-0.05112,0.35126,-0.07233,-0.0354,0.00183,0.0177,-0.03357
5.231,-0.01724,0.00916,-0.15152,0.00641,-0.03799,-0.04898,-0.01404,-0.00168,0.01938,-0.14633,0.41611,-0.11276,-0.03448,0.00198,0.01724,-0.0351
5.2315,-0.04257,0.0853,-0.18692,0.01373,-0.03647,-0.04822,-0.01465,-0.00381,0.01556,-0.17975,0.48782,-0.14069,-0.03418,0.00137,0.01541,-0.03922
5.232,-0.05524,0.13458,-0.18173,0.02304,-0.03632,-0.05005,-0.01526,-0.00397,0.01923,-0.15594,0.5545,-0.15472,-0.03647,-0.00229,0.01221,-0.04242
5.2325,-0.05539,0.13031,-0.14709,0.02686,-0.03906,-0.0528,-0.01602,-0.00381,0.03082,-0.11551,0.60013,-0.18372,-0.03845,-0.00824,0.00885,-0.04501
5.233,-0.05295,0.07736,-0.10086,0.01633,-0.0415,-0.05524,-0.01511,-0.00473,0.04791,-0.08606,0.61523,-0.24277,-0.03922,-0.01221,0.00641,-0.04715
5.2335,-0.0528,0.00519,-0.05066,-0.01129,-0.04181,-0.05569,-0.01434,-0.00687,0.06271,-0.0592,0.5925,-0.30334,-0.03815,-0.01236,0.00427,-0.04929
5.234,-0.0502,-0.03418,-0.00778,-0.04471,-0.03983,-0.05402,-0.01495,-0.00763,0.06912,-0.02258,0.52963,-0.32196,-0.03769,-0.01022,0.0032,-0.05203
5.2345,-0.04532,-0.0116,0.00488,-0.06531,-0.0386,-0.05081,-0.01678,-0.00732,0.06607,0.0209,0.44067,-0.30411,-0.03845,-0.01007,0.00397,-0.05188
5.235,-0.04471,0.05035,-0.0174,-0.065,-0.03815,-0.04776,-0.01709,-0.00595,0.05066,0.05295,0.35828,-0.27863,-0.03815,-0.0119,0.00504,-0.04883
5.2355,-0.05356,0.10315,-0.05493,-0.05447,-0.03891,-0.04715,-0.01678,-0.00549,0.02045,0.0563,0.29068,-0.22949,-0.03708,-0.01465,0.00549,-0.04654
5.236,-0.06348,0.12115,-0.08759,-0.04349,-0.03967,-0.04807,-0.01633,-0.0058,-0.01755,0.03265,0.20325,-0.1123,-0.03662,-0.01648,0.00519,-0.047
5.2365,-0.06607,0.11169,-0.11475,-0.03418,-0.04013,-0.0502,-0.01648,-0.00488,-0.05402,-0.00229,0.06729,0.05127,-0.03693,-0.01694,0.00412,-0.04776
5.237,-0.06149,0.09003,-0.14175,-0.02686,-0.03937,-0.05081,-0.01602,-0.00381,-0.08316,-0.03372,-0.10269,0.1796,-0.03769,-0.01602,0.00397,-0.0473
5.2375,-0.05554,0.05508,-0.16602,-0.02869,-0.03738,-0.05066,-0.0145,-0.00397,-0.11002,-0.06195,-0.26428,0.23117,-0.03845,-0.01556,0.00549,-0.04471
5.238,-0.0502,0.00015,-0.1825,-0.04654,-0.03662,-0.04929,-0.01389,-0.00488,-0.13733,-0.09186,-0.39001,0.22522,-0.03876,-0.0174,0.00671,-0.04364
5.2385,-0.04166,-0.06119,-0.1886,-0.08209,-0.03708,-0.04807,-0.01434,-0.00671,-0.16434,-0.12131,-0.46448,0.1947,-0.0386,-0.02243,0.00656,-0.04471
5.239,-0.02884,-0.08972,-0.18906,-0.11841,-0.03738,-0.04623,-0.01511,-0.00717,-0.18906,-0.14343,-0.47913,0.16571,-0.03784,-0.02762,0.0061,-0.04639
5.2395,-0.01495,-0.06805,-0.19043,-0.12436,-0.03708,-0.04272,-0.01556,-0.0058,-0.21027,-0.16113,-0.44128,0.15594,-0.0351,-0.03036,0.0061,-0.04593
5.24,-0.0087,-0.02472,-0.19745,-0.09018,-0.03632,-0.04181,-0.01511,-0.00412,-0.22247,-0.18341,-0.37964,0.15594,-0.0322,-0.03128,0.00732,-0.04471
5.2405,-0.01038,0.00137,-0.20386,-0.04379,-0.0354,-0.04425,-0.0148,-0.0032,-0.22095,-0.21179,-0.31937,0.13824,-0.03067,-0.03342,0.00824,-0.04272
5.241,-0.01572,0.00198,-0.19699,-0.01816,-0.03586,-0.04745,-0.0145,-0.00259,-0.20645,-0.23911,-0.26382,0.0975,-0.02823,-0.03677,0.00702,-0.04227
5.2415,-0.01816,-0.0061,-0.16846,-0.01862,-0.03586,-0.04913,-0.01526,-0.00443,-0.18158,-0.25803,-0.20111,0.06516,-0.02594,-0.0412,0.00519,-0.04181
5.242,-0.01419,-0.01419,-0.11856,-0.02487,-0.03418,-0.04944,-0.01556,-0.00519,-0.1413,-0.27023,-0.13168,0.07034,-0.02518,-0.04379,0.00427,-0.04242
5.2425,-0.00854,-0.02808,-0.06165,-0.02655,-0.03418,-0.04944,-0.0148,-0.00534,-0.0827,-0.28229,-0.07309,0.10468,-0.02563,-0.04547,0.00458,-0.04166
5.243,-0.00565,-0.05463,-0.02106,-0.02609,-0.03433,-0.04807,-0.01434,-0.00412,-0.01404,-0.30655,-0.04181,0.13412,-0.02548,-0.04608,0.00748,-0.0412
5.2435,-0.00839,-0.09018,-0.00809,-0.0293,-0.03555,-0.04898,-0.01434,-0.00366,0.0441,-0.35553,-0.03815,0.12985,-0.02502,-0.04654,0.00778,-0.04166
5.244,-0.01389,-0.1239,-0.01038,-0.03281,-0.03433,-0.0499,-0.01343,-0.00336,0.0795,-0.42435,-0.04929,0.09506,-0.02487,-0.04639,0.00671,-0.04227
5.2445,-0.01434,-0.14923,-0.01572,-0.03143,-0.03372,-0.0499,-0.01297,-0.00244,0.09537,-0.47089,-0.07126,0.06165,-0.02533,-0.04486,0.00595,-0.0415
5.245,-0.00854,-0.17685,-0.01694,-0.02258,-0.03311,-0.05051,-0.01328,-0.00122,0.09872,-0.46188,-0.11292,0.05157,-0.02487,-0.0415,0.00626,-0.03967
5.2455,-0.00015,-0.21042,-0.02106,-0.00519,-0.03372,-0.05219,-0.01328,-0.00198,0.09506,-0.41473,-0.18661,0.05478,-0.0238,-0.03616,0.00702,-0.03845
5.246,0.00534,-0.23148,-0.03067,0.0235,-0.03448,-0.05508,-0.01419,-0.00275,0.08209,-0.37201,-0.28183,0.05295,-0.02441,-0.03204,0.00626,-0.0386
5.2465,0.00778,-0.2124,-0.03723,0.05493,-0.03433,-0.05615,-0.01434,-0.0029,0.0563,-0.34821,-0.36743,0.04471,-0.02655,-0.02899,0.0061,-0.0383
5.247,0.00977,-0.15076,-0.02594,0.07126,-0.03326,-0.056,-0.01541,-0.00275,0.01984,-0.32623,-0.42007,0.0386,-0.02808,-0.02701,0.0061,-0.03677
5.2475,0.01251,-0.07751,0.00793,0.0621,-0.03311,-0.05585,-0.01724,-0.00427,-0.01465,-0.30334,-0.43716,0.03601,-0.0293,-0.02533,0.00671,-0.03632
5.248,0.01663,-0.02747,0.05646,0.03937,-0.03296,-0.05768,-0.01846,-0.0061,-0.03021,-0.29327,-0.42709,0.0322,-0.02869,-0.02258,0.00519,-0.03601
5.2485,0.02319,-0.00793,0.10757,0.02289,-0.03342,-0.05814,-0.01953,-0.00565,-0.0264,-0.29877,-0.39825,0.02701,-0.02884,-0.0206,0.00504,-0.03693
5.249,0.03098,-0.00305,0.14771,0.02167,-0.03174,-0.05737,-0.01968,-0.00381,-0.01755,-0.30014,-0.36789,0.02396,-0.02899,-0.01984,0.0058,-0.03677
5.2495,0.03906,0.00183,0.16129,0.02869,-0.02884,-0.0531,-0.01831,-0.00153,-0.01633,-0.27878,-0.35309,0.02411,-0.02823,-0.01862,0.00717,-0.03815
5.25,0.04471,0.0061,0.14908,0.03418,-0.02731,-0.04883,-0.01633,-0.00031,-0.02502,-0.24643,-0.35492,0.02487,-0.02762,-0.01617,0.00595,-0.04135
5.2505,0.0441,-0.00671,0.13931,0.03571,-0.02655,-0.04608,-0.01419,0.00046,-0.03754,-0.22964,-0.3569,0.0238,-0.0293,-0.01465,0.00595,-0.04562
5.251,0.03845,-0.04456,0.16586,0.03479,-0.02502,-0.04395,-0.01389,-0.00061,-0.04364,-0.23666,-0.34271,0.02365,-0.03143,-0.0145,0.00458,-0.04898
5.2515,0.03632,-0.09048,0.21713,0.02792,-0.02548,-0.04181,-0.01556,-0.00168,-0.03784,-0.2475,-0.31021,0.03036,-0.03311,-0.01541,0.0032,-0.04791
5.252,0.04654,-0.11276,0.23941,0.00549,-0.02533,-0.0412,-0.01587,-0.00259,-0.02747,-0.24521,-0.26749,0.0502,-0.03311,-0.01526,0.00305,-0.04456
5.2525,0.06683,-0.09735,0.21561,-0.02777,-0.02457,-0.04196,-0.01556,-0.00229,-0.02441,-0.22125,-0.22064,0.08087,-0.03357,-0.01511,0.00412,-0.04318
5.253,0.08743,-0.06943,0.18784,-0.0592,-0.02426,-0.04349,-0.01633,-0.00168,-0.02838,-0.17761,-0.16586,0.10437,-0.03403,-0.01511,0.00641,-0.0444
5.2535,0.09872,-0.05829,0.17899,-0.08636,-0.02487,-0.0473,-0.01709,-0.00153,-0.02533,-0.12253,-0.09735,0.09186,-0.03464,-0.01556,0.00687,-0.04501
5.254,0.10437,-0.07477,0.14542,-0.12299,-0.02457,-0.0531,-0.01648,-0.00198,-0.01099,-0.07156,-0.01175,0.03174,-0.03555,-0.01526,0.0058,-0.04272
5.2545,0.10818,-0.10101,0.04135,-0.17349,-0.02441,-0.05844,-0.01556,-0.00275,0.00671,-0.03647,0.08392,-0.05615,-0.03525,-0.01465,0.00565,-0.03952
5.255,0.11047,-0.10971,-0.10788,-0.21942,-0.02472,-0.06058,-0.0145,-0.00381,0.01831,-0.02151,0.16693,-0.13168,-0.0354,-0.01343,0.0058,-0.03708
5.2555,0.10071,-0.08942,-0.22568,-0.24307,-0.02594,-0.06058,-0.01358,-0.00488,0.02518,-0.0174,0.2124,-0.16159,-0.03601,-0.01343,0.00778,-0.03693
5.256,0.07675,-0.06149,-0.26917,-0.24551,-0.02762,-0.05875,-0.01419,-0.0058,0.03067,-0.01297,0.20462,-0.1387,-0.03677,-0.0145,0.00809,-0.03769
5.2565,0.04456,-0.05524,-0.25406,-0.22507,-0.02701,-0.05753,-0.01633,-0.00641,0.03143,0.00153,0.14511,-0.09109,-0.03677,-0.01633,0.00793,-0.0386
5.257,0.01724,-0.06744,-0.21973,-0.16998,-0.02487,-0.05615,-0.0177,-0.0061,0.02213,0.02686,0.04761,-0.05295,-0.03632,-0.01663,0.00687,-0.03937
5.2575,0.00168,-0.06439,-0.19989,-0.07858,-0.02472,-0.05463,-0.01709,-0.0061,0.00488,0.05905,-0.06851,-0.03632,-0.03586,-0.01572,0.00702,-0.04059
5.258,-0.0029,-0.03387,-0.20813,0.01724,-0.02792,-0.05295,-0.01633,-0.00504,-0.01404,0.08331,-0.18295,-0.03067,-0.03555,-0.01617,0.00641,-0.04196
5.2585,0.00031,-0.00183,-0.23865,0.08636,-0.03159,-0.05341,-0.01495,-0.00488,-0.03082,0.08438,-0.28915,-0.02609,-0.0354,-0.01678,0.00641,-0.04288
5.259,0.00565,-0.00061,-0.27451,0.11978,-0.03326,-0.05646,-0.01587,-0.00534,-0.04425,0.05829,-0.39169,-0.01602,-0.0354,-0.01617,0.00687,-0.0441
5.2595,0.01297,-0.03693,-0.30365,0.12619,-0.0322,-0.05753,-0.01678,-0.00412,-0.05081,0.03296,-0.47577,-0.00229,-0.03494,-0.01373,0.00732,-0.04303
5.26,0.01923,-0.1001,-0.31769,0.10849,-0.03082,-0.05783,-0.01587,-0.00107,-0.05417,0.04456,-0.50476,-0.00473,-0.03525,-0.0119,0.0087,-0.04196
5.2605,0.01343,-0.18005,-0.29572,0.0708,-0.03036,-0.05844,-0.01389,0.00046,-0.05753,0.08865,-0.46829,-0.03143,-0.03464,-0.01221,0.00931,-0.04074
5.261,-0.00717,-0.26398,-0.22644,0.02075,-0.03021,-0.05646,-0.01236,0.00031,-0.06012,0.11826,-0.40955,-0.05859,-0.03372,-0.01205,0.009,-0.04181
5.2615,-0.03021,-0.31357,-0.1474,-0.03036,-0.02991,-0.05386,-0.01266,-0.00198,-0.05371,0.10147,-0.37491,-0.05829,-0.03326,-0.01144,0.00916,-0.04318
5.262,-0.0386,-0.28671,-0.11169,-0.08041,-0.02838,-0.05035,-0.01465,-0.0032,-0.0325,0.0621,-0.36392,-0.03601,-0.03403,-0.01053,0.00885,-0.04288
5.2625,-0.02808,-0.18478,-0.12131,-0.14099,-0.02747,-0.04791,-0.01587,-0.00381,-0.00214,0.04974,-0.34927,-0.00473,-0.03418,-0.01099,0.00961,-0.04333
5.263,-0.00656,-0.05905,-0.12695,-0.21576,-0.02853,-0.04562,-0.01602,-0.00458,0.02838,0.07858,-0.31784,0.05417,-0.03372,-0.01358,0.00885,-0.04227
5.2635,0.01602,0.03525,-0.09964,-0.28458,-0.02853,-0.04425,-0.01541,-0.00412,0.05096,0.1152,-0.28671,0.15854,-0.03296,-0.01663,0.00793,-0.04257
5.264,0.03189,0.08743,-0.05203,-0.31769,-0.02747,-0.04425,-0.01511,-0.00351,0.05829,0.12054,-0.27435,0.24857,-0.03403,-0.01923,0.00687,-0.04166
5.2645,0.03799,0.11719,-0.00336,-0.30746,-0.02701,-0.04578,-0.01511,-0.00305,0.04868,0.09689,-0.2829,0.224,-0.03403,-0.01999,0.00641,-0.04135
5.265,0.03754,0.14221,0.04074,-0.27084,-0.02899,-0.04883,-0.01434,-0.00381,0.03128,0.0766,-0.30075,0.08453,-0.03448,-0.01862,0.00641,-0.04181
5.2655,0.03891,0.16418,0.07172,-0.23682,-0.03113,-0.0499,-0.01404,-0.00565,0.01465,0.08118,-0.32349,-0.04852,-0.03418,-0.01816,0.00656,-0.0415
5.266,0.04745,0.17548,0.07858,-0.21912,-0.03174,-0.04974,-0.0148,-0.00702,0.00671,0.09811,-0.35217,-0.07599,-0.03586,-0.0177,0.00702,-0.04074
5.2665,0.05829,0.17624,0.05814,-0.18005,-0.03296,-0.04974,-0.01541,-0.00626,0.00458,0.09857,-0.37857,-0.02472,-0.03586,-0.01556,0.00656,-0.03967
5.267,0.06073,0.16876,0.01892,-0.05554,-0.03326,-0.04852,-0.0148,-0.00458,0.00275,0.07156,-0.37811,0.0235,-0.03418,-0.01282,0.00656,-0.03967
5.2675,0.05386,0.15411,-0.02792,0.14481,-0.03433,-0.04761,-0.01465,-0.00366,-0.00885,0.02686,-0.33554,0.03494,-0.03342,-0.01129,0.00748,-0.03952
5.268,0.04776,0.13092,-0.06866,0.3186,-0.03357,-0.04791,-0.0148,-0.00412,-0.0322,-0.01373,-0.27618,0.02396,-0.0325,-0.01251,0.00763,-0.03967
5.2685,0.05173,0.10117,-0.08636,0.37231,-0.03387,-0.047,-0.01617,-0.00381,-0.05692,-0.03418,-0.25131,0.01175,-0.03174,-0.01587,0.00626,-0.03922
5.269,0.06256,0.07202,-0.08133,0.32013,-0.03311,-0.04532,-0.01633,-0.00275,-0.06531,-0.0325,-0.2829,0.00168,-0.03143,-0.0177,0.00473,-0.03937
5.2695,0.06882,0.05219,-0.07614,0.24139,-0.03281,-0.04166,-0.01526,-0.00214,-0.05417,-0.01678,-0.33127,-0.0058,-0.03143,-0.0174,0.00458,-0.03952
5.27,0.06332,0.0383,-0.09567,0.18661,-0.03128,-0.03922,-0.0145,-0.0029,-0.0415,-0.00153,-0.33875,-0.0087,-0.03159,-0.01419,0.00534,-0.03998
5.2705,0.04593,0.01312,-0.14069,0.15564,-0.03098,-0.03922,-0.01343,-0.00412,-0.04654,0.01144,-0.30106,-0.00854,-0.03128,-0.01312,0.00778,-0.04318
5.271,0.02533,-0.04333,-0.18127,0.13336,-0.03189,-0.04013,-0.01343,-0.00519,-0.06363,0.02701,-0.24261,-0.01007,-0.03159,-0.01556,0.00916,-0.04608
5.2715,0.0087,-0.12497,-0.18463,0.11551,-0.03311,-0.04211,-0.01312,-0.00458,-0.07248,0.04776,-0.17181,-0.01434,-0.0322,-0.01923,0.00946,-0.04654
5.272,-0.0032,-0.18692,-0.14633,0.10605,-0.03281,-0.04257,-0.01266,-0.00366,-0.05875,0.06943,-0.10956,-0.01953,-0.03296,-0.0206,0.00885,-0.04425
5.2725,-0.01526,-0.18646,-0.09094,0.10696,-0.03235,-0.04211,-0.01312,-0.00366,-0.03113,0.08377,-0.11139,-0.02335,-0.0322,-0.0206,0.01038,-0.0412
5.273,-0.03098,-0.13,-0.04944,0.10956,-0.03296,-0.04166,-0.01389,-0.00336,-0.00595,0.09109,-0.18723,-0.02609,-0.03082,-0.02014,0.01129,-0.03998
5.2735,-0.04623,-0.05936,-0.03067,0.10468,-0.03464,-0.04074,-0.01465,-0.00351,0.0119,0.09903,-0.26825,-0.02991,-0.02991,-0.02029,0.01175,-0.04211
5.274,-0.05722,-0.00381,-0.01953,0.09262,-0.03677,-0.03998,-0.01526,-0.00351,0.02609,0.11536,-0.2919,-0.03433,-0.03082,-0.0206,0.00992,-0.04395
5.2745,-0.06317,0.03372,0.00183,0.07828,-0.03876,-0.03998,-0.0145,-0.00366,0.04028,0.1358,-0.26779,-0.03708,-0.03174,-0.01968,0.00824,-0.04395
5.275,-0.07217,0.056,0.03616,0.06729,-0.03891,-0.03906,-0.01358,-0.00244,0.0589,0.15259,-0.23544,-0.03769,-0.03235,-0.01862,0.00931,-0.04257
5.2755,-0.08545,0.05997,0.06897,0.05707,-0.03754,-0.03967,-0.01312,-0.00229,0.08545,0.16159,-0.19867,-0.03799,-0.03311,-0.01907,0.01068,-0.04105
5.276,-0.09445,0.04395,0.09018,0.04349,-0.03616,-0.04211,-0.01328,-0.00259,0.12299,0.16022,-0.14252,-0.03876,-0.03296,-0.02014,0.01144,-0.03906
5.2765,-0.09323,0.01129,0.10147,0.02869,-0.03632,-0.0444,-0.01358,-0.00336,0.16266,0.14435,-0.07507,-0.03876,-0.03235,-0.01999,0.01053,-0.03922
5.277,-0.08286,-0.03555,0.11017,0.0177,-0.03754,-0.04578,-0.01282,-0.0032,0.18616,0.10941,-0.01968,-0.03937,-0.0322,-0.01877,0.00931,-0.04028
5.2775,-0.06653,-0.08926,0.12039,0.01404,-0.03738,-0.04639,-0.01221,-0.00153,0.18188,0.07431,0.02289,-0.03937,-0.0325,-0.0177,0.00809,-0.04013
5.278,-0.04623,-0.12787,0.1329,0.01297,-0.03876,-0.04822,-0.01221,-0.00061,0.14923,0.0647,0.07263,-0.03769,-0.03235,-0.01755,0.00687,-0.04013
5.2785,-0.02304,-0.13138,0.14679,0.00977,-0.03952,-0.05066,-0.01282,-0.00015,0.09979,0.08194,0.14206,-0.03525,-0.03143,-0.0174,0.00763,-0.0415
5.279,-0.00137,-0.11017,0.15533,-0.00839,-0.03998,-0.0528,-0.01297,-0.00107,0.04303,0.09262,0.21591,-0.03296,-0.03159,-0.0177,0.01007,-0.04074
5.2795,0.01587,-0.10178,0.15289,-0.06073,-0.04044,-0.05295,-0.01282,-0.00229,-0.01419,0.07889,0.26627,-0.03067,-0.03052,-0.01785,0.01266,-0.03906
5.28,0.02914,-0.13611,0.14038,-0.15121,-0.03952,-0.05234,-0.01221,-0.0029,-0.06607,0.05341,0.28183,-0.02502,-0.03036,-0.01801,0.01328,-0.03815
5.2805,0.03952,-0.19958,0.12466,-0.24124,-0.03906,-0.05081,-0.01282,-0.00336,-0.11139,0.03937,0.27985,-0.01663,-0.03189,-0.01831,0.01175,-0.0383
5.281,0.0473,-0.2388,0.11703,-0.27328,-0.03662,-0.04791,-0.01358,-0.00351,-0.1506,0.04257,0.28015,-0.00397,-0.03433,-0.01999,0.01038,-0.03845
5.2815,0.04807,-0.20981,0.11627,-0.23911,-0.0322,-0.04349,-0.01373,-0.00305,-0.18219,0.05325,0.28366,0.01144,-0.03418,-0.01953,0.0116,-0.03784
5.282,0.0386,-0.14206,0.11078,-0.17487,-0.02914,-0.03922,-0.01328,-0.00092,-0.20203,0.06088,0.27908,0.01862,-0.03204,-0.01663,0.01343,-0.03708
5.2825,0.02502,-0.10406,0.09308,-0.10986,-0.02899,-0.0383,-0.0119,0.0,-0.21057,0.05936,0.26566,0.00916,-0.03098,-0.01343,0.01358,-0.03754
5.283,0.01511,-0.10788,0.06851,-0.04272,-0.03128,-0.04181,-0.01083,-0.00015,-0.2121,0.06073,0.24704,-0.01266,-0.03098,-0.01312,0.01251,-0.03952
5.2835,0.00778,-0.10559,0.04517,0.03128,-0.03204,-0.04501,-0.01099,-0.00153,-0.20798,0.09064,0.22797,-0.03387,-0.03082,-0.01541,0.01221,-0.0412
5.284,-0.00748,-0.07675,0.02899,0.12817,-0.03082,-0.04761,-0.01129,-0.00183,-0.19302,0.14359,0.21332,-0.04578,-0.02991,-0.01633,0.0148,-0.04181
5.2845,-0.02853,-0.05493,0.04227,0.25223,-0.02884,-0.0473,-0.01129,-0.00198,-0.15869,0.17853,0.20966,-0.04761,-0.02884,-0.01617,0.01846,-0.04074
5.285,-0.04715,-0.06195,0.11719,0.3598,-0.02808,-0.04562,-0.01175,-0.00275,-0.10406,0.16327,0.22797,-0.04608,-0.02945,-0.01587,0.02029,-0.03906
5.2855,-0.05737,-0.07858,0.23315,0.38651,-0.02884,-0.04349,-0.01236,-0.00504,-0.04379,0.11368,0.26413,-0.04852,-0.02975,-0.01648,0.01953,-0.0383
5.286,-0.06073,-0.0824,0.30258,0.3212,-0.02899,-0.04211,-0.0119,-0.00565,0.00214,0.06332,0.30945,-0.04868,-0.02899,-0.0177,0.01755,-0.03891
5.2865,-0.06317,-0.07233,0.26001,0.2179,-0.02777,-0.04028,-0.01205,-0.00458,0.02228,0.02914,0.35477,-0.02914,-0.02823,-0.01801,0.01556,-0.04059
5.287,-0.06821,-0.05615,0.1329,0.12802,-0.02701,-0.03708,-0.01175,-0.00427,0.02197,0.01846,0.39719,0.00916,-0.02808,-0.01678,0.0148,-0.0415
5.2875,-0.07263,-0.04745,-0.0032,0.07095,-0.02594,-0.03235,-0.01099,-0.00427,0.02029,0.02151,0.43045,0.04074,-0.02838,-0.01511,0.01633,-0.0415
5.288,-0.07309,-0.05936,-0.10895,0.05402,-0.02655,-0.02777,-0.01022,-0.0029,0.02487,0.00504,0.44128,0.05478,-0.02914,-0.0148,0.01831,-0.03998
5.2885,-0.06363,-0.08911,-0.18967,0.07645,-0.02777,-0.0267,-0.01038,-0.00031,0.02716,-0.04593,0.42084,0.06592,-0.03098,-0.01572,0.01907,-0.03845
5.289,-0.04364,-0.11444,-0.25131,0.0975,-0.03006,-0.0293,-0.01083,0.00015,0.01923,-0.08972,0.3772,0.08408,-0.03159,-0.0174,0.01999,-0.03723
5.2895,-0.01968,-0.11978,-0.28564,0.05554,-0.03159,-0.03265,-0.0116,-0.00107,0.00717,-0.07156,0.32623,0.08774,-0.03113,-0.01938,0.01968,-0.03754
5.29,-0.00336,-0.10254,-0.27679,-0.05219,-0.03174,-0.03433,-0.01144,-0.00198,0.0029,-0.00305,0.27725,0.04669,-0.03128,-0.02106,0.01907,-0.03952
5.2905,-0.00183,-0.06393,-0.23468,-0.15671,-0.03174,-0.0354,-0.01129,-0.00275,0.00259,0.05539,0.23834,-0.03143,-0.03143,-0.02335,0.01801,-0.04242
5.291,-0.01007,-0.00839,-0.18982,-0.19989,-0.03265,-0.03632,-0.01114,-0.0032,-0.00381,0.06592,0.22141,-0.10773,-0.03235,-0.02411,0.01648,-0.04639
5.2915,-0.01587,0.04501,-0.16891,-0.18814,-0.03387,-0.04028,-0.01022,-0.00259,-0.01572,0.04547,0.23453,-0.15091,-0.03296,-0.02426,0.01404,-0.04883
5.292,-0.02014,0.07446,-0.17014,-0.16479,-0.03464,-0.04562,-0.01007,-0.0029,-0.02502,0.02579,0.27054,-0.16144,-0.03281,-0.02548,0.0119,-0.05051
5.2925,-0.02899,0.07843,-0.17731,-0.16586,-0.03464,-0.05081,-0.01007,-0.00366,-0.02655,0.01999,0.31631,-0.15533,-0.03174,-0.02792,0.01236,-0.05051
5.293,-0.04013,0.07339,-0.16785,-0.20935,-0.03494,-0.05554,-0.0116,-0.00565,-0.0209,0.02136,0.36087,-0.13412,-0.03128,-0.03067,0.01419,-0.04944
5.2935,-0.0444,0.07568,-0.13947,-0.2887,-0.03616,-0.05707,-0.01205,-0.00763,-0.01053,0.02243,0.39032,-0.10513,-0.02884,-0.03159,0.01587,-0.04791
5.294,-0.03738,0.08347,-0.09735,-0.36392,-0.03815,-0.05707,-0.01282,-0.00946,-0.00061,0.02487,0.38895,-0.08987,-0.02747,-0.03296,0.01495,-0.04715
5.2945,-0.02441,0.08484,-0.03479,-0.38559,-0.03708,-0.05661,-0.01297,-0.01022,0.00717,0.03571,0.34882,-0.09476,-0.0264,-0.0325,0.01358,-0.047
5.295,-0.01129,0.07568,0.05371,-0.32104,-0.03418,-0.05524,-0.01328,-0.009,0.01373,0.0589,0.27328,-0.09125,-0.02533,-0.03128,0.01404,-0.04654
5.2955,-0.00122,0.06012,0.1355,-0.16296,-0.03098,-0.05417,-0.01312,-0.00824,0.02213,0.08362,0.18127,-0.05524,-0.02609,-0.02853,0.01419,-0.04547
5.296,0.00534,0.04715,0.14877,0.05081,-0.02792,-0.0531,-0.01221,-0.00656,0.03006,0.09323,0.09659,-0.00473,-0.02808,-0.02747,0.01419,-0.04379
5.2965,0.00916,0.04028,0.07263,0.23071,-0.02701,-0.05249,-0.01205,-0.00473,0.03006,0.07889,0.03143,0.02548,-0.03082,-0.02655,0.01404,-0.04242
5.297,0.01297,0.03952,-0.04074,0.28381,-0.02731,-0.05173,-0.01236,-0.00381,0.02213,0.05325,-0.01266,0.02792,-0.0322,-0.02502,0.01297,-0.04135
5.2975,0.01938,0.04364,-0.11734,0.19791,-0.0267,-0.0499,-0.01236,-0.00259,0.0116,0.0322,-0.03815,0.02274,-0.03204,-0.02045,0.01251,-0.03998
5.298,0.02655,0.04822,-0.12161,0.0676,-0.02762,-0.04852,-0.01251,-0.00214,0.0058,0.01877,-0.04028,0.02426,-0.03128,-0.01511,0.01236,-0.03983
5.2985,0.03067,0.04608,-0.07248,-0.00214,-0.0293,-0.04791,-0.01343,-0.00244,0.00397,0.00595,-0.01389,0.02716,-0.03189,-0.01328,0.01266,-0.04028
5.299,0.03174,0.02319,-0.02396,0.00305,-0.03052,-0.04761,-0.01419,-0.00198,-0.00198,-0.00656,0.03952,0.01968,-0.03235,-0.01556,0.01282,-0.04059
5.2995,0.02823,-0.03265,-0.01617,0.02792,-0.03021,-0.04532,-0.01266,-0.00046,-0.0116,-0.02243,0.10941,-0.00168,-0.03235,-0.01831,0.01343,-0.03952
5.3,0.02121,-0.11185,-0.04562,0.03342,-0.02914,-0.04242,-0.0119,0.00107,-0.01511,-0.05051,0.17822,-0.02838,-0.03342,-0.01953,0.01358,-0.03799
5.3005,0.00702,-0.18509,-0.08423,0.0296,-0.03067,-0.04211,-0.01068,0.00198,-0.00992,-0.09247,0.22629,-0.04623,-0.0351,-0.02029,0.01373,-0.03632
5.301,-0.01434,-0.22232,-0.12161,0.02991,-0.03311,-0.04471,-0.01022,0.00092,-0.00336,-0.13382,0.23956,-0.04562,-0.03693,-0.02197,0.01541,-0.0354
5.3015,-0.03708,-0.21332,-0.15991,0.03189,-0.03571,-0.04669,-0.01053,0.00031,-0.00427,-0.15137,0.21698,-0.02808,-0.03815,-0.02243,0.01663,-0.03479
5.302,-0.05585,-0.16541,-0.19089,0.02792,-0.03586,-0.04745,-0.01144,0.00046,-0.01114,-0.1445,0.16205,-0.00504,-0.03784,-0.02075,0.01556,-0.03525
5.3025,-0.06439,-0.09567,-0.1918,0.02426,-0.03464,-0.04944,-0.01236,0.00076,-0.0206,-0.13397,0.08392,0.01801,-0.03677,-0.01953,0.01419,-0.03677
5.303,-0.06042,-0.02487,-0.1593,0.02274,-0.03342,-0.05096,-0.01282,-0.00137,-0.03387,-0.13748,0.009,0.05005,-0.03784,-0.0177,0.01404,-0.0386
5.3035,-0.05081,0.02396,-0.11414,0.02075,-0.0354,-0.05203,-0.01495,-0.0029,-0.04883,-0.16479,-0.03128,0.09277,-0.04059,-0.0145,0.01312,-0.04044
5.304,-0.04715,0.0412,-0.07141,0.01663,-0.03769,-0.05157,-0.01572,-0.0029,-0.05722,-0.20599,-0.0293,0.12268,-0.04181,-0.00946,0.01297,-0.04135
5.3045,-0.05325,0.04181,-0.03357,0.01175,-0.03708,-0.04974,-0.01511,-0.00275,-0.04974,-0.23651,-0.00702,0.11185,-0.0415,-0.00473,0.01282,-0.04044
5.305,-0.065,0.04745,-0.00946,0.00839,-0.03525,-0.04807,-0.01373,-0.0032,-0.02762,-0.23941,0.01083,0.06866,-0.04074,-0.0029,0.01221,-0.03952
5.3055,-0.07248,0.06638,-0.01404,0.00671,-0.03448,-0.04807,-0.01404,-0.00427,-0.00031,-0.23026,0.01678,0.03036,-0.04181,-0.00259,0.01022,-0.03967
5.306,-0.07187,0.0856,-0.04852,0.0058,-0.03555,-0.05066,-0.01633,-0.0058,0.02472,-0.24368,0.01938,0.02045,-0.04303,-0.00259,0.00946,-0.04105
5.3065,-0.0618,0.09033,-0.08667,0.00473,-0.0351,-0.05508,-0.01633,-0.00641,0.04532,-0.27939,0.02914,0.02594,-0.04288,-0.00366,0.01053,-0.04395
5.307,-0.04349,0.07828,-0.10117,0.00427,-0.03326,-0.05798,-0.0145,-0.00671,0.05951,-0.28946,0.04761,0.02625,-0.04242,-0.00671,0.01114,-0.04669
5.3075,-0.02457,0.05859,-0.08606,0.00412,-0.03113,-0.05905,-0.01236,-0.00488,0.05936,-0.23483,0.06927,0.01663,-0.04227,-0.00931,0.01099,-0.0473
5.308,-0.01144,0.03708,-0.05051,0.00427,-0.03067,-0.05936,-0.01312,-0.0029,0.04044,-0.14267,0.08469,0.00763,-0.04211,-0.01099,0.0087,-0.04669
5.3085,-0.00671,0.01617,-0.00168,0.00381,-0.03128,-0.0592,-0.01511,-0.00351,0.01373,-0.06454,0.08713,0.00488,-0.0412,-0.01221,0.0061,-0.04639
5.309,-0.00534,-0.00534,0.05829,0.00153,-0.0325,-0.05692,-0.01617,-0.00473,-0.00854,-0.02808,0.07935,0.00458,-0.04044,-0.01236,0.00534,-0.04456
5.3095,-0.00336,-0.02304,0.1207,-0.00198,-0.0322,-0.05295,-0.01404,-0.00534,-0.02136,-0.01328,0.065,0.00244,-0.03998,-0.01251,0.00641,-0.04257
5.31,-0.00168,-0.03479,0.16235,-0.00458,-0.03143,-0.05035,-0.01282,-0.00427,-0.0264,0.00549,0.03891,0.00031,-0.04089,-0.01205,0.0087,-0.03952
5.3105,0.00153,-0.04517,0.16785,-0.00732,-0.02975,-0.05081,-0.01312,-0.0029,-0.02426,0.03235,-0.00702,-0.00122,-0.04211,-0.01129,0.00931,-0.0386
5.311,0.00427,-0.06744,0.14221,-0.00854,-0.02777,-0.05081,-0.01297,-0.00259,-0.01633,0.0618,-0.06653,-0.00229,-0.04349,-0.01144,0.00931,-0.04028
5.3115,0.00305,-0.12619,0.10391,-0.00824,-0.02579,-0.04929,-0.01297,-0.00244,-0.00427,0.08865,-0.121,-0.00366,-0.04135,-0.01266,0.00839,-0.04318
5.312,-0.00397,-0.23422,0.07355,-0.00854,-0.02518,-0.04898,-0.01266,-0.00275,0.00671,0.11032,-0.15182,-0.00443,-0.03937,-0.0145,0.00702,-0.04364
5.3125,-0.01343,-0.36285,0.0618,-0.00961,-0.02487,-0.05096,-0.01343,-0.00275,0.01114,0.12115,-0.15259,-0.00412,-0.03784,-0.01755,0.0058,-0.04074
5.313,-0.01877,-0.44495,0.06546,-0.01068,-0.02365,-0.05325,-0.01297,-0.00214,0.00885,0.11719,-0.13138,-0.00168,-0.03723,-0.01999,0.00366,-0.03769
5.3135,-0.01831,-0.43304,0.06683,-0.01083,-0.02335,-0.0531,-0.01404,-0.00244,0.00183,0.08926,-0.10849,-0.00214,-0.03708,-0.02197,0.00336,-0.03586
5.314,-0.01495,-0.33981,0.03815,-0.01038,-0.0235,-0.0528,-0.01434,-0.00244,-0.00549,0.02991,-0.09857,-0.00458,-0.03677,-0.02396,0.00351,-0.03662
5.3145,-0.01343,-0.22293,-0.04013,-0.01022,-0.02563,-0.05264,-0.01404,-0.00244,-0.01144,-0.04395,-0.09521,-0.00717,-0.0351,-0.02518,0.00473,-0.03815
5.315,-0.01556,-0.13687,-0.14923,-0.01175,-0.02563,-0.05219,-0.01389,-0.00259,-0.01358,-0.09186,-0.07965,-0.0061,-0.03235,-0.02731,0.00488,-0.04166
5.3155,-0.01694,-0.09415,-0.2417,-0.01312,-0.0267,-0.05264,-0.01358,-0.00366,-0.01572,-0.08133,-0.04776,-0.00473,-0.02899,-0.02914,0.0058,-0.04395
5.316,-0.01633,-0.06912,-0.28229,-0.01419,-0.02716,-0.05371,-0.01358,-0.00412,-0.0238,-0.0325,-0.00931,-0.00549,-0.0267,-0.0296,0.00687,-0.04395
5.3165,-0.01968,-0.03876,-0.27863,-0.01343,-0.0264,-0.0531,-0.01343,-0.00443,-0.04303,0.00793,0.03342,-0.00748,-0.02472,-0.02792,0.00778,-0.04196
5.317,-0.03311,-0.01007,-0.26031,-0.01038,-0.02594,-0.05249,-0.01434,-0.00458,-0.06897,0.01266,0.08652,-0.00977,-0.02457,-0.02625,0.00671,-0.03906
5.3175,-0.04913,-0.00015,-0.25146,-0.00107,-0.02518,-0.05188,-0.01511,-0.00458,-0.09018,-0.00656,0.14328,-0.01205,-0.02502,-0.02762,0.00626,-0.03723
5.318,-0.05981,0.00458,-0.25482,0.01328,-0.02533,-0.05127,-0.01556,-0.00473,-0.09918,-0.02731,0.18433,-0.01602,-0.02548,-0.03021,0.00641,-0.03403
5.3185,-0.0676,0.03189,-0.25909,0.02563,-0.0264,-0.05035,-0.01694,-0.00458,-0.09872,-0.04471,0.1915,-0.01999,-0.02518,-0.03036,0.00778,-0.03159
5.319,-0.07614,0.08316,-0.24734,0.02823,-0.02914,-0.05051,-0.01678,-0.00458,-0.09903,-0.07172,0.16418,-0.0206,-0.02396,-0.02762,0.00946,-0.02869
5.3195,-0.07965,0.12817,-0.2153,0.01785,-0.02991,-0.05112,-0.01541,-0.00427,-0.10284,-0.10178,0.11459,-0.01831,-0.0235,-0.02533,0.01144,-0.02777
5.32,-0.06699,0.14282,-0.17654,-0.00137,-0.02853,-0.05127,-0.01389,-0.00427,-0.10071,-0.11383,0.056,-0.01831,-0.02487,-0.02533,0.01343,-0.02884
5.3205,-0.03983,0.12619,-0.14862,-0.02304,-0.02579,-0.05096,-0.01251,-0.00412,-0.0856,-0.09796,-0.00244,-0.02213,-0.0267,-0.02518,0.01297,-0.03082
5.321,-0.00916,0.0853,-0.12512,-0.04242,-0.02548,-0.05066,-0.01129,-0.00412,-0.0592,-0.06973,-0.05798,-0.02579,-0.02762,-0.02411,0.01144,-0.03357
5.3215,0.00977,0.02075,-0.08972,-0.05814,-0.02731,-0.05035,-0.01053,-0.00473,-0.03265,-0.05249,-0.11398,-0.02396,-0.02655,-0.02304,0.00992,-0.03647
5.322,0.01175,-0.05447,-0.03693,-0.07111,-0.02838,-0.05051,-0.01083,-0.00412,-0.0148,-0.05936,-0.17807,-0.01892,-0.02533,-0.02243,0.00916,-0.03799
5.3225,0.00305,-0.10178,0.01907,-0.07706,-0.02914,-0.04944,-0.01114,-0.00305,-0.00412,-0.08926,-0.24796,-0.01511,-0.02487,-0.02121,0.00885,-0.03967
5.323,-0.00366,-0.08896,0.06256,-0.07935,-0.03082,-0.04837,-0.01251,-0.0032,0.00259,-0.12665,-0.31448,-0.01526,-0.02457,-0.01923,0.0087,-0.04333
5.3235,-0.00427,-0.02594,0.08423,-0.08377,-0.03235,-0.04715,-0.01266,-0.00458,0.00504,-0.1445,-0.36789,-0.01709,-0.02533,-0.01678,0.00763,-0.0502
5.324,-0.00107,0.04303,0.08743,-0.08926,-0.03265,-0.0441,-0.01251,-0.00549,0.00168,-0.13245,-0.40497,-0.01801,-0.02625,-0.01511,0.00351,-0.05463
5.3245,-0.00061,0.08057,0.07996,-0.08545,-0.03113,-0.04059,-0.01221,-0.00519,-0.00214,-0.10513,-0.42343,-0.01907,-0.02686,-0.01495,-0.0029,-0.05829
5.325,0.00076,0.07202,0.06622,-0.06744,-0.03021,-0.03784,-0.01251,-0.00488,0.00031,-0.08209,-0.41092,-0.01846,-0.02747,-0.01526,-0.00793,-0.06119
5.3255,0.01617,0.02945,0.04272,-0.04547,-0.03174,-0.03815,-0.01282,-0.00397,0.00656,-0.06882,-0.35965,-0.01709,-0.02838,-0.01602,-0.01053,-0.06729
5.326,0.05463,-0.00854,0.00839,-0.0293,-0.0325,-0.03983,-0.01328,-0.00229,0.00931,-0.05402,-0.27588,-0.01404,-0.02899,-0.01785,-0.01266,-0.07217
5.3265,0.103,-0.01114,-0.02869,-0.01862,-0.03418,-0.04013,-0.01404,-0.00168,0.00778,-0.03311,-0.18768,-0.01312,-0.03036,-0.02075,-0.01358,-0.07248
5.327,0.13336,0.01434,-0.05219,-0.0087,-0.03342,-0.03998,-0.0145,-0.00259,0.00916,-0.00961,-0.12085,-0.01465,-0.03159,-0.02197,-0.01328,-0.0679
5.3275,0.13123,0.03082,-0.05249,-0.00275,-0.0322,-0.04044,-0.01419,-0.0032,0.01495,0.00839,-0.08179,-0.0174,-0.03326,-0.02228,-0.01114,-0.05997
5.328,0.1062,0.01556,-0.04013,-0.00305,-0.03235,-0.04242,-0.01511,-0.00305,0.01862,0.0174,-0.06393,-0.01923,-0.03448,-0.02304,-0.009,-0.05325
5.3285,0.07614,-0.03036,-0.02792,-0.00656,-0.03296,-0.04318,-0.01572,-0.00214,0.01694,0.01556,-0.05264,-0.01907,-0.03525,-0.02487,-0.00732,-0.05005
5.329,0.05066,-0.08911,-0.02136,-0.00504,-0.03357,-0.04242,-0.01617,-0.00153,0.01038,0.00504,-0.03769,-0.01801,-0.03464,-0.0264,-0.00443,-0.05035
5.3295,0.03036,-0.13107,-0.0174,0.00183,-0.03479,-0.04044,-0.01556,-0.00183,0.00275,-0.01221,-0.0145,-0.01617,-0.03326,-0.02548,-0.00015,-0.0499
5.33,0.01373,-0.13977,-0.02075,0.01236,-0.03632,-0.03937,-0.0148,-0.00137,-0.00412,-0.03204,0.00671,-0.01221,-0.03067,-0.02258,0.00565,-0.04562
5.3305,0.00183,-0.13184,-0.0354,0.02197,-0.03632,-0.03952,-0.0145,-0.00092,-0.009,-0.04852,0.0145,-0.00809,-0.02975,-0.01968,0.00885,-0.0383
5.331,-0.0061,-0.13199,-0.05295,0.02747,-0.03479,-0.04059,-0.01297,-0.00092,-0.00946,-0.05875,0.00702,-0.00534,-0.02991,-0.01709,0.00916,-0.03403
5.3315,-0.01724,-0.13184,-0.05661,0.02914,-0.03387,-0.0415,-0.01266,-0.00122,-0.00626,-0.06317,-0.00183,-0.00458,-0.03067,-0.01526,0.01068,-0.03403
5.332,-0.0354,-0.09979,-0.04105,0.03143,-0.03357,-0.04257,-0.01282,-0.00076,-0.00183,-0.06119,0.00031,-0.00504,-0.03204,-0.01602,0.01083,-0.03677
5.3325,-0.05219,-0.03357,-0.02304,0.03601,-0.03433,-0.04318,-0.01343,-0.00107,-0.00183,-0.05249,0.01373,-0.00443,-0.03311,-0.01862,0.00916,-0.03891
5.333,-0.056,0.03342,-0.01633,0.03662,-0.03448,-0.04135,-0.01389,-0.00153,-0.00702,-0.03891,0.02686,-0.00305,-0.03296,-0.01862,0.00565,-0.03967
5.3335,-0.04242,0.07111,-0.01617,0.02533,-0.03296,-0.04013,-0.01434,-0.00198,-0.01099,-0.02106,0.03159,-0.0029,-0.03326,-0.01511,0.0032,-0.04089
5.334,-0.02335,0.07828,-0.0058,0.00412,-0.03265,-0.04059,-0.0145,-0.00214,-0.00305,0.00351,0.03418,-0.00885,-0.03448,-0.01175,0.00488,-0.04196
5.3345,-0.01099,0.06897,0.01785,-0.01099,-0.0325,-0.04303,-0.01389,-0.00061,0.0116,0.03372,0.04364,-0.02319,-0.0354,-0.01068,0.00793,-0.04196
5.335,-0.01083,0.04974,0.04578,-0.00641,-0.03281,-0.04623,-0.01328,-0.00061,0.0209,0.05539,0.05524,-0.04395,-0.03601,-0.01129,0.00977,-0.04242
5.3355,-0.01877,0.01511,0.07278,0.01602,-0.0325,-0.04852,-0.01236,-0.00122,0.02258,0.05539,0.05875,-0.06592,-0.03693,-0.01083,0.00885,-0.04211
5.336,-0.02823,-0.03662,0.09644,0.04822,-0.03296,-0.05112,-0.01251,-0.00046,0.02396,0.03922,0.05402,-0.08102,-0.03815,-0.01068,0.00977,-0.04288
5.3365,-0.03311,-0.09613,0.1004,0.07767,-0.03281,-0.05341,-0.01328,0.0,0.02869,0.02853,0.04944,-0.08499,-0.03922,-0.01038,0.01022,-0.04333
5.337,-0.02884,-0.14389,0.07217,0.08942,-0.0322,-0.05478,-0.01312,0.00061,0.03342,0.03464,0.05096,-0.07401,-0.04044,-0.01007,0.01083,-0.04288
5.3375,-0.01892,-0.17151,0.01968,0.06943,-0.03159,-0.05493,-0.01266,0.00168,0.0325,0.04105,0.05371,-0.04333,-0.04196,-0.00854,0.01007,-0.04089
5.338,-0.01083,-0.18417,-0.02396,0.01648,-0.03311,-0.05463,-0.01266,0.00153,0.02045,0.02258,0.0444,0.00473,-0.04349,-0.00748,0.00916,-0.03876
5.3385,-0.01083,-0.18768,-0.02411,-0.0531,-0.03418,-0.05478,-0.01373,-0.00015,-0.00168,-0.01358,0.02716,0.0589,-0.04318,-0.00671,0.00763,-0.0383
5.339,-0.01587,-0.18677,0.02426,-0.11276,-0.03342,-0.05325,-0.01404,-0.00137,-0.02518,-0.03571,0.01328,0.09384,-0.04242,-0.00763,0.00778,-0.03952
5.3395,-0.02197,-0.19348,0.09003,-0.15808,-0.03296,-0.05188,-0.01526,-0.00168,-0.0383,-0.02304,0.01678,0.08652,-0.04135,-0.01068,0.00916,-0.04059
5.34,-0.02869,-0.20462,0.12482,-0.20767,-0.03342,-0.05234,-0.01526,-0.00015,-0.04257,0.01389,0.04105,0.03647,-0.04105,-0.01373,0.01068,-0.03738
5.3405,-0.03906,-0.18677,0.112,-0.27893,-0.03372,-0.0531,-0.0148,-0.00107,-0.04822,0.05035,0.07568,-0.02136,-0.03998,-0.01572,0.01099,-0.03632
5.341,-0.0528,-0.12054,0.07553,-0.35583,-0.03403,-0.05264,-0.01251,-0.0032,-0.06226,0.06851,0.10742,-0.04028,-0.03845,-0.01541,0.01068,-0.03799
5.3415,-0.0618,-0.03555,0.04913,-0.3923,-0.03464,-0.05127,-0.01083,-0.0061,-0.07599,0.0679,0.12146,-0.01022,-0.03769,-0.01419,0.00931,-0.04089
5.342,-0.05508,0.0209,0.04608,-0.35751,-0.03311,-0.04837,-0.01144,-0.00854,-0.08148,0.05356,0.10223,0.02487,-0.03891,-0.0119,0.00854,-0.04288
5.3425,-0.03769,0.03937,0.07324,-0.26505,-0.03296,-0.04547,-0.01236,-0.00885,-0.08194,0.03159,0.04425,0.01755,-0.03967,-0.01038,0.01038,-0.04257
5.343,-0.02243,0.04349,0.13489,-0.15289,-0.0322,-0.04166,-0.01282,-0.00778,-0.08728,0.01053,-0.04303,-0.02914,-0.03967,-0.01144,0.01038,-0.04013
5.3435,-0.01282,0.04456,0.2182,-0.04288,-0.03159,-0.04044,-0.01312,-0.00595,-0.1001,-0.00656,-0.13916,-0.06821,-0.03754,-0.01389,0.01129,-0.03876
5.344,-0.00214,0.0296,0.27679,0.05066,-0.03189,-0.03967,-0.01343,-0.0058,-0.11703,-0.01968,-0.22034,-0.06714,-0.03632,-0.01678,0.01099,-0.03799
5.3445,0.01266,-0.00168,0.25772,0.09109,-0.03235,-0.04196,-0.01373,-0.00702,-0.13733,-0.0322,-0.27039,-0.03174,-0.03662,-0.01862,0.01129,-0.03769
5.345,0.02197,-0.02121,0.15396,0.06409,-0.03418,-0.04364,-0.01266,-0.00732,-0.15732,-0.04883,-0.28503,0.01068,-0.03708,-0.02014,0.01022,-0.03754
5.3455,0.01389,-0.00473,0.0,0.02411,-0.03372,-0.0473,-0.01038,-0.0061,-0.16571,-0.07431,-0.2681,0.03647,-0.03555,-0.02289,0.009,-0.03845
5.346,-0.00946,0.03204,-0.1619,0.02853,-0.03281,-0.0502,-0.01022,-0.00336,-0.15411,-0.10345,-0.22293,0.03754,-0.03387,-0.02548,0.00854,-0.03906
5.3465,-0.02991,0.0563,-0.30106,0.06226,-0.03235,-0.05402,-0.01175,-0.00214,-0.1265,-0.12375,-0.15259,0.02228,-0.0322,-0.02686,0.0087,-0.04044
5.347,-0.03098,0.056,-0.37933,0.08804,-0.03235,-0.05554,-0.01358,-0.00259,-0.09415,-0.1268,-0.0705,0.00412,-0.03052,-0.02792,0.00763,-0.04211
5.3475,-0.01465,0.04257,-0.3891,0.11963,-0.03113,-0.05463,-0.01312,-0.0029,-0.0621,-0.11673,0.0,-0.00671,-0.02899,-0.03021,0.00458,-0.04425
5.348,0.0029,0.02838,-0.34653,0.17761,-0.03113,-0.05341,-0.01205,-0.00381,-0.03036,-0.10635,0.04456,-0.00671,-0.02777,-0.03418,0.00259,-0.04623
5.3485,0.00977,0.01511,-0.2829,0.22583,-0.02991,-0.05417,-0.01205,-0.00366,-0.00061,-0.09781,0.06119,-0.00153,-0.0264,-0.03754,0.00076,-0.04745
5.349,0.01205,0.00198,-0.21683,0.21255,-0.0296,-0.05554,-0.01328,-0.00397,0.0206,-0.0795,0.06287,0.00244,-0.02335,-0.03769,0.0029,-0.04715
5.3495,0.01663,-0.00809,-0.14999,0.14664,-0.03174,-0.05569,-0.01404,-0.00397,0.0296,-0.04333,0.06027,0.0058,-0.01953,-0.03586,0.00427,-0.04654
5.35,0.02701,-0.00687,-0.08804,0.08804,-0.0322,-0.056,-0.01266,-0.00443,0.03326,0.00595,0.05707,0.00732,-0.01617,-0.03357,0.00351,-0.04608
5.3505,0.04028,0.0061,-0.04318,0.0676,-0.03357,-0.05554,-0.01221,-0.00549,0.03937,0.05203,0.04272,0.00763,-0.01556,-0.03143,0.00153,-0.0444
5.351,0.05386,0.01846,-0.02029,0.06882,-0.03296,-0.05371,-0.01266,-0.00381,0.04837,0.08408,0.01419,0.00641,-0.01694,-0.03174,-0.00183,-0.04303
5.3515,0.06256,0.01404,-0.02243,0.06882,-0.03128,-0.05066,-0.01343,-0.00198,0.05615,0.09796,-0.01572,0.00595,-0.01724,-0.03265,-0.00336,-0.04135
5.352,0.06271,-0.0116,-0.05554,0.06882,-0.02914,-0.04715,-0.01297,-0.00107,0.05692,0.09491,-0.03647,0.00626,-0.0174,-0.03372,-0.00275,-0.04013
5.3525,0.05478,-0.04486,-0.12253,0.07477,-0.02777,-0.04395,-0.01175,-0.00244,0.05203,0.08316,-0.05295,0.00595,-0.01999,-0.03357,-0.00153,-0.04013
5.353,0.04517,-0.07156,-0.19623,0.07507,-0.02731,-0.04257,-0.01205,-0.00366,0.0444,0.06989,-0.07919,0.00443,-0.02472,-0.03281,0.00015,-0.03937
5.3535,0.03738,-0.08636,-0.23376,0.06256,-0.02716,-0.04105,-0.01312,-0.00305,0.03876,0.0528,-0.12329,0.00305,-0.02731,-0.03006,0.00198,-0.03952
5.354,0.03006,-0.09338,-0.21408,0.04364,-0.02686,-0.0412,-0.01343,-0.00198,0.03891,0.02731,-0.18478,0.00336,-0.02731,-0.02701,0.00397,-0.03937
5.3545,0.02274,-0.09644,-0.15808,0.02762,-0.02594,-0.04211,-0.01297,-0.00122,0.04608,-0.00244,-0.25009,0.0029,-0.02533,-0.02258,0.00549,-0.03845
5.355,0.0206,-0.09857,-0.09552,0.0177,-0.02609,-0.04379,-0.01205,-0.00153,0.05646,-0.02121,-0.29068,0.00122,-0.02472,-0.01785,0.00702,-0.03815
5.3555,0.02686,-0.10178,-0.03479,0.00946,-0.02777,-0.04471,-0.01205,-0.00259,0.06302,-0.01617,-0.27802,0.00015,-0.02609,-0.0119,0.00656,-0.0383
5.356,0.03662,-0.10559,0.02167,0.00183,-0.02991,-0.04501,-0.01144,-0.00397,0.06577,0.00748,-0.21545,0.0,-0.02792,-0.00381,0.0061,-0.04013
5.3565,0.04349,-0.10239,0.06424,-0.00336,-0.03098,-0.04578,-0.01099,-0.00519,0.06424,0.02762,-0.13992,-0.00046,-0.03082,0.00473,0.0058,-0.04181
5.357,0.04105,-0.0914,0.07767,-0.00549,-0.03204,-0.0473,-0.01099,-0.00519,0.05859,0.03204,-0.08865,-0.00061,-0.03418,0.01038,0.00549,-0.04242
5.3575,0.03326,-0.08057,0.0647,-0.00824,-0.03418,-0.04807,-0.01175,-0.00458,0.05035,0.02579,-0.06973,0.00137,-0.03754,0.01221,0.00412,-0.04211
5.358,0.02625,-0.0795,0.06348,-0.01434,-0.03754,-0.04684,-0.01266,-0.00336,0.04272,0.02121,-0.07126,0.00763,-0.03845,0.01068,0.00397,-0.03983
5.3585,0.02014,-0.08636,0.10361,-0.02228,-0.03937,-0.0441,-0.01328,-0.00336,0.03693,0.01984,-0.07675,0.01923,-0.03845,0.00885,0.00534,-0.03983
5.359,0.00656,-0.09064,0.16342,-0.02747,-0.03922,-0.04135,-0.01434,-0.00366,0.03082,0.01633,-0.07263,0.03387,-0.03723,0.00778,0.00702,-0.04074
5.3595,-0.01907,-0.09003,0.17593,-0.02716,-0.03754,-0.04028,-0.01389,-0.00381,0.02319,0.01099,-0.05005,0.0412,-0.03555,0.00626,0.00854,-0.04166
5.36,-0.04745,-0.10391,0.10529,-0.0267,-0.03784,-0.04028,-0.01221,-0.00381,0.01526,-0.00046,-0.00931,0.03403,-0.03418,0.00259,0.00732,-0.04074
5.3605,-0.06577,-0.14832,-0.00671,-0.02808,-0.03815,-0.04166,-0.01175,-0.00305,0.00519,-0.03021,0.04227,0.01724,-0.03494,-0.00137,0.00778,-0.04013
5.361,-0.07065,-0.19485,-0.09995,-0.02899,-0.03769,-0.04395,-0.01205,-0.0029,-0.00626,-0.08667,0.09613,0.00366,-0.03662,-0.00443,0.00763,-0.03998
5.3615,-0.06683,-0.18814,-0.15305,-0.02609,-0.03662,-0.04791,-0.01312,-0.00305,-0.01694,-0.15167,0.14801,0.00092,-0.03754,-0.00641,0.00778,-0.0412
5.362,-0.06088,-0.12344,-0.16266,-0.01892,-0.03571,-0.05188,-0.01297,-0.00366,-0.02396,-0.1857,0.19058,0.00488,-0.03723,-0.00839,0.00702,-0.04257
5.3625,-0.05341,-0.06592,-0.11688,-0.01404,-0.0351,-0.05234,-0.01251,-0.00366,-0.02533,-0.16571,0.21729,0.009,-0.03693,-0.00961,0.00732,-0.04196
5.363,-0.04196,-0.0676,-0.0264,-0.01312,-0.03372,-0.04883,-0.01404,-0.00351,-0.02396,-0.11353,0.21698,0.01022,-0.03662,-0.01007,0.00839,-0.04059
5.3635,-0.02945,-0.10361,0.06104,-0.01526,-0.03189,-0.04715,-0.01602,-0.00366,-0.02106,-0.06836,0.186,0.00397,-0.03616,-0.0119,0.00946,-0.04044
5.364,-0.02243,-0.12146,0.1033,-0.01617,-0.03143,-0.04837,-0.01678,-0.00381,-0.01785,-0.04654,0.13,-0.01541,-0.03677,-0.01968,0.00809,-0.0415
5.3645,-0.02762,-0.11383,0.11093,-0.01816,-0.0322,-0.04944,-0.01511,-0.0032,-0.02457,-0.03387,0.05997,-0.04807,-0.03754,-0.03479,0.00549,-0.0441
5.365,-0.04333,-0.11505,0.1181,-0.02167,-0.03189,-0.04745,-0.01389,-0.00336,-0.04272,-0.01816,-0.01694,-0.08057,-0.03754,-0.05142,0.00504,-0.04471
5.3655,-0.05859,-0.13229,0.12268,-0.02945,-0.03265,-0.0444,-0.01419,-0.00412,-0.05997,-0.01175,-0.09277,-0.09628,-0.03708,-0.06119,0.00549,-0.04349
5.366,-0.06104,-0.13153,0.09216,-0.04517,-0.03281,-0.03998,-0.01434,-0.00427,-0.06241,-0.02502,-0.14847,-0.09628,-0.03632,-0.05936,0.00702,-0.04135
5.3665,-0.04578,-0.08652,0.00778,-0.07492,-0.03204,-0.03769,-0.01465,-0.00412,-0.05463,-0.04303,-0.16403,-0.0972,-0.03632,-0.04929,0.00854,-0.03891
5.367,-0.02533,-0.00854,-0.10773,-0.11002,-0.03098,-0.03693,-0.01511,-0.00305,-0.05096,-0.0499,-0.13931,-0.10193,-0.03662,-0.03281,0.00809,-0.03677
5.3675,-0.01312,0.07095,-0.20538,-0.12619,-0.02884,-0.03693,-0.01602,-0.00366,-0.0563,-0.05249,-0.09094,-0.08377,-0.03647,-0.01465,0.00687,-0.03555
5.368,-0.0119,0.13077,-0.24948,-0.10269,-0.02762,-0.0386,-0.01633,-0.00458,-0.06775,-0.0676,-0.03891,-0.03006,-0.03586,-0.00473,0.00687,-0.03632
5.3685,-0.01541,0.16953,-0.24628,-0.04486,-0.0293,-0.04135,-0.01495,-0.00397,-0.08041,-0.08759,0.00443,0.02579,-0.03357,-0.0061,0.00778,-0.03769
5.369,-0.01846,0.18997,-0.22598,0.01404,-0.0293,-0.04486,-0.01312,-0.00137,-0.09033,-0.08545,0.03662,0.03738,-0.0293,-0.0119,0.0087,-0.03845
5.3695,-0.02182,0.19455,-0.20996,0.03418,-0.02914,-0.0502,-0.01205,0.0,-0.09583,-0.04883,0.07156,0.00534,-0.02533,-0.0177,0.00839,-0.03845
5.37,-0.0264,0.17838,-0.20538,-0.00626,-0.02945,-0.05661,-0.01175,0.00107,-0.09369,0.01526,0.12589,-0.03433,-0.02426,-0.02182,0.00778,-0.03967
5.3705,-0.02975,0.14008,-0.21835,-0.08957,-0.03067,-0.06195,-0.0119,0.00107,-0.08774,0.08636,0.19211,-0.06577,-0.02502,-0.02228,0.00595,-0.04227
5.371,-0.02808,0.09857,-0.24597,-0.16266,-0.03204,-0.06226,-0.0119,0.00107,-0.07629,0.14725,0.23895,-0.08499,-0.02518,-0.0174,0.00412,-0.04471
5.3715,-0.02258,0.08209,-0.27008,-0.17181,-0.03128,-0.05737,-0.01282,0.00046,-0.05768,0.18051,0.23727,-0.06409,-0.02457,-0.01358,0.00412,-0.04532
5.372,-0.01572,0.10056,-0.26184,-0.12466,-0.03082,-0.05249,-0.01541,-0.00046,-0.03296,0.18097,0.18509,0.00397,-0.02396,-0.01724,0.00519,-0.04501
5.3725,-0.00793,0.13184,-0.21454,-0.07828,-0.02975,-0.0502,-0.01648,-0.00229,-0.00275,0.15854,0.10391,0.06927,-0.02304,-0.02197,0.00519,-0.04456
5.373,0.00198,0.14313,-0.15305,-0.06836,-0.02975,-0.04974,-0.01572,-0.0029,0.0264,0.13275,0.01343,0.09735,-0.02121,-0.02014,0.00504,-0.04547
5.3735,0.01343,0.12192,-0.11078,-0.07156,-0.02991,-0.04898,-0.01556,-0.00305,0.0444,0.11429,-0.08026,0.11703,-0.02075,-0.01465,0.00244,-0.04639
5.374,0.01709,0.07706,-0.09872,-0.04211,-0.03052,-0.04623,-0.01556,-0.0029,0.04623,0.09903,-0.17426,0.14267,-0.0206,-0.01801,0.00046,-0.04761
5.3745,0.01343,0.03098,-0.10376,0.03235,-0.0325,-0.04257,-0.01633,-0.00244,0.0386,0.07843,-0.25864,0.14648,-0.01892,-0.0351,-0.00015,-0.04837
5.375,0.00854,0.00076,-0.10742,0.10773,-0.03189,-0.03967,-0.01556,-0.00259,0.03525,0.05081,-0.32196,0.12131,-0.01724,-0.06058,0.0,-0.04837
5.3755,0.00793,-0.01266,-0.09674,0.12909,-0.02991,-0.03769,-0.01343,-0.0029,0.03815,0.02243,-0.35812,0.09369,-0.01724,-0.08759,0.00198,-0.04684
5.376,0.00961,-0.01923,-0.07355,0.10757,-0.02762,-0.03586,-0.01358,-0.00351,0.03845,-0.00031,-0.36636,0.06302,-0.0174,-0.10971,0.00351,-0.0444
5.3765,0.00946,-0.0293,-0.04517,0.09323,-0.02792,-0.03403,-0.01526,-0.00458,0.03006,-0.01938,-0.35522,0.00977,-0.01831,-0.11581,0.00443,-0.04227
5.377,0.0061,-0.04791,-0.0174,0.0943,-0.02838,-0.03296,-0.01678,-0.0058,0.01602,-0.04501,-0.33218,-0.05463,-0.01923,-0.09521,0.00305,-0.04105
5.3775,0.00351,-0.07446,0.01129,0.06638,-0.0293,-0.03494,-0.01709,-0.0061,0.00473,-0.07889,-0.29846,-0.08957,-0.02167,-0.05676,0.0029,-0.04074
5.378,0.00717,-0.09964,0.04272,-0.00076,-0.02869,-0.0386,-0.01709,-0.00702,-0.00244,-0.103,-0.25497,-0.08255,-0.02289,-0.02777,0.00443,-0.04074
5.3785,0.01724,-0.10956,0.07889,-0.05768,-0.02899,-0.04456,-0.01648,-0.00671,-0.00916,-0.09155,-0.20859,-0.05859,-0.02289,-0.01892,0.0061,-0.04074
5.379,0.02701,-0.09979,0.11581,-0.056,-0.03021,-0.04868,-0.01572,-0.00565,-0.01953,-0.04776,-0.16693,-0.03387,-0.02304,-0.02151,0.00671,-0.04211
5.3795,0.03006,-0.08377,0.14404,-0.01129,-0.03128,-0.04959,-0.01526,-0.00488,-0.03143,-0.00778,-0.13397,-0.00107,-0.02411,-0.02502,0.00671,-0.04211
5.38,0.02579,-0.08331,0.15503,0.02579,-0.02975,-0.04822,-0.01465,-0.00488,-0.03769,-0.00336,-0.11124,0.02762,-0.0264,-0.02441,0.00656,-0.04013
5.3805,0.01938,-0.11581,0.14999,0.02716,-0.0293,-0.04593,-0.01465,-0.00534,-0.03494,-0.03098,-0.09796,0.01892,-0.02991,-0.02258,0.00641,-0.03815
5.381,0.01602,-0.16724,0.13199,0.00412,-0.02945,-0.04486,-0.01434,-0.00458,-0.0293,-0.06195,-0.08499,-0.02121,-0.03189,-0.01907,0.00595,-0.03754
5.3815,0.01953,-0.19821,0.11169,-0.01709,-0.03052,-0.04776,-0.01221,-0.00443,-0.02716,-0.07706,-0.06531,-0.03632,-0.03296,-0.01373,0.00641,-0.03845
5.382,0.02808,-0.19119,0.10391,-0.02029,-0.03235,-0.05264,-0.01129,-0.00443,-0.02975,-0.08118,-0.0412,-0.00122,-0.03372,-0.01007,0.00717,-0.03967
5.3825,0.03601,-0.168,0.12054,-0.00702,-0.03387,-0.05463,-0.01175,-0.00473,-0.03021,-0.08591,-0.01602,0.04135,-0.03448,-0.00916,0.00809,-0.04105
5.383,0.03799,-0.15137,0.15488,0.00824,-0.03448,-0.05356,-0.01404,-0.00351,-0.0235,-0.1004,0.01404,0.04593,-0.03433,-0.00854,0.00748,-0.0412
5.3835,0.03326,-0.12894,0.18967,0.01282,-0.03448,-0.0528,-0.01526,-0.00229,-0.0148,-0.11093,0.04364,0.02335,-0.03357,-0.00549,0.00656,-0.03998
5.384,0.02548,-0.08347,0.20798,0.00702,-0.03418,-0.05173,-0.01495,-0.00107,-0.01266,-0.1004,0.05341,0.0116,-0.03326,-0.00229,0.00748,-0.03983
5.3845,0.01648,-0.02899,0.18814,0.00107,-0.03464,-0.05264,-0.01419,-0.00137,-0.01862,-0.06348,0.03616,0.01831,-0.03403,-0.00153,0.00687,-0.0383
5.385,0.00717,0.00717,0.11139,0.00137,-0.0354,-0.05371,-0.01465,-0.00168,-0.02777,-0.01846,0.01236,0.02548,-0.03632,-0.00351,0.00778,-0.03891
5.3855,-0.0032,0.01617,-0.01877,0.00351,-0.03571,-0.05478,-0.01495,-0.00305,-0.03296,0.01541,0.00931,0.02121,-0.03586,-0.00549,0.00885,-0.04074
5.386,-0.01297,0.01297,-0.16678,0.00458,-0.03494,-0.05341,-0.01373,-0.00473,-0.03189,0.03189,0.02991,0.01358,-0.03677,-0.00732,0.01007,-0.0444
5.3865,-0.02045,0.00839,-0.28473,0.00275,-0.03448,-0.0502,-0.01251,-0.00381,-0.02609,0.03571,0.0589,0.01022,-0.0383,-0.00763,0.00946,-0.04822
5.387,-0.02274,-0.00046,-0.34134,-0.00137,-0.03326,-0.04715,-0.01343,-0.00198,-0.02182,0.03387,0.08759,0.0087,-0.04059,-0.00443,0.00809,-0.04974
5.3875,-0.02197,-0.01831,-0.34012,-0.00687,-0.03265,-0.04639,-0.01617,-0.00168,-0.0206,0.03021,0.11353,0.0087,-0.03983,0.00046,0.00824,-0.04822
5.388,-0.01938,-0.03708,-0.30487,-0.00977,-0.03296,-0.04745,-0.01678,-0.00305,-0.02106,0.02533,0.13351,0.00793,-0.0383,0.00519,0.00824,-0.04395
5.3885,-0.01877,-0.04425,-0.25635,-0.0087,-0.03494,-0.04974,-0.01587,-0.00412,-0.02106,0.02274,0.14221,0.00839,-0.03876,0.00656,0.00793,-0.0415
5.389,-0.02136,-0.03754,-0.20187,-0.00122,-0.03647,-0.05219,-0.01511,-0.00412,-0.02045,0.02243,0.13748,0.0087,-0.03998,0.00427,0.00717,-0.03983
5.3895,-0.02548,-0.0296,-0.14252,0.02304,-0.03693,-0.05524,-0.0148,-0.00259,-0.01938,0.02213,0.12314,0.00916,-0.04074,0.00137,0.00931,-0.04089
5.39,-0.02777,-0.03677,-0.07797,0.0882,-0.03632,-0.05722,-0.01389,-0.00198,-0.01953,0.02045,0.10269,0.00916,-0.03937,-0.00031,0.01038,-0.04166
5.3905,-0.02747,-0.06424,-0.02197,0.19852,-0.03799,-0.05692,-0.01251,-0.00198,-0.02365,0.01373,0.07416,0.00931,-0.03738,0.0,0.00885,-0.04105
5.391,-0.02365,-0.10712,0.01114,0.30151,-0.03784,-0.05371,-0.01221,-0.00198,-0.03021,-0.00259,0.03754,0.00977,-0.03647,-0.00107,0.00748,-0.03922
5.3915,-0.01358,-0.14984,0.02594,0.32318,-0.03616,-0.05234,-0.01282,-0.00107,-0.03677,-0.02396,0.00305,0.00946,-0.03479,-0.00275,0.00748,-0.03677
5.392,-0.00107,-0.16388,0.0415,0.2536,-0.03525,-0.05325,-0.01358,0.00015,-0.04074,-0.0441,-0.01221,0.00977,-0.0325,-0.00519,0.00717,-0.0354
5.3925,0.00351,-0.14084,0.06943,0.15854,-0.03601,-0.05615,-0.01282,0.00061,-0.03998,-0.05951,-0.00778,0.00961,-0.03113,-0.00732,0.00793,-0.03235
5.393,-0.00015,-0.11017,0.10696,0.09933,-0.0386,-0.05829,-0.01144,-0.00031,-0.03357,-0.07538,0.00702,0.00931,-0.0325,-0.00916,0.00717,-0.03082
5.3935,-0.00778,-0.10727,0.15396,0.0679,-0.03876,-0.05859,-0.01083,-0.00168,-0.02319,-0.09445,0.02213,0.00931,-0.03326,-0.01099,0.00687,-0.03036
5.394,-0.00854,-0.13321,0.20752,0.02304,-0.03662,-0.05814,-0.01175,-0.0032,-0.01389,-0.11185,0.04227,0.01038,-0.03342,-0.01465,0.00778,-0.0322
5.3945,0.00092,-0.16113,0.23834,-0.05676,-0.03525,-0.05615,-0.01129,-0.00381,-0.00854,-0.11932,0.07233,0.01526,-0.03174,-0.02029,0.00992,-0.03372
5.395,0.01282,-0.177,0.19897,-0.16312,-0.03433,-0.05356,-0.01175,-0.00305,-0.00793,-0.11658,0.09781,0.01938,-0.03021,-0.02518,0.0119,-0.0351
5.3955,0.0145,-0.18173,0.09048,-0.26245,-0.03372,-0.05142,-0.01236,-0.00351,-0.01175,-0.10635,0.10391,0.01907,-0.02991,-0.02472,0.01175,-0.03555
5.396,0.00183,-0.16708,-0.03464,-0.32593,-0.03418,-0.04974,-0.01419,-0.00488,-0.0174,-0.09354,0.09064,0.01343,-0.02945,-0.01907,0.00977,-0.03555
5.3965,-0.01572,-0.12024,-0.11276,-0.34943,-0.03372,-0.04929,-0.01511,-0.00732,-0.02304,-0.07217,0.07767,0.00641,-0.0296,-0.00992,0.01007,-0.03616
5.397,-0.0293,-0.05295,-0.12238,-0.3476,-0.03372,-0.04807,-0.01572,-0.00839,-0.02411,-0.03113,0.08133,0.00076,-0.03021,-0.00031,0.01083,-0.03723
5.3975,-0.03708,0.00107,-0.09048,-0.3244,-0.03372,-0.04852,-0.01572,-0.0087,-0.02182,0.03571,0.10605,-0.00427,-0.03159,0.00763,0.01236,-0.03754
5.398,-0.03693,0.0238,-0.06577,-0.27786,-0.03387,-0.04913,-0.01556,-0.00763,-0.01694,0.11047,0.14038,-0.01282,-0.03098,0.00885,0.01114,-0.04028
5.3985,-0.02304,0.02441,-0.08545,-0.22873,-0.03418,-0.04974,-0.01434,-0.00748,-0.01282,0.15701,0.16479,-0.02243,-0.03067,-0.00488,0.01053,-0.04425
5.399,0.00198,0.01617,-0.1355,-0.21057,-0.03342,-0.04837,-0.01282,-0.00626,-0.009,0.16006,0.15518,-0.02457,-0.03204,-0.02914,0.01144,-0.04868
5.3995,0.02136,0.00458,-0.16937,-0.22202,-0.0322,-0.04639,-0.01175,-0.00443,-0.00473,0.13062,0.1001,-0.00946,-0.03433,-0.04242,0.01389,-0.04974
5.4,0.01907,-0.00412,-0.16113,-0.22888,-0.03174,-0.04425,-0.0119,-0.00397,0.00015,0.09018,0.00824,0.02304,-0.0354,-0.03265,0.01602,-0.04898
5.4005,-0.00046,0.00015,-0.13031,-0.22247,-0.03357,-0.04196,-0.01251,-0.00549,0.00534,0.04898,-0.08896,0.06195,-0.03601,-0.0116,0.01556,-0.04776
5.401,-0.01877,0.01602,-0.10498,-0.23132,-0.03204,-0.03967,-0.01328,-0.00778,0.01007,0.01068,-0.15747,0.08713,-0.03815,-0.00031,0.0145,-0.04868
5.4015,-0.02441,0.03555,-0.07462,-0.26352,-0.03067,-0.03784,-0.01312,-0.00793,0.01404,-0.01999,-0.18051,0.08072,-0.04181,-0.00336,0.01419,-0.04959
5.402,-0.01343,0.0499,-0.01083,-0.27786,-0.02884,-0.03601,-0.01328,-0.00687,0.01846,-0.03403,-0.16449,0.0293,-0.04425,-0.00717,0.01465,-0.0473
5.4025,0.01343,0.05737,0.07446,-0.24551,-0.02838,-0.03525,-0.01389,-0.00519,0.02579,-0.03143,-0.12344,-0.05844,-0.04456,-0.00275,0.01465,-0.04532
5.403,0.04364,0.05051,0.12115,-0.16769,-0.0267,-0.03525,-0.01389,-0.00305,0.03464,-0.01389,-0.07187,-0.1474,-0.04471,0.00809,0.01404,-0.0444
5.4035,0.05859,0.02426,0.08179,-0.04227,-0.02686,-0.03494,-0.01343,-0.00229,0.03906,0.00336,-0.03998,-0.20508,-0.04623,0.01953,0.01282,-0.04639
5.404,0.05219,-0.01526,-0.02411,0.12207,-0.02701,-0.03525,-0.01312,-0.00229,0.03738,0.01083,-0.06744,-0.21759,-0.0473,0.02335,0.0119,-0.04807
5.4045,0.03616,-0.04974,-0.13138,0.25223,-0.0264,-0.03677,-0.01389,-0.00305,0.03036,0.00061,-0.1564,-0.18402,-0.04745,0.01572,0.01099,-0.0473
5.405,0.02289,-0.06561,-0.186,0.26657,-0.02579,-0.03647,-0.01419,-0.0032,0.01541,-0.01724,-0.25192,-0.11093,-0.04745,-0.00336,0.0119,-0.04395
5.4055,0.00793,-0.07278,-0.16739,0.18661,-0.02457,-0.0354,-0.01434,-0.00458,-0.00839,-0.02563,-0.3096,-0.01282,-0.04623,-0.03372,0.01266,-0.04028
5.406,-0.01511,-0.09079,-0.09415,0.11292,-0.02502,-0.03479,-0.01419,-0.00412,-0.03159,-0.01923,-0.34439,0.09338,-0.04456,-0.07507,0.01312,-0.0386
5.4065,-0.03922,-0.11032,-0.00168,0.09491,-0.02686,-0.03555,-0.01389,-0.0032,-0.04608,-0.00824,-0.38849,0.18234,-0.04288,-0.1149,0.01205,-0.03799
5.407,-0.05356,-0.09735,0.07843,0.10101,-0.02777,-0.03845,-0.01236,-0.00351,-0.0528,-0.01343,-0.42938,0.22598,-0.04135,-0.12146,0.01068,-0.0383
5.4075,-0.05661,-0.04776,0.13229,0.09277,-0.0264,-0.0412,-0.01114,-0.00473,-0.0589,-0.04471,-0.43991,0.20584,-0.0415,-0.08408,0.00946,-0.04013
5.408,-0.05615,0.00366,0.16373,0.07538,-0.02609,-0.04257,-0.01099,-0.00534,-0.06409,-0.09247,-0.41656,0.1268,-0.04181,-0.02777,0.00839,-0.04242
5.4085,-0.06027,0.02747,0.17715,0.06882,-0.02609,-0.04257,-0.01297,-0.0029,-0.06424,-0.12924,-0.37064,0.02701,-0.04166,0.0087,0.00702,-0.04456
5.409,-0.06653,0.02655,0.17471,0.07568,-0.02533,-0.04166,-0.01312,-0.00183,-0.05295,-0.13107,-0.30899,-0.03418,-0.03937,0.01862,0.0058,-0.04654
5.4095,-0.06699,0.01984,0.16113,0.08911,-0.02441,-0.04044,-0.01221,-0.0029,-0.03235,-0.1059,-0.24475,-0.0264,-0.03662,0.0177,0.00656,-0.04791
5.41,-0.05096,0.01328,0.14496,0.10574,-0.02396,-0.04013,-0.01129,-0.00427,-0.01343,-0.07477,-0.19699,0.0206,-0.03418,0.01587,0.00702,-0.04944
5.4105,-0.01938,0.00183,0.13275,0.11856,-0.0235,-0.03922,-0.0119,-0.00397,-0.00641,-0.05936,-0.17197,0.05295,-0.03387,0.00778,0.00717,-0.04929
5.411,0.00931,-0.01801,0.12314,0.112,-0.02411,-0.03906,-0.01312,-0.00351,-0.00931,-0.05783,-0.1712,0.05173,-0.03448,-0.00595,0.00641,-0.04715
5.4115,0.01923,-0.04059,0.11368,0.07568,-0.02457,-0.03799,-0.01343,-0.00275,-0.01328,-0.04807,-0.19974,0.03571,-0.03418,-0.01343,0.00549,-0.04471
5.412,0.01633,-0.04807,0.10315,0.02151,-0.02563,-0.03632,-0.01282,-0.00137,-0.01022,-0.02136,-0.26077,0.01862,-0.03265,-0.00946,0.00595,-0.04288
5.4125,0.01923,-0.03357,0.08194,-0.02991,-0.02792,-0.03784,-0.01297,-0.00076,-0.00046,0.00748,-0.33798,0.00244,-0.03159,-0.00031,0.00732,-0.04242
5.413,0.03342,-0.01236,0.03738,-0.07324,-0.02975,-0.04166,-0.01419,0.00031,0.00687,0.01434,-0.40146,-0.01129,-0.03082,0.00214,0.00778,-0.04288
5.4135,0.04593,-0.0119,-0.03311,-0.11871,-0.03021,-0.04623,-0.01434,-0.00015,0.00381,-0.00534,-0.42847,-0.01373,-0.03143,-0.00427,0.00916,-0.04288
5.414,0.047,-0.04135,-0.1088,-0.17059,-0.03021,-0.04929,-0.01328,-0.00076,-0.00671,-0.03128,-0.42114,-0.00214,-0.03235,-0.01297,0.0087,-0.04166
5.4145,0.04135,-0.07736,-0.16068,-0.21545,-0.03036,-0.05096,-0.01175,-0.00153,-0.01511,-0.0473,-0.39749,0.01373,-0.03311,-0.01938,0.00946,-0.04044
5.415,0.03616,-0.0853,-0.18021,-0.24948,-0.03052,-0.05096,-0.01099,-0.00305,-0.01938,-0.06104,-0.37735,0.02121,-0.03265,-0.02335,0.00961,-0.03906
5.4155,0.03235,-0.05341,-0.17746,-0.29251,-0.03082,-0.0502,-0.01236,-0.00305,-0.02533,-0.08606,-0.3624,0.0177,-0.0325,-0.02426,0.00946,-0.03952
5.416,0.02625,-0.00183,-0.16296,-0.33432,-0.03143,-0.04898,-0.01389,-0.00198,-0.03433,-0.11185,-0.34454,0.01129,-0.03326,-0.02121,0.00977,-0.03891
5.4165,0.01801,0.03983,-0.12924,-0.31509,-0.0322,-0.04898,-0.01404,-0.00168,-0.04089,-0.11734,-0.32013,0.009,-0.03448,-0.01663,0.00854,-0.03922
5.417,0.00885,0.05737,-0.05783,-0.20187,-0.03357,-0.05127,-0.01373,-0.0029,-0.04105,-0.10101,-0.28259,0.01038,-0.03586,-0.01602,0.00702,-0.03952
5.4175,0.00168,0.05417,0.05432,-0.06409,-0.0354,-0.05447,-0.01328,-0.00458,-0.03769,-0.08377,-0.22263,0.01068,-0.03586,-0.01968,0.0058,-0.03952
5.418,-0.00336,0.03311,0.18097,-0.00702,-0.03677,-0.0563,-0.01266,-0.00549,-0.03311,-0.07904,-0.14206,0.01007,-0.03525,-0.0235,0.00687,-0.03967
5.4185,-0.00717,-0.0058,0.28397,-0.03113,-0.03723,-0.05569,-0.01312,-0.00519,-0.02945,-0.08011,-0.06256,0.0116,-0.03281,-0.02457,0.00732,-0.04013
5.419,-0.00977,-0.05722,0.3418,-0.02213,-0.03708,-0.05341,-0.01328,-0.00412,-0.02655,-0.07446,-0.01358,0.01312,-0.03113,-0.02441,0.00839,-0.03983
5.4195,-0.01144,-0.10757,0.33813,0.09323,-0.03616,-0.05157,-0.01389,-0.00336,-0.0238,-0.05905,-0.00687,0.01617,-0.03098,-0.0238,0.0087,-0.0383
5.42,-0.01419,-0.14908,0.25803,0.25085,-0.03571,-0.05096,-0.0145,-0.00366,-0.01938,-0.03998,-0.03571,0.02686,-0.02991,-0.02182,0.00839,-0.03784
5.4205,-0.01999,-0.17563,0.09979,0.33722,-0.03586,-0.05127,-0.01373,-0.0032,-0.01328,-0.02182,-0.08926,0.05219,-0.02945,-0.01984,0.00854,-0.03784
5.421,-0.02365,-0.17654,-0.10086,0.32608,-0.03754,-0.05142,-0.01312,-0.00443,-0.00427,-0.00046,-0.15747,0.08682,-0.02747,-0.01755,0.00778,-0.03723
5.4215,-0.02243,-0.1535,-0.28473,0.27695,-0.03708,-0.05142,-0.01251,-0.00504,0.00717,0.02472,-0.23407,0.11215,-0.0264,-0.01511,0.00854,-0.03647
5.422,-0.02121,-0.1358,-0.41153,0.24841,-0.0351,-0.05127,-0.01297,-0.00458,0.01968,0.04974,-0.31082,0.11581,-0.02594,-0.01144,0.01114,-0.03525
5.4225,-0.02487,-0.13977,-0.48386,0.24109,-0.03464,-0.05249,-0.01404,-0.0032,0.02716,0.06592,-0.36713,0.10529,-0.02579,-0.01053,0.01389,-0.03357
5.423,-0.03143,-0.13611,-0.53513,0.21988,-0.03571,-0.05417,-0.01434,-0.00214,0.02411,0.06577,-0.38025,0.08484,-0.02716,-0.0145,0.01495,-0.03296
5.4235,-0.03799,-0.09705,-0.58304,0.16998,-0.03677,-0.05585,-0.0148,-0.00153,0.01556,0.04883,-0.34439,0.05722,-0.02792,-0.0206,0.0145,-0.03357
5.424,-0.04486,-0.04333,-0.61386,0.12192,-0.03662,-0.05783,-0.01389,-0.00168,0.00671,0.02396,-0.27252,0.02594,-0.02853,-0.02487,0.01373,-0.03387
5.4245,-0.05035,-0.01266,-0.5983,0.112,-0.03738,-0.05981,-0.01404,-0.00198,0.00275,0.00427,-0.18677,-0.01282,-0.02731,-0.02609,0.01312,-0.03265
5.425,-0.04837,-0.01038,-0.51331,0.1265,-0.03677,-0.06134,-0.01419,-0.00244,0.00366,-0.00427,-0.09689,-0.0769,-0.02563,-0.02563,0.01205,-0.03326
5.4255,-0.03769,-0.01984,-0.36957,0.1149,-0.0354,-0.06104,-0.01389,-0.0032,0.00275,-0.00473,0.00336,-0.16144,-0.02548,-0.02625,0.01114,-0.03647
5.426,-0.02167,-0.0386,-0.20721,0.05493,-0.03281,-0.05798,-0.01343,-0.00366,-0.00671,-0.00015,0.11429,-0.21942,-0.02731,-0.02884,0.00961,-0.04105
5.4265,-0.00351,-0.07172,-0.07019,-0.01923,-0.03006,-0.0531,-0.01312,-0.00366,-0.02029,0.00992,0.22018,-0.22385,-0.02823,-0.03006,0.00931,-0.04501
5.427,0.01694,-0.11322,0.02411,-0.05386,-0.02777,-0.04684,-0.01312,-0.00381,-0.02411,0.02441,0.3096,-0.21225,-0.02777,-0.03021,0.00809,-0.04669
5.4275,0.03662,-0.15198,0.08896,-0.04089,-0.0267,-0.04105,-0.01251,-0.0029,-0.01419,0.04227,0.38513,-0.22873,-0.02731,-0.03067,0.00702,-0.04654
5.428,0.04715,-0.1738,0.14633,-0.02533,-0.02686,-0.03891,-0.01251,-0.0032,-0.00259,0.06058,0.44556,-0.26184,-0.02701,-0.03265,0.00549,-0.04593
5.4285,0.04715,-0.16281,0.1857,-0.03479,-0.02716,-0.04028,-0.01221,-0.00381,-0.00031,0.07324,0.47012,-0.24979,-0.02838,-0.03464,0.00534,-0.04578
5.429,0.04105,-0.11566,0.18127,-0.03052,-0.02808,-0.04181,-0.01373,-0.00488,-0.00473,0.07416,0.43777,-0.1442,-0.02991,-0.03479,0.00458,-0.04654
5.4295,0.03677,-0.05493,0.12787,0.04822,-0.02792,-0.04135,-0.01343,-0.0058,-0.00763,0.05508,0.36209,0.01709,-0.03113,-0.0322,0.00397,-0.04608
5.43,0.03265,-0.01038,0.05844,0.19104,-0.02777,-0.04044,-0.01434,-0.00473,-0.00656,0.0145,0.289,0.12207,-0.0325,-0.02884,0.00519,-0.04532
5.4305,0.02472,0.00839,0.00793,0.3035,-0.02777,-0.04181,-0.01373,-0.00427,-0.0058,-0.03342,0.25711,0.11261,-0.03235,-0.02823,0.00595,-0.04333
5.431,0.01343,0.00778,-0.03006,0.298,-0.02625,-0.04349,-0.01404,-0.00351,-0.00534,-0.07141,0.2742,0.04883,-0.03235,-0.02777,0.00641,-0.0412
5.4315,-0.00168,-0.00488,-0.07172,0.18478,-0.02533,-0.04486,-0.01373,-0.00397,-0.00717,-0.09842,0.31738,0.02014,-0.03342,-0.02609,0.00748,-0.04074
5.432,-0.0235,-0.01556,-0.10696,0.0618,-0.02808,-0.04608,-0.01465,-0.00427,-0.0116,-0.12268,0.35675,0.03952,-0.0354,-0.02304,0.00732,-0.04135
5.4325,-0.04684,-0.00244,-0.10712,0.00977,-0.03006,-0.04715,-0.01694,-0.00534,-0.01877,-0.13306,0.3772,0.0708,-0.03754,-0.01968,0.00656,-0.04349
5.433,-0.06104,0.03632,-0.056,0.01831,-0.03235,-0.04791,-0.01678,-0.00534,-0.02548,-0.09995,0.38071,0.10437,-0.03922,-0.01678,0.0061,-0.04532
5.4335,-0.06348,0.08347,0.03052,0.02335,-0.03265,-0.04868,-0.0148,-0.00488,-0.03342,-0.02625,0.37582,0.13672,-0.03937,-0.01541,0.00549,-0.04593
5.434,-0.06653,0.12085,0.10895,-0.00671,-0.03128,-0.0502,-0.01373,-0.00488,-0.04593,0.04166,0.36011,0.13687,-0.03922,-0.01526,0.00519,-0.04532
5.4345,-0.07446,0.14679,0.12512,-0.05524,-0.02991,-0.04959,-0.01404,-0.00565,-0.06134,0.06516,0.33646,0.09171,-0.03906,-0.01373,0.00671,-0.04364
5.435,-0.0795,0.1622,0.065,-0.11398,-0.02838,-0.04822,-0.01495,-0.0058,-0.07248,0.04501,0.32043,0.05203,-0.0386,-0.01068,0.00763,-0.04333
5.4355,-0.07401,0.16296,-0.03708,-0.19821,-0.02716,-0.0473,-0.01373,-0.00504,-0.07675,0.00214,0.33066,0.07034,-0.03952,-0.00916,0.00717,-0.04456
5.436,-0.05615,0.13458,-0.13123,-0.29846,-0.02579,-0.04807,-0.01358,-0.00458,-0.07736,-0.04044,0.3685,0.12054,-0.03906,-0.0116,0.0058,-0.0444
5.4365,-0.02853,0.06897,-0.2002,-0.36194,-0.02518,-0.04745,-0.01495,-0.00443,-0.0766,-0.06561,0.41458,0.12848,-0.03754,-0.01755,0.00626,-0.04181
5.437,0.00549,-0.0061,-0.2417,-0.34683,-0.0235,-0.04608,-0.01617,-0.00412,-0.07355,-0.05814,0.44037,0.06042,-0.03616,-0.02197,0.00809,-0.03998
5.4375,0.03754,-0.03372,-0.24612,-0.27512,-0.02258,-0.04532,-0.01709,-0.00412,-0.06836,-0.02136,0.43289,-0.03601,-0.03647,-0.02045,0.00916,-0.03891
5.438,0.05615,0.01114,-0.19501,-0.19424,-0.02396,-0.04669,-0.01755,-0.00351,-0.06302,0.02045,0.39337,-0.09399,-0.03662,-0.01114,0.00992,-0.03967
5.4385,0.05447,0.08255,-0.10315,-0.11856,-0.02441,-0.04868,-0.01755,-0.00305,-0.0621,0.04364,0.3334,-0.09277,-0.03723,0.00137,0.01099,-0.04227
5.439,0.04257,0.11337,-0.01556,-0.01312,-0.02441,-0.04898,-0.01587,-0.00259,-0.06393,0.04471,0.26138,-0.06134,-0.03571,0.00885,0.01038,-0.0441
5.4395,0.03632,0.09064,0.03021,0.13855,-0.02411,-0.04883,-0.01328,-0.00259,-0.06195,0.03067,0.18951,-0.0264,-0.03433,0.00763,0.00977,-0.0441
5.44,0.04166,0.04654,0.03693,0.27298,-0.02411,-0.04608,-0.0119,-0.00259,-0.05066,0.02441,0.12299,0.0148,-0.0322,0.00214,0.00916,-0.04242
5.4405,0.05005,0.00381,0.03006,0.29785,-0.02411,-0.04318,-0.01099,-0.00107,-0.03571,0.04028,0.06332,0.06271,-0.03036,-0.00519,0.0087,-0.04135
5.441,0.05234,-0.04028,0.02594,0.2124,-0.02365,-0.04166,-0.0119,-0.00031,-0.02197,0.07217,0.00519,0.08148,-0.02762,-0.01282,0.00839,-0.04135
5.4415,0.0473,-0.09048,0.0267,0.10757,-0.02213,-0.04135,-0.01297,-0.00092,-0.0116,0.09201,-0.0473,0.04623,-0.02716,-0.01923,0.0087,-0.0415
5.442,0.04105,-0.12863,0.03159,0.05005,-0.02335,-0.04227,-0.01389,-0.00336,-0.00534,0.07217,-0.08026,-0.00458,-0.02838,-0.02426,0.00931,-0.04028
5.4425,0.03738,-0.13535,0.0412,0.02335,-0.02579,-0.04272,-0.01434,-0.00519,-0.00519,0.02106,-0.08392,-0.01129,-0.0296,-0.02853,0.01007,-0.03906
5.443,0.03632,-0.11215,0.06027,-0.00809,-0.02716,-0.04349,-0.01541,-0.0061,-0.00977,-0.02319,-0.05768,0.02197,-0.0293,-0.03296,0.00992,-0.04013
5.4435,0.03357,-0.08087,0.09186,-0.04562,-0.02899,-0.04379,-0.01617,-0.00397,-0.01236,-0.03265,0.00259,0.04791,-0.02777,-0.03586,0.00961,-0.04028
5.444,0.02609,-0.06088,0.12405,-0.06943,-0.03113,-0.04364,-0.01617,-0.00275,-0.00656,-0.01495,0.09399,0.04242,-0.02609,-0.03677,0.00946,-0.04028
5.4445,0.01694,-0.06088,0.12268,-0.07767,-0.03357,-0.04349,-0.01633,-0.00183,0.00641,-0.00153,0.18265,0.02563,-0.02533,-0.03555,0.01007,-0.03983
5.445,0.01068,-0.08408,0.06439,-0.08026,-0.03479,-0.0441,-0.01526,-0.00168,0.01755,-0.00839,0.22293,0.01755,-0.02487,-0.03143,0.01053,-0.0412
5.4455,0.00916,-0.12344,-0.02701,-0.08026,-0.03769,-0.04654,-0.01434,-0.00168,0.02258,-0.03052,0.2034,0.01694,-0.02457,-0.02731,0.01068,-0.04196
5.446,0.01053,-0.15625,-0.09796,-0.07584,-0.03876,-0.04745,-0.01282,-0.00198,0.02441,-0.05219,0.16159,0.01678,-0.02411,-0.02487,0.01068,-0.04105
5.4465,0.01007,-0.16037,-0.11612,-0.06256,-0.03815,-0.04837,-0.01328,-0.0029,0.02487,-0.065,0.13901,0.01709,-0.02411,-0.02441,0.01114,-0.03922
5.447,0.00458,-0.13443,-0.09796,-0.04257,-0.03723,-0.047,-0.0145,-0.00397,0.02457,-0.06439,0.1503,0.01862,-0.02502,-0.02594,0.01099,-0.03891
5.4475,-0.0032,-0.09216,-0.08194,-0.03052,-0.0386,-0.04608,-0.0145,-0.00427,0.02411,-0.05402,0.17975,0.01907,-0.02609,-0.02716,0.00931,-0.03952
5.448,-0.01053,-0.05035,-0.0856,-0.03876,-0.0412,-0.04639,-0.01373,-0.0058,0.02319,-0.04395,0.20706,0.01251,-0.02686,-0.0267,0.00748,-0.04013
5.4485,-0.01633,-0.01755,-0.08774,-0.06561,-0.04211,-0.04898,-0.01312,-0.00626,0.02106,-0.04684,0.21149,0.00137,-0.02838,-0.0238,0.00732,-0.04028
5.449,-0.02335,-0.00504,-0.06058,-0.09445,-0.04211,-0.05203,-0.0145,-0.00549,0.01831,-0.06729,0.18814,-0.00626,-0.03021,-0.02106,0.00854,-0.03937
5.4495,-0.03052,-0.02014,-0.01343,-0.10941,-0.04089,-0.05341,-0.01465,-0.00534,0.01663,-0.09506,0.15289,-0.00412,-0.03159,-0.02014,0.01114,-0.03922
5.45,-0.03418,-0.05112,0.01251,-0.10651,-0.03967,-0.05295,-0.01358,-0.00412,0.01465,-0.11398,0.13062,0.00427,-0.03342,-0.01999,0.01114,-0.03845
5.4505,-0.03571,-0.0679,-0.00122,-0.09171,-0.03799,-0.05341,-0.01297,-0.00244,0.01144,-0.11597,0.1297,0.01114,-0.03464,-0.02029,0.00961,-0.03769
5.451,-0.04166,-0.06027,-0.0322,-0.07431,-0.03601,-0.05417,-0.01358,-0.00214,0.00656,-0.1062,0.13855,0.01511,-0.03616,-0.02045,0.00854,-0.03769
5.4515,-0.05722,-0.05066,-0.0444,-0.0592,-0.03464,-0.05432,-0.0145,-0.00168,0.00198,-0.09247,0.14557,0.01816,-0.03677,-0.02045,0.00961,-0.03738
5.452,-0.07385,-0.07111,-0.01801,-0.04837,-0.03494,-0.05371,-0.01587,-0.00214,-0.00046,-0.08194,0.15182,0.02472,-0.0386,-0.02258,0.01053,-0.0383
5.4525,-0.07767,-0.1268,0.04562,-0.04196,-0.03555,-0.05157,-0.01587,-0.00198,-0.00122,-0.07477,0.16068,0.02579,-0.04013,-0.02594,0.00992,-0.03952
5.453,-0.0676,-0.19135,0.12589,-0.03876,-0.03647,-0.04974,-0.01602,-0.00198,0.00031,-0.06561,0.16937,0.01419,-0.04181,-0.02975,0.00763,-0.04044
5.4535,-0.05386,-0.22797,0.1889,-0.03616,-0.03616,-0.0502,-0.01511,-0.00229,0.00229,-0.04852,0.17242,-0.00763,-0.04395,-0.03052,0.00748,-0.03967
5.454,-0.04135,-0.21591,0.20187,-0.0351,-0.03616,-0.05127,-0.01419,-0.00305,0.0032,-0.02823,0.17166,-0.03067,-0.04456,-0.02701,0.00732,-0.03891
5.4545,-0.02777,-0.16006,0.15823,-0.03418,-0.03708,-0.05341,-0.01389,-0.00305,0.00259,-0.01419,0.16464,-0.05035,-0.04364,-0.01984,0.00809,-0.03845
5.455,-0.00687,-0.08926,0.08804,-0.03296,-0.03754,-0.05524,-0.01389,-0.0029,-0.00046,-0.00244,0.14236,-0.06348,-0.04257,-0.01343,0.00809,-0.03998
5.4555,0.01999,-0.03006,0.04623,-0.03204,-0.03693,-0.05646,-0.01343,-0.00244,-0.0061,0.01373,0.10788,-0.06378,-0.04181,-0.01328,0.00854,-0.0415
5.456,0.04471,0.01175,0.06378,-0.03159,-0.03586,-0.05661,-0.01251,-0.00183,-0.01556,0.03143,0.07385,-0.04913,-0.04074,-0.01801,0.009,-0.04181
5.4565,0.06073,0.03906,0.10742,-0.03204,-0.0351,-0.05585,-0.01312,-0.00183,-0.02426,0.03754,0.04959,-0.03021,-0.03998,-0.03067,0.01038,-0.04028
5.457,0.06287,0.05142,0.10956,-0.03067,-0.03448,-0.05508,-0.01358,-0.00244,-0.02823,0.02335,0.02884,-0.02014,-0.03891,-0.04593,0.01129,-0.04074
5.4575,0.04883,0.0444,0.03586,-0.02853,-0.03464,-0.05432,-0.01312,-0.00229,-0.02731,0.00031,0.009,-0.00656,-0.03891,-0.05341,0.01114,-0.04257
5.458,0.02472,0.0206,-0.07462,-0.02655,-0.03464,-0.05432,-0.01282,-0.00153,-0.02411,-0.01572,-0.00137,0.03128,-0.03952,-0.04745,0.01099,-0.04623
5.4585,0.00381,-0.00931,-0.15854,-0.02502,-0.03357,-0.05356,-0.01312,-0.00061,-0.02258,-0.01923,0.00473,0.08316,-0.03998,-0.03326,0.0116,-0.04852
5.459,-0.00458,-0.03708,-0.19577,-0.02365,-0.03265,-0.05066,-0.01511,0.00015,-0.02274,-0.01358,0.02213,0.1059,-0.04013,-0.02121,0.01114,-0.04883
5.4595,-0.0061,-0.05844,-0.21027,-0.0206,-0.02899,-0.04639,-0.01602,0.00015,-0.0235,-0.0032,0.03403,0.07904,-0.03876,-0.01221,0.01129,-0.04745
5.46,-0.00961,-0.07141,-0.22064,-0.01816,-0.02747,-0.04349,-0.01373,-0.00076,-0.02151,0.01053,0.04242,0.03036,-0.03799,-0.00397,0.00916,-0.04608
5.4605,-0.01617,-0.07202,-0.21912,-0.01465,-0.02625,-0.04105,-0.01144,-0.00168,-0.01755,0.02151,0.06256,0.00198,-0.03784,0.00183,0.00839,-0.04593
5.461,-0.01938,-0.05722,-0.18463,-0.01205,-0.02472,-0.04105,-0.01022,-0.0029,-0.01556,0.02472,0.09674,-0.00015,-0.03632,0.00259,0.00946,-0.04486
5.4615,-0.0116,-0.03723,-0.12421,-0.01038,-0.02243,-0.04074,-0.01114,-0.00381,-0.02014,0.01785,0.1236,-0.00275,-0.03372,-0.00092,0.01053,-0.04303
5.462,0.00031,-0.02335,-0.0589,-0.00885,-0.02121,-0.0412,-0.01236,-0.0029,-0.02823,0.0087,0.12726,-0.01556,-0.03067,-0.00595,0.01144,-0.04257
5.4625,0.00427,-0.02151,-0.01144,-0.00504,-0.02167,-0.04135,-0.01297,-0.00229,-0.03403,0.00351,0.11246,-0.02274,-0.02777,-0.00961,0.01083,-0.04333
5.463,0.0,-0.02808,0.00626,0.00122,-0.02411,-0.04257,-0.01251,-0.00198,-0.03464,0.00275,0.08453,-0.01328,-0.02533,-0.01083,0.00961,-0.04318
5.4635,-0.00381,-0.03143,-0.00946,0.00778,-0.02411,-0.04593,-0.01282,-0.00229,-0.0322,0.00275,0.03937,0.00122,-0.02258,-0.0116,0.0087,-0.04166
5.464,-0.00122,-0.02518,-0.05035,0.01129,-0.02625,-0.04852,-0.0145,-0.00198,-0.02975,0.00214,-0.02457,0.00458,-0.01907,-0.01282,0.00931,-0.03998
5.4645,0.00259,-0.01678,-0.08652,0.00687,-0.02716,-0.04898,-0.01465,-0.00214,-0.02396,-0.00488,-0.09659,-0.00107,-0.01877,-0.01556,0.01083,-0.03952
5.465,0.00443,-0.02533,-0.09079,-0.00076,-0.02686,-0.04837,-0.01434,-0.00229,-0.01846,-0.01678,-0.16525,-0.00595,-0.01953,-0.01816,0.01175,-0.04028
5.4655,0.0029,-0.06531,-0.06287,-0.00793,-0.02686,-0.04593,-0.01343,-0.00244,-0.01221,-0.03036,-0.2272,-0.00504,-0.02197,-0.01984,0.01205,-0.0412
5.466,-0.00031,-0.1265,-0.02762,-0.009,-0.0264,-0.04303,-0.01312,-0.00275,-0.00778,-0.03952,-0.28046,-0.00229,-0.0238,-0.0206,0.01114,-0.04181
5.4665,-0.00229,-0.17349,-0.00977,0.00046,-0.02655,-0.04105,-0.01343,-0.00351,-0.00305,-0.04898,-0.30975,-0.00107,-0.02487,-0.02106,0.00931,-0.04181
5.467,-0.00244,-0.17944,-0.01312,0.01923,-0.02777,-0.04028,-0.01404,-0.00336,0.00168,-0.05844,-0.30106,-0.00122,-0.02533,-0.02121,0.00809,-0.04166
5.4675,-0.00198,-0.15121,-0.03571,0.03311,-0.03052,-0.04059,-0.01465,-0.00214,0.00656,-0.06439,-0.26001,-0.00153,-0.02548,-0.02029,0.00885,-0.04135
5.468,-0.00153,-0.1149,-0.0592,0.02411,-0.03296,-0.04318,-0.01434,-0.00061,0.00671,-0.0647,-0.2092,-0.00076,-0.02731,-0.01678,0.01007,-0.0415
5.4685,0.0,-0.0943,-0.06699,-0.00732,-0.03494,-0.04517,-0.01404,-0.00031,0.00244,-0.06561,-0.16312,-0.00031,-0.02991,-0.01343,0.01205,-0.04166
5.469,0.00015,-0.09598,-0.05112,-0.0325,-0.03647,-0.04669,-0.01373,-0.00061,-0.00061,-0.07126,-0.11887,-0.00031,-0.03326,-0.00931,0.01129,-0.04257
5.4695,-0.00244,-0.09766,-0.01205,-0.03113,-0.03616,-0.04669,-0.01251,-0.00259,0.00046,-0.07004,-0.06729,-0.00137,-0.0351,-0.00565,0.00992,-0.0441
5.47,-0.01038,-0.07431,0.05524,-0.01541,-0.03647,-0.0473,-0.0119,-0.00397,0.00336,-0.04807,-0.01404,-0.00168,-0.03693,-0.00061,0.00916,-0.04379
5.4705,-0.02289,-0.03601,0.15259,-0.00778,-0.03815,-0.04791,-0.01205,-0.00534,0.00244,-0.00641,0.02121,-0.00336,-0.04105,0.00488,0.00854,-0.04196
5.471,-0.03571,-0.01434,0.24963,-0.01419,-0.03983,-0.04868,-0.01297,-0.00519,-0.00412,0.03784,0.02396,-0.00366,-0.04532,0.00854,0.00763,-0.04135
5.4715,-0.04593,-0.01297,0.29526,-0.02594,-0.03983,-0.05051,-0.01205,-0.00443,-0.01007,0.06592,0.00366,-0.00229,-0.0473,0.01144,0.00748,-0.0412
5.472,-0.05356,0.00259,0.27084,-0.04028,-0.03922,-0.05142,-0.01175,-0.00366,-0.01343,0.065,-0.02243,0.00092,-0.04593,0.0148,0.0087,-0.0415
5.4725,-0.05493,0.05005,0.20599,-0.05325,-0.03677,-0.05219,-0.01175,-0.00336,-0.01541,0.03433,-0.04227,0.00244,-0.04364,0.01984,0.00916,-0.04059
5.473,-0.04807,0.10376,0.13,-0.04913,-0.03525,-0.05173,-0.01328,-0.00336,-0.01831,-0.01419,-0.05051,-0.00092,-0.04257,0.02304,0.00824,-0.03983
5.4735,-0.03464,0.13245,0.03952,-0.01953,-0.03448,-0.05173,-0.01434,-0.00443,-0.02304,-0.06546,-0.05173,-0.01236,-0.0444,0.02518,0.00763,-0.04044
5.474,-0.02274,0.13229,-0.06058,0.01938,-0.0354,-0.05341,-0.01419,-0.00488,-0.0293,-0.10376,-0.05463,-0.03067,-0.04593,0.02518,0.0061,-0.04211
5.4745,-0.01999,0.11932,-0.13763,0.0444,-0.03601,-0.05569,-0.01404,-0.00519,-0.0354,-0.12497,-0.06577,-0.04608,-0.04562,0.01984,0.00671,-0.04318
5.475,-0.02472,0.10559,-0.168,0.04547,-0.0354,-0.05676,-0.01511,-0.00504,-0.03754,-0.13092,-0.07904,-0.05722,-0.04257,-0.00015,0.00717,-0.04257
5.4755,-0.03082,0.09247,-0.16388,0.02533,-0.03281,-0.05585,-0.01663,-0.00412,-0.03494,-0.1181,-0.08377,-0.06531,-0.0383,-0.04074,0.0087,-0.04272
5.476,-0.03204,0.08179,-0.16144,-0.00824,-0.03006,-0.05524,-0.01633,-0.00366,-0.03052,-0.08072,-0.07629,-0.06821,-0.03571,-0.08392,0.00946,-0.0444
5.4765,-0.02869,0.07156,-0.17761,-0.04166,-0.02914,-0.05508,-0.01465,-0.00443,-0.02884,-0.02487,-0.06699,-0.04852,-0.03586,-0.09842,0.00793,-0.04623
5.477,-0.02289,0.05173,-0.21591,-0.05463,-0.02975,-0.05386,-0.01358,-0.00488,-0.03082,0.02914,-0.07309,0.00488,-0.03632,-0.0766,0.00687,-0.04745
5.4775,-0.01633,0.01785,-0.25909,-0.03632,-0.03082,-0.05234,-0.01312,-0.00458,-0.03448,0.0676,-0.11154,0.07187,-0.03433,-0.04807,0.00687,-0.04593
5.478,-0.01007,-0.02258,-0.27756,-0.0029,-0.03021,-0.05173,-0.01328,-0.00366,-0.03601,0.08728,-0.18082,0.10529,-0.03174,-0.04089,0.00641,-0.04379
5.4785,-0.00778,-0.05356,-0.25681,0.01953,-0.03128,-0.0528,-0.01251,-0.00336,-0.03555,0.08896,-0.25314,0.0795,-0.02945,-0.05188,0.0061,-0.04044
5.479,-0.00717,-0.07278,-0.2182,0.0235,-0.03265,-0.05417,-0.01328,-0.00366,-0.03433,0.07584,-0.30045,0.01923,-0.02823,-0.06058,0.00641,-0.03677
5.4795,-0.00549,-0.08759,-0.19653,0.01938,-0.03143,-0.05508,-0.01373,-0.00412,-0.03204,0.05112,-0.31921,-0.02609,-0.02594,-0.06226,0.00793,-0.03555
5.48,-0.00122,-0.10254,-0.20309,0.0177,-0.02914,-0.056,-0.01389,-0.00412,-0.02777,0.0235,-0.31967,-0.03036,-0.02457,-0.06439,0.00946,-0.0354
5.4805,0.00381,-0.11627,-0.22156,0.01602,-0.0264,-0.05676,-0.01404,-0.00443,-0.0235,0.00214,-0.30838,-0.0087,-0.02502,-0.06332,0.00992,-0.03769
5.481,0.00809,-0.12405,-0.23087,0.00977,-0.02609,-0.05722,-0.01434,-0.00458,-0.02228,-0.00366,-0.28397,0.00931,-0.02548,-0.05432,0.00885,-0.03952
5.4815,0.00916,-0.12695,-0.22522,0.00244,-0.02594,-0.05554,-0.01572,-0.00412,-0.02289,0.00137,-0.24963,0.01556,-0.02411,-0.04562,0.00656,-0.04044
5.482,0.00961,-0.13016,-0.20935,-0.00076,-0.0264,-0.05219,-0.01633,-0.00443,-0.02426,0.00717,-0.2095,0.01724,-0.02335,-0.04608,0.00732,-0.04135
5.4825,0.00916,-0.1413,-0.18875,-0.00076,-0.02457,-0.04974,-0.0177,-0.00381,-0.02472,0.00626,-0.16373,0.02167,-0.02304,-0.04959,0.00793,-0.04059
5.483,0.00916,-0.16205,-0.16434,-0.00015,-0.02487,-0.04822,-0.01694,-0.00259,-0.02121,0.00275,-0.10773,0.02563,-0.02243,-0.04562,0.009,-0.04044
5.4835,0.00885,-0.17822,-0.13519,0.00015,-0.0267,-0.04929,-0.01541,-0.00198,-0.0116,-0.00046,-0.04807,0.02228,-0.02304,-0.03601,0.009,-0.03983
5.484,0.00885,-0.16968,-0.10223,-0.00031,-0.02716,-0.04959,-0.01419,-0.00259,-0.00046,0.00183,-0.00305,0.01175,-0.02365,-0.02808,0.00626,-0.03998
5.4845,0.01129,-0.13672,-0.07019,-0.00092,-0.02655,-0.04776,-0.01526,-0.0032,0.00595,0.00748,0.01114,0.00092,-0.02457,-0.02365,0.0058,-0.03937
5.485,0.0174,-0.09857,-0.05112,-0.00259,-0.02563,-0.04395,-0.01572,-0.00381,0.00473,0.01221,-0.00565,-0.00336,-0.02441,-0.02075,0.0061,-0.03769
5.4855,0.02609,-0.0737,-0.05951,-0.00427,-0.0235,-0.04135,-0.01541,-0.00336,0.00076,0.01266,-0.04166,-0.00214,-0.02396,-0.01755,0.00732,-0.03708
5.486,0.03433,-0.06348,-0.09201,-0.00473,-0.02197,-0.04196,-0.01511,-0.0032,-0.00168,0.00977,-0.08011,-0.00046,-0.02426,-0.0148,0.00656,-0.03784
5.4865,0.04288,-0.05722,-0.11307,-0.00565,-0.02228,-0.04257,-0.01465,-0.00275,-0.00366,0.00458,-0.10803,-0.00122,-0.02533,-0.01389,0.00427,-0.03952
5.487,0.04837,-0.04532,-0.08759,-0.00641,-0.02441,-0.04196,-0.01541,-0.0032,-0.00549,-0.00626,-0.12085,-0.00351,-0.02609,-0.01404,0.00122,-0.04166
5.4875,0.04913,-0.02411,-0.01648,-0.00687,-0.02609,-0.03998,-0.01617,-0.00412,-0.00748,-0.02045,-0.121,-0.00595,-0.02502,-0.01266,0.00153,-0.04471
5.488,0.04837,0.00046,0.06485,-0.00809,-0.02731,-0.03815,-0.01648,-0.00504,-0.00961,-0.03494,-0.11566,-0.00702,-0.02533,-0.01038,0.0032,-0.04669
5.4885,0.04715,0.01312,0.1239,-0.00748,-0.02823,-0.0354,-0.01541,-0.00427,-0.01343,-0.04364,-0.10712,-0.00626,-0.02487,-0.00763,0.0058,-0.04669
5.489,0.0441,-0.00107,0.14755,-0.00336,-0.02945,-0.03143,-0.01434,-0.00351,-0.01953,-0.04547,-0.09384,-0.00565,-0.02548,-0.00748,0.00565,-0.04501
5.4895,0.03494,-0.03387,0.12955,0.00229,-0.03128,-0.02686,-0.01282,-0.00244,-0.02518,-0.04501,-0.07263,-0.00656,-0.0267,-0.00854,0.00397,-0.04395
5.49,0.01984,-0.05295,0.06088,0.00793,-0.03265,-0.02304,-0.0116,-0.00214,-0.02731,-0.04608,-0.04166,-0.00839,-0.02792,-0.00946,0.00305,-0.04547
5.4905,0.00595,-0.03464,-0.0473,0.01251,-0.03403,-0.02365,-0.01297,-0.00183,-0.02747,-0.0502,-0.00092,-0.0116,-0.02899,-0.00885,0.00397,-0.04852
5.491,-0.00015,0.00473,-0.14328,0.01862,-0.03418,-0.02853,-0.01389,-0.00046,-0.0296,-0.05829,0.04532,-0.01404,-0.03052,-0.00854,0.0061,-0.05066
5.4915,0.00092,0.03311,-0.15427,0.02426,-0.03433,-0.03464,-0.0148,-0.00046,-0.03448,-0.06866,0.08804,-0.01404,-0.03204,-0.00778,0.00687,-0.05066
5.492,0.00427,0.03937,-0.06348,0.02289,-0.0354,-0.03952,-0.01434,-0.00107,-0.03845,-0.08041,0.11765,-0.01282,-0.03204,-0.00671,0.00656,-0.0499
5.4925,0.00336,0.03952,0.06683,0.01404,-0.03571,-0.04303,-0.01389,-0.00259,-0.03403,-0.09216,0.13153,-0.01221,-0.03143,-0.00458,0.00565,-0.04944
5.493,-0.00549,0.04684,0.15106,0.00214,-0.03738,-0.04593,-0.01389,-0.00305,-0.02228,-0.09811,0.13519,-0.01205,-0.03113,-0.00259,0.00626,-0.05066
5.4935,-0.01663,0.05447,0.16296,-0.00824,-0.03937,-0.04883,-0.0148,-0.0029,-0.00793,-0.09369,0.1384,-0.01175,-0.03082,-0.00122,0.00687,-0.05325
5.494,-0.02014,0.04761,0.12772,-0.01755,-0.04196,-0.05081,-0.01556,-0.0029,0.00183,-0.07233,0.1442,-0.01114,-0.02823,-0.00565,0.00839,-0.05493
5.4945,-0.0119,0.0235,0.06668,-0.02502,-0.04333,-0.05219,-0.01587,-0.0029,0.00488,-0.04501,0.14954,-0.01038,-0.02625,-0.02289,0.00824,-0.05539
5.495,0.00107,-0.00168,-0.0061,-0.02747,-0.04303,-0.05173,-0.01465,-0.00229,0.00488,-0.02701,0.14481,-0.00916,-0.02548,-0.04486,0.00854,-0.0531
5.4955,0.00946,-0.01343,-0.0679,-0.02518,-0.04211,-0.05234,-0.01297,-0.00214,0.00504,-0.02441,0.13382,-0.009,-0.02533,-0.05005,0.00839,-0.05051
5.496,0.00916,-0.01755,-0.09125,-0.02899,-0.04166,-0.05356,-0.01297,-0.00305,0.00809,-0.02991,0.11963,-0.01053,-0.02594,-0.03189,0.00626,-0.04959
5.4965,0.00229,-0.02762,-0.06668,-0.04425,-0.03998,-0.05569,-0.01328,-0.00458,0.01175,-0.03555,0.10315,-0.01434,-0.02777,-0.00778,0.00534,-0.04959
5.497,-0.00839,-0.04837,-0.0235,-0.05692,-0.03906,-0.05676,-0.01389,-0.0058,0.01312,-0.03571,0.08789,-0.01724,-0.03067,0.00519,0.00641,-0.04791
5.4975,-0.01999,-0.06226,0.00671,-0.05188,-0.03967,-0.056,-0.01419,-0.00534,0.00977,-0.03479,0.09399,-0.01831,-0.03235,0.00732,0.00839,-0.04486
5.498,-0.02823,-0.05524,0.02914,-0.03159,-0.04105,-0.05493,-0.01282,-0.00397,0.00443,-0.03754,0.14343,-0.01907,-0.03372,0.00473,0.00854,-0.04318
5.4985,-0.02975,-0.03555,0.05951,-0.01404,-0.04227,-0.05585,-0.01251,-0.00214,0.00046,-0.04593,0.23819,-0.01984,-0.0354,-0.00046,0.00824,-0.04303
5.499,-0.02609,-0.03326,0.0882,-0.00763,-0.0415,-0.05585,-0.01266,-0.00229,-0.00153,-0.05585,0.34637,-0.01923,-0.03601,-0.00626,0.00793,-0.04303
5.4995,-0.02502,-0.06622,0.09521,-0.00748,-0.03952,-0.05524,-0.01236,-0.00198,-0.00366,-0.06287,0.41794,-0.01709,-0.03571,-0.0119,0.00793,-0.04105
5.5,-0.03418,-0.11703,0.09506,-0.00488,-0.03754,-0.05356,-0.01175,-0.00259,-0.00916,-0.06821,0.40787,-0.01602,-0.0354,-0.01862,0.00702,-0.03906
5.5005,-0.05157,-0.14206,0.12451,0.00458,-0.03571,-0.05173,-0.01175,-0.00214,-0.01816,-0.08163,0.3038,-0.01526,-0.03632,-0.02441,0.00671,-0.03799
5.501,-0.06836,-0.12161,0.18143,0.01587,-0.03464,-0.05081,-0.01236,-0.00168,-0.02594,-0.09995,0.12817,-0.01526,-0.03723,-0.0296,0.00656,-0.03906
5.5015,-0.07462,-0.07935,0.22476,0.01831,-0.03296,-0.05035,-0.01358,-0.00107,-0.02991,-0.10712,-0.07599,-0.01465,-0.03708,-0.03433,0.0061,-0.04013
5.502,-0.06744,-0.05402,0.22827,0.009,-0.03159,-0.05096,-0.01389,-0.00214,-0.03128,-0.08591,-0.25345,-0.01572,-0.03784,-0.03754,0.00671,-0.04059
5.5025,-0.05188,-0.05051,0.21942,-0.0087,-0.02991,-0.05173,-0.01373,-0.00244,-0.03174,-0.03754,-0.35172,-0.01663,-0.03876,-0.03464,0.00656,-0.04059
5.503,-0.03784,-0.04364,0.23621,-0.03128,-0.03021,-0.05112,-0.01343,-0.00137,-0.03281,0.01587,-0.35629,-0.01648,-0.03891,-0.02411,0.00717,-0.04196
5.5035,-0.0293,-0.02243,0.26825,-0.05417,-0.03143,-0.05035,-0.01297,-0.00015,-0.03448,0.05051,-0.31067,-0.01419,-0.03708,-0.01236,0.00702,-0.04318
5.504,-0.02441,-0.00519,0.26978,-0.06165,-0.03189,-0.0502,-0.01221,0.00015,-0.03799,0.06226,-0.27725,-0.01343,-0.03555,-0.00763,0.00565,-0.04364
5.5045,-0.02045,-0.00809,0.21133,-0.04745,-0.02991,-0.05035,-0.01083,-0.00031,-0.04196,0.05936,-0.28152,-0.0145,-0.03387,-0.01282,0.00488,-0.04227
5.505,-0.01511,-0.02075,0.11017,-0.03387,-0.0296,-0.0499,-0.01038,0.0,-0.04608,0.05341,-0.30136,-0.01587,-0.03448,-0.01877,0.00458,-0.04028
5.5055,-0.01083,-0.03464,-0.00259,-0.05096,-0.02838,-0.0499,-0.01129,0.00061,-0.04913,0.04837,-0.30136,-0.01694,-0.03479,-0.02029,0.00565,-0.03952
5.506,-0.00717,-0.04868,-0.10742,-0.09247,-0.02869,-0.04929,-0.01373,-0.00046,-0.05035,0.05127,-0.26581,-0.0177,-0.03342,-0.01892,0.00702,-0.0383
5.5065,-0.00366,-0.05615,-0.19135,-0.12543,-0.02899,-0.04822,-0.01556,-0.00214,-0.04761,0.05875,-0.21118,-0.01953,-0.03159,-0.01663,0.00748,-0.03693
5.507,0.00443,-0.04105,-0.24033,-0.13626,-0.0296,-0.04883,-0.01663,-0.00305,-0.04181,0.06668,-0.17319,-0.0235,-0.0325,-0.01358,0.00839,-0.03708
5.5075,0.01709,-0.00046,-0.2475,-0.13397,-0.0293,-0.04883,-0.01694,-0.00366,-0.03479,0.06683,-0.17105,-0.02762,-0.03403,-0.01114,0.00992,-0.03723
5.508,0.02792,0.04379,-0.22415,-0.10727,-0.02853,-0.05127,-0.01648,-0.00458,-0.02914,0.05997,-0.1915,-0.02655,-0.03418,-0.01053,0.00916,-0.03647
5.5085,0.02991,0.06653,-0.19043,-0.04166,-0.02762,-0.05234,-0.01526,-0.00458,-0.02609,0.05142,-0.20401,-0.01953,-0.03189,-0.01373,0.00885,-0.03387
5.509,0.02304,0.0618,-0.15808,0.04105,-0.02762,-0.05112,-0.01556,-0.00412,-0.02502,0.04395,-0.18784,-0.01221,-0.02884,-0.01984,0.00977,-0.03067
5.5095,0.01465,0.04364,-0.1265,0.09674,-0.02884,-0.04913,-0.01663,-0.00351,-0.02365,0.03769,-0.13947,-0.01083,-0.02548,-0.02411,0.00992,-0.02914
5.51,0.01007,0.0238,-0.10056,0.10895,-0.02945,-0.04776,-0.01709,-0.00351,-0.01831,0.02975,-0.07034,-0.01389,-0.02365,-0.02243,0.00916,-0.02792
5.5105,0.00931,0.00275,-0.09125,0.09995,-0.0296,-0.04776,-0.01587,-0.00397,-0.01068,0.01907,-0.00259,-0.01663,-0.02365,-0.0177,0.00687,-0.02716
5.511,0.00793,-0.01907,-0.10544,0.08087,-0.03036,-0.04822,-0.0148,-0.00427,-0.00412,0.00549,0.03845,-0.01511,-0.02518,-0.01251,0.00458,-0.02716
5.5115,0.00519,-0.03799,-0.12924,0.03906,-0.03021,-0.04669,-0.0145,-0.00412,-0.00229,-0.00931,0.04684,-0.01266,-0.0264,-0.00885,0.00458,-0.0264
5.512,0.00519,-0.04837,-0.14771,-0.01678,-0.03052,-0.04364,-0.01495,-0.00473,-0.00137,-0.02411,0.03693,-0.01282,-0.02777,-0.0061,0.00626,-0.02731
5.5125,0.00732,-0.05005,-0.16525,-0.04929,-0.02869,-0.0412,-0.01556,-0.00534,0.00031,-0.03494,0.02289,-0.01495,-0.02853,-0.00473,0.00702,-0.02991
5.513,0.01007,-0.04898,-0.19836,-0.03616,-0.02625,-0.03967,-0.01633,-0.00595,0.00427,-0.03693,0.00916,-0.01724,-0.02792,-0.00397,0.00458,-0.03433
5.5135,0.01099,-0.05447,-0.24353,-0.00061,-0.02579,-0.0412,-0.01648,-0.0058,0.00687,-0.0325,-0.00244,-0.0174,-0.02625,-0.00275,-0.00015,-0.04135
5.514,0.01221,-0.07309,-0.28107,0.02075,-0.02579,-0.04257,-0.01633,-0.0058,0.00763,-0.02945,-0.0087,-0.01617,-0.02457,-0.00107,-0.0032,-0.05066
5.5145,0.0145,-0.10544,-0.29968,0.0206,-0.02716,-0.04272,-0.01434,-0.00443,0.00763,-0.03418,-0.00275,-0.01495,-0.02411,0.00214,-0.00107,-0.05539
