time,RectFemL,VastusMedL,VastusLatL,TibAntL,HamMedL,HamLatL,GastroMedL,GastroLatL,RectFemR,VastusMedR,VastusLatR,TibAntR,HamMedR,HamLatR,GastroMedR,GastroLatR
7.93,-0.01663,-0.05798,-0.06149,-0.00961,-0.03479,-0.04578,-0.07156,0.0322,-0.01205,-0.08347,0.06058,-0.00702,-0.02594,-0.00641,0.00946,-0.05692
7.9305,-0.01404,-0.05966,-0.05356,-0.01038,-0.03296,-0.04379,-0.0943,0.00671,-0.00793,-0.05707,0.04623,-0.01068,-0.02701,-0.00717,0.01038,-0.0502
7.931,-0.01358,-0.05768,-0.04517,-0.01007,-0.03189,-0.04303,-0.12512,-0.01266,-0.00458,-0.02991,0.03418,-0.01816,-0.0296,-0.00717,0.00992,-0.04089
7.9315,-0.01236,-0.05325,-0.03769,-0.01007,-0.03143,-0.04395,-0.13489,-0.01846,-0.00092,-0.00336,0.0296,-0.02975,-0.03067,-0.00641,0.01007,-0.03296
7.932,-0.01007,-0.0473,-0.02899,-0.00946,-0.03143,-0.04608,-0.12665,-0.0206,0.00366,0.01846,0.03265,-0.03738,-0.03204,-0.00793,0.00931,-0.03143
7.9325,-0.00961,-0.04135,-0.02029,-0.009,-0.0322,-0.04837,-0.1358,-0.02625,0.00977,0.0325,0.03937,-0.03662,-0.03418,-0.01099,0.00809,-0.03281
7.933,-0.0116,-0.03647,-0.01022,-0.00931,-0.03342,-0.04959,-0.16449,-0.03021,0.01968,0.03983,0.05112,-0.02441,-0.03677,-0.01282,0.00717,-0.03601
7.9335,-0.01404,-0.03235,0.00015,-0.00885,-0.0325,-0.04913,-0.17776,-0.01801,0.03281,0.05386,0.07156,-0.00519,-0.03784,-0.01389,0.0058,-0.0383
7.934,-0.01572,-0.03006,0.00717,-0.00702,-0.0296,-0.04822,-0.15259,0.01663,0.04379,0.0975,0.0885,0.01389,-0.03738,-0.01587,0.00717,-0.04181
7.9345,-0.01694,-0.03326,0.00259,-0.00549,-0.02655,-0.04745,-0.10071,0.06683,0.04669,0.17853,0.08392,0.02777,-0.03784,-0.0174,0.00793,-0.04669
7.935,-0.0177,-0.04944,-0.01541,-0.0061,-0.02289,-0.047,-0.047,0.10605,0.04196,0.25986,0.05417,0.03265,-0.0383,-0.01617,0.00778,-0.04913
7.9355,-0.01816,-0.07202,-0.04059,-0.00854,-0.01984,-0.04745,-0.02441,0.10956,0.0351,0.27939,0.01633,0.0293,-0.03815,-0.01373,0.00793,-0.04913
7.936,-0.01877,-0.08118,-0.07141,-0.01114,-0.01678,-0.04745,-0.06027,0.07156,0.0325,0.21378,-0.00137,0.02243,-0.03723,-0.0119,0.00778,-0.04669
7.9365,-0.0174,-0.07004,-0.11398,-0.01221,-0.01663,-0.04807,-0.12939,0.01251,0.03311,0.09903,0.01663,0.01541,-0.03693,-0.01266,0.00763,-0.04547
7.937,-0.01419,-0.05035,-0.16022,-0.01251,-0.01587,-0.04929,-0.16861,-0.04028,0.03159,-0.0087,0.06256,0.009,-0.03754,-0.01373,0.00809,-0.04227
7.9375,-0.01053,-0.03769,-0.186,-0.01205,-0.01724,-0.04974,-0.16235,-0.06958,0.02533,-0.07614,0.11703,0.00366,-0.03937,-0.01373,0.00824,-0.03632
7.938,-0.0087,-0.03326,-0.17456,-0.01205,-0.01877,-0.04929,-0.15121,-0.07126,0.01648,-0.10147,0.16373,0.00031,-0.03998,-0.0119,0.00916,-0.03052
7.9385,-0.00839,-0.03021,-0.13382,-0.01175,-0.02029,-0.04822,-0.12711,-0.05295,0.00732,-0.09949,0.19424,-0.00244,-0.04044,-0.0116,0.00916,-0.03235
7.939,-0.00931,-0.02533,-0.09247,-0.01129,-0.02304,-0.04639,-0.01236,-0.02396,0.00015,-0.09247,0.19165,-0.0087,-0.04059,-0.01251,0.00885,-0.03998
7.9395,-0.00977,-0.02106,-0.06531,-0.01114,-0.02548,-0.04486,0.18097,0.00519,-0.00641,-0.09583,0.14145,-0.01526,-0.04044,-0.01602,0.00687,-0.04852
7.94,-0.00992,-0.01816,-0.05081,-0.01038,-0.02914,-0.04379,0.289,0.0238,-0.01587,-0.11124,0.05203,-0.02014,-0.03922,-0.01892,0.00565,-0.05188
7.9405,-0.00778,-0.01923,-0.04776,-0.00885,-0.03464,-0.0441,0.20645,0.02579,-0.02853,-0.13504,-0.04623,-0.01923,-0.03769,-0.02106,0.00671,-0.0502
7.941,-0.00381,-0.02289,-0.04639,-0.00671,-0.04166,-0.04639,0.05386,0.01495,-0.04288,-0.1622,-0.1239,-0.0148,-0.03708,-0.02167,0.00702,-0.04547
7.9415,0.0,-0.0293,-0.04547,-0.00549,-0.047,-0.04944,0.00549,0.00473,-0.05447,-0.18936,-0.17258,-0.01205,-0.03784,-0.02518,0.00656,-0.04288
7.942,0.0032,-0.0354,-0.04547,-0.0061,-0.05112,-0.04959,0.05768,0.00778,-0.06363,-0.21255,-0.19928,-0.01068,-0.03769,-0.03128,0.00748,-0.04242
7.9425,0.00687,-0.04044,-0.04471,-0.00641,-0.05051,-0.04929,0.07797,0.01877,-0.07095,-0.2301,-0.21057,-0.01038,-0.03723,-0.03799,0.00702,-0.04059
7.943,0.01068,-0.04242,-0.04272,-0.00595,-0.04669,-0.04745,-0.00381,0.0235,-0.07874,-0.23438,-0.20386,-0.00885,-0.03647,-0.0415,0.00626,-0.03494
7.9435,0.01343,-0.04425,-0.03967,-0.00565,-0.0415,-0.04486,-0.13199,0.01389,-0.08545,-0.21881,-0.1799,-0.00656,-0.03708,-0.04257,0.00626,-0.02686
7.944,0.01297,-0.04639,-0.03571,-0.0061,-0.03784,-0.04318,-0.20294,-0.00183,-0.08972,-0.17868,-0.14313,-0.00076,-0.03647,-0.04333,0.00702,-0.0209
7.9445,0.01083,-0.04822,-0.03082,-0.0058,-0.03296,-0.04089,-0.17502,-0.01144,-0.0885,-0.11902,-0.10345,0.00809,-0.03632,-0.04425,0.00793,-0.02136
7.945,0.00824,-0.04486,-0.02579,-0.00488,-0.02457,-0.03876,-0.09262,-0.01068,-0.08118,-0.0473,-0.07217,0.01648,-0.03479,-0.04303,0.00732,-0.02914
7.9455,0.00641,-0.03891,-0.01984,-0.00412,-0.01236,-0.03433,-0.01312,-0.00641,-0.07141,0.01343,-0.05539,0.01953,-0.03204,-0.04074,0.00656,-0.04333
7.946,0.00534,-0.03464,-0.0174,-0.00427,-0.00229,-0.0322,0.03845,0.0,-0.06165,0.03662,-0.05234,0.01801,-0.02869,-0.03845,0.0061,-0.06119
7.9465,0.00259,-0.03372,-0.01648,-0.00549,0.00153,-0.03189,0.04517,0.00244,-0.05447,0.01862,-0.05295,0.01175,-0.02731,-0.03845,0.00595,-0.07431
7.947,-0.00061,-0.03555,-0.01816,-0.00565,-0.00122,-0.03616,-0.00092,-0.00778,-0.04929,-0.01541,-0.04944,0.00427,-0.02548,-0.03937,0.00656,-0.07614
7.9475,-0.00183,-0.03815,-0.0209,-0.00565,-0.00702,-0.04135,-0.0444,-0.0354,-0.04486,-0.0354,-0.04196,-0.00336,-0.02502,-0.03876,0.00793,-0.06989
7.948,0.00076,-0.03983,-0.02243,-0.00381,-0.01175,-0.0473,-0.01526,-0.06927,-0.03891,-0.03082,-0.04028,-0.01053,-0.02579,-0.03754,0.00824,-0.06668
7.9485,0.00534,-0.03998,-0.02151,-0.00244,-0.01587,-0.04929,0.0531,-0.09216,-0.0322,-0.01236,-0.04898,-0.01648,-0.02716,-0.03616,0.00732,-0.07202
7.949,0.00778,-0.03891,-0.02106,-0.00076,-0.02335,-0.04822,0.07324,-0.10086,-0.02762,0.01312,-0.06027,-0.01877,-0.02762,-0.03677,0.00626,-0.07751
7.9495,0.00839,-0.0383,-0.02014,-0.00092,-0.03815,-0.04715,0.05081,-0.10406,-0.02472,0.04196,-0.05936,-0.01434,-0.02686,-0.03708,0.00671,-0.07401
7.95,0.00809,-0.03754,-0.01999,-0.00259,-0.05875,-0.04822,0.0647,-0.09674,-0.01999,0.07019,-0.03922,-0.00519,-0.02579,-0.03525,0.00702,-0.06226
7.9505,0.01038,-0.03662,-0.01801,-0.00488,-0.0795,-0.0528,0.10376,-0.06805,-0.01389,0.09705,-0.0116,0.00336,-0.02548,-0.03052,0.00717,-0.05051
7.951,0.01419,-0.03372,-0.01328,-0.00412,-0.09216,-0.05463,0.06912,-0.02274,-0.00946,0.11383,0.0029,0.00534,-0.02396,-0.02625,0.00778,-0.04227
7.9515,0.01617,-0.02884,-0.00153,-0.00214,-0.09628,-0.05112,-0.05325,0.01907,-0.01038,0.10651,0.0,0.00275,-0.02426,-0.02457,0.00793,-0.03601
7.952,0.0148,-0.02396,0.01602,-0.00198,-0.09628,-0.0441,-0.16403,0.03937,-0.01312,0.07721,-0.01526,-0.00092,-0.02579,-0.02197,0.00763,-0.0351
7.9525,0.01266,-0.02121,0.0238,-0.00214,-0.09674,-0.03922,-0.19257,0.03235,-0.01175,0.04974,-0.03067,-0.00473,-0.02701,-0.01923,0.00748,-0.04013
7.953,0.01175,-0.02106,0.00229,-0.00229,-0.09399,-0.03738,-0.16861,0.00412,-0.00458,0.04135,-0.04044,-0.00885,-0.02747,-0.01648,0.00763,-0.04456
7.9535,0.01328,-0.02151,-0.04578,-0.00153,-0.08255,-0.03677,-0.13245,-0.02487,0.00473,0.04684,-0.03891,-0.01129,-0.02914,-0.01541,0.00702,-0.04196
7.954,0.0145,-0.02243,-0.08575,-0.00031,-0.06516,-0.03571,-0.08804,-0.03723,0.01434,0.04898,-0.02472,-0.01083,-0.03098,-0.01358,0.00687,-0.03555
7.9545,0.01328,-0.02304,-0.08469,0.00092,-0.04517,-0.03479,-0.06165,-0.03952,0.02228,0.04333,-0.00977,-0.01022,-0.03159,-0.00992,0.00778,-0.03143
7.955,0.00931,-0.02426,-0.04562,0.00092,-0.02655,-0.03464,-0.08514,-0.05096,0.0296,0.03876,-0.0032,-0.01068,-0.03204,-0.00885,0.00702,-0.0322
7.9555,0.00366,-0.03159,0.00061,-0.00061,-0.00992,-0.03296,-0.10712,-0.07584,0.03281,0.03265,-0.00153,-0.01221,-0.03281,-0.00839,0.00671,-0.03494
7.956,-0.00305,-0.05127,0.03311,-0.00275,0.0029,-0.03235,-0.02274,-0.09521,0.03174,0.01938,0.00122,-0.01328,-0.03326,-0.00824,0.00671,-0.03738
7.9565,-0.01053,-0.07721,0.05188,-0.00488,0.01175,-0.03372,0.17899,-0.09171,0.02899,-0.0032,0.01007,-0.01389,-0.03387,-0.00549,0.00748,-0.03754
7.957,-0.01984,-0.09445,0.05737,-0.00687,0.01984,-0.03952,0.36148,-0.06531,0.02518,-0.02304,0.01892,-0.01556,-0.03464,-0.00153,0.00793,-0.03693
7.9575,-0.02731,-0.0946,0.05402,-0.009,0.02853,-0.047,0.36972,-0.02594,0.02075,-0.02808,0.02472,-0.01633,-0.03571,0.00153,0.00732,-0.03632
7.958,-0.03265,-0.08133,0.04379,-0.00839,0.03708,-0.05661,0.21027,0.01572,0.0145,-0.01373,0.02716,-0.01587,-0.03708,0.00443,0.00702,-0.03647
7.9585,-0.0354,-0.06592,0.03006,-0.00687,0.03891,-0.06775,0.05569,0.04425,0.00931,0.01953,0.02441,-0.01404,-0.03799,0.00885,0.00778,-0.0354
7.959,-0.03616,-0.05569,0.0148,-0.0058,0.03342,-0.07614,0.04196,0.04242,0.00763,0.06882,0.01801,-0.01144,-0.03937,0.01053,0.00885,-0.03357
7.9595,-0.03616,-0.05173,-0.00031,-0.00488,0.02365,-0.07965,0.10544,0.01129,0.01144,0.11703,0.01465,-0.00824,-0.04059,0.01007,0.00931,-0.03021
7.96,-0.03647,-0.04974,-0.01282,-0.00275,0.01251,-0.08057,0.1088,-0.01648,0.01724,0.14221,0.02258,-0.00641,-0.04089,0.00824,0.00992,-0.02808
7.9605,-0.03403,-0.05112,-0.02151,0.00061,-0.00412,-0.08224,0.04242,-0.00244,0.01999,0.14313,0.04593,-0.00778,-0.03998,0.00732,0.00931,-0.02869
7.961,-0.02655,-0.06012,-0.0267,0.00351,-0.02853,-0.08774,0.00824,0.0528,0.01907,0.13397,0.08057,-0.00961,-0.03998,0.00671,0.00931,-0.03067
7.9615,-0.01511,-0.07355,-0.03052,0.00458,-0.05402,-0.09048,0.03586,0.103,0.01678,0.12192,0.11429,-0.00931,-0.04028,0.00763,0.00961,-0.03342
7.962,-0.00488,-0.07889,-0.03143,0.00412,-0.06912,-0.08591,0.02975,0.10544,0.01648,0.0882,0.14297,-0.00839,-0.03967,0.00885,0.00854,-0.03677
7.9625,0.00214,-0.0679,-0.03342,0.00443,-0.07401,-0.07614,-0.07507,0.07324,0.01556,0.0267,0.1709,-0.00885,-0.0383,0.00626,0.00793,-0.03967
7.963,0.00565,-0.04562,-0.03922,0.0058,-0.07889,-0.06836,-0.21393,0.04974,0.01251,-0.04944,0.2034,-0.01205,-0.03723,0.0029,0.00778,-0.04303
7.9635,0.00671,-0.02762,-0.0473,0.00412,-0.09338,-0.06149,-0.27664,0.0528,0.00931,-0.11993,0.23224,-0.01419,-0.03677,-0.00198,0.00854,-0.04364
7.964,0.00717,-0.02228,-0.05157,-0.00122,-0.10529,-0.05325,-0.22598,0.05829,0.00732,-0.16357,0.24811,-0.01312,-0.03601,-0.00549,0.00809,-0.04089
7.9645,0.00656,-0.02045,-0.04852,-0.00748,-0.10162,-0.04227,-0.13306,0.03876,0.00397,-0.15823,0.23926,-0.00931,-0.03403,-0.0116,0.009,-0.03571
7.965,0.00519,-0.01282,-0.04181,-0.01175,-0.07965,-0.03128,-0.1152,-0.00626,-0.00381,-0.10788,0.20065,-0.00488,-0.03189,-0.01862,0.00946,-0.02975
7.9655,0.00275,-0.00061,-0.0354,-0.01373,-0.05554,-0.02457,-0.20157,-0.05554,-0.01602,-0.04578,0.12985,-0.00214,-0.03036,-0.02274,0.00961,-0.02487
7.966,0.00061,0.00427,-0.02869,-0.01419,-0.04303,-0.02426,-0.25299,-0.08377,-0.02869,-0.0119,0.03571,-0.00153,-0.02899,-0.02594,0.01068,-0.0238
7.9665,-0.00137,-0.00168,-0.02106,-0.01389,-0.04196,-0.02747,-0.1062,-0.08453,-0.03906,-0.01495,-0.05905,-0.00259,-0.02823,-0.03036,0.01053,-0.02548
7.967,-0.00214,-0.01144,-0.01419,-0.01389,-0.03952,-0.02594,0.18326,-0.06714,-0.04776,-0.03815,-0.13672,-0.00351,-0.02838,-0.0351,0.01022,-0.02731
7.9675,-0.00214,-0.01755,-0.01038,-0.01389,-0.03036,-0.0209,0.3743,-0.05035,-0.05692,-0.06302,-0.18661,-0.00534,-0.0293,-0.04028,0.00916,-0.02838
7.968,-0.00153,-0.02167,-0.01007,-0.01266,-0.01633,-0.01495,0.33096,-0.03937,-0.06729,-0.0853,-0.2066,-0.00854,-0.03036,-0.04456,0.00885,-0.03067
7.9685,-0.00259,-0.02731,-0.00977,-0.01144,-0.00092,-0.01266,0.12787,-0.02441,-0.0766,-0.1059,-0.20432,-0.01297,-0.03098,-0.04807,0.00717,-0.04028
7.969,-0.00381,-0.03235,-0.00946,-0.00931,0.01205,-0.01053,-0.09003,0.00275,-0.08148,-0.12466,-0.1947,-0.0177,-0.03082,-0.04959,0.0061,-0.0563
7.9695,-0.00458,-0.03586,-0.00854,-0.00824,0.01801,-0.00778,-0.21942,0.03464,-0.08179,-0.13885,-0.19348,-0.01907,-0.03067,-0.04929,0.00565,-0.07309
7.97,-0.0058,-0.03738,-0.00977,-0.00931,0.01297,-0.00412,-0.22568,0.0621,-0.07614,-0.14603,-0.20782,-0.0145,-0.03021,-0.0473,0.00473,-0.08179
7.9705,-0.00793,-0.03922,-0.00961,-0.01282,-0.00458,-0.0029,-0.1619,0.08728,-0.06607,-0.14618,-0.23361,-0.00412,-0.02975,-0.04517,0.00519,-0.08179
7.971,-0.01038,-0.04166,-0.00916,-0.0145,-0.03113,-0.00961,-0.08865,0.10468,-0.0531,-0.14282,-0.26016,0.01129,-0.02838,-0.04532,0.00565,-0.07431
7.9715,-0.01129,-0.04272,-0.00839,-0.01114,-0.0618,-0.02808,0.02029,0.09537,-0.03784,-0.13962,-0.27008,0.02838,-0.02762,-0.04547,0.00717,-0.06317
7.972,-0.01022,-0.0412,-0.00656,-0.00504,-0.08591,-0.05341,0.19012,0.06271,-0.02274,-0.13474,-0.26123,0.03998,-0.02747,-0.04639,0.0087,-0.05402
7.9725,-0.00839,-0.03723,-0.00305,-0.00214,-0.09399,-0.06943,0.31433,0.03922,-0.00977,-0.1239,-0.22873,0.04028,-0.02731,-0.04715,0.00916,-0.04974
7.973,-0.0087,-0.03326,0.00153,-0.00443,-0.08377,-0.06638,0.26566,0.03906,0.00198,-0.10803,-0.17365,0.03387,-0.0267,-0.0473,0.0087,-0.04669
7.9735,-0.00885,-0.03143,0.00443,-0.00885,-0.06393,-0.05096,0.08499,0.03265,0.01129,-0.09399,-0.0972,0.02975,-0.02609,-0.04623,0.00763,-0.04105
7.974,-0.00824,-0.03311,0.00427,-0.00961,-0.04913,-0.04089,-0.0618,-0.00046,0.02075,-0.08469,-0.01511,0.03189,-0.02533,-0.0412,0.0087,-0.03311
7.9745,-0.00778,-0.0354,0.00275,-0.00626,-0.04608,-0.04028,-0.10086,-0.02258,0.03113,-0.0766,0.05096,0.03616,-0.02426,-0.03326,0.00961,-0.02823
7.975,-0.00824,-0.03677,0.00259,-0.00259,-0.04959,-0.04089,-0.10452,0.00778,0.04044,-0.06165,0.07629,0.03571,-0.02304,-0.02686,0.00946,-0.03021
7.9755,-0.01007,-0.03876,0.00458,-0.00153,-0.05127,-0.03647,-0.13184,0.06409,0.04486,-0.04013,0.05859,0.02594,-0.02213,-0.02151,0.00885,-0.03586
7.976,-0.01251,-0.04242,0.00351,-0.00427,-0.04578,-0.03418,-0.14526,0.0853,0.0444,-0.01953,0.02029,0.01068,-0.02151,-0.01678,0.00824,-0.04166
7.9765,-0.01389,-0.04822,-0.01144,-0.00763,-0.03555,-0.04196,-0.09384,0.05997,0.04196,-0.0058,-0.00641,-0.00397,-0.02228,-0.01129,0.00839,-0.04532
7.977,-0.01434,-0.05508,-0.0618,-0.00916,-0.02563,-0.05707,-0.0032,0.0296,0.04028,-0.00641,-0.01099,-0.01404,-0.02411,-0.0058,0.00916,-0.04669
7.9775,-0.01633,-0.05814,-0.14984,-0.00931,-0.01862,-0.06973,0.03387,0.01892,0.03555,-0.01923,-0.00122,-0.01953,-0.02655,-0.00351,0.00946,-0.04623
7.978,-0.01755,-0.05661,-0.22537,-0.00931,-0.01404,-0.07523,-0.04333,0.01404,0.02686,-0.02487,0.0032,-0.01923,-0.02838,-0.00336,0.00885,-0.0415
7.9785,-0.0177,-0.05341,-0.22491,-0.01175,-0.01099,-0.0766,-0.21423,-0.00107,0.0174,-0.00244,0.00336,-0.01266,-0.02823,-0.00229,0.0087,-0.03403
7.979,-0.01556,-0.04807,-0.1329,-0.01434,-0.01038,-0.07996,-0.41595,-0.02228,0.00931,0.04272,0.00565,-0.00351,-0.02914,-0.00305,0.0087,-0.02838
7.9795,-0.01266,-0.04166,-0.00336,-0.01404,-0.01083,-0.08331,-0.56091,-0.04196,0.00275,0.07889,0.00732,0.00488,-0.03098,-0.00305,0.00961,-0.02716
7.98,-0.01114,-0.03555,0.10391,-0.01144,-0.01328,-0.08072,-0.52399,-0.05905,-0.00168,0.0885,0.01038,0.00839,-0.03296,-0.00427,0.01083,-0.03098
7.9805,-0.01099,-0.03204,0.16052,-0.00977,-0.01602,-0.07217,-0.2446,-0.07156,-0.0058,0.08316,0.01328,0.0087,-0.03387,-0.00473,0.01099,-0.03693
7.981,-0.00854,-0.03281,0.16861,-0.00946,-0.01602,-0.0647,0.13916,-0.06546,-0.00854,0.07553,0.01587,0.00839,-0.03357,-0.00336,0.01022,-0.04105
7.9815,-0.0029,-0.03754,0.14465,-0.00977,-0.01648,-0.06592,0.40298,-0.03159,-0.01144,0.06668,0.01602,0.01022,-0.03403,-0.00198,0.00916,-0.04318
7.982,0.00275,-0.04303,0.11261,-0.00931,-0.02075,-0.0705,0.46951,0.01419,-0.01358,0.05219,0.01465,0.009,-0.03571,-0.00214,0.00809,-0.04425
7.9825,0.00473,-0.04623,0.08591,-0.00656,-0.03082,-0.07309,0.4129,0.03067,-0.01526,0.0383,0.0148,0.00336,-0.03738,-0.00397,0.0087,-0.04532
7.983,0.00336,-0.04929,0.06699,-0.00168,-0.03891,-0.06973,0.29282,-0.00046,-0.01694,0.03006,0.01465,-0.00534,-0.0383,-0.00656,0.00809,-0.04608
7.9835,0.00259,-0.05508,0.05066,0.00214,-0.03784,-0.06302,0.1358,-0.04654,-0.02045,0.02686,0.01465,-0.01068,-0.03845,-0.00946,0.00778,-0.04745
7.984,0.00351,-0.06027,0.03738,0.00198,-0.03021,-0.05325,0.02502,-0.05478,-0.02594,0.02075,0.01556,-0.01144,-0.03876,-0.01236,0.00763,-0.04761
7.9845,0.00534,-0.05951,0.02792,-0.00183,-0.02579,-0.04242,0.03967,-0.01587,-0.03143,0.01266,0.01495,-0.00885,-0.03967,-0.01572,0.00824,-0.04501
7.985,0.00763,-0.05219,0.02106,-0.00687,-0.02747,-0.03265,0.13718,0.02762,-0.03708,0.00488,0.01328,-0.00443,-0.04059,-0.01907,0.00885,-0.03967
7.9855,0.00931,-0.04013,0.01251,-0.00931,-0.0322,-0.02716,0.1741,0.03235,-0.04135,-0.0029,0.00427,-0.00031,-0.04089,-0.02197,0.00916,-0.03647
7.986,0.01312,-0.02594,0.00305,-0.00793,-0.03433,-0.02548,0.06699,0.00198,-0.04501,-0.0116,-0.00809,0.00137,-0.04074,-0.02365,0.00854,-0.03738
7.9865,0.01541,-0.01907,-0.00748,-0.0061,-0.0354,-0.0293,-0.08652,-0.01831,-0.04639,-0.01999,-0.01968,0.00076,-0.03922,-0.02457,0.00732,-0.03891
7.987,0.0145,-0.02869,-0.01984,-0.00534,-0.03677,-0.04227,-0.10239,-0.00244,-0.04288,-0.02594,-0.02045,0.00076,-0.03586,-0.02411,0.00763,-0.04044
7.9875,0.01068,-0.04883,-0.03311,-0.00641,-0.0386,-0.05432,0.04684,0.02884,-0.03601,-0.02869,-0.01602,0.00107,-0.03235,-0.02411,0.00854,-0.04349
7.988,0.00778,-0.06348,-0.04379,-0.00793,-0.03708,-0.0528,0.16907,0.03708,-0.03113,-0.0296,-0.0058,-0.00015,-0.0296,-0.02396,0.00992,-0.04929
7.9885,0.0058,-0.06271,-0.05173,-0.00824,-0.03067,-0.03708,0.10773,0.01755,-0.0296,-0.03067,-0.00198,-0.00153,-0.02899,-0.0235,0.00931,-0.05371
7.989,0.00122,-0.05478,-0.05859,-0.00687,-0.02182,-0.02655,-0.0531,-0.00641,-0.03021,-0.03159,0.00488,0.00031,-0.02869,-0.02258,0.00961,-0.05325
7.9895,-0.0061,-0.04807,-0.06607,-0.00412,-0.0148,-0.03082,-0.13168,-0.01678,-0.02945,-0.03159,0.01404,0.00381,-0.02808,-0.02197,0.00992,-0.04562
7.99,-0.0116,-0.04456,-0.07446,-0.0032,-0.01022,-0.04242,-0.09598,-0.01419,-0.02579,-0.02975,0.02289,0.00732,-0.02853,-0.02151,0.01053,-0.0383
7.9905,-0.01297,-0.04105,-0.08438,-0.0029,-0.009,-0.04501,-0.04608,-0.00839,-0.02228,-0.02396,0.03281,0.00549,-0.02899,-0.02167,0.00992,-0.0386
7.991,-0.01328,-0.03555,-0.0975,-0.0032,-0.00885,-0.04379,-0.02075,-0.00778,-0.02014,-0.01495,0.03937,-0.00061,-0.02838,-0.01999,0.00931,-0.0444
7.9915,-0.0145,-0.02823,-0.11307,-0.0032,-0.00885,-0.04715,0.00458,-0.02365,-0.01984,-0.00656,0.04089,-0.00519,-0.0264,-0.0177,0.00885,-0.04944
7.992,-0.01846,-0.02014,-0.12329,-0.0029,-0.01083,-0.05325,0.02014,-0.06012,-0.0177,-0.00137,0.04074,-0.00427,-0.02426,-0.01846,0.00885,-0.04761
7.9925,-0.02167,-0.01495,-0.12054,-0.00275,-0.01389,-0.05493,-0.01465,-0.1062,-0.01312,0.00061,0.0264,0.00107,-0.02533,-0.02014,0.0087,-0.04257
7.993,-0.02426,-0.0145,-0.10849,-0.00305,-0.01785,-0.05737,-0.08148,-0.14847,-0.00793,-0.00015,0.01007,0.00534,-0.02853,-0.01953,0.0087,-0.03952
7.9935,-0.02762,-0.01678,-0.09491,-0.0032,-0.01968,-0.07156,-0.10498,-0.18402,-0.00427,-0.00275,-0.00427,0.00381,-0.03067,-0.01709,0.00839,-0.03815
7.994,-0.03372,-0.02121,-0.08408,-0.00244,-0.01938,-0.09201,-0.06226,-0.20203,-0.00336,-0.00595,-0.00809,-0.00229,-0.03082,-0.01495,0.00778,-0.03586
7.9945,-0.03738,-0.02441,-0.07736,-0.00137,-0.01877,-0.09369,-0.02975,-0.18402,-0.00366,-0.00595,-0.01144,-0.00885,-0.03143,-0.01373,0.00763,-0.03265
7.995,-0.03387,-0.02747,-0.07065,-0.00153,-0.0177,-0.07019,-0.08636,-0.13107,-0.00412,-0.00107,-0.01694,-0.01404,-0.03281,-0.0148,0.00839,-0.03052
7.9955,-0.0235,-0.02945,-0.06104,-0.0032,-0.01694,-0.04242,-0.21072,-0.07217,-0.00458,0.00839,-0.01831,-0.01663,-0.03403,-0.01526,0.00946,-0.03098
7.996,-0.01282,-0.03387,-0.04761,-0.00473,-0.0177,-0.03189,-0.33035,-0.02472,-0.0029,0.0206,-0.00595,-0.01602,-0.0354,-0.0148,0.00961,-0.03387
7.9965,-0.00595,-0.03922,-0.0354,-0.0058,-0.0174,-0.03403,-0.43335,0.02213,0.0,0.03036,0.01404,-0.01389,-0.03677,-0.01343,0.00961,-0.03845
7.997,-0.00412,-0.04333,-0.02853,-0.00717,-0.01648,-0.03311,-0.54031,0.07202,0.00122,0.03387,0.03708,-0.01053,-0.03845,-0.01343,0.00931,-0.04318
7.9975,-0.00305,-0.04822,-0.02731,-0.00778,-0.01678,-0.03021,-0.6012,0.11398,-0.00214,0.03662,0.06149,-0.0061,-0.03937,-0.01511,0.00839,-0.04684
7.998,-0.00229,-0.05508,-0.03021,-0.00702,-0.01755,-0.03616,-0.55618,0.14145,-0.00946,0.04959,0.0882,-0.00168,-0.03952,-0.01587,0.00809,-0.04745
7.9985,-0.00031,-0.06546,-0.03616,-0.00336,-0.01938,-0.05386,-0.47455,0.15411,-0.01526,0.07217,0.11261,0.00198,-0.03983,-0.01556,0.0087,-0.04639
7.999,-0.00092,-0.0679,-0.04257,0.00076,-0.02045,-0.07614,-0.47546,0.14587,-0.01678,0.07813,0.13031,0.00305,-0.03998,-0.01541,0.00931,-0.04425
7.9995,-0.00366,-0.05478,-0.04791,0.00168,-0.02045,-0.09766,-0.466,0.11398,-0.01526,0.04776,0.13275,0.00092,-0.03876,-0.0148,0.00946,-0.04074
8.0,-0.00565,-0.0322,-0.04959,0.00061,-0.01724,-0.11719,-0.19089,0.07996,-0.01556,-0.00687,0.11444,-0.00412,-0.03662,-0.01495,0.01053,-0.03586
8.0005,-0.00748,-0.01678,-0.05142,-0.00015,-0.01358,-0.12772,0.37384,0.06714,-0.01984,-0.04745,0.07019,-0.00504,-0.0354,-0.01587,0.01083,-0.03082
8.001,-0.00931,-0.01984,-0.06104,-0.00153,-0.01282,-0.11551,0.86014,0.06683,-0.02502,-0.05569,0.01236,-0.00031,-0.03632,-0.01617,0.01114,-0.02884
8.0015,-0.01129,-0.03448,-0.09247,-0.00336,-0.01404,-0.08102,0.9169,0.05249,-0.02792,-0.04211,-0.03906,0.00504,-0.03708,-0.01495,0.00946,-0.03265
8.002,-0.01373,-0.04639,-0.13977,-0.00595,-0.01648,-0.04578,0.62164,0.02167,-0.02792,-0.03143,-0.07965,0.00381,-0.03876,-0.01465,0.00824,-0.04028
8.0025,-0.01617,-0.05142,-0.16953,-0.00717,-0.01892,-0.0206,0.32303,-0.00305,-0.02945,-0.03189,-0.09949,-0.00381,-0.03937,-0.0145,0.009,-0.04684
8.003,-0.01892,-0.05173,-0.14984,-0.01038,-0.02106,-0.00549,0.20615,-0.00595,-0.0322,-0.04013,-0.1062,-0.01328,-0.03815,-0.01389,0.00916,-0.04822
8.0035,-0.02167,-0.05188,-0.08606,-0.01663,-0.02274,0.00671,0.16937,0.00687,-0.03403,-0.04807,-0.09659,-0.01831,-0.03601,-0.01312,0.00946,-0.04395
8.004,-0.02258,-0.05341,-0.01389,-0.02243,-0.0238,0.01541,0.07416,0.01877,-0.03448,-0.05295,-0.08087,-0.0177,-0.03433,-0.01221,0.00854,-0.03693
8.0045,-0.02304,-0.05569,0.03525,-0.02869,-0.0206,0.01511,-0.05249,0.02518,-0.03403,-0.0502,-0.06439,-0.0119,-0.03372,-0.0148,0.00946,-0.0325
8.005,-0.02182,-0.05737,0.05371,-0.03403,-0.01587,0.00793,-0.08377,0.03265,-0.03448,-0.03632,-0.05585,-0.00397,-0.0325,-0.01755,0.01053,-0.03067
8.0055,-0.01953,-0.05676,0.05508,-0.03891,-0.01648,0.00107,0.02838,0.04211,-0.03601,-0.0206,-0.06119,0.00031,-0.03174,-0.01892,0.01038,-0.03174
8.006,-0.01938,-0.05447,0.05035,-0.04135,-0.02289,0.00031,0.17578,0.03845,-0.03754,-0.02045,-0.06989,-0.00122,-0.03204,-0.01877,0.00977,-0.03708
8.0065,-0.02274,-0.05219,0.04501,-0.04196,-0.03235,0.00244,0.21835,0.01266,-0.03937,-0.04196,-0.07431,-0.00732,-0.0322,-0.01877,0.00961,-0.04395
8.007,-0.0267,-0.05096,0.03708,-0.04028,-0.04074,-0.00076,0.14862,-0.0267,-0.0415,-0.07355,-0.0647,-0.01175,-0.03174,-0.02014,0.00916,-0.0473
8.0075,-0.02777,-0.05127,0.0235,-0.03891,-0.04684,-0.01556,0.08255,-0.06012,-0.03998,-0.09735,-0.04837,-0.01038,-0.03006,-0.02243,0.0087,-0.04791
8.008,-0.02365,-0.05341,0.00366,-0.0383,-0.05081,-0.04196,0.12039,-0.0708,-0.03647,-0.10818,-0.03174,-0.00412,-0.02884,-0.0235,0.00824,-0.04715
8.0085,-0.01877,-0.05615,-0.01572,-0.03906,-0.0531,-0.06653,0.22797,-0.05814,-0.03296,-0.10712,-0.02075,0.00244,-0.02884,-0.02319,0.00717,-0.047
8.009,-0.01633,-0.056,-0.03128,-0.04471,-0.056,-0.07553,0.27222,-0.03754,-0.0322,-0.10223,-0.0209,0.00778,-0.02899,-0.02136,0.00809,-0.04837
8.0095,-0.01526,-0.04959,-0.04501,-0.05722,-0.06165,-0.06622,0.17685,-0.0238,-0.03159,-0.09476,-0.03632,0.01175,-0.02823,-0.01892,0.00809,-0.04822
8.01,-0.01343,-0.03601,-0.07797,-0.0705,-0.06912,-0.05173,0.00595,-0.02151,-0.03021,-0.0827,-0.0618,0.01495,-0.02731,-0.01755,0.00885,-0.04669
8.0105,-0.01053,-0.02518,-0.13687,-0.07797,-0.07446,-0.047,-0.11246,-0.02289,-0.02762,-0.0618,-0.09506,0.01434,-0.0264,-0.01678,0.00839,-0.0473
8.011,-0.00946,-0.03021,-0.19531,-0.08087,-0.07355,-0.04959,-0.13062,-0.02167,-0.02243,-0.03784,-0.11566,0.01068,-0.02686,-0.01648,0.00839,-0.0499
8.0115,-0.01083,-0.06409,-0.20386,-0.08148,-0.06683,-0.05096,-0.11444,-0.01541,-0.01663,-0.02411,-0.121,0.00458,-0.02777,-0.01633,0.0087,-0.05188
8.012,-0.01083,-0.12222,-0.14984,-0.0853,-0.05905,-0.0441,-0.13138,-0.00931,-0.01007,-0.02899,-0.11826,-0.00153,-0.02884,-0.01587,0.00793,-0.05157
8.0125,-0.01022,-0.17166,-0.06821,-0.08835,-0.0528,-0.0325,-0.15533,-0.00473,-0.00397,-0.04349,-0.11948,-0.00687,-0.02991,-0.01709,0.00793,-0.05127
8.013,-0.01129,-0.17044,-0.00351,-0.0882,-0.05005,-0.02167,-0.11871,-0.00763,0.00229,-0.05325,-0.12039,-0.01114,-0.03021,-0.0174,0.00809,-0.05081
8.0135,-0.0145,-0.12009,0.03448,-0.08255,-0.04776,-0.01587,-0.03937,-0.02289,0.00717,-0.05356,-0.11734,-0.01312,-0.03036,-0.01846,0.00824,-0.0502
8.014,-0.01801,-0.06393,0.05142,-0.07401,-0.04608,-0.01511,-0.01007,-0.04654,0.01038,-0.04654,-0.10406,-0.01022,-0.03143,-0.01923,0.0087,-0.04837
8.0145,-0.02182,-0.03143,0.05539,-0.06409,-0.04349,-0.01923,-0.07736,-0.06821,0.01129,-0.03708,-0.08316,-0.0029,-0.03296,-0.01938,0.0087,-0.047
8.015,-0.02563,-0.01785,0.04532,-0.05341,-0.03998,-0.03098,-0.16739,-0.08011,0.01022,-0.02991,-0.05981,0.00565,-0.03494,-0.01999,0.00793,-0.04684
8.0155,-0.02701,-0.00458,0.01907,-0.04318,-0.0383,-0.04486,-0.15045,-0.08011,0.00748,-0.02594,-0.03586,0.01083,-0.03494,-0.02045,0.00961,-0.04517
8.016,-0.02579,0.01221,-0.0209,-0.0354,-0.03799,-0.0499,0.00977,-0.0647,0.0032,-0.02563,-0.0145,0.00961,-0.03525,-0.0209,0.00885,-0.04364
8.0165,-0.02563,0.0264,-0.06134,-0.03036,-0.03906,-0.04379,0.19669,-0.0383,-0.00366,-0.02777,0.00153,0.00259,-0.03372,-0.02029,0.00839,-0.0441
8.017,-0.02899,0.03601,-0.08575,-0.02625,-0.04105,-0.0325,0.25848,-0.01663,-0.0119,-0.02518,0.00687,-0.00717,-0.03464,-0.01907,0.00687,-0.04608
8.0175,-0.03143,0.04471,-0.10101,-0.01999,-0.04318,-0.02609,0.17914,-0.01556,-0.02029,-0.01862,0.00763,-0.01358,-0.03479,-0.01999,0.00641,-0.047
8.018,-0.02792,0.04929,-0.12848,-0.01282,-0.04486,-0.02426,0.04791,-0.03525,-0.02625,-0.01221,0.00656,-0.01389,-0.03357,-0.02213,0.0061,-0.04593
8.0185,-0.01816,0.04196,-0.16312,-0.01038,-0.04349,-0.02106,-0.08575,-0.05844,-0.02991,-0.01053,0.00565,-0.00809,-0.03159,-0.02319,0.00717,-0.04242
8.019,-0.00687,0.0206,-0.16586,-0.01465,-0.04089,-0.00931,-0.21729,-0.06805,-0.02747,-0.01083,0.00427,0.00076,-0.0296,-0.02197,0.00702,-0.03937
8.0195,0.00092,-0.00565,-0.1152,-0.01419,-0.03876,0.00748,-0.29831,-0.05539,-0.01755,-0.00916,0.00549,0.00885,-0.02747,-0.01907,0.00687,-0.03738
8.02,0.00473,-0.02701,-0.03662,-0.00092,-0.04089,0.01785,-0.27573,-0.02853,-0.00183,-0.00595,0.00992,0.01312,-0.02808,-0.0174,0.00732,-0.03952
8.0205,0.00488,-0.03967,0.02686,0.01968,-0.04288,0.01129,-0.17303,-0.00946,0.0145,-0.00061,0.01633,0.01495,-0.02747,-0.01617,0.00748,-0.04333
8.021,0.00168,-0.04745,0.05997,0.03418,-0.04242,-0.009,-0.06058,-0.00626,0.02487,0.01328,0.02258,0.01282,-0.02792,-0.01541,0.00809,-0.04562
8.0215,-0.00244,-0.05127,0.07004,0.03632,-0.03952,-0.03372,0.02853,-0.00793,0.02853,0.05173,0.03189,0.00793,-0.02991,-0.01419,0.00809,-0.04471
8.022,-0.00839,-0.05447,0.06744,0.02991,-0.03571,-0.05325,0.07202,0.00549,0.02487,0.11902,0.0473,-0.00015,-0.03296,-0.01251,0.00778,-0.04242
8.0225,-0.01495,-0.06195,0.05432,0.01984,-0.03265,-0.07324,0.01892,0.03571,0.01648,0.18875,0.06104,-0.00763,-0.03876,-0.01144,0.00687,-0.03937
8.023,-0.02045,-0.07492,0.03967,0.00351,-0.02762,-0.10025,-0.11978,0.06592,0.00671,0.20767,0.07385,-0.00946,-0.04135,-0.0119,0.00732,-0.03723
8.0235,-0.02365,-0.08759,0.03845,-0.02121,-0.01999,-0.13016,-0.22522,0.07553,-0.0032,0.13809,0.08392,-0.00641,-0.04166,-0.0116,0.00778,-0.03738
8.024,-0.02548,-0.09033,0.05035,-0.04333,-0.01083,-0.14832,-0.21194,0.05234,-0.01144,0.00473,0.0975,-0.0029,-0.04044,-0.01221,0.00732,-0.03922
8.0245,-0.02686,-0.07614,0.05997,-0.03128,-0.00412,-0.14984,-0.10468,0.0058,-0.01724,-0.11307,0.11429,-0.00122,-0.03937,-0.01251,0.00717,-0.04272
8.025,-0.02548,-0.05356,0.05081,0.03326,-0.0029,-0.14572,0.01389,-0.03723,-0.01862,-0.16098,0.13199,-0.00107,-0.0383,-0.01144,0.00595,-0.04395
8.0255,-0.02182,-0.03494,0.02777,0.12329,-0.00366,-0.14618,0.08011,-0.05768,-0.0177,-0.14725,0.14664,-0.00534,-0.03784,-0.01038,0.00702,-0.04257
8.026,-0.0145,-0.02762,0.0029,0.18219,-0.00504,-0.14648,0.06546,-0.05539,-0.01999,-0.11139,0.15701,-0.00977,-0.03616,-0.00992,0.00763,-0.04242
8.0265,-0.00381,-0.02426,-0.01373,0.18875,-0.00626,-0.13824,0.00061,-0.04456,-0.02762,-0.07584,0.15564,-0.01007,-0.03448,-0.00961,0.00732,-0.04471
8.027,0.00793,-0.01678,-0.02457,0.17227,-0.01068,-0.12497,-0.05386,-0.03052,-0.03708,-0.04333,0.13519,-0.0058,-0.0325,-0.00885,0.00626,-0.04684
8.0275,0.01831,-0.0029,-0.03357,0.16754,-0.01984,-0.11581,-0.06729,-0.00824,-0.04517,-0.01587,0.11017,-0.00244,-0.0293,-0.00885,0.00595,-0.04578
8.028,0.02365,0.01007,-0.04105,0.17395,-0.0322,-0.11047,-0.0473,0.01907,-0.05112,0.00183,0.08972,-0.00275,-0.02808,-0.01007,0.00626,-0.04303
8.0285,0.02533,0.01358,-0.0473,0.17548,-0.04181,-0.10071,-0.01678,0.03525,-0.05768,0.01282,0.08499,-0.00488,-0.02792,-0.0116,0.00687,-0.04135
8.029,0.0267,0.00153,-0.04944,0.17059,-0.04486,-0.0882,0.00153,0.03265,-0.06485,0.0209,0.08713,-0.00595,-0.02747,-0.01297,0.00732,-0.0415
8.0295,0.0293,-0.01999,-0.04333,0.16739,-0.04166,-0.07523,-0.00061,0.02075,-0.07263,0.02762,0.08545,-0.00687,-0.02747,-0.01221,0.00854,-0.04257
8.03,0.03159,-0.04028,-0.02518,0.16769,-0.0415,-0.0647,-0.01877,0.01205,-0.08057,0.02777,0.06638,-0.00763,-0.0264,-0.01434,0.00992,-0.0444
8.0305,0.03143,-0.05188,-0.00519,0.1683,-0.05096,-0.05783,-0.04684,0.0087,-0.08835,0.0209,0.02121,-0.00824,-0.02701,-0.02029,0.01022,-0.04517
8.031,0.02808,-0.05371,0.00122,0.16998,-0.06821,-0.05432,-0.0914,0.00946,-0.09308,0.01068,-0.04593,-0.00763,-0.0296,-0.02777,0.00854,-0.04501
8.0315,0.02182,-0.04761,-0.01038,0.17761,-0.08118,-0.05203,-0.15274,0.01038,-0.09338,-0.00244,-0.11719,-0.00854,-0.03143,-0.03418,0.00748,-0.04395
8.032,0.01251,-0.03525,-0.03525,0.18936,-0.08209,-0.04669,-0.22217,0.00916,-0.08926,-0.0174,-0.17899,-0.009,-0.03174,-0.0386,0.00763,-0.04364
8.0325,0.00137,-0.02228,-0.07111,0.1973,-0.07431,-0.0383,-0.27695,0.00732,-0.08194,-0.03403,-0.215,-0.00458,-0.0296,-0.04303,0.0087,-0.04364
8.033,-0.01022,-0.01205,-0.11719,0.19562,-0.0676,-0.03036,-0.28488,0.00839,-0.07538,-0.05051,-0.23209,0.00534,-0.02548,-0.04608,0.00854,-0.04395
8.0335,-0.01968,-0.00748,-0.15594,0.18814,-0.06622,-0.02838,-0.22766,0.0116,-0.06912,-0.06409,-0.24246,0.01434,-0.02365,-0.04807,0.00778,-0.04425
8.034,-0.02869,-0.01373,-0.16068,0.17792,-0.06668,-0.03296,-0.11261,0.01266,-0.06058,-0.07355,-0.25497,0.0145,-0.02426,-0.047,0.00839,-0.04395
8.0345,-0.03738,-0.02731,-0.12619,0.1651,-0.06531,-0.03616,0.0351,0.00809,-0.04745,-0.07843,-0.26077,0.01083,-0.02335,-0.04471,0.00809,-0.04303
8.035,-0.04562,-0.04288,-0.07584,0.14694,-0.06165,-0.03403,0.1947,0.00076,-0.0296,-0.0795,-0.24155,0.00977,-0.02319,-0.04166,0.00854,-0.04196
8.0355,-0.05219,-0.06165,-0.03708,0.12817,-0.06027,-0.03479,0.3244,-0.00732,-0.01251,-0.07446,-0.19821,0.01297,-0.02304,-0.03647,0.009,-0.04211
8.036,-0.05569,-0.0827,-0.01999,0.11551,-0.06226,-0.0441,0.35782,-0.0119,0.00122,-0.06363,-0.14709,0.01312,-0.02182,-0.03098,0.00885,-0.04211
8.0365,-0.05203,-0.10178,-0.02411,0.10651,-0.06393,-0.05539,0.26627,-0.01205,0.01007,-0.04883,-0.10178,0.00504,-0.02335,-0.02838,0.00839,-0.04044
8.037,-0.04105,-0.1123,-0.03845,0.09247,-0.06195,-0.06256,0.11383,-0.0087,0.01572,-0.03952,-0.0679,-0.00656,-0.02594,-0.02838,0.00839,-0.03891
8.0375,-0.02594,-0.10895,-0.06134,0.07156,-0.05844,-0.06393,-0.01801,-0.00488,0.02014,-0.03799,-0.04166,-0.0119,-0.0293,-0.02808,0.009,-0.03845
8.038,-0.00992,-0.09628,-0.09552,0.04807,-0.05341,-0.06226,-0.11292,-0.00244,0.02487,-0.04242,-0.02487,-0.00793,-0.02853,-0.02487,0.00854,-0.03876
8.0385,0.00458,-0.07965,-0.13931,0.02548,-0.04776,-0.05707,-0.19119,-0.00336,0.02975,-0.04837,-0.01511,0.0029,-0.02563,-0.01862,0.00809,-0.03983
8.039,0.01892,-0.06363,-0.168,0.00351,-0.04303,-0.04562,-0.24704,-0.0058,0.03418,-0.05035,-0.00839,0.01221,-0.02151,-0.01266,0.00763,-0.04196
8.0395,0.03372,-0.0502,-0.15686,-0.01923,-0.0386,-0.03326,-0.26871,-0.00626,0.03754,-0.04578,0.0,0.01144,-0.02151,-0.009,0.00763,-0.04318
8.04,0.04379,-0.03891,-0.1062,-0.04257,-0.03418,-0.02579,-0.26291,-0.00412,0.03891,-0.03845,0.00732,0.00015,-0.02396,-0.00778,0.00946,-0.04166
8.0405,0.04776,-0.02853,-0.04364,-0.06622,-0.03128,-0.02762,-0.19241,-0.00229,0.03876,-0.02777,0.0148,-0.01343,-0.02716,-0.00732,0.00931,-0.03998
8.041,0.04684,-0.01999,0.00656,-0.09033,-0.02777,-0.03128,-0.00122,-0.00259,0.03677,-0.01495,0.02472,-0.01892,-0.03036,-0.00671,0.009,-0.03937
8.0415,0.04517,-0.01389,0.03677,-0.1091,-0.02563,-0.02853,0.23956,-0.00427,0.03326,0.00305,0.03372,-0.01648,-0.0293,-0.0061,0.00824,-0.04013
8.042,0.04242,-0.01251,0.0531,-0.11108,-0.02518,-0.02182,0.33936,-0.00717,0.0267,0.02182,0.0415,-0.01129,-0.02945,-0.00275,0.00809,-0.0415
8.0425,0.03845,-0.01495,0.0589,-0.09415,-0.02502,-0.01923,0.22232,-0.01266,0.01831,0.03357,0.04868,-0.00397,-0.03143,0.00031,0.00824,-0.04379
8.043,0.0325,-0.01923,0.05524,-0.07294,-0.02457,-0.03021,0.03464,-0.02609,0.01068,0.03326,0.05859,0.00595,-0.03632,0.00031,0.00839,-0.04456
8.0435,0.02853,-0.02289,0.04623,-0.06866,-0.02258,-0.04868,-0.04303,-0.0441,0.00473,0.02457,0.07034,0.01907,-0.03891,-0.00183,0.00824,-0.04196
8.044,0.02518,-0.02579,0.03494,-0.08759,-0.02106,-0.05783,0.01404,-0.05539,0.00122,0.00916,0.07675,0.03067,-0.04059,-0.00351,0.00885,-0.03906
8.0445,0.02014,-0.0267,0.02289,-0.11536,-0.01923,-0.05112,0.10941,-0.05524,-0.00107,-0.01205,0.07492,0.03571,-0.04013,-0.00275,0.009,-0.0383
8.045,0.01602,-0.02808,0.01251,-0.13824,-0.01785,-0.03769,0.13809,-0.04852,-0.00366,-0.03601,0.06287,0.03036,-0.0412,-0.00305,0.00793,-0.04135
8.0455,0.0148,-0.03128,0.0058,-0.15625,-0.0174,-0.03128,0.07568,-0.04074,-0.00519,-0.05569,0.04166,0.01801,-0.04181,-0.00443,0.00809,-0.0441
8.046,0.01648,-0.03494,0.00229,-0.17395,-0.01846,-0.0296,-0.01038,-0.02914,-0.00763,-0.06073,0.01968,0.00763,-0.04333,-0.00656,0.00793,-0.04379
8.0465,0.01633,-0.0354,0.00244,-0.18707,-0.01907,-0.02548,-0.07156,-0.00885,-0.01022,-0.05188,0.00793,0.00549,-0.04105,-0.00885,0.00809,-0.04166
8.047,0.0145,-0.03296,0.00565,-0.19012,-0.0177,-0.01907,-0.1622,0.01663,-0.01358,-0.0322,0.01923,0.00992,-0.04089,-0.01144,0.00748,-0.03906
8.0475,0.01328,-0.02991,0.00778,-0.18463,-0.01678,-0.01968,-0.33966,0.03632,-0.01724,-0.00748,0.05005,0.01556,-0.04044,-0.01373,0.00732,-0.0386
8.048,0.01511,-0.03113,0.00504,-0.17883,-0.01785,-0.0296,-0.51758,0.03815,-0.02029,0.01419,0.0827,0.01724,-0.04074,-0.01526,0.00687,-0.03815
8.0485,0.01862,-0.03754,-0.00122,-0.17532,-0.01984,-0.04486,-0.53131,0.03036,-0.02121,0.02502,0.10132,0.01373,-0.04166,-0.01694,0.00702,-0.03708
8.049,0.02274,-0.04425,-0.00931,-0.17044,-0.01923,-0.05264,-0.29404,0.03265,-0.0206,0.02411,0.09964,0.00778,-0.03922,-0.01846,0.00687,-0.03494
8.0495,0.02747,-0.04761,-0.01999,-0.15839,-0.01556,-0.04684,0.08987,0.05051,-0.01999,0.01984,0.08636,0.00443,-0.03906,-0.02121,0.00717,-0.03342
8.05,0.03159,-0.04303,-0.04654,-0.13885,-0.01114,-0.02975,0.39429,0.06546,-0.02014,0.01785,0.06622,0.00473,-0.03845,-0.0235,0.00854,-0.03174
8.0505,0.03082,-0.03189,-0.1059,-0.11566,-0.01068,-0.01617,0.49057,0.06241,-0.02319,0.01831,0.04471,0.00473,-0.03647,-0.02625,0.00977,-0.02991
8.051,0.02472,-0.02289,-0.17914,-0.09583,-0.01144,-0.01511,0.43686,0.04364,-0.0267,0.01862,0.01984,0.00031,-0.03632,-0.02869,0.00885,-0.02991
8.0515,0.01358,-0.0267,-0.21378,-0.08148,-0.01175,-0.02411,0.33615,0.01984,-0.02762,0.01587,-0.00824,-0.00549,-0.03693,-0.0322,0.00793,-0.03098
8.052,0.00366,-0.04944,-0.16998,-0.07309,-0.01266,-0.03387,0.23788,0.0,-0.0267,0.00931,-0.03296,-0.00641,-0.03464,-0.03571,0.00687,-0.03342
8.0525,-0.00153,-0.0824,-0.06821,-0.06821,-0.01358,-0.03693,0.17654,-0.00748,-0.02579,0.00168,-0.04852,-0.00214,-0.03494,-0.03738,0.00717,-0.03677
8.053,-0.00336,-0.1062,0.0383,-0.06683,-0.01511,-0.03647,0.18173,0.00061,-0.02563,-0.00412,-0.05463,0.00122,-0.03143,-0.03784,0.00809,-0.04211
8.0535,-0.0032,-0.10666,0.11246,-0.06897,-0.01434,-0.03601,0.21286,0.0119,-0.0264,-0.009,-0.0499,0.00015,-0.03036,-0.03662,0.00885,-0.04745
8.054,-0.00107,-0.08881,0.14771,-0.06943,-0.0119,-0.03586,0.18982,0.01266,-0.02594,-0.0145,-0.04059,-0.00351,-0.02869,-0.03418,0.00778,-0.04944
8.0545,0.00229,-0.0679,0.14908,-0.06653,-0.01038,-0.03479,0.10635,0.00122,-0.02441,-0.01846,-0.03052,-0.00687,-0.02838,-0.0325,0.00641,-0.04761
8.055,0.00549,-0.0528,0.1268,-0.06073,-0.00946,-0.03143,0.03845,-0.01282,-0.02319,-0.0209,-0.02289,-0.00931,-0.02853,-0.03098,0.00626,-0.04379
8.0555,0.00473,-0.04211,0.0972,-0.05585,-0.00732,-0.02914,0.0264,-0.01862,-0.02518,-0.02151,-0.02289,-0.01251,-0.02716,-0.03143,0.00687,-0.03983
8.056,0.00107,-0.0354,0.07004,-0.05142,-0.00275,-0.02975,0.03601,-0.01465,-0.02914,-0.02274,-0.02945,-0.01511,-0.02731,-0.03113,0.00793,-0.03738
8.0565,-0.00458,-0.03403,0.04761,-0.04532,0.00092,-0.03693,0.03235,-0.00717,-0.03326,-0.0235,-0.04379,-0.01434,-0.02762,-0.03128,0.00748,-0.03616
8.057,-0.01297,-0.03601,0.02579,-0.03754,0.00137,-0.04684,0.02762,-0.00336,-0.03876,-0.02213,-0.06104,-0.01221,-0.02838,-0.02884,0.00793,-0.03571
8.0575,-0.0206,-0.03952,0.00458,-0.03082,0.00046,-0.05417,0.03662,-0.00397,-0.04623,-0.01923,-0.07599,-0.01129,-0.02762,-0.02609,0.00702,-0.0354
8.058,-0.02563,-0.04181,-0.01373,-0.02579,0.00168,-0.05737,0.04333,-0.00519,-0.05356,-0.01556,-0.08026,-0.01129,-0.02823,-0.02441,0.00687,-0.03632
8.0585,-0.02594,-0.04074,-0.02975,-0.02258,0.00229,-0.05478,0.02533,-0.00549,-0.05722,-0.01129,-0.07523,-0.01068,-0.02869,-0.02243,0.00687,-0.03769
8.059,-0.02274,-0.03632,-0.04227,-0.02029,0.00137,-0.04837,-0.01083,-0.00626,-0.0563,-0.01022,-0.06424,-0.01022,-0.02869,-0.02136,0.00748,-0.03983
8.0595,-0.01877,-0.03189,-0.05737,-0.01587,-0.00137,-0.0412,-0.0415,-0.00732,-0.05005,-0.01251,-0.05783,-0.01053,-0.02808,-0.01862,0.00793,-0.03967
8.06,-0.01389,-0.03113,-0.07584,-0.01068,-0.00565,-0.04044,-0.05432,-0.00931,-0.04135,-0.01785,-0.05173,-0.01221,-0.02762,-0.01648,0.00778,-0.03906
8.0605,-0.00763,-0.03235,-0.1004,-0.00717,-0.00778,-0.05127,-0.06119,-0.01053,-0.03098,-0.02151,-0.05142,-0.01434,-0.0293,-0.01587,0.00702,-0.03952
8.061,-0.00015,-0.03433,-0.1239,-0.00504,-0.01114,-0.06851,-0.0679,-0.01022,-0.02029,-0.02243,-0.047,-0.01419,-0.02884,-0.01617,0.00763,-0.03998
8.0615,0.00504,-0.03815,-0.12939,-0.00183,-0.01541,-0.07797,-0.07935,-0.00931,-0.01312,-0.02243,-0.0412,-0.01297,-0.02869,-0.01495,0.00671,-0.04044
8.062,0.00427,-0.04318,-0.11368,0.00595,-0.0235,-0.06882,-0.09354,-0.00809,-0.01083,-0.02274,-0.03723,-0.01068,-0.02838,-0.0145,0.00565,-0.03967
8.0625,0.00214,-0.0444,-0.09171,0.01678,-0.0351,-0.04669,-0.10757,-0.00778,-0.0116,-0.02335,-0.03418,-0.00763,-0.03036,-0.01358,0.00534,-0.03876
8.063,0.00275,-0.03662,-0.08591,0.01892,-0.04242,-0.02243,-0.11841,-0.00854,-0.01282,-0.02289,-0.03311,-0.00397,-0.03159,-0.0119,0.00641,-0.03662
8.0635,0.00565,-0.01968,-0.1123,-0.01129,-0.04456,-0.00305,-0.12314,-0.00885,-0.01297,-0.02106,-0.03387,-0.00061,-0.03174,-0.00992,0.00595,-0.0351
8.064,0.00687,-0.00168,-0.16525,-0.09476,-0.04272,0.01328,-0.12207,-0.0087,-0.0119,-0.01892,-0.03235,0.0,-0.03143,-0.00778,0.00504,-0.03418
8.0645,0.00656,0.00687,-0.21454,-0.21271,-0.03967,0.0209,-0.10376,-0.00854,-0.01083,-0.01587,-0.03113,-0.00107,-0.03189,-0.00793,0.00549,-0.03372
8.065,0.00595,0.00259,-0.22537,-0.30197,-0.03784,0.01144,-0.0589,-0.00824,-0.01022,-0.01465,-0.03052,-0.00183,-0.03204,-0.00885,0.00626,-0.03448
8.0655,0.00641,-0.01114,-0.19379,-0.32028,-0.03632,-0.02365,-0.01007,-0.0087,-0.00931,-0.02243,-0.02945,-0.00275,-0.03433,-0.00992,0.0061,-0.0354
8.066,0.00839,-0.02884,-0.15121,-0.29388,-0.03616,-0.07263,0.00107,-0.00885,-0.00824,-0.04166,-0.02701,-0.00458,-0.03571,-0.01038,0.0061,-0.0354
8.0665,0.01205,-0.04822,-0.12527,-0.26535,-0.03403,-0.10895,-0.03113,-0.00977,-0.00778,-0.056,-0.0235,-0.00748,-0.03479,-0.01022,0.00641,-0.03723
8.067,0.01282,-0.07477,-0.11169,-0.21484,-0.03143,-0.11093,-0.06821,-0.01083,-0.00793,-0.04517,-0.02121,-0.01053,-0.03433,-0.01007,0.00732,-0.03967
8.0675,0.00824,-0.11002,-0.09094,-0.08636,-0.02869,-0.08606,-0.08087,-0.01038,-0.00931,-0.0148,-0.02167,-0.01221,-0.03433,-0.00977,0.00717,-0.04028
8.068,-0.00168,-0.13672,-0.06287,0.13229,-0.0264,-0.05615,-0.07385,-0.00885,-0.01083,0.01022,-0.02029,-0.0145,-0.0351,-0.00931,0.00732,-0.03891
8.0685,-0.01266,-0.13489,-0.0386,0.37643,-0.0264,-0.03769,-0.06592,-0.00626,-0.01038,0.01633,-0.01572,-0.01923,-0.03571,-0.01007,0.00671,-0.03723
8.069,-0.02228,-0.11139,-0.02487,0.54642,-0.02625,-0.03052,-0.06271,-0.00443,-0.01022,0.01221,-0.01495,-0.02457,-0.03555,-0.01022,0.00626,-0.03815
8.0695,-0.02899,-0.08957,-0.01953,0.54932,-0.02853,-0.02914,-0.05936,-0.00381,-0.01038,0.00824,-0.01724,-0.02594,-0.03632,-0.01083,0.00656,-0.03937
8.07,-0.0322,-0.08087,-0.02136,0.35919,-0.02991,-0.03296,-0.05478,-0.00397,-0.00992,0.00458,-0.0174,-0.02411,-0.03601,-0.00992,0.00702,-0.0383
8.0705,-0.03326,-0.07828,-0.02975,0.08163,-0.02991,-0.04044,-0.05203,-0.0058,-0.00885,-0.00305,-0.01602,-0.02136,-0.03754,-0.01038,0.00641,-0.03769
8.071,-0.03128,-0.07248,-0.04181,-0.1152,-0.03036,-0.04761,-0.05386,-0.00778,-0.00824,-0.01373,-0.01602,-0.0209,-0.03693,-0.01068,0.00671,-0.04044
8.0715,-0.02838,-0.0647,-0.05066,-0.15854,-0.03082,-0.05219,-0.05615,-0.009,-0.0087,-0.01877,-0.01801,-0.02274,-0.03662,-0.00931,0.00641,-0.0444
8.072,-0.02594,-0.05692,-0.05188,-0.10666,-0.02945,-0.05478,-0.05646,-0.00961,-0.00992,-0.02136,-0.01831,-0.02335,-0.03738,-0.00763,0.00671,-0.04639
8.0725,-0.02487,-0.05264,-0.04974,-0.04761,-0.02411,-0.05936,-0.05249,-0.00931,-0.01022,-0.02304,-0.01938,-0.01694,-0.03586,-0.00626,0.00687,-0.04608
8.073,-0.02518,-0.05646,-0.05219,-0.01907,-0.02106,-0.065,-0.04715,-0.00931,-0.00961,-0.02518,-0.01968,-0.00351,-0.03601,-0.00778,0.00732,-0.04486
8.0735,-0.02716,-0.06699,-0.06516,-0.02151,-0.02609,-0.07019,-0.0444,-0.01053,-0.009,-0.02838,-0.01877,0.00778,-0.03418,-0.01068,0.00671,-0.04333
8.074,-0.02808,-0.07202,-0.08331,-0.05112,-0.03952,-0.07278,-0.04974,-0.01373,-0.01022,-0.03036,-0.01984,0.00977,-0.03464,-0.01358,0.0058,-0.0412
8.0745,-0.02609,-0.05981,-0.09903,-0.09995,-0.05371,-0.07156,-0.0647,-0.01709,-0.01175,-0.03326,-0.02396,0.00458,-0.03647,-0.01511,0.00519,-0.03952
8.075,-0.01511,-0.03754,-0.10803,-0.14481,-0.05966,-0.0679,-0.08575,-0.01938,-0.01251,-0.03403,-0.03372,-0.00168,-0.03754,-0.01495,0.0058,-0.03799
8.0755,0.00046,-0.02136,-0.11078,-0.1564,-0.05508,-0.06302,-0.10284,-0.01877,-0.01129,-0.03571,-0.04166,-0.00534,-0.03677,-0.0148,0.00656,-0.03693
8.076,0.01404,-0.01556,-0.11032,-0.12146,-0.04623,-0.0589,-0.11673,-0.01633,-0.00931,-0.03693,-0.04486,-0.00656,-0.03357,-0.01511,0.00671,-0.03876
8.0765,0.02304,-0.01511,-0.10986,-0.05707,-0.0415,-0.05493,-0.13824,-0.0145,-0.00809,-0.03708,-0.04349,-0.00977,-0.03311,-0.01694,0.00641,-0.0441
8.077,0.03113,-0.01556,-0.11078,-0.00229,-0.04532,-0.05447,-0.16663,-0.01358,-0.00748,-0.03738,-0.03922,-0.01266,-0.03174,-0.01862,0.00534,-0.05005
8.0775,0.03891,-0.01389,-0.1149,0.01312,-0.05051,-0.05737,-0.17105,-0.01312,-0.00687,-0.03693,-0.03586,-0.01404,-0.03189,-0.01862,0.0058,-0.05234
8.078,0.04364,-0.01053,-0.12848,-0.00107,-0.05295,-0.06195,-0.11169,-0.01358,-0.00626,-0.03632,-0.03418,-0.01312,-0.03174,-0.01831,0.0061,-0.05234
8.0785,0.04349,-0.00534,-0.15381,-0.01816,-0.05219,-0.06332,-0.01038,-0.01389,-0.00549,-0.03326,-0.03418,-0.00992,-0.0322,-0.01877,0.00519,-0.05234
8.079,0.03983,-0.00443,-0.1918,-0.03098,-0.04837,-0.06195,0.05463,-0.01282,-0.00473,-0.03281,-0.03311,-0.00412,-0.03235,-0.01907,0.00565,-0.05325
8.0795,0.03952,-0.009,-0.23254,-0.05951,-0.04105,-0.05524,0.04196,-0.01068,-0.00458,-0.03021,-0.0293,0.00153,-0.03098,-0.01877,0.00656,-0.05127
8.08,0.04257,-0.01053,-0.25681,-0.11871,-0.03036,-0.04456,0.0174,-0.00839,-0.0058,-0.02823,-0.02487,0.00412,-0.03128,-0.0177,0.00824,-0.0473
8.0805,0.04471,-0.00198,-0.24841,-0.20279,-0.02457,-0.03693,0.05081,-0.00473,-0.00626,-0.02502,-0.02167,0.00153,-0.03265,-0.01801,0.00885,-0.04349
8.081,0.04013,0.00946,-0.21774,-0.29022,-0.02625,-0.03586,0.0946,-0.00137,-0.00565,-0.02182,-0.02213,-0.00366,-0.03311,-0.01968,0.00778,-0.04272
8.0815,0.03021,0.00702,-0.19135,-0.36011,-0.03235,-0.04196,0.06195,-0.00015,-0.00473,-0.0209,-0.0209,-0.00626,-0.03265,-0.02121,0.00793,-0.04318
8.082,0.01724,-0.0206,-0.16571,-0.40329,-0.03632,-0.04761,-0.02975,-0.00031,-0.00488,-0.02182,-0.02029,-0.00443,-0.03265,-0.0209,0.00778,-0.04181
8.0825,0.00381,-0.05905,-0.11444,-0.41672,-0.03677,-0.04761,-0.08591,-0.00107,-0.00656,-0.02213,-0.01923,-0.0029,-0.0325,-0.02045,0.00702,-0.04105
8.083,-0.00931,-0.07904,-0.02808,-0.37918,-0.0354,-0.04074,-0.07492,-0.00031,-0.00778,-0.02228,-0.01892,-0.0029,-0.03372,-0.02075,0.00565,-0.04089
8.0835,-0.01999,-0.07004,0.06317,-0.24948,-0.03479,-0.02945,-0.04593,0.00092,-0.00824,-0.02228,-0.01862,-0.00427,-0.03464,-0.02243,0.00534,-0.04303
8.084,-0.02686,-0.04837,0.13016,-0.02106,-0.03143,-0.01709,-0.01892,0.00305,-0.00839,-0.0238,-0.02014,-0.00412,-0.03387,-0.0235,0.00565,-0.04501
8.0845,-0.03113,-0.03632,0.1651,0.22461,-0.02548,-0.00687,0.04578,0.00549,-0.00763,-0.02274,-0.02228,-0.00473,-0.03326,-0.02304,0.00595,-0.04486
8.085,-0.03448,-0.03876,0.17853,0.37903,-0.01602,-0.00015,0.14267,0.00626,-0.00748,-0.02167,-0.02274,-0.00504,-0.03326,-0.02213,0.00565,-0.04471
8.0855,-0.03876,-0.05402,0.18127,0.43045,-0.00671,0.00443,0.17426,0.00534,-0.00946,-0.02197,-0.02167,-0.00488,-0.03204,-0.02182,0.00534,-0.04486
8.086,-0.04593,-0.08316,0.17471,0.47165,-0.00153,0.009,0.08179,0.00305,-0.01083,-0.02457,-0.02014,-0.00488,-0.03296,-0.02258,0.00626,-0.04501
8.0865,-0.05219,-0.1123,0.1622,0.56091,-0.00076,0.00748,-0.04105,0.00168,-0.00977,-0.02548,-0.02014,-0.00458,-0.03311,-0.02197,0.00763,-0.04395
8.087,-0.05478,-0.11108,0.14435,0.62546,-0.00214,-0.00229,-0.07004,0.00275,-0.00763,-0.02365,-0.01923,-0.00458,-0.03357,-0.02029,0.00824,-0.04303
8.0875,-0.05814,-0.07523,0.12329,0.55954,-0.00366,-0.01785,-0.00534,0.00488,-0.00504,-0.02136,-0.01892,-0.00549,-0.03235,-0.01923,0.00778,-0.04211
8.088,-0.06378,-0.03189,0.09796,0.38239,-0.00626,-0.0351,0.056,0.00595,-0.00397,-0.02029,-0.02029,-0.00626,-0.03204,-0.01923,0.00732,-0.04044
8.0885,-0.07202,-0.01053,0.06744,0.22049,-0.01038,-0.05066,0.05951,0.00458,-0.00305,-0.02045,-0.02151,-0.00839,-0.03235,-0.01877,0.00717,-0.03891
8.089,-0.0769,-0.00732,0.02716,0.14328,-0.01602,-0.05951,0.02548,0.00244,-0.00229,-0.01938,-0.01999,-0.00885,-0.03311,-0.01862,0.00702,-0.03876
8.0895,-0.07477,-0.00809,-0.01785,0.11047,-0.02274,-0.06134,-0.00168,0.00137,-0.0029,-0.01953,-0.02121,-0.00854,-0.03281,-0.01907,0.00809,-0.03937
8.09,-0.06897,-0.00732,-0.05112,0.06805,-0.03357,-0.06119,-0.00687,0.00183,-0.00305,-0.01968,-0.02533,-0.00793,-0.03235,-0.01877,0.00839,-0.04105
8.0905,-0.06439,-0.00931,-0.06546,0.01312,-0.04959,-0.06592,-0.00275,0.00275,-0.0029,-0.01862,-0.02686,-0.00839,-0.03281,-0.01755,0.00839,-0.04166
8.091,-0.06226,-0.01266,-0.08102,-0.03906,-0.07202,-0.0795,-0.00229,0.00381,-0.00229,-0.01602,-0.02731,-0.00885,-0.03311,-0.01419,0.00793,-0.03967
8.0915,-0.05829,-0.01129,-0.11948,-0.08682,-0.08835,-0.09918,-0.0145,0.00305,-0.00168,-0.01434,-0.02319,-0.00839,-0.03189,-0.01053,0.00885,-0.03784
8.092,-0.05295,-0.00641,-0.17044,-0.12833,-0.08972,-0.11108,-0.0441,-0.00046,-0.00198,-0.01129,-0.02167,-0.00656,-0.03006,-0.00839,0.00885,-0.03937
8.0925,-0.04395,-0.00198,-0.18753,-0.15762,-0.07446,-0.10818,-0.09598,-0.00549,-0.00381,-0.01022,-0.02258,-0.00488,-0.0296,-0.00839,0.0087,-0.04532
8.093,-0.02991,-0.00153,-0.14328,-0.17334,-0.05585,-0.09674,-0.16663,-0.01053,-0.00397,-0.00885,-0.0209,-0.00351,-0.02945,-0.01007,0.00763,-0.05402
8.0935,-0.01083,-0.00519,-0.06134,-0.18021,-0.04517,-0.08408,-0.24445,-0.01404,-0.00427,-0.00839,-0.01831,-0.00336,-0.02991,-0.01282,0.00687,-0.06119
8.094,0.00656,-0.01129,0.00473,-0.186,-0.0412,-0.06989,-0.29587,-0.0177,-0.00488,-0.009,-0.01755,-0.00473,-0.02975,-0.01434,0.00748,-0.06287
8.0945,0.01816,-0.01816,0.02258,-0.18799,-0.04089,-0.05081,-0.28076,-0.02014,-0.00656,-0.00793,-0.01648,-0.00687,-0.02975,-0.01678,0.00854,-0.05859
8.095,0.02563,-0.03342,0.00763,-0.16052,-0.03967,-0.03021,-0.19058,-0.02029,-0.00824,-0.00504,-0.01617,-0.00717,-0.03036,-0.01984,0.00916,-0.05478
8.0955,0.03128,-0.05875,0.00458,-0.07751,-0.0383,-0.02335,-0.05112,-0.01648,-0.00916,-0.00397,-0.01587,-0.00763,-0.03265,-0.02411,0.00809,-0.05814
8.096,0.03708,-0.08621,0.03571,0.03296,-0.03632,-0.03723,0.07843,-0.00961,-0.00916,-0.00473,-0.01648,-0.00748,-0.03418,-0.0267,0.00748,-0.06592
8.0965,0.03952,-0.1062,0.07965,0.09933,-0.03174,-0.0592,0.13428,-0.0029,-0.00854,-0.00656,-0.01846,-0.00656,-0.0354,-0.02838,0.00763,-0.0705
8.097,0.03662,-0.1149,0.10223,0.08636,-0.02777,-0.06424,0.08163,-0.00076,-0.00748,-0.00732,-0.01968,-0.00534,-0.03525,-0.02747,0.00778,-0.06531
8.0975,0.02945,-0.112,0.09033,0.03479,-0.02625,-0.047,-0.04822,-0.0032,-0.00732,-0.00458,-0.01984,-0.00366,-0.03448,-0.02838,0.00854,-0.0563
8.098,0.02182,-0.09781,0.05753,-0.00473,-0.0264,-0.02594,-0.16205,-0.00626,-0.00824,-0.00259,-0.01678,-0.0032,-0.0354,-0.02945,0.00839,-0.04791
8.0985,0.01923,-0.08286,0.02472,-0.03922,-0.02975,-0.01648,-0.16403,-0.00549,-0.009,-0.00305,-0.01511,-0.00275,-0.03586,-0.02914,0.00824,-0.04349
8.099,0.02258,-0.0708,0.00427,-0.12482,-0.03311,-0.01846,-0.06149,-0.00183,-0.0087,-0.00565,-0.01434,-0.00046,-0.03616,-0.02747,0.00809,-0.04196
8.0995,0.0296,-0.05615,-0.00397,-0.29785,-0.03464,-0.02075,0.04501,-0.00046,-0.00839,-0.009,-0.01373,0.00107,-0.03571,-0.02762,0.00854,-0.04181
8.1,0.03723,-0.02869,-0.00458,-0.51666,-0.0351,-0.02151,0.06943,0.00015,-0.00946,-0.01236,-0.01328,0.00198,-0.03525,-0.0293,0.00946,-0.04135
8.1005,0.04135,0.00473,-0.00153,-0.67566,-0.03708,-0.02365,0.00275,0.00168,-0.0119,-0.01724,-0.01419,0.00061,-0.03555,-0.03006,0.01068,-0.04257
8.101,0.04501,0.02792,0.00122,-0.69794,-0.03693,-0.02533,-0.07126,0.00748,-0.01389,-0.01999,-0.01495,-0.00198,-0.03494,-0.02991,0.01083,-0.04395
8.1015,0.04745,0.03143,-0.00031,-0.5809,-0.03616,-0.02411,-0.05524,0.01419,-0.0145,-0.02106,-0.01434,-0.00488,-0.03372,-0.02808,0.01053,-0.04395
8.102,0.04761,0.0209,-0.00305,-0.34363,-0.03204,-0.02365,0.05524,0.01785,-0.0145,-0.02167,-0.01053,-0.00534,-0.03357,-0.0267,0.00992,-0.04013
8.1025,0.04425,0.00748,-0.00366,0.00305,-0.02899,-0.02731,0.16693,0.01556,-0.01511,-0.02365,-0.00854,-0.00351,-0.0325,-0.02579,0.01007,-0.03632
8.103,0.03952,-0.00336,0.00244,0.4007,-0.02716,-0.0354,0.23468,0.01129,-0.01572,-0.02594,-0.00641,-0.0029,-0.03296,-0.02411,0.01114,-0.03693
8.1035,0.0354,-0.01282,0.01297,0.73502,-0.02777,-0.04272,0.29739,0.00687,-0.01663,-0.02747,-0.00534,-0.00336,-0.03372,-0.02319,0.01083,-0.04135
8.104,0.03098,-0.01968,0.02045,0.89386,-0.02853,-0.04684,0.35507,0.00275,-0.01663,-0.02838,-0.00229,-0.00397,-0.03525,-0.02228,0.00961,-0.04639
8.1045,0.02655,-0.0264,0.02213,0.82275,-0.02975,-0.04776,0.33066,0.00015,-0.01648,-0.02914,0.00229,-0.00351,-0.03601,-0.02213,0.00885,-0.04913
8.105,0.02197,-0.03693,0.01434,0.55634,-0.02884,-0.04883,0.20004,0.00061,-0.01633,-0.0325,0.00641,-0.00427,-0.03601,-0.02197,0.00961,-0.05188
8.1055,0.01862,-0.04807,-0.00732,0.22339,-0.02686,-0.05096,0.05127,0.00214,-0.01724,-0.03433,0.00824,-0.00412,-0.03555,-0.02319,0.00931,-0.05188
8.106,0.01465,-0.05524,-0.05539,-0.03204,-0.02518,-0.05219,-0.02823,0.00397,-0.01831,-0.03342,0.00656,0.0,-0.0354,-0.02426,0.00992,-0.04395
8.1065,0.00961,-0.05875,-0.12772,-0.14572,-0.02426,-0.05142,-0.06012,0.00519,-0.01846,-0.03082,0.00458,0.00534,-0.03418,-0.02548,0.01022,-0.03311
8.107,0.00458,-0.06149,-0.19455,-0.12344,-0.02625,-0.05081,-0.08972,0.00641,-0.01648,-0.02975,0.00443,0.00793,-0.03265,-0.02502,0.01053,-0.02899
8.1075,0.00137,-0.06393,-0.21179,-0.00427,-0.02838,-0.0531,-0.1033,0.00809,-0.01495,-0.03006,0.00427,0.00244,-0.03036,-0.02411,0.01099,-0.0322
8.108,0.00061,-0.06119,-0.15945,0.11765,-0.0293,-0.05569,-0.06699,0.00732,-0.01465,-0.03128,0.00153,-0.00565,-0.03082,-0.0238,0.00977,-0.03479
8.1085,0.00153,-0.05127,-0.06058,0.13123,-0.02884,-0.05753,0.01465,0.00595,-0.01617,-0.03082,-0.00198,-0.01114,-0.03174,-0.02258,0.00961,-0.03525
8.109,0.00305,-0.04059,0.04227,0.01785,-0.02853,-0.05692,0.09842,0.00702,-0.01617,-0.02838,-0.00473,-0.01144,-0.0322,-0.02136,0.00977,-0.03571
8.1095,0.00275,-0.03723,0.12344,-0.13458,-0.03021,-0.05585,0.14954,0.00839,-0.01404,-0.0267,-0.00702,-0.00931,-0.03113,-0.01999,0.01114,-0.0351
8.11,-0.00153,-0.04074,0.17487,-0.23621,-0.0325,-0.05676,0.16052,0.00839,-0.01114,-0.0267,-0.00839,-0.0058,-0.02945,-0.01907,0.01129,-0.03159
8.1105,-0.009,-0.04486,0.1973,-0.26993,-0.03403,-0.05753,0.14114,0.00626,-0.01083,-0.02716,-0.00763,-0.00229,-0.02853,-0.01801,0.01114,-0.02487
8.111,-0.01556,-0.04517,0.1947,-0.27039,-0.03525,-0.05936,0.09476,0.00336,-0.0116,-0.0264,-0.00565,0.00092,-0.02838,-0.01633,0.01144,-0.02045
8.1115,-0.01953,-0.04501,0.16937,-0.27802,-0.03525,-0.0589,0.03494,0.00092,-0.01236,-0.0235,-0.00153,0.00488,-0.03021,-0.01495,0.01144,-0.02365
8.112,-0.02258,-0.04349,0.12924,-0.29053,-0.03555,-0.05966,-0.01495,-0.00214,-0.0116,-0.02258,-0.00092,0.00595,-0.03082,-0.01312,0.01114,-0.03464
8.1125,-0.0264,-0.03784,0.08408,-0.27832,-0.03586,-0.06104,-0.03601,-0.00641,-0.01022,-0.02289,0.00031,0.0032,-0.03113,-0.01282,0.01007,-0.04486
8.113,-0.0293,-0.03113,0.04471,-0.22995,-0.03632,-0.06409,-0.03784,-0.00992,-0.01022,-0.02319,-0.00137,-0.00137,-0.03021,-0.01266,0.01053,-0.04822
8.1135,-0.03021,-0.03387,0.01236,-0.17715,-0.03677,-0.0647,-0.03952,-0.01068,-0.01099,-0.02228,0.0,-0.00198,-0.02991,-0.01419,0.01144,-0.04196
8.114,-0.02991,-0.0502,-0.01312,-0.15121,-0.03769,-0.06302,-0.04959,-0.01007,-0.01221,-0.02151,0.00061,0.00229,-0.03006,-0.0145,0.0116,-0.03128
8.1145,-0.03174,-0.07523,-0.03357,-0.14801,-0.03952,-0.06042,-0.05936,-0.01053,-0.01205,-0.02274,0.00137,0.0061,-0.02991,-0.01358,0.01099,-0.02182
8.115,-0.03799,-0.10803,-0.05066,-0.14801,-0.03983,-0.06119,-0.06531,-0.01175,-0.0116,-0.02289,0.00366,0.00534,-0.0296,-0.01144,0.01068,-0.01617
8.1155,-0.04517,-0.14008,-0.06516,-0.1413,-0.03708,-0.06348,-0.06653,-0.01175,-0.01114,-0.02121,0.00504,0.0,-0.02975,-0.00916,0.01175,-0.01312
8.116,-0.04868,-0.14603,-0.0766,-0.12848,-0.03265,-0.06363,-0.06927,-0.01129,-0.01007,-0.02121,0.00168,-0.00443,-0.0296,-0.00946,0.01053,-0.01144
8.1165,-0.04486,-0.11353,-0.08545,-0.10559,-0.03067,-0.06012,-0.07141,-0.0087,-0.01038,-0.02136,-0.00153,-0.00275,-0.03021,-0.0116,0.00931,-0.01816
8.117,-0.03815,-0.06393,-0.09155,-0.07263,-0.02975,-0.05417,-0.07263,-0.00488,-0.01205,-0.02167,-0.00214,0.00275,-0.02914,-0.01266,0.00931,-0.03708
8.1175,-0.03372,-0.02884,-0.09598,-0.03876,-0.02975,-0.04822,-0.07141,-0.00259,-0.01312,-0.02182,0.00061,0.00748,-0.02914,-0.01266,0.00931,-0.06638
8.118,-0.0322,-0.01587,-0.1004,-0.01495,-0.03006,-0.04242,-0.06989,-0.00229,-0.01358,-0.02289,0.0,0.01007,-0.02991,-0.01068,0.00946,-0.08835
8.1185,-0.02701,-0.009,-0.10544,-0.00183,-0.03204,-0.04074,-0.06866,-0.00305,-0.01465,-0.02396,0.00015,0.01236,-0.03036,-0.00885,0.00977,-0.08072
8.119,-0.01373,0.00519,-0.10849,0.00687,-0.03433,-0.03998,-0.06805,-0.00229,-0.01648,-0.02289,-0.00244,0.01633,-0.03067,-0.00763,0.00977,-0.04395
8.1195,0.00381,0.02716,-0.10391,0.00961,-0.03387,-0.04089,-0.06699,-0.00137,-0.01862,-0.01862,-0.00046,0.01953,-0.02914,-0.00519,0.01099,-0.01144
8.12,0.01785,0.04745,-0.09171,-0.00046,-0.03357,-0.04242,-0.06607,-0.00122,-0.01877,-0.0145,0.00336,0.01633,-0.02533,-0.00015,0.0116,-0.01205
8.1205,0.02457,0.05615,-0.08392,-0.01755,-0.03448,-0.0444,-0.06622,-0.00305,-0.01877,-0.01251,0.00549,0.0061,-0.02319,0.00443,0.01221,-0.03708
8.121,0.02426,0.05035,-0.09705,-0.02808,-0.03418,-0.04837,-0.06516,-0.00443,-0.01923,-0.01236,0.00519,-0.00824,-0.02167,0.0058,0.01251,-0.06012
8.1215,0.02197,0.03357,-0.14435,-0.02457,-0.03235,-0.05341,-0.06348,-0.00473,-0.01953,-0.0119,0.00305,-0.01389,-0.02029,0.00504,0.01175,-0.06866
8.122,0.0174,0.01328,-0.21362,-0.01526,-0.02991,-0.05844,-0.06134,-0.00443,-0.02075,-0.01022,0.00168,-0.00671,-0.01709,0.00397,0.01205,-0.07202
8.1225,0.00977,-0.00626,-0.25909,-0.00931,-0.02899,-0.06271,-0.05814,-0.00412,-0.02228,-0.00748,-0.00015,0.00778,-0.01846,0.00198,0.01099,-0.07813
8.123,0.00244,-0.02029,-0.24094,-0.00687,-0.03143,-0.06287,-0.05585,-0.0061,-0.02411,-0.00641,-0.00168,0.01709,-0.02808,-0.00092,0.00961,-0.08469
8.1235,-0.00198,-0.02655,-0.16281,-0.00305,-0.03265,-0.06073,-0.05157,-0.00717,-0.02472,-0.00595,-0.00275,0.01694,-0.04013,-0.00778,0.00916,-0.08575
8.124,-0.00229,-0.02716,-0.06256,0.00656,-0.03235,-0.05829,-0.04974,-0.00824,-0.0235,-0.00626,-0.00595,0.0119,-0.047,-0.01556,0.00854,-0.08163
8.1245,-0.00214,-0.02579,0.02899,0.01816,-0.03296,-0.05814,-0.04959,-0.00839,-0.02289,-0.00671,-0.00656,0.00946,-0.04745,-0.02045,0.00946,-0.07294
8.125,-0.00427,-0.02472,0.09491,0.0238,-0.03464,-0.05875,-0.05173,-0.00641,-0.02243,-0.00885,-0.00534,0.01175,-0.04501,-0.02228,0.01022,-0.06531
8.1255,-0.00809,-0.02625,0.12466,0.01877,-0.03693,-0.05936,-0.05386,-0.00229,-0.02213,-0.009,-0.00336,0.0148,-0.04196,-0.02151,0.01007,-0.06348
8.126,-0.0116,-0.03052,0.11246,0.00092,-0.03937,-0.05951,-0.05737,0.00183,-0.02274,-0.00824,-0.00168,0.01617,-0.04105,-0.02228,0.00977,-0.06424
8.1265,-0.01236,-0.03601,0.06546,-0.02625,-0.04196,-0.05997,-0.06821,0.00427,-0.02335,-0.00641,-0.00046,0.01434,-0.04028,-0.02579,0.00916,-0.065
8.127,-0.01205,-0.0415,0.00183,-0.05356,-0.04288,-0.05737,-0.0824,0.00336,-0.02289,-0.0061,0.00092,0.00885,-0.04196,-0.03021,0.00839,-0.06439
8.1275,-0.00946,-0.04654,-0.06027,-0.0705,-0.04166,-0.05386,-0.0914,-0.00153,-0.02075,-0.00641,0.00504,0.00259,-0.04501,-0.03143,0.00809,-0.06149
8.128,-0.00595,-0.05173,-0.1001,-0.07843,-0.0383,-0.04761,-0.0827,-0.00641,-0.01923,-0.00641,0.00534,0.0,-0.05219,-0.02808,0.00763,-0.05783
8.1285,-0.00198,-0.05768,-0.10834,-0.08591,-0.03677,-0.03998,-0.06561,-0.00549,-0.01877,-0.00504,0.00351,0.00107,-0.05493,-0.02213,0.00824,-0.05234
8.129,-0.00198,-0.06287,-0.09399,-0.09796,-0.0383,-0.03586,-0.06317,0.00031,-0.01862,-0.00549,0.00046,0.00504,-0.05295,-0.01938,0.009,-0.04608
8.1295,-0.00626,-0.06348,-0.07675,-0.112,-0.04044,-0.03845,-0.08316,0.00565,-0.01892,-0.00473,-0.00031,0.00839,-0.04807,-0.01938,0.00931,-0.0412
8.13,-0.00977,-0.06073,-0.06882,-0.12527,-0.04013,-0.04181,-0.09003,0.0058,-0.01907,-0.00534,0.00122,0.00916,-0.04105,-0.0235,0.00854,-0.03967
8.1305,-0.01068,-0.05768,-0.0592,-0.13138,-0.03998,-0.03937,-0.05524,0.00305,-0.01892,-0.0061,-0.00015,0.00778,-0.0322,-0.02869,0.00793,-0.04135
8.131,-0.00854,-0.05692,-0.0386,-0.09521,-0.03952,-0.02731,-0.00229,-0.00031,-0.01953,-0.0058,-0.00137,0.00702,-0.02182,-0.03235,0.00809,-0.04135
8.1315,-0.00626,-0.05737,-0.01862,0.01892,-0.03799,-0.01617,0.01144,-0.00229,-0.0209,-0.00504,-0.00336,0.00595,-0.01266,-0.03387,0.0087,-0.03693
8.132,-0.00549,-0.05768,-0.02014,0.17532,-0.03525,-0.01785,-0.02594,-0.00595,-0.02197,-0.00443,-0.00641,0.00336,-0.01068,-0.03494,0.00931,-0.02594
8.1325,-0.00275,-0.05707,-0.04135,0.2681,-0.03296,-0.02884,-0.06393,-0.00977,-0.02106,-0.00427,-0.0087,-0.00153,-0.01328,-0.0354,0.00916,-0.01831
8.133,0.00336,-0.05676,-0.05676,0.22751,-0.03159,-0.03952,-0.0737,-0.0116,-0.02014,-0.00534,-0.01022,-0.00488,-0.01755,-0.03754,0.00793,-0.02502
8.1335,0.0116,-0.05569,-0.05142,0.08743,-0.03082,-0.04349,-0.07477,-0.0119,-0.01953,-0.00595,-0.01328,-0.00473,-0.01923,-0.04105,0.00793,-0.04089
8.134,0.01846,-0.05234,-0.03693,-0.06226,-0.03159,-0.047,-0.09384,-0.01099,-0.02045,-0.00656,-0.01678,-0.00305,-0.01755,-0.04425,0.00854,-0.04395
8.1345,0.02243,-0.04807,-0.02747,-0.16006,-0.03326,-0.05402,-0.11688,-0.00885,-0.02136,-0.00793,-0.01755,-0.00122,-0.01556,-0.04349,0.00809,-0.02441
8.135,0.02304,-0.04654,-0.02411,-0.20294,-0.03525,-0.05997,-0.13062,-0.00534,-0.02151,-0.00809,-0.01663,0.00107,-0.01343,-0.03952,0.00824,-0.00565
8.1355,0.02029,-0.04959,-0.01907,-0.22018,-0.03647,-0.05997,-0.13077,0.0,-0.01999,-0.00854,-0.01358,0.00397,-0.01312,-0.0351,0.00778,-0.00946
8.136,0.01404,-0.05661,-0.01663,-0.22247,-0.03708,-0.05569,-0.1062,0.00351,-0.01953,-0.00916,-0.01328,0.0058,-0.01663,-0.0322,0.00671,-0.02548
8.1365,0.00473,-0.06134,-0.02609,-0.18204,-0.03693,-0.05402,-0.04517,0.00626,-0.01907,-0.01053,-0.01495,0.00397,-0.02304,-0.03174,0.00656,-0.03571
8.137,-0.00504,-0.06058,-0.05096,-0.07309,-0.03616,-0.05219,0.03799,0.00732,-0.01999,-0.01297,-0.01526,0.00153,-0.02853,-0.03265,0.00671,-0.03403
8.1375,-0.01236,-0.05692,-0.07599,0.08575,-0.03632,-0.04837,0.1001,0.00946,-0.02075,-0.01389,-0.0148,0.00092,-0.03082,-0.03571,0.00702,-0.0322
8.138,-0.01434,-0.05417,-0.09048,0.23636,-0.03708,-0.04257,0.09705,0.01114,-0.02167,-0.01663,-0.01205,0.00092,-0.03128,-0.03876,0.00748,-0.0325
8.1385,-0.01114,-0.05173,-0.09567,0.3476,-0.03738,-0.03708,0.04379,0.00931,-0.0209,-0.01648,-0.01038,-0.00336,-0.02869,-0.04028,0.00641,-0.03372
8.139,-0.00626,-0.04593,-0.09186,0.43671,-0.03601,-0.0351,0.03448,0.0058,-0.02075,-0.01663,-0.01068,-0.01099,-0.02441,-0.04059,0.00549,-0.03494
8.1395,-0.00381,-0.03845,-0.07446,0.4982,-0.03403,-0.03357,0.13367,0.00427,-0.0209,-0.01694,-0.01236,-0.01801,-0.02045,-0.03967,0.00534,-0.03571
8.14,-0.00565,-0.03082,-0.04456,0.4715,-0.0322,-0.03433,0.26505,0.00534,-0.02167,-0.01556,-0.01343,-0.02014,-0.02502,-0.03922,0.00687,-0.03815
8.1405,-0.0087,-0.02625,-0.01297,0.33127,-0.03067,-0.03525,0.28091,0.00427,-0.02151,-0.01633,-0.01511,-0.01831,-0.03845,-0.03891,0.00763,-0.03983
8.141,-0.01038,-0.02258,0.01038,0.16693,-0.03098,-0.0354,0.15198,-0.00092,-0.02075,-0.01862,-0.01465,-0.01556,-0.05203,-0.03967,0.00671,-0.0412
8.1415,-0.009,-0.01617,0.02563,0.08255,-0.0325,-0.03311,0.01129,-0.00916,-0.01953,-0.02014,-0.01266,-0.01129,-0.05737,-0.03723,0.00641,-0.0415
8.142,-0.00732,-0.01434,0.03708,0.07507,-0.0322,-0.02808,-0.02884,-0.01572,-0.01678,-0.01923,-0.01053,-0.00809,-0.05264,-0.02975,0.00626,-0.03998
8.1425,-0.00748,-0.02243,0.04578,0.07294,-0.03159,-0.02075,-0.00015,-0.01709,-0.01373,-0.01923,-0.00961,-0.00443,-0.04196,-0.01984,0.00595,-0.03571
8.143,-0.00854,-0.04089,0.04791,0.0531,-0.03342,-0.0148,0.01434,-0.0145,-0.0119,-0.02045,-0.01114,-0.00031,-0.03296,-0.00916,0.00519,-0.03128
8.1435,-0.00885,-0.05707,0.04059,0.04059,-0.03632,-0.01312,-0.00214,-0.00992,-0.01221,-0.02319,-0.01328,0.00397,-0.03159,-0.00153,0.00595,-0.03006
8.144,-0.00961,-0.06424,0.02777,0.04547,-0.03754,-0.01465,-0.01465,-0.00641,-0.01282,-0.02335,-0.01373,0.00671,-0.03708,0.00214,0.00549,-0.0322
8.1445,-0.0116,-0.0618,0.01373,0.04959,-0.03708,-0.01999,-0.01129,-0.00626,-0.01312,-0.02151,-0.0116,0.00717,-0.04684,0.00427,0.00595,-0.03464
8.145,-0.01526,-0.05325,0.00198,0.04211,-0.03632,-0.03082,-0.01465,-0.01083,-0.01358,-0.01953,-0.01068,0.00793,-0.05173,0.00397,0.0061,-0.03723
8.1455,-0.02213,-0.04486,-0.0061,0.03128,-0.03571,-0.04333,-0.03189,-0.01816,-0.01465,-0.01984,-0.01114,0.01099,-0.04898,0.00381,0.0061,-0.0383
8.146,-0.03113,-0.03662,-0.01251,0.02289,-0.03204,-0.05707,-0.04349,-0.02487,-0.01465,-0.01999,-0.01129,0.01511,-0.04013,0.00458,0.00641,-0.03922
8.1465,-0.03998,-0.03204,-0.01984,0.01572,-0.02426,-0.06836,-0.03845,-0.02502,-0.01389,-0.02075,-0.0119,0.01801,-0.03067,0.00626,0.00519,-0.04303
8.147,-0.04425,-0.03021,-0.02792,0.0061,-0.01282,-0.07416,-0.02319,-0.0209,-0.01419,-0.02319,-0.01083,0.01999,-0.02502,0.00793,0.00519,-0.04944
8.1475,-0.04471,-0.02991,-0.03555,-0.00534,-0.00076,-0.07736,-0.00565,-0.0145,-0.01495,-0.02625,-0.01083,0.02258,-0.02396,0.00641,0.00565,-0.05417
8.148,-0.0441,-0.02823,-0.04272,-0.01785,0.00977,-0.07828,0.01434,-0.01038,-0.01556,-0.02884,-0.01114,0.02823,-0.02365,0.00244,0.00519,-0.05371
8.1485,-0.03983,-0.02762,-0.04776,-0.03265,0.02151,-0.07553,0.0296,-0.00565,-0.01587,-0.02914,-0.01022,0.03677,-0.02563,-0.00076,0.00671,-0.04974
8.149,-0.03067,-0.02914,-0.05234,-0.05295,0.03281,-0.07538,0.01984,-0.00305,-0.01465,-0.02899,-0.01083,0.04684,-0.03036,-0.00336,0.0058,-0.04517
8.1495,-0.02029,-0.02884,-0.05341,-0.10895,0.04318,-0.07797,-0.01328,0.00015,-0.01434,-0.02914,-0.01038,0.05203,-0.03754,-0.00381,0.0061,-0.04379
8.15,-0.01221,-0.02731,-0.05005,-0.24063,0.05127,-0.08362,-0.03387,0.00229,-0.01526,-0.02777,-0.01053,0.04944,-0.04089,-0.00229,0.00687,-0.04395
8.1505,-0.00687,-0.02838,-0.04227,-0.4274,0.05264,-0.09048,-0.02563,0.0032,-0.0174,-0.02823,-0.00931,0.04364,-0.03723,-0.00076,0.00748,-0.04379
8.151,-0.00229,-0.03448,-0.03479,-0.56381,0.04501,-0.09659,-0.01999,0.00259,-0.01816,-0.03006,-0.009,0.04288,-0.03021,-0.00031,0.00839,-0.04333
8.1515,0.0029,-0.04196,-0.02853,-0.56091,0.02762,-0.10208,-0.05112,0.00015,-0.0177,-0.03357,-0.00961,0.04929,-0.02747,-0.00046,0.00778,-0.0415
8.152,0.00702,-0.0444,-0.02411,-0.42786,0.00031,-0.10132,-0.11093,-0.00397,-0.01709,-0.03693,-0.01129,0.05905,-0.03403,-0.00214,0.00717,-0.04044
8.1525,0.00931,-0.04349,-0.02029,-0.19333,-0.03082,-0.09308,-0.17242,-0.00809,-0.01587,-0.03738,-0.01297,0.06607,-0.04364,-0.00046,0.00702,-0.04059
8.153,0.00931,-0.04196,-0.02289,0.15213,-0.07065,-0.07248,-0.21973,-0.01129,-0.01556,-0.03571,-0.01282,0.06851,-0.05035,0.00443,0.00671,-0.04013
8.1535,0.00519,-0.04303,-0.04028,0.56686,-0.11398,-0.04196,-0.2475,-0.01312,-0.01572,-0.03494,-0.01099,0.065,-0.05447,0.01129,0.00595,-0.04028
8.154,-0.00153,-0.04349,-0.07751,0.89264,-0.14664,-0.01068,-0.24094,-0.01389,-0.01602,-0.03479,-0.00961,0.05539,-0.05798,0.0148,0.0061,-0.04059
8.1545,-0.00351,-0.04242,-0.11902,0.94482,-0.14954,0.01495,-0.19745,-0.01312,-0.01556,-0.03586,-0.00931,0.03525,-0.05661,0.01602,0.00671,-0.04089
8.155,-0.00046,-0.04456,-0.13947,0.69427,-0.12909,0.02899,-0.13962,-0.00992,-0.01526,-0.03769,-0.0087,0.00854,-0.0502,0.01663,0.00687,-0.04074
8.1555,0.00519,-0.05417,-0.13412,0.31906,-0.10681,0.0267,-0.09933,-0.00702,-0.01495,-0.03906,-0.00839,-0.01419,-0.04364,0.01572,0.00717,-0.03983
8.156,0.00748,-0.06516,-0.11673,0.03555,-0.09262,0.00717,-0.05524,-0.0032,-0.01511,-0.0415,-0.01038,-0.03281,-0.04181,0.01083,0.00732,-0.03845
8.1565,0.00626,-0.0737,-0.09338,-0.09399,-0.07721,-0.02167,0.0444,-0.00153,-0.01556,-0.0412,-0.01358,-0.06165,-0.0444,0.0029,0.00763,-0.03601
8.157,0.00137,-0.07828,-0.05432,-0.15381,-0.05951,-0.04379,0.13474,-0.00107,-0.01587,-0.04166,-0.0174,-0.10223,-0.04486,-0.00458,0.0087,-0.03326
8.1575,-0.00717,-0.07797,-0.00366,-0.23621,-0.05493,-0.05112,0.06699,0.00092,-0.01663,-0.04303,-0.01862,-0.13321,-0.04105,-0.00824,0.00916,-0.03174
8.158,-0.01587,-0.07141,0.03555,-0.35294,-0.06531,-0.05005,-0.13397,0.00488,-0.0177,-0.04578,-0.01999,-0.13153,-0.03601,-0.01144,0.00885,-0.0325
8.1585,-0.02121,-0.0621,0.04684,-0.44037,-0.07477,-0.04623,-0.23483,0.00977,-0.01801,-0.04761,-0.02136,-0.10269,-0.03479,-0.01755,0.00732,-0.03403
8.159,-0.02319,-0.05753,0.04028,-0.42831,-0.07187,-0.05005,-0.10391,0.01434,-0.01755,-0.04807,-0.02151,-0.06531,-0.03616,-0.02533,0.00748,-0.03586
8.1595,-0.0235,-0.05936,0.03632,-0.3273,-0.0618,-0.05661,0.14435,0.01938,-0.01572,-0.04654,-0.0209,-0.02319,-0.03494,-0.03311,0.00732,-0.03708
8.16,-0.02396,-0.06012,0.04623,-0.23071,-0.05341,-0.05798,0.32654,0.02304,-0.0148,-0.04517,-0.0209,0.02548,-0.03143,-0.03952,0.00793,-0.0386
8.1605,-0.02441,-0.05432,0.06104,-0.22095,-0.04852,-0.05829,0.37445,0.02167,-0.01465,-0.04608,-0.02243,0.06744,-0.02686,-0.04745,0.00793,-0.04074
8.161,-0.02548,-0.04578,0.06897,-0.26382,-0.04242,-0.05997,0.31235,0.01434,-0.01541,-0.04456,-0.02472,0.08636,-0.02518,-0.05417,0.00793,-0.04242
8.1615,-0.02579,-0.04272,0.06256,-0.26459,-0.03738,-0.06134,0.18524,0.00656,-0.01785,-0.04486,-0.0264,0.0882,-0.02426,-0.05768,0.00809,-0.04318
8.162,-0.02228,-0.04791,0.04059,-0.18997,-0.03479,-0.05936,0.05066,0.00168,-0.01938,-0.04532,-0.02853,0.0798,-0.02289,-0.05692,0.00931,-0.04272
8.1625,-0.01282,-0.05569,0.01221,-0.08957,-0.03525,-0.05814,-0.00076,-0.00061,-0.01831,-0.04593,-0.02914,0.05615,-0.02228,-0.05524,0.00961,-0.04227
8.163,-0.00183,-0.05661,-0.01923,-0.01541,-0.03891,-0.06058,0.07645,-0.00519,-0.01511,-0.04761,-0.03006,0.02579,-0.02136,-0.05508,0.00854,-0.04105
8.1635,0.00397,-0.04944,-0.05798,0.00916,-0.04028,-0.06775,0.1976,-0.01083,-0.01297,-0.04868,-0.03006,0.01526,-0.02075,-0.05478,0.00778,-0.04059
8.164,0.0058,-0.04074,-0.10971,-0.01251,-0.03769,-0.06973,0.23239,-0.01419,-0.01297,-0.04807,-0.02945,0.03708,-0.01923,-0.05356,0.00763,-0.04013
8.1645,0.00534,-0.03494,-0.16739,-0.06073,-0.03296,-0.06104,0.17319,-0.01221,-0.01389,-0.04776,-0.0267,0.06561,-0.01801,-0.05234,0.00717,-0.04181
8.165,0.00702,-0.0293,-0.20935,-0.09903,-0.03067,-0.04135,0.12527,-0.00839,-0.01297,-0.04593,-0.0235,0.06729,-0.01755,-0.05188,0.00732,-0.04379
8.1655,0.01022,-0.02106,-0.21759,-0.10361,-0.03128,-0.02365,0.13474,-0.00626,-0.01129,-0.04623,-0.02151,0.04181,-0.01816,-0.05066,0.00778,-0.04593
8.166,0.01083,-0.01511,-0.18707,-0.08591,-0.0325,-0.02029,0.12985,-0.00748,-0.01068,-0.04822,-0.02136,0.01358,-0.01892,-0.04761,0.00885,-0.047
8.1665,0.01144,-0.02106,-0.12573,-0.0737,-0.0325,-0.03479,0.04898,-0.01129,-0.01099,-0.05005,-0.02457,0.0,-0.01984,-0.04288,0.009,-0.04654
8.167,0.01389,-0.03677,-0.04669,-0.07233,-0.03082,-0.05386,-0.0589,-0.0145,-0.01068,-0.04944,-0.02731,-0.00046,-0.02167,-0.03769,0.00961,-0.04578
8.1675,0.01785,-0.04868,0.03128,-0.0708,-0.03036,-0.05966,-0.09964,-0.01175,-0.00992,-0.04822,-0.02808,0.00244,-0.02182,-0.03235,0.009,-0.04425
8.168,0.0206,-0.05081,0.08759,-0.05951,-0.03128,-0.04929,-0.06439,-0.00473,-0.00961,-0.04745,-0.02533,0.00519,-0.02106,-0.02686,0.00931,-0.04303
8.1685,0.01831,-0.04944,0.09827,-0.04181,-0.03006,-0.04028,-0.02182,0.00198,-0.01038,-0.04471,-0.02151,0.00504,-0.02121,-0.02167,0.00916,-0.04257
8.169,0.01282,-0.05081,0.04593,-0.0209,-0.02808,-0.04425,-0.01236,0.0032,-0.01129,-0.04318,-0.01877,-0.00595,-0.02228,-0.01892,0.00931,-0.04181
8.1695,0.00473,-0.0592,-0.05341,0.00015,-0.02472,-0.05325,-0.01389,0.00015,-0.00992,-0.04044,-0.01846,-0.02441,-0.02167,-0.01831,0.01038,-0.04074
8.17,-0.00443,-0.08286,-0.1416,0.01236,-0.02136,-0.05295,-0.00107,-0.00397,-0.00778,-0.03998,-0.01968,-0.0383,-0.02136,-0.01617,0.01068,-0.04074
8.1705,-0.01389,-0.12939,-0.16159,0.01114,-0.01984,-0.04654,0.01007,-0.00809,-0.00702,-0.0386,-0.01923,-0.04105,-0.02167,-0.01312,0.01129,-0.04089
8.171,-0.02121,-0.17761,-0.10986,0.00549,-0.0174,-0.04379,-0.00549,-0.01099,-0.00793,-0.03418,-0.01831,-0.03601,-0.02197,-0.00946,0.01114,-0.04089
8.1715,-0.02716,-0.1857,-0.03448,0.00717,-0.01694,-0.04944,-0.03204,-0.01022,-0.0087,-0.02899,-0.01816,-0.02792,-0.02228,-0.00809,0.01099,-0.03952
8.172,-0.03265,-0.14359,0.02945,0.01434,-0.01831,-0.05569,-0.03967,-0.00549,-0.00839,-0.01785,-0.0174,-0.01694,-0.02411,-0.00793,0.01068,-0.03891
8.1725,-0.03494,-0.08957,0.07584,0.01938,-0.01801,-0.05722,-0.02869,-0.00076,-0.00793,-0.00229,-0.01846,0.00473,-0.02625,-0.00748,0.01068,-0.0386
8.173,-0.03571,-0.06409,0.1033,0.01785,-0.0174,-0.05295,-0.0238,0.00183,-0.009,0.01114,-0.01923,0.04425,-0.02686,-0.00717,0.01053,-0.03815
8.1735,-0.03372,-0.06516,0.10147,0.01572,-0.01663,-0.05005,-0.03067,0.00305,-0.00916,0.01953,-0.01877,0.09079,-0.02716,-0.00656,0.01083,-0.03693
8.174,-0.02792,-0.06409,0.07706,0.01617,-0.01602,-0.04913,-0.03693,0.00366,-0.00916,0.02106,-0.01694,0.11215,-0.02716,-0.00656,0.01083,-0.03693
8.1745,-0.01877,-0.04974,0.0499,0.01816,-0.01236,-0.04761,-0.03754,0.00305,-0.00961,0.01984,-0.01587,0.09933,-0.02762,-0.00763,0.01068,-0.03922
8.175,-0.00961,-0.02457,0.03067,0.01862,-0.00626,-0.04654,-0.04044,0.00092,-0.01083,0.01724,-0.01541,0.08041,-0.02945,-0.01022,0.01038,-0.04211
8.1755,-0.00336,0.00443,0.00916,0.01907,-0.00092,-0.04807,-0.047,-0.00107,-0.0119,0.01602,-0.01694,0.08057,-0.03067,-0.01282,0.01068,-0.0444
8.176,-0.00061,0.0296,-0.03601,0.01953,0.00031,-0.04868,-0.05051,-0.00168,-0.0119,0.01236,-0.01801,0.08759,-0.03265,-0.01389,0.01099,-0.04456
8.1765,0.00015,0.04211,-0.10788,0.01968,-0.00183,-0.04776,-0.04837,-0.00153,-0.0119,0.01038,-0.01831,0.08133,-0.03448,-0.01312,0.01114,-0.0444
8.177,-0.00031,0.0386,-0.17349,0.01709,-0.00336,-0.0499,-0.04501,-0.00183,-0.01144,0.00748,-0.01709,0.06424,-0.03525,-0.01343,0.00977,-0.0441
8.1775,-0.00397,0.02823,-0.18814,0.0145,-0.00504,-0.04822,-0.04578,-0.0032,-0.0119,0.00397,-0.01587,0.05157,-0.03632,-0.01495,0.00977,-0.04272
8.178,-0.009,0.0209,-0.14267,0.01541,-0.00732,-0.04944,-0.05035,-0.00366,-0.01328,0.00107,-0.01709,0.05005,-0.03769,-0.01678,0.01022,-0.04227
8.1785,-0.0119,0.01831,-0.07507,0.01907,-0.01083,-0.05371,-0.05417,-0.00198,-0.01465,-0.00046,-0.01968,0.05157,-0.03952,-0.0177,0.01038,-0.04166
8.179,-0.0119,0.01587,-0.0235,0.0238,-0.01358,-0.05905,-0.05463,0.00092,-0.01465,-0.0029,-0.02121,0.04913,-0.04044,-0.01785,0.01038,-0.04166
8.1795,-0.01114,0.01007,0.00381,0.03174,-0.01694,-0.06363,-0.0531,0.00229,-0.01297,-0.00519,-0.01953,0.04074,-0.03952,-0.01801,0.01053,-0.04181
8.18,-0.00961,0.00336,0.02304,0.04425,-0.02533,-0.06226,-0.05142,0.00183,-0.01099,-0.00778,-0.01663,0.03128,-0.0386,-0.01846,0.01114,-0.04333
8.1805,-0.01007,-0.00076,0.03708,0.05219,-0.03784,-0.0589,-0.05188,-0.00046,-0.01053,-0.01022,-0.01541,0.02136,-0.03952,-0.01938,0.01144,-0.04349
8.181,-0.01053,-0.00244,0.04562,0.0502,-0.04883,-0.05737,-0.05722,-0.00214,-0.01144,-0.01282,-0.01297,0.01465,-0.04166,-0.01968,0.01129,-0.04196
8.1815,-0.01068,-0.00031,0.04257,0.04227,-0.05219,-0.05661,-0.07187,-0.00198,-0.01236,-0.01343,-0.01053,0.0087,-0.04227,-0.01877,0.01038,-0.04181
8.182,-0.01144,0.00275,0.0322,0.03891,-0.04776,-0.05966,-0.09247,0.0,-0.01266,-0.0148,-0.00854,0.00229,-0.04227,-0.01755,0.01022,-0.04333
8.1825,-0.00961,0.00412,0.01846,0.03998,-0.03952,-0.06027,-0.10818,0.00244,-0.0119,-0.01755,-0.009,-0.00305,-0.04242,-0.01831,0.00961,-0.04425
8.183,-0.00671,0.00153,0.00488,0.03906,-0.03357,-0.05478,-0.11215,0.00504,-0.01221,-0.0206,-0.00961,-0.00809,-0.04257,-0.01953,0.009,-0.04456
8.1835,-0.00366,-0.00412,-0.00549,0.0354,-0.03006,-0.0473,-0.11063,0.00748,-0.01419,-0.02274,-0.01083,-0.01221,-0.04196,-0.02014,0.00885,-0.04257
8.184,-0.00183,-0.01587,-0.01144,0.03113,-0.02731,-0.03738,-0.10849,0.00916,-0.01495,-0.02518,-0.01205,-0.01587,-0.0415,-0.01923,0.01038,-0.04166
8.1845,-0.00046,-0.03143,-0.01297,0.02716,-0.02747,-0.02777,-0.09995,0.00977,-0.01419,-0.02777,-0.01358,-0.01938,-0.04166,-0.01816,0.009,-0.0415
8.185,0.00153,-0.04379,-0.0177,0.02396,-0.03067,-0.02243,-0.06668,0.00885,-0.01312,-0.03143,-0.01495,-0.01968,-0.04196,-0.01801,0.00916,-0.04303
8.1855,0.00565,-0.04227,-0.02945,0.02228,-0.03387,-0.02167,0.00778,0.0058,-0.01312,-0.0325,-0.01633,-0.01831,-0.04028,-0.01755,0.009,-0.0441
8.186,0.00824,-0.02777,-0.05371,0.02136,-0.03433,-0.02716,0.08926,0.00183,-0.01419,-0.0351,-0.01694,-0.01724,-0.03799,-0.01709,0.00916,-0.04425
8.1865,0.00641,-0.01312,-0.08759,0.01907,-0.03235,-0.03494,0.10284,0.0,-0.01495,-0.03677,-0.01831,-0.0174,-0.03677,-0.01724,0.00946,-0.0444
8.187,-0.00015,-0.00305,-0.11414,0.01617,-0.03143,-0.04135,0.0351,-0.0029,-0.01587,-0.03967,-0.01938,-0.01801,-0.03784,-0.01755,0.00946,-0.04486
8.1875,-0.00854,0.00702,-0.11108,0.01389,-0.02975,-0.04028,-0.03632,-0.00809,-0.0174,-0.04166,-0.01984,-0.01999,-0.03906,-0.01633,0.00854,-0.04562
8.188,-0.0145,0.01648,-0.07614,0.01495,-0.0296,-0.02747,-0.04669,-0.01358,-0.0174,-0.04272,-0.01938,-0.02396,-0.03876,-0.01465,0.00854,-0.04532
8.1885,-0.01877,0.01892,-0.02426,0.01663,-0.03204,-0.00717,-0.02243,-0.01801,-0.01648,-0.04288,-0.01694,-0.03098,-0.03784,-0.01266,0.00809,-0.04379
8.189,-0.02167,0.00977,0.02151,0.0174,-0.03815,0.0029,-0.01633,-0.01709,-0.01526,-0.04807,-0.01572,-0.03677,-0.03586,-0.01297,0.0087,-0.04257
8.1895,-0.02289,-0.00656,0.04501,0.0174,-0.04623,-0.0058,-0.02304,-0.0116,-0.01587,-0.047,-0.01419,-0.03677,-0.03479,-0.01282,0.00854,-0.04166
8.19,-0.02274,-0.02655,0.04379,0.01831,-0.05035,-0.02121,-0.01068,-0.00473,-0.01648,-0.04669,-0.01541,-0.0322,-0.03387,-0.01175,0.00961,-0.04044
8.1905,-0.0238,-0.05142,0.0293,0.01846,-0.04608,-0.0296,0.01541,-0.00122,-0.01678,-0.04745,-0.0206,-0.02625,-0.03418,-0.01038,0.009,-0.04105
8.191,-0.02945,-0.08087,0.01282,0.01648,-0.03677,-0.03265,0.02686,-0.00015,-0.01572,-0.04425,-0.02533,-0.02655,-0.03372,-0.009,0.0087,-0.04105
8.1915,-0.03494,-0.1059,-0.00259,0.01251,-0.03128,-0.04868,0.01755,-0.00092,-0.01373,-0.04471,-0.02701,-0.03693,-0.03235,-0.009,0.00885,-0.04242
8.192,-0.03464,-0.11475,-0.01862,0.009,-0.03021,-0.07828,0.00824,-0.00305,-0.01373,-0.04883,-0.02518,-0.05432,-0.03204,-0.01022,0.00885,-0.04303
8.1925,-0.03082,-0.10178,-0.03342,0.00854,-0.02914,-0.09521,0.01297,-0.00275,-0.01495,-0.04944,-0.0238,-0.06882,-0.03265,-0.01175,0.00824,-0.04364
8.193,-0.02869,-0.07492,-0.04486,0.0116,-0.02563,-0.08667,0.01755,0.00061,-0.01724,-0.04791,-0.02274,-0.07263,-0.03265,-0.01236,0.00717,-0.0444
8.1935,-0.03143,-0.04578,-0.05432,0.01434,-0.02121,-0.05524,0.00778,0.00534,-0.01923,-0.04669,-0.02151,-0.06943,-0.03296,-0.01114,0.00687,-0.04517
8.194,-0.03342,-0.02594,-0.06454,0.01755,-0.01999,-0.03174,-0.01068,0.0061,-0.01846,-0.04501,-0.01968,-0.06699,-0.03265,-0.01068,0.00839,-0.04456
8.1945,-0.02991,-0.02075,-0.07492,0.0206,-0.01968,-0.03113,-0.02014,0.00397,-0.0174,-0.04623,-0.01663,-0.06714,-0.03235,-0.00946,0.00885,-0.04364
8.195,-0.02213,-0.0296,-0.08469,0.02365,-0.02121,-0.047,-0.0177,0.00137,-0.0177,-0.04883,-0.0119,-0.06409,-0.03098,-0.00763,0.00916,-0.04425
8.1955,-0.01495,-0.04257,-0.09644,0.02518,-0.02426,-0.06622,-0.01404,0.00076,-0.01923,-0.04807,-0.00839,-0.056,-0.02945,-0.0058,0.00854,-0.0441
8.196,-0.00992,-0.04944,-0.11658,0.02472,-0.02808,-0.08148,-0.01602,0.00259,-0.02106,-0.04822,-0.00641,-0.04349,-0.03052,-0.00656,0.00748,-0.04395
8.1965,-0.00626,-0.04852,-0.16144,0.02197,-0.03128,-0.09079,-0.01892,0.00305,-0.02136,-0.04349,-0.00519,-0.03098,-0.03174,-0.00748,0.00732,-0.04486
8.197,-0.00397,-0.0441,-0.23163,0.01923,-0.03235,-0.08804,-0.01694,0.00031,-0.0206,-0.04456,-0.00336,-0.02014,-0.03128,-0.00854,0.00702,-0.04562
8.1975,-0.00412,-0.04303,-0.29358,0.01495,-0.0322,-0.07187,-0.01587,-0.00412,-0.02136,-0.03967,-0.00137,-0.01114,-0.02991,-0.00992,0.00778,-0.04471
8.198,-0.0061,-0.04593,-0.29022,0.00916,-0.03204,-0.05463,-0.01678,-0.0087,-0.02335,-0.0386,-0.00168,-0.00397,-0.02991,-0.01068,0.00717,-0.04288
8.1985,-0.00824,-0.04868,-0.20645,0.0032,-0.03464,-0.04593,-0.01862,-0.0116,-0.02548,-0.03571,-0.00473,-0.00107,-0.03098,-0.01083,0.0058,-0.04089
8.199,-0.00687,-0.04868,-0.08469,-0.00015,-0.03922,-0.047,-0.01831,-0.0145,-0.02441,-0.02991,-0.00931,-0.00214,-0.03113,-0.00961,0.00717,-0.0415
8.1995,-0.00351,-0.04517,0.02319,-0.00015,-0.0386,-0.0502,-0.01556,-0.01678,-0.02213,-0.03036,-0.01282,-0.00427,-0.02853,-0.00717,0.00809,-0.04242
8.2,-0.00198,-0.04089,0.09445,0.00076,-0.03098,-0.05035,-0.01373,-0.01923,-0.02014,-0.02777,-0.01434,-0.00427,-0.0264,-0.00488,0.00824,-0.04227
8.2005,-0.00336,-0.03815,0.12558,0.00183,-0.01556,-0.05112,-0.01526,-0.02151,-0.02182,-0.02808,-0.01526,-0.00183,-0.02655,-0.00275,0.00793,-0.04166
8.201,-0.00641,-0.03937,0.12177,0.00153,0.00076,-0.05402,-0.01831,-0.02151,-0.02411,-0.02579,-0.01419,0.00183,-0.02823,-0.00122,0.00793,-0.04166
8.2015,-0.00885,-0.04105,0.09384,0.00031,0.01083,-0.05524,-0.01907,-0.0174,-0.02533,-0.02365,-0.01266,0.00519,-0.02838,0.0,0.00885,-0.0412
8.202,-0.00992,-0.04089,0.05737,-0.00214,0.01083,-0.05356,-0.01617,-0.0119,-0.02472,-0.02167,-0.01144,0.00717,-0.02808,0.00092,0.00931,-0.04105
8.2025,-0.01099,-0.03891,0.02563,-0.00717,0.00687,-0.04868,-0.01251,-0.00824,-0.02335,-0.01892,-0.01144,0.00778,-0.02823,0.00229,0.00824,-0.03983
8.203,-0.01038,-0.0386,-0.00061,-0.01434,0.00534,-0.04517,-0.01205,-0.00778,-0.0238,-0.01678,-0.01541,0.00839,-0.02991,0.00351,0.00626,-0.04028
8.2035,-0.0087,-0.04044,-0.02365,-0.02014,0.0061,-0.04578,-0.01373,-0.01007,-0.02518,-0.01953,-0.02014,0.00916,-0.0322,0.00336,0.00641,-0.04227
8.204,-0.00793,-0.04272,-0.04303,-0.02304,0.00549,-0.05249,-0.01602,-0.01251,-0.02762,-0.01572,-0.0235,0.00992,-0.03342,0.00244,0.00717,-0.04364
8.2045,-0.00809,-0.04379,-0.05707,-0.02441,0.00122,-0.05753,-0.01816,-0.01251,-0.02869,-0.01541,-0.0235,0.00946,-0.03204,0.00031,0.00778,-0.04257
8.205,-0.0087,-0.04349,-0.06332,-0.02472,-0.00504,-0.05951,-0.01831,-0.01022,-0.02914,-0.01633,-0.02319,0.00992,-0.03204,-0.00168,0.00778,-0.0412
8.2055,-0.00763,-0.03891,-0.06042,-0.02319,-0.01419,-0.05783,-0.01785,-0.00732,-0.02869,-0.01816,-0.02365,0.00961,-0.03265,-0.00366,0.00702,-0.04166
8.206,-0.00458,-0.03067,-0.05417,-0.02167,-0.02441,-0.05341,-0.01755,-0.00595,-0.02777,-0.01556,-0.02487,0.00946,-0.03357,-0.00565,0.00641,-0.04318
8.2065,-0.00214,-0.02319,-0.05264,-0.02014,-0.02884,-0.04791,-0.01892,-0.00763,-0.02777,-0.01678,-0.02655,0.00839,-0.03311,-0.00839,0.00671,-0.04257
8.207,-0.00259,-0.02075,-0.05753,-0.01999,-0.02579,-0.04547,-0.02014,-0.00977,-0.0293,-0.01144,-0.02518,0.00748,-0.03128,-0.01038,0.00778,-0.04166
8.2075,-0.00626,-0.02197,-0.06165,-0.01816,-0.01602,-0.04517,-0.01968,-0.01083,-0.02991,-0.0061,-0.02365,0.00793,-0.0296,-0.01129,0.00748,-0.04181
8.208,-0.01053,-0.02655,-0.06393,-0.01511,-0.00793,-0.04395,-0.01694,-0.00916,-0.02975,-0.00687,-0.02289,0.0087,-0.02945,-0.01266,0.00824,-0.04349
8.2085,-0.01068,-0.03174,-0.06439,-0.00977,-0.00854,-0.04211,-0.01389,-0.00458,-0.02777,-0.00809,-0.02258,0.00946,-0.03159,-0.01495,0.00763,-0.04425
8.209,-0.00793,-0.03586,-0.06287,-0.00656,-0.02304,-0.04395,-0.01297,-0.00076,-0.02625,-0.00626,-0.02228,0.009,-0.03113,-0.01617,0.00717,-0.04456
8.2095,-0.00702,-0.03815,-0.05951,-0.0058,-0.04593,-0.04898,-0.01373,0.00107,-0.02533,-0.00549,-0.0206,0.009,-0.03235,-0.01663,0.00809,-0.04242
8.21,-0.00992,-0.03906,-0.05569,-0.00549,-0.06882,-0.05463,-0.01389,0.00092,-0.02457,-0.00366,-0.01923,0.00824,-0.03113,-0.01602,0.00885,-0.04105
8.2105,-0.01312,-0.04105,-0.05112,-0.00259,-0.08865,-0.05798,-0.01343,0.00092,-0.02274,-0.00061,-0.01831,0.00839,-0.03006,-0.01587,0.009,-0.04227
8.211,-0.01312,-0.04196,-0.04868,0.00107,-0.10651,-0.05692,-0.0116,0.00076,-0.02106,0.00549,-0.01617,0.00885,-0.02991,-0.01678,0.00916,-0.04471
8.2115,-0.01068,-0.0412,-0.04654,0.00351,-0.11902,-0.05539,-0.00992,0.00137,-0.01984,0.00381,-0.01419,0.00809,-0.02975,-0.01694,0.0087,-0.0444
8.212,-0.00778,-0.04013,-0.04501,0.00198,-0.12268,-0.05295,-0.00961,0.00259,-0.02029,0.00427,-0.01266,0.0061,-0.03021,-0.01724,0.0087,-0.04379
8.2125,-0.00549,-0.04074,-0.04227,0.0,-0.12131,-0.05295,-0.01007,0.00198,-0.02151,0.00763,-0.01266,0.00336,-0.03052,-0.01801,0.00839,-0.04272
8.213,-0.00412,-0.04471,-0.04135,-0.00107,-0.11551,-0.05219,-0.01099,-0.00198,-0.02197,0.00351,-0.01328,0.00137,-0.03052,-0.01938,0.00793,-0.04166
8.2135,-0.00381,-0.0473,-0.04028,-0.00031,-0.10635,-0.05066,-0.01175,-0.00626,-0.02228,0.00961,-0.01358,-0.00168,-0.03006,-0.01938,0.00778,-0.04105
8.214,-0.0029,-0.05096,-0.03922,0.00031,-0.09079,-0.05142,-0.01343,-0.00702,-0.02304,0.01389,-0.01389,-0.00305,-0.0293,-0.01831,0.00839,-0.04059
8.2145,-0.00153,-0.05463,-0.0386,-0.00122,-0.07721,-0.05447,-0.01389,-0.00443,-0.02441,0.01434,-0.01389,-0.0029,-0.02838,-0.01709,0.00916,-0.0412
8.215,-0.00107,-0.05768,-0.03677,-0.00244,-0.06485,-0.05646,-0.01251,-0.00381,-0.02609,0.01434,-0.01465,0.00092,-0.02899,-0.0177,0.00824,-0.04318
8.2155,-0.00092,-0.06012,-0.0351,-0.00198,-0.05157,-0.056,-0.01114,-0.00534,-0.0267,0.01129,-0.01465,0.00671,-0.02991,-0.01877,0.00809,-0.04379
8.216,-0.00031,-0.0618,-0.03387,0.0,-0.04181,-0.05417,-0.009,-0.00717,-0.02457,0.01358,-0.01434,0.01205,-0.03082,-0.01831,0.009,-0.04364
8.2165,0.00015,-0.06332,-0.03372,0.00168,-0.03693,-0.05173,-0.00656,-0.00809,-0.02319,0.01862,-0.0145,0.0148,-0.03082,-0.01724,0.00885,-0.04303
8.217,-0.00107,-0.06485,-0.03372,0.00137,-0.03479,-0.04654,-0.00473,-0.00916,-0.02396,0.01999,-0.01663,0.01694,-0.03143,-0.01648,0.00885,-0.04257
8.2175,-0.00061,-0.06439,-0.03357,-0.00015,-0.02975,-0.04135,-0.00443,-0.00992,-0.02441,0.01709,-0.01785,0.01938,-0.03174,-0.01663,0.00793,-0.04211
8.218,0.00107,-0.06393,-0.0322,-0.00259,-0.02274,-0.03525,-0.00732,-0.01175,-0.02335,0.02686,-0.01846,0.02213,-0.03113,-0.0177,0.00809,-0.04272
8.2185,0.00214,-0.06439,-0.03235,-0.00488,-0.02014,-0.03082,-0.01129,-0.01312,-0.02167,0.02472,-0.01816,0.02655,-0.02975,-0.01999,0.00839,-0.04257
8.219,0.00198,-0.06607,-0.03357,-0.00824,-0.02106,-0.02625,-0.01389,-0.0145,-0.0209,0.02182,-0.01831,0.03036,-0.02975,-0.02274,0.00778,-0.04166
8.2195,0.00305,-0.06805,-0.03387,-0.01251,-0.02396,-0.01984,-0.01312,-0.01541,-0.02243,0.02457,-0.01892,0.03433,-0.03021,-0.02457,0.00748,-0.04089
8.22,0.00549,-0.07248,-0.03143,-0.01587,-0.02945,-0.01022,-0.01007,-0.01465,-0.02396,0.02838,-0.01831,0.03662,-0.03143,-0.02487,0.00854,-0.04166
8.2205,0.00473,-0.07706,-0.02899,-0.01801,-0.04013,0.00092,-0.009,-0.01129,-0.02457,0.03067,-0.01877,0.03922,-0.03189,-0.02472,0.00931,-0.04288
8.221,-0.00107,-0.07721,-0.02518,-0.01816,-0.05539,0.00916,-0.01068,-0.00763,-0.02396,0.03052,-0.01816,0.04089,-0.03235,-0.02396,0.0087,-0.04425
8.2215,-0.0058,-0.07004,-0.02167,-0.01724,-0.06653,0.00748,-0.01205,-0.00427,-0.02258,0.02838,-0.01709,0.04166,-0.03387,-0.02411,0.00793,-0.04547
8.222,-0.00458,-0.05692,-0.02045,-0.01724,-0.06393,-0.00229,-0.01282,-0.0032,-0.02289,0.02686,-0.01465,0.04105,-0.03448,-0.02457,0.00824,-0.04623
8.2225,0.00137,-0.0415,-0.02289,-0.01846,-0.04929,-0.01755,-0.01251,-0.0029,-0.02472,0.03143,-0.01251,0.03967,-0.03372,-0.02472,0.00839,-0.04578
8.223,0.00671,-0.02945,-0.0264,-0.01877,-0.03479,-0.03738,-0.01328,-0.00259,-0.02563,0.0351,-0.01114,0.03967,-0.03143,-0.02472,0.00793,-0.04486
8.2235,0.00931,-0.02228,-0.02731,-0.01724,-0.02899,-0.05371,-0.01495,-0.00183,-0.0238,0.03555,-0.01175,0.04364,-0.02914,-0.02457,0.00671,-0.04395
8.224,0.00702,-0.0209,-0.02258,-0.01541,-0.02899,-0.0618,-0.01602,-0.00168,-0.02258,0.03448,-0.01297,0.04944,-0.02899,-0.02502,0.00595,-0.04395
8.2245,0.00259,-0.02426,-0.01129,-0.01328,-0.02823,-0.05966,-0.01602,-0.00092,-0.02228,0.03586,-0.01236,0.05066,-0.03036,-0.0235,0.00702,-0.0441
8.225,-0.00046,-0.03036,0.00763,-0.01083,-0.02548,-0.05478,-0.0119,0.00198,-0.02258,0.03372,-0.01205,0.04517,-0.03143,-0.02228,0.00748,-0.04486
8.2255,-0.00244,-0.0351,0.02563,-0.00793,-0.02457,-0.05463,-0.00687,0.00504,-0.02289,0.03479,-0.01312,0.03586,-0.03113,-0.02304,0.00763,-0.04456
8.226,-0.00519,-0.04196,0.02563,-0.00351,-0.02411,-0.05829,-0.0061,0.00656,-0.02228,0.03296,-0.01633,0.02762,-0.02975,-0.02518,0.00687,-0.0444
8.2265,-0.01129,-0.05447,0.00046,-0.00046,-0.02548,-0.05981,-0.01083,0.00839,-0.02258,0.03281,-0.01831,0.02274,-0.02853,-0.02563,0.00687,-0.04242
8.227,-0.0177,-0.07111,-0.03799,0.00305,-0.02686,-0.05768,-0.01678,0.01068,-0.02365,0.03098,-0.01999,0.02151,-0.02853,-0.02487,0.00793,-0.04074
8.2275,-0.0209,-0.08621,-0.06897,0.00641,-0.02884,-0.05463,-0.01862,0.01099,-0.02472,0.0293,-0.0206,0.02151,-0.02975,-0.02411,0.00778,-0.04044
8.228,-0.02075,-0.09323,-0.07919,0.00931,-0.02869,-0.0528,-0.01984,0.0116,-0.02563,0.03098,-0.01953,0.02014,-0.03082,-0.0238,0.00748,-0.04135
8.2285,-0.01785,-0.09338,-0.07431,0.01022,-0.02762,-0.04807,-0.02441,0.01434,-0.02426,0.03342,-0.01862,0.01221,-0.03143,-0.02457,0.00671,-0.04196
8.229,-0.01419,-0.09125,-0.0647,0.01282,-0.02426,-0.0412,-0.03586,0.01862,-0.02045,0.03464,-0.01801,-0.00641,-0.03128,-0.02487,0.00687,-0.04181
8.2295,-0.00992,-0.08896,-0.05432,0.01694,-0.02075,-0.03494,-0.04669,0.02335,-0.01648,0.0354,-0.01785,-0.03296,-0.03067,-0.02411,0.00687,-0.04135
8.23,-0.00549,-0.08804,-0.04532,0.02213,-0.01633,-0.03494,-0.04883,0.02762,-0.01587,0.03647,-0.01709,-0.05432,-0.03021,-0.02411,0.00778,-0.03998
8.2305,-0.00015,-0.08606,-0.04349,0.02686,-0.01266,-0.04211,-0.04013,0.03113,-0.01724,0.03448,-0.01526,-0.05783,-0.03113,-0.02518,0.00687,-0.04089
8.231,0.00458,-0.08362,-0.05569,0.03067,-0.00946,-0.0499,-0.02716,0.0322,-0.01877,0.03204,-0.01389,-0.04684,-0.03174,-0.02594,0.00702,-0.04227
8.2315,0.00763,-0.08331,-0.07889,0.03525,-0.00839,-0.05661,-0.01938,0.03174,-0.01907,0.03052,-0.01373,-0.03937,-0.03143,-0.02548,0.00763,-0.04379
8.232,0.01144,-0.0882,-0.09613,0.03723,-0.00732,-0.0621,-0.01724,0.02899,-0.01984,0.02899,-0.01511,-0.04166,-0.02975,-0.0235,0.00778,-0.04379
8.2325,0.01755,-0.09613,-0.09491,0.03555,-0.00702,-0.0647,-0.0174,0.02396,-0.02274,0.02563,-0.01617,-0.0412,-0.02945,-0.02319,0.00748,-0.04318
8.233,0.02457,-0.09552,-0.08011,0.03311,-0.00763,-0.06577,-0.01663,0.01633,-0.02609,0.02686,-0.01663,-0.02533,-0.03036,-0.02487,0.00824,-0.04242
8.2335,0.0296,-0.08423,-0.06378,0.02914,-0.00854,-0.06592,-0.01419,0.00839,-0.02808,0.02502,-0.01511,0.00244,-0.03128,-0.0267,0.00656,-0.04318
8.234,0.0293,-0.06851,-0.05249,0.02228,-0.01114,-0.06332,-0.0119,-0.00031,-0.02716,0.02182,-0.01236,0.02991,-0.03235,-0.02731,0.00488,-0.04364
8.2345,0.02518,-0.05325,-0.0415,0.01038,-0.01236,-0.06027,-0.01099,-0.009,-0.02304,0.01663,-0.009,0.04669,-0.03143,-0.02686,0.00519,-0.04227
8.235,0.02045,-0.04196,-0.03128,-0.00198,-0.01328,-0.05707,-0.01068,-0.01678,-0.0177,0.01312,-0.00504,0.04837,-0.03143,-0.02502,0.0061,-0.04059
8.2355,0.0177,-0.03189,-0.0206,-0.00885,-0.01419,-0.05539,-0.00961,-0.02121,-0.01465,0.01343,-0.00183,0.03769,-0.03189,-0.02487,0.00748,-0.04059
8.236,0.01694,-0.0238,-0.01251,-0.00885,-0.01587,-0.05646,-0.00687,-0.02151,-0.0148,0.01419,-0.00107,0.02075,-0.0322,-0.02762,0.00824,-0.04227
8.2365,0.01663,-0.01648,-0.00534,-0.0087,-0.01541,-0.05554,-0.00473,-0.0206,-0.01678,0.00992,-0.00244,0.00854,-0.03204,-0.03143,0.00626,-0.04318
8.237,0.01495,-0.01221,-0.00244,-0.01312,-0.01144,-0.05554,-0.00534,-0.02274,-0.01831,0.00687,-0.00244,0.00397,-0.03006,-0.0325,0.00549,-0.04196
8.2375,0.01144,-0.01114,-0.00549,-0.0206,-0.00656,-0.05249,-0.01007,-0.02625,-0.01862,0.0032,0.00015,0.00381,-0.02777,-0.03113,0.00641,-0.04044
8.238,0.00763,-0.01419,-0.01083,-0.02716,-0.00458,-0.04791,-0.01617,-0.0296,-0.01862,0.00092,0.00137,0.00229,-0.02853,-0.02991,0.0061,-0.04028
8.2385,0.00488,-0.01831,-0.01297,-0.03067,-0.00534,-0.04349,-0.02075,-0.02991,-0.01907,-0.00366,-0.00061,-0.00061,-0.03052,-0.02884,0.00595,-0.04166
8.239,0.00259,-0.02075,-0.01434,-0.03143,-0.00641,-0.04105,-0.02609,-0.02808,-0.02045,-0.01022,-0.00381,-0.00244,-0.03174,-0.02869,0.00671,-0.04349
8.2395,0.00229,-0.02472,-0.02792,-0.03036,-0.0061,-0.04089,-0.03036,-0.02426,-0.02319,-0.0148,-0.00595,-0.00076,-0.03204,-0.02823,0.00687,-0.04272
8.24,0.00183,-0.03342,-0.06653,-0.02625,-0.00931,-0.04456,-0.03235,-0.01984,-0.02487,-0.01663,-0.0058,0.0029,-0.03159,-0.02731,0.00702,-0.04181
8.2405,0.00198,-0.0444,-0.11902,-0.02045,-0.01556,-0.05005,-0.03128,-0.01587,-0.02609,-0.01984,-0.00519,0.00504,-0.03128,-0.0267,0.00732,-0.04074
8.241,0.00244,-0.05066,-0.15564,-0.01419,-0.02396,-0.05814,-0.02899,-0.01144,-0.02594,-0.02335,-0.00473,0.00504,-0.03067,-0.02716,0.00687,-0.04135
8.2415,0.0032,-0.04929,-0.15366,-0.00977,-0.03006,-0.06195,-0.02731,-0.00854,-0.02625,-0.02213,-0.0058,0.00153,-0.03082,-0.02853,0.00656,-0.04211
8.242,0.00351,-0.04211,-0.1239,-0.00717,-0.03571,-0.06424,-0.02594,-0.009,-0.02716,-0.02731,-0.00717,-0.00305,-0.03159,-0.03006,0.00717,-0.04288
8.2425,0.00305,-0.03448,-0.09598,-0.00687,-0.0412,-0.06378,-0.02441,-0.01221,-0.02701,-0.02609,-0.00778,-0.00671,-0.0325,-0.02991,0.00748,-0.0412
8.243,0.00183,-0.02853,-0.08713,-0.00656,-0.04807,-0.06378,-0.02441,-0.01648,-0.02457,-0.0293,-0.00732,-0.00763,-0.0325,-0.02991,0.00702,-0.03937
8.2435,0.00137,-0.02625,-0.08606,-0.00366,-0.05051,-0.06195,-0.0238,-0.02106,-0.02121,-0.03265,-0.00778,-0.00626,-0.03235,-0.03006,0.00656,-0.03845
8.244,0.00412,-0.02884,-0.07217,0.00137,-0.04669,-0.0589,-0.02213,-0.02319,-0.01953,-0.03754,-0.00992,-0.00351,-0.03189,-0.03021,0.00626,-0.03937
8.2445,0.00916,-0.0322,-0.04257,0.00534,-0.03876,-0.05493,-0.02167,-0.0238,-0.01831,-0.03754,-0.01511,-0.00229,-0.03159,-0.03098,0.00748,-0.03952
8.245,0.01175,-0.03525,-0.01434,0.00595,-0.03326,-0.05188,-0.02136,-0.02121,-0.01694,-0.03723,-0.01938,-0.00061,-0.03113,-0.03235,0.00732,-0.04028
8.2455,0.01236,-0.03616,-0.00153,0.00519,-0.02701,-0.05188,-0.02029,-0.01831,-0.01465,-0.03937,-0.02029,0.00046,-0.03082,-0.0325,0.00732,-0.03983
8.246,0.01358,-0.03632,0.00336,0.00458,-0.02213,-0.05219,-0.02029,-0.0174,-0.01144,-0.03754,-0.01846,0.00229,-0.0322,-0.03128,0.00748,-0.03922
8.2465,0.0177,-0.03616,0.01221,0.00397,-0.01968,-0.05386,-0.02167,-0.01938,-0.00763,-0.03906,-0.01694,0.00443,-0.03326,-0.03098,0.00717,-0.03983
8.247,0.02197,-0.0322,0.02792,0.00153,-0.02075,-0.05249,-0.02502,-0.02075,-0.00504,-0.04196,-0.01785,0.00626,-0.03387,-0.03143,0.00732,-0.04028
8.2475,0.02335,-0.02457,0.0415,-0.00336,-0.02335,-0.05325,-0.02686,-0.02014,-0.0032,-0.04395,-0.01999,0.00641,-0.0325,-0.03311,0.00717,-0.04105
8.248,0.02029,-0.01602,0.04349,-0.00824,-0.02701,-0.05478,-0.02701,-0.01785,-0.00305,-0.04562,-0.02167,0.00488,-0.0325,-0.03357,0.00671,-0.04074
8.2485,0.01511,-0.01099,0.03738,-0.01083,-0.0322,-0.05264,-0.02777,-0.01541,-0.00229,-0.04425,-0.02274,0.00397,-0.03296,-0.03342,0.00671,-0.04166
8.249,0.0119,-0.00977,0.03036,-0.0119,-0.03372,-0.05142,-0.02914,-0.01312,-0.00137,-0.04639,-0.02319,0.00397,-0.03281,-0.03281,0.00641,-0.04196
8.2495,0.01328,-0.01038,0.02426,-0.01221,-0.03342,-0.04639,-0.0293,-0.01129,-0.00061,-0.04745,-0.02213,0.00549,-0.03235,-0.03143,0.0058,-0.0415
8.25,0.01709,-0.01343,0.01343,-0.01358,-0.02899,-0.04333,-0.02823,-0.00824,-0.00183,-0.04669,-0.02014,0.00854,-0.03113,-0.02975,0.00702,-0.04013
8.2505,0.01892,-0.01907,-0.00198,-0.01572,-0.02701,-0.04013,-0.02594,-0.0061,-0.00351,-0.0473,-0.01831,0.01083,-0.03082,-0.02899,0.00778,-0.03967
8.251,0.02045,-0.02411,-0.01724,-0.01541,-0.02441,-0.03952,-0.02502,-0.00595,-0.00351,-0.04974,-0.01801,0.01282,-0.03113,-0.02884,0.00839,-0.04044
8.2515,0.02029,-0.02625,-0.0293,-0.01602,-0.01999,-0.03952,-0.02533,-0.00748,-0.0029,-0.05081,-0.01907,0.01419,-0.03113,-0.0296,0.00778,-0.04044
8.252,0.01938,-0.0264,-0.03754,-0.01541,-0.01129,-0.03723,-0.02625,-0.00702,-0.00549,-0.05081,-0.02029,0.01419,-0.03174,-0.03052,0.00717,-0.04074
8.2525,0.01724,-0.02686,-0.0441,-0.0148,-0.00565,-0.03586,-0.02472,-0.00366,-0.01221,-0.05112,-0.02075,0.01328,-0.03143,-0.03113,0.00748,-0.03967
8.253,0.01526,-0.02884,-0.04807,-0.01389,-0.00519,-0.04028,-0.02213,0.0,-0.01877,-0.0502,-0.02029,0.01266,-0.03174,-0.03067,0.00763,-0.03937
8.2535,0.01282,-0.0296,-0.05173,-0.01389,-0.01221,-0.04517,-0.01984,0.0029,-0.02258,-0.04944,-0.01831,0.01144,-0.03342,-0.02899,0.00793,-0.03891
8.254,0.0116,-0.03021,-0.05188,-0.01678,-0.02502,-0.04608,-0.01907,0.00427,-0.02548,-0.04822,-0.01755,0.00961,-0.03448,-0.02914,0.00732,-0.03799
8.2545,0.01068,-0.03296,-0.05203,-0.02213,-0.03616,-0.047,-0.01984,0.00519,-0.02884,-0.04868,-0.01801,0.00626,-0.03433,-0.02945,0.00732,-0.03815
8.255,0.01007,-0.03571,-0.05173,-0.03006,-0.03769,-0.04639,-0.02045,0.00473,-0.03387,-0.04883,-0.01785,0.00198,-0.03372,-0.0296,0.00763,-0.03906
8.2555,0.00824,-0.03723,-0.04883,-0.03784,-0.03494,-0.0473,-0.0209,0.0032,-0.03769,-0.04898,-0.01602,-0.00198,-0.03357,-0.02991,0.00885,-0.04028
8.256,0.00381,-0.03784,-0.0444,-0.04242,-0.03479,-0.05127,-0.02106,0.0029,-0.03937,-0.04852,-0.01511,-0.00549,-0.03448,-0.02975,0.00885,-0.04089
8.2565,-0.00107,-0.03952,-0.03891,-0.04318,-0.03555,-0.047,-0.01984,0.00336,-0.03784,-0.04791,-0.01404,-0.00931,-0.03571,-0.03021,0.00977,-0.04013
8.257,-0.00351,-0.04333,-0.03769,-0.04181,-0.03738,-0.04776,-0.01831,0.00473,-0.03387,-0.04929,-0.01389,-0.01572,-0.03677,-0.02975,0.00931,-0.04013
8.2575,-0.00275,-0.0502,-0.0383,-0.03891,-0.03708,-0.04486,-0.01633,0.00565,-0.02777,-0.04807,-0.01312,-0.02167,-0.03693,-0.0293,0.009,-0.04105
8.258,0.0,-0.05829,-0.03922,-0.03647,-0.03586,-0.04593,-0.01495,0.00504,-0.02014,-0.04745,-0.01221,-0.02808,-0.03601,-0.02884,0.00824,-0.04211
8.2585,0.00198,-0.06165,-0.03555,-0.03555,-0.03525,-0.04471,-0.01328,0.00381,-0.0119,-0.04532,-0.01129,-0.03281,-0.03586,-0.02899,0.00748,-0.04135
8.259,0.00214,-0.056,-0.02808,-0.03586,-0.03616,-0.04913,-0.01205,0.0032,-0.00641,-0.04486,-0.01038,-0.03738,-0.03616,-0.03006,0.00778,-0.03967
8.2595,0.00351,-0.04303,-0.01831,-0.03555,-0.03647,-0.04776,-0.01099,0.00473,-0.00336,-0.04593,-0.01144,-0.0441,-0.03571,-0.02991,0.00931,-0.03952
8.26,0.00671,-0.02869,-0.01205,-0.03326,-0.03647,-0.04532,-0.00885,0.00565,-0.00259,-0.04425,-0.01358,-0.05005,-0.03494,-0.02869,0.01053,-0.0412
8.2605,0.00992,-0.01953,-0.01373,-0.03235,-0.03677,-0.04303,-0.00824,0.00412,-0.00229,-0.04379,-0.01419,-0.05539,-0.03555,-0.02716,0.01144,-0.04227
8.261,0.01114,-0.01541,-0.02136,-0.03342,-0.03479,-0.04242,-0.00717,-0.00259,-0.00107,-0.04349,-0.01358,-0.05966,-0.03616,-0.02609,0.01053,-0.04089
8.2615,0.01099,-0.01495,-0.03021,-0.03479,-0.03189,-0.04532,-0.00488,-0.00854,0.00092,-0.04318,-0.01266,-0.06393,-0.03723,-0.0267,0.01022,-0.03967
8.262,0.01038,-0.01617,-0.03891,-0.03571,-0.0322,-0.04822,-0.00244,-0.00839,0.00214,-0.04517,-0.01236,-0.06638,-0.03693,-0.02808,0.01007,-0.04044
8.2625,0.00824,-0.01663,-0.05432,-0.03601,-0.03387,-0.04837,-0.00137,-0.00488,0.00076,-0.04501,-0.01312,-0.06973,-0.03418,-0.02777,0.00992,-0.04181
8.263,0.00458,-0.01602,-0.07919,-0.03571,-0.03555,-0.04562,-0.00259,-0.0032,-0.00153,-0.04227,-0.0145,-0.07339,-0.03387,-0.02716,0.00931,-0.04303
8.2635,-0.00076,-0.01373,-0.11566,-0.03448,-0.03433,-0.04486,-0.00366,-0.00595,-0.00336,-0.04105,-0.01541,-0.07599,-0.03433,-0.02731,0.00931,-0.04242
8.264,-0.00473,-0.01312,-0.16144,-0.0351,-0.03265,-0.04501,-0.00488,-0.00519,-0.0029,-0.03906,-0.01678,-0.07675,-0.0351,-0.02792,0.009,-0.04242
8.2645,-0.00793,-0.01541,-0.20309,-0.03677,-0.03204,-0.04822,-0.0058,0.00717,-0.00153,-0.03723,-0.01968,-0.07782,-0.03372,-0.02716,0.00961,-0.04181
8.265,-0.01312,-0.01923,-0.21423,-0.03876,-0.03281,-0.04364,-0.00687,0.0296,0.00031,-0.03403,-0.02151,-0.07904,-0.03265,-0.02533,0.0087,-0.04135
8.2655,-0.02151,-0.02457,-0.18723,-0.03891,-0.03387,-0.04105,-0.009,0.04639,0.00122,-0.03296,-0.02121,-0.07843,-0.03281,-0.02472,0.00854,-0.04166
8.266,-0.03098,-0.02991,-0.14114,-0.03799,-0.03586,-0.04364,-0.01053,0.04562,0.00214,-0.03174,-0.01862,-0.07813,-0.03326,-0.02411,0.00854,-0.04303
8.2665,-0.03952,-0.03174,-0.09735,-0.03387,-0.03693,-0.04868,-0.01129,0.03006,0.00244,-0.03021,-0.0177,-0.07645,-0.03326,-0.02396,0.00931,-0.04318
8.267,-0.04425,-0.02777,-0.05569,-0.03036,-0.0386,-0.05081,-0.0119,0.01862,0.00107,-0.03067,-0.01678,-0.07401,-0.03357,-0.0235,0.009,-0.0444
8.2675,-0.04349,-0.0235,-0.00687,-0.02777,-0.03799,-0.05142,-0.01236,0.01968,-0.00046,-0.02823,-0.01572,-0.07202,-0.03418,-0.0235,0.00793,-0.04364
8.268,-0.03784,-0.03021,0.04684,-0.02533,-0.03616,-0.05341,-0.01358,0.02533,-0.00137,-0.02777,-0.01343,-0.07004,-0.03387,-0.02319,0.00809,-0.04318
8.2685,-0.03113,-0.04715,0.08911,-0.02197,-0.03418,-0.05417,-0.01358,0.02899,-0.00122,-0.02579,-0.01297,-0.06805,-0.03326,-0.02304,0.00885,-0.04318
8.269,-0.02655,-0.06226,0.11536,-0.01923,-0.0322,-0.05173,-0.01251,0.02869,-0.00015,-0.02609,-0.01419,-0.06577,-0.03296,-0.02243,0.00977,-0.04425
8.2695,-0.02335,-0.06485,0.13321,-0.01556,-0.03113,-0.04929,-0.00931,0.02914,0.00122,-0.02502,-0.01526,-0.06302,-0.03372,-0.02075,0.01053,-0.04364
8.27,-0.01968,-0.05814,0.14206,-0.0116,-0.02899,-0.04852,-0.00458,0.03006,0.00183,-0.0235,-0.01541,-0.05783,-0.03296,-0.01877,0.00992,-0.04272
8.2705,-0.01694,-0.04852,0.1355,-0.00656,-0.02884,-0.04822,0.00153,0.02853,0.00412,-0.02426,-0.01541,-0.05188,-0.03235,-0.01907,0.01007,-0.04349
8.271,-0.01541,-0.04089,0.11398,-0.00259,-0.02701,-0.04639,0.00717,0.0238,0.00778,-0.02487,-0.01511,-0.04517,-0.03311,-0.01999,0.00977,-0.0444
8.2715,-0.01343,-0.03616,0.08911,-0.00214,-0.02579,-0.04364,0.0119,0.01663,0.0119,-0.02136,-0.01419,-0.03906,-0.03464,-0.01953,0.00916,-0.04562
8.272,-0.00885,-0.0354,0.06531,-0.00549,-0.02335,-0.04028,0.01709,0.00732,0.01511,-0.02106,-0.01389,-0.03387,-0.03479,-0.01938,0.00931,-0.04562
8.2725,-0.0032,-0.03723,0.04333,-0.01007,-0.02121,-0.03784,0.02182,-0.0032,0.01694,-0.02319,-0.01419,-0.02899,-0.03357,-0.01984,0.009,-0.04501
8.273,0.00122,-0.03952,0.02197,-0.01434,-0.02045,-0.03525,0.02365,-0.01328,0.01846,-0.02228,-0.01404,-0.02533,-0.03159,-0.02167,0.00809,-0.04471
8.2735,0.00137,-0.03876,0.0032,-0.02075,-0.02045,-0.03525,0.02258,-0.02411,0.01938,-0.02609,-0.01297,-0.02243,-0.03082,-0.02274,0.00885,-0.04547
8.274,0.00076,-0.03479,-0.01312,-0.0293,-0.0206,-0.0351,0.01785,-0.03571,0.01953,-0.02838,-0.01083,-0.01923,-0.03128,-0.02243,0.00854,-0.04639
8.2745,-0.00015,-0.02975,-0.03494,-0.03769,-0.01968,-0.03738,0.01144,-0.04745,0.01923,-0.02914,-0.01038,-0.01297,-0.03204,-0.0206,0.0087,-0.0473
8.275,-0.00092,-0.02609,-0.07355,-0.04364,-0.02075,-0.03876,0.00443,-0.05692,0.01862,-0.02731,-0.01175,-0.00397,-0.0325,-0.02075,0.00916,-0.04807
8.2755,-0.00183,-0.0235,-0.12238,-0.04852,-0.0209,-0.03922,-0.00046,-0.0618,0.01953,-0.02716,-0.01297,0.00641,-0.03174,-0.01953,0.00931,-0.04852
8.276,-0.00397,-0.02411,-0.15656,-0.05432,-0.02274,-0.04028,-0.00122,-0.06027,0.01968,-0.02716,-0.0119,0.01282,-0.03113,-0.01831,0.00931,-0.04715
8.2765,-0.00549,-0.02655,-0.15442,-0.05951,-0.02411,-0.04318,-0.00031,-0.056,0.01831,-0.02762,-0.01022,0.01526,-0.03174,-0.01663,0.0087,-0.04623
8.277,-0.00717,-0.02853,-0.11795,-0.05966,-0.02457,-0.0473,0.00153,-0.05096,0.01541,-0.02777,-0.00732,0.01419,-0.03204,-0.01556,0.0087,-0.04623
8.2775,-0.00885,-0.02899,-0.06729,-0.05661,-0.02472,-0.05127,0.00046,-0.04639,0.01007,-0.02808,-0.00443,0.0119,-0.03067,-0.01495,0.009,-0.04684
8.278,-0.01068,-0.02823,-0.01923,-0.05142,-0.02686,-0.05173,0.00061,-0.04135,0.0032,-0.02563,-0.00412,0.01007,-0.03067,-0.01587,0.00763,-0.04684
8.2785,-0.01083,-0.02731,0.01968,-0.04684,-0.03036,-0.05157,0.00198,-0.03616,-0.00366,-0.0235,-0.00427,0.00778,-0.03052,-0.0174,0.00778,-0.0473
8.279,-0.00992,-0.02853,0.04349,-0.04303,-0.03738,-0.05325,0.00351,-0.02991,-0.00931,-0.02625,-0.0029,0.00549,-0.03143,-0.01862,0.0087,-0.04791
8.2795,-0.00717,-0.03128,0.05249,-0.03677,-0.04517,-0.05615,0.00473,-0.02289,-0.01175,-0.02731,-0.00214,0.00488,-0.03174,-0.0177,0.00961,-0.0473
8.28,-0.00412,-0.03448,0.04654,-0.0264,-0.04959,-0.0589,0.00458,-0.01511,-0.01175,-0.02914,-0.00214,0.00778,-0.03235,-0.01602,0.00977,-0.04669
8.2805,-0.00229,-0.03784,0.03296,-0.0174,-0.0502,-0.05859,0.00259,-0.00839,-0.01251,-0.02792,-0.00473,0.01404,-0.0322,-0.01434,0.00839,-0.047
8.281,-0.00229,-0.04105,0.01724,-0.01358,-0.04593,-0.05508,0.00061,-0.00443,-0.01495,-0.02762,-0.00641,0.02197,-0.03082,-0.01465,0.00793,-0.04578
8.2815,-0.00137,-0.04272,0.00259,-0.01404,-0.04303,-0.05127,0.00031,-0.00229,-0.0177,-0.02594,-0.0058,0.02945,-0.03021,-0.01556,0.00824,-0.04379
8.282,0.00046,-0.04333,-0.00916,-0.01419,-0.04181,-0.05096,0.00031,-0.00275,-0.01907,-0.02655,-0.00488,0.03372,-0.03052,-0.0148,0.00931,-0.04288
8.2825,0.00244,-0.0441,-0.01892,-0.01282,-0.04135,-0.04807,-0.00031,-0.00412,-0.01785,-0.02625,-0.00549,0.03342,-0.03174,-0.01373,0.00931,-0.04471
8.283,0.00504,-0.04669,-0.02762,-0.01282,-0.03952,-0.04486,-0.00229,-0.00549,-0.01541,-0.02518,-0.00641,0.03082,-0.03342,-0.01236,0.009,-0.04822
8.2835,0.00702,-0.05081,-0.0351,-0.01389,-0.03815,-0.04242,-0.00412,-0.00626,-0.01251,-0.02625,-0.00854,0.02777,-0.03479,-0.01205,0.009,-0.0502
8.284,0.0087,-0.05463,-0.04181,-0.0148,-0.03754,-0.04211,-0.00305,-0.00717,-0.01038,-0.02533,-0.00992,0.02594,-0.03418,-0.01114,0.0087,-0.04913
8.2845,0.00961,-0.05753,-0.04456,-0.01236,-0.03784,-0.04089,-0.00244,-0.0087,-0.01022,-0.02548,-0.01114,0.02579,-0.03418,-0.00916,0.00839,-0.04761
8.285,0.00916,-0.06332,-0.04425,-0.00748,-0.03693,-0.04318,-0.00336,-0.00931,-0.00961,-0.02518,-0.0119,0.02579,-0.03403,-0.00748,0.00748,-0.04623
8.2855,0.00748,-0.07034,-0.04395,-0.00183,-0.03372,-0.0444,-0.00366,-0.00931,-0.009,-0.02426,-0.01556,0.02518,-0.03418,-0.00793,0.00809,-0.04715
8.286,0.00702,-0.07431,-0.0473,0.00168,-0.0325,-0.04456,-0.00336,-0.009,-0.00778,-0.02533,-0.01801,0.0235,-0.03403,-0.00946,0.00839,-0.04868
8.2865,0.00854,-0.07065,-0.05219,0.00427,-0.03342,-0.04578,-0.00259,-0.0087,-0.00809,-0.0264,-0.01663,0.02045,-0.0354,-0.01053,0.00839,-0.04868
8.287,0.00946,-0.06195,-0.05554,0.00473,-0.0354,-0.0444,-0.0029,-0.00778,-0.00931,-0.02701,-0.01297,0.01877,-0.03616,-0.01068,0.00809,-0.04562
8.2875,0.0061,-0.05493,-0.05646,0.00229,-0.03616,-0.04517,-0.00458,-0.00946,-0.00916,-0.02594,-0.0119,0.01556,-0.0354,-0.01099,0.00824,-0.04364
8.288,0.00046,-0.05234,-0.05524,-0.00229,-0.03555,-0.04745,-0.00671,-0.01251,-0.00809,-0.02457,-0.01297,0.01175,-0.03479,-0.0119,0.0087,-0.04578
8.2885,-0.00183,-0.05035,-0.05432,-0.00687,-0.0354,-0.04868,-0.00961,-0.01617,-0.00809,-0.02472,-0.01419,0.00824,-0.0351,-0.01312,0.00885,-0.04974
8.289,-0.00122,-0.04761,-0.05219,-0.01022,-0.03403,-0.04852,-0.0145,-0.01648,-0.00946,-0.02579,-0.01541,0.00397,-0.03464,-0.01419,0.00931,-0.05173
8.2895,0.00046,-0.04303,-0.04898,-0.0116,-0.03143,-0.04837,-0.01709,-0.01297,-0.00946,-0.02609,-0.01831,0.00061,-0.03387,-0.0145,0.00916,-0.05051
8.29,0.00031,-0.0386,-0.04517,-0.0116,-0.02945,-0.04715,-0.01801,-0.00885,-0.00824,-0.0264,-0.02167,-0.00092,-0.03403,-0.01465,0.00854,-0.04684
8.2905,-0.00275,-0.03555,-0.04181,-0.01099,-0.02853,-0.04837,-0.01678,-0.00809,-0.00687,-0.02655,-0.02426,-0.0029,-0.03448,-0.01617,0.00992,-0.04318
8.291,-0.0058,-0.03387,-0.04013,-0.01038,-0.02884,-0.05005,-0.01694,-0.00931,-0.00717,-0.02472,-0.02426,-0.00473,-0.03418,-0.01755,0.01038,-0.04135
8.2915,-0.0058,-0.03281,-0.04013,-0.00748,-0.02731,-0.04944,-0.01785,-0.0087,-0.00793,-0.02426,-0.02197,-0.00626,-0.03326,-0.0177,0.00992,-0.04135
8.292,-0.00336,-0.03113,-0.04211,-0.00214,-0.02716,-0.04761,-0.01907,-0.00641,-0.00839,-0.02411,-0.01968,-0.00702,-0.03235,-0.01678,0.00946,-0.04257
8.2925,-0.00137,-0.02975,-0.04517,-0.00031,-0.02701,-0.04684,-0.02045,-0.0058,-0.00854,-0.02274,-0.01678,-0.00793,-0.03281,-0.01526,0.009,-0.04318
8.293,-0.00244,-0.02747,-0.04639,-0.00458,-0.02686,-0.04822,-0.02151,-0.00778,-0.00931,-0.02335,-0.01633,-0.00992,-0.03326,-0.0145,0.00824,-0.04333
8.2935,-0.00473,-0.02365,-0.04776,-0.01526,-0.0264,-0.05035,-0.02228,-0.00931,-0.00977,-0.02289,-0.01602,-0.0119,-0.03235,-0.0119,0.0087,-0.04349
8.294,-0.00656,-0.01968,-0.05188,-0.02335,-0.0264,-0.05096,-0.02274,-0.00595,-0.0087,-0.02213,-0.01602,-0.01297,-0.03128,-0.00931,0.00946,-0.04135
8.2945,-0.00748,-0.01968,-0.05981,-0.02609,-0.02686,-0.04883,-0.02197,0.00427,-0.00854,-0.02411,-0.01755,-0.01495,-0.03189,-0.00717,0.009,-0.03876
8.295,-0.009,-0.02502,-0.06912,-0.02792,-0.02701,-0.04623,-0.02075,0.01633,-0.01038,-0.02441,-0.02045,-0.01617,-0.03204,-0.00748,0.00916,-0.03754
8.2955,-0.01068,-0.03357,-0.07675,-0.03601,-0.02716,-0.04654,-0.01999,0.02182,-0.01297,-0.02121,-0.02258,-0.01572,-0.03174,-0.00748,0.0087,-0.03754
8.296,-0.01297,-0.04059,-0.07813,-0.05341,-0.02731,-0.04623,-0.02167,0.01602,-0.01404,-0.01984,-0.0235,-0.01587,-0.03159,-0.00809,0.00824,-0.03906
8.2965,-0.01434,-0.04395,-0.07233,-0.07843,-0.02579,-0.04745,-0.02289,0.00351,-0.01373,-0.01862,-0.02274,-0.01816,-0.03189,-0.00793,0.00748,-0.03937
8.297,-0.01633,-0.04623,-0.06104,-0.10956,-0.02518,-0.04944,-0.0235,-0.00763,-0.01221,-0.01892,-0.02304,-0.0235,-0.03113,-0.00763,0.00687,-0.03922
8.2975,-0.01877,-0.04852,-0.04654,-0.12421,-0.02472,-0.04898,-0.02457,-0.01236,-0.0119,-0.01801,-0.02426,-0.0296,-0.03128,-0.009,0.0087,-0.04105
8.298,-0.01984,-0.05127,-0.03189,-0.07889,-0.02396,-0.04883,-0.02686,-0.0116,-0.0119,-0.01907,-0.02365,-0.03494,-0.03143,-0.01175,0.00946,-0.04166
8.2985,-0.02045,-0.05341,-0.02121,0.03448,-0.02304,-0.0473,-0.03174,-0.01572,-0.01343,-0.01923,-0.02258,-0.03815,-0.03189,-0.0148,0.00992,-0.04196
8.299,-0.01999,-0.05585,-0.01663,0.14359,-0.02243,-0.04944,-0.03571,-0.02914,-0.01495,-0.02045,-0.01938,-0.03891,-0.0325,-0.01755,0.00885,-0.04059
8.2995,-0.01678,-0.05768,-0.0174,0.17029,-0.02136,-0.04852,-0.03448,-0.04242,-0.01526,-0.01953,-0.01755,-0.03845,-0.03281,-0.02014,0.00885,-0.04044
8.3,-0.01343,-0.05692,-0.02029,0.12299,-0.02075,-0.04761,-0.02808,-0.04135,-0.01373,-0.02029,-0.01633,-0.03769,-0.03342,-0.0206,0.009,-0.03967
8.3005,-0.01175,-0.05371,-0.02411,0.07538,-0.02106,-0.04745,-0.02106,-0.0174,-0.01328,-0.01999,-0.01633,-0.03769,-0.03265,-0.02014,0.00854,-0.03876
8.301,-0.01114,-0.05157,-0.02747,0.06271,-0.02182,-0.04791,-0.01709,0.02304,-0.01358,-0.01999,-0.01724,-0.03845,-0.03159,-0.01953,0.00885,-0.03815
8.3015,-0.01007,-0.05005,-0.03082,0.06134,-0.0235,-0.05051,-0.01343,0.05814,-0.01465,-0.01694,-0.01785,-0.04013,-0.03174,-0.01999,0.00885,-0.03769
8.302,-0.00854,-0.04974,-0.03113,0.04868,-0.02502,-0.05066,-0.00839,0.0618,-0.01511,-0.01358,-0.01877,-0.0412,-0.03281,-0.02045,0.00885,-0.03815
8.3025,-0.00961,-0.05066,-0.03433,0.03159,-0.02716,-0.04974,-0.00458,0.02426,-0.01526,-0.01541,-0.01907,-0.0415,-0.03342,-0.0209,0.00839,-0.03845
8.303,-0.01205,-0.05234,-0.03922,0.02472,-0.02792,-0.04837,-0.00412,-0.03036,-0.01633,-0.01419,-0.01862,-0.04089,-0.03479,-0.01999,0.00778,-0.03952
8.3035,-0.01328,-0.05203,-0.047,0.02594,-0.02762,-0.04761,-0.00687,-0.06073,-0.01801,-0.01617,-0.01877,-0.03983,-0.03555,-0.01678,0.00793,-0.04028
8.304,-0.01251,-0.04593,-0.05661,0.02472,-0.02731,-0.0473,-0.00961,-0.04593,-0.01923,-0.0174,-0.01907,-0.03906,-0.03586,-0.01495,0.00748,-0.04028
8.3045,-0.01053,-0.03479,-0.07355,0.02045,-0.02747,-0.04669,-0.01068,-0.01129,-0.02014,-0.01694,-0.01938,-0.0383,-0.03494,-0.01373,0.00793,-0.03906
8.305,-0.0087,-0.02228,-0.11398,0.01587,-0.02686,-0.04639,-0.01221,-0.00015,-0.01968,-0.01404,-0.01801,-0.03662,-0.03326,-0.01266,0.00778,-0.0386
8.3055,-0.00839,-0.01282,-0.18311,0.01434,-0.0264,-0.04517,-0.01541,-0.01755,-0.01968,-0.01312,-0.01572,-0.03571,-0.03143,-0.01114,0.00854,-0.0383
8.306,-0.00961,-0.0119,-0.2446,0.01419,-0.02579,-0.04486,-0.01709,-0.02777,-0.01984,-0.01495,-0.01373,-0.03494,-0.03113,-0.00854,0.00854,-0.03906
8.3065,-0.01068,-0.0174,-0.24658,0.01251,-0.02426,-0.04639,-0.02121,-0.00092,-0.02136,-0.01663,-0.01297,-0.03296,-0.03067,-0.00824,0.00824,-0.03922
8.307,-0.01297,-0.02716,-0.17334,0.00961,-0.02457,-0.04623,-0.03448,0.05493,-0.02213,-0.0174,-0.01434,-0.03113,-0.03143,-0.01007,0.00748,-0.03983
8.3075,-0.01419,-0.03448,-0.05951,0.0058,-0.02365,-0.04501,-0.06027,0.10269,-0.02335,-0.01892,-0.01556,-0.0296,-0.03265,-0.0116,0.00687,-0.03983
8.308,-0.01251,-0.03662,0.04913,0.00214,-0.02518,-0.04211,-0.09018,0.11246,-0.02396,-0.02106,-0.01495,-0.02853,-0.03387,-0.01007,0.00839,-0.03922
8.3085,-0.01038,-0.03464,0.12772,-0.00244,-0.02731,-0.0412,-0.11093,0.08713,-0.02396,-0.02151,-0.01282,-0.02792,-0.03494,-0.00671,0.00854,-0.03922
8.309,-0.01038,-0.03235,0.16922,-0.00656,-0.02838,-0.04181,-0.11322,0.05157,-0.0235,-0.02289,-0.01175,-0.02655,-0.0351,-0.00519,0.00885,-0.03937
8.3095,-0.01343,-0.03296,0.17334,-0.00977,-0.02869,-0.04532,-0.1033,0.02701,-0.02197,-0.02319,-0.01251,-0.02502,-0.0351,-0.00717,0.00778,-0.03952
8.31,-0.01724,-0.03586,0.14526,-0.01144,-0.02884,-0.04562,-0.09125,0.01801,-0.02197,-0.02243,-0.01297,-0.02335,-0.03448,-0.00885,0.00824,-0.03876
8.3105,-0.02121,-0.0386,0.10056,-0.01358,-0.02899,-0.05096,-0.07904,0.01419,-0.02213,-0.02167,-0.0119,-0.0235,-0.03357,-0.00854,0.00717,-0.03876
8.311,-0.02319,-0.04059,0.05569,-0.01526,-0.03021,-0.05249,-0.06424,0.00977,-0.02258,-0.01923,-0.01007,-0.0238,-0.03128,-0.00809,0.00671,-0.0383
8.3115,-0.02457,-0.04425,0.02121,-0.01678,-0.03143,-0.05539,-0.0415,0.00305,-0.02136,-0.01801,-0.009,-0.02213,-0.02808,-0.00854,0.00732,-0.03891
8.312,-0.02518,-0.05264,-0.00366,-0.01816,-0.03387,-0.0563,-0.00259,-0.00076,-0.02136,-0.01953,-0.01053,-0.02121,-0.02716,-0.01068,0.00854,-0.03952
8.3125,-0.02716,-0.06012,-0.02289,-0.01892,-0.0351,-0.05768,0.04715,-0.00259,-0.02151,-0.02029,-0.01266,-0.02213,-0.0267,-0.01144,0.00809,-0.04044
8.313,-0.03082,-0.06821,-0.03876,-0.01923,-0.03372,-0.05783,0.08118,-0.00305,-0.02197,-0.02136,-0.01358,-0.02243,-0.02747,-0.01083,0.00702,-0.03998
8.3135,-0.03281,-0.07782,-0.0528,-0.01999,-0.03143,-0.05585,0.07629,-0.00168,-0.02213,-0.02075,-0.01328,-0.01999,-0.02838,-0.01022,0.00671,-0.03998
8.314,-0.03143,-0.08377,-0.06424,-0.0206,-0.03006,-0.05219,0.04913,0.00153,-0.02365,-0.02136,-0.0145,-0.01923,-0.02991,-0.01266,0.00763,-0.04013
8.3145,-0.02945,-0.07797,-0.07538,-0.02182,-0.03098,-0.05249,0.02777,0.00458,-0.02365,-0.02182,-0.01587,-0.01617,-0.03204,-0.01526,0.00687,-0.04181
8.315,-0.02563,-0.06119,-0.08972,-0.02365,-0.03174,-0.05341,0.01419,0.0061,-0.02243,-0.02075,-0.01633,-0.01404,-0.0322,-0.01617,0.00702,-0.0415
8.3155,-0.01862,-0.04532,-0.10483,-0.02426,-0.03235,-0.05402,0.00107,0.00656,-0.02121,-0.01892,-0.0148,-0.01068,-0.03296,-0.01526,0.00778,-0.04013
8.316,-0.00641,-0.03632,-0.11703,-0.02197,-0.0322,-0.05371,-0.00366,0.00732,-0.02014,-0.02075,-0.01419,-0.00763,-0.0322,-0.01724,0.00763,-0.0383
8.3165,0.0058,-0.03128,-0.11948,-0.01923,-0.03128,-0.05112,0.00519,0.00824,-0.02045,-0.02243,-0.01495,-0.00702,-0.03113,-0.02014,0.00748,-0.0383
8.317,0.01419,-0.02609,-0.1123,-0.01709,-0.0322,-0.0473,0.01129,0.00824,-0.02243,-0.02167,-0.01526,-0.00626,-0.03098,-0.02136,0.00748,-0.03952
8.3175,0.01816,-0.0209,-0.09613,-0.01694,-0.03326,-0.04715,0.00046,0.00671,-0.0238,-0.02106,-0.01236,-0.00519,-0.03174,-0.02182,0.00702,-0.04044
8.318,0.01862,-0.01663,-0.07736,-0.0177,-0.03448,-0.04654,-0.01495,0.00443,-0.02319,-0.01968,-0.00809,-0.00336,-0.03296,-0.02075,0.00534,-0.03983
8.3185,0.01724,-0.01419,-0.06256,-0.01709,-0.03448,-0.04517,-0.01862,0.00153,-0.02151,-0.01801,-0.00702,-0.00214,-0.03296,-0.02045,0.00412,-0.03891
8.319,0.01602,-0.01358,-0.05203,-0.0145,-0.03372,-0.0444,-0.01526,-0.00534,-0.02075,-0.01862,-0.00946,-0.00031,-0.03082,-0.01892,0.00443,-0.03906
8.3195,0.01511,-0.01617,-0.047,-0.01343,-0.03342,-0.04364,-0.02975,-0.0177,-0.01999,-0.01648,-0.01175,0.00061,-0.02838,-0.01724,0.00626,-0.03937
8.32,0.01282,-0.02121,-0.0441,-0.0148,-0.03403,-0.04456,-0.06531,-0.03479,-0.02045,-0.01205,-0.01358,0.00275,-0.02731,-0.01587,0.00702,-0.03845
8.3205,0.0087,-0.0264,-0.04333,-0.0174,-0.03372,-0.04517,-0.09872,-0.04822,-0.02106,-0.00809,-0.01572,0.00427,-0.0267,-0.01587,0.00671,-0.03708
8.321,0.00641,-0.03098,-0.0441,-0.01801,-0.03159,-0.04456,-0.11093,-0.05203,-0.02075,-0.009,-0.01831,0.00534,-0.02609,-0.01541,0.0061,-0.03723
8.3215,0.00641,-0.03265,-0.0444,-0.01678,-0.03098,-0.04364,-0.10849,-0.04883,-0.01953,-0.01312,-0.01801,0.0058,-0.02686,-0.01602,0.0061,-0.03906
8.322,0.00717,-0.03372,-0.04272,-0.01373,-0.03235,-0.04532,-0.11292,-0.04745,-0.0177,-0.01465,-0.01465,0.00641,-0.02991,-0.01556,0.00702,-0.03891
8.3225,0.00748,-0.03387,-0.04089,-0.01022,-0.03464,-0.04623,-0.12848,-0.04959,-0.01724,-0.01389,-0.01114,0.0087,-0.03357,-0.01526,0.00626,-0.03937
8.323,0.00412,-0.03387,-0.03952,-0.00763,-0.03586,-0.04669,-0.14236,-0.05432,-0.01907,-0.01266,-0.00977,0.01068,-0.03723,-0.01602,0.0058,-0.03998
8.3235,-0.00015,-0.03311,-0.03784,-0.00687,-0.03632,-0.04654,-0.14099,-0.0589,-0.02045,-0.01221,-0.0087,0.01358,-0.04013,-0.01877,0.00626,-0.04013
8.324,-0.00534,-0.03433,-0.03494,-0.00641,-0.03555,-0.04471,-0.11475,-0.06149,-0.01999,-0.0119,-0.00763,0.01328,-0.04257,-0.02014,0.00671,-0.04105
8.3245,-0.00763,-0.03693,-0.03311,-0.00641,-0.03616,-0.04501,-0.0444,-0.05905,-0.01968,-0.01389,-0.00763,0.0119,-0.04318,-0.01938,0.00641,-0.0412
8.325,-0.00702,-0.03891,-0.03006,-0.0058,-0.03784,-0.04837,0.07584,-0.0528,-0.01953,-0.01572,-0.00824,0.01297,-0.04181,-0.01648,0.00565,-0.0412
8.3255,-0.00717,-0.03738,-0.0264,-0.00671,-0.03922,-0.04562,0.19608,-0.04715,-0.02075,-0.01541,-0.00809,0.01617,-0.04059,-0.01556,0.00702,-0.0412
8.326,-0.01007,-0.03464,-0.0235,-0.00961,-0.04028,-0.04593,0.22903,-0.0473,-0.0209,-0.01465,-0.00793,0.01923,-0.0415,-0.01541,0.00565,-0.04105
8.3265,-0.01358,-0.03326,-0.02441,-0.01205,-0.03937,-0.04639,0.14008,-0.04852,-0.02029,-0.01419,-0.00961,0.02029,-0.04288,-0.01572,0.00519,-0.03967
8.327,-0.01434,-0.03448,-0.02426,-0.01434,-0.03922,-0.04623,-0.01328,-0.0386,-0.01953,-0.01465,-0.01266,0.01846,-0.04135,-0.01495,0.00565,-0.03922
8.3275,-0.01495,-0.03632,-0.02258,-0.01419,-0.04059,-0.0444,-0.14252,-0.01266,-0.02014,-0.01389,-0.01297,0.01877,-0.03769,-0.01205,0.00549,-0.03983
8.328,-0.01495,-0.03815,-0.02045,-0.01343,-0.04105,-0.04318,-0.21103,0.01404,-0.02075,-0.01495,-0.01038,0.01984,-0.03357,-0.00916,0.00534,-0.04044
8.3285,-0.01419,-0.03845,-0.02075,-0.01099,-0.04028,-0.04471,-0.22552,0.02213,-0.0206,-0.01785,-0.00824,0.02289,-0.03113,-0.00885,0.00595,-0.04089
8.329,-0.01221,-0.03983,-0.01846,-0.00916,-0.03967,-0.04807,-0.1973,0.009,-0.02029,-0.0206,-0.00931,0.02518,-0.02548,-0.01129,0.00671,-0.03952
8.3295,-0.00946,-0.0415,-0.0177,-0.00763,-0.03922,-0.04822,-0.16052,-0.01129,-0.01984,-0.02106,-0.01129,0.02548,-0.01663,-0.01419,0.00732,-0.03952
8.33,-0.0087,-0.04211,-0.01617,-0.00793,-0.03769,-0.047,-0.16693,-0.02899,-0.01953,-0.01999,-0.01389,0.02335,-0.00626,-0.01404,0.00809,-0.04059
8.3305,-0.00977,-0.04318,-0.01572,-0.01053,-0.03799,-0.04669,-0.19714,-0.04227,-0.01877,-0.01724,-0.0145,0.01816,-0.00107,-0.01144,0.00839,-0.0415
8.331,-0.01068,-0.04471,-0.01678,-0.01312,-0.03891,-0.04791,-0.1474,-0.04501,-0.01816,-0.01465,-0.01373,0.0119,-0.00549,-0.00992,0.00824,-0.04089
8.3315,-0.00946,-0.04608,-0.01907,-0.01282,-0.03967,-0.04974,0.0209,-0.0351,-0.01785,-0.0148,-0.01282,0.01022,-0.01709,-0.01068,0.00809,-0.0412
8.332,-0.00824,-0.04654,-0.02029,-0.0116,-0.03998,-0.0499,0.20874,-0.01389,-0.01816,-0.01389,-0.01236,0.01465,-0.02838,-0.01175,0.00885,-0.0412
8.3325,-0.00626,-0.04532,-0.02045,-0.01007,-0.03998,-0.04822,0.30548,0.01984,-0.01923,-0.01236,-0.01221,0.01999,-0.03433,-0.01144,0.00931,-0.04059
8.333,-0.00473,-0.04425,-0.01862,-0.01114,-0.04013,-0.04684,0.29648,0.05661,-0.01999,-0.0119,-0.0119,0.02335,-0.03586,-0.0087,0.0087,-0.03998
8.3335,-0.00381,-0.04532,-0.01556,-0.01312,-0.04059,-0.047,0.21515,0.07706,-0.02029,-0.01083,-0.0116,0.02472,-0.03799,-0.00977,0.00748,-0.04013
8.334,-0.0029,-0.04852,-0.01312,-0.01434,-0.04028,-0.0473,0.08331,0.07095,-0.01968,-0.01099,-0.01282,0.02579,-0.04089,-0.01434,0.00702,-0.04196
8.3345,0.00153,-0.05417,-0.01099,-0.01419,-0.04105,-0.047,-0.06058,0.04868,-0.01984,-0.01022,-0.01648,0.02594,-0.0441,-0.01953,0.00793,-0.04349
8.335,0.00717,-0.05753,-0.01022,-0.01312,-0.04135,-0.04562,-0.14801,0.02884,-0.0209,-0.01114,-0.01938,0.0267,-0.04669,-0.02365,0.0087,-0.04257
8.3355,0.01022,-0.05646,-0.00916,-0.01266,-0.04044,-0.04562,-0.14587,0.01801,-0.02136,-0.00977,-0.01999,0.0293,-0.04532,-0.02609,0.00916,-0.04013
8.336,0.00946,-0.04974,-0.00854,-0.01266,-0.03922,-0.04623,-0.06348,0.01373,-0.01953,-0.00809,-0.02045,0.03235,-0.04105,-0.02716,0.00824,-0.0383
8.3365,0.00687,-0.04471,-0.0061,-0.01205,-0.03769,-0.04562,0.08728,0.01358,-0.01816,-0.00824,-0.02075,0.03433,-0.0354,-0.02609,0.00885,-0.03922
8.337,0.00397,-0.04364,-0.00244,-0.01099,-0.03799,-0.04471,0.26566,0.01724,-0.0174,-0.00992,-0.02075,0.03403,-0.03448,-0.02365,0.00854,-0.04105
8.3375,0.00183,-0.0444,0.00092,-0.009,-0.03983,-0.04395,0.37521,0.02518,-0.01755,-0.01144,-0.02029,0.03464,-0.0383,-0.02045,0.00809,-0.04288
8.338,-0.00046,-0.04562,0.00122,-0.00824,-0.04105,-0.04654,0.36713,0.03387,-0.01831,-0.01282,-0.02014,0.03632,-0.04257,-0.01831,0.00748,-0.0444
8.3385,-0.00229,-0.04684,-0.00031,-0.01053,-0.04135,-0.0473,0.30869,0.0354,-0.02014,-0.01343,-0.01816,0.03784,-0.0444,-0.01846,0.00885,-0.04425
8.339,-0.00351,-0.04684,-0.00122,-0.01404,-0.04196,-0.04852,0.26459,0.02548,-0.01999,-0.01389,-0.01648,0.03784,-0.04471,-0.01816,0.00824,-0.04532
8.3395,-0.00626,-0.04578,-0.00015,-0.01694,-0.04135,-0.04623,0.19699,0.01022,-0.01923,-0.01343,-0.01678,0.03845,-0.04379,-0.01648,0.01007,-0.0444
8.34,-0.00885,-0.04257,0.00137,-0.01785,-0.04105,-0.04654,0.07782,-0.00092,-0.0177,-0.01328,-0.01892,0.03983,-0.04303,-0.01419,0.00977,-0.04379
8.3405,-0.01175,-0.03937,0.00061,-0.01755,-0.04074,-0.04807,0.01022,-0.00244,-0.01709,-0.01358,-0.01938,0.0412,-0.04272,-0.01236,0.0087,-0.04333
8.341,-0.01236,-0.03876,-0.00244,-0.0148,-0.04227,-0.04974,0.09598,0.00443,-0.01694,-0.01434,-0.01816,0.0412,-0.0412,-0.01068,0.00854,-0.04242
8.3415,-0.01205,-0.03998,-0.00656,-0.01251,-0.04166,-0.05142,0.24948,0.01053,-0.01678,-0.0148,-0.01602,0.03922,-0.03799,-0.00885,0.00916,-0.04257
8.342,-0.01434,-0.04028,-0.00748,-0.01282,-0.03998,-0.05188,0.28046,0.0119,-0.01587,-0.01404,-0.01419,0.03708,-0.03311,-0.00793,0.00961,-0.04257
8.3425,-0.01755,-0.03983,-0.00793,-0.01587,-0.03723,-0.05112,0.14938,0.00916,-0.01495,-0.01404,-0.01129,0.03616,-0.02808,-0.009,0.00885,-0.04379
8.343,-0.01999,-0.04135,-0.00885,-0.01862,-0.03769,-0.04822,0.00092,0.00687,-0.0148,-0.01434,-0.00717,0.03632,-0.02243,-0.01282,0.0087,-0.0444
