time,RectFemL,VastusMedL,VastusLatL,TibAntL,HamMedL,HamLatL,GastroMedL,GastroLatL,RectFemR,VastusMedR,VastusLatR,TibAntR,HamMedR,HamLatR,GastroMedR,GastroLatR
11.65,-0.00763,0.13,-0.10498,0.11551,-0.02914,-0.0705,-0.00656,0.00229,-0.02396,0.02106,-0.01801,-0.10162,-0.04456,-0.02518,0.06439,-0.0415
11.6505,-0.009,0.12527,-0.0914,0.10544,-0.03906,-0.06683,-0.00626,0.00168,-0.02121,0.02426,-0.01617,-0.10178,-0.04196,-0.0177,0.11612,-0.04379
11.651,-0.01007,0.12177,-0.06516,0.08987,-0.05447,-0.06393,-0.00763,0.00183,-0.01907,0.02945,-0.01526,-0.10269,-0.04257,-0.01251,0.11566,-0.04303
11.6515,-0.01144,0.12161,-0.0386,0.05157,-0.07355,-0.06638,-0.01068,0.00092,-0.01801,0.03082,-0.01541,-0.10651,-0.04288,-0.0119,0.06134,-0.03708
11.652,-0.01282,0.12024,-0.02151,-0.01663,-0.09476,-0.06943,-0.01373,-0.00153,-0.01846,0.02777,-0.01694,-0.11078,-0.04501,-0.0148,0.00351,-0.0293
11.6525,-0.01312,0.11597,-0.0148,-0.10651,-0.11658,-0.06958,-0.01419,-0.00381,-0.01877,0.02426,-0.01877,-0.11505,-0.05005,-0.02197,-0.01648,-0.02594
11.653,-0.01297,0.112,-0.01312,-0.19379,-0.13794,-0.06516,-0.01328,-0.00641,-0.01831,0.02121,-0.01984,-0.11841,-0.05829,-0.03006,-0.00778,-0.02899
11.6535,-0.01114,0.11414,-0.01129,-0.24628,-0.15045,-0.06012,-0.01266,-0.00885,-0.01724,0.01907,-0.02045,-0.12054,-0.06836,-0.03632,-0.00122,-0.03937
11.654,-0.00931,0.11826,-0.00946,-0.23804,-0.14221,-0.05722,-0.01389,-0.01053,-0.0177,0.01633,-0.0206,-0.12238,-0.07782,-0.03845,-0.00183,-0.05676
11.6545,-0.00778,0.11902,-0.01038,-0.1741,-0.11658,-0.05173,-0.01572,-0.01038,-0.01923,0.01434,-0.02045,-0.12344,-0.07813,-0.03342,0.00046,-0.06653
11.655,-0.00809,0.11429,-0.01404,-0.09521,-0.08255,-0.04272,-0.01831,-0.00977,-0.0206,0.0148,-0.01892,-0.1239,-0.06821,-0.02625,0.00626,-0.05402
11.6555,-0.00824,0.10712,-0.01633,-0.04425,-0.05157,-0.03403,-0.01923,-0.01007,-0.01923,0.01419,-0.01694,-0.12589,-0.05539,-0.02228,0.00885,-0.02899
11.656,-0.00702,0.10162,-0.01663,-0.03922,-0.03113,-0.02548,-0.0209,-0.01251,-0.01633,0.01129,-0.01511,-0.12878,-0.04929,-0.02457,0.00793,-0.01907
11.6565,-0.00534,0.09445,-0.01602,-0.06775,-0.02045,-0.02014,-0.02182,-0.01282,-0.01572,0.00854,-0.01419,-0.13229,-0.04639,-0.02747,0.00854,-0.02808
11.657,-0.00229,0.08743,-0.01587,-0.09186,-0.01587,-0.01755,-0.0209,-0.01099,-0.01877,0.00656,-0.01404,-0.13351,-0.03998,-0.02747,0.00793,-0.03937
11.6575,-0.00015,0.08301,-0.0174,-0.0769,-0.01175,-0.01831,-0.01892,-0.00839,-0.02045,0.00885,-0.01266,-0.13031,-0.03204,-0.02426,0.00473,-0.03586
11.658,0.00046,0.07904,-0.01892,-0.03189,-0.01068,-0.02045,-0.01862,-0.00778,-0.01816,0.01022,-0.009,-0.12619,-0.02899,-0.02258,0.00015,-0.02838
11.6585,0.00031,0.0737,-0.01907,0.01038,-0.01877,-0.02243,-0.02029,-0.00854,-0.01511,0.01053,-0.00488,-0.12466,-0.03479,-0.02487,-0.00427,-0.03067
11.659,-0.00015,0.06714,-0.01724,0.03189,-0.02869,-0.02808,-0.02319,-0.00839,-0.01465,0.00992,-0.00351,-0.12527,-0.04425,-0.02853,-0.00885,-0.0412
11.6595,-0.00031,0.06317,-0.01312,0.04257,-0.03342,-0.03662,-0.02502,-0.00656,-0.01724,0.00885,-0.00259,-0.12512,-0.04807,-0.03006,-0.0148,-0.05051
11.66,-0.00092,0.06302,-0.00778,0.05356,-0.02335,-0.04532,-0.02686,-0.00443,-0.0174,0.00961,-0.00122,-0.121,-0.04486,-0.02518,-0.01862,-0.056
11.6605,-0.00168,0.06348,-0.00427,0.05981,-0.00565,-0.04898,-0.02731,-0.00336,-0.01587,0.01205,0.0,-0.1152,-0.04028,-0.01663,-0.02609,-0.06454
11.661,-0.00198,0.06363,-0.00153,0.05844,0.00504,-0.05066,-0.02655,-0.00351,-0.01266,0.0116,-0.00153,-0.11002,-0.03723,-0.00992,-0.04379,-0.07492
11.6615,-0.00183,0.06531,-0.00137,0.05447,0.00244,-0.05112,-0.02365,-0.00366,-0.01068,0.01038,-0.00641,-0.10559,-0.03876,-0.00854,-0.07172,-0.07797
11.662,-0.00168,0.06897,-0.00488,0.05371,-0.01175,-0.04852,-0.02319,-0.00275,-0.00946,0.00931,-0.01389,-0.10193,-0.0441,-0.01282,-0.09903,-0.06866
11.6625,-0.00214,0.07355,-0.01205,0.05463,-0.03235,-0.03922,-0.02533,-0.00168,-0.0087,0.00824,-0.02213,-0.09705,-0.05127,-0.01846,-0.10483,-0.05264
11.663,-0.00061,0.07843,-0.01907,0.05356,-0.05737,-0.02899,-0.0264,0.00031,-0.00885,0.00687,-0.03296,-0.09232,-0.05508,-0.02319,-0.07507,-0.0383
11.6635,0.00244,0.08362,-0.0235,0.05676,-0.08514,-0.02625,-0.02701,-0.00046,-0.00977,0.00458,-0.04425,-0.08987,-0.0531,-0.02563,-0.0209,-0.03021
11.664,0.00443,0.08743,-0.02426,0.06424,-0.11154,-0.03113,-0.0264,-0.00153,-0.01099,0.00381,-0.05035,-0.08881,-0.04547,-0.02396,0.01968,-0.02472
11.6645,0.00412,0.08926,-0.02487,0.07141,-0.1236,-0.0383,-0.02701,-0.00275,-0.01068,0.00595,-0.05188,-0.08728,-0.03754,-0.01846,0.02411,-0.0206
11.665,0.00275,0.08789,-0.0264,0.0705,-0.11185,-0.04761,-0.02655,-0.00214,-0.01114,0.00519,-0.05219,-0.08316,-0.03189,-0.01251,-0.0032,-0.01968
11.6655,0.00214,0.08255,-0.0296,0.0618,-0.08438,-0.06302,-0.0267,-0.00214,-0.01175,0.00046,-0.05264,-0.07874,-0.02777,-0.00748,-0.02655,-0.02411
11.666,0.00031,0.07553,-0.0351,0.05325,-0.05997,-0.07599,-0.02716,-0.00244,-0.01221,-0.00397,-0.05112,-0.07477,-0.02411,-0.00412,-0.04593,-0.03189
11.6665,-0.00168,0.06882,-0.03845,0.04852,-0.04608,-0.06805,-0.02808,-0.0029,-0.0119,-0.00259,-0.04166,-0.07263,-0.02045,-0.00183,-0.07126,-0.03555
11.667,-0.00259,0.06683,-0.04074,0.04639,-0.04196,-0.04532,-0.02808,-0.00412,-0.01236,0.00076,-0.02518,-0.07248,-0.01648,-0.00473,-0.09842,-0.02853
11.6675,-0.0029,0.06821,-0.03998,0.04623,-0.04593,-0.03159,-0.02869,-0.00381,-0.01343,0.0058,-0.00565,-0.07202,-0.01282,-0.01083,-0.10757,-0.01938
11.668,-0.00412,0.07065,-0.03754,0.04395,-0.05905,-0.04333,-0.02975,-0.00336,-0.01556,0.00885,0.00732,-0.06973,-0.0119,-0.01526,-0.09415,-0.01694
11.6685,-0.0058,0.0705,-0.03632,0.03311,-0.0795,-0.06607,-0.03128,-0.00214,-0.01694,0.01709,0.01007,-0.06439,-0.0145,-0.0148,-0.06348,-0.02701
11.669,-0.00626,0.06653,-0.03494,0.01358,-0.08957,-0.07874,-0.03098,-0.00244,-0.01831,0.02914,0.00458,-0.0592,-0.01785,-0.0119,-0.02289,-0.03235
11.6695,-0.0061,0.0618,-0.03906,-0.00473,-0.07462,-0.07843,-0.0296,-0.0029,-0.01846,0.03601,-0.00229,-0.05417,-0.01892,-0.01038,0.01968,-0.02441
11.67,-0.00397,0.06073,-0.03738,-0.01526,-0.04196,-0.07584,-0.03006,-0.0032,-0.01785,0.03021,-0.00854,-0.04913,-0.02045,-0.01221,0.04761,-0.01709
11.6705,-0.00168,0.06577,-0.03632,-0.02472,-0.01587,-0.07431,-0.03067,-0.00259,-0.01724,0.01419,-0.0148,-0.04456,-0.02579,-0.01541,0.05554,-0.03128
11.671,-0.00015,0.07339,-0.0383,-0.04013,-0.01297,-0.06866,-0.03021,-0.00092,-0.01724,-0.00244,-0.01816,-0.04242,-0.03342,-0.01816,0.07828,-0.06622
11.6715,0.00092,0.07233,-0.0412,-0.05661,-0.02747,-0.05859,-0.02777,-0.00061,-0.01694,-0.01465,-0.02228,-0.04257,-0.0386,-0.01953,0.12985,-0.10147
11.672,0.00107,0.05249,-0.04074,-0.0618,-0.03998,-0.05188,-0.02563,-0.00198,-0.01694,-0.02167,-0.02533,-0.04272,-0.03937,-0.01984,0.1564,-0.11169
11.6725,0.00198,0.02121,-0.03983,-0.06134,-0.03983,-0.04974,-0.02487,-0.00305,-0.01709,-0.02396,-0.02747,-0.04639,-0.03799,-0.01938,0.10406,-0.09506
11.673,0.00275,-0.00351,-0.04211,-0.06897,-0.02853,-0.05066,-0.02563,-0.00275,-0.01709,-0.02335,-0.02899,-0.05066,-0.03387,-0.01907,0.01007,-0.065
11.6735,0.00504,-0.01694,-0.0441,-0.07904,-0.01343,-0.05066,-0.02518,-0.00015,-0.0177,-0.02335,-0.03098,-0.05371,-0.02808,-0.01862,-0.04623,-0.03815
11.674,0.0061,-0.02762,-0.04562,-0.06851,-0.00046,-0.05173,-0.02411,0.00076,-0.01694,-0.02121,-0.03036,-0.05264,-0.02258,-0.0177,-0.04028,-0.02914
11.6745,0.0061,-0.04303,-0.04456,-0.0351,0.00824,-0.056,-0.02243,0.00031,-0.01648,-0.01846,-0.03082,-0.04898,-0.01999,-0.01587,-0.01205,-0.03357
11.675,0.00595,-0.06226,-0.04272,-0.00305,0.00946,-0.05997,-0.02228,-0.00031,-0.01648,-0.01953,-0.02945,-0.047,-0.01923,-0.01389,0.00092,-0.03952
11.6755,0.00656,-0.08072,-0.04196,0.00275,0.00854,-0.05905,-0.02197,-0.00183,-0.01511,-0.02182,-0.02655,-0.04761,-0.01694,-0.01083,0.00397,-0.03952
11.676,0.00626,-0.09735,-0.04166,-0.01801,0.01068,-0.05585,-0.0209,-0.00412,-0.01404,-0.02548,-0.0235,-0.04852,-0.01373,-0.00748,0.01694,-0.04196
11.6765,0.00504,-0.10712,-0.03952,-0.05035,0.01831,-0.05615,-0.02182,-0.00626,-0.0145,-0.02899,-0.02197,-0.04761,-0.0148,-0.00626,0.03586,-0.05356
11.677,0.00443,-0.11108,-0.03357,-0.08163,0.02258,-0.06317,-0.02426,-0.00656,-0.0148,-0.03403,-0.02075,-0.04349,-0.02182,-0.00916,0.04395,-0.06516
11.6775,0.00397,-0.112,-0.03525,-0.10559,0.01648,-0.07309,-0.02625,-0.00549,-0.01465,-0.03677,-0.01907,-0.03922,-0.0325,-0.01434,0.03281,-0.06454
11.678,0.00183,-0.11475,-0.0473,-0.13641,-0.00092,-0.07858,-0.0267,-0.00458,-0.01343,-0.03708,-0.01541,-0.03845,-0.0412,-0.01984,0.01419,-0.05417
11.6785,-0.00137,-0.11902,-0.06805,-0.19119,-0.02335,-0.07401,-0.02472,-0.00397,-0.01297,-0.03677,-0.00916,-0.04074,-0.04257,-0.02045,0.00397,-0.04196
11.679,-0.0032,-0.121,-0.08133,-0.24918,-0.04486,-0.05539,-0.02197,-0.00336,-0.01312,-0.03494,-0.00137,-0.04211,-0.03784,-0.01755,0.00458,-0.03479
11.6795,-0.00244,-0.1181,-0.07767,-0.25925,-0.05722,-0.02716,-0.02151,-0.00183,-0.01465,-0.03174,0.00595,-0.04028,-0.03235,-0.01511,0.01251,-0.03098
11.68,-0.00076,-0.11108,-0.06317,-0.20599,-0.05676,-0.00031,-0.02243,-0.00061,-0.01526,-0.02777,0.01251,-0.03677,-0.02991,-0.01587,0.02213,-0.03235
11.6805,-0.00061,-0.10223,-0.05066,-0.12375,-0.04852,0.01419,-0.02319,-0.00214,-0.01541,-0.02228,0.01389,-0.03357,-0.03189,-0.01877,0.02747,-0.03754
11.681,-0.00198,-0.09598,-0.04379,-0.04929,-0.03693,0.01404,-0.02289,-0.00381,-0.01465,-0.01785,0.01328,-0.03143,-0.03296,-0.01938,0.02579,-0.04242
11.6815,-0.0032,-0.0975,-0.0383,-0.00046,-0.02991,0.00153,-0.02167,-0.00519,-0.01495,-0.01343,0.01404,-0.02991,-0.03143,-0.0174,0.01862,-0.04166
11.682,-0.0029,-0.10712,-0.0296,0.0029,-0.03433,-0.01755,-0.02045,-0.00641,-0.0177,-0.01083,0.01648,-0.0267,-0.02792,-0.01495,0.01312,-0.03403
11.6825,-0.00198,-0.12131,-0.02396,-0.04623,-0.04623,-0.03464,-0.01862,-0.00412,-0.02304,-0.01129,0.0177,-0.02258,-0.02548,-0.01404,0.01434,-0.02838
11.683,0.00015,-0.13626,-0.01968,-0.09369,-0.05569,-0.03983,-0.01724,-0.00198,-0.02762,-0.01495,0.01526,-0.01831,-0.02655,-0.01312,0.01587,-0.02945
11.6835,0.00229,-0.1474,-0.02243,-0.06744,-0.05341,-0.03174,-0.01602,0.00015,-0.02716,-0.01907,0.00854,-0.01541,-0.03082,-0.01328,0.01465,-0.02991
11.684,0.00214,-0.15213,-0.02426,0.03082,-0.03693,-0.02136,-0.01419,0.00031,-0.02365,-0.02197,-0.00015,-0.01495,-0.03632,-0.01312,0.0087,-0.02457
11.6845,0.00259,-0.14969,-0.02594,0.13,-0.0148,-0.01801,-0.01419,-0.00031,-0.01999,-0.02121,-0.00946,-0.01526,-0.03876,-0.01617,0.00275,-0.01678
11.685,0.00305,-0.14374,-0.02701,0.18814,0.00229,-0.02182,-0.01541,-0.00153,-0.01999,-0.00458,-0.01984,-0.01617,-0.03662,-0.01938,-0.00092,-0.01648
11.6855,0.00488,-0.13718,-0.02731,0.22415,0.00931,-0.0293,-0.01602,-0.00198,-0.0209,0.04669,-0.02716,-0.01755,-0.02991,-0.02121,-0.00122,-0.02594
11.686,0.00671,-0.1329,-0.02365,0.2536,0.01556,-0.03632,-0.01511,-0.0032,-0.02182,0.14175,-0.03342,-0.01984,-0.02441,-0.01907,-0.00183,-0.03647
11.6865,0.00854,-0.1358,-0.02304,0.26505,0.03067,-0.0386,-0.0145,-0.00397,-0.02167,0.24124,-0.03708,-0.02289,-0.0209,-0.01602,-0.00397,-0.04257
11.687,0.01129,-0.14618,-0.02289,0.24506,0.05524,-0.03616,-0.01328,-0.00504,-0.02045,0.29694,-0.04242,-0.02594,-0.01999,-0.01495,-0.00336,-0.04181
11.6875,0.01495,-0.16159,-0.02426,0.19302,0.07782,-0.03174,-0.01266,-0.00656,-0.01846,0.30045,-0.04456,-0.02655,-0.02014,-0.01785,-0.00458,-0.03845
11.688,0.01801,-0.17792,-0.02579,0.11581,0.09048,-0.0293,-0.01251,-0.00717,-0.01617,0.28671,-0.04333,-0.02304,-0.02365,-0.02151,-0.00122,-0.03586
11.6885,0.01968,-0.19318,-0.02472,0.02472,0.10117,-0.02991,-0.01343,-0.00641,-0.01526,0.28152,-0.04074,-0.01892,-0.02914,-0.02411,0.00366,-0.03403
11.689,0.01968,-0.20569,-0.02014,-0.06577,0.11658,-0.03159,-0.01404,-0.00336,-0.01862,0.27786,-0.03799,-0.01755,-0.03418,-0.02655,0.00504,-0.03708
11.6895,0.01862,-0.21408,-0.01602,-0.14252,0.13611,-0.03555,-0.01221,-0.00183,-0.02121,0.2623,-0.03433,-0.01831,-0.03464,-0.02869,0.00504,-0.04303
11.69,0.01724,-0.2182,-0.01221,-0.19287,0.14938,-0.04547,-0.01022,-0.00305,-0.02136,0.23773,-0.03067,-0.01984,-0.03311,-0.03143,0.00092,-0.04929
11.6905,0.01587,-0.2211,-0.00839,-0.21255,0.1474,-0.06271,-0.01007,-0.00443,-0.02121,0.20981,-0.02655,-0.02182,-0.03433,-0.03265,0.00107,-0.05493
11.691,0.0145,-0.22568,-0.00168,-0.19531,0.12878,-0.08316,-0.01099,-0.00519,-0.02151,0.18661,-0.02335,-0.02319,-0.03876,-0.03265,-0.00153,-0.06088
11.6915,0.01205,-0.22522,0.00473,-0.12741,0.0914,-0.10132,-0.01282,-0.00534,-0.02167,0.16418,-0.01892,-0.02335,-0.04166,-0.03006,-0.00519,-0.06805
11.692,0.00977,-0.21255,0.00488,-0.00488,0.03693,-0.1149,-0.01404,-0.00504,-0.02014,0.14282,-0.0148,-0.02213,-0.0386,-0.02533,-0.00229,-0.07004
11.6925,0.00839,-0.1915,0.00244,0.14069,-0.03006,-0.12558,-0.01465,-0.00427,-0.01755,0.12131,-0.01266,-0.02014,-0.03174,-0.02136,0.00656,-0.05737
11.693,0.00641,-0.16998,0.00137,0.24948,-0.09811,-0.13565,-0.01312,-0.0029,-0.0148,0.09949,-0.01297,-0.01694,-0.02655,-0.02121,0.01389,-0.03342
11.6935,0.0032,-0.14908,0.00778,0.27954,-0.16022,-0.14572,-0.01129,0.0,-0.01312,0.07858,-0.01358,-0.01373,-0.02533,-0.02487,0.01663,-0.01205
11.694,0.00122,-0.12177,0.0148,0.2417,-0.21957,-0.14938,-0.0087,0.00214,-0.01038,0.05814,-0.01221,-0.01343,-0.02701,-0.02945,0.01556,-0.009
11.6945,-0.00015,-0.09628,0.02213,0.18951,-0.27908,-0.14297,-0.00641,0.00305,-0.00763,0.03891,-0.01038,-0.01434,-0.03098,-0.03174,0.00656,-0.01984
11.695,-0.00092,-0.10422,0.02197,0.17395,-0.33737,-0.13016,-0.00443,0.00244,-0.00671,0.02106,-0.01038,-0.01404,-0.03784,-0.03067,-0.00275,-0.03204
11.6955,-0.00061,-0.15564,0.01266,0.19699,-0.37521,-0.1178,-0.0058,0.00092,-0.009,0.00366,-0.01144,-0.01205,-0.04593,-0.02899,-0.01114,-0.03326
11.696,0.00076,-0.20081,0.00809,0.22491,-0.3685,-0.10513,-0.00656,-0.00092,-0.01282,-0.01572,-0.01099,-0.00977,-0.04898,-0.02777,-0.00931,-0.02441
11.6965,0.00092,-0.1828,0.01724,0.22217,-0.31326,-0.08484,-0.00687,-0.00229,-0.01434,-0.03891,-0.00809,-0.01144,-0.04303,-0.0264,-0.00122,-0.01816
11.697,0.00107,-0.11581,0.03372,0.1796,-0.23453,-0.06287,-0.00717,-0.00366,-0.01266,-0.06271,-0.0058,-0.01877,-0.03403,-0.02457,0.00427,-0.02365
11.6975,0.00153,-0.05859,0.03235,0.11307,-0.16037,-0.05051,-0.00854,-0.0058,-0.0116,-0.08469,-0.00534,-0.02899,-0.0296,-0.02319,0.00626,-0.03891
11.698,0.00107,-0.03754,-0.00336,0.05432,-0.10544,-0.05051,-0.01083,-0.00687,-0.01343,-0.10147,-0.00763,-0.0354,-0.03387,-0.02228,0.00778,-0.05295
11.6985,-0.00031,-0.04608,-0.05508,0.0322,-0.07538,-0.04913,-0.01343,-0.00671,-0.01694,-0.11276,-0.00702,-0.0386,-0.03952,-0.02106,0.00977,-0.056
11.699,-0.00305,-0.09201,-0.10025,0.03616,-0.0647,-0.03922,-0.01541,-0.00595,-0.01755,-0.11963,-0.00443,-0.03906,-0.04074,-0.01907,0.01236,-0.05341
11.6995,-0.00549,-0.1767,-0.12695,0.01694,-0.06271,-0.02716,-0.01556,-0.00671,-0.01419,-0.12466,-0.00092,-0.03784,-0.03754,-0.01633,0.01419,-0.05463
11.7,-0.00778,-0.26245,-0.13855,-0.05112,-0.0502,-0.02457,-0.01419,-0.00748,-0.01175,-0.13016,0.00031,-0.03296,-0.03662,-0.01358,0.01587,-0.05951
11.7005,-0.00839,-0.30411,-0.13046,-0.1297,-0.02792,-0.03082,-0.01297,-0.00854,-0.01373,-0.13733,-0.00031,-0.02518,-0.03693,-0.01175,0.01862,-0.06271
11.701,-0.00809,-0.2948,-0.1091,-0.15625,-0.01114,-0.03418,-0.0148,-0.00916,-0.0174,-0.14465,-0.00595,-0.02029,-0.03601,-0.01266,0.02426,-0.06165
11.7015,-0.00702,-0.26657,-0.08453,-0.11887,-0.01144,-0.02655,-0.01526,-0.009,-0.0174,-0.1564,-0.01144,-0.01923,-0.0354,-0.0148,0.02731,-0.05493
11.702,-0.00824,-0.24719,-0.06683,-0.06989,-0.02151,-0.00687,-0.01434,-0.00961,-0.01389,-0.16724,-0.01617,-0.01907,-0.03708,-0.0177,0.02701,-0.0528
11.7025,-0.01282,-0.23376,-0.05371,-0.06317,-0.02762,0.01587,-0.0119,-0.009,-0.00824,-0.17563,-0.01801,-0.01602,-0.0415,-0.01907,0.02258,-0.06317
11.703,-0.01999,-0.20676,-0.04364,-0.0943,-0.0209,0.03296,-0.0116,-0.009,-0.00336,-0.17914,-0.01724,-0.01419,-0.04654,-0.01999,0.01541,-0.08408
11.7035,-0.0267,-0.16525,-0.03555,-0.12146,-0.00519,0.03662,-0.01022,-0.00778,0.00198,-0.18204,-0.01266,-0.01862,-0.04807,-0.01923,0.00595,-0.10056
11.704,-0.03128,-0.12421,-0.02899,-0.11475,0.01602,0.02869,-0.009,-0.00702,0.00671,-0.18753,-0.00656,-0.02838,-0.0473,-0.01862,-0.00366,-0.10513
11.7045,-0.03174,-0.09125,-0.02106,-0.08774,0.03647,0.01495,-0.00931,-0.00488,0.00793,-0.19485,-0.0032,-0.0383,-0.04669,-0.01785,-0.01099,-0.09674
11.705,-0.02945,-0.06409,-0.01572,-0.06744,0.05295,0.00061,-0.01068,-0.00214,0.00687,-0.20081,-0.00427,-0.04547,-0.04486,-0.01831,-0.01404,-0.07706
11.7055,-0.02625,-0.04242,-0.0145,-0.06027,0.06287,-0.01099,-0.01129,0.00046,0.00366,-0.20584,-0.00702,-0.05264,-0.04044,-0.01862,-0.01038,-0.0444
11.706,-0.02441,-0.03128,-0.01144,-0.05432,0.07095,-0.01724,-0.01038,0.0029,-0.00153,-0.20935,-0.00946,-0.05844,-0.03464,-0.02151,0.0,-0.00961
11.7065,-0.02258,-0.02625,-0.009,-0.04639,0.07813,-0.01785,-0.00931,0.00549,-0.009,-0.20859,-0.0116,-0.05905,-0.03082,-0.02396,0.01038,0.00992
11.707,-0.01984,-0.02029,-0.00793,-0.04257,0.08102,-0.01251,-0.00992,0.00656,-0.01801,-0.20584,-0.0145,-0.05356,-0.02686,-0.02411,0.01526,0.00946
11.7075,-0.01602,-0.00504,-0.01129,-0.04654,0.0766,-0.0061,-0.01282,0.0058,-0.02731,-0.20233,-0.01801,-0.04761,-0.02197,-0.02319,0.01297,-0.00549
11.708,-0.01266,0.01343,-0.01022,-0.05005,0.0621,0.0029,-0.01556,0.00229,-0.0354,-0.20233,-0.02213,-0.04562,-0.01648,-0.02167,0.00992,-0.01877
11.7085,-0.0116,0.0264,-0.00809,-0.04852,0.03616,0.01251,-0.01709,-0.0029,-0.03983,-0.20172,-0.02945,-0.04761,-0.01556,-0.02029,0.01129,-0.01968
11.709,-0.01053,0.02914,-0.00702,-0.04578,0.00458,0.02121,-0.01755,-0.00732,-0.03998,-0.19882,-0.03784,-0.05127,-0.01862,-0.01968,0.01328,-0.01144
11.7095,-0.01114,0.02304,-0.00885,-0.04318,-0.02167,0.03098,-0.01556,-0.01022,-0.03433,-0.19379,-0.04486,-0.05463,-0.02319,-0.01831,0.01236,-0.00671
11.71,-0.01053,0.01633,-0.01007,-0.04013,-0.03403,0.0412,-0.01312,-0.01099,-0.02899,-0.1886,-0.04318,-0.0592,-0.02838,-0.01862,0.00931,-0.01434
11.7105,-0.01068,0.01328,-0.00671,-0.03723,-0.03372,0.04456,-0.01129,-0.01144,-0.02869,-0.18326,-0.03372,-0.06424,-0.03555,-0.01984,0.00595,-0.03098
11.711,-0.0116,0.01205,0.00076,-0.03433,-0.02686,0.03967,-0.01114,-0.01083,-0.02777,-0.17746,-0.02075,-0.06577,-0.03937,-0.01953,0.0061,-0.04639
11.7115,-0.01266,0.00946,0.01038,-0.03052,-0.01831,0.02792,-0.01205,-0.0087,-0.02243,-0.16998,-0.01266,-0.06302,-0.03571,-0.01846,0.00809,-0.05585
11.712,-0.01495,0.00244,0.02045,-0.02075,-0.00931,0.0148,-0.01312,-0.00641,-0.01205,-0.16068,-0.00916,-0.05905,-0.02625,-0.01648,0.01083,-0.06378
11.7125,-0.01862,-0.00702,0.02853,-0.00656,-0.00076,0.00183,-0.01328,-0.00565,-0.00275,-0.15045,-0.00778,-0.05524,-0.01862,-0.01343,0.01221,-0.07034
11.713,-0.02319,-0.01282,0.02304,0.00778,0.00183,-0.01114,-0.01129,-0.00534,0.00183,-0.1387,-0.00687,-0.0499,-0.01541,-0.01022,0.01602,-0.07248
11.7135,-0.02701,-0.00809,0.00076,0.01801,-0.0061,-0.02441,-0.0087,-0.00549,0.00458,-0.12985,-0.00839,-0.04135,-0.01801,-0.00916,0.02441,-0.06577
11.714,-0.03006,0.00824,-0.03036,0.02457,-0.0235,-0.04028,-0.00717,-0.00519,0.00427,-0.1236,-0.01099,-0.03372,-0.02121,-0.01144,0.03021,-0.05615
11.7145,-0.03342,0.02869,-0.05417,0.0267,-0.03784,-0.05783,-0.00778,-0.00488,0.00275,-0.1207,-0.01541,-0.02838,-0.02365,-0.01541,0.0267,-0.05066
11.715,-0.03891,0.03494,-0.06683,0.02106,-0.04044,-0.07233,-0.00824,-0.00351,0.00214,-0.11856,-0.01907,-0.02777,-0.02502,-0.01816,0.01663,-0.04669
11.7155,-0.04532,0.01678,-0.06836,0.00931,-0.03479,-0.07919,-0.00824,-0.00275,0.00214,-0.11642,-0.02502,-0.02869,-0.0293,-0.02029,0.01022,-0.04181
11.716,-0.04929,-0.01358,-0.06027,0.00626,-0.02884,-0.07797,-0.00916,-0.00351,0.0,-0.11261,-0.0296,-0.02914,-0.03845,-0.02243,0.01221,-0.03769
11.7165,-0.05249,-0.03433,-0.04395,0.02609,-0.02335,-0.07553,-0.00885,-0.00412,-0.00305,-0.1088,-0.02762,-0.03098,-0.05035,-0.02426,0.01526,-0.03647
11.717,-0.0563,-0.03387,-0.02731,0.04883,-0.01801,-0.08072,-0.00763,-0.00351,-0.00488,-0.1059,-0.02014,-0.03525,-0.05981,-0.02365,0.01541,-0.03586
11.7175,-0.05997,-0.01465,-0.02228,0.03387,-0.01663,-0.09155,-0.00534,-0.00198,-0.00458,-0.1033,-0.01236,-0.0415,-0.06454,-0.02182,0.01373,-0.03632
11.718,-0.06058,0.01541,-0.02075,-0.009,-0.01907,-0.09811,-0.00351,-0.00076,-0.00275,-0.1004,-0.00946,-0.04578,-0.06226,-0.02121,0.01175,-0.03906
11.7185,-0.05692,0.04639,-0.00885,-0.01892,-0.01617,-0.09232,-0.00381,-0.00046,-0.0032,-0.0972,-0.01022,-0.04471,-0.05447,-0.02014,0.009,-0.04959
11.719,-0.05051,0.06027,0.01648,0.03265,-0.00015,-0.08423,-0.00412,-0.00153,-0.00305,-0.09567,-0.01175,-0.04089,-0.04517,-0.01678,0.00351,-0.06027
11.7195,-0.04608,0.04517,0.03098,0.09766,0.02075,-0.08987,-0.00427,-0.00153,0.00046,-0.09537,-0.01068,-0.03326,-0.03677,-0.01251,-0.00092,-0.05951
11.72,-0.04547,0.00626,0.01205,0.12115,0.03021,-0.11002,-0.00351,-0.00214,0.00412,-0.0946,-0.0087,-0.02075,-0.03113,-0.00854,-0.00031,-0.04959
11.7205,-0.04745,-0.03662,-0.03036,0.10254,0.0209,-0.12192,-0.00519,-0.00305,0.00549,-0.09323,-0.00702,-0.00809,-0.0264,-0.00671,0.00275,-0.04456
11.721,-0.04684,-0.06912,-0.06378,0.07584,0.00427,-0.11078,-0.00793,-0.00427,0.00412,-0.08881,-0.00778,-0.00381,-0.02106,-0.00702,0.00473,-0.05035
11.7215,-0.04318,-0.08759,-0.07416,0.05875,-0.00519,-0.08453,-0.009,-0.00336,0.00427,-0.08286,-0.00839,-0.00824,-0.01587,-0.00824,0.00427,-0.05615
11.722,-0.03891,-0.09491,-0.07111,0.04547,-0.00031,-0.06271,-0.00717,-0.00214,0.00626,-0.07797,-0.00809,-0.01129,-0.01373,-0.00992,0.00458,-0.05005
11.7225,-0.03616,-0.09628,-0.06577,0.02823,0.01495,-0.05371,-0.00595,-0.00137,0.00854,-0.07095,-0.00763,-0.00778,-0.01831,-0.01282,0.0087,-0.03922
11.723,-0.03723,-0.09537,-0.0589,0.00885,0.02319,-0.05417,-0.00504,-0.00214,0.009,-0.0592,-0.00778,-0.00137,-0.02762,-0.01587,0.01633,-0.03357
11.7235,-0.04135,-0.0943,-0.05035,-0.0174,0.0116,-0.0563,-0.00687,-0.00473,0.00336,-0.04257,-0.00839,0.00275,-0.03448,-0.01648,0.02274,-0.03448
11.724,-0.04639,-0.09277,-0.03876,-0.08514,-0.0119,-0.06302,-0.009,-0.0058,-0.00748,-0.02457,-0.00946,0.00244,-0.03296,-0.01526,0.02838,-0.03525
11.7245,-0.04822,-0.08881,-0.01862,-0.2327,-0.03052,-0.06882,-0.01266,-0.0058,-0.01999,-0.00916,-0.00961,-0.00015,-0.02869,-0.01434,0.02884,-0.03326
11.725,-0.04532,-0.08224,0.01297,-0.41702,-0.03799,-0.07385,-0.01556,-0.00534,-0.02838,0.00549,-0.00931,-0.00412,-0.0264,-0.01495,0.02747,-0.02747
11.7255,-0.03922,-0.07309,0.03616,-0.52979,-0.04425,-0.07355,-0.01709,-0.00534,-0.03235,0.0145,-0.009,-0.00885,-0.02548,-0.01572,0.02548,-0.02167
11.726,-0.03281,-0.06134,0.0209,-0.52444,-0.04837,-0.07172,-0.01709,-0.00549,-0.03387,0.01465,-0.00702,-0.01251,-0.02319,-0.01511,0.02411,-0.02243
11.7265,-0.02838,-0.04868,-0.03387,-0.44983,-0.04929,-0.07141,-0.01694,-0.00534,-0.03311,0.0058,-0.00412,-0.0148,-0.0206,-0.01465,0.01984,-0.03098
11.727,-0.02716,-0.03662,-0.09659,-0.35553,-0.05188,-0.07111,-0.01663,-0.00336,-0.03082,-0.00381,-0.00168,-0.01556,-0.02289,-0.0177,0.01587,-0.03998
11.7275,-0.02838,-0.02533,-0.13062,-0.24536,-0.07309,-0.06866,-0.01633,-0.00168,-0.02945,-0.00992,-0.00122,-0.0148,-0.02838,-0.02243,0.00671,-0.04318
11.728,-0.03159,-0.01785,-0.13489,-0.14954,-0.11765,-0.06592,-0.01663,-0.00076,-0.0293,-0.01129,-0.00092,-0.01175,-0.03021,-0.02426,0.00061,-0.04364
11.7285,-0.03647,-0.0174,-0.12634,-0.11932,-0.16678,-0.06271,-0.01648,-0.00092,-0.0296,-0.01129,-0.00076,-0.00732,-0.02518,-0.02304,-0.00336,-0.04379
11.729,-0.04074,-0.02014,-0.12024,-0.15182,-0.19485,-0.05814,-0.01648,-0.00076,-0.02716,-0.00854,-0.00259,-0.00229,-0.02014,-0.02197,-0.0032,-0.04562
11.7295,-0.04196,-0.01831,-0.11719,-0.17395,-0.18738,-0.05325,-0.01602,-0.00061,-0.02243,-0.00061,-0.00412,0.00107,-0.02258,-0.02258,-0.00153,-0.04761
11.73,-0.0412,-0.00854,-0.11826,-0.13,-0.15884,-0.04929,-0.01511,0.00046,-0.01831,0.01038,-0.00443,0.00046,-0.03265,-0.02533,0.00259,-0.05066
11.7305,-0.03906,0.00168,-0.11993,-0.02533,-0.12772,-0.0473,-0.01434,0.00031,-0.01602,0.01373,-0.00443,-0.00259,-0.0444,-0.02731,0.00839,-0.04974
11.731,-0.03799,0.00671,-0.12421,0.09003,-0.10773,-0.04593,-0.01312,0.00076,-0.01572,0.00168,-0.00671,-0.0032,-0.05127,-0.02762,0.0174,-0.04196
11.7315,-0.03662,0.00763,-0.12695,0.1738,-0.09598,-0.0444,-0.01251,0.00153,-0.01724,-0.02243,-0.01083,-0.00153,-0.05081,-0.02579,0.02335,-0.03311
11.732,-0.03296,0.00687,-0.12238,0.21149,-0.08301,-0.04318,-0.0119,0.00214,-0.01801,-0.04547,-0.01221,-0.00153,-0.04562,-0.02335,0.02274,-0.03036
11.7325,-0.02716,0.00107,-0.11292,0.22186,-0.06866,-0.04364,-0.01205,0.00259,-0.0174,-0.05585,-0.01175,-0.00381,-0.03952,-0.02167,0.01923,-0.03448
11.733,-0.02213,-0.00885,-0.09979,0.23514,-0.05432,-0.04608,-0.0116,0.00259,-0.01648,-0.0502,-0.01068,-0.00656,-0.03418,-0.02151,0.01602,-0.03876
11.7335,-0.0177,-0.02167,-0.08133,0.27084,-0.04959,-0.04822,-0.01083,0.00305,-0.01495,-0.03693,-0.00961,-0.00641,-0.03006,-0.02029,0.01633,-0.0386
11.734,-0.01328,-0.03204,-0.05127,0.32028,-0.05356,-0.04974,-0.00854,0.00229,-0.01511,-0.02472,-0.01022,-0.00458,-0.02716,-0.01846,0.01724,-0.03708
11.7345,-0.00809,-0.0386,-0.00748,0.36224,-0.06195,-0.05157,-0.00793,0.00229,-0.01526,-0.01862,-0.01038,-0.0029,-0.02533,-0.0174,0.01938,-0.03571
11.735,-0.0032,-0.03876,0.02869,0.38681,-0.06836,-0.056,-0.00916,0.0029,-0.01419,-0.02151,-0.01022,-0.00168,-0.02319,-0.01953,0.0209,-0.03372
11.7355,0.00031,-0.03464,0.02808,0.40283,-0.06271,-0.05966,-0.01038,0.00259,-0.01251,-0.02945,-0.01022,-0.00046,-0.01984,-0.02335,0.02426,-0.03143
11.736,0.00275,-0.02899,-0.00931,0.42175,-0.04669,-0.05753,-0.0116,0.00229,-0.0116,-0.03433,-0.01083,0.00046,-0.0177,-0.0264,0.02594,-0.02914
11.7365,0.00351,-0.02289,-0.05615,0.44098,-0.02228,-0.04761,-0.01175,0.00076,-0.01358,-0.03342,-0.01404,0.00137,-0.0209,-0.02747,0.02274,-0.02792
11.737,0.00458,-0.01678,-0.08392,0.45227,-0.00839,-0.03525,-0.01297,-0.00015,-0.01633,-0.03067,-0.01923,0.00259,-0.02792,-0.02853,0.01663,-0.02914
11.7375,0.00671,-0.009,-0.09415,0.45624,-0.0029,-0.02319,-0.01495,-0.00092,-0.01801,-0.02823,-0.02335,0.00412,-0.03372,-0.03098,0.00809,-0.03174
11.738,0.01083,0.00031,-0.09628,0.45456,0.00153,-0.00992,-0.01846,-0.00061,-0.01877,-0.02441,-0.0267,0.00504,-0.03555,-0.03357,-0.00061,-0.03555
11.7385,0.01694,0.01266,-0.08224,0.44617,0.01007,0.00595,-0.02121,-0.00061,-0.01938,-0.0174,-0.0264,0.00427,-0.03159,-0.0351,-0.00412,-0.04013
11.739,0.02396,0.03021,-0.03143,0.43167,0.01953,0.02609,-0.02213,-0.00137,-0.0174,-0.01175,-0.02396,0.00275,-0.02823,-0.03387,-0.0029,-0.04654
11.7395,0.03143,0.04791,0.04349,0.41275,0.02716,0.04272,-0.02075,-0.00229,-0.01236,-0.00687,-0.02045,0.00183,-0.02823,-0.03113,0.00183,-0.05264
11.74,0.03525,0.05539,0.07767,0.38666,0.02747,0.05417,-0.01892,-0.00305,-0.00671,-0.00397,-0.01724,0.00076,-0.03174,-0.02838,0.00534,-0.05508
11.7405,0.03479,0.04837,0.0206,0.35706,0.02396,0.06134,-0.01816,-0.00275,-0.00351,-0.00092,-0.01587,-0.0029,-0.03555,-0.02441,0.00702,-0.05341
11.741,0.03464,0.03387,-0.08759,0.34042,0.01129,0.05402,-0.01831,-0.0032,-0.00351,0.00168,-0.01511,-0.00504,-0.03098,-0.01953,0.00854,-0.04776
11.7415,0.03876,0.01709,-0.159,0.34821,-0.01022,0.03815,-0.01953,-0.00458,-0.0029,0.0032,-0.01587,-0.00427,-0.01923,-0.01419,0.00992,-0.04486
11.742,0.04913,-0.00702,-0.15411,0.36652,-0.03342,0.0061,-0.0209,-0.00641,-0.00137,0.00412,-0.01495,-0.00122,-0.00885,-0.00977,0.01053,-0.04456
11.7425,0.06317,-0.04242,-0.10925,0.40909,-0.04684,-0.03662,-0.02167,-0.00763,0.0,0.00443,-0.01434,0.00412,-0.01083,-0.00946,0.01099,-0.04349
11.743,0.07858,-0.07431,-0.08499,0.53314,-0.04791,-0.07584,-0.02182,-0.00931,0.00076,0.00488,-0.01389,0.01251,-0.02274,-0.01099,0.01099,-0.04028
11.7435,0.09216,-0.08469,-0.09628,0.71609,-0.04227,-0.09384,-0.02106,-0.00977,0.00168,0.00336,-0.01373,0.02045,-0.03418,-0.01297,0.0116,-0.04089
11.744,0.10391,-0.07339,-0.12115,0.80139,-0.03372,-0.08743,-0.0206,-0.00946,0.00275,-0.00046,-0.01373,0.02579,-0.0383,-0.01282,0.01099,-0.04562
11.7445,0.11383,-0.0589,-0.13535,0.68573,-0.0293,-0.0737,-0.01953,-0.00824,0.00381,-0.00397,-0.01297,0.02853,-0.03677,-0.01236,0.00961,-0.05157
11.745,0.12283,-0.05295,-0.13397,0.46722,-0.0264,-0.06714,-0.01923,-0.00702,0.00488,-0.00366,-0.01221,0.03387,-0.03403,-0.01266,0.00717,-0.0531
11.7455,0.12878,-0.05341,-0.12543,0.30289,-0.02213,-0.07095,-0.01877,-0.00549,0.00793,0.00183,-0.01282,0.04059,-0.03387,-0.01404,0.0058,-0.04913
11.746,0.13062,-0.05386,-0.11139,0.22964,-0.01953,-0.07462,-0.01816,-0.00351,0.01129,0.01572,-0.01083,0.03937,-0.03571,-0.01419,0.00626,-0.04166
11.7465,0.13016,-0.05096,-0.09064,0.20508,-0.01511,-0.07324,-0.01831,-0.00183,0.01022,0.03479,-0.00793,0.01785,-0.03601,-0.01221,0.0087,-0.03235
11.747,0.12848,-0.0473,-0.07004,0.23956,-0.01282,-0.06897,-0.01968,-0.00137,0.00275,0.05569,-0.00153,-0.02472,-0.03357,-0.00778,0.01099,-0.02487
11.7475,0.12619,-0.04639,-0.05539,0.3952,-0.01312,-0.06256,-0.02151,-0.00351,-0.00702,0.0618,0.01007,-0.06302,-0.02914,-0.00305,0.01282,-0.02258
11.748,0.12344,-0.04868,-0.05112,0.64682,-0.0145,-0.05463,-0.02487,-0.00381,-0.01175,0.04593,0.03052,-0.07629,-0.02609,0.00046,0.01221,-0.02396
11.7485,0.11917,-0.04883,-0.05478,0.80933,-0.01572,-0.05341,-0.02838,-0.00336,-0.01205,0.01266,0.05554,-0.06668,-0.02563,0.00107,0.0119,-0.0293
11.749,0.11429,-0.04272,-0.06409,0.70282,-0.01694,-0.07004,-0.03174,-0.00351,-0.01175,-0.02029,0.0679,-0.04944,-0.0296,-0.00137,0.00916,-0.03632
11.7495,0.11307,-0.0354,-0.07019,0.36469,-0.0174,-0.10803,-0.03448,-0.00336,-0.0148,-0.03983,0.06195,-0.03265,-0.03586,-0.00626,0.00595,-0.0415
11.75,0.11459,-0.03006,-0.06668,-0.02899,-0.01938,-0.15366,-0.03448,-0.00366,-0.01999,-0.04501,0.04425,-0.0145,-0.0412,-0.01007,0.00397,-0.0415
11.7505,0.11551,-0.02808,-0.05417,-0.38452,-0.02197,-0.18661,-0.0351,-0.00381,-0.02457,-0.04028,0.03021,0.00259,-0.0444,-0.01312,0.00366,-0.03998
11.751,0.11215,-0.02197,-0.03815,-0.66345,-0.02289,-0.18707,-0.03754,-0.0061,-0.02884,-0.03311,0.02533,0.01556,-0.04333,-0.01541,0.00504,-0.03769
11.7515,0.10635,-0.01266,-0.02472,-0.78888,-0.01953,-0.15015,-0.03937,-0.01038,-0.03433,-0.02487,0.02823,0.0354,-0.04059,-0.01678,0.00549,-0.03677
11.752,0.10071,-0.00427,-0.01236,-0.76706,-0.01663,-0.09689,-0.04044,-0.01312,-0.04013,-0.01846,0.03937,0.07858,-0.03799,-0.01648,0.00397,-0.03586
11.7525,0.09598,-0.00015,0.0,-0.75989,-0.01846,-0.05615,-0.03799,-0.01419,-0.04501,-0.01251,0.05615,0.14664,-0.03754,-0.01587,0.00275,-0.03189
11.753,0.09109,-0.00046,0.00381,-0.88669,-0.02075,-0.04349,-0.0351,-0.01373,-0.04837,-0.0087,0.06439,0.21408,-0.03967,-0.01617,0.0032,-0.0264
11.7535,0.08575,-0.00168,-0.01007,-1.03546,-0.02365,-0.0502,-0.03387,-0.01205,-0.05234,-0.00824,0.04654,0.2562,-0.03952,-0.01938,0.00427,-0.01999
11.754,0.08209,-0.00275,-0.03784,-1.00204,-0.02365,-0.05966,-0.03433,-0.01053,-0.05798,-0.00916,0.00595,0.26703,-0.03632,-0.02319,0.00519,-0.0148
11.7545,0.08331,-0.00427,-0.06424,-0.7756,-0.02029,-0.0621,-0.03372,-0.00916,-0.06454,-0.01282,-0.03815,0.25879,-0.03281,-0.02548,0.00778,-0.00931
11.755,0.09033,-0.00854,-0.07629,-0.5394,-0.01038,-0.0592,-0.03357,-0.00854,-0.07111,-0.01572,-0.07553,0.24216,-0.03113,-0.02731,0.01328,-0.00275
11.7555,0.09995,-0.01526,-0.07324,-0.42221,-0.00031,-0.05402,-0.03418,-0.00839,-0.0737,-0.01923,-0.10727,0.2211,-0.03265,-0.03204,0.01968,0.00412
11.756,0.10818,-0.02243,-0.06012,-0.37308,0.00549,-0.04868,-0.03525,-0.00839,-0.06897,-0.02396,-0.13794,0.19882,-0.03387,-0.03845,0.02396,0.00809
11.7565,0.11154,-0.03281,-0.04059,-0.28824,0.00809,-0.04288,-0.03555,-0.00717,-0.056,-0.02762,-0.16373,0.17914,-0.03281,-0.0415,0.02655,0.00259
11.757,0.10818,-0.04684,-0.02045,-0.14603,0.00443,-0.03876,-0.03571,-0.00732,-0.03876,-0.03098,-0.17975,0.1593,-0.0296,-0.03967,0.02396,-0.01831
11.7575,0.10239,-0.06516,-0.00732,0.01389,0.00122,-0.03647,-0.03708,-0.00687,-0.02228,-0.03372,-0.18539,0.13641,-0.02502,-0.03464,0.01297,-0.05646
11.758,0.09735,-0.08041,-0.00732,0.1738,-0.00168,-0.03769,-0.03815,-0.0061,-0.00946,-0.03784,-0.17746,0.11063,-0.01923,-0.02747,-0.00473,-0.09674
11.7585,0.0943,-0.08759,-0.01709,0.33157,-0.00519,-0.04013,-0.03693,-0.00595,-0.00015,-0.04166,-0.15762,0.0914,-0.01343,-0.02258,-0.02014,-0.12039
11.759,0.09247,-0.08514,-0.02823,0.45425,-0.00748,-0.03983,-0.03387,-0.00717,0.00595,-0.04547,-0.12985,0.08133,-0.00946,-0.01907,-0.02594,-0.12253
11.7595,0.08881,-0.07736,-0.03693,0.47668,-0.00732,-0.03891,-0.03159,-0.00809,0.01007,-0.04196,-0.10101,0.07385,-0.00717,-0.01572,-0.0238,-0.11612
11.76,0.08392,-0.06668,-0.04059,0.34561,-0.00992,-0.04242,-0.03036,-0.00793,0.01221,-0.0325,-0.07904,0.06332,-0.00916,-0.0145,-0.01938,-0.10986
11.7605,0.07782,-0.05707,-0.0383,0.1033,-0.02457,-0.05127,-0.0293,-0.00626,0.01083,-0.02502,-0.06149,0.04944,-0.01358,-0.01465,-0.01328,-0.1001
11.761,0.07339,-0.05295,-0.03021,-0.10696,-0.04929,-0.05722,-0.02731,-0.00519,0.00732,-0.02579,-0.04593,0.03586,-0.01907,-0.01572,-0.00641,-0.08087
11.7615,0.06943,-0.056,-0.02106,-0.20401,-0.06668,-0.05768,-0.02319,-0.00641,0.00458,-0.03067,-0.0296,0.02197,-0.02258,-0.01709,-0.00122,-0.05981
11.762,0.06439,-0.06409,-0.01648,-0.25589,-0.05936,-0.05478,-0.02182,-0.00748,-0.00015,-0.03357,-0.01541,0.00671,-0.02411,-0.01678,0.00183,-0.04532
11.7625,0.05554,-0.07172,-0.01648,-0.32578,-0.03052,-0.05096,-0.02258,-0.00793,-0.00427,-0.03586,-0.00504,-0.01022,-0.02655,-0.01617,0.00488,-0.03983
11.763,0.04471,-0.07721,-0.01923,-0.39215,-0.00565,-0.04562,-0.02365,-0.00748,-0.00671,-0.03586,0.00351,-0.02365,-0.03296,-0.01526,0.00626,-0.03784
11.7635,0.03525,-0.08209,-0.01999,-0.4567,-0.00687,-0.0386,-0.02213,-0.00565,-0.00763,-0.03494,0.0119,-0.03433,-0.0415,-0.01328,0.00381,-0.03677
11.764,0.02838,-0.08652,-0.01648,-0.58395,-0.03235,-0.03296,-0.01816,-0.00427,-0.00824,-0.0322,0.01663,-0.04318,-0.04913,-0.0116,0.00076,-0.03922
11.7645,0.02472,-0.09109,-0.0116,-0.80658,-0.06226,-0.02884,-0.01495,-0.00259,-0.00961,-0.03204,0.01602,-0.05005,-0.05417,-0.01038,0.00153,-0.04242
11.765,0.02563,-0.0914,-0.01068,-1.08658,-0.0769,-0.02655,-0.01389,-0.00046,-0.01205,-0.03357,0.01114,-0.05295,-0.05539,-0.01099,0.00732,-0.04395
11.7655,0.02655,-0.08392,-0.0119,-1.32813,-0.0798,-0.02441,-0.01328,0.0,-0.01404,-0.03387,0.0119,-0.05386,-0.05447,-0.01328,0.01129,-0.04379
11.766,0.02518,-0.07278,-0.01007,-1.43066,-0.07996,-0.02197,-0.01236,-0.00046,-0.01587,-0.02914,0.01251,-0.05615,-0.05341,-0.01511,0.01038,-0.04349
11.7665,0.01999,-0.06638,-0.00198,-1.37909,-0.08316,-0.01892,-0.01038,-0.00214,-0.01709,-0.02274,0.0145,-0.06134,-0.05219,-0.01633,0.00656,-0.04318
11.767,0.01205,-0.06622,0.00916,-1.24527,-0.07736,-0.01465,-0.00839,-0.00229,-0.0177,-0.0177,0.0145,-0.06836,-0.04944,-0.01801,0.00671,-0.04333
11.7675,0.0032,-0.06393,0.01831,-1.08429,-0.05768,-0.00992,-0.00763,-0.00214,-0.0174,-0.01526,0.01373,-0.07324,-0.04303,-0.01801,0.01068,-0.04105
11.768,-0.01709,-0.05478,0.02579,-0.89508,-0.0383,-0.00748,-0.00916,-0.00488,-0.01724,-0.01511,0.01266,-0.07706,-0.03754,-0.01724,0.01266,-0.0386
11.7685,-0.06653,-0.04013,0.03372,-0.69427,-0.02151,-0.00626,-0.01038,-0.0087,-0.0177,-0.01266,0.01175,-0.07919,-0.0351,-0.01633,0.01236,-0.03738
11.769,-0.14282,-0.02136,0.03952,-0.54321,-0.01617,-0.00854,-0.00992,-0.01068,-0.01923,-0.00839,0.01083,-0.08179,-0.0354,-0.01724,0.01007,-0.03647
11.7695,-0.19745,-0.00061,0.03983,-0.48187,-0.01862,-0.01175,-0.00717,-0.01053,-0.0206,-0.00427,0.0116,-0.08484,-0.03555,-0.01862,0.00916,-0.0354
11.77,-0.19394,0.0174,0.0325,-0.4776,-0.02151,-0.01617,-0.00275,-0.00824,-0.02136,-0.00275,0.0119,-0.08804,-0.0351,-0.01907,0.00885,-0.0351
11.7705,-0.15762,0.02563,0.02365,-0.46555,-0.01877,-0.0209,-0.00092,-0.00595,-0.02151,0.0,0.01251,-0.08957,-0.03677,-0.01953,0.00839,-0.03479
11.771,-0.14099,0.02396,0.01724,-0.40756,-0.01205,-0.02487,-0.00198,-0.00351,-0.02106,0.0032,0.01129,-0.0885,-0.04135,-0.01999,0.00824,-0.03601
11.7715,-0.16602,0.01785,0.01495,-0.29266,-0.00427,-0.02914,-0.00366,-0.00351,-0.02167,0.00443,0.01083,-0.08484,-0.04684,-0.01999,0.00961,-0.03693
11.772,-0.21439,0.01022,0.01587,-0.10162,-0.00336,-0.03357,-0.00366,-0.00595,-0.02182,0.00504,0.01114,-0.08087,-0.0473,-0.01923,0.00992,-0.03937
11.7725,-0.24612,0.0029,0.02213,0.16586,-0.00473,-0.0354,-0.00366,-0.00732,-0.02289,0.00473,0.01022,-0.07858,-0.0444,-0.01755,0.00977,-0.03937
11.773,-0.22858,-0.00168,0.03113,0.43076,0.00061,-0.03799,-0.00565,-0.00641,-0.02335,0.00565,0.00992,-0.07828,-0.03998,-0.01617,0.00839,-0.03952
11.7735,-0.17868,-0.00183,0.03647,0.57999,0.00336,-0.04196,-0.00702,-0.00626,-0.02441,0.00763,0.00885,-0.08026,-0.03525,-0.01663,0.00778,-0.03937
11.774,-0.15015,-0.00076,0.03159,0.59326,-0.00122,-0.04623,-0.00549,-0.0061,-0.02441,0.00595,0.00824,-0.08331,-0.03204,-0.01785,0.00778,-0.03799
11.7745,-0.17258,0.00061,0.0148,0.55557,-0.0174,-0.04761,-0.00305,-0.00687,-0.02319,0.00656,0.00748,-0.08728,-0.03082,-0.01862,0.00916,-0.03891
11.775,-0.215,-0.00046,-0.00793,0.5571,-0.03265,-0.04623,-0.00214,-0.00656,-0.02304,0.01022,0.00565,-0.08957,-0.02975,-0.0206,0.00992,-0.03967
11.7755,-0.22522,-0.00595,-0.02991,0.6131,-0.0412,-0.04181,-0.00336,-0.00595,-0.02472,0.01328,0.00443,-0.08972,-0.03067,-0.02289,0.00854,-0.04089
11.776,-0.1944,-0.01724,-0.04501,0.68573,-0.05066,-0.04013,-0.00229,-0.00549,-0.02609,0.01404,0.00427,-0.08789,-0.03342,-0.02411,0.0087,-0.04059
11.7765,-0.15411,-0.0325,-0.0531,0.72876,-0.06134,-0.04288,-0.00061,-0.00595,-0.02625,0.01511,0.0029,-0.08759,-0.03784,-0.0235,0.00885,-0.04044
11.777,-0.13367,-0.04791,-0.05722,0.71609,-0.07278,-0.05219,0.00244,-0.00534,-0.02487,0.01602,0.00122,-0.0885,-0.03983,-0.02197,0.01022,-0.04227
11.7775,-0.14084,-0.06348,-0.05753,0.65964,-0.07797,-0.06226,0.0061,-0.00458,-0.02319,0.01602,0.00015,-0.08789,-0.03815,-0.01984,0.01083,-0.04425
11.778,-0.16724,-0.07828,-0.05325,0.59845,-0.07523,-0.06958,0.01083,-0.00397,-0.02167,0.01617,0.00031,-0.08713,-0.03372,-0.01709,0.01083,-0.04379
11.7785,-0.18784,-0.09109,-0.04639,0.57709,-0.06607,-0.06775,0.01434,-0.00381,-0.02213,0.01556,-0.00076,-0.08728,-0.03006,-0.01511,0.01038,-0.04211
11.779,-0.17654,-0.09659,-0.04059,0.60959,-0.05219,-0.05844,0.01633,-0.00244,-0.02289,0.01572,-0.00168,-0.09003,-0.02762,-0.01312,0.01175,-0.03967
11.7795,-0.13733,-0.08865,-0.03128,0.67139,-0.03403,-0.04761,0.01663,-0.00107,-0.02426,0.01587,-0.00259,-0.09415,-0.0235,-0.01038,0.01495,-0.03952
11.78,-0.1004,-0.06836,-0.02014,0.71991,-0.01984,-0.04211,0.01617,0.00076,-0.02457,0.0145,-0.00183,-0.09888,-0.01419,-0.00687,0.01541,-0.03906
11.7805,-0.08286,-0.04257,-0.00412,0.73471,-0.02609,-0.04349,0.01801,0.00229,-0.02502,0.01602,-0.0029,-0.10864,-0.00076,-0.00305,0.01419,-0.03967
11.781,-0.07462,-0.02411,0.01297,0.72418,-0.04349,-0.04623,0.02167,0.00229,-0.02487,0.01999,-0.00336,-0.11993,0.01373,-0.00015,0.01343,-0.03998
11.7815,-0.06378,-0.02441,0.02777,0.69183,-0.05066,-0.04852,0.02396,0.00076,-0.0238,0.02274,-0.00443,-0.1326,0.02533,0.00092,0.01541,-0.03983
11.782,-0.05249,-0.04471,0.03937,0.62653,-0.04868,-0.04883,0.02502,-0.00061,-0.02319,0.02274,-0.0058,-0.1442,0.0296,-0.00137,0.01923,-0.03967
11.7825,-0.04883,-0.06638,0.0473,0.52353,-0.04211,-0.05051,0.02548,-0.00229,-0.02319,0.01999,-0.00702,-0.1535,0.02274,-0.00946,0.02167,-0.04013
11.783,-0.04944,-0.0737,0.05203,0.41183,-0.03769,-0.0528,0.0264,-0.00351,-0.02426,0.01816,-0.00885,-0.1561,0.00946,-0.02014,0.02304,-0.04074
11.7835,-0.04028,-0.0766,0.06058,0.32715,-0.03357,-0.05463,0.02762,-0.00397,-0.02472,0.01724,-0.01038,-0.15457,-0.00381,-0.03021,0.02182,-0.04013
11.784,-0.01831,-0.09277,0.09659,0.27008,-0.03937,-0.05402,0.02731,-0.0032,-0.02579,0.01617,-0.01099,-0.15594,-0.01434,-0.03815,0.01968,-0.04028
11.7845,0.00732,-0.10712,0.17807,0.21988,-0.04822,-0.05234,0.0264,-0.00168,-0.02686,0.01465,-0.0116,-0.16586,-0.02625,-0.04379,0.0174,-0.04135
11.785,0.02304,-0.08499,0.25681,0.18433,-0.04929,-0.05142,0.02625,-0.00107,-0.02716,0.01297,-0.01404,-0.18555,-0.04242,-0.04807,0.01572,-0.04074
11.7855,0.0296,-0.02457,0.24628,0.19058,-0.03906,-0.05142,0.02701,0.00015,-0.02701,0.01114,-0.01541,-0.21637,-0.06195,-0.05249,0.01678,-0.03952
11.786,0.03632,0.03754,0.13702,0.2507,-0.02441,-0.05081,0.0293,0.00015,-0.02548,0.00854,-0.01678,-0.26154,-0.08148,-0.0528,0.01999,-0.03998
11.7865,0.04593,0.07233,0.02808,0.3595,-0.02182,-0.04852,0.03098,-0.00061,-0.02289,0.00595,-0.01511,-0.30762,-0.10117,-0.04593,0.0209,-0.0412
11.787,0.05707,0.08224,0.00275,0.47134,-0.03204,-0.04837,0.03265,-0.00214,-0.02182,0.00763,-0.01221,-0.32257,-0.12299,-0.03342,0.01953,-0.04181
11.7875,0.05936,0.08102,0.02289,0.49744,-0.04456,-0.05341,0.0325,-0.00305,-0.0209,0.01022,-0.01022,-0.29526,-0.13763,-0.02121,0.01846,-0.0412
11.788,0.05249,0.07339,0.00015,0.38651,-0.05356,-0.06302,0.03052,-0.00397,-0.01938,0.01114,-0.00809,-0.24994,-0.13062,-0.01114,0.01831,-0.04105
11.7885,0.04623,0.05722,-0.09949,0.18768,-0.05539,-0.07202,0.02853,-0.00336,-0.01678,0.01007,-0.00778,-0.21591,-0.09888,-0.00275,0.01816,-0.04105
11.789,0.05386,0.03876,-0.22141,-0.02823,-0.0502,-0.07278,0.02945,-0.00214,-0.01541,0.00687,-0.00946,-0.19501,-0.0621,0.00137,0.01678,-0.04059
11.7895,0.07004,0.03296,-0.29861,-0.27481,-0.04349,-0.06668,0.03128,0.0,-0.01556,0.00336,-0.01099,-0.17258,-0.03632,0.00031,0.01678,-0.04013
11.79,0.08133,0.04974,-0.3215,-0.60211,-0.03632,-0.05966,0.03143,0.00244,-0.01602,0.00381,-0.01144,-0.14389,-0.02518,-0.00397,0.01877,-0.03906
11.7905,0.08255,0.07858,-0.32242,-0.96008,-0.03357,-0.05905,0.03052,0.00412,-0.01694,0.00946,-0.01007,-0.11749,-0.01999,-0.00931,0.02121,-0.03891
11.791,0.08163,0.10406,-0.31647,-1.20178,-0.03067,-0.06287,0.03067,0.00397,-0.01755,0.01831,-0.01083,-0.09567,-0.01755,-0.01389,0.02151,-0.03891
11.7915,0.08362,0.12238,-0.28961,-1.24008,-0.0264,-0.06317,0.03113,0.0032,-0.0174,0.02106,-0.01144,-0.07553,-0.01617,-0.01511,0.01984,-0.0383
11.792,0.08804,0.13596,-0.22873,-1.11816,-0.02502,-0.05753,0.03082,0.00168,-0.01587,0.02151,-0.01236,-0.05203,-0.01755,-0.01556,0.01877,-0.03799
11.7925,0.09323,0.14984,-0.14877,-0.90668,-0.02625,-0.05295,0.02853,0.0,-0.01511,0.01953,-0.01343,-0.02762,-0.02228,-0.01526,0.01801,-0.03799
11.793,0.09933,0.16785,-0.07782,-0.6221,-0.02899,-0.05325,0.0235,-0.00214,-0.01633,0.01801,-0.01419,-0.00534,-0.02869,-0.01709,0.0206,-0.03952
11.7935,0.10742,0.19348,-0.03784,-0.28946,-0.02869,-0.05295,0.01968,-0.0029,-0.01877,0.0174,-0.01495,0.01297,-0.03357,-0.01968,0.01953,-0.04059
11.794,0.11658,0.23041,-0.02899,0.01968,-0.02823,-0.04715,0.01846,-0.0029,-0.01968,0.01587,-0.0148,0.02884,-0.03601,-0.02243,0.01709,-0.04013
11.7945,0.12451,0.28549,-0.0351,0.25253,-0.02731,-0.03937,0.01694,-0.00137,-0.01877,0.0116,-0.0145,0.04303,-0.03998,-0.02563,0.01587,-0.03922
11.795,0.12772,0.35309,-0.03281,0.38025,-0.02594,-0.03235,0.01328,-0.00061,-0.01663,0.00626,-0.01312,0.05814,-0.0441,-0.02594,0.01663,-0.03784
11.7955,0.12421,0.39948,-0.01144,0.35065,-0.02472,-0.02975,0.00793,-0.00153,-0.01602,0.00351,-0.01328,0.07263,-0.04807,-0.02411,0.01785,-0.0383
11.796,0.11795,0.39322,0.01724,0.14832,-0.02686,-0.03021,0.00412,-0.00244,-0.01816,0.0,-0.01419,0.0856,-0.05096,-0.02213,0.01755,-0.0386
11.7965,0.11444,0.34439,0.03693,-0.12833,-0.03052,-0.03418,0.00275,-0.00107,-0.01999,-0.00137,-0.01526,0.09674,-0.05081,-0.02075,0.01587,-0.03906
11.797,0.1149,0.29221,0.05051,-0.36346,-0.03174,-0.0415,0.00244,0.00076,-0.01984,-0.00229,-0.01617,0.10864,-0.04547,-0.01953,0.01373,-0.03952
11.7975,0.11642,0.25208,0.07034,-0.54764,-0.03098,-0.04639,0.00031,0.00046,-0.01953,-0.00366,-0.01694,0.13611,-0.03387,-0.01633,0.01221,-0.03952
11.798,0.11444,0.2153,0.0853,-0.728,-0.0296,-0.04929,-0.00351,-0.00259,-0.01923,-0.0061,-0.01572,0.18158,-0.02274,-0.01312,0.01007,-0.03815
11.7985,0.10681,0.17761,0.06866,-0.89172,-0.02899,-0.05188,-0.00854,-0.00702,-0.01953,-0.00916,-0.0145,0.22385,-0.01617,-0.01144,0.00992,-0.0383
11.799,0.0972,0.14618,0.01694,-0.98145,-0.03006,-0.05371,-0.01419,-0.01022,-0.01862,-0.01022,-0.01511,0.23483,-0.01251,-0.01175,0.0116,-0.03952
11.7995,0.08789,0.11551,-0.03967,-0.98785,-0.02914,-0.05508,-0.01907,-0.01129,-0.0174,-0.01144,-0.01602,0.21942,-0.00961,-0.01129,0.01465,-0.03891
11.8,0.08087,0.07309,-0.07492,-0.96344,-0.02457,-0.05295,-0.0238,-0.01175,-0.0177,-0.01297,-0.01556,0.2037,-0.00854,-0.0087,0.01663,-0.03769
11.8005,0.07523,0.02106,-0.08789,-0.93964,-0.02014,-0.04898,-0.02869,-0.01251,-0.01862,-0.01526,-0.01587,0.2005,-0.01144,-0.00793,0.01541,-0.03677
11.801,0.06821,-0.01556,-0.09186,-0.88974,-0.01633,-0.04379,-0.03311,-0.01373,-0.01953,-0.01587,-0.01556,0.20462,-0.0174,-0.01099,0.01251,-0.03738
11.8015,0.06119,-0.02228,-0.09186,-0.78064,-0.01511,-0.03967,-0.03525,-0.01312,-0.01923,-0.01663,-0.01602,0.2153,-0.02304,-0.01526,0.01114,-0.03784
11.802,0.05646,-0.01358,-0.08575,-0.61783,-0.01526,-0.03937,-0.03387,-0.0116,-0.0177,-0.01694,-0.01572,0.24582,-0.02472,-0.01648,0.01236,-0.03784
11.8025,0.05356,-0.00854,-0.07523,-0.42496,-0.0145,-0.04227,-0.03143,-0.00931,-0.01648,-0.0174,-0.01663,0.29663,-0.02411,-0.01572,0.01373,-0.03738
11.803,0.04913,-0.01633,-0.06393,-0.24063,-0.01511,-0.04745,-0.03098,-0.00702,-0.01602,-0.00977,-0.01785,0.33936,-0.02136,-0.01434,0.01495,-0.03738
11.8035,0.04669,-0.03387,-0.04929,-0.12924,-0.01648,-0.04913,-0.03326,-0.0058,-0.01648,0.03098,-0.01846,0.34668,-0.01984,-0.0148,0.01526,-0.0383
11.804,0.05157,-0.05829,-0.02731,-0.13565,-0.01816,-0.04623,-0.03708,-0.00565,-0.01678,0.13535,-0.01923,0.32318,-0.02014,-0.01694,0.01663,-0.03967
11.8045,0.0618,-0.08881,0.00076,-0.22079,-0.02075,-0.03998,-0.03937,-0.00641,-0.01816,0.27527,-0.01816,0.29541,-0.02106,-0.01892,0.01694,-0.04074
11.805,0.06546,-0.11932,0.03006,-0.29968,-0.03036,-0.03494,-0.03906,-0.00732,-0.01968,0.36591,-0.0174,0.27863,-0.02136,-0.01953,0.01648,-0.03983
11.8055,0.05569,-0.14206,0.05432,-0.33676,-0.03601,-0.03372,-0.0383,-0.00748,-0.01907,0.36316,-0.01724,0.26611,-0.02258,-0.01877,0.01251,-0.03876
11.806,0.04028,-0.15686,0.06897,-0.35873,-0.04471,-0.0351,-0.03647,-0.00748,-0.01862,0.31235,-0.0174,0.2478,-0.02335,-0.0177,0.01007,-0.03799
11.8065,0.0293,-0.16693,0.07339,-0.38727,-0.04929,-0.03769,-0.03479,-0.00671,-0.01862,0.27435,-0.01724,0.22644,-0.0238,-0.01801,0.00977,-0.03845
11.807,0.02502,-0.177,0.06882,-0.40741,-0.05066,-0.03998,-0.03464,-0.00488,-0.0206,0.25681,-0.0177,0.20584,-0.02304,-0.01831,0.01007,-0.03998
11.8075,0.02213,-0.18875,0.05951,-0.40344,-0.04379,-0.0415,-0.03418,-0.00168,-0.02289,0.23666,-0.01892,0.18692,-0.02289,-0.01846,0.009,-0.04074
11.808,0.01678,-0.20538,0.04929,-0.37582,-0.03983,-0.04166,-0.03311,0.00137,-0.02502,0.20462,-0.02014,0.16739,-0.02151,-0.01831,0.00763,-0.04105
11.8085,0.00977,-0.22797,0.03586,-0.32837,-0.03922,-0.04059,-0.03403,0.00259,-0.02594,0.17349,-0.0206,0.14893,-0.01984,-0.01923,0.00778,-0.04135
11.809,0.00534,-0.25116,0.01923,-0.26474,-0.03922,-0.04013,-0.0351,0.00122,-0.02563,0.14618,-0.02151,0.13199,-0.01831,-0.01907,0.00732,-0.04089
11.8095,0.00549,-0.26611,0.00092,-0.18967,-0.04227,-0.04013,-0.0354,-0.00061,-0.02518,0.12024,-0.02029,0.11627,-0.01831,-0.01663,0.00534,-0.04059
11.81,0.01175,-0.27191,-0.01648,-0.12207,-0.04303,-0.03998,-0.03357,-0.00061,-0.02426,0.09399,-0.01984,0.10223,-0.01938,-0.01389,0.00351,-0.04135
11.8105,0.02365,-0.27786,-0.03128,-0.08301,-0.0441,-0.03998,-0.03342,0.00015,-0.02502,0.06973,-0.01831,0.09079,-0.01968,-0.01221,0.00092,-0.04196
11.811,0.02884,-0.28809,-0.04059,-0.09094,-0.04028,-0.04013,-0.03632,-0.00046,-0.02502,0.04959,-0.01755,0.0798,-0.01862,-0.01205,-0.00107,-0.04135
11.8115,0.0148,-0.29922,-0.04303,-0.1535,-0.03693,-0.04227,-0.03677,-0.00183,-0.02426,0.03143,-0.0174,0.06668,-0.01801,-0.01221,-0.00168,-0.04059
11.812,-0.01495,-0.30533,-0.04028,-0.24612,-0.03403,-0.04364,-0.03372,-0.00183,-0.02335,0.01205,-0.01968,0.05234,-0.01999,-0.01282,-0.00046,-0.03952
11.8125,-0.04288,-0.30624,-0.03662,-0.30991,-0.03128,-0.04318,-0.02975,-0.00076,-0.02411,-0.00626,-0.02045,0.03906,-0.02441,-0.01373,0.00061,-0.04013
11.813,-0.05768,-0.31006,-0.03265,-0.32852,-0.03342,-0.04242,-0.02884,-0.00092,-0.0267,-0.02441,-0.02213,0.0293,-0.02731,-0.01526,-0.00076,-0.03998
11.8135,-0.06378,-0.32913,-0.01892,-0.37781,-0.03296,-0.04227,-0.02975,-0.00198,-0.02853,-0.04028,-0.02167,0.02365,-0.02716,-0.0174,-0.0029,-0.04013
11.814,-0.06973,-0.38757,0.00809,-0.52811,-0.03387,-0.04227,-0.03036,-0.00366,-0.02777,-0.05524,-0.02045,0.02274,-0.02625,-0.02167,-0.00473,-0.03983
11.8145,-0.07568,-0.53635,0.04028,-0.70374,-0.03296,-0.04364,-0.03159,-0.00275,-0.02731,-0.06897,-0.01999,0.02563,-0.02853,-0.02625,-0.00473,-0.04013
11.815,-0.07965,-0.75897,0.05951,-0.7486,-0.03555,-0.04349,-0.03387,-0.00214,-0.02914,-0.0798,-0.01953,0.02823,-0.03555,-0.03006,-0.00534,-0.04074
11.8155,-0.08377,-0.9259,0.05005,-0.6369,-0.03647,-0.04456,-0.03662,-0.00107,-0.03296,-0.09094,-0.02029,0.0296,-0.04471,-0.03387,-0.00824,-0.04242
11.816,-0.08926,-0.93018,0.00885,-0.48965,-0.03647,-0.04684,-0.03738,-0.00031,-0.03525,-0.10193,-0.02182,0.03281,-0.04425,-0.03403,-0.00977,-0.04211
11.8165,-0.09628,-0.83038,-0.04364,-0.40283,-0.03555,-0.05035,-0.03693,0.0,-0.03357,-0.11154,-0.02151,0.0354,-0.0322,-0.0296,-0.00961,-0.04135
11.817,-0.10284,-0.76035,-0.08438,-0.35675,-0.03586,-0.05371,-0.03448,-0.00031,-0.03143,-0.12085,-0.01968,0.03342,-0.01511,-0.02167,-0.00809,-0.04135
11.8175,-0.1088,-0.75821,-0.10849,-0.30029,-0.03937,-0.05585,-0.03174,-0.00122,-0.03052,-0.12802,-0.01816,0.02808,-0.00854,-0.01892,-0.00778,-0.04211
11.818,-0.11398,-0.76675,-0.12741,-0.22949,-0.03937,-0.05676,-0.03021,-0.00183,-0.03082,-0.13443,-0.01892,0.02899,-0.0145,-0.02167,-0.00854,-0.04227
11.8185,-0.11887,-0.75226,-0.15167,-0.17349,-0.03876,-0.05676,-0.02914,-0.00229,-0.03067,-0.14008,-0.02045,0.03983,-0.02502,-0.0264,-0.009,-0.04211
11.819,-0.12238,-0.74234,-0.17563,-0.14343,-0.03906,-0.05569,-0.02991,-0.00137,-0.03021,-0.1445,-0.02182,0.05707,-0.03357,-0.02975,-0.00824,-0.04333
11.8195,-0.121,-0.76935,-0.18829,-0.12039,-0.03632,-0.05402,-0.03052,0.00031,-0.03098,-0.14801,-0.02106,0.07385,-0.0412,-0.03021,-0.00839,-0.04425
11.82,-0.11841,-0.84015,-0.1889,-0.06607,-0.03616,-0.05112,-0.03006,0.00168,-0.0322,-0.15137,-0.01999,0.09094,-0.04913,-0.03067,-0.01022,-0.04395
11.8205,-0.1181,-0.9227,-0.18494,0.04913,-0.03479,-0.05066,-0.03006,0.00214,-0.03235,-0.15579,-0.01877,0.11292,-0.05859,-0.03113,-0.01144,-0.04379
11.821,-0.12024,-0.94635,-0.18158,0.23254,-0.03616,-0.04959,-0.03082,0.00153,-0.03296,-0.15839,-0.01877,0.13077,-0.06439,-0.03082,-0.0119,-0.0441
11.8215,-0.12146,-0.86624,-0.1799,0.45868,-0.03616,-0.04761,-0.03342,0.00092,-0.03403,-0.15976,-0.01999,0.13123,-0.0621,-0.02731,-0.01251,-0.04486
11.822,-0.1181,-0.73212,-0.17761,0.66666,-0.0354,-0.04623,-0.03342,0.00214,-0.03479,-0.15884,-0.02029,0.11871,-0.05066,-0.02258,-0.01343,-0.04486
11.8225,-0.1152,-0.62363,-0.1712,0.78659,-0.03403,-0.04623,-0.03098,0.00183,-0.03326,-0.15717,-0.01923,0.10696,-0.0351,-0.01694,-0.01434,-0.04456
11.823,-0.11612,-0.56,-0.15503,0.81757,-0.03876,-0.04776,-0.02792,0.00015,-0.03098,-0.15594,-0.01816,0.10651,-0.02365,-0.01068,-0.01297,-0.04456
11.8235,-0.12222,-0.50705,-0.121,0.82138,-0.03983,-0.05005,-0.02731,0.0,-0.03036,-0.15579,-0.01816,0.11353,-0.02106,-0.00717,-0.01205,-0.04486
11.824,-0.12817,-0.43839,-0.06744,0.83328,-0.03891,-0.05096,-0.02808,0.00092,-0.03174,-0.15594,-0.01953,0.1236,-0.02594,-0.00702,-0.01312,-0.04456
11.8245,-0.13504,-0.36148,-0.01236,0.83038,-0.03922,-0.05157,-0.0296,0.00198,-0.03143,-0.15533,-0.02014,0.13199,-0.03235,-0.01083,-0.01358,-0.04471
11.825,-0.14374,-0.30106,0.01083,0.80139,-0.03937,-0.05157,-0.03204,0.00229,-0.0296,-0.15305,-0.02045,0.13123,-0.03693,-0.01587,-0.01358,-0.04532
11.8255,-0.15457,-0.26581,-0.00961,0.76523,-0.04089,-0.05264,-0.03403,0.0,-0.02777,-0.15137,-0.02075,0.12054,-0.04089,-0.01846,-0.01297,-0.04578
11.826,-0.16815,-0.23422,-0.04959,0.7373,-0.04257,-0.05371,-0.0354,-0.00046,-0.02655,-0.15228,-0.0209,0.10864,-0.04578,-0.01938,-0.01221,-0.04639
11.8265,-0.18448,-0.18768,-0.06943,0.70984,-0.04211,-0.05417,-0.03464,0.0,-0.02655,-0.15137,-0.01999,0.09766,-0.05173,-0.01953,-0.01129,-0.04532
11.827,-0.19394,-0.13412,-0.05951,0.67337,-0.0415,-0.05524,-0.03296,0.00122,-0.02533,-0.14969,-0.01923,0.08621,-0.05615,-0.02045,-0.01068,-0.04288
11.8275,-0.18005,-0.08148,-0.03922,0.63538,-0.03952,-0.05585,-0.03067,0.00122,-0.02563,-0.1474,-0.01877,0.06912,-0.05646,-0.02136,-0.01144,-0.0415
11.828,-0.14664,-0.01801,-0.02441,0.59982,-0.03815,-0.05508,-0.03052,0.00015,-0.02319,-0.1445,-0.01938,0.0563,-0.05417,-0.02304,-0.01205,-0.0415
11.8285,-0.11765,0.05142,-0.01007,0.55939,-0.03586,-0.05371,-0.03204,-0.00046,-0.02029,-0.14496,-0.01984,0.0502,-0.05234,-0.02319,-0.01236,-0.04425
11.829,-0.11414,0.09857,0.01465,0.50674,-0.03311,-0.05188,-0.03525,-0.00137,-0.01877,-0.14755,-0.01785,0.06088,-0.05203,-0.02304,-0.01282,-0.04532
11.8295,-0.12726,0.11475,0.04929,0.44678,-0.03143,-0.05081,-0.03754,-0.00214,-0.01785,-0.15289,-0.01801,0.11032,-0.05066,-0.02167,-0.00793,-0.04486
11.83,-0.13458,0.13031,0.09262,0.39627,-0.0322,-0.0502,-0.03815,-0.00198,-0.01694,-0.15884,-0.01678,0.19455,-0.04761,-0.02167,-0.00381,-0.04272
11.8305,-0.12451,0.16525,0.14084,0.3746,-0.03479,-0.05066,-0.03754,-0.00244,-0.01587,-0.16632,-0.01633,0.25772,-0.04486,-0.02151,-0.00168,-0.04196
11.831,-0.10117,0.20432,0.18875,0.39063,-0.03525,-0.05264,-0.03662,-0.00153,-0.01495,-0.17441,-0.01724,0.25146,-0.04379,-0.02197,-0.00198,-0.04486
11.8315,-0.07584,0.21881,0.22186,0.42435,-0.03418,-0.05478,-0.0351,-0.00153,-0.01526,-0.17975,-0.0174,0.19974,-0.04257,-0.02045,-0.00366,-0.04547
11.832,-0.04974,0.20844,0.23727,0.43167,-0.03311,-0.05478,-0.03204,-0.00229,-0.01633,-0.18051,-0.01785,0.15625,-0.03967,-0.0206,-0.00504,-0.04623
11.8325,-0.02441,0.19302,0.2359,0.39429,-0.03387,-0.05417,-0.03143,-0.00259,-0.01511,-0.18066,-0.01755,0.13641,-0.03662,-0.02014,-0.00504,-0.04608
11.833,-0.0087,0.1828,0.20279,0.33875,-0.03387,-0.05447,-0.02991,-0.00397,-0.01373,-0.18112,-0.01709,0.11642,-0.03372,-0.01892,-0.00519,-0.04517
11.8335,-0.01083,0.18188,0.12695,0.30167,-0.03387,-0.05676,-0.02808,-0.00656,-0.01175,-0.18112,-0.0174,0.08484,-0.03296,-0.01617,-0.00488,-0.0444
11.834,-0.0264,0.19226,0.02075,0.28931,-0.03586,-0.0589,-0.02579,-0.00854,-0.01022,-0.17807,-0.01892,0.05081,-0.03357,-0.01526,-0.00443,-0.04349
11.8345,-0.03876,0.20935,-0.08011,0.27634,-0.03738,-0.06119,-0.02304,-0.00854,-0.00946,-0.17609,-0.01877,0.02304,-0.03418,-0.0174,-0.00305,-0.0444
11.835,-0.04166,0.22888,-0.14786,0.24445,-0.03799,-0.06226,-0.01999,-0.00717,-0.00854,-0.17349,-0.01831,-0.00107,-0.03586,-0.01938,-0.00229,-0.04501
11.8355,-0.04318,0.25604,-0.18707,0.20126,-0.03616,-0.06393,-0.0177,-0.0058,-0.00854,-0.16998,-0.01877,-0.02609,-0.03723,-0.01999,-0.00015,-0.04349
11.836,-0.05035,0.29327,-0.21805,0.16495,-0.03418,-0.06775,-0.01755,-0.00565,-0.00854,-0.16525,-0.01984,-0.05051,-0.03601,-0.01999,0.00122,-0.04395
11.8365,-0.06332,0.3244,-0.25024,0.13901,-0.03448,-0.07065,-0.01846,-0.00671,-0.00824,-0.16174,-0.01999,-0.07187,-0.03311,-0.02121,0.00015,-0.04486
11.837,-0.07629,0.33569,-0.28198,0.11765,-0.03571,-0.07065,-0.01892,-0.00763,-0.00839,-0.15915,-0.01877,-0.09079,-0.03021,-0.02213,-0.00076,-0.04547
11.8375,-0.08438,0.33691,-0.3064,0.09567,-0.03525,-0.06699,-0.01831,-0.00748,-0.00656,-0.15915,-0.0177,-0.10941,-0.02975,-0.02136,0.00092,-0.04501
11.838,-0.08652,0.3476,-0.32074,0.07156,-0.03235,-0.06332,-0.01587,-0.0058,-0.00565,-0.16281,-0.01801,-0.1268,-0.03082,-0.0209,0.00473,-0.0444
11.8385,-0.08606,0.37033,-0.32654,0.04715,-0.03128,-0.06195,-0.0148,-0.00519,-0.0058,-0.17044,-0.01877,-0.14267,-0.03128,-0.01999,0.00778,-0.04425
11.839,-0.08713,0.38727,-0.32227,0.0235,-0.03204,-0.06073,-0.01343,-0.00534,-0.0058,-0.177,-0.01816,-0.1561,-0.03067,-0.01938,0.00839,-0.04486
11.8395,-0.08865,0.38086,-0.31494,0.00305,-0.03235,-0.05875,-0.01114,-0.00656,-0.00534,-0.1828,-0.01709,-0.16678,-0.02975,-0.01877,0.00687,-0.04486
11.84,-0.09003,0.354,-0.30853,-0.01266,-0.02975,-0.05569,-0.01007,-0.00717,-0.00381,-0.20035,-0.01617,-0.17593,-0.0293,-0.01999,0.00702,-0.04364
11.8405,-0.09003,0.32425,-0.30304,-0.02472,-0.02579,-0.05325,-0.01022,-0.00702,-0.00214,-0.24719,-0.01633,-0.18494,-0.02945,-0.02167,0.00702,-0.04242
11.841,-0.08911,0.30701,-0.29114,-0.03632,-0.02365,-0.05203,-0.0119,-0.00641,-0.00092,-0.32166,-0.01572,-0.19501,-0.02899,-0.02213,0.01068,-0.04211
11.8415,-0.08698,0.30487,-0.26566,-0.04761,-0.02396,-0.05157,-0.01129,-0.00687,-0.00076,-0.3801,-0.0148,-0.2037,-0.02777,-0.02136,0.01312,-0.04242
11.842,-0.08209,0.31998,-0.23758,-0.05905,-0.02396,-0.0531,-0.01114,-0.00702,-0.00229,-0.3833,-0.01511,-0.2092,-0.02686,-0.02075,0.01602,-0.04349
11.8425,-0.07339,0.35202,-0.21484,-0.06897,-0.02258,-0.05508,-0.0087,-0.0061,-0.0029,-0.34592,-0.01556,-0.21164,-0.02762,-0.02106,0.01633,-0.04349
11.843,-0.06516,0.39398,-0.19714,-0.07843,-0.0209,-0.05615,-0.00778,-0.00504,-0.00397,-0.30579,-0.01617,-0.21317,-0.02899,-0.02167,0.01709,-0.04303
11.8435,-0.0589,0.42572,-0.17807,-0.08469,-0.01984,-0.05569,-0.00732,-0.0032,-0.00351,-0.28061,-0.01572,-0.215,-0.03021,-0.02243,0.01755,-0.04196
11.844,-0.05417,0.43213,-0.15671,-0.0882,-0.02014,-0.05569,-0.00656,-0.0032,-0.00275,-0.25894,-0.01587,-0.21347,-0.03036,-0.0238,0.01862,-0.0412
11.8445,-0.04639,0.41748,-0.13535,-0.09064,-0.02029,-0.05508,-0.00351,-0.00519,-0.00214,-0.23209,-0.0174,-0.20554,-0.02975,-0.02502,0.02121,-0.04013
11.845,-0.03677,0.38971,-0.11795,-0.09293,-0.01923,-0.05402,-0.00275,-0.00702,-0.00214,-0.2034,-0.01801,-0.186,-0.02823,-0.02365,0.02335,-0.04211
11.8455,-0.02853,0.35736,-0.10254,-0.09689,-0.01984,-0.05402,-0.00214,-0.00824,-0.00229,-0.17761,-0.01801,-0.15488,-0.02899,-0.02182,0.02579,-0.04333
11.846,-0.02136,0.327,-0.08118,-0.10162,-0.02121,-0.05371,-0.0032,-0.00793,-0.00214,-0.15701,-0.01663,-0.12177,-0.03082,-0.01984,0.0264,-0.04272
11.8465,-0.01648,0.30548,-0.05432,-0.10727,-0.0235,-0.05463,-0.00336,-0.00641,-0.00214,-0.13733,-0.01556,-0.09918,-0.03082,-0.0209,0.02533,-0.04196
11.847,-0.01099,0.29434,-0.02335,-0.1123,-0.02884,-0.05447,-0.00412,-0.0058,-0.00183,-0.11765,-0.01526,-0.08347,-0.03036,-0.02182,0.02426,-0.04196
11.8475,-0.00427,0.28885,0.00397,-0.11292,-0.03265,-0.05341,-0.00427,-0.00732,-0.00229,-0.09384,-0.01541,-0.05295,-0.02991,-0.02213,0.02411,-0.04211
11.848,0.00473,0.28732,0.02289,-0.11276,-0.03525,-0.05234,-0.00427,-0.00946,-0.00366,-0.0705,-0.01511,0.01266,-0.02975,-0.02197,0.0267,-0.04059
11.8485,0.01465,0.29144,0.03204,-0.1358,-0.03571,-0.05066,-0.00305,-0.01083,-0.00443,-0.04929,-0.01373,0.10071,-0.02792,-0.0206,0.02853,-0.03922
11.849,0.02243,0.29953,0.03754,-0.22018,-0.03281,-0.04852,-0.00061,-0.00946,-0.00473,-0.03326,-0.01297,0.15701,-0.0235,-0.01877,0.02747,-0.03906
11.8495,0.02777,0.30792,0.04257,-0.35324,-0.02808,-0.04745,0.00107,-0.00732,-0.00458,-0.02121,-0.01389,0.14771,-0.01999,-0.01755,0.02731,-0.04181
11.85,0.03128,0.31326,0.05402,-0.44891,-0.02075,-0.04745,0.00244,-0.00641,-0.00381,-0.01236,-0.01389,0.10101,-0.01999,-0.01801,0.02884,-0.0415
11.8505,0.03571,0.31647,0.06851,-0.44189,-0.01358,-0.04883,0.00168,-0.00717,-0.00366,-0.00809,-0.01389,0.06378,-0.0238,-0.01923,0.03021,-0.04196
11.851,0.04227,0.31601,0.08408,-0.37186,-0.00717,-0.04913,-0.00031,-0.00809,-0.00381,-0.00778,-0.01251,0.04547,-0.02899,-0.02029,0.03235,-0.04059
11.8515,0.04776,0.31143,0.09781,-0.32196,0.00061,-0.04715,-0.00336,-0.00839,-0.00473,-0.00702,-0.0119,0.02701,-0.03403,-0.02167,0.03433,-0.04044
11.852,0.05234,0.30624,0.11124,-0.31219,0.00717,-0.04456,-0.00504,-0.00824,-0.00641,0.00153,-0.01236,0.00031,-0.03677,-0.02258,0.03235,-0.04074
11.8525,0.05524,0.30594,0.12177,-0.29877,0.00885,-0.0412,-0.00534,-0.00702,-0.0058,0.01587,-0.01297,-0.02701,-0.03693,-0.02335,0.03265,-0.0412
11.853,0.05386,0.31052,0.13382,-0.25925,-0.00015,-0.03891,-0.00443,-0.00549,-0.00488,0.02945,-0.01297,-0.05081,-0.0351,-0.02365,0.03479,-0.04028
11.8535,0.05035,0.31128,0.15076,-0.21149,-0.0145,-0.0386,-0.00443,-0.00412,-0.00366,0.04089,-0.01251,-0.07339,-0.03464,-0.02411,0.03708,-0.0412
11.854,0.04883,0.30243,0.17609,-0.17395,-0.02823,-0.04059,-0.00473,-0.00381,-0.00366,0.05081,-0.01266,-0.09689,-0.03571,-0.02472,0.03662,-0.04166
11.8545,0.05203,0.28839,0.19455,-0.14359,-0.03723,-0.04272,-0.00565,-0.00443,-0.00504,0.06424,-0.01251,-0.12009,-0.0383,-0.02655,0.03342,-0.04166
11.855,0.05707,0.27222,0.2037,-0.11261,-0.04272,-0.04395,-0.00519,-0.00626,-0.00626,0.07828,-0.01389,-0.14069,-0.04181,-0.02792,0.03433,-0.04181
11.8555,0.0618,0.25299,0.19989,-0.08224,-0.05447,-0.04288,-0.00259,-0.00671,-0.00671,0.09216,-0.01389,-0.15961,-0.04517,-0.02594,0.03616,-0.0415
11.856,0.06424,0.22522,0.19012,-0.05432,-0.0676,-0.04318,-0.00061,-0.00717,-0.00732,0.10666,-0.01358,-0.17761,-0.04471,-0.02289,0.03769,-0.04181
11.8565,0.06744,0.19104,0.17456,-0.02609,-0.06958,-0.04471,-0.00031,-0.00687,-0.00748,0.12207,-0.01221,-0.19363,-0.03998,-0.01938,0.03922,-0.04105
11.857,0.0708,0.15564,0.1474,0.00229,-0.05676,-0.04501,0.00031,-0.00656,-0.00732,0.13596,-0.0116,-0.20615,-0.03403,-0.01785,0.03448,-0.04089
11.8575,0.07248,0.12299,0.11093,0.03052,-0.03891,-0.0441,0.00351,-0.00504,-0.00656,0.14679,-0.01236,-0.21591,-0.03189,-0.0177,0.01572,-0.04181
11.858,0.07111,0.09491,0.08255,0.05554,-0.02975,-0.0441,0.0061,-0.00412,-0.00717,0.15457,-0.01236,-0.2269,-0.03326,-0.01862,-0.01709,-0.04227
11.8585,0.06805,0.06927,0.08224,0.07858,-0.02945,-0.04578,0.00534,-0.00381,-0.00732,0.15976,-0.01328,-0.24109,-0.03433,-0.01953,-0.0499,-0.04227
11.859,0.05966,0.04639,0.10864,0.1004,-0.03036,-0.04822,0.00275,-0.00534,-0.00626,0.1619,-0.01328,-0.26093,-0.03342,-0.01953,-0.0621,-0.04135
11.8595,0.05051,0.02594,0.14236,0.11856,-0.02731,-0.04883,0.00183,-0.0058,-0.00412,0.15671,-0.01266,-0.29144,-0.03265,-0.01938,-0.05768,-0.04028
11.86,0.04425,0.00854,0.1619,0.13535,-0.02213,-0.04791,0.00214,-0.00534,-0.00198,0.13138,-0.01312,-0.33691,-0.03387,-0.01923,-0.05081,-0.03876
11.8605,0.04425,-0.00488,0.15854,0.15121,-0.01404,-0.04608,0.00275,-0.00381,-0.00061,0.08148,-0.01328,-0.40436,-0.03387,-0.01892,-0.04517,-0.0383
11.861,0.04669,-0.01282,0.14023,0.16556,-0.00229,-0.04425,0.00275,-0.00244,-0.00031,0.02335,-0.01221,-0.51254,-0.03159,-0.01892,-0.03937,-0.03876
11.8615,0.04578,-0.01312,0.11932,0.17853,0.00687,-0.04196,0.00275,-0.00259,0.0,-0.01389,-0.01053,-0.68741,-0.02975,-0.01801,-0.0325,-0.04044
11.862,0.0351,-0.00977,0.10498,0.19104,0.00793,-0.04074,0.00153,-0.00336,-0.00015,-0.0209,-0.01053,-0.91339,-0.03082,-0.0177,-0.02274,-0.04059
11.8625,0.01282,-0.00931,0.09537,0.20309,0.00031,-0.04227,-0.00092,-0.00534,0.00015,-0.01297,-0.01099,-1.12381,-0.03281,-0.01862,-0.01038,-0.04044
11.863,-0.01328,-0.01495,0.08392,0.21347,-0.01266,-0.04425,-0.00336,-0.00702,-0.00031,-0.00931,-0.01099,-1.27747,-0.03342,-0.0177,-0.00031,-0.03937
11.8635,-0.02457,-0.02167,0.07202,0.22278,-0.0235,-0.047,-0.00427,-0.00809,0.00046,-0.00702,-0.01007,-1.41449,-0.03311,-0.01694,0.00885,-0.03922
11.864,-0.00687,-0.01892,0.06042,0.23285,-0.03113,-0.04669,-0.00381,-0.00916,0.00351,0.00153,-0.01053,-1.57715,-0.03174,-0.01663,0.01511,-0.04044
11.8645,0.02838,-0.00793,0.05264,0.24246,-0.02914,-0.04776,-0.00244,-0.00946,0.0058,0.01663,-0.01038,-1.71341,-0.03159,-0.01648,0.02106,-0.04196
11.865,0.05447,-0.00671,0.05005,0.24994,-0.02243,-0.04822,-0.00351,-0.009,0.00519,0.03052,-0.01022,-1.73859,-0.03281,-0.01694,0.0267,-0.04242
11.8655,0.06302,-0.02838,0.04974,0.26001,-0.01663,-0.047,-0.00534,-0.00793,0.00183,0.03922,-0.00961,-1.64993,-0.03281,-0.01801,0.03372,-0.04242
11.866,0.06439,-0.06714,0.04227,0.27603,-0.02701,-0.04257,-0.00565,-0.00702,0.00092,0.0473,-0.00961,-1.52481,-0.03311,-0.01892,0.04044,-0.04211
11.8665,0.06958,-0.1059,0.0238,0.28687,-0.05219,-0.03769,-0.00397,-0.00595,0.00168,0.05615,-0.01022,-1.41953,-0.0325,-0.01984,0.04791,-0.0444
11.867,0.07858,-0.1355,-0.0206,0.28214,-0.07751,-0.03281,-0.00214,-0.00549,0.00275,0.06348,-0.01068,-1.33026,-0.03159,-0.01999,0.05722,-0.04456
11.8675,0.08804,-0.15671,-0.07797,0.26993,-0.08698,-0.0293,-0.00412,-0.00443,0.00229,0.06805,-0.01068,-1.2352,-0.03067,-0.01938,0.06546,-0.04456
11.868,0.09399,-0.17258,-0.10651,0.26184,-0.07416,-0.0267,-0.00732,-0.00214,0.00153,0.07126,-0.0116,-1.13647,-0.03021,-0.01984,0.07187,-0.04456
11.8685,0.0975,-0.18295,-0.07111,0.25787,-0.04761,-0.02609,-0.00977,-0.00015,0.00259,0.07416,-0.01144,-1.04095,-0.02899,-0.01968,0.07751,-0.04379
11.869,0.10071,-0.18829,0.00793,0.24857,-0.01343,-0.02701,-0.00854,0.00092,0.00366,0.07599,-0.01053,-0.94376,-0.0293,-0.01968,0.08255,-0.04425
11.8695,0.10498,-0.18555,0.07584,0.23575,0.0238,-0.02853,-0.00626,0.00031,0.00412,0.07401,-0.01053,-0.83725,-0.0296,-0.01801,0.08911,-0.0444
11.87,0.10986,-0.17838,0.0946,0.22369,0.05936,-0.03052,-0.00549,-0.00107,0.00443,0.07095,-0.009,-0.72525,-0.03021,-0.01663,0.09293,-0.04364
11.8705,0.11261,-0.17258,0.06866,0.21408,0.08942,-0.03403,-0.00732,-0.00305,0.00534,0.06866,-0.00931,-0.61707,-0.03067,-0.01556,0.09491,-0.04349
11.871,0.11398,-0.17136,0.01724,0.20386,0.11032,-0.04135,-0.00946,-0.00458,0.00565,0.06516,-0.00961,-0.51285,-0.03052,-0.01526,0.09644,-0.0441
11.8715,0.11749,-0.1741,-0.0563,0.19257,0.12054,-0.05051,-0.01068,-0.00565,0.00458,0.06088,-0.00916,-0.41061,-0.03052,-0.01511,0.09796,-0.04456
11.872,0.12466,-0.17654,-0.13885,0.17975,0.1059,-0.05676,-0.01068,-0.00641,0.00244,0.05295,-0.00885,-0.31342,-0.03052,-0.01526,0.09857,-0.04562
11.8725,0.13107,-0.177,-0.20554,0.16617,0.05417,-0.06165,-0.01022,-0.00656,0.00031,0.04623,-0.0087,-0.22263,-0.03036,-0.01785,0.10101,-0.04547
11.873,0.13336,-0.17685,-0.22705,0.15228,-0.03601,-0.06546,-0.00931,-0.0058,-0.00076,0.04471,-0.00977,-0.13794,-0.02899,-0.01999,0.10117,-0.04562
11.8735,0.13016,-0.17792,-0.18936,0.13748,-0.1474,-0.06821,-0.00839,-0.00458,-0.00015,0.05157,-0.01083,-0.05676,-0.02853,-0.02014,0.10162,-0.04562
11.874,0.12604,-0.18051,-0.11368,0.12558,-0.24124,-0.0676,-0.00854,-0.00381,0.0,0.06241,-0.01053,0.02029,-0.02884,-0.01968,0.09842,-0.04547
11.8745,0.12466,-0.18219,-0.0351,0.11703,-0.28534,-0.06439,-0.00931,-0.00427,-0.00168,0.07034,-0.00992,0.09308,-0.03006,-0.01877,0.0946,-0.04532
11.875,0.12497,-0.18295,0.01953,0.11139,-0.26794,-0.05844,-0.01068,-0.00488,-0.00336,0.07309,-0.01007,0.16357,-0.03052,-0.01968,0.09079,-0.04562
11.8755,0.12573,-0.18097,0.03922,0.10651,-0.21454,-0.05066,-0.0116,-0.00412,-0.00351,0.07492,-0.01099,0.23117,-0.03006,-0.01953,0.09048,-0.0473
11.876,0.12543,-0.17746,0.03967,0.10361,-0.15823,-0.04242,-0.0119,-0.00336,-0.00214,0.07843,-0.0116,0.29465,-0.02991,-0.01984,0.09048,-0.04654
11.8765,0.12238,-0.17532,0.02487,0.10406,-0.11688,-0.03555,-0.01251,-0.00366,-0.00031,0.08377,-0.01068,0.35416,-0.03006,-0.01968,0.09109,-0.04715
11.877,0.11856,-0.18158,0.00046,0.10361,-0.09048,-0.03067,-0.01389,-0.00595,0.0,0.08896,-0.01022,0.40955,-0.03052,-0.01801,0.08667,-0.04837
11.8775,0.11581,-0.19287,-0.02914,0.09094,-0.07126,-0.02716,-0.01511,-0.00732,-0.00061,0.09354,-0.01053,0.45959,-0.03021,-0.01633,0.08362,-0.04883
11.878,0.11688,-0.20279,-0.05768,0.06607,-0.05661,-0.02258,-0.01328,-0.00778,-0.00198,0.09857,-0.01068,0.50446,-0.03021,-0.01694,0.08392,-0.04761
11.8785,0.12054,-0.21011,-0.07935,0.04333,-0.04608,-0.01892,-0.01129,-0.0061,-0.00336,0.103,-0.01144,0.54688,-0.0293,-0.01801,0.08392,-0.04715
11.879,0.12238,-0.22064,-0.0946,0.03571,-0.03525,-0.01801,-0.01022,-0.00458,-0.00305,0.10452,-0.0116,0.58945,-0.0293,-0.01999,0.08347,-0.04715
11.8795,0.12115,-0.23712,-0.10559,0.04044,-0.02365,-0.01984,-0.01007,-0.00366,-0.00275,0.10513,-0.01099,0.62912,-0.02899,-0.01892,0.08163,-0.04745
11.88,0.11719,-0.25375,-0.11261,0.04181,-0.01312,-0.0235,-0.01099,-0.0032,-0.00229,0.1059,-0.01068,0.66284,-0.02777,-0.01663,0.0856,-0.04639
11.8805,0.11337,-0.26215,-0.11444,0.02991,-0.00732,-0.02869,-0.0119,-0.00244,-0.00397,0.10712,-0.01083,0.68939,-0.02731,-0.01602,0.09735,-0.04593
11.881,0.11093,-0.26138,-0.11765,0.00793,-0.00488,-0.03326,-0.01358,-0.00229,-0.00412,0.1088,-0.01053,0.71228,-0.02899,-0.01663,0.10559,-0.04745
11.8815,0.11185,-0.25955,-0.1207,-0.01892,-0.00504,-0.03677,-0.01556,-0.00153,-0.0029,0.112,-0.01083,0.73166,-0.03143,-0.01724,0.10483,-0.04807
11.882,0.11322,-0.26215,-0.12497,-0.04608,-0.00793,-0.03891,-0.01816,-0.00107,-0.00214,0.11078,-0.01068,0.74966,-0.03143,-0.0174,0.09216,-0.0473
11.8825,0.11322,-0.26566,-0.12222,-0.06546,-0.01144,-0.04089,-0.02029,-0.00107,-0.00351,0.10529,-0.01053,0.76309,-0.02991,-0.01648,0.07889,-0.04608
11.883,0.112,-0.2594,-0.11505,-0.0679,-0.01373,-0.04227,-0.0206,-0.00229,-0.00519,0.08987,-0.0119,0.77042,-0.02869,-0.01526,0.06897,-0.04578
11.8835,0.11154,-0.23972,-0.1149,-0.05798,-0.00854,-0.04211,-0.01938,-0.00412,-0.00534,0.065,-0.01221,0.77271,-0.02991,-0.01526,0.06241,-0.04562
11.884,0.11032,-0.21484,-0.13962,-0.05295,-0.00092,-0.04227,-0.01938,-0.00626,-0.00549,0.03647,-0.01221,0.77286,-0.03143,-0.01572,0.05371,-0.04639
11.8845,0.10757,-0.19196,-0.1886,-0.06134,0.00504,-0.04364,-0.01968,-0.00687,-0.00641,0.01007,-0.01221,0.77118,-0.03159,-0.01663,0.04639,-0.04715
11.885,0.10422,-0.17319,-0.2356,-0.07202,0.00778,-0.04791,-0.02014,-0.00534,-0.00656,-0.01694,-0.01251,0.76752,-0.03189,-0.01724,0.03387,-0.04807
11.8855,0.10178,-0.15808,-0.24933,-0.07263,0.01083,-0.05066,-0.02151,-0.00366,-0.00626,-0.04929,-0.01282,0.76248,-0.03387,-0.01892,0.02548,-0.04852
11.886,0.10162,-0.1445,-0.21973,-0.06485,0.01221,-0.05203,-0.02335,-0.0032,-0.00702,-0.08286,-0.01358,0.75348,-0.03403,-0.01938,0.01053,-0.04822
11.8865,0.10376,-0.13397,-0.17105,-0.05692,0.00381,-0.05188,-0.02472,-0.00412,-0.00931,-0.10773,-0.01419,0.73822,-0.03342,-0.01984,-0.00458,-0.04883
11.887,0.10468,-0.12573,-0.13214,-0.05386,-0.01923,-0.05234,-0.02365,-0.00381,-0.01068,-0.12589,-0.01389,0.72006,-0.03235,-0.01953,-0.01907,-0.04837
11.8875,0.10147,-0.11566,-0.10773,-0.05402,-0.04272,-0.05249,-0.02319,-0.00443,-0.01007,-0.14206,-0.01389,0.70709,-0.03265,-0.01968,-0.03189,-0.04883
11.888,0.09552,-0.09827,-0.08865,-0.056,-0.04669,-0.05295,-0.02213,-0.00488,-0.00931,-0.16541,-0.01343,0.70328,-0.03296,-0.01968,-0.04028,-0.0473
11.8885,0.09079,-0.07339,-0.07919,-0.05844,-0.02777,-0.05295,-0.01968,-0.00504,-0.0087,-0.18921,-0.01175,0.69901,-0.03128,-0.01877,-0.04684,-0.04684
11.889,0.08835,-0.0499,-0.07889,-0.06073,-0.00229,-0.05203,-0.01694,-0.00488,-0.00961,-0.20432,-0.01144,0.68573,-0.03082,-0.0177,-0.05035,-0.04807
11.8895,0.08774,-0.0351,-0.08484,-0.06165,0.01373,-0.05142,-0.0145,-0.00565,-0.00961,-0.20844,-0.01175,0.66498,-0.03143,-0.01816,-0.05157,-0.04913
11.89,0.08469,-0.0296,-0.08896,-0.06226,0.01572,-0.05157,-0.01373,-0.00519,-0.00916,-0.20416,-0.01221,0.64743,-0.03128,-0.01877,-0.0502,-0.04852
11.8905,0.0766,-0.02914,-0.09811,-0.0621,0.009,-0.05295,-0.01358,-0.00412,-0.0087,-0.19852,-0.01282,0.63675,-0.03036,-0.01831,-0.04883,-0.04623
11.891,0.06241,-0.03021,-0.10941,-0.06104,-0.00305,-0.05325,-0.01389,-0.00229,-0.00854,-0.19165,-0.0119,0.6279,-0.03067,-0.01801,-0.04913,-0.04379
11.8915,0.04715,-0.03387,-0.11856,-0.05905,-0.0267,-0.05356,-0.0145,-0.00137,-0.00931,-0.18097,-0.01099,0.61951,-0.03159,-0.0177,-0.05112,-0.04227
11.892,0.03479,-0.04303,-0.12299,-0.05737,-0.07523,-0.05417,-0.0148,-0.00015,-0.01099,-0.17181,-0.01099,0.61066,-0.03204,-0.01953,-0.05371,-0.04272
11.8925,0.02823,-0.0618,-0.12527,-0.0589,-0.1355,-0.05722,-0.01572,0.00092,-0.01129,-0.17441,-0.01129,0.59845,-0.03113,-0.02121,-0.05569,-0.04425
11.893,0.02884,-0.08667,-0.1265,-0.06348,-0.16327,-0.05753,-0.01755,0.0029,-0.01038,-0.19012,-0.01221,0.57755,-0.03098,-0.02014,-0.056,-0.04425
11.8935,0.03494,-0.10742,-0.13275,-0.06927,-0.13138,-0.05188,-0.01892,0.00488,-0.0087,-0.20477,-0.01282,0.54718,-0.03159,-0.01816,-0.05585,-0.04242
11.894,0.0415,-0.11703,-0.13245,-0.07492,-0.06195,-0.04196,-0.02014,0.00519,-0.00824,-0.19958,-0.01312,0.51605,-0.03235,-0.0174,-0.05753,-0.04196
11.8945,0.04593,-0.11383,-0.13107,-0.0798,-0.00885,-0.03372,-0.01953,0.00534,-0.00961,-0.17731,-0.01312,0.48981,-0.03098,-0.01785,-0.06363,-0.04227
11.895,0.04669,-0.09964,-0.12253,-0.08347,0.0032,-0.0325,-0.01724,0.00473,-0.01038,-0.15396,-0.01251,0.47058,-0.03006,-0.01801,-0.0705,-0.04288
11.8955,0.04349,-0.07828,-0.11536,-0.08469,-0.00549,-0.0351,-0.01617,0.00488,-0.0119,-0.13565,-0.01205,0.45395,-0.02853,-0.01724,-0.07721,-0.04105
11.896,0.03922,-0.05783,-0.11108,-0.08331,-0.0087,-0.0383,-0.01419,0.00504,-0.01282,-0.11978,-0.01236,0.43533,-0.02609,-0.01495,-0.07996,-0.03983
11.8965,0.03418,-0.04318,-0.10666,-0.0824,-0.00259,-0.03922,-0.0116,0.00534,-0.01266,-0.09888,-0.01236,0.41382,-0.0238,-0.01343,-0.08179,-0.0383
11.897,0.02777,-0.0351,-0.10635,-0.08286,-0.00153,-0.03983,-0.00946,0.00519,-0.01205,-0.07553,-0.01282,0.39276,-0.02426,-0.01343,-0.08469,-0.03769
11.8975,0.02029,-0.03052,-0.10254,-0.08148,-0.01236,-0.04044,-0.00885,0.00626,-0.01266,-0.05325,-0.01297,0.37857,-0.02731,-0.0145,-0.08911,-0.03784
11.898,0.01205,-0.02914,-0.09613,-0.07492,-0.0322,-0.0415,-0.00992,0.00565,-0.01465,-0.03342,-0.01297,0.36926,-0.03006,-0.01526,-0.09506,-0.03754
11.8985,0.00473,-0.03296,-0.09369,-0.06317,-0.05264,-0.04425,-0.0119,0.00046,-0.01587,-0.0145,-0.01419,0.35919,-0.03174,-0.01617,-0.09964,-0.03891
11.899,-0.00488,-0.0412,-0.10681,-0.05066,-0.06607,-0.04684,-0.01389,-0.00717,-0.01602,0.00198,-0.0148,0.34485,-0.03159,-0.01785,-0.10101,-0.03952
11.8995,-0.01831,-0.04684,-0.13489,-0.04196,-0.06882,-0.04944,-0.01465,-0.01343,-0.01389,0.01877,-0.01556,0.32944,-0.03098,-0.01862,-0.10391,-0.0386
11.9,-0.03357,-0.04623,-0.15594,-0.03632,-0.06256,-0.05096,-0.01678,-0.01556,-0.01236,0.03525,-0.01328,0.31342,-0.02991,-0.01694,-0.10452,-0.03571
11.9005,-0.04883,-0.04257,-0.14267,-0.03418,-0.0528,-0.0502,-0.01801,-0.01419,-0.01312,0.05081,-0.01266,0.29663,-0.02945,-0.01556,-0.10483,-0.03418
11.901,-0.06409,-0.03983,-0.09247,-0.03433,-0.04425,-0.0502,-0.01999,-0.01114,-0.01434,0.06348,-0.01373,0.27802,-0.03128,-0.01511,-0.10498,-0.03311
11.9015,-0.07889,-0.03983,-0.03418,-0.03403,-0.03799,-0.04959,-0.0174,-0.00702,-0.0148,0.07446,-0.01404,0.26016,-0.03265,-0.01633,-0.10544,-0.03189
11.902,-0.09399,-0.04196,0.00153,-0.03052,-0.03311,-0.05096,-0.01282,-0.00427,-0.01434,0.08392,-0.01465,0.24384,-0.03204,-0.01755,-0.10391,-0.03143
11.9025,-0.10773,-0.0444,0.01083,-0.02533,-0.02853,-0.05203,-0.00946,-0.00427,-0.01511,0.09369,-0.01419,0.22797,-0.0293,-0.01785,-0.10406,-0.03204
11.903,-0.11917,-0.04486,0.00229,-0.02167,-0.02563,-0.05264,-0.0119,-0.0058,-0.01678,0.10239,-0.01328,0.2095,-0.02884,-0.01755,-0.10223,-0.03174
11.9035,-0.12527,-0.04166,-0.01984,-0.02213,-0.02182,-0.05249,-0.02304,-0.00732,-0.01801,0.1123,-0.01358,0.19012,-0.0293,-0.01755,-0.09888,-0.03098
11.904,-0.12466,-0.03128,-0.05325,-0.02396,-0.01785,-0.05081,-0.04242,-0.00565,-0.01785,0.11917,-0.01343,0.17242,-0.03082,-0.0177,-0.0972,-0.03128
11.9045,-0.11826,-0.01205,-0.08469,-0.02563,-0.01389,-0.04837,-0.06332,-0.00137,-0.01633,0.12604,-0.01343,0.15701,-0.03052,-0.01801,-0.09415,-0.03265
11.905,-0.11108,0.00961,-0.09827,-0.03036,-0.01236,-0.04593,-0.07599,0.00153,-0.01541,0.13184,-0.01419,0.14389,-0.03006,-0.01862,-0.09415,-0.03296
11.9055,-0.10757,0.02045,-0.09384,-0.03967,-0.01129,-0.0444,-0.0795,0.00107,-0.01709,0.13535,-0.01419,0.13092,-0.03052,-0.01999,-0.09369,-0.03326
11.906,-0.10605,0.01007,-0.08438,-0.05066,-0.01007,-0.04135,-0.08286,-0.00031,-0.01877,0.13733,-0.01511,0.11536,-0.03235,-0.01953,-0.09247,-0.03235
11.9065,-0.10605,-0.01846,-0.07187,-0.05768,-0.009,-0.03769,-0.09201,-0.00015,-0.01953,0.13962,-0.01434,0.09995,-0.03281,-0.01907,-0.09125,-0.03265
11.907,-0.10834,-0.05325,-0.05432,-0.05936,-0.01022,-0.03571,-0.10071,0.00168,-0.01984,0.14252,-0.01358,0.09338,-0.03159,-0.01801,-0.09003,-0.03403
11.9075,-0.11368,-0.08224,-0.03464,-0.05737,-0.01221,-0.03632,-0.103,0.00214,-0.02075,0.14633,-0.01312,0.10162,-0.03036,-0.01785,-0.08835,-0.03479
11.908,-0.12192,-0.10147,-0.02182,-0.05508,-0.01511,-0.03876,-0.09583,0.00092,-0.02228,0.14847,-0.01328,0.11841,-0.02975,-0.01862,-0.08636,-0.03418
11.9085,-0.13199,-0.11093,-0.01785,-0.05447,-0.01648,-0.04044,-0.08041,0.00061,-0.02197,0.14862,-0.01434,0.12787,-0.03021,-0.01999,-0.0824,-0.03326
11.909,-0.13947,-0.11322,-0.02441,-0.05569,-0.01709,-0.04105,-0.04761,0.00137,-0.0206,0.14893,-0.01541,0.12054,-0.03052,-0.01968,-0.08011,-0.03342
11.9095,-0.14313,-0.11185,-0.03677,-0.05676,-0.01724,-0.0412,0.0116,0.00168,-0.01984,0.15015,-0.01572,0.10147,-0.03021,-0.01892,-0.07767,-0.03357
11.91,-0.14465,-0.10788,-0.04791,-0.05798,-0.01541,-0.04135,0.08698,-0.00061,-0.01923,0.15152,-0.0145,0.08087,-0.02991,-0.01846,-0.07446,-0.03448
11.9105,-0.14587,-0.10254,-0.05493,-0.05798,-0.01419,-0.04181,0.13336,-0.00504,-0.01831,0.14969,-0.01404,0.06317,-0.02975,-0.01907,-0.07065,-0.03326
11.911,-0.14496,-0.09171,-0.05997,-0.05844,-0.01083,-0.04272,0.11475,-0.00732,-0.0174,0.1474,-0.01495,0.0473,-0.02991,-0.01923,-0.0679,-0.0322
11.9115,-0.14084,-0.07599,-0.06454,-0.06012,-0.00702,-0.04242,0.05096,-0.00778,-0.01678,0.14587,-0.01511,0.03387,-0.03036,-0.01892,-0.06546,-0.0322
11.912,-0.13535,-0.05936,-0.06927,-0.0621,-0.00458,-0.04135,0.0058,-0.00702,-0.01862,0.14282,-0.01541,0.02579,-0.03143,-0.01831,-0.06317,-0.03357
11.9125,-0.13031,-0.04837,-0.06912,-0.06134,-0.0029,-0.04166,0.00717,-0.00595,-0.02075,0.13947,-0.01465,0.02151,-0.03143,-0.01709,-0.0621,-0.03387
11.913,-0.1265,-0.04471,-0.06104,-0.05936,-0.00549,-0.04181,0.03448,-0.00427,-0.02228,0.13443,-0.01434,0.01968,-0.03021,-0.01602,-0.05981,-0.03372
11.9135,-0.12451,-0.04501,-0.04654,-0.05814,-0.00992,-0.04333,0.05859,-0.00259,-0.02228,0.12909,-0.01541,0.01801,-0.02853,-0.01709,-0.05493,-0.03403
11.914,-0.12405,-0.04547,-0.0351,-0.05798,-0.01541,-0.04364,0.07187,-0.00015,-0.02136,0.12497,-0.01648,0.01923,-0.02899,-0.01816,-0.05142,-0.03479
11.9145,-0.1236,-0.04547,-0.0293,-0.05814,-0.01999,-0.0444,0.07278,0.00137,-0.02045,0.12177,-0.01678,0.01999,-0.02991,-0.01709,-0.04761,-0.03616
11.915,-0.12207,-0.04593,-0.02792,-0.05707,-0.02701,-0.04639,0.05447,0.00412,-0.01953,0.11688,-0.01495,0.01648,-0.03021,-0.01526,-0.04395,-0.03647
11.9155,-0.11871,-0.04379,-0.0293,-0.05432,-0.03937,-0.04822,0.02213,0.01038,-0.01953,0.1088,-0.01419,0.00504,-0.0296,-0.01511,-0.04044,-0.03677
11.916,-0.11383,-0.02655,-0.03098,-0.05035,-0.05142,-0.0502,-0.00793,0.01572,-0.01831,0.10315,-0.01389,-0.01373,-0.03036,-0.01633,-0.03525,-0.03876
11.9165,-0.10971,0.01358,-0.03235,-0.04532,-0.05325,-0.05173,-0.02213,0.01892,-0.01694,0.10101,-0.01404,-0.03464,-0.03113,-0.01816,-0.03174,-0.04013
11.917,-0.10666,0.0592,-0.03479,-0.04211,-0.04395,-0.0531,-0.0238,0.01526,-0.01633,0.09903,-0.01404,-0.04898,-0.03174,-0.01862,-0.02838,-0.04044
11.9175,-0.10208,0.07477,-0.03723,-0.04272,-0.0322,-0.05417,-0.02808,0.00687,-0.0174,0.09644,-0.0145,-0.05341,-0.03143,-0.01816,-0.02441,-0.03952
11.918,-0.09674,0.04456,-0.03967,-0.04944,-0.02869,-0.05463,-0.04288,-0.00214,-0.01877,0.09003,-0.01495,-0.05417,-0.03235,-0.01801,-0.01816,-0.03738
11.9185,-0.09079,-0.01587,-0.04578,-0.06302,-0.03098,-0.05447,-0.06378,-0.00839,-0.0177,0.08606,-0.01511,-0.06699,-0.03326,-0.01816,-0.01144,-0.03708
11.919,-0.08499,-0.07492,-0.05295,-0.08179,-0.0325,-0.05264,-0.08087,-0.01282,-0.01633,0.08469,-0.01495,-0.09964,-0.0325,-0.01816,-0.00626,-0.03677
11.9195,-0.07721,-0.11337,-0.05981,-0.09781,-0.03098,-0.05035,-0.08987,-0.01709,-0.01541,0.08453,-0.01419,-0.13458,-0.03143,-0.01907,-0.00214,-0.03632
11.92,-0.06943,-0.12604,-0.06042,-0.09949,-0.02899,-0.05066,-0.09583,-0.01999,-0.01495,0.08011,-0.01343,-0.13733,-0.03067,-0.02029,-0.00046,-0.03571
11.9205,-0.06058,-0.11688,-0.05371,-0.08774,-0.02762,-0.05219,-0.09995,-0.02151,-0.01495,0.07217,-0.01312,-0.0943,-0.03006,-0.02014,0.00397,-0.0351
11.921,-0.05463,-0.09491,-0.04089,-0.06699,-0.02777,-0.05234,-0.08942,-0.02029,-0.0145,0.06058,-0.01358,-0.0325,-0.03006,-0.01923,0.00885,-0.0354
11.9215,-0.05417,-0.07126,-0.02411,-0.04654,-0.02731,-0.05005,-0.04822,-0.01938,-0.01495,0.05554,-0.0148,0.00397,-0.0296,-0.01862,0.01495,-0.0351
11.922,-0.08453,-0.05295,-0.00671,-0.03403,-0.02579,-0.04837,0.02228,-0.01968,-0.01587,0.05234,-0.01511,-0.00259,-0.02899,-0.01801,0.01678,-0.03494
11.9225,-0.21439,-0.03326,0.00229,-0.02975,-0.02548,-0.0502,0.08743,-0.01923,-0.01755,0.05295,-0.01541,-0.0296,-0.02808,-0.0174,0.01694,-0.03601
11.923,-0.46478,-0.00748,0.00198,-0.03021,-0.02716,-0.05112,0.10803,-0.01266,-0.01862,0.05051,-0.01511,-0.04211,-0.02792,-0.01678,0.01587,-0.04013
11.9235,-0.69199,0.01358,-0.01038,-0.02975,-0.03036,-0.05173,0.07828,-0.0032,-0.01984,0.04669,-0.01572,-0.02304,-0.02853,-0.01648,0.01831,-0.0412
11.924,-0.71564,0.01114,-0.03113,-0.02686,-0.0322,-0.05402,0.03326,0.00336,-0.01999,0.04364,-0.01541,0.0145,-0.03006,-0.01755,0.02167,-0.0415
11.9245,-0.56015,-0.0145,-0.05127,-0.02182,-0.03204,-0.056,0.00824,0.00244,-0.01862,0.04059,-0.01495,0.04227,-0.03235,-0.01816,0.02396,-0.04181
11.925,-0.40802,-0.04333,-0.05508,-0.01419,-0.03143,-0.05508,0.00931,-0.00412,-0.01602,0.0386,-0.0148,0.04288,-0.03479,-0.0177,0.02609,-0.04242
11.9255,-0.34714,-0.05966,-0.03128,-0.00092,-0.02899,-0.05157,0.01663,-0.01038,-0.01648,0.03632,-0.0148,0.02487,-0.0351,-0.0177,0.02991,-0.04288
11.926,-0.31296,-0.06516,0.0058,0.01923,-0.02762,-0.04791,0.00732,-0.0116,-0.01801,0.03357,-0.01526,0.00916,-0.03448,-0.01923,0.03357,-0.04227
11.9265,-0.24521,-0.06592,0.03128,0.03754,-0.0267,-0.04868,-0.02411,-0.00778,-0.02014,0.03052,-0.01678,0.00137,-0.03479,-0.02167,0.03616,-0.04333
11.927,-0.16235,-0.06592,0.04181,0.04944,-0.02548,-0.05127,-0.05234,-0.00397,-0.0209,0.02747,-0.01785,-0.00412,-0.03586,-0.02289,0.03723,-0.04379
11.9275,-0.10498,-0.06607,0.04379,0.05981,-0.02472,-0.05447,-0.04807,-0.00214,-0.01923,0.02533,-0.01663,-0.009,-0.03616,-0.02182,0.03967,-0.04257
11.928,-0.0824,-0.06546,0.04791,0.07385,-0.02609,-0.05386,-0.01724,-0.00229,-0.01831,0.02304,-0.01541,-0.00793,-0.0354,-0.0209,0.04166,-0.04196
11.9285,-0.08179,-0.06393,0.04974,0.08774,-0.02838,-0.05234,0.00458,-0.00229,-0.01846,0.02106,-0.01617,-0.00275,-0.03494,-0.0206,0.04379,-0.04242
11.929,-0.08698,-0.0621,0.04242,0.09384,-0.03082,-0.05142,-0.00092,-0.00137,-0.01999,0.01984,-0.01678,0.00015,-0.03464,-0.02106,0.04364,-0.04349
11.9295,-0.08392,-0.06134,0.02502,0.09109,-0.03143,-0.05096,-0.01831,0.00046,-0.01984,0.01801,-0.01648,-0.00534,-0.03372,-0.02014,0.0444,-0.04456
11.93,-0.07629,-0.05936,0.01343,0.08316,-0.03311,-0.04959,-0.02747,0.00107,-0.01968,0.01694,-0.01617,-0.01999,-0.03265,-0.01877,0.04456,-0.04471
11.9305,-0.07462,-0.056,0.01282,0.07187,-0.03494,-0.04776,-0.02747,0.00092,-0.01938,0.01358,-0.01755,-0.0441,-0.0322,-0.0177,0.04379,-0.04471
11.931,-0.07355,-0.05295,0.0174,0.06134,-0.0383,-0.04715,-0.02579,0.00137,-0.01923,0.0087,-0.01816,-0.07584,-0.03281,-0.01816,0.04288,-0.04456
11.9315,-0.0563,-0.05402,0.01938,0.05676,-0.04013,-0.05066,-0.02136,0.00122,-0.02029,0.00534,-0.01724,-0.10147,-0.03235,-0.02045,0.04318,-0.04517
11.932,-0.0206,-0.05783,0.01587,0.05798,-0.04166,-0.05341,-0.01465,0.00015,-0.02167,0.00137,-0.01511,-0.10696,-0.03235,-0.02121,0.04623,-0.04456
11.9325,0.01678,-0.06271,0.00748,0.05981,-0.03937,-0.05692,-0.01068,-0.00244,-0.02304,-0.00092,-0.01419,-0.08835,-0.03296,-0.0206,0.04776,-0.04333
11.933,0.04456,-0.06439,-0.00107,0.05905,-0.0351,-0.05783,-0.01129,-0.0032,-0.02289,-0.00381,-0.01404,-0.06363,-0.03296,-0.01801,0.0473,-0.04318
11.9335,0.06485,-0.06317,-0.0058,0.05966,-0.02823,-0.05737,-0.01312,-0.00336,-0.02228,-0.00519,-0.01602,-0.05234,-0.03235,-0.0174,0.04623,-0.04379
11.934,0.08469,-0.05753,-0.00916,0.06622,-0.02243,-0.056,-0.01251,-0.00351,-0.02106,-0.0061,-0.01755,-0.0592,-0.03159,-0.01801,0.04654,-0.04333
11.9345,0.10468,-0.05066,-0.01755,0.07538,-0.02029,-0.05325,-0.0116,-0.00381,-0.02014,-0.00549,-0.01816,-0.06866,-0.03082,-0.01923,0.05035,-0.04425
11.935,0.12039,-0.04776,-0.03357,0.08041,-0.0209,-0.05081,-0.01556,-0.0058,-0.02029,-0.00275,-0.01694,-0.06516,-0.03052,-0.01953,0.05356,-0.04318
11.9355,0.13153,-0.05295,-0.05234,0.07904,-0.02151,-0.04898,-0.02289,-0.00916,-0.02151,-0.00275,-0.01724,-0.05112,-0.02991,-0.01907,0.05447,-0.04288
11.936,0.13962,-0.06287,-0.06546,0.07507,-0.01938,-0.04791,-0.03067,-0.01114,-0.02167,-0.00305,-0.01709,-0.03265,-0.0296,-0.01923,0.05264,-0.04135
11.9365,0.14816,-0.07294,-0.06592,0.0737,-0.01862,-0.04715,-0.03922,-0.01007,-0.0209,-0.00519,-0.0177,-0.00443,-0.03021,-0.01938,0.04959,-0.04318
11.937,0.15656,-0.07965,-0.04578,0.07309,-0.02655,-0.0473,-0.04913,-0.00458,-0.01968,-0.00549,-0.0177,0.02777,-0.03204,-0.01892,0.04776,-0.04486
11.9375,0.16464,-0.08118,-0.0058,0.07278,-0.04288,-0.05035,-0.06012,0.00153,-0.01816,-0.00824,-0.01724,0.03052,-0.03265,-0.01907,0.04868,-0.04349
11.938,0.17029,-0.08148,0.03784,0.0737,-0.05783,-0.0528,-0.06943,0.00519,-0.01648,-0.01068,-0.01587,-0.01953,-0.03143,-0.01984,0.04913,-0.04242
11.9385,0.1741,-0.08194,0.06775,0.07309,-0.0621,-0.056,-0.07614,0.00687,-0.01724,-0.01251,-0.01511,-0.09201,-0.02945,-0.01984,0.04791,-0.0412
11.939,0.17487,-0.0824,0.07736,0.07111,-0.05386,-0.05676,-0.08469,0.00931,-0.01907,-0.01419,-0.01434,-0.13351,-0.02838,-0.01907,0.04517,-0.04196
11.9395,0.17426,-0.07996,0.0769,0.06866,-0.04288,-0.0563,-0.09933,0.0119,-0.01907,-0.01495,-0.01434,-0.12558,-0.0267,-0.01694,0.04333,-0.04501
11.94,0.17227,-0.07309,0.07553,0.06607,-0.03403,-0.05569,-0.12207,0.00961,-0.01862,-0.01389,-0.01434,-0.08942,-0.02533,-0.01633,0.04364,-0.04547
11.9405,0.16953,-0.0647,0.07706,0.06226,-0.0322,-0.05615,-0.13977,0.00565,-0.01862,-0.01694,-0.0148,-0.05585,-0.02609,-0.01724,0.04395,-0.04501
11.941,0.16907,-0.05905,0.07797,0.05493,-0.0322,-0.05524,-0.1384,0.00244,-0.01877,-0.0174,-0.01526,-0.03799,-0.02823,-0.01785,0.04211,-0.04471
11.9415,0.16937,-0.05661,0.07767,0.04608,-0.03342,-0.05203,-0.11536,0.00092,-0.01801,-0.01984,-0.01434,-0.03647,-0.03098,-0.0177,0.03952,-0.04623
11.942,0.1712,-0.05661,0.07523,0.03876,-0.03632,-0.05112,-0.07645,-0.00122,-0.0177,-0.02106,-0.01434,-0.047,-0.0322,-0.01572,0.03937,-0.04883
11.9425,0.17242,-0.05417,0.07217,0.03387,-0.04074,-0.05386,-0.02365,-0.00595,-0.01785,-0.02335,-0.01434,-0.06363,-0.03082,-0.0145,0.04028,-0.04929
11.943,0.17288,-0.04486,0.07568,0.03021,-0.04471,-0.05798,0.03769,-0.01114,-0.01846,-0.02594,-0.01602,-0.08102,-0.03021,-0.0148,0.04074,-0.04974
11.9435,0.17105,-0.02808,0.08728,0.02426,-0.0473,-0.06058,0.07904,-0.0148,-0.01968,-0.02869,-0.01663,-0.09262,-0.03021,-0.01526,0.03952,-0.0499
11.944,0.16663,-0.00687,0.1004,0.01801,-0.04761,-0.0618,0.06912,-0.0174,-0.02182,-0.03204,-0.01602,-0.09949,-0.03174,-0.01602,0.03906,-0.04822
11.9445,0.16006,0.01007,0.10757,0.01053,-0.04669,-0.06149,0.01251,-0.0206,-0.02304,-0.03281,-0.01526,-0.10284,-0.0325,-0.01694,0.03845,-0.04532
11.945,0.1535,0.01724,0.10391,0.00519,-0.04364,-0.05753,-0.04593,-0.01862,-0.02335,-0.03326,-0.01648,-0.10559,-0.03265,-0.01801,0.03708,-0.0441
11.9455,0.14755,0.01633,0.09048,0.00183,-0.03937,-0.05371,-0.0647,-0.01328,-0.02274,-0.03387,-0.01694,-0.11078,-0.03387,-0.01892,0.03647,-0.04288
11.946,0.1413,0.00931,0.07309,-0.00076,-0.03647,-0.05157,-0.02365,-0.009,-0.02213,-0.03632,-0.01724,-0.11826,-0.03632,-0.01907,0.03723,-0.04471
11.9465,0.13397,0.00061,0.05569,-0.00641,-0.03586,-0.05112,0.0679,-0.00778,-0.02182,-0.0383,-0.01648,-0.1268,-0.03876,-0.01938,0.03494,-0.04517
11.947,0.12726,-0.00793,0.04227,-0.01312,-0.03708,-0.05051,0.1709,-0.00565,-0.02258,-0.04074,-0.01678,-0.13412,-0.03983,-0.0206,0.03326,-0.0444
11.9475,0.12329,-0.01541,0.0296,-0.01984,-0.03738,-0.04883,0.22949,0.0,-0.02335,-0.04196,-0.01785,-0.13657,-0.03983,-0.02243,0.03189,-0.04318
11.948,0.12039,-0.02365,0.01587,-0.0267,-0.03494,-0.04761,0.21866,0.00458,-0.02304,-0.04395,-0.01846,-0.13443,-0.03937,-0.02243,0.03204,-0.04318
11.9485,0.11581,-0.03082,0.00259,-0.03555,-0.03357,-0.04807,0.16846,0.00397,-0.02258,-0.0473,-0.01831,-0.12985,-0.03906,-0.02106,0.03082,-0.0441
11.949,0.10834,-0.03265,-0.00763,-0.04669,-0.03326,-0.0499,0.11871,0.00015,-0.02136,-0.05035,-0.01785,-0.1236,-0.03922,-0.01999,0.02899,-0.04425
11.9495,0.10056,-0.03204,-0.0145,-0.06042,-0.03326,-0.05051,0.08026,-0.00244,-0.01999,-0.05188,-0.01785,-0.11719,-0.03906,-0.01938,0.02792,-0.04425
11.95,0.09552,-0.03189,-0.01816,-0.07462,-0.03342,-0.04913,0.05066,-0.00061,-0.01938,-0.05341,-0.01694,-0.11856,-0.0383,-0.01862,0.02945,-0.04471
11.9505,0.0914,-0.03052,-0.01694,-0.0824,-0.03159,-0.047,0.02991,0.00259,-0.01892,-0.05661,-0.01556,-0.13412,-0.03784,-0.01801,0.03052,-0.04333
11.951,0.08698,-0.01999,-0.00732,-0.08484,-0.03006,-0.04471,0.01099,0.00519,-0.01831,-0.06042,-0.01602,-0.15671,-0.03754,-0.01892,0.02823,-0.04272
11.9515,0.08148,0.00351,0.00595,-0.08057,-0.02762,-0.0415,-0.02563,0.00519,-0.01877,-0.06393,-0.01572,-0.16922,-0.03922,-0.01923,0.02594,-0.04272
11.952,0.07599,0.03021,0.01495,-0.07675,-0.02441,-0.04013,-0.0827,0.0032,-0.02106,-0.06531,-0.01556,-0.16479,-0.04089,-0.01877,0.02609,-0.04318
11.9525,0.07156,0.04898,0.01556,-0.07675,-0.02136,-0.03998,-0.13611,0.00076,-0.02258,-0.06699,-0.0148,-0.1564,-0.04211,-0.0177,0.0267,-0.04379
11.953,0.06592,0.05737,0.01251,-0.08072,-0.01755,-0.04074,-0.17014,-0.00198,-0.02289,-0.06744,-0.01511,-0.15472,-0.0412,-0.0177,0.02762,-0.04303
11.9535,0.05905,0.05951,0.01114,-0.08591,-0.01572,-0.04181,-0.19806,-0.00427,-0.02151,-0.06943,-0.01526,-0.16174,-0.03906,-0.01877,0.02518,-0.04471
11.954,0.0499,0.05798,0.00916,-0.08682,-0.0174,-0.04395,-0.23666,-0.00443,-0.01892,-0.07202,-0.01587,-0.16754,-0.03845,-0.01907,0.02426,-0.04379
11.9545,0.03647,0.05402,0.00473,-0.07996,-0.01984,-0.04562,-0.2774,-0.00336,-0.01816,-0.07629,-0.01633,-0.15793,-0.03983,-0.0177,0.02472,-0.04547
11.955,0.02106,0.04791,-0.00031,-0.06699,-0.01999,-0.04761,-0.30121,-0.00183,-0.01801,-0.07889,-0.01709,-0.12436,-0.03967,-0.01678,0.02319,-0.04562
11.9555,0.00778,0.04028,-0.0061,-0.0531,-0.01587,-0.04822,-0.30838,-0.00137,-0.01785,-0.07919,-0.01694,-0.07706,-0.03891,-0.0177,0.02213,-0.0444
11.956,0.00031,0.03189,-0.01099,-0.04547,-0.01251,-0.04883,-0.30869,-0.00351,-0.01892,-0.07736,-0.01663,-0.03952,-0.03815,-0.01877,0.02182,-0.04471
11.9565,-0.00168,0.02472,-0.01602,-0.04669,-0.01511,-0.04913,-0.2774,-0.00931,-0.01953,-0.07706,-0.01587,-0.02899,-0.0386,-0.01831,0.02075,-0.04364
11.957,-0.00046,0.01968,-0.01907,-0.05386,-0.02518,-0.05005,-0.15854,-0.01373,-0.02045,-0.07904,-0.01572,-0.04364,-0.03845,-0.01709,0.0206,-0.04486
11.9575,-0.00031,0.01602,-0.02121,-0.0592,-0.03998,-0.05188,0.05081,-0.01038,-0.02228,-0.08118,-0.01617,-0.06943,-0.03754,-0.01602,0.01999,-0.04547
11.958,-0.00229,0.01068,-0.02411,-0.06165,-0.05264,-0.05356,0.24033,-0.00031,-0.02289,-0.08072,-0.01602,-0.09445,-0.03616,-0.01495,0.01984,-0.04501
11.9585,-0.0032,0.00305,-0.02869,-0.06149,-0.05524,-0.05295,0.30197,0.01083,-0.02106,-0.08072,-0.01526,-0.11444,-0.03601,-0.01556,0.01968,-0.04471
11.959,-0.00198,-0.00198,-0.03326,-0.06271,-0.05142,-0.05127,0.26474,0.01663,-0.01999,-0.08087,-0.01404,-0.13153,-0.03586,-0.01785,0.01816,-0.04608
11.9595,-0.00153,-0.00061,-0.03738,-0.065,-0.04547,-0.0499,0.22339,0.0174,-0.01968,-0.0827,-0.01297,-0.14862,-0.03586,-0.01999,0.01617,-0.04578
11.96,-0.00351,0.009,-0.03799,-0.06851,-0.03922,-0.04822,0.17761,0.01129,-0.02014,-0.0827,-0.01312,-0.16464,-0.03555,-0.01968,0.01633,-0.0444
11.9605,-0.00778,0.02426,-0.03326,-0.06332,-0.03143,-0.04578,0.06287,-0.0029,-0.01938,-0.08423,-0.01328,-0.17746,-0.0351,-0.01846,0.01846,-0.04288
11.961,-0.01373,0.03632,-0.02609,-0.05051,-0.02075,-0.04456,-0.08881,-0.02197,-0.01892,-0.08606,-0.01404,-0.18585,-0.0351,-0.01892,0.01999,-0.04166
11.9615,-0.01831,0.03769,-0.01785,-0.03189,-0.00839,-0.04486,-0.14847,-0.03616,-0.01862,-0.08942,-0.0145,-0.18967,-0.03601,-0.02014,0.02029,-0.04242
11.962,-0.02228,0.02991,-0.01343,-0.01602,0.00046,-0.04761,-0.07843,-0.03906,-0.01846,-0.09018,-0.01434,-0.19409,-0.03647,-0.02121,0.01968,-0.04349
11.9625,-0.02655,0.02029,-0.01083,-0.00961,0.00244,-0.05173,-0.00366,-0.03052,-0.01801,-0.08881,-0.01404,-0.22675,-0.03647,-0.02045,0.01907,-0.0444
11.963,-0.03098,0.01404,-0.00916,-0.01205,0.00137,-0.05402,-0.02625,-0.01892,-0.01831,-0.08759,-0.0145,-0.51788,-0.03494,-0.01984,0.01877,-0.04456
11.9635,-0.03342,0.0119,-0.00458,-0.01541,0.00351,-0.05569,-0.09216,-0.01144,-0.01953,-0.08713,-0.0145,-1.52649,-0.03433,-0.0206,0.01755,-0.04364
11.964,-0.03372,0.01144,-0.00031,-0.01511,0.0061,-0.05539,-0.08469,-0.00824,-0.01999,-0.08606,-0.0148,-3.25119,-0.03525,-0.0206,0.01694,-0.0441
11.9645,-0.03265,0.0119,0.00366,-0.0087,0.00397,-0.05356,0.01175,-0.0061,-0.01907,-0.08469,-0.01343,-4.75662,-0.03586,-0.01984,0.01923,-0.04288
11.965,-0.03296,0.01022,0.0058,-0.00443,-0.00473,-0.05051,0.10574,-0.00275,-0.01526,-0.08362,-0.01221,-4.97421,-0.03662,-0.01938,0.02029,-0.04379
11.9655,-0.03296,0.00687,0.00656,-0.00458,-0.0209,-0.04898,0.15778,0.00198,-0.01266,-0.08255,-0.01175,-4.80469,-0.03693,-0.01892,0.01968,-0.04349
11.966,-0.03296,0.00305,0.00565,-0.01251,-0.04242,-0.04837,0.22614,0.00443,-0.01328,-0.08133,-0.01251,-4.4548,-0.03662,-0.01892,0.01892,-0.04532
11.9665,-0.0322,0.0,0.00351,-0.02991,-0.06622,-0.04684,0.31021,0.00244,-0.01495,-0.07935,-0.01328,-4.39682,-0.03586,-0.01877,0.01816,-0.04562
11.967,-0.03159,-0.00229,-0.00549,-0.056,-0.08667,-0.04456,0.28107,-0.00198,-0.01633,-0.0737,-0.01373,-4.34509,-0.03555,-0.01953,0.0206,-0.0441
11.9675,-0.03082,-0.00519,-0.02609,-0.08163,-0.10788,-0.0441,0.07828,-0.00427,-0.01663,-0.06821,-0.01312,-4.11224,-0.03387,-0.01968,0.02563,-0.04501
11.968,-0.03098,-0.01099,-0.05127,-0.10452,-0.12772,-0.04486,-0.16632,-0.00412,-0.01663,-0.06287,-0.01297,-3.82172,-0.03357,-0.01953,0.02548,-0.04578
11.9685,-0.03387,-0.01877,-0.05981,-0.12451,-0.1358,-0.03967,-0.29572,-0.00198,-0.01602,-0.06271,-0.01343,-3.58002,-0.03357,-0.02014,0.02289,-0.04578
11.969,-0.03876,-0.02563,-0.04501,-0.1445,-0.12405,-0.02838,-0.29587,-0.00381,-0.01617,-0.06348,-0.01404,-3.34229,-0.03555,-0.02045,0.0209,-0.04578
11.9695,-0.04517,-0.02731,-0.01617,-0.16754,-0.09949,-0.01923,-0.24078,-0.00885,-0.01617,-0.06195,-0.01266,-3.06274,-0.03571,-0.02029,0.02426,-0.04593
11.97,-0.05234,-0.02563,0.00931,-0.18936,-0.07507,-0.01907,-0.17151,-0.01205,-0.01633,-0.05859,-0.01129,-2.77496,-0.03555,-0.01862,0.02701,-0.04364
11.9705,-0.05783,-0.02151,0.02274,-0.19333,-0.05524,-0.03235,-0.09323,-0.00732,-0.01709,-0.05753,-0.01099,-2.50717,-0.0354,-0.01816,0.02579,-0.0441
11.971,-0.05768,-0.01877,0.0296,-0.15884,-0.04288,-0.0528,-0.02243,0.00732,-0.01678,-0.05951,-0.0116,-2.24411,-0.03677,-0.0174,0.0235,-0.04379
11.9715,-0.05264,-0.01511,0.03418,-0.08148,-0.03265,-0.07294,0.03326,0.02472,-0.01648,-0.05936,-0.01144,-1.96808,-0.03632,-0.01877,0.02441,-0.04532
11.972,-0.04837,-0.00977,0.03906,0.00549,-0.02121,-0.08255,0.1149,0.0296,-0.01587,-0.05646,-0.01129,-1.68716,-0.0351,-0.01923,0.02731,-0.04379
11.9725,-0.04868,-0.00595,0.03937,0.04929,-0.00717,-0.07477,0.26382,0.0174,-0.01602,-0.05264,-0.01251,-1.41495,-0.03479,-0.02029,0.0296,-0.04715
11.973,-0.05249,-0.0029,0.03571,0.02869,0.00687,-0.05508,0.4007,-0.00244,-0.0177,-0.05066,-0.01282,-1.15662,-0.03555,-0.01907,0.0293,-0.04547
11.9735,-0.05356,0.00687,0.03098,-0.02029,0.01648,-0.0386,0.37064,-0.01434,-0.01892,-0.05066,-0.01251,-0.9137,-0.0354,-0.01816,0.02945,-0.04395
11.974,-0.0531,0.02411,0.02975,-0.04883,0.01801,-0.03098,0.15869,-0.01465,-0.01785,-0.04944,-0.01282,-0.68329,-0.03525,-0.01801,0.03006,-0.0441
11.9745,-0.05478,0.03555,0.03036,-0.04105,0.01129,-0.03235,-0.05173,-0.01099,-0.01694,-0.04883,-0.01312,-0.4599,-0.03555,-0.01953,0.03052,-0.0444
11.975,-0.06027,0.02487,0.02121,-0.02655,0.00153,-0.03784,-0.11414,-0.00854,-0.01617,-0.04959,-0.01389,-0.24002,-0.03708,-0.0209,0.03036,-0.04578
11.9755,-0.06561,-0.0087,-0.00549,-0.03067,-0.00992,-0.04913,-0.09354,-0.00458,-0.01633,-0.05234,-0.01312,-0.02487,-0.03738,-0.02106,0.03082,-0.04669
11.976,-0.06744,-0.04837,-0.05341,-0.04944,-0.02319,-0.06424,-0.1178,0.0087,-0.01541,-0.05569,-0.01205,0.18127,-0.03723,-0.02075,0.03128,-0.04745
11.9765,-0.06653,-0.0798,-0.10071,-0.06119,-0.04211,-0.07492,-0.18066,0.02945,-0.0148,-0.05814,-0.01175,0.38971,-0.03601,-0.02014,0.0322,-0.04608
11.977,-0.06271,-0.09689,-0.11841,-0.05585,-0.06561,-0.07446,-0.20416,0.04608,-0.01495,-0.06073,-0.01114,0.61646,-0.03525,-0.01938,0.03342,-0.04639
11.9775,-0.05905,-0.10345,-0.08987,-0.04242,-0.08301,-0.06699,-0.18646,0.04303,-0.01572,-0.06378,-0.01099,0.84351,-0.0354,-0.01999,0.03403,-0.04608
11.978,-0.05432,-0.10147,-0.02289,-0.02869,-0.08026,-0.05905,-0.18127,0.02075,-0.01587,-0.06699,-0.01083,1.02844,-0.03555,-0.01999,0.03448,-0.04608
11.9785,-0.05142,-0.09155,0.04761,-0.01328,-0.05966,-0.05341,-0.19714,-0.009,-0.01419,-0.06897,-0.01129,1.15845,-0.03571,-0.02197,0.03418,-0.04623
11.979,-0.04974,-0.07492,0.08804,0.01022,-0.03815,-0.05051,-0.17441,-0.03143,-0.01266,-0.06958,-0.0119,1.2677,-0.03555,-0.02304,0.03326,-0.04639
11.9795,-0.04807,-0.06027,0.08881,0.04166,-0.02731,-0.05051,-0.04501,-0.03799,-0.01068,-0.06958,-0.01083,1.47308,-0.03525,-0.02319,0.03403,-0.04349
11.98,-0.04791,-0.06195,0.06699,0.06668,-0.02609,-0.05219,0.18677,-0.03143,-0.01007,-0.06958,-0.01038,2.19589,-0.03448,-0.02121,0.03403,-0.04181
11.9805,-0.0502,-0.08057,0.047,0.07294,-0.03052,-0.05234,0.39917,-0.0209,-0.00977,-0.0708,-0.01068,3.72665,-0.03433,-0.01892,0.03342,-0.0415
11.981,-0.05386,-0.10284,0.0322,0.0589,-0.03159,-0.04913,0.42786,-0.01648,-0.01007,-0.07172,-0.0119,4.99985,-0.03357,-0.01816,0.03204,-0.04227
11.9815,-0.05524,-0.1149,0.01999,0.04135,-0.02823,-0.03998,0.2417,-0.01877,-0.01038,-0.07248,-0.01205,4.99985,-0.03387,-0.01862,0.02991,-0.04318
11.982,-0.05386,-0.11627,0.00534,0.03021,-0.02197,-0.02762,0.01846,-0.02045,-0.01083,-0.07187,-0.01175,4.96567,-0.03418,-0.01938,0.02777,-0.04379
11.9825,-0.04898,-0.1152,-0.01282,0.02533,-0.01785,-0.01816,-0.05035,-0.01572,-0.0119,-0.07339,-0.01129,4.79233,-0.03464,-0.02075,0.02869,-0.04364
11.983,-0.0412,-0.11505,-0.03448,0.01526,-0.01648,-0.01511,0.01877,-0.00671,-0.01328,-0.07355,-0.01144,4.9794,-0.03479,-0.02136,0.03052,-0.04501
11.9835,-0.0325,-0.11383,-0.05692,-0.00549,-0.01877,-0.02075,0.06302,-0.00031,-0.01434,-0.07187,-0.01312,4.99985,-0.03372,-0.02151,0.03296,-0.04318
11.984,-0.02472,-0.11063,-0.07523,-0.03311,-0.02151,-0.03189,0.00992,0.00229,-0.01328,-0.06699,-0.01343,4.99146,-0.03265,-0.02045,0.03326,-0.04318
11.9845,-0.01999,-0.10712,-0.08301,-0.04822,-0.02472,-0.0444,-0.0621,0.00275,-0.01282,-0.0589,-0.01373,4.93271,-0.03113,-0.01938,0.03265,-0.04318
11.985,-0.01801,-0.10345,-0.07843,-0.03906,-0.03098,-0.05051,-0.07675,0.00275,-0.01343,-0.04715,-0.01328,4.97711,-0.03143,-0.01862,0.03296,-0.04349
11.9855,-0.01602,-0.09857,-0.06866,-0.01297,-0.04196,-0.0499,-0.05051,0.00183,-0.01434,-0.03693,-0.01266,4.99985,-0.03311,-0.01923,0.03326,-0.04471
11.986,-0.01129,-0.09186,-0.06302,0.01312,-0.05142,-0.04593,-0.0351,-0.00122,-0.01312,-0.0351,-0.0119,4.97803,-0.03448,-0.02075,0.03372,-0.04517
11.9865,-0.00504,-0.08774,-0.06439,0.02991,-0.05112,-0.03906,-0.04303,-0.00458,-0.01129,-0.04028,-0.01221,4.93134,-0.03479,-0.02106,0.03265,-0.04562
11.987,0.00153,-0.08621,-0.06836,0.04349,-0.04089,-0.03036,-0.05432,-0.00595,-0.01022,-0.04532,-0.01328,4.90189,-0.03677,-0.0206,0.03098,-0.04471
11.9875,0.00626,-0.08621,-0.07187,0.05173,-0.02838,-0.02197,-0.05646,-0.00504,-0.01175,-0.04608,-0.01404,4.87396,-0.03647,-0.01984,0.02884,-0.04181
11.988,0.01007,-0.08362,-0.07446,0.05219,-0.0206,-0.02121,-0.05402,-0.00351,-0.01343,-0.047,-0.01389,4.83414,-0.0351,-0.01984,0.02762,-0.04074
11.9885,0.0116,-0.07614,-0.07538,0.0531,-0.0177,-0.02792,-0.05478,-0.00198,-0.01328,-0.04959,-0.01419,4.79248,-0.03372,-0.01877,0.0264,-0.04089
11.989,0.01282,-0.06393,-0.07233,0.05997,-0.01785,-0.03754,-0.06119,-0.0032,-0.0119,-0.05508,-0.01419,4.72534,-0.03357,-0.01785,0.02579,-0.04089
11.9895,0.01373,-0.04868,-0.06439,0.06271,-0.01877,-0.0444,-0.07477,-0.00458,-0.01114,-0.05844,-0.01541,4.47632,-0.03326,-0.01648,0.02594,-0.0412
11.99,0.01694,-0.03342,-0.05768,0.04395,-0.01877,-0.04761,-0.0882,-0.00473,-0.01175,-0.05707,-0.01358,3.85559,-0.03235,-0.01541,0.02762,-0.04105
11.9905,0.01877,-0.0267,-0.05341,0.0029,-0.01923,-0.04807,-0.09445,-0.0058,-0.01266,-0.05814,-0.01236,3.01102,-0.03067,-0.01602,0.02747,-0.0383
11.991,0.0177,-0.03159,-0.05127,-0.04227,-0.01801,-0.04761,-0.08774,-0.00763,-0.0119,-0.05798,-0.01205,2.32559,-0.03021,-0.01724,0.02701,-0.03738
11.9915,0.01526,-0.04486,-0.05188,-0.07172,-0.01572,-0.04547,-0.07156,-0.0087,-0.01053,-0.0589,-0.01144,1.90948,-0.03021,-0.01846,0.02579,-0.03601
11.992,0.01358,-0.06729,-0.05249,-0.07492,-0.01022,-0.04456,-0.05615,-0.00854,-0.01205,-0.05905,-0.01144,1.53931,-0.03143,-0.01877,0.02502,-0.03647
11.9925,0.01419,-0.09628,-0.05386,-0.05768,-0.00397,-0.04501,-0.05295,-0.00885,-0.0145,-0.05875,-0.01297,1.06308,-0.0322,-0.01968,0.02289,-0.03769
11.993,0.0145,-0.11963,-0.05203,-0.03128,0.00244,-0.04944,-0.06149,-0.00961,-0.01495,-0.05768,-0.01465,0.56564,-0.03143,-0.02106,0.02121,-0.03571
11.9935,0.01419,-0.13062,-0.0502,-0.00656,0.00641,-0.05508,-0.07111,-0.00992,-0.01389,-0.05569,-0.0145,0.15213,-0.03113,-0.02213,0.02136,-0.03616
11.994,0.01343,-0.13733,-0.04852,0.01282,0.00229,-0.05981,-0.07217,-0.00946,-0.01328,-0.05402,-0.01358,-0.20142,-0.03113,-0.02228,0.01923,-0.03571
11.9945,0.01099,-0.15274,-0.0502,0.02411,-0.00763,-0.06226,-0.06897,-0.00824,-0.01556,-0.05386,-0.01251,-0.55313,-0.03204,-0.02182,0.02045,-0.03525
11.995,0.00839,-0.1738,-0.05066,0.02487,-0.01343,-0.05966,-0.06866,-0.00748,-0.01694,-0.05432,-0.01251,-0.89523,-0.03235,-0.0206,0.01862,-0.03647
11.9955,0.00519,-0.18204,-0.04974,0.01785,-0.00793,-0.05554,-0.07507,-0.00687,-0.01709,-0.05417,-0.01389,-1.19293,-0.03311,-0.01938,0.01755,-0.03784
11.996,0.00183,-0.17136,-0.04898,0.01282,-0.00351,-0.05188,-0.08286,-0.00778,-0.01572,-0.05142,-0.0148,-1.44302,-0.03433,-0.0174,0.01923,-0.0354
11.9965,0.00153,-0.15244,-0.05051,0.01114,-0.01129,-0.05112,-0.08514,-0.00854,-0.01541,-0.04776,-0.01419,-1.66779,-0.03479,-0.01663,0.01816,-0.03616
11.997,0.00488,-0.13824,-0.04929,0.00992,-0.02899,-0.05081,-0.08392,-0.01007,-0.01678,-0.04669,-0.01419,-1.88065,-0.03281,-0.01892,0.01709,-0.03555
11.9975,0.00809,-0.12695,-0.04654,0.00763,-0.04471,-0.04959,-0.08392,-0.01007,-0.01923,-0.04593,-0.01389,-2.07809,-0.0322,-0.02121,0.01602,-0.03494
11.998,0.0119,-0.1149,-0.04562,0.00656,-0.05981,-0.04654,-0.09125,-0.00824,-0.01999,-0.04333,-0.01434,-2.25327,-0.03174,-0.02213,0.01572,-0.03479
11.9985,0.01495,-0.10666,-0.04868,0.00824,-0.07553,-0.04181,-0.10712,-0.00671,-0.01724,-0.03922,-0.01358,-2.39838,-0.03189,-0.02197,0.01541,-0.03601
11.999,0.01801,-0.09979,-0.05463,0.00931,-0.08392,-0.03479,-0.12436,-0.0058,-0.01556,-0.04028,-0.01328,-2.50061,-0.0322,-0.02151,0.01328,-0.03723
11.9995,0.02197,-0.08484,-0.05676,0.01144,-0.07294,-0.0238,-0.1384,-0.00656,-0.01602,-0.03876,-0.01236,-2.55371,-0.0322,-0.02045,0.01297,-0.03693
12.0,0.02945,-0.05325,-0.05524,0.01526,-0.0502,-0.01434,-0.15808,-0.00824,-0.01648,-0.0351,-0.01205,-2.58102,-0.03265,-0.01923,0.01282,-0.03586
12.0005,0.03799,-0.01663,-0.05157,0.02182,-0.03311,-0.0029,-0.19073,-0.01038,-0.01617,-0.03204,-0.01205,-2.61734,-0.03357,-0.01953,0.01358,-0.03494
12.001,0.04288,0.00259,-0.05188,0.02945,-0.02609,0.00427,-0.233,-0.01251,-0.01572,-0.02853,-0.01221,-2.68463,-0.03433,-0.02014,0.01373,-0.03418
12.0015,0.0441,0.00076,-0.04913,0.03693,-0.02457,0.00443,-0.28091,-0.01297,-0.0148,-0.02686,-0.01266,-2.78137,-0.03418,-0.02014,0.01266,-0.03387
12.002,0.04395,-0.00427,-0.04776,0.04166,-0.02686,-0.00809,-0.33981,-0.01297,-0.01434,-0.02594,-0.0119,-2.88422,-0.03464,-0.01984,0.01297,-0.03326
12.0025,0.04608,0.00214,-0.04486,0.04089,-0.03922,-0.0296,-0.37643,-0.01511,-0.0145,-0.0264,-0.01129,-2.95532,-0.03494,-0.01968,0.01312,-0.03448
12.003,0.05066,0.02197,-0.05356,0.03799,-0.06149,-0.05142,-0.31418,-0.01892,-0.01465,-0.02563,-0.01144,-2.97501,-0.03464,-0.02136,0.01099,-0.03754
12.0035,0.05325,0.03952,-0.0798,0.03784,-0.08224,-0.06302,-0.14145,-0.02167,-0.0148,-0.02396,-0.01236,-2.94922,-0.03372,-0.02213,0.00931,-0.03998
12.004,0.05295,0.04257,-0.11353,0.03815,-0.09232,-0.06836,0.01266,-0.02045,-0.01511,-0.02304,-0.01236,-2.91382,-0.03281,-0.02182,0.00854,-0.04105
12.0045,0.05112,0.03159,-0.13382,0.03662,-0.08469,-0.07156,0.01068,-0.01465,-0.01526,-0.02243,-0.01236,-2.90802,-0.0325,-0.02151,0.00854,-0.04074
12.005,0.04837,0.01495,-0.13168,0.03113,-0.06485,-0.07385,-0.10223,-0.00732,-0.01511,-0.02075,-0.01389,-2.92831,-0.03342,-0.02167,0.00748,-0.0412
12.0055,0.0441,0.0,-0.112,0.02228,-0.04654,-0.07675,-0.16052,-0.00092,-0.01633,-0.01862,-0.01556,-2.93076,-0.03265,-0.02121,0.0058,-0.04227
12.006,0.03891,-0.00824,-0.08636,0.01389,-0.03662,-0.07874,-0.10056,0.00458,-0.01831,-0.01541,-0.01541,-2.87979,-0.03235,-0.01999,0.00351,-0.04105
12.0065,0.03433,-0.01038,-0.065,0.00473,-0.03387,-0.07538,-0.00519,0.00626,-0.01953,-0.01419,-0.01373,-2.79251,-0.03204,-0.01938,0.00229,-0.0415
12.007,0.02716,-0.01343,-0.05447,-0.00458,-0.03387,-0.06271,0.06073,0.0032,-0.01968,-0.01205,-0.01266,-2.7034,-0.0325,-0.02075,0.00397,-0.0412
12.0075,0.01801,-0.0238,-0.05432,-0.01053,-0.03342,-0.04608,0.13214,-0.00061,-0.01846,-0.00809,-0.01266,-2.62558,-0.0325,-0.02228,0.00565,-0.03998
12.008,0.00687,-0.03662,-0.05768,-0.00916,-0.03433,-0.03693,0.22827,-0.00046,-0.01678,-0.00427,-0.01343,-2.54898,-0.03204,-0.02197,0.00549,-0.04074
12.0085,0.0,-0.04013,-0.05798,-0.00015,-0.03571,-0.04044,0.3035,0.0032,-0.01816,-0.00305,-0.01328,-2.46109,-0.03189,-0.02029,0.00458,-0.0412
12.009,-0.00061,-0.0325,-0.05692,0.01175,-0.03494,-0.05371,0.34653,0.00763,-0.01923,-0.00168,-0.01297,-2.35611,-0.03113,-0.01907,0.00519,-0.0415
12.0095,0.00671,-0.02289,-0.05661,0.00961,-0.03036,-0.06653,0.40314,0.01114,-0.01953,-0.00381,-0.01221,-2.23114,-0.03067,-0.01999,0.00656,-0.04288
12.01,0.01633,-0.01923,-0.06058,-0.03555,-0.02563,-0.07019,0.49133,0.01373,-0.01755,-0.00366,-0.01266,-2.10281,-0.03006,-0.01953,0.00961,-0.04257
12.0105,0.0235,-0.02121,-0.07111,-0.14267,-0.02411,-0.06454,0.57053,0.01358,-0.01648,-0.00137,-0.01389,-2.01187,-0.03021,-0.01923,0.01114,-0.04044
12.011,0.02838,-0.02319,-0.08392,-0.26917,-0.02335,-0.05768,0.58151,0.01083,-0.01633,-0.00092,-0.01434,-1.98425,-0.03052,-0.0174,0.01038,-0.03937
12.0115,0.03326,-0.02045,-0.09567,-0.33569,-0.01831,-0.05905,0.48996,0.00626,-0.01816,-0.00046,-0.01389,-1.98776,-0.03067,-0.01663,0.00946,-0.03998
12.012,0.03738,-0.00961,-0.10284,-0.3038,-0.00641,-0.0708,0.32272,0.00183,-0.01892,-0.00153,-0.01389,-1.96625,-0.03006,-0.01678,0.0087,-0.04166
12.0125,0.03937,0.00381,-0.10529,-0.21088,0.01221,-0.08377,0.16174,-0.00076,-0.01892,-0.00122,-0.01373,-1.90399,-0.03113,-0.01755,0.00778,-0.04074
12.013,0.03891,0.01495,-0.10544,-0.11581,0.03342,-0.08835,0.07858,0.0,-0.01862,0.00122,-0.01389,-1.83151,-0.03326,-0.0177,0.00763,-0.04105
12.0135,0.03647,0.0206,-0.10574,-0.0444,0.05325,-0.08316,0.06271,0.00092,-0.01846,0.00397,-0.01328,-1.78085,-0.03372,-0.01755,0.00839,-0.0412
12.014,0.03403,0.02289,-0.10605,0.00885,0.06927,-0.07767,0.05386,-0.00092,-0.01953,0.00565,-0.01358,-1.74286,-0.03311,-0.01678,0.00931,-0.04257
12.0145,0.03342,0.02411,-0.10132,0.05142,0.07843,-0.07721,0.02838,-0.0032,-0.01938,0.00702,-0.01389,-1.68793,-0.0325,-0.0174,0.01083,-0.04166
12.015,0.03555,0.02701,-0.0946,0.07782,0.07889,-0.07919,0.00351,-0.00427,-0.01953,0.00824,-0.01419,-1.60049,-0.03265,-0.01846,0.01144,-0.04059
12.0155,0.03876,0.02701,-0.08591,0.07446,0.06454,-0.07843,-0.00748,-0.00244,-0.01785,0.01068,-0.0145,-1.48956,-0.03326,-0.01831,0.01099,-0.04089
12.016,0.04089,0.02304,-0.07858,0.03372,0.03159,-0.07538,-0.01297,-0.00076,-0.01572,0.01297,-0.01572,-1.36765,-0.03342,-0.01862,0.01007,-0.04227
12.0165,0.04135,0.01556,-0.07355,-0.03281,-0.01999,-0.07156,-0.02319,0.00015,-0.01495,0.01343,-0.01587,-1.2587,-0.03296,-0.01846,0.0087,-0.04318
12.017,0.03906,0.0061,-0.07126,-0.09171,-0.07797,-0.06699,-0.03571,0.00031,-0.01526,0.01251,-0.01541,-1.19858,-0.0322,-0.01831,0.00992,-0.04272
12.0175,0.03555,-0.00259,-0.06897,-0.1123,-0.12573,-0.05997,-0.04425,-0.00092,-0.01678,0.00946,-0.01602,-1.19568,-0.03204,-0.01831,0.00946,-0.04211
12.018,0.03204,-0.01022,-0.06821,-0.09933,-0.14755,-0.04761,-0.04944,-0.00519,-0.01556,0.00702,-0.01587,-1.20972,-0.03082,-0.01923,0.00809,-0.04211
12.0185,0.02899,-0.01663,-0.06378,-0.07599,-0.14572,-0.03693,-0.05371,-0.00931,-0.01556,0.00702,-0.01694,-1.19858,-0.03067,-0.02014,0.00671,-0.04181
12.019,0.0264,-0.02197,-0.06195,-0.05417,-0.13382,-0.03662,-0.05783,-0.01007,-0.01587,0.01022,-0.0174,-1.16486,-0.03128,-0.02014,0.00656,-0.04181
12.0195,0.02396,-0.02655,-0.06241,-0.03143,-0.12497,-0.04517,-0.06088,-0.00793,-0.01572,0.01465,-0.01663,-1.1319,-0.03174,-0.01831,0.00519,-0.0412
12.02,0.02228,-0.03036,-0.0647,-0.01221,-0.12024,-0.05157,-0.06104,-0.00488,-0.01541,0.01724,-0.0148,-1.10504,-0.0322,-0.01602,0.00244,-0.04242
12.0205,0.02045,-0.0351,-0.06653,-0.00717,-0.10971,-0.04929,-0.05997,-0.00122,-0.0148,0.02014,-0.01434,-1.07285,-0.03204,-0.01602,0.00244,-0.04272
12.021,0.01755,-0.03983,-0.06836,-0.01862,-0.08789,-0.03815,-0.06165,0.00031,-0.01419,0.02228,-0.01495,-1.03088,-0.03204,-0.01633,0.00366,-0.04318
12.0215,0.01373,-0.04425,-0.06912,-0.03433,-0.04913,-0.02716,-0.065,0.00046,-0.01358,0.02243,-0.01572,-0.98907,-0.03235,-0.0177,0.0032,-0.04349
12.022,0.00824,-0.04578,-0.07126,-0.04089,0.00061,-0.02136,-0.06638,-0.00046,-0.01236,0.02182,-0.01648,-0.95535,-0.03326,-0.01938,0.0029,-0.04456
12.0225,0.00305,-0.04623,-0.07385,-0.03326,0.05035,-0.0238,-0.06378,-0.00168,-0.01129,0.02075,-0.01617,-0.92224,-0.03418,-0.01999,0.0,-0.0444
12.023,0.00061,-0.04745,-0.07813,-0.01724,0.08804,-0.03174,-0.06393,-0.00351,-0.01114,0.02213,-0.01617,-0.8844,-0.03387,-0.01984,0.00153,-0.04379
12.0235,0.0029,-0.04974,-0.07858,-0.00168,0.10803,-0.03845,-0.07553,-0.00565,-0.01312,0.0235,-0.01556,-0.84274,-0.03326,-0.01877,0.00046,-0.0441
12.024,0.00809,-0.0502,-0.07751,0.00626,0.11185,-0.04044,-0.10162,-0.00824,-0.01526,0.02426,-0.01434,-0.79559,-0.03281,-0.01785,-0.00076,-0.04425
12.0245,0.01129,-0.04791,-0.06958,0.0058,0.10178,-0.03967,-0.13382,-0.01099,-0.01602,0.0238,-0.01434,-0.73639,-0.03281,-0.01816,-0.00137,-0.04547
12.025,0.01022,-0.04608,-0.05325,0.00168,0.07172,-0.04059,-0.15671,-0.01266,-0.01572,0.02228,-0.0145,-0.66498,-0.03372,-0.01831,-0.00061,-0.04547
12.0255,0.00793,-0.04623,-0.03159,-0.00183,0.00656,-0.0441,-0.16525,-0.01175,-0.01526,0.02197,-0.01434,-0.5896,-0.03433,-0.01877,-0.00137,-0.04486
12.026,0.00778,-0.04562,-0.01709,-0.00076,-0.09567,-0.0499,-0.16891,-0.00885,-0.01556,0.02045,-0.01465,-0.51575,-0.03372,-0.01923,-0.00076,-0.04501
12.0265,0.00916,-0.04547,-0.0177,0.00397,-0.19608,-0.05432,-0.17426,-0.00458,-0.01556,0.01785,-0.0148,-0.44205,-0.03265,-0.01968,-0.00305,-0.04608
12.027,0.0087,-0.04562,-0.02731,0.00504,-0.24002,-0.0528,-0.17776,-0.00107,-0.01495,0.01617,-0.01511,-0.36789,-0.03235,-0.02014,-0.00183,-0.04562
12.0275,0.00763,-0.0473,-0.03876,-0.01022,-0.21042,-0.04669,-0.16724,-0.00031,-0.01465,0.01389,-0.01556,-0.29266,-0.03357,-0.02045,-0.0029,-0.0444
12.028,0.00702,-0.04913,-0.05081,-0.04456,-0.14816,-0.03906,-0.13931,-0.00229,-0.01389,0.01282,-0.01678,-0.21469,-0.03342,-0.01984,-0.00412,-0.04318
12.0285,0.00748,-0.04791,-0.065,-0.07599,-0.10025,-0.03342,-0.09094,-0.00656,-0.01465,0.01221,-0.01755,-0.13641,-0.03403,-0.01907,-0.00595,-0.04318
12.029,0.00839,-0.04471,-0.08072,-0.08301,-0.08148,-0.03113,-0.02609,-0.01053,-0.01511,0.01297,-0.0174,-0.06027,-0.03403,-0.01862,-0.00702,-0.04379
12.0295,0.00885,-0.0441,-0.09476,-0.07492,-0.07675,-0.02899,0.03281,-0.00961,-0.01511,0.01404,-0.01541,0.01434,-0.03342,-0.01923,-0.00656,-0.04471
12.03,0.00641,-0.05035,-0.10117,-0.08026,-0.07065,-0.02594,0.05341,-0.00168,-0.01312,0.01495,-0.01373,0.08835,-0.03174,-0.0206,-0.00534,-0.0444
12.0305,0.00153,-0.06027,-0.09842,-0.1059,-0.06149,-0.02426,0.04013,0.0087,-0.01205,0.01587,-0.01404,0.15991,-0.03067,-0.02014,-0.00687,-0.04501
12.031,-0.00351,-0.06943,-0.09003,-0.12817,-0.05188,-0.02411,0.03159,0.01419,-0.01297,0.01587,-0.01434,0.22903,-0.03067,-0.01984,-0.00717,-0.04456
12.0315,-0.0061,-0.07523,-0.08194,-0.12756,-0.03891,-0.02563,0.04364,0.01541,-0.01465,0.01373,-0.0145,0.29251,-0.0296,-0.01862,-0.00763,-0.0415
12.032,-0.00656,-0.07935,-0.07919,-0.10086,-0.02594,-0.0267,0.04959,0.01404,-0.01434,0.01007,-0.01465,0.34637,-0.02853,-0.01801,-0.00687,-0.03815
12.0325,-0.00534,-0.08163,-0.08835,-0.04822,-0.01678,-0.02838,0.02838,0.01373,-0.01282,0.00671,-0.01404,0.39093,-0.02762,-0.0177,-0.00854,-0.03662
12.033,-0.00229,-0.08057,-0.10208,0.01587,-0.01282,-0.03067,-0.00198,0.01633,-0.0116,0.00702,-0.01358,0.43961,-0.02823,-0.01862,-0.01083,-0.03876
12.0335,0.00107,-0.07675,-0.11902,0.05676,-0.01083,-0.03357,-0.01633,0.01923,-0.01236,0.00992,-0.01404,0.5072,-0.0293,-0.01938,-0.01144,-0.04074
12.034,0.00275,-0.07385,-0.13397,0.04837,-0.00793,-0.03754,-0.01831,0.01724,-0.01343,0.00977,-0.01404,0.60043,-0.03067,-0.01801,-0.01221,-0.04242
12.0345,0.00153,-0.07095,-0.13885,0.01175,-0.00656,-0.03937,-0.02274,0.00946,-0.01404,0.00793,-0.01434,0.72235,-0.03098,-0.0174,-0.00931,-0.04288
12.035,-0.00061,-0.06485,-0.13016,-0.0087,-0.00778,-0.03983,-0.03326,-0.00275,-0.01389,0.00473,-0.01511,0.867,-0.03021,-0.01892,-0.01282,-0.04227
12.0355,-0.00153,-0.05554,-0.11246,0.00061,-0.01297,-0.03937,-0.03922,-0.01434,-0.01404,0.00351,-0.01526,0.99503,-0.02853,-0.0206,-0.01312,-0.04105
12.036,-0.00107,-0.04745,-0.09064,0.01602,-0.02411,-0.03937,-0.03677,-0.02106,-0.01572,0.00137,-0.01541,1.05698,-0.02869,-0.02121,-0.01282,-0.04211
12.0365,-0.00183,-0.04501,-0.07294,0.01175,-0.03387,-0.03799,-0.02762,-0.02182,-0.01663,0.00214,-0.01373,1.05011,-0.03036,-0.02151,-0.01282,-0.04349
12.037,-0.00412,-0.04395,-0.06348,-0.00626,-0.03372,-0.03677,-0.01556,-0.02167,-0.01541,0.00046,-0.01373,1.02356,-0.02975,-0.02136,-0.01328,-0.04425
12.0375,-0.00702,-0.0386,-0.05737,-0.01556,-0.01923,-0.03738,-0.00595,-0.02518,-0.01434,-0.00183,-0.01328,1.01944,-0.02823,-0.02167,-0.01556,-0.0444
12.038,-0.00931,-0.02518,-0.05646,-0.01251,-0.0032,-0.03952,-0.00305,-0.03128,-0.01343,-0.0061,-0.01389,1.04218,-0.02731,-0.01999,-0.01648,-0.04379
12.0385,-0.00931,-0.00473,-0.06042,-0.00885,0.00519,-0.04257,-0.00336,-0.03372,-0.01465,-0.01053,-0.01419,1.09146,-0.02777,-0.01831,-0.01846,-0.04379
12.039,-0.00595,0.01297,-0.06668,-0.00885,0.00732,-0.04578,-0.00107,-0.02747,-0.0148,-0.01373,-0.01419,1.17432,-0.02945,-0.01892,-0.01648,-0.04364
12.0395,-0.00122,0.01587,-0.07065,-0.00946,0.0087,-0.04547,-0.00153,-0.01785,-0.0148,-0.01617,-0.01389,1.26236,-0.02945,-0.01953,-0.01465,-0.04379
12.04,0.00061,-0.00198,-0.07141,-0.00854,0.00809,-0.04196,-0.00946,-0.01144,-0.0148,-0.01938,-0.01297,1.29852,-0.02899,-0.01984,-0.0145,-0.04318
12.0405,0.00061,-0.03326,-0.06668,-0.00931,0.00198,-0.04105,-0.02167,-0.0087,-0.01434,-0.02182,-0.01328,1.26404,-0.02792,-0.01984,-0.01617,-0.04318
12.041,-0.00076,-0.06409,-0.05661,-0.01038,-0.01038,-0.04425,-0.02838,-0.00671,-0.01465,-0.0235,-0.01282,1.2001,-0.02823,-0.02045,-0.01648,-0.04364
12.0415,0.00031,-0.08514,-0.04456,-0.00946,-0.02487,-0.04761,-0.02625,-0.00443,-0.01419,-0.02411,-0.01205,1.1467,-0.02975,-0.02106,-0.01587,-0.04318
12.042,0.00305,-0.09567,-0.0444,-0.00549,-0.03265,-0.05219,-0.02121,-0.00626,-0.01404,-0.02869,-0.01236,1.10291,-0.03174,-0.02136,-0.0174,-0.04318
12.0425,0.00732,-0.10056,-0.04547,-0.0029,-0.02182,-0.0563,-0.01709,-0.01312,-0.01465,-0.03326,-0.01266,1.05331,-0.0325,-0.02106,-0.0209,-0.04257
12.043,0.0116,-0.10437,-0.04532,-0.00397,0.00504,-0.05783,-0.01404,-0.01816,-0.01556,-0.03479,-0.01373,1.00067,-0.03235,-0.02029,-0.02167,-0.04333
12.0435,0.01511,-0.10803,-0.04883,-0.00671,0.02853,-0.05875,-0.01495,-0.01755,-0.01648,-0.03372,-0.0145,0.95734,-0.03113,-0.02014,-0.01968,-0.04349
12.044,0.0177,-0.10986,-0.07446,-0.00763,0.03036,-0.06134,-0.01907,-0.01511,-0.0177,-0.0325,-0.01465,0.93124,-0.03067,-0.0206,-0.01831,-0.04333
12.0445,0.01678,-0.10757,-0.12985,-0.00626,0.01221,-0.06561,-0.02228,-0.01526,-0.01862,-0.03296,-0.0148,0.92117,-0.0296,-0.0206,-0.01877,-0.04227
12.045,0.01297,-0.10056,-0.19165,-0.00595,-0.01175,-0.06912,-0.01892,-0.01999,-0.01831,-0.03342,-0.01465,0.91293,-0.02991,-0.02045,-0.01984,-0.04318
12.0455,0.00763,-0.09018,-0.20309,-0.0061,-0.03128,-0.06989,-0.00778,-0.02808,-0.01755,-0.03342,-0.01511,0.89127,-0.03143,-0.01984,-0.02106,-0.04318
12.046,0.00198,-0.07492,-0.13458,-0.00534,-0.0444,-0.06439,0.00809,-0.03174,-0.01617,-0.03159,-0.01465,0.85831,-0.03174,-0.01999,-0.02167,-0.04349
12.0465,-0.00443,-0.05692,-0.02136,-0.00183,-0.04517,-0.05875,0.02258,-0.0238,-0.01648,-0.03052,-0.0148,0.82687,-0.03113,-0.02106,-0.02045,-0.0441
12.047,-0.01144,-0.0386,0.06638,0.00183,-0.03586,-0.05142,0.02457,-0.01221,-0.01755,-0.03021,-0.01602,0.80017,-0.03128,-0.02167,-0.01877,-0.04471
12.0475,-0.02121,-0.02579,0.09094,0.00595,-0.03113,-0.04593,0.01129,-0.00717,-0.01724,-0.03113,-0.01648,0.76675,-0.03235,-0.02151,-0.01877,-0.04379
12.048,-0.03036,-0.02792,0.06042,0.01175,-0.04425,-0.04196,-0.01434,-0.01205,-0.01694,-0.03372,-0.01587,0.71808,-0.03296,-0.01968,-0.02075,-0.04227
12.0485,-0.0351,-0.04715,0.0058,0.0206,-0.065,-0.03723,-0.05417,-0.01312,-0.01785,-0.03464,-0.01358,0.65369,-0.03342,-0.01862,-0.02243,-0.04013
12.049,-0.03601,-0.07462,-0.03769,0.03036,-0.07324,-0.03815,-0.13077,-0.00031,-0.01938,-0.03387,-0.01205,0.5809,-0.03296,-0.01907,-0.02213,-0.04013
12.0495,-0.03372,-0.0943,-0.0351,0.03906,-0.06424,-0.03662,-0.23773,0.02106,-0.01984,-0.03189,-0.01266,0.51453,-0.03326,-0.01938,-0.02045,-0.04044
12.05,-0.03128,-0.10162,0.0058,0.04395,-0.05096,-0.03845,-0.3009,0.03204,-0.01953,-0.02777,-0.01266,0.47134,-0.03311,-0.01907,-0.01953,-0.04044
12.0505,-0.03067,-0.0975,0.05188,0.04059,-0.04791,-0.03845,-0.25238,0.02792,-0.01892,-0.02579,-0.01358,0.44891,-0.03159,-0.01846,-0.01862,-0.04028
12.051,-0.03296,-0.09064,0.0769,0.03128,-0.05371,-0.03998,-0.14679,0.01968,-0.01785,-0.02686,-0.01373,0.42984,-0.03113,-0.01801,-0.01801,-0.03937
12.0515,-0.03784,-0.08438,0.07416,0.02197,-0.0621,-0.04196,-0.10803,0.01266,-0.01678,-0.02777,-0.01328,0.40421,-0.03143,-0.01862,-0.01678,-0.03815
12.052,-0.04242,-0.07904,0.05066,0.01312,-0.0647,-0.04547,-0.15839,0.00488,-0.01694,-0.02991,-0.01389,0.38589,-0.03174,-0.01877,-0.01724,-0.0383
12.0525,-0.0441,-0.07355,0.01038,-0.00092,-0.0592,-0.04883,-0.17746,-0.00275,-0.01801,-0.03189,-0.01236,0.392,-0.03052,-0.01816,-0.01877,-0.03922
12.053,-0.04211,-0.06943,-0.03662,-0.02319,-0.04791,-0.0499,-0.0705,-0.00748,-0.01892,-0.03189,-0.01144,0.42633,-0.03174,-0.01923,-0.01663,-0.04074
12.0535,-0.03601,-0.0676,-0.06851,-0.04791,-0.03677,-0.04852,0.0943,-0.00854,-0.01846,-0.03265,-0.01114,0.46555,-0.03342,-0.02045,-0.01343,-0.04105
12.054,-0.02945,-0.06638,-0.07431,-0.06332,-0.02991,-0.04654,0.18738,-0.01312,-0.01663,-0.03296,-0.01175,0.47775,-0.03387,-0.02106,-0.01297,-0.04059
12.0545,-0.02304,-0.06332,-0.07278,-0.0621,-0.02945,-0.04517,0.21194,-0.01862,-0.01526,-0.03265,-0.01282,0.45197,-0.03326,-0.02075,-0.01373,-0.04013
12.055,-0.01907,-0.06027,-0.09033,-0.04944,-0.02975,-0.04639,0.26779,-0.01419,-0.01724,-0.03372,-0.01282,0.40375,-0.03174,-0.02045,-0.01526,-0.03998
12.0555,-0.01602,-0.05981,-0.11887,-0.03723,-0.02792,-0.04807,0.34439,0.00198,-0.02014,-0.03372,-0.01297,0.35736,-0.03143,-0.02197,-0.01633,-0.04044
12.056,-0.01312,-0.06256,-0.11932,-0.03876,-0.02548,-0.0502,0.32333,0.02365,-0.02167,-0.03204,-0.01266,0.3215,-0.03174,-0.02335,-0.01434,-0.0415
12.0565,-0.009,-0.06561,-0.07538,-0.05112,-0.02502,-0.04974,0.18616,0.04349,-0.02121,-0.03036,-0.01373,0.29343,-0.0322,-0.02319,-0.01251,-0.04288
12.057,-0.00717,-0.06866,-0.00931,-0.05859,-0.02487,-0.04776,0.05875,0.05447,-0.0206,-0.02823,-0.01389,0.27069,-0.03098,-0.02121,-0.0119,-0.04135
12.0575,-0.00839,-0.07355,0.03967,-0.03937,-0.02533,-0.04501,0.02808,0.05249,-0.0209,-0.02716,-0.01373,0.2536,-0.03098,-0.01877,-0.01205,-0.03784
12.058,-0.01236,-0.07675,0.06622,0.02396,-0.02426,-0.04395,0.04974,0.0383,-0.02182,-0.02625,-0.01358,0.24063,-0.03082,-0.01617,-0.01129,-0.03601
12.0585,-0.01602,-0.07492,0.07034,0.12482,-0.0235,-0.04486,0.05356,0.02106,-0.02228,-0.02457,-0.01343,0.22858,-0.03113,-0.01572,-0.01022,-0.03632
12.059,-0.01785,-0.06744,0.06699,0.20828,-0.02228,-0.04623,0.03418,0.01236,-0.02243,-0.02319,-0.01297,0.21301,-0.03098,-0.01709,-0.01083,-0.03784
12.0595,-0.01694,-0.05997,0.0589,0.21912,-0.02045,-0.04715,0.01892,0.01099,-0.02258,-0.02045,-0.01236,0.19577,-0.03021,-0.01801,-0.01022,-0.0383
12.06,-0.01587,-0.0563,0.05142,0.15961,-0.01968,-0.04547,0.01022,0.009,-0.02167,-0.01785,-0.01144,0.18021,-0.03113,-0.01663,-0.00824,-0.03922
