time,RectFemL,VastusMedL,VastusLatL,TibAntL,HamMedL,HamLatL,GastroMedL,GastroLatL,RectFemR,VastusMedR,VastusLatR,TibAntR,HamMedR,HamLatR,GastroMedR,GastroLatR
10.25,-0.01328,-0.01678,0.0766,0.00412,-0.00153,-0.03754,-0.01678,-0.00305,0.07553,-0.00931,-0.03494,0.02472,-0.02075,-0.01343,-0.01129,-0.02792
10.2505,-0.01511,-0.01663,0.06271,0.01389,0.00168,-0.03983,-0.01648,-0.00153,0.0621,-0.0061,-0.03082,0.02457,-0.01602,-0.01022,-0.01221,-0.02548
10.251,-0.0148,-0.01678,0.0116,0.02502,0.00565,-0.03998,-0.01495,-0.00031,0.04425,-0.0058,-0.02884,0.02029,-0.01465,-0.01175,-0.0029,-0.03387
10.2515,-0.01282,-0.01938,-0.08453,0.0386,0.01129,-0.03891,-0.01541,0.00046,0.03616,-0.00763,-0.02823,0.01358,-0.01312,-0.01526,0.00671,-0.04395
10.252,-0.00854,-0.02121,-0.18097,0.05386,0.01923,-0.03723,-0.01633,-0.00046,0.03311,-0.01053,-0.02686,0.00793,-0.01053,-0.01633,0.00977,-0.04944
10.2525,-0.00534,-0.02136,-0.19287,0.06882,0.02548,-0.03769,-0.01663,-0.00092,0.02762,-0.01556,-0.02396,0.00458,-0.00946,-0.01617,0.0058,-0.05051
10.253,-0.0029,-0.02121,-0.09079,0.08148,0.02762,-0.03998,-0.01678,-0.00168,0.01999,-0.01999,-0.02029,0.00122,-0.01266,-0.01801,-0.00061,-0.05081
10.2535,-0.00198,-0.02151,0.04684,0.09186,0.02441,-0.0444,-0.01648,-0.00168,0.01434,-0.02594,-0.01526,-0.00198,-0.01907,-0.02319,-0.0087,-0.05219
10.254,0.00107,-0.02029,0.12375,0.09964,0.01816,-0.04776,-0.01633,-0.00153,0.01022,-0.02945,-0.00977,-0.00641,-0.02701,-0.02869,-0.01801,-0.05112
10.2545,0.00381,-0.01816,0.12405,0.10468,0.00977,-0.04898,-0.01556,-0.00076,0.00565,-0.0293,-0.00549,-0.00732,-0.03448,-0.03067,-0.02136,-0.04761
10.255,0.00366,-0.01785,0.09811,0.10864,-0.00336,-0.04913,-0.01785,-0.00046,-0.00137,-0.02914,-0.00336,-0.00473,-0.04364,-0.03036,-0.01114,-0.04196
10.2555,0.00092,-0.02045,0.07736,0.11108,-0.0238,-0.04959,-0.01892,-0.00046,-0.00778,-0.02838,-0.00305,-0.00092,-0.04929,-0.03082,0.01068,-0.03479
10.256,-0.00137,-0.02609,0.05646,0.11261,-0.03998,-0.05157,-0.01816,-0.00122,-0.01221,-0.03052,-0.00305,0.00107,-0.05539,-0.0325,0.02487,-0.02625
10.2565,-0.00168,-0.03159,0.02731,0.11185,-0.04013,-0.05325,-0.01724,-0.00122,-0.01617,-0.03372,-0.00275,0.00076,-0.05829,-0.0325,0.01205,-0.02533
10.257,-0.00183,-0.03403,-0.00061,0.1091,-0.02548,-0.05371,-0.01648,-0.00229,-0.01892,-0.03525,-0.0029,-0.00061,-0.06378,-0.02838,-0.02335,-0.04333
10.2575,-0.00076,-0.03418,-0.0206,0.10681,-0.00824,-0.05508,-0.01663,-0.00473,-0.0209,-0.03662,-0.00366,-0.00168,-0.06866,-0.02182,-0.05844,-0.07614
10.258,0.00214,-0.0322,-0.03342,0.10742,0.00015,-0.05295,-0.01633,-0.00565,-0.02075,-0.03677,-0.00336,0.0,-0.07019,-0.0145,-0.08682,-0.10071
10.2585,0.00702,-0.02777,-0.04044,0.11032,0.00229,-0.05249,-0.01663,-0.00443,-0.01984,-0.03571,-0.00305,0.00275,-0.06729,-0.00931,-0.11993,-0.10498
10.259,0.01068,-0.02457,-0.03952,0.11261,0.00397,-0.0502,-0.01755,-0.0029,-0.02014,-0.03281,-0.00183,0.00473,-0.06226,-0.00641,-0.15106,-0.10193
10.2595,0.01083,-0.02319,-0.03342,0.10971,0.00641,-0.04974,-0.01648,-0.00137,-0.02136,-0.0296,-0.00153,0.00549,-0.05493,-0.00595,-0.15442,-0.10117
10.26,0.00824,-0.02625,-0.0293,0.10193,0.00092,-0.05173,-0.01541,-0.00061,-0.02411,-0.02838,-0.00259,0.00412,-0.04608,-0.00671,-0.12161,-0.09048
10.2605,0.0061,-0.03082,-0.0351,0.09491,-0.0177,-0.05356,-0.01617,-0.00046,-0.02777,-0.02869,-0.00214,0.00153,-0.03708,-0.01007,-0.07965,-0.056
10.261,0.00534,-0.03708,-0.05676,0.09232,-0.04364,-0.05295,-0.01617,-0.00061,-0.02975,-0.0293,-0.00168,-0.00259,-0.03128,-0.01465,-0.05798,-0.01602
10.2615,0.00397,-0.04364,-0.08942,0.0914,-0.06317,-0.05234,-0.01709,-0.00076,-0.03387,-0.02869,-0.00443,-0.01205,-0.02838,-0.02014,-0.06149,-0.00717
10.262,0.00092,-0.0502,-0.11505,0.08774,-0.07385,-0.05249,-0.01892,-0.00137,-0.03891,-0.02777,-0.00977,-0.02167,-0.02747,-0.02548,-0.06821,-0.04517
10.2625,-0.00351,-0.05341,-0.1062,0.0769,-0.0795,-0.05615,-0.01923,-0.0029,-0.04257,-0.02701,-0.01266,-0.02411,-0.03113,-0.02731,-0.04364,-0.10101
10.263,-0.00717,-0.04807,-0.06149,0.04944,-0.08377,-0.0589,-0.01801,-0.00366,-0.04272,-0.02533,-0.00977,-0.01526,-0.03723,-0.02518,0.02914,-0.12802
10.2635,-0.01007,-0.03677,-0.01221,0.00092,-0.08591,-0.06088,-0.01572,-0.0029,-0.04028,-0.02335,-0.00366,0.00137,-0.04105,-0.02274,0.11749,-0.103
10.264,-0.01144,-0.02991,0.01694,-0.05539,-0.09048,-0.06241,-0.01602,-0.00275,-0.03815,-0.02319,-0.00153,0.01816,-0.04242,-0.02151,0.16052,-0.04562
10.2645,-0.01282,-0.03647,0.01984,-0.09186,-0.10284,-0.06226,-0.01801,-0.00183,-0.03693,-0.02335,-0.00076,0.02762,-0.04135,-0.02121,0.14862,0.00198
10.265,-0.01511,-0.05234,0.01068,-0.09827,-0.12009,-0.05859,-0.01968,-0.00214,-0.03723,-0.02029,0.00031,0.0322,-0.03967,-0.0206,0.12527,0.01953
10.2655,-0.01633,-0.06226,-0.00153,-0.09735,-0.12863,-0.05325,-0.01938,-0.00229,-0.03738,-0.01328,0.00549,0.03632,-0.03662,-0.01694,0.11215,0.01892
10.266,-0.01709,-0.06119,-0.01434,-0.13153,-0.12039,-0.04822,-0.01816,-0.00275,-0.03662,-0.00702,0.01434,0.03952,-0.03387,-0.0145,0.09323,0.01724
10.2665,-0.01617,-0.05646,-0.03052,-0.215,-0.09705,-0.04608,-0.01694,-0.0029,-0.03418,-0.00839,0.02823,0.03387,-0.03036,-0.0119,0.05371,0.01282
10.267,-0.01297,-0.05478,-0.04761,-0.30075,-0.0708,-0.04532,-0.01572,-0.00244,-0.03159,-0.01648,0.04883,0.01602,-0.02808,-0.01297,0.01755,0.0
10.2675,-0.00977,-0.05661,-0.06088,-0.31464,-0.05112,-0.04501,-0.01541,-0.00031,-0.02991,-0.02457,0.07217,-0.00549,-0.02548,-0.01587,0.00153,-0.01328
10.268,-0.00824,-0.05707,-0.06805,-0.21469,-0.03784,-0.0441,-0.01617,0.00031,-0.03036,-0.02716,0.08606,-0.02167,-0.02228,-0.01755,-0.0029,-0.01968
10.2685,-0.01099,-0.05569,-0.0737,-0.02029,-0.03311,-0.04318,-0.01678,-0.00092,-0.0322,-0.02945,0.08301,-0.03036,-0.01755,-0.01755,-0.00809,-0.01831
10.269,-0.01633,-0.05096,-0.08072,0.19409,-0.03723,-0.04364,-0.01724,-0.00305,-0.03281,-0.03021,0.06821,-0.03326,-0.01648,-0.01877,-0.01068,-0.01862
10.2695,-0.02029,-0.04837,-0.08591,0.3334,-0.04776,-0.04623,-0.01755,-0.00366,-0.03113,-0.02869,0.05508,-0.03479,-0.0209,-0.02228,0.00366,-0.01984
10.27,-0.02197,-0.04532,-0.08286,0.34424,-0.05569,-0.04883,-0.01816,-0.00366,-0.0296,-0.02594,0.04593,-0.03784,-0.02472,-0.02869,0.04578,-0.01709
10.2705,-0.02136,-0.04257,-0.07355,0.26123,-0.0563,-0.05051,-0.01801,-0.0029,-0.02899,-0.0235,0.0296,-0.03784,-0.02747,-0.03311,0.10056,-0.01328
10.271,-0.01923,-0.04013,-0.06393,0.16266,-0.04623,-0.04745,-0.01953,-0.0032,-0.03113,-0.02457,-0.00198,-0.03082,-0.02701,-0.03265,0.1329,-0.01297
10.2715,-0.01404,-0.03754,-0.05966,0.09552,-0.02777,-0.04303,-0.02182,-0.00381,-0.03128,-0.02808,-0.05081,-0.01968,-0.02457,-0.03189,0.1265,-0.01587
10.272,-0.00778,-0.03555,-0.0592,0.05539,-0.00626,-0.03647,-0.02167,-0.00397,-0.02838,-0.02945,-0.10773,-0.0116,-0.0267,-0.03128,0.08896,-0.01556
10.2725,-0.00137,-0.03296,-0.0589,0.02441,0.00992,-0.03159,-0.02121,-0.00504,-0.02533,-0.02975,-0.15808,-0.00946,-0.02792,-0.03281,0.04227,-0.01022
10.273,0.00183,-0.03113,-0.05951,0.00183,0.01663,-0.02808,-0.01984,-0.00595,-0.02319,-0.02792,-0.18738,-0.00565,-0.03143,-0.03494,0.00244,-0.00824
10.2735,0.00244,-0.03143,-0.06165,-0.00427,0.01709,-0.02594,-0.01953,-0.00717,-0.02243,-0.02762,-0.18875,0.00031,-0.03204,-0.03616,-0.02243,-0.02045
10.274,0.00229,-0.03372,-0.06531,0.00427,0.01678,-0.02243,-0.01892,-0.009,-0.02228,-0.03326,-0.16388,0.00763,-0.0293,-0.03616,-0.03265,-0.04623
10.2745,0.00259,-0.03662,-0.06744,0.01862,0.01526,-0.01968,-0.01953,-0.00916,-0.02319,-0.04715,-0.12558,0.0116,-0.02594,-0.0322,-0.03799,-0.06882
10.275,0.00259,-0.03601,-0.06546,0.03098,0.00687,-0.01923,-0.02029,-0.00824,-0.02457,-0.06134,-0.08942,0.01068,-0.02335,-0.02762,-0.03647,-0.07736
10.2755,0.00137,-0.03342,-0.06119,0.0441,-0.01022,-0.0238,-0.02106,-0.0061,-0.02731,-0.06378,-0.065,0.0058,-0.02441,-0.0238,-0.01358,-0.07202
10.276,0.00031,-0.03265,-0.05569,0.06134,-0.03387,-0.03433,-0.02136,-0.00458,-0.03082,-0.0531,-0.04868,0.00107,-0.02609,-0.02274,0.03555,-0.06393
10.2765,0.00031,-0.0354,-0.05188,0.06561,-0.05615,-0.04807,-0.01968,-0.00412,-0.03342,-0.03906,-0.03082,0.00183,-0.02731,-0.0238,0.09003,-0.06119
10.277,0.00015,-0.03815,-0.04913,0.03693,-0.06592,-0.05814,-0.0174,-0.00397,-0.0351,-0.03143,-0.01114,0.00565,-0.02884,-0.02335,0.11383,-0.06317
10.2775,-0.00046,-0.04105,-0.04639,-0.00946,-0.06058,-0.06287,-0.01602,-0.00412,-0.03723,-0.02945,0.00473,0.00381,-0.02594,-0.02228,0.0824,-0.07248
10.278,0.00015,-0.04257,-0.04303,-0.0235,-0.05371,-0.06302,-0.01694,-0.00473,-0.03906,-0.03052,0.01053,-0.0061,-0.01877,-0.02075,0.01663,-0.08881
10.2785,0.00198,-0.04318,-0.03922,0.01083,-0.05081,-0.0618,-0.01984,-0.00427,-0.03952,-0.03174,0.00839,-0.0177,-0.01068,-0.01801,-0.03738,-0.10406
10.279,0.0061,-0.04303,-0.03616,0.05157,-0.04333,-0.05859,-0.02075,-0.00397,-0.03677,-0.03143,0.00351,-0.02045,-0.00641,-0.01617,-0.05035,-0.10452
10.2795,0.00946,-0.04257,-0.03342,0.03815,-0.02106,-0.0531,-0.01846,-0.00351,-0.03326,-0.03311,0.0,-0.01495,-0.0058,-0.01343,-0.04196,-0.09399
10.28,0.01236,-0.04242,-0.03235,-0.04547,0.00656,-0.04684,-0.01663,-0.00351,-0.02991,-0.03296,-0.00244,-0.00626,-0.00793,-0.0116,-0.0441,-0.08911
10.2805,0.01358,-0.0444,-0.03113,-0.16144,0.02441,-0.0412,-0.01572,-0.00275,-0.02823,-0.03189,-0.0058,0.00076,-0.00854,-0.01144,-0.06424,-0.08972
10.281,0.01419,-0.04623,-0.02975,-0.24689,0.02975,-0.03891,-0.01572,-0.00122,-0.02808,-0.02899,-0.0087,0.00504,-0.00565,-0.01373,-0.07599,-0.0824
10.2815,0.01328,-0.04761,-0.02808,-0.26825,0.03159,-0.03998,-0.01572,0.00076,-0.02853,-0.02487,-0.01129,0.00397,-0.00229,-0.01831,-0.05096,-0.06012
10.282,0.01114,-0.04852,-0.02731,-0.23529,0.03662,-0.04486,-0.01419,0.00061,-0.02838,-0.02151,-0.0145,0.00092,-0.00549,-0.02502,0.00549,-0.03952
10.2825,0.009,-0.04944,-0.02762,-0.18082,0.04272,-0.05051,-0.0148,-0.00046,-0.02792,-0.01984,-0.01907,-0.00183,-0.0174,-0.03265,0.05127,-0.04013
10.283,0.00961,-0.05157,-0.02914,-0.12772,0.04471,-0.05478,-0.01602,-0.00168,-0.02686,-0.01724,-0.02136,-0.00351,-0.03357,-0.03891,0.05173,-0.06302
10.2835,0.01053,-0.05447,-0.03143,-0.07141,0.0383,-0.06088,-0.01678,-0.00137,-0.02594,-0.01389,-0.0209,-0.00549,-0.04669,-0.04257,0.0177,-0.09094
10.284,0.01114,-0.05707,-0.03204,-0.00488,0.02213,-0.06912,-0.01572,-0.00168,-0.02426,-0.00977,-0.01801,-0.00748,-0.05356,-0.04379,-0.01663,-0.09537
10.2845,0.01099,-0.05676,-0.03143,0.05234,0.00595,-0.07797,-0.01495,-0.0032,-0.0235,-0.00702,-0.0148,-0.00671,-0.05692,-0.04395,-0.03632,-0.05966
10.285,0.01038,-0.05692,-0.02838,0.0618,-0.00031,-0.08652,-0.01541,-0.00504,-0.0238,-0.00473,-0.01282,-0.00259,-0.06119,-0.04318,-0.04364,0.00595
10.2855,0.00824,-0.0563,-0.02716,0.01175,0.0,-0.09583,-0.01785,-0.00504,-0.02487,-0.00443,-0.01068,0.00198,-0.06638,-0.04135,-0.03677,0.05875
10.286,0.0058,-0.05386,-0.02625,-0.06241,-0.01389,-0.10895,-0.01907,-0.00488,-0.02365,-0.00534,-0.00656,0.0029,-0.06821,-0.03693,-0.00671,0.0563
10.2865,0.00412,-0.04593,-0.02808,-0.11017,-0.05676,-0.11963,-0.01816,-0.00458,-0.02121,-0.00519,-0.00168,0.00275,-0.06683,-0.02777,0.03708,0.0029
10.287,0.00458,-0.03494,-0.02823,-0.10773,-0.11719,-0.1207,-0.0177,-0.00549,-0.01846,-0.00351,0.00244,0.00015,-0.06165,-0.01495,0.0676,-0.0473
10.2875,0.00626,-0.02853,-0.03006,-0.07477,-0.16571,-0.10956,-0.01694,-0.00656,-0.01648,-0.00107,0.00641,-0.0029,-0.05493,-0.00031,0.06271,-0.05325
10.288,0.00687,-0.03265,-0.02884,-0.04883,-0.18295,-0.0914,-0.01617,-0.00671,-0.01434,0.00168,0.01083,-0.00443,-0.04776,0.01144,0.03571,-0.03159
10.2885,0.0058,-0.04562,-0.01801,-0.04776,-0.17181,-0.07141,-0.01587,-0.00732,-0.01129,0.00092,0.01511,-0.00336,-0.04257,0.01648,0.01602,-0.03113
10.289,0.00397,-0.06104,-0.00244,-0.05249,-0.15137,-0.05066,-0.01541,-0.00717,-0.00809,0.00168,0.01801,-0.00168,-0.03845,0.01419,0.01785,-0.05295
10.2895,0.0029,-0.07324,-0.00427,-0.04028,-0.13107,-0.03174,-0.01495,-0.00748,-0.00488,0.00748,0.02167,-0.00076,-0.03387,0.01282,0.02563,-0.05478
10.29,0.00275,-0.08011,-0.0441,-0.00839,-0.11307,-0.02045,-0.01389,-0.00626,-0.00122,0.01343,0.02716,-0.00168,-0.02716,0.01205,0.02518,-0.02533
10.2905,0.00153,-0.08224,-0.10849,0.02838,-0.0946,-0.01892,-0.01266,-0.00534,-0.00015,0.01724,0.03357,-0.0029,-0.02197,0.01053,0.01633,-0.00656
10.291,-0.00046,-0.07843,-0.15045,0.06378,-0.07355,-0.02472,-0.01282,-0.00488,-0.00305,0.01648,0.04105,-0.00336,-0.02106,0.00519,0.00931,-0.02792
10.2915,-0.00229,-0.06958,-0.13306,0.07965,-0.05463,-0.03113,-0.01389,-0.00534,-0.00977,0.01984,0.04822,-0.00366,-0.02533,-0.00153,0.00809,-0.06302
10.292,-0.00397,-0.05875,-0.0679,0.05615,-0.04395,-0.03632,-0.01465,-0.00534,-0.01801,0.02594,0.05234,-0.00427,-0.03113,-0.00778,0.00977,-0.07355
10.2925,-0.00488,-0.04974,-0.00534,-0.00488,-0.04822,-0.04135,-0.01511,-0.00412,-0.02655,0.03204,0.05157,-0.00473,-0.03296,-0.01099,0.01038,-0.06302
10.293,-0.0058,-0.04318,0.02319,-0.0676,-0.06149,-0.04562,-0.01526,-0.0029,-0.03601,0.03693,0.04333,-0.00595,-0.03204,-0.01282,0.0116,-0.05234
10.2935,-0.00732,-0.04013,0.02472,-0.09583,-0.06729,-0.05173,-0.01419,-0.00229,-0.04471,0.0351,0.02808,-0.00809,-0.03326,-0.01541,0.01328,-0.04333
10.294,-0.01083,-0.04074,0.02197,-0.08881,-0.05432,-0.05676,-0.01358,-0.00198,-0.04791,0.02441,0.00732,-0.00931,-0.03922,-0.01907,0.01404,-0.02808
10.2945,-0.01572,-0.04349,0.02029,-0.07446,-0.02487,-0.05936,-0.01236,-0.00275,-0.04532,0.01389,-0.01785,-0.00946,-0.04532,-0.02045,0.0116,-0.01282
10.295,-0.02106,-0.04547,0.00992,-0.07248,0.00519,-0.05844,-0.0119,-0.00504,-0.03769,0.0029,-0.04272,-0.01144,-0.04791,-0.02121,0.00839,-0.00931
10.2955,-0.02548,-0.04578,-0.00595,-0.07324,0.02563,-0.05585,-0.01266,-0.00732,-0.0296,-0.00458,-0.06287,-0.01511,-0.04883,-0.02502,0.00778,-0.01419
10.296,-0.02762,-0.04562,-0.02106,-0.06363,0.03098,-0.05127,-0.01312,-0.0116,-0.02304,-0.00702,-0.07629,-0.01602,-0.0499,-0.02914,0.00763,-0.01434
10.2965,-0.02716,-0.04364,-0.03281,-0.04181,0.02884,-0.04501,-0.01175,-0.01694,-0.01694,-0.00458,-0.08453,-0.01266,-0.04852,-0.02975,0.00687,-0.00992
10.297,-0.02426,-0.04059,-0.04486,-0.01694,0.02304,-0.03983,-0.00916,-0.02045,-0.01144,-0.00092,-0.0856,-0.00793,-0.04303,-0.02655,0.00626,-0.00885
10.2975,-0.01907,-0.03937,-0.05615,0.00153,0.01511,-0.0351,-0.00839,-0.01953,-0.00565,0.00122,-0.07797,-0.00595,-0.03632,-0.02136,0.0058,-0.01678
10.298,-0.01297,-0.04074,-0.06119,0.01358,0.00778,-0.0296,-0.00916,-0.01602,0.00061,0.00198,-0.06241,-0.00702,-0.03174,-0.01755,0.00763,-0.02716
10.2985,-0.00992,-0.04349,-0.05554,0.02365,0.00168,-0.0264,-0.01175,-0.0145,0.00427,0.0032,-0.04333,-0.01038,-0.0322,-0.01587,0.00519,-0.03372
10.299,-0.00977,-0.04425,-0.03967,0.03616,-0.00076,-0.0264,-0.01328,-0.01495,0.00519,0.00366,-0.02167,-0.01328,-0.03525,-0.01709,0.00198,-0.03586
10.2995,-0.01251,-0.04059,-0.01694,0.04913,0.00153,-0.02853,-0.01312,-0.01526,0.00351,0.00687,-0.00031,-0.0148,-0.03799,-0.01877,-0.00061,-0.03586
10.3,-0.01419,-0.03174,0.00519,0.05692,0.01602,-0.02731,-0.01144,-0.00824,0.00137,0.00824,0.01801,-0.01389,-0.03708,-0.02182,-0.00107,-0.03281
10.3005,-0.01511,-0.02289,0.01526,0.05661,0.04456,-0.01999,-0.01099,0.00671,-0.00168,0.00656,0.02823,-0.01373,-0.03418,-0.02441,0.00015,-0.02792
10.301,-0.01602,-0.02411,0.00732,0.04959,0.08163,-0.01114,-0.01205,0.02319,-0.00626,0.00214,0.02701,-0.01556,-0.03021,-0.02579,0.00198,-0.01984
10.3015,-0.01968,-0.03876,-0.01205,0.04166,0.11658,-0.00443,-0.01373,0.03281,-0.01373,-0.00229,0.01602,-0.01678,-0.02609,-0.02594,0.00565,-0.01007
10.302,-0.02274,-0.05554,-0.0293,0.03433,0.13702,-0.00259,-0.0145,0.03113,-0.02213,-0.00229,-0.00275,-0.01495,-0.02121,-0.02579,0.01221,-0.00137
10.3025,-0.02396,-0.06287,-0.03662,0.02579,0.13519,-0.00168,-0.01389,0.02258,-0.02716,-0.00366,-0.02396,-0.0116,-0.01663,-0.02823,0.02121,0.00061
10.303,-0.02319,-0.05783,-0.03952,0.01617,0.11124,-0.00061,-0.01434,0.01328,-0.02625,-0.00427,-0.04593,-0.01099,-0.01434,-0.03098,0.02869,-0.00687
10.3035,-0.02136,-0.04974,-0.04044,0.00214,0.07675,-0.00061,-0.0148,0.00732,-0.02274,-0.00122,-0.06668,-0.01251,-0.01389,-0.03174,0.02945,-0.02228
10.304,-0.01801,-0.04395,-0.03967,-0.0177,0.04623,-0.00046,-0.0145,0.00656,-0.01846,0.00122,-0.07736,-0.01129,-0.01465,-0.02853,0.02304,-0.04074
10.3045,-0.01419,-0.04059,-0.03433,-0.03876,0.03128,-0.00198,-0.01343,0.00702,-0.01434,0.00626,-0.07584,-0.0061,-0.01297,-0.02609,0.01236,-0.06378
10.305,-0.0116,-0.03693,-0.02411,-0.05615,0.02838,-0.01022,-0.0119,0.00748,-0.01038,0.00854,-0.06485,0.00214,-0.01053,-0.02579,0.0,-0.08972
10.3055,-0.01251,-0.03296,-0.01678,-0.06714,0.02136,-0.02853,-0.01129,0.00641,-0.00595,0.009,-0.05432,0.00916,-0.01099,-0.02792,-0.00854,-0.10986
10.306,-0.01633,-0.03174,-0.0177,-0.07721,-0.00061,-0.05676,-0.01205,0.00458,-0.0029,0.00732,-0.04761,0.01282,-0.01801,-0.03189,-0.01343,-0.11261
10.3065,-0.01923,-0.03555,-0.0264,-0.09201,-0.03647,-0.09048,-0.0119,0.0032,-0.00153,0.00519,-0.04105,0.01266,-0.02975,-0.03418,-0.02106,-0.09933
10.307,-0.01846,-0.04669,-0.03586,-0.11139,-0.0705,-0.12054,-0.01083,0.00076,-0.00443,0.00488,-0.03189,0.00946,-0.04196,-0.03342,-0.0351,-0.08408
10.3075,-0.01541,-0.06378,-0.04257,-0.13306,-0.09186,-0.1384,-0.01083,-0.0032,-0.01038,0.00809,-0.02304,0.00671,-0.05035,-0.03174,-0.04776,-0.07675
10.308,-0.01312,-0.07706,-0.04684,-0.15442,-0.10147,-0.14511,-0.01083,-0.00702,-0.02243,0.0119,-0.0177,0.00702,-0.05493,-0.02792,-0.0502,-0.07431
10.3085,-0.0116,-0.07309,-0.04883,-0.1796,-0.10635,-0.14297,-0.01053,-0.01083,-0.03525,0.01282,-0.0119,0.01175,-0.05615,-0.02289,-0.03738,-0.06989
10.309,-0.01266,-0.05341,-0.04791,-0.2121,-0.11642,-0.13489,-0.01144,-0.01343,-0.04211,0.01282,-0.0032,0.0177,-0.05829,-0.01923,-0.01785,-0.05707
10.3095,-0.01434,-0.0351,-0.04456,-0.25131,-0.1358,-0.11978,-0.01221,-0.01755,-0.0383,0.01068,0.00671,0.0209,-0.0621,-0.01938,-0.00366,-0.04135
10.31,-0.01526,-0.03708,-0.04044,-0.29099,-0.16357,-0.10284,-0.01282,-0.02533,-0.02655,0.00839,0.01251,0.02045,-0.06424,-0.02335,0.00229,-0.03586
10.3105,-0.01556,-0.05341,-0.0354,-0.32379,-0.18921,-0.08835,-0.01312,-0.03357,-0.01312,0.00702,0.01236,0.01816,-0.05936,-0.02487,-0.00092,-0.04532
10.311,-0.01495,-0.06165,-0.03143,-0.34393,-0.19669,-0.07446,-0.01114,-0.04013,-0.00305,0.00504,0.01129,0.01526,-0.04852,-0.01953,-0.01099,-0.05859
10.3115,-0.01251,-0.04852,-0.02808,-0.35294,-0.17807,-0.06439,-0.009,-0.04654,0.00244,0.00168,0.01221,0.01297,-0.03693,-0.01038,-0.01953,-0.05905
10.312,-0.00854,-0.02304,-0.02731,-0.35431,-0.15076,-0.05981,-0.00656,-0.05508,0.00534,-0.00534,0.01343,0.01038,-0.02853,-0.00259,-0.01511,-0.04654
10.3125,-0.00443,-0.00137,-0.02533,-0.35095,-0.13916,-0.06256,-0.0061,-0.06088,0.00702,-0.0177,0.01389,0.0087,-0.02396,0.0,0.00061,-0.03708
10.313,-0.00061,0.00748,-0.01526,-0.33783,-0.14923,-0.06516,-0.00687,-0.05783,0.00839,-0.0267,0.01343,0.00809,-0.02182,-0.00061,0.01343,-0.03677
10.3135,0.0032,0.00824,0.00641,-0.31174,-0.15457,-0.05966,-0.00763,-0.04822,0.00946,-0.02777,0.01404,0.00946,-0.02075,-0.00198,0.0145,-0.04166
10.314,0.00732,0.00656,0.03479,-0.2739,-0.14236,-0.0415,-0.00702,-0.03769,0.01053,-0.02228,0.01343,0.01022,-0.02106,-0.00427,0.00656,-0.04364
10.3145,0.01083,0.00412,0.05615,-0.23193,-0.121,-0.01526,-0.00504,-0.02228,0.01236,-0.01984,0.00946,0.00977,-0.02335,-0.00671,0.00031,-0.04242
10.315,0.0119,-0.00061,0.0618,-0.19318,-0.09537,0.01083,-0.00336,0.00427,0.01312,-0.02243,0.00397,0.00778,-0.02853,-0.01053,0.00183,-0.04181
10.3155,0.01083,-0.01251,0.05707,-0.16144,-0.06561,0.02762,-0.00427,0.03433,0.01129,-0.02823,-0.00214,0.00885,-0.03555,-0.01343,0.00687,-0.04135
10.316,0.0087,-0.03021,0.03708,-0.13641,-0.04532,0.03189,-0.00671,0.04745,0.00641,-0.03357,-0.00916,0.01251,-0.04227,-0.01831,0.01083,-0.03952
10.3165,0.00641,-0.05051,-0.01724,-0.11368,-0.0528,0.02686,-0.00992,0.03448,0.0,-0.04196,-0.01495,0.01465,-0.04639,-0.02289,0.01266,-0.03845
10.317,0.00458,-0.0737,-0.10513,-0.09384,-0.08301,0.01984,-0.0116,0.00656,-0.00671,-0.05905,-0.01572,0.01389,-0.04562,-0.02518,0.0145,-0.03922
10.3175,0.00214,-0.09262,-0.16479,-0.07523,-0.10803,0.0145,-0.01114,-0.02029,-0.0145,-0.08286,-0.01587,0.01083,-0.04227,-0.0264,0.01831,-0.04074
10.318,-0.00031,-0.09674,-0.14252,-0.05783,-0.1088,0.0119,-0.00992,-0.03723,-0.02228,-0.09933,-0.01923,0.00687,-0.03815,-0.02533,0.02151,-0.04089
10.3185,-0.00351,-0.08209,-0.06134,-0.03891,-0.0914,0.01236,-0.009,-0.03647,-0.02686,-0.09933,-0.02579,0.00534,-0.03448,-0.02335,0.0238,-0.04105
10.319,-0.00732,-0.05768,0.00015,-0.0206,-0.07172,0.01297,-0.009,-0.01984,-0.0267,-0.09216,-0.03113,0.00473,-0.02914,-0.02029,0.02121,-0.04227
10.3195,-0.01175,-0.03571,0.00824,-0.00656,-0.05722,0.01251,-0.01038,-0.00275,-0.02457,-0.09415,-0.03021,0.00565,-0.02304,-0.01831,0.01556,-0.04364
10.32,-0.01678,-0.02213,-0.0119,0.00595,-0.04501,0.00702,-0.01328,0.00122,-0.02289,-0.10651,-0.02274,0.00732,-0.01572,-0.01755,0.00702,-0.04303
10.3205,-0.01907,-0.01678,-0.03113,0.01999,-0.03433,-0.00763,-0.01648,0.0,-0.02243,-0.12512,-0.01511,0.00748,-0.00488,-0.0177,-0.00015,-0.0412
10.321,-0.01938,-0.01633,-0.047,0.03754,-0.02411,-0.03448,-0.01938,0.0116,-0.02197,-0.14587,-0.01129,0.00717,0.009,-0.01724,-0.00046,-0.03891
10.3215,-0.01709,-0.01892,-0.06516,0.05768,-0.01633,-0.07248,-0.02121,0.03754,-0.02014,-0.16647,-0.01068,0.00595,0.01801,-0.01617,0.00946,-0.03433
10.322,-0.01419,-0.02426,-0.07813,0.08072,-0.00839,-0.11917,-0.0235,0.06241,-0.01678,-0.18478,-0.01068,0.00778,0.01541,-0.0174,0.02182,-0.02365
10.3225,-0.01175,-0.03098,-0.08011,0.10086,-0.00122,-0.16602,-0.02426,0.07782,-0.01266,-0.20432,-0.00961,0.01144,0.00198,-0.0206,0.02792,-0.01083
10.323,-0.00946,-0.03403,-0.07263,0.11444,0.00443,-0.19592,-0.02518,0.0795,-0.01022,-0.22278,-0.00916,0.01404,-0.01221,-0.02472,0.02579,-0.00534
10.3235,-0.00595,-0.03418,-0.06073,0.12329,0.00778,-0.1915,-0.02441,0.06607,-0.00961,-0.23682,-0.00992,0.01251,-0.0206,-0.02747,0.01801,-0.01343
10.324,-0.00153,-0.03464,-0.04669,0.13168,0.01328,-0.15228,-0.02319,0.04425,-0.01099,-0.24506,-0.01114,0.00534,-0.02365,-0.02853,0.0119,-0.02701
10.3245,0.00137,-0.03723,-0.03265,0.13565,0.01831,-0.09567,-0.02213,0.0235,-0.01389,-0.24765,-0.01144,-0.00473,-0.02502,-0.02686,0.01038,-0.03586
10.325,0.00381,-0.04028,-0.02274,0.121,0.02106,-0.04883,-0.02213,0.01022,-0.01724,-0.24582,-0.01114,-0.01541,-0.02762,-0.02411,0.01328,-0.04013
10.3255,0.00702,-0.04211,-0.01862,0.09216,0.0209,-0.0293,-0.02213,0.00504,-0.01892,-0.23666,-0.01068,-0.02335,-0.0296,-0.02136,0.01755,-0.04547
10.326,0.00931,-0.04211,-0.01999,0.07629,0.01999,-0.03036,-0.02289,0.00397,-0.01785,-0.22369,-0.00916,-0.02823,-0.02975,-0.0177,0.01877,-0.05157
10.3265,0.01007,-0.04257,-0.02548,0.09674,0.02258,-0.03891,-0.02274,0.00458,-0.01572,-0.20874,-0.00687,-0.02853,-0.02838,-0.01251,0.01785,-0.05417
10.327,0.00671,-0.04456,-0.03723,0.14801,0.03143,-0.04501,-0.02228,0.00504,-0.01404,-0.19302,-0.00504,-0.02258,-0.02792,-0.00885,0.01495,-0.05066
10.3275,-0.00031,-0.04593,-0.05814,0.2002,0.04074,-0.05142,-0.02197,0.00565,-0.01175,-0.17288,-0.00504,-0.01083,-0.02853,-0.00992,0.0145,-0.0473
10.328,-0.00809,-0.04501,-0.08484,0.23209,0.04333,-0.06195,-0.02213,0.00565,-0.00931,-0.15167,-0.00641,-0.00168,-0.02975,-0.01602,0.01266,-0.05325
10.3285,-0.01389,-0.04227,-0.09735,0.23514,0.03876,-0.07248,-0.02151,0.00504,-0.00748,-0.13977,-0.00824,0.00336,-0.03342,-0.02396,0.00946,-0.06714
10.329,-0.01587,-0.03845,-0.08057,0.21698,0.03433,-0.07645,-0.01968,0.00244,-0.00854,-0.13504,-0.009,0.01038,-0.04349,-0.03204,0.00824,-0.07446
10.3295,-0.01617,-0.03555,-0.04105,0.19745,0.03387,-0.07645,-0.01694,-0.00046,-0.01038,-0.12863,-0.00992,0.02441,-0.05615,-0.03738,0.0116,-0.06409
10.33,-0.01541,-0.03448,0.00076,0.19196,0.03632,-0.07523,-0.01556,-0.00381,-0.01343,-0.11581,-0.01129,0.03494,-0.0705,-0.04028,0.0148,-0.04395
10.3305,-0.0174,-0.0351,0.02777,0.20157,0.03662,-0.07324,-0.01556,-0.00519,-0.01663,-0.09735,-0.01297,0.03143,-0.08194,-0.03891,0.0148,-0.03174
10.331,-0.01999,-0.03723,0.03769,0.21271,0.03143,-0.06851,-0.01556,-0.00549,-0.01999,-0.08331,-0.01312,0.01587,-0.08621,-0.03204,0.01266,-0.03326
10.3315,-0.01938,-0.03784,0.03799,0.21561,0.02106,-0.06256,-0.01526,-0.00534,-0.02151,-0.07584,-0.01175,0.00122,-0.08286,-0.02258,0.01022,-0.04013
10.332,-0.01236,-0.03769,0.03342,0.22125,0.009,-0.05737,-0.01389,-0.00626,-0.02075,-0.07126,-0.00961,-0.00534,-0.07324,-0.01373,0.01114,-0.04288
10.3325,-0.00336,-0.03601,0.03021,0.23865,0.00198,-0.05447,-0.01343,-0.00702,-0.01923,-0.06363,-0.00778,-0.00366,-0.06271,-0.00748,0.01221,-0.0444
10.333,0.00183,-0.0354,0.02731,0.26459,0.00336,-0.05035,-0.01419,-0.00793,-0.0177,-0.0531,-0.00824,-0.00168,-0.05447,-0.00595,0.01205,-0.04684
10.3335,0.00305,-0.03586,0.0267,0.27786,0.01099,-0.04608,-0.0174,-0.00839,-0.01678,-0.04318,-0.00778,-0.00519,-0.05264,-0.00732,0.01175,-0.04852
10.334,0.00137,-0.03372,0.02579,0.26382,0.02151,-0.04181,-0.01968,-0.00992,-0.01556,-0.03555,-0.0061,-0.01297,-0.05127,-0.01022,0.01404,-0.04807
10.3345,-0.00015,-0.02823,0.02228,0.23361,0.02792,-0.03845,-0.02197,-0.01236,-0.01434,-0.03189,-0.00473,-0.01785,-0.04684,-0.00961,0.0174,-0.04532
10.335,-0.00031,-0.01755,0.01175,0.22156,0.02594,-0.03387,-0.02274,-0.01511,-0.0145,-0.02914,-0.00549,-0.01251,-0.03983,-0.00595,0.01953,-0.04044
10.3355,0.00031,-0.00153,-0.01282,0.25208,0.01114,-0.03296,-0.02213,-0.0174,-0.01511,-0.02487,-0.00793,-0.00214,-0.03372,-0.00229,0.0174,-0.03448
10.336,-0.00015,0.01541,-0.04745,0.31296,-0.01617,-0.0351,-0.02106,-0.01785,-0.01755,-0.01724,-0.00992,0.00107,-0.03098,-0.00275,0.01144,-0.02792
10.3365,-0.00198,0.02472,-0.07492,0.36285,-0.04501,-0.0386,-0.01877,-0.01678,-0.0206,-0.00885,-0.00977,-0.00687,-0.03372,-0.00763,0.00534,-0.02335
10.337,-0.00626,0.02182,-0.07828,0.36148,-0.05814,-0.04105,-0.0174,-0.01556,-0.02228,-0.00229,-0.01083,-0.01343,-0.04089,-0.01465,0.00153,-0.02426
10.3375,-0.01007,0.00946,-0.06561,0.29785,-0.05936,-0.0415,-0.01678,-0.01404,-0.02014,0.00397,-0.01358,-0.00885,-0.04639,-0.01968,-0.00153,-0.0296
10.338,-0.01068,-0.0087,-0.04776,0.20584,-0.05814,-0.04028,-0.01495,-0.01312,-0.01602,0.01282,-0.01389,0.00107,-0.04501,-0.02136,-0.0058,-0.03876
10.3385,-0.00916,-0.03693,-0.03326,0.14252,-0.05875,-0.03952,-0.01373,-0.01205,-0.01312,0.02182,-0.00793,0.00366,-0.03632,-0.01984,-0.009,-0.04898
10.339,-0.00946,-0.06943,-0.02106,0.14603,-0.05966,-0.04028,-0.01221,-0.01236,-0.01099,0.03036,0.00488,-0.00061,-0.02426,-0.01755,-0.00458,-0.05707
10.3395,-0.01266,-0.0914,-0.01282,0.19745,-0.05798,-0.04028,-0.0116,-0.01282,-0.0116,0.03723,0.02106,-0.00549,-0.0174,-0.01602,0.0061,-0.06012
10.34,-0.01526,-0.09018,-0.0116,0.2504,-0.0563,-0.03952,-0.0119,-0.01297,-0.01068,0.04288,0.03494,-0.0058,-0.01419,-0.01297,0.01541,-0.05798
10.3405,-0.01358,-0.07172,-0.01617,0.28229,-0.05783,-0.0386,-0.01068,-0.01144,-0.00946,0.04791,0.0412,-0.00366,-0.01389,-0.0116,0.01434,-0.05432
10.341,-0.00626,-0.04608,-0.02136,0.29541,-0.06027,-0.03815,-0.00946,-0.00931,-0.00778,0.05203,0.04089,-0.00214,-0.01419,-0.01343,0.00595,-0.05325
10.3415,0.00305,-0.01572,-0.02533,0.29633,-0.06012,-0.03525,-0.009,-0.00916,-0.00519,0.05417,0.04105,-0.00198,-0.01556,-0.01755,0.0087,-0.05463
10.342,0.01053,0.01328,-0.02747,0.29633,-0.05661,-0.03021,-0.01068,-0.01007,-0.0029,0.05402,0.04562,0.00214,-0.01617,-0.02106,0.02762,-0.05142
10.3425,0.01419,0.02579,-0.03418,0.3009,-0.04883,-0.02502,-0.01221,-0.01129,-0.00275,0.05249,0.04822,0.00671,-0.01465,-0.02182,0.04715,-0.04395
10.343,0.01526,0.01312,-0.04959,0.29709,-0.04044,-0.0206,-0.0116,-0.01205,-0.00366,0.05341,0.03769,0.00961,-0.01038,-0.02106,0.04791,-0.04227
10.3435,0.01602,-0.01236,-0.07538,0.26703,-0.03113,-0.0148,-0.01068,-0.01144,-0.0032,0.05447,0.01114,0.00809,-0.0058,-0.01923,0.03326,-0.04974
10.344,0.01633,-0.0322,-0.1001,0.21667,-0.01953,-0.00549,-0.01083,-0.00977,-0.00137,0.05478,-0.02274,0.00351,-0.00198,-0.01862,0.02151,-0.05615
10.3445,0.01648,-0.0415,-0.10269,0.16678,-0.00717,0.0058,-0.01068,-0.00839,-0.00137,0.05295,-0.05417,0.00046,0.00229,-0.01999,0.01709,-0.05035
10.345,0.01511,-0.04639,-0.07187,0.13321,0.0032,0.01358,-0.00992,-0.00809,-0.00214,0.0499,-0.07629,0.00061,0.00595,-0.0235,0.00641,-0.03983
10.3455,0.01236,-0.0473,-0.02121,0.13123,0.00778,0.01251,-0.0087,-0.00854,-0.00412,0.04822,-0.08804,0.00351,0.00534,-0.02731,-0.01389,-0.03525
10.346,0.00717,-0.04333,0.02228,0.15732,0.00824,0.00061,-0.00778,-0.009,-0.00671,0.04807,-0.09109,0.00626,0.00183,-0.03052,-0.02747,-0.03708
10.3465,0.00015,-0.03479,0.0415,0.16769,0.00961,-0.0177,-0.00732,-0.01114,-0.00824,0.04944,-0.09125,0.00732,-0.00229,-0.03235,-0.01831,-0.03677
10.347,-0.00763,-0.02655,0.03952,0.11017,0.01419,-0.03876,-0.00824,-0.01297,-0.00809,0.05066,-0.09232,0.00641,-0.00443,-0.03357,0.00549,-0.0325
10.3475,-0.01495,-0.02487,0.02502,-0.02304,0.01862,-0.05295,-0.00931,-0.01358,-0.00748,0.05295,-0.09415,0.00366,-0.00534,-0.03433,0.02319,-0.03052
10.348,-0.01968,-0.02747,0.00427,-0.1889,0.02029,-0.0589,-0.00824,-0.01297,-0.009,0.05783,-0.09125,0.00168,-0.00732,-0.03265,0.0209,-0.03754
10.3485,-0.0209,-0.03235,-0.01831,-0.33676,0.02197,-0.05661,-0.00671,-0.01144,-0.00992,0.06393,-0.08347,-0.00015,-0.0116,-0.02991,0.00763,-0.04883
10.349,-0.01999,-0.03601,-0.04333,-0.42023,0.02045,-0.05432,-0.00565,-0.01083,-0.00946,0.06866,-0.07614,-0.00092,-0.02441,-0.02823,-0.00015,-0.05478
10.3495,-0.01816,-0.03677,-0.06607,-0.41687,0.0145,-0.05783,-0.00458,-0.01053,-0.00717,0.07172,-0.0679,-0.00107,-0.04303,-0.02975,0.00183,-0.05203
10.35,-0.01511,-0.0354,-0.08484,-0.3566,0.00519,-0.06409,-0.00351,-0.00992,-0.00534,0.07675,-0.05783,-0.00076,-0.05783,-0.03113,0.00824,-0.04456
10.3505,-0.01038,-0.03281,-0.09506,-0.30212,-0.00031,-0.0679,-0.00214,-0.00977,-0.00809,0.08469,-0.04501,-0.00229,-0.06165,-0.02838,0.01099,-0.03799
10.351,-0.00458,-0.02884,-0.09491,-0.2916,0.0,-0.06973,-0.00031,-0.01099,-0.01007,0.09415,-0.03159,-0.00488,-0.05478,-0.01968,0.00732,-0.03525
10.3515,0.00305,-0.01724,-0.08636,-0.32135,-0.00732,-0.06729,0.00183,-0.01114,-0.01114,0.10056,-0.02121,-0.00595,-0.04852,-0.01251,0.00076,-0.03464
10.352,0.01007,0.00732,-0.07401,-0.36819,-0.03784,-0.06332,0.00412,-0.01022,-0.01328,0.10101,-0.01205,-0.0058,-0.04974,-0.01007,0.0,-0.0354
10.3525,0.01434,0.03723,-0.06104,-0.41183,-0.08469,-0.06012,0.00626,-0.00977,-0.01572,0.10025,-0.00351,-0.00488,-0.05585,-0.01282,0.00504,-0.03693
10.353,0.0145,0.05386,-0.05157,-0.43411,-0.11673,-0.05829,0.00687,-0.01022,-0.01755,0.10101,0.00259,-0.00305,-0.06027,-0.01541,0.01221,-0.03708
10.3535,0.01266,0.04547,-0.04517,-0.4277,-0.10818,-0.05508,0.0058,-0.01068,-0.01831,0.10315,0.00732,-0.00198,-0.05829,-0.01678,0.01541,-0.03632
10.354,0.01251,0.01938,-0.03922,-0.40451,-0.07034,-0.04974,0.00443,-0.01022,-0.01801,0.103,0.009,-0.00336,-0.05112,-0.01633,0.0145,-0.03464
10.3545,0.0148,-0.01007,-0.03403,-0.39032,-0.03906,-0.04395,0.00656,-0.00977,-0.01938,0.09705,0.00717,-0.00626,-0.04105,-0.01358,0.01251,-0.03403
10.355,0.01633,-0.03387,-0.03143,-0.39383,-0.03418,-0.04013,0.00977,-0.00946,-0.02151,0.08591,0.0029,-0.00824,-0.03021,-0.01251,0.0116,-0.0351
10.3555,0.01724,-0.05066,-0.0322,-0.40222,-0.04745,-0.03952,0.0116,-0.00961,-0.02533,0.07568,-0.00229,-0.00702,-0.02029,-0.01541,0.00916,-0.03632
10.356,0.01724,-0.06088,-0.03464,-0.38986,-0.06332,-0.03845,0.01114,-0.00977,-0.02777,0.07584,-0.00427,-0.00656,-0.01419,-0.02106,0.00687,-0.03708
10.3565,0.01602,-0.06561,-0.03647,-0.34164,-0.07797,-0.03433,0.01114,-0.01022,-0.02914,0.08621,-0.00427,-0.00717,-0.00977,-0.02502,0.00565,-0.0386
10.357,0.01297,-0.06546,-0.03708,-0.26306,-0.09109,-0.02899,0.01129,-0.01022,-0.03036,0.0972,-0.00397,-0.00717,-0.00473,-0.0267,0.00565,-0.03922
10.3575,0.00717,-0.06256,-0.03799,-0.18967,-0.10468,-0.02716,0.01328,-0.00961,-0.03113,0.10117,-0.00397,-0.00748,0.00031,-0.02777,0.00534,-0.04013
10.358,0.00031,-0.05585,-0.03891,-0.17151,-0.10941,-0.03128,0.01373,-0.00885,-0.03098,0.10071,-0.00443,-0.0058,-0.00046,-0.02991,0.00519,-0.04028
10.3585,-0.00519,-0.04196,-0.04257,-0.22461,-0.09964,-0.03708,0.01282,-0.00885,-0.02869,0.09842,-0.0029,-0.0061,-0.00626,-0.03159,0.00412,-0.04044
10.359,-0.00977,-0.01816,-0.05005,-0.2977,-0.0824,-0.04013,0.0116,-0.00809,-0.02335,0.09644,-0.00092,-0.00687,-0.02014,-0.03372,0.0029,-0.03922
10.3595,-0.01495,0.00824,-0.0621,-0.33264,-0.07172,-0.0415,0.01221,-0.00671,-0.0209,0.09583,-0.00305,-0.00641,-0.04379,-0.03571,0.00336,-0.03845
10.36,-0.02029,0.02335,-0.07538,-0.33417,-0.07294,-0.04211,0.01343,-0.0058,-0.02045,0.09567,-0.01114,-0.00427,-0.07416,-0.03845,0.00565,-0.03754
10.3605,-0.02411,0.01755,-0.08926,-0.34103,-0.07828,-0.04608,0.0145,-0.00595,-0.02106,0.09232,-0.02136,-0.00244,-0.09979,-0.04166,0.00793,-0.0383
10.361,-0.02304,-0.00656,-0.09933,-0.36484,-0.07248,-0.05127,0.01511,-0.00717,-0.02182,0.08591,-0.02625,-0.00259,-0.10513,-0.04074,0.009,-0.0386
10.3615,-0.01694,-0.03754,-0.09918,-0.383,-0.05127,-0.05676,0.01633,-0.00885,-0.02045,0.07889,-0.02457,-0.00275,-0.08774,-0.03204,0.00992,-0.03891
10.362,-0.00916,-0.06393,-0.09064,-0.37766,-0.02579,-0.05875,0.0174,-0.00809,-0.01816,0.07019,-0.01907,-0.00168,-0.06104,-0.01816,0.01099,-0.03952
10.3625,-0.00275,-0.07996,-0.08179,-0.35126,-0.0061,-0.05844,0.01678,-0.0061,-0.01602,0.0618,-0.01434,0.00015,-0.03799,-0.00687,0.0116,-0.04105
10.363,0.00214,-0.08438,-0.0795,-0.31693,0.00366,-0.05356,0.01511,-0.0032,-0.01495,0.05157,-0.00961,0.00214,-0.0206,0.00137,0.01328,-0.04074
10.3635,0.00488,-0.07889,-0.07477,-0.27679,0.00519,-0.04776,0.01312,-0.00168,-0.01419,0.04578,-0.00565,0.00427,-0.01022,0.00824,0.01266,-0.03998
10.364,0.00549,-0.06439,-0.06195,-0.23392,0.00336,-0.04089,0.01266,-0.00092,-0.0145,0.04013,-0.00351,0.00595,-0.00839,0.01099,0.00992,-0.03998
10.3645,0.00427,-0.05051,-0.05219,-0.20172,0.00061,-0.03616,0.01251,-0.00031,-0.01389,0.03311,-0.00336,0.00244,-0.01785,0.00534,0.0058,-0.04196
10.365,0.00427,-0.04395,-0.06699,-0.19119,-0.00107,-0.03464,0.01129,-0.00076,-0.01358,0.02808,-0.0029,-0.00305,-0.03357,-0.00687,0.00397,-0.04532
10.3655,0.00534,-0.04486,-0.10361,-0.18967,-0.00168,-0.03159,0.0087,-0.00168,-0.01282,0.02579,-0.00351,-0.00854,-0.04715,-0.01862,0.0032,-0.0473
10.366,0.00473,-0.04471,-0.12634,-0.1683,-0.00214,-0.02533,0.00458,-0.00351,-0.01297,0.02563,-0.00549,-0.01038,-0.05539,-0.02472,0.00458,-0.04745
10.3665,0.00244,-0.04044,-0.10498,-0.11932,-0.00443,-0.02106,0.00244,-0.00366,-0.0145,0.02548,-0.00854,-0.00793,-0.0592,-0.02533,0.00656,-0.04593
10.367,0.00031,-0.0383,-0.0502,-0.06989,-0.01266,-0.01953,-0.00015,-0.00336,-0.01572,0.02228,-0.00931,-0.00504,-0.05981,-0.0238,0.00626,-0.04456
10.3675,-0.00015,-0.04211,-0.00076,-0.04684,-0.03418,-0.01938,-0.00092,-0.0029,-0.01678,0.01907,-0.00961,-0.00214,-0.05447,-0.0209,0.00504,-0.04471
10.368,-0.00122,-0.0441,0.02121,-0.04639,-0.06821,-0.01953,-0.00229,-0.0032,-0.01617,0.01434,-0.01068,-0.00122,-0.04181,-0.01587,0.00168,-0.04562
10.3685,-0.00336,-0.03387,0.02243,-0.0502,-0.09766,-0.02075,-0.00458,-0.00458,-0.01526,0.00977,-0.01144,-0.00031,-0.02441,-0.0119,0.00229,-0.04471
10.369,-0.00839,-0.01556,0.01465,-0.04517,-0.10773,-0.01968,-0.00626,-0.00412,-0.01495,0.00732,-0.01129,0.00092,-0.00992,-0.00946,0.0061,-0.04242
10.3695,-0.01236,-0.00031,0.00504,-0.03326,-0.09415,-0.01801,-0.00717,-0.0029,-0.01572,0.00854,-0.01114,0.00397,-0.00702,-0.01022,0.00809,-0.04059
10.37,-0.01328,0.00763,-0.00443,-0.0235,-0.07233,-0.01358,-0.00763,-0.0029,-0.01587,0.00961,-0.00946,0.00443,-0.01373,-0.01312,0.0058,-0.04013
10.3705,-0.01343,0.01099,-0.01114,-0.01785,-0.05554,-0.01144,-0.00824,-0.00366,-0.01465,0.01038,-0.01007,0.00244,-0.02167,-0.0177,0.0032,-0.04166
10.371,-0.0116,0.01068,-0.0145,-0.01694,-0.04669,-0.01251,-0.00931,-0.00351,-0.01389,0.0119,-0.01099,0.0,-0.02487,-0.02304,0.00259,-0.04288
10.3715,-0.01144,0.00977,-0.0209,-0.02243,-0.03433,-0.01892,-0.01099,-0.00183,-0.0148,0.01053,-0.0119,-0.00076,-0.0264,-0.02686,0.00153,-0.04166
10.372,-0.01297,0.00977,-0.0386,-0.03143,-0.01373,-0.03021,-0.01266,-0.00015,-0.01465,0.00931,-0.01297,0.00015,-0.03036,-0.02716,0.00061,-0.04105
10.3725,-0.01541,0.01892,-0.07889,-0.03036,0.00778,-0.05127,-0.01541,0.00107,-0.01389,0.00778,-0.01389,0.00198,-0.03479,-0.02426,-0.00031,-0.04196
10.373,-0.01816,0.02991,-0.13382,-0.00397,0.0209,-0.07919,-0.01831,0.00107,-0.01266,0.00641,-0.01556,0.00214,-0.03693,-0.02121,0.00183,-0.04288
10.3735,-0.02029,0.02563,-0.16418,0.03937,0.02258,-0.10712,-0.0209,-0.00046,-0.01205,0.00397,-0.01678,0.00198,-0.03418,-0.02029,0.00549,-0.04272
10.374,-0.02167,-0.0029,-0.13245,0.07828,0.02014,-0.12939,-0.02335,-0.00061,-0.01266,0.00137,-0.0177,0.00046,-0.02716,-0.01953,0.00854,-0.04196
10.3745,-0.02289,-0.04318,-0.05142,0.09933,0.01968,-0.1416,-0.02625,-0.00137,-0.01282,-0.00183,-0.01862,0.00015,-0.02167,-0.01892,0.00992,-0.04166
10.375,-0.02457,-0.07629,0.01266,0.10345,0.02853,-0.14175,-0.0293,-0.00214,-0.01328,-0.00397,-0.01816,-0.00107,-0.02518,-0.02075,0.00992,-0.04242
10.3755,-0.02792,-0.09689,0.01892,0.09613,0.03891,-0.12863,-0.03052,-0.00336,-0.01389,-0.00534,-0.01663,0.0,-0.0415,-0.02563,0.009,-0.04105
10.376,-0.0322,-0.11414,-0.01083,0.08224,0.03418,-0.11093,-0.03159,-0.00381,-0.01511,-0.00488,-0.0148,0.0,-0.06149,-0.02823,0.00732,-0.03998
10.3765,-0.03342,-0.1297,-0.03433,0.07111,0.00153,-0.09689,-0.03204,-0.00198,-0.01694,-0.00519,-0.0148,0.00031,-0.07111,-0.02441,0.00809,-0.03998
10.377,-0.03098,-0.13596,-0.03937,0.06653,-0.04715,-0.08621,-0.03311,-0.00046,-0.01877,-0.00809,-0.0145,0.0,-0.06775,-0.01678,0.00809,-0.04105
10.3775,-0.0264,-0.13046,-0.03769,0.07019,-0.08789,-0.06516,-0.03448,-0.00122,-0.01923,-0.01144,-0.01495,-0.00031,-0.06027,-0.01221,0.00763,-0.04135
10.378,-0.02258,-0.11932,-0.04059,0.07568,-0.11047,-0.0354,-0.03586,-0.00229,-0.02075,-0.01251,-0.01434,0.00046,-0.05753,-0.01083,0.0061,-0.04227
10.3785,-0.01984,-0.10681,-0.04318,0.07996,-0.12146,-0.01434,-0.0386,-0.00183,-0.02045,-0.01221,-0.01328,0.00153,-0.05814,-0.00931,0.00534,-0.04303
10.379,-0.01938,-0.09628,-0.03876,0.07904,-0.13336,-0.01358,-0.03998,-0.00031,-0.01831,-0.01038,-0.01175,0.0,-0.05814,-0.00778,0.00504,-0.04288
10.3795,-0.01694,-0.0885,-0.02563,0.07385,-0.14175,-0.02548,-0.04059,-0.00076,-0.01572,-0.01129,-0.00946,-0.00427,-0.05463,-0.00916,0.00488,-0.04303
10.38,-0.01236,-0.08545,-0.00961,0.0676,-0.1387,-0.03799,-0.03891,-0.00092,-0.01465,-0.01373,-0.00732,-0.00626,-0.04944,-0.01404,0.00549,-0.0412
10.3805,-0.01114,-0.08942,0.00122,0.0618,-0.12665,-0.04379,-0.03723,-0.00046,-0.01511,-0.01633,-0.00778,-0.00412,-0.04486,-0.02045,0.00595,-0.04089
10.381,-0.01389,-0.09628,0.00275,0.05997,-0.11124,-0.04181,-0.03723,0.00168,-0.01587,-0.0174,-0.01022,0.0,-0.04181,-0.02563,0.00519,-0.0415
10.3815,-0.01724,-0.09918,-0.00549,0.05966,-0.09689,-0.03448,-0.03616,0.00244,-0.01511,-0.01755,-0.01221,0.00351,-0.03998,-0.02808,0.00443,-0.0415
10.382,-0.01755,-0.09903,-0.02304,0.0592,-0.08514,-0.02701,-0.0354,0.00076,-0.01343,-0.01617,-0.01389,0.00412,-0.03754,-0.02731,0.00397,-0.04166
10.3825,-0.01465,-0.10101,-0.04379,0.05753,-0.07339,-0.0235,-0.0351,-0.00107,-0.01373,-0.01572,-0.01389,0.00336,-0.03235,-0.0267,0.00595,-0.04105
10.383,-0.00961,-0.10956,-0.05798,0.05493,-0.06149,-0.0293,-0.03418,-0.00198,-0.01633,-0.01419,-0.01343,0.00122,-0.02792,-0.02579,0.00839,-0.03998
10.3835,-0.00565,-0.12039,-0.06027,0.05188,-0.04654,-0.0412,-0.03525,-0.00046,-0.0174,-0.01236,-0.01297,-0.00061,-0.02838,-0.02625,0.00946,-0.03937
10.384,-0.00427,-0.12344,-0.05264,0.047,-0.03098,-0.05096,-0.03677,0.00061,-0.01556,-0.01144,-0.01328,-0.00046,-0.03021,-0.02716,0.00977,-0.0415
10.3845,-0.00565,-0.11536,-0.04257,0.04166,-0.01892,-0.05264,-0.03799,0.00153,-0.01312,-0.01419,-0.01465,0.00214,-0.02792,-0.02609,0.01022,-0.04196
10.385,-0.00992,-0.10544,-0.03876,0.03983,-0.01312,-0.04395,-0.03799,0.00244,-0.01266,-0.0174,-0.01587,0.00381,-0.02167,-0.02441,0.01007,-0.04303
10.3855,-0.01389,-0.1033,-0.0441,0.04669,-0.01297,-0.03555,-0.03662,0.00214,-0.01266,-0.02045,-0.01801,0.00381,-0.01801,-0.02411,0.00839,-0.04196
10.386,-0.01678,-0.10834,-0.05417,0.05707,-0.01266,-0.03403,-0.03448,0.00244,-0.01404,-0.02151,-0.01907,0.00122,-0.01923,-0.02579,0.00824,-0.04089
10.3865,-0.01663,-0.11688,-0.065,0.05417,-0.0087,-0.0354,-0.03342,0.00381,-0.01465,-0.02472,-0.01846,-0.00137,-0.02136,-0.0267,0.00854,-0.04105
10.387,-0.01587,-0.12421,-0.07492,0.01785,-0.00534,-0.03723,-0.0325,0.00443,-0.01495,-0.02563,-0.01617,-0.00305,-0.02243,-0.02548,0.01099,-0.04166
10.3875,-0.01251,-0.12802,-0.08408,-0.04684,-0.00336,-0.0386,-0.03113,0.00427,-0.01541,-0.02518,-0.01419,-0.0032,-0.02319,-0.02319,0.01282,-0.04211
10.388,-0.00595,-0.12985,-0.09186,-0.09552,-0.00305,-0.03998,-0.03113,0.00259,-0.01526,-0.02167,-0.0148,-0.00305,-0.02213,-0.0206,0.01373,-0.04105
10.3885,0.00015,-0.13138,-0.09506,-0.08377,-0.00137,-0.04181,-0.03204,0.00076,-0.01541,-0.01678,-0.01602,-0.00351,-0.01984,-0.01984,0.01373,-0.0412
10.389,0.00275,-0.13306,-0.09216,-0.01343,0.00122,-0.03922,-0.03265,0.00076,-0.01511,-0.01617,-0.01633,-0.00549,-0.01907,-0.01953,0.01312,-0.04227
10.3895,0.0029,-0.13229,-0.08148,0.06271,0.00336,-0.03418,-0.03189,0.00046,-0.01587,-0.01999,-0.0145,-0.00732,-0.01846,-0.01984,0.01297,-0.04135
10.39,0.00397,-0.12741,-0.07019,0.0914,0.00519,-0.0293,-0.03098,0.00076,-0.01678,-0.02502,-0.01114,-0.00641,-0.01526,-0.01862,0.01373,-0.03891
10.3905,0.0058,-0.12054,-0.06592,0.06363,0.00595,-0.02945,-0.03189,0.00168,-0.01633,-0.02655,-0.00824,-0.00534,-0.009,-0.01572,0.01511,-0.03723
10.391,0.00687,-0.11383,-0.06836,0.00717,0.00397,-0.03128,-0.03235,0.00259,-0.01495,-0.02777,-0.0061,-0.0032,-0.00336,-0.01328,0.01648,-0.03754
10.3915,0.00534,-0.10696,-0.07294,-0.04532,-0.00107,-0.03403,-0.03143,0.00259,-0.0145,-0.02899,-0.0061,0.00061,-0.00366,-0.01328,0.01587,-0.03891
10.392,0.00336,-0.09949,-0.07416,-0.07538,-0.00977,-0.03448,-0.03098,0.00046,-0.01419,-0.03082,-0.00702,0.00381,-0.00824,-0.01617,0.01541,-0.03952
10.3925,0.00107,-0.09308,-0.07141,-0.08606,-0.01129,-0.03098,-0.03159,-0.00259,-0.0148,-0.03326,-0.00977,0.0061,-0.01099,-0.0206,0.01404,-0.03845
10.393,-0.00198,-0.08881,-0.06332,-0.08926,-0.0032,-0.02396,-0.03189,-0.0032,-0.01572,-0.03387,-0.01495,0.0058,-0.00931,-0.02548,0.01297,-0.03738
10.3935,-0.00641,-0.0853,-0.0473,-0.08987,0.00702,-0.01816,-0.03174,-0.00214,-0.01648,-0.0351,-0.02106,0.00458,-0.00473,-0.02853,0.01328,-0.03799
10.394,-0.01221,-0.07965,-0.0325,-0.08499,0.009,-0.01801,-0.03204,0.00031,-0.01648,-0.03769,-0.02426,0.00534,-0.00168,-0.03006,0.01266,-0.03891
10.3945,-0.01724,-0.07401,-0.03616,-0.07736,0.00137,-0.02533,-0.03143,-0.00076,-0.01389,-0.03784,-0.02319,0.00748,0.0032,-0.03082,0.01266,-0.04013
10.395,-0.02029,-0.06866,-0.05737,-0.07278,-0.00931,-0.03815,-0.03143,-0.00214,-0.01328,-0.03632,-0.0209,0.00961,0.00397,-0.03418,0.01068,-0.03983
10.3955,-0.02151,-0.06485,-0.06943,-0.07034,-0.01816,-0.05157,-0.03143,-0.00366,-0.01526,-0.0322,-0.01877,0.01038,-0.00549,-0.03876,0.00687,-0.03952
10.396,-0.01968,-0.06332,-0.04791,-0.06332,-0.02655,-0.05997,-0.03235,-0.00305,-0.01678,-0.02548,-0.01785,0.00671,-0.02502,-0.04303,0.0061,-0.03967
10.3965,-0.01511,-0.06302,-0.00244,-0.05157,-0.03464,-0.06195,-0.03281,-0.00183,-0.01587,-0.0206,-0.01709,0.00183,-0.04349,-0.04364,0.00656,-0.04074
10.397,-0.00717,-0.06149,0.03647,-0.04211,-0.04303,-0.06165,-0.0322,-0.00122,-0.01282,-0.01968,-0.01648,0.00031,-0.04974,-0.03845,0.00854,-0.04196
10.3975,-0.00015,-0.05585,0.05051,-0.0412,-0.04532,-0.06287,-0.03098,-0.00244,-0.01038,-0.02258,-0.01465,0.0032,-0.04639,-0.02686,0.0116,-0.04349
10.398,0.00244,-0.04791,0.0444,-0.04852,-0.03479,-0.06622,-0.03113,-0.00458,-0.00839,-0.02457,-0.01297,0.00641,-0.04395,-0.0148,0.01282,-0.04395
10.3985,0.00198,-0.04288,0.0386,-0.06653,-0.0032,-0.06821,-0.03159,-0.00565,-0.00519,-0.01923,-0.01114,0.0058,-0.05005,-0.00656,0.01205,-0.04395
10.399,0.00046,-0.04852,0.04272,-0.09933,0.0354,-0.06592,-0.0325,-0.00626,-0.00214,-0.00427,-0.00824,0.00168,-0.06195,-0.00534,0.01129,-0.04272
10.3995,0.00244,-0.06393,0.05264,-0.1532,0.05722,-0.06241,-0.03189,-0.00565,-0.00015,0.01968,-0.0029,-0.00046,-0.07294,-0.00946,0.00916,-0.04013
10.4,0.00778,-0.0795,0.05661,-0.2298,0.04517,-0.0592,-0.02914,-0.00397,-0.00076,0.03754,-0.00198,0.00153,-0.07858,-0.01373,0.00885,-0.03937
10.4005,0.01495,-0.08331,0.05005,-0.31555,0.00092,-0.0592,-0.02655,-0.00336,-0.0029,0.03113,-0.00061,0.00671,-0.07706,-0.01266,0.00931,-0.04013
10.401,0.02121,-0.07706,0.03662,-0.38086,-0.05508,-0.05875,-0.02411,-0.00229,-0.00549,0.00305,-0.00015,0.01205,-0.06668,-0.00488,0.01053,-0.04013
10.4015,0.02502,-0.06149,0.02625,-0.39337,-0.09903,-0.05966,-0.02365,-0.00168,-0.00748,-0.02838,0.00336,0.01511,-0.04929,0.00595,0.01266,-0.04059
10.402,0.0293,-0.03952,0.0174,-0.34561,-0.11353,-0.05859,-0.0238,-0.00259,-0.01053,-0.04959,0.00504,0.01434,-0.03326,0.01205,0.01328,-0.04059
10.4025,0.03372,-0.01404,0.01038,-0.25848,-0.10345,-0.05524,-0.02487,-0.00443,-0.01266,-0.06012,0.00549,0.01175,-0.02487,0.00931,0.01007,-0.04105
10.403,0.03952,0.00916,0.00061,-0.15289,-0.09201,-0.05081,-0.02472,-0.01022,-0.01434,-0.06409,0.00427,0.00946,-0.02457,0.00214,0.0061,-0.04166
10.4035,0.04196,0.02411,-0.01007,-0.03159,-0.09369,-0.0473,-0.02335,-0.01602,-0.01389,-0.06332,0.0029,0.00839,-0.02884,-0.00427,0.00504,-0.0415
10.404,0.03891,0.03204,-0.03036,0.10574,-0.1088,-0.0473,-0.02045,-0.01984,-0.01343,-0.06287,0.00275,0.00809,-0.03326,-0.00854,0.00854,-0.04105
10.4045,0.03174,0.03494,-0.0676,0.23621,-0.12283,-0.0473,-0.01709,-0.0206,-0.01419,-0.05447,0.00412,0.00931,-0.03571,-0.01068,0.01083,-0.04181
10.405,0.02426,0.02991,-0.11185,0.31769,-0.12405,-0.04578,-0.01602,-0.02228,-0.01541,-0.04349,0.00473,0.00992,-0.03571,-0.01053,0.00961,-0.04227
10.4055,0.01785,0.01022,-0.13229,0.33081,-0.11108,-0.0444,-0.0174,-0.02502,-0.0174,-0.03357,0.00443,0.00854,-0.03311,-0.01083,0.00809,-0.04181
10.406,0.01282,-0.02426,-0.10864,0.28763,-0.08865,-0.04211,-0.01938,-0.02594,-0.01923,-0.03036,0.00458,0.00565,-0.03159,-0.01236,0.00961,-0.04105
10.4065,0.0061,-0.05936,-0.05905,0.19974,-0.06943,-0.04181,-0.02106,-0.0238,-0.02274,-0.03433,0.0032,0.00351,-0.03113,-0.01404,0.01114,-0.04227
10.407,-0.00122,-0.07935,-0.01831,0.07675,-0.06073,-0.04379,-0.02151,-0.01343,-0.0264,-0.03815,-0.00015,0.00183,-0.03235,-0.01602,0.00977,-0.04425
10.4075,-0.00626,-0.07828,0.0,-0.04196,-0.05951,-0.04852,-0.02182,0.00641,-0.03006,-0.04044,-0.00519,-0.00015,-0.03281,-0.01923,0.00763,-0.04547
10.408,-0.00671,-0.06256,0.00626,-0.10086,-0.05798,-0.05447,-0.02197,0.03189,-0.03281,-0.04013,-0.01282,-0.00183,-0.0325,-0.0235,0.00885,-0.04333
10.4085,-0.00656,-0.04486,0.00809,-0.0824,-0.05402,-0.05829,-0.02136,0.04791,-0.03708,-0.04272,-0.0235,-0.00305,-0.03174,-0.0293,0.01129,-0.04059
10.409,-0.00473,-0.03342,0.00473,-0.02731,-0.04868,-0.05829,-0.02121,0.04349,-0.04074,-0.04608,-0.03693,-0.00244,-0.02869,-0.03159,0.01236,-0.04074
10.4095,-0.00092,-0.02762,-0.00565,0.01236,-0.0444,-0.05646,-0.02014,0.02411,-0.04318,-0.05157,-0.04639,-0.00122,-0.02594,-0.02899,0.01129,-0.04105
10.41,0.00366,-0.02548,-0.01495,0.02472,-0.03723,-0.05386,-0.01984,0.0061,-0.04166,-0.05646,-0.04822,-0.00153,-0.02518,-0.02411,0.00977,-0.04013
10.4105,0.00732,-0.02625,-0.01999,0.03143,-0.02655,-0.05417,-0.01953,-0.00198,-0.03723,-0.06104,-0.04395,-0.00229,-0.02533,-0.02243,0.00839,-0.0383
10.411,0.00885,-0.0293,-0.0238,0.04898,-0.01678,-0.05417,-0.01816,-0.00122,-0.03296,-0.0621,-0.03662,-0.0029,-0.02625,-0.02319,0.00809,-0.03677
10.4115,0.0119,-0.03128,-0.03403,0.06165,-0.01312,-0.05432,-0.01648,0.00031,-0.02914,-0.05676,-0.02869,-0.00427,-0.02686,-0.02457,0.00839,-0.03586
10.412,0.01663,-0.02594,-0.05692,0.04105,-0.01343,-0.05417,-0.01419,-0.00031,-0.02502,-0.04623,-0.01984,-0.00549,-0.02686,-0.02472,0.00824,-0.03372
10.4125,0.02167,-0.01022,-0.09888,-0.00443,-0.01587,-0.05325,-0.01328,-0.00015,-0.01938,-0.03586,-0.01266,-0.00549,-0.02853,-0.02441,0.00443,-0.03418
10.413,0.02365,0.01053,-0.14221,-0.03265,-0.01663,-0.05157,-0.01282,0.00092,-0.01572,-0.03113,-0.00641,-0.00336,-0.02869,-0.02502,-0.00214,-0.03754
10.4135,0.02197,0.02243,-0.15015,-0.01434,-0.01724,-0.05051,-0.01221,0.00198,-0.01602,-0.02914,-0.00153,-0.00168,-0.02747,-0.02716,-0.009,-0.04196
10.414,0.01785,0.01602,-0.10284,0.04196,-0.01755,-0.04852,-0.01205,0.0032,-0.01602,-0.02838,0.00122,-0.00366,-0.0264,-0.02808,-0.00793,-0.04425
10.4145,0.01419,-0.00671,-0.02655,0.1088,-0.01907,-0.05005,-0.01099,0.00443,-0.01389,-0.02548,-0.00061,-0.00458,-0.02625,-0.02823,-0.00412,-0.0441
10.415,0.01053,-0.03876,0.03464,0.15579,-0.02014,-0.0528,-0.01083,0.00443,-0.01083,-0.02106,-0.01099,-0.00336,-0.02609,-0.02762,0.00107,-0.04333
10.4155,0.00412,-0.07172,0.0621,0.1532,-0.01907,-0.05554,-0.00992,0.00244,-0.00931,-0.01572,-0.02426,-0.00153,-0.02502,-0.02808,0.00412,-0.04166
10.416,-0.00366,-0.09247,0.06851,0.09216,-0.01816,-0.05737,-0.00824,-0.00015,-0.00977,-0.01129,-0.0322,-0.00122,-0.02533,-0.02762,0.00351,-0.0386
10.4165,-0.009,-0.08743,0.06699,0.00793,-0.01709,-0.05676,-0.00626,-0.00183,-0.01068,-0.00854,-0.03372,-0.0029,-0.02533,-0.02747,-0.00031,-0.03494
10.417,-0.00931,-0.06302,0.06241,-0.04456,-0.01434,-0.05615,-0.00473,-0.00168,-0.00809,-0.00717,-0.03555,-0.00198,-0.02579,-0.02777,-0.00198,-0.03433
10.4175,-0.00687,-0.03845,0.05417,-0.047,-0.01434,-0.05539,-0.00473,-0.00046,-0.0061,-0.0058,-0.04425,0.00137,-0.02625,-0.0296,-0.00214,-0.03586
10.418,-0.00458,-0.02762,0.04242,-0.03128,-0.01389,-0.05615,-0.00565,-0.00015,-0.00565,-0.00366,-0.05478,0.00381,-0.02838,-0.03052,-0.00198,-0.03876
10.4185,-0.00351,-0.02747,0.02792,-0.04303,-0.01373,-0.05783,-0.00671,-0.00244,-0.00641,0.00046,-0.06104,0.00519,-0.02914,-0.02991,-0.00107,-0.0415
10.419,-0.00702,-0.02716,0.01175,-0.09201,-0.01358,-0.05981,-0.0058,-0.00809,-0.00595,0.0032,-0.05966,0.00381,-0.02823,-0.02808,-0.00153,-0.04761
10.4195,-0.01099,-0.02258,-0.00473,-0.16159,-0.01373,-0.06165,-0.0032,-0.01205,-0.00473,0.00443,-0.05325,0.00015,-0.02686,-0.02701,-0.00259,-0.05966
10.42,-0.01114,-0.0174,-0.01846,-0.23788,-0.01083,-0.06027,-0.00168,-0.01343,-0.00443,0.0061,-0.04333,-0.00504,-0.02487,-0.0267,-0.00412,-0.07233
10.4205,-0.00565,-0.01251,-0.02777,-0.28305,-0.00931,-0.05417,-0.00214,-0.01373,-0.00519,0.00458,-0.03342,-0.00824,-0.02396,-0.02533,-0.0058,-0.07584
10.421,0.00259,-0.00916,-0.03174,-0.24292,-0.01129,-0.0502,-0.00244,-0.01755,-0.00595,0.00183,-0.02228,-0.00534,-0.02304,-0.02289,-0.00412,-0.0679
10.4215,0.00931,-0.00748,-0.03082,-0.11185,-0.01297,-0.05066,-0.00275,-0.02075,-0.00687,0.00046,-0.01404,0.00061,-0.02396,-0.02014,0.00153,-0.05844
10.422,0.01114,-0.00809,-0.02747,0.04715,-0.01678,-0.05402,-0.00305,-0.01816,-0.00824,-0.00015,-0.01022,0.0058,-0.02563,-0.01923,0.00778,-0.05264
10.4225,0.00717,-0.0087,-0.02243,0.1741,-0.01877,-0.05737,-0.00427,-0.01251,-0.009,-0.00107,-0.0087,0.00656,-0.02686,-0.02029,0.00885,-0.05035
10.423,-0.00137,-0.00671,-0.01984,0.25055,-0.01984,-0.05859,-0.00351,-0.0087,-0.00854,-0.00351,-0.00778,0.00565,-0.02747,-0.02258,0.00763,-0.047
10.4235,-0.00961,-0.00259,-0.02106,0.26672,-0.01968,-0.05768,-0.00198,-0.00732,-0.00778,-0.00504,-0.00641,0.00656,-0.02686,-0.02457,0.0058,-0.04211
10.424,-0.0174,0.00336,-0.02518,0.22003,-0.01846,-0.0589,0.0,-0.00763,-0.009,-0.00671,-0.00641,0.00809,-0.02716,-0.02548,0.0058,-0.03754
10.4245,-0.02518,0.00824,-0.03052,0.14206,-0.01724,-0.06088,0.00076,-0.0061,-0.00992,-0.00748,-0.00488,0.00687,-0.0293,-0.02594,0.00748,-0.03601
10.425,-0.03448,0.0032,-0.03952,0.08957,-0.01816,-0.06271,0.00153,-0.00443,-0.00977,-0.00809,-0.0032,0.00305,-0.03265,-0.02518,0.00839,-0.03677
10.4255,-0.04028,-0.01862,-0.05112,0.09186,-0.01678,-0.06195,0.00107,-0.00458,-0.00885,-0.00732,-0.00092,0.00015,-0.03571,-0.02686,0.00824,-0.0386
10.426,-0.04227,-0.04745,-0.05981,0.12558,-0.01312,-0.05905,0.00183,-0.00519,-0.00748,-0.00534,-0.00061,-0.00229,-0.03845,-0.02777,0.00809,-0.04059
10.4265,-0.04227,-0.06073,-0.06149,0.14801,-0.00778,-0.05493,0.00153,-0.00534,-0.00763,-0.00732,-0.00015,-0.00275,-0.03876,-0.02869,0.00931,-0.04013
10.427,-0.04333,-0.04623,-0.05783,0.14771,-0.00504,-0.05219,0.00046,-0.00519,-0.00824,-0.01511,0.00122,-0.00275,-0.03799,-0.0293,0.0148,-0.03922
10.4275,-0.04471,-0.01846,-0.05356,0.14191,-0.0058,-0.05051,0.00137,-0.0058,-0.00702,-0.02075,0.00183,-0.00183,-0.03708,-0.02808,0.01877,-0.04135
10.428,-0.04227,0.00275,-0.05249,0.14664,-0.00488,-0.04929,0.00244,-0.00626,-0.0061,-0.02045,0.00198,0.00015,-0.03845,-0.02609,0.01816,-0.04318
10.4285,-0.03845,0.01129,-0.05066,0.15442,0.0029,-0.04929,0.00351,-0.00839,-0.00626,-0.01251,0.00214,0.00259,-0.03876,-0.02457,0.01541,-0.04364
10.429,-0.03403,0.01694,-0.04608,0.15121,0.01266,-0.05051,0.00488,-0.00839,-0.00793,-0.00031,0.00244,0.00504,-0.03723,-0.02487,0.01404,-0.04211
10.4295,-0.03067,0.0238,-0.0412,0.13092,0.01129,-0.05188,0.00519,-0.00809,-0.00977,0.01007,0.0029,0.00687,-0.03403,-0.02563,0.01373,-0.04089
10.43,-0.02762,0.02869,-0.03937,0.09888,0.00275,-0.05539,0.0061,-0.01068,-0.01083,0.01617,0.00198,0.00732,-0.03326,-0.02563,0.01648,-0.04089
10.4305,-0.02396,0.02655,-0.04044,0.06668,-0.00412,-0.05814,0.00626,-0.01862,-0.01236,0.0116,0.0,0.0087,-0.03571,-0.02502,0.01663,-0.0412
10.431,-0.02014,0.01846,-0.04013,0.0441,-0.00168,-0.05875,0.00504,-0.02884,-0.01343,0.00259,-0.00092,0.01068,-0.03952,-0.0238,0.01678,-0.04074
10.4315,-0.01617,0.01068,-0.0386,0.03204,0.00748,-0.05859,0.00458,-0.03479,-0.01419,-0.00534,-0.00244,0.01221,-0.04211,-0.02258,0.01724,-0.0412
10.432,-0.01205,0.00595,-0.03723,0.02792,0.01526,-0.0592,0.00534,-0.03372,-0.0148,-0.00931,-0.00488,0.01312,-0.0412,-0.0209,0.01816,-0.04227
10.4325,-0.00778,0.00443,-0.03555,0.03067,0.01419,-0.05936,0.00671,-0.02945,-0.01663,-0.01053,-0.00687,0.01495,-0.03708,-0.01938,0.01846,-0.0444
10.433,-0.00275,0.00458,-0.03357,0.03601,-0.00198,-0.05707,0.00717,-0.03052,-0.01968,-0.01511,-0.00565,0.01587,-0.03189,-0.01846,0.01862,-0.04501
10.4335,-0.00031,0.00702,-0.03235,0.03937,-0.03235,-0.05325,0.00565,-0.0386,-0.02197,-0.02014,-0.00229,0.01617,-0.03128,-0.02121,0.01724,-0.04456
10.434,-0.00015,0.01114,-0.03311,0.03662,-0.07233,-0.04929,0.00473,-0.03174,-0.02472,-0.02518,-0.00427,0.01892,-0.03479,-0.02304,0.01663,-0.04318
10.4345,0.00061,0.01617,-0.03204,0.02762,-0.1091,-0.04517,0.00427,0.00641,-0.02701,-0.03006,-0.01282,0.02182,-0.03906,-0.02289,0.01663,-0.04257
10.435,0.00351,0.0206,-0.02426,0.01343,-0.13046,-0.04028,0.00336,0.06042,-0.02853,-0.03479,-0.02274,0.02304,-0.03998,-0.02167,0.01724,-0.04318
10.4355,0.00778,0.02289,-0.00656,-0.00168,-0.13565,-0.03601,0.00122,0.08316,-0.03021,-0.03677,-0.0293,0.02228,-0.03876,-0.02213,0.01572,-0.04364
10.436,0.0119,0.02029,0.01328,-0.01755,-0.12894,-0.03342,-0.00092,0.05447,-0.0325,-0.03708,-0.03403,0.02167,-0.03662,-0.02563,0.01526,-0.04379
10.4365,0.01358,0.01907,0.02487,-0.03479,-0.11124,-0.03189,-0.00336,-0.00031,-0.03448,-0.03601,-0.03525,0.02304,-0.03555,-0.0293,0.01678,-0.04379
10.437,0.01175,0.02808,0.01984,-0.05341,-0.08743,-0.02945,-0.00626,-0.04791,-0.03448,-0.03723,-0.03433,0.02441,-0.0351,-0.03143,0.01801,-0.0444
10.4375,0.00748,0.0441,0.00412,-0.07034,-0.06439,-0.02731,-0.00854,-0.07599,-0.03143,-0.0386,-0.02945,0.02289,-0.03448,-0.03174,0.01648,-0.0441
10.438,0.00229,0.05463,-0.01068,-0.08209,-0.04654,-0.0264,-0.01099,-0.07477,-0.02747,-0.03738,-0.02441,0.01999,-0.03265,-0.03021,0.01556,-0.04425
10.4385,-0.00214,0.04684,-0.01678,-0.07477,-0.03479,-0.0296,-0.01343,-0.04227,-0.02609,-0.03326,-0.01968,0.0177,-0.03174,-0.02899,0.01495,-0.04425
10.439,-0.00824,0.0235,-0.01541,-0.03952,-0.03036,-0.03616,-0.01602,0.00275,-0.02625,-0.03281,-0.0177,0.01724,-0.03281,-0.02914,0.01602,-0.04456
10.4395,-0.01587,-0.00198,-0.01007,0.01175,-0.0293,-0.04272,-0.01678,0.0264,-0.02472,-0.04135,-0.01678,0.01694,-0.03387,-0.02823,0.01663,-0.04379
10.44,-0.02426,-0.01816,-0.01572,0.0473,-0.02991,-0.04639,-0.01678,0.01678,-0.0209,-0.05524,-0.01923,0.01617,-0.03189,-0.02747,0.01678,-0.04333
10.4405,-0.03082,-0.02609,-0.05157,0.0499,-0.02762,-0.04913,-0.01755,-0.01038,-0.01633,-0.065,-0.02289,0.01511,-0.02869,-0.02518,0.01633,-0.04318
10.441,-0.03632,-0.03265,-0.1149,0.03357,-0.02701,-0.05096,-0.01907,-0.02853,-0.01419,-0.06302,-0.02319,0.0148,-0.02655,-0.02274,0.01511,-0.04303
10.4415,-0.04074,-0.04135,-0.1651,0.02258,-0.0264,-0.05295,-0.01923,-0.02258,-0.01297,-0.0563,-0.02167,0.01358,-0.02579,-0.01984,0.01526,-0.04242
10.442,-0.04318,-0.05188,-0.15869,0.0264,-0.02563,-0.05325,-0.01724,0.00351,-0.01205,-0.05234,-0.01816,0.01251,-0.02457,-0.01785,0.0148,-0.04272
10.4425,-0.04272,-0.06165,-0.11047,0.03281,-0.02396,-0.05295,-0.01526,0.03189,-0.0119,-0.05249,-0.01633,0.01175,-0.02075,-0.01831,0.01587,-0.04318
10.443,-0.03952,-0.07553,-0.09033,0.02869,-0.02151,-0.05219,-0.0145,0.04745,-0.01312,-0.05188,-0.0145,0.01083,-0.01511,-0.01923,0.01358,-0.04272
10.4435,-0.03494,-0.09567,-0.13031,0.0177,-0.01999,-0.05325,-0.0145,0.04501,-0.01465,-0.05203,-0.01297,0.0087,-0.01297,-0.02304,0.01205,-0.04196
10.444,-0.03006,-0.1123,-0.16968,0.01175,-0.01846,-0.05569,-0.01572,0.03906,-0.01587,-0.05463,-0.01236,0.00443,-0.01511,-0.02716,0.01251,-0.04242
10.4445,-0.02411,-0.11398,-0.12589,0.01328,-0.01862,-0.05585,-0.01526,0.04288,-0.01587,-0.06088,-0.01328,0.00198,-0.01877,-0.03143,0.01465,-0.04333
10.445,-0.01572,-0.10239,-0.00916,0.01816,-0.01724,-0.05386,-0.01328,0.0592,-0.01602,-0.0679,-0.01343,0.00137,-0.02289,-0.03296,0.01587,-0.04349
10.4455,-0.00824,-0.09018,0.09232,0.02304,-0.01617,-0.0502,-0.01099,0.0766,-0.01633,-0.07385,-0.01541,0.00244,-0.02808,-0.03464,0.01541,-0.04257
10.446,-0.00565,-0.08072,0.12146,0.02197,-0.01572,-0.047,-0.00916,0.07645,-0.01785,-0.07767,-0.01633,0.00381,-0.03525,-0.03754,0.0148,-0.04181
10.4465,-0.00687,-0.06882,0.09644,0.00916,-0.01404,-0.04654,-0.00763,0.056,-0.01816,-0.07614,-0.0148,0.00458,-0.04532,-0.03937,0.0148,-0.04333
10.447,-0.009,-0.0502,0.06119,-0.0119,-0.01328,-0.0473,-0.00534,0.02655,-0.01831,-0.07187,-0.01221,0.00488,-0.05417,-0.03815,0.0148,-0.04547
10.4475,-0.01205,-0.0296,0.03372,-0.02853,-0.01282,-0.04715,-0.00443,0.00259,-0.01801,-0.05798,-0.01175,0.00534,-0.06027,-0.03616,0.01617,-0.04562
10.448,-0.01495,-0.01801,0.00793,-0.03403,-0.0148,-0.04669,-0.00519,-0.01236,-0.01755,-0.03754,-0.01053,0.00702,-0.06256,-0.0351,0.01663,-0.04379
10.4485,-0.01343,-0.01633,-0.01694,-0.03204,-0.01755,-0.04745,-0.00931,-0.02136,-0.0177,-0.02228,-0.00961,0.01007,-0.06226,-0.03326,0.01816,-0.04257
10.449,-0.00809,-0.01877,-0.03601,-0.02625,-0.01938,-0.0473,-0.01404,-0.0293,-0.01709,-0.0174,-0.00839,0.01236,-0.0592,-0.0293,0.02106,-0.04013
10.4495,-0.00198,-0.01938,-0.04623,-0.0148,-0.01923,-0.04654,-0.01678,-0.03296,-0.01556,-0.01999,-0.00916,0.01236,-0.05508,-0.02426,0.02335,-0.03799
10.45,0.00015,-0.0174,-0.04654,0.00244,-0.01755,-0.04547,-0.01678,-0.03021,-0.01526,-0.02502,-0.01007,0.009,-0.05219,-0.02213,0.02518,-0.03799
10.4505,-0.00092,-0.01877,-0.0383,0.01389,-0.01511,-0.04623,-0.0148,-0.02518,-0.01663,-0.02686,-0.00946,0.00641,-0.05066,-0.02304,0.02472,-0.03983
10.451,-0.00183,-0.02502,-0.02869,0.0148,-0.01404,-0.04761,-0.01404,-0.0206,-0.01678,-0.0296,-0.0087,0.00732,-0.04623,-0.02319,0.02319,-0.04257
10.4515,0.00122,-0.03052,-0.02686,0.00946,-0.01434,-0.04807,-0.0148,-0.01907,-0.01495,-0.03342,-0.01053,0.00916,-0.03769,-0.02106,0.02045,-0.04364
10.452,0.00656,-0.03143,-0.03021,0.00259,-0.01495,-0.04532,-0.01572,-0.0177,-0.01389,-0.03693,-0.01328,0.00885,-0.03006,-0.01831,0.01862,-0.04395
10.4525,0.00946,-0.02747,-0.03128,-0.01251,-0.01266,-0.04196,-0.0148,-0.01831,-0.01587,-0.0415,-0.01617,0.00732,-0.02533,-0.01663,0.01648,-0.04288
10.453,0.00793,-0.02335,-0.03006,-0.0412,-0.01358,-0.04166,-0.01358,-0.01846,-0.0174,-0.04517,-0.01617,0.00732,-0.02228,-0.01556,0.01572,-0.04196
10.4535,0.00458,-0.0206,-0.02899,-0.07797,-0.0174,-0.04425,-0.0116,-0.01892,-0.01709,-0.04944,-0.01389,0.01221,-0.02075,-0.01602,0.01602,-0.03967
10.454,0.00214,-0.01938,-0.03296,-0.10925,-0.02289,-0.04639,-0.01068,-0.01862,-0.01663,-0.05325,-0.0116,0.01816,-0.02075,-0.01755,0.01648,-0.03693
10.4545,0.00107,-0.01923,-0.04074,-0.12131,-0.02625,-0.04593,-0.00961,-0.01984,-0.01587,-0.05814,-0.00961,0.0209,-0.0238,-0.01999,0.01556,-0.0354
10.455,0.00076,-0.01984,-0.04837,-0.09262,-0.0264,-0.0444,-0.00916,-0.02151,-0.01617,-0.0618,-0.0087,0.01846,-0.02731,-0.02258,0.0148,-0.03845
10.4555,0.00061,-0.02289,-0.05295,-0.00839,-0.0293,-0.04272,-0.00961,-0.02228,-0.01709,-0.06409,-0.00839,0.01251,-0.02808,-0.02426,0.01205,-0.04257
10.456,0.00153,-0.02441,-0.056,0.10818,-0.03281,-0.04105,-0.01221,-0.01816,-0.0177,-0.06439,-0.009,0.009,-0.02792,-0.02441,0.00992,-0.04501
10.4565,0.00427,-0.02182,-0.05829,0.2002,-0.03662,-0.03952,-0.01541,-0.0116,-0.01862,-0.06989,-0.009,0.01083,-0.02731,-0.02335,0.01022,-0.04471
10.457,0.00839,-0.01556,-0.05905,0.22522,-0.04028,-0.03937,-0.01648,-0.00763,-0.01984,-0.07889,-0.00778,0.01526,-0.02777,-0.02228,0.00931,-0.04379
10.4575,0.01175,-0.01144,-0.05966,0.19028,-0.04486,-0.03952,-0.01556,-0.00671,-0.02136,-0.08392,-0.00504,0.02014,-0.02869,-0.02243,0.00885,-0.04272
10.458,0.01343,-0.01068,-0.06119,0.13458,-0.05005,-0.03876,-0.0145,-0.00992,-0.02106,-0.07904,-0.00534,0.02441,-0.02869,-0.02274,0.00687,-0.04135
10.4585,0.01556,-0.01358,-0.06348,0.08926,-0.04837,-0.0386,-0.01373,-0.01541,-0.02106,-0.06378,-0.00732,0.03006,-0.02884,-0.02335,0.0058,-0.0386
10.459,0.01938,-0.01648,-0.0647,0.06454,-0.0412,-0.03891,-0.01526,-0.0238,-0.02075,-0.05081,-0.00824,0.03555,-0.02823,-0.02396,0.00763,-0.03754
10.4595,0.02472,-0.01801,-0.06546,0.056,-0.03372,-0.0415,-0.01511,-0.03754,-0.01999,-0.04578,-0.0087,0.0386,-0.02869,-0.02411,0.00809,-0.0383
10.46,0.03052,-0.01984,-0.06744,0.05295,-0.0296,-0.04639,-0.01495,-0.05371,-0.01999,-0.04486,-0.00961,0.03876,-0.0293,-0.02274,0.00702,-0.0386
10.4605,0.03494,-0.02167,-0.07523,0.04333,-0.02701,-0.05188,-0.0145,-0.06836,-0.01999,-0.04547,-0.01114,0.03876,-0.0296,-0.02167,0.00595,-0.0383
10.461,0.03616,-0.01892,-0.09903,0.0238,-0.02121,-0.05478,-0.01587,-0.08102,-0.02014,-0.0444,-0.01144,0.03967,-0.02975,-0.02136,0.0058,-0.03647
10.4615,0.0351,-0.01266,-0.14221,0.0058,-0.01175,-0.05463,-0.01724,-0.0914,-0.0209,-0.04364,-0.009,0.04364,-0.0296,-0.02197,0.0058,-0.03143
10.462,0.03174,-0.00793,-0.18234,0.00427,0.0032,-0.05234,-0.0174,-0.10284,-0.01984,-0.04486,-0.00793,0.04944,-0.03113,-0.02274,0.00931,-0.02365
10.4625,0.02686,-0.01175,-0.18051,0.02121,0.02426,-0.04883,-0.01648,-0.11459,-0.01892,-0.04669,-0.00992,0.05402,-0.03204,-0.02289,0.01297,-0.01816
10.463,0.01984,-0.02014,-0.12192,0.03784,0.03754,-0.047,-0.01556,-0.11871,-0.01892,-0.04807,-0.01236,0.05341,-0.03433,-0.02167,0.01572,-0.01938
10.4635,0.01251,-0.02365,-0.0383,0.0386,0.02991,-0.04562,-0.01465,-0.08392,-0.01999,-0.0473,-0.01099,0.04593,-0.03571,-0.01968,0.01419,-0.03204
10.464,0.00488,-0.01495,0.02518,0.02762,0.00046,-0.04761,-0.01404,0.01602,-0.02075,-0.04791,-0.009,0.03571,-0.03586,-0.01556,0.00977,-0.05127
10.4645,-0.00214,-0.00687,0.05264,0.01968,-0.03143,-0.04913,-0.01358,0.15182,-0.02029,-0.04791,-0.00931,0.0296,-0.0354,-0.01175,0.00458,-0.06561
10.465,-0.00717,-0.01526,0.0563,0.02213,-0.05066,-0.05096,-0.01236,0.23865,-0.01877,-0.04669,-0.01022,0.03159,-0.03387,-0.00992,-0.00015,-0.06744
10.4655,-0.0058,-0.0383,0.05432,0.03021,-0.05951,-0.05127,-0.01099,0.21637,-0.0177,-0.04791,-0.01022,0.04089,-0.03143,-0.009,-0.00168,-0.05966
10.466,-0.0029,-0.05112,0.05203,0.03464,-0.06287,-0.05203,-0.01083,0.11856,-0.01663,-0.04532,-0.00931,0.05341,-0.02655,-0.00793,-0.00153,-0.05096
10.4665,-0.00107,-0.04105,0.04379,0.02701,-0.06332,-0.05051,-0.01099,0.03006,-0.01678,-0.04181,-0.00916,0.0647,-0.01633,-0.00748,0.00275,-0.04501
10.467,-0.00046,-0.03281,0.02991,0.01114,-0.06561,-0.04745,-0.01282,-0.00977,-0.01663,-0.03876,-0.01129,0.07156,-0.00412,-0.00763,0.00763,-0.03952
10.4675,-0.00031,-0.0499,0.01923,0.00061,-0.07126,-0.04639,-0.01495,-0.02533,-0.01511,-0.0383,-0.01236,0.07248,0.00565,-0.01144,0.01053,-0.03723
10.468,0.00061,-0.08759,0.01236,0.00259,-0.07675,-0.04578,-0.01816,-0.04318,-0.01373,-0.03769,-0.01282,0.07034,0.01358,-0.01465,0.01022,-0.03799
10.4685,0.00076,-0.11902,0.00717,0.01343,-0.07416,-0.04578,-0.01877,-0.05554,-0.01312,-0.03952,-0.01251,0.06653,0.01907,-0.01709,0.00763,-0.04425
10.469,0.0,-0.13046,0.00153,0.01953,-0.0621,-0.04379,-0.01862,-0.04898,-0.01343,-0.03647,-0.01282,0.06271,0.02335,-0.01785,0.00504,-0.047
10.4695,-0.0029,-0.12756,-0.00671,0.01389,-0.04868,-0.04227,-0.0174,-0.03052,-0.01419,-0.03616,-0.01358,0.06195,0.0235,-0.01846,0.00198,-0.04303
10.47,-0.00946,-0.11642,-0.01694,-0.00458,-0.03754,-0.04272,-0.01801,-0.01358,-0.01465,-0.03601,-0.0145,0.06439,0.0177,-0.02045,-0.00015,-0.03769
10.4705,-0.01617,-0.10147,-0.02792,-0.03311,-0.02899,-0.04547,-0.01694,-0.00198,-0.01572,-0.03662,-0.01495,0.06851,0.00565,-0.02319,-0.0029,-0.03433
10.471,-0.01953,-0.08499,-0.04349,-0.06241,-0.0209,-0.04791,-0.01663,0.00732,-0.01511,-0.03693,-0.01373,0.06927,-0.00824,-0.02365,-0.00214,-0.03571
10.4715,-0.0177,-0.0708,-0.0621,-0.08041,-0.00885,-0.04868,-0.0148,0.01114,-0.01328,-0.03662,-0.01129,0.06516,-0.02197,-0.01984,-0.00229,-0.0415
10.472,-0.01312,-0.06012,-0.07874,-0.0827,0.00153,-0.04669,-0.01205,0.00534,-0.0116,-0.03586,-0.00946,0.05737,-0.03662,-0.01648,-0.00244,-0.04959
10.4725,-0.00656,-0.04944,-0.08606,-0.07614,0.0061,-0.04501,-0.00961,-0.00717,-0.01129,-0.03601,-0.01068,0.04944,-0.05981,-0.01694,-0.00443,-0.05539
10.473,0.00061,-0.03754,-0.08194,-0.07523,0.00046,-0.04547,-0.00809,-0.01556,-0.01129,-0.03296,-0.01495,0.04501,-0.08713,-0.02045,-0.00687,-0.05539
10.4735,0.00534,-0.02731,-0.07355,-0.08316,-0.01404,-0.04639,-0.00732,-0.00412,-0.01114,-0.02991,-0.01846,0.04318,-0.11002,-0.02426,-0.00732,-0.0528
10.474,0.00626,-0.02304,-0.07141,-0.09216,-0.03616,-0.04868,-0.00916,0.03357,-0.00946,-0.02548,-0.01892,0.04211,-0.11932,-0.02426,-0.00549,-0.04715
10.4745,0.00229,-0.02579,-0.08575,-0.09552,-0.06104,-0.05127,-0.01022,0.07172,-0.00702,-0.02228,-0.01648,0.0444,-0.11871,-0.02014,-0.00397,-0.04471
10.475,-0.00198,-0.02808,-0.11612,-0.09155,-0.08514,-0.05402,-0.0119,0.07843,-0.00519,-0.02136,-0.01389,0.04898,-0.10834,-0.01251,-0.00366,-0.04349
10.4755,-0.0029,-0.03021,-0.14206,-0.08041,-0.10483,-0.05585,-0.01328,0.05646,-0.00412,-0.02014,-0.01404,0.05066,-0.08926,-0.00198,-0.00412,-0.04333
10.476,-0.00168,-0.03326,-0.13611,-0.06165,-0.11063,-0.05569,-0.01221,0.03601,-0.00336,-0.01953,-0.0148,0.04532,-0.06592,0.00885,-0.00473,-0.04196
10.4765,-0.00137,-0.03693,-0.09567,-0.03998,-0.10269,-0.05463,-0.01038,0.03357,-0.00198,-0.0209,-0.01541,0.03662,-0.04959,0.01648,-0.00534,-0.0415
10.477,-0.00259,-0.04028,-0.03983,-0.02213,-0.08896,-0.05219,-0.00946,0.03784,-0.00168,-0.02365,-0.01602,0.02945,-0.04303,0.01755,-0.00412,-0.04288
10.4775,-0.00381,-0.04425,0.00137,-0.01068,-0.07965,-0.04929,-0.01007,0.03098,-0.00412,-0.03113,-0.01602,0.0264,-0.04074,0.01419,-0.00107,-0.04303
10.478,-0.00275,-0.04898,0.0206,-0.00336,-0.07263,-0.04333,-0.0119,0.01434,-0.00702,-0.03983,-0.01633,0.02396,-0.03586,0.01221,0.00153,-0.0415
10.4785,0.0,-0.05386,0.02029,-0.00092,-0.06195,-0.03662,-0.01434,-0.00092,-0.00946,-0.04898,-0.01816,0.02014,-0.03006,0.01404,0.00305,-0.03784
10.479,0.00275,-0.05615,-0.00488,-0.00488,-0.05478,-0.03159,-0.01648,-0.01038,-0.00977,-0.05371,-0.01877,0.01572,-0.02838,0.01602,0.00473,-0.0383
10.4795,0.00412,-0.05661,-0.05844,-0.0148,-0.0563,-0.02884,-0.01663,-0.01526,-0.00961,-0.05936,-0.01877,0.01099,-0.03204,0.01328,0.00549,-0.04105
10.48,0.00427,-0.05569,-0.11398,-0.03113,-0.06439,-0.02823,-0.01343,-0.01495,-0.01068,-0.06775,-0.01724,0.00519,-0.03799,0.00793,0.00443,-0.04272
10.4805,0.00549,-0.05371,-0.12848,-0.07126,-0.0676,-0.03067,-0.00916,-0.00778,-0.0119,-0.07248,-0.01877,-0.0029,-0.03906,0.0032,0.00229,-0.04318
10.481,0.00656,-0.04898,-0.08957,-0.1535,-0.06058,-0.0322,-0.00458,0.00366,-0.01144,-0.07248,-0.02075,-0.01129,-0.03632,0.00305,0.00076,-0.04227
10.4815,0.00626,-0.04272,-0.04852,-0.25406,-0.04959,-0.03311,-0.00229,0.00809,-0.00946,-0.06927,-0.02075,-0.01907,-0.03281,0.00458,0.00168,-0.04272
10.482,0.00488,-0.03693,-0.056,-0.31006,-0.04105,-0.03067,-0.00076,-0.0058,-0.00854,-0.06332,-0.01968,-0.02411,-0.03052,0.00381,0.00259,-0.04349
10.4825,0.00397,-0.03296,-0.10468,-0.27847,-0.0354,-0.02823,0.0,-0.03998,-0.00946,-0.05844,-0.01846,-0.02762,-0.02655,0.00351,0.00397,-0.0441
10.483,0.0032,-0.03326,-0.13184,-0.17929,-0.02823,-0.0296,0.00046,-0.08865,-0.0116,-0.05569,-0.01724,-0.03082,-0.02197,0.00595,0.00549,-0.04425
10.4835,0.00366,-0.04074,-0.09476,-0.05081,-0.0206,-0.03403,-0.00031,-0.13779,-0.01297,-0.05051,-0.01709,-0.03235,-0.02258,0.00854,0.00717,-0.04349
10.484,0.00443,-0.05386,-0.01923,0.0856,-0.01358,-0.04089,-0.00153,-0.16739,-0.01251,-0.04715,-0.01862,-0.03052,-0.03204,0.01053,0.00839,-0.04257
10.4845,0.00626,-0.06638,0.04578,0.21011,-0.00778,-0.04486,-0.00275,-0.16418,-0.01282,-0.04242,-0.02029,-0.02457,-0.03967,0.01205,0.00717,-0.04333
10.485,0.00992,-0.07278,0.07813,0.28183,0.00046,-0.04532,-0.00168,-0.13474,-0.0148,-0.04044,-0.02029,-0.01801,-0.03632,0.0145,0.00565,-0.04364
10.4855,0.01602,-0.07309,0.08759,0.27313,0.01038,-0.04364,-0.00092,-0.09705,-0.01678,-0.03784,-0.01892,-0.01923,-0.02396,0.01556,0.00504,-0.04227
10.486,0.02228,-0.07126,0.08591,0.19684,0.0206,-0.04379,-0.00107,-0.06149,-0.0174,-0.03357,-0.01831,-0.02487,-0.01526,0.01312,0.00763,-0.04135
10.4865,0.02594,-0.07172,0.07492,0.10254,0.0296,-0.04456,-0.00214,-0.0296,-0.01663,-0.02762,-0.01785,-0.02945,-0.01389,0.00702,0.00839,-0.04272
10.487,0.02243,-0.0766,0.05569,0.03387,0.03738,-0.04684,-0.00305,-0.00427,-0.01572,-0.0238,-0.01968,-0.03235,-0.01709,0.00168,0.00717,-0.04425
10.4875,0.01419,-0.08484,0.03784,0.01099,0.04105,-0.04898,-0.00565,0.00061,-0.01633,-0.01892,-0.02106,-0.03433,-0.01877,-0.00122,0.00732,-0.04501
10.488,0.0032,-0.09338,0.02533,0.01358,0.03693,-0.04929,-0.00778,-0.02228,-0.0174,-0.01541,-0.02075,-0.03708,-0.01892,-0.00244,0.0087,-0.0444
10.4885,-0.00565,-0.09842,0.01205,0.00931,0.02731,-0.05066,-0.01083,-0.05249,-0.01831,-0.01328,-0.01923,-0.03922,-0.01984,-0.0029,0.00946,-0.04349
10.489,-0.00992,-0.09766,-0.00275,-0.01007,0.01419,-0.05417,-0.01373,-0.05539,-0.01892,-0.01312,-0.01938,-0.0412,-0.02457,-0.00412,0.0087,-0.04288
10.4895,-0.00931,-0.09232,-0.01755,-0.01785,-0.009,-0.06104,-0.01511,-0.01831,-0.01877,-0.01831,-0.0209,-0.04227,-0.03052,-0.00565,0.00626,-0.04242
10.49,-0.00748,-0.08453,-0.02747,0.00763,-0.05219,-0.06805,-0.01373,0.03601,-0.01755,-0.02457,-0.02243,-0.04272,-0.03586,-0.00549,0.00412,-0.04211
10.4905,-0.00656,-0.08026,-0.03326,0.04318,-0.10818,-0.07004,-0.0119,0.08499,-0.01572,-0.03387,-0.02258,-0.04272,-0.03845,-0.0032,0.00214,-0.04181
10.491,-0.00671,-0.07919,-0.0383,0.04318,-0.14771,-0.06485,-0.00977,0.13306,-0.01373,-0.03723,-0.02228,-0.04379,-0.03693,0.00092,0.00107,-0.04211
10.4915,-0.00732,-0.07599,-0.04333,-0.0087,-0.14679,-0.05478,-0.00946,0.18677,-0.01236,-0.03494,-0.02136,-0.04654,-0.03265,0.00732,0.00046,-0.04303
10.492,-0.0087,-0.07019,-0.04745,-0.07904,-0.10788,-0.04761,-0.01007,0.21988,-0.01221,-0.02869,-0.01999,-0.04913,-0.0267,0.01358,-0.00107,-0.04364
10.4925,-0.00839,-0.06424,-0.04868,-0.10849,-0.06393,-0.04761,-0.00961,0.20187,-0.01266,-0.02167,-0.01923,-0.05005,-0.02396,0.01862,-0.00137,-0.04379
10.493,-0.0058,-0.06073,-0.04913,-0.07462,-0.04486,-0.05325,-0.00748,0.1358,-0.01266,-0.01831,-0.01862,-0.04898,-0.02487,0.01968,-0.00076,-0.04288
10.4935,-0.0032,-0.06058,-0.05325,-0.00778,-0.0441,-0.05722,-0.00763,0.0589,-0.01297,-0.01831,-0.01892,-0.04822,-0.03082,0.01755,0.00122,-0.04242
10.494,-0.00336,-0.06256,-0.05951,0.05539,-0.0415,-0.05432,-0.00946,0.00259,-0.01236,-0.01511,-0.01953,-0.04837,-0.03754,0.01434,0.00519,-0.04288
10.4945,-0.00412,-0.06271,-0.06302,0.10864,-0.02869,-0.04654,-0.01312,-0.02792,-0.01373,-0.00854,-0.0206,-0.04868,-0.04074,0.01129,0.00809,-0.0441
10.495,-0.00366,-0.05936,-0.06226,0.16647,-0.01495,-0.04013,-0.01419,-0.04608,-0.01373,-0.00336,-0.02014,-0.04852,-0.0412,0.00763,0.00977,-0.04684
10.4955,-0.00198,-0.0531,-0.05676,0.22141,-0.00977,-0.03769,-0.01389,-0.05829,-0.01328,-0.00076,-0.01953,-0.05035,-0.03784,0.00504,0.01068,-0.04776
10.496,0.00015,-0.05035,-0.04898,0.24399,-0.01389,-0.03998,-0.01343,-0.07217,-0.01373,-0.00046,-0.01877,-0.05341,-0.0322,0.00183,0.01038,-0.047
10.4965,0.00214,-0.05371,-0.04181,0.24033,-0.02487,-0.04272,-0.01495,-0.09354,-0.01602,0.00168,-0.01984,-0.05524,-0.02426,-0.00137,0.01129,-0.04471
10.497,0.00488,-0.06058,-0.03555,0.2388,-0.0351,-0.04578,-0.01587,-0.11963,-0.01801,0.00626,-0.0206,-0.05356,-0.01602,-0.00305,0.0119,-0.04318
10.4975,0.00687,-0.06454,-0.02853,0.23483,-0.03769,-0.04456,-0.01709,-0.12482,-0.01801,0.0116,-0.01953,-0.05051,-0.01175,-0.00183,0.01007,-0.04288
10.498,0.00519,-0.06104,-0.01968,0.18738,-0.02716,-0.03937,-0.01953,-0.08484,-0.01755,0.01617,-0.01724,-0.04868,-0.01389,0.0,0.00778,-0.0441
10.4985,-0.00031,-0.05142,-0.01022,0.09155,-0.00595,-0.03433,-0.01907,-0.00519,-0.01602,0.01862,-0.01572,-0.04761,-0.0177,0.00137,0.00748,-0.04395
10.499,-0.00671,-0.03632,-0.00793,0.0,0.0206,-0.03403,-0.01678,0.07477,-0.01556,0.02106,-0.01694,-0.04944,-0.01846,0.0,0.00961,-0.04318
10.4995,-0.01236,-0.02029,-0.01343,-0.04532,0.04578,-0.03952,-0.01144,0.1123,-0.01495,0.02426,-0.01572,-0.05249,-0.01755,-0.00275,0.01144,-0.04257
10.5,-0.01587,-0.01114,-0.02213,-0.05737,0.06302,-0.04776,-0.00748,0.0882,-0.01404,0.02731,-0.01434,-0.05722,-0.01938,-0.00656,0.01205,-0.04242
10.5005,-0.01862,-0.01694,-0.03006,-0.06317,0.07217,-0.0528,-0.0058,0.02487,-0.01465,0.03021,-0.01389,-0.05966,-0.02594,-0.01114,0.01404,-0.04288
10.501,-0.02136,-0.03357,-0.03738,-0.06805,0.0737,-0.05356,-0.00351,-0.02594,-0.01495,0.03265,-0.01587,-0.05936,-0.03311,-0.01312,0.01297,-0.04379
10.5015,-0.02518,-0.05447,-0.04456,-0.06439,0.06042,-0.0531,-0.00198,-0.01831,-0.01465,0.03464,-0.0174,-0.05875,-0.03799,-0.01205,0.01266,-0.04456
10.502,-0.02975,-0.07416,-0.05417,-0.05814,0.02396,-0.05783,-0.00031,0.04761,-0.0145,0.03571,-0.01785,-0.06104,-0.04105,-0.00961,0.0119,-0.04456
10.5025,-0.03265,-0.09033,-0.06546,-0.05768,-0.03952,-0.06592,-0.00122,0.12192,-0.01617,0.03311,-0.01572,-0.06592,-0.04211,-0.00977,0.0145,-0.04395
10.503,-0.03372,-0.1001,-0.0766,-0.06256,-0.10971,-0.07263,-0.00504,0.14297,-0.01617,0.03036,-0.01343,-0.06989,-0.03845,-0.01038,0.01617,-0.0441
10.5035,-0.03387,-0.10193,-0.08392,-0.06912,-0.15305,-0.07339,-0.00977,0.09598,-0.01434,0.02884,-0.01343,-0.07248,-0.02975,-0.00793,0.01541,-0.04318
10.504,-0.03326,-0.09644,-0.08163,-0.06531,-0.15549,-0.06653,-0.01511,0.02899,-0.01266,0.03021,-0.01358,-0.07507,-0.02121,-0.00183,0.01434,-0.04257
10.5045,-0.02853,-0.08469,-0.06958,-0.04486,-0.13702,-0.05386,-0.01694,-0.01114,-0.01205,0.03296,-0.01358,-0.07919,-0.01862,0.00198,0.01495,-0.04288
10.505,-0.01694,-0.06943,-0.05722,-0.01434,-0.12085,-0.03754,-0.01724,-0.02228,-0.01266,0.03677,-0.01312,-0.08301,-0.02319,0.00031,0.0148,-0.04349
10.5055,-0.00366,-0.05768,-0.05234,0.00793,-0.10544,-0.02716,-0.01846,-0.02899,-0.01297,0.03922,-0.01251,-0.08652,-0.03357,-0.00458,0.01404,-0.04395
10.506,0.00824,-0.05142,-0.05615,0.00824,-0.0766,-0.02228,-0.02167,-0.04456,-0.01312,0.04028,-0.01221,-0.08896,-0.04242,-0.00809,0.01114,-0.04333
10.5065,0.01587,-0.05035,-0.06317,-0.00488,-0.03342,-0.01755,-0.02701,-0.05783,-0.01205,0.03906,-0.01236,-0.09171,-0.04517,-0.00992,0.00946,-0.04379
10.507,0.02136,-0.05142,-0.06805,-0.0116,0.01007,-0.01114,-0.03174,-0.05707,-0.01205,0.03815,-0.01236,-0.09766,-0.04242,-0.00992,0.0119,-0.0444
10.5075,0.02136,-0.05219,-0.07065,-0.00336,0.03998,-0.00748,-0.03235,-0.04425,-0.01282,0.03845,-0.01144,-0.10712,-0.03967,-0.01038,0.01297,-0.04471
10.508,0.01694,-0.05325,-0.06851,0.01129,0.05219,-0.01312,-0.02914,-0.0267,-0.01221,0.03815,-0.01221,-0.11185,-0.03937,-0.01114,0.01221,-0.04471
10.5085,0.0087,-0.05157,-0.06317,0.01556,0.04715,-0.02792,-0.02441,-0.00977,-0.01221,0.03784,-0.01297,-0.10193,-0.04135,-0.01221,0.00916,-0.04456
10.509,0.00046,-0.05081,-0.05508,0.00595,0.03098,-0.0444,-0.02228,-0.00076,-0.01236,0.03586,-0.01297,-0.07568,-0.0386,-0.0145,0.00656,-0.04471
10.5095,-0.0029,-0.05203,-0.04807,-0.01068,0.01144,-0.05737,-0.02426,-0.00397,-0.01389,0.03235,-0.01221,-0.0499,-0.02869,-0.01663,0.00656,-0.04425
10.51,-0.0029,-0.05371,-0.0441,-0.01999,-0.01129,-0.06363,-0.02686,-0.01694,-0.01419,0.03281,-0.01328,-0.0412,-0.01846,-0.01678,0.00778,-0.04227
10.5105,-0.00198,-0.05081,-0.04486,-0.01572,-0.04456,-0.06683,-0.02808,-0.03723,-0.01495,0.03281,-0.01617,-0.05203,-0.01251,-0.01862,0.00854,-0.04105
10.511,-0.00259,-0.04517,-0.04852,-0.00198,-0.0882,-0.06622,-0.02731,-0.05478,-0.01373,0.03159,-0.01755,-0.0679,-0.00732,-0.0209,0.00656,-0.04166
10.5115,-0.00381,-0.04456,-0.05173,0.00977,-0.12451,-0.06332,-0.02686,-0.05966,-0.01297,0.02884,-0.01755,-0.0766,0.00031,-0.02167,0.00534,-0.04272
10.512,-0.00412,-0.05539,-0.05127,0.01801,-0.13718,-0.05768,-0.02853,-0.04898,-0.01328,0.02563,-0.01572,-0.08057,0.00854,-0.02197,0.00671,-0.04257
10.5125,-0.00275,-0.06866,-0.04807,0.02365,-0.13275,-0.05249,-0.03021,-0.03647,-0.01434,0.02426,-0.01373,-0.08621,0.01129,-0.02319,0.00839,-0.0415
10.513,0.00061,-0.07324,-0.04227,0.02777,-0.12558,-0.05127,-0.03418,-0.04608,-0.01434,0.02197,-0.01266,-0.09293,0.00763,-0.02731,0.00992,-0.04135
10.5135,0.00366,-0.06851,-0.03677,0.02716,-0.121,-0.05249,-0.04456,-0.09216,-0.01358,0.01953,-0.0145,-0.09827,-0.00336,-0.03494,0.01022,-0.04166
10.514,0.00397,-0.06638,-0.0325,0.02304,-0.1152,-0.05615,-0.06073,-0.15472,-0.01205,0.01511,-0.01694,-0.10117,-0.01984,-0.04288,0.00946,-0.04303
10.5145,0.00275,-0.07416,-0.03113,0.02075,-0.10391,-0.06058,-0.07401,-0.18661,-0.01221,0.01266,-0.01846,-0.09933,-0.03998,-0.04822,0.00763,-0.04425
10.515,0.00198,-0.08408,-0.02991,0.0235,-0.08896,-0.06256,-0.07675,-0.14648,-0.01251,0.00961,-0.01633,-0.08865,-0.06058,-0.05066,0.00626,-0.04471
10.5155,0.00259,-0.08423,-0.02716,0.02426,-0.07538,-0.05981,-0.07263,-0.04578,-0.01404,0.00931,-0.01419,-0.07294,-0.0766,-0.05112,0.00488,-0.0441
10.516,0.00229,-0.07309,-0.02411,0.02014,-0.07095,-0.05264,-0.07187,0.0528,-0.0148,0.00702,-0.01495,-0.06531,-0.08652,-0.04761,0.00351,-0.04318
10.5165,-0.00229,-0.05753,-0.02136,0.01221,-0.07584,-0.04898,-0.07751,0.09384,-0.01404,0.00397,-0.01587,-0.0705,-0.0885,-0.04089,0.00122,-0.04257
10.517,-0.00992,-0.04425,-0.01999,0.00397,-0.08194,-0.04929,-0.0885,0.07919,-0.01282,0.00183,-0.01572,-0.07599,-0.08102,-0.03342,-0.00137,-0.04303
10.5175,-0.01694,-0.03403,-0.01617,-0.00031,-0.07858,-0.05051,-0.1033,0.05264,-0.01129,0.00153,-0.01358,-0.06729,-0.06683,-0.02914,-0.00259,-0.04333
10.518,-0.01999,-0.02563,-0.01007,-0.00015,-0.06027,-0.04929,-0.11795,0.05707,-0.01083,0.00031,-0.01221,-0.04166,-0.05295,-0.03021,-0.00214,-0.04303
10.5185,-0.02029,-0.02228,-0.0058,0.0032,-0.0354,-0.04623,-0.12512,0.08987,-0.01099,-0.00275,-0.01328,-0.00519,-0.04578,-0.03601,-0.00046,-0.04166
10.519,-0.02151,-0.02197,-0.00946,0.00488,-0.01511,-0.04471,-0.12299,0.09964,-0.0119,-0.00549,-0.01434,0.03708,-0.04639,-0.04013,0.00046,-0.04074
10.5195,-0.02594,-0.02197,-0.02365,0.00488,-0.00412,-0.04654,-0.10895,0.05371,-0.0119,-0.00824,-0.01434,0.07233,-0.04669,-0.03754,0.00137,-0.03967
10.52,-0.0296,-0.01801,-0.04303,0.0058,0.00076,-0.04822,-0.08026,-0.00198,-0.0116,-0.00824,-0.01419,0.08362,-0.04074,-0.03296,0.00214,-0.03967
10.5205,-0.03204,-0.00946,-0.06073,0.00839,0.00153,-0.04669,-0.05569,0.00854,-0.01205,-0.01007,-0.01572,0.0679,-0.02899,-0.03189,0.0032,-0.04059
10.521,-0.0325,0.00015,-0.06882,0.01129,0.00153,-0.04547,-0.06165,0.07431,-0.0145,-0.01266,-0.01724,0.04349,-0.02182,-0.03571,0.0029,-0.0415
10.5215,-0.03204,0.00443,-0.06256,0.01358,0.00366,-0.04227,-0.09827,0.11398,-0.01709,-0.01617,-0.01694,0.01831,-0.02563,-0.03906,0.00076,-0.04028
10.522,-0.02838,0.00061,-0.04745,0.01648,0.00748,-0.03952,-0.12924,0.09018,-0.01617,-0.01846,-0.0145,-0.01816,-0.03586,-0.03998,-0.00031,-0.03906
10.5225,-0.02243,-0.00504,-0.03006,0.01816,0.01526,-0.03891,-0.12695,0.04486,-0.0145,-0.02014,-0.01251,-0.07462,-0.04425,-0.03754,0.00031,-0.0383
10.523,-0.01755,-0.00732,-0.0148,0.01968,0.02472,-0.04028,-0.0972,0.0264,-0.01434,-0.01999,-0.01343,-0.14008,-0.04456,-0.03296,0.00244,-0.0383
10.5235,-0.01511,-0.00748,0.00031,0.01846,0.0351,-0.04227,-0.05356,0.02731,-0.01587,-0.01953,-0.0148,-0.18692,-0.0383,-0.0267,0.00351,-0.03799
10.524,-0.01389,-0.00946,0.01068,0.01419,0.04105,-0.04486,0.00488,0.02075,-0.01709,-0.02197,-0.01556,-0.19501,-0.03479,-0.02213,0.0029,-0.03769
10.5245,-0.00916,-0.01511,0.01404,0.01099,0.04379,-0.04639,0.07095,0.00885,-0.01785,-0.02502,-0.01526,-0.17273,-0.04242,-0.0206,0.0,-0.03845
10.525,-0.00153,-0.0209,0.00931,0.01144,0.04578,-0.04868,0.12009,0.00702,-0.01907,-0.02579,-0.01587,-0.13992,-0.05569,-0.02304,-0.00122,-0.04028
10.5255,0.0058,-0.02136,0.00122,0.01328,0.04547,-0.05341,0.13443,0.01175,-0.01907,-0.02686,-0.01663,-0.11185,-0.05783,-0.02472,-0.00107,-0.04272
10.526,0.00748,-0.01678,-0.01862,0.00885,0.04013,-0.0592,0.12497,0.01114,-0.0174,-0.02777,-0.01663,-0.09399,-0.03601,-0.02167,-0.00214,-0.04318
10.5265,0.00336,-0.01526,-0.07339,-0.00122,0.02899,-0.0621,0.11276,0.00381,-0.0148,-0.02731,-0.01801,-0.08835,-0.00443,-0.01312,-0.00183,-0.04242
10.527,-0.00259,-0.02029,-0.16464,-0.01556,0.009,-0.06149,0.10117,-0.00198,-0.01312,-0.02869,-0.01907,-0.09155,0.01251,-0.00763,-0.00275,-0.04272
10.5275,-0.00687,-0.02533,-0.24445,-0.03174,-0.01816,-0.06027,0.08041,-0.00626,-0.01343,-0.03159,-0.01953,-0.0885,0.01144,-0.01114,-0.00443,-0.04456
10.528,-0.01038,-0.02335,-0.25513,-0.04944,-0.04593,-0.05997,0.03403,-0.01282,-0.01297,-0.03494,-0.0206,-0.07355,0.00214,-0.02029,-0.00534,-0.04623
10.5285,-0.01419,-0.02319,-0.20844,-0.06607,-0.05692,-0.06104,-0.03647,-0.02045,-0.01358,-0.03738,-0.02167,-0.06454,-0.00824,-0.03067,-0.00702,-0.04562
10.529,-0.0177,-0.03601,-0.1564,-0.07919,-0.04547,-0.05981,-0.08881,-0.02533,-0.01404,-0.0383,-0.02213,-0.07843,-0.02274,-0.03815,-0.00641,-0.04471
10.5295,-0.02075,-0.0618,-0.11047,-0.09033,-0.02106,-0.05981,-0.06638,-0.02899,-0.01633,-0.03937,-0.01907,-0.09918,-0.04532,-0.04471,-0.00427,-0.04379
10.53,-0.02121,-0.08347,-0.04196,-0.10193,-0.00351,-0.05646,0.00748,-0.03525,-0.01602,-0.04059,-0.01465,-0.0914,-0.06775,-0.04837,-0.00275,-0.04364
10.5305,-0.01999,-0.09369,0.05051,-0.11475,0.00168,-0.05264,0.04456,-0.04776,-0.01389,-0.04181,-0.0116,-0.04608,-0.0766,-0.04501,-0.00275,-0.0441
10.531,-0.01831,-0.09552,0.1297,-0.12451,0.0,-0.04822,0.00687,-0.0676,-0.01266,-0.03922,-0.00946,0.01312,-0.06897,-0.03571,-0.00443,-0.0441
10.5315,-0.01923,-0.09354,0.1709,-0.13092,-0.00549,-0.04669,-0.04547,-0.09293,-0.01358,-0.04013,-0.00778,0.06012,-0.05478,-0.02838,-0.00504,-0.04425
10.532,-0.02441,-0.08865,0.18158,-0.13092,-0.01923,-0.04791,-0.05066,-0.11261,-0.01465,-0.04105,-0.00748,0.08743,-0.04333,-0.02655,-0.00458,-0.04517
10.5325,-0.03357,-0.07996,0.17258,-0.12482,-0.04166,-0.04791,-0.01984,-0.10773,-0.01526,-0.04318,-0.00839,0.09705,-0.03845,-0.02991,-0.00336,-0.04562
10.533,-0.04318,-0.07385,0.14786,-0.11475,-0.06058,-0.04807,0.0061,-0.07614,-0.01495,-0.04532,-0.00977,0.09491,-0.03479,-0.03296,-0.00259,-0.04593
10.5335,-0.05005,-0.07065,0.1152,-0.10284,-0.0589,-0.04868,0.01465,-0.04547,-0.01556,-0.04593,-0.01175,0.08682,-0.02884,-0.03143,-0.00305,-0.04745
10.534,-0.05173,-0.06714,0.0827,-0.08957,-0.03647,-0.05249,0.01266,-0.0415,-0.01541,-0.04669,-0.0145,0.07721,-0.01801,-0.02625,-0.00305,-0.04913
10.5345,-0.04807,-0.05966,0.05646,-0.07141,-0.01007,-0.05524,0.00549,-0.056,-0.01816,-0.04684,-0.01587,0.06317,-0.00702,-0.02365,-0.00351,-0.04929
10.535,-0.0415,-0.05066,0.0325,-0.04517,0.00763,-0.05753,-0.00122,-0.05249,-0.02014,-0.04562,-0.01511,0.03998,-0.00107,-0.02243,-0.00534,-0.04929
10.5355,-0.03555,-0.04333,0.00473,-0.01556,0.01434,-0.05936,-0.00458,-0.00931,-0.02014,-0.04349,-0.01328,0.01175,0.00046,-0.02457,-0.00702,-0.04791
10.536,-0.02975,-0.04028,-0.0264,0.00946,0.01724,-0.06073,0.00397,0.05585,-0.01755,-0.04456,-0.01129,-0.01022,0.00198,-0.02914,-0.00595,-0.04776
10.5365,-0.02335,-0.03769,-0.05417,0.02518,0.02289,-0.06271,0.03464,0.10834,-0.01648,-0.04639,-0.01038,-0.02182,0.00397,-0.03326,-0.00443,-0.04776
10.537,-0.01877,-0.03357,-0.0708,0.03998,0.02731,-0.06622,0.06332,0.12482,-0.01587,-0.04837,-0.0116,-0.02884,0.00122,-0.03784,-0.00076,-0.04715
10.5375,-0.01572,-0.02518,-0.07355,0.06287,0.01984,-0.07294,0.03891,0.10315,-0.01724,-0.04959,-0.01343,-0.04044,-0.0087,-0.04333,0.00076,-0.04547
10.538,-0.01343,-0.01495,-0.06729,0.08804,-0.00534,-0.07965,-0.05798,0.05264,-0.01877,-0.0499,-0.01556,-0.06256,-0.02457,-0.04776,0.00031,-0.04364
10.5385,-0.00977,-0.00687,-0.06119,0.10345,-0.03952,-0.08408,-0.18356,-0.00427,-0.02075,-0.04974,-0.01633,-0.0972,-0.03845,-0.04883,0.0,-0.04333
10.539,-0.00458,-0.00748,-0.05905,0.10574,-0.0679,-0.08606,-0.29007,-0.04623,-0.02243,-0.04959,-0.01694,-0.14313,-0.047,-0.0444,-0.00031,-0.04303
10.5395,-0.0029,-0.01343,-0.05798,0.10117,-0.07584,-0.08469,-0.3685,-0.06866,-0.02075,-0.04608,-0.01755,-0.18661,-0.05203,-0.03647,0.00305,-0.04272
10.54,-0.00381,-0.02136,-0.05463,0.09705,-0.0705,-0.07965,-0.41336,-0.08377,-0.01709,-0.04196,-0.01572,-0.19028,-0.0592,-0.02853,0.00671,-0.04227
10.5405,-0.0061,-0.02518,-0.05035,0.1001,-0.07233,-0.07095,-0.40359,-0.10345,-0.01419,-0.03922,-0.01343,-0.12711,-0.07172,-0.02243,0.01053,-0.04242
10.541,-0.00656,-0.02609,-0.04379,0.11063,-0.0882,-0.06073,-0.3569,-0.12421,-0.01404,-0.03738,-0.01175,-0.01358,-0.0824,-0.01633,0.01251,-0.04242
10.5415,-0.0058,-0.02594,-0.03754,0.12634,-0.10529,-0.04898,-0.33951,-0.13443,-0.0148,-0.0351,-0.01205,0.10071,-0.08163,-0.01129,0.01266,-0.04227
10.542,-0.0061,-0.02609,-0.03204,0.1413,-0.1088,-0.03159,-0.36346,-0.12451,-0.01572,-0.03342,-0.01297,0.17929,-0.06531,-0.0116,0.0116,-0.04181
10.5425,-0.00717,-0.02457,-0.02808,0.15472,-0.10269,-0.0119,-0.32349,-0.09033,-0.01602,-0.03326,-0.01312,0.2269,-0.04303,-0.01358,0.01053,-0.04227
10.543,-0.00763,-0.01785,-0.02548,0.16434,-0.09644,0.0029,-0.12054,-0.03647,-0.01602,-0.03326,-0.01266,0.26093,-0.02625,-0.01556,0.01083,-0.04089
10.5435,-0.00778,-0.00854,-0.02151,0.16266,-0.08835,0.00595,0.1593,0.02304,-0.01572,-0.03098,-0.01373,0.27939,-0.01633,-0.01526,0.01099,-0.03906
10.544,-0.00946,-0.00351,-0.0206,0.14374,-0.07431,0.00076,0.32211,0.07004,-0.01526,-0.03174,-0.01541,0.25665,-0.0116,-0.01617,0.00946,-0.03967
10.5445,-0.01099,-0.00916,-0.02563,0.11475,-0.05447,-0.00504,0.32776,0.09506,-0.01663,-0.03143,-0.01556,0.18463,-0.00534,-0.0206,0.00778,-0.03952
10.545,-0.0145,-0.02014,-0.03952,0.09033,-0.03708,-0.00931,0.33035,0.10651,-0.01816,-0.03067,-0.01328,0.09094,0.00107,-0.02457,0.00824,-0.03906
10.5455,-0.01968,-0.02884,-0.05539,0.07248,-0.0354,-0.01587,0.41382,0.10971,-0.01831,-0.03113,-0.01114,0.01434,0.00381,-0.02686,0.01022,-0.03784
10.546,-0.02487,-0.03128,-0.06027,0.05524,-0.04852,-0.02441,0.47775,0.10147,-0.01556,-0.0293,-0.01099,-0.02258,-0.00031,-0.02823,0.01282,-0.03632
10.5465,-0.02899,-0.03036,-0.05447,0.03265,-0.06561,-0.0325,0.44266,0.08224,-0.01328,-0.02975,-0.01175,-0.02365,-0.01266,-0.03082,0.01266,-0.03708
10.547,-0.02991,-0.03036,-0.04227,0.00763,-0.07523,-0.03662,0.37506,0.0592,-0.01465,-0.03143,-0.01038,-0.00961,-0.02991,-0.03357,0.01251,-0.03815
10.5475,-0.02914,-0.03311,-0.02991,-0.01328,-0.07004,-0.03754,0.34775,0.04074,-0.01678,-0.03372,-0.00931,-0.00793,-0.04669,-0.03464,0.01419,-0.03891
10.548,-0.02823,-0.03479,-0.01633,-0.01816,-0.05447,-0.03723,0.32654,0.02792,-0.01938,-0.03448,-0.01053,-0.02869,-0.05783,-0.03281,0.01556,-0.03769
10.5485,-0.02563,-0.03265,-0.00259,0.00381,-0.03799,-0.03647,0.25482,0.01968,-0.01892,-0.03189,-0.01312,-0.04929,-0.06348,-0.03098,0.0148,-0.0351
10.549,-0.02258,-0.02838,0.00641,0.04288,-0.02838,-0.03616,0.15564,0.01328,-0.01984,-0.02701,-0.01358,-0.04135,-0.0679,-0.0296,0.01343,-0.03357
10.5495,-0.01907,-0.02411,0.00183,0.0705,-0.02441,-0.03616,0.09232,0.00931,-0.01816,-0.02533,-0.0119,-0.00549,-0.0708,-0.02731,0.01282,-0.03357
10.55,-0.01526,-0.02243,-0.0238,0.06409,-0.02228,-0.03662,0.07858,0.00977,-0.0174,-0.02716,-0.01114,0.03143,-0.06561,-0.02502,0.01266,-0.0351
10.5505,-0.01038,-0.02274,-0.07584,0.03525,-0.01968,-0.03815,0.07233,0.02426,-0.01755,-0.02808,-0.01221,0.04272,-0.0528,-0.02319,0.01205,-0.03723
10.551,-0.00595,-0.0206,-0.1387,0.01495,-0.01923,-0.03891,0.03174,0.05539,-0.01938,-0.02777,-0.01266,0.03006,-0.0386,-0.02213,0.01129,-0.03891
10.5515,-0.00183,-0.01556,-0.17853,0.0209,-0.01938,-0.04227,-0.03693,0.07919,-0.02014,-0.02777,-0.01236,0.00687,-0.02991,-0.02182,0.00992,-0.04089
10.552,0.00168,-0.00992,-0.16541,0.03525,-0.01984,-0.04517,-0.10132,0.06943,-0.01801,-0.03052,-0.01053,-0.01053,-0.02686,-0.02213,0.00748,-0.04349
10.5525,0.00519,-0.00458,-0.10483,0.03479,-0.01831,-0.04379,-0.13931,0.03235,-0.01724,-0.03311,-0.00992,-0.01648,-0.02701,-0.0206,0.00732,-0.04517
10.553,0.00839,-0.00031,-0.03128,0.01907,-0.01404,-0.04181,-0.13702,0.00214,-0.01678,-0.03754,-0.01053,-0.01007,-0.02838,-0.01953,0.00778,-0.04379
10.5535,0.00961,0.00198,0.02563,0.00763,-0.01038,-0.04166,-0.05615,-0.00534,-0.01633,-0.04227,-0.01144,0.00351,-0.03174,-0.01907,0.0116,-0.04181
10.554,0.009,-0.00092,0.0563,0.01068,-0.01144,-0.04379,0.10239,-0.00687,-0.0145,-0.04501,-0.01205,0.01389,-0.03372,-0.01953,0.01282,-0.04089
10.5545,0.00793,-0.00717,0.06821,0.02243,-0.01221,-0.04669,0.2301,-0.01892,-0.01373,-0.04425,-0.0119,0.01678,-0.03189,-0.02045,0.01312,-0.04028
10.555,0.0058,-0.01205,0.06836,0.03235,-0.01236,-0.04852,0.20966,-0.03494,-0.01495,-0.04089,-0.01251,0.01694,-0.02747,-0.02106,0.01328,-0.04211
10.5555,0.0032,-0.01389,0.05844,0.03067,-0.01251,-0.05081,0.07339,-0.03998,-0.01724,-0.03815,-0.01297,0.02151,-0.02304,-0.02121,0.01465,-0.04196
10.556,-0.00168,-0.01434,0.03815,0.00443,-0.01343,-0.05356,-0.03021,-0.03464,-0.01846,-0.03662,-0.01343,0.0293,-0.02151,-0.02243,0.0145,-0.03952
10.5565,-0.0061,-0.01907,0.00946,-0.05432,-0.01404,-0.05737,-0.02289,-0.02838,-0.01724,-0.03479,-0.01343,0.03204,-0.02319,-0.02365,0.01266,-0.03677
10.557,-0.00687,-0.02502,-0.01953,-0.13107,-0.01602,-0.05951,0.03937,-0.02625,-0.01633,-0.03448,-0.01175,0.02121,-0.02792,-0.02426,0.01404,-0.03708
10.5575,-0.0032,-0.03036,-0.0415,-0.19211,-0.0148,-0.06165,0.07034,-0.02548,-0.01678,-0.03448,-0.01007,-0.0029,-0.03265,-0.02548,0.01633,-0.03952
10.558,0.00198,-0.03479,-0.05341,-0.21332,-0.01282,-0.06363,0.05371,-0.02136,-0.01678,-0.03159,-0.00977,-0.03433,-0.03387,-0.02625,0.01755,-0.04028
10.5585,0.00595,-0.04044,-0.05798,-0.19745,-0.00931,-0.06424,0.0206,-0.01785,-0.01511,-0.02975,-0.01022,-0.056,-0.03052,-0.02731,0.01633,-0.03983
10.559,0.00809,-0.04517,-0.0618,-0.16571,-0.00916,-0.06439,-0.00671,-0.01541,-0.01434,-0.02808,-0.00946,-0.04974,-0.0264,-0.02686,0.01556,-0.0383
10.5595,0.00992,-0.04944,-0.06577,-0.13641,-0.01175,-0.06393,-0.02213,-0.01297,-0.01297,-0.02838,-0.00656,-0.00549,-0.02441,-0.02502,0.01724,-0.03754
10.56,0.01358,-0.05051,-0.0705,-0.11688,-0.01541,-0.06363,-0.02228,-0.01175,-0.01419,-0.02853,-0.00412,0.0621,-0.02243,-0.02213,0.01816,-0.03799
10.5605,0.01877,-0.04837,-0.07141,-0.10956,-0.01709,-0.06348,-0.0119,-0.0119,-0.01511,-0.02991,-0.00381,0.12299,-0.02045,-0.02029,0.01633,-0.03876
10.561,0.02197,-0.04395,-0.06912,-0.10529,-0.01862,-0.06363,-0.00336,-0.01389,-0.01572,-0.03128,-0.00534,0.15274,-0.01846,-0.0206,0.01328,-0.03876
10.5615,0.02258,-0.03815,-0.06531,-0.08484,-0.02167,-0.06134,-0.00854,-0.01572,-0.01709,-0.03189,-0.0087,0.15259,-0.02319,-0.02258,0.0119,-0.03845
10.562,0.01999,-0.03372,-0.06317,-0.05463,-0.02625,-0.05997,-0.03021,-0.01816,-0.0177,-0.03036,-0.01038,0.14053,-0.03586,-0.02533,0.01083,-0.03891
10.5625,0.01785,-0.03036,-0.06104,-0.04562,-0.03128,-0.05539,-0.06409,-0.0206,-0.01892,-0.03159,-0.00946,0.12909,-0.05005,-0.02609,0.01038,-0.03998
10.563,0.01678,-0.02808,-0.05585,-0.07202,-0.03616,-0.05219,-0.10315,-0.02365,-0.01801,-0.0322,-0.00854,0.11581,-0.05493,-0.02289,0.01114,-0.0412
10.5635,0.01648,-0.02808,-0.04791,-0.1001,-0.03952,-0.04913,-0.13748,-0.02533,-0.01694,-0.03189,-0.00931,0.10208,-0.04761,-0.01587,0.0145,-0.04135
10.564,0.01541,-0.02899,-0.04074,-0.09644,-0.04349,-0.04639,-0.16357,-0.0264,-0.01526,-0.03204,-0.01144,0.09125,-0.03525,-0.00854,0.0174,-0.03967
10.5645,0.01495,-0.02853,-0.03616,-0.06927,-0.04532,-0.04471,-0.1915,-0.02563,-0.01526,-0.03159,-0.01236,0.08591,-0.02762,-0.00519,0.01862,-0.03876
10.565,0.01511,-0.02808,-0.03265,-0.04593,-0.04471,-0.04242,-0.23438,-0.02441,-0.01526,-0.03036,-0.01053,0.08499,-0.02853,-0.00793,0.01755,-0.03891
10.5655,0.01526,-0.02884,-0.02838,-0.02502,-0.04074,-0.03632,-0.28839,-0.0235,-0.01541,-0.03204,-0.00946,0.08408,-0.03067,-0.01282,0.01724,-0.04074
10.566,0.01434,-0.02869,-0.02151,0.01328,-0.03708,-0.0322,-0.32974,-0.02411,-0.01602,-0.03174,-0.01022,0.08438,-0.03098,-0.01556,0.01678,-0.0412
10.5665,0.01312,-0.02548,-0.01343,0.07584,-0.03616,-0.03082,-0.3447,-0.02686,-0.01572,-0.03326,-0.0119,0.08698,-0.03021,-0.01755,0.01541,-0.0415
10.567,0.01205,-0.02045,-0.00565,0.15244,-0.03342,-0.03586,-0.33356,-0.03159,-0.01572,-0.03586,-0.01343,0.09018,-0.03204,-0.01984,0.01373,-0.04196
10.5675,0.01099,-0.01953,-0.00046,0.22324,-0.02609,-0.04761,-0.29602,-0.03754,-0.01495,-0.03479,-0.01373,0.09003,-0.03525,-0.02243,0.01404,-0.04227
10.568,0.00916,-0.02319,0.00275,0.25085,-0.0145,-0.06241,-0.23193,-0.04349,-0.01465,-0.03189,-0.01373,0.08499,-0.03586,-0.02365,0.01434,-0.04272
10.5685,0.0087,-0.02655,0.00687,0.1973,-0.00992,-0.07294,-0.15228,-0.04944,-0.01587,-0.03052,-0.01465,0.07751,-0.03525,-0.02289,0.01465,-0.04288
10.569,0.01129,-0.02747,0.00366,0.07477,-0.01373,-0.07492,-0.06256,-0.05386,-0.01709,-0.02747,-0.01663,0.07065,-0.03677,-0.02335,0.01434,-0.0415
10.5695,0.01389,-0.02762,-0.01801,-0.05173,-0.02731,-0.06866,0.03235,-0.05829,-0.0174,-0.02487,-0.01633,0.06485,-0.03815,-0.02441,0.01556,-0.0412
10.57,0.01343,-0.03159,-0.05676,-0.11551,-0.03494,-0.0621,0.0914,-0.05829,-0.01526,-0.02426,-0.01404,0.06027,-0.03891,-0.02579,0.01633,-0.0415
10.5705,0.01068,-0.04074,-0.09216,-0.10773,-0.03632,-0.06195,0.05966,-0.04532,-0.01526,-0.0235,-0.01251,0.0563,-0.03906,-0.0267,0.01556,-0.04181
10.571,0.00732,-0.047,-0.11475,-0.07843,-0.03281,-0.06729,-0.07172,-0.01785,-0.01663,-0.02289,-0.01389,0.05005,-0.03998,-0.02655,0.01434,-0.04044
10.5715,0.00473,-0.04333,-0.15503,-0.06866,-0.03143,-0.0708,-0.24445,0.01205,-0.01755,-0.0235,-0.01572,0.04166,-0.03922,-0.02533,0.01068,-0.0386
10.572,0.00244,-0.0322,-0.23422,-0.07172,-0.03006,-0.06714,-0.37643,0.02701,-0.01694,-0.02548,-0.01526,0.03372,-0.03708,-0.02396,0.00687,-0.03891
10.5725,-0.00259,-0.02533,-0.30869,-0.07355,-0.02975,-0.06027,-0.42114,0.02609,-0.01587,-0.03098,-0.01312,0.03052,-0.03448,-0.02457,0.00504,-0.04059
10.573,-0.01144,-0.02991,-0.29816,-0.08728,-0.03006,-0.05493,-0.37674,0.01953,-0.01572,-0.03403,-0.01282,0.03296,-0.03204,-0.02548,0.00687,-0.0412
10.5735,-0.02228,-0.04181,-0.18555,-0.12787,-0.03006,-0.05157,-0.23987,0.01587,-0.01556,-0.03342,-0.0148,0.03677,-0.03098,-0.02594,0.00931,-0.0412
10.574,-0.03113,-0.05157,-0.02975,-0.1767,-0.03098,-0.04883,0.01999,0.0119,-0.01526,-0.03143,-0.01755,0.0354,-0.03113,-0.02563,0.01068,-0.04089
10.5745,-0.03586,-0.05661,0.10239,-0.19089,-0.03006,-0.04608,0.3746,0.00732,-0.01419,-0.03006,-0.01892,0.0267,-0.03235,-0.02594,0.0116,-0.0412
10.575,-0.03555,-0.05875,0.18539,-0.14969,-0.02869,-0.04715,0.66956,0.00427,-0.01404,-0.03082,-0.01678,0.01053,-0.03311,-0.02747,0.0119,-0.0415
10.5755,-0.03189,-0.06165,0.22278,-0.06897,-0.02945,-0.05081,0.71808,0.00458,-0.01434,-0.03113,-0.01541,-0.00732,-0.03235,-0.02762,0.01297,-0.04074
10.576,-0.02548,-0.06378,0.21805,0.00427,-0.02945,-0.05386,0.50873,0.00412,-0.01526,-0.03082,-0.01541,-0.01938,-0.03098,-0.0267,0.01328,-0.04028
10.5765,-0.02014,-0.06332,0.18341,0.02991,-0.02945,-0.05341,0.26215,0.00122,-0.01678,-0.02777,-0.01587,-0.02014,-0.03036,-0.02518,0.01205,-0.03983
10.577,-0.01633,-0.06073,0.13855,-0.00824,-0.02716,-0.0499,0.19516,-0.00214,-0.01648,-0.02457,-0.01663,-0.01114,-0.0296,-0.02365,0.01144,-0.03998
10.5775,-0.01419,-0.06027,0.09735,-0.09354,-0.02579,-0.047,0.2887,-0.00092,-0.01511,-0.02594,-0.01709,-0.00031,-0.0296,-0.02319,0.01007,-0.04074
10.578,-0.0119,-0.06012,0.06256,-0.18799,-0.02441,-0.0441,0.36484,0.00336,-0.01434,-0.02899,-0.01617,0.00076,-0.02823,-0.02228,0.00931,-0.04135
10.5785,-0.00809,-0.05844,0.03098,-0.24597,-0.02518,-0.04135,0.33142,0.00626,-0.01526,-0.0322,-0.01495,-0.01099,-0.02853,-0.02136,0.00671,-0.04166
10.579,-0.00565,-0.05463,0.00381,-0.23636,-0.02518,-0.0383,0.23468,0.00763,-0.01663,-0.0325,-0.01343,-0.02716,-0.02975,-0.02121,0.00458,-0.04074
10.5795,-0.00443,-0.04959,-0.0148,-0.16953,-0.02533,-0.03616,0.14618,0.00885,-0.01694,-0.03113,-0.01236,-0.02869,-0.02991,-0.0206,0.00488,-0.03922
10.58,-0.00305,-0.04272,-0.02487,-0.09323,-0.02426,-0.0354,0.07767,0.00931,-0.01572,-0.03113,-0.01175,-0.00198,-0.02869,-0.01984,0.00687,-0.03815
10.5805,-0.00015,-0.03754,-0.03311,-0.04517,-0.02335,-0.03708,0.01221,0.00732,-0.01495,-0.02899,-0.01328,0.04303,-0.02747,-0.01877,0.00931,-0.03998
10.581,0.00626,-0.03433,-0.04135,-0.02045,-0.02457,-0.04013,-0.05127,0.00351,-0.0148,-0.02792,-0.01404,0.08072,-0.02747,-0.01862,0.00946,-0.04166
10.5815,0.01495,-0.03174,-0.04669,-0.00931,-0.02548,-0.04211,-0.10178,-0.00031,-0.01495,-0.02579,-0.01511,0.09537,-0.0296,-0.01831,0.00824,-0.04211
10.582,0.02243,-0.02594,-0.04852,-0.03586,-0.0267,-0.0415,-0.13367,-0.00397,-0.01495,-0.02441,-0.01465,0.09109,-0.03082,-0.01846,0.00656,-0.04166
10.5825,0.02762,-0.01251,-0.04074,-0.12344,-0.0264,-0.04089,-0.15396,-0.00763,-0.01434,-0.02686,-0.01495,0.08133,-0.03143,-0.01907,0.00565,-0.04028
10.583,0.02747,0.00961,-0.02396,-0.24948,-0.02625,-0.04089,-0.17303,-0.00977,-0.01434,-0.02823,-0.01343,0.07111,-0.03235,-0.02029,0.0061,-0.03952
10.5835,0.02533,0.02747,-0.00549,-0.34622,-0.02487,-0.04074,-0.19272,-0.00992,-0.01556,-0.03021,-0.01205,0.05951,-0.03357,-0.02258,0.00763,-0.03952
10.584,0.02197,0.02365,0.00504,-0.36743,-0.02594,-0.04105,-0.20218,-0.00793,-0.01617,-0.03174,-0.01022,0.04303,-0.03479,-0.02457,0.00763,-0.03998
10.5845,0.01755,0.00046,0.00336,-0.32959,-0.02853,-0.04425,-0.17883,-0.00626,-0.01617,-0.0322,-0.00931,0.02045,-0.03464,-0.02579,0.00687,-0.04059
10.585,0.0145,-0.02518,-0.00336,-0.27756,-0.0351,-0.047,-0.09979,-0.00519,-0.01526,-0.03372,-0.00992,-0.00549,-0.03601,-0.02533,0.00534,-0.04028
10.5855,0.01404,-0.03784,-0.01221,-0.22339,-0.04318,-0.04929,0.02274,-0.00534,-0.01434,-0.03387,-0.0119,-0.02502,-0.03769,-0.02502,0.00595,-0.04074
10.586,0.01678,-0.0444,-0.02411,-0.15228,-0.05203,-0.05066,0.12161,-0.00168,-0.01328,-0.03357,-0.01389,-0.02991,-0.03876,-0.02609,0.00671,-0.04074
10.5865,0.02045,-0.05753,-0.04211,-0.07202,-0.05508,-0.05188,0.1355,0.00168,-0.01282,-0.03143,-0.01511,-0.02396,-0.03998,-0.02716,0.00702,-0.04211
10.587,0.02075,-0.07797,-0.06256,-0.01923,-0.05402,-0.05325,0.07339,0.00397,-0.01434,-0.02838,-0.01572,-0.01831,-0.0415,-0.02701,0.00595,-0.04242
10.5875,0.01495,-0.09445,-0.07339,-0.01556,-0.05219,-0.05249,-0.0058,0.00366,-0.01526,-0.02533,-0.01663,-0.02502,-0.04074,-0.02655,0.00458,-0.04272
10.588,0.00351,-0.09979,-0.07248,-0.04532,-0.0502,-0.04898,-0.065,0.00198,-0.01556,-0.02518,-0.01663,-0.04532,-0.03754,-0.02563,0.00534,-0.04242
10.5885,-0.00992,-0.09796,-0.06531,-0.07431,-0.04852,-0.04547,-0.10162,0.00015,-0.0148,-0.02502,-0.01541,-0.06882,-0.03647,-0.02518,0.00671,-0.04379
10.589,-0.02213,-0.09232,-0.05966,-0.08698,-0.04639,-0.04623,-0.11841,-0.00168,-0.01419,-0.02289,-0.01404,-0.0708,-0.03494,-0.02441,0.00717,-0.0441
10.5895,-0.03067,-0.08636,-0.05753,-0.08514,-0.04669,-0.04898,-0.10406,-0.00214,-0.01373,-0.02121,-0.01282,-0.03433,-0.03342,-0.02258,0.00732,-0.04333
10.59,-0.03571,-0.07919,-0.05981,-0.07217,-0.04517,-0.05096,-0.04898,-0.00137,-0.01389,-0.02014,-0.0119,0.03525,-0.03159,-0.02045,0.00793,-0.04166
10.5905,-0.03754,-0.07339,-0.06821,-0.04974,-0.0441,-0.05249,0.01816,0.0,-0.01343,-0.01923,-0.01297,0.10788,-0.03082,-0.01892,0.00809,-0.0412
10.591,-0.03464,-0.07095,-0.08408,-0.03693,-0.04059,-0.0531,0.04257,0.00046,-0.01282,-0.01816,-0.01221,0.15274,-0.03082,-0.01862,0.00702,-0.04227
10.5915,-0.02411,-0.07309,-0.10468,-0.06744,-0.03479,-0.05157,0.00671,-0.00031,-0.01282,-0.01785,-0.01266,0.1651,-0.03006,-0.02045,0.00336,-0.04333
10.592,-0.0087,-0.07675,-0.12085,-0.15976,-0.03296,-0.04715,-0.04913,-0.00061,-0.01205,-0.01801,-0.0116,0.16113,-0.02899,-0.02197,-0.00015,-0.04395
10.5925,0.00519,-0.07919,-0.12787,-0.30106,-0.03342,-0.04059,-0.08469,0.00061,-0.01038,-0.01709,-0.01129,0.15289,-0.02853,-0.02106,-0.00107,-0.04501
10.593,0.01251,-0.07507,-0.12283,-0.44632,-0.03555,-0.03693,-0.09888,0.0032,-0.01022,-0.01572,-0.01175,0.1387,-0.03006,-0.01846,0.0,-0.04425
10.5935,0.01312,-0.06424,-0.10635,-0.52917,-0.0351,-0.0354,-0.10025,0.00443,-0.0116,-0.0148,-0.01175,0.11444,-0.03113,-0.01556,0.00183,-0.0441
10.594,0.01007,-0.05127,-0.0824,-0.50888,-0.03448,-0.03601,-0.08698,0.00381,-0.01343,-0.01526,-0.01328,0.08316,-0.03082,-0.01526,0.00519,-0.0441
10.5945,0.00748,-0.04059,-0.0618,-0.40146,-0.0325,-0.03494,-0.06653,0.00214,-0.01358,-0.01404,-0.0148,0.05234,-0.02991,-0.01511,0.00717,-0.0441
10.595,0.0087,-0.03326,-0.05371,-0.2652,-0.03357,-0.03464,-0.05615,0.0029,-0.01404,-0.01251,-0.01633,0.03082,-0.02884,-0.01465,0.0087,-0.04364
10.5955,0.01114,-0.02914,-0.05386,-0.1651,-0.03693,-0.03616,-0.06042,0.00168,-0.01495,-0.01114,-0.01617,0.02106,-0.02899,-0.01312,0.009,-0.04318
10.596,0.01373,-0.02594,-0.0528,-0.15137,-0.03983,-0.03891,-0.06226,-0.00107,-0.01572,-0.01114,-0.01755,0.01648,-0.02945,-0.01099,0.00992,-0.04227
10.5965,0.01358,-0.02365,-0.04868,-0.21439,-0.03891,-0.03876,-0.04791,-0.00229,-0.01511,-0.01129,-0.01862,0.01175,-0.03006,-0.00916,0.0119,-0.04166
10.597,0.0116,-0.02304,-0.04608,-0.26108,-0.03769,-0.03693,-0.02472,-0.00092,-0.0148,-0.00824,-0.01968,0.00565,-0.03098,-0.00793,0.01358,-0.04211
10.5975,0.00885,-0.02411,-0.05066,-0.17929,-0.03723,-0.03632,-0.00519,0.00031,-0.0148,-0.00671,-0.01816,-0.00381,-0.03143,-0.00732,0.01465,-0.04318
10.598,0.00412,-0.0206,-0.06317,0.05417,-0.03494,-0.0386,0.01038,-0.00092,-0.01572,-0.00793,-0.01755,-0.01923,-0.03128,-0.00763,0.01556,-0.0441
10.5985,-0.00015,-0.00595,-0.07675,0.35965,-0.03586,-0.04242,0.01953,-0.00381,-0.01541,-0.01175,-0.01709,-0.0322,-0.03052,-0.00656,0.0145,-0.04425
10.599,-0.00473,0.0119,-0.08133,0.6308,-0.03479,-0.0441,0.01694,-0.00671,-0.01434,-0.01495,-0.01709,-0.01938,-0.0296,-0.00549,0.01297,-0.04486
10.5995,-0.00687,0.01251,-0.07187,0.77774,-0.03372,-0.0441,0.00275,-0.00854,-0.0148,-0.01556,-0.01648,0.0296,-0.03036,-0.00366,0.01328,-0.04532
10.6,-0.0058,-0.01434,-0.05371,0.73227,-0.03387,-0.04425,-0.01251,-0.00916,-0.01572,-0.01648,-0.01541,0.08514,-0.03128,-0.00366,0.01556,-0.04547
10.6005,-0.00214,-0.05096,-0.0351,0.48233,-0.0325,-0.04501,-0.02441,-0.00854,-0.01694,-0.01999,-0.01251,0.10452,-0.03204,-0.00458,0.01694,-0.04471
10.601,0.00122,-0.07431,-0.02228,0.11444,-0.03372,-0.04654,-0.03235,-0.00854,-0.01694,-0.01755,-0.01312,0.08438,-0.03159,-0.00443,0.01678,-0.04608
10.6015,0.00443,-0.08026,-0.01389,-0.19943,-0.03571,-0.04623,-0.03708,-0.00916,-0.01648,-0.01007,-0.01602,0.05798,-0.0322,-0.00427,0.01709,-0.04715
10.602,0.00687,-0.07751,-0.0061,-0.33524,-0.03464,-0.04593,-0.03693,-0.01068,-0.01572,-0.00198,-0.01877,0.04852,-0.03143,-0.00366,0.01694,-0.0473
10.6025,0.00809,-0.07401,0.00107,-0.30319,-0.03204,-0.04486,-0.03174,-0.01129,-0.01617,-0.00046,-0.01923,0.04486,-0.03128,-0.00366,0.01633,-0.04745
10.603,0.00931,-0.06851,0.00549,-0.21606,-0.03113,-0.0444,-0.0267,-0.009,-0.01831,-0.00702,-0.01709,0.03647,-0.03235,-0.00259,0.01648,-0.0473
10.6035,0.01022,-0.06042,0.00565,-0.16617,-0.03006,-0.04471,-0.02472,-0.00687,-0.01953,-0.01312,-0.01663,0.02686,-0.03494,-0.00214,0.01617,-0.04745
10.604,0.0087,-0.05157,0.00031,-0.15961,-0.02731,-0.04547,-0.02487,-0.00671,-0.01923,-0.01022,-0.0177,0.02243,-0.03586,-0.00183,0.01907,-0.04807
10.6045,0.00641,-0.0441,-0.00244,-0.15656,-0.02731,-0.04395,-0.02655,-0.00702,-0.01801,-0.0032,-0.01572,0.02335,-0.03571,-0.00244,0.02182,-0.0473
10.605,0.00626,-0.03952,-0.00488,-0.13657,-0.02579,-0.04349,-0.03265,-0.00702,-0.01923,-0.00061,-0.01831,0.02426,-0.03555,-0.00259,0.02274,-0.04623
10.6055,0.00793,-0.03403,-0.0061,-0.09811,-0.02579,-0.04349,-0.04059,-0.00824,-0.02106,0.00061,-0.01709,0.02258,-0.03555,-0.00275,0.02243,-0.04532
10.606,0.00748,-0.02396,-0.0061,-0.0325,-0.0267,-0.04349,-0.04532,-0.00992,-0.02136,0.01129,-0.01709,0.02106,-0.03464,-0.00244,0.02319,-0.04593
10.6065,0.00381,-0.0148,-0.0061,0.06882,-0.02914,-0.04196,-0.04608,-0.01251,-0.02121,0.04578,-0.0174,0.02014,-0.03387,-0.00244,0.0238,-0.04639
10.607,-0.00183,-0.01373,-0.00458,0.18707,-0.03128,-0.03998,-0.04959,-0.0148,-0.01984,0.09628,-0.01633,0.02029,-0.03387,-0.00168,0.02472,-0.047
10.6075,-0.00397,-0.01877,-0.00092,0.26932,-0.03098,-0.03906,-0.06027,-0.01495,-0.01968,0.12802,-0.01404,0.02151,-0.03372,-0.00153,0.02426,-0.04623
10.608,-0.00275,-0.01801,0.00519,0.26825,-0.03067,-0.04074,-0.07278,-0.01312,-0.01816,0.12222,-0.01419,0.02106,-0.03357,-0.00137,0.02319,-0.04486
10.6085,-0.00183,-0.00168,0.00839,0.17609,-0.03159,-0.04242,-0.0769,-0.00916,-0.01938,0.09796,-0.01389,0.01587,-0.03143,-0.00061,0.02243,-0.0444
10.609,-0.00443,0.02136,-0.00641,0.03754,-0.03464,-0.04349,-0.06866,-0.00381,-0.02136,0.0824,-0.01465,0.00992,-0.03006,-0.00061,0.02213,-0.04501
10.6095,-0.00763,0.03113,-0.06104,-0.07278,-0.03906,-0.04547,-0.05035,0.00137,-0.02167,0.07477,-0.01495,0.00488,-0.0293,-0.00153,0.02106,-0.04517
10.61,-0.01068,0.01877,-0.15488,-0.09094,-0.03922,-0.04517,-0.02975,0.00534,-0.01892,0.06577,-0.0119,0.0,-0.0293,-0.00137,0.01907,-0.04395
10.6105,-0.01205,-0.00793,-0.2475,-0.00961,-0.03998,-0.04211,-0.02258,0.00641,-0.01709,0.05295,-0.0116,-0.00778,-0.02945,-0.00076,0.01801,-0.04318
10.611,-0.01205,-0.03769,-0.27969,0.1178,-0.0351,-0.03708,-0.02884,0.00641,-0.01678,0.04364,-0.01312,-0.0116,-0.02975,-0.00031,0.01801,-0.04303
10.6115,-0.01389,-0.06485,-0.22614,0.22263,-0.03021,-0.03433,-0.03235,0.00595,-0.01709,0.04013,-0.00946,-0.00732,-0.02991,-0.00137,0.01999,-0.04303
10.612,-0.0177,-0.08789,-0.11917,0.27206,-0.02884,-0.03571,-0.01724,0.00412,-0.01755,0.03632,-0.009,-0.00717,-0.03128,-0.00244,0.02151,-0.04257
10.6125,-0.01907,-0.10361,-0.00259,0.26657,-0.02914,-0.04044,0.00641,0.00107,-0.01831,0.02869,-0.00824,-0.03021,-0.0322,-0.00305,0.01968,-0.04181
10.613,-0.01358,-0.10925,0.09567,0.21576,-0.02548,-0.04456,0.01923,-0.00336,-0.01816,0.01404,-0.00931,-0.08102,-0.03204,-0.0029,0.01892,-0.04196
10.6135,-0.00595,-0.10559,0.16327,0.12482,-0.02121,-0.04822,0.01541,-0.00519,-0.01724,-0.00641,-0.01083,-0.14664,-0.03036,-0.0029,0.01831,-0.04227
10.614,-0.00046,-0.09186,0.18921,-0.01266,-0.01312,-0.05112,0.00778,-0.00153,-0.01633,-0.02472,-0.01022,-0.20767,-0.0296,-0.00397,0.01755,-0.04227
10.6145,-0.00122,-0.06882,0.16647,-0.19669,-0.00519,-0.05249,0.00763,0.00397,-0.01648,-0.03372,-0.01038,-0.24338,-0.03052,-0.00504,0.01678,-0.04211
10.615,-0.00534,-0.04761,0.0943,-0.39551,0.00443,-0.05173,0.00687,0.00732,-0.01572,-0.03418,-0.01007,-0.23926,-0.0322,-0.00717,0.01785,-0.04242
10.6155,-0.00778,-0.04547,-0.01663,-0.52612,0.01297,-0.04761,-0.01129,0.00687,-0.01419,-0.02869,-0.01022,-0.20523,-0.03189,-0.00946,0.01663,-0.04288
10.616,-0.00839,-0.06409,-0.12848,-0.51056,0.01724,-0.04517,-0.05173,0.00504,-0.01266,-0.01877,-0.01114,-0.1712,-0.03204,-0.01175,0.01266,-0.04211
10.6165,-0.00824,-0.08743,-0.18906,-0.35675,0.00763,-0.04547,-0.09384,0.00458,-0.01175,-0.0032,-0.01175,-0.16266,-0.03326,-0.01221,0.01022,-0.0412
10.617,-0.0087,-0.09445,-0.17471,-0.14664,-0.01053,-0.04608,-0.09354,0.00366,-0.01129,0.00443,-0.01266,-0.16953,-0.03479,-0.01129,0.01053,-0.0415
10.6175,-0.0116,-0.07828,-0.10803,0.05585,-0.02823,-0.04669,-0.03433,-0.00061,-0.01221,0.00244,-0.01343,-0.16708,-0.03632,-0.01068,0.01221,-0.04318
10.618,-0.01617,-0.05051,-0.02975,0.22186,-0.04013,-0.0473,0.0325,-0.00732,-0.01373,-0.00351,-0.01373,-0.14755,-0.03586,-0.01205,0.01114,-0.04486
10.6185,-0.02075,-0.02869,0.03342,0.3154,-0.05142,-0.04929,0.04044,-0.01083,-0.01465,-0.01068,-0.01373,-0.12115,-0.03571,-0.01251,0.00732,-0.04501
10.619,-0.02274,-0.02579,0.06729,0.31769,-0.06256,-0.05173,-0.00031,-0.00793,-0.0145,-0.01877,-0.01602,-0.10437,-0.03571,-0.01205,0.00534,-0.04318
10.6195,-0.02243,-0.04044,0.06836,0.26794,-0.06317,-0.05432,-0.02563,-0.00397,-0.01343,-0.02609,-0.01831,-0.112,-0.03571,-0.01038,0.00504,-0.04074
10.62,-0.02121,-0.05997,0.04929,0.21698,-0.05005,-0.05554,-0.0116,-0.00229,-0.01389,-0.03235,-0.01984,-0.14816,-0.03616,-0.0116,0.00412,-0.03799
10.6205,-0.0209,-0.07385,0.03006,0.16891,-0.0383,-0.05432,0.01129,-0.00229,-0.01495,-0.03632,-0.01907,-0.18341,-0.03601,-0.01129,0.00275,-0.03738
10.621,-0.02335,-0.07538,0.02151,0.11383,-0.04684,-0.05188,0.01923,-0.00198,-0.01572,-0.04059,-0.01938,-0.1683,-0.03571,-0.01099,0.00229,-0.03677
10.6215,-0.02518,-0.06821,0.01755,0.07187,-0.06485,-0.0499,0.01526,-0.00137,-0.01602,-0.04852,-0.01999,-0.09186,-0.03479,-0.01114,0.00351,-0.03601
10.622,-0.02411,-0.05768,0.009,0.06592,-0.07248,-0.05005,0.00671,-0.00153,-0.01556,-0.05798,-0.0206,-0.00046,-0.03601,-0.01328,0.00305,-0.03571
10.6225,-0.02029,-0.04837,-0.0058,0.07797,-0.06332,-0.04974,-0.00305,-0.00336,-0.01495,-0.06714,-0.01938,0.04471,-0.03632,-0.01511,0.00122,-0.03601
10.623,-0.01602,-0.0412,-0.02167,0.07828,-0.04898,-0.05096,-0.01038,-0.00504,-0.01465,-0.07233,-0.01663,0.03326,-0.03525,-0.01556,0.00107,-0.03616
10.6235,-0.01343,-0.0354,-0.03403,0.06119,-0.03937,-0.05386,-0.01038,-0.00519,-0.01526,-0.07324,-0.0145,-0.00198,-0.03418,-0.01434,0.00305,-0.03784
10.624,-0.01221,-0.03036,-0.04333,0.03693,-0.04074,-0.05844,-0.00687,-0.00381,-0.01678,-0.07263,-0.01282,-0.04166,-0.03403,-0.01419,0.00336,-0.03891
10.6245,-0.00717,-0.02701,-0.05356,0.009,-0.04791,-0.06226,-0.00427,-0.00412,-0.01923,-0.07401,-0.01282,-0.09003,-0.03372,-0.01343,0.00107,-0.04059
10.625,-0.00076,-0.02594,-0.06485,-0.01678,-0.05875,-0.0621,-0.00473,-0.00427,-0.01938,-0.07614,-0.01511,-0.14526,-0.03326,-0.01434,-0.00137,-0.04166
10.6255,0.00595,-0.02518,-0.0737,-0.02945,-0.0647,-0.05997,-0.00534,-0.00412,-0.01755,-0.07492,-0.01801,-0.18768,-0.03342,-0.01556,-0.00366,-0.04272
10.626,0.01175,-0.02045,-0.0766,-0.0206,-0.06241,-0.05432,-0.00534,-0.00198,-0.01556,-0.07095,-0.02121,-0.19821,-0.03418,-0.0174,-0.00488,-0.04425
10.6265,0.0177,-0.01404,-0.0769,0.00381,-0.05585,-0.04761,-0.0061,0.0,-0.01358,-0.06805,-0.02029,-0.18295,-0.03464,-0.01831,-0.00549,-0.04608
10.627,0.02151,-0.00885,-0.07614,0.03372,-0.05096,-0.04318,-0.00748,0.00153,-0.01404,-0.06546,-0.01755,-0.15747,-0.03433,-0.01923,-0.00351,-0.04593
10.6275,0.02319,-0.00824,-0.06821,0.06195,-0.04715,-0.04074,-0.00916,-0.00015,-0.01617,-0.06516,-0.01633,-0.13123,-0.03433,-0.01877,0.00015,-0.04364
10.628,0.02396,-0.00931,-0.05127,0.08392,-0.04211,-0.03983,-0.01144,-0.00107,-0.01724,-0.06424,-0.01755,-0.11032,-0.03296,-0.01724,0.00259,-0.04044
10.6285,0.02396,-0.00793,-0.03159,0.09674,-0.03418,-0.0386,-0.01541,-0.00137,-0.01602,-0.06409,-0.01938,-0.10223,-0.03281,-0.01511,0.0032,-0.04013
10.629,0.02197,-0.00626,-0.01984,0.08652,-0.0296,-0.03937,-0.01923,0.00107,-0.01404,-0.06638,-0.02014,-0.11108,-0.0322,-0.01328,0.00305,-0.04044
10.6295,0.01755,-0.00916,-0.02029,0.04257,-0.02731,-0.04028,-0.01892,0.00305,-0.01404,-0.07095,-0.01724,-0.12619,-0.03159,-0.01236,0.00412,-0.03998
10.63,0.01053,-0.01709,-0.02823,-0.01694,-0.03052,-0.0412,-0.01556,0.00198,-0.01526,-0.07645,-0.01587,-0.13428,-0.03067,-0.01328,0.0061,-0.04074
10.6305,0.00137,-0.0322,-0.04044,-0.05692,-0.03189,-0.04181,-0.01129,-0.00122,-0.01755,-0.07767,-0.01297,-0.12573,-0.03006,-0.01526,0.00793,-0.04196
10.631,-0.00946,-0.05051,-0.06439,-0.06409,-0.02975,-0.04166,-0.01053,-0.00366,-0.01953,-0.07294,-0.01205,-0.10208,-0.02945,-0.01678,0.0061,-0.04272
10.6315,-0.02136,-0.06424,-0.10437,-0.05798,-0.02991,-0.0415,-0.01144,-0.00351,-0.02014,-0.06683,-0.01282,-0.07034,-0.02899,-0.01724,0.00366,-0.04257
10.632,-0.03235,-0.065,-0.14893,-0.05173,-0.02991,-0.04135,-0.01205,-0.0029,-0.01907,-0.06592,-0.01236,-0.04501,-0.02991,-0.01816,0.00351,-0.0412
10.6325,-0.04074,-0.0563,-0.17029,-0.02487,-0.02853,-0.04379,-0.01144,-0.00153,-0.01617,-0.06683,-0.01389,-0.03815,-0.03006,-0.0209,0.00427,-0.04135
10.633,-0.04501,-0.04776,-0.1561,0.0502,-0.02914,-0.04868,-0.01205,-0.00015,-0.01526,-0.06424,-0.01541,-0.04745,-0.03036,-0.02319,0.00351,-0.04166
10.6335,-0.04776,-0.04745,-0.11719,0.15671,-0.02869,-0.05386,-0.01236,0.00092,-0.01678,-0.05997,-0.01495,-0.06088,-0.03052,-0.02396,0.00153,-0.0415
10.634,-0.05066,-0.05219,-0.07584,0.23071,-0.02884,-0.05661,-0.01221,0.00092,-0.01877,-0.05646,-0.01373,-0.06424,-0.03052,-0.02411,-0.00061,-0.0415
10.6345,-0.05432,-0.05417,-0.0415,0.22202,-0.02838,-0.05707,-0.01236,-0.00061,-0.01923,-0.05325,-0.01328,-0.05539,-0.02975,-0.02472,-0.00107,-0.04211
10.635,-0.0531,-0.05219,-0.01175,0.15823,-0.02533,-0.05585,-0.01205,-0.00229,-0.0174,-0.04761,-0.01404,-0.03815,-0.02869,-0.02625,-0.00031,-0.04242
10.6355,-0.04623,-0.04974,0.01175,0.11765,-0.02243,-0.05356,-0.01236,-0.00244,-0.01678,-0.04059,-0.01556,-0.02304,-0.02838,-0.02686,-0.00015,-0.04227
10.636,-0.03723,-0.04944,0.02029,0.14999,-0.02075,-0.05081,-0.01343,-0.00244,-0.01724,-0.03372,-0.01694,-0.01373,-0.03006,-0.02701,-0.00031,-0.04242
10.6365,-0.02853,-0.05173,0.0119,0.21988,-0.01801,-0.04944,-0.01419,-0.00488,-0.01846,-0.02701,-0.01938,-0.00839,-0.03098,-0.02731,-0.00061,-0.04364
10.637,-0.02045,-0.05585,-0.0058,0.23788,-0.01541,-0.04913,-0.01617,-0.00977,-0.01892,-0.02029,-0.02258,-0.00687,-0.03174,-0.02899,0.0,-0.0441
10.6375,-0.01099,-0.05798,-0.01938,0.14343,-0.0119,-0.04791,-0.01907,-0.01358,-0.01801,-0.01785,-0.02426,-0.01038,-0.03159,-0.03143,0.00183,-0.04425
10.638,0.0,-0.05783,-0.02365,-0.03372,-0.00961,-0.04517,-0.02167,-0.01694,-0.01709,-0.01663,-0.02457,-0.0209,-0.03265,-0.03311,0.00244,-0.04471
10.6385,0.00977,-0.05356,-0.02228,-0.20767,-0.00778,-0.04349,-0.02304,-0.01938,-0.01602,-0.01587,-0.02335,-0.03403,-0.03311,-0.0322,0.00183,-0.04486
10.639,0.0174,-0.04593,-0.02075,-0.30655,-0.00549,-0.0441,-0.02258,-0.01984,-0.01572,-0.01358,-0.02335,-0.03815,-0.03387,-0.03098,0.00351,-0.04425
10.6395,0.01999,-0.03677,-0.02411,-0.3125,-0.00458,-0.04745,-0.0206,-0.01862,-0.01617,-0.01114,-0.02136,-0.02533,-0.03464,-0.03113,0.00595,-0.04288
10.64,0.01968,-0.03052,-0.02716,-0.26443,-0.0032,-0.05264,-0.01663,-0.01724,-0.01663,-0.009,-0.01877,0.00275,-0.03448,-0.03235,0.00748,-0.04181
10.6405,0.01724,-0.02579,-0.02899,-0.22034,-0.00275,-0.05676,-0.01236,-0.01678,-0.01785,-0.00961,-0.01785,0.03235,-0.03464,-0.0322,0.00732,-0.04135
10.641,0.01434,-0.02319,-0.03326,-0.20813,-0.00153,-0.05844,-0.00961,-0.01541,-0.0174,-0.00778,-0.02228,0.04974,-0.03387,-0.03021,0.00946,-0.04196
10.6415,0.01266,-0.02167,-0.03876,-0.21713,-0.00183,-0.05844,-0.01129,-0.01129,-0.01556,-0.00671,-0.02563,0.04883,-0.03174,-0.02777,0.01312,-0.04288
10.642,0.01328,-0.02121,-0.04379,-0.22461,0.00244,-0.05875,-0.02609,-0.00763,-0.01328,-0.00626,-0.02655,0.02884,-0.02975,-0.02716,0.01633,-0.04318
10.6425,0.01968,-0.02045,-0.0473,-0.21179,0.00687,-0.0589,-0.0679,-0.00748,-0.01129,-0.0061,-0.02319,-0.00412,-0.02975,-0.02823,0.01678,-0.04257
10.643,0.02625,-0.01923,-0.0563,-0.16052,0.01083,-0.06073,-0.13901,-0.0116,-0.01099,-0.00656,-0.01999,-0.03952,-0.02975,-0.02808,0.01556,-0.04089
10.6435,0.03006,-0.0148,-0.07507,-0.06638,0.00671,-0.06302,-0.23041,-0.01709,-0.01282,-0.00641,-0.01907,-0.05997,-0.03006,-0.02838,0.01526,-0.04196
10.644,0.02975,-0.00092,-0.09293,0.0412,-0.00275,-0.06561,-0.32089,-0.02029,-0.01358,-0.00305,-0.02029,-0.04684,-0.03021,-0.02853,0.01495,-0.04257
10.6445,0.03067,0.0264,-0.0943,0.1152,-0.01511,-0.06729,-0.38269,-0.01846,-0.01343,-0.00397,-0.02045,0.0061,-0.03235,-0.0293,0.01373,-0.04181
10.645,0.03372,0.06042,-0.07858,0.12665,-0.0238,-0.06836,-0.39413,-0.01068,-0.01221,-0.0061,-0.01968,0.08316,-0.03479,-0.03082,0.01175,-0.04089
10.6455,0.03662,0.07721,-0.05997,0.08209,-0.03433,-0.06805,-0.35934,-0.00504,-0.01083,-0.00748,-0.01999,0.14847,-0.0354,-0.0322,0.00977,-0.0415
10.646,0.03296,0.05859,-0.0589,0.01389,-0.05157,-0.06302,-0.3299,-0.00473,-0.01083,-0.00916,-0.02045,0.17776,-0.03326,-0.0325,0.00946,-0.0415
10.6465,0.02045,0.01175,-0.08728,-0.04135,-0.08743,-0.05493,-0.35583,-0.00763,-0.01007,-0.01022,-0.01846,0.17578,-0.03098,-0.03143,0.009,-0.04196
10.647,0.00412,-0.03281,-0.14481,-0.07248,-0.13535,-0.04532,-0.41748,-0.00412,-0.01007,-0.00916,-0.01587,0.15976,-0.02991,-0.03128,0.00763,-0.04227
10.6475,-0.00717,-0.05661,-0.2153,-0.09003,-0.16846,-0.03754,-0.4364,0.00687,-0.00992,-0.00641,-0.01541,0.1413,-0.0322,-0.03098,0.00854,-0.0441
10.648,-0.00656,-0.06561,-0.25452,-0.0975,-0.16388,-0.03433,-0.3717,0.01755,-0.00931,-0.00534,-0.01648,0.12344,-0.03464,-0.03021,0.01007,-0.04654
10.6485,0.00137,-0.07584,-0.22736,-0.08728,-0.12329,-0.03555,-0.27069,0.01968,-0.0087,-0.00305,-0.01663,0.1088,-0.03479,-0.02792,0.01007,-0.04868
10.649,0.00732,-0.08545,-0.14221,-0.0528,-0.07233,-0.04044,-0.19333,0.01358,-0.0087,-0.00183,-0.01511,0.10193,-0.03372,-0.02686,0.01007,-0.04974
10.6495,0.00519,-0.08408,-0.03983,0.01007,-0.03433,-0.04379,-0.08514,0.00748,-0.00992,0.00031,-0.01373,0.10757,-0.03281,-0.0264,0.00885,-0.04974
10.65,-0.00366,-0.07401,0.05539,0.09354,-0.01984,-0.04044,0.19119,0.00671,-0.01083,-0.00061,-0.01328,0.11765,-0.03128,-0.02563,0.00931,-0.04822
10.6505,-0.01556,-0.06729,0.14465,0.14725,-0.02289,-0.03311,0.62576,0.00946,-0.01038,-0.00046,-0.01343,0.12192,-0.02975,-0.02533,0.00946,-0.04715
10.651,-0.02853,-0.06973,0.21866,0.09354,-0.02777,-0.02838,0.95566,0.01099,-0.01022,-0.00031,-0.01434,0.11734,-0.02884,-0.02548,0.0087,-0.04608
10.6515,-0.04196,-0.07477,0.25681,-0.0972,-0.02762,-0.03189,0.91553,0.0087,-0.01099,0.00137,-0.01511,0.10284,-0.03006,-0.02533,0.00854,-0.04501
10.652,-0.05432,-0.07843,0.25208,-0.33905,-0.02396,-0.04059,0.58212,0.00519,-0.01251,0.00351,-0.01465,0.08743,-0.03235,-0.02594,0.00809,-0.04288
10.6525,-0.06546,-0.08102,0.22202,-0.49942,-0.02228,-0.04898,0.30716,0.00504,-0.01343,0.00198,-0.01221,0.08087,-0.03357,-0.02563,0.00839,-0.0415
10.653,-0.07507,-0.08347,0.18555,-0.52032,-0.02365,-0.05417,0.30716,0.00839,-0.01312,0.00198,-0.01114,0.08392,-0.03281,-0.02396,0.01007,-0.04074
10.6535,-0.07736,-0.08392,0.14191,-0.44983,-0.02335,-0.05615,0.4567,0.01114,-0.01251,0.00351,-0.0119,0.08652,-0.03174,-0.02258,0.01007,-0.0415
10.654,-0.06836,-0.08255,0.07996,-0.34973,-0.02014,-0.05646,0.52917,0.01038,-0.01144,0.00687,-0.0145,0.08148,-0.03143,-0.02228,0.00809,-0.04242
10.6545,-0.05035,-0.08423,-0.0061,-0.2475,-0.01602,-0.05356,0.46997,0.009,-0.00977,0.00717,-0.01556,0.07477,-0.03235,-0.02014,0.00366,-0.04379
10.655,-0.02701,-0.08881,-0.09293,-0.16785,-0.01297,-0.04974,0.37689,0.00473,-0.009,0.00381,-0.01602,0.07507,-0.03281,-0.01892,-0.00031,-0.04532
10.6555,-0.00565,-0.09048,-0.14832,-0.1297,-0.0119,-0.04639,0.30899,-0.00168,-0.00961,-0.00061,-0.01556,0.08301,-0.03464,-0.01831,-0.00198,-0.04654
10.656,0.0116,-0.08362,-0.15656,-0.0824,-0.01373,-0.04318,0.24139,-0.00931,-0.01144,-0.00214,-0.01556,0.09186,-0.03525,-0.0209,-0.00153,-0.047
10.6565,0.02243,-0.0705,-0.12756,0.0563,-0.01526,-0.04028,0.16205,-0.01328,-0.01205,-0.00168,-0.0148,0.09567,-0.03662,-0.02365,-0.00122,-0.04669
10.657,0.02548,-0.05997,-0.07828,0.26001,-0.01633,-0.03845,0.1033,-0.01022,-0.01114,-0.00031,-0.01312,0.09293,-0.03601,-0.02457,-0.00061,-0.04593
10.6575,0.02106,-0.05539,-0.03036,0.39627,-0.0174,-0.0383,0.07797,-0.00366,-0.00961,0.00015,-0.01221,0.08636,-0.03479,-0.02411,-0.00122,-0.04471
10.658,0.01297,-0.05478,0.00244,0.41473,-0.01724,-0.04028,0.05676,-0.00107,-0.00916,0.00137,-0.01053,0.08209,-0.03357,-0.02274,-0.00061,-0.04471
10.6585,0.00641,-0.05127,0.01434,0.41718,-0.01678,-0.04379,0.01923,-0.00626,-0.01068,-0.00183,-0.0116,0.07797,-0.03311,-0.02243,0.00107,-0.04532
10.659,0.00397,-0.04486,0.0061,0.50217,-0.01785,-0.04562,-0.02289,-0.01251,-0.01389,-0.00412,-0.01373,0.06744,-0.03464,-0.02228,0.00427,-0.04395
10.6595,0.00458,-0.04044,-0.01968,0.61432,-0.01938,-0.04379,-0.04807,-0.01556,-0.01724,-0.00549,-0.01587,0.05325,-0.03555,-0.02151,0.00641,-0.04105
10.66,0.00626,-0.04135,-0.05905,0.62363,-0.01968,-0.04181,-0.06027,-0.01297,-0.01877,-0.00366,-0.01572,0.04562,-0.03632,-0.01984,0.00824,-0.03922
10.6605,0.00992,-0.04761,-0.0943,0.48279,-0.02151,-0.04318,-0.07111,-0.01175,-0.01831,-0.0032,-0.01419,0.0528,-0.03647,-0.01801,0.0087,-0.03967
