time,RectFemL,VastusMedL,VastusLatL,TibAntL,HamMedL,HamLatL,GastroMedL,GastroLatL,RectFemR,VastusMedR,VastusLatR,TibAntR,HamMedR,HamLatR,GastroMedR,GastroLatR
9.35,-0.00153,0.08362,-0.05371,0.00122,-0.07645,-0.09201,-0.01678,-0.00549,-0.01114,-0.1004,-0.04715,-0.07095,-0.03143,-0.01984,0.00366,-0.04074
9.3505,-0.00351,0.05463,-0.05203,-0.04349,-0.10071,-0.07706,-0.01724,-0.00671,-0.00885,-0.1088,-0.04288,-0.06836,-0.03052,-0.0206,0.02151,-0.01419
9.351,-0.00488,0.02045,-0.05737,-0.11642,-0.13046,-0.06699,-0.01541,-0.00656,-0.00778,-0.10712,-0.03601,-0.06348,-0.02838,-0.02258,0.02197,0.00717
9.3515,-0.00534,-0.00717,-0.06256,-0.16525,-0.15854,-0.06134,-0.01572,-0.00534,-0.00702,-0.10147,-0.0264,-0.06027,-0.02655,-0.02411,0.01236,0.01175
9.352,-0.00412,-0.02228,-0.06073,-0.15915,-0.17273,-0.05432,-0.01511,-0.00549,-0.00671,-0.09674,-0.01785,-0.06073,-0.02625,-0.02457,0.009,0.00153
9.3525,-0.00443,-0.02762,-0.04807,-0.12817,-0.16525,-0.04578,-0.01419,-0.0058,-0.00717,-0.09232,-0.01648,-0.06012,-0.02762,-0.02518,0.02426,-0.01801
9.353,-0.00671,-0.03128,-0.02991,-0.11658,-0.1326,-0.03754,-0.01251,-0.00549,-0.0087,-0.08759,-0.01862,-0.05341,-0.02853,-0.02609,0.04242,-0.04303
9.3535,-0.00763,-0.03723,-0.01587,-0.13,-0.08652,-0.03128,-0.0119,-0.00565,-0.01068,-0.08423,-0.01831,-0.0415,-0.0293,-0.0267,0.04456,-0.06546
9.354,-0.00687,-0.04456,-0.00977,-0.14297,-0.04089,-0.02716,-0.01221,-0.00443,-0.0119,-0.08148,-0.01572,-0.02731,-0.02975,-0.02655,0.02869,-0.07492
9.3545,-0.00778,-0.05051,-0.01038,-0.13947,-0.01022,-0.02426,-0.01236,-0.00534,-0.0119,-0.07904,-0.01541,-0.01358,-0.02945,-0.02655,0.0119,-0.06989
9.355,-0.01007,-0.0531,-0.00687,-0.12131,0.00351,-0.0209,-0.01236,-0.00641,-0.01083,-0.07355,-0.01541,0.00015,-0.02808,-0.02579,-0.00031,-0.06042
9.3555,-0.0119,-0.05066,0.00519,-0.09628,0.00641,-0.01953,-0.01266,-0.00809,-0.00946,-0.06683,-0.01373,0.01785,-0.02579,-0.0238,-0.00946,-0.05951
9.356,-0.01053,-0.04028,0.02319,-0.07477,0.00229,-0.01999,-0.01282,-0.00809,-0.00977,-0.06027,-0.00931,0.04257,-0.02457,-0.02274,-0.01068,-0.07156
9.3565,-0.00656,-0.02045,0.03006,-0.06302,-0.0087,-0.02533,-0.01266,-0.00656,-0.00854,-0.05676,-0.00671,0.07019,-0.02502,-0.02167,0.00275,-0.08499
9.357,-0.00122,0.00122,0.02655,-0.06012,-0.02625,-0.03403,-0.01266,-0.0058,-0.00656,-0.05447,-0.00488,0.10178,-0.0264,-0.01953,0.0174,-0.0856
9.3575,0.00443,0.00809,0.02121,-0.06042,-0.04135,-0.04211,-0.0116,-0.0058,-0.00366,-0.05203,-0.00366,0.15213,-0.02823,-0.01801,0.01541,-0.07477
9.358,0.0116,-0.01022,0.0177,-0.06027,-0.04242,-0.04913,-0.01205,-0.00549,-0.00336,-0.04868,-0.0029,0.23239,-0.02838,-0.01694,0.00198,-0.06241
9.3585,0.01694,-0.04974,0.01083,-0.05981,-0.03174,-0.05173,-0.01312,-0.00519,-0.00427,-0.04608,-0.00305,0.3363,-0.02853,-0.01785,-0.00961,-0.05402
9.359,0.01953,-0.09567,-0.00244,-0.06042,-0.0235,-0.05142,-0.01373,-0.00412,-0.00656,-0.04349,-0.00381,0.44052,-0.02991,-0.01862,-0.01373,-0.0444
9.3595,0.02045,-0.13428,-0.01373,-0.06027,-0.02945,-0.0473,-0.01465,-0.00244,-0.00763,-0.04288,-0.00397,0.53909,-0.03036,-0.01877,-0.00809,-0.03098
9.36,0.02121,-0.15869,-0.01938,-0.05981,-0.047,-0.04013,-0.01389,0.00046,-0.00748,-0.04105,-0.00336,0.64224,-0.03021,-0.01801,0.00122,-0.02289
9.3605,0.02182,-0.16739,-0.02258,-0.06104,-0.06744,-0.03448,-0.01373,0.00107,-0.00732,-0.0386,-0.00122,0.73349,-0.02914,-0.01511,0.00336,-0.02792
9.361,0.02106,-0.15747,-0.03143,-0.06409,-0.07889,-0.03052,-0.01251,-0.00015,-0.00977,-0.03647,0.00076,0.77103,-0.02914,-0.01541,-0.01022,-0.0383
9.3615,0.01862,-0.13702,-0.04044,-0.06683,-0.0766,-0.02655,-0.01266,-0.00122,-0.01434,-0.03571,0.00198,0.74326,-0.03052,-0.01694,-0.0412,-0.04501
9.362,0.01526,-0.12131,-0.03799,-0.06912,-0.06516,-0.02487,-0.01328,-0.00137,-0.01984,-0.0383,0.00198,0.6958,-0.02975,-0.0177,-0.07538,-0.04639
9.3625,0.0116,-0.12466,-0.02045,-0.07065,-0.05508,-0.02914,-0.0148,-0.00168,-0.02563,-0.03876,0.00061,0.66895,-0.02731,-0.01678,-0.08682,-0.04929
9.363,0.00931,-0.13672,0.00275,-0.07126,-0.04883,-0.04562,-0.01434,-0.00214,-0.02838,-0.03296,0.0,0.64468,-0.02563,-0.0174,-0.05569,-0.05463
9.3635,0.00595,-0.1384,0.01953,-0.07141,-0.04578,-0.0676,-0.01404,-0.00214,-0.03006,-0.02228,-0.00092,0.58334,-0.02579,-0.0174,-0.00519,-0.06042
9.364,0.00107,-0.12054,0.02777,-0.07217,-0.04211,-0.08041,-0.01419,-0.00153,-0.03006,-0.0148,-0.00198,0.4837,-0.0264,-0.01801,0.01587,-0.06332
9.3645,-0.00504,-0.0975,0.02884,-0.0737,-0.04105,-0.07996,-0.01419,-0.00092,-0.03006,-0.01297,-0.00183,0.37613,-0.02563,-0.01633,-0.00168,-0.05951
9.365,-0.00992,-0.09155,0.02823,-0.07736,-0.04761,-0.07339,-0.01312,-0.00153,-0.02869,-0.01648,-0.00061,0.26871,-0.02472,-0.01373,-0.01572,-0.04517
9.3655,-0.01343,-0.11047,0.02487,-0.0798,-0.05585,-0.0647,-0.01205,-0.00168,-0.02563,-0.01968,-0.00031,0.13947,-0.02396,-0.01053,0.01892,-0.02274
9.366,-0.01526,-0.13916,0.01389,-0.07874,-0.05753,-0.0528,-0.01266,-0.00122,-0.02258,-0.02045,-0.00137,-0.03006,-0.02335,-0.00885,0.10025,-0.0029
9.3665,-0.01663,-0.15854,-0.00946,-0.0769,-0.04761,-0.04074,-0.01297,-0.00122,-0.02197,-0.0206,-0.0032,-0.23483,-0.02106,-0.00916,0.17715,0.00366
9.367,-0.01816,-0.16586,-0.04196,-0.07462,-0.03235,-0.03723,-0.01053,-0.00214,-0.02319,-0.02167,-0.00443,-0.45258,-0.01709,-0.01068,0.20233,-0.00534
9.3675,-0.01907,-0.16571,-0.07523,-0.07339,-0.02289,-0.04761,-0.00702,-0.0032,-0.02533,-0.02304,-0.0061,-0.65826,-0.0119,-0.0119,0.16586,-0.02258
9.368,-0.02045,-0.16479,-0.10223,-0.07507,-0.01755,-0.05844,-0.00488,-0.00351,-0.02518,-0.02075,-0.00732,-0.82184,-0.00702,-0.01389,0.10269,-0.0412
9.3685,-0.02167,-0.16739,-0.11536,-0.07828,-0.0145,-0.06012,-0.00519,-0.00366,-0.02213,-0.01678,-0.00931,-0.92499,-0.00427,-0.01556,0.04074,-0.05859
9.369,-0.02121,-0.18616,-0.11688,-0.07965,-0.01297,-0.05402,-0.00595,-0.00336,-0.01968,-0.01221,-0.01221,-0.98022,-0.00381,-0.01694,-0.01114,-0.07355
9.3695,-0.01663,-0.22583,-0.10895,-0.07904,-0.0148,-0.04639,-0.0061,-0.00229,-0.02075,-0.00961,-0.01511,-1.017,-0.00275,-0.01709,-0.03525,-0.0827
9.37,-0.00992,-0.27039,-0.09644,-0.07858,-0.01663,-0.04166,-0.00519,-0.00153,-0.02243,-0.00885,-0.01556,-1.0524,-0.00336,-0.01801,-0.00931,-0.08255
9.3705,-0.00351,-0.29114,-0.08377,-0.07782,-0.01541,-0.03815,-0.00488,-0.0029,-0.02533,-0.00931,-0.01221,-1.08551,-0.00809,-0.0206,0.04288,-0.07202
9.371,0.00229,-0.28519,-0.07202,-0.07294,-0.01236,-0.03632,-0.00534,-0.00458,-0.0267,-0.01099,-0.00748,-1.10931,-0.01877,-0.02411,0.06638,-0.0563
9.3715,0.00793,-0.27695,-0.06561,-0.06348,-0.01053,-0.03525,-0.00641,-0.00519,-0.02808,-0.01266,-0.00229,-1.11984,-0.03235,-0.02716,0.04959,-0.04486
9.372,0.01236,-0.27939,-0.06119,-0.05508,-0.00992,-0.03647,-0.00931,-0.00458,-0.02853,-0.01419,0.00198,-1.11557,-0.04501,-0.03036,0.02136,-0.04471
9.3725,0.01633,-0.27832,-0.0563,-0.05157,-0.00702,-0.03357,-0.01205,-0.00397,-0.02777,-0.01541,0.00595,-1.10077,-0.05463,-0.03128,0.01709,-0.04791
9.373,0.0209,-0.26627,-0.04944,-0.04837,-0.00244,-0.03143,-0.01526,-0.00351,-0.02365,-0.01495,0.01068,-1.08566,-0.05997,-0.03052,0.02533,-0.04211
9.3735,0.02411,-0.25864,-0.04456,-0.03784,0.00473,-0.02975,-0.01511,-0.00229,-0.01877,-0.0119,0.01358,-1.07773,-0.06302,-0.02609,0.02487,-0.02808
9.374,0.0235,-0.26917,-0.04166,-0.02243,0.00687,-0.03082,-0.01266,-0.00168,-0.01434,-0.00687,0.0145,-1.06949,-0.06592,-0.01755,0.01312,-0.02121
9.3745,0.02029,-0.28717,-0.03922,-0.01678,0.00381,-0.03311,-0.01053,-0.00107,-0.01236,-0.00198,0.01312,-1.04126,-0.06836,-0.00992,0.00336,-0.02792
9.375,0.01556,-0.2858,-0.0354,-0.03296,-0.00229,-0.03693,-0.01053,-0.00031,-0.01083,-0.00061,0.01144,-0.98007,-0.06622,-0.00565,-0.00366,-0.04379
9.3755,0.01297,-0.24933,-0.03265,-0.0592,-0.00824,-0.04074,-0.01129,0.00031,-0.01068,-0.00305,0.00961,-0.89508,-0.05798,-0.00366,-0.01465,-0.05859
9.376,0.01205,-0.19684,-0.03006,-0.07721,-0.01312,-0.04257,-0.01007,0.00031,-0.0119,-0.00656,0.00687,-0.79956,-0.04578,-0.00351,-0.02533,-0.07095
9.3765,0.01068,-0.16357,-0.02686,-0.09552,-0.01617,-0.04562,-0.0087,0.0,-0.01617,-0.01099,0.00275,-0.70374,-0.0351,-0.00397,-0.0264,-0.08011
9.377,0.00854,-0.16083,-0.02182,-0.12924,-0.01633,-0.04898,-0.00778,-0.00061,-0.02167,-0.01633,-0.00488,-0.60989,-0.02777,-0.00565,-0.01587,-0.07919
9.3775,0.00565,-0.17548,-0.01663,-0.16312,-0.00916,-0.05142,-0.00854,-0.00168,-0.02594,-0.0209,-0.01572,-0.51773,-0.02213,-0.00977,-0.00046,-0.0621
9.378,0.00244,-0.19104,-0.01343,-0.17776,0.00107,-0.05539,-0.01053,-0.00137,-0.02792,-0.02335,-0.02716,-0.42679,-0.01831,-0.01434,0.01022,-0.03693
9.3785,-0.00076,-0.20813,-0.01343,-0.17136,0.01328,-0.05981,-0.01144,-0.00244,-0.02808,-0.02319,-0.03815,-0.3389,-0.01633,-0.01938,0.01556,-0.02029
9.379,-0.00351,-0.22995,-0.01678,-0.14343,0.02106,-0.06348,-0.01175,-0.00412,-0.02731,-0.02289,-0.04807,-0.25238,-0.01999,-0.02426,0.01572,-0.01801
9.3795,-0.00351,-0.23544,-0.02457,-0.08179,0.03555,-0.06409,-0.0119,-0.00549,-0.02563,-0.02396,-0.05646,-0.16647,-0.02655,-0.02853,0.01816,-0.0238
9.38,-0.00275,-0.18768,-0.03326,0.01572,0.05814,-0.06256,-0.01144,-0.00671,-0.02274,-0.02747,-0.06226,-0.08148,-0.0325,-0.03372,0.02274,-0.0293
9.3805,-0.00107,-0.10178,-0.0386,0.11078,0.08362,-0.05875,-0.01221,-0.00748,-0.01846,-0.02975,-0.06104,0.00427,-0.0354,-0.03693,0.02869,-0.03006
9.381,-0.00122,-0.03876,-0.04059,0.15152,0.09979,-0.05646,-0.01419,-0.00748,-0.01343,-0.03067,-0.05142,0.10635,-0.03754,-0.0383,0.0322,-0.02487
9.3815,-0.00259,-0.03357,-0.03479,0.12527,0.09995,-0.05585,-0.01541,-0.00641,-0.00824,-0.02899,-0.03525,0.23636,-0.04211,-0.03967,0.03113,-0.01892
9.382,-0.00443,-0.0563,-0.01648,0.07965,0.08011,-0.05569,-0.0148,-0.00549,-0.00473,-0.02975,-0.02243,0.37231,-0.05005,-0.0412,0.02563,-0.02182
9.3825,-0.00458,-0.0679,0.01434,0.06577,0.03708,-0.05295,-0.01221,-0.00549,-0.00076,-0.03174,-0.01862,0.46951,-0.06226,-0.04318,0.0174,-0.03433
9.383,-0.00366,-0.07034,0.03738,0.0882,-0.00977,-0.0441,-0.01099,-0.0061,0.00381,-0.03464,-0.02304,0.50873,-0.07492,-0.04318,0.00931,-0.05005
9.3835,-0.00214,-0.08224,0.02304,0.12253,-0.04684,-0.03311,-0.0116,-0.0061,0.00992,-0.03448,-0.02884,0.51727,-0.08011,-0.03799,0.00275,-0.06317
9.384,-0.00046,-0.10361,-0.02304,0.15564,-0.07416,-0.02151,-0.01221,-0.00595,0.01373,-0.0322,-0.0322,0.52719,-0.07034,-0.02838,-0.00183,-0.06668
9.3845,0.00076,-0.11322,-0.06653,0.18539,-0.10727,-0.01099,-0.0116,-0.00595,0.01373,-0.02716,-0.03387,0.5397,-0.04715,-0.01465,-0.00137,-0.05859
9.385,0.00107,-0.09964,-0.08499,0.19104,-0.14267,-0.00244,-0.01144,-0.00534,0.01114,-0.02319,-0.03479,0.54611,-0.02075,-0.00351,-0.00275,-0.04242
9.3855,0.00061,-0.07538,-0.08621,0.14145,-0.16556,-0.00061,-0.01389,-0.00458,0.0087,-0.0238,-0.03433,0.54398,-0.00534,0.00076,-0.00656,-0.02655
9.386,-0.00076,-0.05814,-0.08514,0.03632,-0.16617,-0.00824,-0.01587,-0.00473,0.00351,-0.0296,-0.03464,0.5397,-0.00443,-0.00168,-0.00809,-0.01892
9.3865,-0.00259,-0.04395,-0.07675,-0.07401,-0.15015,-0.02411,-0.01709,-0.00351,-0.00641,-0.03464,-0.03494,0.53665,-0.01236,-0.00717,-0.00168,-0.01968
9.387,-0.00549,-0.01938,-0.05936,-0.13748,-0.12955,-0.03937,-0.01755,-0.00198,-0.01984,-0.03189,-0.0354,0.52917,-0.02151,-0.01297,0.00977,-0.0264
9.3875,-0.00687,0.01495,-0.04013,-0.14526,-0.11139,-0.04898,-0.01892,-0.00168,-0.03479,-0.02274,-0.03372,0.51605,-0.03036,-0.01709,0.01587,-0.03494
9.388,-0.00595,0.04196,-0.02563,-0.11627,-0.09949,-0.05325,-0.01877,-0.00168,-0.04654,-0.01266,-0.02823,0.50079,-0.0386,-0.01831,0.00778,-0.04333
9.3885,-0.00381,0.05417,-0.01785,-0.0737,-0.09293,-0.05432,-0.0177,-0.00198,-0.05325,-0.00854,-0.01923,0.48569,-0.04639,-0.01862,-0.00839,-0.04807
9.389,-0.00183,0.06256,-0.01373,-0.0386,-0.09094,-0.05112,-0.01633,-0.00153,-0.05432,-0.00748,-0.00732,0.4715,-0.05371,-0.01984,-0.0235,-0.04532
9.3895,-0.00168,0.07797,-0.00549,-0.0209,-0.09048,-0.04745,-0.01465,-0.00137,-0.04913,-0.00793,0.0032,0.45776,-0.05737,-0.02045,-0.0293,-0.03952
9.39,-0.00153,0.10483,0.01053,-0.00702,-0.08331,-0.04379,-0.01266,-0.00153,-0.04272,-0.00641,0.00504,0.44266,-0.05325,-0.0174,-0.02655,-0.03662
9.3905,-0.00168,0.14206,0.03189,0.01678,-0.06821,-0.04379,-0.01205,-0.00198,-0.03571,-0.00397,-0.00183,0.42587,-0.04272,-0.00961,-0.02197,-0.03922
9.391,-0.00259,0.18661,0.04929,0.04333,-0.05188,-0.0499,-0.0119,-0.00198,-0.02762,-0.00137,-0.00824,0.40756,-0.03021,-0.00214,-0.01862,-0.04181
9.3915,-0.00366,0.22736,0.05219,0.0528,-0.04257,-0.05936,-0.01114,-0.00275,-0.01984,0.00168,-0.01099,0.38895,-0.02411,0.00275,-0.0116,-0.04135
9.392,-0.00504,0.24048,0.0441,0.03815,-0.04135,-0.07095,-0.00916,-0.00366,-0.01587,0.00168,-0.00992,0.37323,-0.02472,0.00107,-0.00275,-0.03632
9.3925,-0.00626,0.21057,0.0296,0.00778,-0.04333,-0.08072,-0.0061,-0.00458,-0.0174,-0.00275,-0.00809,0.35751,-0.02747,-0.00336,0.00488,-0.02914
9.393,-0.00824,0.16037,0.01434,-0.02304,-0.03616,-0.08728,-0.00458,-0.00534,-0.01923,-0.01221,-0.00763,0.33737,-0.02701,-0.00702,-0.00259,-0.02625
9.3935,-0.01083,0.13184,0.00137,-0.04593,-0.02548,-0.09354,-0.00565,-0.00443,-0.01953,-0.0174,-0.00748,0.31357,-0.02258,-0.00885,-0.01785,-0.02869
9.394,-0.01343,0.13031,-0.00778,-0.07126,-0.02075,-0.09506,-0.00854,-0.00397,-0.01816,-0.0145,-0.00854,0.28961,-0.01892,-0.0087,-0.03098,-0.03387
9.3945,-0.01511,0.12726,-0.01541,-0.10162,-0.02502,-0.0882,-0.01205,-0.00336,-0.01816,-0.00519,-0.01099,0.26962,-0.01755,-0.01038,-0.03784,-0.03845
9.395,-0.01602,0.11139,-0.02487,-0.11978,-0.03174,-0.07324,-0.01297,-0.0032,-0.01907,0.00381,-0.01541,0.25528,-0.02029,-0.01389,-0.03922,-0.04135
9.3955,-0.01801,0.10086,-0.03876,-0.11902,-0.0325,-0.05798,-0.01266,-0.00488,-0.02045,0.01221,-0.01877,0.24368,-0.02609,-0.01816,-0.03647,-0.04303
9.396,-0.01953,0.11093,-0.05249,-0.11658,-0.03052,-0.05127,-0.01144,-0.00656,-0.01968,0.0209,-0.02029,0.22858,-0.03082,-0.02045,-0.02991,-0.04074
9.3965,-0.01953,0.1297,-0.06226,-0.12985,-0.02899,-0.04486,-0.01038,-0.00687,-0.01801,0.02823,-0.02121,0.2121,-0.03403,-0.02213,-0.02563,-0.03601
9.397,-0.01816,0.14236,-0.06744,-0.1506,-0.03281,-0.03891,-0.00961,-0.00671,-0.01724,0.03372,-0.02075,0.19852,-0.03723,-0.02609,-0.02258,-0.03067
9.3975,-0.01724,0.14969,-0.06912,-0.15854,-0.03006,-0.03281,-0.01068,-0.00702,-0.01587,0.03418,-0.02045,0.1915,-0.04074,-0.03021,-0.00488,-0.02899
9.398,-0.01923,0.15976,-0.06882,-0.1532,-0.01556,-0.0267,-0.01083,-0.00748,-0.01434,0.03387,-0.01877,0.18753,-0.04517,-0.03235,0.02991,-0.03448
9.3985,-0.02075,0.16907,-0.06699,-0.1506,0.00031,-0.02472,-0.01099,-0.00732,-0.01343,0.03571,-0.01266,0.18295,-0.04944,-0.0322,0.06134,-0.04684
9.399,-0.02213,0.16693,-0.06287,-0.15686,0.00168,-0.03174,-0.00946,-0.00671,-0.01404,0.03815,0.00488,0.17624,-0.05463,-0.03235,0.06973,-0.05798
9.3995,-0.02228,0.1506,-0.05371,-0.15259,-0.01968,-0.04608,-0.00656,-0.00504,-0.01511,0.04135,0.04013,0.17059,-0.05829,-0.03357,0.0676,-0.05936
9.4,-0.01984,0.13031,-0.03784,-0.12009,-0.05356,-0.06226,-0.00504,-0.0032,-0.01648,0.04562,0.07828,0.16663,-0.05783,-0.03204,0.06668,-0.05188
9.4005,-0.01755,0.11627,-0.02274,-0.07629,-0.07629,-0.0766,-0.00504,-0.00244,-0.02029,0.0499,0.08682,0.1619,-0.05112,-0.0267,0.06165,-0.04303
9.401,-0.01587,0.11078,-0.0148,-0.05173,-0.07248,-0.08331,-0.00687,-0.00259,-0.02487,0.05157,0.05356,0.15656,-0.04333,-0.0206,0.04593,-0.03586
9.4015,-0.01419,0.10941,-0.01862,-0.04791,-0.0473,-0.0795,-0.00824,-0.00229,-0.02625,0.05203,0.00229,0.14694,-0.03754,-0.01541,0.02136,-0.03403
9.402,-0.01236,0.11063,-0.0267,-0.03647,-0.02045,-0.06866,-0.00977,-0.00122,-0.02411,0.05219,-0.03098,0.13397,-0.03342,-0.01251,-0.01068,-0.04089
9.4025,-0.01114,0.11505,-0.03265,-0.00534,-0.0061,-0.05753,-0.01038,-0.00122,-0.01877,0.0499,-0.03769,0.12115,-0.02991,-0.01251,-0.04242,-0.05081
9.403,-0.01129,0.12253,-0.03433,0.02289,-0.0029,-0.04959,-0.00885,-0.00168,-0.01343,0.04791,-0.0322,0.11261,-0.02777,-0.01495,-0.04578,-0.05386
9.4035,-0.01343,0.12863,-0.03799,0.03052,0.00473,-0.04395,-0.00885,-0.00244,-0.00992,0.0473,-0.02975,0.10864,-0.02869,-0.01755,-0.02502,-0.0473
9.404,-0.01602,0.12787,-0.04684,0.02914,0.01831,-0.0415,-0.01205,-0.00473,-0.00854,0.04852,-0.03708,0.10422,-0.03174,-0.02121,-0.01938,-0.04227
9.4045,-0.01831,0.11978,-0.06042,0.04044,0.02777,-0.03922,-0.01587,-0.00641,-0.00778,0.04791,-0.04913,0.1001,-0.03403,-0.02243,-0.03815,-0.04684
9.405,-0.01938,0.10712,-0.07858,0.065,0.02609,-0.03922,-0.01724,-0.00763,-0.00717,0.04242,-0.06012,0.0972,-0.03326,-0.02182,-0.04593,-0.04578
9.4055,-0.01953,0.09277,-0.09338,0.08789,0.02029,-0.03815,-0.01678,-0.00671,-0.00702,0.03738,-0.06592,0.09369,-0.03082,-0.01984,-0.02701,-0.02457
9.406,-0.01938,0.07385,-0.10147,0.10071,0.01572,-0.03647,-0.01694,-0.00534,-0.00809,0.03296,-0.06577,0.08652,-0.02762,-0.01923,-0.00946,-0.00183
9.4065,-0.01663,0.04532,-0.09811,0.10864,0.0174,-0.03418,-0.01587,-0.00534,-0.01038,0.0293,-0.0618,0.07645,-0.02472,-0.01938,-0.0087,-0.00977
9.407,-0.01389,0.01343,-0.08621,0.11063,0.02853,-0.0296,-0.0145,-0.00458,-0.01404,0.0235,-0.05615,0.06943,-0.02274,-0.02045,0.00809,-0.04028
9.4075,-0.01358,-0.00732,-0.07248,0.09415,0.04608,-0.02426,-0.01312,-0.00412,-0.01877,0.01816,-0.0499,0.06714,-0.02319,-0.02228,0.06912,-0.0563
9.408,-0.01389,-0.01129,-0.06271,0.05951,0.06653,-0.02151,-0.01251,-0.00336,-0.02457,0.0148,-0.04211,0.06775,-0.02426,-0.02563,0.14038,-0.03403
9.4085,-0.01419,-0.00671,-0.0589,0.02426,0.08133,-0.02319,-0.0116,-0.00244,-0.02899,0.0148,-0.02945,0.06668,-0.02625,-0.02975,0.15671,0.0032
9.409,-0.01297,-0.00336,-0.05676,0.00671,0.08789,-0.02792,-0.01007,-0.00183,-0.02991,0.01572,-0.0145,0.06042,-0.02899,-0.0322,0.10101,0.01526
9.4095,-0.01343,-0.00473,-0.05371,0.00381,0.08743,-0.03433,-0.00854,-0.00031,-0.02792,0.01678,-0.00305,0.05096,-0.03296,-0.0322,0.02228,-0.0058
9.41,-0.01541,-0.01099,-0.04684,-0.00031,0.08926,-0.03799,-0.00824,0.00183,-0.02426,0.01694,0.00076,0.04181,-0.03311,-0.03113,-0.0267,-0.04166
9.4105,-0.01801,-0.01862,-0.03845,-0.01572,0.08896,-0.04227,-0.00916,0.00198,-0.02045,0.01816,-0.00046,0.03265,-0.03189,-0.0296,-0.03784,-0.07339
9.411,-0.01724,-0.0177,-0.0296,-0.04333,0.06989,-0.04974,-0.01007,0.00076,-0.0174,0.02182,-0.00427,0.02426,-0.03372,-0.02808,-0.02716,-0.10071
9.4115,-0.01434,-0.01038,-0.02228,-0.08041,0.02899,-0.06104,-0.0087,-0.00031,-0.01495,0.03067,-0.00641,0.01724,-0.04059,-0.0264,-0.00458,-0.12589
9.412,-0.01144,-0.01617,-0.01495,-0.13077,-0.02579,-0.07034,-0.00793,-0.00046,-0.01358,0.04013,-0.00519,0.01221,-0.04761,-0.02274,0.01923,-0.14587
9.4125,-0.01205,-0.04288,-0.00458,-0.19592,-0.07278,-0.07172,-0.00732,0.00031,-0.0116,0.04395,-0.00092,0.00732,-0.05081,-0.01785,0.03128,-0.14542
9.413,-0.01511,-0.07202,0.00824,-0.24246,-0.10162,-0.07004,-0.00778,-0.00046,-0.00916,0.03601,0.00427,0.00244,-0.04822,-0.01389,0.02823,-0.11017
9.4135,-0.01907,-0.08667,0.01205,-0.19333,-0.12466,-0.06592,-0.00977,-0.00198,-0.00793,0.02213,0.0058,-0.00137,-0.04166,-0.01083,0.01892,-0.05493
9.414,-0.02228,-0.08606,-0.00534,-0.00793,-0.14923,-0.06012,-0.01221,-0.00305,-0.00809,0.0116,0.00366,-0.00534,-0.03189,-0.00885,0.01053,-0.00656
9.4145,-0.02518,-0.07919,-0.03418,0.23956,-0.1709,-0.05508,-0.01434,-0.00443,-0.0087,0.00351,0.00076,-0.01144,-0.0206,-0.00473,0.0061,0.01495
9.415,-0.0267,-0.07141,-0.05722,0.41031,-0.17349,-0.04608,-0.01633,-0.00427,-0.00671,-0.00427,0.0,-0.01877,-0.01129,-0.00046,0.00336,0.01434
9.4155,-0.02945,-0.06393,-0.06287,0.42709,-0.16479,-0.03769,-0.01678,-0.00488,-0.00397,-0.00992,0.00107,-0.02853,-0.0058,0.00153,0.00137,0.00031
9.416,-0.02991,-0.05814,-0.05615,0.31326,-0.15015,-0.03098,-0.01648,-0.00458,-0.00168,-0.01251,0.00259,-0.03693,-0.00397,0.00214,0.00061,-0.01816
9.4165,-0.02823,-0.05356,-0.04608,0.1358,-0.12421,-0.02899,-0.01434,-0.00458,-0.00244,-0.01266,0.00153,-0.04349,-0.00412,0.0,-0.00031,-0.03372
9.417,-0.02533,-0.04517,-0.03464,-0.0351,-0.08301,-0.03296,-0.01266,-0.00488,-0.00549,-0.01236,-0.00412,-0.04883,-0.00778,-0.00687,-0.00137,-0.03952
9.4175,-0.02014,-0.03052,-0.01984,-0.14084,-0.04486,-0.04288,-0.01221,-0.00198,-0.00961,-0.01114,-0.01053,-0.05219,-0.01419,-0.01633,-0.0032,-0.03571
9.418,-0.01511,-0.01389,-0.00153,-0.17181,-0.03525,-0.06027,-0.01343,0.00137,-0.01251,-0.01053,-0.01617,-0.05325,-0.02243,-0.02426,-0.00397,-0.03006
9.4185,-0.01068,0.00092,0.01373,-0.17349,-0.06104,-0.0798,-0.01419,0.00214,-0.01297,-0.01053,-0.01755,-0.05356,-0.02853,-0.02975,-0.00458,-0.02853
9.419,-0.00809,0.02045,0.02319,-0.19424,-0.10361,-0.08499,-0.01434,-0.00229,-0.01068,-0.01083,-0.01831,-0.05768,-0.03265,-0.0322,-0.00397,-0.0325
9.4195,-0.00626,0.04852,0.02808,-0.23209,-0.13412,-0.06332,-0.01343,-0.00854,-0.00687,-0.00885,-0.01816,-0.06363,-0.0351,-0.03418,-0.00153,-0.03555
9.42,-0.00504,0.07965,0.02823,-0.25238,-0.14282,-0.02365,-0.01266,-0.01251,-0.00717,-0.00427,-0.01831,-0.06805,-0.03647,-0.03403,0.00015,-0.03586
9.4205,-0.00595,0.09537,0.02518,-0.22964,-0.13962,0.01221,-0.01312,-0.01404,-0.01358,0.00214,-0.01801,-0.07111,-0.03952,-0.03372,0.00198,-0.03525
9.421,-0.00931,0.0824,0.02029,-0.17212,-0.13382,0.03098,-0.01495,-0.01694,-0.02075,0.01068,-0.01755,-0.07538,-0.04547,-0.03204,0.00259,-0.03632
9.4215,-0.01495,0.0499,0.01785,-0.10498,-0.11765,0.03189,-0.01694,-0.02243,-0.01938,0.02502,-0.01495,-0.08118,-0.0531,-0.0293,0.00397,-0.04059
9.422,-0.01968,0.01602,0.02441,-0.05157,-0.09048,0.02014,-0.01831,-0.02899,-0.00732,0.04059,-0.01175,-0.08713,-0.05798,-0.02808,0.00443,-0.04547
9.4225,-0.02243,-0.00961,0.03723,-0.01816,-0.07416,-0.00046,-0.01862,-0.03403,0.00702,0.04776,-0.00992,-0.09308,-0.05585,-0.02686,0.0029,-0.05402
9.423,-0.02289,-0.03052,0.04318,0.00061,-0.08881,-0.02502,-0.0177,-0.03281,0.01297,0.04288,-0.01007,-0.0972,-0.04868,-0.02289,0.00153,-0.06149
9.4235,-0.02335,-0.05844,0.02441,0.00961,-0.12054,-0.04623,-0.01617,-0.02289,0.00763,0.02884,-0.01038,-0.09796,-0.0412,-0.01694,0.00412,-0.05356
9.424,-0.02441,-0.10147,-0.0206,0.01236,-0.13367,-0.06195,-0.01678,-0.00519,-0.00549,0.01495,-0.00961,-0.09811,-0.03922,-0.01282,0.00885,-0.03479
9.4245,-0.02502,-0.14847,-0.06973,0.01678,-0.12146,-0.07477,-0.0177,0.01434,-0.01877,0.00626,-0.00824,-0.09811,-0.04211,-0.01266,0.0145,-0.01694
9.425,-0.02365,-0.17609,-0.10483,0.0293,-0.1059,-0.09109,-0.01892,0.02563,-0.02625,0.00336,-0.00793,-0.09811,-0.04333,-0.01373,0.01923,-0.01556
9.4255,-0.02106,-0.17273,-0.12375,0.04745,-0.09689,-0.11017,-0.01938,0.02625,-0.02487,0.00534,-0.00687,-0.09872,-0.0386,-0.01297,0.01938,-0.02533
9.426,-0.01602,-0.15335,-0.13458,0.06226,-0.08514,-0.12207,-0.01862,0.01862,-0.0177,0.00717,-0.00046,-0.10132,-0.03265,-0.01038,0.01602,-0.03098
9.4265,-0.01053,-0.13596,-0.14114,0.0705,-0.06439,-0.12253,-0.01755,0.01007,-0.01144,0.00305,0.01724,-0.10376,-0.03021,-0.00885,0.01099,-0.02731
9.427,-0.00336,-0.12253,-0.14023,0.07401,-0.04425,-0.10986,-0.01633,0.00458,-0.00778,-0.00565,0.04257,-0.10345,-0.03036,-0.00839,0.00854,-0.02579
9.4275,0.00183,-0.09949,-0.13077,0.07278,-0.03525,-0.09064,-0.01617,0.00153,-0.00778,-0.01587,0.0563,-0.1001,-0.0293,-0.00946,0.00977,-0.03601
9.428,0.00687,-0.05829,-0.11581,0.06714,-0.03479,-0.07248,-0.01648,-0.00015,-0.009,-0.02701,0.04181,-0.09689,-0.02426,-0.01022,0.00961,-0.05615
9.4285,0.01083,-0.00992,-0.09827,0.06104,-0.03433,-0.06302,-0.01831,-0.00153,-0.01038,-0.04013,0.00809,-0.09689,-0.01892,-0.01251,0.00793,-0.0708
9.429,0.01282,0.0264,-0.08316,0.04196,-0.02869,-0.05875,-0.02045,-0.00183,-0.01175,-0.05402,-0.01953,-0.09933,-0.01373,-0.0148,0.0058,-0.07233
9.4295,0.01312,0.05371,-0.06683,-0.01907,-0.01816,-0.056,-0.01999,-0.00061,-0.01297,-0.06332,-0.03036,-0.1004,-0.00992,-0.01709,0.00763,-0.06531
9.43,0.01053,0.09506,-0.04532,-0.12329,-0.01068,-0.05203,-0.01831,0.00015,-0.01572,-0.06546,-0.02899,-0.10117,-0.00839,-0.02014,0.0148,-0.05432
9.4305,0.00778,0.14725,-0.02411,-0.21362,-0.00916,-0.0473,-0.01862,0.00015,-0.02075,-0.06134,-0.02701,-0.10101,-0.01068,-0.02304,0.02243,-0.04425
9.431,0.00519,0.1738,-0.00549,-0.23514,-0.00809,-0.04349,-0.02121,0.00015,-0.02655,-0.056,-0.02899,-0.09888,-0.01404,-0.02426,0.02594,-0.03464
9.4315,0.0029,0.15442,0.00931,-0.20187,-0.00168,-0.04379,-0.02319,-0.00076,-0.02899,-0.05402,-0.03372,-0.09491,-0.0177,-0.02304,0.02808,-0.02762
9.432,0.0,0.10941,0.02029,-0.16403,0.00732,-0.04669,-0.02365,-0.00031,-0.02747,-0.05432,-0.03677,-0.09003,-0.02197,-0.02289,0.02991,-0.02563
9.4325,-0.00381,0.06973,0.02457,-0.14114,0.01175,-0.04517,-0.02274,-0.00046,-0.02411,-0.05737,-0.0296,-0.08759,-0.0296,-0.02274,0.02991,-0.02869
9.433,-0.00946,0.04623,0.02106,-0.12314,0.01038,-0.0351,-0.02136,-0.00015,-0.02121,-0.06073,-0.01511,-0.08774,-0.04105,-0.02426,0.02762,-0.03677
9.4335,-0.01389,0.03021,0.01251,-0.10818,0.00763,-0.02228,-0.02014,-0.00015,-0.01831,-0.06439,-0.00946,-0.08789,-0.05066,-0.02396,0.0206,-0.04944
9.434,-0.01694,0.01633,0.00671,-0.09521,0.01221,-0.01617,-0.01938,0.0,-0.01648,-0.06546,-0.02533,-0.08606,-0.05478,-0.01938,0.01328,-0.06378
9.4345,-0.02014,0.00778,0.00488,-0.07172,0.02258,-0.02029,-0.01999,0.00076,-0.01465,-0.0647,-0.04761,-0.08286,-0.05096,-0.01236,0.00656,-0.0737
9.435,-0.02457,0.00748,0.00626,-0.03387,0.03922,-0.02991,-0.01953,0.00183,-0.0145,-0.06424,-0.05371,-0.07996,-0.04379,-0.00732,0.00198,-0.07477
9.4355,-0.02899,0.01083,0.01175,0.00549,0.05493,-0.03906,-0.01953,0.00229,-0.01602,-0.06454,-0.03967,-0.07919,-0.0383,-0.00534,0.00336,-0.06805
9.436,-0.02869,0.01282,0.0235,0.03067,0.06622,-0.04242,-0.0177,0.00061,-0.01633,-0.06104,-0.01923,-0.07736,-0.03647,-0.00626,0.00793,-0.05554
9.4365,-0.02518,0.01068,0.04547,0.0415,0.0737,-0.04074,-0.01678,-0.00137,-0.01312,-0.05402,-0.00778,-0.07416,-0.03815,-0.00656,0.01038,-0.04257
9.437,-0.02106,0.00259,0.08102,0.04257,0.0737,-0.03967,-0.01678,-0.00519,-0.00763,-0.04929,-0.00992,-0.0708,-0.03937,-0.00748,0.00854,-0.03326
9.4375,-0.01785,-0.00671,0.12802,0.03677,0.07034,-0.04425,-0.0174,-0.01114,-0.0029,-0.04425,-0.02029,-0.07065,-0.03616,-0.00931,0.00732,-0.03174
9.438,-0.01602,-0.01389,0.16144,0.0354,0.06348,-0.05005,-0.01663,-0.01846,-0.00046,-0.04211,-0.03098,-0.07095,-0.02975,-0.01144,0.01175,-0.03403
9.4385,-0.01587,-0.01907,0.13916,0.05188,0.05478,-0.05249,-0.01587,-0.0238,0.00046,-0.04074,-0.03372,-0.07004,-0.02365,-0.0116,0.01907,-0.0351
9.439,-0.01968,-0.0293,0.05814,0.08026,0.04028,-0.05005,-0.01602,-0.02533,0.00046,-0.04044,-0.02945,-0.06653,-0.0177,-0.01221,0.02518,-0.03448
9.4395,-0.02457,-0.04364,-0.03113,0.10437,0.01678,-0.04684,-0.01663,-0.02686,-0.00046,-0.03983,-0.02365,-0.06195,-0.01114,-0.01236,0.02548,-0.03311
9.44,-0.03036,-0.04929,-0.08362,0.11978,-0.0087,-0.04532,-0.01495,-0.03082,-0.0029,-0.03937,-0.01938,-0.05936,-0.00412,-0.0145,0.02457,-0.03479
9.4405,-0.03616,-0.04318,-0.10696,0.15991,-0.03174,-0.04547,-0.01297,-0.03479,-0.00641,-0.04059,-0.01709,-0.05951,0.00214,-0.01801,0.02258,-0.03754
9.441,-0.04456,-0.0415,-0.12527,0.26703,-0.04303,-0.04868,-0.01068,-0.03723,-0.01083,-0.04517,-0.01663,-0.06058,0.00763,-0.02167,0.01602,-0.03998
9.4415,-0.05402,-0.05814,-0.14069,0.43015,-0.04349,-0.05127,-0.01068,-0.04059,-0.01678,-0.05188,-0.01755,-0.0589,0.01114,-0.02762,0.00214,-0.04013
9.442,-0.06317,-0.08545,-0.14725,0.57404,-0.04288,-0.05112,-0.0119,-0.05096,-0.02258,-0.05859,-0.01801,-0.05432,0.01114,-0.03189,-0.01083,-0.03998
9.4425,-0.06912,-0.10513,-0.15167,0.65399,-0.04166,-0.04807,-0.01221,-0.06149,-0.02701,-0.06302,-0.0148,-0.04868,0.00656,-0.03494,-0.01678,-0.04135
9.443,-0.07248,-0.1236,-0.15884,0.69031,-0.04303,-0.04608,-0.01221,-0.06012,-0.02777,-0.06424,-0.00946,-0.04471,-0.00336,-0.03647,-0.01404,-0.04471
9.4435,-0.07416,-0.16907,-0.15732,0.69763,-0.04105,-0.04822,-0.01389,-0.04715,-0.02838,-0.06287,-0.00443,-0.04166,-0.01511,-0.03937,-0.00946,-0.05173
9.444,-0.07568,-0.2478,-0.1413,0.64316,-0.03464,-0.05219,-0.01511,-0.02914,-0.02808,-0.06088,-0.00412,-0.0386,-0.02975,-0.04547,-0.00748,-0.05829
9.4445,-0.07538,-0.32654,-0.11719,0.52078,-0.03189,-0.05325,-0.01663,-0.00626,-0.02625,-0.06058,-0.00671,-0.03418,-0.047,-0.05295,-0.00275,-0.06058
9.445,-0.07538,-0.37537,-0.09506,0.39932,-0.03815,-0.05035,-0.01678,0.02304,-0.0238,-0.06104,-0.00793,-0.02853,-0.06561,-0.05768,0.00595,-0.05478
9.4455,-0.07339,-0.3923,-0.07477,0.35156,-0.04776,-0.04822,-0.01633,0.04364,-0.02258,-0.06241,-0.00763,-0.02289,-0.08148,-0.05646,0.01541,-0.04196
9.446,-0.07004,-0.39612,-0.05676,0.37796,-0.05508,-0.04944,-0.01617,0.03922,-0.0209,-0.06409,-0.00763,-0.01877,-0.09567,-0.0499,0.01816,-0.03204
9.4465,-0.06744,-0.39276,-0.04471,0.41931,-0.05783,-0.05341,-0.01587,0.01328,-0.01938,-0.06531,-0.00916,-0.02029,-0.10666,-0.04135,0.01434,-0.02762
9.447,-0.06836,-0.37933,-0.04425,0.43167,-0.05646,-0.05554,-0.01526,-0.00687,-0.0174,-0.06546,-0.01053,-0.02365,-0.11124,-0.03189,0.01053,-0.03006
9.4475,-0.07172,-0.35797,-0.05295,0.41855,-0.05066,-0.05173,-0.01465,-0.00137,-0.01526,-0.06348,-0.01175,-0.02594,-0.10437,-0.02075,0.01022,-0.0354
9.448,-0.07538,-0.33447,-0.05615,0.39902,-0.04471,-0.04395,-0.01511,0.03769,-0.0119,-0.05936,-0.01404,-0.02441,-0.08652,-0.00702,0.01053,-0.03647
9.4485,-0.07919,-0.3067,-0.0444,0.37567,-0.04288,-0.03845,-0.01694,0.09338,-0.00885,-0.05585,-0.01801,-0.02304,-0.06561,0.00565,0.01175,-0.03754
9.449,-0.08102,-0.27298,-0.02365,0.34805,-0.04303,-0.03723,-0.01877,0.12955,-0.00717,-0.0528,-0.02289,-0.02365,-0.04898,0.01419,0.01205,-0.04196
9.4495,-0.07996,-0.24811,-0.01068,0.31921,-0.03769,-0.03922,-0.02136,0.11948,-0.009,-0.05051,-0.02594,-0.02472,-0.03586,0.01648,0.01144,-0.04501
9.45,-0.07675,-0.2449,-0.01678,0.29617,-0.02716,-0.04196,-0.0235,0.07614,-0.01114,-0.04929,-0.02487,-0.02365,-0.02838,0.01007,0.01114,-0.0444
9.4505,-0.07568,-0.25208,-0.03265,0.28091,-0.00916,-0.04349,-0.02487,0.03525,-0.01083,-0.0502,-0.02151,-0.01999,-0.02686,-0.00015,0.01114,-0.03983
9.451,-0.08209,-0.2478,-0.04318,0.26779,0.00198,-0.04501,-0.02533,0.0148,-0.009,-0.05203,-0.01755,-0.01709,-0.03159,-0.00839,0.01129,-0.03662
9.4515,-0.09048,-0.22583,-0.04105,0.25925,0.0061,-0.04761,-0.02533,0.00946,-0.00793,-0.05219,-0.01205,-0.01541,-0.03586,-0.01236,0.01236,-0.03616
9.452,-0.09521,-0.20126,-0.0354,0.24933,0.00732,-0.05157,-0.02502,0.00702,-0.00809,-0.0502,-0.00732,-0.01389,-0.03357,-0.01129,0.01205,-0.03708
9.4525,-0.09842,-0.18311,-0.03342,0.23514,0.01236,-0.05508,-0.02426,0.00443,-0.0087,-0.04547,-0.00351,-0.01434,-0.02472,-0.00839,0.00763,-0.0386
9.453,-0.10681,-0.17151,-0.03937,0.21622,0.01846,-0.05692,-0.02365,0.00168,-0.00946,-0.04028,-0.00076,-0.01556,-0.0148,-0.00595,0.00122,-0.03998
9.4535,-0.11948,-0.16205,-0.05096,0.19363,0.02563,-0.05554,-0.02533,-0.00168,-0.01312,-0.0354,0.00046,-0.01526,-0.00946,-0.00488,-0.00412,-0.04196
9.454,-0.12787,-0.15305,-0.06165,0.17044,0.03418,-0.05234,-0.02823,-0.0061,-0.01801,-0.02884,0.00122,-0.01205,-0.00778,-0.00351,-0.00198,-0.04166
9.4545,-0.12833,-0.1442,-0.06821,0.14557,0.04425,-0.05005,-0.03052,-0.00778,-0.02243,-0.02563,0.00168,-0.00931,-0.01099,-0.00519,0.00381,-0.04089
9.455,-0.12421,-0.13565,-0.07126,0.11871,0.0528,-0.04913,-0.02884,-0.00565,-0.02365,-0.02243,0.00275,-0.00763,-0.01541,-0.0087,0.00778,-0.03815
9.4555,-0.11963,-0.12833,-0.07141,0.09033,0.06088,-0.04974,-0.02365,-0.00168,-0.02426,-0.0206,0.00412,-0.00717,-0.01846,-0.01358,0.00519,-0.03555
9.456,-0.11154,-0.11978,-0.07034,0.06119,0.06805,-0.05005,-0.01831,0.00031,-0.02426,-0.01968,0.00443,-0.00687,-0.02243,-0.01556,-0.00061,-0.03448
9.4565,-0.1001,-0.10895,-0.0679,0.03479,0.0676,-0.05127,-0.01816,-0.00046,-0.02319,-0.01999,0.0029,-0.00534,-0.02609,-0.01511,-0.00244,-0.03418
9.457,-0.08881,-0.09705,-0.06561,0.00931,0.05508,-0.05112,-0.02197,-0.00275,-0.02136,-0.02106,-0.00168,-0.00458,-0.02975,-0.01511,-0.00092,-0.0354
9.4575,-0.08133,-0.08667,-0.06454,-0.01923,0.0354,-0.04639,-0.02655,-0.00427,-0.01709,-0.02106,-0.01083,-0.00549,-0.02991,-0.01633,0.00214,-0.03922
9.458,-0.06912,-0.07706,-0.06271,-0.07233,0.0209,-0.03784,-0.02884,-0.0058,-0.01236,-0.02014,-0.01999,-0.00717,-0.02808,-0.01801,0.00198,-0.04425
9.4585,-0.04608,-0.07004,-0.06302,-0.17822,0.0235,-0.03006,-0.02869,-0.00748,-0.00778,-0.01953,-0.02274,-0.00732,-0.02777,-0.01816,0.00168,-0.04761
9.459,-0.01968,-0.06561,-0.06821,-0.32333,0.02823,-0.02396,-0.02869,-0.00977,-0.00488,-0.01953,-0.01633,-0.00656,-0.02869,-0.01846,0.00153,-0.04883
9.4595,-0.00015,-0.06149,-0.07324,-0.4451,0.01282,-0.0206,-0.02991,-0.01083,-0.00351,-0.01877,-0.0061,-0.00381,-0.02975,-0.01968,0.00168,-0.04486
9.46,0.00732,-0.05447,-0.06729,-0.48477,-0.03876,-0.02319,-0.03098,-0.01038,-0.0029,-0.01709,-0.00061,-0.00107,-0.03006,-0.02182,0.00214,-0.04135
9.4605,0.00824,-0.04425,-0.05188,-0.44891,-0.10361,-0.03296,-0.03143,-0.01144,-0.00366,-0.01572,-0.00305,0.00183,-0.03082,-0.02365,0.00305,-0.03983
9.461,0.01068,-0.02899,-0.03586,-0.37094,-0.14755,-0.05234,-0.03113,-0.01312,-0.00748,-0.01495,-0.0087,0.00336,-0.03159,-0.02396,0.00366,-0.03876
9.4615,0.01572,-0.00885,-0.02747,-0.26352,-0.14679,-0.07736,-0.03143,-0.01404,-0.01419,-0.01846,-0.01526,0.0032,-0.03159,-0.02411,0.00458,-0.03723
9.462,0.02121,0.01083,-0.02426,-0.14374,-0.12955,-0.09781,-0.03113,-0.01373,-0.02106,-0.02441,-0.02014,0.0032,-0.03189,-0.0235,0.00443,-0.03586
9.4625,0.02502,0.02716,-0.02441,-0.0592,-0.12573,-0.10391,-0.03128,-0.01495,-0.02472,-0.03189,-0.02228,0.00336,-0.0325,-0.02396,0.00351,-0.03662
9.463,0.03006,0.04395,-0.02838,-0.06378,-0.13718,-0.09445,-0.03006,-0.01678,-0.02701,-0.03815,-0.02289,0.00336,-0.03387,-0.02396,0.00336,-0.04013
9.4635,0.03845,0.05981,-0.03586,-0.15488,-0.13412,-0.07767,-0.02808,-0.0177,-0.03067,-0.04364,-0.0235,0.0032,-0.03479,-0.02457,0.00595,-0.04166
9.464,0.04913,0.06241,-0.04288,-0.27451,-0.11169,-0.06271,-0.02716,-0.01862,-0.0354,-0.04623,-0.02609,0.00534,-0.03357,-0.02426,0.01205,-0.03326
9.4645,0.05844,0.04181,-0.05127,-0.36758,-0.08835,-0.0528,-0.02777,-0.01862,-0.0386,-0.04837,-0.02899,0.01068,-0.03159,-0.02411,0.01984,-0.02228
9.465,0.06378,0.00931,-0.0592,-0.42038,-0.07797,-0.047,-0.02823,-0.01724,-0.03723,-0.04944,-0.03159,0.01389,-0.02777,-0.02274,0.02258,-0.01587
9.4655,0.0679,-0.01556,-0.06882,-0.4451,-0.07401,-0.04105,-0.02777,-0.01556,-0.03052,-0.04883,-0.03311,0.01297,-0.02426,-0.02182,0.0209,-0.01785
9.466,0.07263,-0.02151,-0.0769,-0.44571,-0.06927,-0.03494,-0.02914,-0.01617,-0.02197,-0.04593,-0.0351,0.01099,-0.02258,-0.02243,0.01617,-0.02533
9.4665,0.07935,-0.01434,-0.07324,-0.41779,-0.06927,-0.03021,-0.03082,-0.02289,-0.01495,-0.0415,-0.03723,0.01465,-0.02335,-0.02365,0.01328,-0.03082
9.467,0.08606,-0.00259,-0.05585,-0.36743,-0.07751,-0.02609,-0.03143,-0.0322,-0.01129,-0.03754,-0.03601,0.02304,-0.02472,-0.02411,0.01297,-0.02808
9.4675,0.09186,0.00565,-0.03159,-0.31311,-0.08713,-0.02396,-0.0296,-0.04135,-0.01129,-0.03296,-0.03021,0.03113,-0.02472,-0.02289,0.01465,-0.0206
9.468,0.09766,0.01068,-0.02731,-0.26764,-0.08865,-0.02213,-0.02594,-0.04608,-0.01083,-0.03082,-0.02289,0.03265,-0.02472,-0.0209,0.0145,-0.0209
9.4685,0.10208,0.01602,-0.05829,-0.22919,-0.08392,-0.02151,-0.02457,-0.0473,-0.01007,-0.0293,-0.01907,0.02869,-0.02396,-0.01907,0.01358,-0.03555
9.469,0.1033,0.02258,-0.10986,-0.19989,-0.07568,-0.02243,-0.02625,-0.04532,-0.00977,-0.02655,-0.01709,0.02884,-0.02289,-0.01755,0.01129,-0.06195
9.4695,0.10254,0.02731,-0.14893,-0.18402,-0.07095,-0.02655,-0.02716,-0.03937,-0.01083,-0.02289,-0.01541,0.03799,-0.02106,-0.01648,0.00702,-0.0824
9.47,0.10178,0.02884,-0.15808,-0.17731,-0.07401,-0.03174,-0.02533,-0.03128,-0.01144,-0.01785,-0.01343,0.04868,-0.02045,-0.01526,0.00198,-0.08667
9.4705,0.10391,0.02548,-0.14267,-0.16953,-0.08453,-0.03723,-0.0235,-0.02197,-0.01129,-0.01465,-0.01068,0.05447,-0.02106,-0.01434,-0.00198,-0.08392
9.471,0.1062,0.02045,-0.11688,-0.15518,-0.09384,-0.0412,-0.02167,-0.00778,-0.01129,-0.01129,-0.00854,0.0528,-0.02197,-0.01495,-0.00198,-0.08423
9.4715,0.10818,0.01709,-0.09018,-0.13809,-0.09201,-0.04303,-0.02075,0.00931,-0.0116,-0.00931,-0.00793,0.05035,-0.02365,-0.01663,-0.00122,-0.0853
9.472,0.11093,0.0148,-0.06866,-0.12039,-0.08041,-0.0444,-0.01831,0.02121,-0.01129,-0.00687,-0.009,0.05386,-0.02396,-0.01755,0.00046,-0.07965
9.4725,0.11673,0.01144,-0.05203,-0.10437,-0.06546,-0.04456,-0.01526,0.02182,-0.00977,-0.00366,-0.0116,0.06638,-0.02533,-0.0174,0.00671,-0.06485
9.473,0.12527,0.00641,-0.04028,-0.08835,-0.05356,-0.04517,-0.01099,0.01923,-0.00946,-0.00214,-0.0145,0.08224,-0.02701,-0.01602,0.01389,-0.05081
9.4735,0.1355,0.00259,-0.0293,-0.07507,-0.04364,-0.04486,-0.00854,0.0206,-0.01205,0.0,-0.01419,0.09109,-0.0293,-0.01709,0.0148,-0.0444
9.474,0.14465,0.00397,-0.01953,-0.06561,-0.03235,-0.04272,-0.00809,0.01801,-0.01511,0.00183,-0.01282,0.09216,-0.03021,-0.01831,0.01068,-0.0441
9.4745,0.15076,0.01572,-0.0119,-0.05798,-0.01862,-0.04105,-0.009,0.00336,-0.01709,0.00397,-0.01144,0.09064,-0.03128,-0.01938,0.00732,-0.04379
9.475,0.15289,0.03983,0.00107,-0.05142,-0.00671,-0.04166,-0.00961,-0.01129,-0.01617,0.00458,-0.01083,0.0882,-0.03143,-0.01984,0.01129,-0.03998
9.4755,0.14908,0.06958,0.02502,-0.0473,0.00198,-0.04303,-0.00854,-0.0119,-0.0145,0.00504,-0.01129,0.08499,-0.03235,-0.01923,0.01831,-0.03662
9.476,0.14267,0.08133,0.06592,-0.0444,0.00458,-0.04272,-0.00671,0.00183,-0.01434,0.00671,-0.01007,0.07889,-0.03296,-0.01907,0.02167,-0.03723
9.4765,0.13626,0.05997,0.11551,-0.0412,0.00244,-0.04013,-0.00565,0.01343,-0.01511,0.00977,-0.00824,0.06866,-0.03235,-0.01892,0.01862,-0.03906
9.477,0.13153,0.01251,0.15259,-0.04059,-0.00763,-0.03876,-0.00473,0.0145,-0.01633,0.0116,-0.00778,0.05463,-0.03357,-0.01816,0.0148,-0.04257
9.4775,0.12604,-0.03601,0.14755,-0.04379,-0.0209,-0.03845,-0.00473,0.00748,-0.01785,0.01099,-0.00839,0.04028,-0.03326,-0.01694,0.01389,-0.0415
9.478,0.11841,-0.07278,0.0946,-0.04929,-0.02838,-0.03952,-0.00549,0.00015,-0.01816,0.01221,-0.00931,0.03067,-0.0325,-0.01617,0.0148,-0.0383
9.4785,0.10757,-0.09155,0.0209,-0.04654,-0.02579,-0.03967,-0.00534,-0.0032,-0.0174,0.01434,-0.00931,0.02411,-0.03113,-0.01694,0.01526,-0.03784
9.479,0.09735,-0.09445,-0.03983,-0.03586,-0.01907,-0.03876,-0.00412,-0.00443,-0.01572,0.01587,-0.00885,0.01755,-0.0296,-0.01801,0.0116,-0.03662
9.4795,0.09186,-0.08163,-0.07294,-0.02228,-0.01053,-0.03479,-0.00015,-0.00412,-0.0148,0.02548,-0.00824,0.0087,-0.02884,-0.01816,0.00854,-0.0351
9.48,0.08911,-0.06256,-0.08728,-0.01144,-0.00473,-0.03052,0.00259,-0.00183,-0.01633,0.07965,-0.009,0.00031,-0.02792,-0.01755,0.00793,-0.03418
9.4805,0.08453,-0.05447,-0.09338,-0.00092,-0.00137,-0.02838,0.00275,0.00198,-0.0174,0.23422,-0.00931,-0.00488,-0.02899,-0.01724,0.00931,-0.03326
9.481,0.07767,-0.06516,-0.09445,0.00977,0.00046,-0.02975,0.00137,0.00473,-0.01678,0.46906,-0.00977,-0.01007,-0.03052,-0.01755,0.01083,-0.03433
9.4815,0.07034,-0.08636,-0.09018,0.02045,-0.00031,-0.03143,0.00153,0.00565,-0.01511,0.65125,-0.0087,-0.01526,-0.0322,-0.01587,0.0119,-0.03632
9.482,0.06622,-0.10147,-0.08102,0.02396,0.00046,-0.03098,0.0032,0.00488,-0.01511,0.67978,-0.00854,-0.02045,-0.03342,-0.01633,0.01175,-0.03784
9.4825,0.06531,-0.11002,-0.06943,0.00015,0.00443,-0.02792,0.00519,0.00244,-0.01755,0.59952,-0.0087,-0.02502,-0.03448,-0.01862,0.01053,-0.0386
9.483,0.06668,-0.12299,-0.05798,-0.07889,0.00626,-0.02319,0.00488,0.00015,-0.01953,0.51941,-0.00916,-0.02869,-0.03601,-0.02121,0.01068,-0.03952
9.4835,0.07233,-0.1413,-0.05035,-0.20966,0.00824,-0.01938,0.00427,-0.00275,-0.01938,0.47989,-0.0087,-0.0322,-0.03845,-0.02319,0.01205,-0.0412
9.484,0.08286,-0.15091,-0.04776,-0.33157,0.00916,-0.01831,0.00458,-0.00504,-0.01892,0.44815,-0.00931,-0.03693,-0.04227,-0.02411,0.01205,-0.04211
9.4845,0.09506,-0.14099,-0.04761,-0.37384,0.00748,-0.02213,0.00641,-0.0061,-0.01953,0.40344,-0.00992,-0.04272,-0.04608,-0.02365,0.01083,-0.04288
9.485,0.10315,-0.11627,-0.04425,-0.30869,0.00427,-0.02975,0.00824,-0.00702,-0.02121,0.35568,-0.01053,-0.04761,-0.04913,-0.02289,0.00931,-0.04288
9.4855,0.10498,-0.09857,-0.0351,-0.16617,0.00092,-0.03754,0.00809,-0.00549,-0.02121,0.31708,-0.01007,-0.04944,-0.0502,-0.02289,0.00946,-0.04196
9.486,0.10239,-0.11108,-0.0235,-0.00214,-0.00275,-0.04227,0.00778,-0.00473,-0.02197,0.28183,-0.00946,-0.0499,-0.04837,-0.02213,0.00961,-0.04333
9.4865,0.09598,-0.14893,-0.01602,0.12878,-0.00977,-0.04562,0.00809,-0.00305,-0.02243,0.2449,-0.0087,-0.05219,-0.04608,-0.02197,0.009,-0.04318
9.487,0.08591,-0.17136,-0.01343,0.20462,-0.01633,-0.04913,0.00854,-0.00336,-0.02243,0.20828,-0.00977,-0.05508,-0.0441,-0.02136,0.00824,-0.04272
9.4875,0.07477,-0.14191,-0.01068,0.24887,-0.0206,-0.05341,0.00824,-0.00443,-0.02228,0.17181,-0.01236,-0.05737,-0.04303,-0.02151,0.00656,-0.04379
9.488,0.06577,-0.05707,-0.00443,0.30029,-0.02075,-0.05707,0.0061,-0.00595,-0.02136,0.13611,-0.01297,-0.05768,-0.04196,-0.0206,0.00702,-0.0441
9.4885,0.05585,0.04532,0.0032,0.35233,-0.01373,-0.05966,0.00519,-0.00702,-0.02121,0.10178,-0.01404,-0.05783,-0.04059,-0.01877,0.00809,-0.04318
9.489,0.04486,0.12161,0.00992,0.37491,0.00015,-0.06134,0.00687,-0.00671,-0.02182,0.06989,-0.0145,-0.05783,-0.03906,-0.01678,0.00916,-0.03952
9.4895,0.0351,0.15518,0.01175,0.35278,0.01709,-0.05798,0.009,-0.00458,-0.02121,0.04028,-0.01495,-0.05676,-0.03616,-0.01648,0.01007,-0.03677
9.49,0.02777,0.16907,0.01144,0.27466,0.02701,-0.05234,0.01205,-0.00107,-0.02182,0.01221,-0.01572,-0.05493,-0.0354,-0.0177,0.00992,-0.03326
9.4905,0.01953,0.18646,0.01175,0.12802,0.02396,-0.05432,0.01343,0.0,-0.02136,-0.0148,-0.01663,-0.05219,-0.03708,-0.01892,0.01068,-0.03113
9.491,0.00412,0.20935,0.01358,-0.0412,0.01419,-0.06943,0.01373,-0.00336,-0.02014,-0.04181,-0.01785,-0.04929,-0.04135,-0.01999,0.00992,-0.03159
9.4915,-0.01266,0.22614,0.0148,-0.14359,0.00778,-0.09125,0.01236,-0.00778,-0.01801,-0.0708,-0.02014,-0.04761,-0.04181,-0.01923,0.00824,-0.03464
9.492,-0.01633,0.23453,0.0145,-0.15045,0.009,-0.11002,0.01068,-0.01114,-0.01694,-0.09872,-0.02243,-0.04807,-0.03754,-0.01831,0.00687,-0.04028
9.4925,-0.00107,0.24628,0.01541,-0.12405,0.01175,-0.11993,0.00977,-0.01419,-0.01709,-0.12619,-0.02441,-0.05035,-0.03357,-0.01801,0.00717,-0.04593
9.493,0.01923,0.26611,0.01495,-0.12512,0.00793,-0.11841,0.00961,-0.01556,-0.01633,-0.15396,-0.02365,-0.05066,-0.03204,-0.01678,0.00809,-0.04761
9.4935,0.02014,0.28656,0.01572,-0.13458,-0.0032,-0.10895,0.00961,-0.01755,-0.01434,-0.17761,-0.01999,-0.04578,-0.03204,-0.01541,0.00778,-0.0473
9.494,-0.01343,0.3006,0.01709,-0.11169,-0.02243,-0.09903,0.00992,-0.01846,-0.01236,-0.19318,-0.01541,-0.03738,-0.03189,-0.01465,0.00778,-0.0415
9.4945,-0.06149,0.30869,0.0206,-0.06729,-0.03998,-0.09354,0.01007,-0.01617,-0.01129,-0.19897,-0.01205,-0.02884,-0.03067,-0.0148,0.00824,-0.03418
9.495,-0.0827,0.31418,0.02518,-0.03998,-0.05234,-0.08987,0.00992,-0.01266,-0.01022,-0.20233,-0.00961,-0.0206,-0.03082,-0.01648,0.00687,-0.02914
9.4955,-0.06195,0.31708,0.02823,-0.03052,-0.04929,-0.08514,0.01038,-0.01144,-0.00946,-0.20782,-0.00809,-0.00671,-0.0322,-0.01907,0.00336,-0.03113
9.496,-0.02472,0.31723,0.0322,-0.0145,-0.03296,-0.07568,0.00931,-0.01373,-0.00916,-0.2153,-0.00473,0.01602,-0.03555,-0.02197,-0.00046,-0.03769
9.4965,-0.00046,0.31403,0.04089,0.00717,-0.02121,-0.0621,0.00778,-0.01678,-0.01038,-0.22308,0.00015,0.03555,-0.03723,-0.02319,-0.00244,-0.04303
9.497,0.01099,0.30945,0.05585,0.01923,-0.02731,-0.04715,0.00626,-0.01755,-0.01099,-0.22949,0.00107,0.03876,-0.03708,-0.02289,-0.00229,-0.04227
9.4975,0.02029,0.30502,0.07904,0.01785,-0.04196,-0.03632,0.0058,-0.0174,-0.00946,-0.23514,-0.00259,0.03082,-0.03571,-0.0206,0.00015,-0.03784
9.498,0.03036,0.29709,0.10864,0.00656,-0.05295,-0.03189,0.00519,-0.02045,-0.00854,-0.23956,-0.00946,0.02594,-0.03418,-0.01846,0.00214,-0.03799
9.4985,0.03326,0.28275,0.14404,-0.02014,-0.06485,-0.03159,0.00366,-0.03098,-0.0119,-0.24277,-0.0145,0.0235,-0.03494,-0.01709,0.00336,-0.04517
9.499,0.02731,0.26093,0.16907,-0.06851,-0.08041,-0.03159,0.00229,-0.04456,-0.0174,-0.24734,-0.01617,0.02136,-0.03586,-0.01816,0.00427,-0.05173
9.4995,0.02274,0.23056,0.16251,-0.12405,-0.09247,-0.02945,0.00381,-0.05295,-0.02258,-0.25116,-0.01877,0.02625,-0.03662,-0.01892,0.00565,-0.05417
9.5,0.02716,0.19531,0.11597,-0.1564,-0.09674,-0.02808,0.00504,-0.05554,-0.02502,-0.25589,-0.02289,0.04807,-0.03632,-0.01724,0.00732,-0.0528
9.5005,0.03815,0.16525,0.05432,-0.14771,-0.10696,-0.03021,0.00427,-0.05692,-0.02533,-0.2597,-0.02762,0.08575,-0.03647,-0.01617,0.00763,-0.05295
9.501,0.04517,0.15198,0.01923,-0.10529,-0.13,-0.03555,0.0029,-0.05768,-0.02533,-0.26184,-0.0322,0.12589,-0.03723,-0.01663,0.00641,-0.05157
9.5015,0.04257,0.16129,0.03891,-0.05844,-0.14603,-0.0383,0.00198,-0.05661,-0.02579,-0.26154,-0.03555,0.16678,-0.03723,-0.01801,0.00519,-0.04837
9.502,0.03052,0.18158,0.09491,-0.02975,-0.13824,-0.03586,0.00137,-0.05417,-0.02563,-0.26031,-0.0383,0.21118,-0.03647,-0.01968,0.00534,-0.04242
9.5025,0.01587,0.1976,0.12207,-0.02487,-0.11475,-0.0322,0.00046,-0.04242,-0.02487,-0.25864,-0.03876,0.25192,-0.03494,-0.01923,0.00443,-0.03983
9.503,0.00809,0.19867,0.065,-0.03906,-0.09048,-0.03143,-0.00046,-0.00793,-0.02289,-0.25604,-0.03342,0.27542,-0.03525,-0.01846,0.00351,-0.04044
9.5035,0.00778,0.1889,-0.05081,-0.07065,-0.07278,-0.03479,-0.00397,0.03967,-0.02106,-0.25162,-0.02747,0.28107,-0.03632,-0.01801,0.00336,-0.04349
9.504,0.01114,0.17075,-0.15106,-0.10406,-0.05798,-0.03799,-0.00931,0.06104,-0.02075,-0.24689,-0.0238,0.27893,-0.03799,-0.0174,0.0032,-0.04486
9.5045,0.01541,0.14435,-0.19943,-0.10864,-0.04623,-0.03937,-0.01495,0.03464,-0.02182,-0.24017,-0.02304,0.27756,-0.03845,-0.01785,0.00381,-0.04135
9.505,0.01877,0.1178,-0.21484,-0.07751,-0.03555,-0.04028,-0.01938,0.00305,-0.0238,-0.23285,-0.02243,0.27542,-0.03754,-0.01984,0.00412,-0.03586
9.5055,0.02045,0.10452,-0.21927,-0.03769,-0.03082,-0.04211,-0.02243,0.02274,-0.02365,-0.22675,-0.01999,0.27267,-0.03494,-0.02106,0.00549,-0.03403
9.506,0.01938,0.11124,-0.21271,-0.01419,-0.03281,-0.04349,-0.02457,0.07935,-0.02045,-0.22263,-0.01801,0.27023,-0.03159,-0.02014,0.00519,-0.03632
9.5065,0.01816,0.12329,-0.1857,-0.00519,-0.0354,-0.0441,-0.02441,0.10086,-0.01801,-0.2211,-0.01678,0.26688,-0.02853,-0.01816,0.00443,-0.03952
9.507,0.02106,0.11673,-0.14755,0.00061,-0.03311,-0.04257,-0.02258,0.06042,-0.01694,-0.21912,-0.01556,0.2623,-0.02762,-0.01785,0.00534,-0.03967
9.5075,0.02762,0.08392,-0.11627,0.00534,-0.02686,-0.04028,-0.02167,0.01053,-0.01724,-0.21652,-0.01358,0.25772,-0.02777,-0.01907,0.00641,-0.0386
9.508,0.03159,0.03632,-0.09567,0.00336,-0.02182,-0.03952,-0.02045,0.00473,-0.01572,-0.21042,-0.01038,0.25177,-0.02853,-0.02106,0.00687,-0.03754
9.5085,0.02747,-0.00839,-0.08316,-0.00717,-0.02182,-0.04349,-0.02151,0.02426,-0.01221,-0.20401,-0.00809,0.23972,-0.02991,-0.02228,0.00565,-0.03845
9.509,0.01907,-0.04242,-0.07675,-0.01968,-0.02487,-0.04669,-0.02335,0.02335,-0.00748,-0.19684,-0.00717,0.22095,-0.03143,-0.02228,0.00458,-0.03983
9.5095,0.01358,-0.06454,-0.07751,-0.03021,-0.02426,-0.0473,-0.02457,0.00443,-0.00519,-0.18753,-0.00763,0.20477,-0.03204,-0.02151,0.00702,-0.04166
9.51,0.01465,-0.07904,-0.08499,-0.04471,-0.02335,-0.04501,-0.02472,0.00137,-0.00656,-0.177,-0.00854,0.19577,-0.03326,-0.02106,0.01129,-0.04211
9.5105,0.0177,-0.09262,-0.09491,-0.06638,-0.02151,-0.04227,-0.02548,0.0209,-0.00977,-0.16861,-0.00916,0.186,-0.03235,-0.02136,0.01007,-0.04288
9.511,0.01801,-0.11124,-0.10544,-0.08911,-0.01953,-0.03967,-0.02899,0.03571,-0.01205,-0.16022,-0.0087,0.16434,-0.02823,-0.02029,0.00854,-0.04288
9.5115,0.01587,-0.13657,-0.11581,-0.10056,-0.01678,-0.03784,-0.03067,0.0325,-0.01205,-0.1532,-0.00717,0.13474,-0.02075,-0.01755,0.00656,-0.04089
9.512,0.01373,-0.16342,-0.12207,-0.08331,-0.01312,-0.03693,-0.03113,0.02319,-0.0119,-0.14328,-0.00595,0.10712,-0.01343,-0.01343,0.00488,-0.04181
9.5125,0.01053,-0.18585,-0.11932,-0.03174,-0.01236,-0.03769,-0.02945,0.01755,-0.01266,-0.13336,-0.00748,0.08331,-0.01022,-0.01175,0.00687,-0.04227
9.513,0.00595,-0.20569,-0.10742,0.0293,-0.01328,-0.03983,-0.02899,0.01144,-0.01465,-0.1239,-0.00839,0.05783,-0.01114,-0.01312,0.00885,-0.04196
9.5135,-0.00198,-0.22324,-0.0882,0.06088,-0.01434,-0.04303,-0.03082,0.0032,-0.01602,-0.11627,-0.00946,0.03098,-0.0119,-0.01587,0.01129,-0.04242
9.514,-0.01129,-0.23621,-0.06454,0.04776,-0.01297,-0.04745,-0.03418,-0.00305,-0.01724,-0.10956,-0.00961,0.00488,-0.01389,-0.01724,0.01175,-0.04303
9.5145,-0.01999,-0.24261,-0.03311,0.01434,-0.01251,-0.05081,-0.03525,-0.00153,-0.01617,-0.103,-0.01053,-0.01923,-0.0209,-0.01755,0.00977,-0.04303
9.515,-0.02884,-0.24673,0.00717,-0.00275,-0.01144,-0.0499,-0.03174,0.00351,-0.01511,-0.09552,-0.01144,-0.04211,-0.03174,-0.01648,0.00824,-0.04257
9.5155,-0.03601,-0.25406,0.05203,0.00336,-0.01205,-0.04807,-0.02747,0.00595,-0.01495,-0.0885,-0.01175,-0.06683,-0.04242,-0.0148,0.00824,-0.04105
9.516,-0.04074,-0.26443,0.09445,0.01038,-0.01175,-0.04532,-0.02487,0.00336,-0.01526,-0.08148,-0.0119,-0.09079,-0.04532,-0.01511,0.0087,-0.04135
9.5165,-0.04379,-0.2739,0.11383,0.0029,-0.01312,-0.04456,-0.02335,0.00076,-0.01633,-0.07416,-0.0116,-0.1123,-0.03784,-0.01617,0.00763,-0.04242
9.517,-0.04684,-0.2832,0.09079,-0.01236,-0.01434,-0.04608,-0.02335,-0.00046,-0.01724,-0.06714,-0.01144,-0.12985,-0.02701,-0.0174,0.00687,-0.04272
9.5175,-0.05066,-0.2916,0.03021,-0.02213,-0.01587,-0.04715,-0.02274,-0.00107,-0.01831,-0.06073,-0.01251,-0.14481,-0.02075,-0.0177,0.0058,-0.04486
9.518,-0.05402,-0.29953,-0.03876,-0.02731,-0.0177,-0.04745,-0.02243,-0.00275,-0.01999,-0.05676,-0.01297,-0.15839,-0.02258,-0.0206,0.00504,-0.04395
9.5185,-0.05554,-0.30334,-0.08652,-0.03586,-0.01938,-0.0473,-0.02411,-0.0032,-0.02075,-0.05234,-0.01526,-0.1709,-0.02869,-0.02533,0.00504,-0.04303
9.519,-0.056,-0.30273,-0.10757,-0.04791,-0.01846,-0.04654,-0.02716,-0.00336,-0.0206,-0.047,-0.01633,-0.18204,-0.03311,-0.0296,0.0061,-0.04288
9.5195,-0.05661,-0.29953,-0.11032,-0.05951,-0.01617,-0.0441,-0.02792,-0.00305,-0.01968,-0.04196,-0.01648,-0.19241,-0.03494,-0.03067,0.00809,-0.04257
9.52,-0.05875,-0.29663,-0.10254,-0.06821,-0.01434,-0.04211,-0.02716,-0.00488,-0.02014,-0.03571,-0.01556,-0.20142,-0.03983,-0.02884,0.01007,-0.04227
9.5205,-0.06348,-0.29602,-0.08881,-0.07462,-0.01419,-0.04181,-0.02777,-0.009,-0.02213,-0.03128,-0.01541,-0.20935,-0.0502,-0.02945,0.00961,-0.04089
9.521,-0.06821,-0.29785,-0.07217,-0.07584,-0.01328,-0.04364,-0.02792,-0.01465,-0.02487,-0.02747,-0.01541,-0.21729,-0.06149,-0.03159,0.00793,-0.03952
9.5215,-0.07172,-0.30289,-0.05661,-0.07385,-0.01007,-0.04471,-0.02716,-0.02029,-0.02609,-0.02396,-0.01511,-0.22369,-0.06805,-0.02975,0.00702,-0.03998
9.522,-0.07553,-0.30914,-0.05096,-0.07294,-0.00595,-0.04456,-0.02563,-0.02548,-0.02548,-0.01938,-0.01511,-0.23026,-0.06668,-0.02121,0.00748,-0.04135
9.5225,-0.07568,-0.31219,-0.05844,-0.07751,-0.00519,-0.04456,-0.02594,-0.02914,-0.02441,-0.01511,-0.01434,-0.23544,-0.05722,-0.00992,0.009,-0.04303
9.523,-0.07401,-0.31097,-0.07324,-0.08728,-0.00473,-0.047,-0.02701,-0.03433,-0.02258,-0.01205,-0.01389,-0.23972,-0.0415,-0.00092,0.00992,-0.04379
9.5235,-0.07217,-0.30975,-0.08224,-0.09674,-0.00366,-0.0499,-0.02533,-0.04272,-0.02167,-0.00961,-0.01389,-0.242,-0.02747,0.0032,0.01007,-0.04471
9.524,-0.07156,-0.3096,-0.08255,-0.10101,-0.00153,-0.05188,-0.02243,-0.05188,-0.0206,-0.00977,-0.01419,-0.24277,-0.01968,0.00107,0.01053,-0.04318
9.5245,-0.07217,-0.30792,-0.07645,-0.09811,0.00015,-0.05295,-0.02167,-0.05966,-0.02136,-0.0087,-0.01495,-0.24231,-0.01923,-0.00595,0.01068,-0.04227
9.525,-0.07233,-0.30396,-0.07111,-0.09323,0.00137,-0.05478,-0.03204,-0.06805,-0.02197,-0.00839,-0.01587,-0.24094,-0.02258,-0.01419,0.01038,-0.0415
9.5255,-0.0708,-0.29953,-0.06882,-0.08911,-0.00046,-0.05692,-0.05417,-0.07904,-0.02167,-0.00809,-0.01694,-0.23712,-0.02579,-0.01984,0.00916,-0.04074
9.526,-0.06699,-0.29419,-0.07309,-0.08728,-0.01053,-0.05783,-0.0795,-0.08286,-0.0206,-0.00732,-0.0177,-0.23254,-0.02899,-0.02213,0.00854,-0.0412
9.5265,-0.06409,-0.28732,-0.08148,-0.08545,-0.02762,-0.0589,-0.09521,-0.06393,-0.02167,-0.00565,-0.01755,-0.22903,-0.03387,-0.02228,0.00931,-0.04242
9.527,-0.06302,-0.27924,-0.09109,-0.07904,-0.04547,-0.05829,-0.09659,-0.02441,-0.02319,-0.00351,-0.01785,-0.22659,-0.03983,-0.02228,0.0116,-0.04196
9.5275,-0.06226,-0.27023,-0.09506,-0.06622,-0.05737,-0.05829,-0.09399,0.01511,-0.02457,-0.00015,-0.01755,-0.22293,-0.04349,-0.02213,0.01312,-0.04242
9.528,-0.05768,-0.26291,-0.09644,-0.04974,-0.06195,-0.05737,-0.09506,0.04303,-0.02502,0.00458,-0.01801,-0.21713,-0.03876,-0.01923,0.01144,-0.04059
9.5285,-0.04913,-0.2623,-0.10101,-0.03525,-0.06638,-0.05661,-0.09949,0.06378,-0.0235,0.009,-0.01755,-0.20996,-0.0267,-0.01526,0.00946,-0.03906
9.529,-0.0351,-0.27328,-0.10696,-0.0264,-0.07675,-0.056,-0.103,0.07843,-0.02106,0.0119,-0.01785,-0.20004,-0.01266,-0.01114,0.01053,-0.03876
9.5295,-0.01297,-0.29572,-0.10956,-0.02075,-0.08179,-0.056,-0.09445,0.07416,-0.01877,0.01312,-0.01755,-0.18661,-0.0058,-0.00778,0.01312,-0.03891
9.53,0.0119,-0.31235,-0.1033,-0.01633,-0.07568,-0.05341,-0.06424,0.05386,-0.01907,0.01328,-0.01694,-0.16998,-0.00565,-0.00488,0.01495,-0.03952
9.5305,0.02121,-0.30014,-0.08469,-0.01389,-0.06302,-0.05112,-0.00809,0.03922,-0.0209,0.01205,-0.01663,-0.13977,-0.00641,-0.0061,0.01678,-0.03967
9.531,0.00397,-0.26611,-0.05371,-0.01144,-0.05676,-0.05173,0.06424,0.03983,-0.02106,0.01007,-0.01663,-0.07217,-0.0061,-0.0119,0.01419,-0.03967
9.5315,-0.02563,-0.2565,-0.02533,-0.01068,-0.05829,-0.05478,0.13351,0.03464,-0.01923,0.00763,-0.01648,0.04669,-0.00946,-0.0206,0.01465,-0.04059
9.532,-0.05005,-0.33508,-0.0235,-0.01373,-0.06226,-0.05692,0.16754,-0.00061,-0.01877,0.00473,-0.01633,0.17548,-0.0209,-0.03052,0.01297,-0.04089
9.5325,-0.06653,-0.51758,-0.05554,-0.01968,-0.05997,-0.05783,0.15045,-0.06287,-0.01953,0.0029,-0.01617,0.25284,-0.03387,-0.0383,0.01205,-0.04059
9.533,-0.08102,-0.71411,-0.10147,-0.02472,-0.05234,-0.056,0.09705,-0.12253,-0.02121,0.00397,-0.01602,0.27405,-0.04181,-0.04349,0.01175,-0.04089
9.5335,-0.09476,-0.79102,-0.13062,-0.0238,-0.04608,-0.05157,0.04211,-0.14648,-0.02197,0.00427,-0.01709,0.28198,-0.04562,-0.04471,0.01083,-0.04135
9.534,-0.10773,-0.75104,-0.13779,-0.02213,-0.04257,-0.04715,0.01175,-0.1268,-0.02136,0.00336,-0.0174,0.29495,-0.05157,-0.04486,0.01038,-0.04227
9.5345,-0.1207,-0.72571,-0.1355,-0.02808,-0.04013,-0.04608,0.00183,-0.07141,-0.02182,0.00198,-0.01755,0.29373,-0.06195,-0.04318,0.0116,-0.04395
9.535,-0.1358,-0.76767,-0.13474,-0.03922,-0.03937,-0.04654,-0.00168,0.00366,-0.02304,0.00259,-0.0177,0.27588,-0.07736,-0.04242,0.01312,-0.04364
9.5355,-0.15213,-0.79041,-0.13733,-0.04532,-0.03952,-0.04837,-0.00473,0.08041,-0.02487,0.00473,-0.01709,0.27405,-0.0914,-0.04089,0.01404,-0.04288
9.536,-0.16586,-0.76294,-0.14069,-0.04211,-0.04211,-0.0502,-0.00626,0.14374,-0.02441,0.00641,-0.01419,0.31113,-0.09033,-0.0354,0.01389,-0.0415
9.5365,-0.17319,-0.77957,-0.14709,-0.03571,-0.0441,-0.05005,-0.00763,0.16388,-0.0238,0.00748,-0.01236,0.37033,-0.06744,-0.02411,0.01389,-0.04288
9.537,-0.17242,-0.85312,-0.15289,-0.03235,-0.04349,-0.05035,-0.00687,0.12405,-0.02075,0.00961,-0.01083,0.40833,-0.03616,-0.01007,0.01175,-0.04257
9.5375,-0.16373,-0.858,-0.1532,-0.03403,-0.04181,-0.05035,-0.00275,0.04395,-0.01862,0.01083,-0.01114,0.40253,-0.0148,0.00031,0.01007,-0.04227
9.538,-0.15335,-0.73517,-0.14313,-0.03555,-0.03937,-0.05005,-0.00702,-0.02258,-0.01755,0.01007,-0.01266,0.36728,-0.01083,0.00153,0.01053,-0.04181
9.5385,-0.1474,-0.57816,-0.12161,-0.03296,-0.03433,-0.047,-0.02213,-0.03494,-0.0177,0.00854,-0.01465,0.32883,-0.0148,-0.0032,0.01144,-0.04181
9.539,-0.14847,-0.48431,-0.09506,-0.0267,-0.03036,-0.04364,-0.02716,-0.00351,-0.01801,0.00671,-0.01495,0.29831,-0.02319,-0.00977,0.01205,-0.04196
9.5395,-0.15549,-0.43686,-0.07187,-0.01801,-0.02518,-0.04196,-0.00793,0.03494,-0.01709,0.00397,-0.01617,0.26642,-0.03677,-0.01587,0.01205,-0.04318
9.54,-0.1651,-0.39017,-0.05219,-0.01343,-0.02045,-0.04166,0.01221,0.06042,-0.01648,0.00153,-0.01663,0.22736,-0.05615,-0.02029,0.01129,-0.04272
9.5405,-0.17548,-0.36118,-0.03708,-0.01556,-0.01953,-0.04166,0.00961,0.07034,-0.01801,-0.00137,-0.01694,0.18509,-0.06912,-0.02243,0.01099,-0.04227
9.541,-0.18021,-0.39886,-0.02747,-0.02213,-0.01709,-0.04379,-0.00854,0.06577,-0.01785,-0.00198,-0.01587,0.14313,-0.06699,-0.02029,0.01053,-0.04196
9.5415,-0.17624,-0.47607,-0.01846,-0.02762,-0.01083,-0.04913,-0.02853,0.0444,-0.01602,-0.00351,-0.01434,0.10056,-0.05066,-0.01328,0.0116,-0.04242
9.542,-0.16922,-0.50018,-0.00641,-0.02747,-0.00061,-0.05432,-0.04944,0.01465,-0.01358,-0.00351,-0.01297,0.05646,-0.03128,-0.00549,0.0119,-0.04257
9.5425,-0.16754,-0.43015,0.01083,-0.02411,0.01099,-0.05829,-0.07065,-0.0087,-0.01297,-0.00565,-0.01236,0.00992,-0.01877,-0.00046,0.0116,-0.04257
9.543,-0.16068,-0.33142,0.03204,-0.01938,0.01785,-0.05875,-0.08179,-0.0206,-0.01297,-0.00854,-0.01343,-0.03281,-0.01251,0.0,0.00763,-0.0415
9.5435,-0.1358,-0.2829,0.05325,-0.01389,0.01999,-0.05783,-0.0827,-0.02258,-0.0116,-0.01068,-0.01465,-0.06729,-0.009,-0.00259,0.0061,-0.04227
9.544,-0.10223,-0.26947,0.07233,-0.00793,0.01678,-0.05905,-0.09705,-0.02045,-0.01144,-0.01282,-0.01434,-0.0946,-0.01038,-0.0061,0.00687,-0.04272
9.5445,-0.08331,-0.22308,0.09232,-0.00504,0.01022,-0.05844,-0.13489,-0.01541,-0.01175,-0.01526,-0.01343,-0.12024,-0.0174,-0.01114,0.00778,-0.04349
9.545,-0.08255,-0.1387,0.1181,-0.00656,-0.00275,-0.05417,-0.16602,-0.01297,-0.01312,-0.0174,-0.01343,-0.14877,-0.02304,-0.01434,0.00992,-0.04395
9.5455,-0.07996,-0.06073,0.1474,-0.00946,-0.02136,-0.04379,-0.14664,-0.0148,-0.01236,-0.01801,-0.01404,-0.17593,-0.02106,-0.01465,0.01022,-0.04425
9.546,-0.05707,0.00198,0.16357,-0.00854,-0.04013,-0.03067,-0.07538,-0.01877,-0.01053,-0.01877,-0.0145,-0.1947,-0.01099,-0.0116,0.00992,-0.04379
9.5465,-0.01587,0.08041,0.15457,0.0,-0.05508,-0.01785,-0.0058,-0.02014,-0.00946,-0.02182,-0.01511,-0.19882,0.00137,-0.00946,0.01007,-0.04318
9.547,0.02045,0.16998,0.12848,0.01266,-0.06729,-0.009,0.01114,-0.01984,-0.01007,-0.02563,-0.01587,-0.19211,0.01038,-0.0119,0.01068,-0.04196
9.5475,0.02777,0.23697,0.1059,0.02228,-0.08438,-0.00977,-0.02182,-0.02258,-0.01114,-0.02975,-0.01694,-0.18921,0.01358,-0.0174,0.01068,-0.04242
9.548,0.01266,0.28824,0.09781,0.02625,-0.10132,-0.01938,-0.0737,-0.02975,-0.01129,-0.0325,-0.01633,-0.20248,0.01022,-0.02243,0.00961,-0.04303
9.5485,0.00046,0.36148,0.09995,0.02579,-0.10559,-0.03128,-0.13107,-0.03723,-0.01205,-0.03387,-0.01602,-0.22888,0.00107,-0.02594,0.00916,-0.04349
9.549,-0.00031,0.45242,0.10818,0.02869,-0.09705,-0.03464,-0.18555,-0.03906,-0.01358,-0.03555,-0.01587,-0.25345,-0.009,-0.02777,0.00748,-0.04272
9.5495,0.0,0.50873,0.11688,0.03555,-0.08682,-0.0354,-0.20615,-0.03342,-0.01312,-0.03601,-0.01678,-0.2626,-0.01831,-0.02747,0.00793,-0.04288
9.55,-0.00336,0.51376,0.12146,0.04333,-0.07767,-0.03937,-0.16327,-0.02258,-0.01129,-0.03616,-0.01663,-0.26474,-0.02747,-0.02655,0.009,-0.04181
9.5505,-0.00687,0.50812,0.11948,0.04745,-0.06119,-0.04791,-0.0531,-0.01404,-0.00977,-0.03891,-0.01602,-0.26932,-0.03815,-0.0267,0.00992,-0.04089
9.551,-0.00809,0.53055,0.11444,0.05035,-0.03616,-0.05615,0.10818,-0.00946,-0.00992,-0.04059,-0.01663,-0.27756,-0.04562,-0.02594,0.00992,-0.04074
9.5515,-0.0116,0.57663,0.11322,0.05463,-0.01297,-0.06058,0.2771,-0.00641,-0.01083,-0.04135,-0.01694,-0.28595,-0.04608,-0.0235,0.01099,-0.04089
9.552,-0.01999,0.61508,0.11414,0.06363,-0.00168,-0.06241,0.36407,-0.0029,-0.009,-0.04135,-0.01617,-0.29007,-0.04395,-0.02106,0.01221,-0.04257
9.5525,-0.02777,0.62317,0.11002,0.07233,-0.00031,-0.06561,0.29846,-0.0029,-0.00717,-0.04013,-0.01541,-0.29114,-0.04074,-0.01999,0.01175,-0.04196
9.553,-0.03281,0.60028,0.09628,0.06851,-0.0032,-0.07202,0.13779,-0.0058,-0.00626,-0.03845,-0.0145,-0.2919,-0.03036,-0.01801,0.01053,-0.04181
9.5535,-0.0351,0.56137,0.07584,0.04105,-0.0148,-0.07553,0.02914,-0.00641,-0.00717,-0.03571,-0.01373,-0.29282,-0.01022,-0.01617,0.00946,-0.04135
9.554,-0.03891,0.52444,0.05157,-0.00702,-0.04288,-0.07828,0.04303,-0.00412,-0.00702,-0.03143,-0.01404,-0.29205,0.0061,-0.01465,0.01038,-0.04181
9.5545,-0.04379,0.50079,0.02625,-0.04669,-0.08301,-0.08057,0.11093,-0.00031,-0.00656,-0.02899,-0.01541,-0.28732,0.00671,-0.01816,0.01175,-0.04166
9.555,-0.04578,0.49271,-0.00244,-0.05402,-0.11154,-0.07706,0.13992,0.00275,-0.00717,-0.02686,-0.01694,-0.28046,-0.01221,-0.0264,0.00961,-0.04059
9.5555,-0.04501,0.49164,-0.03311,-0.03433,-0.11444,-0.07141,0.11963,0.00275,-0.00931,-0.02747,-0.01678,-0.27435,-0.04211,-0.03616,0.01038,-0.04044
9.556,-0.04196,0.48996,-0.06348,-0.00504,-0.09903,-0.06577,0.09384,0.00168,-0.01038,-0.03082,-0.01755,-0.27206,-0.06989,-0.04166,0.01022,-0.04196
9.5565,-0.03937,0.48553,-0.08789,0.03952,-0.08514,-0.06302,0.07629,-0.00046,-0.00885,-0.03479,-0.01694,-0.27191,-0.09094,-0.03937,0.01221,-0.04272
9.557,-0.03601,0.4837,-0.1062,0.10757,-0.07813,-0.06073,0.05905,-0.00458,-0.00717,-0.03952,-0.01694,-0.27008,-0.09857,-0.03098,0.01541,-0.04288
9.5575,-0.03311,0.48523,-0.11597,0.19318,-0.06973,-0.06027,0.04715,-0.00946,-0.00641,-0.04349,-0.01572,-0.26611,-0.09155,-0.02319,0.01587,-0.04242
9.558,-0.0296,0.48447,-0.11902,0.26596,-0.05402,-0.05554,0.0441,-0.01343,-0.00778,-0.04852,-0.01434,-0.25864,-0.07217,-0.01678,0.01511,-0.04272
9.5585,-0.02747,0.47913,-0.11688,0.29663,-0.0354,-0.04639,0.03265,-0.01465,-0.00824,-0.05249,-0.01434,-0.24628,-0.04623,-0.01099,0.01465,-0.04349
9.559,-0.02609,0.46982,-0.11398,0.28015,-0.02167,-0.03952,0.00275,-0.01617,-0.00809,-0.05463,-0.01526,-0.22339,-0.02274,-0.00458,0.01495,-0.04288
9.5595,-0.02441,0.45685,-0.11078,0.23056,-0.01389,-0.03632,-0.03067,-0.01968,-0.00702,-0.05402,-0.01556,-0.19089,-0.00748,0.00076,0.01572,-0.04211
9.56,-0.02365,0.43884,-0.10941,0.1683,-0.00946,-0.04028,-0.04333,-0.02151,-0.00595,-0.05112,-0.0145,-0.15335,-0.0061,0.00153,0.01678,-0.0412
9.5605,-0.02411,0.42038,-0.10712,0.11627,-0.00473,-0.0444,-0.03723,-0.02121,-0.00549,-0.05173,-0.01343,-0.1181,-0.01556,-0.00488,0.01587,-0.04089
9.561,-0.02426,0.41016,-0.10361,0.08499,0.00351,-0.04517,-0.03937,-0.01892,-0.00534,-0.05386,-0.01495,-0.08545,-0.02899,-0.0148,0.01526,-0.04089
9.5615,-0.02609,0.41138,-0.09979,0.07462,0.01312,-0.04257,-0.07004,-0.01602,-0.0058,-0.05768,-0.01465,-0.05325,-0.03769,-0.02121,0.01328,-0.04028
9.562,-0.03006,0.4158,-0.09705,0.0708,0.01556,-0.03891,-0.12131,-0.01434,-0.00702,-0.06119,-0.0148,-0.0293,-0.04272,-0.02319,0.01389,-0.04074
9.5625,-0.03403,0.41,-0.09521,0.06439,0.00656,-0.03052,-0.16937,-0.01541,-0.00793,-0.06363,-0.01465,-0.02441,-0.04868,-0.02426,0.01312,-0.04135
9.563,-0.03571,0.38574,-0.09171,0.05692,-0.00717,-0.02396,-0.20187,-0.01968,-0.00961,-0.06592,-0.01511,-0.03525,-0.05157,-0.02777,0.0145,-0.04059
9.5635,-0.0351,0.35004,-0.08606,0.04852,-0.01053,-0.02411,-0.22629,-0.0267,-0.01007,-0.07263,-0.01663,-0.05219,-0.04486,-0.03067,0.01465,-0.04196
9.564,-0.03021,0.31235,-0.08118,0.04349,-0.00153,-0.02655,-0.24872,-0.03281,-0.00916,-0.08728,-0.0174,-0.07553,-0.03036,-0.03036,0.01587,-0.04318
9.5645,-0.02289,0.27603,-0.08041,0.04364,0.00931,-0.02701,-0.25757,-0.03296,-0.00687,-0.12695,-0.01602,-0.11078,-0.02106,-0.02777,0.01678,-0.04364
9.565,-0.0145,0.24307,-0.08347,0.04852,0.01007,-0.02243,-0.23682,-0.02625,-0.0058,-0.22827,-0.01511,-0.15991,-0.02472,-0.02701,0.01694,-0.04303
9.5655,-0.00793,0.21637,-0.08453,0.05493,0.00046,-0.01968,-0.16693,-0.01678,-0.00656,-0.3923,-0.01587,-0.22079,-0.0325,-0.02838,0.01816,-0.04333
9.566,-0.00397,0.20172,-0.08301,0.056,-0.01526,-0.03036,-0.03357,-0.00992,-0.00763,-0.54291,-0.01678,-0.2951,-0.03632,-0.03174,0.01923,-0.04395
9.5665,-0.00153,0.19531,-0.08194,0.05035,-0.03799,-0.04883,0.14023,-0.00259,-0.00687,-0.59052,-0.01724,-0.38223,-0.03372,-0.0322,0.02045,-0.04517
9.567,-0.00015,0.18829,-0.08057,0.04593,-0.06348,-0.06516,0.27069,0.01572,-0.00397,-0.54352,-0.01556,-0.49194,-0.0325,-0.02747,0.02014,-0.04578
9.5675,0.00229,0.16983,-0.08133,0.04501,-0.08301,-0.07248,0.26642,0.04089,-0.00198,-0.48004,-0.01404,-0.64758,-0.03723,-0.0206,0.02167,-0.04471
9.568,0.00763,0.13992,-0.08133,0.04288,-0.08743,-0.0676,0.13718,0.0499,-0.00183,-0.44556,-0.01328,-0.8667,-0.04196,-0.01404,0.02792,-0.04425
9.5685,0.01572,0.10208,-0.07935,0.03815,-0.07614,-0.056,-0.00366,0.03052,-0.0029,-0.4213,-0.01434,-1.12259,-0.04028,-0.01282,0.03571,-0.0444
9.569,0.02335,0.05844,-0.08194,0.03677,-0.05737,-0.04486,-0.04395,-0.00015,-0.00427,-0.38742,-0.01511,-1.35239,-0.03571,-0.01785,0.0441,-0.04517
9.5695,0.02945,0.01053,-0.09628,0.04181,-0.04028,-0.04562,0.03906,-0.01465,-0.00504,-0.34653,-0.01495,-1.52039,-0.03723,-0.02579,0.04852,-0.04562
9.57,0.03494,-0.03006,-0.11948,0.04913,-0.02609,-0.05295,0.16403,-0.0116,-0.00473,-0.30701,-0.01389,-1.64642,-0.05096,-0.03189,0.05005,-0.04486
9.5705,0.03952,-0.04761,-0.12909,0.04822,-0.01266,-0.05341,0.22964,-0.00702,-0.00427,-0.27115,-0.01389,-1.75537,-0.0708,-0.03448,0.05173,-0.04425
9.571,0.04593,-0.04425,-0.10254,0.03998,-0.00168,-0.04623,0.20935,-0.01053,-0.0032,-0.23819,-0.01419,-1.84235,-0.08499,-0.0325,0.05325,-0.04395
9.5715,0.05234,-0.04135,-0.04272,0.03052,0.00473,-0.0351,0.15289,-0.0174,-0.00198,-0.21469,-0.01282,-1.91254,-0.0827,-0.02594,0.05493,-0.0444
9.572,0.05981,-0.04761,0.01724,0.02472,0.0087,-0.02869,0.10498,-0.02213,-0.00061,-0.19821,-0.01221,-1.98822,-0.06271,-0.01343,0.05386,-0.0441
9.5725,0.06653,-0.05371,0.05234,0.02045,0.01266,-0.0267,0.06866,-0.02792,0.00046,-0.18433,-0.01144,-2.05444,-0.03876,-0.00229,0.05157,-0.04318
9.573,0.07141,-0.05356,0.05981,0.01801,0.01999,-0.02213,0.03616,-0.03876,0.00031,-0.16251,-0.01205,-2.05643,-0.02701,0.00061,0.04944,-0.04303
9.5735,0.07217,-0.05402,0.05539,0.01877,0.02792,-0.01678,0.01282,-0.05325,-0.00107,-0.13641,-0.01328,-1.97342,-0.02777,-0.00534,0.04791,-0.04456
9.574,0.06912,-0.06317,0.04959,0.02014,0.03052,-0.01251,0.00504,-0.06317,-0.00381,-0.10971,-0.01541,-1.83548,-0.03067,-0.01175,0.04547,-0.04364
9.5745,0.06546,-0.07568,0.04166,0.01663,0.02914,-0.01526,0.00183,-0.0676,-0.00626,-0.08499,-0.01511,-1.67465,-0.02731,-0.01587,0.04333,-0.04257
9.575,0.05798,-0.08484,0.02869,0.00687,0.03021,-0.02487,-0.0145,-0.06836,-0.0087,-0.06119,-0.01328,-1.49796,-0.02106,-0.01617,0.04333,-0.04257
9.5755,0.04105,-0.08728,0.01144,-0.00488,0.0412,-0.0386,-0.047,-0.06821,-0.01099,-0.03799,-0.01236,-1.31683,-0.01801,-0.0148,0.04471,-0.04333
9.576,0.02243,-0.0856,-0.0029,-0.01266,0.05051,-0.05783,-0.08087,-0.06699,-0.01007,-0.01541,-0.01328,-1.15173,-0.01648,-0.01495,0.04501,-0.04379
9.5765,0.01587,-0.08179,-0.01205,-0.01633,0.03387,-0.07675,-0.09644,-0.0589,-0.00778,0.00732,-0.01343,-1.00708,-0.01572,-0.01633,0.04578,-0.04471
9.577,0.02548,-0.07645,-0.02075,-0.01907,-0.00122,-0.08301,-0.09094,-0.03632,-0.00656,0.02869,-0.01312,-0.86487,-0.01572,-0.01907,0.047,-0.04547
9.5775,0.0386,-0.06943,-0.04059,-0.02365,-0.02258,-0.07431,-0.08224,0.00748,-0.00854,0.04623,-0.01266,-0.71182,-0.0174,-0.02029,0.04852,-0.04562
9.578,0.04578,-0.06073,-0.06393,-0.02945,-0.0206,-0.05493,-0.08514,0.06454,-0.01038,0.06302,-0.01312,-0.54932,-0.01923,-0.01892,0.0499,-0.04456
9.5785,0.04868,-0.05142,-0.07599,-0.03754,-0.02701,-0.04761,-0.09613,0.1123,-0.01007,0.08011,-0.01419,-0.38406,-0.01816,-0.0174,0.04898,-0.04425
9.579,0.0528,-0.04089,-0.06927,-0.04761,-0.06226,-0.05844,-0.10437,0.12375,-0.00977,0.09613,-0.01373,-0.22675,-0.01328,-0.01526,0.04929,-0.04593
9.5795,0.06149,-0.0325,-0.05753,-0.06058,-0.10559,-0.08163,-0.11597,0.09613,-0.00931,0.11139,-0.0119,-0.08865,-0.00854,-0.0119,0.04959,-0.04745
9.58,0.07339,-0.02884,-0.0589,-0.07309,-0.13275,-0.103,-0.13977,0.04913,-0.00916,0.12283,-0.01068,0.02502,-0.009,-0.00992,0.04883,-0.04791
9.5805,0.08606,-0.02945,-0.07416,-0.0856,-0.14099,-0.10574,-0.14099,0.01053,-0.009,0.13382,-0.01083,0.12177,-0.0145,-0.0087,0.04852,-0.04761
9.581,0.0975,-0.03036,-0.09766,-0.09644,-0.13489,-0.08987,-0.05569,-0.00534,-0.00946,0.14694,-0.01007,0.21332,-0.01953,-0.00992,0.04913,-0.04593
9.5815,0.11017,-0.03128,-0.11337,-0.1059,-0.10986,-0.06699,0.09628,0.00031,-0.00946,0.16052,-0.00977,0.30167,-0.0206,-0.01114,0.05035,-0.04639
9.582,0.12573,-0.03494,-0.10574,-0.11932,-0.07904,-0.05112,0.18158,0.01404,-0.00839,0.17166,-0.00916,0.38315,-0.01846,-0.01114,0.04883,-0.047
9.5825,0.13824,-0.04044,-0.07294,-0.14297,-0.06744,-0.05219,0.12024,0.02319,-0.00824,0.17944,-0.00885,0.45609,-0.0174,-0.01129,0.04593,-0.04745
9.583,0.14252,-0.04486,-0.02747,-0.1709,-0.08102,-0.0621,0.00671,0.02457,-0.01038,0.18524,-0.00854,0.52734,-0.01984,-0.01175,0.04105,-0.04669
9.5835,0.13718,-0.04684,0.01373,-0.18631,-0.09247,-0.07477,-0.03754,0.02228,-0.01373,0.19058,-0.01083,0.59982,-0.02487,-0.01343,0.03616,-0.04593
9.584,0.12894,-0.04761,0.04013,-0.16968,-0.07874,-0.07935,-0.01511,0.01907,-0.01617,0.19516,-0.01129,0.67047,-0.02884,-0.01419,0.03006,-0.04593
9.5845,0.12573,-0.04852,0.05295,-0.11642,-0.05188,-0.07706,-0.00671,0.01495,-0.01602,0.19638,-0.0116,0.7309,-0.0293,-0.01511,0.02243,-0.04623
9.585,0.12955,-0.04593,0.05524,-0.0528,-0.04166,-0.06577,-0.03494,0.01129,-0.0145,0.19196,-0.01129,0.78278,-0.02762,-0.01648,0.01602,-0.04654
9.5855,0.13458,-0.03647,0.04837,-0.01984,-0.05859,-0.05341,-0.06119,0.01144,-0.01236,0.18158,-0.01099,0.82779,-0.0264,-0.01755,0.00931,-0.04623
9.586,0.1358,-0.01648,0.04623,-0.03036,-0.08514,-0.04456,-0.06104,0.01541,-0.01221,0.16922,-0.01053,0.86838,-0.0267,-0.01938,0.00153,-0.04608
9.5865,0.13077,0.01129,0.0531,-0.05829,-0.09842,-0.0412,-0.0502,0.01801,-0.01266,0.16083,-0.01038,0.90637,-0.02838,-0.0209,-0.00824,-0.04532
9.587,0.12466,0.04547,0.05615,-0.06943,-0.08499,-0.03662,-0.04318,0.01816,-0.01297,0.15472,-0.01053,0.94315,-0.02899,-0.02151,-0.01801,-0.04395
9.5875,0.12192,0.08011,0.02625,-0.05508,-0.05356,-0.03342,-0.03906,0.01892,-0.01129,0.14328,-0.01175,0.97565,-0.02899,-0.0206,-0.02502,-0.04242
9.588,0.12146,0.1059,-0.04517,-0.03937,-0.02319,-0.0322,-0.03021,0.02182,-0.01099,0.12192,-0.01266,1.00174,-0.03021,-0.01999,-0.03098,-0.04303
9.5885,0.11887,0.11475,-0.11505,-0.03784,-0.009,-0.02945,-0.01892,0.02335,-0.01297,0.10239,-0.01221,1.0231,-0.03204,-0.0209,-0.03357,-0.04349
9.589,0.11337,0.10117,-0.12772,-0.04105,-0.01389,-0.03189,-0.00977,0.02304,-0.01465,0.09735,-0.01205,1.04523,-0.03403,-0.0209,-0.03342,-0.04303
9.5895,0.10788,0.05661,-0.07507,-0.03159,-0.02487,-0.03296,-0.00977,0.01984,-0.01404,0.09781,-0.01236,1.07178,-0.03448,-0.01953,-0.03525,-0.04227
9.59,0.10666,-0.02441,-0.00351,-0.00885,-0.02991,-0.03525,-0.02014,0.01404,-0.0119,0.09445,-0.01297,1.09695,-0.0351,-0.01862,-0.03937,-0.04196
9.5905,0.10651,-0.12955,0.03937,0.01282,-0.02579,-0.03647,-0.03525,0.00732,-0.01129,0.08591,-0.01221,1.11511,-0.03571,-0.01785,-0.04517,-0.0415
9.591,0.10406,-0.22842,0.05188,0.02808,-0.01755,-0.0386,-0.04318,0.00443,-0.01343,0.08362,-0.01175,1.12564,-0.0354,-0.01801,-0.04669,-0.0412
9.5915,0.09903,-0.29587,0.05371,0.03922,-0.0116,-0.03937,-0.04059,0.00519,-0.01556,0.07843,-0.01205,1.13083,-0.03387,-0.01877,-0.04578,-0.04211
9.592,0.09476,-0.32501,0.0528,0.04822,-0.01007,-0.03708,-0.03433,0.00183,-0.01602,0.06607,-0.01236,1.13388,-0.03296,-0.01984,-0.04333,-0.04303
9.5925,0.09399,-0.32684,0.04318,0.05325,-0.01144,-0.03067,-0.03067,-0.00763,-0.01572,0.05371,-0.01328,1.13403,-0.03281,-0.02136,-0.04349,-0.04333
9.593,0.09811,-0.31433,0.01999,0.05402,-0.01236,-0.02457,-0.03113,-0.01724,-0.01602,0.04852,-0.01343,1.1319,-0.03326,-0.02304,-0.04242,-0.04181
9.5935,0.103,-0.29739,-0.01038,0.05295,-0.00961,-0.02045,-0.03067,-0.02457,-0.01678,0.04898,-0.01328,1.12946,-0.03281,-0.02441,-0.04044,-0.03998
9.594,0.10468,-0.28122,-0.0441,0.04715,-0.00275,-0.01511,-0.0296,-0.03067,-0.01694,0.04379,-0.01419,1.12549,-0.03113,-0.02502,-0.03601,-0.04044
9.5945,0.10376,-0.2655,-0.07568,0.03555,0.00244,-0.01831,-0.02762,-0.03555,-0.01663,0.03265,-0.01312,1.11908,-0.0296,-0.02396,-0.03464,-0.04211
9.595,0.10269,-0.25024,-0.10086,0.01953,0.00443,-0.02487,-0.02594,-0.03464,-0.01709,0.02182,-0.01251,1.10718,-0.03052,-0.02289,-0.03525,-0.04227
9.5955,0.10468,-0.23041,-0.11597,0.0032,0.00519,-0.0296,-0.02533,-0.03052,-0.01785,0.01526,-0.01251,1.09039,-0.0325,-0.02243,-0.03708,-0.04211
9.596,0.10788,-0.20325,-0.12085,-0.01236,0.00626,-0.03204,-0.02518,-0.02548,-0.01831,0.00763,-0.01328,1.07132,-0.03357,-0.02151,-0.03784,-0.04257
9.5965,0.11002,-0.17075,-0.11917,-0.02594,0.00778,-0.03571,-0.02472,-0.02106,-0.0174,-0.00595,-0.01419,1.05179,-0.03342,-0.02106,-0.03662,-0.0441
9.597,0.11032,-0.1387,-0.11261,-0.03647,0.00702,-0.03784,-0.02411,-0.01678,-0.01587,-0.02274,-0.01526,1.03134,-0.03204,-0.02075,-0.03601,-0.04425
9.5975,0.10941,-0.11047,-0.10605,-0.04547,0.00488,-0.03876,-0.0235,-0.01434,-0.01587,-0.03571,-0.01495,1.00922,-0.03311,-0.02182,-0.03601,-0.04379
9.598,0.10406,-0.0914,-0.10162,-0.06058,0.0032,-0.04242,-0.02182,-0.01419,-0.0174,-0.03983,-0.01511,0.98633,-0.03464,-0.02213,-0.03769,-0.04288
9.5985,0.09537,-0.07965,-0.09979,-0.08942,0.00534,-0.04196,-0.0206,-0.01785,-0.01846,-0.04196,-0.01373,0.96207,-0.03586,-0.02304,-0.03876,-0.04242
9.599,0.08652,-0.07187,-0.10178,-0.13016,0.01099,-0.0412,-0.02014,-0.02289,-0.0174,-0.04623,-0.01297,0.93689,-0.03616,-0.02213,-0.03876,-0.04196
9.5995,0.08194,-0.06485,-0.10437,-0.17029,0.02151,-0.04089,-0.02106,-0.02838,-0.01556,-0.05768,-0.01221,0.9108,-0.03677,-0.01968,-0.0386,-0.04166
9.6,0.08392,-0.0563,-0.10712,-0.19684,0.03464,-0.03967,-0.02167,-0.03082,-0.01404,-0.06836,-0.01236,0.88379,-0.03448,-0.01755,-0.03723,-0.04089
9.6005,0.0885,-0.04974,-0.11032,-0.21042,0.05463,-0.03754,-0.02197,-0.03021,-0.01358,-0.07599,-0.01099,0.8577,-0.03235,-0.01755,-0.0354,-0.04166
9.601,0.08911,-0.04898,-0.11353,-0.21988,0.08072,-0.03571,-0.02121,-0.02762,-0.01419,-0.08102,-0.01083,0.83359,-0.03021,-0.01877,-0.03448,-0.04105
9.6015,0.08469,-0.05463,-0.1149,-0.23544,0.10941,-0.03586,-0.02014,-0.02441,-0.0145,-0.09125,-0.01053,0.81146,-0.02899,-0.01984,-0.03647,-0.03998
9.602,0.07767,-0.06271,-0.11475,-0.25589,0.12741,-0.03906,-0.01999,-0.02274,-0.01526,-0.11185,-0.01129,0.78857,-0.02899,-0.01999,-0.03967,-0.03891
9.6025,0.07217,-0.07126,-0.11307,-0.26703,0.12772,-0.04547,-0.02121,-0.02151,-0.01633,-0.13321,-0.01114,0.76263,-0.02716,-0.0177,-0.04166,-0.03922
9.603,0.07019,-0.07889,-0.11002,-0.26123,0.11032,-0.04745,-0.02335,-0.01892,-0.01678,-0.13626,-0.01007,0.7338,-0.0267,-0.01633,-0.04059,-0.04028
9.6035,0.06973,-0.08606,-0.10544,-0.24399,0.07767,-0.05066,-0.0238,-0.01556,-0.01678,-0.11688,-0.01114,0.70297,-0.02594,-0.01755,-0.03738,-0.0412
9.604,0.06912,-0.09171,-0.09583,-0.22705,0.03479,-0.05585,-0.02151,-0.01022,-0.01694,-0.0885,-0.0116,0.67474,-0.02686,-0.01877,-0.03708,-0.04105
9.6045,0.06821,-0.09674,-0.08514,-0.21133,-0.01785,-0.06271,-0.01877,-0.00549,-0.01724,-0.06638,-0.01083,0.6514,-0.02609,-0.01877,-0.03845,-0.03998
9.605,0.06821,-0.10086,-0.07645,-0.19424,-0.08118,-0.06897,-0.01678,-0.00229,-0.01785,-0.05234,-0.01175,0.63263,-0.02441,-0.01816,-0.04044,-0.03952
9.6055,0.06546,-0.10513,-0.07233,-0.17532,-0.15289,-0.07523,-0.01556,-0.00198,-0.0177,-0.03937,-0.01266,0.61371,-0.02548,-0.01785,-0.04074,-0.03937
9.606,0.0589,-0.10925,-0.06851,-0.15808,-0.21286,-0.07904,-0.01511,-0.00137,-0.01694,-0.02319,-0.01358,0.58868,-0.02701,-0.01831,-0.04059,-0.03906
9.6065,0.05035,-0.11078,-0.06241,-0.14297,-0.2359,-0.07919,-0.01587,0.0,-0.01678,-0.00656,-0.01236,0.55267,-0.02899,-0.01801,-0.04044,-0.03876
9.607,0.04257,-0.10696,-0.05463,-0.12894,-0.21652,-0.07263,-0.01862,0.00122,-0.01663,0.00717,-0.01114,0.5069,-0.02945,-0.01648,-0.04013,-0.03845
9.6075,0.03677,-0.10101,-0.04822,-0.11765,-0.17822,-0.06302,-0.01999,0.00259,-0.01617,0.02045,-0.01053,0.46204,-0.0296,-0.01663,-0.03983,-0.03769
9.608,0.03143,-0.09476,-0.04318,-0.11002,-0.14389,-0.05615,-0.01801,0.0032,-0.01678,0.03586,-0.01144,0.43518,-0.03067,-0.01663,-0.03906,-0.03647
9.6085,0.02533,-0.08392,-0.04181,-0.10605,-0.12573,-0.05035,-0.01465,0.0032,-0.0177,0.05051,-0.01282,0.42465,-0.03036,-0.01678,-0.03906,-0.03479
9.609,0.01755,-0.06454,-0.04028,-0.10193,-0.11948,-0.04456,-0.01434,0.00153,-0.01801,0.0621,-0.01282,0.41153,-0.03143,-0.01816,-0.0383,-0.03311
9.6095,0.009,-0.04486,-0.03845,-0.09735,-0.11429,-0.03677,-0.01602,0.00076,-0.01602,0.0705,-0.01205,0.37796,-0.03281,-0.01984,-0.03723,-0.03555
9.61,0.00076,-0.03693,-0.03403,-0.09125,-0.09949,-0.02808,-0.01755,0.00214,-0.01556,0.07629,-0.01053,0.32837,-0.03326,-0.02136,-0.03754,-0.03662
9.6105,-0.00778,-0.04639,-0.02975,-0.08392,-0.07462,-0.02319,-0.0177,0.00351,-0.01663,0.07996,-0.01175,0.28137,-0.03387,-0.02167,-0.03799,-0.03708
9.611,-0.01892,-0.06622,-0.02548,-0.07462,-0.05096,-0.02502,-0.0174,0.00412,-0.01755,0.08545,-0.01297,0.25375,-0.03372,-0.02045,-0.03571,-0.03586
9.6115,-0.0589,-0.08636,-0.02045,-0.06409,-0.03952,-0.02869,-0.01678,0.00412,-0.01709,0.09598,-0.0145,0.25085,-0.03357,-0.01801,-0.0325,-0.03525
9.612,-0.186,-0.10239,-0.01373,-0.05127,-0.03922,-0.03113,-0.0177,0.00565,-0.01709,0.11047,-0.01434,0.27069,-0.03448,-0.0177,-0.02899,-0.03571
9.6125,-0.39902,-0.11246,-0.00549,-0.0322,-0.0415,-0.03006,-0.01923,0.0087,-0.01816,0.12604,-0.01373,0.30396,-0.03677,-0.01892,-0.02869,-0.03708
9.613,-0.56915,-0.11642,0.00137,-0.00366,-0.04288,-0.02609,-0.0209,0.01053,-0.01785,0.1384,-0.01389,0.32684,-0.03769,-0.0209,-0.02914,-0.03799
9.6135,-0.5722,-0.11261,0.0061,0.0351,-0.04288,-0.0238,-0.02106,0.0087,-0.01663,0.14954,-0.01404,0.31525,-0.03815,-0.01999,-0.02945,-0.03784
9.614,-0.45441,-0.10559,0.00763,0.07645,-0.03845,-0.02487,-0.01816,0.00595,-0.01556,0.16052,-0.0148,0.26962,-0.03632,-0.01999,-0.02899,-0.03876
9.6145,-0.35736,-0.09933,0.00595,0.1059,-0.03403,-0.02884,-0.01572,0.00397,-0.01495,0.17166,-0.01556,0.215,-0.03479,-0.02213,-0.02838,-0.03891
9.615,-0.32913,-0.09964,0.0032,0.11917,-0.0296,-0.03326,-0.01358,0.00458,-0.0145,0.18219,-0.01495,0.17426,-0.03372,-0.0235,-0.02838,-0.0386
9.6155,-0.31418,-0.10422,0.00046,0.12009,-0.02808,-0.03677,-0.00992,0.00214,-0.01419,0.1915,-0.0148,0.14618,-0.03357,-0.02365,-0.02808,-0.03815
9.616,-0.27359,-0.1059,-0.00351,0.11627,-0.02518,-0.03906,-0.00275,-0.00488,-0.01389,0.19913,-0.01434,0.11826,-0.03387,-0.02167,-0.02701,-0.03723
9.6165,-0.22797,-0.10284,-0.00763,0.10956,-0.02121,-0.04105,0.00473,-0.01297,-0.01373,0.20462,-0.01556,0.08682,-0.0325,-0.02014,-0.02502,-0.03784
9.617,-0.19882,-0.09766,-0.01297,0.09872,-0.01785,-0.04227,-0.00122,-0.01572,-0.01434,0.20996,-0.0148,0.05661,-0.03189,-0.01907,-0.02319,-0.03876
9.6175,-0.18219,-0.09445,-0.01709,0.0827,-0.01663,-0.04547,-0.0238,-0.01221,-0.01541,0.21347,-0.01495,0.03006,-0.03204,-0.01923,-0.0209,-0.03952
9.618,-0.16403,-0.09232,-0.02014,0.06378,-0.01755,-0.04852,-0.04883,-0.00595,-0.01694,0.21393,-0.01556,0.00885,-0.03265,-0.01923,-0.01907,-0.04028
9.6185,-0.14282,-0.08896,-0.02274,0.04501,-0.01663,-0.05081,-0.05432,-0.00092,-0.0177,0.21255,-0.01541,-0.01282,-0.03265,-0.01938,-0.01801,-0.04089
9.619,-0.12604,-0.08286,-0.02686,0.0322,-0.01617,-0.05325,-0.03174,0.00214,-0.01633,0.2095,-0.01434,-0.03708,-0.03159,-0.01892,-0.01846,-0.04196
9.6195,-0.11642,-0.0769,-0.03174,0.02319,-0.01297,-0.05386,0.00198,0.00504,-0.0145,0.20844,-0.01251,-0.06027,-0.03067,-0.0174,-0.01785,-0.04288
9.62,-0.11017,-0.07645,-0.03845,0.01358,-0.01312,-0.05203,0.01648,0.00763,-0.0119,0.20737,-0.0119,-0.07416,-0.03113,-0.01648,-0.01633,-0.04288
9.6205,-0.10101,-0.08087,-0.04608,-0.00015,-0.0119,-0.04929,0.00198,0.00748,-0.01099,0.20432,-0.01251,-0.08072,-0.03159,-0.01724,-0.01541,-0.04196
9.621,-0.08606,-0.08713,-0.05035,-0.0145,-0.01236,-0.04837,-0.02075,0.00412,-0.0116,0.20172,-0.01328,-0.09155,-0.03143,-0.01831,-0.01373,-0.04044
9.6215,-0.06729,-0.09369,-0.05249,-0.02594,-0.01251,-0.04761,-0.02884,0.00229,-0.01297,0.19608,-0.01328,-0.11246,-0.03021,-0.01816,-0.01236,-0.03799
9.622,-0.04593,-0.10086,-0.05539,-0.03098,-0.01236,-0.04852,-0.02243,0.00153,-0.01389,0.19104,-0.01373,-0.13199,-0.02991,-0.01831,-0.01053,-0.03769
9.6225,-0.02457,-0.10849,-0.06165,-0.03052,-0.01266,-0.05051,-0.01511,0.00061,-0.01343,0.18509,-0.01434,-0.13626,-0.0296,-0.01816,-0.00824,-0.03815
9.623,-0.00488,-0.11108,-0.06744,-0.02716,-0.01297,-0.05173,-0.01358,-0.00107,-0.01282,0.17715,-0.01434,-0.12192,-0.02991,-0.01846,-0.00732,-0.0383
9.6235,0.01419,-0.10681,-0.06165,-0.02106,-0.01266,-0.05081,-0.01221,-0.0032,-0.01175,0.16754,-0.0145,-0.09521,-0.03174,-0.01785,-0.00717,-0.0386
9.624,0.0322,-0.09766,-0.04379,-0.01114,-0.01373,-0.04868,-0.01099,-0.00458,-0.01266,0.15717,-0.01434,-0.06699,-0.0322,-0.01724,-0.00671,-0.03876
9.6245,0.04623,-0.08942,-0.02457,0.00565,-0.01282,-0.04807,-0.01266,-0.00427,-0.01312,0.14893,-0.0145,-0.04318,-0.03174,-0.01709,-0.00519,-0.0383
9.625,0.05188,-0.08453,-0.01541,0.0293,-0.00961,-0.04974,-0.01572,-0.00488,-0.01236,0.14313,-0.01495,-0.03632,-0.02991,-0.01633,-0.00427,-0.0386
9.6255,0.04883,-0.08224,-0.01617,0.05646,-0.00397,-0.05096,-0.01663,-0.00427,-0.01221,0.13794,-0.0148,-0.05432,-0.02838,-0.01572,-0.00397,-0.03876
9.626,0.04745,-0.07797,-0.0177,0.07782,0.00244,-0.0499,-0.0145,-0.00244,-0.01373,0.13397,-0.01419,-0.08881,-0.02884,-0.01541,-0.00351,-0.03891
9.6265,0.05432,-0.06958,-0.01495,0.08041,0.00885,-0.04852,-0.01282,-0.00031,-0.0148,0.12894,-0.01389,-0.11795,-0.03159,-0.01724,-0.0032,-0.03906
9.627,0.06882,-0.05905,-0.01114,0.04898,0.01312,-0.04852,-0.01221,0.0,-0.01434,0.12482,-0.01587,-0.13107,-0.03479,-0.01968,-0.00229,-0.03937
9.6275,0.0795,-0.05402,-0.00916,-0.01999,0.0148,-0.04944,-0.01404,-0.00153,-0.01205,0.12131,-0.01587,-0.14709,-0.03433,-0.01968,-0.00015,-0.04013
9.628,0.08148,-0.05936,-0.01648,-0.09491,0.01099,-0.05234,-0.01816,-0.00412,-0.01038,0.1181,-0.01511,-0.19119,-0.03235,-0.01816,0.00061,-0.0412
9.6285,0.07462,-0.06821,-0.03143,-0.12741,0.00259,-0.0528,-0.02472,-0.00626,-0.01129,0.11459,-0.01282,-0.25604,-0.0322,-0.01724,0.00122,-0.0415
9.629,0.05554,-0.07248,-0.04425,-0.09583,-0.00778,-0.05234,-0.03159,-0.00748,-0.01221,0.11185,-0.01236,-0.30823,-0.03204,-0.01663,0.0032,-0.04257
9.6295,0.03052,-0.06638,-0.04486,-0.02014,-0.01968,-0.0499,-0.03647,-0.00748,-0.0116,0.10803,-0.01373,-0.32608,-0.03265,-0.01678,0.00702,-0.04349
9.63,0.01678,-0.05341,-0.03235,0.06424,-0.03342,-0.04791,-0.04059,-0.00885,-0.01022,0.10483,-0.01389,-0.31906,-0.03296,-0.01694,0.01099,-0.04303
9.6305,0.02213,-0.03922,-0.01312,0.13535,-0.05035,-0.04608,-0.04471,-0.00946,-0.00992,0.1004,-0.01251,-0.3064,-0.03326,-0.01663,0.01144,-0.04196
9.631,0.03555,-0.02579,0.00351,0.18127,-0.07401,-0.04791,-0.047,-0.00946,-0.01068,0.09476,-0.0119,-0.2887,-0.03281,-0.01617,0.00916,-0.0412
9.6315,0.04181,-0.01587,0.01175,0.18738,-0.09369,-0.0502,-0.04944,-0.00839,-0.01099,0.0885,-0.0119,-0.26291,-0.0322,-0.01648,0.00961,-0.04105
9.632,0.04089,-0.00961,0.00763,0.15427,-0.09949,-0.05142,-0.05646,-0.00687,-0.01007,0.08163,-0.01236,-0.23285,-0.03159,-0.01724,0.01236,-0.0415
9.6325,0.04303,-0.01053,-0.00549,0.11078,-0.08591,-0.05096,-0.06699,-0.00534,-0.009,0.07584,-0.01312,-0.1973,-0.03204,-0.01801,0.0148,-0.04166
9.633,0.05005,-0.01511,-0.01999,0.08972,-0.06363,-0.05081,-0.0708,-0.00443,-0.01053,0.07034,-0.01282,-0.14923,-0.03281,-0.0177,0.01526,-0.0412
9.6335,0.05814,-0.01831,-0.03174,0.08759,-0.04517,-0.05066,-0.05951,-0.00412,-0.0119,0.06348,-0.01328,-0.09232,-0.03265,-0.01678,0.01541,-0.03983
9.634,0.06561,-0.01587,-0.03998,0.07141,-0.03799,-0.05081,-0.0325,-0.00488,-0.01251,0.056,-0.01373,-0.03937,-0.03311,-0.01526,0.01617,-0.03799
9.6345,0.07095,-0.00488,-0.04425,0.03036,-0.03372,-0.04974,0.00198,-0.00504,-0.01236,0.0499,-0.01328,0.01297,-0.0322,-0.01434,0.01801,-0.03708
9.635,0.07401,0.00977,-0.047,-0.00702,-0.03342,-0.04807,0.03342,-0.00198,-0.01144,0.04486,-0.01266,0.07813,-0.03143,-0.01297,0.0209,-0.03815
9.6355,0.07584,0.01312,-0.04639,-0.00748,-0.02975,-0.04745,0.04593,0.00229,-0.01099,0.04074,-0.01266,0.16022,-0.03174,-0.01266,0.02274,-0.04089
9.636,0.07767,-0.00305,-0.04379,0.02075,-0.02991,-0.04623,0.03128,0.00458,-0.01068,0.03647,-0.01312,0.24246,-0.03281,-0.01358,0.02213,-0.04288
9.6365,0.07965,-0.02884,-0.03906,0.02838,-0.03021,-0.04257,0.0032,0.0032,-0.00961,0.03098,-0.01419,0.29938,-0.03281,-0.01556,0.01938,-0.04303
9.637,0.08026,-0.04562,-0.03265,-0.01251,-0.03036,-0.03937,-0.01266,0.00015,-0.00854,0.02441,-0.01404,0.32837,-0.03265,-0.0177,0.01984,-0.04318
9.6375,0.07874,-0.04761,-0.02213,-0.0737,-0.03372,-0.03998,-0.00748,-0.00198,-0.00931,0.0174,-0.01297,0.37781,-0.03281,-0.01892,0.01907,-0.04501
9.638,0.07767,-0.03967,-0.01129,-0.10803,-0.03235,-0.04395,0.00153,-0.00137,-0.01175,0.01083,-0.01297,0.52094,-0.03387,-0.02029,0.01938,-0.04578
9.6385,0.0766,-0.02991,-0.00916,-0.12375,-0.03189,-0.04974,-0.00641,0.00092,-0.01389,0.0058,-0.01343,0.75851,-0.03403,-0.01984,0.0206,-0.04593
9.639,0.07477,-0.02029,-0.02182,-0.15244,-0.03021,-0.05646,-0.04242,0.0029,-0.01495,0.00137,-0.01373,0.97168,-0.03448,-0.01907,0.02274,-0.04639
9.6395,0.07324,-0.01221,-0.03815,-0.16556,-0.0267,-0.05859,-0.10406,0.00412,-0.01266,-0.00458,-0.01343,1.04813,-0.03342,-0.01831,0.02441,-0.04684
9.64,0.07401,-0.00305,-0.04761,-0.10086,-0.02213,-0.05875,-0.17685,0.00427,-0.01038,-0.0087,-0.01282,1.02036,-0.03326,-0.01694,0.02533,-0.04639
9.6405,0.07706,0.00534,-0.04532,0.03769,-0.02243,-0.0592,-0.24475,0.00473,-0.01099,-0.01389,-0.01419,0.99701,-0.03433,-0.01755,0.0264,-0.04562
9.641,0.08011,0.00916,-0.03571,0.17273,-0.0238,-0.06393,-0.28931,0.00565,-0.01266,-0.01999,-0.01526,1.03973,-0.0354,-0.01938,0.0293,-0.0441
9.6415,0.07904,0.0116,-0.0235,0.25208,-0.02167,-0.07172,-0.29419,0.00626,-0.0145,-0.02457,-0.01587,1.14716,-0.03525,-0.02014,0.03189,-0.0415
9.642,0.07462,0.0174,-0.01266,0.27145,-0.02411,-0.07736,-0.27832,0.0032,-0.01404,-0.02853,-0.01526,1.28265,-0.03677,-0.02014,0.03281,-0.03891
9.6425,0.06638,0.02777,-0.01068,0.23575,-0.02594,-0.07629,-0.29694,-0.00519,-0.01358,-0.03174,-0.01389,1.39435,-0.03632,-0.02014,0.03311,-0.03815
9.643,0.05722,0.03235,-0.01724,0.14725,-0.02594,-0.06943,-0.36057,-0.01648,-0.01343,-0.03464,-0.01266,1.46072,-0.03708,-0.02014,0.03311,-0.03738
9.6435,0.04807,0.0209,-0.02808,0.05066,-0.02502,-0.05951,-0.39505,-0.02365,-0.01328,-0.0386,-0.01328,1.5184,-0.03647,-0.02167,0.03311,-0.03647
9.644,0.03738,-0.00122,-0.03647,0.02792,-0.02853,-0.0528,-0.32257,-0.02304,-0.01419,-0.04303,-0.01572,1.59332,-0.03647,-0.0235,0.03296,-0.03784
9.6445,0.0267,-0.02213,-0.04272,0.11475,-0.03372,-0.04807,-0.15503,-0.01587,-0.01404,-0.0473,-0.01709,1.64902,-0.03922,-0.02335,0.03174,-0.04013
9.645,0.01801,-0.03128,-0.04883,0.24521,-0.03448,-0.04623,-0.00641,-0.00763,-0.01404,-0.05096,-0.01694,1.63879,-0.03952,-0.02136,0.03006,-0.04242
9.6455,0.00961,-0.03311,-0.05417,0.32196,-0.03784,-0.04303,0.047,-0.00275,-0.0145,-0.05402,-0.01511,1.59302,-0.04074,-0.01831,0.02914,-0.04349
9.646,-0.00061,-0.03326,-0.05554,0.32455,-0.0383,-0.0386,0.10193,-0.00336,-0.0145,-0.05676,-0.0145,1.56967,-0.03906,-0.01724,0.02792,-0.04303
9.6465,-0.01205,-0.03128,-0.05295,0.2977,-0.03662,-0.03082,0.2858,-0.00763,-0.01465,-0.05875,-0.01526,1.54037,-0.03769,-0.01801,0.02655,-0.04318
9.647,-0.02502,-0.02441,-0.04852,0.26093,-0.03189,-0.0235,0.49316,-0.01144,-0.01526,-0.06119,-0.01526,1.4209,-0.03723,-0.01938,0.02518,-0.04349
9.6475,-0.03555,-0.01846,-0.04654,0.18127,-0.03632,-0.02075,0.49957,-0.01343,-0.01678,-0.06317,-0.01511,1.20422,-0.03479,-0.01938,0.02609,-0.04318
9.648,-0.04227,-0.02396,-0.05219,0.04913,-0.03464,-0.02228,0.34302,-0.01282,-0.0177,-0.06531,-0.01465,0.96634,-0.03448,-0.01907,0.02777,-0.04227
9.6485,-0.047,-0.03983,-0.06454,-0.0946,-0.03265,-0.02777,0.28961,-0.00992,-0.01694,-0.06699,-0.0148,0.75867,-0.03372,-0.01846,0.02838,-0.04272
9.649,-0.04929,-0.05142,-0.07538,-0.1886,-0.02716,-0.03281,0.39383,-0.00504,-0.01602,-0.06897,-0.01465,0.5658,-0.03403,-0.01831,0.02853,-0.04379
9.6495,-0.05341,-0.05173,-0.07797,-0.18082,-0.02106,-0.03632,0.4187,-0.00168,-0.01694,-0.0705,-0.01373,0.36682,-0.03387,-0.01785,0.02975,-0.0444
9.65,-0.056,-0.04578,-0.07782,-0.05508,-0.01556,-0.03891,0.24948,-0.00137,-0.0177,-0.07263,-0.01282,0.17273,-0.03403,-0.01801,0.03052,-0.04333
9.6505,-0.0563,-0.04333,-0.08514,0.12726,-0.01511,-0.04898,0.08133,-0.00259,-0.01755,-0.07309,-0.01297,0.00275,-0.03326,-0.01846,0.0296,-0.04257
9.651,-0.05402,-0.04242,-0.09262,0.25299,-0.01495,-0.06897,0.112,-0.00137,-0.01556,-0.07248,-0.01328,-0.14633,-0.03143,-0.01785,0.02838,-0.0441
9.6515,-0.05112,-0.04089,-0.07751,0.2565,-0.01556,-0.08972,0.26459,0.00107,-0.01434,-0.07126,-0.01312,-0.28976,-0.03143,-0.01617,0.02838,-0.04532
9.652,-0.0499,-0.03876,-0.03174,0.17593,-0.01022,-0.09842,0.33157,0.00351,-0.01373,-0.07263,-0.01236,-0.43991,-0.03189,-0.01541,0.02975,-0.04517
9.6525,-0.05112,-0.03586,0.0238,0.08972,-0.00626,-0.09048,0.25589,0.00458,-0.01465,-0.07477,-0.01358,-0.59875,-0.0325,-0.01602,0.03143,-0.04364
9.653,-0.05402,-0.03464,0.06012,0.03433,-0.00031,-0.07492,0.14252,0.00427,-0.01633,-0.0769,-0.0148,-0.76965,-0.03189,-0.01678,0.03189,-0.04089
9.6535,-0.05676,-0.03571,0.06577,-0.00412,0.00397,-0.06302,0.08148,0.00198,-0.01892,-0.07889,-0.01633,-0.9581,-0.03143,-0.01694,0.03296,-0.03998
9.654,-0.05798,-0.03586,0.05753,-0.04425,0.0119,-0.06088,0.06195,-0.00153,-0.0206,-0.07996,-0.0145,-1.17783,-0.03143,-0.01633,0.03357,-0.04074
9.6545,-0.05875,-0.03067,0.05096,-0.08713,0.01251,-0.06577,0.04425,-0.00275,-0.02045,-0.0798,-0.01404,-1.45187,-0.03189,-0.01663,0.03387,-0.04135
9.655,-0.05829,-0.02258,0.04684,-0.12741,0.00549,-0.07065,0.02121,-0.00351,-0.02045,-0.07843,-0.0148,-1.80283,-0.03204,-0.0174,0.03464,-0.04196
9.6555,-0.05966,-0.01556,0.03723,-0.15472,-0.00885,-0.07111,0.0032,-0.00473,-0.01999,-0.07797,-0.0145,-2.20444,-0.03357,-0.01877,0.03586,-0.04303
9.656,-0.06134,-0.01251,0.01846,-0.16083,-0.0386,-0.06592,-0.00854,-0.00748,-0.02045,-0.07889,-0.01434,-2.57309,-0.03342,-0.01831,0.03479,-0.04471
9.6565,-0.06012,-0.01175,0.00031,-0.15289,-0.08255,-0.05783,-0.02106,-0.00961,-0.02075,-0.08026,-0.01526,-2.82242,-0.03159,-0.01633,0.03174,-0.04578
9.657,-0.0563,-0.01236,-0.01389,-0.15152,-0.1181,-0.05142,-0.03433,-0.00931,-0.02075,-0.07965,-0.01678,-2.93533,-0.03128,-0.01511,0.0293,-0.04639
9.6575,-0.05173,-0.0145,-0.01953,-0.17761,-0.12558,-0.04486,-0.0444,-0.00809,-0.02075,-0.07919,-0.01694,-2.96036,-0.03159,-0.01572,0.02823,-0.04562
9.658,-0.04745,-0.01938,-0.01846,-0.23422,-0.10437,-0.04166,-0.05203,-0.00824,-0.02121,-0.07843,-0.01572,-2.94876,-0.0325,-0.01724,0.02777,-0.04471
9.6585,-0.04608,-0.02319,-0.0116,-0.29922,-0.07462,-0.04089,-0.05814,-0.01007,-0.02243,-0.08087,-0.01465,-2.93839,-0.03159,-0.01801,0.02731,-0.04532
9.659,-0.04562,-0.0264,-0.00336,-0.33737,-0.0528,-0.04257,-0.06485,-0.01236,-0.02319,-0.08316,-0.01572,-2.95502,-0.03036,-0.01846,0.02533,-0.04593
9.6595,-0.0444,-0.0293,0.00122,-0.32303,-0.0473,-0.04578,-0.06821,-0.01251,-0.02304,-0.08286,-0.01511,-2.98965,-0.03113,-0.01953,0.02548,-0.04578
9.66,-0.04257,-0.03098,-0.00015,-0.24994,-0.04837,-0.04684,-0.07187,-0.00977,-0.02319,-0.0824,-0.01389,-2.98889,-0.03128,-0.01984,0.02563,-0.04486
9.6605,-0.04028,-0.03235,-0.00397,-0.13962,-0.05096,-0.04318,-0.07706,-0.00702,-0.02258,-0.08148,-0.01404,-2.9126,-0.03113,-0.01938,0.02563,-0.0444
9.661,-0.04013,-0.03174,-0.00427,-0.02594,-0.05295,-0.0383,-0.08041,-0.00519,-0.02243,-0.08102,-0.01465,-2.78915,-0.03098,-0.02014,0.02533,-0.04532
9.6615,-0.03952,-0.02884,0.00031,0.05447,-0.04852,-0.03433,-0.07828,-0.00351,-0.02151,-0.08011,-0.01663,-2.68494,-0.03098,-0.02029,0.02518,-0.04578
9.662,-0.0386,-0.02686,0.0087,0.07568,-0.04425,-0.03128,-0.07431,-0.00107,-0.01953,-0.07904,-0.01663,-2.64053,-0.03098,-0.0206,0.02518,-0.04501
9.6625,-0.03784,-0.0267,0.01556,0.04517,-0.04547,-0.02792,-0.07263,0.00229,-0.01816,-0.07919,-0.01587,-2.63794,-0.03235,-0.02045,0.02472,-0.04456
9.663,-0.03891,-0.02914,0.0209,0.00626,-0.05325,-0.0238,-0.0769,0.00687,-0.01892,-0.08072,-0.01511,-2.61124,-0.03342,-0.02045,0.02365,-0.04395
9.6635,-0.04196,-0.03159,0.02411,-0.00381,-0.0621,-0.01755,-0.08865,0.00946,-0.02045,-0.08087,-0.0145,-2.50427,-0.03433,-0.0209,0.02304,-0.04517
9.664,-0.04379,-0.03571,0.02609,0.00687,-0.06027,-0.0119,-0.10727,0.00763,-0.0209,-0.08148,-0.01465,-2.32758,-0.03387,-0.02167,0.02304,-0.04593
9.6645,-0.04349,-0.04181,0.0264,0.00854,-0.05035,-0.00992,-0.12848,0.00137,-0.01953,-0.08118,-0.0145,-2.14127,-0.03387,-0.02151,0.02518,-0.04578
9.665,-0.04272,-0.04791,0.02335,-0.00916,-0.04807,-0.01907,-0.14694,-0.00366,-0.01907,-0.07919,-0.01389,-1.97647,-0.03372,-0.0209,0.0264,-0.04395
9.6655,-0.04211,-0.04913,0.01968,-0.02747,-0.0441,-0.04196,-0.16144,-0.00595,-0.01984,-0.07767,-0.01328,-1.81686,-0.03326,-0.02045,0.02625,-0.04349
9.666,-0.04288,-0.04547,0.0174,-0.03159,-0.04074,-0.07065,-0.17227,-0.00488,-0.02045,-0.07782,-0.0145,-1.64749,-0.03281,-0.01999,0.02563,-0.0441
9.6665,-0.04303,-0.04196,0.02151,-0.02686,-0.0354,-0.08636,-0.177,-0.00519,-0.02045,-0.07889,-0.01511,-1.48712,-0.03174,-0.01923,0.02502,-0.04501
9.667,-0.0444,-0.03998,0.03204,-0.02472,-0.03082,-0.08347,-0.17899,-0.00656,-0.02151,-0.08026,-0.01587,-1.45523,-0.03082,-0.01923,0.02518,-0.04532
9.6675,-0.04791,-0.0383,0.05142,-0.0267,-0.02625,-0.06973,-0.1796,-0.00671,-0.02182,-0.08026,-0.01602,-1.88736,-0.03204,-0.01907,0.02594,-0.04486
9.668,-0.05173,-0.03632,0.07172,-0.02975,-0.02563,-0.05844,-0.16586,-0.0058,-0.02426,-0.08011,-0.01465,-2.99561,-0.03403,-0.01953,0.02472,-0.04639
9.6685,-0.05035,-0.03296,0.08377,-0.03082,-0.02151,-0.05402,-0.12299,-0.00824,-0.0238,-0.07965,-0.01526,-4.2746,-0.03464,-0.01831,0.02258,-0.04822
9.669,-0.04547,-0.0296,0.08148,-0.03342,-0.02274,-0.05417,-0.07126,-0.01434,-0.02213,-0.07828,-0.01511,-4.87534,-0.03479,-0.01694,0.02136,-0.04852
9.6695,-0.04044,-0.0238,0.0708,-0.03616,-0.02411,-0.056,-0.04486,-0.01907,-0.01968,-0.07736,-0.01465,-4.66888,-0.03555,-0.0174,0.02228,-0.04715
9.67,-0.03571,-0.00824,0.0592,-0.0351,-0.02045,-0.0592,-0.0444,-0.01511,-0.01892,-0.07568,-0.01434,-4.22897,-0.03571,-0.01907,0.0238,-0.04349
9.6705,-0.03067,0.02289,0.04547,-0.03067,-0.02106,-0.06287,-0.04288,-0.00473,-0.01968,-0.07339,-0.01495,-4.00467,-0.03555,-0.02136,0.02396,-0.04242
9.671,-0.02502,0.05676,0.0209,-0.02625,-0.01892,-0.06409,-0.03632,0.00229,-0.02045,-0.07111,-0.01495,-3.89709,-0.03586,-0.02136,0.02365,-0.04333
9.6715,-0.02289,0.06226,-0.01862,-0.02472,-0.01755,-0.06134,-0.0296,0.00366,-0.0206,-0.06973,-0.0145,-3.6763,-0.03616,-0.02029,0.02228,-0.04395
9.672,-0.02213,0.02686,-0.06012,-0.02258,-0.0209,-0.05615,-0.0145,-0.00076,-0.0209,-0.0679,-0.01297,-3.35815,-0.03662,-0.01892,0.02121,-0.0441
9.6725,-0.02274,-0.03448,-0.08377,-0.01907,-0.0174,-0.05127,0.01053,-0.00824,-0.02045,-0.06882,-0.01297,-3.05756,-0.03586,-0.01846,0.02243,-0.04349
9.673,-0.02396,-0.09003,-0.08362,-0.0148,-0.01877,-0.04333,0.02014,-0.01312,-0.01938,-0.07034,-0.01373,-2.789,-0.03464,-0.01923,0.02563,-0.04272
9.6735,-0.0264,-0.12344,-0.07278,-0.01236,-0.01602,-0.03021,-0.00656,-0.01266,-0.01923,-0.07095,-0.01419,-2.50839,-0.03448,-0.01862,0.02762,-0.04105
9.674,-0.02792,-0.13474,-0.06454,-0.01282,-0.01343,-0.0177,-0.05341,-0.00946,-0.01999,-0.07065,-0.01389,-2.21451,-0.0354,-0.01816,0.02563,-0.03967
9.6745,-0.02579,-0.13016,-0.05737,-0.01434,-0.01511,-0.01526,-0.07919,-0.00931,-0.02136,-0.06882,-0.01434,-1.92795,-0.03448,-0.01633,0.0235,-0.04028
9.675,-0.02151,-0.11932,-0.05096,-0.01373,-0.01938,-0.02472,-0.06104,-0.01083,-0.02197,-0.06775,-0.01465,-1.64948,-0.03372,-0.01556,0.02289,-0.04196
9.6755,-0.01617,-0.10635,-0.04532,-0.01099,-0.02106,-0.04227,-0.02045,-0.01419,-0.02319,-0.06775,-0.0145,-1.36612,-0.03525,-0.01602,0.02319,-0.04272
9.676,-0.00992,-0.09476,-0.04669,-0.00992,-0.01923,-0.05692,0.00381,-0.0148,-0.02213,-0.06836,-0.01328,-1.06888,-0.03708,-0.0177,0.0238,-0.04257
9.6765,-0.00259,-0.0853,-0.05829,-0.01236,-0.01801,-0.05859,0.01938,-0.0116,-0.02045,-0.06927,-0.01358,-0.75394,-0.03693,-0.01846,0.02274,-0.04227
9.677,0.00397,-0.07675,-0.0827,-0.0177,-0.0206,-0.04669,0.07355,-0.00519,-0.01877,-0.06912,-0.0145,-0.43259,-0.03525,-0.01785,0.02151,-0.04135
9.6775,0.00534,-0.06744,-0.11688,-0.02045,-0.02274,-0.02899,0.15823,0.00092,-0.01831,-0.06973,-0.01358,-0.13336,-0.03448,-0.01694,0.02045,-0.04288
9.678,0.00351,-0.05981,-0.14374,-0.01923,-0.02441,-0.01633,0.18585,0.00275,-0.01785,-0.07019,-0.01312,0.12634,-0.0351,-0.01831,0.01923,-0.04395
9.6785,0.00061,-0.05447,-0.12909,-0.01266,-0.02075,-0.01511,0.10986,-0.00046,-0.01709,-0.07233,-0.01404,0.35034,-0.03677,-0.02014,0.01862,-0.04532
9.679,-0.00107,-0.05112,-0.06927,-0.00519,-0.02533,-0.02533,0.00549,-0.00641,-0.01648,-0.07202,-0.01526,0.54855,-0.03723,-0.02121,0.01816,-0.04608
9.6795,0.00092,-0.04715,0.00504,0.00031,-0.02579,-0.03754,-0.03799,-0.01083,-0.01602,-0.07034,-0.01419,0.72632,-0.03677,-0.01999,0.01816,-0.04715
9.68,0.00732,-0.04364,0.05356,0.00183,-0.02945,-0.04761,-0.02167,-0.00717,-0.01617,-0.06821,-0.01221,0.89066,-0.03738,-0.01846,0.01892,-0.047
9.6805,0.01663,-0.03891,0.06607,0.00153,-0.02533,-0.05417,-0.00076,0.00366,-0.01648,-0.06577,-0.01236,1.04691,-0.03906,-0.01816,0.01999,-0.04608
9.681,0.02594,-0.03387,0.05859,-0.00015,-0.02609,-0.05829,0.0,0.01312,-0.01678,-0.06546,-0.01328,1.19385,-0.03967,-0.01755,0.02121,-0.04532
9.6815,0.0325,-0.02731,0.0531,-0.00092,-0.02945,-0.05859,-0.0061,0.01556,-0.01709,-0.06683,-0.0148,1.33194,-0.03967,-0.01724,0.02304,-0.0441
9.682,0.03464,-0.02014,0.05096,-0.00534,-0.02731,-0.05585,-0.00732,0.01389,-0.01663,-0.06989,-0.01389,1.46774,-0.03891,-0.01709,0.02426,-0.04364
9.6825,0.0325,-0.01556,0.04211,-0.01419,-0.02869,-0.05295,-0.01328,0.01511,-0.01587,-0.07263,-0.01389,1.75888,-0.03937,-0.0177,0.02625,-0.04364
9.683,0.03006,-0.01312,0.0119,-0.02258,-0.02716,-0.05112,-0.03387,0.01801,-0.01602,-0.07401,-0.0148,2.71393,-0.03937,-0.01907,0.02518,-0.04318
9.6835,0.02991,-0.01373,-0.04791,-0.02838,-0.02716,-0.05356,-0.06287,0.01602,-0.01602,-0.07492,-0.01389,4.26239,-0.03983,-0.01953,0.0238,-0.04257
9.684,0.03052,-0.01648,-0.11627,-0.03891,-0.03021,-0.05554,-0.08591,0.00748,-0.01556,-0.07568,-0.01297,4.99985,-0.03983,-0.01923,0.02151,-0.04333
9.6845,0.0296,-0.0206,-0.14908,-0.06943,-0.03143,-0.05615,-0.09781,-0.00198,-0.01572,-0.07782,-0.01328,4.99985,-0.03967,-0.01846,0.0209,-0.04333
9.685,0.0267,-0.02426,-0.11566,-0.1149,-0.03235,-0.05615,-0.09933,-0.00732,-0.0174,-0.07889,-0.01175,4.87839,-0.03876,-0.01907,0.02182,-0.04181
9.6855,0.0209,-0.02701,-0.02991,-0.14771,-0.0351,-0.05539,-0.08926,-0.0087,-0.01694,-0.0795,-0.0119,4.85641,-0.03876,-0.02045,0.02121,-0.03952
9.686,0.01114,-0.03098,0.05478,-0.14725,-0.03479,-0.05554,-0.0589,-0.00854,-0.01648,-0.07919,-0.01343,4.99985,-0.03845,-0.0206,0.02075,-0.03922
9.6865,0.00061,-0.03662,0.09766,-0.12329,-0.03754,-0.056,-0.00122,-0.00885,-0.01602,-0.07767,-0.0145,4.99985,-0.03738,-0.01984,0.02014,-0.04013
9.687,-0.00732,-0.04333,0.10178,-0.09827,-0.03815,-0.05692,0.06134,-0.00793,-0.01633,-0.07538,-0.01434,4.96353,-0.03738,-0.01968,0.01999,-0.04089
9.6875,-0.01099,-0.04959,0.08865,-0.07797,-0.03799,-0.05753,0.08926,-0.00565,-0.01587,-0.07462,-0.01282,4.94675,-0.03754,-0.02197,0.02045,-0.04211
9.688,-0.01022,-0.05325,0.07523,-0.04944,-0.03647,-0.05737,0.05844,-0.00229,-0.0145,-0.07492,-0.01236,4.99283,-0.03601,-0.0235,0.02182,-0.04303
9.6885,-0.00778,-0.05371,0.06027,-0.00534,-0.03632,-0.05646,-0.00015,-0.00198,-0.01297,-0.07629,-0.01266,4.99985,-0.03601,-0.02304,0.02151,-0.04272
9.689,-0.00565,-0.04837,0.04105,0.04181,-0.03433,-0.05554,-0.03387,-0.00427,-0.01251,-0.07568,-0.01312,4.98032,-0.03616,-0.02106,0.01938,-0.04211
9.6895,-0.00565,-0.03937,0.0209,0.07538,-0.03525,-0.05508,-0.02884,-0.00809,-0.01312,-0.07339,-0.01251,4.97269,-0.03601,-0.01968,0.01816,-0.04074
9.69,-0.00854,-0.03494,0.0061,0.09201,-0.03265,-0.05371,-0.01511,-0.00916,-0.0145,-0.07111,-0.01083,4.98077,-0.03525,-0.01892,0.0174,-0.04028
9.6905,-0.01419,-0.03998,-0.00702,0.09979,-0.03189,-0.05127,-0.01816,-0.00885,-0.01556,-0.06821,-0.01083,4.96567,-0.03494,-0.01953,0.01846,-0.04074
9.691,-0.01602,-0.05066,-0.02136,0.10025,-0.03311,-0.04883,-0.03235,-0.00778,-0.01434,-0.06683,-0.01144,4.92264,-0.03571,-0.01984,0.01755,-0.04166
9.6915,-0.01175,-0.06134,-0.0383,0.08469,-0.02792,-0.04791,-0.0412,-0.00671,-0.0119,-0.06531,-0.01236,4.82758,-0.0351,-0.01953,0.01617,-0.04166
9.692,-0.00504,-0.06851,-0.05325,0.04791,-0.02411,-0.04868,-0.04028,-0.00671,-0.01114,-0.0647,-0.01175,4.51675,-0.03464,-0.01816,0.01389,-0.0412
9.6925,0.00031,-0.07202,-0.06165,0.00259,-0.01419,-0.05005,-0.03723,-0.00793,-0.01053,-0.06454,-0.01221,3.8475,-0.03433,-0.01846,0.01205,-0.04089
9.693,0.00229,-0.07248,-0.06439,-0.03052,-0.0148,-0.05051,-0.03601,-0.009,-0.01099,-0.06439,-0.01205,3.03986,-0.03387,-0.01953,0.0116,-0.0412
9.6935,0.00473,-0.07126,-0.06683,-0.03922,-0.0145,-0.0502,-0.03586,-0.00946,-0.01144,-0.06195,-0.01236,2.44705,-0.03342,-0.01999,0.0119,-0.04074
9.694,0.00961,-0.0708,-0.07813,-0.0264,-0.02213,-0.04959,-0.03479,-0.00946,-0.01251,-0.05859,-0.01236,2.09686,-0.03235,-0.01938,0.0119,-0.03967
9.6945,0.01724,-0.07004,-0.09949,-0.00778,-0.02884,-0.0499,-0.03235,-0.00854,-0.01404,-0.05722,-0.01205,1.7627,-0.03326,-0.01801,0.0116,-0.03906
9.695,0.0238,-0.06638,-0.12314,0.00839,-0.03433,-0.04883,-0.02808,-0.0058,-0.01541,-0.05829,-0.01236,1.33331,-0.03418,-0.0174,0.00946,-0.03891
9.6955,0.02686,-0.05737,-0.13199,0.01663,-0.04044,-0.04715,-0.02441,-0.00015,-0.01587,-0.05951,-0.01236,0.89096,-0.03403,-0.0174,0.00809,-0.0386
9.696,0.02747,-0.0444,-0.12177,0.01709,-0.04929,-0.0444,-0.0238,0.00504,-0.01221,-0.05997,-0.0116,0.5043,-0.03265,-0.0177,0.00671,-0.03967
9.6965,0.02502,-0.03403,-0.10345,0.01343,-0.05386,-0.04486,-0.02579,0.00656,-0.00931,-0.05936,-0.0119,0.15579,-0.03296,-0.01816,0.00626,-0.04044
9.697,0.01663,-0.03067,-0.09064,0.0087,-0.05539,-0.04532,-0.02838,0.00458,-0.00946,-0.05737,-0.01236,-0.17639,-0.03357,-0.01877,0.00687,-0.04089
9.6975,0.00702,-0.0351,-0.08606,0.00534,-0.04471,-0.0441,-0.03143,0.00458,-0.01175,-0.05524,-0.01419,-0.47684,-0.03357,-0.01846,0.00702,-0.04166
9.698,0.00015,-0.04013,-0.08286,0.00443,-0.03403,-0.04318,-0.03189,0.00824,-0.01266,-0.05356,-0.01541,-0.73517,-0.03265,-0.0174,0.00671,-0.0412
9.6985,-0.00259,-0.04166,-0.07629,0.00488,-0.02945,-0.04318,-0.02838,0.01312,-0.01099,-0.05249,-0.01495,-0.96481,-0.03235,-0.01724,0.00809,-0.04089
9.699,-0.00244,-0.04074,-0.0708,0.00565,-0.03143,-0.04486,-0.02457,0.01221,-0.00839,-0.0528,-0.01358,-1.18134,-0.03357,-0.01663,0.00931,-0.04074
9.6995,-0.00244,-0.04089,-0.06958,0.00473,-0.03143,-0.0473,-0.02777,0.00015,-0.00763,-0.05127,-0.01358,-1.38977,-0.03418,-0.01572,0.01144,-0.03967
9.7,-0.00305,-0.04059,-0.06958,-0.00046,-0.03281,-0.04883,-0.04791,-0.01755,-0.00839,-0.04944,-0.01312,-1.58875,-0.03403,-0.01434,0.01053,-0.03891
9.7005,-0.00214,-0.03937,-0.0676,-0.00778,-0.03372,-0.04837,-0.08957,-0.02792,-0.009,-0.04532,-0.01205,-1.77094,-0.03311,-0.01389,0.01038,-0.03906
9.701,-0.00107,-0.0386,-0.06409,-0.01434,-0.03693,-0.04684,-0.14618,-0.02396,-0.00916,-0.04211,-0.01099,-1.92856,-0.03296,-0.01266,0.01083,-0.03967
9.7015,0.00046,-0.04135,-0.06302,-0.01724,-0.03784,-0.0441,-0.19531,-0.01144,-0.00916,-0.04028,-0.01114,-2.06253,-0.03189,-0.01114,0.01129,-0.03876
9.702,0.00198,-0.04608,-0.06363,-0.02167,-0.03494,-0.04303,-0.21439,0.00076,-0.00977,-0.03952,-0.01251,-2.1843,-0.03143,-0.01053,0.01266,-0.03769
9.7025,0.00229,-0.04807,-0.06348,-0.03098,-0.03571,-0.04395,-0.20874,0.00443,-0.01038,-0.0383,-0.01465,-2.29843,-0.0325,-0.01251,0.01266,-0.03799
9.703,0.0,-0.04395,-0.06165,-0.03754,-0.03357,-0.04547,-0.20981,-0.00153,-0.0119,-0.03815,-0.01511,-2.39212,-0.03342,-0.01511,0.01007,-0.03952
9.7035,-0.00229,-0.03479,-0.06058,-0.03113,-0.03265,-0.04517,-0.23682,-0.01328,-0.01312,-0.0383,-0.01511,-2.44492,-0.03174,-0.01663,0.00793,-0.04074
9.704,-0.00168,-0.02914,-0.05859,-0.00854,-0.03433,-0.0444,-0.26688,-0.02075,-0.01343,-0.03845,-0.0148,-2.45499,-0.03174,-0.01633,0.00809,-0.04044
9.7045,0.00198,-0.03021,-0.0563,0.02121,-0.03113,-0.04349,-0.24994,-0.01572,-0.01282,-0.03754,-0.0145,-2.44232,-0.03113,-0.01678,0.01038,-0.03967
9.705,0.00641,-0.03662,-0.05478,0.04196,-0.03067,-0.04196,-0.15182,-0.00351,-0.01114,-0.03662,-0.01526,-2.4382,-0.03357,-0.01862,0.01221,-0.03952
9.7055,0.00687,-0.04135,-0.05508,0.04456,-0.0293,-0.04135,0.02335,0.00443,-0.01114,-0.03601,-0.01511,-2.45834,-0.0351,-0.02106,0.01328,-0.03922
9.706,0.00443,-0.04196,-0.05783,0.03891,-0.02899,-0.04318,0.2092,0.00244,-0.01282,-0.03387,-0.01511,-2.49619,-0.03372,-0.02274,0.01343,-0.03922
9.7065,0.00275,-0.04044,-0.06058,0.03189,-0.03372,-0.04532,0.3035,-0.00168,-0.01373,-0.03113,-0.01602,-2.5296,-0.03189,-0.0235,0.01373,-0.03723
9.707,0.00473,-0.03983,-0.06241,0.00244,-0.03235,-0.04852,0.23575,-0.0029,-0.01328,-0.03159,-0.01663,-2.53555,-0.03128,-0.02304,0.01358,-0.03738
9.7075,0.00778,-0.03967,-0.06256,-0.08026,-0.03265,-0.05142,0.04593,-0.00137,-0.01251,-0.0325,-0.01755,-2.50381,-0.03235,-0.02289,0.01389,-0.0386
9.708,0.009,-0.03906,-0.06302,-0.20462,-0.03265,-0.05417,-0.12009,-0.00107,-0.01328,-0.03204,-0.01633,-2.44263,-0.03311,-0.0238,0.01465,-0.04013
9.7085,0.00824,-0.03906,-0.06393,-0.31189,-0.02701,-0.05539,-0.11581,-0.0029,-0.01389,-0.03036,-0.01633,-2.38464,-0.0322,-0.0264,0.01404,-0.0412
9.709,0.00778,-0.04074,-0.06638,-0.34424,-0.02182,-0.05386,0.07629,-0.00229,-0.01434,-0.02975,-0.01709,-2.35886,-0.03174,-0.02701,0.01297,-0.04089
9.7095,0.00778,-0.04044,-0.07065,-0.29022,-0.01556,-0.05356,0.30899,0.00183,-0.01495,-0.0296,-0.01785,-2.36252,-0.03113,-0.0267,0.01221,-0.04013
9.71,0.00626,-0.03906,-0.08316,-0.177,-0.00992,-0.05371,0.40695,0.00519,-0.01572,-0.0296,-0.01785,-2.36725,-0.03052,-0.02625,0.0116,-0.0386
9.7105,0.00351,-0.03815,-0.10773,-0.04349,-0.00641,-0.05249,0.33966,0.00412,-0.01556,-0.02716,-0.01678,-2.34711,-0.03082,-0.02579,0.0116,-0.03998
9.711,-0.00031,-0.03754,-0.13351,0.07401,-0.00061,-0.04974,0.21591,0.00076,-0.01312,-0.02167,-0.01648,-2.30072,-0.03082,-0.02579,0.01205,-0.04333
9.7115,-0.00229,-0.03662,-0.13718,0.13748,-0.00412,-0.04654,0.13336,-0.00107,-0.01144,-0.01724,-0.01572,-2.24045,-0.03067,-0.02594,0.01205,-0.04517
9.712,-0.00229,-0.03433,-0.10559,0.11383,-0.01022,-0.04517,0.09384,-0.00076,-0.01236,-0.01556,-0.01587,-2.18597,-0.03052,-0.02655,0.01251,-0.0444
9.7125,-0.00168,-0.03204,-0.05585,0.01541,-0.02365,-0.04654,0.06775,-0.00122,-0.01495,-0.0145,-0.01572,-2.15057,-0.03006,-0.0264,0.01328,-0.04211
9.713,-0.00168,-0.03342,-0.01312,-0.06256,-0.03571,-0.04929,0.04379,-0.00412,-0.01587,-0.01389,-0.01572,-2.13348,-0.02914,-0.02594,0.01541,-0.03998
9.7135,-0.00244,-0.03784,0.01068,-0.01495,-0.04105,-0.05157,0.02518,-0.00702,-0.01526,-0.01175,-0.01694,-2.1257,-0.02884,-0.02487,0.01556,-0.04105
9.714,-0.00504,-0.03998,0.02365,0.13336,-0.04745,-0.0531,0.01556,-0.00565,-0.0148,-0.01129,-0.01846,-2.1196,-0.02914,-0.02457,0.01541,-0.04074
9.7145,-0.01114,-0.03357,0.03372,0.2243,-0.05463,-0.0528,0.02274,-0.00168,-0.01587,-0.01221,-0.01877,-2.11197,-0.02991,-0.02426,0.01419,-0.03983
9.715,-0.01846,-0.02289,0.03723,0.15259,-0.06699,-0.04852,0.04028,0.00198,-0.01617,-0.01236,-0.01801,-2.09229,-0.0296,-0.02304,0.01373,-0.03922
9.7155,-0.02472,-0.01968,0.03571,-0.0174,-0.0708,-0.04059,0.04807,0.0032,-0.01617,-0.01236,-0.01724,-2.03522,-0.02914,-0.02167,0.01419,-0.03937
9.716,-0.02823,-0.02686,0.0351,-0.15564,-0.06454,-0.03281,0.03769,0.00305,-0.01678,-0.01266,-0.01602,-1.91284,-0.02823,-0.02136,0.01572,-0.03952
9.7165,-0.03128,-0.03693,0.03998,-0.20569,-0.0592,-0.03128,0.03021,0.00122,-0.01785,-0.01312,-0.01541,-1.73691,-0.02808,-0.02289,0.01633,-0.04044
9.717,-0.03387,-0.04333,0.04059,-0.18784,-0.06226,-0.03601,0.04837,-0.00153,-0.01755,-0.01328,-0.01373,-1.57394,-0.02838,-0.02304,0.01511,-0.04135
9.7175,-0.0351,-0.04684,0.02548,-0.13,-0.07019,-0.04272,0.08087,-0.00397,-0.01556,-0.0119,-0.01465,-1.49124,-0.02792,-0.02167,0.01282,-0.04196
9.718,-0.03433,-0.04959,-0.00061,-0.04196,-0.07614,-0.04684,0.08911,-0.00504,-0.0145,-0.01068,-0.01556,-1.48254,-0.02747,-0.02045,0.01175,-0.04349
9.7185,-0.03494,-0.05417,-0.02808,0.06317,-0.06729,-0.0499,0.05722,-0.00549,-0.01495,-0.01022,-0.01617,-1.47812,-0.0264,-0.02014,0.01129,-0.04517
9.719,-0.03967,-0.06134,-0.04929,0.1506,-0.04791,-0.0531,0.01266,-0.00488,-0.01633,-0.01129,-0.01678,-1.43097,-0.02594,-0.02014,0.01083,-0.0473
9.7195,-0.04715,-0.06729,-0.06393,0.19791,-0.02747,-0.05661,-0.01038,-0.00366,-0.01724,-0.0119,-0.01587,-1.35193,-0.02533,-0.01923,0.00992,-0.04868
9.72,-0.05264,-0.06897,-0.07736,0.22141,-0.01663,-0.05859,-0.01038,-0.00229,-0.01648,-0.01083,-0.01572,-1.26907,-0.02396,-0.0174,0.00916,-0.04852
9.7205,-0.05386,-0.06607,-0.0972,0.23773,-0.01968,-0.05875,-0.01068,-0.00168,-0.01541,-0.00977,-0.01556,-1.18408,-0.02289,-0.01633,0.01007,-0.04807
9.721,-0.05386,-0.06149,-0.1236,0.21942,-0.03876,-0.05753,-0.02502,-0.00183,-0.01434,-0.0087,-0.0148,-1.09329,-0.02365,-0.01633,0.00916,-0.04623
9.7215,-0.05234,-0.05859,-0.14832,0.12802,-0.06424,-0.05386,-0.03815,-0.00168,-0.01328,-0.00656,-0.01434,-1.00433,-0.02457,-0.01678,0.00916,-0.04395
9.722,-0.04745,-0.06027,-0.16113,-0.00931,-0.08255,-0.04898,-0.03616,-0.0029,-0.01251,-0.00351,-0.0148,-0.92331,-0.02655,-0.01663,0.01007,-0.04211
9.7225,-0.03799,-0.06409,-0.16113,-0.10727,-0.07797,-0.04166,-0.02411,-0.00763,-0.01221,-0.00092,-0.01328,-0.84564,-0.02716,-0.01572,0.01144,-0.04135
9.723,-0.02762,-0.0676,-0.15625,-0.11032,-0.05219,-0.03372,-0.01816,-0.01404,-0.01221,0.00137,-0.01282,-0.76843,-0.02625,-0.01541,0.01236,-0.0412
9.7235,-0.01785,-0.06912,-0.15244,-0.04181,-0.02197,-0.02945,-0.02579,-0.01862,-0.01358,0.00198,-0.01343,-0.69412,-0.02579,-0.01633,0.0116,-0.0415
9.724,-0.01083,-0.06592,-0.14877,0.03479,-0.00443,-0.02701,-0.04044,-0.01953,-0.01434,0.00198,-0.01266,-0.62439,-0.02625,-0.01907,0.01038,-0.04181
9.7245,-0.00565,-0.05646,-0.14267,0.06943,0.00412,-0.02502,-0.05524,-0.01968,-0.01511,0.00153,-0.01389,-0.55374,-0.0267,-0.01968,0.01022,-0.04135
9.725,-0.00076,-0.047,-0.13428,0.05219,0.01007,-0.02213,-0.07843,-0.02106,-0.01465,0.00061,-0.01556,-0.47577,-0.02777,-0.01877,0.01129,-0.04211
9.7255,0.00397,-0.04425,-0.12787,0.01251,0.02487,-0.02045,-0.11902,-0.02243,-0.01389,0.00046,-0.01556,-0.39551,-0.02884,-0.0177,0.01251,-0.04333
9.726,0.00854,-0.05112,-0.1384,-0.00824,0.03632,-0.0235,-0.16129,-0.01831,-0.01526,0.00153,-0.01541,-0.3241,-0.02945,-0.01785,0.01251,-0.04379
9.7265,0.01343,-0.05936,-0.17685,0.0061,0.04181,-0.02777,-0.17578,-0.00519,-0.01678,0.00275,-0.01419,-0.26855,-0.03021,-0.01877,0.01205,-0.04196
9.727,0.01694,-0.06271,-0.23193,0.03387,0.03571,-0.03235,-0.16663,0.0145,-0.01724,0.00397,-0.01282,-0.22308,-0.02991,-0.01877,0.00992,-0.04044
9.7275,0.0177,-0.05798,-0.26505,0.04471,0.01022,-0.03922,-0.15915,0.02914,-0.01648,0.00427,-0.01236,-0.17685,-0.0296,-0.01694,0.00763,-0.04044
9.728,0.01648,-0.0441,-0.24048,0.03662,-0.02228,-0.04974,-0.15228,0.02884,-0.01556,0.00458,-0.01236,-0.12421,-0.02991,-0.01556,0.00519,-0.0415
9.7285,0.01556,-0.01953,-0.15472,0.02106,-0.05066,-0.06058,-0.12863,0.01495,-0.01511,0.00427,-0.01266,-0.06744,-0.03128,-0.01617,0.00336,-0.04349
9.729,0.01801,0.00565,-0.04333,-0.0029,-0.06729,-0.06729,-0.10773,-0.00015,-0.01556,0.00412,-0.01373,-0.00824,-0.03098,-0.01801,0.00397,-0.04379
9.7295,0.02258,0.01587,0.04913,-0.047,-0.07553,-0.06653,-0.12543,-0.0061,-0.01648,0.00412,-0.01404,0.05737,-0.03036,-0.01892,0.00381,-0.04227
9.73,0.02884,0.00031,0.09933,-0.10971,-0.08026,-0.06119,-0.17288,-0.00458,-0.01801,0.00381,-0.01434,0.14862,-0.0296,-0.01846,0.0029,-0.04166
9.7305,0.03342,-0.03189,0.11169,-0.16418,-0.08438,-0.05478,-0.20432,-0.00214,-0.01846,0.00595,-0.01297,0.28687,-0.03036,-0.01892,0.00229,-0.04044
9.731,0.03525,-0.06348,0.10101,-0.18021,-0.08133,-0.04974,-0.1825,-0.00107,-0.01709,0.00763,-0.01328,0.45151,-0.03098,-0.01938,0.00183,-0.04166
9.7315,0.0354,-0.08499,0.08331,-0.14923,-0.06531,-0.04578,-0.11871,-0.00092,-0.01587,0.00656,-0.01343,0.5661,-0.03235,-0.01968,0.00244,-0.04288
9.732,0.03342,-0.09598,0.06744,-0.09262,-0.04166,-0.04211,-0.05829,-0.0058,-0.01572,0.00473,-0.01404,0.58212,-0.03281,-0.01968,0.00183,-0.04349
9.7325,0.03128,-0.10117,0.05569,-0.0502,-0.02899,-0.0386,-0.05264,-0.01404,-0.01526,0.00488,-0.01343,0.54276,-0.03342,-0.01984,0.00137,-0.04318
9.733,0.03082,-0.09796,0.04761,-0.05203,-0.03281,-0.0351,-0.11948,-0.02472,-0.01419,0.00504,-0.01297,0.52444,-0.03296,-0.01968,-0.00137,-0.04227
9.7335,0.02991,-0.08057,0.0386,-0.09888,-0.04166,-0.03296,-0.21408,-0.03418,-0.01343,0.00427,-0.01312,0.5484,-0.0322,-0.01892,-0.0029,-0.04379
9.734,0.03036,-0.05112,0.02731,-0.15015,-0.0444,-0.03494,-0.23148,-0.03983,-0.01511,0.00092,-0.0145,0.59174,-0.0322,-0.01846,-0.00168,-0.04364
9.7345,0.03204,-0.03189,0.01648,-0.1384,-0.04013,-0.04242,-0.08987,-0.04257,-0.01709,-0.0032,-0.01541,0.64423,-0.0325,-0.01801,0.00061,-0.04166
9.735,0.03418,-0.03922,0.00977,-0.02579,-0.03922,-0.05402,0.14893,-0.04456,-0.0177,-0.00732,-0.01572,0.70313,-0.03281,-0.01816,0.00244,-0.03952
9.7355,0.03601,-0.06287,0.00641,0.12802,-0.04135,-0.0618,0.31006,-0.03952,-0.01602,-0.00885,-0.01511,0.74677,-0.03159,-0.01862,0.00366,-0.03891
9.736,0.03555,-0.07767,0.0029,0.21027,-0.04227,-0.05966,0.30426,-0.01358,-0.01526,-0.00946,-0.01434,0.74844,-0.03143,-0.01862,0.00229,-0.03967
9.7365,0.03174,-0.07401,-0.00534,0.17319,-0.03769,-0.05035,0.2298,0.03342,-0.01434,-0.01068,-0.01419,0.71259,-0.0322,-0.01938,0.00046,-0.04028
9.737,0.0267,-0.06195,-0.02136,0.07019,-0.02945,-0.04318,0.2034,0.07507,-0.01434,-0.0148,-0.01389,0.66574,-0.03357,-0.01999,-0.00275,-0.04089
9.7375,0.02274,-0.05203,-0.04196,-0.01755,-0.02441,-0.04395,0.20721,0.08331,-0.01556,-0.01846,-0.01434,0.62149,-0.03448,-0.01984,-0.00351,-0.04211
9.738,0.02106,-0.04349,-0.05524,-0.05371,-0.02228,-0.04822,0.17014,0.05936,-0.01678,-0.01801,-0.01373,0.57678,-0.03448,-0.01801,-0.00504,-0.04333
9.7385,0.02228,-0.03357,-0.05646,-0.05463,-0.02197,-0.05157,0.09171,0.02747,-0.0177,-0.01602,-0.01373,0.53177,-0.03357,-0.01678,-0.00534,-0.04303
9.739,0.02472,-0.02426,-0.04883,-0.04562,-0.02304,-0.05402,0.02686,0.00336,-0.01724,-0.01495,-0.01373,0.4953,-0.03326,-0.01678,-0.00366,-0.04288
9.7395,0.02472,-0.01358,-0.0351,-0.0444,-0.02411,-0.05356,0.01175,-0.01282,-0.01602,-0.01526,-0.01282,0.47012,-0.03311,-0.01801,-0.00092,-0.04074
9.74,0.02258,-0.00061,-0.01587,-0.05157,-0.02487,-0.05127,0.0444,-0.02228,-0.0145,-0.01434,-0.01282,0.457,-0.03265,-0.0177,-0.00214,-0.03876
9.7405,0.0206,0.00946,0.00076,-0.05798,-0.0235,-0.04913,0.08362,-0.02502,-0.01389,-0.01282,-0.01251,0.45792,-0.03265,-0.01663,-0.00473,-0.03967
9.741,0.02106,0.00992,0.00916,-0.05722,-0.02243,-0.04761,0.08926,-0.02106,-0.01404,-0.01221,-0.01266,0.47531,-0.0322,-0.01556,-0.00778,-0.04379
9.7415,0.02197,-0.00198,0.00824,-0.05432,-0.01953,-0.04639,0.07477,-0.01373,-0.01541,-0.01358,-0.01236,0.4982,-0.0325,-0.01511,-0.00793,-0.04242
9.742,0.02182,-0.01999,0.00473,-0.06058,-0.0174,-0.04288,0.09979,-0.00534,-0.01602,-0.01419,-0.01221,0.50812,-0.03204,-0.01541,-0.00809,-0.04303
9.7425,0.01923,-0.03708,-0.00092,-0.0766,-0.01404,-0.03662,0.16968,0.0,-0.01617,-0.01556,-0.0119,0.49866,-0.03128,-0.01602,-0.00748,-0.04044
9.743,0.01389,-0.04791,-0.00916,-0.09399,-0.01144,-0.02853,0.21133,0.00381,-0.01511,-0.0148,-0.01236,0.47745,-0.03113,-0.01755,-0.00931,-0.04333
9.7435,0.00504,-0.05127,-0.01816,-0.1091,-0.01068,-0.02319,0.17212,0.00443,-0.01434,-0.01389,-0.01312,0.46249,-0.03082,-0.01877,-0.00977,-0.04303
9.744,-0.00748,-0.05035,-0.02228,-0.13062,-0.01022,-0.02655,0.07462,0.0032,-0.01556,-0.01434,-0.01389,0.47363,-0.03143,-0.01968,-0.00931,-0.04364
9.7445,-0.01907,-0.047,-0.02502,-0.16022,-0.00534,-0.03769,-0.02197,0.00198,-0.01678,-0.01694,-0.01434,0.50568,-0.0322,-0.01999,-0.00839,-0.04288
9.745,-0.02258,-0.04379,-0.03448,-0.17685,0.00275,-0.05005,-0.07126,0.00183,-0.01709,-0.0209,-0.01389,0.52231,-0.03204,-0.01999,-0.0087,-0.04211
9.7455,-0.0148,-0.03998,-0.05112,-0.15961,0.01373,-0.05554,-0.05157,0.00351,-0.01572,-0.02579,-0.01175,0.49622,-0.03204,-0.02014,-0.00824,-0.04166
9.746,-0.00046,-0.03632,-0.06683,-0.10147,0.02487,-0.05539,0.00046,0.00443,-0.01495,-0.03174,-0.01266,0.44815,-0.03174,-0.02029,-0.00824,-0.04135
9.7465,0.01373,-0.03281,-0.07629,-0.01877,0.03235,-0.05249,0.02289,0.00305,-0.01755,-0.0386,-0.01373,0.4248,-0.03326,-0.02106,-0.00778,-0.04105
9.747,0.02243,-0.02838,-0.08194,0.06073,0.03265,-0.0499,-0.00092,-0.00031,-0.01968,-0.04318,-0.01434,0.45334,-0.03357,-0.02228,-0.00885,-0.04074
9.7475,0.02716,-0.02197,-0.08575,0.11246,0.02716,-0.04959,-0.03082,-0.00504,-0.02014,-0.04608,-0.01373,0.52139,-0.0322,-0.02289,-0.00961,-0.04105
9.748,0.02686,-0.0145,-0.08881,0.1358,0.02121,-0.05112,-0.03967,-0.00961,-0.01877,-0.0473,-0.01373,0.59692,-0.03021,-0.02319,-0.01007,-0.04135
9.7485,0.02396,-0.00854,-0.08621,0.14252,0.01923,-0.05325,-0.03754,-0.01114,-0.01724,-0.04623,-0.01389,0.63858,-0.03067,-0.02319,-0.00809,-0.04105
9.749,0.02014,-0.00702,-0.08286,0.13245,0.01663,-0.05417,-0.04013,-0.01114,-0.01724,-0.04044,-0.01373,0.62393,-0.03143,-0.0238,-0.00626,-0.04211
9.7495,0.01907,-0.00671,-0.08331,0.09384,0.01251,-0.05371,-0.04639,-0.00885,-0.01816,-0.0322,-0.01358,0.569,-0.03082,-0.02472,-0.00458,-0.04288
9.75,0.02335,-0.00565,-0.08469,0.03662,0.02243,-0.05478,-0.04974,-0.00702,-0.01801,-0.02518,-0.01129,0.5159,-0.03052,-0.02533,-0.00305,-0.04227
9.7505,0.03052,-0.00443,-0.09369,-0.01068,0.05753,-0.05829,-0.05096,-0.00793,-0.0177,-0.02136,-0.01114,0.48599,-0.02991,-0.02396,-0.00259,-0.04135
9.751,0.03433,-0.00534,-0.11032,-0.0354,0.09644,-0.06058,-0.05188,-0.00824,-0.0177,-0.01953,-0.01083,0.46967,-0.03036,-0.02182,-0.00366,-0.04288
9.7515,0.03387,-0.0061,-0.13519,-0.05463,0.10391,-0.06165,-0.05356,-0.00702,-0.0174,-0.0148,-0.01205,0.45242,-0.03021,-0.02213,-0.00626,-0.04395
9.752,0.03082,-0.00656,-0.15442,-0.08835,0.06317,-0.06454,-0.05508,-0.00534,-0.01633,-0.009,-0.01358,0.43396,-0.03128,-0.02335,-0.00717,-0.04227
9.7525,0.02731,-0.00763,-0.14343,-0.11978,-0.01419,-0.06638,-0.05676,-0.00519,-0.01648,-0.00351,-0.01434,0.41977,-0.03143,-0.02502,-0.00809,-0.04364
9.753,0.02289,-0.01007,-0.10635,-0.11871,-0.10178,-0.06546,-0.05829,-0.00473,-0.01801,0.00198,-0.01434,0.41275,-0.03159,-0.02533,-0.00595,-0.04425
9.7535,0.01312,-0.01297,-0.06317,-0.09857,-0.18127,-0.06042,-0.05859,-0.00443,-0.01907,0.00732,-0.01373,0.41153,-0.0325,-0.02274,-0.00565,-0.04501
9.754,0.00046,-0.01266,-0.0296,-0.10468,-0.23849,-0.05371,-0.05722,-0.0032,-0.01816,0.01144,-0.01389,0.41656,-0.03342,-0.02045,-0.0058,-0.04501
9.7545,-0.01129,-0.00931,-0.00351,-0.15106,-0.26505,-0.04761,-0.05798,-0.00061,-0.01816,0.0145,-0.01389,0.42358,-0.03357,-0.01877,-0.00565,-0.04395
9.755,-0.01953,-0.00488,0.01953,-0.18509,-0.25818,-0.04242,-0.05707,0.00153,-0.01862,0.01678,-0.01358,0.42862,-0.03403,-0.01968,-0.00687,-0.04227
9.7555,-0.02335,-0.00168,0.03433,-0.15472,-0.23483,-0.04089,-0.05798,-0.00153,-0.02045,0.0177,-0.01328,0.42618,-0.0351,-0.02121,-0.0058,-0.04089
9.756,-0.02579,0.00076,0.03662,-0.08392,-0.21408,-0.04272,-0.05844,-0.00763,-0.02121,0.01801,-0.01434,0.41519,-0.03601,-0.02151,-0.00397,-0.03952
9.7565,-0.02686,0.0032,0.02899,-0.03433,-0.19501,-0.04471,-0.05783,-0.01389,-0.0209,0.01984,-0.01541,0.40131,-0.03632,-0.02106,-0.00366,-0.04013
9.757,-0.02747,0.00153,0.01907,-0.02441,-0.15823,-0.04517,-0.05722,-0.0148,-0.01968,0.0238,-0.01572,0.39429,-0.03601,-0.01938,-0.00595,-0.04059
9.7575,-0.02853,-0.00595,0.009,-0.02945,-0.10223,-0.04303,-0.05417,-0.01068,-0.01923,0.02853,-0.01678,0.39703,-0.0351,-0.01892,-0.00687,-0.04089
9.758,-0.02838,-0.01846,-0.00046,-0.0267,-0.05142,-0.04089,-0.05173,-0.00824,-0.01923,0.0325,-0.01617,0.40466,-0.03433,-0.01923,-0.00641,-0.04181
9.7585,-0.02762,-0.03189,-0.00824,-0.02136,-0.02548,-0.04013,-0.05096,-0.01038,-0.01999,0.03525,-0.01511,0.41,-0.03342,-0.01846,-0.0058,-0.04196
9.759,-0.02609,-0.04456,-0.01312,-0.02167,-0.02045,-0.03769,-0.05219,-0.01587,-0.02075,0.03555,-0.01358,0.40955,-0.03296,-0.01816,-0.00565,-0.04044
9.7595,-0.02258,-0.05447,-0.01282,-0.02426,-0.0206,-0.03525,-0.05447,-0.01999,-0.02121,0.0354,-0.01328,0.4068,-0.03311,-0.01907,-0.00626,-0.04013
9.76,-0.01923,-0.05936,-0.01068,-0.02365,-0.01678,-0.03159,-0.05707,-0.01999,-0.02014,0.03357,-0.01434,0.40573,-0.03296,-0.0206,-0.00534,-0.03983
9.7605,-0.01709,-0.06149,-0.009,-0.01846,-0.01114,-0.02838,-0.05737,-0.01648,-0.01892,0.03082,-0.01343,0.40695,-0.03265,-0.01938,-0.00473,-0.03983
9.761,-0.01526,-0.06058,-0.01053,-0.01373,-0.00748,-0.02625,-0.05386,-0.01099,-0.0177,0.03082,-0.01221,0.40604,-0.03174,-0.01755,-0.00305,-0.0386
9.7615,-0.01175,-0.05798,-0.01541,-0.01083,-0.00931,-0.02747,-0.0473,-0.00458,-0.01831,0.03387,-0.01312,0.40283,-0.03326,-0.01755,-0.00031,-0.03723
9.762,-0.00732,-0.05402,-0.01923,-0.01343,-0.01236,-0.02884,-0.04211,0.00061,-0.02014,0.03525,-0.0148,0.39856,-0.03448,-0.01831,0.00076,-0.03662
9.7625,-0.00595,-0.04944,-0.01495,-0.02075,-0.01404,-0.0296,-0.04227,0.00443,-0.02136,0.03433,-0.01678,0.39444,-0.03265,-0.01923,0.00107,-0.04013
