time,RectFemL,VastusMedL,VastusLatL,TibAntL,HamMedL,HamLatL,GastroMedL,GastroLatL,RectFemR,VastusMedR,VastusLatR,TibAntR,HamMedR,HamLatR,GastroMedR,GastroLatR
10.9,0.00153,-0.03693,-0.03052,-0.01038,-0.04272,-0.06775,-0.02869,0.00015,-0.01251,-0.00519,-0.01648,-0.00015,-0.01633,-0.01404,0.00885,-0.06073
10.9005,0.00046,-0.03677,-0.03189,-0.01022,-0.05875,-0.05325,-0.01968,-0.00031,-0.01221,-0.00443,-0.0087,0.00107,-0.02701,-0.01663,0.00977,-0.03784
10.901,-0.00015,-0.03799,-0.03464,-0.009,-0.06302,-0.04623,-0.01175,0.00061,-0.01404,-0.00504,-0.00443,0.00046,-0.03952,-0.0235,0.01144,-0.01266
10.9015,0.00015,-0.03952,-0.03662,-0.00839,-0.0563,-0.04288,-0.01175,0.00061,-0.01648,-0.00778,-0.00443,-0.00122,-0.04715,-0.03159,0.01358,-0.00687
10.902,0.00153,-0.04105,-0.03723,-0.00854,-0.04898,-0.03891,-0.01572,-0.00046,-0.01709,-0.01511,-0.00671,-0.00229,-0.05188,-0.03571,0.01251,-0.02182
10.9025,0.00412,-0.0412,-0.03769,-0.01053,-0.04501,-0.0354,-0.01785,-0.00214,-0.01755,-0.02396,-0.00809,-0.00183,-0.05463,-0.03098,0.00961,-0.03708
10.903,0.00626,-0.03952,-0.0386,-0.0116,-0.04242,-0.03372,-0.01709,-0.00351,-0.01877,-0.03204,-0.00687,0.00061,-0.056,-0.02274,0.00946,-0.03983
10.9035,0.00641,-0.03723,-0.03967,-0.01266,-0.03738,-0.03159,-0.01663,-0.00443,-0.02136,-0.03677,-0.00534,0.00229,-0.05676,-0.01923,0.01221,-0.03464
10.904,0.00443,-0.03296,-0.04028,-0.0119,-0.03464,-0.02808,-0.0177,-0.0058,-0.02304,-0.03967,0.00107,0.00122,-0.05737,-0.01968,0.01419,-0.0325
10.9045,0.00214,-0.02365,-0.03967,-0.01099,-0.03265,-0.0235,-0.01953,-0.00671,-0.02182,-0.04044,0.0264,0.00031,-0.05585,-0.02029,0.01175,-0.03494
10.905,0.00046,-0.00931,-0.03677,-0.01282,-0.03159,-0.02106,-0.02136,-0.00793,-0.01984,-0.03693,0.07172,-0.00076,-0.05157,-0.01907,0.00519,-0.0383
10.9055,-0.00076,-0.00015,-0.03296,-0.01724,-0.02914,-0.02167,-0.02136,-0.00778,-0.01831,-0.03098,0.11078,-0.00046,-0.04532,-0.0177,-0.00183,-0.04044
10.906,-0.00366,-0.00565,-0.02701,-0.0209,-0.02777,-0.02472,-0.01678,-0.00641,-0.01709,-0.0267,0.10773,-0.00031,-0.04303,-0.01801,-0.00412,-0.04105
10.9065,-0.0058,-0.02609,-0.02151,-0.02045,-0.0267,-0.02731,-0.01419,-0.00565,-0.01633,-0.02472,0.05829,0.00015,-0.04181,-0.01785,0.0,-0.04059
10.907,-0.00687,-0.04761,-0.01816,-0.01663,-0.01999,-0.02563,-0.01495,-0.00519,-0.01633,-0.0235,-0.00397,0.00076,-0.03937,-0.01785,0.00748,-0.04089
10.9075,-0.00748,-0.06302,-0.0177,-0.01282,-0.00504,-0.02228,-0.01892,-0.00534,-0.01633,-0.02274,-0.04807,0.00168,-0.03342,-0.01633,0.00961,-0.04135
10.908,-0.00854,-0.06912,-0.01816,-0.01038,0.00977,-0.02304,-0.02243,-0.00519,-0.01587,-0.02228,-0.0676,0.00244,-0.02716,-0.01602,0.00809,-0.04272
10.9085,-0.00793,-0.07019,-0.01892,-0.01068,0.01312,-0.02945,-0.02197,-0.00549,-0.01617,-0.02213,-0.07416,0.00305,-0.02274,-0.01724,0.00519,-0.04364
10.909,-0.00671,-0.06851,-0.01984,-0.01022,0.00824,-0.03815,-0.0177,-0.00687,-0.01572,-0.02197,-0.07416,0.00214,-0.02045,-0.01755,0.00534,-0.0441
10.9095,-0.00519,-0.06592,-0.02197,-0.009,0.00748,-0.04257,-0.01221,-0.00687,-0.01602,-0.02106,-0.06989,0.00153,-0.0177,-0.01724,0.00809,-0.04272
10.91,-0.00412,-0.06317,-0.02487,-0.00519,0.0119,-0.04379,-0.00778,-0.00565,-0.01541,-0.01923,-0.06195,0.00168,-0.01663,-0.01678,0.01038,-0.04074
10.9105,-0.00549,-0.0621,-0.03174,-0.00351,0.01419,-0.04456,-0.00717,-0.00412,-0.01587,-0.01663,-0.05295,0.00305,-0.01831,-0.01724,0.01144,-0.03998
10.911,-0.00732,-0.06027,-0.03693,-0.00381,0.00946,-0.04608,-0.01099,-0.00153,-0.01663,-0.01465,-0.04822,0.0032,-0.02106,-0.01816,0.01007,-0.04288
10.9115,-0.00839,-0.0589,-0.04059,-0.00549,-0.00137,-0.04547,-0.01984,-0.00076,-0.01648,-0.0119,-0.04608,0.00214,-0.0235,-0.01968,0.009,-0.04562
10.912,-0.009,-0.05768,-0.04379,-0.00656,-0.01373,-0.04257,-0.0238,-0.00229,-0.01587,-0.01114,-0.04532,0.00031,-0.02701,-0.02121,0.00687,-0.04807
10.9125,-0.00778,-0.05569,-0.04791,-0.00793,-0.0264,-0.03769,-0.01953,-0.00488,-0.01602,-0.01114,-0.04257,-0.00168,-0.03204,-0.02411,0.00534,-0.04868
10.913,-0.00595,-0.05249,-0.05203,-0.00946,-0.03601,-0.03052,-0.01511,-0.0061,-0.01602,-0.01068,-0.03906,-0.00275,-0.03601,-0.02594,0.00534,-0.04868
10.9135,-0.00412,-0.05005,-0.05463,-0.01083,-0.04364,-0.02487,-0.01801,-0.00626,-0.01602,-0.01129,-0.03525,-0.00412,-0.03571,-0.02686,0.00656,-0.04883
10.914,-0.00397,-0.04868,-0.0563,-0.01083,-0.05188,-0.02228,-0.02029,-0.00641,-0.01587,-0.01343,-0.02899,-0.00458,-0.03159,-0.02686,0.0061,-0.05035
10.9145,-0.00381,-0.04883,-0.05707,-0.00977,-0.06226,-0.01877,-0.01389,-0.00809,-0.01602,-0.01526,-0.01785,-0.00351,-0.02762,-0.02579,0.00534,-0.05371
10.915,-0.00351,-0.04929,-0.0563,-0.00977,-0.0737,-0.01572,-0.00702,-0.00992,-0.01617,-0.01648,-0.00397,-0.00107,-0.02487,-0.02426,0.00214,-0.05951
10.9155,-0.00397,-0.04929,-0.05524,-0.01083,-0.08057,-0.01556,-0.01053,-0.00961,-0.01602,-0.01724,0.00824,0.00015,-0.02319,-0.02365,-0.00305,-0.06332
10.916,-0.00381,-0.04822,-0.05386,-0.01251,-0.07797,-0.02182,-0.01862,-0.00702,-0.01358,-0.01801,0.01434,-0.00015,-0.02243,-0.02258,-0.00961,-0.06134
10.9165,-0.00397,-0.04654,-0.05219,-0.01221,-0.06927,-0.03128,-0.01785,-0.00458,-0.01083,-0.02197,0.01358,-0.00031,-0.02441,-0.02075,-0.01541,-0.05692
10.917,-0.00366,-0.04395,-0.05081,-0.01053,-0.05966,-0.04013,-0.00793,-0.0032,-0.01083,-0.02487,0.01114,0.00061,-0.02792,-0.01648,-0.01816,-0.05203
10.9175,-0.00336,-0.03967,-0.0499,-0.01068,-0.0531,-0.05096,-0.00214,-0.00366,-0.01312,-0.02518,0.00961,0.00092,-0.03265,-0.01358,-0.01663,-0.04715
10.918,-0.00259,-0.03448,-0.04944,-0.01389,-0.04776,-0.06638,-0.00778,-0.00397,-0.01434,-0.02335,0.00977,0.00092,-0.03662,-0.01373,-0.01755,-0.04181
10.9185,-0.00275,-0.0293,-0.04639,-0.01572,-0.04303,-0.08545,-0.01587,-0.00488,-0.01282,-0.02136,0.01129,0.00076,-0.04044,-0.01434,-0.02548,-0.03204
10.919,-0.0032,-0.02609,-0.04242,-0.01587,-0.03952,-0.09842,-0.01617,-0.00626,-0.01144,-0.0206,0.0116,0.00137,-0.0415,-0.01129,-0.04333,-0.01678
10.9195,-0.00366,-0.02472,-0.03815,-0.01266,-0.03845,-0.09476,-0.01099,-0.00671,-0.01266,-0.01938,0.01144,0.00305,-0.0412,-0.00458,-0.06195,-0.00198
10.92,-0.00351,-0.02487,-0.03555,-0.01038,-0.03708,-0.07553,-0.00839,-0.00412,-0.01495,-0.01999,0.01099,0.00427,-0.04181,-0.00061,-0.06729,0.00198
10.9205,-0.0032,-0.02686,-0.03342,-0.01114,-0.03418,-0.05295,-0.01083,-0.00214,-0.01556,-0.0206,0.00992,0.00519,-0.04166,-0.00275,-0.03998,-0.01007
10.921,-0.00275,-0.02975,-0.03281,-0.01251,-0.03036,-0.04135,-0.01419,-0.00214,-0.01297,-0.01831,0.00854,0.00488,-0.03967,-0.00671,0.0174,-0.02884
10.9215,-0.00305,-0.03204,-0.03174,-0.01251,-0.02518,-0.04089,-0.01526,-0.00534,-0.0116,-0.01297,0.01022,0.00305,-0.03448,-0.00824,0.06546,-0.03998
10.922,-0.00412,-0.0325,-0.03021,-0.00946,-0.02304,-0.04349,-0.01389,-0.00885,-0.01266,-0.0087,0.01114,0.00153,-0.02899,-0.01007,0.05463,-0.03525
10.9225,-0.0061,-0.03204,-0.02914,-0.00702,-0.02167,-0.04745,-0.01328,-0.009,-0.01282,-0.01038,0.01129,-0.00092,-0.02609,-0.02151,-0.00961,-0.02548
10.923,-0.00702,-0.03128,-0.02899,-0.00702,-0.01968,-0.05463,-0.01343,-0.0058,-0.01251,-0.01358,0.01038,-0.00153,-0.02731,-0.04196,-0.06012,-0.02792
10.9235,-0.00687,-0.03052,-0.0293,-0.00885,-0.01801,-0.07202,-0.01495,-0.00259,-0.01282,-0.01633,0.00839,-0.00076,-0.03128,-0.05447,-0.03616,-0.04517
10.924,-0.00488,-0.03082,-0.02899,-0.00931,-0.0177,-0.09628,-0.01587,-0.00183,-0.01389,-0.01694,0.00641,0.00183,-0.03571,-0.04623,0.04684,-0.05783
10.9245,-0.00397,-0.03113,-0.02914,-0.01144,-0.02151,-0.11536,-0.01755,-0.0029,-0.01633,-0.01755,0.00427,0.00183,-0.03998,-0.02594,0.121,-0.05157
10.925,-0.00504,-0.03143,-0.02792,-0.0116,-0.02426,-0.11703,-0.01648,-0.00366,-0.01755,-0.01923,0.00168,-0.00214,-0.04166,-0.01358,0.14145,-0.03784
10.9255,-0.00534,-0.03113,-0.02762,-0.01144,-0.02502,-0.10071,-0.01755,-0.0032,-0.0177,-0.01984,0.00153,-0.00687,-0.0386,-0.0148,0.1178,-0.03403
10.926,-0.00443,-0.03326,-0.02686,-0.01038,-0.0235,-0.07584,-0.01785,-0.00305,-0.01663,-0.0206,0.0029,-0.0087,-0.03433,-0.01968,0.08102,-0.04272
10.9265,-0.00381,-0.03571,-0.02579,-0.00946,-0.02167,-0.05661,-0.01953,-0.00259,-0.01587,-0.01907,0.00504,-0.00793,-0.03128,-0.02045,0.04684,-0.04959
10.927,-0.00519,-0.03708,-0.0235,-0.01068,-0.02319,-0.04639,-0.02121,-0.00244,-0.01541,-0.01663,0.00275,-0.0058,-0.03174,-0.02045,0.0235,-0.04898
10.9275,-0.0058,-0.03662,-0.0209,-0.01282,-0.02701,-0.04364,-0.02258,-0.00259,-0.01541,-0.01404,0.0,-0.00366,-0.03387,-0.02136,0.01648,-0.04562
10.928,-0.00488,-0.03738,-0.0206,-0.01221,-0.03235,-0.04578,-0.0206,-0.00366,-0.01511,-0.01205,-0.00198,-0.00137,-0.03464,-0.02228,0.02518,-0.04562
10.9285,-0.00381,-0.03952,-0.02182,-0.01068,-0.03769,-0.04807,-0.01617,-0.00473,-0.0148,-0.01312,-0.00427,-0.00046,-0.03357,-0.02228,0.03738,-0.05005
10.929,-0.00366,-0.04059,-0.02396,-0.00854,-0.03891,-0.0499,-0.01328,-0.00534,-0.01419,-0.01678,-0.00748,0.00015,-0.03098,-0.02167,0.04349,-0.05371
10.9295,-0.00214,-0.03876,-0.02457,-0.00839,-0.0351,-0.04913,-0.01297,-0.00351,-0.01297,-0.01953,-0.00961,0.00031,-0.02487,-0.02243,0.04578,-0.05463
10.93,-0.00092,-0.03738,-0.02457,-0.00946,-0.0296,-0.04669,-0.01236,-0.00137,-0.01312,-0.02258,-0.00961,0.00137,-0.01999,-0.02335,0.04227,-0.05417
10.9305,-0.00076,-0.03815,-0.02533,-0.01038,-0.02731,-0.04486,-0.01175,0.0,-0.01633,-0.02594,-0.00641,0.00214,-0.01907,-0.02289,0.03174,-0.05463
10.931,-0.00183,-0.0412,-0.02899,-0.01114,-0.0264,-0.04242,-0.01068,0.00031,-0.01953,-0.02731,-0.00366,0.00275,-0.02106,-0.0209,0.01785,-0.05142
10.9315,-0.00259,-0.04242,-0.03281,-0.01007,-0.02579,-0.03983,-0.01389,0.00046,-0.02014,-0.0264,-0.00183,0.00412,-0.02426,-0.01877,0.00732,-0.04562
10.932,-0.00275,-0.0415,-0.03616,-0.00854,-0.02335,-0.0383,-0.01724,0.00015,-0.01877,-0.02274,0.00076,0.00488,-0.02579,-0.01831,0.00397,-0.04272
10.9325,-0.00412,-0.03906,-0.03876,-0.00748,-0.01724,-0.03632,-0.01999,-0.00076,-0.01801,-0.01892,0.00259,0.0061,-0.0264,-0.01846,0.00488,-0.04349
10.933,-0.00473,-0.03601,-0.04044,-0.00854,-0.0119,-0.03357,-0.02029,-0.00198,-0.0177,-0.01678,0.00076,0.00565,-0.02716,-0.01877,0.00534,-0.04715
10.9335,-0.00473,-0.03525,-0.04105,-0.01068,-0.00961,-0.03143,-0.02045,-0.00183,-0.01801,-0.0174,-0.00214,0.00381,-0.02716,-0.01892,0.00397,-0.05249
10.934,-0.00488,-0.03418,-0.04181,-0.01221,-0.00916,-0.03235,-0.02014,-0.00153,-0.01831,-0.0177,-0.00458,0.00244,-0.02808,-0.01923,0.00244,-0.05234
10.9345,-0.00549,-0.03372,-0.04135,-0.01343,-0.01038,-0.03448,-0.01846,-0.00031,-0.01892,-0.01801,-0.00595,0.00153,-0.02853,-0.01862,-0.00183,-0.03876
10.935,-0.00595,-0.03372,-0.04105,-0.01511,-0.01266,-0.0386,-0.01587,0.00061,-0.01984,-0.01587,-0.009,0.00122,-0.0293,-0.01816,-0.00885,-0.01831
10.9355,-0.00549,-0.03403,-0.04105,-0.01617,-0.01907,-0.04227,-0.0148,0.00061,-0.01938,-0.0145,-0.01755,0.00107,-0.02991,-0.01831,-0.01877,-0.00977
10.936,-0.00443,-0.03479,-0.04166,-0.01678,-0.02762,-0.04578,-0.0145,0.00092,-0.01724,-0.0145,-0.02991,0.0,-0.03235,-0.01724,-0.02747,-0.01999
10.9365,-0.00397,-0.03479,-0.04211,-0.01724,-0.03967,-0.04761,-0.01358,0.00092,-0.01511,-0.01633,-0.04257,-0.00122,-0.03815,-0.0177,-0.03265,-0.03632
10.937,-0.00458,-0.03464,-0.04456,-0.01816,-0.05524,-0.04715,-0.0119,0.0,-0.01419,-0.01709,-0.05402,-0.0032,-0.04486,-0.0174,-0.03494,-0.04333
10.9375,-0.00549,-0.0351,-0.04898,-0.0174,-0.07385,-0.04654,-0.01129,-0.00153,-0.01419,-0.01694,-0.06195,-0.00305,-0.05112,-0.01801,-0.03586,-0.04272
10.938,-0.00504,-0.03693,-0.05066,-0.01556,-0.0856,-0.04776,-0.01068,-0.00397,-0.01373,-0.0177,-0.06638,-0.00183,-0.05371,-0.01923,-0.03586,-0.04166
10.9385,-0.00565,-0.03906,-0.04852,-0.01358,-0.08163,-0.04929,-0.01099,-0.00763,-0.01343,-0.01785,-0.06546,-0.00137,-0.05219,-0.02075,-0.0322,-0.04303
10.939,-0.00458,-0.04105,-0.04486,-0.01358,-0.06424,-0.04929,-0.01114,-0.01144,-0.01266,-0.01846,-0.0618,-0.00122,-0.04761,-0.02197,-0.01633,-0.04333
10.9395,-0.00412,-0.04044,-0.0415,-0.01495,-0.04364,-0.04791,-0.01175,-0.01556,-0.01114,-0.01938,-0.05814,0.00015,-0.04486,-0.02045,0.0145,-0.04288
10.94,-0.00366,-0.03784,-0.03952,-0.01587,-0.02838,-0.04562,-0.01129,-0.01862,-0.00977,-0.01801,-0.05127,0.00259,-0.04364,-0.01831,0.04913,-0.04242
10.9405,-0.00381,-0.03601,-0.03784,-0.01419,-0.01984,-0.04227,-0.01053,-0.01846,-0.01099,-0.0174,-0.03906,0.00214,-0.04181,-0.01678,0.06058,-0.04333
10.941,-0.00504,-0.03693,-0.03647,-0.0119,-0.01495,-0.03738,-0.01129,-0.01572,-0.01312,-0.01907,-0.02563,0.00015,-0.03937,-0.01694,0.04303,-0.04333
10.9415,-0.00549,-0.03967,-0.03586,-0.01068,-0.01434,-0.03052,-0.01236,-0.01312,-0.01495,-0.02045,-0.01587,-0.00061,-0.03662,-0.01709,0.01297,-0.04349
10.942,-0.00427,-0.04166,-0.03464,-0.00885,-0.02289,-0.02609,-0.01373,-0.0119,-0.01526,-0.02151,-0.00244,-0.00061,-0.03235,-0.01755,-0.0032,-0.04349
10.9425,-0.00336,-0.04242,-0.03448,-0.00748,-0.03235,-0.02609,-0.01343,-0.00732,-0.01678,-0.01862,0.0293,-0.00061,-0.02777,-0.01892,-0.00259,-0.04333
10.943,-0.00336,-0.04105,-0.03418,-0.00687,-0.0354,-0.02701,-0.01266,0.0058,-0.01801,-0.01556,0.07202,-0.00122,-0.02411,-0.01968,0.0032,-0.04303
10.9435,-0.00397,-0.04105,-0.03342,-0.00748,-0.02991,-0.02777,-0.0116,0.02655,-0.01892,-0.01495,0.09186,-0.00183,-0.02411,-0.01907,0.00351,-0.04288
10.944,-0.00519,-0.04257,-0.03235,-0.0087,-0.02457,-0.02808,-0.01144,0.04059,-0.01877,-0.01526,0.06516,-0.00107,-0.02594,-0.01694,0.0,-0.04379
10.9445,-0.00534,-0.04379,-0.03204,-0.009,-0.02365,-0.03006,-0.01312,0.03662,-0.01816,-0.01678,0.009,0.00031,-0.02701,-0.01389,-0.00076,-0.0444
10.945,-0.00595,-0.04364,-0.03326,-0.00824,-0.0235,-0.03021,-0.01511,0.01678,-0.01709,-0.01694,-0.04013,0.00122,-0.0264,-0.01236,-0.00137,-0.04395
10.9455,-0.0061,-0.04318,-0.03403,-0.00778,-0.01678,-0.02701,-0.01572,-0.00443,-0.01587,-0.01801,-0.06577,-0.00031,-0.02304,-0.01144,-0.00259,-0.04288
10.946,-0.0061,-0.0441,-0.03387,-0.0087,-0.00671,-0.02243,-0.0145,-0.01434,-0.01465,-0.01846,-0.07431,-0.00366,-0.01938,-0.0116,-0.00504,-0.04288
10.9465,-0.00519,-0.04654,-0.03296,-0.01144,-0.00305,-0.02319,-0.01266,-0.01389,-0.01541,-0.02045,-0.0737,-0.0061,-0.01633,-0.01266,-0.00473,-0.04379
10.947,-0.00397,-0.04761,-0.03098,-0.01434,-0.01541,-0.02838,-0.01221,-0.00885,-0.01709,-0.02167,-0.06454,-0.00687,-0.01602,-0.01328,-0.0032,-0.04318
10.9475,-0.0032,-0.04868,-0.0293,-0.01343,-0.03647,-0.03448,-0.01312,-0.00519,-0.01801,-0.02182,-0.05203,-0.00656,-0.01831,-0.01404,-0.00259,-0.04379
10.948,-0.00351,-0.04959,-0.02945,-0.01068,-0.05341,-0.03983,-0.01434,-0.00351,-0.01709,-0.02151,-0.04364,-0.00488,-0.02274,-0.01511,-0.00351,-0.0444
10.9485,-0.00488,-0.05081,-0.03021,-0.00656,-0.05783,-0.04745,-0.0148,-0.0029,-0.01556,-0.02274,-0.04257,-0.00336,-0.02563,-0.01556,-0.00488,-0.04425
10.949,-0.0058,-0.05157,-0.03098,-0.00412,-0.05081,-0.06317,-0.01404,-0.00336,-0.01526,-0.02289,-0.04486,-0.00198,-0.02747,-0.01526,-0.00549,-0.04211
10.9495,-0.00595,-0.05173,-0.03052,-0.00443,-0.03967,-0.08423,-0.01373,-0.00427,-0.0148,-0.02213,-0.04608,-0.00107,-0.02975,-0.01282,-0.00458,-0.04105
10.95,-0.0058,-0.05188,-0.03159,-0.00717,-0.0296,-0.10239,-0.01266,-0.00427,-0.01373,-0.02029,-0.04547,-0.00122,-0.03082,-0.00931,-0.00244,-0.04211
10.9505,-0.0058,-0.05219,-0.03235,-0.00977,-0.02487,-0.11002,-0.01221,-0.0032,-0.01175,-0.02045,-0.04669,-0.00153,-0.0325,-0.00565,-0.00046,-0.04471
10.951,-0.00626,-0.05219,-0.03326,-0.01129,-0.0264,-0.09903,-0.01236,-0.00244,-0.01099,-0.02106,-0.04868,-0.00229,-0.03525,-0.00381,0.0,-0.04639
10.9515,-0.00641,-0.05112,-0.03372,-0.0116,-0.03052,-0.07355,-0.01236,-0.00244,-0.01129,-0.02258,-0.04639,-0.00305,-0.03876,-0.00473,-0.00137,-0.0444
10.952,-0.00687,-0.04929,-0.03281,-0.01068,-0.03143,-0.04608,-0.01205,-0.00305,-0.01343,-0.02289,-0.03784,-0.0032,-0.04013,-0.00793,-0.00168,-0.03983
10.9525,-0.00732,-0.04761,-0.03204,-0.01099,-0.02914,-0.03235,-0.01099,-0.00412,-0.01526,-0.02228,-0.02563,-0.00366,-0.03662,-0.01053,-0.00214,-0.03815
10.953,-0.00778,-0.04639,-0.03326,-0.01236,-0.02823,-0.0322,-0.0116,-0.00519,-0.01419,-0.02121,-0.01465,-0.00275,-0.03052,-0.0119,-0.00198,-0.03922
10.9535,-0.00839,-0.04532,-0.03448,-0.01434,-0.03418,-0.03876,-0.01404,-0.00595,-0.01343,-0.02106,-0.00946,-0.00061,-0.02594,-0.01343,0.00107,-0.04166
10.954,-0.00717,-0.04517,-0.03555,-0.01511,-0.04684,-0.0415,-0.02106,-0.00687,-0.01495,-0.02136,-0.00839,0.00076,-0.02502,-0.0145,0.00549,-0.04395
10.9545,-0.00488,-0.04501,-0.0354,-0.0145,-0.05997,-0.03906,-0.03159,-0.00687,-0.01648,-0.0206,-0.00839,0.00137,-0.02625,-0.01556,0.00839,-0.04501
10.955,-0.00412,-0.04425,-0.03326,-0.01389,-0.06653,-0.03326,-0.03906,-0.00763,-0.01755,-0.02029,-0.00793,0.00153,-0.02899,-0.01633,0.0058,-0.04684
10.9555,-0.00427,-0.04349,-0.03143,-0.01373,-0.06485,-0.0322,-0.04028,-0.00732,-0.01648,-0.02106,-0.00778,0.00137,-0.03159,-0.01694,0.00092,-0.04929
10.956,-0.00595,-0.04196,-0.03143,-0.01389,-0.06012,-0.04303,-0.03601,-0.00793,-0.01556,-0.02136,-0.0087,-0.00015,-0.03357,-0.0177,0.00092,-0.04929
10.9565,-0.00793,-0.04074,-0.03235,-0.01312,-0.05829,-0.07004,-0.03479,-0.00793,-0.01648,-0.02258,-0.009,-0.00198,-0.03357,-0.01938,0.00427,-0.04776
10.957,-0.00824,-0.03967,-0.03479,-0.01282,-0.05859,-0.10452,-0.03876,-0.00793,-0.01785,-0.0235,-0.00641,-0.00305,-0.03357,-0.02045,0.01038,-0.04501
10.9575,-0.00824,-0.04089,-0.03555,-0.01129,-0.05905,-0.12741,-0.04456,-0.00763,-0.0206,-0.02411,-0.00259,-0.00351,-0.03479,-0.02213,0.01312,-0.04425
10.958,-0.00824,-0.04196,-0.03555,-0.01083,-0.056,-0.12436,-0.04623,-0.00687,-0.02197,-0.0235,0.00275,-0.00244,-0.03876,-0.02396,0.01419,-0.04608
10.9585,-0.00854,-0.04089,-0.03448,-0.01083,-0.05081,-0.09811,-0.03662,-0.00656,-0.0209,-0.02167,0.00946,-0.00229,-0.04456,-0.02594,0.01678,-0.04761
10.959,-0.00961,-0.03967,-0.03387,-0.01068,-0.04578,-0.06882,-0.00595,-0.00641,-0.01846,-0.02106,0.01602,-0.00305,-0.04959,-0.02777,0.01953,-0.04562
10.9595,-0.01068,-0.03876,-0.03357,-0.01053,-0.0415,-0.05234,0.04715,-0.00626,-0.01526,-0.02075,0.02197,-0.00275,-0.05035,-0.02884,0.01923,-0.0412
10.96,-0.01007,-0.03876,-0.03342,-0.01053,-0.03555,-0.04669,0.09247,-0.00565,-0.01556,-0.0209,0.02502,-0.00092,-0.04837,-0.02792,0.01572,-0.03326
10.9605,-0.00778,-0.03769,-0.03296,-0.01144,-0.02594,-0.04181,0.08682,-0.00504,-0.01694,-0.02014,0.02365,0.00122,-0.04486,-0.02533,0.01282,-0.02518
10.961,-0.0058,-0.03647,-0.03204,-0.01129,-0.01343,-0.03357,0.03204,-0.00397,-0.01801,-0.02045,0.02136,0.00229,-0.04227,-0.02213,0.01175,-0.01999
10.9615,-0.0058,-0.03601,-0.03174,-0.00793,-0.0058,-0.02792,-0.01953,-0.00412,-0.01724,-0.02029,0.01923,0.00183,-0.04059,-0.0206,0.01129,-0.02289
10.962,-0.00732,-0.03632,-0.0322,-0.00519,-0.00748,-0.02762,-0.02914,-0.00443,-0.01709,-0.01953,0.02075,0.00015,-0.0383,-0.02045,0.00977,-0.03326
10.9625,-0.00717,-0.03738,-0.0325,-0.00504,-0.01495,-0.03098,-0.01144,-0.00443,-0.01617,-0.01801,0.02335,0.00031,-0.03403,-0.01907,0.00931,-0.0415
10.963,-0.00641,-0.03754,-0.03235,-0.00763,-0.02243,-0.03342,-0.00214,-0.00412,-0.01633,-0.01923,0.02411,0.00107,-0.02914,-0.01648,0.00961,-0.04303
10.9635,-0.00519,-0.0383,-0.03174,-0.00992,-0.02243,-0.03372,-0.00946,-0.0032,-0.01648,-0.01953,0.01785,0.00229,-0.02441,-0.0145,0.00916,-0.04028
10.964,-0.00534,-0.03967,-0.03204,-0.00992,-0.0119,-0.03357,-0.01724,-0.00305,-0.01755,-0.01968,0.00534,0.00275,-0.0206,-0.01373,0.00717,-0.03922
10.9645,-0.00702,-0.04181,-0.03296,-0.00778,0.00473,-0.03052,-0.01251,-0.00458,-0.01846,-0.01984,-0.009,0.0032,-0.01801,-0.01373,0.00427,-0.03998
10.965,-0.00732,-0.04196,-0.03265,-0.00595,0.01801,-0.02686,-0.00046,-0.00549,-0.01755,-0.01831,-0.02151,0.0032,-0.01816,-0.01205,0.00458,-0.04166
10.9655,-0.00748,-0.04105,-0.03326,-0.00504,0.01511,-0.02472,0.00427,-0.00534,-0.01511,-0.0174,-0.03296,0.00275,-0.02258,-0.01129,0.0061,-0.04257
10.966,-0.00839,-0.0415,-0.03372,-0.00687,-0.00443,-0.02716,-0.00336,-0.00397,-0.0148,-0.01633,-0.04333,0.00153,-0.02853,-0.01328,0.00687,-0.04227
10.9665,-0.01007,-0.04303,-0.03464,-0.00839,-0.02899,-0.03326,-0.01404,-0.00351,-0.01526,-0.01526,-0.0528,-0.00046,-0.03311,-0.01648,0.00748,-0.04257
10.967,-0.01083,-0.04257,-0.03433,-0.00793,-0.03952,-0.04013,-0.0174,-0.00351,-0.0148,-0.01495,-0.06134,-0.00259,-0.03357,-0.02045,0.00793,-0.04318
10.9675,-0.01053,-0.04059,-0.03372,-0.00656,-0.03204,-0.04318,-0.01572,-0.00458,-0.01389,-0.01404,-0.06958,-0.00275,-0.0293,-0.0235,0.00854,-0.04379
10.968,-0.009,-0.03799,-0.03296,-0.00671,-0.01526,-0.04257,-0.01526,-0.00443,-0.01404,-0.01358,-0.07248,-0.00168,-0.02365,-0.02487,0.00809,-0.04379
10.9685,-0.00809,-0.03647,-0.03296,-0.00656,-0.0029,-0.04211,-0.0174,-0.00336,-0.0148,-0.01266,-0.07034,-0.00046,-0.01801,-0.02396,0.00763,-0.04272
10.969,-0.00854,-0.03799,-0.03311,-0.00534,-0.00488,-0.04578,-0.01968,-0.0032,-0.01648,-0.01282,-0.06241,-0.00122,-0.01312,-0.02167,0.00687,-0.04211
10.9695,-0.00916,-0.03967,-0.03357,-0.00351,-0.02243,-0.05173,-0.02045,-0.0029,-0.01526,-0.01328,-0.0531,-0.00183,-0.01236,-0.02014,0.00687,-0.04333
10.97,-0.00885,-0.03967,-0.03357,-0.00381,-0.04593,-0.05829,-0.01892,-0.00259,-0.01251,-0.01373,-0.04593,-0.00076,-0.01648,-0.01938,0.00778,-0.0444
10.9705,-0.00824,-0.04028,-0.03296,-0.00534,-0.06027,-0.0618,-0.01938,-0.00259,-0.00992,-0.01343,-0.03922,0.00107,-0.02365,-0.02014,0.00763,-0.04501
10.971,-0.00626,-0.04105,-0.03265,-0.00595,-0.05905,-0.06088,-0.02365,-0.00244,-0.00839,-0.01297,-0.02975,0.00198,-0.0296,-0.02151,0.00854,-0.0441
10.9715,-0.00458,-0.04272,-0.03235,-0.00443,-0.04898,-0.0563,-0.02869,-0.00351,-0.00916,-0.01328,-0.01831,0.00168,-0.03281,-0.0235,0.00839,-0.04349
10.972,-0.00427,-0.0441,-0.0322,-0.00381,-0.03876,-0.04837,-0.03128,-0.00351,-0.01144,-0.01328,-0.00977,0.00076,-0.03464,-0.02319,0.00977,-0.04318
10.9725,-0.00458,-0.04532,-0.03098,-0.00534,-0.03464,-0.04135,-0.02991,-0.00259,-0.0145,-0.01434,-0.00595,0.00046,-0.03479,-0.0209,0.00992,-0.04257
10.973,-0.00519,-0.04456,-0.02991,-0.00778,-0.03998,-0.03998,-0.0264,-0.00107,-0.01648,-0.01465,-0.00336,0.00046,-0.03342,-0.0177,0.00916,-0.04349
10.9735,-0.0058,-0.04349,-0.02975,-0.00946,-0.05066,-0.04242,-0.02258,-0.00122,-0.01709,-0.01633,0.0,0.00015,-0.03403,-0.01633,0.00793,-0.04425
10.974,-0.00488,-0.04333,-0.03067,-0.01068,-0.05768,-0.04425,-0.01816,-0.00275,-0.01587,-0.01617,0.009,-0.00046,-0.03708,-0.01785,0.00717,-0.04501
10.9745,-0.00458,-0.04532,-0.03235,-0.01129,-0.05524,-0.04333,-0.01495,-0.00336,-0.01465,-0.01602,0.03311,0.00076,-0.04211,-0.01938,0.00763,-0.04471
10.975,-0.00488,-0.04669,-0.03403,-0.01068,-0.04593,-0.04013,-0.01129,-0.00244,-0.01297,-0.01526,0.07141,0.00092,-0.04776,-0.02045,0.00809,-0.04425
10.9755,-0.0058,-0.047,-0.03525,-0.00977,-0.0351,-0.03784,-0.00702,-0.00092,-0.01221,-0.0177,0.10193,0.00031,-0.05371,-0.0209,0.01038,-0.04349
10.976,-0.00641,-0.04547,-0.0354,-0.01007,-0.02365,-0.03586,-0.00031,-0.00107,-0.01282,-0.02014,0.09766,-0.00046,-0.05783,-0.02075,0.0116,-0.04395
10.9765,-0.00671,-0.04333,-0.03418,-0.01114,-0.01266,-0.03433,0.00488,-0.00259,-0.01022,-0.0209,0.05798,-0.00061,-0.05951,-0.01968,0.00946,-0.0441
10.977,-0.00656,-0.04135,-0.03265,-0.01114,-0.00443,-0.03204,0.00275,-0.00412,-0.00656,-0.02136,0.00992,-0.00015,-0.05707,-0.01633,0.00839,-0.04349
10.9775,-0.00687,-0.04044,-0.03265,-0.00977,-0.00198,-0.02899,-0.00763,-0.00427,-0.00351,-0.02335,-0.02457,0.00031,-0.05432,-0.01236,0.00854,-0.04211
10.978,-0.00793,-0.03983,-0.03296,-0.00671,-0.00229,-0.02655,-0.01862,-0.00305,-0.00427,-0.0264,-0.04272,0.00031,-0.05157,-0.01053,0.00977,-0.04181
10.9785,-0.00885,-0.03983,-0.03357,-0.00519,-0.00412,-0.02945,-0.02167,-0.0029,-0.00824,-0.02991,-0.04822,-0.00031,-0.04944,-0.0116,0.009,-0.04242
10.979,-0.009,-0.03967,-0.03372,-0.0061,-0.00854,-0.03647,-0.02014,-0.00443,-0.01251,-0.03082,-0.04593,-0.00061,-0.04639,-0.0148,0.00977,-0.04272
10.9795,-0.00748,-0.03815,-0.03326,-0.00702,-0.01465,-0.04349,-0.0206,-0.00565,-0.01587,-0.0296,-0.04089,-0.00061,-0.0415,-0.01862,0.009,-0.04257
10.98,-0.00473,-0.03769,-0.03357,-0.00626,-0.02304,-0.04532,-0.02319,-0.0058,-0.01755,-0.0264,-0.03815,0.00107,-0.03677,-0.02182,0.01053,-0.04105
10.9805,-0.00412,-0.03891,-0.03464,-0.00458,-0.03189,-0.04257,-0.02365,-0.00458,-0.01907,-0.02457,-0.0383,0.00443,-0.03464,-0.02197,0.0116,-0.04105
10.981,-0.00427,-0.04059,-0.03433,-0.00397,-0.04272,-0.0386,-0.02182,-0.00351,-0.02151,-0.02365,-0.03799,0.00641,-0.03387,-0.02243,0.01251,-0.04227
10.9815,-0.00397,-0.04013,-0.03403,-0.00473,-0.05646,-0.03525,-0.02014,-0.0029,-0.0238,-0.02243,-0.03906,0.00595,-0.03204,-0.02411,0.0116,-0.04395
10.982,-0.0029,-0.04013,-0.03433,-0.00565,-0.06882,-0.03342,-0.01801,-0.00259,-0.02594,-0.02106,-0.04211,0.0032,-0.0296,-0.0264,0.01053,-0.04395
10.9825,-0.00336,-0.03967,-0.0351,-0.00732,-0.07202,-0.03342,-0.01617,-0.00198,-0.02609,-0.02167,-0.04608,0.00168,-0.02762,-0.02823,0.00885,-0.04089
10.983,-0.00534,-0.03967,-0.0354,-0.00885,-0.065,-0.03357,-0.01572,-0.00137,-0.02441,-0.02213,-0.04639,0.00473,-0.02518,-0.02777,0.00839,-0.03922
10.9835,-0.00656,-0.03967,-0.0354,-0.00961,-0.05249,-0.0354,-0.01633,-0.00198,-0.02441,-0.02014,-0.04349,0.01068,-0.02213,-0.02792,0.00854,-0.03952
10.984,-0.00748,-0.04089,-0.0351,-0.01007,-0.0412,-0.03738,-0.01587,-0.00336,-0.02548,-0.01709,-0.03769,0.01663,-0.01801,-0.02914,0.00824,-0.04044
10.9845,-0.00824,-0.04196,-0.03571,-0.01007,-0.03403,-0.04196,-0.0145,-0.00458,-0.02625,-0.01465,-0.03006,0.01755,-0.00961,-0.03113,0.00778,-0.04089
10.985,-0.00809,-0.04242,-0.03708,-0.0116,-0.02884,-0.05844,-0.01221,-0.0058,-0.02701,-0.01205,-0.02228,0.01465,0.00015,-0.03067,0.00778,-0.0412
10.9855,-0.00763,-0.04135,-0.03708,-0.01205,-0.02167,-0.08804,-0.01175,-0.00504,-0.02869,-0.00931,-0.01877,0.00931,0.00427,-0.02655,0.00748,-0.04181
10.986,-0.00641,-0.03998,-0.03738,-0.01282,-0.01099,-0.11414,-0.01343,-0.00351,-0.03128,-0.00656,-0.02213,0.00534,-0.00153,-0.02106,0.00809,-0.04227
10.9865,-0.00595,-0.03967,-0.03769,-0.01389,0.00244,-0.11108,-0.01633,-0.00198,-0.03265,-0.00824,-0.02701,0.00259,-0.01312,-0.01877,0.00702,-0.04181
10.987,-0.00504,-0.04028,-0.03815,-0.01541,0.01221,-0.08148,-0.01923,-0.00168,-0.03082,-0.00977,-0.02472,0.00137,-0.0238,-0.02014,0.00488,-0.04135
10.9875,-0.00488,-0.04272,-0.0386,-0.01648,0.0116,-0.05188,-0.01953,-0.00183,-0.02777,-0.00977,-0.01022,-0.0029,-0.03052,-0.02213,0.00381,-0.04181
10.988,-0.00488,-0.04547,-0.03799,-0.01785,0.00259,-0.04013,-0.01755,-0.0029,-0.02441,-0.00839,0.01404,-0.01022,-0.03571,-0.02243,0.0032,-0.04196
10.9885,-0.00427,-0.04669,-0.03723,-0.01846,-0.00793,-0.0412,-0.01678,-0.00473,-0.02106,-0.00748,0.03738,-0.01755,-0.04135,-0.02151,0.00381,-0.04211
10.989,-0.0032,-0.04547,-0.03494,-0.01724,-0.01572,-0.04425,-0.01785,-0.00565,-0.01678,-0.00732,0.04807,-0.02151,-0.04517,-0.02106,0.00549,-0.04196
10.9895,-0.00275,-0.04288,-0.03448,-0.01511,-0.01831,-0.04562,-0.0177,-0.00397,-0.01251,-0.00839,0.04501,-0.02213,-0.04456,-0.02167,0.00809,-0.04211
10.99,-0.00336,-0.03998,-0.03601,-0.01282,-0.02182,-0.047,-0.01709,-0.00168,-0.01068,-0.00992,0.03464,-0.02274,-0.04135,-0.02228,0.009,-0.04166
10.9905,-0.00412,-0.03769,-0.03677,-0.01129,-0.03799,-0.04913,-0.0174,-0.00092,-0.01068,-0.01175,0.02243,-0.02533,-0.03845,-0.02228,0.00763,-0.04105
10.991,-0.00305,-0.03784,-0.03632,-0.01114,-0.07095,-0.04959,-0.01801,-0.00137,-0.01053,-0.01511,0.01068,-0.02716,-0.03769,-0.02182,0.00732,-0.03998
10.9915,-0.00336,-0.03876,-0.03601,-0.01083,-0.10971,-0.05127,-0.01755,-0.00214,-0.00992,-0.01526,-0.00031,-0.02762,-0.0383,-0.02045,0.00839,-0.03967
10.992,-0.00443,-0.03815,-0.0351,-0.00961,-0.13565,-0.05295,-0.01587,-0.00198,-0.0087,-0.01495,-0.01144,-0.0264,-0.04074,-0.01907,0.00977,-0.04028
10.9925,-0.00534,-0.03906,-0.03479,-0.00717,-0.13412,-0.05341,-0.01526,-0.00259,-0.00748,-0.01572,-0.0235,-0.02014,-0.04349,-0.01801,0.00809,-0.04105
10.993,-0.0058,-0.04089,-0.03479,-0.00763,-0.10971,-0.05203,-0.01633,-0.0029,-0.00656,-0.01755,-0.0354,-0.00793,-0.04654,-0.01846,0.00824,-0.04105
10.9935,-0.00488,-0.04303,-0.03616,-0.01038,-0.08392,-0.04913,-0.0177,-0.00381,-0.0058,-0.01907,-0.04562,0.00732,-0.04776,-0.01999,0.00687,-0.04044
10.994,-0.00473,-0.04303,-0.03662,-0.01312,-0.07156,-0.04745,-0.01602,-0.00381,-0.00702,-0.02029,-0.05096,0.01801,-0.04623,-0.01999,0.00595,-0.03983
10.9945,-0.00366,-0.04135,-0.03693,-0.01297,-0.07309,-0.04745,-0.01358,-0.00351,-0.00778,-0.02045,-0.05386,0.02625,-0.0441,-0.02014,0.00793,-0.03998
10.995,-0.00214,-0.0386,-0.03586,-0.0119,-0.0737,-0.04807,-0.01312,-0.00336,-0.00824,-0.02228,-0.05615,0.03769,-0.04456,-0.01984,0.009,-0.0412
10.9955,-0.00153,-0.03845,-0.0351,-0.00992,-0.0618,-0.05005,-0.01328,-0.00381,-0.00839,-0.02365,-0.05661,0.04532,-0.04608,-0.01984,0.01068,-0.0412
10.996,-0.0029,-0.03891,-0.03464,-0.0087,-0.0386,-0.05096,-0.01343,-0.00336,-0.00961,-0.02426,-0.05386,0.03357,-0.04578,-0.01923,0.01007,-0.04059
10.9965,-0.00381,-0.03891,-0.03479,-0.00793,-0.01251,-0.05035,-0.01236,-0.00397,-0.01068,-0.02396,-0.05005,0.00565,-0.04181,-0.01862,0.00961,-0.03967
10.997,-0.00412,-0.03738,-0.0351,-0.009,0.00763,-0.0502,-0.01205,-0.00488,-0.01007,-0.02243,-0.04761,-0.01541,-0.03677,-0.01785,0.01099,-0.03983
10.9975,-0.00259,-0.03571,-0.03479,-0.00885,0.01205,-0.05173,-0.01297,-0.00565,-0.00916,-0.02258,-0.0441,-0.01877,-0.03387,-0.01801,0.01175,-0.04044
10.998,-0.00015,-0.03616,-0.03418,-0.00854,0.00366,-0.0528,-0.01404,-0.00504,-0.00885,-0.0235,-0.03586,-0.01221,-0.03326,-0.01953,0.01068,-0.04211
10.9985,0.00015,-0.03815,-0.03357,-0.00793,-0.00397,-0.05249,-0.01343,-0.00397,-0.00946,-0.02563,-0.02502,-0.01038,-0.03387,-0.0209,0.00961,-0.04288
10.999,-0.00046,-0.03891,-0.03342,-0.00763,-0.00259,-0.0499,-0.01358,-0.00397,-0.01007,-0.02655,-0.01434,-0.0148,-0.03281,-0.0206,0.00961,-0.04272
10.9995,-0.00107,-0.03754,-0.03387,-0.00702,0.00214,-0.04745,-0.01343,-0.00198,-0.00916,-0.02609,-0.00656,-0.0174,-0.03036,-0.01877,0.01114,-0.04105
11.0,-0.00061,-0.0351,-0.03448,-0.00717,0.00015,-0.04608,-0.0145,0.00046,-0.00839,-0.02533,0.00015,-0.01541,-0.02701,-0.01785,0.0119,-0.03983
11.0005,0.00061,-0.03555,-0.03464,-0.00931,-0.00656,-0.04593,-0.0148,0.00092,-0.00732,-0.0235,0.00443,-0.0116,-0.02335,-0.01678,0.01251,-0.03922
11.001,0.00229,-0.03845,-0.0351,-0.01297,-0.01053,-0.0444,-0.01465,-0.00015,-0.00549,-0.01968,0.00671,-0.00763,-0.02197,-0.01572,0.01251,-0.03845
11.0015,0.00259,-0.0415,-0.0351,-0.01389,-0.00992,-0.04059,-0.01373,-0.00198,-0.00397,-0.01465,0.0087,-0.00366,-0.02487,-0.0148,0.01251,-0.03754
11.002,0.00137,-0.04379,-0.03754,-0.01236,-0.00839,-0.03601,-0.01343,-0.00275,-0.0032,-0.01251,0.01099,-0.00427,-0.03006,-0.01465,0.01053,-0.03769
11.0025,-0.00015,-0.04517,-0.03845,-0.00916,-0.00671,-0.03494,-0.01617,-0.00275,-0.00397,-0.01343,0.01205,-0.01038,-0.03235,-0.01541,0.00931,-0.04135
11.003,-0.00031,-0.04501,-0.03922,-0.00702,-0.00061,-0.03738,-0.02045,-0.00229,-0.00473,-0.01404,0.00992,-0.01663,-0.03128,-0.01495,0.00854,-0.04486
11.0035,0.00092,-0.04425,-0.03922,-0.00565,0.00427,-0.03983,-0.02441,-0.00229,-0.00595,-0.01343,0.00839,-0.0145,-0.02823,-0.01328,0.009,-0.0473
11.004,0.00229,-0.04272,-0.04059,-0.00748,0.0032,-0.04288,-0.02548,-0.00214,-0.00763,-0.0145,0.01053,-0.00458,-0.02533,-0.01221,0.00854,-0.04929
11.0045,0.00214,-0.04211,-0.04196,-0.01129,-0.00992,-0.04868,-0.02426,-0.0032,-0.00931,-0.01831,0.02167,0.00641,-0.02182,-0.01266,0.00885,-0.04974
11.005,0.00107,-0.03998,-0.04089,-0.01297,-0.03403,-0.05585,-0.02182,-0.00397,-0.01053,-0.02274,0.05112,0.01297,-0.01785,-0.01343,0.0087,-0.04761
11.0055,0.00031,-0.0383,-0.04135,-0.01038,-0.05829,-0.0647,-0.02274,-0.00412,-0.01236,-0.02426,0.09689,0.01709,-0.01572,-0.01205,0.00885,-0.04349
11.006,-0.00137,-0.0383,-0.04257,-0.00748,-0.07324,-0.07004,-0.02655,-0.00275,-0.01587,-0.0238,0.13321,0.02075,-0.01465,-0.0087,0.00824,-0.04105
11.0065,-0.00198,-0.03998,-0.04135,-0.00885,-0.07492,-0.07004,-0.02869,-0.00229,-0.02029,-0.02319,0.12894,0.02365,-0.01556,-0.00732,0.00824,-0.04013
11.007,-0.00076,-0.0412,-0.03845,-0.01328,-0.06927,-0.06851,-0.02731,-0.00275,-0.02289,-0.02304,0.08072,0.02731,-0.01495,-0.00885,0.0087,-0.03998
11.0075,-0.00076,-0.04181,-0.03601,-0.0148,-0.06317,-0.06256,-0.02335,-0.00397,-0.02426,-0.02335,0.0177,0.02975,-0.01434,-0.0119,0.00992,-0.04074
11.008,-0.00153,-0.04105,-0.03586,-0.01221,-0.05692,-0.05432,-0.01312,-0.00412,-0.02701,-0.02396,-0.03021,0.02869,-0.0148,-0.01495,0.00992,-0.04089
11.0085,-0.00336,-0.04059,-0.03555,-0.01114,-0.05005,-0.04608,0.00504,-0.00488,-0.03006,-0.02487,-0.056,0.02228,-0.01831,-0.01831,0.01022,-0.0415
11.009,-0.00305,-0.04044,-0.03632,-0.01343,-0.0444,-0.0412,0.02304,-0.00473,-0.03204,-0.02502,-0.06485,0.01389,-0.02457,-0.02151,0.01083,-0.04211
11.0095,-0.00168,-0.04074,-0.0354,-0.01648,-0.03784,-0.04028,0.02945,-0.00351,-0.03265,-0.02411,-0.06195,0.00793,-0.03052,-0.02396,0.0116,-0.04105
11.01,0.00046,-0.04044,-0.03433,-0.01755,-0.03098,-0.04318,0.0235,-0.0029,-0.03357,-0.02335,-0.05203,0.00412,-0.03784,-0.02518,0.01053,-0.03876
11.0105,0.00122,-0.03922,-0.03433,-0.01587,-0.02579,-0.04425,0.01205,-0.0029,-0.03693,-0.02457,-0.0386,0.00061,-0.04227,-0.02701,0.00839,-0.03784
11.011,0.00153,-0.03876,-0.03418,-0.01373,-0.02502,-0.04013,0.00122,-0.00412,-0.03983,-0.02594,-0.02808,-0.00397,-0.04547,-0.02731,0.00778,-0.03799
11.0115,0.00214,-0.0354,-0.03387,-0.01175,-0.02441,-0.03281,-0.00671,-0.00366,-0.03799,-0.0267,-0.02518,-0.01022,-0.04547,-0.0264,0.00748,-0.0383
11.012,0.00214,-0.02884,-0.03372,-0.01022,-0.02136,-0.02686,-0.01068,-0.00305,-0.03265,-0.02808,-0.02991,-0.01587,-0.04532,-0.02411,0.00854,-0.03784
11.0125,0.00092,-0.01923,-0.03098,-0.00916,-0.01923,-0.02502,-0.01175,-0.00137,-0.02701,-0.03021,-0.03906,-0.02014,-0.04578,-0.02197,0.00854,-0.03769
11.013,-0.00076,-0.00992,-0.0296,-0.00748,-0.01938,-0.02731,-0.01099,-0.00153,-0.02243,-0.0325,-0.04898,-0.01923,-0.04562,-0.01984,0.00854,-0.03891
11.0135,-0.00229,-0.00687,-0.02914,-0.00427,-0.02167,-0.03128,-0.01038,-0.00214,-0.01877,-0.03326,-0.05753,-0.01633,-0.04013,-0.01831,0.00824,-0.04089
11.014,-0.00153,-0.01328,-0.02869,-0.00198,-0.02045,-0.03555,-0.0119,-0.00351,-0.01495,-0.03235,-0.06363,-0.01175,-0.03189,-0.01816,0.00687,-0.04227
11.0145,-0.00046,-0.02426,-0.02686,-0.00397,-0.01587,-0.0383,-0.01358,-0.00336,-0.01175,-0.02945,-0.06744,-0.00946,-0.02518,-0.0177,0.00671,-0.04303
11.015,-0.00107,-0.03464,-0.02335,-0.00946,-0.01022,-0.04089,-0.01465,-0.00336,-0.00717,-0.02563,-0.06821,-0.00809,-0.02411,-0.01465,0.00717,-0.0444
11.0155,-0.00214,-0.03952,-0.02228,-0.01465,-0.00824,-0.04379,-0.01511,-0.0032,-0.00397,-0.02045,-0.06409,-0.00809,-0.0267,-0.01083,0.00809,-0.0441
11.016,-0.00229,-0.04257,-0.02441,-0.0174,-0.01053,-0.04776,-0.01511,-0.00336,-0.00229,-0.01816,-0.05692,-0.01129,-0.0296,-0.00885,0.00763,-0.04364
11.0165,-0.00107,-0.04501,-0.02777,-0.01831,-0.01541,-0.05142,-0.01495,-0.00366,-0.00336,-0.01801,-0.05173,-0.01617,-0.03021,-0.00992,0.00626,-0.04288
11.017,-0.00153,-0.04791,-0.02869,-0.0145,-0.01831,-0.05295,-0.01511,-0.00427,-0.00519,-0.01877,-0.04852,-0.01968,-0.02975,-0.01358,0.00626,-0.04379
11.0175,-0.00412,-0.04929,-0.02777,-0.00916,-0.02213,-0.05417,-0.01526,-0.00443,-0.00641,-0.01846,-0.04822,-0.01755,-0.02945,-0.0174,0.00748,-0.04562
11.018,-0.00626,-0.0499,-0.02701,-0.00443,-0.02594,-0.05554,-0.01572,-0.00458,-0.00656,-0.01816,-0.04517,-0.0119,-0.03098,-0.01846,0.00992,-0.04684
11.0185,-0.00595,-0.05066,-0.02914,-0.00153,-0.02853,-0.05478,-0.01602,-0.0061,-0.00763,-0.01816,-0.03525,-0.00687,-0.03418,-0.01678,0.00931,-0.04532
11.019,-0.00275,-0.05081,-0.03342,-0.00122,-0.03006,-0.0528,-0.01709,-0.00839,-0.00946,-0.01785,-0.0206,-0.00305,-0.03571,-0.0148,0.00824,-0.04257
11.0195,0.00092,-0.05142,-0.03632,-0.00259,-0.03265,-0.05112,-0.0177,-0.00839,-0.0119,-0.01663,-0.00748,0.00076,-0.03616,-0.01801,0.00717,-0.04059
11.02,0.00183,-0.05234,-0.03723,-0.00443,-0.03799,-0.05051,-0.01633,-0.00534,-0.01389,-0.01465,0.00031,0.00443,-0.03601,-0.02258,0.00885,-0.03937
11.0205,0.00031,-0.05402,-0.0354,-0.0058,-0.04807,-0.05066,-0.01495,-0.00046,-0.01511,-0.01602,0.00275,0.0061,-0.03586,-0.02411,0.01038,-0.04074
11.021,-0.00229,-0.05829,-0.0322,-0.00641,-0.05936,-0.05112,-0.0145,0.00198,-0.01602,-0.01816,0.00351,0.00702,-0.0351,-0.02182,0.01175,-0.04211
11.0215,-0.00427,-0.06104,-0.0293,-0.00641,-0.06363,-0.05157,-0.01526,0.00122,-0.01602,-0.01968,0.00443,0.00671,-0.0325,-0.01801,0.01053,-0.04242
11.022,-0.00565,-0.0618,-0.02869,-0.00519,-0.05814,-0.05005,-0.01572,-0.00092,-0.01541,-0.01984,0.00488,0.00595,-0.02808,-0.01587,0.00931,-0.04105
11.0225,-0.00595,-0.06149,-0.02914,-0.00549,-0.04364,-0.04654,-0.01572,-0.00198,-0.0145,-0.01892,0.00412,0.00366,-0.02426,-0.01617,0.00839,-0.04013
11.023,-0.0061,-0.06088,-0.03067,-0.00671,-0.02792,-0.04242,-0.01389,-0.00275,-0.01389,-0.0174,0.00427,0.00244,-0.02167,-0.01648,0.00717,-0.04013
11.0235,-0.00656,-0.06271,-0.0351,-0.00717,-0.01831,-0.04044,-0.01175,-0.00381,-0.01282,-0.01709,0.0058,0.00198,-0.01923,-0.0177,0.00656,-0.0412
11.024,-0.0058,-0.06317,-0.04272,-0.00626,-0.02213,-0.0415,-0.01114,-0.00565,-0.01328,-0.01678,0.00626,0.00198,-0.0177,-0.01862,0.00839,-0.04166
11.0245,-0.00473,-0.0621,-0.05096,-0.00732,-0.03387,-0.04349,-0.01129,-0.00702,-0.01282,-0.0174,0.00565,0.00214,-0.01556,-0.0206,0.01007,-0.04135
11.025,-0.00427,-0.05859,-0.05615,-0.01038,-0.04028,-0.04562,-0.01099,-0.00702,-0.01389,-0.01617,0.00565,0.00122,-0.01495,-0.02365,0.00931,-0.04166
11.0255,-0.00534,-0.05463,-0.05707,-0.01297,-0.03769,-0.04684,-0.01144,-0.00443,-0.01511,-0.01495,0.00656,0.00031,-0.01785,-0.0264,0.00839,-0.04257
11.026,-0.00671,-0.05157,-0.05463,-0.01236,-0.02914,-0.05127,-0.0116,-0.00275,-0.01556,-0.01419,0.00702,0.00137,-0.02426,-0.0267,0.00748,-0.04211
11.0265,-0.00809,-0.04959,-0.05234,-0.01053,-0.02548,-0.06012,-0.01358,-0.00305,-0.01572,-0.0148,0.0061,0.00305,-0.03235,-0.02548,0.0087,-0.04196
11.027,-0.00977,-0.04761,-0.04959,-0.00961,-0.02777,-0.06805,-0.01541,-0.00412,-0.01663,-0.01541,0.00458,0.00443,-0.03891,-0.02487,0.0087,-0.0415
11.0275,-0.0116,-0.0441,-0.04608,-0.00977,-0.02502,-0.07065,-0.01663,-0.00351,-0.01755,-0.01587,0.0032,0.0032,-0.04364,-0.02701,0.00748,-0.0415
11.028,-0.0119,-0.04227,-0.04333,-0.0116,-0.00504,-0.06546,-0.0174,-0.00305,-0.01755,-0.01602,0.00214,0.00198,-0.04608,-0.02899,0.00687,-0.04242
11.0285,-0.01083,-0.04013,-0.04166,-0.01251,0.02853,-0.05936,-0.0177,-0.00229,-0.01633,-0.01633,-0.00046,0.00183,-0.04578,-0.0296,0.00671,-0.04288
11.029,-0.009,-0.03876,-0.04227,-0.01282,0.0563,-0.05508,-0.01709,-0.00381,-0.01556,-0.01709,-0.00351,0.00107,-0.04425,-0.02975,0.00671,-0.0441
11.0295,-0.00687,-0.03738,-0.04074,-0.01236,0.06104,-0.0499,-0.01511,-0.00412,-0.0148,-0.01846,-0.00534,0.00092,-0.04303,-0.02792,0.00839,-0.0441
11.03,-0.00565,-0.0354,-0.0386,-0.01175,0.04715,-0.04227,-0.01297,-0.00351,-0.0145,-0.01923,-0.00443,0.00137,-0.04318,-0.02487,0.01007,-0.04364
11.0305,-0.00443,-0.03326,-0.03601,-0.0116,0.02945,-0.03342,-0.01251,-0.00198,-0.01343,-0.01724,-0.00519,0.00244,-0.04395,-0.01984,0.00992,-0.04349
11.031,-0.00412,-0.03159,-0.03464,-0.01068,0.01724,-0.0267,-0.01282,-0.00137,-0.01297,-0.0148,-0.00687,0.00214,-0.0441,-0.01465,0.00809,-0.04364
11.0315,-0.00305,-0.03159,-0.03372,-0.00977,0.0061,-0.02487,-0.01312,-0.00214,-0.01236,-0.0119,-0.009,0.00061,-0.04272,-0.01236,0.00702,-0.04395
11.032,-0.00137,-0.03281,-0.03265,-0.0087,-0.00443,-0.02899,-0.01343,-0.00183,-0.01282,-0.01083,-0.00839,-0.00183,-0.03891,-0.0119,0.00778,-0.04318
11.0325,0.0,-0.03204,-0.03143,-0.00931,-0.01205,-0.03769,-0.01266,-0.00137,-0.01266,-0.0119,-0.00656,-0.00244,-0.03357,-0.0116,0.00931,-0.04227
11.033,0.00076,-0.02747,-0.03098,-0.01114,-0.0148,-0.04517,-0.0116,-0.00229,-0.01373,-0.01358,-0.0058,-0.00214,-0.03021,-0.0119,0.01022,-0.04181
11.0335,0.00122,-0.01984,-0.03159,-0.01205,-0.01602,-0.04913,-0.01129,-0.00336,-0.01465,-0.01556,-0.00839,-0.00076,-0.03021,-0.01389,0.01038,-0.04181
11.034,-0.00076,-0.01511,-0.03204,-0.0119,-0.01755,-0.04745,-0.0116,-0.00275,-0.01556,-0.01862,-0.01144,-0.00015,-0.03418,-0.01633,0.01053,-0.04196
11.0345,-0.00351,-0.01816,-0.0322,-0.01038,-0.02853,-0.04623,-0.01236,-0.00168,-0.01587,-0.01923,-0.01373,-0.00092,-0.03815,-0.01724,0.01083,-0.04089
11.035,-0.00504,-0.02655,-0.03265,-0.00885,-0.06088,-0.04852,-0.01266,-0.00092,-0.01633,-0.01938,-0.01526,-0.00229,-0.04074,-0.01709,0.01144,-0.04074
11.0355,-0.00519,-0.03479,-0.03326,-0.00916,-0.10666,-0.05219,-0.01282,-0.00168,-0.01587,-0.01831,-0.01785,-0.00275,-0.04135,-0.0174,0.01022,-0.04028
11.036,-0.00412,-0.04074,-0.03357,-0.00916,-0.14053,-0.05417,-0.01343,-0.00397,-0.01541,-0.01938,-0.02075,-0.00244,-0.04333,-0.01877,0.009,-0.04105
11.0365,-0.00336,-0.04562,-0.0354,-0.01083,-0.14267,-0.05386,-0.01465,-0.00549,-0.0145,-0.0209,-0.02197,-0.00198,-0.04654,-0.02136,0.00732,-0.0412
11.037,-0.00351,-0.05005,-0.03708,-0.01144,-0.12436,-0.05432,-0.01495,-0.00519,-0.0145,-0.02167,-0.02121,-0.00153,-0.04959,-0.02243,0.00702,-0.04074
11.0375,-0.00351,-0.05157,-0.03723,-0.01068,-0.10742,-0.05585,-0.01526,-0.00351,-0.01465,-0.02289,-0.01953,-0.00061,-0.05127,-0.0235,0.00824,-0.03922
11.038,-0.00259,-0.04974,-0.0351,-0.00824,-0.10086,-0.05661,-0.01556,-0.00336,-0.01495,-0.02335,-0.01846,0.00137,-0.04929,-0.02304,0.0087,-0.0383
11.0385,-0.00198,-0.04593,-0.03067,-0.00809,-0.09262,-0.05447,-0.01678,-0.00366,-0.01465,-0.02548,-0.01968,0.00214,-0.04349,-0.02045,0.00793,-0.03922
11.039,-0.00183,-0.0441,-0.02563,-0.00992,-0.07614,-0.05005,-0.01648,-0.00443,-0.0145,-0.02914,-0.02213,0.00107,-0.03479,-0.01801,0.00732,-0.0412
11.0395,-0.00214,-0.04364,-0.02213,-0.01144,-0.05615,-0.04349,-0.01495,-0.00427,-0.01282,-0.03342,-0.02289,0.0,-0.02853,-0.01511,0.00916,-0.04211
11.04,-0.00122,-0.04318,-0.02075,-0.01007,-0.0441,-0.03754,-0.01358,-0.00412,-0.01175,-0.03632,-0.0209,0.0,-0.02609,-0.00977,0.01129,-0.0412
11.0405,-0.00015,-0.04074,-0.02396,-0.00793,-0.03952,-0.03479,-0.01526,-0.00427,-0.0116,-0.0351,-0.01816,0.00122,-0.02655,-0.00031,0.01007,-0.04044
11.041,0.00015,-0.03693,-0.03098,-0.00717,-0.03891,-0.03784,-0.02228,-0.00443,-0.01282,-0.03159,-0.01572,0.00137,-0.02762,0.00687,0.00641,-0.03922
11.0415,0.00076,-0.02899,-0.03799,-0.00793,-0.04105,-0.04257,-0.03098,-0.00427,-0.01572,-0.02609,-0.0145,0.0,-0.02808,0.00412,0.00137,-0.03891
11.042,0.00092,-0.01587,-0.03906,-0.00931,-0.04227,-0.04593,-0.03952,-0.00397,-0.01862,-0.02136,-0.01251,-0.00122,-0.02991,-0.00793,-0.00305,-0.03998
11.0425,-0.00153,-0.00366,-0.0351,-0.00885,-0.03876,-0.04639,-0.04807,-0.00397,-0.01892,-0.01801,-0.00488,-0.00031,-0.03281,-0.01892,-0.00412,-0.04105
11.043,-0.00427,-0.00336,-0.03342,-0.00656,-0.02899,-0.04715,-0.05463,-0.00534,-0.0177,-0.01434,0.00717,0.00137,-0.03387,-0.02197,-0.00198,-0.0415
11.0435,-0.00595,-0.01862,-0.03464,-0.00626,-0.01572,-0.04761,-0.05325,-0.00534,-0.01785,-0.01114,0.02106,0.00229,-0.03296,-0.01892,0.00153,-0.04196
11.044,-0.0058,-0.04059,-0.03693,-0.00824,-0.00412,-0.04807,-0.03983,-0.00443,-0.01892,-0.00641,0.03143,0.00122,-0.03159,-0.01617,0.00397,-0.04242
11.0445,-0.00549,-0.05615,-0.03418,-0.00992,0.00168,-0.04898,-0.01526,-0.00366,-0.01968,0.00198,0.0386,0.00015,-0.03006,-0.01572,0.00656,-0.04318
11.045,-0.00443,-0.06149,-0.02792,-0.00931,-0.00214,-0.04959,0.01602,-0.00366,-0.02045,0.01175,0.04395,0.0,-0.03006,-0.01785,0.00916,-0.04333
11.0455,-0.00443,-0.05981,-0.02716,-0.00778,-0.01114,-0.05005,0.03677,-0.00458,-0.0209,0.01953,0.04517,0.00061,-0.03036,-0.01984,0.01328,-0.04242
11.046,-0.00534,-0.05783,-0.03387,-0.00809,-0.01907,-0.04898,0.0293,-0.00397,-0.02167,0.01862,0.04013,0.00137,-0.03006,-0.02075,0.01617,-0.04227
11.0465,-0.00748,-0.05478,-0.0441,-0.00931,-0.01984,-0.04745,0.00336,-0.00336,-0.02365,0.01068,0.03281,0.00275,-0.03052,-0.02045,0.01526,-0.04242
11.047,-0.009,-0.04868,-0.04944,-0.01038,-0.01587,-0.04898,-0.01099,-0.00198,-0.02502,-0.00122,0.03815,0.00504,-0.0293,-0.02197,0.01251,-0.04242
11.0475,-0.00931,-0.04272,-0.05035,-0.01068,-0.01434,-0.05295,-0.00137,-0.00137,-0.02579,-0.01114,0.06516,0.00839,-0.02838,-0.0235,0.01144,-0.04211
11.048,-0.00839,-0.04013,-0.05173,-0.00763,-0.0174,-0.05661,0.01389,-0.00183,-0.02319,-0.01907,0.09537,0.01572,-0.02808,-0.0238,0.01129,-0.04181
11.0485,-0.0087,-0.03983,-0.056,0.00061,-0.02243,-0.05844,0.01984,-0.0032,-0.0206,-0.02487,0.09003,0.02945,-0.02762,-0.02365,0.01022,-0.04181
11.049,-0.00946,-0.04089,-0.05844,0.01526,-0.02518,-0.05676,0.01572,-0.00381,-0.01968,-0.02823,0.03464,0.04868,-0.02686,-0.02304,0.00763,-0.04196
11.0495,-0.00916,-0.04196,-0.05402,0.03296,-0.02563,-0.0528,0.00809,-0.00336,-0.02014,-0.02914,-0.04501,0.06119,-0.02701,-0.02258,0.00534,-0.04105
11.05,-0.00854,-0.04303,-0.04486,0.04593,-0.0238,-0.04761,-0.00366,-0.00183,-0.01953,-0.02914,-0.11398,0.056,-0.02838,-0.02151,0.00458,-0.03967
11.0505,-0.00885,-0.04257,-0.03433,0.04852,-0.02563,-0.04395,-0.01694,-0.00183,-0.01648,-0.02823,-0.16266,0.03571,-0.0293,-0.02167,0.00565,-0.03922
11.051,-0.00961,-0.04135,-0.02655,0.03738,-0.03601,-0.04547,-0.02396,-0.00229,-0.01266,-0.02686,-0.19241,0.01587,-0.02899,-0.02319,0.00702,-0.03906
11.0515,-0.009,-0.04089,-0.02106,0.01816,-0.05432,-0.04852,-0.02182,-0.00214,-0.01007,-0.02487,-0.20599,0.00381,-0.02777,-0.0238,0.00763,-0.03937
11.052,-0.009,-0.04028,-0.01755,0.00046,-0.06912,-0.05188,-0.0174,-0.00031,-0.00778,-0.02518,-0.20081,-0.00488,-0.02853,-0.02365,0.00656,-0.0383
11.0525,-0.00961,-0.03891,-0.01846,-0.00473,-0.06302,-0.05005,-0.01572,0.00061,-0.00641,-0.0267,-0.1825,-0.01572,-0.02899,-0.02258,0.00656,-0.03708
11.053,-0.00992,-0.03769,-0.02182,0.00458,-0.03983,-0.04639,-0.01678,0.00107,-0.00504,-0.02731,-0.1622,-0.02396,-0.02838,-0.02335,0.00824,-0.03662
11.0535,-0.00931,-0.03906,-0.0264,0.01968,-0.01297,-0.04471,-0.01648,0.00031,-0.00427,-0.02716,-0.1442,-0.0293,-0.02792,-0.02304,0.00946,-0.03738
11.054,-0.00687,-0.04242,-0.02991,0.02792,0.00732,-0.04532,-0.0145,-0.00076,-0.00534,-0.0264,-0.12161,-0.03052,-0.02838,-0.02289,0.00961,-0.03784
11.0545,-0.00641,-0.04349,-0.02991,0.02563,0.02213,-0.047,-0.0145,-0.00275,-0.00687,-0.02625,-0.09445,-0.02945,-0.03036,-0.02228,0.0087,-0.03922
11.055,-0.00717,-0.04059,-0.02609,0.01785,0.03891,-0.04669,-0.01602,-0.00336,-0.0087,-0.02563,-0.07126,-0.02731,-0.03052,-0.02243,0.00916,-0.04044
11.0555,-0.00809,-0.03632,-0.02106,0.01114,0.0473,-0.04349,-0.01785,-0.00183,-0.00916,-0.02457,-0.05936,-0.02365,-0.02945,-0.02243,0.01007,-0.04211
11.056,-0.00763,-0.03403,-0.01755,0.0058,0.04166,-0.03769,-0.01831,-0.00046,-0.00839,-0.02167,-0.05478,-0.02106,-0.02869,-0.02197,0.009,-0.04303
11.0565,-0.0058,-0.03403,-0.01755,-0.00183,0.02899,-0.03235,-0.01709,0.00092,-0.00717,-0.01923,-0.047,-0.02029,-0.02792,-0.02014,0.00763,-0.04333
11.057,-0.00504,-0.03754,-0.0209,-0.01465,0.0206,-0.03006,-0.01633,0.00107,-0.00702,-0.01602,-0.03067,-0.02075,-0.02426,-0.01831,0.00885,-0.04364
11.0575,-0.0061,-0.04211,-0.02625,-0.03082,0.00931,-0.03098,-0.01633,0.00122,-0.00763,-0.01526,-0.01205,-0.02197,-0.01862,-0.01694,0.00916,-0.04364
11.058,-0.00687,-0.04654,-0.03128,-0.04822,-0.01541,-0.03494,-0.01709,0.00046,-0.009,-0.01343,-0.00061,-0.02502,-0.01602,-0.01602,0.009,-0.04272
11.0585,-0.00671,-0.04837,-0.03479,-0.06622,-0.05157,-0.04608,-0.01678,-0.00046,-0.00977,-0.01251,0.00259,-0.02838,-0.01816,-0.01434,0.00885,-0.04303
11.059,-0.00687,-0.04807,-0.03754,-0.08133,-0.0885,-0.06653,-0.01724,-0.00275,-0.0119,-0.01144,0.00351,-0.03036,-0.02182,-0.01343,0.00946,-0.04425
11.0595,-0.0061,-0.047,-0.03738,-0.09109,-0.12131,-0.08743,-0.01694,-0.00351,-0.01343,-0.01251,0.00519,-0.0293,-0.02426,-0.01404,0.01022,-0.04471
11.06,-0.0058,-0.04684,-0.03632,-0.09384,-0.15228,-0.09476,-0.01678,-0.00305,-0.01511,-0.01282,0.00931,-0.02304,-0.02609,-0.01419,0.01068,-0.04333
11.0605,-0.00671,-0.04486,-0.03433,-0.08942,-0.17166,-0.08392,-0.0177,-0.00336,-0.01602,-0.01312,0.01236,-0.01495,-0.03067,-0.01541,0.01053,-0.04105
11.061,-0.00778,-0.04333,-0.03265,-0.07904,-0.15915,-0.06546,-0.01953,-0.00473,-0.01617,-0.01282,0.01297,-0.00961,-0.03494,-0.01724,0.01038,-0.0412
11.0615,-0.00931,-0.04257,-0.0322,-0.06607,-0.11276,-0.04974,-0.01999,-0.00702,-0.01495,-0.01282,0.01328,-0.00732,-0.03845,-0.01892,0.01068,-0.04196
11.062,-0.00931,-0.04349,-0.0322,-0.05264,-0.05386,-0.04013,-0.02029,-0.00778,-0.0148,-0.01266,0.01175,-0.0058,-0.04181,-0.02029,0.0116,-0.04257
11.0625,-0.00839,-0.04547,-0.03281,-0.04211,-0.00992,-0.03418,-0.01907,-0.00778,-0.01556,-0.01266,0.01083,-0.00565,-0.04547,-0.02197,0.01099,-0.04227
11.063,-0.00763,-0.04639,-0.0325,-0.03754,0.0145,-0.02869,-0.01862,-0.00656,-0.01724,-0.01312,0.01129,-0.00504,-0.047,-0.02365,0.00946,-0.04242
11.0635,-0.00778,-0.04761,-0.03311,-0.03967,0.03082,-0.02502,-0.01724,-0.00641,-0.01755,-0.01221,0.01266,-0.00198,-0.04333,-0.02411,0.00748,-0.0441
11.064,-0.00854,-0.04822,-0.03342,-0.04318,0.04272,-0.02625,-0.01663,-0.0058,-0.01709,-0.01328,0.01541,0.00198,-0.03571,-0.02258,0.00748,-0.04578
11.0645,-0.00732,-0.04715,-0.03357,-0.04364,0.04272,-0.03113,-0.01709,-0.00549,-0.01648,-0.01343,0.01587,0.00534,-0.02655,-0.01816,0.00687,-0.04456
11.065,-0.00595,-0.04623,-0.03326,-0.0383,0.02213,-0.03876,-0.01785,-0.00671,-0.01633,-0.01419,0.01587,0.00534,-0.02106,-0.01572,0.00687,-0.04288
11.0655,-0.00534,-0.04669,-0.03342,-0.03082,-0.01312,-0.04333,-0.01709,-0.00793,-0.01694,-0.01404,0.01587,0.00443,-0.02151,-0.01572,0.00641,-0.04242
11.066,-0.00656,-0.047,-0.03357,-0.02289,-0.05371,-0.04349,-0.01617,-0.00778,-0.01724,-0.01312,0.01511,0.00427,-0.02609,-0.01633,0.0058,-0.04395
11.0665,-0.00656,-0.04486,-0.03387,-0.01511,-0.08759,-0.04196,-0.01556,-0.00534,-0.0177,-0.01144,0.01404,0.00473,-0.03082,-0.01511,0.00687,-0.04471
11.067,-0.00595,-0.03906,-0.03403,-0.00824,-0.10208,-0.04044,-0.01556,-0.00366,-0.01694,-0.01022,0.01312,0.00534,-0.03433,-0.01434,0.00778,-0.0441
11.0675,-0.00534,-0.03693,-0.03204,-0.00305,-0.08743,-0.03998,-0.01602,-0.00427,-0.01648,-0.01266,0.01312,0.00504,-0.03662,-0.01648,0.00778,-0.04272
11.068,-0.00504,-0.03738,-0.03159,0.00031,-0.0531,-0.03937,-0.01587,-0.00595,-0.01526,-0.01862,0.01312,0.00549,-0.0386,-0.01968,0.00671,-0.04181
11.0685,-0.00488,-0.03906,-0.03204,0.00092,-0.02609,-0.04135,-0.0148,-0.0061,-0.01297,-0.02457,0.01358,0.00763,-0.04013,-0.0209,0.00656,-0.04135
11.069,-0.00504,-0.04013,-0.03296,0.00168,-0.02228,-0.04242,-0.01587,-0.00504,-0.01144,-0.02808,0.01495,0.009,-0.03998,-0.01968,0.00748,-0.04211
11.0695,-0.00458,-0.03891,-0.0325,0.00336,-0.03265,-0.04211,-0.01572,-0.0032,-0.01083,-0.02792,0.01694,0.009,-0.03754,-0.01862,0.00931,-0.04196
11.07,-0.00366,-0.03662,-0.03143,0.00443,-0.0412,-0.04395,-0.01617,-0.00183,-0.01007,-0.0267,0.01709,0.0087,-0.03479,-0.01877,0.009,-0.04074
11.0705,-0.00336,-0.03662,-0.03067,0.00427,-0.04379,-0.04868,-0.01556,-0.00183,-0.00931,-0.02655,0.01465,0.00748,-0.03281,-0.02029,0.00824,-0.04013
11.071,-0.00458,-0.03738,-0.03159,0.00336,-0.0444,-0.05325,-0.0148,-0.00214,-0.00916,-0.02686,0.01266,0.00671,-0.03052,-0.01984,0.00702,-0.04044
11.0715,-0.0058,-0.03815,-0.03235,0.0032,-0.04822,-0.05661,-0.0145,-0.00366,-0.01144,-0.02548,0.01251,0.00641,-0.02731,-0.0177,0.00656,-0.04272
11.072,-0.00534,-0.03845,-0.03342,0.00458,-0.05432,-0.05768,-0.01434,-0.0029,-0.01526,-0.02228,0.01205,0.00626,-0.02625,-0.01663,0.00778,-0.04364
11.0725,-0.00427,-0.0386,-0.03433,0.00656,-0.0621,-0.05737,-0.01373,-0.00137,-0.01846,-0.02106,0.01022,0.00656,-0.02884,-0.01831,0.00778,-0.04395
11.073,-0.0029,-0.03998,-0.03403,0.00824,-0.06699,-0.05646,-0.01328,-0.00183,-0.02029,-0.02136,0.00763,0.00687,-0.03647,-0.02029,0.00656,-0.04272
11.0735,-0.00275,-0.04166,-0.03281,0.00763,-0.06821,-0.05325,-0.01373,-0.00198,-0.02167,-0.02228,0.0032,0.00748,-0.04608,-0.02182,0.0061,-0.04135
11.074,-0.00259,-0.04028,-0.03281,0.00473,-0.06363,-0.04852,-0.01358,-0.00168,-0.02243,-0.02426,-0.00168,0.00717,-0.05341,-0.0209,0.00687,-0.0412
11.0745,-0.00214,-0.03906,-0.03357,0.00198,-0.05173,-0.04593,-0.01282,-0.00198,-0.02197,-0.02533,-0.00259,0.00748,-0.05615,-0.01999,0.00671,-0.04044
11.075,-0.00244,-0.0383,-0.0351,0.0032,-0.03494,-0.0444,-0.01251,-0.00305,-0.02228,-0.02625,0.00702,0.00778,-0.05356,-0.01984,0.00656,-0.03983
11.0755,-0.00244,-0.03876,-0.03479,0.00687,-0.01968,-0.04303,-0.01282,-0.00397,-0.02319,-0.02625,0.02625,0.00885,-0.04898,-0.01923,0.00427,-0.03983
11.076,-0.00107,-0.03891,-0.03342,0.01068,-0.01297,-0.04196,-0.01312,-0.00458,-0.02563,-0.0264,0.04074,0.00854,-0.04745,-0.01923,0.00336,-0.03998
11.0765,0.00015,-0.03754,-0.03311,0.0116,-0.01343,-0.04288,-0.01297,-0.00534,-0.02838,-0.02441,0.03891,0.00763,-0.04822,-0.01953,0.00305,-0.04044
11.077,0.00061,-0.03754,-0.03464,0.01068,-0.01343,-0.04608,-0.01251,-0.00443,-0.03128,-0.02228,0.02136,0.00656,-0.04776,-0.01968,0.00427,-0.03967
11.0775,-0.00122,-0.0386,-0.03586,0.01053,-0.00977,-0.04929,-0.01373,-0.00259,-0.03265,-0.02029,0.00031,0.00549,-0.04379,-0.01923,0.00488,-0.03906
11.078,-0.00214,-0.03952,-0.03708,0.01129,-0.0029,-0.04929,-0.01465,-0.00259,-0.03265,-0.0174,-0.01312,0.00534,-0.0383,-0.01938,0.00397,-0.0386
11.0785,-0.00137,-0.03937,-0.03586,0.0116,0.00336,-0.04623,-0.01541,-0.00397,-0.03204,-0.01541,-0.02106,0.0058,-0.03159,-0.01938,0.00381,-0.03769
11.079,0.00015,-0.04135,-0.03372,0.01038,0.009,-0.04486,-0.01526,-0.00534,-0.03296,-0.0148,-0.02899,0.0058,-0.02563,-0.02014,0.00366,-0.03723
11.0795,0.00107,-0.04395,-0.03281,0.00977,0.00839,-0.047,-0.0145,-0.00778,-0.03204,-0.01617,-0.03891,0.00641,-0.02045,-0.02151,0.00443,-0.03784
11.08,0.00244,-0.04547,-0.03281,0.01083,-0.0029,-0.05234,-0.01205,-0.01205,-0.02747,-0.01862,-0.04852,0.00656,-0.01572,-0.02106,0.00626,-0.03799
11.0805,0.0032,-0.0444,-0.03357,0.0119,-0.02136,-0.05493,-0.01053,-0.01678,-0.02167,-0.02228,-0.05447,0.00732,-0.01129,-0.01984,0.00671,-0.03769
11.081,0.00198,-0.04074,-0.03265,0.01114,-0.03571,-0.05371,-0.01099,-0.01907,-0.01862,-0.02365,-0.05615,0.00641,-0.00916,-0.01801,0.00793,-0.03723
11.0815,0.00015,-0.0383,-0.03113,0.01022,-0.03784,-0.04959,-0.01282,-0.01831,-0.01801,-0.02197,-0.05447,0.00488,-0.00946,-0.0174,0.00839,-0.03738
11.082,-0.00214,-0.03677,-0.02869,0.00961,-0.03418,-0.04654,-0.01404,-0.01694,-0.01709,-0.01724,-0.04349,0.00381,-0.0116,-0.01556,0.00793,-0.03922
11.0825,-0.00366,-0.03601,-0.02304,0.00824,-0.0293,-0.04532,-0.01343,-0.01785,-0.01465,-0.01312,-0.02884,0.00351,-0.01221,-0.01358,0.00671,-0.03998
11.083,-0.00458,-0.03479,-0.01801,0.00626,-0.02808,-0.04532,-0.01312,-0.01633,-0.01266,-0.01068,-0.02045,0.00427,-0.01175,-0.01038,0.00565,-0.04013
11.0835,-0.00473,-0.03281,-0.01709,0.00351,-0.03189,-0.04318,-0.01282,-0.00671,-0.01205,-0.01114,-0.02563,0.00488,-0.01328,-0.00977,0.00626,-0.04059
11.084,-0.00366,-0.03265,-0.01968,0.00168,-0.04639,-0.03998,-0.01282,0.01358,-0.01266,-0.01266,-0.03464,0.00473,-0.01923,-0.01236,0.00717,-0.04211
11.0845,-0.00046,-0.03433,-0.02411,0.00015,-0.06714,-0.03983,-0.01251,0.0351,-0.01129,-0.01495,-0.03555,0.00397,-0.03052,-0.01663,0.009,-0.04303
11.085,0.00107,-0.03677,-0.0267,-0.00107,-0.0795,-0.04349,-0.01297,0.0415,-0.00885,-0.01831,-0.02823,0.00397,-0.04501,-0.0206,0.00961,-0.04242
11.0855,-0.00107,-0.03769,-0.02609,-0.00168,-0.07263,-0.04837,-0.01343,0.02899,-0.00809,-0.02319,-0.02075,0.00397,-0.05676,-0.0209,0.00961,-0.0412
11.086,-0.00488,-0.03525,-0.02625,-0.0029,-0.05081,-0.05402,-0.01312,0.01083,-0.00977,-0.0264,-0.01663,0.0032,-0.06165,-0.0148,0.00931,-0.0412
11.0865,-0.00473,-0.03189,-0.02991,-0.00488,-0.02701,-0.05692,-0.0119,0.00153,-0.01129,-0.02823,-0.0116,0.00153,-0.06256,-0.00412,0.00854,-0.04303
11.087,-0.00305,-0.0293,-0.03571,-0.00824,-0.00824,-0.05646,-0.01129,0.00183,-0.01083,-0.02914,-0.0061,0.0,-0.0592,0.00336,0.00854,-0.04395
11.0875,-0.00153,-0.02991,-0.03952,-0.01007,0.00549,-0.05371,-0.01251,0.00397,-0.00977,-0.02853,-0.0032,0.0,-0.05371,-0.00137,0.00793,-0.0441
11.088,-0.00244,-0.03479,-0.04028,-0.01099,0.01434,-0.05096,-0.01648,0.00031,-0.00977,-0.02838,-0.00366,-0.00046,-0.04929,-0.01785,0.00763,-0.04257
11.0885,-0.00275,-0.04227,-0.04166,-0.00992,0.01144,-0.04974,-0.02533,-0.00717,-0.00824,-0.02808,-0.00381,-0.00092,-0.04395,-0.03448,0.00732,-0.04166
11.089,-0.00061,-0.04944,-0.04547,-0.00763,-0.00458,-0.05035,-0.03632,-0.01541,-0.0058,-0.02625,-0.00092,-0.00107,-0.03555,-0.03922,0.00793,-0.04181
11.0895,0.00183,-0.0563,-0.04883,-0.00824,-0.0238,-0.05005,-0.03998,-0.01984,-0.00443,-0.02396,0.00229,-0.00107,-0.02518,-0.03235,0.00916,-0.04074
11.09,0.00214,-0.06256,-0.04913,-0.01068,-0.03464,-0.04791,-0.03632,-0.02121,-0.00427,-0.02289,0.00381,0.0,-0.01877,-0.02518,0.01053,-0.03922
11.0905,0.00015,-0.06607,-0.04868,-0.01236,-0.03189,-0.04196,-0.03494,-0.0206,-0.00565,-0.02289,0.00305,0.00137,-0.0206,-0.0238,0.01022,-0.03876
11.091,-0.00092,-0.06439,-0.04898,-0.01236,-0.02975,-0.03403,-0.04318,-0.01724,-0.00732,-0.0238,0.00244,0.00198,-0.0267,-0.02457,0.01083,-0.04135
11.0915,-0.00015,-0.06073,-0.04944,-0.0119,-0.03738,-0.02762,-0.05402,-0.00992,-0.00717,-0.02426,0.00275,0.00092,-0.03235,-0.02457,0.01038,-0.0441
11.092,0.00092,-0.05722,-0.05173,-0.00992,-0.05081,-0.02579,-0.05615,0.00137,-0.00671,-0.02182,0.00198,-0.00092,-0.0354,-0.02365,0.00916,-0.04288
11.0925,0.00015,-0.05463,-0.05341,-0.00763,-0.0531,-0.02335,-0.04608,0.01419,-0.00534,-0.02243,0.00076,-0.00168,-0.03876,-0.02411,0.00763,-0.0412
11.093,0.0,-0.0528,-0.05554,-0.00839,-0.04181,-0.01678,-0.02289,0.02289,-0.00519,-0.0209,-0.00305,-0.00046,-0.04272,-0.02563,0.00748,-0.0412
11.0935,0.00244,-0.05234,-0.05463,-0.01038,-0.02533,-0.00565,0.01617,0.02121,-0.00534,-0.02029,-0.00748,0.00061,-0.04791,-0.02594,0.00809,-0.04379
11.094,0.00488,-0.05173,-0.05173,-0.01328,-0.01541,0.00656,0.05814,0.00885,-0.00519,-0.01968,-0.01099,0.00031,-0.04959,-0.02747,0.00641,-0.04562
11.0945,0.00427,-0.04974,-0.04669,-0.01343,-0.01602,0.01678,0.07019,-0.01175,-0.00519,-0.01938,-0.0145,-0.00046,-0.04623,-0.02686,0.00519,-0.04562
11.095,0.00137,-0.04745,-0.04242,-0.0145,-0.02548,0.02563,0.03738,-0.03036,-0.00473,-0.01831,-0.01755,-0.00076,-0.04089,-0.02533,0.00046,-0.04395
11.0955,-0.00046,-0.04654,-0.03967,-0.01419,-0.03693,0.0293,-0.00732,-0.03815,-0.00488,-0.01617,-0.01801,-0.00214,-0.03799,-0.0235,-0.00473,-0.04349
11.096,-0.00046,-0.04684,-0.03922,-0.01495,-0.0473,0.02396,-0.01816,-0.02518,-0.00519,-0.01236,-0.01694,-0.00351,-0.03998,-0.02136,-0.00717,-0.04395
11.0965,-0.00076,-0.047,-0.03891,-0.01495,-0.05341,0.00717,0.00687,0.00565,-0.00473,-0.00885,-0.01556,-0.00443,-0.04166,-0.02029,-0.00702,-0.04486
11.097,-0.00122,-0.04608,-0.03845,-0.01556,-0.05402,-0.01846,0.02716,0.0354,-0.0029,-0.00809,-0.01358,-0.00366,-0.0415,-0.02029,-0.00443,-0.04562
11.0975,-0.00168,-0.04501,-0.03723,-0.01648,-0.04654,-0.05035,0.01862,0.04074,-0.00275,-0.00809,-0.0087,-0.00183,-0.03876,-0.01999,-0.00214,-0.04578
11.098,-0.00168,-0.04272,-0.03555,-0.01801,-0.03387,-0.08408,-0.00305,0.01877,-0.00656,-0.00946,0.00641,0.00046,-0.03448,-0.01831,-0.00046,-0.04562
11.0985,-0.00122,-0.03967,-0.03387,-0.0206,-0.02487,-0.11612,-0.01114,-0.00916,-0.01526,-0.01175,0.04074,0.00122,-0.03036,-0.01602,0.00214,-0.0441
11.099,-0.00061,-0.03723,-0.03189,-0.02197,-0.0235,-0.14786,-0.00931,-0.02197,-0.02411,-0.0145,0.08377,0.00137,-0.02701,-0.01343,0.00793,-0.04211
11.0995,0.00122,-0.03479,-0.02975,-0.02136,-0.02563,-0.18433,-0.01923,-0.01541,-0.03113,-0.01678,0.10544,0.00076,-0.02472,-0.01083,0.01907,-0.04074
11.1,0.00229,-0.03113,-0.0267,-0.01831,-0.02396,-0.21881,-0.04517,-0.00732,-0.03387,-0.01877,0.08469,-0.00061,-0.02365,-0.00992,0.03448,-0.04105
11.1005,0.00168,-0.02899,-0.02396,-0.01465,-0.02029,-0.22476,-0.05554,-0.00732,-0.0351,-0.02106,0.03647,-0.00275,-0.02487,-0.01175,0.04471,-0.04196
11.101,0.0,-0.02792,-0.02136,-0.01144,-0.01663,-0.1828,-0.02747,-0.01373,-0.03601,-0.02304,-0.01038,-0.00351,-0.02655,-0.01511,0.03845,-0.04105
11.1015,-0.00046,-0.02853,-0.0209,-0.01144,-0.01419,-0.11398,0.01511,-0.01678,-0.03632,-0.02426,-0.04105,-0.00153,-0.02823,-0.01694,0.02151,-0.03876
11.102,0.0,-0.02884,-0.02106,-0.01404,-0.01434,-0.05646,0.0293,-0.01266,-0.03357,-0.02457,-0.05676,0.00031,-0.02823,-0.0177,0.00839,-0.03723
11.1025,0.0,-0.02884,-0.02167,-0.01572,-0.01404,-0.03098,0.0087,-0.00595,-0.02975,-0.02274,-0.06302,-0.00031,-0.02884,-0.01892,0.00626,-0.03906
11.103,0.00015,-0.0325,-0.0209,-0.01541,-0.01419,-0.03067,-0.01556,-0.00092,-0.02792,-0.02014,-0.0621,-0.00183,-0.0296,-0.01999,0.00839,-0.04074
11.1035,0.00046,-0.04013,-0.01846,-0.01633,-0.01602,-0.03525,-0.02045,0.00275,-0.02991,-0.0206,-0.05692,-0.00259,-0.02899,-0.01984,0.0058,-0.04257
11.104,0.00107,-0.04898,-0.01678,-0.01816,-0.01984,-0.03799,-0.01389,0.0058,-0.03189,-0.02045,-0.05524,-0.00214,-0.02777,-0.01923,0.00107,-0.04211
11.1045,0.0,-0.05371,-0.01648,-0.01846,-0.02243,-0.04349,-0.00641,0.00748,-0.0322,-0.02106,-0.06317,-0.00244,-0.02625,-0.01907,0.00153,-0.0415
11.105,-0.00229,-0.05463,-0.01709,-0.01495,-0.02426,-0.05234,-0.00137,0.00595,-0.02914,-0.02106,-0.08026,-0.0029,-0.02609,-0.01968,0.00488,-0.04074
11.1055,-0.00458,-0.05386,-0.01877,-0.0119,-0.02563,-0.06302,-0.00137,0.0032,-0.02548,-0.02121,-0.10086,-0.00244,-0.02625,-0.01968,0.00946,-0.04196
11.106,-0.00732,-0.05219,-0.01999,-0.00992,-0.02594,-0.0679,-0.00824,0.00183,-0.02106,-0.02213,-0.11581,-0.00229,-0.02472,-0.01984,0.00854,-0.04349
11.1065,-0.00992,-0.04868,-0.02136,-0.00946,-0.02533,-0.06393,-0.01755,0.00229,-0.0174,-0.02243,-0.11902,-0.00092,-0.02274,-0.01877,0.00626,-0.04349
11.107,-0.01312,-0.04364,-0.02213,-0.01022,-0.02472,-0.05463,-0.01984,0.00153,-0.01495,-0.0209,-0.11093,0.00046,-0.02213,-0.01724,0.00519,-0.04257
11.1075,-0.01633,-0.0386,-0.02396,-0.01205,-0.02548,-0.04501,-0.01709,-0.00076,-0.01312,-0.02014,-0.09888,-0.00031,-0.02457,-0.01801,0.00992,-0.04166
11.108,-0.01816,-0.03586,-0.02808,-0.01511,-0.02548,-0.04013,-0.0148,-0.00412,-0.01038,-0.02151,-0.08514,-0.00214,-0.02625,-0.01877,0.0177,-0.04211
11.1085,-0.01831,-0.03555,-0.03448,-0.01617,-0.02167,-0.03967,-0.01709,-0.0058,-0.00671,-0.02289,-0.06302,-0.00336,-0.02533,-0.01862,0.02228,-0.04227
11.109,-0.01862,-0.03387,-0.04456,-0.01541,-0.01404,-0.04013,-0.01923,-0.0061,-0.00412,-0.0238,-0.02228,-0.0029,-0.02213,-0.01587,0.01846,-0.04211
11.1095,-0.01709,-0.03159,-0.05569,-0.01236,-0.00854,-0.03998,-0.01816,-0.00519,-0.00305,-0.02274,0.03571,-0.00092,-0.01984,-0.01343,0.01251,-0.04227
11.11,-0.01404,-0.03098,-0.06653,-0.01099,-0.00626,-0.03937,-0.01724,-0.00504,-0.00305,-0.0209,0.09262,-0.00046,-0.01923,-0.01282,0.01053,-0.04166
11.1105,-0.0087,-0.03204,-0.07492,-0.0116,-0.00549,-0.03815,-0.01724,-0.00504,-0.00259,-0.01923,0.11597,0.00046,-0.02045,-0.01465,0.01114,-0.0412
11.111,-0.00397,-0.03235,-0.07706,-0.01328,-0.00122,-0.03677,-0.01831,-0.00504,-0.00244,-0.01724,0.09216,0.00198,-0.02182,-0.01511,0.0116,-0.04059
11.1115,0.00076,-0.03082,-0.07401,-0.01434,0.0058,-0.03525,-0.01984,-0.00458,-0.00381,-0.01511,0.03601,0.0032,-0.02289,-0.01434,0.00961,-0.04013
11.112,0.00427,-0.02914,-0.06683,-0.01297,0.0116,-0.03448,-0.02258,-0.00565,-0.0058,-0.01465,-0.01892,0.00153,-0.02365,-0.01358,0.00656,-0.04013
11.1125,0.00565,-0.02975,-0.05829,-0.01221,0.01297,-0.03601,-0.02411,-0.00702,-0.00916,-0.01343,-0.05447,0.0,-0.02426,-0.01251,0.00504,-0.04105
11.113,0.00549,-0.03174,-0.05219,-0.01205,0.00336,-0.03723,-0.02365,-0.00778,-0.01144,-0.01312,-0.0705,0.00061,-0.02563,-0.01251,0.00656,-0.0415
11.1135,0.00397,-0.03418,-0.04822,-0.01343,-0.01801,-0.03647,-0.02151,-0.00687,-0.01312,-0.0119,-0.07431,0.0029,-0.02899,-0.01266,0.00748,-0.04211
11.114,0.0032,-0.03464,-0.04517,-0.01419,-0.04532,-0.03494,-0.01953,-0.00641,-0.01572,-0.0119,-0.07324,0.00488,-0.03296,-0.01526,0.00854,-0.04257
11.1145,0.00351,-0.03632,-0.03769,-0.01434,-0.06271,-0.03403,-0.01862,-0.0058,-0.01709,-0.01236,-0.0676,0.00458,-0.03738,-0.01785,0.00748,-0.04227
11.115,0.00305,-0.0386,-0.02594,-0.01297,-0.06424,-0.0354,-0.01862,-0.0061,-0.01785,-0.01297,-0.0592,0.0032,-0.03815,-0.01953,0.00748,-0.04135
11.1155,0.00153,-0.04608,-0.02121,-0.01236,-0.05768,-0.03876,-0.01831,-0.00641,-0.01602,-0.01236,-0.04974,-0.00031,-0.03738,-0.01877,0.00763,-0.0412
11.116,-0.00061,-0.05539,-0.03098,-0.01266,-0.05325,-0.0412,-0.0174,-0.0061,-0.01541,-0.01007,-0.04318,-0.0058,-0.03464,-0.01831,0.00687,-0.04135
11.1165,-0.00229,-0.06058,-0.05096,-0.01404,-0.05219,-0.03998,-0.01801,-0.00671,-0.01709,-0.00839,-0.03876,-0.01251,-0.03281,-0.01831,0.00641,-0.04333
11.117,-0.00351,-0.05432,-0.06485,-0.01602,-0.05676,-0.03754,-0.01907,-0.00641,-0.01907,-0.00748,-0.03525,-0.01572,-0.03296,-0.01938,0.00534,-0.0441
11.1175,-0.00351,-0.03601,-0.06775,-0.0174,-0.07172,-0.0351,-0.01984,-0.00534,-0.01862,-0.00671,-0.0296,-0.01221,-0.03448,-0.02045,0.00473,-0.0441
11.118,-0.00427,-0.00763,-0.06241,-0.01846,-0.08972,-0.0325,-0.01953,-0.00458,-0.01633,-0.00717,-0.02396,-0.00214,-0.03342,-0.01999,0.00366,-0.04272
11.1185,-0.00504,0.0267,-0.05325,-0.01694,-0.09415,-0.02899,-0.01801,-0.00458,-0.01526,-0.01038,-0.01892,0.0087,-0.03082,-0.01923,0.00397,-0.04303
11.119,-0.00473,0.06058,-0.04471,-0.01419,-0.0795,-0.02594,-0.01709,-0.00488,-0.01511,-0.01526,-0.01465,0.0206,-0.02609,-0.01938,0.00534,-0.04211
11.1195,-0.0029,0.08286,-0.03891,-0.01297,-0.05692,-0.02426,-0.01724,-0.00504,-0.01511,-0.01984,-0.009,0.03967,-0.02274,-0.01907,0.00824,-0.04044
11.12,-0.00244,0.07904,-0.03326,-0.01266,-0.03983,-0.02518,-0.01572,-0.00397,-0.01465,-0.02213,-0.00336,0.05981,-0.02258,-0.02014,0.0087,-0.03922
11.1205,-0.00351,0.0444,-0.02792,-0.01297,-0.03311,-0.02625,-0.01419,-0.0032,-0.01404,-0.02335,-0.00046,0.06134,-0.02731,-0.02197,0.0087,-0.03876
11.121,-0.00763,-0.0087,-0.0235,-0.01205,-0.03052,-0.02823,-0.01266,-0.0029,-0.0148,-0.02502,0.0,0.03632,-0.03403,-0.02487,0.00732,-0.03952
11.1215,-0.01099,-0.05875,-0.02106,-0.01007,-0.02716,-0.0293,-0.01373,-0.0029,-0.01633,-0.02716,0.00397,0.00076,-0.0383,-0.02716,0.00687,-0.04105
11.122,-0.01251,-0.09369,-0.02121,-0.00809,-0.01846,-0.03006,-0.01511,-0.00336,-0.01923,-0.03174,0.01144,-0.02121,-0.03845,-0.02747,0.00687,-0.04211
11.1225,-0.01236,-0.11322,-0.01984,-0.00656,-0.00977,-0.03006,-0.01602,-0.00397,-0.01968,-0.03372,0.01709,-0.02716,-0.03525,-0.0267,0.00824,-0.04242
11.123,-0.01205,-0.12299,-0.01694,-0.0058,-0.00595,-0.02747,-0.01572,-0.00549,-0.01984,-0.03174,0.01831,-0.02655,-0.03265,-0.02625,0.00809,-0.04135
11.1235,-0.01266,-0.1236,-0.01511,-0.00519,-0.009,-0.02151,-0.01511,-0.0058,-0.02045,-0.02625,0.0148,-0.02777,-0.02975,-0.02396,0.00854,-0.04013
11.124,-0.01526,-0.11673,-0.01221,-0.00671,-0.01602,-0.01526,-0.01465,-0.00656,-0.02213,-0.0209,0.01022,-0.03036,-0.02823,-0.02075,0.00916,-0.04105
11.1245,-0.0177,-0.10452,-0.00885,-0.00916,-0.02548,-0.01831,-0.01434,-0.00656,-0.02396,-0.01938,0.00854,-0.03326,-0.02869,-0.01526,0.009,-0.04272
11.125,-0.01968,-0.09369,-0.0058,-0.01312,-0.03723,-0.0293,-0.01495,-0.00641,-0.02335,-0.02029,0.00778,-0.03876,-0.03006,-0.01343,0.00885,-0.04272
11.1255,-0.01877,-0.08606,-0.00824,-0.01617,-0.05508,-0.04135,-0.01541,-0.00641,-0.02075,-0.02106,0.00488,-0.04364,-0.02869,-0.01633,0.0087,-0.04166
11.126,-0.01602,-0.08057,-0.01511,-0.01663,-0.07568,-0.04822,-0.01633,-0.00656,-0.01816,-0.01907,-0.00015,-0.04105,-0.02289,-0.02029,0.00717,-0.04135
11.1265,-0.01358,-0.07385,-0.0238,-0.01648,-0.0882,-0.04517,-0.01572,-0.0058,-0.01648,-0.01694,-0.00427,-0.03128,-0.01633,-0.02213,0.00687,-0.04028
11.127,-0.01205,-0.06683,-0.02884,-0.01556,-0.07858,-0.03708,-0.01587,-0.00549,-0.01663,-0.01434,-0.00595,-0.02151,-0.01266,-0.02258,0.00656,-0.0415
11.1275,-0.01068,-0.05966,-0.02914,-0.01419,-0.05234,-0.02716,-0.01556,-0.00427,-0.01801,-0.01221,-0.00458,-0.01801,-0.01434,-0.02258,0.00702,-0.04272
11.128,-0.00916,-0.05447,-0.02914,-0.0119,-0.02609,-0.01938,-0.01541,-0.00473,-0.01846,-0.00992,-0.00183,-0.0177,-0.0174,-0.01877,0.00687,-0.04303
11.1285,-0.00854,-0.04944,-0.02853,-0.00992,-0.01556,-0.01785,-0.01541,-0.00565,-0.0174,-0.009,-0.00259,-0.01801,-0.02106,-0.00931,0.00763,-0.04333
11.129,-0.009,-0.04547,-0.02808,-0.00946,-0.01572,-0.02014,-0.01434,-0.00595,-0.0148,-0.009,-0.00565,-0.01556,-0.02777,0.00122,0.00687,-0.04257
11.1295,-0.00793,-0.04257,-0.02869,-0.00854,-0.01678,-0.02213,-0.01282,-0.00534,-0.01434,-0.00946,-0.00656,-0.01083,-0.0386,0.00519,0.00687,-0.0412
11.13,-0.00595,-0.04059,-0.03021,-0.0058,-0.01495,-0.02258,-0.01205,-0.00443,-0.01419,-0.00961,-0.00366,-0.00366,-0.05066,-0.00534,0.00778,-0.04135
11.1305,-0.00443,-0.03952,-0.03082,-0.00275,-0.01251,-0.02396,-0.01144,-0.00473,-0.01328,-0.00824,-0.00214,0.00244,-0.06287,-0.02777,0.00977,-0.04196
11.131,-0.00397,-0.03754,-0.03021,-0.00351,-0.0116,-0.02823,-0.01144,-0.00412,-0.0116,-0.00687,-0.00381,0.00473,-0.07141,-0.047,0.01114,-0.04135
11.1315,-0.00427,-0.03708,-0.02686,-0.00793,-0.01465,-0.03143,-0.01114,-0.00381,-0.01099,-0.00671,-0.00534,0.00534,-0.07324,-0.04623,0.01068,-0.03998
11.132,-0.00381,-0.03586,-0.02457,-0.01495,-0.02014,-0.03357,-0.01068,-0.00351,-0.01205,-0.00763,-0.00519,0.00519,-0.06577,-0.02914,0.00977,-0.03937
11.1325,-0.0029,-0.03098,-0.0238,-0.01968,-0.02747,-0.04349,-0.01038,-0.00443,-0.01373,-0.01068,-0.00412,0.00549,-0.05295,-0.01358,0.00885,-0.04074
11.133,-0.00259,-0.02365,-0.02304,-0.02136,-0.03708,-0.07553,-0.01083,-0.00488,-0.01495,-0.01297,-0.00443,0.00595,-0.03983,-0.009,0.00824,-0.04242
11.1335,-0.00366,-0.01831,-0.02396,-0.02014,-0.05249,-0.13229,-0.01221,-0.00488,-0.0145,-0.01358,-0.00748,0.00595,-0.03265,-0.01144,0.00916,-0.04318
11.134,-0.00443,-0.0177,-0.02594,-0.01587,-0.07034,-0.18814,-0.01297,-0.00351,-0.01373,-0.01419,-0.009,0.0061,-0.03296,-0.0119,0.01053,-0.04303
11.1345,-0.00366,-0.01846,-0.02731,-0.00916,-0.08072,-0.2002,-0.01251,-0.00214,-0.01328,-0.01556,-0.00854,0.00671,-0.03479,-0.01083,0.01129,-0.04211
11.135,-0.00198,-0.01556,-0.02716,-0.0032,-0.08026,-0.15381,-0.0116,-0.00214,-0.01343,-0.01755,-0.00671,0.00595,-0.03448,-0.01038,0.01068,-0.04166
11.1355,0.00015,-0.0116,-0.02792,-0.00412,-0.07477,-0.08713,-0.01144,-0.00259,-0.01434,-0.01953,-0.00595,0.00397,-0.03387,-0.01251,0.00946,-0.04196
11.136,0.00122,-0.01007,-0.03342,-0.00931,-0.07095,-0.04776,-0.0119,-0.00229,-0.01526,-0.02029,-0.00656,0.00336,-0.03418,-0.01602,0.00824,-0.04211
11.1365,0.00229,-0.01282,-0.0415,-0.01297,-0.06912,-0.04257,-0.01236,-0.00214,-0.01709,-0.02029,-0.00717,0.00336,-0.03723,-0.01862,0.00839,-0.0415
11.137,0.00214,-0.0177,-0.04639,-0.0119,-0.06393,-0.047,-0.01175,-0.00092,-0.01785,-0.01968,-0.00854,0.00488,-0.04181,-0.02045,0.00946,-0.0415
11.1375,0.00076,-0.02213,-0.04333,-0.00931,-0.04898,-0.04562,-0.01221,-0.00275,-0.01755,-0.01968,-0.00854,0.00534,-0.0444,-0.02167,0.0087,-0.04166
11.138,-0.00168,-0.02655,-0.03967,-0.00931,-0.02365,-0.04562,-0.01282,-0.00443,-0.01617,-0.02136,-0.009,0.00473,-0.0415,-0.02213,0.0058,-0.04181
11.1385,-0.00366,-0.02975,-0.04166,-0.01205,0.00198,-0.05127,-0.01556,-0.00473,-0.01587,-0.02228,-0.00854,0.00549,-0.03586,-0.02151,0.00412,-0.04166
11.139,-0.00336,-0.03052,-0.04669,-0.01282,0.01968,-0.05722,-0.01785,-0.00366,-0.01587,-0.02228,-0.00854,0.00748,-0.03006,-0.02182,0.00626,-0.0412
11.1395,-0.00168,-0.03143,-0.05005,-0.01312,0.02762,-0.05875,-0.01831,-0.00229,-0.01556,-0.01953,-0.00778,0.00977,-0.02823,-0.02121,0.00977,-0.04242
11.14,-0.00214,-0.03479,-0.04761,-0.01343,0.03021,-0.06027,-0.01526,-0.00168,-0.01587,-0.01801,-0.00671,0.01007,-0.02853,-0.02121,0.009,-0.04471
11.1405,-0.0061,-0.04059,-0.04257,-0.01434,0.03418,-0.06638,-0.01175,-0.00137,-0.01694,-0.0174,-0.0058,0.00916,-0.02869,-0.02014,0.00244,-0.04791
11.141,-0.01114,-0.04639,-0.03937,-0.01511,0.03738,-0.07172,-0.01053,-0.00122,-0.01633,-0.0174,-0.00671,0.00702,-0.02655,-0.01923,-0.00549,-0.05005
11.1415,-0.01511,-0.04837,-0.04074,-0.01617,0.0325,-0.0676,-0.01266,-0.00168,-0.01526,-0.01846,-0.00854,0.00458,-0.02243,-0.01923,-0.01038,-0.04944
11.142,-0.01801,-0.04715,-0.04303,-0.0177,0.00778,-0.05646,-0.01404,-0.00229,-0.0145,-0.01953,-0.01007,0.00244,-0.01953,-0.02045,-0.01221,-0.04684
11.1425,-0.01831,-0.04425,-0.04135,-0.0177,-0.0296,-0.04669,-0.01419,-0.0029,-0.01526,-0.02106,-0.00961,0.00137,-0.02014,-0.02167,-0.01907,-0.04379
11.143,-0.0174,-0.04242,-0.03799,-0.01617,-0.05753,-0.03983,-0.01358,-0.00305,-0.01602,-0.02136,-0.00748,0.00015,-0.02533,-0.0209,-0.02502,-0.04013
11.1435,-0.01587,-0.04349,-0.03494,-0.01434,-0.05417,-0.03387,-0.01358,-0.00336,-0.01572,-0.02197,-0.00626,0.0,-0.03204,-0.01907,-0.02625,-0.0383
11.144,-0.01602,-0.04776,-0.03143,-0.01358,-0.02686,-0.02914,-0.01251,-0.00351,-0.01511,-0.02136,-0.00763,0.00046,-0.03784,-0.01663,-0.01755,-0.03769
11.1445,-0.01755,-0.05524,-0.02991,-0.01251,0.00015,-0.0267,-0.01099,-0.00458,-0.01511,-0.02106,-0.00946,0.00168,-0.03998,-0.01572,0.0032,-0.03555
11.145,-0.0206,-0.06378,-0.02686,-0.00946,0.00137,-0.0264,-0.01007,-0.00458,-0.01663,-0.0209,-0.00961,0.00168,-0.04013,-0.01617,0.02945,-0.0325
11.1455,-0.02457,-0.06821,-0.02014,-0.00778,-0.03571,-0.03006,-0.01114,-0.00366,-0.01831,-0.02106,-0.00931,0.00153,-0.03983,-0.0177,0.04242,-0.03128
11.146,-0.02609,-0.06577,-0.00992,-0.00549,-0.09705,-0.03632,-0.01282,-0.00305,-0.01892,-0.02213,-0.01053,0.00137,-0.04089,-0.01907,0.03708,-0.0354
11.1465,-0.02487,-0.06271,-0.00183,-0.00168,-0.14084,-0.04364,-0.01266,-0.00381,-0.01785,-0.02365,-0.01236,0.00076,-0.04471,-0.01938,0.02762,-0.04028
11.147,-0.02243,-0.06241,-0.00168,0.00259,-0.12833,-0.04852,-0.01175,-0.00671,-0.01587,-0.02502,-0.01389,0.00031,-0.04822,-0.01862,0.03174,-0.04196
11.1475,-0.01907,-0.0647,-0.0087,0.00427,-0.06165,-0.04959,-0.01083,-0.00916,-0.01541,-0.02609,-0.01434,-0.00061,-0.04395,-0.01495,0.04807,-0.04181
11.148,-0.01541,-0.06393,-0.02045,0.00153,0.0116,-0.04883,-0.01205,-0.00885,-0.01633,-0.02533,-0.0148,-0.00092,-0.03494,-0.01282,0.05524,-0.04196
11.1485,-0.01221,-0.06149,-0.03296,-0.00061,0.04471,-0.05005,-0.01419,-0.00595,-0.01709,-0.02518,-0.0145,-0.00092,-0.02686,-0.0145,0.03693,-0.04318
11.149,-0.01022,-0.0592,-0.04089,-0.00214,0.03189,-0.05417,-0.01648,-0.00381,-0.0174,-0.02548,-0.01236,-0.00046,-0.02365,-0.01602,0.00259,-0.04333
11.1495,-0.00702,-0.05692,-0.04242,-0.00168,0.00656,-0.05829,-0.02014,-0.00275,-0.01633,-0.02533,-0.00641,0.00061,-0.02457,-0.01419,-0.02274,-0.04196
11.15,-0.00412,-0.05295,-0.03891,-0.00153,-0.00824,-0.05737,-0.02274,-0.00305,-0.01511,-0.02411,0.00153,0.00031,-0.02823,-0.00809,-0.02563,-0.04105
11.1505,-0.00275,-0.04776,-0.03708,-0.00275,-0.02487,-0.05325,-0.02426,-0.00259,-0.01419,-0.02197,0.00671,-0.00076,-0.03204,-0.00519,-0.01862,-0.04059
11.151,-0.00549,-0.04303,-0.03754,-0.00488,-0.05692,-0.04761,-0.02518,-0.00244,-0.01328,-0.02045,0.00656,-0.00031,-0.03448,-0.00565,-0.0177,-0.04059
11.1515,-0.01068,-0.04013,-0.03754,-0.00626,-0.0856,-0.04578,-0.02731,-0.00229,-0.01266,-0.01923,0.00198,0.00031,-0.03082,-0.00916,-0.02304,-0.04028
11.152,-0.01526,-0.03967,-0.03464,-0.00687,-0.08911,-0.047,-0.03143,-0.00137,-0.01434,-0.01862,-0.00259,0.00092,-0.02151,-0.01251,-0.02533,-0.04059
11.1525,-0.01663,-0.03876,-0.03296,-0.00732,-0.0708,-0.05035,-0.03357,0.00046,-0.01709,-0.01816,-0.00381,0.0,-0.01343,-0.01358,-0.02167,-0.04074
11.153,-0.01556,-0.03632,-0.03113,-0.00732,-0.05997,-0.05051,-0.03174,0.00153,-0.01968,-0.0174,-0.00198,-0.00031,-0.01221,-0.01343,-0.01678,-0.04059
11.1535,-0.01526,-0.03296,-0.02884,-0.00778,-0.06653,-0.04486,-0.02884,0.00214,-0.01953,-0.01678,-0.00076,0.00076,-0.01648,-0.01328,-0.01556,-0.03952
11.154,-0.0148,-0.03128,-0.02426,-0.0087,-0.07416,-0.03983,-0.02304,0.00427,-0.0174,-0.01602,-0.00504,0.00122,-0.0235,-0.01495,-0.01556,-0.0383
11.1545,-0.01495,-0.03098,-0.02106,-0.01099,-0.06805,-0.03937,-0.01266,0.00565,-0.01678,-0.01526,-0.01465,0.0,-0.03036,-0.01755,-0.01633,-0.03815
11.155,-0.01312,-0.03021,-0.02029,-0.01312,-0.05341,-0.04196,0.00366,0.00473,-0.01724,-0.01541,-0.0267,-0.00244,-0.03525,-0.01907,-0.0177,-0.04013
11.1555,-0.01205,-0.03113,-0.02121,-0.01434,-0.0415,-0.04211,0.01633,-0.00107,-0.01648,-0.01495,-0.0383,-0.00397,-0.04074,-0.01907,-0.00336,-0.04211
11.156,-0.01053,-0.03265,-0.02319,-0.01495,-0.03738,-0.03601,0.01923,-0.00977,-0.01526,-0.01495,-0.04852,-0.00259,-0.0444,-0.01877,0.04089,-0.04364
11.1565,-0.00931,-0.03281,-0.02411,-0.01465,-0.03769,-0.02548,0.01114,-0.01755,-0.01297,-0.01602,-0.05814,0.0,-0.04425,-0.01877,0.09537,-0.04318
11.157,-0.01022,-0.03189,-0.02365,-0.01465,-0.03799,-0.01602,-0.00412,-0.01999,-0.01038,-0.01785,-0.06882,0.00366,-0.03799,-0.01755,0.11963,-0.04303
11.1575,-0.01556,-0.03036,-0.02075,-0.01465,-0.03525,-0.01205,-0.02167,-0.01633,-0.00946,-0.01755,-0.07767,0.00412,-0.03021,-0.01526,0.09109,-0.0444
11.158,-0.02472,-0.02701,-0.01633,-0.01572,-0.02975,-0.01205,-0.0293,-0.01099,-0.00977,-0.01709,-0.08148,0.00076,-0.02396,-0.01404,0.02792,-0.04623
11.1585,-0.03387,-0.01999,-0.01053,-0.01724,-0.02502,-0.01434,-0.0145,-0.00671,-0.01068,-0.01877,-0.07904,-0.00198,-0.02258,-0.01541,-0.03189,-0.04623
11.159,-0.04059,-0.0116,-0.00595,-0.01831,-0.0238,-0.01709,0.01862,-0.00519,-0.01129,-0.02396,-0.07385,-0.00168,-0.02136,-0.01801,-0.05829,-0.04272
11.1595,-0.0441,-0.00687,-0.00443,-0.0174,-0.02274,-0.01984,0.04944,-0.00443,-0.01007,-0.02716,-0.06683,0.00214,-0.01648,-0.01938,-0.05142,-0.03906
11.16,-0.04745,-0.00961,-0.00763,-0.01556,-0.01968,-0.02365,0.05173,-0.00198,-0.00763,-0.02747,-0.05692,0.00549,-0.00946,-0.01999,-0.02777,-0.0386
11.1605,-0.05508,-0.01892,-0.01328,-0.01373,-0.01572,-0.02945,0.0206,0.00565,-0.00519,-0.02472,-0.04547,0.00488,-0.00473,-0.01938,-0.01129,-0.04303
11.161,-0.06592,-0.03143,-0.01938,-0.01129,-0.0145,-0.03525,-0.01572,0.01511,-0.00534,-0.02335,-0.03281,0.00122,-0.00534,-0.01984,-0.01022,-0.05219
11.1615,-0.07568,-0.04272,-0.02182,-0.01114,-0.0206,-0.03555,-0.03021,0.01709,-0.00641,-0.02289,-0.02136,-0.00107,-0.01312,-0.02167,-0.0119,-0.06271
11.162,-0.07889,-0.05096,-0.02411,-0.01282,-0.03632,-0.03342,-0.02563,0.00748,-0.00793,-0.02243,-0.01297,-0.00031,-0.0238,-0.02228,0.01251,-0.06943
11.1625,-0.07431,-0.05737,-0.02762,-0.0174,-0.05539,-0.03372,-0.01953,-0.00626,-0.00854,-0.02213,-0.00748,0.00107,-0.03586,-0.02228,0.06958,-0.06531
11.163,-0.065,-0.06317,-0.03235,-0.02045,-0.06454,-0.03693,-0.02045,-0.01282,-0.0087,-0.02213,-0.00473,0.00168,-0.04471,-0.0206,0.121,-0.04562
11.1635,-0.05722,-0.0676,-0.03571,-0.02151,-0.0528,-0.04044,-0.02396,-0.00931,-0.00854,-0.02014,-0.00214,0.00214,-0.04883,-0.01907,0.12589,-0.02228
11.164,-0.05341,-0.06927,-0.03479,-0.02182,-0.02304,-0.04684,-0.02853,-0.00214,-0.00885,-0.01678,0.00366,0.00244,-0.04898,-0.01953,0.08591,-0.01434
11.1645,-0.05325,-0.0676,-0.03159,-0.02319,0.00519,-0.05661,-0.03479,0.00092,-0.01053,-0.01465,0.01648,0.00183,-0.0499,-0.02167,0.04272,-0.02686
11.165,-0.0528,-0.06439,-0.03082,-0.02502,0.01999,-0.06805,-0.04028,0.00015,-0.01114,-0.01541,0.03632,0.00076,-0.05463,-0.02258,0.03159,-0.03998
11.1655,-0.04929,-0.05859,-0.03571,-0.02411,0.02045,-0.07721,-0.03708,0.0032,-0.01129,-0.01465,0.05661,0.00076,-0.0618,-0.0235,0.05402,-0.04242
11.166,-0.04227,-0.04272,-0.04257,-0.02167,0.01617,-0.08194,-0.02533,0.0116,-0.01144,-0.01175,0.06866,0.00198,-0.06607,-0.02457,0.0737,-0.03845
11.1665,-0.03418,-0.01572,-0.04822,-0.02151,0.01236,-0.08286,-0.01328,0.02075,-0.01328,-0.00854,0.06668,0.00336,-0.06439,-0.02533,0.06378,-0.0351
11.167,-0.02625,0.00778,-0.05371,-0.02136,0.00839,-0.07889,-0.00702,0.01999,-0.01556,-0.00916,0.05478,0.00397,-0.05798,-0.02548,0.0325,-0.03464
11.1675,-0.01938,0.00488,-0.0618,-0.0206,0.00687,-0.07156,-0.00809,0.00565,-0.0174,-0.01297,0.03998,0.00473,-0.05249,-0.02533,0.00381,-0.03601
11.168,-0.01556,-0.03006,-0.07202,-0.01801,0.00946,-0.06393,-0.01831,-0.01022,-0.01877,-0.0145,0.02319,0.00565,-0.0473,-0.02457,-0.01205,-0.04044
11.1685,-0.01343,-0.07553,-0.07568,-0.01511,0.01328,-0.06073,-0.03601,-0.01617,-0.02243,-0.01251,0.00427,0.0061,-0.04028,-0.0235,-0.02701,-0.04883
11.169,-0.01129,-0.10803,-0.06851,-0.01175,0.00977,-0.0621,-0.0502,-0.01144,-0.02594,-0.00931,-0.01465,0.00458,-0.02991,-0.02228,-0.047,-0.05585
11.1695,-0.00626,-0.11841,-0.05478,-0.01129,-0.00626,-0.06348,-0.05081,-0.00397,-0.02716,-0.00687,-0.03128,0.00412,-0.01877,-0.02029,-0.05661,-0.0528
11.17,-0.00015,-0.11551,-0.04211,-0.01358,-0.03326,-0.06149,-0.04532,-0.00168,-0.0264,-0.00595,-0.04471,0.00427,-0.01328,-0.01846,-0.04425,-0.03555
11.1705,0.00153,-0.10803,-0.03357,-0.01678,-0.06607,-0.05676,-0.04517,-0.00443,-0.02548,-0.0087,-0.05585,0.00427,-0.01312,-0.01678,-0.01923,-0.0145
11.171,-0.00183,-0.09628,-0.02838,-0.01846,-0.09491,-0.05356,-0.05386,-0.00732,-0.02701,-0.01419,-0.06531,0.00381,-0.01556,-0.01617,-0.00259,-0.00549
11.1715,-0.00565,-0.07935,-0.02167,-0.01755,-0.10864,-0.05463,-0.06149,-0.009,-0.0293,-0.02151,-0.07126,0.00168,-0.01663,-0.01678,0.00275,-0.01495
11.172,-0.00381,-0.06165,-0.01572,-0.01495,-0.09705,-0.05814,-0.0592,-0.01312,-0.02884,-0.02594,-0.07263,0.00031,-0.01556,-0.01968,0.00061,-0.03098
11.1725,0.00183,-0.04944,-0.01373,-0.0148,-0.06912,-0.06104,-0.04623,-0.01968,-0.02518,-0.02975,-0.06912,-0.00168,-0.01526,-0.02213,0.00198,-0.04059
11.173,0.00793,-0.04501,-0.01541,-0.01556,-0.04257,-0.0618,-0.01755,-0.02426,-0.02197,-0.03204,-0.0618,-0.00244,-0.01678,-0.02228,0.00671,-0.04196
11.1735,0.01221,-0.0415,-0.01907,-0.01663,-0.03067,-0.06073,0.03082,-0.02228,-0.02121,-0.03113,-0.05295,-0.00198,-0.02167,-0.02243,0.01877,-0.03967
11.174,0.01389,-0.03494,-0.02029,-0.01709,-0.02716,-0.0592,0.08698,-0.01068,-0.01999,-0.02945,-0.04456,-0.00092,-0.02869,-0.02319,0.02869,-0.03799
11.1745,0.01526,-0.02625,-0.01984,-0.01694,-0.02533,-0.0563,0.11368,0.00732,-0.01846,-0.0264,-0.03586,0.00015,-0.03387,-0.02548,0.02563,-0.03769
11.175,0.01801,-0.01556,-0.01907,-0.01526,-0.02472,-0.05203,0.08682,0.02182,-0.01648,-0.02487,-0.02808,-0.00046,-0.03433,-0.02808,0.00626,-0.03922
11.1755,0.02289,-0.00488,-0.01831,-0.01419,-0.02457,-0.047,0.03052,0.02548,-0.01587,-0.0238,-0.02121,-0.00122,-0.0351,-0.02899,-0.0174,-0.04211
11.176,0.02838,0.00015,-0.01678,-0.01617,-0.02289,-0.04425,-0.00824,0.01862,-0.01541,-0.02274,-0.01312,-0.00214,-0.0412,-0.02869,-0.03098,-0.04623
11.1765,0.03311,-0.00671,-0.01587,-0.02151,-0.01877,-0.04349,-0.0145,0.01007,-0.01434,-0.02289,-0.0032,-0.00122,-0.05051,-0.0267,-0.02792,-0.05112
11.177,0.03555,-0.0238,-0.01556,-0.02396,-0.01495,-0.04425,-0.01129,0.00351,-0.0119,-0.02304,0.00488,0.00031,-0.06195,-0.02457,-0.01297,-0.05524
11.1775,0.03601,-0.04486,-0.01617,-0.02121,-0.01572,-0.04333,-0.02121,-0.00275,-0.009,-0.02274,0.0087,0.00183,-0.07156,-0.02441,0.00549,-0.05859
11.178,0.03372,-0.05966,-0.01495,-0.01678,-0.01801,-0.04166,-0.04135,-0.01038,-0.0061,-0.02228,0.00977,0.00168,-0.07401,-0.02502,0.01709,-0.06393
11.1785,0.03113,-0.06393,-0.00961,-0.0148,-0.01923,-0.0415,-0.0502,-0.0145,-0.00336,-0.02075,0.01083,-0.00122,-0.06638,-0.02411,0.01434,-0.07355
11.179,0.03006,-0.05783,-0.00412,-0.01434,-0.01968,-0.04303,-0.03693,-0.0145,-0.00275,-0.02121,0.01129,-0.00473,-0.05447,-0.02197,-0.00137,-0.08118
11.1795,0.03113,-0.04578,-0.00275,-0.01419,-0.02304,-0.04517,-0.01373,-0.01343,-0.00412,-0.02014,0.01114,-0.00656,-0.04486,-0.01816,-0.01572,-0.07813
11.18,0.03326,-0.03464,-0.00549,-0.01541,-0.03082,-0.04715,-0.00214,-0.01114,-0.00595,-0.01648,0.009,-0.00412,-0.03815,-0.0148,-0.01831,-0.06393
11.1805,0.03433,-0.02853,-0.00961,-0.01846,-0.04257,-0.04929,-0.00687,-0.00778,-0.00656,-0.01419,0.00687,-0.00031,-0.03006,-0.0119,-0.01434,-0.04593
11.181,0.03296,-0.0267,-0.01556,-0.02228,-0.05478,-0.05295,-0.01434,-0.00229,-0.00671,-0.01266,0.0058,0.00015,-0.02075,-0.01129,-0.01419,-0.02914
11.1815,0.02899,-0.0264,-0.02136,-0.0238,-0.06104,-0.05692,-0.01465,0.00168,-0.00687,-0.01266,0.00595,-0.00198,-0.01495,-0.01266,-0.01846,-0.01984
11.182,0.02487,-0.02716,-0.02808,-0.02426,-0.05661,-0.05859,-0.01129,0.00366,-0.00595,-0.01343,0.00809,-0.00305,-0.01389,-0.01572,-0.02289,-0.02136
11.1825,0.02274,-0.02914,-0.03586,-0.02396,-0.04501,-0.05905,-0.01144,0.00427,-0.00595,-0.01434,0.00961,-0.0032,-0.01404,-0.02014,-0.02243,-0.02808
11.183,0.02075,-0.03357,-0.0441,-0.02136,-0.03326,-0.05722,-0.01434,0.00488,-0.00763,-0.01572,0.01053,-0.0029,-0.01587,-0.02243,-0.01862,-0.03113
11.1835,0.01846,-0.03647,-0.05173,-0.01709,-0.02701,-0.05402,-0.01648,0.0032,-0.00977,-0.01678,0.01221,-0.00351,-0.01953,-0.02335,-0.01266,-0.02716
11.184,0.01709,-0.03647,-0.05768,-0.01419,-0.0267,-0.0528,-0.01663,0.00122,-0.01236,-0.01907,0.01663,-0.00366,-0.02563,-0.02441,-0.00122,-0.02502
11.1845,0.01755,-0.03494,-0.06134,-0.01419,-0.0293,-0.05264,-0.01831,-0.00061,-0.01465,-0.02136,0.02167,-0.00351,-0.03403,-0.02716,0.01648,-0.03036
11.185,0.01999,-0.03387,-0.065,-0.01602,-0.03128,-0.0528,-0.0209,-0.00214,-0.01617,-0.02365,0.02518,-0.00381,-0.04211,-0.02945,0.03311,-0.03876
11.1855,0.02213,-0.03418,-0.06897,-0.01633,-0.02899,-0.05203,-0.02274,-0.00687,-0.01724,-0.02487,0.02686,-0.00519,-0.04822,-0.0293,0.03342,-0.04333
11.186,0.0235,-0.03555,-0.07309,-0.0145,-0.02365,-0.05096,-0.02151,-0.01068,-0.01877,-0.02396,0.02762,-0.00687,-0.05157,-0.02823,0.02029,-0.04379
11.1865,0.0238,-0.03601,-0.07507,-0.01282,-0.0206,-0.0499,-0.01968,-0.01114,-0.01892,-0.02136,0.02853,-0.00671,-0.05295,-0.0264,0.01022,-0.04272
11.187,0.0238,-0.03601,-0.07416,-0.01389,-0.02289,-0.0473,-0.01907,-0.00854,-0.01984,-0.0206,0.02899,-0.00488,-0.05157,-0.02457,0.01068,-0.04181
11.1875,0.02457,-0.03601,-0.0708,-0.01511,-0.02579,-0.04318,-0.01892,-0.0058,-0.0209,-0.02045,0.02899,-0.00336,-0.04837,-0.02289,0.01663,-0.0412
11.188,0.02594,-0.0351,-0.06424,-0.01541,-0.02151,-0.03738,-0.01785,-0.00504,-0.02213,-0.02045,0.02792,-0.0029,-0.0412,-0.01953,0.02014,-0.04044
11.1885,0.02731,-0.03448,-0.05753,-0.01617,-0.009,-0.03372,-0.01663,-0.00488,-0.02197,-0.0209,0.02457,-0.00458,-0.03235,-0.01678,0.0206,-0.0412
11.189,0.02823,-0.03189,-0.05524,-0.01678,0.00366,-0.03235,-0.01663,-0.00488,-0.02136,-0.0206,0.01556,-0.00519,-0.02502,-0.01465,0.02106,-0.04318
11.1895,0.02853,-0.02838,-0.05447,-0.01526,0.00824,-0.03036,-0.01694,-0.00488,-0.02197,-0.01907,0.0032,-0.00397,-0.02151,-0.01358,0.01709,-0.04379
11.19,0.02838,-0.02548,-0.05386,-0.01266,0.00214,-0.02823,-0.01709,-0.0061,-0.02335,-0.01617,-0.00778,-0.00183,-0.02136,-0.01343,0.00046,-0.04211
11.1905,0.02762,-0.0264,-0.05219,-0.01114,-0.01297,-0.0267,-0.01495,-0.00763,-0.02365,-0.01419,-0.0177,-0.00122,-0.02106,-0.01404,-0.02289,-0.04089
11.191,0.02563,-0.0325,-0.04913,-0.01205,-0.03067,-0.02472,-0.01465,-0.00763,-0.02106,-0.01648,-0.02884,-0.00168,-0.02075,-0.01587,-0.03082,-0.04135
11.1915,0.02426,-0.04074,-0.04517,-0.01526,-0.04471,-0.02136,-0.01678,-0.00641,-0.01846,-0.0177,-0.04288,-0.00275,-0.02075,-0.01831,-0.01129,-0.04257
11.192,0.02304,-0.04761,-0.04166,-0.01648,-0.05554,-0.01633,-0.02014,-0.00656,-0.01907,-0.01862,-0.05539,-0.00351,-0.02106,-0.01923,0.0145,-0.04349
11.1925,0.02365,-0.04898,-0.03906,-0.0148,-0.0589,-0.01297,-0.0209,-0.00778,-0.02045,-0.01816,-0.06256,-0.00244,-0.02121,-0.01923,0.0238,-0.04379
11.193,0.02502,-0.04807,-0.03754,-0.01328,-0.05051,-0.0145,-0.01907,-0.00641,-0.01938,-0.01755,-0.06287,-0.00198,-0.02075,-0.01923,0.01663,-0.04318
11.1935,0.02686,-0.04684,-0.03769,-0.01404,-0.03342,-0.01785,-0.01724,-0.00336,-0.01602,-0.0177,-0.06119,-0.00168,-0.0206,-0.01984,0.00977,-0.04288
11.194,0.02625,-0.04501,-0.03769,-0.01724,-0.0206,-0.02289,-0.01663,-0.00076,-0.01373,-0.0177,-0.05936,-0.0029,-0.02075,-0.02106,0.00854,-0.04318
11.1945,0.02396,-0.0415,-0.0386,-0.01862,-0.0209,-0.02792,-0.01724,-0.00076,-0.01343,-0.01724,-0.05646,-0.0029,-0.02182,-0.02289,0.00702,-0.04318
11.195,0.02228,-0.03693,-0.03906,-0.01755,-0.02945,-0.03235,-0.01831,-0.00183,-0.01282,-0.01816,-0.05692,-0.00198,-0.0235,-0.02502,0.00366,-0.04257
11.1955,0.0206,-0.03159,-0.03998,-0.0174,-0.0325,-0.03708,-0.01938,-0.00336,-0.01022,-0.02014,-0.06012,-0.00198,-0.0267,-0.02716,0.00275,-0.0415
11.196,0.01862,-0.02609,-0.04211,-0.01984,-0.02335,-0.03937,-0.01968,-0.00427,-0.00732,-0.02228,-0.06012,-0.00122,-0.02777,-0.02884,0.00748,-0.04227
11.1965,0.01648,-0.0177,-0.0444,-0.02136,-0.01114,-0.03723,-0.01846,-0.00473,-0.00549,-0.02213,-0.05051,-0.00061,-0.02518,-0.02777,0.01251,-0.0441
11.197,0.0148,-0.00717,-0.04272,-0.01892,-0.00381,-0.0322,-0.01892,-0.00626,-0.0058,-0.01999,-0.03586,0.00046,-0.02228,-0.02472,0.01144,-0.04517
11.1975,0.0148,0.00153,-0.03967,-0.01495,-0.0058,-0.02792,-0.02075,-0.00702,-0.00549,-0.01816,-0.02625,0.00092,-0.02274,-0.02258,0.00839,-0.04471
11.198,0.01343,0.00687,-0.0351,-0.01297,-0.01724,-0.02762,-0.02075,-0.00565,-0.00595,-0.01785,-0.02243,0.0,-0.02655,-0.02151,0.00778,-0.0444
11.1985,0.01022,0.01251,-0.03174,-0.01404,-0.04318,-0.03296,-0.01495,-0.00336,-0.009,-0.01877,-0.0206,-0.00046,-0.03036,-0.02045,0.01007,-0.04547
11.199,0.00671,0.01785,-0.0296,-0.01556,-0.07278,-0.04135,-0.00748,-0.00198,-0.01144,-0.0209,-0.01663,0.0,-0.03113,-0.0177,0.01083,-0.04684
11.1995,0.00458,0.01083,-0.0296,-0.01556,-0.08942,-0.04654,-0.00671,-0.0029,-0.0116,-0.02121,-0.01343,0.00092,-0.02975,-0.01389,0.0087,-0.047
11.2,0.00351,-0.01663,-0.02792,-0.0145,-0.08118,-0.04745,-0.01404,-0.00443,-0.00946,-0.02106,-0.01312,0.00153,-0.02747,-0.01175,0.00824,-0.04593
11.2005,0.0032,-0.05341,-0.02853,-0.01526,-0.06027,-0.04791,-0.02029,-0.00534,-0.00961,-0.02029,-0.01404,0.00137,-0.02487,-0.01312,0.01007,-0.04501
11.201,0.00229,-0.08316,-0.02991,-0.01404,-0.0441,-0.05005,-0.01984,-0.00534,-0.01114,-0.01984,-0.01373,0.00153,-0.0235,-0.0148,0.01129,-0.04501
11.2015,0.00046,-0.09888,-0.03372,-0.01205,-0.03876,-0.056,-0.0148,-0.00458,-0.01465,-0.01877,-0.00809,0.00092,-0.0235,-0.01495,0.01038,-0.04501
11.202,-0.00168,-0.10239,-0.03876,-0.00992,-0.03937,-0.06088,-0.01236,-0.00366,-0.01678,-0.01999,0.0029,-0.00015,-0.02579,-0.01465,0.0087,-0.04593
11.2025,-0.00168,-0.09628,-0.04547,-0.01068,-0.04364,-0.06134,-0.01526,-0.00305,-0.0174,-0.02167,0.01251,-0.00076,-0.02853,-0.01465,0.00809,-0.04425
11.203,-0.00015,-0.08682,-0.05142,-0.01144,-0.05203,-0.05753,-0.0174,-0.0029,-0.0174,-0.02136,0.01297,0.00076,-0.0325,-0.01511,0.01007,-0.04288
11.2035,0.00198,-0.07782,-0.05356,-0.00946,-0.06012,-0.05341,-0.01373,-0.00351,-0.01694,-0.02045,0.00549,0.00198,-0.03769,-0.01709,0.01144,-0.04211
11.204,0.00336,-0.06805,-0.05249,-0.00748,-0.0621,-0.05341,-0.00504,-0.00427,-0.01709,-0.01968,-0.0061,0.00092,-0.04349,-0.01801,0.01053,-0.04272
11.2045,0.00366,-0.05676,-0.04593,-0.00809,-0.05615,-0.05692,-0.00076,-0.00381,-0.01755,-0.01999,-0.01541,-0.00153,-0.04547,-0.0206,0.00946,-0.04303
11.205,0.00412,-0.04349,-0.03632,-0.01114,-0.04425,-0.06516,-0.00702,-0.00381,-0.01663,-0.0209,-0.02136,-0.00305,-0.04211,-0.02121,0.00931,-0.04196
11.2055,0.00488,-0.03464,-0.02808,-0.01205,-0.0296,-0.0769,-0.01556,-0.00397,-0.01678,-0.02304,-0.02335,-0.0029,-0.03845,-0.02197,0.01022,-0.04227
11.206,0.00504,-0.0325,-0.02747,-0.01114,-0.01678,-0.08698,-0.01724,-0.00336,-0.01648,-0.02396,-0.02213,-0.00122,-0.03662,-0.02151,0.01038,-0.04196
11.2065,0.0029,-0.03281,-0.03784,-0.01038,-0.00809,-0.0827,-0.01465,-0.00214,-0.01602,-0.02396,-0.01877,0.00107,-0.03586,-0.02167,0.00916,-0.04257
11.207,0.00046,-0.0322,-0.05096,-0.0119,-0.00519,-0.06409,-0.01389,-0.00122,-0.01709,-0.02411,-0.01587,0.00137,-0.0354,-0.02258,0.00778,-0.04181
11.2075,-0.00092,-0.03281,-0.05737,-0.01266,-0.00534,-0.04852,-0.01724,-0.00153,-0.01877,-0.0238,-0.01465,0.0,-0.03525,-0.02304,0.00763,-0.0412
11.208,-0.00168,-0.03448,-0.05386,-0.01297,-0.00534,-0.04837,-0.01938,-0.00229,-0.01923,-0.0235,-0.01526,-0.00137,-0.03342,-0.0209,0.01068,-0.04028
11.2085,-0.00031,-0.03677,-0.04501,-0.0148,-0.00854,-0.05966,-0.01831,-0.00305,-0.01877,-0.02243,-0.01801,-0.00046,-0.02884,-0.01694,0.01312,-0.04089
11.209,0.00183,-0.03662,-0.03525,-0.01678,-0.01602,-0.06531,-0.01617,-0.00305,-0.01709,-0.01984,-0.02106,0.00061,-0.02136,-0.01434,0.01526,-0.04227
11.2095,0.00183,-0.03235,-0.03006,-0.01633,-0.02655,-0.06104,-0.01556,-0.00214,-0.01495,-0.01709,-0.01984,0.00092,-0.01221,-0.01251,0.01617,-0.04089
11.21,-0.00046,-0.02655,-0.02731,-0.01465,-0.03479,-0.05585,-0.01511,-0.00153,-0.01404,-0.01663,-0.0032,-0.00092,-0.00336,-0.01221,0.01617,-0.03891
11.2105,-0.00443,-0.02258,-0.02777,-0.01389,-0.04105,-0.05844,-0.01328,-0.00137,-0.01297,-0.0145,0.03677,-0.00183,0.00244,-0.01221,0.01572,-0.03845
11.211,-0.00717,-0.0209,-0.02579,-0.01297,-0.04562,-0.06882,-0.01312,-0.00259,-0.01129,-0.01495,0.07965,-0.00046,0.00305,-0.01221,0.01419,-0.0386
11.2115,-0.00824,-0.01785,-0.02075,-0.01114,-0.05371,-0.08331,-0.01373,-0.00229,-0.01083,-0.01495,0.09033,0.00076,-0.00153,-0.01312,0.01236,-0.03891
11.212,-0.00946,-0.01373,-0.01587,-0.00961,-0.06134,-0.09781,-0.01389,-0.00168,-0.01358,-0.01526,0.05417,0.00122,-0.00946,-0.01343,0.01297,-0.03967
11.2125,-0.01175,-0.01297,-0.01297,-0.01038,-0.05768,-0.10635,-0.01236,-0.00061,-0.01709,-0.01358,-0.00229,-0.00031,-0.01709,-0.01495,0.01465,-0.03983
11.213,-0.01266,-0.01846,-0.0119,-0.01068,-0.03784,-0.09857,-0.01099,-0.00107,-0.01816,-0.01114,-0.0441,-0.00183,-0.02319,-0.01663,0.01541,-0.03983
11.2135,-0.01343,-0.02747,-0.01038,-0.01068,-0.01114,-0.07324,-0.01129,-0.00122,-0.01648,-0.01007,-0.06317,-0.00229,-0.03174,-0.01755,0.0148,-0.04028
11.214,-0.01389,-0.03372,-0.00656,-0.01007,0.00153,-0.04257,-0.01251,-0.00198,-0.01419,-0.01129,-0.06943,-0.00183,-0.04486,-0.01862,0.01266,-0.03998
11.2145,-0.01404,-0.03738,-0.00259,-0.00931,-0.01007,-0.01801,-0.01343,-0.00122,-0.01434,-0.0119,-0.07065,-0.00214,-0.05859,-0.02075,0.01129,-0.0415
11.215,-0.01236,-0.03998,-0.00061,-0.00961,-0.0383,-0.00412,-0.01328,-0.00122,-0.01648,-0.01099,-0.06638,-0.00381,-0.06943,-0.02365,0.01129,-0.04227
11.2155,-0.01221,-0.04364,-0.00244,-0.00793,-0.06271,-0.00153,-0.01251,-0.00168,-0.01816,-0.00931,-0.05661,-0.00534,-0.07507,-0.02518,0.01205,-0.04135
11.216,-0.01297,-0.05051,-0.00565,-0.0058,-0.07309,-0.01511,-0.01328,-0.00137,-0.01892,-0.0058,-0.04684,-0.00519,-0.07568,-0.02411,0.01495,-0.03983
11.2165,-0.01541,-0.0563,-0.00977,-0.00473,-0.07004,-0.04196,-0.01373,-0.00153,-0.01953,-0.00122,-0.04059,-0.00366,-0.0708,-0.0209,0.01724,-0.04028
11.217,-0.01648,-0.05905,-0.01556,-0.00504,-0.06042,-0.06866,-0.01373,-0.00107,-0.01953,0.00214,-0.03937,-0.00198,-0.06454,-0.01907,0.0174,-0.04181
11.2175,-0.01587,-0.06104,-0.02274,-0.00549,-0.04684,-0.08377,-0.01251,-0.00122,-0.01968,-0.00153,-0.0386,-0.0029,-0.05737,-0.02151,0.01526,-0.04303
11.218,-0.01587,-0.065,-0.02701,-0.00488,-0.03189,-0.08118,-0.01266,-0.00214,-0.0206,-0.01099,-0.02731,-0.00412,-0.04883,-0.0235,0.01297,-0.04318
11.2185,-0.01678,-0.0705,-0.01785,-0.00275,-0.02121,-0.06561,-0.01266,-0.0032,-0.0209,-0.02319,0.00519,-0.00534,-0.03815,-0.02243,0.01236,-0.04257
11.219,-0.01724,-0.0737,0.00397,0.00031,-0.01495,-0.0473,-0.01221,-0.00336,-0.01999,-0.03067,0.05219,-0.00534,-0.02716,-0.01785,0.01328,-0.04288
11.2195,-0.01633,-0.07233,0.02365,0.00214,-0.01572,-0.03555,-0.01083,-0.00259,-0.01877,-0.03281,0.08972,-0.00473,-0.01923,-0.01373,0.01617,-0.04242
11.22,-0.01495,-0.06866,0.01526,0.0032,-0.01999,-0.03311,-0.01038,-0.00153,-0.01801,-0.03296,0.10406,-0.00443,-0.0145,-0.01312,0.0174,-0.04196
11.2205,-0.0145,-0.06317,-0.0206,0.00336,-0.02014,-0.03342,-0.01099,-0.00137,-0.01709,-0.03311,0.09659,-0.00381,-0.01266,-0.01556,0.01572,-0.04089
11.221,-0.01648,-0.05341,-0.056,0.0032,-0.01663,-0.03448,-0.01266,-0.00214,-0.01678,-0.03403,0.06668,-0.00305,-0.01434,-0.01801,0.00916,-0.03937
11.2215,-0.01831,-0.04089,-0.07431,0.00229,-0.01221,-0.03525,-0.01251,-0.00198,-0.0177,-0.03143,0.01053,-0.00259,-0.0206,-0.01968,0.00137,-0.0386
11.222,-0.01907,-0.03281,-0.07492,0.00107,-0.01144,-0.03235,-0.01175,-0.00168,-0.01892,-0.02762,-0.05814,-0.00076,-0.02991,-0.01968,-0.00336,-0.03845
11.2225,-0.01953,-0.02899,-0.06912,0.00107,-0.01328,-0.0267,-0.01175,-0.00168,-0.01953,-0.02411,-0.11261,0.00046,-0.03952,-0.02045,-0.00229,-0.03784
11.223,-0.01984,-0.0267,-0.05997,0.00153,-0.01511,-0.02884,-0.01251,-0.00229,-0.01755,-0.0235,-0.13779,0.00076,-0.05035,-0.02151,0.00397,-0.03601
11.2235,-0.02014,-0.02228,-0.05325,0.00137,-0.01511,-0.04852,-0.01282,-0.0032,-0.01511,-0.02502,-0.14191,0.00046,-0.05981,-0.0206,0.00839,-0.03571
11.224,-0.01877,-0.01862,-0.04745,-0.00092,-0.01526,-0.07614,-0.01297,-0.00458,-0.01389,-0.02686,-0.13672,0.00015,-0.06348,-0.01862,0.01038,-0.03784
11.2245,-0.01801,-0.02197,-0.04486,-0.00305,-0.01648,-0.08575,-0.01282,-0.00458,-0.01343,-0.02762,-0.12726,0.00031,-0.05936,-0.01724,0.00916,-0.03998
11.225,-0.01816,-0.02869,-0.04211,-0.00244,-0.01785,-0.07248,-0.01236,-0.00488,-0.01373,-0.02808,-0.11353,0.00092,-0.05249,-0.01648,0.00885,-0.0412
11.2255,-0.01877,-0.03494,-0.04028,-0.00122,-0.02304,-0.05783,-0.01144,-0.00595,-0.01373,-0.02777,-0.09903,0.0,-0.04684,-0.01633,0.00992,-0.04242
11.226,-0.01862,-0.03937,-0.03967,-0.00061,-0.03372,-0.06531,-0.01144,-0.00549,-0.01404,-0.0267,-0.08682,-0.00168,-0.04349,-0.01678,0.01389,-0.04486
11.2265,-0.01816,-0.04242,-0.03998,-0.00305,-0.0502,-0.08972,-0.01083,-0.0058,-0.0148,-0.02533,-0.08026,-0.00183,-0.04089,-0.01755,0.01678,-0.04669
11.227,-0.01816,-0.04471,-0.0415,-0.00641,-0.06607,-0.10361,-0.01114,-0.00565,-0.01434,-0.02518,-0.07782,-0.00168,-0.03815,-0.01785,0.02182,-0.04684
11.2275,-0.01709,-0.04761,-0.04517,-0.00885,-0.07172,-0.08865,-0.0119,-0.00565,-0.01328,-0.02533,-0.07706,0.00031,-0.03433,-0.01648,0.02396,-0.04593
11.228,-0.01465,-0.04913,-0.05249,-0.00793,-0.06165,-0.05478,-0.01221,-0.00443,-0.01266,-0.0235,-0.07416,0.00107,-0.03036,-0.01572,0.01953,-0.04517
11.2285,-0.01144,-0.04791,-0.06119,-0.00702,-0.04135,-0.02747,-0.01282,-0.00351,-0.0145,-0.01968,-0.06409,0.00107,-0.02655,-0.01541,0.01221,-0.04456
11.229,-0.0087,-0.04593,-0.07187,-0.00732,-0.02029,-0.01816,-0.01266,-0.00275,-0.01709,-0.01709,-0.04837,0.00153,-0.02487,-0.01648,0.0087,-0.04181
11.2295,-0.0058,-0.04318,-0.08286,-0.00732,0.0,-0.01831,-0.0119,-0.00336,-0.01755,-0.01602,-0.02975,0.0032,-0.02533,-0.01678,0.01419,-0.03769
11.23,-0.00427,-0.04181,-0.09109,-0.00656,0.02686,-0.01999,-0.0116,-0.00366,-0.01556,-0.0148,-0.01083,0.00504,-0.02762,-0.01572,0.01999,-0.03555
11.2305,-0.00366,-0.04105,-0.0946,-0.00549,0.05325,-0.02457,-0.0119,-0.00351,-0.01282,-0.01251,0.00229,0.00519,-0.03128,-0.01419,0.0174,-0.03693
11.231,-0.00488,-0.03998,-0.09232,-0.00519,0.05783,-0.03372,-0.01236,-0.00427,-0.01114,-0.01068,0.00656,0.00381,-0.03433,-0.01282,0.00504,-0.03983
11.2315,-0.00656,-0.0383,-0.0856,-0.00504,0.02594,-0.0412,-0.01205,-0.00366,-0.0087,-0.00992,0.00534,0.00336,-0.03281,-0.01114,-0.01083,-0.04135
11.232,-0.00824,-0.03708,-0.07813,-0.00549,-0.02853,-0.04105,-0.01236,-0.00244,-0.00717,-0.01007,0.00656,0.00427,-0.02884,-0.00992,-0.02548,-0.04181
11.2325,-0.00885,-0.03342,-0.06836,-0.0061,-0.07065,-0.03372,-0.01251,-0.00137,-0.00763,-0.01068,0.01175,0.00671,-0.02457,-0.00977,-0.03204,-0.04181
11.233,-0.00885,-0.02472,-0.06119,-0.00565,-0.08636,-0.02884,-0.01343,-0.00107,-0.00793,-0.0119,0.01541,0.00763,-0.02243,-0.01007,-0.03159,-0.04196
11.2335,-0.00946,-0.01022,-0.05829,-0.00458,-0.08514,-0.02853,-0.01404,-0.00214,-0.00885,-0.01419,0.01587,0.0061,-0.02182,-0.01083,-0.02731,-0.04181
11.234,-0.00885,0.00885,-0.05768,-0.00366,-0.08224,-0.03128,-0.01465,-0.00397,-0.00793,-0.01694,0.0145,0.00305,-0.0235,-0.01328,-0.03036,-0.0412
11.2345,-0.00778,0.02609,-0.05432,-0.00412,-0.08255,-0.03403,-0.0148,-0.00656,-0.00687,-0.01938,0.01617,0.00092,-0.02625,-0.01495,-0.03937,-0.04059
11.235,-0.00626,0.03387,-0.04379,-0.00534,-0.08301,-0.03555,-0.01434,-0.00763,-0.00656,-0.0209,0.01892,0.00076,-0.02991,-0.01633,-0.0351,-0.04074
11.2355,-0.00473,0.03357,-0.03021,-0.00595,-0.08255,-0.03525,-0.01312,-0.0058,-0.00854,-0.0209,0.02014,0.00153,-0.03311,-0.0174,0.00534,-0.04013
11.236,-0.00336,0.03616,-0.01999,-0.00351,-0.07675,-0.03235,-0.01328,-0.00244,-0.01099,-0.02121,0.01862,0.00336,-0.03555,-0.01724,0.07416,-0.03967
11.2365,-0.00198,0.04517,-0.01648,-0.00107,-0.06668,-0.02655,-0.01511,-0.00137,-0.01205,-0.02151,0.01663,0.00412,-0.03891,-0.01755,0.11902,-0.03998
11.237,-0.00153,0.04257,-0.01968,-0.00031,-0.05295,-0.02014,-0.01678,-0.00229,-0.01282,-0.02289,0.01617,0.00244,-0.04272,-0.01892,0.09735,-0.04013
11.2375,-0.00153,0.01144,-0.02502,-0.00046,-0.04074,-0.01755,-0.01648,-0.00366,-0.01434,-0.02182,0.01495,-0.00137,-0.04532,-0.02304,0.03174,-0.04013
11.238,-0.00092,-0.03983,-0.02899,-0.00305,-0.03403,-0.02106,-0.01465,-0.00473,-0.0174,-0.01923,0.01511,-0.00534,-0.04395,-0.02655,-0.0116,-0.04013
11.2385,-0.00198,-0.09094,-0.03143,-0.00336,-0.03052,-0.02777,-0.01312,-0.00473,-0.01953,-0.01678,0.01724,-0.00626,-0.04028,-0.02899,-0.00275,-0.04028
11.239,-0.00504,-0.12634,-0.03479,-0.00137,-0.02579,-0.03326,-0.01144,-0.00412,-0.02075,-0.01572,0.01984,-0.00427,-0.03525,-0.02914,0.03204,-0.0415
11.2395,-0.00946,-0.14282,-0.03738,0.00122,-0.02029,-0.03571,-0.00946,-0.00443,-0.02274,-0.01419,0.01846,-0.00229,-0.03174,-0.02747,0.05096,-0.04288
11.24,-0.00961,-0.14893,-0.04135,0.00168,-0.01297,-0.03708,-0.00717,-0.00351,-0.0235,-0.01083,0.01114,-0.00122,-0.03021,-0.02457,0.04028,-0.04318
11.2405,-0.00931,-0.14694,-0.04242,0.00015,-0.00717,-0.04013,-0.00641,-0.00412,-0.02487,-0.00854,0.0029,-0.00122,-0.02823,-0.01938,0.01968,-0.04227
11.241,-0.01144,-0.13779,-0.03922,-0.00015,-0.00214,-0.04364,-0.00854,-0.00366,-0.02563,-0.00702,0.00061,-0.00061,-0.02533,-0.0145,0.00809,-0.04105
11.2415,-0.01633,-0.12573,-0.03342,0.00107,-0.00427,-0.04623,-0.01114,-0.00351,-0.02701,-0.00641,0.00748,0.00015,-0.02151,-0.01022,0.01328,-0.04074
11.242,-0.01984,-0.11642,-0.03479,0.00076,-0.01633,-0.04623,-0.01297,-0.0029,-0.02731,-0.00351,0.01907,0.00015,-0.01953,-0.00946,0.02213,-0.04044
11.2425,-0.01999,-0.11047,-0.04883,-0.00214,-0.03052,-0.04684,-0.01343,-0.00214,-0.0264,-0.00183,0.02777,-0.00015,-0.02075,-0.0119,0.02304,-0.03952
11.243,-0.01801,-0.10803,-0.07202,-0.00534,-0.03632,-0.04715,-0.01328,-0.00183,-0.02563,-0.0029,0.03082,-0.00076,-0.02365,-0.01526,0.01663,-0.04044
11.2435,-0.01648,-0.10849,-0.09247,-0.00671,-0.03204,-0.04822,-0.0145,-0.00366,-0.02533,-0.00687,0.03143,-0.00168,-0.02548,-0.01801,0.01007,-0.04227
11.244,-0.01328,-0.1091,-0.1033,-0.00671,-0.02518,-0.04868,-0.01434,-0.00412,-0.02335,-0.01007,0.0325,-0.00275,-0.02365,-0.01755,0.009,-0.04456
11.2445,-0.00778,-0.10422,-0.10406,-0.00519,-0.01862,-0.04776,-0.01343,-0.00427,-0.01938,-0.01099,0.0351,-0.0032,-0.01495,-0.01724,0.00992,-0.04395
11.245,-0.00198,-0.0943,-0.09796,-0.00259,-0.01434,-0.04745,-0.01282,-0.00397,-0.01511,-0.00809,0.03616,-0.00259,-0.0032,-0.0174,0.00931,-0.04318
11.2455,0.00107,-0.08072,-0.08957,-0.00092,-0.01083,-0.04852,-0.01266,-0.00366,-0.01328,-0.00366,0.03128,-0.00305,0.00504,-0.01999,0.00824,-0.04227
11.246,0.00305,-0.06516,-0.08087,-0.00092,-0.00916,-0.05081,-0.01297,-0.00397,-0.01526,-0.00015,0.02243,-0.00366,0.00366,-0.02167,0.00854,-0.04242
11.2465,0.00488,-0.04974,-0.06897,-0.00229,-0.0087,-0.05264,-0.01358,-0.00336,-0.01694,0.00061,0.01251,-0.0029,-0.00427,-0.02274,0.00717,-0.04181
11.247,0.00687,-0.03693,-0.05859,-0.00259,-0.00641,-0.05386,-0.01282,-0.00214,-0.0174,-0.00137,0.00488,-0.00336,-0.01617,-0.02289,0.00244,-0.04166
11.2475,0.00656,-0.02884,-0.05234,-0.00168,-0.0032,-0.05356,-0.01221,-0.00244,-0.01694,-0.00519,-0.00214,-0.00366,-0.02747,-0.0235,-0.00214,-0.04211
11.248,0.00595,-0.02274,-0.05066,-0.00168,0.0032,-0.05234,-0.01266,-0.00336,-0.01633,-0.01053,-0.01022,-0.00244,-0.03708,-0.02487,-0.00336,-0.04303
11.2485,0.00504,-0.01801,-0.0499,-0.0029,0.00916,-0.04944,-0.01434,-0.00366,-0.01556,-0.01434,-0.02045,-0.00107,-0.04379,-0.02594,-0.00259,-0.0444
11.249,0.00412,-0.01328,-0.04761,-0.00305,0.00565,-0.04654,-0.01495,-0.00351,-0.0148,-0.0174,-0.03143,-0.00076,-0.04959,-0.02609,-0.00198,-0.04395
11.2495,0.0029,-0.01053,-0.04303,-0.00168,-0.01007,-0.04303,-0.01389,-0.00351,-0.01419,-0.01862,-0.04303,-0.00122,-0.05722,-0.02579,-0.00153,-0.04379
11.25,0.00183,-0.01221,-0.03662,-0.00046,-0.03662,-0.03998,-0.01221,-0.00351,-0.01312,-0.01862,-0.05325,-0.00229,-0.06424,-0.0235,-0.00046,-0.04303
11.2505,0.00183,-0.0177,-0.0264,-0.00076,-0.05981,-0.03586,-0.01129,-0.00366,-0.01068,-0.01907,-0.05997,-0.00061,-0.06546,-0.02167,0.0,-0.04227
11.251,0.00214,-0.02441,-0.01373,-0.00122,-0.0676,-0.03281,-0.01129,-0.00366,-0.00748,-0.01984,-0.06195,0.00092,-0.05981,-0.02014,0.0,-0.04242
11.2515,0.00366,-0.03128,-0.00381,-0.00107,-0.05661,-0.03387,-0.01068,-0.00381,-0.00534,-0.02136,-0.05814,0.00122,-0.05066,-0.01968,-0.00183,-0.04272
11.252,0.00504,-0.03403,-0.00092,-0.00076,-0.04181,-0.03815,-0.01114,-0.00366,-0.00336,-0.02258,-0.05035,0.00061,-0.04318,-0.01877,-0.0032,-0.04395
11.2525,0.00519,-0.03281,-0.00473,-0.00259,-0.03677,-0.04501,-0.01175,-0.00259,-0.00244,-0.02487,-0.04135,0.00015,-0.03967,-0.0177,-0.00397,-0.04486
11.253,0.00473,-0.02914,-0.0116,-0.00427,-0.04425,-0.05127,-0.01175,-0.00244,-0.0029,-0.02533,-0.03235,0.00076,-0.03815,-0.01648,-0.00427,-0.04456
11.2535,0.00519,-0.02579,-0.0148,-0.00473,-0.05219,-0.05432,-0.01175,-0.0032,-0.00397,-0.02548,-0.02228,0.00153,-0.03525,-0.01556,-0.00443,-0.04486
11.254,0.00885,-0.02533,-0.01511,-0.00381,-0.05234,-0.05249,-0.01099,-0.0032,-0.00443,-0.0267,-0.01114,0.00198,-0.03067,-0.01724,-0.00214,-0.04501
11.2545,0.01328,-0.02625,-0.01404,-0.00412,-0.04669,-0.04639,-0.01083,-0.00351,-0.0058,-0.02823,-0.00275,0.00198,-0.02457,-0.01953,-0.00153,-0.04379
11.255,0.01633,-0.02472,-0.01175,-0.00473,-0.04425,-0.03845,-0.01175,-0.0029,-0.00824,-0.02899,0.00015,0.00076,-0.02014,-0.02167,-0.00183,-0.04181
11.2555,0.01572,-0.02274,-0.00977,-0.00656,-0.04227,-0.03296,-0.01343,-0.00336,-0.01114,-0.02945,-0.00076,0.00015,-0.01617,-0.02182,-0.00168,-0.04044
11.256,0.01114,-0.02182,-0.0087,-0.00946,-0.03326,-0.02914,-0.01434,-0.00427,-0.01373,-0.02808,-0.00168,0.0,-0.01541,-0.02014,-0.00122,-0.04013
11.2565,0.00626,-0.02548,-0.00763,-0.01205,-0.01633,-0.02563,-0.01389,-0.00458,-0.01526,-0.02716,-0.00244,0.00061,-0.01602,-0.01816,-0.00122,-0.04196
11.257,0.00259,-0.03174,-0.00702,-0.01236,-0.00092,-0.02365,-0.01251,-0.00504,-0.01602,-0.02762,-0.00198,0.00076,-0.01923,-0.0177,-0.00244,-0.04135
11.2575,0.00214,-0.03525,-0.00641,-0.00931,0.00626,-0.0209,-0.01266,-0.00488,-0.01678,-0.03036,-0.00076,0.00031,-0.02411,-0.0177,-0.00305,-0.03937
11.258,0.00229,-0.03403,-0.00626,-0.00641,0.00519,-0.01678,-0.01373,-0.00519,-0.01694,-0.03418,0.0029,0.00061,-0.02701,-0.01816,-0.00336,-0.03967
11.2585,0.00214,-0.0322,-0.00473,-0.00656,0.00366,-0.01434,-0.01511,-0.00549,-0.0174,-0.03677,0.00854,0.00183,-0.02716,-0.01801,-0.00198,-0.04227
11.259,0.00198,-0.03174,-0.00229,-0.00946,-0.00122,-0.02274,-0.01495,-0.00504,-0.01816,-0.03677,0.01617,0.00198,-0.02609,-0.01724,-0.00122,-0.04623
11.2595,0.00107,-0.03403,0.00107,-0.01282,-0.01236,-0.04959,-0.0148,-0.00458,-0.0177,-0.03296,0.02777,0.00153,-0.02884,-0.01633,0.00107,-0.04837
11.26,-0.00092,-0.03586,0.00839,-0.01282,-0.02563,-0.0946,-0.01434,-0.00336,-0.01495,-0.02792,0.03738,0.00107,-0.03418,-0.01587,0.00198,-0.04837
11.2605,-0.00504,-0.03632,0.01541,-0.01129,-0.02731,-0.1413,-0.01358,-0.0032,-0.01129,-0.02319,0.03922,-0.00031,-0.03876,-0.0174,0.00183,-0.04608
11.261,-0.0087,-0.03616,0.01602,-0.01083,-0.01724,-0.16464,-0.01297,-0.00366,-0.00885,-0.01755,0.03326,-0.00092,-0.03952,-0.02029,0.00168,-0.04379
11.2615,-0.01007,-0.03525,0.00977,-0.0116,-0.01175,-0.14465,-0.01297,-0.00397,-0.00946,-0.01144,0.02441,-0.00107,-0.03647,-0.02136,0.00107,-0.04181
11.262,-0.00854,-0.03326,0.00488,-0.01175,-0.03143,-0.0914,-0.01328,-0.00381,-0.01251,-0.00473,0.0145,-0.00229,-0.03296,-0.02136,0.0,-0.04089
11.2625,-0.00702,-0.03098,0.01373,-0.0119,-0.07034,-0.04013,-0.01419,-0.00259,-0.0148,-0.00397,0.00381,-0.00351,-0.03204,-0.02151,-0.00107,-0.0383
11.263,-0.00824,-0.02975,0.02853,-0.01175,-0.10223,-0.01678,-0.01465,-0.00183,-0.01495,-0.00854,-0.00778,-0.00381,-0.03586,-0.02243,-0.00198,-0.0322
11.2635,-0.01022,-0.03021,0.03326,-0.01068,-0.10803,-0.01663,-0.01511,-0.00198,-0.01389,-0.01465,-0.02014,-0.00259,-0.0415,-0.0238,-0.0029,-0.02594
11.264,-0.01205,-0.03052,0.02045,-0.01038,-0.09232,-0.02136,-0.01678,-0.00229,-0.01221,-0.01953,-0.0354,-0.00153,-0.04349,-0.02396,-0.00443,-0.02533
11.2645,-0.01328,-0.03082,0.00076,-0.01053,-0.06958,-0.02121,-0.0206,-0.00183,-0.01266,-0.02289,-0.05096,-0.00061,-0.04013,-0.02167,-0.00534,-0.03265
11.265,-0.01495,-0.0293,-0.0119,-0.01175,-0.05081,-0.02197,-0.02533,-0.00031,-0.01312,-0.02518,-0.06317,-0.00046,-0.03632,-0.01953,-0.00244,-0.03876
11.2655,-0.01648,-0.02594,-0.02258,-0.01251,-0.04059,-0.02899,-0.02899,0.00076,-0.01633,-0.02686,-0.06851,0.00031,-0.03586,-0.01694,0.00397,-0.04211
11.266,-0.01755,-0.02426,-0.03876,-0.0119,-0.03738,-0.03952,-0.02838,0.00076,-0.0209,-0.02655,-0.06927,0.00122,-0.03815,-0.01465,0.01022,-0.04181
11.2665,-0.01846,-0.02518,-0.0618,-0.0119,-0.03998,-0.04578,-0.02533,-0.00015,-0.02518,-0.02411,-0.06821,0.00122,-0.03876,-0.01221,0.009,-0.04242
11.267,-0.01938,-0.02594,-0.08179,-0.01328,-0.04486,-0.04944,-0.02274,-0.00046,-0.02869,-0.02121,-0.065,0.00107,-0.03571,-0.0119,0.0,-0.04303
11.2675,-0.01999,-0.02319,-0.09476,-0.01389,-0.047,-0.05371,-0.02197,-0.00015,-0.03036,-0.01831,-0.05951,0.00015,-0.03326,-0.01266,-0.00931,-0.04272
11.268,-0.02045,-0.01923,-0.09995,-0.01297,-0.04105,-0.05722,-0.02029,0.0,-0.03052,-0.01846,-0.05432,0.00015,-0.03006,-0.01236,-0.01007,-0.04303
11.2685,-0.02075,-0.01862,-0.10178,-0.01068,-0.02991,-0.06104,-0.01511,-0.00168,-0.02853,-0.01984,-0.05508,0.00076,-0.02213,-0.01129,-0.0029,-0.04349
11.269,-0.02197,-0.02258,-0.10101,-0.00839,-0.01724,-0.06699,-0.01053,-0.00504,-0.02716,-0.02029,-0.05676,0.00122,-0.01175,-0.0119,0.00381,-0.04364
11.2695,-0.02243,-0.02853,-0.09949,-0.00824,-0.00488,-0.07553,-0.01053,-0.00656,-0.02502,-0.01953,-0.05249,-0.00015,-0.00412,-0.01389,0.00168,-0.04257
11.27,-0.02014,-0.0325,-0.09674,-0.00839,0.00595,-0.08209,-0.01266,-0.00626,-0.02213,-0.01801,-0.03952,-0.00076,-0.00549,-0.01556,-0.00397,-0.03937
11.2705,-0.0145,-0.03616,-0.09247,-0.00763,0.01465,-0.08163,-0.01877,-0.00504,-0.01984,-0.01862,-0.02533,-0.00092,-0.01358,-0.01648,-0.00366,-0.03555
11.271,-0.00854,-0.03967,-0.08453,-0.00824,0.0177,-0.07568,-0.03677,-0.00473,-0.01801,-0.0209,-0.01389,-0.00015,-0.02548,-0.01984,0.00824,-0.03342
11.2715,-0.0058,-0.04227,-0.07278,-0.00931,0.0148,-0.07141,-0.05829,-0.00458,-0.01694,-0.02167,-0.00778,0.0,-0.03708,-0.0235,0.02975,-0.03448
11.272,-0.00732,-0.0441,-0.05951,-0.01007,-0.00336,-0.07401,-0.04913,-0.00534,-0.01617,-0.0209,-0.00458,-0.00107,-0.04837,-0.02502,0.04761,-0.03723
11.2725,-0.00946,-0.04517,-0.04761,-0.00916,-0.04288,-0.08041,0.00031,-0.00626,-0.01404,-0.0206,-0.00595,-0.00259,-0.05676,-0.02869,0.04913,-0.04013
11.273,-0.00992,-0.04364,-0.04044,-0.00809,-0.08804,-0.0824,0.05554,-0.00656,-0.01205,-0.02045,-0.00793,-0.0032,-0.06317,-0.03876,0.0351,-0.04181
11.2735,-0.00916,-0.04105,-0.03708,-0.00793,-0.10468,-0.07706,0.07477,-0.00549,-0.01205,-0.02029,-0.00977,-0.00443,-0.07019,-0.05005,0.0174,-0.04227
11.274,-0.01007,-0.03906,-0.03571,-0.00748,-0.07904,-0.06638,0.05234,-0.00473,-0.01282,-0.01877,-0.00977,-0.00534,-0.07324,-0.05157,0.01083,-0.04257
11.2745,-0.01175,-0.03845,-0.03281,-0.00534,-0.03983,-0.05722,0.01236,-0.00412,-0.01373,-0.01755,-0.00961,-0.00519,-0.06577,-0.0383,0.01556,-0.04272
11.275,-0.01572,-0.03891,-0.02884,-0.00381,-0.0206,-0.05127,-0.01663,-0.00397,-0.01312,-0.01556,-0.01038,-0.00229,-0.04532,-0.0206,0.02136,-0.04333
11.2755,-0.01831,-0.03998,-0.02594,-0.00534,-0.02701,-0.04837,-0.02365,-0.00473,-0.01282,-0.01602,-0.01114,0.00015,-0.02304,-0.00916,0.02029,-0.04333
11.276,-0.0209,-0.04059,-0.02396,-0.00732,-0.0383,-0.04669,-0.01602,-0.00549,-0.01312,-0.01846,-0.01083,0.00061,-0.00977,-0.0058,0.01587,-0.04364
11.2765,-0.02136,-0.04211,-0.02533,-0.00809,-0.04379,-0.04593,-0.01068,-0.00534,-0.01404,-0.01785,-0.01038,-0.00015,-0.00793,-0.0061,0.01266,-0.04379
11.277,-0.02121,-0.04318,-0.02502,-0.00809,-0.04684,-0.04486,-0.01129,-0.0058,-0.0145,-0.01572,-0.0087,-0.00244,-0.01282,-0.00809,0.01129,-0.0441
11.2775,-0.02197,-0.04196,-0.02258,-0.00854,-0.05493,-0.04227,-0.01389,-0.00641,-0.01389,-0.01419,-0.00778,-0.0032,-0.02258,-0.0116,0.01038,-0.04333
11.278,-0.02213,-0.04044,-0.02182,-0.00946,-0.06409,-0.03983,-0.0119,-0.00595,-0.01282,-0.01648,-0.00793,-0.00259,-0.03479,-0.01389,0.00793,-0.04272
11.2785,-0.02029,-0.03891,-0.02228,-0.00961,-0.06638,-0.03677,-0.009,-0.00427,-0.01297,-0.02136,-0.00809,-0.00122,-0.04425,-0.01587,0.00519,-0.04333
11.279,-0.01785,-0.03998,-0.0235,-0.00839,-0.05997,-0.03448,-0.00656,-0.00229,-0.01404,-0.02411,-0.009,0.0,-0.04883,-0.0177,0.0032,-0.0441
11.2795,-0.01556,-0.04211,-0.02304,-0.00748,-0.04929,-0.02914,-0.01022,-0.00229,-0.01373,-0.02563,-0.009,-0.00031,-0.0473,-0.01907,0.00153,-0.04501
11.28,-0.01434,-0.04364,-0.02075,-0.00626,-0.03952,-0.02502,-0.01587,-0.00305,-0.01373,-0.02502,-0.00961,0.0,-0.04333,-0.01938,0.00381,-0.0444
11.2805,-0.01297,-0.04562,-0.01984,-0.00443,-0.03494,-0.02197,-0.02029,-0.00336,-0.01389,-0.02518,-0.00961,0.00153,-0.04181,-0.01633,0.00977,-0.0444
11.281,-0.01099,-0.047,-0.02136,-0.0032,-0.03265,-0.02243,-0.02045,-0.00259,-0.01419,-0.02411,-0.00977,0.00122,-0.03845,-0.01236,0.01648,-0.04211
11.2815,-0.00946,-0.04822,-0.02243,-0.0029,-0.02899,-0.0238,-0.01831,-0.00061,-0.0145,-0.02319,-0.01022,-0.00061,-0.03159,-0.00931,0.01648,-0.04135
11.282,-0.00854,-0.04791,-0.02319,-0.00244,-0.02411,-0.02502,-0.0177,0.00015,-0.01495,-0.02075,-0.01144,-0.00168,-0.02655,-0.00854,0.00931,-0.04135
11.2825,-0.00687,-0.04745,-0.02197,-0.00244,-0.01938,-0.0267,-0.01816,-0.00092,-0.01663,-0.02029,-0.01144,0.0,-0.02655,-0.01144,0.00351,-0.04196
11.283,-0.00473,-0.04593,-0.02182,-0.00153,-0.01511,-0.02914,-0.01831,-0.00183,-0.0174,-0.01907,-0.01038,0.00153,-0.02777,-0.01419,0.00366,-0.04211
11.2835,-0.00259,-0.04257,-0.02151,-0.00015,-0.00931,-0.0322,-0.01877,-0.00168,-0.01892,-0.01984,-0.00885,0.00183,-0.02609,-0.01587,0.00641,-0.04166
11.284,-0.00092,-0.04028,-0.02213,0.0,-0.00244,-0.03433,-0.02029,-0.00168,-0.0206,-0.01801,-0.00717,0.00076,-0.02075,-0.01602,0.00702,-0.04242
11.2845,0.00031,-0.04013,-0.02441,-0.00366,0.00275,-0.03464,-0.02274,-0.00107,-0.02121,-0.01694,-0.0061,-0.00015,-0.0174,-0.01587,0.00443,-0.04227
11.285,0.00122,-0.04028,-0.02747,-0.00732,0.00458,-0.0351,-0.02228,-0.00153,-0.02182,-0.01709,-0.00458,0.0,-0.01862,-0.01648,0.00336,-0.04211
11.2855,0.00092,-0.03906,-0.02792,-0.00778,0.00504,-0.03937,-0.01877,-0.00168,-0.02167,-0.01694,-0.00229,-0.00015,-0.02289,-0.01724,0.00168,-0.04272
11.286,0.00046,-0.03738,-0.02747,-0.00626,0.00732,-0.04669,-0.01389,-0.00244,-0.02243,-0.01663,0.00076,0.00015,-0.0267,-0.01724,0.0032,-0.04318
11.2865,0.00061,-0.03601,-0.02823,-0.00504,0.00793,-0.05005,-0.01129,-0.00381,-0.02289,-0.01617,0.0032,0.00153,-0.02975,-0.01831,0.00458,-0.04395
11.287,0.00168,-0.03723,-0.02975,-0.00641,0.00305,-0.05188,-0.01129,-0.00458,-0.0238,-0.01633,0.00458,0.0032,-0.03403,-0.01938,0.00534,-0.04471
11.2875,0.00381,-0.03998,-0.03113,-0.00809,-0.01251,-0.05249,-0.01266,-0.0032,-0.02396,-0.01755,0.00366,0.00275,-0.04013,-0.02045,0.00458,-0.04501
11.288,0.00549,-0.04364,-0.0322,-0.00961,-0.03586,-0.05402,-0.0116,-0.00275,-0.02502,-0.01938,0.00366,0.00153,-0.04532,-0.0209,0.0029,-0.04639
11.2885,0.0032,-0.04761,-0.03448,-0.01129,-0.06348,-0.05524,-0.01083,-0.0029,-0.0267,-0.02014,0.00656,0.00031,-0.04547,-0.02151,0.00183,-0.04608
11.289,-0.00046,-0.05005,-0.03693,-0.01358,-0.09033,-0.0528,-0.01266,-0.00397,-0.02686,-0.02075,0.00931,0.00107,-0.04257,-0.02136,0.00336,-0.04517
11.2895,-0.00122,-0.05096,-0.03906,-0.01312,-0.10437,-0.04807,-0.01572,-0.00458,-0.02411,-0.01953,0.00626,0.00305,-0.03906,-0.01968,0.00534,-0.04333
11.29,0.0,-0.04883,-0.03952,-0.01144,-0.09918,-0.04486,-0.01785,-0.00427,-0.02029,-0.01984,-0.00473,0.00473,-0.03677,-0.01877,0.00748,-0.04211
11.2905,0.00015,-0.04578,-0.03723,-0.01068,-0.08224,-0.04456,-0.0174,-0.00443,-0.01801,-0.01968,-0.02045,0.00381,-0.03494,-0.01724,0.00717,-0.04135
11.291,-0.00351,-0.04303,-0.03448,-0.01099,-0.06271,-0.04456,-0.01617,-0.00427,-0.01755,-0.02045,-0.03677,0.00122,-0.03174,-0.01541,0.0058,-0.04059
11.2915,-0.00717,-0.04181,-0.03189,-0.01282,-0.04486,-0.04349,-0.01526,-0.00504,-0.01648,-0.02213,-0.05096,-0.00046,-0.02838,-0.01312,0.00473,-0.04044
11.292,-0.00778,-0.04074,-0.02899,-0.01236,-0.02594,-0.04135,-0.01617,-0.00504,-0.0148,-0.02289,-0.06073,-0.00153,-0.02823,-0.01251,0.00458,-0.0415
11.2925,-0.00748,-0.0383,-0.02716,-0.01053,-0.00488,-0.03983,-0.01617,-0.00458,-0.0148,-0.02258,-0.06531,-0.00183,-0.02945,-0.01312,0.00519,-0.04257
11.293,-0.00885,-0.03799,-0.02548,-0.00763,0.01633,-0.04028,-0.01633,-0.00366,-0.01495,-0.02213,-0.06195,-0.00122,-0.03067,-0.01495,0.00534,-0.04211
11.2935,-0.01144,-0.0415,-0.02396,-0.00519,0.0354,-0.04089,-0.01526,-0.00458,-0.01343,-0.02136,-0.05737,-0.00015,-0.03006,-0.01541,0.0058,-0.04059
11.294,-0.01144,-0.04547,-0.02213,-0.00458,0.05157,-0.04105,-0.0145,-0.00336,-0.0119,-0.01907,-0.05478,0.00015,-0.0293,-0.01556,0.00626,-0.03998
11.2945,-0.00977,-0.0499,-0.02106,-0.00534,0.0589,-0.0415,-0.01419,-0.00214,-0.01038,-0.01724,-0.05478,0.00015,-0.02991,-0.01572,0.00717,-0.03922
11.295,-0.00748,-0.056,-0.0206,-0.0061,0.0502,-0.04333,-0.01434,-0.00137,-0.01099,-0.01602,-0.0499,0.00061,-0.03052,-0.0174,0.00854,-0.03922
11.2955,-0.00671,-0.06409,-0.02029,-0.00641,0.02518,-0.04807,-0.01526,-0.00305,-0.01297,-0.01709,-0.03754,0.00061,-0.03082,-0.02029,0.00854,-0.03937
11.296,-0.00595,-0.06866,-0.01724,-0.00763,-0.00916,-0.05447,-0.01526,-0.00397,-0.01572,-0.01938,-0.02625,0.00031,-0.02991,-0.02457,0.00671,-0.03937
11.2965,-0.00443,-0.06531,-0.00717,-0.00839,-0.04593,-0.05951,-0.01465,-0.00397,-0.01846,-0.0206,-0.02151,0.0,-0.02777,-0.02777,0.00565,-0.03952
11.297,-0.00214,-0.05707,0.00168,-0.00992,-0.07416,-0.06073,-0.01465,-0.00244,-0.01999,-0.01923,-0.0206,-0.00015,-0.02533,-0.02991,0.00702,-0.04044
11.2975,-0.00076,-0.04761,0.0,-0.01053,-0.08469,-0.05905,-0.01404,-0.0029,-0.0209,-0.01831,-0.01877,0.0,-0.0235,-0.03143,0.009,-0.04074
11.298,-0.00092,-0.04089,-0.01907,-0.01129,-0.07782,-0.05646,-0.01434,-0.00305,-0.0206,-0.01648,-0.01633,0.00092,-0.0238,-0.0325,0.00992,-0.04196
11.2985,-0.00092,-0.03708,-0.04547,-0.01236,-0.06638,-0.05493,-0.01404,-0.00275,-0.0206,-0.0148,-0.01358,0.00137,-0.02609,-0.03281,0.00839,-0.04227
11.299,0.00076,-0.03479,-0.06714,-0.01251,-0.05783,-0.05478,-0.01404,-0.00244,-0.01999,-0.01465,-0.01205,0.00107,-0.02823,-0.0322,0.00702,-0.04318
11.2995,0.00259,-0.03235,-0.07599,-0.01038,-0.05585,-0.05112,-0.01389,-0.00244,-0.01938,-0.01587,-0.00961,0.00092,-0.02884,-0.02914,0.00671,-0.04349
11.3,0.00412,-0.0296,-0.07492,-0.00748,-0.05524,-0.04593,-0.01297,-0.00214,-0.01862,-0.01617,-0.00565,0.00076,-0.02838,-0.02289,0.00671,-0.04303
11.3005,0.00336,-0.02869,-0.07019,-0.00793,-0.05356,-0.04349,-0.01266,-0.00244,-0.01892,-0.01678,-0.00153,0.00153,-0.02792,-0.01755,0.00793,-0.04349
11.301,0.00381,-0.03052,-0.0679,-0.01038,-0.04929,-0.04456,-0.01297,-0.00229,-0.01831,-0.01663,0.00107,0.00229,-0.02762,-0.01526,0.00793,-0.04227
11.3015,0.00397,-0.03433,-0.06531,-0.01038,-0.04395,-0.04501,-0.01434,-0.00214,-0.01709,-0.01663,0.00198,0.00229,-0.02731,-0.01541,0.00763,-0.0415
11.302,0.00412,-0.03708,-0.06287,-0.00702,-0.03998,-0.04532,-0.01572,-0.0029,-0.01556,-0.01556,-0.00015,0.00198,-0.02777,-0.01602,0.00809,-0.04089
11.3025,0.00366,-0.03906,-0.06088,-0.00458,-0.04166,-0.04379,-0.01556,-0.0032,-0.01556,-0.01556,-0.0032,0.00076,-0.02792,-0.01495,0.00824,-0.04074
11.303,0.00351,-0.04257,-0.05981,-0.00427,-0.04761,-0.04272,-0.01465,-0.0032,-0.01648,-0.01297,-0.00504,0.00031,-0.02716,-0.01511,0.009,-0.04059
11.3035,0.00351,-0.047,-0.0592,-0.00458,-0.05142,-0.04181,-0.01404,-0.00214,-0.01755,-0.01221,-0.00565,0.00061,-0.02472,-0.01511,0.00809,-0.03983
11.304,0.00412,-0.04974,-0.0563,-0.00427,-0.04883,-0.04211,-0.01434,-0.00168,-0.01785,-0.01328,-0.00748,0.00031,-0.02121,-0.0148,0.00732,-0.04059
11.3045,0.00565,-0.04959,-0.05447,-0.00305,-0.03799,-0.04272,-0.01526,-0.00168,-0.0174,-0.01465,-0.00824,0.00031,-0.01999,-0.01526,0.00687,-0.04166
11.305,0.00824,-0.04868,-0.0531,-0.00381,-0.02808,-0.04379,-0.01602,-0.00168,-0.01724,-0.01572,-0.00702,-0.00015,-0.0206,-0.01678,0.00809,-0.04242
11.3055,0.01038,-0.04761,-0.05066,-0.0061,-0.01999,-0.04471,-0.01526,-0.00259,-0.01572,-0.01556,-0.00351,0.00015,-0.02243,-0.01862,0.00931,-0.04211
11.306,0.01175,-0.04654,-0.04654,-0.00854,-0.01755,-0.04669,-0.01404,-0.00351,-0.01343,-0.01526,0.00153,0.0,-0.0238,-0.01923,0.00839,-0.04074
11.3065,0.01282,-0.04395,-0.04166,-0.01038,-0.01968,-0.05112,-0.01328,-0.0032,-0.01083,-0.01617,0.00549,0.00046,-0.02274,-0.01831,0.00717,-0.04044
