time,RectFemL,VastusMedL,VastusLatL,TibAntL,HamMedL,HamLatL,GastroMedL,GastroLatL,RectFemR,VastusMedR,VastusLatR,TibAntR,HamMedR,HamLatR,GastroMedR,GastroLatR
3.57,-0.00687,-0.0415,-0.03235,-0.00793,-0.04501,-0.04517,-0.0148,-0.00458,-0.01923,-0.01343,-0.00076,-0.00031,-0.02808,-0.01892,0.00427,-0.03967
3.5705,-0.0058,-0.03891,-0.03128,-0.00824,-0.04257,-0.04242,-0.01434,-0.00366,-0.02075,-0.01114,-0.00214,-0.00107,-0.02869,-0.01938,0.00122,-0.03906
3.571,-0.00473,-0.03815,-0.02853,-0.01053,-0.03799,-0.04028,-0.01328,-0.00412,-0.02121,-0.01022,-0.00336,-0.00107,-0.03143,-0.01984,-0.00031,-0.04044
3.5715,-0.00412,-0.03922,-0.02747,-0.01251,-0.02945,-0.03983,-0.01266,-0.00336,-0.0206,-0.01175,-0.00443,-0.00107,-0.03296,-0.01953,-0.00015,-0.04196
3.572,-0.0058,-0.03922,-0.02609,-0.01343,-0.02014,-0.04105,-0.01282,-0.0029,-0.0206,-0.01328,-0.00443,-0.00183,-0.03296,-0.01816,0.00259,-0.04288
3.5725,-0.00702,-0.03876,-0.02426,-0.01572,-0.02121,-0.04349,-0.01373,-0.0032,-0.02106,-0.01328,-0.00351,-0.00229,-0.03235,-0.01801,0.00549,-0.04288
3.573,-0.0087,-0.03922,-0.02396,-0.01785,-0.03677,-0.04532,-0.01404,-0.00351,-0.02151,-0.01053,-0.00214,-0.00168,-0.03311,-0.01846,0.00687,-0.04333
3.5735,-0.009,-0.04181,-0.02533,-0.01968,-0.05737,-0.04883,-0.01373,-0.00305,-0.02182,-0.00946,-0.00305,-0.00122,-0.0354,-0.01877,0.00641,-0.04501
3.574,-0.00763,-0.04517,-0.02747,-0.01816,-0.06607,-0.0499,-0.01266,-0.00122,-0.02258,-0.00977,-0.00656,-0.00122,-0.03708,-0.02014,0.00656,-0.04501
3.5745,-0.00595,-0.047,-0.02838,-0.01404,-0.05768,-0.04913,-0.01343,0.00214,-0.02289,-0.01114,-0.01022,-0.00092,-0.03723,-0.02121,0.00687,-0.04532
3.575,-0.00595,-0.0473,-0.0293,-0.01068,-0.04578,-0.04745,-0.01526,0.00595,-0.02213,-0.01266,-0.01404,-0.00137,-0.0354,-0.02167,0.00748,-0.04639
3.5755,-0.00656,-0.04623,-0.02914,-0.01022,-0.03952,-0.04715,-0.01755,0.00824,-0.01984,-0.0145,-0.01755,-0.00183,-0.0325,-0.02075,0.00671,-0.04501
3.576,-0.00656,-0.04486,-0.02777,-0.01053,-0.03677,-0.04868,-0.01968,0.00946,-0.01678,-0.01617,-0.02167,-0.00229,-0.0293,-0.0206,0.0061,-0.04471
3.5765,-0.00595,-0.04272,-0.02518,-0.009,-0.03586,-0.04868,-0.01984,0.00809,-0.01556,-0.0174,-0.0235,-0.00244,-0.02731,-0.02045,0.00717,-0.04333
3.577,-0.00504,-0.03998,-0.02228,-0.00641,-0.03342,-0.04852,-0.01968,0.00427,-0.01617,-0.01755,-0.02457,-0.00198,-0.02487,-0.02106,0.009,-0.04303
3.5775,-0.00565,-0.03952,-0.01907,-0.00504,-0.0322,-0.04868,-0.01831,-0.00046,-0.01801,-0.01907,-0.02548,-0.00122,-0.02365,-0.02182,0.00961,-0.04242
3.578,-0.00732,-0.04364,-0.01755,-0.00671,-0.0322,-0.0499,-0.01755,-0.00504,-0.01709,-0.02014,-0.0264,0.0,-0.0235,-0.02243,0.00885,-0.0415
3.5785,-0.00763,-0.04852,-0.01709,-0.00885,-0.0325,-0.04944,-0.0174,-0.00946,-0.01526,-0.01999,-0.02441,0.00107,-0.02365,-0.02243,0.00824,-0.04074
3.579,-0.00626,-0.04623,-0.02014,-0.00946,-0.02914,-0.04868,-0.01831,-0.01251,-0.01389,-0.01678,-0.02243,0.00137,-0.02594,-0.02228,0.00763,-0.04089
3.5795,-0.00214,-0.02853,-0.02136,-0.00641,-0.02396,-0.04791,-0.0177,-0.01221,-0.01251,-0.01312,-0.01709,0.00076,-0.02945,-0.02243,0.00824,-0.04089
3.58,0.00214,0.00687,-0.02533,-0.00412,-0.01663,-0.04791,-0.01602,-0.01099,-0.0119,-0.01129,-0.01144,0.00061,-0.0325,-0.02106,0.00931,-0.04135
3.5805,0.00351,0.04257,-0.0293,-0.00504,-0.01007,-0.04868,-0.01434,-0.01282,-0.01221,-0.01114,-0.00778,0.00198,-0.03418,-0.01877,0.00824,-0.0415
3.581,0.00214,0.05249,-0.03311,-0.00595,-0.00534,-0.04898,-0.01373,-0.01648,-0.01251,-0.01297,-0.00565,0.00259,-0.03494,-0.01633,0.00443,-0.04196
3.5815,-0.00076,0.02731,-0.03555,-0.00412,-0.00473,-0.04852,-0.01373,-0.02075,-0.01251,-0.01434,-0.00427,0.00198,-0.03784,-0.01633,-0.00122,-0.0415
3.582,-0.00244,-0.0177,-0.03708,-0.00061,-0.00992,-0.04654,-0.01495,-0.02319,-0.0119,-0.0145,-0.00305,0.00107,-0.03967,-0.01678,-0.00488,-0.04181
3.5825,-0.00351,-0.05966,-0.03784,0.00031,-0.01984,-0.04471,-0.01465,-0.02304,-0.01175,-0.01465,-0.00336,0.00107,-0.03723,-0.01862,-0.00793,-0.04135
3.583,-0.00397,-0.08682,-0.0386,-0.00214,-0.03265,-0.0441,-0.01373,-0.02045,-0.01266,-0.01526,-0.0058,0.00076,-0.03036,-0.01892,-0.00931,-0.0415
3.5835,-0.00565,-0.10132,-0.03891,-0.00702,-0.04364,-0.04608,-0.01328,-0.01709,-0.01419,-0.01526,-0.00809,0.00107,-0.02472,-0.01877,-0.00824,-0.0412
3.584,-0.00885,-0.10696,-0.03723,-0.01099,-0.05066,-0.05005,-0.01358,-0.01251,-0.01526,-0.01633,-0.00931,0.00153,-0.02502,-0.01816,-0.00458,-0.0415
3.5845,-0.01129,-0.10452,-0.03693,-0.01083,-0.05035,-0.05371,-0.01404,-0.00732,-0.01511,-0.01648,-0.00702,0.00153,-0.03052,-0.01709,-0.00153,-0.04272
3.585,-0.0116,-0.09521,-0.03738,-0.00854,-0.04593,-0.05661,-0.01389,0.00107,-0.01434,-0.01663,0.00626,0.00092,-0.03616,-0.01678,0.00183,-0.04364
3.5855,-0.01129,-0.08392,-0.03662,-0.00732,-0.03906,-0.05783,-0.01343,0.01053,-0.01495,-0.01572,0.03754,0.00107,-0.0412,-0.01663,0.00443,-0.04242
3.586,-0.00961,-0.07446,-0.03586,-0.01053,-0.03647,-0.056,-0.01312,0.01724,-0.01663,-0.01556,0.08209,0.00137,-0.04654,-0.01862,0.00931,-0.04044
3.5865,-0.00809,-0.06821,-0.03632,-0.0148,-0.03662,-0.05142,-0.01389,0.01587,-0.01785,-0.01556,0.11139,0.00259,-0.05188,-0.02121,0.01892,-0.03952
3.587,-0.00793,-0.06363,-0.03815,-0.01801,-0.03815,-0.04684,-0.01511,0.00778,-0.0177,-0.01587,0.09781,0.00259,-0.05707,-0.02335,0.03174,-0.04013
3.5875,-0.00946,-0.05722,-0.03906,-0.01816,-0.0383,-0.04379,-0.01526,0.00092,-0.01709,-0.01602,0.04593,0.00168,-0.06149,-0.02457,0.03769,-0.04089
3.588,-0.0119,-0.04974,-0.03937,-0.01862,-0.03754,-0.04486,-0.01419,-0.00076,-0.01648,-0.01617,-0.01221,0.00076,-0.06287,-0.02518,0.0293,-0.04166
3.5885,-0.01511,-0.04059,-0.03937,-0.01953,-0.03494,-0.04776,-0.01358,-0.00015,-0.01526,-0.01633,-0.05219,0.00061,-0.0592,-0.02518,0.00916,-0.04166
3.589,-0.01724,-0.0322,-0.03998,-0.01984,-0.03174,-0.0499,-0.01251,-0.00046,-0.01221,-0.01633,-0.07172,0.00046,-0.05127,-0.02411,-0.00885,-0.04166
3.5895,-0.01694,-0.02609,-0.0412,-0.01892,-0.02655,-0.05051,-0.0116,-0.00366,-0.00793,-0.01602,-0.07568,0.00137,-0.0415,-0.02136,-0.01602,-0.04089
3.59,-0.01572,-0.02502,-0.04288,-0.0177,-0.02243,-0.04974,-0.01053,-0.00809,-0.00427,-0.01465,-0.07339,0.00259,-0.03464,-0.01755,-0.00992,-0.04013
3.5905,-0.01465,-0.0267,-0.04456,-0.01984,-0.01907,-0.04913,-0.01129,-0.01099,-0.00381,-0.0116,-0.0676,0.0029,-0.03174,-0.0148,0.00748,-0.03906
3.591,-0.01389,-0.0296,-0.04623,-0.02106,-0.01907,-0.04852,-0.01297,-0.00977,-0.00366,-0.00931,-0.06271,0.00198,-0.03113,-0.01312,0.03052,-0.03952
3.5915,-0.01221,-0.03143,-0.04578,-0.02167,-0.02167,-0.04761,-0.01389,-0.0058,-0.0029,-0.01007,-0.05844,0.00168,-0.02975,-0.01205,0.04486,-0.04044
3.592,-0.01038,-0.03143,-0.04471,-0.02075,-0.02213,-0.04669,-0.01434,-0.00397,-0.00275,-0.01495,-0.0563,0.00092,-0.02716,-0.01007,0.04211,-0.04181
3.5925,-0.01083,-0.03021,-0.04318,-0.01923,-0.01816,-0.04654,-0.01495,-0.00626,-0.00381,-0.01862,-0.05661,0.00107,-0.02579,-0.00916,0.03036,-0.04181
3.593,-0.01175,-0.02609,-0.03967,-0.01602,-0.00977,-0.04745,-0.01602,-0.01114,-0.0058,-0.02106,-0.05814,0.00168,-0.0267,-0.01068,0.0235,-0.04211
3.5935,-0.01022,-0.01968,-0.03754,-0.01434,-0.00076,-0.05081,-0.01526,-0.01434,-0.00839,-0.02213,-0.05692,0.00122,-0.02838,-0.01236,0.02335,-0.04135
3.594,-0.00717,-0.01389,-0.03616,-0.01389,0.00519,-0.05417,-0.01434,-0.0116,-0.0119,-0.02472,-0.05295,0.00092,-0.0296,-0.01038,0.02151,-0.0415
3.5945,-0.00336,-0.01419,-0.0351,-0.01236,0.00702,-0.05615,-0.01297,-0.00473,-0.01572,-0.02747,-0.047,0.00107,-0.03006,-0.00916,0.0174,-0.0415
3.595,-0.00198,-0.01953,-0.03357,-0.01068,0.00381,-0.05615,-0.01266,0.0029,-0.01892,-0.0296,-0.03723,0.00061,-0.03006,-0.01053,0.01541,-0.04166
3.5955,-0.00168,-0.02808,-0.03082,-0.01022,-0.00305,-0.05524,-0.01404,0.0087,-0.01923,-0.02991,-0.01617,0.00015,-0.03113,-0.01526,0.01495,-0.04166
3.596,-0.00092,-0.03494,-0.02899,-0.01068,-0.01038,-0.05371,-0.01602,0.0119,-0.01892,-0.02808,0.01511,0.00061,-0.03128,-0.01968,0.01282,-0.04135
3.5965,-0.00046,-0.04044,-0.02686,-0.01083,-0.01938,-0.05203,-0.01617,0.0116,-0.01984,-0.02579,0.04456,0.0,-0.03006,-0.0235,0.00671,-0.04166
3.597,-0.00015,-0.04425,-0.02579,-0.00977,-0.03265,-0.04898,-0.01419,0.00854,-0.02274,-0.02319,0.05585,-0.00168,-0.02838,-0.0267,0.0,-0.04181
3.5975,-0.00015,-0.04715,-0.02625,-0.0087,-0.04913,-0.04517,-0.01251,0.00565,-0.02548,-0.0209,0.04852,-0.0032,-0.02625,-0.02731,-0.01022,-0.04181
3.598,0.00015,-0.04807,-0.02853,-0.00916,-0.06042,-0.04333,-0.01205,0.00565,-0.02701,-0.01907,0.03403,-0.0029,-0.02502,-0.02411,-0.02136,-0.04105
3.5985,0.00015,-0.04684,-0.03052,-0.01099,-0.06241,-0.04333,-0.01419,0.00626,-0.02792,-0.01785,0.02243,-0.00214,-0.02686,-0.02228,-0.02991,-0.03983
3.599,-0.00031,-0.04593,-0.03143,-0.01114,-0.05966,-0.0444,-0.01663,0.00671,-0.02945,-0.01846,0.01526,-0.00168,-0.02792,-0.02945,-0.03326,-0.03891
3.5995,-0.00061,-0.0444,-0.03174,-0.00916,-0.05844,-0.04364,-0.01694,0.00565,-0.03311,-0.02258,0.01465,-0.00214,-0.02487,-0.0441,-0.03525,-0.03952
3.6,-0.00015,-0.04318,-0.02975,-0.00549,-0.05981,-0.04288,-0.01404,0.00504,-0.03403,-0.02762,0.02884,-0.00244,-0.0148,-0.05432,-0.03525,-0.04135
3.6005,0.00137,-0.04135,-0.03067,-0.00336,-0.05402,-0.04395,-0.00931,0.00183,-0.03296,-0.03372,0.05447,-0.00153,-0.00137,-0.04669,-0.02853,-0.04135
3.601,0.0032,-0.03967,-0.03769,-0.00153,-0.03479,-0.04684,-0.00824,-0.00534,-0.03006,-0.03815,0.06531,0.0,0.00519,-0.02579,-0.01144,-0.0386
3.6015,0.00519,-0.03754,-0.06638,-0.00092,-0.00824,-0.05295,-0.01022,-0.01343,-0.02731,-0.03754,0.0354,0.00168,0.00015,-0.01083,-0.00015,-0.0354
3.602,0.0061,-0.0351,-0.12177,-0.00031,0.01312,-0.05783,-0.01694,-0.01831,-0.0238,-0.03555,-0.02487,0.00275,-0.01099,-0.0116,-0.00427,-0.03464
3.6025,0.00641,-0.03326,-0.17136,0.00031,0.02045,-0.06073,-0.0235,-0.01709,-0.01968,-0.03128,-0.08102,0.00198,-0.02014,-0.01678,-0.00275,-0.03708
3.603,0.00565,-0.03281,-0.1683,-0.00031,0.01663,-0.0618,-0.02853,-0.01617,-0.01556,-0.02731,-0.11032,0.00076,-0.02579,-0.0174,0.03113,-0.03998
3.6035,0.00473,-0.03403,-0.10345,-0.00137,0.00763,-0.06088,-0.03326,-0.02274,-0.01236,-0.02258,-0.11612,-0.00076,-0.03235,-0.01282,0.08408,-0.04227
3.604,0.00412,-0.03586,-0.02197,-0.00229,-0.00626,-0.05859,-0.03784,-0.03403,-0.00946,-0.01862,-0.10986,-0.00076,-0.04181,-0.00946,0.11093,-0.04272
3.6045,0.00519,-0.03662,0.02777,-0.00366,-0.03387,-0.05661,-0.04181,-0.03998,-0.00778,-0.01511,-0.09827,-0.00107,-0.05096,-0.00931,0.09613,-0.04105
3.605,0.0058,-0.03891,0.04059,-0.00397,-0.07858,-0.05447,-0.03922,-0.0235,-0.00748,-0.01373,-0.08514,-0.00092,-0.05554,-0.01068,0.065,-0.03891
3.6055,0.00458,-0.04242,0.0412,-0.00504,-0.12329,-0.05325,-0.02823,0.01572,-0.00778,-0.01221,-0.07431,0.00015,-0.05432,-0.01358,0.04074,-0.03891
3.606,0.00244,-0.04776,0.04303,-0.0061,-0.1416,-0.0499,-0.00885,0.0528,-0.00763,-0.01068,-0.06561,0.00076,-0.04913,-0.01526,0.02502,-0.04059
3.6065,-0.00061,-0.05157,0.04257,-0.00626,-0.12161,-0.04532,0.01617,0.05798,-0.00732,-0.00793,-0.05798,-0.00015,-0.04211,-0.01602,0.01205,-0.04562
3.607,-0.0032,-0.05264,0.03494,-0.00626,-0.07965,-0.03983,0.03494,0.02686,-0.00656,-0.00412,-0.05142,-0.00229,-0.03891,-0.01587,0.00229,-0.04883
3.6075,-0.00488,-0.05112,0.02563,-0.00656,-0.04013,-0.03494,0.03494,-0.01328,-0.00687,-0.00259,-0.04349,-0.00366,-0.04059,-0.01587,0.00168,-0.0499
3.608,-0.00687,-0.04761,0.01724,-0.00763,-0.01816,-0.0322,0.01236,-0.03403,-0.00732,-0.00534,-0.03632,-0.00351,-0.0415,-0.01602,0.00748,-0.04761
3.6085,-0.009,-0.04471,0.00961,-0.00854,-0.01099,-0.0322,-0.01877,-0.02762,-0.00793,-0.01175,-0.03143,-0.0032,-0.03754,-0.01465,0.01205,-0.04456
3.609,-0.01007,-0.04425,0.00107,-0.00916,-0.01114,-0.03281,-0.04059,-0.01068,-0.00671,-0.01907,-0.02731,-0.00229,-0.02777,-0.01282,0.00809,-0.04318
3.6095,-0.00854,-0.0441,-0.00473,-0.009,-0.01389,-0.0322,-0.04684,-0.00122,-0.00412,-0.02396,-0.01846,-0.00259,-0.01694,-0.01038,-0.00275,-0.04395
3.61,-0.0061,-0.04135,-0.00778,-0.00916,-0.02396,-0.0322,-0.04211,-0.00214,-0.00229,-0.02655,-0.00443,-0.00244,-0.01221,-0.01083,-0.01144,-0.04578
3.6105,-0.00549,-0.03647,-0.01083,-0.01007,-0.04089,-0.03418,-0.03815,-0.00427,-0.00427,-0.02838,0.0087,-0.00336,-0.01434,-0.01694,-0.01129,-0.04761
3.611,-0.00504,-0.03311,-0.01617,-0.01144,-0.06516,-0.03891,-0.04044,0.00046,-0.00809,-0.02884,0.01419,-0.00244,-0.02136,-0.02808,0.00443,-0.04974
3.6115,-0.00473,-0.03265,-0.02243,-0.01068,-0.08438,-0.04227,-0.04562,0.01068,-0.01175,-0.02823,0.01373,0.00061,-0.03036,-0.03754,0.02274,-0.05035
3.612,-0.00275,-0.03479,-0.02914,-0.00992,-0.08484,-0.04501,-0.0444,0.01572,-0.01389,-0.02579,0.01175,0.00366,-0.0386,-0.03906,0.02243,-0.04639
3.6125,-0.00046,-0.03891,-0.03647,-0.00961,-0.06058,-0.04562,-0.03067,0.01328,-0.01236,-0.02335,0.0116,0.00458,-0.04532,-0.0322,-0.00214,-0.03799
3.613,0.00061,-0.04242,-0.04562,-0.00946,-0.03021,-0.04562,-0.00778,0.00839,-0.01221,-0.0206,0.0119,0.00214,-0.05142,-0.02472,-0.02853,-0.03159
3.6135,0.00046,-0.0444,-0.05188,-0.009,-0.01328,-0.04623,0.02075,0.00595,-0.01587,-0.01953,0.00946,-0.00229,-0.05737,-0.02258,-0.03342,-0.03342
3.614,0.00076,-0.04623,-0.0528,-0.00885,-0.01099,-0.04837,0.05707,0.0061,-0.02167,-0.01892,0.00443,-0.0058,-0.06134,-0.0238,-0.01709,-0.04242
3.6145,0.00183,-0.04822,-0.04959,-0.01038,-0.01328,-0.0499,0.08881,0.00595,-0.02579,-0.02029,-0.00061,-0.00595,-0.06012,-0.02167,0.00763,-0.05096
3.615,0.00229,-0.04898,-0.0473,-0.01251,-0.0177,-0.05096,0.0853,0.00412,-0.02655,-0.02258,-0.00504,-0.00488,-0.0528,-0.01785,0.02777,-0.05341
3.6155,0.00153,-0.04852,-0.04578,-0.01358,-0.02686,-0.05264,0.03632,-0.00015,-0.02609,-0.02548,-0.0061,-0.00519,-0.0412,-0.01266,0.03326,-0.05173
3.616,-0.00061,-0.04791,-0.04623,-0.01236,-0.0351,-0.05569,-0.0177,-0.00381,-0.02502,-0.02701,-0.00458,-0.00595,-0.03296,-0.00793,0.02075,-0.05035
3.6165,-0.0032,-0.04974,-0.047,-0.01068,-0.03357,-0.05905,-0.03586,-0.00504,-0.02411,-0.02579,-0.00275,-0.00534,-0.0293,-0.0029,0.00397,-0.04913
3.617,-0.00397,-0.04898,-0.04623,-0.01083,-0.02594,-0.06119,-0.02182,-0.00458,-0.02258,-0.02472,-0.0029,-0.00381,-0.0296,0.00031,0.00778,-0.04929
3.6175,-0.00214,-0.04303,-0.04486,-0.01068,-0.02258,-0.06241,-0.009,-0.00381,-0.02106,-0.02304,-0.00412,-0.00366,-0.03128,-0.00076,0.03632,-0.05127
3.618,-0.00031,-0.03174,-0.04242,-0.01022,-0.02655,-0.06134,-0.01022,-0.00351,-0.01892,-0.02029,-0.00458,-0.00366,-0.03265,-0.00412,0.05508,-0.05478
3.6185,0.0,-0.0177,-0.03998,-0.009,-0.03265,-0.06058,-0.01434,-0.00412,-0.01816,-0.01602,-0.00336,-0.00336,-0.0325,-0.00595,0.03952,-0.0563
3.619,-0.00107,-0.00458,-0.03784,-0.00793,-0.03647,-0.0592,-0.01495,-0.0058,-0.01816,-0.01404,-0.00351,0.00061,-0.03281,-0.00504,0.00275,-0.05753
3.6195,-0.00275,0.00626,-0.03708,-0.00839,-0.03647,-0.05753,-0.0148,-0.00763,-0.01724,-0.01389,-0.00366,0.0058,-0.03387,-0.00305,-0.02304,-0.05951
3.62,-0.00336,0.00961,-0.03967,-0.00992,-0.03586,-0.05371,-0.01617,-0.009,-0.01587,-0.01556,-0.00397,0.00793,-0.03479,-0.00015,-0.02182,-0.06134
3.6205,-0.00412,0.00015,-0.04471,-0.00946,-0.03525,-0.04898,-0.01709,-0.01129,-0.01495,-0.01572,-0.00275,0.00626,-0.03479,0.00168,-0.01114,-0.05081
3.621,-0.00427,-0.01862,-0.04822,-0.00824,-0.03387,-0.04501,-0.01648,-0.01419,-0.01389,-0.01312,-0.00259,0.00214,-0.03555,-0.00443,-0.00641,-0.0206
3.6215,-0.00427,-0.03738,-0.04639,-0.00671,-0.0325,-0.0412,-0.0148,-0.0145,-0.01312,-0.01129,-0.00381,-0.00015,-0.03708,-0.02411,-0.00565,0.01175
3.622,-0.00458,-0.05066,-0.04028,-0.0061,-0.02838,-0.03494,-0.01556,-0.01205,-0.01251,-0.01251,-0.00687,0.0,-0.04044,-0.0531,0.00061,0.02121
3.6225,-0.00443,-0.0589,-0.03403,-0.00717,-0.02518,-0.0267,-0.01648,-0.009,-0.01358,-0.01419,-0.00977,-0.00061,-0.04257,-0.07309,0.0061,0.00488
3.623,-0.00336,-0.06439,-0.03006,-0.0087,-0.02762,-0.01846,-0.01907,-0.00763,-0.01526,-0.01541,-0.01129,-0.00183,-0.04333,-0.06989,-0.0032,-0.01602
3.6235,-0.00244,-0.06638,-0.02853,-0.00854,-0.03174,-0.01434,-0.02213,-0.00763,-0.01648,-0.01465,-0.01099,-0.00275,-0.04059,-0.04944,-0.02716,-0.02548
3.624,-0.00092,-0.06638,-0.02838,-0.00778,-0.03387,-0.01083,-0.02396,-0.00793,-0.01602,-0.01434,-0.00961,-0.00244,-0.03464,-0.02792,-0.04623,-0.0267
3.6245,0.00153,-0.06485,-0.02869,-0.00641,-0.03342,-0.0058,-0.02502,-0.00702,-0.01526,-0.01358,-0.00824,-0.00198,-0.0267,-0.01572,-0.04456,-0.02884
3.625,0.00534,-0.06256,-0.0296,-0.00748,-0.03403,-0.00229,-0.02426,-0.00473,-0.01404,-0.01373,-0.00717,-0.00183,-0.02213,-0.01083,-0.02304,-0.0351
3.6255,0.00793,-0.06042,-0.03189,-0.00946,-0.03174,-0.00275,-0.02319,-0.00351,-0.01114,-0.01343,-0.00641,-0.00214,-0.02228,-0.01266,0.00977,-0.04196
3.626,0.00732,-0.05905,-0.03693,-0.01114,-0.02213,-0.00534,-0.02319,-0.00412,-0.00809,-0.01282,-0.00427,-0.00183,-0.02441,-0.01923,0.04272,-0.04654
3.6265,0.00626,-0.05829,-0.04395,-0.0119,-0.009,-0.01083,-0.02838,-0.00534,-0.00488,-0.01297,-0.00336,0.0,-0.02502,-0.02502,0.05981,-0.04929
3.627,0.00763,-0.056,-0.04776,-0.0119,-0.00137,-0.0267,-0.03494,-0.00626,-0.0029,-0.01389,-0.00336,0.00031,-0.02487,-0.02701,0.04913,-0.05295
3.6275,0.00809,-0.05203,-0.04913,-0.01175,-0.00427,-0.05325,-0.0415,-0.00824,-0.00305,-0.0148,-0.00458,-0.00031,-0.02487,-0.02533,0.01999,-0.05493
3.628,0.00626,-0.04959,-0.04486,-0.01068,-0.01648,-0.08606,-0.0444,-0.01221,-0.00549,-0.01724,-0.00595,-0.00153,-0.02777,-0.02335,-0.00092,-0.05432
3.6285,0.00244,-0.04898,-0.04013,-0.00992,-0.02808,-0.11002,-0.04364,-0.01862,-0.00977,-0.01678,-0.00717,-0.00183,-0.03159,-0.02167,-0.00534,-0.05142
3.629,-0.00092,-0.04807,-0.03601,-0.0119,-0.02991,-0.11536,-0.03922,-0.02258,-0.01389,-0.01648,-0.00778,-0.00168,-0.0351,-0.02029,-0.00488,-0.04822
3.6295,-0.00366,-0.04761,-0.0354,-0.01434,-0.02121,-0.10361,-0.03174,-0.02243,-0.01556,-0.01633,-0.00809,-0.00198,-0.03784,-0.01801,-0.00793,-0.04623
3.63,-0.00565,-0.04715,-0.03479,-0.01526,-0.01572,-0.08835,-0.0235,-0.02045,-0.01495,-0.01724,-0.00809,-0.00183,-0.0383,-0.01587,-0.01266,-0.04532
3.6305,-0.00839,-0.04593,-0.03586,-0.0148,-0.02106,-0.08102,-0.0174,-0.02106,-0.01373,-0.01816,-0.00702,-0.00031,-0.03448,-0.01556,-0.01389,-0.04486
3.631,-0.0119,-0.04379,-0.03662,-0.01404,-0.03128,-0.08087,-0.01251,-0.02319,-0.01221,-0.02029,-0.00565,0.00046,-0.02991,-0.01587,-0.01251,-0.04562
3.6315,-0.01434,-0.04196,-0.03769,-0.01434,-0.03845,-0.07889,-0.00641,-0.01892,-0.01053,-0.02182,-0.00534,-0.00015,-0.02792,-0.01282,-0.00946,-0.04532
3.632,-0.01709,-0.04196,-0.03784,-0.01434,-0.04379,-0.07248,0.00443,-0.00443,-0.01007,-0.02365,-0.00595,-0.00137,-0.02792,-0.0087,-0.00519,-0.04501
3.6325,-0.0177,-0.04166,-0.03616,-0.01511,-0.04929,-0.0679,0.01678,0.0174,-0.01114,-0.02151,-0.00626,-0.00214,-0.02991,-0.00519,0.00122,-0.04501
3.633,-0.01724,-0.03967,-0.03586,-0.01541,-0.04822,-0.06882,0.02029,0.03342,-0.01297,-0.02243,-0.0061,-0.00198,-0.03128,-0.00397,0.0116,-0.04562
3.6335,-0.01465,-0.03738,-0.03616,-0.01358,-0.0325,-0.07355,0.00977,0.0325,-0.01465,-0.02304,-0.00656,-0.00107,-0.03204,-0.00717,0.02533,-0.04745
3.634,-0.01114,-0.0354,-0.03601,-0.0119,-0.00961,-0.07553,-0.00549,0.0174,-0.01495,-0.02319,-0.00885,-0.00092,-0.0325,-0.01251,0.03555,-0.04761
3.6345,-0.0087,-0.03586,-0.03601,-0.0119,0.00122,-0.0679,-0.01175,0.0032,-0.01495,-0.02411,-0.01251,-0.00015,-0.03372,-0.01678,0.03113,-0.04623
3.635,-0.00809,-0.03662,-0.03632,-0.01404,-0.00885,-0.05249,-0.00854,-0.00229,-0.01511,-0.02533,-0.01312,-0.00031,-0.03494,-0.01831,0.01373,-0.04471
3.6355,-0.00702,-0.03723,-0.03616,-0.01587,-0.02869,-0.0354,-0.01007,-0.00198,-0.01556,-0.02533,-0.01038,-0.00122,-0.03571,-0.01877,-0.0029,-0.04456
3.636,-0.00443,-0.03586,-0.03525,-0.01724,-0.03647,-0.02182,-0.01831,-0.00107,-0.01633,-0.02396,-0.00687,-0.00183,-0.03433,-0.0177,-0.00793,-0.04471
3.6365,-0.00153,-0.03372,-0.03525,-0.01801,-0.02716,-0.01511,-0.02121,-0.00061,-0.01495,-0.02075,-0.00351,-0.00107,-0.03143,-0.01602,-0.00305,-0.04532
3.637,0.00153,-0.03189,-0.03677,-0.0177,-0.01389,-0.01648,-0.01328,0.00137,-0.0145,-0.01801,0.0,-0.00107,-0.02869,-0.01495,0.00275,-0.04486
3.6375,0.00443,-0.03159,-0.03799,-0.01526,-0.01144,-0.02457,-0.00381,0.00412,-0.01556,-0.01648,0.00381,0.00015,-0.02853,-0.01465,0.00687,-0.04395
3.638,0.00641,-0.03204,-0.03662,-0.01221,-0.0209,-0.03174,-0.00443,0.00427,-0.01709,-0.01633,0.00824,-0.00015,-0.03006,-0.01556,0.00946,-0.04364
3.6385,0.00717,-0.03296,-0.03326,-0.00946,-0.03326,-0.03326,-0.01038,0.00214,-0.0174,-0.01678,0.01129,-0.00122,-0.03235,-0.01572,0.01114,-0.04456
3.639,0.00778,-0.03281,-0.03098,-0.00916,-0.04242,-0.02716,-0.01328,-0.00031,-0.01587,-0.01892,0.01465,-0.00305,-0.03296,-0.01541,0.01236,-0.04532
3.6395,0.00885,-0.03357,-0.03204,-0.01083,-0.05005,-0.01907,-0.01282,-0.00198,-0.01389,-0.01923,0.01877,-0.00275,-0.03006,-0.01511,0.0145,-0.04379
3.64,0.00916,-0.03448,-0.03479,-0.0119,-0.06073,-0.00824,-0.01282,-0.00137,-0.01419,-0.01892,0.02258,-0.00122,-0.02548,-0.01495,0.01678,-0.04135
3.6405,0.00885,-0.03616,-0.03723,-0.01312,-0.07217,0.00565,-0.01389,-0.00031,-0.01617,-0.0177,0.01923,-0.00076,-0.02258,-0.01633,0.0177,-0.04196
3.641,0.00748,-0.03754,-0.03876,-0.01404,-0.07767,0.01938,-0.01358,0.00031,-0.01907,-0.0174,0.00946,-0.00183,-0.02167,-0.01724,0.01419,-0.04486
3.6415,0.00656,-0.03632,-0.03754,-0.0148,-0.07675,0.03021,-0.01343,-0.00046,-0.0206,-0.01602,-0.0029,-0.00259,-0.02213,-0.01678,0.0087,-0.0473
3.642,0.00626,-0.03204,-0.03647,-0.01694,-0.07645,0.03632,-0.01541,-0.00366,-0.0206,-0.01556,-0.01556,-0.00214,-0.0238,-0.01541,0.00443,-0.04547
3.6425,0.00397,-0.02808,-0.03479,-0.01846,-0.07767,0.0386,-0.0174,-0.00748,-0.02045,-0.01862,-0.02655,-0.00092,-0.02472,-0.01358,0.00397,-0.04272
3.643,0.00092,-0.02808,-0.03342,-0.01816,-0.07233,0.0383,-0.0174,-0.01144,-0.02121,-0.02213,-0.03647,0.00015,-0.02548,-0.01251,0.00534,-0.0412
3.6435,-0.00244,-0.03326,-0.03311,-0.01511,-0.05325,0.03418,-0.01617,-0.01389,-0.02106,-0.02533,-0.04517,-0.00031,-0.02747,-0.01419,0.00854,-0.0412
3.644,-0.00397,-0.03998,-0.03235,-0.01129,-0.02686,0.02411,-0.01511,-0.01343,-0.01907,-0.0235,-0.05249,-0.00214,-0.03036,-0.01541,0.01114,-0.04135
3.6445,-0.00443,-0.04852,-0.03098,-0.00977,-0.0061,-0.00595,-0.01587,-0.01038,-0.01755,-0.01923,-0.06058,-0.00259,-0.03159,-0.01877,0.01251,-0.04059
3.645,-0.00397,-0.05707,-0.03098,-0.01022,0.00458,-0.05035,-0.01556,-0.0058,-0.01724,-0.01755,-0.06866,-0.00198,-0.03067,-0.02182,0.01099,-0.03967
3.6455,-0.00381,-0.06317,-0.03265,-0.00961,0.01129,-0.08682,-0.01572,-0.00214,-0.01831,-0.01831,-0.07233,-0.00198,-0.02777,-0.0235,0.00854,-0.03998
3.646,-0.00153,-0.06393,-0.03235,-0.00793,0.01724,-0.1033,-0.01556,-0.00046,-0.01968,-0.01984,-0.06927,-0.00244,-0.02686,-0.02289,0.01038,-0.0412
3.6465,0.00122,-0.06058,-0.0293,-0.00931,0.01541,-0.12299,-0.01434,-0.00092,-0.01999,-0.0206,-0.06195,-0.00259,-0.02792,-0.02167,0.01373,-0.0412
3.647,0.00244,-0.05417,-0.0267,-0.01312,-0.00031,-0.17044,-0.01221,-0.00244,-0.01999,-0.0206,-0.05386,-0.00214,-0.03204,-0.02106,0.0174,-0.04105
3.6475,0.00153,-0.04898,-0.02701,-0.01678,-0.02975,-0.22858,-0.01175,-0.00427,-0.01907,-0.01984,-0.04745,-0.00229,-0.0351,-0.0206,0.01724,-0.04242
3.648,-0.00046,-0.04532,-0.03143,-0.01663,-0.05264,-0.26016,-0.0145,-0.00443,-0.01678,-0.0177,-0.04303,-0.00259,-0.03616,-0.02151,0.01556,-0.04349
3.6485,-0.0029,-0.04379,-0.03525,-0.01495,-0.056,-0.2507,-0.01831,-0.00534,-0.01572,-0.01617,-0.03845,-0.00198,-0.03571,-0.02304,0.01526,-0.04395
3.649,-0.00366,-0.04272,-0.03738,-0.01495,-0.03616,-0.21042,-0.01907,-0.00626,-0.01633,-0.01526,-0.03159,0.0,-0.03418,-0.0235,0.01617,-0.04288
3.6495,-0.00229,-0.0415,-0.04028,-0.01633,-0.01297,-0.1503,-0.01633,-0.00626,-0.0174,-0.01617,-0.02289,0.00198,-0.03265,-0.02182,0.01709,-0.04272
3.65,-0.00031,-0.04059,-0.0415,-0.01816,-0.00595,-0.08865,-0.01358,-0.00381,-0.0177,-0.01633,-0.0148,0.00214,-0.03128,-0.01968,0.01755,-0.04288
3.6505,0.00107,-0.04257,-0.04135,-0.01755,-0.01999,-0.04852,-0.0145,-0.00061,-0.01587,-0.01678,-0.01007,0.00153,-0.03021,-0.01877,0.01617,-0.04257
3.651,0.00168,-0.04715,-0.03983,-0.0177,-0.0412,-0.0441,-0.01617,0.00183,-0.01297,-0.01816,-0.00732,0.00092,-0.02869,-0.01862,0.01404,-0.04166
3.6515,0.00031,-0.04974,-0.03967,-0.01755,-0.05219,-0.06577,-0.0174,0.0032,-0.01022,-0.01938,-0.00671,0.00153,-0.02502,-0.01846,0.01373,-0.04105
3.652,-0.00168,-0.04807,-0.04211,-0.0174,-0.0499,-0.08926,-0.0177,0.00488,-0.01068,-0.0209,-0.00732,0.00214,-0.02213,-0.01907,0.01312,-0.04105
3.6525,-0.0032,-0.04578,-0.04364,-0.01785,-0.03937,-0.09399,-0.01846,0.00488,-0.01389,-0.02167,-0.00809,0.00137,-0.02136,-0.01984,0.0116,-0.03922
3.653,-0.00259,-0.0444,-0.04364,-0.01801,-0.03189,-0.08041,-0.01892,0.00168,-0.01633,-0.0209,-0.00778,0.00076,-0.02289,-0.0209,0.00824,-0.03677
3.6535,-0.00046,-0.04395,-0.04379,-0.01785,-0.03906,-0.06393,-0.01831,-0.0029,-0.01572,-0.02014,-0.00656,0.00031,-0.02487,-0.02106,0.00214,-0.03693
3.654,0.00153,-0.04303,-0.04669,-0.01785,-0.0592,-0.05692,-0.0177,-0.00702,-0.01526,-0.01984,-0.00458,0.00015,-0.02686,-0.02197,-0.00626,-0.03922
3.6545,0.00214,-0.0415,-0.04974,-0.02075,-0.07584,-0.05524,-0.01709,-0.01022,-0.01495,-0.01953,-0.00305,0.00031,-0.02914,-0.02274,-0.01724,-0.03967
3.655,0.00168,-0.03967,-0.05112,-0.02441,-0.07172,-0.04929,-0.01633,-0.01678,-0.01526,-0.01801,-0.00214,0.00015,-0.03204,-0.02441,-0.02731,-0.04135
3.6555,0.00305,-0.03769,-0.05112,-0.02502,-0.04883,-0.03937,-0.0148,-0.02472,-0.01633,-0.01724,-0.00305,-0.00046,-0.03616,-0.02502,-0.03418,-0.04379
3.656,0.0061,-0.03433,-0.0499,-0.02045,-0.03006,-0.03204,-0.01434,-0.02853,-0.01831,-0.01785,-0.00336,-0.00153,-0.04044,-0.02502,-0.03433,-0.04578
3.6565,0.00961,-0.03082,-0.04501,-0.01678,-0.02548,-0.02975,-0.01556,-0.0264,-0.02151,-0.01801,-0.00214,-0.00214,-0.04395,-0.0235,-0.03174,-0.04501
3.657,0.0116,-0.02838,-0.03891,-0.01587,-0.02808,-0.02686,-0.01602,-0.02472,-0.02289,-0.01923,0.0,-0.00259,-0.04486,-0.02258,-0.02884,-0.0444
3.6575,0.01022,-0.0206,-0.03326,-0.01541,-0.02762,-0.01862,-0.01617,-0.0296,-0.02228,-0.02014,0.00122,-0.00137,-0.04211,-0.02121,-0.0264,-0.04395
3.658,0.00534,0.00198,-0.03036,-0.01511,-0.02563,-0.01266,-0.01663,-0.03693,-0.02243,-0.02029,0.00076,-0.00061,-0.03784,-0.02075,-0.0209,-0.04333
3.6585,0.00031,0.03296,-0.02884,-0.01373,-0.02457,-0.01144,-0.01846,-0.03616,-0.02274,-0.01968,0.00046,-0.00168,-0.03387,-0.02228,-0.01038,-0.04257
3.659,-0.00229,0.04913,-0.02502,-0.01266,-0.02579,-0.01373,-0.01938,-0.02289,-0.02258,-0.01877,-0.00031,-0.00412,-0.0296,-0.02594,0.01068,-0.0441
3.6595,-0.00336,0.03143,-0.02029,-0.0119,-0.0264,-0.01526,-0.01846,-0.00671,-0.02197,-0.01877,-0.00092,-0.00519,-0.02701,-0.03021,0.04471,-0.0502
3.66,-0.00336,-0.01175,-0.01602,-0.0119,-0.02777,-0.01526,-0.01953,0.0032,-0.02075,-0.01907,-0.0029,-0.00381,-0.02609,-0.03403,0.08621,-0.05676
3.6605,-0.0029,-0.05493,-0.01282,-0.0116,-0.02945,-0.01648,-0.02609,0.00763,-0.02075,-0.01968,-0.00305,-0.00153,-0.02609,-0.0354,0.10651,-0.0589
3.661,-0.00381,-0.08255,-0.01282,-0.01129,-0.02884,-0.01968,-0.0351,0.01785,-0.0206,-0.02014,-0.0029,0.00092,-0.02655,-0.03479,0.08423,-0.05432
3.6615,-0.00656,-0.09476,-0.01434,-0.01144,-0.02502,-0.02289,-0.04166,0.03586,-0.0209,-0.02029,-0.00412,0.00153,-0.02716,-0.03403,0.03632,-0.04562
3.662,-0.00931,-0.09811,-0.01404,-0.01236,-0.01602,-0.02441,-0.04089,0.05127,-0.01953,-0.01907,-0.00565,0.00076,-0.03098,-0.03372,0.01007,-0.03738
3.6625,-0.01068,-0.09445,-0.01144,-0.01434,-0.00458,-0.02426,-0.03708,0.05173,-0.01907,-0.0177,-0.00656,0.00046,-0.03769,-0.03311,0.01709,-0.03311
3.663,-0.01083,-0.08682,-0.00793,-0.0148,0.00656,-0.02258,-0.03159,0.04105,-0.01877,-0.01724,-0.00534,0.00092,-0.0441,-0.02975,0.03052,-0.03113
3.6635,-0.01236,-0.07843,-0.00641,-0.01251,0.01541,-0.0206,-0.01755,0.03113,-0.01755,-0.0177,-0.00397,0.0,-0.04883,-0.02258,0.02625,-0.03052
3.664,-0.0148,-0.07233,-0.00793,-0.01007,0.02594,-0.01694,0.00839,0.02075,-0.01678,-0.01892,-0.00458,-0.0029,-0.05356,-0.01007,0.01587,-0.02884
3.6645,-0.01633,-0.06729,-0.01114,-0.00763,0.03647,-0.01144,0.03204,0.00885,-0.01465,-0.01907,-0.00717,-0.00534,-0.05798,0.00366,0.02029,-0.0264
3.665,-0.01541,-0.06241,-0.01251,-0.00732,0.03937,-0.00748,0.03922,-0.00214,-0.01282,-0.0206,-0.00992,-0.00458,-0.05905,0.00916,0.04044,-0.02518
3.6655,-0.01389,-0.05676,-0.01373,-0.00732,0.0296,-0.00626,0.0322,-0.00656,-0.00961,-0.02121,-0.01205,-0.0029,-0.05524,0.00381,0.05096,-0.03036
3.666,-0.01434,-0.05066,-0.01587,-0.00626,0.00412,-0.00977,0.02197,-0.00473,-0.00778,-0.02243,-0.01328,-0.00259,-0.04898,-0.0061,0.04105,-0.04486
3.6665,-0.0174,-0.04776,-0.01892,-0.00504,-0.0264,-0.01694,0.01312,-0.00092,-0.00763,-0.02213,-0.0119,-0.00443,-0.04166,-0.01038,0.02304,-0.05997
3.667,-0.01923,-0.0473,-0.02167,-0.00473,-0.05005,-0.0238,0.0061,0.00168,-0.00732,-0.02274,-0.00916,-0.00488,-0.03555,-0.00763,0.01587,-0.06546
3.6675,-0.02014,-0.04791,-0.0235,-0.00793,-0.05524,-0.03052,0.0,0.00275,-0.00732,-0.02136,-0.00717,-0.00366,-0.0322,-0.0061,0.02014,-0.05768
3.668,-0.01923,-0.04654,-0.02716,-0.01114,-0.04105,-0.03296,-0.00824,0.00168,-0.00717,-0.01724,-0.00717,-0.00229,-0.02975,-0.00717,0.02747,-0.04471
3.6685,-0.01801,-0.0441,-0.03281,-0.01175,-0.01602,-0.03403,-0.01602,0.0,-0.00763,-0.01022,-0.00977,-0.00229,-0.02548,-0.00824,0.03159,-0.03494
3.669,-0.01511,-0.04395,-0.03754,-0.00992,0.00443,-0.03342,-0.0209,-0.00183,-0.00793,-0.00366,-0.0116,-0.00259,-0.02121,-0.00458,0.03448,-0.0325
3.6695,-0.01297,-0.04333,-0.04013,-0.00885,0.01648,-0.03326,-0.01938,-0.00198,-0.00732,0.00015,-0.01144,-0.00259,-0.01892,0.00183,0.03189,-0.03433
3.67,-0.01205,-0.04135,-0.04272,-0.01068,0.02029,-0.03555,-0.01434,-0.00183,-0.00702,-0.00198,-0.01221,-0.00122,-0.02045,0.00336,0.01923,-0.03632
3.6705,-0.01251,-0.03769,-0.04608,-0.01297,0.01785,-0.04044,-0.01053,-0.00183,-0.00824,-0.00885,-0.01328,0.00122,-0.02167,-0.00183,0.00336,-0.03769
3.671,-0.01236,-0.03357,-0.04929,-0.01358,0.00763,-0.04578,-0.01068,-0.00137,-0.0119,-0.01617,-0.01511,0.0029,-0.02106,-0.01068,-0.0029,-0.0383
3.6715,-0.0119,-0.03143,-0.05096,-0.01312,-0.01907,-0.04929,-0.01205,-0.00122,-0.0148,-0.02167,-0.01556,0.00381,-0.01999,-0.01694,0.00351,-0.0386
3.672,-0.01083,-0.02853,-0.05096,-0.01343,-0.05524,-0.0502,-0.01526,-0.00259,-0.01602,-0.02426,-0.01358,0.00275,-0.01694,-0.01801,0.01144,-0.04028
3.6725,-0.01175,-0.02762,-0.047,-0.0145,-0.09125,-0.04822,-0.01648,-0.00504,-0.01617,-0.0264,-0.01343,0.00183,-0.01312,-0.01602,0.01099,-0.04089
3.673,-0.01022,-0.02975,-0.03952,-0.01358,-0.10773,-0.04547,-0.01602,-0.00671,-0.01663,-0.02808,-0.01419,0.00244,-0.00778,-0.01328,0.00671,-0.04059
3.6735,-0.01099,-0.03464,-0.03021,-0.01312,-0.09918,-0.04517,-0.01297,-0.00626,-0.01999,-0.02884,-0.01541,0.00259,-0.00275,-0.01328,0.00397,-0.03922
3.674,-0.01236,-0.03998,-0.02441,-0.01266,-0.07858,-0.04562,-0.00916,-0.00534,-0.02197,-0.02777,-0.01404,0.00137,0.00137,-0.01511,0.00351,-0.03815
3.6745,-0.01434,-0.04257,-0.02228,-0.01038,-0.06363,-0.04562,-0.00626,-0.0061,-0.02243,-0.02609,-0.01205,0.00076,0.00458,-0.0177,0.00259,-0.03922
3.675,-0.01633,-0.0441,-0.02182,-0.00763,-0.06012,-0.04242,-0.00656,-0.00854,-0.02243,-0.02319,-0.01022,0.00168,0.00458,-0.02029,0.00107,-0.0415
3.6755,-0.01663,-0.0444,-0.02304,-0.00793,-0.05997,-0.0383,-0.00961,-0.01022,-0.02274,-0.0206,-0.00992,0.00305,-0.00198,-0.0235,0.00015,-0.04257
3.676,-0.0148,-0.04318,-0.0238,-0.01038,-0.05508,-0.03235,-0.01343,-0.01038,-0.02502,-0.01892,-0.01068,0.00198,-0.01617,-0.02716,-0.00031,-0.04288
3.6765,-0.01251,-0.0412,-0.02655,-0.01144,-0.05127,-0.02975,-0.01999,-0.00885,-0.02625,-0.01724,-0.01221,0.00153,-0.03235,-0.03143,-0.00076,-0.04211
3.677,-0.01129,-0.04013,-0.02975,-0.01053,-0.06088,-0.03021,-0.03662,-0.009,-0.02426,-0.01709,-0.01312,0.00107,-0.04608,-0.03372,-0.00046,-0.04227
3.6775,-0.01144,-0.04044,-0.03342,-0.00946,-0.08408,-0.03555,-0.05829,-0.00946,-0.02014,-0.01846,-0.01572,0.00153,-0.05814,-0.03448,-0.00122,-0.04288
3.678,-0.01297,-0.04013,-0.0351,-0.009,-0.1062,-0.03967,-0.05615,-0.01022,-0.01694,-0.01999,-0.01755,0.00168,-0.07202,-0.03372,-0.00198,-0.04379
3.6785,-0.01495,-0.03906,-0.03784,-0.00977,-0.11047,-0.04135,-0.02136,-0.00885,-0.01663,-0.01938,-0.01877,0.00153,-0.08469,-0.03052,-0.00305,-0.0444
3.679,-0.01785,-0.03601,-0.03998,-0.00885,-0.09399,-0.04318,0.01312,-0.0061,-0.01648,-0.01801,-0.01907,0.00092,-0.09125,-0.02655,-0.00381,-0.04456
3.6795,-0.01984,-0.03342,-0.04044,-0.00702,-0.06882,-0.04761,0.0148,-0.00443,-0.01373,-0.01724,-0.01953,0.00046,-0.08514,-0.02441,-0.00412,-0.04379
3.68,-0.02106,-0.0322,-0.03952,-0.00626,-0.05142,-0.05478,-0.00702,-0.0061,-0.01114,-0.01694,-0.01938,0.00076,-0.07233,-0.02335,-0.00351,-0.04181
3.6805,-0.0206,-0.03296,-0.0383,-0.00626,-0.04868,-0.05951,-0.02014,-0.00763,-0.01083,-0.0177,-0.01968,0.00076,-0.06073,-0.02228,-0.00336,-0.04089
3.681,-0.0206,-0.03525,-0.03845,-0.0058,-0.05341,-0.06119,-0.01663,-0.00824,-0.01266,-0.01831,-0.02121,0.00092,-0.05463,-0.02228,-0.00534,-0.04074
3.6815,-0.02121,-0.03708,-0.03906,-0.00488,-0.05569,-0.06042,-0.01053,-0.00687,-0.01358,-0.01907,-0.02548,0.00137,-0.05066,-0.0206,-0.00809,-0.04074
3.682,-0.02304,-0.03647,-0.03937,-0.00427,-0.05081,-0.06027,-0.01083,-0.00488,-0.01389,-0.01755,-0.02747,0.00168,-0.0444,-0.01801,-0.00931,-0.04135
3.6825,-0.02472,-0.03403,-0.03937,-0.00519,-0.04105,-0.06073,-0.01389,-0.00366,-0.01282,-0.01404,-0.02808,0.00214,-0.03799,-0.01572,-0.00748,-0.04257
3.683,-0.02411,-0.03433,-0.03952,-0.00397,-0.0322,-0.05966,-0.01465,-0.0032,-0.01144,-0.01175,-0.02731,0.00214,-0.03296,-0.01785,-0.00366,-0.04395
3.6835,-0.02258,-0.03937,-0.04074,-0.00214,-0.02808,-0.05798,-0.01389,-0.00351,-0.01083,-0.01007,-0.0267,0.00183,-0.03113,-0.02258,-0.00244,-0.04379
3.684,-0.02136,-0.04669,-0.04089,-0.00305,-0.02625,-0.05508,-0.01343,-0.00565,-0.01099,-0.00839,-0.02502,0.00198,-0.0322,-0.0267,-0.00732,-0.04196
3.6845,-0.0206,-0.04837,-0.03922,-0.0058,-0.02411,-0.05203,-0.01312,-0.00778,-0.01205,-0.00854,-0.02182,0.00198,-0.03235,-0.02869,-0.01633,-0.04089
3.685,-0.01999,-0.04547,-0.03494,-0.00778,-0.02243,-0.05035,-0.01266,-0.00839,-0.01312,-0.00885,-0.01862,0.00229,-0.03113,-0.02731,-0.02457,-0.0415
3.6855,-0.01801,-0.0412,-0.03143,-0.00549,-0.01968,-0.05127,-0.01266,-0.009,-0.01297,-0.01099,-0.01587,0.00137,-0.03006,-0.02716,-0.03052,-0.04181
3.686,-0.01297,-0.0386,-0.02914,-0.00397,-0.01877,-0.05341,-0.01373,-0.00732,-0.01282,-0.01434,-0.01495,0.00092,-0.02975,-0.02777,-0.03876,-0.04257
3.6865,-0.00778,-0.03494,-0.0296,-0.00534,-0.01968,-0.05417,-0.01511,-0.00656,-0.01297,-0.01648,-0.0148,0.00076,-0.0293,-0.02777,-0.04974,-0.04196
3.687,-0.00473,-0.03098,-0.0293,-0.00854,-0.02304,-0.05173,-0.01587,-0.0058,-0.01251,-0.0177,-0.01465,0.00137,-0.02823,-0.02502,-0.06058,-0.04166
3.6875,-0.00336,-0.02609,-0.02777,-0.01083,-0.02731,-0.04791,-0.01556,-0.0058,-0.01221,-0.01862,-0.01358,0.00183,-0.0267,-0.01877,-0.06241,-0.0415
3.688,-0.00381,-0.0209,-0.02548,-0.01007,-0.0296,-0.04501,-0.01526,-0.0061,-0.0116,-0.01877,-0.01129,0.00275,-0.02365,-0.01236,-0.05402,-0.04211
3.6885,-0.00626,-0.01938,-0.02472,-0.00854,-0.02777,-0.04578,-0.01663,-0.00549,-0.0116,-0.01862,-0.01053,0.00137,-0.01831,-0.01221,-0.03815,-0.04456
3.689,-0.01038,-0.0206,-0.0235,-0.00854,-0.02045,-0.04562,-0.01755,-0.00519,-0.01236,-0.01648,-0.009,0.0,-0.01343,-0.01602,-0.01953,-0.04532
3.6895,-0.01404,-0.02274,-0.02243,-0.0087,-0.0119,-0.04791,-0.01663,-0.00458,-0.01389,-0.01205,-0.0061,-0.00046,-0.00977,-0.01877,0.00153,-0.04532
3.69,-0.01648,-0.02319,-0.02258,-0.00763,-0.0061,-0.05142,-0.01404,-0.00381,-0.0145,-0.00763,0.00046,0.00015,-0.00961,-0.01724,0.02167,-0.0444
3.6905,-0.01953,-0.02213,-0.02396,-0.00641,-0.00214,-0.05585,-0.0119,-0.00412,-0.01419,-0.00626,0.00809,0.00046,-0.01205,-0.01419,0.04929,-0.04501
3.691,-0.02228,-0.02289,-0.02502,-0.00748,0.00305,-0.05676,-0.01205,-0.00366,-0.0119,-0.00809,0.01999,0.00107,-0.01755,-0.01251,0.09552,-0.04608
3.6915,-0.02365,-0.02625,-0.02579,-0.00916,0.0116,-0.05386,-0.01221,-0.0032,-0.01083,-0.01068,0.03647,0.00275,-0.02319,-0.01343,0.14938,-0.04562
3.692,-0.02228,-0.03265,-0.02609,-0.00916,0.01663,-0.05005,-0.01358,-0.00259,-0.01221,-0.01266,0.05234,0.00427,-0.02716,-0.01511,0.16525,-0.04272
3.6925,-0.02029,-0.03769,-0.02823,-0.00702,0.01495,-0.04669,-0.01373,-0.00244,-0.01572,-0.0148,0.05463,0.00412,-0.02884,-0.01556,0.11917,-0.04074
3.693,-0.01862,-0.04013,-0.03159,-0.00565,0.00443,-0.04379,-0.01465,-0.0032,-0.0177,-0.01648,0.04517,0.00214,-0.03021,-0.01617,0.04974,-0.04303
3.6935,-0.01709,-0.04135,-0.03433,-0.00641,-0.009,-0.03937,-0.01556,-0.00259,-0.01877,-0.01831,0.03159,-0.00031,-0.03281,-0.01587,0.01419,-0.0473
3.694,-0.01389,-0.04272,-0.03723,-0.00763,-0.01923,-0.03174,-0.01495,-0.00244,-0.02014,-0.01862,0.01892,-0.00229,-0.03464,-0.01526,0.02243,-0.04929
3.6945,-0.01099,-0.04623,-0.0412,-0.00732,-0.02441,-0.02457,-0.01328,-0.00168,-0.02151,-0.01663,0.00595,-0.00214,-0.03387,-0.01465,0.03784,-0.04807
3.695,-0.00885,-0.05219,-0.04517,-0.00702,-0.02777,-0.02441,-0.0116,-0.00031,-0.02213,-0.01343,-0.00916,-0.00153,-0.03235,-0.01617,0.03326,-0.04608
3.6955,-0.00732,-0.05829,-0.04547,-0.00717,-0.03311,-0.03387,-0.01221,-0.00168,-0.02213,-0.01343,-0.02396,-0.00168,-0.03159,-0.0177,0.0145,-0.04639
3.696,-0.00366,-0.06119,-0.04395,-0.00717,-0.04028,-0.04761,-0.01343,-0.00336,-0.02136,-0.01663,-0.03769,-0.00168,-0.03098,-0.01694,-0.00275,-0.04486
3.6965,-0.00061,-0.0592,-0.04257,-0.00793,-0.04379,-0.056,-0.01434,-0.00397,-0.02029,-0.02151,-0.04272,-0.00122,-0.02899,-0.01663,-0.01572,-0.03525
3.697,0.00137,-0.05463,-0.04211,-0.00809,-0.03967,-0.05844,-0.01358,-0.00305,-0.01907,-0.02594,-0.03128,-0.00137,-0.02716,-0.01892,-0.02411,-0.02014
3.6975,0.00305,-0.05127,-0.04181,-0.00885,-0.03036,-0.0589,-0.01205,-0.00229,-0.01923,-0.0293,0.00153,-0.00107,-0.02777,-0.02243,-0.02655,-0.01251
3.698,0.00519,-0.05051,-0.04196,-0.01007,-0.02396,-0.06073,-0.01236,-0.00229,-0.01923,-0.03021,0.0322,-0.00092,-0.03113,-0.0264,-0.02502,-0.01953
3.6985,0.0061,-0.04974,-0.0415,-0.01205,-0.02609,-0.06241,-0.01328,-0.00397,-0.01953,-0.0293,0.02655,-0.00031,-0.03555,-0.02838,-0.02609,-0.03342
3.699,0.00763,-0.04868,-0.0412,-0.01389,-0.03418,-0.0647,-0.01465,-0.00412,-0.01892,-0.0267,-0.01862,0.00015,-0.03845,-0.02853,-0.0264,-0.03845
3.6995,0.00961,-0.04745,-0.03876,-0.01328,-0.03983,-0.06561,-0.0148,-0.00305,-0.0177,-0.02411,-0.07294,0.00229,-0.04013,-0.02411,-0.01373,-0.03326
3.7,0.0119,-0.04761,-0.03723,-0.01221,-0.03708,-0.06775,-0.01465,-0.0029,-0.01709,-0.02075,-0.11032,0.00473,-0.04074,-0.01495,0.0174,-0.02808
3.7005,0.01434,-0.04944,-0.03571,-0.01129,-0.03281,-0.06607,-0.01419,-0.00259,-0.01678,-0.01801,-0.12558,0.0061,-0.03906,-0.01022,0.04684,-0.03326
3.701,0.01511,-0.0473,-0.03448,-0.01053,-0.03342,-0.05936,-0.01282,-0.00366,-0.01617,-0.01602,-0.12451,0.00565,-0.03479,-0.01602,0.04807,-0.04303
3.7015,0.0145,-0.0383,-0.03403,-0.01007,-0.03983,-0.05157,-0.0119,-0.00519,-0.01389,-0.01541,-0.11383,0.00366,-0.0264,-0.02563,0.02014,-0.04684
3.702,0.01297,-0.0267,-0.03281,-0.01022,-0.04486,-0.0499,-0.01175,-0.00519,-0.01053,-0.01373,-0.09872,0.00305,-0.01709,-0.02899,-0.00565,-0.04547
3.7025,0.01175,-0.01434,-0.03235,-0.01114,-0.04395,-0.05905,-0.0119,-0.00443,-0.00916,-0.01251,-0.08377,0.00336,-0.0087,-0.0235,-0.00443,-0.04227
3.703,0.01358,-0.00458,-0.03281,-0.01022,-0.04074,-0.07065,-0.0119,-0.00275,-0.00992,-0.01099,-0.07126,0.00381,-0.00473,-0.01465,0.01785,-0.04181
3.7035,0.01938,-0.00153,-0.03342,-0.01007,-0.04059,-0.07462,-0.01053,-0.00229,-0.01251,-0.01038,-0.06104,0.00275,-0.00671,-0.00549,0.03342,-0.04211
3.704,0.0293,-0.009,-0.03387,-0.0116,-0.04074,-0.06622,-0.00961,-0.00275,-0.01495,-0.01099,-0.05264,0.00046,-0.01511,0.00565,0.02655,-0.04166
3.7045,0.03876,-0.02502,-0.03311,-0.01236,-0.03723,-0.0528,-0.01099,-0.00366,-0.01541,-0.01297,-0.04517,-0.00198,-0.02731,0.00977,0.00778,-0.04059
3.705,0.0441,-0.0412,-0.03357,-0.01068,-0.03204,-0.0444,-0.01343,-0.00366,-0.01434,-0.01373,-0.03967,-0.00214,-0.03693,0.00107,-0.00366,-0.04135
3.7055,0.04379,-0.0502,-0.03113,-0.00931,-0.02975,-0.0441,-0.01343,-0.00305,-0.01511,-0.01434,-0.03616,-0.00229,-0.04333,-0.01541,-0.0032,-0.04318
3.706,0.04028,-0.05524,-0.02731,-0.00916,-0.02991,-0.04639,-0.01297,-0.00275,-0.01648,-0.0148,-0.03372,-0.00183,-0.04868,-0.02655,0.00031,-0.04425
3.7065,0.03708,-0.05981,-0.02487,-0.00946,-0.02899,-0.047,-0.01205,-0.00381,-0.01785,-0.01434,-0.03143,-0.00153,-0.056,-0.02838,0.00153,-0.04349
3.707,0.03494,-0.06577,-0.02594,-0.0087,-0.02747,-0.04425,-0.01282,-0.00565,-0.01678,-0.0145,-0.02396,-0.00092,-0.06348,-0.02441,0.00153,-0.04242
3.7075,0.03098,-0.07065,-0.0293,-0.00748,-0.02472,-0.04166,-0.01495,-0.00931,-0.01404,-0.01434,-0.01205,-0.00107,-0.06866,-0.02228,0.00122,-0.04318
3.708,0.02609,-0.0737,-0.03281,-0.00671,-0.02304,-0.03906,-0.01633,-0.0119,-0.01099,-0.01587,0.00198,-0.00046,-0.07034,-0.02228,0.00137,-0.04395
3.7085,0.02151,-0.07584,-0.0354,-0.00717,-0.02106,-0.03769,-0.01663,-0.01266,-0.00961,-0.01694,0.01251,0.00092,-0.06638,-0.02167,0.00137,-0.04456
3.709,0.0174,-0.07706,-0.03708,-0.00809,-0.01694,-0.03754,-0.01556,-0.01205,-0.00961,-0.0177,0.01724,0.00229,-0.05936,-0.01923,0.00259,-0.04517
3.7095,0.01297,-0.07645,-0.03845,-0.00687,-0.01251,-0.03891,-0.01495,-0.01129,-0.01068,-0.01648,0.01617,0.00244,-0.05066,-0.01816,0.00504,-0.04471
3.71,0.01007,-0.07416,-0.03891,-0.00519,-0.01053,-0.04028,-0.01541,-0.00931,-0.01114,-0.01648,0.01297,0.00031,-0.04608,-0.01938,0.00488,-0.04486
3.7105,0.00839,-0.07004,-0.03906,-0.00381,-0.01038,-0.04044,-0.01587,-0.00702,-0.01144,-0.01801,0.01236,-0.00122,-0.04501,-0.0209,0.0058,-0.04486
3.711,0.00671,-0.06454,-0.03998,-0.00427,-0.0119,-0.04044,-0.01541,-0.00015,-0.01266,-0.01846,0.01343,-0.00107,-0.04349,-0.02075,0.00656,-0.04456
3.7115,0.00351,-0.0589,-0.04196,-0.0061,-0.0119,-0.04105,-0.01404,0.00946,-0.0148,-0.01755,0.01404,-0.00092,-0.03967,-0.02014,0.00565,-0.04471
3.712,0.00107,-0.05478,-0.04578,-0.00732,-0.01297,-0.04166,-0.01419,0.01755,-0.01755,-0.01724,0.01297,-0.00137,-0.03342,-0.01999,0.0032,-0.04456
3.7125,-0.00107,-0.05112,-0.04822,-0.00809,-0.01938,-0.04166,-0.01404,0.01801,-0.01831,-0.01785,0.01129,-0.00198,-0.02869,-0.01938,0.00061,-0.04501
3.713,-0.00366,-0.04684,-0.04745,-0.00854,-0.03525,-0.0415,-0.01343,0.0087,-0.01678,-0.01877,0.00992,-0.00092,-0.02701,-0.01816,-0.00107,-0.04501
3.7135,-0.00763,-0.04272,-0.04547,-0.00854,-0.06287,-0.0415,-0.01556,-0.00259,-0.0148,-0.02075,0.00717,-0.00046,-0.02686,-0.01724,-0.00565,-0.04593
3.714,-0.01175,-0.03845,-0.04364,-0.00854,-0.08759,-0.04135,-0.02197,-0.00702,-0.01419,-0.02274,0.00565,-0.00168,-0.0267,-0.0177,-0.01343,-0.04868
3.7145,-0.0148,-0.03464,-0.04349,-0.00946,-0.09125,-0.04105,-0.02991,-0.00595,-0.0145,-0.02365,0.00305,-0.0029,-0.0264,-0.01831,-0.02029,-0.05081
3.715,-0.01785,-0.03204,-0.04333,-0.009,-0.07477,-0.04227,-0.03754,-0.00412,-0.01556,-0.02396,0.00076,-0.00244,-0.0267,-0.01831,-0.02045,-0.04944
3.7155,-0.01862,-0.03204,-0.04257,-0.0087,-0.05005,-0.0441,-0.04135,-0.00427,-0.01663,-0.02304,-0.00122,-0.00214,-0.02625,-0.01663,-0.01083,-0.04456
3.716,-0.02014,-0.03235,-0.04227,-0.00931,-0.03174,-0.04669,-0.0383,-0.00443,-0.01755,-0.02335,-0.00259,-0.00305,-0.02304,-0.01389,0.0029,-0.03937
3.7165,-0.02258,-0.03281,-0.04196,-0.00961,-0.02563,-0.04913,-0.0264,-0.00381,-0.01678,-0.02411,-0.00366,-0.00504,-0.01923,-0.01053,0.01404,-0.03983
3.717,-0.02457,-0.03326,-0.04349,-0.01038,-0.03525,-0.04974,-0.00244,-0.00229,-0.01648,-0.02426,-0.0058,-0.00473,-0.01755,-0.00824,0.01755,-0.04379
3.7175,-0.02563,-0.03342,-0.04318,-0.01022,-0.05371,-0.04868,0.0267,-0.00137,-0.01587,-0.02625,-0.00793,-0.00183,-0.01846,-0.00839,0.01434,-0.04669
3.718,-0.02487,-0.03296,-0.04105,-0.00916,-0.06607,-0.047,0.04715,-0.00137,-0.01663,-0.02701,-0.01022,0.00107,-0.02014,-0.01099,0.01083,-0.04837
3.7185,-0.02426,-0.03082,-0.03601,-0.00732,-0.0589,-0.04684,0.04166,-0.00183,-0.01709,-0.02655,-0.00946,0.00137,-0.02243,-0.01221,0.00824,-0.04883
3.719,-0.02457,-0.03052,-0.02975,-0.00687,-0.03342,-0.04761,0.0116,-0.0029,-0.01633,-0.02518,-0.00839,0.00031,-0.02319,-0.01221,0.0061,-0.04669
3.7195,-0.02579,-0.03021,-0.02579,-0.00763,-0.0087,-0.04883,-0.01953,-0.00351,-0.01541,-0.0235,-0.00717,-0.00061,-0.02411,-0.01205,0.00397,-0.03891
3.72,-0.02548,-0.02884,-0.02426,-0.00885,-0.0032,-0.04929,-0.02899,-0.00412,-0.01404,-0.02472,-0.00717,-0.00107,-0.02563,-0.01358,0.0032,-0.02991
3.7205,-0.02365,-0.02579,-0.02502,-0.00916,-0.01373,-0.04974,-0.02136,-0.00397,-0.01434,-0.02609,-0.00732,-0.00198,-0.02747,-0.01785,0.00168,-0.02701
3.721,-0.01999,-0.02411,-0.02899,-0.009,-0.02518,-0.05081,-0.01404,-0.00443,-0.01419,-0.02548,-0.00809,-0.00107,-0.02945,-0.02487,-0.00046,-0.03143
3.7215,-0.01831,-0.02457,-0.03357,-0.00702,-0.0235,-0.0528,-0.0148,-0.00473,-0.01205,-0.02396,-0.00839,-0.00015,-0.03113,-0.0325,-0.00122,-0.0383
3.722,-0.01892,-0.02533,-0.03677,-0.00534,-0.01251,-0.0531,-0.0174,-0.00443,-0.00931,-0.02167,-0.00793,0.00031,-0.03159,-0.03555,-0.00153,-0.04074
3.7225,-0.02029,-0.02625,-0.03647,-0.0029,0.00458,-0.05219,-0.01755,-0.00336,-0.00763,-0.02151,-0.00748,0.00092,-0.03098,-0.03159,-0.00107,-0.04105
3.723,-0.02075,-0.02869,-0.03418,-0.00198,0.02472,-0.04852,-0.01556,-0.00214,-0.00885,-0.0209,-0.00793,0.00137,-0.02853,-0.0238,-0.00198,-0.04013
3.7235,-0.02106,-0.03174,-0.0322,-0.00275,0.03983,-0.04425,-0.01572,-0.00137,-0.01038,-0.01984,-0.01022,0.00275,-0.02533,-0.01953,-0.00366,-0.0383
3.724,-0.02197,-0.03571,-0.03204,-0.00366,0.03937,-0.0415,-0.01633,-0.00168,-0.01099,-0.0177,-0.01328,0.00381,-0.02426,-0.01862,-0.00641,-0.03555
3.7245,-0.02243,-0.03815,-0.0322,-0.00473,0.01633,-0.04059,-0.01526,-0.00229,-0.01144,-0.01709,-0.01633,0.00275,-0.02411,-0.01938,-0.00351,-0.0351
3.725,-0.02274,-0.04074,-0.03265,-0.00671,-0.01556,-0.0415,-0.01526,-0.00381,-0.01175,-0.01556,-0.01785,0.00031,-0.02502,-0.01999,0.01114,-0.03677
3.7255,-0.02258,-0.04211,-0.03296,-0.00931,-0.03815,-0.0415,-0.01617,-0.00443,-0.01221,-0.01404,-0.0174,-0.00275,-0.02655,-0.01999,0.03433,-0.0415
3.726,-0.01984,-0.04379,-0.03235,-0.01099,-0.04288,-0.04028,-0.01801,-0.00336,-0.01144,-0.01129,-0.01541,-0.00549,-0.02823,-0.01999,0.04974,-0.0444
3.7265,-0.01724,-0.04639,-0.03281,-0.01022,-0.04608,-0.03891,-0.01877,-0.00214,-0.01053,-0.01083,-0.01175,-0.00656,-0.02991,-0.02045,0.0386,-0.04547
3.727,-0.01587,-0.04929,-0.03525,-0.00977,-0.06454,-0.03769,-0.01907,-0.00092,-0.01175,-0.01129,-0.01022,-0.00534,-0.03036,-0.02213,0.01297,-0.04456
3.7275,-0.01556,-0.05157,-0.03571,-0.00809,-0.09171,-0.03738,-0.01831,-0.00061,-0.01404,-0.01282,-0.00854,-0.00137,-0.02945,-0.02396,-0.00183,-0.04517
3.728,-0.01511,-0.05524,-0.03525,-0.00748,-0.10406,-0.03815,-0.01709,-0.00137,-0.01648,-0.01236,-0.00778,0.00198,-0.02792,-0.02563,0.0032,-0.04745
3.7285,-0.01358,-0.06042,-0.03525,-0.00717,-0.08667,-0.0383,-0.01602,-0.00198,-0.01694,-0.01038,-0.01068,0.00214,-0.02609,-0.02594,0.01007,-0.05219
3.729,-0.01175,-0.06302,-0.03647,-0.00839,-0.05722,-0.04044,-0.01465,-0.00183,-0.01587,-0.01266,-0.01465,0.00046,-0.02609,-0.02563,0.00717,-0.06012
3.7295,-0.01068,-0.05905,-0.03723,-0.00916,-0.04272,-0.04562,-0.01495,-0.00153,-0.01236,-0.01465,-0.0177,-0.00168,-0.02792,-0.02457,0.00076,-0.06592
3.73,-0.00961,-0.05096,-0.03754,-0.01007,-0.04761,-0.05173,-0.01541,-0.00107,-0.00992,-0.01434,-0.01785,-0.00168,-0.03174,-0.0238,-0.00031,-0.06119
3.7305,-0.00946,-0.04257,-0.03784,-0.00931,-0.05798,-0.05478,-0.01541,-0.00198,-0.01083,-0.0145,-0.01755,-0.00046,-0.03815,-0.0238,0.00092,-0.0415
3.731,-0.01022,-0.0351,-0.03876,-0.00809,-0.06134,-0.0531,-0.01541,-0.00366,-0.01465,-0.0148,-0.01801,0.00092,-0.04486,-0.02579,-0.00092,-0.01801
3.7315,-0.0116,-0.02838,-0.04089,-0.00565,-0.05646,-0.04868,-0.01602,-0.0061,-0.01816,-0.01465,-0.01968,0.00183,-0.04929,-0.02823,-0.00626,-0.0116
3.732,-0.01266,-0.02228,-0.04181,-0.00504,-0.04639,-0.04562,-0.01617,-0.00778,-0.01877,-0.0148,-0.02151,0.00229,-0.04974,-0.02914,-0.00916,-0.02396
3.7325,-0.01175,-0.02014,-0.04166,-0.00626,-0.03662,-0.04578,-0.01511,-0.00748,-0.01892,-0.01572,-0.02289,0.0032,-0.04593,-0.02945,-0.00275,-0.03616
3.733,-0.00854,-0.02014,-0.04181,-0.00763,-0.03159,-0.04669,-0.0148,-0.0058,-0.01801,-0.01801,-0.02151,0.00427,-0.04013,-0.03006,0.0087,-0.03769
3.7335,-0.00595,-0.02167,-0.04135,-0.00931,-0.03143,-0.04745,-0.01633,-0.00473,-0.01633,-0.02121,-0.02029,0.00443,-0.03494,-0.03204,0.01678,-0.03281
3.734,-0.00656,-0.02396,-0.03967,-0.00992,-0.03372,-0.04974,-0.01816,-0.00458,-0.01328,-0.0209,-0.01816,0.00488,-0.03189,-0.03403,0.01617,-0.03113
3.7345,-0.00717,-0.02686,-0.03601,-0.00931,-0.03357,-0.0589,-0.01846,-0.00549,-0.01175,-0.02014,-0.01328,0.0058,-0.0296,-0.0325,0.0119,-0.0322
3.735,-0.00793,-0.02441,-0.03174,-0.00931,-0.03021,-0.07736,-0.01587,-0.00656,-0.01297,-0.01938,-0.00504,0.00595,-0.02182,-0.02609,0.01083,-0.03464
3.7355,-0.00748,-0.00717,-0.03189,-0.00946,-0.02548,-0.09628,-0.01266,-0.0061,-0.01495,-0.02136,0.00458,0.00443,-0.00626,-0.01495,0.01495,-0.03693
3.736,-0.0061,0.02304,-0.03616,-0.00916,-0.02167,-0.10162,-0.0116,-0.00458,-0.01617,-0.02182,0.01114,0.00092,0.00977,-0.0029,0.01785,-0.04059
3.7365,-0.0029,0.04639,-0.04547,-0.00885,-0.01953,-0.08591,-0.01266,-0.0032,-0.01556,-0.02197,0.01373,-0.00153,0.0148,0.00504,0.01678,-0.04425
3.737,0.0,0.03815,-0.05371,-0.00824,-0.01678,-0.05829,-0.01358,-0.00275,-0.01526,-0.02304,0.0148,-0.00336,0.0032,0.00839,0.01343,-0.04684
3.7375,0.00244,-0.00092,-0.06287,-0.00854,-0.01144,-0.03555,-0.01373,-0.00229,-0.01648,-0.02655,0.01663,-0.00259,-0.01602,0.00839,0.01129,-0.04913
3.738,0.00351,-0.05066,-0.07706,-0.00778,-0.00336,-0.02319,-0.01373,-0.00214,-0.01999,-0.02914,0.01755,-0.00198,-0.03265,0.00702,0.01007,-0.05127
3.7385,0.00397,-0.0853,-0.08331,-0.00549,0.00473,-0.01511,-0.01389,-0.00168,-0.02274,-0.03021,0.01602,-0.00275,-0.04242,0.0061,0.01007,-0.05569
3.739,0.0058,-0.09872,-0.06622,-0.00504,0.00992,-0.00793,-0.01434,-0.00198,-0.02457,-0.02914,0.01007,-0.00351,-0.04974,0.00488,0.01053,-0.05997
3.7395,0.00839,-0.09277,-0.03113,-0.0061,0.01099,-0.0058,-0.01312,-0.00381,-0.02441,-0.02869,0.00061,-0.00214,-0.05707,0.00351,0.01099,-0.06058
3.74,0.01022,-0.07523,0.00504,-0.00732,0.01007,-0.01007,-0.01266,-0.0058,-0.02289,-0.02975,-0.00519,0.00076,-0.06546,-0.00504,0.0116,-0.05753
3.7405,0.00946,-0.06012,0.02274,-0.00809,0.0061,-0.02014,-0.01297,-0.00671,-0.02121,-0.03113,0.00183,0.00259,-0.07477,-0.02365,0.01221,-0.05173
3.741,0.00732,-0.06012,0.02777,-0.0087,-0.00519,-0.03128,-0.01266,-0.00473,-0.01892,-0.03189,0.02991,0.0029,-0.08163,-0.04669,0.01114,-0.04654
3.7415,0.0061,-0.07339,0.02991,-0.01099,-0.02884,-0.04395,-0.01221,-0.00259,-0.01678,-0.03342,0.05676,0.00259,-0.08057,-0.06088,0.00809,-0.04181
3.742,0.00381,-0.08545,0.02899,-0.01129,-0.06027,-0.05325,-0.01297,-0.00122,-0.01404,-0.03357,0.04837,0.0029,-0.06821,-0.06348,0.00641,-0.0383
3.7425,0.00031,-0.08774,0.02274,-0.00916,-0.08072,-0.05615,-0.01419,-0.00214,-0.01282,-0.03189,-0.00275,0.00244,-0.05203,-0.05905,0.00504,-0.03586
3.743,-0.00458,-0.08438,0.01205,-0.00549,-0.08286,-0.05112,-0.0148,-0.00244,-0.01221,-0.02701,-0.06424,0.00092,-0.04013,-0.04578,0.00412,-0.03342
3.7435,-0.00885,-0.08179,0.00031,-0.00351,-0.07416,-0.04425,-0.01419,-0.00244,-0.0119,-0.01907,-0.103,0.00061,-0.03525,-0.02167,0.00412,-0.03021
3.744,-0.01251,-0.07889,-0.01129,-0.00488,-0.06485,-0.0441,-0.01434,-0.00183,-0.0119,-0.01083,-0.1149,0.00092,-0.03342,0.00397,0.00549,-0.02991
3.7445,-0.01495,-0.07324,-0.0235,-0.00626,-0.0589,-0.05157,-0.01495,-0.00183,-0.01251,-0.00717,-0.112,0.00092,-0.03113,0.01572,0.00824,-0.03403
3.745,-0.0174,-0.06516,-0.03128,-0.00717,-0.0502,-0.06378,-0.01434,-0.00137,-0.01297,-0.01038,-0.10178,0.00122,-0.02853,0.01038,0.00992,-0.04074
3.7455,-0.01999,-0.05661,-0.03464,-0.00839,-0.03815,-0.0766,-0.01297,-0.00122,-0.01373,-0.01785,-0.08514,0.00092,-0.02609,-0.00061,0.01038,-0.04517
3.746,-0.02304,-0.04944,-0.03799,-0.01068,-0.02731,-0.0885,-0.01312,-0.00244,-0.0145,-0.02365,-0.06744,0.00183,-0.02548,-0.00671,0.00946,-0.04608
3.7465,-0.02457,-0.04517,-0.04532,-0.0116,-0.0209,-0.09338,-0.01404,-0.00336,-0.01663,-0.0264,-0.05554,0.00153,-0.02625,-0.00824,0.00839,-0.04471
3.747,-0.0235,-0.04471,-0.05661,-0.009,-0.01984,-0.09171,-0.01495,-0.00305,-0.02045,-0.02655,-0.04913,-0.00031,-0.02716,-0.01282,0.00854,-0.04257
3.7475,-0.02014,-0.04379,-0.0676,-0.0058,-0.02716,-0.08942,-0.01526,-0.00214,-0.02365,-0.02655,-0.04364,-0.00168,-0.0293,-0.02106,0.00885,-0.04105
3.748,-0.01648,-0.04044,-0.07507,-0.00427,-0.03418,-0.0943,-0.0148,-0.00244,-0.02365,-0.02533,-0.03998,-0.00092,-0.03189,-0.03098,0.01022,-0.04059
3.7485,-0.01312,-0.03738,-0.07782,-0.00458,-0.03311,-0.10132,-0.01266,-0.00427,-0.02258,-0.02335,-0.03799,-0.00031,-0.03296,-0.03937,0.0116,-0.04105
3.749,-0.00992,-0.03769,-0.07751,-0.00458,-0.02075,-0.10056,-0.01068,-0.00351,-0.0206,-0.0206,-0.03937,0.00031,-0.03189,-0.04639,0.0116,-0.04211
3.7495,-0.00595,-0.04181,-0.0769,-0.00443,-0.01038,-0.08514,-0.009,-0.00015,-0.02075,-0.01907,-0.03998,0.00031,-0.03021,-0.0528,0.00992,-0.04166
3.75,-0.00244,-0.04318,-0.07706,-0.00458,-0.01404,-0.05692,-0.00916,0.00336,-0.02213,-0.01984,-0.0383,0.00107,-0.02869,-0.05539,0.00824,-0.0415
3.7505,0.00015,-0.03799,-0.07675,-0.00565,-0.03479,-0.02609,-0.01068,0.00443,-0.02426,-0.0206,-0.03464,0.00214,-0.02441,-0.04791,0.00717,-0.04211
3.751,0.00229,-0.02899,-0.07492,-0.00763,-0.06271,-0.0058,-0.01328,0.00336,-0.02502,-0.02014,-0.0296,0.0029,-0.01617,-0.0293,0.00641,-0.04242
3.7515,0.00443,-0.0209,-0.0705,-0.00748,-0.08179,0.00198,-0.01633,0.0032,-0.02365,-0.01831,-0.02319,0.0032,-0.00381,-0.01068,0.00839,-0.04196
3.752,0.00595,-0.01694,-0.06577,-0.00702,-0.08224,-0.00031,-0.0206,0.0029,-0.02213,-0.01694,-0.01617,0.00183,0.0058,-0.00473,0.01251,-0.04059
3.7525,0.00641,-0.01511,-0.06165,-0.00717,-0.06912,-0.00778,-0.02426,0.00336,-0.0209,-0.01511,-0.00854,0.00076,0.01144,-0.0116,0.01617,-0.04013
3.753,0.00595,-0.01343,-0.05798,-0.00916,-0.05371,-0.02106,-0.02518,0.00214,-0.01877,-0.01358,-0.00229,0.00015,0.01251,-0.01953,0.01404,-0.04013
3.7535,0.0061,-0.0145,-0.05615,-0.01083,-0.04303,-0.04959,-0.02319,-0.00046,-0.01694,-0.01541,-0.00031,-0.00031,0.00824,-0.02167,0.00626,-0.03998
3.754,0.00534,-0.02029,-0.05417,-0.01236,-0.0354,-0.09186,-0.0206,-0.00336,-0.01541,-0.01846,-0.00381,-0.00061,-0.00305,-0.02121,-0.00397,-0.03876
3.7545,0.00473,-0.02701,-0.05127,-0.01358,-0.03265,-0.121,-0.01923,-0.00473,-0.01419,-0.02045,-0.01007,-0.0029,-0.0206,-0.02335,-0.01587,-0.03937
3.755,0.00549,-0.03204,-0.04578,-0.01434,-0.03555,-0.10818,-0.01862,-0.0061,-0.01434,-0.02075,-0.01343,-0.00519,-0.03708,-0.02594,-0.02426,-0.04074
3.7555,0.00565,-0.03448,-0.04181,-0.01419,-0.03906,-0.06348,-0.01389,-0.00839,-0.01465,-0.01862,-0.00977,-0.00549,-0.04517,-0.02609,-0.0296,-0.04318
3.756,0.00504,-0.03784,-0.03952,-0.01251,-0.03571,-0.02365,-0.00397,-0.01221,-0.01434,-0.01755,-0.00198,-0.00504,-0.04822,-0.02289,-0.03204,-0.04242
3.7565,0.00412,-0.04257,-0.0386,-0.00931,-0.02472,-0.01175,0.0032,-0.01572,-0.01404,-0.01709,0.00259,-0.0032,-0.05188,-0.02106,-0.03174,-0.03769
3.757,0.00214,-0.04578,-0.03891,-0.00702,-0.01587,-0.01556,0.00046,-0.0177,-0.01373,-0.01862,0.00122,-0.00122,-0.0592,-0.01938,-0.02518,-0.03571
3.7575,0.00046,-0.04532,-0.03906,-0.00641,-0.01709,-0.01862,-0.00916,-0.01587,-0.01328,-0.02121,-0.00534,-0.00153,-0.06622,-0.01846,-0.00931,-0.04013
3.758,0.0,-0.04272,-0.03815,-0.0058,-0.02319,-0.02029,-0.01907,-0.01175,-0.01328,-0.02304,-0.01129,-0.00397,-0.06683,-0.01602,0.01526,-0.04807
3.7585,-0.00015,-0.0412,-0.03754,-0.00488,-0.02533,-0.02548,-0.01984,-0.00824,-0.01373,-0.0238,-0.0148,-0.00458,-0.06363,-0.01221,0.03815,-0.05417
3.759,-0.00015,-0.04074,-0.03693,-0.00458,-0.0264,-0.03052,-0.00946,-0.00793,-0.01419,-0.02319,-0.0145,-0.00366,-0.06027,-0.00961,0.04852,-0.05356
3.7595,0.00198,-0.03799,-0.03571,-0.00519,-0.02716,-0.03357,-0.00153,-0.00854,-0.01282,-0.02258,-0.01266,-0.0029,-0.05905,-0.00854,0.04578,-0.04761
3.76,0.00534,-0.03387,-0.03311,-0.00702,-0.02594,-0.03372,-0.0032,-0.00961,-0.01038,-0.0235,-0.01083,-0.00214,-0.05814,-0.00961,0.03784,-0.04303
3.7605,0.00946,-0.02625,-0.0293,-0.00824,-0.02243,-0.03433,-0.0119,-0.01175,-0.00885,-0.02533,-0.00839,-0.00153,-0.05676,-0.01129,0.02808,-0.04059
3.761,0.01282,-0.01633,-0.02609,-0.00977,-0.01602,-0.03647,-0.0177,-0.01434,-0.00732,-0.02609,-0.0058,-0.00061,-0.05646,-0.0119,0.01541,-0.03876
3.7615,0.01373,-0.00916,-0.0235,-0.01144,-0.01358,-0.03708,-0.01984,-0.01266,-0.00748,-0.02304,-0.00305,0.00046,-0.05478,-0.01083,0.00031,-0.03799
3.762,0.01236,-0.01282,-0.01984,-0.0119,-0.01236,-0.03891,-0.02548,-0.00671,-0.009,-0.01984,-0.00183,0.00122,-0.05173,-0.01022,-0.0145,-0.03494
3.7625,0.01053,-0.02533,-0.01526,-0.01221,-0.01312,-0.04211,-0.0354,-0.00076,-0.01114,-0.01556,0.00046,0.00259,-0.0499,-0.009,-0.02121,-0.03403
3.763,0.00885,-0.03738,-0.01129,-0.01266,-0.01343,-0.04318,-0.04211,0.00183,-0.0119,-0.01373,0.0032,0.0029,-0.04822,-0.00687,-0.0145,-0.03418
3.7635,0.00732,-0.04196,-0.00854,-0.0119,-0.01343,-0.03708,-0.04242,0.00244,-0.01038,-0.01297,0.00565,0.00153,-0.04272,-0.00549,0.00717,-0.03494
3.764,0.00519,-0.04227,-0.00641,-0.01144,-0.01236,-0.02487,-0.04196,0.00336,-0.00946,-0.01389,0.00656,-0.00015,-0.03204,-0.00702,0.0383,-0.03723
3.7645,0.00137,-0.04425,-0.00504,-0.01099,-0.01434,-0.01389,-0.04379,0.00717,-0.00824,-0.01251,0.0061,0.00046,-0.02319,-0.00824,0.06577,-0.03952
3.765,-0.00443,-0.04822,-0.00305,-0.0116,-0.01816,-0.009,-0.04257,0.0148,-0.00763,-0.01022,0.00427,0.00198,-0.02518,-0.01007,0.07172,-0.04059
3.7655,-0.01099,-0.05035,-0.00046,-0.01144,-0.0206,-0.01007,-0.0351,0.01999,-0.00763,-0.009,0.00244,0.00305,-0.03586,-0.0145,0.05127,-0.04166
3.766,-0.01556,-0.05005,0.00107,-0.01068,-0.01984,-0.01251,-0.02243,0.01755,-0.00839,-0.00946,0.00153,0.00122,-0.0473,-0.02106,0.03204,-0.04227
3.7665,-0.01816,-0.04959,-0.00015,-0.01007,-0.01968,-0.0174,-0.00198,0.00656,-0.00916,-0.01007,0.00153,-0.00046,-0.05356,-0.02518,0.03326,-0.04211
3.767,-0.01923,-0.05051,-0.00137,-0.00992,-0.01968,-0.02335,0.03189,-0.00656,-0.00946,-0.01343,0.00244,-0.00046,-0.05432,-0.02258,0.04395,-0.04211
3.7675,-0.0209,-0.05112,-0.00229,-0.01068,-0.0209,-0.02991,0.07385,-0.01648,-0.01022,-0.01602,0.00229,0.00015,-0.05051,-0.01923,0.04578,-0.04211
3.768,-0.02274,-0.04929,-0.00305,-0.01083,-0.02213,-0.03754,0.08957,-0.02319,-0.01129,-0.0174,0.00275,0.00015,-0.04532,-0.02075,0.03311,-0.04318
3.7685,-0.02304,-0.04623,-0.00534,-0.01297,-0.02258,-0.04501,0.05432,-0.03021,-0.01282,-0.01801,0.00137,0.00061,-0.04105,-0.02716,0.02106,-0.04517
3.769,-0.02426,-0.0444,-0.01175,-0.01511,-0.02716,-0.05005,-0.00443,-0.03601,-0.01465,-0.01968,-0.00061,0.00122,-0.03998,-0.03204,0.01434,-0.04715
3.7695,-0.02335,-0.04456,-0.02228,-0.01648,-0.03189,-0.05157,-0.03342,-0.03708,-0.01465,-0.02075,-0.00351,0.00153,-0.03937,-0.03281,0.01022,-0.04791
3.77,-0.02136,-0.04639,-0.03448,-0.01526,-0.02945,-0.0502,-0.02274,-0.03357,-0.01389,-0.02075,-0.00519,0.00076,-0.03616,-0.03021,0.00763,-0.04761
3.7705,-0.01678,-0.04639,-0.04608,-0.01236,-0.02106,-0.04837,-0.00534,-0.02716,-0.01297,-0.01938,-0.00763,-0.00061,-0.03265,-0.02914,0.00793,-0.04547
3.771,-0.01038,-0.04211,-0.05692,-0.01083,-0.01678,-0.04532,-0.00504,-0.01633,-0.01266,-0.01877,-0.00961,-0.00122,-0.02853,-0.02609,0.00992,-0.04303
3.7715,-0.00336,-0.03128,-0.06531,-0.01053,-0.02701,-0.0415,-0.01236,0.00305,-0.01266,-0.01816,-0.01053,0.0,-0.02502,-0.01953,0.00961,-0.0415
3.772,0.00336,-0.01663,-0.07156,-0.01038,-0.04715,-0.0354,-0.01282,0.02731,-0.01328,-0.01877,-0.01022,0.00092,-0.02167,-0.01038,0.00793,-0.04135
3.7725,0.00854,-0.00824,-0.07401,-0.00992,-0.06577,-0.03098,-0.01083,0.04562,-0.01389,-0.01862,-0.00854,0.00107,-0.01984,-0.00626,0.00763,-0.0412
3.773,0.01114,-0.01236,-0.07278,-0.00885,-0.07111,-0.03235,-0.01465,0.04486,-0.01572,-0.01892,-0.00702,0.00061,-0.02045,-0.00717,0.00824,-0.04227
3.7735,0.01083,-0.02609,-0.06958,-0.00885,-0.06302,-0.03876,-0.02228,0.02823,-0.01892,-0.02014,-0.00717,-0.00015,-0.02213,-0.00946,0.00641,-0.04211
3.774,0.0087,-0.03845,-0.07187,-0.0087,-0.0531,-0.04501,-0.02625,0.01068,-0.02136,-0.01968,-0.00717,-0.00107,-0.02258,-0.00977,0.00046,-0.04272
3.7745,0.00748,-0.04623,-0.08087,-0.00961,-0.04959,-0.05295,-0.02625,0.00351,-0.02121,-0.0177,-0.00687,-0.00153,-0.02121,-0.00839,-0.00946,-0.04257
3.775,0.00687,-0.05219,-0.08896,-0.01068,-0.05081,-0.0676,-0.02563,0.00504,-0.01923,-0.01602,-0.0058,-0.00229,-0.0174,-0.00641,-0.01312,-0.04242
3.7755,0.00641,-0.06027,-0.08347,-0.01266,-0.04852,-0.09277,-0.02457,0.00671,-0.01663,-0.01648,-0.00488,-0.0032,-0.01251,-0.00473,0.0029,-0.04318
3.776,0.0058,-0.06683,-0.06744,-0.01465,-0.04196,-0.11978,-0.02258,0.00458,-0.01587,-0.01785,-0.00534,-0.00427,-0.00732,-0.00458,0.03159,-0.04471
3.7765,0.0061,-0.06989,-0.05341,-0.01541,-0.03677,-0.13657,-0.0209,0.00122,-0.01617,-0.01953,-0.00626,-0.00397,-0.00153,-0.00626,0.04272,-0.04501
3.777,0.00595,-0.06744,-0.04501,-0.01419,-0.03677,-0.1384,-0.01862,0.0,-0.01648,-0.01968,-0.00626,-0.00305,0.0032,-0.009,0.01938,-0.04517
3.7775,0.00519,-0.06836,-0.04135,-0.01358,-0.04272,-0.13397,-0.01297,0.00076,-0.01602,-0.01907,-0.00702,-0.00214,0.0032,-0.0119,-0.01266,-0.04517
3.778,0.00427,-0.07309,-0.03723,-0.01343,-0.04745,-0.13336,-0.00427,0.00122,-0.01572,-0.01907,-0.00687,-0.00229,-0.00214,-0.01389,-0.0238,-0.04501
3.7785,0.00244,-0.07553,-0.03082,-0.01221,-0.04578,-0.12878,0.00412,0.00031,-0.01465,-0.01862,-0.00656,-0.00259,-0.01251,-0.01541,-0.01419,-0.04318
3.779,-0.00092,-0.0705,-0.02533,-0.01129,-0.03891,-0.10696,0.00885,-0.00061,-0.01511,-0.0174,-0.00565,-0.00214,-0.02396,-0.01755,-0.00519,-0.04059
3.7795,-0.00351,-0.05905,-0.02289,-0.00992,-0.03036,-0.07355,0.00504,-0.0029,-0.01633,-0.0174,-0.00381,0.0,-0.03311,-0.01892,-0.01144,-0.03754
3.78,-0.00366,-0.0473,-0.02304,-0.00931,-0.0235,-0.04868,-0.00732,-0.00519,-0.01785,-0.0177,-0.00244,0.00214,-0.03952,-0.01938,-0.02777,-0.03418
3.7805,-0.00305,-0.04013,-0.02213,-0.009,-0.01968,-0.0415,-0.02136,-0.00732,-0.01816,-0.01831,-0.0029,0.00183,-0.04211,-0.02045,-0.0415,-0.03281
3.781,-0.00259,-0.03586,-0.01907,-0.00931,-0.01907,-0.04196,-0.02533,-0.00961,-0.01694,-0.01846,-0.00458,-0.00092,-0.04318,-0.02151,-0.04639,-0.03571
3.7815,-0.00381,-0.03296,-0.01648,-0.01038,-0.02106,-0.04089,-0.02045,-0.0087,-0.01602,-0.01709,-0.00824,-0.00198,-0.04242,-0.02167,-0.03967,-0.04074
3.782,-0.00565,-0.03265,-0.01526,-0.01038,-0.02106,-0.03784,-0.01602,-0.00641,-0.01465,-0.01526,-0.01205,-0.00153,-0.03906,-0.02151,-0.02319,-0.04456
3.7825,-0.00992,-0.03372,-0.01434,-0.00931,-0.01816,-0.03555,-0.01648,-0.00473,-0.01343,-0.01526,-0.01434,-0.00122,-0.03479,-0.02045,0.00015,-0.04501
3.783,-0.01602,-0.03387,-0.0145,-0.00748,-0.01312,-0.03372,-0.01831,-0.00565,-0.01343,-0.0148,-0.01434,-0.00046,-0.03098,-0.01923,0.02213,-0.04257
3.7835,-0.02258,-0.03143,-0.01389,-0.00641,-0.01053,-0.0296,-0.01831,-0.01114,-0.01389,-0.01358,-0.01373,0.00015,-0.0267,-0.02014,0.03128,-0.04013
3.784,-0.02701,-0.02899,-0.01007,-0.00778,-0.01343,-0.02747,-0.0174,-0.01572,-0.01602,-0.01266,-0.01419,-0.00046,-0.01907,-0.02151,0.02777,-0.0386
3.7845,-0.02853,-0.02701,-0.00641,-0.01022,-0.01953,-0.02716,-0.01709,-0.0145,-0.01724,-0.01266,-0.01587,0.0,-0.01068,-0.02274,0.02289,-0.03723
3.785,-0.02823,-0.02487,-0.00443,-0.00946,-0.02243,-0.02731,-0.01755,-0.00961,-0.01694,-0.01358,-0.01755,-0.00031,-0.00778,-0.02365,0.02563,-0.03708
3.7855,-0.02869,-0.02426,-0.00549,-0.00687,-0.01801,-0.02655,-0.01801,-0.00946,-0.01633,-0.0148,-0.01709,0.00031,-0.01282,-0.02274,0.03647,-0.0383
3.786,-0.02701,-0.02441,-0.00931,-0.00427,-0.00992,-0.02319,-0.01816,-0.01511,-0.01602,-0.01633,-0.01678,0.00061,-0.02197,-0.0206,0.04059,-0.04089
3.7865,-0.02487,-0.02594,-0.01343,-0.00412,-0.00473,-0.02182,-0.01694,-0.01892,-0.0174,-0.01678,-0.0174,0.00015,-0.02991,-0.01862,0.02502,-0.04395
3.787,-0.02136,-0.02701,-0.01587,-0.00626,-0.00473,-0.02365,-0.01663,-0.01526,-0.01907,-0.01556,-0.01831,-0.00122,-0.03418,-0.01678,0.00397,-0.04562
3.7875,-0.01877,-0.02808,-0.0174,-0.00946,-0.00839,-0.02762,-0.01587,-0.00687,-0.02014,-0.01663,-0.01846,-0.0029,-0.03586,-0.01617,0.00198,-0.04807
3.788,-0.01724,-0.03052,-0.01785,-0.01038,-0.01266,-0.0322,-0.0148,-0.00046,-0.0209,-0.01694,-0.01602,-0.00168,-0.04013,-0.02014,0.03098,-0.04837
3.7885,-0.01648,-0.03281,-0.01831,-0.0116,-0.0206,-0.03754,-0.01389,0.00336,-0.02075,-0.01755,-0.00824,0.00122,-0.04745,-0.0267,0.06485,-0.04715
3.789,-0.01678,-0.03342,-0.01968,-0.01282,-0.0293,-0.04272,-0.01343,0.00626,-0.02014,-0.01831,0.00687,0.00427,-0.05142,-0.02899,0.0705,-0.04562
3.7895,-0.01678,-0.03098,-0.02045,-0.01251,-0.03998,-0.04608,-0.01358,0.00854,-0.01923,-0.0177,0.02502,0.00473,-0.04822,-0.02457,0.04532,-0.04272
3.79,-0.01633,-0.02945,-0.02289,-0.01038,-0.05386,-0.04883,-0.0145,0.00931,-0.0177,-0.01602,0.03448,0.00275,-0.04181,-0.01892,0.01541,-0.04074
3.7905,-0.01343,-0.02975,-0.0264,-0.00839,-0.07141,-0.05066,-0.01587,0.00793,-0.01633,-0.01633,0.03174,0.00046,-0.03906,-0.01709,0.00214,-0.04074
3.791,-0.01144,-0.02899,-0.02869,-0.00946,-0.0827,-0.05081,-0.01678,0.00488,-0.01785,-0.01846,0.02197,-0.00122,-0.04044,-0.01877,-0.00046,-0.04028
3.7915,-0.01038,-0.02716,-0.02762,-0.01099,-0.08041,-0.04745,-0.01617,0.0029,-0.01862,-0.01938,0.01373,-0.00183,-0.04013,-0.0206,-0.00275,-0.03799
3.792,-0.01175,-0.03159,-0.02563,-0.01175,-0.06561,-0.04395,-0.0148,0.0029,-0.01923,-0.01907,0.00534,-0.00137,-0.03372,-0.02197,-0.00626,-0.03723
3.7925,-0.01328,-0.04456,-0.02258,-0.00931,-0.04852,-0.03998,-0.01328,0.00427,-0.01984,-0.01755,-0.00687,-0.00046,-0.02533,-0.02106,-0.00778,-0.03845
3.793,-0.01251,-0.05615,-0.01282,-0.00702,-0.03708,-0.0386,-0.01266,0.00381,-0.02014,-0.01633,-0.02029,-0.00015,-0.01877,-0.01953,-0.00885,-0.04059
3.7935,-0.00931,-0.05585,0.00473,-0.00717,-0.03021,-0.03693,-0.01389,0.00046,-0.01877,-0.01709,-0.03342,0.00015,-0.01602,-0.01862,-0.01114,-0.04135
3.794,-0.00763,-0.04562,0.02106,-0.00717,-0.02609,-0.03586,-0.01572,-0.00366,-0.01663,-0.0177,-0.04807,-0.00092,-0.01801,-0.02167,-0.01144,-0.04196
3.7945,-0.00717,-0.0351,0.02274,-0.00748,-0.02487,-0.03311,-0.01526,-0.00748,-0.01343,-0.01846,-0.0621,-0.00122,-0.0238,-0.02853,-0.00671,-0.04211
3.795,-0.00809,-0.02808,0.01007,-0.0087,-0.02502,-0.02716,-0.01266,-0.0116,-0.01251,-0.01556,-0.07278,-0.00122,-0.02853,-0.03525,-0.00122,-0.0412
3.7955,-0.00656,-0.02426,-0.00671,-0.01083,-0.02502,-0.01938,-0.01099,-0.01343,-0.01312,-0.01419,-0.07568,-0.00122,-0.03159,-0.03647,-0.00046,-0.03922
3.796,-0.00519,-0.02167,-0.02029,-0.01328,-0.02777,-0.0145,-0.01236,-0.01175,-0.01358,-0.01312,-0.07309,-0.00153,-0.03632,-0.03113,-0.0029,-0.03876
3.7965,-0.00488,-0.02411,-0.03265,-0.01266,-0.0351,-0.0116,-0.0145,-0.00824,-0.01404,-0.0148,-0.06744,-0.00092,-0.04395,-0.02411,-0.00458,-0.04013
3.797,-0.00534,-0.03464,-0.04852,-0.01083,-0.04013,-0.00854,-0.01495,-0.0058,-0.01389,-0.01785,-0.06287,-0.00168,-0.05066,-0.01877,-0.00427,-0.04166
3.7975,-0.0058,-0.04761,-0.06744,-0.00824,-0.03693,-0.00839,-0.0145,-0.00397,-0.01343,-0.0238,-0.06012,-0.00305,-0.05188,-0.01709,-0.00229,-0.04288
3.798,-0.00839,-0.05463,-0.08331,-0.00732,-0.02747,-0.01785,-0.01465,-0.00381,-0.01358,-0.03021,-0.05951,-0.00412,-0.04837,-0.01572,-0.0029,-0.04257
3.7985,-0.01236,-0.05432,-0.09186,-0.00839,-0.01556,-0.04257,-0.01541,-0.00458,-0.01221,-0.03555,-0.05859,-0.00366,-0.04196,-0.01389,-0.00381,-0.04272
3.799,-0.01587,-0.05112,-0.09583,-0.01022,-0.00381,-0.07874,-0.01648,-0.00626,-0.01038,-0.03769,-0.05356,-0.00244,-0.03418,-0.0116,-0.00198,-0.04211
3.7995,-0.01663,-0.05066,-0.09598,-0.01205,0.009,-0.11108,-0.01541,-0.00641,-0.009,-0.03723,-0.0444,-0.00046,-0.02991,-0.0087,-0.00061,-0.03937
3.8,-0.01572,-0.05341,-0.09293,-0.01038,0.02289,-0.12054,-0.01465,-0.00748,-0.00809,-0.03571,-0.0322,0.00092,-0.02899,-0.00641,-0.00031,-0.03571
3.8005,-0.01465,-0.05692,-0.08957,-0.00931,0.03387,-0.10101,-0.01556,-0.00717,-0.00809,-0.03403,-0.02151,0.00076,-0.02823,-0.00473,0.0,-0.03403
3.801,-0.01328,-0.05936,-0.08484,-0.00977,0.03448,-0.06653,-0.01602,-0.0061,-0.00839,-0.0325,-0.01343,0.0,-0.02411,0.00122,0.00122,-0.03708
3.8015,-0.01221,-0.0592,-0.08194,-0.01083,0.01938,-0.04166,-0.01511,-0.00427,-0.00763,-0.03128,-0.00824,-0.00137,-0.01907,0.00565,0.00214,-0.04074
3.802,-0.01083,-0.05615,-0.0795,-0.01068,-0.01328,-0.03723,-0.01419,-0.00336,-0.00854,-0.02899,-0.00412,-0.00092,-0.0174,0.00427,0.00214,-0.04242
3.8025,-0.00946,-0.05096,-0.07736,-0.00977,-0.06088,-0.04562,-0.0148,-0.00259,-0.01068,-0.02808,0.00153,-0.00061,-0.01984,-0.00565,0.00183,-0.04227
3.803,-0.00732,-0.04425,-0.07599,-0.01099,-0.10513,-0.05219,-0.01648,-0.00305,-0.01373,-0.02609,0.00824,0.0,-0.02365,-0.01816,0.00214,-0.0415
3.8035,-0.00412,-0.03967,-0.0737,-0.01144,-0.12207,-0.05127,-0.01816,-0.00397,-0.01694,-0.02487,0.01526,0.00031,-0.02533,-0.02487,0.00168,-0.04089
3.804,0.0,-0.04059,-0.06927,-0.01144,-0.10452,-0.04745,-0.01785,-0.00397,-0.01984,-0.02472,0.01984,0.0,-0.02731,-0.02594,0.00214,-0.04105
3.8045,0.00259,-0.04517,-0.06241,-0.01068,-0.07477,-0.04623,-0.01526,-0.00229,-0.02182,-0.0235,0.02289,-0.00031,-0.0293,-0.02396,0.00214,-0.04074
3.805,0.00275,-0.04745,-0.05295,-0.01068,-0.05707,-0.04807,-0.01312,-0.00137,-0.02396,-0.02121,0.02243,-0.00153,-0.03128,-0.02289,0.00259,-0.04181
3.8055,0.00076,-0.03998,-0.04669,-0.01099,-0.05371,-0.05096,-0.01343,-0.00153,-0.02487,-0.02014,0.01816,-0.00107,-0.03357,-0.02304,0.00381,-0.04303
3.806,-0.00153,-0.01846,-0.04211,-0.01068,-0.04807,-0.04852,-0.01495,-0.00275,-0.02518,-0.01953,0.01236,-0.00092,-0.0351,-0.02472,0.00443,-0.04242
3.8065,-0.00198,0.0116,-0.04074,-0.00931,-0.03601,-0.03998,-0.0148,-0.00412,-0.02609,-0.02197,0.00702,-0.00137,-0.03571,-0.02594,0.00488,-0.04105
3.807,0.00031,0.03128,-0.0415,-0.0087,-0.0267,-0.02686,-0.01328,-0.00488,-0.0267,-0.02396,0.00244,-0.00092,-0.03525,-0.02594,0.00427,-0.04074
3.8075,0.00443,0.02213,-0.04242,-0.0087,-0.02502,-0.0145,-0.01236,-0.00641,-0.02563,-0.02533,-0.00244,0.00046,-0.03479,-0.02518,0.00427,-0.04242
3.808,0.00824,-0.01328,-0.04318,-0.00977,-0.02686,-0.00748,-0.01266,-0.00717,-0.02258,-0.02289,-0.00809,0.00183,-0.03372,-0.02472,0.00488,-0.04349
3.8085,0.0119,-0.05295,-0.04303,-0.01053,-0.02686,-0.00732,-0.01434,-0.0058,-0.01907,-0.01968,-0.01633,0.00275,-0.03204,-0.02472,0.00763,-0.04333
3.809,0.01343,-0.07858,-0.04089,-0.01038,-0.02716,-0.01511,-0.01419,-0.00366,-0.01526,-0.01801,-0.02808,0.00183,-0.02884,-0.02533,0.00839,-0.04227
3.8095,0.01373,-0.08911,-0.03738,-0.00931,-0.02609,-0.03189,-0.01343,-0.00244,-0.01251,-0.01556,-0.03906,0.00229,-0.0235,-0.02579,0.00916,-0.04181
3.81,0.01358,-0.09079,-0.03387,-0.00732,-0.0206,-0.05127,-0.0119,-0.00259,-0.01175,-0.01373,-0.04486,0.0032,-0.01816,-0.02426,0.009,-0.04135
3.8105,0.01404,-0.08728,-0.03174,-0.00824,-0.01282,-0.06439,-0.01099,-0.00366,-0.01343,-0.01205,-0.04486,0.00381,-0.01495,-0.02304,0.00793,-0.04166
3.811,0.01526,-0.07904,-0.03098,-0.009,-0.009,-0.06607,-0.01007,-0.00351,-0.01572,-0.009,-0.04166,0.00305,-0.01541,-0.02228,0.00854,-0.04166
3.8115,0.01541,-0.06836,-0.02991,-0.00793,-0.0145,-0.05966,-0.01083,-0.00153,-0.01709,-0.0058,-0.03967,0.00122,-0.01892,-0.02106,0.00824,-0.04105
3.812,0.0148,-0.06058,-0.0296,-0.00549,-0.03372,-0.0528,-0.01282,-0.00137,-0.01831,-0.00366,-0.03937,0.00015,-0.02457,-0.02045,0.0087,-0.04074
3.8125,0.01434,-0.05722,-0.0293,-0.00427,-0.06302,-0.04593,-0.01511,-0.0032,-0.01831,-0.00412,-0.03708,0.00015,-0.02777,-0.02106,0.00931,-0.04105
3.813,0.01617,-0.056,-0.02884,-0.00488,-0.08972,-0.03998,-0.01465,-0.00504,-0.01678,-0.00412,-0.02884,0.00137,-0.02838,-0.02274,0.009,-0.0412
3.8135,0.01923,-0.05341,-0.02792,-0.00778,-0.08881,-0.0383,-0.01251,-0.00412,-0.01556,-0.00504,-0.01892,0.00183,-0.02792,-0.02411,0.00793,-0.04211
3.814,0.02075,-0.04959,-0.02365,-0.00854,-0.05585,-0.04303,-0.01083,-0.00229,-0.01434,-0.00549,-0.01343,0.00198,-0.02731,-0.02594,0.00748,-0.04196
3.8145,0.02045,-0.04776,-0.01968,-0.00916,-0.01831,-0.05219,-0.01175,-0.00229,-0.01358,-0.00565,-0.01221,0.00198,-0.02869,-0.02823,0.00977,-0.0415
3.815,0.01846,-0.04791,-0.01633,-0.01022,-0.00488,-0.06104,-0.01328,-0.00427,-0.01373,-0.00519,-0.01312,0.00137,-0.03281,-0.0322,0.01144,-0.04196
3.8155,0.01724,-0.04868,-0.01495,-0.01114,-0.0116,-0.06866,-0.01343,-0.0058,-0.01389,-0.00473,-0.01266,0.00092,-0.03799,-0.03601,0.01129,-0.04257
3.816,0.01678,-0.04715,-0.01816,-0.01205,-0.0174,-0.07523,-0.01266,-0.00488,-0.01465,-0.00443,-0.01022,0.00122,-0.0383,-0.03769,0.01053,-0.04196
3.8165,0.01633,-0.04272,-0.02457,-0.0116,-0.01801,-0.07324,-0.01282,-0.00381,-0.01389,-0.00519,-0.00748,0.00244,-0.03143,-0.0383,0.01053,-0.04181
3.817,0.01358,-0.03738,-0.03265,-0.01022,-0.01862,-0.06271,-0.01389,-0.00351,-0.01251,-0.0058,-0.00748,0.00244,-0.02029,-0.03815,0.0119,-0.0415
3.8175,0.00992,-0.03204,-0.03769,-0.01038,-0.02304,-0.04883,-0.01465,-0.00412,-0.01205,-0.00748,-0.009,0.00153,-0.01343,-0.03448,0.01144,-0.04105
3.818,0.00763,-0.02777,-0.03632,-0.01297,-0.02426,-0.04105,-0.01434,-0.00473,-0.01343,-0.00977,-0.00946,0.00092,-0.01541,-0.02563,0.00885,-0.04166
3.8185,0.00793,-0.02533,-0.03021,-0.01495,-0.0264,-0.04089,-0.01389,-0.00565,-0.01663,-0.01175,-0.00793,0.00122,-0.02411,-0.01572,0.00504,-0.0412
3.819,0.01007,-0.02548,-0.02304,-0.01465,-0.03113,-0.0441,-0.01404,-0.00534,-0.01892,-0.01434,-0.00671,0.00137,-0.03693,-0.01221,0.00473,-0.04135
3.8195,0.01068,-0.02808,-0.01633,-0.01373,-0.03479,-0.04547,-0.01373,-0.00473,-0.01816,-0.01556,-0.00778,0.00153,-0.04807,-0.01892,0.00595,-0.04059
3.82,0.01007,-0.03235,-0.01328,-0.01358,-0.03174,-0.04684,-0.01297,-0.00443,-0.01572,-0.01755,-0.01038,0.00214,-0.05447,-0.02701,0.00519,-0.0412
3.8205,0.01022,-0.03571,-0.01205,-0.01343,-0.02884,-0.04868,-0.01266,-0.00427,-0.01343,-0.01877,-0.0116,0.00183,-0.05432,-0.0267,0.00458,-0.04135
3.821,0.01022,-0.03906,-0.01266,-0.01129,-0.03494,-0.05234,-0.0145,-0.0032,-0.01328,-0.02075,-0.01022,0.00061,-0.05234,-0.01755,0.0032,-0.0415
3.8215,0.00824,-0.04181,-0.0148,-0.00824,-0.047,-0.05585,-0.01526,-0.00275,-0.01373,-0.02258,-0.0087,-0.00061,-0.05569,-0.00504,-0.00092,-0.04135
3.822,0.0058,-0.04456,-0.0177,-0.00916,-0.05386,-0.05875,-0.01389,-0.0032,-0.01282,-0.02457,-0.009,-0.00046,-0.06378,0.00793,-0.00778,-0.04105
3.8225,0.00443,-0.047,-0.01968,-0.01251,-0.04745,-0.06073,-0.0119,-0.00397,-0.01297,-0.02609,-0.009,0.00046,-0.07019,0.01785,-0.01205,-0.04166
3.823,0.0058,-0.04974,-0.02151,-0.01495,-0.03769,-0.05844,-0.01068,-0.00412,-0.01373,-0.02518,-0.00687,0.00244,-0.0679,0.01831,-0.01144,-0.04242
3.8235,0.00763,-0.05264,-0.02182,-0.01465,-0.0322,-0.05356,-0.01083,-0.00336,-0.01389,-0.0235,-0.00107,0.0029,-0.05798,0.00641,-0.00702,-0.04303
3.824,0.00671,-0.05585,-0.02304,-0.01389,-0.03204,-0.04684,-0.01251,-0.00244,-0.01312,-0.02197,0.01816,0.00275,-0.04868,-0.00793,-0.00793,-0.04379
3.8245,0.0032,-0.05859,-0.02563,-0.01389,-0.03632,-0.04181,-0.01373,-0.00259,-0.01251,-0.02136,0.05615,0.00259,-0.04425,-0.01541,-0.0148,-0.04456
3.825,0.00107,-0.05798,-0.03006,-0.01434,-0.03723,-0.03937,-0.01511,-0.0029,-0.01373,-0.01938,0.0975,0.00153,-0.04379,-0.01236,-0.01877,-0.04395
3.8255,0.00153,-0.05478,-0.03616,-0.01282,-0.03387,-0.03815,-0.01556,-0.00351,-0.01556,-0.01877,0.10895,-0.00061,-0.04501,-0.0087,-0.00824,-0.04242
3.826,0.00275,-0.05035,-0.04272,-0.01114,-0.02808,-0.03647,-0.01602,-0.00336,-0.01419,-0.01785,0.07523,-0.00259,-0.04456,-0.01068,0.01572,-0.04318
3.8265,0.00366,-0.04501,-0.04639,-0.00977,-0.02289,-0.03418,-0.01694,-0.00427,-0.01343,-0.01724,0.01907,-0.00336,-0.04364,-0.01434,0.03662,-0.04425
3.827,0.00488,-0.03998,-0.04654,-0.00717,-0.01907,-0.03342,-0.01633,-0.00519,-0.01389,-0.01541,-0.02975,-0.00198,-0.04196,-0.01312,0.04105,-0.0441
3.8275,0.00565,-0.03769,-0.04349,-0.00565,-0.01663,-0.03799,-0.01495,-0.00504,-0.01526,-0.01724,-0.05936,-0.00137,-0.04044,-0.00793,0.03006,-0.04318
3.828,0.00595,-0.03632,-0.03998,-0.00763,-0.01373,-0.047,-0.01404,-0.00397,-0.01556,-0.02289,-0.07477,-0.00092,-0.03952,-0.00473,0.01923,-0.04272
3.8285,0.00549,-0.03693,-0.03784,-0.00977,-0.00931,-0.05859,-0.01328,-0.0032,-0.01556,-0.02945,-0.07874,-0.00046,-0.03769,-0.00763,0.02457,-0.04257
3.829,0.00397,-0.03464,-0.03754,-0.00854,-0.00565,-0.06454,-0.01144,-0.00427,-0.01511,-0.03448,-0.07584,-0.00046,-0.03403,-0.01465,0.04883,-0.04288
3.8295,0.00412,-0.0296,-0.0383,-0.00595,-0.01007,-0.06104,-0.01022,-0.00534,-0.01526,-0.03632,-0.06866,-0.00015,-0.02914,-0.02029,0.07675,-0.0415
3.83,0.00443,-0.02518,-0.03845,-0.00534,-0.0238,-0.05203,-0.01129,-0.0058,-0.01404,-0.03525,-0.06012,0.0,-0.0264,-0.0209,0.08102,-0.04059
3.8305,0.00427,-0.02487,-0.03784,-0.00732,-0.0412,-0.04471,-0.01328,-0.00565,-0.01495,-0.03342,-0.05219,-0.00031,-0.02548,-0.01999,0.05142,-0.04105
3.831,0.0032,-0.02533,-0.03601,-0.009,-0.05081,-0.03845,-0.01389,-0.00427,-0.0177,-0.03128,-0.04654,-0.00122,-0.02533,-0.01953,0.01572,-0.04181
3.8315,0.0032,-0.02548,-0.03357,-0.00824,-0.04913,-0.0351,-0.0119,-0.00168,-0.02014,-0.02701,-0.04196,-0.00183,-0.02609,-0.02045,0.00397,-0.04181
3.832,0.00336,-0.02441,-0.03098,-0.00687,-0.04532,-0.03815,-0.01144,-0.00107,-0.02243,-0.02213,-0.03769,-0.00183,-0.02731,-0.02258,0.01251,-0.04059
3.8325,0.00214,-0.02579,-0.02777,-0.00793,-0.04837,-0.04745,-0.0116,-0.00229,-0.02228,-0.01877,-0.03189,-0.00183,-0.02869,-0.02472,0.01968,-0.03906
3.833,-0.00076,-0.03113,-0.02686,-0.00977,-0.05508,-0.056,-0.01282,-0.00381,-0.02182,-0.01801,-0.0267,-0.00259,-0.03021,-0.02533,0.01511,-0.03937
3.8335,-0.00427,-0.03906,-0.0293,-0.01007,-0.05539,-0.0589,-0.0148,-0.00427,-0.02121,-0.01846,-0.02274,-0.00397,-0.03326,-0.02533,0.00977,-0.04135
3.834,-0.00565,-0.04547,-0.03403,-0.00931,-0.0412,-0.05524,-0.01541,-0.00366,-0.02045,-0.01862,-0.01572,-0.00488,-0.03479,-0.02518,0.01053,-0.04211
3.8345,-0.00595,-0.04669,-0.03632,-0.00763,-0.02075,-0.05295,-0.01526,-0.00305,-0.01862,-0.01785,-0.0032,-0.00458,-0.03204,-0.02533,0.01602,-0.04211
3.835,-0.00687,-0.04181,-0.0354,-0.00778,-0.00488,-0.05234,-0.01541,-0.00244,-0.01678,-0.01801,0.01038,-0.00519,-0.02609,-0.02579,0.0177,-0.04166
3.8355,-0.0087,-0.03174,-0.0322,-0.0087,-0.00015,-0.04837,-0.0148,-0.00153,-0.01511,-0.01724,0.01785,-0.0061,-0.01999,-0.02518,0.01312,-0.04196
3.836,-0.00946,-0.01862,-0.02884,-0.009,-0.00458,-0.03998,-0.01373,-0.00061,-0.01434,-0.01648,0.01633,-0.00702,-0.01633,-0.0235,0.00519,-0.04135
3.8365,-0.01083,-0.00824,-0.02914,-0.01022,-0.0145,-0.03357,-0.01404,-0.00092,-0.01511,-0.01663,0.00992,-0.0058,-0.01602,-0.02045,0.00015,-0.04105
3.837,-0.01251,-0.00351,-0.03311,-0.01007,-0.02518,-0.03296,-0.01907,-0.0029,-0.01556,-0.01816,0.00443,-0.00427,-0.01755,-0.01724,-0.00015,-0.04166
3.8375,-0.01617,-0.00443,-0.0383,-0.0087,-0.03067,-0.0386,-0.0264,-0.00351,-0.01495,-0.01892,0.00351,-0.0032,-0.01999,-0.01526,0.00336,-0.04379
3.838,-0.01816,-0.00687,-0.04456,-0.00641,-0.0325,-0.04547,-0.03342,-0.00168,-0.01358,-0.01785,0.00763,-0.00244,-0.0235,-0.01328,0.00397,-0.04456
3.8385,-0.01907,-0.01099,-0.05295,-0.00458,-0.03296,-0.05234,-0.0386,-0.00031,-0.01205,-0.01511,0.01389,-0.00183,-0.02884,-0.01236,0.00427,-0.04456
3.839,-0.0177,-0.02045,-0.06256,-0.00412,-0.0325,-0.05508,-0.04532,-0.00061,-0.01251,-0.01205,0.01968,-0.00198,-0.03433,-0.01282,0.0029,-0.0441
3.8395,-0.01633,-0.03189,-0.06454,-0.00412,-0.02899,-0.05386,-0.05295,-0.00076,-0.01404,-0.00977,0.02365,-0.00183,-0.03769,-0.01373,0.0029,-0.04425
3.84,-0.01526,-0.04105,-0.05951,-0.00626,-0.02457,-0.05005,-0.0531,-0.00015,-0.01541,-0.00809,0.02686,-0.00183,-0.03922,-0.01282,0.00351,-0.04395
3.8405,-0.01495,-0.04608,-0.0531,-0.009,-0.01938,-0.04745,-0.0415,0.00031,-0.01434,-0.00885,0.02914,-0.00198,-0.03998,-0.01068,0.00366,-0.04395
3.841,-0.01648,-0.04959,-0.0502,-0.01038,-0.01404,-0.04669,-0.01831,0.00031,-0.01068,-0.01114,0.03113,-0.00198,-0.03983,-0.00977,0.00229,-0.04364
3.8415,-0.0177,-0.0531,-0.04684,-0.01129,-0.00961,-0.04654,0.01541,-0.00046,-0.0087,-0.01434,0.03143,-0.00183,-0.03891,-0.01419,0.00092,-0.04257
3.842,-0.01816,-0.05737,-0.04242,-0.01221,-0.00946,-0.0473,0.05066,-0.0029,-0.01083,-0.01663,0.02625,-0.00198,-0.03708,-0.02121,0.00122,-0.04211
3.8425,-0.01816,-0.05981,-0.03891,-0.01099,-0.01419,-0.04852,0.06729,-0.00427,-0.01602,-0.0177,0.01724,-0.00122,-0.03204,-0.02457,0.00259,-0.04105
3.843,-0.0177,-0.06241,-0.04013,-0.00916,-0.02289,-0.05112,0.05188,-0.00366,-0.0206,-0.01862,0.0058,-0.00031,-0.0267,-0.02197,0.00336,-0.03952
3.8435,-0.0177,-0.06622,-0.04456,-0.00717,-0.03128,-0.05264,0.02197,-0.00275,-0.02228,-0.01877,-0.00427,-0.00015,-0.02274,-0.01999,0.00351,-0.03922
3.844,-0.01724,-0.07034,-0.04761,-0.00549,-0.0386,-0.05219,0.00626,-0.00198,-0.02151,-0.01999,-0.01328,0.0,-0.02136,-0.02121,0.0032,-0.04013
3.8445,-0.0145,-0.07034,-0.047,-0.00534,-0.04654,-0.05157,0.00336,-0.0032,-0.01968,-0.0206,-0.02304,-0.00046,-0.02075,-0.02258,0.00183,-0.04135
3.845,-0.01068,-0.06805,-0.04395,-0.00565,-0.056,-0.05219,-0.00458,-0.00427,-0.0177,-0.02167,-0.03326,-0.00015,-0.01877,-0.02228,0.0,-0.04349
3.8455,-0.00916,-0.06699,-0.04074,-0.00671,-0.06531,-0.05295,-0.01862,-0.00534,-0.01678,-0.02289,-0.04089,0.00046,-0.01617,-0.0206,-0.00214,-0.04364
3.846,-0.01053,-0.07004,-0.03891,-0.00626,-0.06836,-0.05386,-0.02472,-0.00534,-0.01709,-0.02365,-0.04471,0.00137,-0.01343,-0.01984,-0.00137,-0.04379
3.8465,-0.0116,-0.07263,-0.0383,-0.00458,-0.06393,-0.05325,-0.01984,-0.00473,-0.01724,-0.0235,-0.04654,0.00244,-0.0119,-0.02075,-0.00183,-0.04318
3.847,-0.01114,-0.0679,-0.03784,-0.00412,-0.05661,-0.0528,-0.01434,-0.00412,-0.01556,-0.02396,-0.04761,0.0032,-0.01251,-0.02136,-0.00168,-0.04211
3.8475,-0.01022,-0.05173,-0.03708,-0.00519,-0.04684,-0.05341,-0.01465,-0.00366,-0.01297,-0.02594,-0.04654,0.00244,-0.01602,-0.02121,-0.00107,-0.0415
3.848,-0.01114,-0.03769,-0.03204,-0.00656,-0.0383,-0.05539,-0.01709,-0.00336,-0.01007,-0.0264,-0.04395,0.00198,-0.02243,-0.02167,0.00183,-0.0412
3.8485,-0.01099,-0.03906,-0.02441,-0.00717,-0.0293,-0.05417,-0.01602,-0.0032,-0.009,-0.0267,-0.04257,0.00244,-0.02991,-0.02258,0.00351,-0.04074
3.849,-0.01022,-0.05463,-0.01694,-0.00793,-0.0235,-0.04761,-0.01205,-0.00229,-0.00916,-0.0267,-0.0415,0.0032,-0.03525,-0.02289,0.00473,-0.04105
3.8495,-0.00885,-0.06683,-0.01266,-0.00778,-0.02228,-0.03708,-0.00961,-0.00137,-0.00885,-0.02518,-0.03723,0.00397,-0.03815,-0.02289,0.00366,-0.04074
3.85,-0.009,-0.06577,-0.01175,-0.0058,-0.03143,-0.02563,-0.01083,-0.00092,-0.00778,-0.02319,-0.02899,0.00427,-0.03983,-0.02319,0.00305,-0.03983
3.8505,-0.01129,-0.0563,-0.01328,-0.00656,-0.04929,-0.0177,-0.01511,-0.00259,-0.00763,-0.02151,-0.0206,0.00427,-0.04288,-0.02579,0.00259,-0.04013
3.851,-0.01282,-0.04807,-0.01343,-0.01038,-0.0679,-0.01587,-0.01923,-0.00412,-0.00992,-0.02106,-0.01648,0.00504,-0.04501,-0.02777,0.00092,-0.0415
3.8515,-0.01373,-0.04257,-0.01434,-0.01328,-0.07538,-0.01541,-0.02014,-0.00305,-0.01282,-0.02106,-0.01633,0.00565,-0.04547,-0.02914,-0.00168,-0.04227
3.852,-0.01404,-0.03799,-0.01633,-0.01389,-0.06989,-0.01343,-0.01831,-0.00214,-0.01465,-0.02167,-0.01709,0.00351,-0.04608,-0.03113,-0.00366,-0.0412
3.8525,-0.01373,-0.03464,-0.01907,-0.01389,-0.05844,-0.00916,-0.01694,-0.00183,-0.01419,-0.02121,-0.01755,0.00107,-0.04501,-0.0325,-0.00381,-0.04044
3.853,-0.01328,-0.03082,-0.02045,-0.01373,-0.04608,-0.0061,-0.0177,-0.00275,-0.01221,-0.02151,-0.01816,0.00031,-0.04135,-0.03113,-0.00336,-0.04013
3.8535,-0.01358,-0.02838,-0.02136,-0.01373,-0.03281,-0.00946,-0.0206,-0.00381,-0.01053,-0.02106,-0.01953,0.00092,-0.03601,-0.02884,-0.00336,-0.03983
3.854,-0.01495,-0.02426,-0.02304,-0.01312,-0.02258,-0.01892,-0.02258,-0.00366,-0.01038,-0.02213,-0.01953,0.00183,-0.0322,-0.02747,-0.00488,-0.04013
3.8545,-0.01572,-0.01999,-0.02655,-0.01236,-0.01526,-0.03601,-0.0238,-0.00351,-0.01038,-0.02289,-0.01968,0.00183,-0.03326,-0.02838,-0.00763,-0.04013
3.855,-0.01541,-0.01785,-0.02991,-0.01251,-0.01404,-0.05356,-0.0235,-0.0029,-0.00946,-0.02441,-0.01999,0.00076,-0.03632,-0.02762,-0.00931,-0.03967
3.8555,-0.0148,-0.01923,-0.03296,-0.01343,-0.01556,-0.06027,-0.02182,-0.00305,-0.00946,-0.02457,-0.02228,0.0,-0.03769,-0.02533,0.00015,-0.04059
3.856,-0.01389,-0.02319,-0.03372,-0.01343,-0.01633,-0.04654,-0.02121,-0.00305,-0.01007,-0.02457,-0.0238,-0.00153,-0.0354,-0.02228,0.02121,-0.04303
3.8565,-0.01343,-0.0267,-0.03387,-0.01297,-0.01587,-0.01999,-0.02045,-0.00351,-0.01144,-0.02441,-0.02258,-0.00168,-0.03174,-0.02029,0.04196,-0.04608
3.857,-0.01343,-0.0267,-0.03464,-0.01358,-0.01587,-0.00046,-0.01923,-0.00305,-0.01312,-0.02457,-0.02014,-0.0029,-0.02884,-0.0206,0.03891,-0.04791
3.8575,-0.01312,-0.02411,-0.03571,-0.01465,-0.01526,-0.00778,-0.01556,-0.00244,-0.01419,-0.02426,-0.01862,-0.0032,-0.02792,-0.02182,0.01785,-0.04745
3.858,-0.01221,-0.02197,-0.03662,-0.01328,-0.01709,-0.0502,-0.01114,-0.00168,-0.01419,-0.02548,-0.0177,-0.00305,-0.02838,-0.02213,0.0032,-0.04654
3.8585,-0.01053,-0.02228,-0.03922,-0.01068,-0.02197,-0.11719,-0.00946,-0.00137,-0.0145,-0.02426,-0.01785,-0.0029,-0.03052,-0.02121,0.00351,-0.04593
3.859,-0.01007,-0.02533,-0.04135,-0.00961,-0.02579,-0.17151,-0.0116,-0.00122,-0.01602,-0.02411,-0.01862,-0.00336,-0.03433,-0.01907,0.00778,-0.04562
3.8595,-0.01022,-0.02609,-0.04211,-0.01175,-0.02365,-0.17593,-0.01602,-0.00168,-0.01785,-0.02457,-0.01907,-0.00229,-0.03693,-0.01526,0.00641,-0.04349
3.86,-0.01022,-0.02548,-0.03998,-0.01343,-0.01572,-0.13596,-0.01846,-0.00229,-0.0206,-0.02441,-0.01877,-0.00015,-0.03891,-0.00885,0.0029,-0.04074
3.8605,-0.00992,-0.02808,-0.03845,-0.01312,-0.01038,-0.09293,-0.01953,-0.00305,-0.02258,-0.02335,-0.01694,0.00168,-0.04013,-0.00381,0.00412,-0.03967
3.861,-0.01083,-0.03326,-0.03784,-0.01266,-0.01205,-0.0766,-0.01999,-0.00458,-0.02426,-0.02136,-0.01358,0.00183,-0.04196,-0.00565,0.00793,-0.03922
3.8615,-0.01068,-0.0354,-0.03647,-0.01556,-0.01801,-0.08133,-0.02106,-0.00595,-0.0264,-0.02045,-0.01297,-0.00031,-0.04379,-0.01328,0.00946,-0.0415
3.862,-0.01144,-0.03464,-0.03754,-0.01709,-0.02731,-0.08759,-0.02014,-0.00671,-0.02686,-0.02045,-0.01328,-0.00107,-0.04395,-0.02029,0.00946,-0.04333
3.8625,-0.01175,-0.03372,-0.03922,-0.01572,-0.03799,-0.09232,-0.01785,-0.00595,-0.02899,-0.02121,-0.01572,-0.00092,-0.0412,-0.02167,0.01114,-0.04471
3.863,-0.01144,-0.0351,-0.0412,-0.01236,-0.04715,-0.09354,-0.01678,-0.00412,-0.03098,-0.02075,-0.01755,0.0,-0.03647,-0.01892,0.01282,-0.04395
3.8635,-0.01114,-0.0386,-0.04181,-0.01038,-0.04944,-0.08667,-0.0177,-0.00183,-0.03159,-0.01862,-0.01953,-0.00015,-0.03235,-0.01373,0.01251,-0.04181
3.864,-0.01038,-0.04166,-0.03952,-0.01022,-0.04654,-0.07156,-0.01785,-0.00061,-0.03098,-0.01434,-0.02243,-0.00061,-0.02914,-0.00626,0.01099,-0.04135
3.8645,-0.00839,-0.04288,-0.03586,-0.01144,-0.04318,-0.05844,-0.01709,-0.00061,-0.02975,-0.009,-0.02655,-0.00092,-0.02731,0.00107,0.00763,-0.04135
3.865,-0.00854,-0.04318,-0.03403,-0.01312,-0.03952,-0.05341,-0.01572,-0.00122,-0.02884,-0.00473,-0.03052,-0.00137,-0.0264,0.00397,0.00519,-0.04333
3.8655,-0.009,-0.04349,-0.0322,-0.0145,-0.03067,-0.04898,-0.01556,-0.00122,-0.02823,-0.00549,-0.03143,-0.00198,-0.02625,0.00076,0.00046,-0.0444
3.866,-0.009,-0.04456,-0.03143,-0.01556,-0.01907,-0.03769,-0.01587,-0.00168,-0.02472,-0.00885,-0.02914,-0.00259,-0.02548,-0.00351,-0.00824,-0.04395
3.8665,-0.00748,-0.04761,-0.03006,-0.0145,-0.00748,-0.02533,-0.01709,-0.0032,-0.02106,-0.0119,-0.02579,-0.0032,-0.02243,-0.00763,-0.01556,-0.04272
3.867,-0.00595,-0.05096,-0.02914,-0.01236,-0.00259,-0.02182,-0.01801,-0.00412,-0.01892,-0.01511,-0.0235,-0.00168,-0.0209,-0.00916,-0.01144,-0.04135
3.8675,-0.0061,-0.05249,-0.03052,-0.01038,-0.00992,-0.02655,-0.01816,-0.00458,-0.0177,-0.01968,-0.02319,-0.00061,-0.02228,-0.01083,0.00397,-0.04059
3.868,-0.00748,-0.05219,-0.03189,-0.01068,-0.02563,-0.03494,-0.01587,-0.00366,-0.0177,-0.02502,-0.02274,-0.00198,-0.02579,-0.01419,0.02106,-0.04135
3.8685,-0.00793,-0.05081,-0.03235,-0.01282,-0.03769,-0.03891,-0.01404,-0.0032,-0.0177,-0.0296,-0.02182,-0.00381,-0.02808,-0.02609,0.02914,-0.04272
3.869,-0.00778,-0.04898,-0.03204,-0.01389,-0.03494,-0.04044,-0.01434,-0.00275,-0.01755,-0.03052,-0.01999,-0.00351,-0.03036,-0.04745,0.02594,-0.04211
3.8695,-0.00687,-0.04517,-0.03174,-0.01251,-0.0206,-0.04044,-0.01556,-0.00214,-0.01602,-0.02853,-0.01846,-0.00015,-0.03525,-0.06622,0.01953,-0.04166
3.87,-0.00488,-0.04196,-0.02975,-0.01053,-0.00977,-0.04013,-0.01297,-0.00183,-0.01419,-0.02625,-0.01785,0.00229,-0.04333,-0.06592,0.01541,-0.03967
3.8705,-0.00473,-0.04028,-0.02518,-0.00885,-0.00961,-0.0383,-0.00778,-0.0032,-0.01251,-0.02563,-0.01678,0.00244,-0.05051,-0.0473,0.01373,-0.03891
3.871,-0.00626,-0.04089,-0.02228,-0.00702,-0.01526,-0.03387,-0.00275,-0.00412,-0.0119,-0.02533,-0.01678,0.00046,-0.05249,-0.02899,0.01205,-0.03906
3.8715,-0.00732,-0.04272,-0.02075,-0.00702,-0.02136,-0.02625,-0.00061,-0.00381,-0.01129,-0.02472,-0.01633,-0.00076,-0.05173,-0.02182,0.01068,-0.03983
3.872,-0.00748,-0.04486,-0.0206,-0.00793,-0.0296,-0.01724,-0.00488,-0.00244,-0.01144,-0.02457,-0.01678,-0.00229,-0.04913,-0.02106,0.01007,-0.04074
3.8725,-0.00793,-0.04807,-0.02106,-0.00977,-0.04074,-0.01205,-0.01572,-0.00198,-0.01083,-0.02151,-0.01587,-0.00305,-0.04623,-0.01999,0.01053,-0.04135
3.873,-0.00854,-0.0499,-0.02182,-0.00885,-0.05157,-0.0116,-0.03708,-0.0029,-0.01022,-0.01938,-0.01617,-0.0032,-0.04242,-0.01938,0.01068,-0.0415
3.8735,-0.00885,-0.04868,-0.02365,-0.00793,-0.05432,-0.01526,-0.05737,-0.00412,-0.01053,-0.01923,-0.01419,-0.00336,-0.03845,-0.02045,0.01022,-0.04196
3.874,-0.009,-0.04715,-0.02411,-0.00824,-0.05127,-0.01923,-0.05554,-0.00504,-0.01236,-0.01984,-0.0116,-0.0029,-0.03418,-0.02075,0.0087,-0.04181
3.8745,-0.00977,-0.04639,-0.02472,-0.00778,-0.04807,-0.02335,-0.02991,-0.00519,-0.01282,-0.02106,-0.00549,-0.00168,-0.03082,-0.01984,0.00717,-0.0415
3.875,-0.01022,-0.04303,-0.02548,-0.00885,-0.05249,-0.02731,-0.00656,-0.00626,-0.01205,-0.0206,0.00015,-0.00076,-0.02899,-0.01846,0.00595,-0.04105
3.8755,-0.01266,-0.03006,-0.02716,-0.01205,-0.06073,-0.03067,-0.00671,-0.00732,-0.01144,-0.01831,0.00122,-0.00015,-0.02747,-0.01785,0.00458,-0.04105
3.876,-0.01587,-0.00656,-0.02945,-0.01343,-0.06424,-0.03311,-0.02014,-0.00626,-0.01114,-0.01602,-0.00153,-0.00046,-0.0209,-0.0177,0.00168,-0.04089
3.8765,-0.01785,0.01083,-0.03082,-0.0119,-0.06119,-0.03265,-0.02762,-0.00458,-0.01175,-0.01404,-0.00473,-0.00031,-0.00732,-0.01648,-0.00137,-0.04105
3.877,-0.01709,0.00229,-0.03143,-0.00931,-0.05569,-0.0322,-0.02365,-0.00305,-0.01114,-0.0119,-0.00534,0.00046,0.00748,-0.01526,-0.00061,-0.04059
3.8775,-0.01434,-0.03174,-0.03265,-0.00885,-0.05035,-0.03326,-0.0116,-0.00214,-0.00931,-0.0116,-0.00458,0.00107,0.01297,-0.0148,0.00244,-0.04196
3.878,-0.01236,-0.0708,-0.03204,-0.01114,-0.04532,-0.03647,0.0061,-0.00031,-0.00778,-0.0119,-0.00397,0.00107,0.00549,-0.01373,0.00992,-0.04333
3.8785,-0.01114,-0.09659,-0.03265,-0.01236,-0.03845,-0.03922,0.02518,0.00061,-0.00702,-0.01236,-0.00397,0.00031,-0.00992,-0.01282,0.01999,-0.0441
3.879,-0.01129,-0.1062,-0.03693,-0.01358,-0.03174,-0.04105,0.0354,0.00092,-0.00763,-0.01236,-0.00381,0.00015,-0.02274,-0.01144,0.02808,-0.04333
3.8795,-0.01022,-0.10452,-0.04364,-0.01373,-0.02731,-0.04272,0.02777,-0.00061,-0.00824,-0.01312,-0.0032,0.00107,-0.03174,-0.01266,0.02869,-0.0415
3.88,-0.00931,-0.0946,-0.05005,-0.01343,-0.02106,-0.04623,0.00961,-0.00153,-0.00854,-0.01556,-0.00351,0.00214,-0.03693,-0.0145,0.02289,-0.04059
3.8805,-0.00931,-0.08072,-0.05157,-0.01282,-0.01221,-0.04822,-0.00519,-0.00229,-0.00885,-0.02029,-0.00549,0.00305,-0.04013,-0.01602,0.01816,-0.0412
3.881,-0.01022,-0.06836,-0.04868,-0.01328,-0.00214,-0.04852,-0.00916,-0.00275,-0.01022,-0.02365,-0.00687,0.0029,-0.04425,-0.0174,0.01816,-0.04257
3.8815,-0.01068,-0.06058,-0.04364,-0.01373,0.00351,-0.0502,-0.00641,-0.00244,-0.01205,-0.02274,-0.00717,0.0032,-0.04898,-0.01846,0.02029,-0.04257
3.882,-0.00977,-0.05661,-0.03983,-0.01373,-0.00137,-0.05402,-0.00626,-0.00214,-0.01266,-0.02045,-0.00763,0.0029,-0.04883,-0.02014,0.01816,-0.04135
3.8825,-0.0087,-0.05249,-0.03952,-0.01312,-0.01205,-0.05951,-0.01007,-0.00259,-0.01373,-0.01816,-0.00961,0.00275,-0.04166,-0.0209,0.01358,-0.04074
3.883,-0.00778,-0.04684,-0.04089,-0.01038,-0.01923,-0.06393,-0.01251,-0.00244,-0.01343,-0.0174,-0.01099,0.00198,-0.0325,-0.02151,0.01053,-0.03922
3.8835,-0.00626,-0.04166,-0.04349,-0.00778,-0.01587,-0.06668,-0.01312,-0.00275,-0.01205,-0.01724,-0.01099,0.00137,-0.02899,-0.02182,0.01068,-0.03906
3.884,-0.00504,-0.03738,-0.047,-0.00626,-0.00443,-0.07202,-0.01221,-0.00305,-0.00961,-0.01709,-0.00961,0.00031,-0.03357,-0.02243,0.01144,-0.04059
3.8845,-0.00443,-0.03387,-0.04852,-0.00702,0.00809,-0.0824,-0.01205,-0.0032,-0.00931,-0.01678,-0.01007,-0.00015,-0.03998,-0.02151,0.01129,-0.04242
3.885,-0.00458,-0.03052,-0.04929,-0.00916,0.01602,-0.09354,-0.01282,-0.00366,-0.01114,-0.01755,-0.01312,-0.00061,-0.04593,-0.02045,0.00916,-0.04318
3.8855,-0.00381,-0.02777,-0.04959,-0.01114,0.01938,-0.09811,-0.01434,-0.00397,-0.01282,-0.01846,-0.01648,-0.00031,-0.05219,-0.01892,0.00717,-0.04288
3.886,-0.00198,-0.02747,-0.0502,-0.01099,0.02319,-0.09232,-0.01541,-0.00504,-0.01373,-0.02045,-0.01755,0.0,-0.05722,-0.01999,0.00671,-0.04364
3.8865,-0.00015,-0.02747,-0.04913,-0.01083,0.03204,-0.08087,-0.01434,-0.00427,-0.01602,-0.02014,-0.01602,-0.00076,-0.05585,-0.01984,0.00702,-0.04364
3.887,-0.00076,-0.02701,-0.04639,-0.0116,0.0415,-0.06805,-0.0148,-0.00412,-0.01755,-0.01907,-0.01312,-0.00107,-0.05051,-0.01801,0.00717,-0.04227
3.8875,-0.0029,-0.02731,-0.04272,-0.01251,0.04211,-0.05768,-0.0145,-0.00412,-0.01755,-0.0174,-0.01251,-0.00107,-0.04669,-0.01648,0.00702,-0.04211
3.888,-0.00351,-0.02853,-0.03967,-0.01175,0.02182,-0.04623,-0.01602,-0.00534,-0.01709,-0.01617,-0.01389,-0.00092,-0.04593,-0.01663,0.00641,-0.04196
3.8885,-0.00229,-0.03082,-0.03586,-0.00854,-0.02777,-0.03448,-0.01633,-0.00549,-0.01633,-0.01602,-0.01465,-0.00076,-0.04135,-0.0177,0.00671,-0.04227
3.889,-0.0029,-0.03311,-0.03311,-0.00549,-0.09293,-0.02426,-0.01587,-0.00458,-0.01602,-0.01694,-0.01343,0.00015,-0.03235,-0.0177,0.00824,-0.04227
3.8895,-0.00381,-0.03494,-0.03265,-0.00381,-0.13702,-0.01678,-0.01663,-0.00351,-0.0148,-0.01541,-0.01114,0.00107,-0.02457,-0.01694,0.0087,-0.04135
3.89,-0.00397,-0.03769,-0.03387,-0.00427,-0.13504,-0.0116,-0.01648,-0.0032,-0.01236,-0.01343,-0.01099,0.00122,-0.02289,-0.01556,0.00854,-0.03952
3.8905,-0.00229,-0.04089,-0.03342,-0.00443,-0.10208,-0.00778,-0.0174,-0.00412,-0.00992,-0.01251,-0.01221,0.00122,-0.02411,-0.01541,0.00824,-0.0386
3.891,-0.00061,-0.04303,-0.0322,-0.00519,-0.0766,-0.0032,-0.01724,-0.00549,-0.01053,-0.01389,-0.01511,0.00122,-0.02426,-0.01617,0.00748,-0.03967
3.8915,0.00031,-0.04211,-0.03098,-0.00702,-0.06973,-0.00153,-0.01755,-0.00565,-0.01389,-0.01541,-0.01724,0.00076,-0.02365,-0.01709,0.00748,-0.04074
3.892,0.00122,-0.04028,-0.02991,-0.00946,-0.06989,-0.00549,-0.01617,-0.00488,-0.01709,-0.01511,-0.01892,0.00015,-0.02411,-0.01663,0.00854,-0.04166
3.8925,0.00153,-0.03983,-0.02914,-0.01144,-0.07263,-0.01602,-0.0145,-0.00473,-0.01617,-0.0119,-0.01816,-0.00015,-0.02686,-0.01617,0.00885,-0.04211
3.893,0.00031,-0.04196,-0.02731,-0.01099,-0.07996,-0.03021,-0.01434,-0.00443,-0.01312,-0.01129,-0.01648,-0.00046,-0.03067,-0.01572,0.00763,-0.0415
3.8935,-0.00122,-0.04211,-0.02502,-0.00946,-0.0853,-0.03845,-0.01465,-0.00412,-0.01251,-0.01282,-0.01526,-0.00031,-0.03601,-0.0177,0.00763,-0.04227
3.894,-0.00153,-0.04074,-0.02014,-0.00839,-0.08026,-0.04044,-0.01511,-0.0032,-0.0148,-0.01602,-0.01572,0.0,-0.04257,-0.01938,0.00977,-0.04227
3.8945,0.00214,-0.03906,-0.01511,-0.00839,-0.06821,-0.03891,-0.01526,-0.0029,-0.0174,-0.0177,-0.01801,0.00031,-0.04745,-0.02014,0.01114,-0.04181
3.895,0.00626,-0.04059,-0.01114,-0.00916,-0.06165,-0.03998,-0.01648,-0.00275,-0.01648,-0.01862,-0.02121,0.0,-0.04608,-0.01953,0.00946,-0.04105
3.8955,0.00931,-0.04211,-0.00977,-0.00992,-0.05829,-0.04303,-0.01816,-0.00305,-0.01587,-0.01953,-0.02411,-0.00046,-0.0415,-0.01831,0.00778,-0.04166
3.896,0.01144,-0.0412,-0.01022,-0.01038,-0.05096,-0.04654,-0.01862,-0.00275,-0.01587,-0.01892,-0.0267,-0.00092,-0.03769,-0.01724,0.00687,-0.04272
3.8965,0.01205,-0.03983,-0.0116,-0.00992,-0.03998,-0.04761,-0.01617,-0.0029,-0.0177,-0.01892,-0.02808,0.0,-0.03754,-0.01801,0.0087,-0.04242
3.897,0.01083,-0.0383,-0.01236,-0.01007,-0.03265,-0.04684,-0.01297,-0.00259,-0.01846,-0.01999,-0.02686,0.00031,-0.03632,-0.01892,0.00916,-0.04181
3.8975,0.00656,-0.03845,-0.01434,-0.01053,-0.03174,-0.04639,-0.01114,-0.00458,-0.01862,-0.02151,-0.02518,0.0,-0.03281,-0.01755,0.00702,-0.04135
3.898,0.00198,-0.04074,-0.01617,-0.0119,-0.03143,-0.04745,-0.0116,-0.00534,-0.01785,-0.02411,-0.02365,-0.00244,-0.02777,-0.01419,0.00748,-0.04166
3.8985,-0.00214,-0.04349,-0.01938,-0.01236,-0.02884,-0.04822,-0.01389,-0.00488,-0.01694,-0.02548,-0.02274,-0.0032,-0.02533,-0.01068,0.0087,-0.04211
3.899,-0.00504,-0.04517,-0.0238,-0.01129,-0.02319,-0.04883,-0.01495,-0.00397,-0.01633,-0.02609,-0.02228,-0.00259,-0.02609,-0.00793,0.00977,-0.04227
3.8995,-0.00504,-0.04578,-0.03082,-0.0087,-0.0145,-0.04974,-0.01572,-0.00366,-0.01495,-0.02411,-0.02136,0.0,-0.02777,-0.00519,0.009,-0.04303
3.9,-0.00473,-0.04639,-0.04074,-0.00793,-0.00702,-0.04822,-0.01389,-0.00366,-0.01328,-0.02014,-0.01846,0.00122,-0.02655,-0.00443,0.00809,-0.04333
3.9005,-0.00504,-0.04608,-0.05264,-0.00824,-0.0029,-0.04639,-0.01282,-0.00381,-0.01328,-0.01831,-0.01205,0.00031,-0.02396,-0.00549,0.00854,-0.04349
3.901,-0.00717,-0.04303,-0.06073,-0.0087,-0.00305,-0.0473,-0.01251,-0.00305,-0.01358,-0.01862,-0.00137,-0.00153,-0.02274,-0.00885,0.00992,-0.04242
3.9015,-0.00916,-0.03937,-0.06165,-0.00854,-0.00381,-0.05188,-0.01343,-0.0032,-0.0148,-0.01862,0.01419,-0.00183,-0.02319,-0.01068,0.01083,-0.04272
3.902,-0.00961,-0.03677,-0.05569,-0.00885,-0.00198,-0.05692,-0.01404,-0.0032,-0.01419,-0.01648,0.02655,-0.00107,-0.02228,-0.01312,0.01083,-0.04272
3.9025,-0.01129,-0.03555,-0.04822,-0.00992,-0.00198,-0.05798,-0.01328,-0.00351,-0.01251,-0.01343,0.02991,-0.00015,-0.02045,-0.01587,0.01007,-0.04303
3.903,-0.01099,-0.03555,-0.04517,-0.00977,-0.00519,-0.05554,-0.01282,-0.00381,-0.01007,-0.01266,0.02762,0.00046,-0.01678,-0.01724,0.009,-0.04242
3.9035,-0.00961,-0.03494,-0.0441,-0.00992,-0.01007,-0.0502,-0.01373,-0.0032,-0.00854,-0.01282,0.02304,0.00153,-0.01083,-0.01755,0.00793,-0.04181
3.904,-0.00732,-0.0351,-0.0444,-0.01129,-0.01465,-0.04471,-0.01495,-0.00198,-0.00992,-0.01495,0.0177,0.00153,-0.00458,-0.01923,0.00809,-0.04227
3.9045,-0.00534,-0.0351,-0.04532,-0.01373,-0.01785,-0.03922,-0.01465,-0.00244,-0.01358,-0.01617,0.00931,0.00122,-0.00092,-0.02167,0.00839,-0.04288
3.905,-0.00443,-0.03616,-0.04532,-0.01419,-0.02121,-0.03418,-0.01663,-0.00397,-0.01816,-0.01846,-0.00198,0.00031,-0.0032,-0.02289,0.00778,-0.04318
3.9055,-0.00626,-0.03876,-0.04501,-0.01389,-0.02289,-0.02884,-0.02045,-0.00504,-0.02075,-0.01907,-0.01816,0.00122,-0.01083,-0.02365,0.00778,-0.04013
3.906,-0.01007,-0.04272,-0.04456,-0.01373,-0.02563,-0.0267,-0.02289,-0.00534,-0.01999,-0.0145,-0.03708,0.00183,-0.01968,-0.02304,0.00702,-0.0386
3.9065,-0.01358,-0.04517,-0.04211,-0.01358,-0.03571,-0.03052,-0.0206,-0.00534,-0.01846,-0.00931,-0.06073,0.00137,-0.02838,-0.02228,0.00641,-0.03922
3.907,-0.01419,-0.04532,-0.03876,-0.01205,-0.05249,-0.04013,-0.01526,-0.00443,-0.01678,-0.00671,-0.08377,0.00092,-0.03616,-0.02106,0.00473,-0.04135
3.9075,-0.01221,-0.04623,-0.03571,-0.01129,-0.06424,-0.05417,-0.00977,-0.00336,-0.01633,-0.00854,-0.09857,0.00107,-0.04517,-0.02121,0.00427,-0.04303
3.908,-0.0087,-0.04745,-0.03357,-0.01144,-0.0679,-0.06989,-0.00732,-0.00366,-0.01755,-0.0119,-0.10147,0.00015,-0.05508,-0.02335,0.00504,-0.04303
3.9085,-0.00549,-0.04776,-0.03143,-0.01099,-0.06332,-0.08667,-0.00916,-0.00397,-0.01938,-0.0145,-0.0972,-0.00198,-0.06042,-0.02518,0.00641,-0.04303
3.909,-0.00183,-0.047,-0.02945,-0.00931,-0.06058,-0.09445,-0.0145,-0.00351,-0.01999,-0.01495,-0.09033,-0.00366,-0.05844,-0.02563,0.00595,-0.0441
3.9095,0.00198,-0.0473,-0.02838,-0.00885,-0.05768,-0.08331,-0.01648,-0.00214,-0.01831,-0.0145,-0.08469,-0.00275,-0.05219,-0.0235,0.00549,-0.04318
3.91,0.00443,-0.04669,-0.02869,-0.00885,-0.0528,-0.0621,-0.01022,-0.00092,-0.01663,-0.01495,-0.07858,-0.00061,-0.04517,-0.0206,0.00778,-0.04181
3.9105,0.0058,-0.04593,-0.02945,-0.00839,-0.04974,-0.05035,-0.00626,-0.00183,-0.01633,-0.01587,-0.07309,-0.00046,-0.03967,-0.01938,0.00854,-0.04089
3.911,0.00717,-0.04349,-0.0296,-0.00839,-0.05127,-0.05478,-0.01312,-0.00412,-0.01617,-0.0174,-0.06622,-0.00214,-0.03647,-0.01633,0.00717,-0.04059
3.9115,0.00824,-0.04181,-0.02945,-0.00763,-0.05157,-0.06546,-0.02182,-0.00443,-0.01495,-0.01648,-0.05768,-0.00366,-0.03448,-0.01144,0.00259,-0.04089
3.912,0.00793,-0.03922,-0.0296,-0.00671,-0.04654,-0.06912,-0.01923,-0.00443,-0.01328,-0.01801,-0.04654,-0.00488,-0.03174,-0.00534,-0.00458,-0.0412
3.9125,0.00671,-0.03662,-0.02747,-0.00748,-0.03494,-0.06592,-0.00916,-0.00412,-0.0116,-0.01755,-0.03601,-0.00534,-0.02945,-0.00137,-0.01099,-0.04272
3.913,0.00809,-0.03372,-0.02396,-0.009,-0.0235,-0.0647,-0.00443,-0.00458,-0.01251,-0.01968,-0.02808,-0.00366,-0.02899,-0.00122,-0.01419,-0.04288
3.9135,0.01053,-0.02686,-0.02136,-0.00977,-0.01556,-0.0705,-0.0087,-0.0058,-0.01328,-0.02258,-0.02213,-0.00229,-0.03006,-0.00549,-0.01068,-0.04288
3.914,0.01007,-0.00961,-0.02075,-0.01007,-0.01556,-0.08347,-0.01434,-0.00534,-0.01343,-0.02213,-0.01755,-0.00229,-0.0322,-0.01068,-0.00168,-0.04257
3.9145,0.00656,0.01831,-0.02319,-0.00946,-0.02274,-0.10162,-0.01434,-0.00443,-0.01114,-0.02106,-0.01373,-0.00259,-0.03479,-0.01328,0.00641,-0.04349
3.915,0.00473,0.04257,-0.02411,-0.01038,-0.03372,-0.121,-0.00732,-0.0032,-0.00824,-0.02151,-0.01083,-0.00259,-0.03662,-0.01373,0.0116,-0.04517
3.9155,0.00687,0.0473,-0.02136,-0.01236,-0.03723,-0.13016,-0.00092,-0.00229,-0.00687,-0.02365,-0.00839,-0.00259,-0.03525,-0.0148,0.01526,-0.04593
3.916,0.00931,0.02762,-0.01465,-0.01358,-0.02899,-0.11658,-0.00305,-0.00259,-0.00778,-0.02579,-0.00595,-0.00153,-0.03143,-0.01984,0.02106,-0.04562
3.9165,0.00961,-0.00763,-0.0058,-0.01404,-0.01556,-0.08606,-0.01175,-0.00305,-0.0087,-0.02533,-0.00351,-0.00092,-0.02762,-0.03006,0.03174,-0.04364
3.917,0.0087,-0.04684,0.0058,-0.01511,-0.01205,-0.05936,-0.0174,-0.00381,-0.00992,-0.02197,-0.00137,0.00015,-0.02823,-0.04089,0.03967,-0.0415
3.9175,0.00748,-0.0795,0.02335,-0.01572,-0.02289,-0.04807,-0.01648,-0.00351,-0.0116,-0.01801,-0.00031,0.00122,-0.03067,-0.04471,0.03738,-0.0415
3.918,0.00687,-0.09811,0.04242,-0.01648,-0.03845,-0.047,-0.01419,-0.00275,-0.01282,-0.01648,0.00031,0.00046,-0.03159,-0.03708,0.02289,-0.04272
3.9185,0.00565,-0.10391,0.04486,-0.01724,-0.04608,-0.04562,-0.01526,-0.00259,-0.0145,-0.01923,0.00412,-0.00015,-0.03357,-0.02655,0.009,-0.04395
3.919,0.00381,-0.10452,0.01572,-0.0177,-0.04379,-0.04272,-0.0177,-0.0029,-0.01862,-0.02457,0.00885,-0.00122,-0.03815,-0.02365,0.00702,-0.04395
3.9195,0.00259,-0.103,-0.03021,-0.01602,-0.03708,-0.04166,-0.01694,-0.00275,-0.02289,-0.02762,0.00992,-0.00137,-0.0444,-0.02609,0.01358,-0.04318
3.92,0.00198,-0.09583,-0.06607,-0.01389,-0.03235,-0.04257,-0.01404,-0.00229,-0.02594,-0.02762,0.00488,-0.00076,-0.04837,-0.0264,0.01663,-0.04227
3.9205,0.00198,-0.08499,-0.07751,-0.0119,-0.03143,-0.0441,-0.01328,-0.00229,-0.02655,-0.02777,-0.00229,0.00061,-0.04807,-0.02258,0.01236,-0.04135
3.921,0.0029,-0.0737,-0.07401,-0.01068,-0.03052,-0.04532,-0.01404,-0.00259,-0.0264,-0.02762,-0.00732,0.00122,-0.04547,-0.01831,0.00381,-0.03998
3.9215,0.00229,-0.06393,-0.06958,-0.0087,-0.02823,-0.047,-0.01434,-0.00275,-0.0267,-0.02487,-0.00778,0.00061,-0.04196,-0.01602,-0.0032,-0.03708
3.922,-0.00046,-0.05554,-0.06912,-0.00626,-0.02243,-0.04822,-0.0145,-0.00244,-0.02701,-0.02213,-0.00687,-0.00107,-0.03906,-0.01358,-0.00687,-0.03357
3.9225,-0.00458,-0.05035,-0.07126,-0.00473,-0.0145,-0.04913,-0.01312,-0.0032,-0.02869,-0.02045,-0.00656,-0.00137,-0.03723,-0.00778,-0.00809,-0.03342
3.923,-0.00763,-0.05234,-0.07141,-0.00351,-0.00961,-0.04837,-0.01328,-0.00275,-0.03174,-0.02045,-0.00671,-0.00183,-0.03693,-0.00015,-0.00732,-0.03555
3.9235,-0.00992,-0.06088,-0.06912,-0.00458,-0.01007,-0.0441,-0.01343,-0.00153,-0.03418,-0.02289,-0.00397,-0.00244,-0.03662,0.0061,-0.00534,-0.03815
3.924,-0.00977,-0.06897,-0.06744,-0.00778,-0.01419,-0.03693,-0.0148,-0.00168,-0.03494,-0.02365,-0.00015,-0.0029,-0.03494,0.00748,-0.00458,-0.03937
3.9245,-0.00793,-0.07111,-0.0647,-0.00992,-0.01495,-0.02563,-0.01465,-0.00275,-0.03433,-0.02365,0.00214,-0.00259,-0.03174,0.00656,-0.00168,-0.03906
3.925,-0.0032,-0.06699,-0.06027,-0.00839,-0.01297,-0.0174,-0.01434,-0.0032,-0.03204,-0.02182,0.00137,-0.00183,-0.02869,0.00183,0.00748,-0.03906
3.9255,0.00153,-0.05981,-0.05295,-0.00641,-0.01038,-0.01389,-0.01312,-0.00397,-0.02914,-0.02274,-0.00076,-0.00092,-0.02853,-0.00885,0.02106,-0.03967
3.926,0.00504,-0.05188,-0.04379,-0.0061,-0.00198,-0.01694,-0.01282,-0.00381,-0.02472,-0.02411,-0.0032,-0.00031,-0.0296,-0.0264,0.0296,-0.04013
3.9265,0.00641,-0.04303,-0.03601,-0.00763,0.0145,-0.02228,-0.01297,-0.00381,-0.01984,-0.02228,-0.00427,0.00122,-0.02884,-0.04868,0.02869,-0.04028
3.927,0.00565,-0.03479,-0.03403,-0.00778,0.03281,-0.02716,-0.01465,-0.00351,-0.01541,-0.01846,-0.0061,0.0029,-0.02853,-0.0676,0.0238,-0.04105
3.9275,0.00458,-0.02838,-0.0383,-0.00809,0.04288,-0.03143,-0.01526,-0.00427,-0.01389,-0.01495,-0.00839,0.00351,-0.0296,-0.07355,0.02365,-0.04242
3.928,0.00381,-0.0238,-0.04623,-0.00763,0.04013,-0.03647,-0.01526,-0.00458,-0.01511,-0.0145,-0.00992,0.00305,-0.03265,-0.06317,0.0264,-0.04272
3.9285,0.00443,-0.02029,-0.05249,-0.00702,0.03098,-0.04028,-0.01556,-0.00397,-0.01556,-0.01617,-0.00885,0.00061,-0.03372,-0.04425,0.02502,-0.04196
3.929,0.00504,-0.01648,-0.05356,-0.00626,0.01862,-0.0444,-0.01572,-0.00259,-0.01556,-0.01709,-0.00534,-0.00107,-0.0322,-0.03036,0.01984,-0.04211
3.9295,0.00473,-0.01434,-0.04883,-0.00458,-0.00473,-0.0473,-0.01541,-0.00259,-0.01404,-0.01678,0.00061,-0.00229,-0.02945,-0.02625,0.01572,-0.04227
3.93,0.00351,-0.01541,-0.0415,-0.00366,-0.04639,-0.04959,-0.01419,-0.0029,-0.01282,-0.0148,0.00656,-0.00122,-0.02533,-0.02777,0.01434,-0.04181
3.9305,0.00137,-0.01938,-0.03586,-0.00351,-0.09079,-0.04883,-0.01282,-0.0032,-0.01221,-0.01297,0.00885,0.00031,-0.01999,-0.02762,0.0116,-0.0412
3.931,0.00137,-0.02335,-0.03357,-0.00351,-0.10986,-0.04593,-0.01312,-0.00351,-0.01205,-0.01312,0.00717,0.00198,-0.01343,-0.02289,0.00687,-0.04028
3.9315,0.0029,-0.02655,-0.03357,-0.00305,-0.09552,-0.04135,-0.01434,-0.00351,-0.01266,-0.0148,0.00748,0.00183,-0.00626,-0.01511,0.00427,-0.03983
3.932,0.00427,-0.02899,-0.03296,-0.00214,-0.07065,-0.03845,-0.01663,-0.00488,-0.01358,-0.0174,0.00977,0.00015,-0.00473,-0.01068,0.00443,-0.04013
3.9325,0.00305,-0.03036,-0.03143,-0.00198,-0.06134,-0.0386,-0.01694,-0.00458,-0.01328,-0.0174,0.01312,-0.00122,-0.00931,-0.01129,0.0061,-0.04166
3.933,0.00168,-0.03174,-0.02914,-0.00244,-0.06485,-0.04074,-0.01556,-0.00458,-0.0119,-0.01724,0.01297,-0.00153,-0.0148,-0.0145,0.00641,-0.04318
3.9335,0.00092,-0.03311,-0.03006,-0.00427,-0.06699,-0.04227,-0.01419,-0.00381,-0.01068,-0.01663,0.01099,-0.00107,-0.01892,-0.01572,0.00473,-0.04501
3.934,0.00153,-0.03525,-0.03021,-0.00626,-0.06256,-0.03891,-0.01266,-0.00351,-0.01053,-0.01816,0.00992,-0.00092,-0.02136,-0.0174,0.00381,-0.04593
3.9345,0.00107,-0.03769,-0.03006,-0.00671,-0.05219,-0.03326,-0.01175,-0.00427,-0.01022,-0.01892,0.01038,-0.00092,-0.02655,-0.01984,0.0061,-0.04547
3.935,0.00076,-0.03799,-0.02991,-0.00717,-0.03937,-0.0293,-0.01144,-0.00458,-0.01083,-0.01801,0.00992,-0.00076,-0.03586,-0.02167,0.00748,-0.04395
3.9355,0.00061,-0.03738,-0.03021,-0.00656,-0.0293,-0.03052,-0.01282,-0.00381,-0.01236,-0.01801,0.00977,-0.00092,-0.04684,-0.02228,0.00595,-0.04257
3.936,-0.00076,-0.03754,-0.02884,-0.00427,-0.02533,-0.03387,-0.01373,-0.0032,-0.01511,-0.01785,0.00885,-0.00214,-0.05508,-0.01999,0.00427,-0.04242
3.9365,-0.00275,-0.0386,-0.02899,-0.00259,-0.02884,-0.03647,-0.01328,-0.00275,-0.01678,-0.01984,0.00809,-0.00244,-0.05768,-0.01434,0.00092,-0.0415
3.937,-0.00336,-0.03922,-0.02914,-0.00122,-0.03983,-0.03937,-0.01572,-0.00336,-0.01663,-0.02121,0.00763,-0.00183,-0.05585,-0.00748,0.00015,-0.04166
3.9375,-0.00168,-0.03723,-0.02869,-0.00168,-0.05371,-0.0441,-0.02213,-0.00443,-0.01556,-0.02167,0.00763,-0.00153,-0.05188,-0.00534,0.0,-0.04272
3.938,-0.00092,-0.0351,-0.02914,-0.00183,-0.06668,-0.04974,-0.03174,-0.00626,-0.01297,-0.0206,0.00854,-0.00183,-0.04669,-0.01053,0.00305,-0.0441
3.9385,-0.00107,-0.03555,-0.02975,-0.00092,-0.07614,-0.05402,-0.03571,-0.00702,-0.01144,-0.01999,0.01022,-0.00351,-0.0415,-0.01801,0.00809,-0.04395
3.939,-0.00305,-0.03876,-0.03067,0.0,-0.07843,-0.05615,-0.03387,-0.00626,-0.0116,-0.01953,0.01068,-0.00381,-0.03937,-0.01892,0.01007,-0.04318
3.9395,-0.00336,-0.04135,-0.03021,-0.00046,-0.07202,-0.056,-0.0322,-0.0029,-0.01236,-0.01816,0.01053,-0.0029,-0.03998,-0.01175,0.00595,-0.04074
3.94,-0.00244,-0.04028,-0.02869,-0.00092,-0.06042,-0.05615,-0.03616,-0.00122,-0.01175,-0.01724,0.0116,-0.00153,-0.04074,-0.00412,0.0,-0.03906
3.9405,-0.00168,-0.03784,-0.02823,-0.00305,-0.04822,-0.05676,-0.04227,-0.00137,-0.01022,-0.01709,0.01358,-0.00183,-0.04013,-0.00229,-0.00244,-0.03769
3.941,-0.00183,-0.03693,-0.02808,-0.00458,-0.03723,-0.056,-0.0441,-0.00259,-0.00916,-0.01694,0.01511,-0.00305,-0.03922,-0.00534,0.00122,-0.03799
3.9415,-0.00137,-0.03815,-0.02792,-0.00534,-0.02777,-0.05341,-0.03998,-0.00305,-0.00916,-0.01648,0.0148,-0.00381,-0.03967,-0.01419,0.0087,-0.03967
3.942,-0.00244,-0.03998,-0.0267,-0.00534,-0.01984,-0.04761,-0.0264,-0.00214,-0.01022,-0.01724,0.0148,-0.00305,-0.03998,-0.02899,0.0145,-0.04242
3.9425,-0.00412,-0.04486,-0.02533,-0.00458,-0.0116,-0.0415,0.00809,-0.00046,-0.01022,-0.01831,0.01404,-0.00183,-0.04044,-0.04684,0.01495,-0.04639
3.943,-0.00473,-0.04974,-0.02502,-0.00412,-0.00351,-0.03677,0.05936,0.00015,-0.00961,-0.01953,0.01343,-0.00137,-0.0386,-0.05219,0.01221,-0.05173
3.9435,-0.00488,-0.05219,-0.02609,-0.00565,0.00443,-0.03479,0.08972,0.00046,-0.01022,-0.01907,0.01266,-0.00122,-0.03418,-0.03922,0.00824,-0.05737
3.944,-0.00565,-0.0499,-0.0267,-0.00885,0.01175,-0.03357,0.06485,0.00031,-0.01099,-0.01877,0.01205,-0.00214,-0.02945,-0.0209,0.00473,-0.06027
3.9445,-0.00626,-0.04791,-0.02777,-0.01144,0.01617,-0.03143,0.00565,0.00015,-0.01129,-0.01709,0.01236,-0.00275,-0.02548,-0.01221,0.00656,-0.06256
3.945,-0.00626,-0.04623,-0.0267,-0.01068,0.01831,-0.03021,-0.03113,0.0,-0.01129,-0.01495,0.01373,-0.00183,-0.02411,-0.01373,0.01022,-0.06454
3.9455,-0.00549,-0.04471,-0.02594,-0.009,0.01694,-0.03128,-0.02594,-0.00214,-0.01099,-0.01556,0.01816,0.00076,-0.0235,-0.0174,0.01175,-0.0647
3.946,-0.00458,-0.04135,-0.02686,-0.00916,0.01282,-0.0354,-0.00778,-0.00351,-0.01205,-0.01709,0.03036,0.00214,-0.02487,-0.01953,0.00717,-0.0589
3.9465,-0.00488,-0.03738,-0.02777,-0.01053,0.009,-0.03998,-0.00473,-0.00519,-0.01312,-0.01862,0.05981,0.00259,-0.02594,-0.01999,-0.00183,-0.04532
3.947,-0.0058,-0.03326,-0.02838,-0.01129,0.00229,-0.04227,-0.01266,-0.00488,-0.01373,-0.01755,0.09964,0.00198,-0.0267,-0.0209,-0.00702,-0.02655
3.9475,-0.00702,-0.03036,-0.02899,-0.01144,-0.01144,-0.04379,-0.01617,-0.00427,-0.01389,-0.01648,0.11978,0.00168,-0.02823,-0.01968,-0.00153,-0.00671
3.948,-0.00671,-0.02991,-0.02747,-0.0119,-0.03708,-0.04547,-0.01419,-0.00397,-0.01282,-0.01511,0.09644,0.00122,-0.03143,-0.01801,0.01068,-0.00015
3.9485,-0.0058,-0.03128,-0.0267,-0.01511,-0.07416,-0.04623,-0.01221,-0.00687,-0.01328,-0.0145,0.0444,0.0,-0.0354,-0.0177,0.01923,-0.00961
3.949,-0.00565,-0.03296,-0.02655,-0.01862,-0.10986,-0.04745,-0.01251,-0.01236,-0.01373,-0.01465,-0.00153,-0.00168,-0.03571,-0.01724,0.01648,-0.0267
3.9495,-0.00717,-0.03174,-0.02563,-0.01877,-0.12451,-0.04944,-0.01343,-0.0174,-0.0145,-0.01419,-0.02625,-0.00153,-0.03296,-0.01526,0.00641,-0.03937
3.95,-0.00839,-0.02884,-0.02441,-0.01526,-0.10895,-0.04852,-0.01312,-0.01831,-0.01526,-0.01358,-0.03586,0.00061,-0.0296,-0.01068,-0.00015,-0.04181
3.9505,-0.00824,-0.0264,-0.02502,-0.01144,-0.07446,-0.04486,-0.01343,-0.0174,-0.01678,-0.01389,-0.04059,0.00153,-0.02823,-0.00854,-0.00015,-0.04028
3.951,-0.00671,-0.02563,-0.02472,-0.01129,-0.04486,-0.03998,-0.01312,-0.01694,-0.01785,-0.01389,-0.03845,0.00031,-0.02747,-0.01007,0.00381,-0.04074
3.9515,-0.00473,-0.02533,-0.02487,-0.01434,-0.03189,-0.03723,-0.01251,-0.01816,-0.01801,-0.0119,-0.02716,-0.00015,-0.02838,-0.01373,0.0058,-0.04211
3.952,-0.00412,-0.02502,-0.02426,-0.01587,-0.02731,-0.03693,-0.01297,-0.0177,-0.01938,-0.01083,-0.01282,-0.00092,-0.02945,-0.01633,0.0058,-0.04242
3.9525,-0.00488,-0.02396,-0.02487,-0.01526,-0.02121,-0.03738,-0.01251,-0.00717,-0.02014,-0.01099,-0.00198,-0.00183,-0.03143,-0.0174,0.00778,-0.0441
3.953,-0.00534,-0.02396,-0.02609,-0.0145,-0.01236,-0.03876,-0.01358,0.01312,-0.01953,-0.01099,0.00488,-0.0032,-0.03235,-0.01663,0.01099,-0.04807
3.9535,-0.00504,-0.02625,-0.02777,-0.01602,-0.009,-0.03983,-0.0145,0.03494,-0.01678,-0.01038,0.00885,-0.00275,-0.03082,-0.01602,0.01266,-0.05386
3.954,-0.00458,-0.03036,-0.03128,-0.01831,-0.01129,-0.0415,-0.01587,0.04349,-0.01495,-0.01328,0.01343,-0.00198,-0.02838,-0.01617,0.01099,-0.06027
3.9545,-0.00565,-0.0354,-0.03464,-0.02045,-0.01297,-0.04288,-0.01694,0.03326,-0.01556,-0.01602,0.0174,-0.00198,-0.02686,-0.01602,0.00824,-0.06348
3.955,-0.00748,-0.03952,-0.03632,-0.02014,-0.00977,-0.04425,-0.01694,0.01434,-0.01694,-0.01907,0.01907,-0.00229,-0.02716,-0.01694,0.00595,-0.05493
3.9555,-0.00916,-0.04288,-0.03845,-0.01938,-0.00565,-0.04333,-0.01633,0.00122,-0.01678,-0.01953,0.01892,-0.00229,-0.02853,-0.01755,0.00549,-0.03448
3.956,-0.01068,-0.04608,-0.04044,-0.01724,-0.00732,-0.0415,-0.01862,-0.00229,-0.01465,-0.01816,0.0174,-0.00183,-0.02853,-0.01801,0.00702,-0.0206
3.9565,-0.01114,-0.04913,-0.04196,-0.01587,-0.02335,-0.03952,-0.0209,-0.00031,-0.01373,-0.01862,0.01724,-0.00061,-0.02945,-0.01816,0.00641,-0.02365
3.957,-0.01129,-0.05127,-0.04303,-0.01266,-0.05142,-0.03799,-0.0206,0.00137,-0.01602,-0.02014,0.02029,0.00061,-0.03143,-0.0177,0.0058,-0.0354
3.9575,-0.00977,-0.05066,-0.04257,-0.00946,-0.0766,-0.03723,-0.01923,0.00122,-0.01923,-0.01984,0.02487,0.00061,-0.03296,-0.0177,0.0032,-0.0415
3.958,-0.00793,-0.04883,-0.04364,-0.00916,-0.08041,-0.03998,-0.01831,-0.00198,-0.01999,-0.01999,0.0264,0.00061,-0.03296,-0.01801,0.00336,-0.03906
3.9585,-0.00626,-0.04929,-0.04517,-0.01129,-0.05859,-0.04105,-0.01862,-0.00443,-0.01846,-0.0209,0.02136,0.00122,-0.03326,-0.01892,0.00473,-0.03799
3.959,-0.00702,-0.05188,-0.04578,-0.01144,-0.02686,-0.04272,-0.01877,-0.00504,-0.01526,-0.02029,0.01221,0.00214,-0.03448,-0.02014,0.00488,-0.03891
3.9595,-0.00748,-0.0563,-0.04639,-0.0087,-0.00656,-0.04364,-0.01816,-0.00381,-0.01404,-0.01877,0.00427,0.00305,-0.03723,-0.0206,0.00534,-0.04013
3.96,-0.00626,-0.06226,-0.04868,-0.00656,-0.00275,-0.04318,-0.01556,-0.0029,-0.01358,-0.01556,0.00031,0.0032,-0.03937,-0.01999,0.00504,-0.04013
3.9605,-0.00351,-0.07141,-0.05173,-0.00778,-0.00748,-0.03891,-0.01434,-0.0032,-0.01297,-0.01465,0.00015,0.00275,-0.03998,-0.01984,0.00549,-0.03998
3.961,-0.00198,-0.07828,-0.05203,-0.01236,-0.01022,-0.03265,-0.01404,-0.00427,-0.01129,-0.01541,0.00214,0.0029,-0.0386,-0.02106,0.00397,-0.04059
3.9615,-0.00275,-0.07523,-0.04883,-0.01419,-0.01236,-0.03616,-0.01587,-0.00427,-0.00977,-0.01755,0.00504,0.00366,-0.03723,-0.02335,0.0029,-0.04181
3.962,-0.00534,-0.06226,-0.0441,-0.01144,-0.01785,-0.05707,-0.01755,-0.0029,-0.00839,-0.01831,0.00931,0.00366,-0.03601,-0.02502,0.00412,-0.04288
3.9625,-0.00793,-0.04547,-0.04105,-0.00839,-0.0264,-0.09323,-0.01816,-0.00168,-0.00916,-0.01755,0.01602,0.0029,-0.03525,-0.02472,0.00641,-0.0444
3.963,-0.00839,-0.03265,-0.03952,-0.0087,-0.03082,-0.13153,-0.01694,-0.00122,-0.01175,-0.01465,0.02319,0.00229,-0.03494,-0.02304,0.00824,-0.04547
3.9635,-0.00671,-0.02533,-0.03845,-0.01251,-0.03281,-0.14969,-0.01495,-0.00244,-0.01343,-0.01495,0.02869,0.00305,-0.03448,-0.02136,0.00824,-0.04501
3.964,-0.00549,-0.02487,-0.03677,-0.01556,-0.03479,-0.13306,-0.0148,-0.00275,-0.01266,-0.01663,0.03311,0.0029,-0.03555,-0.02106,0.00763,-0.04395
3.9645,-0.00534,-0.02655,-0.03494,-0.01495,-0.03464,-0.09369,-0.01633,-0.00397,-0.0119,-0.01678,0.03723,0.00214,-0.03601,-0.0206,0.00732,-0.0441
3.965,-0.00626,-0.02457,-0.03235,-0.0119,-0.03143,-0.05966,-0.0177,-0.00504,-0.01312,-0.01648,0.0415,0.00229,-0.03555,-0.01938,0.00748,-0.04395
3.9655,-0.00717,-0.00992,-0.03082,-0.01114,-0.02792,-0.04608,-0.01801,-0.00595,-0.01526,-0.01495,0.04349,0.0032,-0.03479,-0.01862,0.00732,-0.04486
3.966,-0.00854,0.01175,-0.03174,-0.01251,-0.02655,-0.04517,-0.01709,-0.00595,-0.01617,-0.01373,0.04288,0.00458,-0.03281,-0.0174,0.00549,-0.04456
3.9665,-0.00946,0.01892,-0.03418,-0.0148,-0.02655,-0.04517,-0.01633,-0.00565,-0.01556,-0.01312,0.0412,0.00519,-0.02975,-0.01633,0.00534,-0.0441
3.967,-0.01022,-0.0029,-0.0354,-0.01572,-0.02899,-0.04242,-0.01465,-0.00473,-0.01648,-0.01434,0.04074,0.00443,-0.02686,-0.01617,0.0058,-0.04379
3.9675,-0.00946,-0.04318,-0.03769,-0.01541,-0.03448,-0.03998,-0.0145,-0.00458,-0.01923,-0.01419,0.04211,0.00458,-0.02502,-0.0174,0.00671,-0.04456
3.968,-0.00839,-0.07813,-0.03723,-0.01541,-0.04608,-0.03693,-0.01495,-0.00534,-0.02197,-0.01404,0.04211,0.00427,-0.02441,-0.01831,0.00656,-0.04532
3.9685,-0.0061,-0.09415,-0.03479,-0.01663,-0.05997,-0.03281,-0.01572,-0.00595,-0.02182,-0.01419,0.03937,0.0032,-0.02411,-0.01755,0.00717,-0.04425
3.969,-0.00488,-0.09476,-0.03128,-0.01831,-0.06363,-0.02991,-0.01617,-0.00565,-0.02106,-0.01434,0.03418,0.00198,-0.02289,-0.01648,0.00671,-0.04379
3.9695,-0.00534,-0.08865,-0.02777,-0.01709,-0.05447,-0.0296,-0.0148,-0.00534,-0.0209,-0.01526,0.02884,0.00336,-0.0209,-0.01556,0.00671,-0.04211
3.97,-0.00641,-0.07782,-0.0264,-0.01434,-0.04044,-0.0325,-0.01312,-0.00565,-0.02075,-0.01465,0.02411,0.00473,-0.0177,-0.01434,0.00702,-0.04257
3.9705,-0.00824,-0.06378,-0.02502,-0.01221,-0.03082,-0.03708,-0.01312,-0.00656,-0.02121,-0.01526,0.02213,0.00473,-0.01297,-0.00732,0.00748,-0.04349
3.971,-0.00961,-0.05051,-0.02182,-0.01221,-0.03189,-0.04135,-0.01373,-0.00656,-0.02182,-0.01587,0.02243,0.00305,-0.00397,-0.00122,0.00778,-0.04364
3.9715,-0.00839,-0.04089,-0.02502,-0.01236,-0.03555,-0.04486,-0.01358,-0.00534,-0.02121,-0.01572,0.0238,0.00137,0.00641,-0.00351,0.00854,-0.04227
3.972,-0.00687,-0.03281,-0.03754,-0.01251,-0.03403,-0.04623,-0.01389,-0.00397,-0.01938,-0.01602,0.02228,0.00015,0.01053,-0.01526,0.00946,-0.04089
3.9725,-0.00732,-0.02411,-0.05157,-0.01373,-0.02518,-0.04715,-0.01343,-0.00443,-0.01785,-0.01572,0.01587,-0.00076,0.00412,-0.0238,0.00961,-0.04166
3.973,-0.00961,-0.01831,-0.05814,-0.01373,-0.01419,-0.0473,-0.01373,-0.00488,-0.01785,-0.01678,0.00717,-0.00046,-0.01251,-0.02472,0.00992,-0.04272
3.9735,-0.0119,-0.01907,-0.056,-0.01373,-0.00992,-0.04578,-0.01404,-0.00473,-0.01816,-0.01801,-0.00275,-0.00107,-0.03387,-0.02243,0.00839,-0.04333
3.974,-0.01511,-0.02502,-0.05173,-0.01312,-0.01419,-0.04562,-0.01419,-0.00443,-0.01801,-0.01907,-0.0116,-0.00183,-0.05463,-0.0238,0.0087,-0.04196
3.9745,-0.01999,-0.03067,-0.0415,-0.01251,-0.0209,-0.04578,-0.01389,-0.00504,-0.01694,-0.01938,-0.02151,-0.0029,-0.0708,-0.02716,0.0087,-0.04135
3.975,-0.02441,-0.03357,-0.03357,-0.01068,-0.02228,-0.04608,-0.01434,-0.0058,-0.01404,-0.02151,-0.03113,-0.00351,-0.08057,-0.02777,0.00839,-0.04135
3.9755,-0.02518,-0.0354,-0.02991,-0.00977,-0.0145,-0.04745,-0.01389,-0.0058,-0.01114,-0.0235,-0.04013,-0.00305,-0.08621,-0.02472,0.00885,-0.04211
3.976,-0.02274,-0.03967,-0.03052,-0.01007,-0.00198,-0.04974,-0.01282,-0.00458,-0.009,-0.02518,-0.04333,-0.00275,-0.09003,-0.02243,0.00824,-0.04196
3.9765,-0.01877,-0.04288,-0.03235,-0.0116,0.00412,-0.0502,-0.0116,-0.00366,-0.00946,-0.02502,-0.03494,-0.00366,-0.08987,-0.01923,0.00977,-0.04242
3.977,-0.01526,-0.04288,-0.03342,-0.0116,-0.00412,-0.04837,-0.01099,-0.00443,-0.01144,-0.02289,-0.00763,-0.00534,-0.0798,-0.01205,0.00931,-0.04272
3.9775,-0.01297,-0.0412,-0.03525,-0.01144,-0.02762,-0.04593,-0.0116,-0.00626,-0.01297,-0.01953,0.02853,-0.0061,-0.06363,-0.00381,0.00885,-0.04196
3.978,-0.01007,-0.04181,-0.03738,-0.01282,-0.05371,-0.04471,-0.01221,-0.00763,-0.01389,-0.01709,0.04272,-0.00397,-0.05066,-0.00137,0.00885,-0.04074
3.9785,-0.00702,-0.04379,-0.03906,-0.01404,-0.06744,-0.04364,-0.0119,-0.00732,-0.01419,-0.01648,0.01358,-0.00076,-0.04593,-0.00778,0.0087,-0.03983
3.979,-0.00534,-0.04501,-0.03891,-0.01465,-0.0679,-0.04364,-0.01312,-0.00671,-0.01465,-0.01938,-0.04349,0.00015,-0.04593,-0.01373,0.00839,-0.04059
