time,RectFemL,VastusMedL,VastusLatL,TibAntL,HamMedL,HamLatL,GastroMedL,GastroLatL,RectFemR,VastusMedR,VastusLatR,TibAntR,HamMedR,HamLatR,GastroMedR,GastroLatR
7.6,0.00275,0.00931,-0.07767,0.01816,-0.01953,-0.03754,-0.01175,-0.00504,0.00305,-0.11108,-0.12772,-0.20691,-0.02472,-0.01923,0.00717,-0.03418
7.6005,0.00488,0.00031,-0.08392,-0.0209,-0.01907,-0.0383,-0.01175,-0.00412,0.00092,-0.11337,-0.18127,0.00351,-0.02762,-0.01312,0.00732,-0.03372
7.601,0.00671,-0.00961,-0.08606,-0.01129,-0.02106,-0.03983,-0.01312,-0.00275,0.00092,-0.1091,-0.23758,0.17914,-0.02899,-0.00763,0.009,-0.03387
7.6015,0.01038,-0.01572,-0.08331,0.05356,-0.02274,-0.03998,-0.01556,-0.00092,0.00275,-0.09521,-0.25009,0.27283,-0.02762,-0.00336,0.00977,-0.03464
7.602,0.0116,-0.01785,-0.07797,0.12741,-0.02441,-0.0383,-0.01678,0.00076,0.00122,-0.07874,-0.21439,0.28122,-0.02686,0.00046,0.0087,-0.03586
7.6025,0.00946,-0.02014,-0.06882,0.1561,-0.02533,-0.03723,-0.01602,0.00031,-0.0058,-0.07324,-0.16281,0.22232,-0.02869,0.00381,0.00565,-0.03983
7.603,0.00458,-0.0238,-0.05875,0.12543,-0.02335,-0.03784,-0.01312,-0.00015,-0.01617,-0.08392,-0.11414,0.13458,-0.03159,0.00595,0.00443,-0.04471
7.6035,0.0,-0.02762,-0.04868,0.05997,-0.02457,-0.03906,-0.01114,-0.00061,-0.02472,-0.09323,-0.06805,0.07126,-0.03326,0.00519,0.00488,-0.04898
7.604,-0.00473,-0.02945,-0.04135,-0.01007,-0.02625,-0.03922,-0.01099,-0.00092,-0.03098,-0.08316,-0.03052,0.04959,-0.03403,0.00351,0.00656,-0.05234
7.6045,-0.01007,-0.02914,-0.03418,-0.0621,-0.02792,-0.03998,-0.01297,-0.00061,-0.03906,-0.05341,-0.00534,0.03052,-0.03464,0.00153,0.00443,-0.05493
7.605,-0.01434,-0.02991,-0.02884,-0.09048,-0.02899,-0.0412,-0.0148,0.00031,-0.04944,-0.01968,0.01602,-0.01724,-0.03647,0.00092,0.00061,-0.05585
7.6055,-0.01465,-0.03403,-0.02533,-0.10071,-0.02869,-0.04227,-0.01541,0.00153,-0.05585,0.01022,0.05051,-0.06058,-0.03784,-0.00092,-0.00244,-0.056
7.606,-0.0116,-0.0383,-0.0235,-0.12161,-0.02945,-0.04395,-0.01404,0.00153,-0.05356,0.03967,0.09644,-0.04669,-0.0383,-0.00336,-0.0029,-0.05447
7.6065,-0.00809,-0.04196,-0.02319,-0.19882,-0.02853,-0.04623,-0.01175,0.00351,-0.04318,0.07523,0.13336,0.02731,-0.03754,-0.00641,-0.00137,-0.05234
7.607,-0.00748,-0.04517,-0.02304,-0.35141,-0.02914,-0.04745,-0.01022,0.00549,-0.03143,0.10849,0.14603,0.10773,-0.03616,-0.00916,0.00031,-0.04761
7.6075,-0.009,-0.04791,-0.02029,-0.52979,-0.02914,-0.047,-0.01022,0.00641,-0.01984,0.12711,0.12894,0.14725,-0.03586,-0.01282,0.00381,-0.04318
7.608,-0.00885,-0.05005,-0.01602,-0.63507,-0.02945,-0.04745,-0.01022,0.0058,-0.00824,0.12695,0.08194,0.14984,-0.0354,-0.01648,0.00763,-0.03769
7.6085,-0.00854,-0.05829,-0.01511,-0.59052,-0.02884,-0.04837,-0.01007,0.00381,0.00092,0.11627,0.02045,0.15198,-0.03525,-0.01907,0.01251,-0.03525
7.609,-0.0119,-0.08179,-0.01648,-0.38696,-0.02884,-0.04929,-0.01007,0.00122,0.0061,0.1033,-0.02335,0.16174,-0.03494,-0.01938,0.01572,-0.03143
7.6095,-0.0177,-0.12314,-0.01617,-0.09705,-0.03082,-0.04868,-0.01022,-0.00076,0.00443,0.08926,-0.02884,0.15213,-0.03418,-0.01892,0.0174,-0.02853
7.61,-0.01968,-0.16571,-0.01175,0.13519,-0.03326,-0.04776,-0.0116,-0.00229,-0.00198,0.07385,-0.01724,0.10406,-0.03372,-0.01846,0.01831,-0.02548
7.6105,-0.01877,-0.19135,-0.00122,0.17014,-0.03448,-0.04669,-0.01205,-0.0029,-0.0058,0.05707,-0.02762,0.04349,-0.03113,-0.02106,0.01755,-0.02441
7.611,-0.02121,-0.18707,0.01099,-0.02823,-0.0351,-0.04623,-0.01266,-0.00397,-0.00336,0.04059,-0.06973,-0.00351,-0.02777,-0.02457,0.01633,-0.02686
7.6115,-0.02747,-0.15121,0.02838,-0.34561,-0.03586,-0.04608,-0.01404,-0.00687,0.00198,0.02304,-0.11749,-0.0473,-0.02548,-0.0264,0.01251,-0.03128
7.612,-0.03082,-0.09491,0.04761,-0.578,-0.03632,-0.04684,-0.01556,-0.009,0.00549,-0.00015,-0.14648,-0.07568,-0.02441,-0.02518,0.00885,-0.03784
7.6125,-0.0238,-0.03723,0.06134,-0.569,-0.03601,-0.04608,-0.01526,-0.01053,0.00473,-0.03326,-0.15457,-0.04364,-0.0238,-0.02411,0.00549,-0.04242
7.613,-0.00885,-0.00183,0.06149,-0.29114,-0.0354,-0.04562,-0.01404,-0.01053,0.00366,-0.06714,-0.15518,0.01648,-0.02365,-0.0235,0.00275,-0.04608
7.6135,0.00198,0.00641,0.04791,0.15732,-0.03571,-0.04639,-0.01266,-0.01099,0.00351,-0.0827,-0.15839,-0.01801,-0.02563,-0.02228,0.00107,-0.05051
7.614,-0.00336,0.00473,0.02869,0.57648,-0.03738,-0.04745,-0.01205,-0.01175,0.00183,-0.07172,-0.16769,-0.16891,-0.02747,-0.01862,0.0,-0.05417
7.6145,-0.01938,0.01175,0.00793,0.76691,-0.03693,-0.04898,-0.01266,-0.01297,-0.00595,-0.04745,-0.17899,-0.30106,-0.02777,-0.01312,-0.00031,-0.05539
7.615,-0.03036,0.02701,-0.01434,0.6955,-0.03601,-0.04913,-0.01282,-0.01373,-0.0148,-0.03036,-0.18463,-0.31586,-0.02747,-0.00793,0.00046,-0.05371
7.6155,-0.02762,0.0412,-0.04318,0.53024,-0.03601,-0.04761,-0.01312,-0.01343,-0.01633,-0.02594,-0.17609,-0.24963,-0.02716,-0.00702,0.0032,-0.05112
7.616,-0.0206,0.04913,-0.07813,0.43365,-0.03647,-0.04517,-0.01404,-0.01144,-0.0087,-0.02457,-0.15335,-0.16388,-0.02899,-0.00946,0.00473,-0.04959
7.6165,-0.0209,0.05157,-0.10574,0.40375,-0.03662,-0.0441,-0.01358,-0.01007,0.00015,-0.02319,-0.12451,-0.07935,-0.03036,-0.0116,0.00702,-0.04913
7.617,-0.02548,0.04822,-0.11108,0.35645,-0.0354,-0.0441,-0.01221,-0.00809,0.0029,-0.02319,-0.09781,-0.02075,-0.0322,-0.01129,0.00839,-0.04837
7.6175,-0.02884,0.03876,-0.09033,0.27496,-0.03372,-0.04807,-0.01221,-0.00702,0.00259,-0.02655,-0.07675,-0.00977,-0.03296,-0.0119,0.00748,-0.04868
7.618,-0.02563,0.0264,-0.06287,0.20309,-0.03403,-0.05066,-0.01205,-0.00626,0.00275,-0.03113,-0.06317,-0.0264,-0.03357,-0.01282,0.00504,-0.04898
7.6185,-0.01892,0.01419,-0.04517,0.16571,-0.03448,-0.05188,-0.01297,-0.00534,0.00183,-0.03494,-0.05966,-0.04059,-0.03357,-0.01541,0.00137,-0.04898
7.619,-0.01495,0.00458,-0.04013,0.14679,-0.03601,-0.05081,-0.01297,-0.00412,-0.00168,-0.03799,-0.0621,-0.05157,-0.03342,-0.01785,0.00107,-0.04822
7.6195,-0.01434,-0.00198,-0.03967,0.12772,-0.03662,-0.05081,-0.01328,-0.00397,-0.00549,-0.03998,-0.06302,-0.05859,-0.03235,-0.01785,-0.00031,-0.04852
7.62,-0.01251,-0.00702,-0.03983,0.10773,-0.03586,-0.0502,-0.01328,-0.00381,-0.00854,-0.04196,-0.05646,-0.03784,-0.03143,-0.01572,0.00015,-0.04822
7.6205,-0.00671,-0.01175,-0.04364,0.08835,-0.03464,-0.0499,-0.01312,-0.00305,-0.01114,-0.04227,-0.04654,0.009,-0.0322,-0.01602,0.00122,-0.04807
7.621,0.0,-0.01785,-0.05112,0.07278,-0.03296,-0.05081,-0.01343,-0.00153,-0.01328,-0.04257,-0.03601,0.04303,-0.03342,-0.01709,0.00259,-0.04684
7.6215,0.00076,-0.02441,-0.05875,0.05814,-0.03189,-0.05234,-0.01343,-0.00046,-0.01282,-0.04288,-0.02472,0.04089,-0.03433,-0.01678,0.00458,-0.04517
7.622,-0.00443,-0.02869,-0.06561,0.04242,-0.03204,-0.05325,-0.01358,-0.00015,-0.01282,-0.04166,-0.01404,0.02777,-0.0354,-0.01389,0.00519,-0.04379
7.6225,-0.00931,-0.0322,-0.07324,0.02487,-0.03281,-0.05432,-0.01373,-0.00137,-0.01434,-0.03952,-0.00748,0.03494,-0.03632,-0.00992,0.00488,-0.04181
7.623,-0.00885,-0.0354,-0.0795,0.00946,-0.03082,-0.05447,-0.01328,-0.00275,-0.01709,-0.03693,-0.00519,0.05325,-0.03723,-0.00717,0.00534,-0.04074
7.6235,-0.00336,-0.04105,-0.08453,-0.00076,-0.02884,-0.05402,-0.01328,-0.00259,-0.0177,-0.03555,-0.00473,0.05661,-0.03754,-0.00702,0.00671,-0.04059
7.624,0.00122,-0.04959,-0.08774,-0.00931,-0.02762,-0.05234,-0.01251,-0.00076,-0.01526,-0.03418,-0.00275,0.04257,-0.03754,-0.00824,0.00732,-0.03998
7.6245,0.00153,-0.06256,-0.08575,-0.01862,-0.02686,-0.05203,-0.01266,0.00076,-0.01251,-0.03128,-0.00122,0.02838,-0.03845,-0.00824,0.00702,-0.03952
7.625,0.00122,-0.07858,-0.07767,-0.02838,-0.02777,-0.05096,-0.01175,0.00061,-0.01343,-0.02121,0.00092,0.02304,-0.03998,-0.00748,0.00702,-0.0386
7.6255,0.00397,-0.09033,-0.06393,-0.03494,-0.02823,-0.04898,-0.0119,-0.00092,-0.01602,-0.00015,0.00916,0.02228,-0.04196,-0.00732,0.00778,-0.0386
7.626,0.009,-0.08972,-0.04868,-0.03998,-0.02823,-0.047,-0.01221,-0.00137,-0.01877,0.02335,0.02502,0.02029,-0.04379,-0.00992,0.00793,-0.03845
7.6265,0.01297,-0.07828,-0.03799,-0.04349,-0.02838,-0.04471,-0.01312,-0.00168,-0.01984,0.03571,0.04425,0.01724,-0.04425,-0.01221,0.00671,-0.03906
7.627,0.01419,-0.06226,-0.02899,-0.04669,-0.02853,-0.04211,-0.0119,-0.00168,-0.01892,0.03174,0.06165,0.0116,-0.04456,-0.01221,0.00748,-0.03937
7.6275,0.01617,-0.0502,-0.02289,-0.05035,-0.03006,-0.04028,-0.0116,-0.00244,-0.01724,0.02045,0.07629,0.00565,-0.04486,-0.01099,0.00885,-0.04059
7.628,0.01709,-0.04456,-0.01846,-0.05524,-0.03082,-0.03967,-0.01099,-0.00229,-0.01678,0.01602,0.08942,0.00305,-0.04501,-0.01114,0.00977,-0.04074
7.6285,0.01373,-0.04044,-0.01099,-0.06241,-0.03159,-0.04242,-0.0116,-0.00259,-0.01862,0.01907,0.09705,0.00656,-0.04532,-0.0119,0.01022,-0.04074
7.629,0.00824,-0.03647,0.00198,-0.07034,-0.03098,-0.04547,-0.01266,-0.00305,-0.0235,0.01556,0.09933,0.01129,-0.04578,-0.0119,0.01068,-0.04044
7.6295,0.0058,-0.03265,0.02472,-0.07904,-0.03098,-0.04776,-0.01328,-0.00244,-0.02914,-0.00671,0.10071,0.01129,-0.04532,-0.01053,0.01114,-0.04013
7.63,0.01129,-0.0354,0.04852,-0.10086,-0.03128,-0.04822,-0.01328,-0.00168,-0.03235,-0.04471,0.10544,0.0087,-0.04395,-0.00961,0.01007,-0.03937
7.6305,0.02029,-0.05249,0.05615,-0.159,-0.03098,-0.04852,-0.01328,-0.00092,-0.03189,-0.07721,0.11169,0.00809,-0.04288,-0.00961,0.00824,-0.03952
7.631,0.02579,-0.07828,0.04227,-0.25055,-0.03067,-0.04913,-0.0119,-0.00168,-0.02869,-0.0795,0.12085,0.00916,-0.04135,-0.01068,0.00778,-0.03952
7.6315,0.02518,-0.09369,0.02396,-0.33112,-0.0296,-0.04913,-0.01083,-0.0029,-0.02823,-0.05219,0.13138,0.01053,-0.03983,-0.01221,0.00793,-0.03906
7.632,0.02029,-0.08316,0.02274,-0.3447,-0.0293,-0.04807,-0.01068,-0.0032,-0.03296,-0.01755,0.14572,0.00916,-0.03891,-0.01297,0.00854,-0.0386
7.6325,0.01465,-0.0618,0.04303,-0.28885,-0.03021,-0.04807,-0.0119,-0.00244,-0.03983,0.00595,0.16525,0.0061,-0.03891,-0.01358,0.00961,-0.03845
7.633,0.00732,-0.06622,0.06195,-0.19638,-0.03113,-0.04929,-0.01266,-0.00244,-0.04349,0.01755,0.18341,0.00443,-0.03784,-0.01312,0.00961,-0.03952
7.6335,-0.00259,-0.11292,0.06165,-0.07721,-0.03143,-0.05096,-0.01282,-0.00275,-0.04044,0.02716,0.19592,0.00412,-0.03601,-0.01389,0.00885,-0.04044
7.634,-0.01251,-0.17319,0.05295,0.07507,-0.03189,-0.05203,-0.01251,-0.00275,-0.03601,0.03784,0.1973,0.00458,-0.03387,-0.01511,0.00687,-0.03891
7.6345,-0.01709,-0.20737,0.04807,0.22079,-0.03265,-0.05356,-0.01205,-0.00275,-0.03632,0.04822,0.18875,0.00458,-0.03326,-0.01709,0.00656,-0.03769
7.635,-0.01404,-0.20966,0.03983,0.27283,-0.03433,-0.05524,-0.01282,-0.00229,-0.03967,0.0531,0.16846,0.00366,-0.03311,-0.01999,0.00778,-0.03891
7.6355,-0.00717,-0.2005,0.00916,0.20309,-0.03571,-0.05676,-0.01419,-0.00275,-0.04089,0.04883,0.13687,0.00153,-0.03204,-0.02457,0.00885,-0.04059
7.636,-0.0032,-0.19638,-0.03784,0.0853,-0.03677,-0.05737,-0.0145,-0.00427,-0.04013,0.03372,0.09964,0.00122,-0.03067,-0.02884,0.00839,-0.04196
7.6365,-0.00656,-0.19394,-0.07965,0.00839,-0.03632,-0.05737,-0.01419,-0.00427,-0.03998,0.00916,0.06958,0.00153,-0.02884,-0.03448,0.00763,-0.04211
7.637,-0.01434,-0.17365,-0.10605,-0.01221,-0.0354,-0.0592,-0.01389,-0.00412,-0.04013,-0.01846,0.05676,0.00229,-0.02823,-0.03952,0.00885,-0.04211
7.6375,-0.02182,-0.11703,-0.12131,-0.00549,-0.03571,-0.05981,-0.01495,-0.00366,-0.03937,-0.03799,0.05981,0.0029,-0.02777,-0.04318,0.01114,-0.04181
7.638,-0.02533,-0.03082,-0.13458,0.00992,-0.0354,-0.05981,-0.01556,-0.00443,-0.03784,-0.04501,0.06363,0.00336,-0.02655,-0.04425,0.01282,-0.0412
7.6385,-0.02228,0.04837,-0.15167,0.02869,-0.0351,-0.05905,-0.01602,-0.00473,-0.03799,-0.04211,0.05173,0.00488,-0.0238,-0.04196,0.01236,-0.04059
7.639,-0.01663,0.09323,-0.17151,0.03494,-0.03433,-0.05844,-0.01556,-0.00534,-0.03693,-0.03525,0.01099,0.00778,-0.02136,-0.03708,0.01022,-0.04089
7.6395,-0.01389,0.10834,-0.18768,0.01389,-0.03265,-0.05585,-0.01404,-0.00443,-0.03479,-0.0296,-0.05737,0.01129,-0.01907,-0.03357,0.00946,-0.0412
7.64,-0.01694,0.11139,-0.19043,-0.02426,-0.03052,-0.05341,-0.01297,-0.0029,-0.03082,-0.0264,-0.13947,0.01328,-0.01694,-0.03326,0.01053,-0.04059
7.6405,-0.02258,0.10941,-0.18005,-0.05692,-0.02884,-0.05173,-0.01373,-0.00198,-0.02838,-0.0235,-0.21362,0.01129,-0.01694,-0.03418,0.01068,-0.03983
7.641,-0.02487,0.10223,-0.16495,-0.07797,-0.0267,-0.05142,-0.01526,-0.00229,-0.02579,-0.01953,-0.25848,0.00504,-0.0177,-0.03403,0.01099,-0.04059
7.6415,-0.0209,0.09277,-0.15152,-0.09369,-0.0235,-0.05325,-0.01587,-0.0032,-0.02243,-0.01343,-0.26749,-0.00381,-0.01923,-0.03342,0.00961,-0.04105
7.642,-0.01099,0.08331,-0.13855,-0.10864,-0.02121,-0.05341,-0.01465,-0.00336,-0.0174,-0.00717,-0.25894,-0.01587,-0.02045,-0.03357,0.00824,-0.0412
7.6425,0.00061,0.07141,-0.12558,-0.12054,-0.01953,-0.05417,-0.01404,-0.00397,-0.01312,-0.00275,-0.26169,-0.03906,-0.02228,-0.03403,0.00732,-0.04044
7.643,0.01114,0.05615,-0.1152,-0.12451,-0.01984,-0.05386,-0.01404,-0.00443,-0.01083,-0.00092,-0.2771,-0.07782,-0.02365,-0.03235,0.00732,-0.04013
7.6435,0.01862,0.03754,-0.10925,-0.11246,-0.02121,-0.05295,-0.01511,-0.00534,-0.00931,-0.00259,-0.28687,-0.12222,-0.02502,-0.02747,0.00809,-0.04074
7.644,0.02396,0.01556,-0.10437,-0.07339,-0.02136,-0.05051,-0.01633,-0.00565,-0.0087,-0.00641,-0.27832,-0.14465,-0.02655,-0.02289,0.00809,-0.04105
7.6445,0.02701,-0.00534,-0.09445,-0.00778,-0.01999,-0.04669,-0.01541,-0.00534,-0.00793,-0.01129,-0.25711,-0.12299,-0.02853,-0.01938,0.00809,-0.04211
7.645,0.0296,-0.02045,-0.08057,0.05493,-0.02121,-0.04272,-0.01328,-0.00443,-0.00732,-0.01755,-0.23178,-0.06683,-0.0296,-0.01678,0.00732,-0.04318
7.6455,0.03082,-0.03067,-0.06287,0.07431,-0.02396,-0.04196,-0.0116,-0.00259,-0.00565,-0.02441,-0.20721,-0.00534,-0.03113,-0.01648,0.00732,-0.04257
7.646,0.02991,-0.03616,-0.0444,0.03723,-0.02579,-0.0412,-0.01175,-0.00198,-0.00504,-0.03036,-0.17838,0.04578,-0.03204,-0.01709,0.00946,-0.04135
7.6465,0.02762,-0.0386,-0.02747,-0.02747,-0.02609,-0.0415,-0.01236,-0.00092,-0.00671,-0.03632,-0.14465,0.08621,-0.03433,-0.01816,0.00977,-0.04089
7.647,0.02548,-0.03998,-0.01373,-0.08057,-0.02823,-0.03998,-0.01251,-0.00107,-0.01007,-0.04105,-0.11108,0.10193,-0.0351,-0.01694,0.00931,-0.04135
7.6475,0.02457,-0.04318,-0.0058,-0.10345,-0.03143,-0.04013,-0.01266,-0.00076,-0.01129,-0.04272,-0.08316,0.07477,-0.03647,-0.01434,0.00977,-0.04196
7.648,0.02167,-0.04608,-0.00336,-0.10162,-0.03387,-0.04135,-0.01373,-0.00137,-0.01022,-0.03937,-0.05615,0.02625,-0.0386,-0.01251,0.01022,-0.04318
7.6485,0.01724,-0.04868,-0.00168,-0.08957,-0.03571,-0.04166,-0.0148,-0.00137,-0.00778,-0.02945,-0.02258,0.00351,-0.04135,-0.01129,0.0087,-0.04364
7.649,0.01434,-0.05127,-0.00061,-0.08179,-0.03662,-0.04059,-0.01541,-0.00244,-0.0058,-0.01801,0.01556,0.01358,-0.04379,-0.00992,0.00717,-0.04318
7.6495,0.0148,-0.0531,0.00519,-0.09506,-0.03723,-0.03952,-0.0145,-0.00443,-0.00458,-0.01312,0.04822,0.01724,-0.04532,-0.00885,0.00687,-0.04166
7.65,0.01816,-0.05234,0.0116,-0.13275,-0.03876,-0.03845,-0.01373,-0.0058,-0.0029,-0.02213,0.06668,0.00168,-0.04608,-0.00916,0.00839,-0.04074
7.6505,0.01999,-0.05447,0.0148,-0.1767,-0.03906,-0.03998,-0.01419,-0.00443,-0.00214,-0.0499,0.07324,-0.00671,-0.047,-0.00946,0.01144,-0.04028
7.651,0.01862,-0.0679,0.01785,-0.19699,-0.03998,-0.04196,-0.0148,-0.00214,-0.00214,-0.09552,0.07706,-0.00427,-0.04807,-0.00977,0.01221,-0.04196
7.6515,0.01511,-0.09338,0.0296,-0.19196,-0.04074,-0.04395,-0.0145,-0.00076,-0.00061,-0.14709,0.08591,-0.00687,-0.04868,-0.00992,0.01099,-0.04227
7.652,0.00992,-0.10986,0.06668,-0.17807,-0.04166,-0.04547,-0.01434,-0.00275,0.00061,-0.18906,0.10178,-0.00214,-0.04898,-0.01099,0.01007,-0.04242
7.6525,0.00214,-0.09735,0.14374,-0.159,-0.04257,-0.04623,-0.01434,-0.00488,0.00275,-0.20676,0.11978,0.04364,-0.04852,-0.0116,0.01038,-0.04227
7.653,-0.00748,-0.06454,0.24063,-0.12619,-0.04181,-0.04715,-0.01556,-0.00443,0.00122,-0.2002,0.13382,0.10956,-0.047,-0.01068,0.01129,-0.04166
7.6535,-0.01648,-0.04303,0.30167,-0.08591,-0.04044,-0.047,-0.01602,-0.0029,-0.00458,-0.18204,0.14252,0.12817,-0.04395,-0.00916,0.01251,-0.04227
7.654,-0.02197,-0.05524,0.27832,-0.05783,-0.03769,-0.04654,-0.01465,-0.00198,-0.01038,-0.16296,0.14877,0.07324,-0.04196,-0.00854,0.01205,-0.04166
7.6545,-0.02365,-0.08575,0.1825,-0.04776,-0.03693,-0.04837,-0.01312,-0.00229,-0.01144,-0.13931,0.15747,0.00137,-0.04242,-0.01053,0.01099,-0.04089
7.655,-0.02487,-0.09674,0.07813,-0.03922,-0.03784,-0.0499,-0.01297,-0.0032,-0.00946,-0.10025,0.16983,-0.02594,-0.04242,-0.01129,0.00977,-0.04013
7.6555,-0.02457,-0.07294,0.01541,-0.01801,-0.03922,-0.05051,-0.01251,-0.00259,-0.00839,-0.04288,0.18326,-0.00854,-0.04089,-0.01068,0.00931,-0.04044
7.656,-0.02365,-0.03479,-0.01602,0.00595,-0.03708,-0.0499,-0.01312,-0.00305,-0.01068,0.01816,0.19089,0.01404,-0.03983,-0.01129,0.01007,-0.04166
7.6565,-0.02289,-0.00885,-0.05356,0.02014,-0.03571,-0.04883,-0.01328,-0.00443,-0.01572,0.06439,0.18631,0.02243,-0.03906,-0.01343,0.01007,-0.04257
7.657,-0.02213,-0.00214,-0.1088,0.02457,-0.0354,-0.0502,-0.01328,-0.00626,-0.02396,0.08545,0.16846,0.01968,-0.0386,-0.01572,0.009,-0.04288
7.6575,-0.02106,-0.00549,-0.15717,0.02914,-0.03601,-0.05051,-0.01404,-0.0058,-0.03326,0.0827,0.14694,0.00702,-0.03662,-0.01678,0.00793,-0.04303
7.658,-0.02075,-0.00854,-0.17365,0.03586,-0.03769,-0.04944,-0.01495,-0.00443,-0.0415,0.06683,0.13321,-0.01572,-0.03387,-0.01694,0.00793,-0.04379
7.6585,-0.02594,-0.01068,-0.15717,0.03998,-0.03891,-0.04822,-0.01572,-0.00305,-0.0473,0.05219,0.12589,-0.04028,-0.03113,-0.01846,0.00717,-0.04242
7.659,-0.03738,-0.01511,-0.11871,0.03891,-0.03952,-0.04761,-0.01541,-0.00275,-0.05112,0.04318,0.10422,-0.05264,-0.02823,-0.02289,0.00809,-0.03998
7.6595,-0.04959,-0.01816,-0.07874,0.03662,-0.03937,-0.04837,-0.01526,-0.00381,-0.05386,0.03403,0.04745,-0.05142,-0.02365,-0.02975,0.00931,-0.03723
7.66,-0.05569,-0.01465,-0.0592,0.04028,-0.03891,-0.04898,-0.01495,-0.00458,-0.05478,0.02106,-0.04425,-0.04608,-0.01862,-0.03754,0.01068,-0.03723
7.6605,-0.05234,-0.0119,-0.07126,0.05112,-0.03784,-0.04959,-0.0148,-0.00565,-0.05005,0.0177,-0.14725,-0.0412,-0.01373,-0.04303,0.01099,-0.03799
7.661,-0.04318,-0.02487,-0.10681,0.05905,-0.03632,-0.05142,-0.01465,-0.00443,-0.04059,0.02808,-0.22369,-0.03586,-0.01038,-0.04623,0.01129,-0.03891
7.6615,-0.03326,-0.0531,-0.15106,0.05569,-0.03586,-0.05493,-0.01419,-0.00305,-0.02548,0.04471,-0.2626,-0.03021,-0.00854,-0.047,0.01022,-0.03967
7.662,-0.02518,-0.07904,-0.19089,0.04669,-0.03677,-0.05753,-0.0145,-0.00183,-0.00809,0.04837,-0.28564,-0.02289,-0.00641,-0.0473,0.00931,-0.04196
7.6625,-0.02228,-0.08423,-0.21896,0.04547,-0.03372,-0.05859,-0.01419,-0.00183,0.01221,0.03937,-0.32013,-0.00793,-0.0058,-0.04807,0.00824,-0.04456
7.663,-0.02243,-0.07004,-0.22461,0.05646,-0.03143,-0.05539,-0.01358,-0.0032,0.0296,0.03326,-0.34882,0.00763,-0.00641,-0.04791,0.00732,-0.04456
7.6635,-0.02182,-0.05356,-0.20096,0.06729,-0.02853,-0.0502,-0.01266,-0.00412,0.03983,0.0322,-0.32242,0.00732,-0.00778,-0.04532,0.0058,-0.04379
7.664,-0.01907,-0.04745,-0.15381,0.06897,-0.02594,-0.04456,-0.0119,-0.00397,0.03876,0.02213,-0.21805,-0.00748,-0.00946,-0.03601,0.0061,-0.04379
7.6645,-0.01343,-0.05173,-0.10101,0.0618,-0.02365,-0.04181,-0.01328,-0.00275,0.03036,-0.00778,-0.07904,-0.01541,-0.0116,-0.02625,0.00687,-0.04517
7.665,-0.00717,-0.0589,-0.05798,0.05157,-0.02258,-0.03967,-0.01358,-0.00153,0.02228,-0.04395,0.02701,-0.00824,-0.01312,-0.0206,0.00854,-0.04578
7.6655,-0.00168,-0.06683,-0.0293,0.03952,-0.02319,-0.03906,-0.01297,-0.00092,0.01755,-0.0589,0.06363,0.00076,-0.01602,-0.01877,0.01022,-0.0444
7.666,0.00244,-0.07004,-0.01358,0.03098,-0.02426,-0.0386,-0.01221,-0.00229,0.01602,-0.04639,0.04028,0.00092,-0.01877,-0.01678,0.01099,-0.04333
7.6665,0.00458,-0.06866,-0.00473,0.02686,-0.02533,-0.03815,-0.01328,-0.00443,0.01419,-0.0296,-0.0058,-0.00122,-0.02167,-0.01221,0.01083,-0.04303
7.667,0.00427,-0.05981,-0.00351,0.0235,-0.02625,-0.03738,-0.01495,-0.00565,0.01617,-0.0322,-0.03754,-0.00031,-0.02426,-0.00549,0.01053,-0.04288
7.6675,0.00229,-0.04807,-0.00839,0.01022,-0.02853,-0.03799,-0.01465,-0.00473,0.02502,-0.06287,-0.04089,0.00137,-0.02777,0.00031,0.00931,-0.04272
7.668,0.00168,-0.0383,-0.01495,-0.01144,-0.03006,-0.03952,-0.01404,-0.00336,0.03998,-0.11719,-0.02945,0.00015,-0.03159,0.00092,0.00977,-0.04227
7.6685,0.00641,-0.03357,-0.01862,-0.02869,-0.03174,-0.04105,-0.01358,-0.0029,0.05096,-0.18326,-0.0264,-0.0032,-0.03342,-0.00153,0.01099,-0.04257
7.669,0.01801,-0.03159,-0.01816,-0.02838,-0.03204,-0.04181,-0.01434,-0.00366,0.047,-0.23743,-0.03601,-0.00641,-0.03479,-0.00473,0.0116,-0.04257
7.6695,0.03265,-0.03052,-0.01587,-0.009,-0.03128,-0.04105,-0.01404,-0.00305,0.03082,-0.2565,-0.04883,-0.00687,-0.03601,-0.00549,0.01068,-0.04166
7.67,0.04349,-0.02777,-0.01495,0.0116,-0.03159,-0.0412,-0.01297,-0.00229,0.00839,-0.23544,-0.05371,-0.00626,-0.03799,-0.0058,0.00931,-0.03876
7.6705,0.04395,-0.02472,-0.0148,0.02029,-0.03281,-0.03998,-0.01328,-0.00244,-0.01389,-0.19547,-0.04364,-0.00488,-0.03906,-0.00717,0.0087,-0.03708
7.671,0.03967,-0.02335,-0.01511,0.01968,-0.03403,-0.03845,-0.01465,-0.00351,-0.0322,-0.15884,-0.01862,-0.00412,-0.03998,-0.00824,0.00702,-0.03738
7.6715,0.03799,-0.02396,-0.01495,0.01968,-0.03525,-0.03723,-0.01572,-0.00381,-0.04395,-0.12314,0.01114,-0.00229,-0.04059,-0.0087,0.00687,-0.04013
7.672,0.0383,-0.02747,-0.01373,0.02396,-0.03601,-0.03754,-0.01602,-0.0032,-0.0415,-0.07187,0.03433,-0.00198,-0.04227,-0.01083,0.0058,-0.04211
7.6725,0.03784,-0.03159,-0.01129,0.02823,-0.03586,-0.03815,-0.01633,-0.0029,-0.02396,-0.00656,0.0528,-0.00244,-0.04425,-0.01297,0.00519,-0.0415
7.673,0.03586,-0.03479,-0.00549,0.02762,-0.03708,-0.03922,-0.01572,-0.00336,-0.00427,0.05035,0.07767,-0.0032,-0.0441,-0.01633,0.00656,-0.03967
7.6735,0.03372,-0.03601,0.00275,0.01846,-0.03754,-0.04227,-0.01526,-0.00412,-0.00305,0.08453,0.11124,-0.0029,-0.04242,-0.01816,0.009,-0.03799
7.674,0.03006,-0.04333,0.01053,-0.00381,-0.03784,-0.04562,-0.0145,-0.00519,-0.02823,0.09644,0.14297,-0.00168,-0.04105,-0.01907,0.01022,-0.03845
7.6745,0.02548,-0.06104,0.01282,-0.03601,-0.0383,-0.04745,-0.01404,-0.00381,-0.06485,0.0975,0.16434,-0.00046,-0.04059,-0.02136,0.01007,-0.03922
7.675,0.02197,-0.0827,0.01266,-0.06363,-0.03845,-0.04745,-0.0145,-0.00183,-0.09613,0.09155,0.16922,-0.00015,-0.03967,-0.02441,0.00961,-0.04074
7.6755,0.02151,-0.08926,0.01175,-0.06973,-0.03845,-0.047,-0.01556,-0.00092,-0.10651,0.08453,0.15747,-0.00092,-0.03906,-0.02655,0.0087,-0.04211
7.676,0.02136,-0.07645,0.01251,-0.0499,-0.03906,-0.047,-0.01495,-0.00076,-0.1001,0.07797,0.13,-0.00137,-0.03845,-0.02716,0.00885,-0.04364
7.6765,0.01938,-0.05859,0.0145,-0.01495,-0.03952,-0.04745,-0.01511,-0.00183,-0.0853,0.07095,0.09415,-0.00061,-0.03815,-0.02533,0.009,-0.0444
7.677,0.01404,-0.05493,0.01602,0.02045,-0.03983,-0.0502,-0.01587,-0.00244,-0.06958,0.06058,0.0589,0.0,-0.03799,-0.02335,0.0087,-0.04349
7.6775,0.00641,-0.06622,0.01724,0.0528,-0.03906,-0.05249,-0.01694,-0.00275,-0.05264,0.04639,0.03143,-0.00031,-0.03662,-0.02365,0.00839,-0.04196
7.678,-0.00168,-0.07843,0.01541,0.08255,-0.03815,-0.05432,-0.01648,-0.00214,-0.03891,0.03601,0.00778,-0.00046,-0.03372,-0.02747,0.00748,-0.0412
7.6785,-0.00824,-0.0856,0.0,0.10681,-0.03769,-0.05676,-0.01602,-0.00168,-0.03418,0.03357,-0.01358,0.0,-0.02975,-0.03174,0.00717,-0.04181
7.679,-0.00992,-0.09811,-0.03021,0.12482,-0.03754,-0.05692,-0.01511,-0.00214,-0.03357,0.03662,-0.02686,0.00015,-0.0267,-0.03296,0.00809,-0.04196
7.6795,-0.00488,-0.12619,-0.05844,0.13229,-0.03571,-0.05554,-0.01434,-0.00351,-0.02579,0.03998,-0.02426,0.00061,-0.02441,-0.03052,0.0087,-0.04105
7.68,0.00381,-0.16418,-0.05356,0.12863,-0.03403,-0.05356,-0.01404,-0.00443,-0.01083,0.03708,-0.01602,0.00107,-0.02365,-0.02747,0.00931,-0.03952
7.6805,0.00687,-0.19119,-0.00671,0.10986,-0.03403,-0.05249,-0.01404,-0.00427,0.00443,0.02991,-0.03189,0.00015,-0.02411,-0.02502,0.01038,-0.04028
7.681,0.00275,-0.18845,0.05051,0.08057,-0.03571,-0.05249,-0.0148,-0.00366,0.0174,0.02579,-0.09323,-0.00122,-0.02487,-0.02228,0.01068,-0.0415
7.6815,-0.00412,-0.15808,0.07416,0.04837,-0.03632,-0.05173,-0.01511,-0.0029,0.0235,0.02777,-0.18311,-0.00443,-0.02594,-0.02014,0.01038,-0.04181
7.682,-0.00656,-0.11795,0.05203,0.02106,-0.03601,-0.05325,-0.01404,-0.0029,0.01801,0.0325,-0.24475,-0.01022,-0.0267,-0.02075,0.00961,-0.04211
7.6825,0.00137,-0.07889,0.0206,0.00275,-0.03555,-0.05554,-0.01099,-0.0032,0.00793,0.03662,-0.2327,-0.02029,-0.02762,-0.02411,0.00885,-0.04257
7.683,0.01251,-0.03464,0.02274,-0.00824,-0.03555,-0.05692,-0.00946,-0.00351,0.00504,0.03555,-0.17563,-0.03403,-0.02823,-0.02655,0.00778,-0.04395
7.6835,0.01495,0.01663,0.05569,-0.01877,-0.0354,-0.05737,-0.01022,-0.00412,0.01114,0.02899,-0.14877,-0.056,-0.02869,-0.0235,0.00732,-0.04608
7.684,0.00397,0.07126,0.07858,-0.04044,-0.03555,-0.05783,-0.01266,-0.00412,0.0119,0.01923,-0.186,-0.07874,-0.03128,-0.01892,0.00717,-0.04578
7.6845,-0.01587,0.11459,0.06378,-0.07904,-0.03494,-0.05844,-0.0145,-0.00397,-0.00046,0.00854,-0.24704,-0.07599,-0.03448,-0.0145,0.00809,-0.04456
7.685,-0.03372,0.13702,0.02518,-0.12436,-0.03403,-0.05936,-0.01404,-0.00412,-0.02014,-0.00565,-0.27847,-0.02365,-0.03647,-0.01175,0.00885,-0.04364
7.6855,-0.0444,0.14069,-0.01114,-0.14038,-0.03174,-0.05844,-0.01312,-0.00366,-0.03403,-0.0267,-0.26962,0.06058,-0.03799,-0.00793,0.00824,-0.04303
7.686,-0.04868,0.13809,-0.03464,-0.09399,-0.03021,-0.05661,-0.0119,-0.00305,-0.03571,-0.05234,-0.24002,0.12436,-0.03983,-0.00458,0.00763,-0.04257
7.6865,-0.04913,0.13489,-0.04074,-0.00076,-0.02869,-0.05432,-0.0116,-0.00198,-0.02838,-0.06943,-0.20279,0.14359,-0.04196,-0.00076,0.00778,-0.04211
7.687,-0.04837,0.12634,-0.03372,0.08331,-0.02747,-0.05417,-0.01312,-0.00183,-0.01862,-0.06744,-0.16037,0.13901,-0.04364,0.00122,0.00931,-0.04135
7.6875,-0.04715,0.10986,-0.03326,0.12253,-0.0267,-0.05722,-0.01434,-0.0029,-0.0087,-0.04639,-0.11368,0.12741,-0.04456,0.00122,0.01099,-0.04074
7.688,-0.04669,0.08621,-0.05585,0.12741,-0.02533,-0.06104,-0.01495,-0.0058,0.00671,-0.02411,-0.06546,0.11002,-0.04547,0.00061,0.009,-0.04013
7.6885,-0.04929,0.05722,-0.09735,0.11505,-0.02533,-0.06104,-0.01541,-0.00748,0.02808,-0.01663,-0.02121,0.08972,-0.04532,-0.00076,0.00961,-0.03845
7.689,-0.05325,0.02441,-0.14755,0.09109,-0.02411,-0.05844,-0.01434,-0.00656,0.04044,-0.02121,0.01709,0.06943,-0.04517,-0.00259,0.01129,-0.0354
7.6895,-0.05112,-0.00839,-0.19104,0.06744,-0.02289,-0.05295,-0.01205,-0.00336,0.03403,-0.02274,0.04791,0.03052,-0.0441,-0.00397,0.01236,-0.0325
7.69,-0.04089,-0.03479,-0.21255,0.05783,-0.02182,-0.047,-0.01083,-0.00061,0.0206,-0.01282,0.07538,-0.05051,-0.04395,-0.00488,0.01205,-0.03021
7.6905,-0.02762,-0.05417,-0.20813,0.03937,-0.0206,-0.04242,-0.0119,0.0,0.01846,0.00549,0.10391,-0.14801,-0.0444,-0.00641,0.0119,-0.02975
7.691,-0.01953,-0.06927,-0.18692,-0.02838,-0.01938,-0.03998,-0.0116,0.0,0.02533,0.01724,0.13733,-0.19958,-0.04456,-0.00687,0.01114,-0.03189
7.6915,-0.01602,-0.0795,-0.16541,-0.13596,-0.01892,-0.04059,-0.00977,0.0,0.0238,0.01617,0.17532,-0.17975,-0.04425,-0.00748,0.01022,-0.0354
7.692,-0.0119,-0.08179,-0.14954,-0.2037,-0.0177,-0.04059,-0.00916,0.00031,0.00488,0.00336,0.21637,-0.12268,-0.0441,-0.00885,0.00885,-0.03998
7.6925,-0.00397,-0.07599,-0.13321,-0.16602,-0.01556,-0.03876,-0.01022,-0.00122,-0.01541,-0.01434,0.2597,-0.056,-0.04349,-0.01007,0.00824,-0.04196
7.693,0.00656,-0.06638,-0.11261,-0.06256,-0.01617,-0.03693,-0.01236,-0.00214,-0.02441,-0.03525,0.30228,0.01358,-0.04272,-0.01251,0.00885,-0.04227
7.6935,0.01511,-0.05737,-0.09094,0.01923,-0.01663,-0.03616,-0.01251,-0.00153,-0.02686,-0.06226,0.33936,0.04349,-0.04166,-0.01526,0.009,-0.0412
7.694,0.02075,-0.05188,-0.07233,0.06699,-0.01678,-0.03464,-0.01129,0.0,-0.03342,-0.09445,0.36484,-0.03677,-0.03983,-0.01938,0.0087,-0.04105
7.6945,0.02579,-0.04776,-0.05814,0.1181,-0.01694,-0.03586,-0.01099,0.00061,-0.04333,-0.121,0.37125,-0.20325,-0.03738,-0.02411,0.00839,-0.04288
7.695,0.02853,-0.04456,-0.04517,0.12085,-0.01587,-0.03784,-0.0119,0.00015,-0.04944,-0.13031,0.34714,-0.30807,-0.03479,-0.03021,0.00671,-0.04761
7.6955,0.02747,-0.04242,-0.03265,-0.03021,-0.01572,-0.03845,-0.01328,0.0,-0.0473,-0.1207,0.28534,-0.23697,-0.03265,-0.03708,0.00534,-0.0528
7.696,0.02548,-0.04242,-0.02701,-0.29404,-0.01663,-0.03876,-0.01282,0.0,-0.04318,-0.10025,0.18066,-0.04166,-0.03036,-0.04135,0.00351,-0.05676
7.6965,0.02579,-0.04425,-0.02655,-0.47745,-0.01831,-0.03738,-0.01266,-0.00107,-0.04333,-0.07004,0.04349,0.12222,-0.02853,-0.04562,0.00275,-0.056
7.697,0.02792,-0.047,-0.02625,-0.46539,-0.02151,-0.03647,-0.01389,-0.00397,-0.05005,-0.0351,-0.10544,0.16632,-0.02487,-0.0499,0.00275,-0.0528
7.6975,0.0267,-0.04913,-0.02167,-0.32501,-0.02396,-0.03601,-0.01511,-0.00793,-0.05951,-0.00351,-0.24094,0.1265,-0.02151,-0.05173,0.00336,-0.05035
7.698,0.02197,-0.04868,-0.01343,-0.15762,-0.02563,-0.03693,-0.01663,-0.01007,-0.06531,0.01297,-0.34546,0.07675,-0.01984,-0.04776,0.00229,-0.05066
7.6985,0.01389,-0.047,0.00031,0.02136,-0.02777,-0.03784,-0.01694,-0.00916,-0.06348,0.01175,-0.41565,0.05966,-0.01938,-0.03815,0.00244,-0.05325
7.699,0.00473,-0.04898,0.02136,0.19775,-0.02945,-0.04044,-0.01678,-0.00793,-0.05463,-0.00153,-0.44937,0.08072,-0.01862,-0.02991,0.00397,-0.05386
7.6995,-0.00122,-0.06256,0.04715,0.29617,-0.03052,-0.04257,-0.01465,-0.00641,-0.04288,-0.01694,-0.44418,0.11093,-0.01587,-0.02701,0.00641,-0.05249
7.7,-0.00061,-0.08682,0.06607,0.26947,-0.03098,-0.0441,-0.01175,-0.00626,-0.02991,-0.02991,-0.4007,0.11383,-0.01282,-0.02853,0.00916,-0.05096
7.7005,0.00198,-0.10635,0.06622,0.1825,-0.03082,-0.04501,-0.01114,-0.00732,-0.01831,-0.03708,-0.3331,0.08316,-0.01083,-0.02945,0.01007,-0.04807
7.701,-0.00061,-0.10559,0.04654,0.13474,-0.03159,-0.04486,-0.01419,-0.00702,-0.01038,-0.03937,-0.26291,0.04639,-0.01022,-0.02792,0.00824,-0.04654
7.7015,-0.01434,-0.08911,0.01068,0.14435,-0.03357,-0.04471,-0.01572,-0.00641,-0.00671,-0.03784,-0.21072,0.02335,-0.00992,-0.02609,0.00763,-0.04532
7.702,-0.02914,-0.08057,-0.03021,0.15488,-0.03616,-0.04547,-0.01511,-0.00656,-0.00397,-0.03372,-0.1796,0.00092,-0.01083,-0.02655,0.00824,-0.0444
7.7025,-0.0351,-0.08911,-0.05997,0.12543,-0.0386,-0.04715,-0.01282,-0.00702,-0.00031,-0.03128,-0.15869,-0.03784,-0.01266,-0.02777,0.00687,-0.04318
7.703,-0.03189,-0.09598,-0.06439,0.06683,-0.03922,-0.04868,-0.01083,-0.00748,0.00427,-0.03326,-0.13229,-0.07751,-0.01541,-0.02792,0.00671,-0.04257
7.7035,-0.02716,-0.08102,-0.05096,0.01404,-0.03952,-0.05051,-0.01083,-0.00717,0.00595,-0.03769,-0.09583,-0.08896,-0.01678,-0.0267,0.00595,-0.04181
7.704,-0.02625,-0.05112,-0.03387,-0.01862,-0.04013,-0.0531,-0.01251,-0.00656,0.00671,-0.03998,-0.05661,-0.06577,-0.01755,-0.02396,0.00793,-0.0412
7.7045,-0.02411,-0.02884,-0.02182,-0.03738,-0.0412,-0.05447,-0.0148,-0.00641,0.00687,-0.03784,-0.02182,-0.02441,-0.01816,-0.02106,0.00916,-0.04028
7.705,-0.01923,-0.02365,-0.02136,-0.05615,-0.04135,-0.05493,-0.01587,-0.00519,0.00778,-0.03403,0.00961,0.02502,-0.02014,-0.0174,0.00839,-0.03998
7.7055,-0.01694,-0.03204,-0.03174,-0.07858,-0.04013,-0.05661,-0.0148,-0.00259,0.00809,-0.03113,0.04257,0.07782,-0.02335,-0.01373,0.00443,-0.04013
7.706,-0.02182,-0.05188,-0.03723,-0.09415,-0.04044,-0.05859,-0.01282,-0.00092,0.00702,-0.03021,0.07095,0.11093,-0.02579,-0.01144,0.00061,-0.04059
7.7065,-0.03174,-0.0824,-0.02991,-0.09354,-0.04059,-0.06012,-0.0119,-0.00137,0.00427,-0.03036,0.08194,0.09979,-0.02823,-0.01022,0.00061,-0.04074
7.707,-0.03418,-0.11368,-0.01282,-0.07782,-0.04074,-0.05981,-0.01251,-0.00305,0.00015,-0.0296,0.06989,0.05859,-0.03006,-0.00778,0.00488,-0.04013
7.7075,-0.02731,-0.13687,-0.00656,-0.06195,-0.0386,-0.05875,-0.01373,-0.00336,-0.00305,-0.02731,0.05081,0.02625,-0.03128,-0.00504,0.00809,-0.03937
7.708,-0.0148,-0.14404,0.00015,-0.05569,-0.03708,-0.05814,-0.01389,-0.00275,-0.00397,-0.0264,0.04745,0.01953,-0.03464,-0.00351,0.00839,-0.03876
7.7085,-0.00504,-0.14206,0.02716,-0.056,-0.03372,-0.05585,-0.01373,-0.00168,-0.00381,-0.02762,0.05646,0.0238,-0.03662,-0.00244,0.00687,-0.03876
7.709,0.00122,-0.1413,0.06149,-0.056,-0.03159,-0.05371,-0.01373,-0.00168,-0.0061,-0.03174,0.06104,0.02213,-0.03723,-0.00259,0.00565,-0.03876
7.7095,0.00946,-0.14725,0.06927,-0.05066,-0.02945,-0.05234,-0.01404,-0.00168,-0.01068,-0.03906,0.05463,0.01419,-0.03769,-0.00259,0.00565,-0.03967
7.71,0.01724,-0.14053,0.03906,-0.04547,-0.02777,-0.05142,-0.01419,-0.00076,-0.01404,-0.05341,0.04959,0.00931,-0.03723,-0.00412,0.00519,-0.04105
7.7105,0.01923,-0.09644,-0.00854,-0.04532,-0.02701,-0.0502,-0.01419,0.00015,-0.0177,-0.0708,0.0473,0.00793,-0.03815,-0.00519,0.00427,-0.04059
7.711,0.01144,-0.02609,-0.04486,-0.04776,-0.02838,-0.05005,-0.01358,-0.00046,-0.01984,-0.08636,0.04807,0.00717,-0.03952,-0.00519,0.00427,-0.03815
7.7115,-0.00443,0.03326,-0.05585,-0.04791,-0.02731,-0.05051,-0.01221,-0.00107,-0.01999,-0.09781,0.05325,0.00443,-0.03998,-0.00458,0.00534,-0.03616
7.712,-0.02335,0.0589,-0.04257,-0.04639,-0.0264,-0.05081,-0.0116,-0.00107,-0.01953,-0.10681,0.06653,0.00214,-0.04059,-0.00412,0.00763,-0.03586
7.7125,-0.03647,0.06653,-0.01724,-0.04623,-0.02609,-0.0502,-0.01068,-0.00061,-0.01984,-0.11383,0.08133,0.00092,-0.04181,-0.00366,0.00778,-0.03784
7.713,-0.04013,0.07095,0.00336,-0.0473,-0.02625,-0.04944,-0.00931,-0.00122,-0.01984,-0.11276,0.08774,0.00168,-0.04395,-0.00397,0.00809,-0.04013
7.7135,-0.03998,0.07477,0.00198,-0.04868,-0.02777,-0.04883,-0.009,-0.00046,-0.01892,-0.09445,0.08804,0.00183,-0.04623,-0.00336,0.00671,-0.04181
7.714,-0.04593,0.06851,-0.02075,-0.0502,-0.02914,-0.04715,-0.01038,0.00031,-0.0177,-0.05142,0.09018,0.00153,-0.04791,-0.00198,0.00702,-0.04425
7.7145,-0.0589,0.03723,-0.04501,-0.0502,-0.03067,-0.04425,-0.01236,0.00183,-0.01633,0.01511,0.09537,0.00137,-0.04745,-0.00183,0.0058,-0.04608
7.715,-0.06897,-0.02777,-0.04623,-0.05051,-0.03204,-0.04105,-0.01343,0.00076,-0.01358,0.08957,0.09842,0.00198,-0.04578,-0.00229,0.00534,-0.04517
7.7155,-0.07004,-0.10117,-0.0296,-0.04868,-0.03387,-0.0386,-0.01328,-0.00031,-0.0119,0.14435,0.09674,0.00259,-0.0444,-0.0029,0.0058,-0.04166
7.716,-0.06668,-0.13153,-0.02258,-0.0441,-0.03174,-0.03906,-0.01282,-0.00229,-0.01343,0.16022,0.0972,0.00168,-0.04379,-0.00336,0.00809,-0.03876
7.7165,-0.06393,-0.09735,-0.04059,-0.0386,-0.03082,-0.04013,-0.01175,-0.00229,-0.01602,0.14175,0.10696,0.00015,-0.04303,-0.00443,0.00931,-0.03738
7.717,-0.06271,-0.03708,-0.07019,-0.0354,-0.03067,-0.04211,-0.01236,-0.00153,-0.01678,0.10925,0.12177,-0.00092,-0.04196,-0.00687,0.0087,-0.0383
7.7175,-0.06012,-0.00183,-0.08163,-0.04044,-0.03235,-0.04349,-0.01312,-0.00107,-0.01724,0.08041,0.13382,-0.00153,-0.04028,-0.01144,0.00702,-0.03937
7.718,-0.05432,-0.00244,-0.06821,-0.05569,-0.03357,-0.04593,-0.01465,-0.00092,-0.02075,0.06027,0.14359,-0.00214,-0.04044,-0.01678,0.0061,-0.03967
7.7185,-0.04898,-0.01541,-0.05157,-0.07492,-0.03403,-0.04486,-0.01526,-0.00229,-0.02731,0.04669,0.1532,-0.00214,-0.0415,-0.02213,0.00717,-0.03983
7.719,-0.04608,-0.02563,-0.05646,-0.09155,-0.03189,-0.0444,-0.0145,-0.00366,-0.03601,0.03311,0.16006,-0.00168,-0.0412,-0.02609,0.01038,-0.04028
7.7195,-0.04715,-0.04578,-0.08423,-0.10345,-0.02991,-0.04227,-0.01434,-0.00473,-0.04013,0.01862,0.1532,-0.00153,-0.04105,-0.02884,0.01038,-0.04059
7.72,-0.04959,-0.09003,-0.1181,-0.11932,-0.02884,-0.04074,-0.01495,-0.00366,-0.03906,0.00366,0.12772,-0.00137,-0.03967,-0.0322,0.00977,-0.04013
7.7205,-0.05112,-0.13809,-0.13947,-0.15015,-0.02914,-0.04013,-0.01541,-0.00107,-0.03723,-0.01129,0.08621,-0.00168,-0.03845,-0.03571,0.01068,-0.03937
7.721,-0.04868,-0.15381,-0.14206,-0.18921,-0.02869,-0.03922,-0.01526,-0.00061,-0.03647,-0.02594,0.04227,-0.00122,-0.03677,-0.03906,0.01083,-0.03738
7.7215,-0.04379,-0.1297,-0.13123,-0.20508,-0.02991,-0.03876,-0.01526,-0.00031,-0.03754,-0.03784,0.00778,-0.00122,-0.0354,-0.04074,0.01129,-0.03494
7.722,-0.03952,-0.08942,-0.1149,-0.14725,-0.03265,-0.04028,-0.01526,-0.00046,-0.03815,-0.04501,-0.009,-0.00168,-0.03464,-0.04181,0.01129,-0.0322
7.7225,-0.03647,-0.05081,-0.09872,0.00595,-0.0354,-0.04318,-0.01587,0.00061,-0.03738,-0.04776,-0.00946,-0.00351,-0.03433,-0.04211,0.01266,-0.03143
7.723,-0.03418,-0.01114,-0.08469,0.19501,-0.03555,-0.04608,-0.01556,0.00031,-0.03677,-0.04944,-0.0061,-0.00519,-0.03357,-0.04135,0.01389,-0.03204
7.7235,-0.03342,0.02762,-0.07751,0.29449,-0.03433,-0.04654,-0.01526,-0.00122,-0.03433,-0.04959,-0.01556,-0.0058,-0.03326,-0.04013,0.01572,-0.03281
7.724,-0.03265,0.056,-0.07935,0.25223,-0.03418,-0.0473,-0.01434,-0.00244,-0.03082,-0.04868,-0.04456,-0.00519,-0.03387,-0.03845,0.01678,-0.0322
7.7245,-0.03159,0.06729,-0.08621,0.14236,-0.03494,-0.04639,-0.01282,-0.00214,-0.02609,-0.04745,-0.08316,-0.00519,-0.03555,-0.03616,0.01602,-0.03082
7.725,-0.03052,0.06485,-0.09186,0.05478,-0.0351,-0.04349,-0.01175,-0.00137,-0.02075,-0.04791,-0.11642,-0.0058,-0.03586,-0.03479,0.01389,-0.02975
7.7255,-0.02731,0.05432,-0.0972,0.00443,-0.03494,-0.03906,-0.01144,-0.00031,-0.01404,-0.05081,-0.13565,-0.00656,-0.0354,-0.03357,0.00916,-0.03143
7.726,-0.02304,0.03922,-0.09903,-0.0296,-0.03464,-0.03769,-0.01053,0.00031,-0.00565,-0.05234,-0.1445,-0.00763,-0.03494,-0.03296,0.00275,-0.03555
7.7265,-0.01663,0.02335,-0.1004,-0.03082,-0.03403,-0.03983,-0.01175,-0.00061,0.00198,-0.04883,-0.15182,-0.00763,-0.03464,-0.03159,-0.00214,-0.0412
7.727,-0.01129,0.00839,-0.09979,0.03571,-0.03555,-0.04532,-0.01373,-0.00183,0.00748,-0.04395,-0.15717,-0.0058,-0.03555,-0.0296,-0.00488,-0.04562
7.7275,-0.00931,-0.00244,-0.09628,0.14771,-0.03586,-0.04898,-0.01434,-0.00244,0.01312,-0.0383,-0.15503,-0.00381,-0.03708,-0.02792,-0.00397,-0.04944
7.728,-0.01053,-0.009,-0.09216,0.21866,-0.03647,-0.05035,-0.01465,-0.00336,0.01892,-0.03159,-0.14771,-0.0029,-0.03723,-0.02533,-0.00351,-0.05402
7.7285,-0.01129,-0.01328,-0.08743,0.19272,-0.03433,-0.04807,-0.01511,-0.00473,0.02121,-0.02563,-0.14084,-0.00244,-0.03723,-0.02167,-0.00397,-0.05936
7.729,-0.00931,-0.0148,-0.08011,0.11353,-0.03403,-0.04669,-0.01602,-0.0058,0.01602,-0.02029,-0.13382,-0.00214,-0.03799,-0.01816,-0.0058,-0.06195
7.7295,-0.00427,-0.01495,-0.06668,0.06592,-0.03387,-0.04562,-0.01633,-0.00595,0.00656,-0.01694,-0.11795,-0.00092,-0.03967,-0.01556,-0.00534,-0.06226
7.73,0.00153,-0.01465,-0.05127,0.0882,-0.03433,-0.0444,-0.01526,-0.00488,-0.00092,-0.01633,-0.08774,-0.00031,-0.03967,-0.01328,-0.00244,-0.06302
7.7305,0.00687,-0.01755,-0.0383,0.15091,-0.03494,-0.04547,-0.01465,-0.00427,-0.00458,-0.01617,-0.0531,-0.00046,-0.0383,-0.01099,-0.00259,-0.0621
7.731,0.0116,-0.02319,-0.0325,0.19806,-0.03677,-0.0473,-0.01556,-0.00427,-0.00427,-0.01068,-0.02823,-0.00076,-0.03677,-0.009,-0.00366,-0.05859
7.7315,0.0145,-0.03387,-0.03525,0.18936,-0.03876,-0.04883,-0.01572,-0.0032,-0.00351,-0.00015,-0.01831,0.0,-0.03632,-0.00778,-0.00275,-0.05295
7.732,0.01526,-0.05157,-0.03082,0.12665,-0.03922,-0.04868,-0.01541,-0.0032,-0.00336,0.00916,-0.01465,0.00122,-0.03662,-0.00732,0.00092,-0.04745
7.7325,0.01373,-0.07538,0.01251,0.04654,-0.03983,-0.047,-0.0145,-0.00336,-0.0058,0.00778,-0.00793,0.00259,-0.03723,-0.00565,0.00732,-0.04242
7.733,0.01144,-0.09827,0.1001,-0.0174,-0.0386,-0.04486,-0.0145,-0.00351,-0.01038,-0.00519,0.00244,0.00336,-0.03784,-0.00336,0.01175,-0.03754
7.7335,0.01038,-0.12283,0.18463,-0.06287,-0.03799,-0.04349,-0.01526,-0.00336,-0.01511,-0.02457,0.0145,0.00198,-0.03983,-0.0032,0.01434,-0.03372
7.734,0.00977,-0.16815,0.21103,-0.09811,-0.03632,-0.04395,-0.01602,-0.00458,-0.01953,-0.04562,0.02777,-0.00046,-0.04044,-0.00565,0.01541,-0.03357
7.7345,0.01007,-0.24078,0.16846,-0.12314,-0.03433,-0.04593,-0.01633,-0.00549,-0.02182,-0.07324,0.04639,-0.00351,-0.03906,-0.01068,0.01404,-0.03387
7.735,0.01266,-0.30212,0.0975,-0.13733,-0.03357,-0.04745,-0.01526,-0.00595,-0.02304,-0.11902,0.07324,-0.0058,-0.03815,-0.01526,0.01129,-0.03525
7.7355,0.01816,-0.30792,0.03769,-0.14648,-0.03342,-0.04898,-0.0148,-0.00595,-0.02625,-0.18265,0.10513,-0.00549,-0.03799,-0.01877,0.01007,-0.03708
7.736,0.02289,-0.25818,0.0029,-0.16144,-0.03342,-0.05051,-0.01556,-0.00702,-0.03387,-0.23453,0.13626,-0.00381,-0.03799,-0.01953,0.01007,-0.03738
7.7365,0.02487,-0.19592,-0.00946,-0.18173,-0.03326,-0.05295,-0.01617,-0.00824,-0.04181,-0.24261,0.16541,-0.00305,-0.03769,-0.01801,0.01068,-0.0383
7.737,0.01984,-0.14343,-0.00778,-0.18799,-0.0325,-0.05463,-0.01572,-0.00793,-0.04395,-0.19958,0.19379,-0.00336,-0.03677,-0.0148,0.01007,-0.03952
7.7375,0.01099,-0.09567,-0.00778,-0.15396,-0.03204,-0.056,-0.01465,-0.00626,-0.04089,-0.1297,0.21652,-0.00458,-0.03677,-0.01282,0.00946,-0.04105
7.738,-0.00076,-0.05157,-0.01633,-0.08514,-0.03281,-0.0563,-0.01419,-0.00366,-0.0383,-0.05966,0.22324,-0.00534,-0.03693,-0.01343,0.01038,-0.04089
7.7385,-0.01266,-0.02075,-0.03082,-0.01953,-0.0325,-0.05661,-0.01389,-0.00214,-0.03616,-0.00076,0.21042,-0.00626,-0.03662,-0.01511,0.01129,-0.03952
7.739,-0.02335,0.00122,-0.04028,0.00778,-0.03159,-0.05661,-0.01373,-0.00214,-0.03204,0.04318,0.17899,-0.00732,-0.03586,-0.01572,0.01129,-0.03876
7.7395,-0.03128,0.03555,-0.04318,0.01068,-0.03006,-0.05859,-0.01328,-0.00259,-0.02701,0.07263,0.1265,-0.00687,-0.03296,-0.01587,0.01053,-0.03967
7.74,-0.03128,0.08392,-0.04761,0.0296,-0.02731,-0.06042,-0.01343,-0.0032,-0.02487,0.08911,0.05081,-0.00656,-0.03082,-0.0174,0.01068,-0.03983
7.7405,-0.02014,0.13077,-0.05966,0.07446,-0.02731,-0.06119,-0.01343,-0.0032,-0.02579,0.09293,-0.04074,-0.00641,-0.03021,-0.01953,0.00916,-0.03876
7.741,-0.0032,0.16434,-0.07294,0.11673,-0.02792,-0.06165,-0.01312,-0.0032,-0.02869,0.08499,-0.12589,-0.0058,-0.03036,-0.01984,0.0087,-0.03754
7.7415,0.01038,0.1825,-0.07538,0.1297,-0.02762,-0.05951,-0.01312,-0.0029,-0.03159,0.07248,-0.1857,-0.0058,-0.02884,-0.02151,0.00793,-0.03738
7.742,0.01633,0.18463,-0.06302,0.11078,-0.02609,-0.05432,-0.01266,-0.00259,-0.03403,0.06638,-0.22064,-0.00504,-0.02563,-0.0264,0.00839,-0.03876
7.7425,0.02136,0.16785,-0.04166,0.06561,-0.02304,-0.04791,-0.01282,-0.00214,-0.03448,0.07431,-0.24323,-0.00504,-0.02213,-0.03143,0.00916,-0.03937
7.743,0.03006,0.13885,-0.02228,-0.00854,-0.02045,-0.04364,-0.01236,-0.00153,-0.03326,0.09048,-0.25986,-0.00458,-0.02045,-0.0325,0.00931,-0.03998
7.7435,0.0415,0.1088,-0.00748,-0.09552,-0.01892,-0.04028,-0.01129,-0.00137,-0.03082,0.10376,-0.26352,-0.00458,-0.01953,-0.03021,0.00717,-0.04044
7.744,0.05188,0.08102,-0.00015,-0.15503,-0.01816,-0.03754,-0.01068,-0.00046,-0.02838,0.11154,-0.24994,-0.00381,-0.01755,-0.02502,0.00687,-0.04028
7.7445,0.05905,0.05371,-0.00122,-0.16479,-0.01938,-0.03571,-0.01083,0.00015,-0.02533,0.11749,-0.2269,-0.00351,-0.01434,-0.01831,0.00717,-0.03922
7.745,0.06409,0.02609,-0.01312,-0.14923,-0.01953,-0.03479,-0.0119,-0.00092,-0.02121,0.12405,-0.20813,-0.0029,-0.0116,-0.01053,0.00809,-0.03845
7.7455,0.06882,-0.00122,-0.02914,-0.14954,-0.0174,-0.0351,-0.01373,-0.00305,-0.01678,0.13138,-0.20111,-0.00259,-0.01038,-0.00504,0.00946,-0.03952
7.746,0.07263,-0.02792,-0.04318,-0.17456,-0.01663,-0.03403,-0.01495,-0.00412,-0.01205,0.13763,-0.19928,-0.00153,-0.01038,-0.00305,0.00916,-0.04105
7.7465,0.07462,-0.0563,-0.056,-0.19638,-0.01801,-0.03357,-0.01526,-0.00366,-0.00641,0.14114,-0.18387,-0.00122,-0.01022,-0.00519,0.00809,-0.0415
7.747,0.07645,-0.08179,-0.06897,-0.18768,-0.01999,-0.03479,-0.01587,-0.00397,0.00015,0.13504,-0.14252,-0.00214,-0.00946,-0.01038,0.00748,-0.0412
7.7475,0.07751,-0.09689,-0.08163,-0.14618,-0.02319,-0.03891,-0.01587,-0.0058,0.00702,0.11505,-0.07919,-0.0032,-0.00839,-0.01801,0.00687,-0.04242
7.748,0.07843,-0.09705,-0.0914,-0.08667,-0.02701,-0.0444,-0.01602,-0.00687,0.0119,0.08331,-0.01068,-0.00351,-0.00793,-0.02579,0.00839,-0.04318
7.7485,0.07797,-0.08926,-0.09888,-0.01694,-0.03052,-0.04913,-0.01511,-0.00778,0.01648,0.04715,0.04868,-0.00336,-0.00961,-0.03387,0.00885,-0.04318
7.749,0.07675,-0.08453,-0.10544,0.056,-0.0325,-0.05096,-0.01358,-0.00854,0.01984,0.01633,0.08759,-0.00366,-0.01236,-0.04349,0.00885,-0.04227
7.7495,0.07599,-0.08316,-0.10696,0.1004,-0.03326,-0.05112,-0.01373,-0.009,0.02136,-0.00534,0.09842,-0.00305,-0.01556,-0.05432,0.0087,-0.04135
7.75,0.07416,-0.07889,-0.09933,0.07492,-0.03464,-0.04898,-0.01358,-0.00809,0.02136,-0.01907,0.07477,-0.00351,-0.01923,-0.05661,0.00824,-0.04013
7.7505,0.07095,-0.07248,-0.08453,-0.00671,-0.03632,-0.04669,-0.01266,-0.00626,0.01968,-0.02991,0.00946,-0.00336,-0.02457,-0.04852,0.00626,-0.03998
7.751,0.0679,-0.06638,-0.06714,-0.07294,-0.0383,-0.04547,-0.01251,-0.00412,0.0177,-0.03769,-0.08743,-0.00397,-0.02853,-0.03387,0.00336,-0.03922
7.7515,0.06592,-0.06317,-0.05264,-0.06927,-0.04074,-0.04639,-0.01343,-0.0029,0.0148,-0.04501,-0.17426,-0.00397,-0.03021,-0.02136,0.00229,-0.0383
7.752,0.06302,-0.06226,-0.04318,-0.01282,-0.04211,-0.04868,-0.01404,-0.0029,0.01129,-0.05264,-0.20233,-0.00473,-0.03113,-0.01434,0.00534,-0.03891
7.7525,0.05798,-0.06226,-0.03769,0.04379,-0.04471,-0.05096,-0.01465,-0.0032,0.00931,-0.056,-0.16907,-0.00626,-0.03113,-0.01099,0.00946,-0.03922
7.753,0.0528,-0.06119,-0.03326,0.0975,-0.04593,-0.05234,-0.01526,-0.00443,0.00992,-0.05798,-0.11749,-0.00717,-0.03113,-0.00854,0.01251,-0.03891
7.7535,0.04684,-0.05859,-0.03174,0.16373,-0.04532,-0.05264,-0.01556,-0.0058,0.0116,-0.05859,-0.08224,-0.00717,-0.03174,-0.00534,0.01373,-0.03906
7.754,0.04227,-0.05722,-0.02945,0.21011,-0.04333,-0.05219,-0.01526,-0.00549,0.01633,-0.05905,-0.06058,-0.00519,-0.03342,-0.00366,0.01465,-0.03906
7.7545,0.03998,-0.05753,-0.02533,0.18204,-0.04211,-0.05035,-0.01312,-0.00549,0.02396,-0.05661,-0.03952,-0.00458,-0.03632,-0.00488,0.01602,-0.03952
7.755,0.04028,-0.05905,-0.01862,0.09323,-0.04181,-0.04791,-0.0116,-0.00504,0.02808,-0.04959,-0.01862,-0.00504,-0.03845,-0.00702,0.01877,-0.04089
7.7555,0.04181,-0.06149,-0.01144,0.01175,-0.03998,-0.04776,-0.0116,-0.00519,0.02274,-0.04105,0.00061,-0.00488,-0.03998,-0.0087,0.02289,-0.04395
7.756,0.04349,-0.06134,-0.00992,-0.02991,-0.03845,-0.04791,-0.01282,-0.00397,0.01175,-0.03662,0.02228,-0.00443,-0.04166,-0.00854,0.0238,-0.04822
7.7565,0.04242,-0.05829,-0.01556,-0.05264,-0.03815,-0.04822,-0.01373,-0.00275,0.00061,-0.04181,0.0473,-0.00229,-0.04318,-0.00916,0.02014,-0.05112
7.757,0.03677,-0.05615,-0.02289,-0.07706,-0.03937,-0.05005,-0.01251,-0.00214,-0.0061,-0.06516,0.06607,-0.00107,-0.04471,-0.00977,0.01297,-0.05188
7.7575,0.02472,-0.06943,-0.02411,-0.09827,-0.03967,-0.05203,-0.01022,-0.00244,-0.01038,-0.10834,0.07721,-0.00046,-0.04593,-0.00854,0.00702,-0.05035
7.758,0.01175,-0.10178,-0.01602,-0.10391,-0.03891,-0.05524,-0.009,-0.00305,-0.01434,-0.15915,0.08881,-0.00061,-0.047,-0.0061,0.00565,-0.0502
7.7585,0.00107,-0.13351,-0.00031,-0.08713,-0.03784,-0.0592,-0.01068,-0.00336,-0.02014,-0.20126,0.11002,0.0,-0.04837,-0.00595,0.0061,-0.04913
7.759,-0.00748,-0.13535,0.0174,-0.05524,-0.03693,-0.06241,-0.01205,-0.00336,-0.02579,-0.22003,0.1358,-0.00031,-0.04959,-0.00885,0.00778,-0.047
7.7595,-0.01663,-0.10986,0.0296,-0.03311,-0.03632,-0.06439,-0.01343,-0.00351,-0.02884,-0.20233,0.15762,-0.00046,-0.05005,-0.00946,0.00885,-0.0441
7.76,-0.02441,-0.09079,0.03082,-0.03311,-0.03464,-0.06424,-0.01312,-0.00275,-0.03021,-0.14954,0.17502,-0.00046,-0.05051,-0.00534,0.01068,-0.04059
7.7605,-0.02823,-0.0943,0.02426,-0.04333,-0.03372,-0.06287,-0.01221,-0.00259,-0.03143,-0.08453,0.18784,0.00031,-0.0502,0.00153,0.01343,-0.0386
7.761,-0.03128,-0.10422,0.01556,-0.04379,-0.03204,-0.0618,-0.01282,-0.00244,-0.0325,-0.04364,0.19608,0.00076,-0.05066,0.00763,0.01801,-0.03891
7.7615,-0.03662,-0.10788,0.01038,-0.03571,-0.03128,-0.05981,-0.01419,-0.00259,-0.03464,-0.04944,0.19592,0.00076,-0.05142,0.01343,0.0209,-0.04135
7.762,-0.04196,-0.10605,0.00671,-0.03723,-0.03098,-0.05859,-0.01404,-0.00259,-0.03891,-0.0914,0.18448,-0.00061,-0.05157,0.01907,0.01907,-0.04288
7.7625,-0.04395,-0.10559,0.00031,-0.05493,-0.03128,-0.05783,-0.01343,-0.00092,-0.04593,-0.1297,0.16266,-0.00183,-0.05157,0.02548,0.01541,-0.04272
7.763,-0.0441,-0.09949,-0.00259,-0.07919,-0.03174,-0.05768,-0.01373,0.00092,-0.05508,-0.12802,0.13153,-0.00122,-0.05096,0.02945,0.01419,-0.04059
7.7635,-0.04868,-0.07385,0.01404,-0.09308,-0.03159,-0.05676,-0.01465,0.00122,-0.06332,-0.0853,0.09186,0.00015,-0.04913,0.02838,0.01572,-0.03952
7.764,-0.05859,-0.02808,0.0589,-0.09216,-0.0325,-0.05524,-0.01495,-0.00061,-0.07034,-0.03616,0.04547,0.00351,-0.04593,0.01953,0.01541,-0.03876
7.7645,-0.06973,0.00977,0.11032,-0.10025,-0.03281,-0.05432,-0.0145,-0.00244,-0.07782,-0.00488,-0.00015,0.00931,-0.04196,0.00397,0.01251,-0.03922
7.765,-0.08194,0.01785,0.13138,-0.14053,-0.03296,-0.05386,-0.01328,-0.00244,-0.08469,0.01602,-0.03143,0.01724,-0.03876,-0.01373,0.01083,-0.03952
7.7655,-0.09399,0.00626,0.09415,-0.18951,-0.0322,-0.05157,-0.01297,-0.00305,-0.08972,0.0444,-0.04532,0.02838,-0.03494,-0.03036,0.00885,-0.04044
7.766,-0.1001,0.00046,0.01129,-0.19165,-0.03235,-0.04944,-0.01434,-0.00443,-0.09476,0.08759,-0.04852,0.04486,-0.03113,-0.04227,0.00961,-0.04196
7.7665,-0.09003,0.00671,-0.06149,-0.13168,-0.03174,-0.04684,-0.01495,-0.00549,-0.09583,0.13245,-0.04684,0.06393,-0.02594,-0.0473,0.01022,-0.04349
7.767,-0.06348,0.01038,-0.0885,-0.04852,-0.03052,-0.04639,-0.01511,-0.00443,-0.08743,0.15701,-0.04364,0.0737,-0.02213,-0.05051,0.00977,-0.04532
7.7675,-0.0322,0.00305,-0.08652,0.04456,-0.02777,-0.04745,-0.01465,-0.00351,-0.06927,0.14801,-0.04715,0.06485,-0.02045,-0.05829,0.00702,-0.04593
7.768,-0.01251,-0.01099,-0.09399,0.19333,-0.02426,-0.04761,-0.01465,-0.0029,-0.04913,0.10681,-0.06561,0.04059,-0.01862,-0.0737,0.00641,-0.04532
7.7685,-0.00687,-0.02594,-0.12344,0.39276,-0.01953,-0.04623,-0.01465,-0.00168,-0.03525,0.05676,-0.10651,0.01358,-0.01572,-0.09491,0.00702,-0.04471
7.769,-0.00656,-0.03876,-0.15686,0.51926,-0.01648,-0.04288,-0.01495,0.00015,-0.02792,0.02167,-0.16129,-0.01099,-0.01312,-0.11902,0.00809,-0.04501
7.7695,-0.00397,-0.04791,-0.17181,0.45944,-0.01465,-0.03906,-0.01434,0.00092,-0.02045,0.01205,-0.21011,-0.03723,-0.01144,-0.13748,0.00916,-0.04501
7.77,-0.00046,-0.04868,-0.16632,0.2742,-0.01328,-0.03586,-0.01328,-0.00031,-0.00916,0.02014,-0.22903,-0.06165,-0.01068,-0.14099,0.0119,-0.04425
7.7705,-0.00107,-0.03708,-0.15411,0.12512,-0.0145,-0.03662,-0.01465,-0.00137,0.0,0.03326,-0.20645,-0.07111,-0.01129,-0.12466,0.01648,-0.04349
7.771,-0.00275,-0.01511,-0.14511,0.06805,-0.01526,-0.03906,-0.01572,-0.00305,0.00488,0.04227,-0.14786,-0.06363,-0.01144,-0.09567,0.01892,-0.04242
7.7715,-0.00214,0.00824,-0.13916,0.0296,-0.0174,-0.04181,-0.01602,-0.00366,0.00717,0.04486,-0.08194,-0.06119,-0.0116,-0.06851,0.01602,-0.04181
7.772,-0.00031,0.02441,-0.12985,-0.04379,-0.0209,-0.04272,-0.0148,-0.00458,0.00946,0.04257,-0.04318,-0.07614,-0.01373,-0.05005,0.01068,-0.04288
7.7725,0.00076,0.03265,-0.11307,-0.12466,-0.02548,-0.04059,-0.01511,-0.00504,0.00992,0.04089,-0.04288,-0.09277,-0.01556,-0.03922,0.00946,-0.0444
7.773,0.00244,0.03494,-0.08545,-0.16861,-0.0293,-0.03616,-0.01526,-0.00519,0.00641,0.03983,-0.06805,-0.09674,-0.0177,-0.03021,0.01007,-0.04486
7.7735,0.0058,0.03021,-0.05219,-0.17914,-0.03128,-0.02899,-0.01389,-0.00565,0.00244,0.03693,-0.09094,-0.1059,-0.01968,-0.02243,0.01083,-0.04379
7.774,0.00946,0.02106,-0.02014,-0.17609,-0.03098,-0.02228,-0.01266,-0.00656,0.00244,0.02945,-0.09079,-0.13763,-0.02075,-0.01633,0.009,-0.04303
7.7745,0.00977,0.01358,0.00778,-0.16266,-0.02853,-0.0206,-0.01312,-0.00656,0.00748,0.01617,-0.06622,-0.1738,-0.02228,-0.0145,0.00778,-0.04379
7.775,0.00488,0.01068,0.03189,-0.12863,-0.02716,-0.02274,-0.01434,-0.00687,0.01556,0.00168,-0.04562,-0.18143,-0.02304,-0.01511,0.00717,-0.04379
7.7755,-0.00214,0.00885,0.05859,-0.07721,-0.02777,-0.02716,-0.0148,-0.0058,0.01984,-0.00885,-0.06393,-0.14938,-0.0235,-0.01312,0.00763,-0.04318
7.776,-0.01053,0.00275,0.09232,-0.03555,-0.02914,-0.03143,-0.01465,-0.00549,0.01801,-0.01572,-0.11032,-0.07751,-0.02502,-0.00748,0.00717,-0.0412
7.7765,-0.01801,-0.0058,0.12634,-0.02258,-0.03021,-0.0351,-0.01404,-0.00488,0.01373,-0.01968,-0.13306,0.03189,-0.02747,0.00198,0.00717,-0.04166
7.777,-0.02396,-0.01266,0.1297,-0.03204,-0.03098,-0.03876,-0.01373,-0.00473,0.0145,-0.02304,-0.09781,0.14267,-0.02914,0.01038,0.0058,-0.04318
7.7775,-0.02914,-0.01587,0.07156,-0.04547,-0.03418,-0.04257,-0.01419,-0.00458,0.02243,-0.02502,-0.03632,0.19882,-0.03082,0.01312,0.00443,-0.04501
7.778,-0.03479,-0.02182,-0.03815,-0.05249,-0.03784,-0.04684,-0.01465,-0.00412,0.02808,-0.02792,0.00168,0.19196,-0.0322,0.01022,0.00397,-0.04639
7.7785,-0.04227,-0.03708,-0.13916,-0.05219,-0.04257,-0.05127,-0.01541,-0.00488,0.02472,-0.03632,0.00763,0.15457,-0.03326,0.00626,0.00412,-0.04639
7.779,-0.04974,-0.06256,-0.18341,-0.04623,-0.0441,-0.05554,-0.01602,-0.00412,0.0148,-0.04929,0.0087,0.10422,-0.03387,0.00397,0.00534,-0.04532
7.7795,-0.05493,-0.08286,-0.17212,-0.03967,-0.04669,-0.05798,-0.01495,-0.00336,0.00473,-0.06088,0.02457,0.04562,-0.03387,0.00397,0.00656,-0.04486
7.78,-0.05661,-0.08408,-0.13702,-0.04242,-0.0473,-0.0589,-0.01419,-0.00275,-0.00046,-0.0647,0.04593,0.0116,-0.03418,0.00336,0.00778,-0.04379
7.7805,-0.05737,-0.07187,-0.09155,-0.05569,-0.04913,-0.05905,-0.01389,-0.00198,-0.00061,-0.06454,0.05325,0.02472,-0.03601,0.00229,0.00809,-0.04242
7.781,-0.06226,-0.06256,-0.03204,-0.06607,-0.04944,-0.06027,-0.0145,-0.00275,-0.00092,-0.0621,0.0383,0.05432,-0.03906,0.00107,0.00824,-0.04257
7.7815,-0.07172,-0.06485,0.04044,-0.05951,-0.04883,-0.06241,-0.0148,-0.00214,-0.00305,-0.0621,0.01404,0.05539,-0.04166,0.00183,0.00748,-0.04196
7.782,-0.08057,-0.07095,0.11124,-0.04288,-0.04593,-0.06332,-0.01434,-0.00137,-0.00626,-0.06714,-0.00092,0.02975,-0.04318,0.00259,0.0087,-0.04105
7.7825,-0.08347,-0.07599,0.16006,-0.0325,-0.04227,-0.06424,-0.01373,-0.00061,-0.00854,-0.07584,0.00046,0.00916,-0.04333,0.00229,0.00824,-0.03937
7.783,-0.08148,-0.08148,0.16632,-0.03357,-0.04044,-0.06409,-0.01389,-0.00092,-0.00854,-0.07782,0.01251,0.00748,-0.04349,0.00259,0.00702,-0.03815
7.7835,-0.07553,-0.08911,0.11642,-0.03693,-0.03952,-0.06256,-0.01404,-0.00153,-0.009,-0.06454,0.02731,0.01083,-0.04333,0.00351,0.0058,-0.03922
7.784,-0.06821,-0.09415,0.01251,-0.03372,-0.04044,-0.06088,-0.0145,-0.00229,-0.01144,-0.04181,0.04517,0.00809,-0.04333,0.00504,0.00443,-0.0415
7.7845,-0.05997,-0.0914,-0.11047,-0.02716,-0.04059,-0.05875,-0.0145,-0.00153,-0.01144,-0.02045,0.06393,0.00305,-0.04257,0.00519,0.00351,-0.04288
7.785,-0.05051,-0.08667,-0.19531,-0.02426,-0.03922,-0.05798,-0.01434,-0.00107,-0.00656,-0.00809,0.07935,0.00046,-0.04242,0.0029,0.00305,-0.04257
7.7855,-0.04074,-0.08331,-0.20065,-0.02625,-0.03677,-0.05646,-0.01511,-0.00046,-0.0032,-0.00168,0.08621,0.0,-0.04242,0.00046,0.00305,-0.04135
7.786,-0.02914,-0.08347,-0.13611,-0.02716,-0.03479,-0.05554,-0.01602,-0.00183,-0.00626,0.00092,0.08682,-0.00015,-0.04196,-0.00153,0.00336,-0.04028
7.7865,-0.0177,-0.08652,-0.05173,-0.02548,-0.03296,-0.05371,-0.01572,-0.0029,-0.01312,-0.00107,0.08041,-0.00061,-0.04074,-0.00336,0.00488,-0.04074
7.787,-0.01205,-0.10239,0.01022,-0.02289,-0.0322,-0.05081,-0.01495,-0.00259,-0.01923,-0.00793,0.06668,-0.00153,-0.04044,-0.00458,0.00519,-0.04105
7.7875,-0.01556,-0.13565,0.03693,-0.02167,-0.02914,-0.04776,-0.0148,-0.00107,-0.0235,-0.0174,0.05264,-0.0029,-0.04059,-0.00458,0.00519,-0.04105
7.788,-0.02777,-0.16479,0.03845,-0.02167,-0.02853,-0.0444,-0.01465,-0.00015,-0.02869,-0.02884,0.04593,-0.00519,-0.04074,-0.0032,0.00504,-0.0412
7.7885,-0.04013,-0.16144,0.02319,-0.02121,-0.02747,-0.04395,-0.01419,-0.00061,-0.03479,-0.04181,0.0473,-0.00641,-0.04028,-0.00168,0.00473,-0.04059
7.789,-0.04501,-0.13611,-0.01373,-0.01907,-0.02731,-0.04471,-0.01389,-0.00244,-0.03937,-0.05615,0.05264,-0.00641,-0.03952,-0.00107,0.00381,-0.03983
7.7895,-0.04456,-0.13596,-0.06821,-0.01678,-0.02731,-0.04456,-0.01358,-0.00412,-0.04105,-0.07126,0.05478,-0.00595,-0.03738,-0.00061,0.00534,-0.03845
7.79,-0.0444,-0.17639,-0.11093,-0.01251,-0.02747,-0.04395,-0.01328,-0.00412,-0.03952,-0.08835,0.05142,-0.00626,-0.03555,0.00183,0.00702,-0.03708
7.7905,-0.04639,-0.21805,-0.11215,-0.009,-0.02655,-0.0444,-0.01266,-0.00244,-0.03555,-0.10544,0.04517,-0.00641,-0.03479,0.00549,0.00824,-0.03586
7.791,-0.04684,-0.21973,-0.08072,-0.00641,-0.02472,-0.0441,-0.01236,-0.00092,-0.02914,-0.1181,0.03983,-0.00397,-0.03433,0.00748,0.0087,-0.03708
7.7915,-0.04623,-0.19119,-0.04715,-0.00336,-0.02243,-0.0415,-0.01343,-0.00137,-0.02228,-0.12299,0.03922,0.00076,-0.03372,0.00366,0.00717,-0.0386
7.792,-0.04669,-0.16876,-0.02289,-0.00168,-0.02213,-0.03891,-0.01434,-0.00198,-0.01663,-0.1239,0.04242,0.01328,-0.0325,-0.00626,0.0058,-0.03876
7.7925,-0.04898,-0.159,0.00427,-0.00275,-0.02335,-0.03784,-0.0148,-0.00275,-0.01251,-0.12558,0.04745,0.03082,-0.03189,-0.02136,0.00473,-0.03784
7.793,-0.05157,-0.13275,0.03967,-0.0058,-0.02274,-0.03952,-0.01373,-0.00259,-0.00778,-0.12924,0.05112,0.04364,-0.03159,-0.03647,0.0061,-0.03784
7.7935,-0.05203,-0.06836,0.07095,-0.00885,-0.0235,-0.04242,-0.01236,-0.00305,-0.00458,-0.11856,0.05173,0.04547,-0.03128,-0.04669,0.00641,-0.03845
7.794,-0.05127,0.01785,0.08179,-0.01053,-0.02487,-0.04547,-0.0116,-0.00366,-0.00244,-0.08545,0.04745,0.03983,-0.02975,-0.0502,0.00687,-0.03906
7.7945,-0.04913,0.09598,0.06729,-0.01312,-0.02747,-0.04639,-0.01129,-0.00366,-0.00061,-0.02838,0.03433,0.03937,-0.02914,-0.04776,0.0061,-0.03906
7.795,-0.04639,0.15076,0.03876,-0.01511,-0.02838,-0.04654,-0.01221,-0.00427,0.00076,0.03036,0.00809,0.05524,-0.02945,-0.03708,0.0058,-0.03845
7.7955,-0.04745,0.18997,0.00717,-0.0145,-0.02853,-0.04776,-0.01434,-0.00443,0.00061,0.06516,-0.02472,0.08621,-0.02991,-0.02411,0.00763,-0.03799
7.796,-0.05203,0.22079,-0.02823,-0.00977,-0.02823,-0.05081,-0.01556,-0.00458,0.0,0.06821,-0.04898,0.10452,-0.03021,-0.01526,0.00931,-0.03708
7.7965,-0.05554,0.23788,-0.07721,-0.00275,-0.03021,-0.0528,-0.01541,-0.00549,-0.00214,0.04715,-0.05203,0.0679,-0.03098,-0.01465,0.00977,-0.03662
7.797,-0.05432,0.23499,-0.13931,0.00427,-0.02899,-0.05417,-0.0145,-0.00641,-0.0032,0.01984,-0.04044,-0.03876,-0.03098,-0.01694,0.00961,-0.03647
7.7975,-0.04852,0.21118,-0.20157,0.009,-0.02716,-0.05432,-0.01419,-0.00595,-0.00244,-0.00381,-0.03052,-0.17746,-0.03128,-0.01724,0.0087,-0.03708
7.798,-0.03769,0.17517,-0.24582,0.009,-0.02335,-0.05264,-0.01358,-0.00534,-0.00229,-0.01953,-0.02533,-0.28198,-0.03113,-0.01495,0.00626,-0.04044
7.7985,-0.02441,0.13947,-0.26245,0.00565,-0.02014,-0.04852,-0.01312,-0.00412,-0.00458,-0.02335,-0.01633,-0.31265,-0.03036,-0.01434,0.00504,-0.04562
7.799,-0.0119,0.11398,-0.25696,0.00259,-0.01923,-0.04196,-0.01236,-0.00473,-0.00839,-0.01175,-0.00397,-0.271,-0.02991,-0.01419,0.00412,-0.05035
7.7995,-0.00351,0.09628,-0.23895,0.00031,-0.01862,-0.03586,-0.01114,-0.00488,-0.01328,0.00992,0.00397,-0.1889,-0.03113,-0.01373,0.00381,-0.05005
7.8,0.00031,0.07843,-0.2182,-0.00137,-0.01862,-0.03418,-0.01007,-0.00412,-0.02014,0.02777,0.00565,-0.10544,-0.03098,-0.01282,0.00473,-0.047
7.8005,0.00229,0.05646,-0.19531,-0.00458,-0.01907,-0.0354,-0.01038,-0.00336,-0.02869,0.03815,0.00351,-0.04318,-0.03143,-0.01297,0.00626,-0.04288
7.801,0.00397,0.03006,-0.17349,-0.01007,-0.0209,-0.03815,-0.01068,-0.00351,-0.03693,0.04364,0.00122,-0.00809,-0.03143,-0.01556,0.00702,-0.04089
7.8015,0.0061,0.00916,-0.1503,-0.01465,-0.02167,-0.04074,-0.01083,-0.00366,-0.04303,0.04517,-0.00336,0.00061,-0.03159,-0.01831,0.00687,-0.04211
7.802,0.00824,-0.00595,-0.12177,-0.01709,-0.02319,-0.04364,-0.01114,-0.00351,-0.04517,0.04181,-0.01373,-0.00092,-0.03189,-0.02106,0.00641,-0.0444
7.8025,0.0119,-0.01526,-0.09155,-0.01633,-0.02411,-0.04532,-0.0119,-0.00214,-0.04349,0.03036,-0.02777,0.0145,-0.03128,-0.02304,0.00671,-0.04562
7.803,0.01862,-0.02106,-0.06302,-0.01389,-0.0264,-0.04578,-0.01282,-0.00153,-0.03967,0.01572,-0.04272,0.06241,-0.03159,-0.02579,0.00824,-0.04501
7.8035,0.02518,-0.02838,-0.04105,-0.01266,-0.02777,-0.04456,-0.01266,-0.00198,-0.03525,0.0029,-0.05142,0.11673,-0.02991,-0.02808,0.00778,-0.0441
7.804,0.03052,-0.03845,-0.02213,-0.01144,-0.02777,-0.04303,-0.01007,-0.0032,-0.03052,-0.00534,-0.05066,0.12726,-0.02884,-0.03021,0.00778,-0.0441
7.8045,0.03494,-0.04913,0.0,-0.01709,-0.02838,-0.04166,-0.00961,-0.00397,-0.02487,-0.01083,-0.04166,0.07736,-0.02899,-0.02991,0.00793,-0.04471
7.805,0.04028,-0.05493,0.0354,-0.03815,-0.03006,-0.04028,-0.00977,-0.00351,-0.01953,-0.01404,-0.03006,0.0177,-0.0296,-0.02853,0.00778,-0.04517
7.8055,0.04807,-0.05676,0.07858,-0.06729,-0.03159,-0.03983,-0.01053,-0.0029,-0.01663,-0.01526,-0.01862,0.00443,-0.0293,-0.02869,0.00671,-0.04517
7.806,0.05554,-0.0589,0.11261,-0.08133,-0.03265,-0.03952,-0.01114,-0.00336,-0.01572,-0.01511,-0.01312,0.02991,-0.02991,-0.02991,0.00778,-0.04547
7.8065,0.0592,-0.0647,0.11566,-0.06638,-0.03204,-0.03952,-0.0119,-0.0029,-0.0148,-0.01511,-0.01541,0.04517,-0.03052,-0.02777,0.00763,-0.04517
7.807,0.05936,-0.07584,0.08606,-0.03494,-0.03326,-0.03983,-0.01221,-0.00244,-0.0119,-0.0145,-0.0238,0.03143,-0.03052,-0.02457,0.00763,-0.04578
7.8075,0.05768,-0.08636,0.03708,-0.00443,-0.03464,-0.03983,-0.01175,-0.00229,-0.00824,-0.01587,-0.03342,0.01648,-0.03159,-0.02289,0.00717,-0.04532
7.808,0.05569,-0.09003,-0.01282,0.02167,-0.03784,-0.03998,-0.01053,-0.00305,-0.00854,-0.02045,-0.03845,0.01648,-0.03403,-0.02319,0.00702,-0.04501
7.8085,0.05447,-0.08652,-0.05096,0.04303,-0.03922,-0.04013,-0.01022,-0.00336,-0.01038,-0.03372,-0.04044,0.02289,-0.03632,-0.02319,0.00534,-0.04333
7.809,0.05493,-0.08224,-0.06866,0.05249,-0.03952,-0.04135,-0.01175,-0.00381,-0.0116,-0.05569,-0.04318,0.02213,-0.03677,-0.02121,0.00092,-0.04181
7.8095,0.05447,-0.08347,-0.06058,0.04807,-0.0383,-0.0415,-0.0119,-0.00366,-0.009,-0.0769,-0.04532,0.01801,-0.03479,-0.01694,-0.00488,-0.04013
7.81,0.05341,-0.09293,-0.03342,0.04395,-0.03632,-0.03998,-0.0119,-0.00137,-0.00671,-0.08438,-0.04288,0.01846,-0.03433,-0.01343,-0.00763,-0.03922
7.8105,0.05203,-0.11093,-0.00519,0.0531,-0.03693,-0.0383,-0.01175,0.00046,-0.00656,-0.07965,-0.03311,0.01938,-0.03647,-0.01205,-0.00488,-0.0386
7.811,0.05005,-0.12909,0.00565,0.07233,-0.03922,-0.04028,-0.01114,0.00031,-0.00977,-0.07843,-0.01694,0.02029,-0.03967,-0.0116,-0.00107,-0.03754
7.8115,0.047,-0.13733,-0.00534,0.08499,-0.04074,-0.04364,-0.01053,-0.00198,-0.01526,-0.09308,-0.00275,0.01999,-0.04196,-0.01099,0.00229,-0.03754
7.812,0.04318,-0.13153,-0.02487,0.08072,-0.0412,-0.04791,-0.01083,-0.00336,-0.02136,-0.11078,0.00198,0.01801,-0.04227,-0.01053,0.00534,-0.03799
7.8125,0.04135,-0.11551,-0.04089,0.06073,-0.04166,-0.05066,-0.01312,-0.00305,-0.02502,-0.1059,-0.00687,0.01572,-0.04196,-0.0119,0.00824,-0.03754
7.813,0.0412,-0.09277,-0.04883,0.03906,-0.04242,-0.05173,-0.01434,-0.00229,-0.02716,-0.06638,-0.02518,0.01251,-0.04242,-0.01358,0.01358,-0.03769
7.8135,0.0415,-0.06866,-0.04562,0.02502,-0.04196,-0.05219,-0.01373,-0.00137,-0.02457,-0.0116,-0.04395,0.0119,-0.04288,-0.01465,0.02518,-0.03769
7.814,0.04211,-0.05051,-0.02609,0.02106,-0.0412,-0.05234,-0.01297,-0.00092,-0.01633,0.02716,-0.05219,0.0116,-0.04303,-0.01389,0.03876,-0.03784
7.8145,0.04272,-0.0444,0.00885,0.02502,-0.03845,-0.05066,-0.01312,-0.00183,-0.00671,0.0386,-0.0499,0.01114,-0.04272,-0.0145,0.04684,-0.03799
7.815,0.04471,-0.05203,0.04288,0.04272,-0.03555,-0.0499,-0.01465,-0.00305,-0.00519,0.03143,-0.04501,0.00992,-0.04181,-0.01373,0.03632,-0.0386
7.8155,0.04669,-0.07614,0.06256,0.07462,-0.03265,-0.05066,-0.01556,-0.0029,-0.01495,0.01846,-0.03998,0.00839,-0.04059,-0.01358,0.01633,-0.03998
7.816,0.04745,-0.12222,0.07156,0.10483,-0.03006,-0.05219,-0.01556,-0.00137,-0.02609,-0.00107,-0.02899,0.00717,-0.03967,-0.01312,0.00259,-0.04196
7.8165,0.04395,-0.18234,0.0769,0.1088,-0.0296,-0.05478,-0.0145,-0.00183,-0.0267,-0.03372,-0.00549,0.00671,-0.03922,-0.01495,0.00259,-0.04318
7.817,0.03616,-0.23254,0.07919,0.0853,-0.02914,-0.05692,-0.01266,-0.00214,-0.01724,-0.07782,0.02213,0.00732,-0.0383,-0.01678,0.00549,-0.04364
7.8175,0.02869,-0.25024,0.06882,0.05981,-0.02777,-0.05783,-0.01221,-0.00198,-0.00702,-0.11551,0.04379,0.00763,-0.0383,-0.0174,0.00443,-0.04349
7.818,0.0235,-0.23331,0.04074,0.04944,-0.02731,-0.05783,-0.01221,-0.00122,-0.00443,-0.12848,0.06119,0.00809,-0.03891,-0.01785,0.00183,-0.04333
7.8185,0.0209,-0.1915,0.00748,0.04013,-0.02777,-0.05768,-0.01312,-0.00031,-0.00946,-0.11261,0.08209,0.00961,-0.04028,-0.01938,0.00275,-0.04333
7.819,0.01907,-0.12604,-0.01343,0.01053,-0.02823,-0.05707,-0.01312,-0.00031,-0.01694,-0.07935,0.10712,0.0116,-0.04044,-0.01968,0.0058,-0.04333
7.8195,0.0177,-0.04791,-0.01068,-0.03952,-0.02609,-0.05615,-0.01221,-0.00015,-0.02472,-0.03952,0.1236,0.01266,-0.0383,-0.02014,0.00854,-0.04318
7.82,0.01633,0.01526,0.01312,-0.08698,-0.02426,-0.05402,-0.01144,-0.00076,-0.03326,0.00717,0.12894,0.01358,-0.0351,-0.02258,0.01022,-0.04257
7.8205,0.01358,0.04242,0.04715,-0.09979,-0.02457,-0.05249,-0.01205,-0.00259,-0.0412,0.05371,0.1329,0.01205,-0.03342,-0.02579,0.009,-0.04181
7.821,0.01022,0.04959,0.07294,-0.06821,-0.02762,-0.05356,-0.01343,-0.00443,-0.0441,0.08743,0.14633,0.01022,-0.0322,-0.02716,0.00916,-0.04013
7.8215,0.00748,0.06042,0.0769,-0.00885,-0.03159,-0.05447,-0.01434,-0.00458,-0.0412,0.09674,0.16068,0.009,-0.03204,-0.02823,0.01083,-0.03937
7.822,0.00732,0.08026,0.06348,0.05569,-0.03464,-0.05585,-0.01358,-0.00366,-0.03998,0.08209,0.15228,0.00885,-0.03143,-0.03036,0.01556,-0.03967
7.8225,0.0061,0.09842,0.05478,0.11581,-0.03632,-0.05661,-0.01266,-0.0029,-0.04501,0.0592,0.10574,0.00946,-0.02899,-0.0354,0.01938,-0.04074
7.823,-0.00046,0.10803,0.06271,0.16754,-0.03723,-0.05844,-0.01175,-0.00244,-0.05386,0.05096,0.01862,0.01007,-0.0267,-0.04028,0.01846,-0.04089
7.8235,-0.01038,0.1062,0.07278,0.19485,-0.03845,-0.05875,-0.01129,-0.00198,-0.05844,0.06256,-0.1001,0.009,-0.02365,-0.04074,0.01328,-0.03891
7.824,-0.01648,0.09216,0.05615,0.17944,-0.03647,-0.05798,-0.01175,0.00015,-0.05646,0.07996,-0.22827,0.00885,-0.02106,-0.03738,0.01144,-0.03738
7.8245,-0.01572,0.06577,0.00626,0.11749,-0.03342,-0.05569,-0.01282,0.00275,-0.05249,0.09033,-0.3363,0.00916,-0.01831,-0.03159,0.01221,-0.03754
7.825,-0.01129,0.03357,-0.05844,0.02853,-0.03052,-0.05356,-0.01373,0.00366,-0.0473,0.08972,-0.39948,0.00916,-0.01572,-0.0296,0.01205,-0.03891
7.8255,-0.00748,0.00336,-0.11017,-0.06317,-0.03098,-0.05203,-0.01434,0.00092,-0.04333,0.08041,-0.41168,0.00824,-0.01511,-0.03418,0.01129,-0.03998
7.826,-0.00305,-0.01587,-0.13626,-0.15808,-0.03082,-0.05005,-0.01526,-0.00153,-0.03784,0.06485,-0.38132,0.00656,-0.01556,-0.04211,0.009,-0.04074
7.8265,0.00397,-0.02579,-0.14191,-0.28168,-0.02899,-0.04715,-0.01587,-0.0029,-0.02777,0.04379,-0.32288,0.0058,-0.01587,-0.0473,0.00992,-0.0415
7.827,0.01419,-0.03372,-0.13794,-0.42282,-0.02472,-0.04349,-0.01663,-0.00183,-0.01541,0.02182,-0.25604,0.00626,-0.01541,-0.04852,0.01083,-0.0412
7.8275,0.02121,-0.04272,-0.1326,-0.50323,-0.02319,-0.0412,-0.01648,-0.00137,-0.00519,0.00168,-0.20966,0.00732,-0.01465,-0.04593,0.0119,-0.04135
7.828,0.02365,-0.05173,-0.12924,-0.45288,-0.02502,-0.04166,-0.01755,-0.00305,-0.00031,-0.01556,-0.20782,0.00885,-0.01404,-0.03937,0.01083,-0.04181
7.8285,0.02411,-0.05905,-0.12512,-0.30609,-0.02731,-0.04272,-0.01923,-0.00534,0.00336,-0.03174,-0.23849,0.009,-0.01343,-0.03204,0.00977,-0.04166
7.829,0.02335,-0.06439,-0.11642,-0.16998,-0.02853,-0.04364,-0.01938,-0.00656,0.00748,-0.04913,-0.26596,0.00854,-0.01556,-0.02655,0.00977,-0.0412
7.8295,0.02533,-0.06622,-0.09995,-0.10178,-0.02884,-0.04364,-0.01801,-0.00687,0.01205,-0.06729,-0.26596,0.00824,-0.01846,-0.02563,0.00961,-0.04089
7.83,0.02747,-0.06439,-0.08255,-0.07599,-0.02945,-0.04333,-0.01617,-0.00626,0.01617,-0.08789,-0.24033,0.00778,-0.02106,-0.02747,0.00946,-0.04074
7.8305,0.02747,-0.06287,-0.07156,-0.07233,-0.03067,-0.0441,-0.01495,-0.00549,0.01938,-0.10422,-0.19592,0.00702,-0.02441,-0.02945,0.0087,-0.04089
7.831,0.02502,-0.06561,-0.0676,-0.1181,-0.0322,-0.04364,-0.01587,-0.00443,0.01953,-0.10559,-0.13794,0.00565,-0.02823,-0.02701,0.00839,-0.04074
7.8315,0.02426,-0.0705,-0.0647,-0.2298,-0.03403,-0.04227,-0.01602,-0.00458,0.01541,-0.08835,-0.07614,0.00519,-0.03296,-0.02045,0.00763,-0.04135
7.832,0.02518,-0.07462,-0.06088,-0.34561,-0.03601,-0.0412,-0.01511,-0.00504,0.01083,-0.06104,-0.02731,0.00549,-0.03754,-0.01175,0.00565,-0.04166
7.8325,0.02548,-0.07599,-0.05524,-0.3598,-0.03754,-0.04089,-0.01328,-0.00626,0.01038,-0.03494,-0.0029,0.00519,-0.04074,-0.00061,0.00519,-0.04181
7.833,0.02213,-0.0795,-0.04959,-0.20889,-0.03891,-0.04196,-0.01343,-0.0061,0.01297,-0.0148,-0.00168,0.00565,-0.04059,0.01251,0.00641,-0.04089
7.8335,0.0206,-0.09323,-0.04395,0.07019,-0.0415,-0.04257,-0.0145,-0.00412,0.01419,-0.00092,-0.01389,0.0061,-0.04059,0.02457,0.00778,-0.03937
7.834,0.02151,-0.11154,-0.03967,0.34744,-0.0444,-0.04471,-0.01587,-0.0029,0.01053,0.00473,-0.02884,0.00534,-0.04196,0.02792,0.00732,-0.03937
7.8345,0.02258,-0.11734,-0.03525,0.50201,-0.04562,-0.047,-0.01541,-0.00366,0.00488,-0.00305,-0.03906,0.00305,-0.04395,0.01938,0.00519,-0.03998
7.835,0.02045,-0.09521,-0.0296,0.4982,-0.04578,-0.04929,-0.0145,-0.00504,0.00381,-0.02029,-0.04166,0.00092,-0.04623,-0.00183,0.00397,-0.04013
7.8355,0.01633,-0.05493,-0.01846,0.38437,-0.04654,-0.05142,-0.01465,-0.00519,0.00839,-0.03754,-0.03555,0.00107,-0.04669,-0.02701,0.00153,-0.03983
7.836,0.01251,-0.01923,0.0032,0.2446,-0.0473,-0.05356,-0.01602,-0.00458,0.01465,-0.04669,-0.0177,0.00229,-0.04593,-0.04456,0.00107,-0.04044
7.8365,0.00977,0.00046,0.03494,0.1442,-0.04745,-0.05356,-0.01556,-0.00397,0.01694,-0.047,0.0177,0.00229,-0.04623,-0.04639,0.00198,-0.03998
7.837,0.00641,0.00748,0.05814,0.09674,-0.04623,-0.05264,-0.01434,-0.00473,0.0145,-0.03998,0.06638,0.00122,-0.04623,-0.03448,0.00381,-0.03906
7.8375,-0.00107,0.00168,0.04868,0.07874,-0.04501,-0.05173,-0.01404,-0.00473,0.01068,-0.03326,0.11566,-0.00061,-0.04654,-0.01541,0.00519,-0.03906
7.838,-0.01144,-0.02213,0.00702,0.0676,-0.04349,-0.05249,-0.01389,-0.00397,0.0061,-0.03098,0.15427,-0.00244,-0.0473,-0.00061,0.0061,-0.04105
7.8385,-0.02213,-0.05905,-0.03433,0.06012,-0.04364,-0.05386,-0.01312,-0.00275,0.00168,-0.03204,0.18173,-0.00336,-0.04761,0.0058,0.00702,-0.0444
7.839,-0.02655,-0.09674,-0.0415,0.05981,-0.0441,-0.05463,-0.0119,-0.00259,-0.00305,-0.03525,0.20233,-0.00412,-0.04547,0.00671,0.00824,-0.04852
7.8395,-0.02502,-0.12711,-0.01923,0.0618,-0.0444,-0.05417,-0.01205,-0.00259,-0.00687,-0.04547,0.21408,-0.00397,-0.04303,0.00443,0.01099,-0.05188
7.84,-0.02304,-0.15823,-0.00168,0.05936,-0.04272,-0.05386,-0.01328,-0.00336,-0.00687,-0.06683,0.21255,-0.00305,-0.0415,0.00153,0.01511,-0.05295
7.8405,-0.0264,-0.18402,-0.00778,0.05066,-0.04105,-0.05325,-0.01358,-0.00351,-0.00412,-0.0946,0.19455,-0.00336,-0.0415,-0.00153,0.01984,-0.05051
7.841,-0.03586,-0.18158,-0.0209,0.04288,-0.03784,-0.05249,-0.01328,-0.00427,-0.00183,-0.11551,0.16418,-0.00412,-0.04074,-0.00473,0.02106,-0.04669
7.8415,-0.04639,-0.13947,-0.02609,0.03662,-0.03632,-0.05203,-0.01266,-0.00534,-0.00259,-0.12009,0.13458,-0.00488,-0.03891,-0.009,0.01617,-0.04471
7.842,-0.05295,-0.08026,-0.03555,0.03082,-0.03555,-0.05142,-0.01282,-0.00336,-0.00656,-0.10971,0.11795,-0.00412,-0.03693,-0.01312,0.00732,-0.04501
7.8425,-0.05371,-0.03571,-0.05478,0.02167,-0.03464,-0.05096,-0.01343,-0.00214,-0.01404,-0.0882,0.11307,-0.00229,-0.03616,-0.01633,0.00305,-0.04486
7.843,-0.05081,-0.01556,-0.06104,0.01205,-0.03571,-0.05066,-0.01389,-0.00214,-0.02319,-0.05798,0.10529,-0.00137,-0.03632,-0.01892,0.0058,-0.0441
7.8435,-0.04883,-0.009,-0.03784,0.00641,-0.03586,-0.05127,-0.01389,-0.00412,-0.03098,-0.02594,0.08011,-0.00061,-0.0354,-0.02029,0.01068,-0.04196
7.844,-0.05081,-0.00763,-0.00504,0.00717,-0.03479,-0.0531,-0.01266,-0.00458,-0.03555,0.00153,0.0383,-0.00031,-0.03464,-0.02106,0.01175,-0.0415
7.8445,-0.05768,-0.00717,0.00443,0.01053,-0.03326,-0.05539,-0.01251,-0.00458,-0.03754,0.02029,-0.00946,0.00015,-0.03418,-0.02045,0.00854,-0.04135
7.845,-0.06424,-0.00626,-0.00793,0.00687,-0.03143,-0.05722,-0.01221,-0.00427,-0.03906,0.03448,-0.05173,-0.00046,-0.03326,-0.01877,0.00671,-0.04135
7.8455,-0.06729,-0.00366,-0.02594,-0.02045,-0.0296,-0.05905,-0.01297,-0.00443,-0.04303,0.04242,-0.08087,-0.00122,-0.0322,-0.01724,0.00565,-0.04166
7.846,-0.06714,0.00076,-0.04486,-0.09171,-0.02777,-0.05981,-0.01373,-0.00458,-0.04562,0.04593,-0.09674,-0.00168,-0.03113,-0.01633,0.00443,-0.04227
7.8465,-0.06592,0.00961,-0.07248,-0.19226,-0.02655,-0.05981,-0.01343,-0.00534,-0.04608,0.04593,-0.09964,0.00046,-0.03113,-0.0145,0.00351,-0.0415
7.847,-0.06485,0.0206,-0.10849,-0.271,-0.02396,-0.05951,-0.01282,-0.00519,-0.04623,0.04547,-0.09079,0.00275,-0.03174,-0.01083,0.00305,-0.04089
7.8475,-0.06302,0.02716,-0.14008,-0.27863,-0.02167,-0.05951,-0.0116,-0.00534,-0.0473,0.04028,-0.07584,0.00275,-0.03113,-0.00885,0.00351,-0.04013
7.848,-0.06149,0.02808,-0.15732,-0.22049,-0.02121,-0.05844,-0.01068,-0.00488,-0.04776,0.03525,-0.06073,0.00015,-0.03052,-0.00885,0.00412,-0.04059
7.8485,-0.06119,0.02579,-0.1593,-0.12695,-0.0209,-0.05569,-0.01038,-0.00458,-0.04547,0.03265,-0.03906,-0.00229,-0.03052,-0.0119,0.00687,-0.0412
7.849,-0.0589,0.0235,-0.15182,-0.00931,-0.02045,-0.05081,-0.0116,-0.00488,-0.03906,0.03571,-0.00519,-0.00214,-0.03052,-0.0148,0.00916,-0.04242
7.8495,-0.05524,0.01968,-0.14267,0.13519,-0.01907,-0.04303,-0.01236,-0.00519,-0.03036,0.03632,0.04593,0.00183,-0.02869,-0.01648,0.0087,-0.04211
7.85,-0.04807,0.01434,-0.13428,0.26672,-0.01648,-0.03403,-0.01266,-0.00504,-0.02014,0.01984,0.10315,0.00793,-0.02563,-0.01709,0.00671,-0.04105
7.8505,-0.04135,0.00931,-0.12756,0.31387,-0.01419,-0.02548,-0.01312,-0.00397,-0.01389,-0.02319,0.14374,0.01724,-0.02228,-0.01862,0.00565,-0.03998
7.851,-0.03311,0.00443,-0.11688,0.25543,-0.01251,-0.01984,-0.01389,-0.0029,-0.01419,-0.08362,0.14938,0.02747,-0.02106,-0.02029,0.00656,-0.04028
7.8515,-0.02625,-0.00122,-0.10239,0.1474,-0.01373,-0.01862,-0.01389,-0.00198,-0.01755,-0.13916,0.11932,0.03265,-0.02151,-0.0209,0.00809,-0.04196
7.852,-0.01877,-0.00778,-0.08759,0.06073,-0.01648,-0.02045,-0.01343,-0.00168,-0.01938,-0.16983,0.06668,0.02914,-0.0206,-0.02106,0.00809,-0.04456
7.8525,-0.01083,-0.01282,-0.0766,0.01511,-0.01892,-0.0238,-0.01404,-0.00137,-0.01801,-0.16998,0.01053,0.01907,-0.01923,-0.02106,0.00732,-0.04486
7.853,-0.00397,-0.01526,-0.06836,-0.01373,-0.01938,-0.02686,-0.01312,-0.00244,-0.01602,-0.14877,-0.03159,0.01114,-0.01938,-0.02289,0.00778,-0.04318
7.8535,-0.00137,-0.01556,-0.06073,-0.05386,-0.01984,-0.0293,-0.01175,-0.00366,-0.01663,-0.11673,-0.06119,0.00961,-0.02045,-0.02777,0.00916,-0.04059
7.854,-0.0029,-0.01724,-0.05402,-0.10376,-0.02167,-0.0296,-0.01053,-0.0032,-0.01907,-0.07751,-0.08255,0.01526,-0.02243,-0.03571,0.00916,-0.03967
7.8545,-0.00595,-0.02197,-0.04883,-0.13947,-0.02197,-0.02838,-0.01038,-0.00214,-0.02167,-0.03372,-0.10223,0.01938,-0.02365,-0.04349,0.00809,-0.03922
7.855,-0.00916,-0.02686,-0.04471,-0.14374,-0.02182,-0.02686,-0.01221,-0.00122,-0.02365,0.01083,-0.1268,0.00809,-0.02579,-0.04608,0.00946,-0.04013
7.8555,-0.01144,-0.03128,-0.03952,-0.12054,-0.02304,-0.02823,-0.01312,-0.00183,-0.02502,0.05386,-0.15701,-0.0238,-0.0267,-0.04303,0.01221,-0.03967
7.856,-0.01297,-0.03723,-0.03403,-0.08423,-0.02655,-0.03311,-0.0119,-0.00214,-0.0293,0.09598,-0.18326,-0.06516,-0.02747,-0.03677,0.01465,-0.04059
7.8565,-0.01434,-0.04379,-0.0293,-0.03296,-0.02853,-0.03891,-0.01022,-0.00183,-0.03265,0.13565,-0.18341,-0.09521,-0.02945,-0.03311,0.01511,-0.04135
7.857,-0.01495,-0.04929,-0.02808,0.0386,-0.03082,-0.04181,-0.01022,-0.00244,-0.0322,0.16327,-0.14359,-0.09918,-0.03174,-0.03067,0.01465,-0.04211
7.8575,-0.01633,-0.05234,-0.02548,0.1033,-0.03265,-0.04349,-0.01129,-0.00397,-0.02777,0.16418,-0.07233,-0.08057,-0.03479,-0.02579,0.01404,-0.04257
7.858,-0.01617,-0.05554,-0.01526,0.11276,-0.03433,-0.04364,-0.01266,-0.00565,-0.02319,0.13596,0.00412,-0.05814,-0.03601,-0.01892,0.0119,-0.04288
7.8585,-0.01419,-0.05814,0.00641,0.0502,-0.03433,-0.04456,-0.01419,-0.00671,-0.02258,0.1001,0.05478,-0.04776,-0.03677,-0.01434,0.00931,-0.04395
7.859,-0.0119,-0.05859,0.03677,-0.04425,-0.03479,-0.04578,-0.01541,-0.00763,-0.02487,0.07523,0.06088,-0.04898,-0.03708,-0.01785,0.00763,-0.04486
7.8595,-0.00916,-0.05661,0.07217,-0.11383,-0.03525,-0.04669,-0.01556,-0.00854,-0.02792,0.05997,0.0267,-0.05753,-0.03769,-0.02991,0.0087,-0.04562
7.86,-0.00702,-0.05234,0.11063,-0.13046,-0.03601,-0.04745,-0.01541,-0.00763,-0.03036,0.04654,-0.01984,-0.06958,-0.03906,-0.0444,0.01022,-0.0473
7.8605,-0.00351,-0.05081,0.15289,-0.10483,-0.03555,-0.04944,-0.01389,-0.00748,-0.02975,0.03098,-0.04532,-0.06897,-0.03998,-0.05157,0.01038,-0.04868
7.861,-0.00183,-0.05539,0.18082,-0.06989,-0.0354,-0.0499,-0.01312,-0.00748,-0.02533,0.01831,-0.03922,-0.03738,-0.03998,-0.04471,0.00946,-0.04944
7.8615,-0.00351,-0.07294,0.16327,-0.05463,-0.03769,-0.04974,-0.01266,-0.00656,-0.02167,0.01205,-0.01556,0.02136,-0.04044,-0.02411,0.00931,-0.04868
7.862,-0.00763,-0.10773,0.0882,-0.06699,-0.03922,-0.05219,-0.01312,-0.00565,-0.02502,0.0116,0.01114,0.07904,-0.04166,-0.00214,0.00854,-0.04578
7.8625,-0.01236,-0.15015,-0.00488,-0.09155,-0.0412,-0.05432,-0.01312,-0.00366,-0.03235,0.00992,0.04089,0.10895,-0.04166,0.00748,0.00793,-0.04272
7.863,-0.01373,-0.17548,-0.06226,-0.10757,-0.03998,-0.056,-0.0119,-0.00244,-0.03586,0.00519,0.06607,0.10117,-0.03784,0.00137,0.00687,-0.04135
7.8635,-0.01312,-0.16464,-0.06592,-0.10269,-0.03784,-0.05493,-0.01068,-0.00198,-0.02991,-0.00122,0.07553,0.06393,-0.03265,-0.00946,0.00595,-0.04227
7.864,-0.01328,-0.12711,-0.02823,-0.05966,-0.03708,-0.05447,-0.01022,-0.00244,-0.01999,-0.01099,0.06943,0.02167,-0.0296,-0.01587,0.0061,-0.04333
7.8645,-0.01434,-0.0885,0.03143,0.03189,-0.03693,-0.05386,-0.01038,-0.00198,-0.01007,-0.02441,0.06775,0.00107,-0.02945,-0.01511,0.0058,-0.04364
7.865,-0.01831,-0.06134,0.09079,0.13168,-0.03647,-0.05493,-0.01083,-0.00214,-0.00092,-0.04547,0.08743,0.01175,-0.02899,-0.01389,0.0061,-0.04333
7.8655,-0.02594,-0.04181,0.12115,0.16144,-0.0354,-0.05676,-0.01144,-0.00214,0.00977,-0.065,0.11917,0.03342,-0.02686,-0.01434,0.00732,-0.04333
7.866,-0.03662,-0.02136,0.09918,0.09995,-0.03464,-0.05798,-0.01266,-0.00198,0.01892,-0.07462,0.14023,0.04715,-0.02533,-0.01511,0.00809,-0.04196
7.8665,-0.04929,0.00015,0.0322,0.0174,-0.0354,-0.05905,-0.01373,-0.00244,0.02228,-0.07202,0.14359,0.04486,-0.02487,-0.01602,0.00809,-0.0415
7.867,-0.06119,0.01282,-0.06119,-0.01617,-0.0351,-0.05936,-0.01434,-0.0029,0.02075,-0.06424,0.13702,0.03159,-0.02655,-0.01785,0.00793,-0.0412
7.8675,-0.06958,0.01343,-0.16998,-0.00336,-0.03326,-0.0592,-0.01389,-0.00214,0.01877,-0.05936,0.13,0.0177,-0.02777,-0.01984,0.00702,-0.04074
7.868,-0.07355,0.01678,-0.27924,0.01236,-0.0322,-0.0592,-0.01343,-0.00153,0.02075,-0.05829,0.121,0.00885,-0.02808,-0.02106,0.0058,-0.03998
7.8685,-0.07202,0.03159,-0.35614,0.01175,-0.03143,-0.05722,-0.01236,-0.00214,0.02274,-0.06165,0.09979,0.00473,-0.02716,-0.02106,0.00565,-0.04013
7.869,-0.0676,0.04807,-0.37903,0.00275,-0.03143,-0.056,-0.01251,-0.00336,0.02151,-0.06866,0.0592,0.00458,-0.02686,-0.0209,0.00519,-0.04089
7.8695,-0.06439,0.04791,-0.3537,-0.00473,-0.03036,-0.05493,-0.01282,-0.00366,0.01617,-0.07736,0.00122,0.00488,-0.02686,-0.01877,0.00565,-0.04196
7.87,-0.06332,0.02579,-0.29541,-0.00885,-0.0296,-0.05569,-0.01236,-0.00275,0.01389,-0.08652,-0.05737,0.00412,-0.02594,-0.01358,0.00565,-0.04318
7.8705,-0.06073,-0.00961,-0.2066,-0.01251,-0.02716,-0.05539,-0.01266,-0.00198,0.01328,-0.09064,-0.10376,0.00046,-0.02594,-0.00824,0.00397,-0.04486
7.871,-0.05295,-0.04807,-0.1004,-0.01556,-0.02426,-0.05386,-0.01328,-0.00183,0.01068,-0.08591,-0.13565,-0.00366,-0.02472,-0.00305,0.00244,-0.04486
7.8715,-0.04135,-0.07797,-0.01434,-0.01709,-0.02121,-0.05203,-0.01419,-0.00305,0.00519,-0.07217,-0.15701,-0.00534,-0.02441,-0.00137,0.00214,-0.04349
7.872,-0.03098,-0.09201,0.0267,-0.01801,-0.0209,-0.04929,-0.01526,-0.00366,-0.00122,-0.05493,-0.16571,-0.00519,-0.02472,-0.00137,0.00259,-0.0415
7.8725,-0.02274,-0.09033,0.03174,-0.0209,-0.02243,-0.04562,-0.01511,-0.00412,-0.00671,-0.03983,-0.15625,-0.00427,-0.02579,-0.00031,0.00122,-0.03906
7.873,-0.0145,-0.07645,0.03036,-0.02502,-0.02228,-0.04074,-0.01465,-0.00366,-0.01038,-0.03082,-0.13107,-0.00381,-0.02686,0.00137,0.0,-0.0351
7.8735,-0.0058,-0.05569,0.03387,-0.0293,-0.02228,-0.03723,-0.01358,-0.00366,-0.01404,-0.02869,-0.10269,-0.00412,-0.02655,0.00015,0.00076,-0.03174
7.874,-0.00046,-0.03326,0.03586,-0.03296,-0.02106,-0.03586,-0.01343,-0.00336,-0.01801,-0.02884,-0.07874,-0.00504,-0.02731,-0.00504,0.00275,-0.03204
7.8745,-0.00046,-0.01724,0.02716,-0.03586,-0.02136,-0.03677,-0.01389,-0.0032,-0.02319,-0.0264,-0.06027,-0.00488,-0.02808,-0.009,0.00305,-0.03555
7.875,-0.00336,-0.01053,0.01129,-0.04547,-0.02335,-0.03922,-0.0145,-0.00351,-0.02777,-0.01816,-0.04486,-0.00427,-0.03082,-0.01007,0.00107,-0.0383
7.8755,-0.00473,-0.0116,-0.0029,-0.06927,-0.02365,-0.04227,-0.0145,-0.0032,-0.0293,-0.00717,-0.03159,-0.00412,-0.03357,-0.01053,-0.00549,-0.03952
7.876,-0.00443,-0.01694,-0.01251,-0.10422,-0.02396,-0.04349,-0.01526,-0.0032,-0.0267,0.00259,-0.0209,-0.00397,-0.03433,-0.01083,-0.01282,-0.0412
7.8765,-0.00381,-0.02686,-0.01999,-0.13,-0.02441,-0.04486,-0.01511,-0.00305,-0.02228,0.00839,-0.01343,0.00061,-0.0322,-0.01144,-0.01968,-0.04318
7.877,-0.00336,-0.03662,-0.02594,-0.12726,-0.0264,-0.04532,-0.01389,-0.00275,-0.01877,0.00992,-0.009,0.01694,-0.02975,-0.00992,-0.02075,-0.04349
7.8775,-0.00214,-0.04242,-0.02991,-0.1001,-0.02823,-0.04562,-0.01282,-0.00305,-0.01602,0.0058,-0.0058,0.04868,-0.02899,-0.01053,-0.009,-0.04181
7.878,-0.00122,-0.04562,-0.03067,-0.06668,-0.02853,-0.04562,-0.01297,-0.00305,-0.01358,-0.00168,-0.00198,0.08804,-0.02899,-0.0177,0.01846,-0.03998
7.8785,-0.00031,-0.04608,-0.03098,-0.04089,-0.02914,-0.04669,-0.01404,-0.00305,-0.0119,-0.00824,0.00275,0.11108,-0.02731,-0.03326,0.04425,-0.0383
7.879,0.00122,-0.0441,-0.03357,-0.02274,-0.03052,-0.04868,-0.01404,-0.00214,-0.01007,-0.01343,0.01022,0.09491,-0.02625,-0.05188,0.04608,-0.03769
7.8795,0.00397,-0.03815,-0.03799,-0.01175,-0.03189,-0.05005,-0.01251,-0.00198,-0.00916,-0.01587,0.01938,0.04288,-0.02655,-0.06409,0.02426,-0.03784
7.88,0.00671,-0.03235,-0.03876,-0.00793,-0.03128,-0.04883,-0.01083,-0.00183,-0.01022,-0.01801,0.02808,-0.00961,-0.02823,-0.06531,0.00534,-0.03647
7.8805,0.00702,-0.03128,-0.02441,-0.0058,-0.03189,-0.04486,-0.01236,-0.00183,-0.01221,-0.0206,0.03387,-0.04135,-0.02991,-0.06073,0.00504,-0.0351
7.881,0.00702,-0.03403,0.01663,0.00198,-0.03265,-0.0412,-0.01328,-0.00244,-0.01419,-0.02487,0.03708,-0.07187,-0.03189,-0.056,0.01389,-0.03357
7.8815,0.00763,-0.0444,0.06989,0.01602,-0.03342,-0.04089,-0.01312,-0.0029,-0.01373,-0.03128,0.03998,-0.13412,-0.03555,-0.04944,0.01587,-0.0351
7.882,0.00763,-0.07538,0.0885,0.02747,-0.03326,-0.04318,-0.01297,-0.00381,-0.01312,-0.03876,0.04517,-0.21591,-0.0383,-0.03799,0.00854,-0.03769
7.8825,0.00732,-0.1236,0.0473,0.02518,-0.0322,-0.04608,-0.01297,-0.00488,-0.01358,-0.04318,0.05157,-0.25436,-0.04044,-0.02457,0.00519,-0.04028
7.883,0.00626,-0.15961,-0.0293,0.00824,-0.0322,-0.04745,-0.01373,-0.00504,-0.01663,-0.04181,0.05524,-0.19501,-0.0412,-0.01495,0.00412,-0.0415
7.8835,0.00641,-0.16037,-0.08942,-0.01205,-0.0322,-0.04852,-0.01389,-0.00381,-0.0206,-0.0386,0.05646,-0.06805,-0.04211,-0.01114,0.00473,-0.04257
7.884,0.00717,-0.1355,-0.12085,-0.02335,-0.03525,-0.04898,-0.01343,-0.00229,-0.0235,-0.03845,0.05615,0.03128,-0.04257,-0.01022,0.0029,-0.04486
7.8845,0.00717,-0.10529,-0.14252,-0.02213,-0.03769,-0.05051,-0.01358,-0.00183,-0.02487,-0.0415,0.05768,0.04547,-0.04211,-0.01389,0.00153,-0.04776
7.885,0.00687,-0.07904,-0.15839,-0.01511,-0.03815,-0.05203,-0.01526,-0.00229,-0.0238,-0.04333,0.06088,0.00275,-0.04028,-0.02289,0.00214,-0.04944
7.8855,0.0058,-0.06195,-0.15289,-0.01221,-0.03784,-0.05341,-0.01587,-0.00275,-0.02335,-0.03922,0.06241,-0.04333,-0.03952,-0.03372,0.00244,-0.04913
7.886,0.00366,-0.0589,-0.12238,-0.01526,-0.03784,-0.05356,-0.01404,-0.00259,-0.02747,-0.02884,0.06424,-0.06516,-0.03952,-0.03708,0.00168,-0.04745
7.8865,0.00015,-0.06119,-0.08057,-0.01755,-0.03769,-0.0528,-0.0119,-0.00183,-0.03448,-0.01801,0.06912,-0.06516,-0.04059,-0.02899,0.00137,-0.04517
7.887,-0.00214,-0.05386,-0.03403,-0.01144,-0.0383,-0.05096,-0.01114,-0.00168,-0.03967,-0.01526,0.07462,-0.06927,-0.04181,-0.01343,0.00259,-0.04349
7.8875,-0.00229,-0.03326,0.0145,0.00778,-0.03967,-0.05051,-0.01251,-0.00259,-0.04135,-0.02289,0.07492,-0.09491,-0.04395,0.00092,0.00443,-0.04227
7.888,-0.00183,-0.01328,0.04623,0.04181,-0.03967,-0.05051,-0.01419,-0.0029,-0.0383,-0.03403,0.07233,-0.10818,-0.04379,0.00671,0.00412,-0.04105
7.8885,-0.00244,-0.01068,0.03647,0.08469,-0.03876,-0.05081,-0.01434,-0.00214,-0.03448,-0.03433,0.06973,-0.06027,-0.04272,0.00412,0.00351,-0.0412
7.889,-0.00351,-0.03235,-0.0119,0.10834,-0.03784,-0.05173,-0.01297,-0.00092,-0.03067,-0.02136,0.06348,0.02869,-0.0412,-0.0029,0.0032,-0.04196
7.8895,-0.00168,-0.05661,-0.05615,0.0856,-0.03571,-0.05264,-0.01083,0.0,-0.02762,-0.00717,0.04791,0.07629,-0.04074,-0.01251,0.00504,-0.04303
7.89,0.00305,-0.05249,-0.05157,0.02213,-0.03281,-0.05234,-0.01022,0.00183,-0.0267,-0.00168,0.01968,0.04929,-0.04044,-0.02457,0.00641,-0.04486
7.8905,0.00778,-0.01877,-0.00107,-0.03815,-0.03113,-0.05066,-0.01068,0.0032,-0.02853,-0.0061,-0.01877,0.01907,-0.03876,-0.0351,0.00595,-0.04608
7.891,0.01328,0.01846,0.05112,-0.07065,-0.02945,-0.04898,-0.0119,0.0029,-0.03036,-0.01465,-0.06088,0.05035,-0.03632,-0.03876,0.00488,-0.04395
7.8915,0.02106,0.03647,0.07858,-0.10193,-0.03052,-0.04883,-0.01221,0.00153,-0.03098,-0.02197,-0.09583,0.10468,-0.03525,-0.0383,0.00473,-0.0412
7.892,0.03006,0.03922,0.09613,-0.1593,-0.03311,-0.04944,-0.01175,-0.00031,-0.02731,-0.02823,-0.11078,0.10712,-0.03601,-0.03754,0.00534,-0.03983
7.8925,0.03586,0.03784,0.1326,-0.22919,-0.03494,-0.05112,-0.0119,-0.00168,-0.01999,-0.03235,-0.09872,0.06058,-0.0354,-0.03693,0.00687,-0.03967
7.893,0.03494,0.03006,0.18646,-0.28183,-0.03433,-0.05249,-0.01221,-0.0029,-0.00992,-0.03464,-0.0737,0.02487,-0.03296,-0.03265,0.00824,-0.0386
7.8935,0.02823,0.01434,0.22552,-0.29694,-0.03525,-0.05249,-0.01297,-0.00412,-0.00168,-0.03555,-0.05356,0.02487,-0.03067,-0.02762,0.0087,-0.03647
7.894,0.02213,-0.00565,0.21896,-0.27145,-0.0351,-0.05127,-0.01465,-0.00519,0.00137,-0.03632,-0.04456,0.0351,-0.0296,-0.02502,0.00839,-0.03525
7.8945,0.02014,-0.02411,0.16327,-0.22217,-0.0354,-0.04898,-0.01526,-0.00504,0.00076,-0.03708,-0.04013,0.03265,-0.02945,-0.02502,0.00839,-0.0354
7.895,0.02228,-0.04395,0.06088,-0.18219,-0.03448,-0.04761,-0.0148,-0.0032,0.00015,-0.03326,-0.03571,0.02213,-0.02884,-0.02457,0.01129,-0.03479
7.8955,0.0267,-0.06088,-0.07431,-0.16785,-0.03235,-0.04761,-0.01389,-0.00198,-0.00092,-0.02762,-0.03204,0.01678,-0.02777,-0.02121,0.01373,-0.03128
7.896,0.03265,-0.06241,-0.20157,-0.16266,-0.0325,-0.04959,-0.01358,-0.00305,-0.00427,-0.02487,-0.03174,0.01602,-0.02701,-0.01862,0.01541,-0.02777
7.8965,0.03555,-0.04745,-0.26642,-0.13992,-0.03311,-0.05127,-0.01404,-0.00473,-0.00778,-0.02625,-0.03311,0.01633,-0.02762,-0.0174,0.01297,-0.02747
7.897,0.03555,-0.02609,-0.24902,-0.09827,-0.0354,-0.05203,-0.01556,-0.00687,-0.00931,-0.02823,-0.03448,0.0148,-0.02655,-0.01633,0.00717,-0.03128
7.8975,0.03418,-0.00885,-0.17746,-0.06226,-0.03616,-0.05325,-0.01633,-0.00748,-0.00854,-0.03021,-0.03723,0.01358,-0.02563,-0.01419,-0.00107,-0.03708
7.898,0.03281,0.00229,-0.0943,-0.04425,-0.03662,-0.05402,-0.01587,-0.00763,-0.00748,-0.03128,-0.04623,0.01419,-0.0264,-0.01297,-0.00946,-0.04181
7.8985,0.03265,0.00336,-0.02518,-0.03555,-0.03815,-0.0531,-0.0145,-0.00671,-0.00732,-0.03113,-0.05905,0.01556,-0.02777,-0.01358,-0.01205,-0.04486
7.899,0.02991,-0.01221,0.02792,-0.02991,-0.04105,-0.05188,-0.01312,-0.00473,-0.00687,-0.02869,-0.06912,0.0174,-0.02869,-0.0145,-0.01099,-0.04837
7.8995,0.02518,-0.04166,0.06363,-0.02777,-0.04318,-0.05127,-0.01328,-0.00473,-0.00427,-0.02365,-0.07248,0.01816,-0.02869,-0.01389,-0.00702,-0.05249
7.9,0.0209,-0.07095,0.08484,-0.02869,-0.04318,-0.05081,-0.01312,-0.00534,-0.00275,-0.01816,-0.07202,0.0177,-0.02869,-0.01251,-0.0087,-0.05646
7.9005,0.01846,-0.08118,0.09338,-0.02228,-0.04364,-0.05142,-0.01373,-0.00549,-0.00168,-0.01343,-0.07309,0.01633,-0.02853,-0.00946,-0.01907,-0.05814
7.901,0.01495,-0.06317,0.09155,-0.00412,-0.04272,-0.05112,-0.01465,-0.00412,-0.00122,-0.00931,-0.07889,0.01602,-0.02792,-0.00809,-0.02792,-0.05554
7.9015,0.00916,-0.02823,0.0737,0.01785,-0.04181,-0.05142,-0.01434,-0.00305,-0.00137,-0.00458,-0.08499,0.01709,-0.02914,-0.00717,-0.02686,-0.04974
7.902,-0.00031,-0.00854,0.03601,0.03143,-0.04181,-0.0528,-0.0145,-0.00336,-0.00183,-0.00153,-0.08514,0.01755,-0.03143,-0.00671,-0.009,-0.04349
7.9025,-0.01022,-0.02396,-0.01266,0.03403,-0.04166,-0.05386,-0.01389,-0.00351,-0.0032,-0.00336,-0.07996,0.01648,-0.03357,-0.00595,0.02289,-0.04013
7.903,-0.01465,-0.06668,-0.06134,0.03113,-0.04059,-0.05402,-0.01389,-0.00397,-0.00381,-0.00732,-0.06973,0.01556,-0.03479,-0.00443,0.0531,-0.03876
7.9035,-0.01022,-0.10605,-0.09766,0.03311,-0.03906,-0.05127,-0.01373,-0.00305,-0.00427,-0.01144,-0.05524,0.01419,-0.03571,-0.00198,0.05859,-0.03799
7.904,0.00015,-0.12009,-0.121,0.04272,-0.03571,-0.04868,-0.01373,-0.00183,-0.00488,-0.01999,-0.03769,0.01297,-0.03738,0.00107,0.0386,-0.03815
7.9045,0.01083,-0.11353,-0.13657,0.056,-0.03265,-0.04517,-0.0145,-0.00107,-0.00626,-0.03632,-0.02335,0.01068,-0.03952,0.00381,0.01816,-0.03967
7.905,0.01648,-0.10101,-0.14542,0.06104,-0.03128,-0.04227,-0.0148,-0.00168,-0.00687,-0.05859,-0.01328,0.00824,-0.04044,0.00473,0.01663,-0.04211
7.9055,0.01816,-0.08987,-0.14587,0.0528,-0.02945,-0.03891,-0.0148,-0.00198,-0.00595,-0.07233,-0.00427,0.00671,-0.03998,0.00214,0.02579,-0.04379
7.906,0.01938,-0.0766,-0.13611,0.0325,-0.02716,-0.0386,-0.0145,-0.00305,-0.00443,-0.06454,0.00687,0.00473,-0.03983,-0.00244,0.02625,-0.04547
7.9065,0.02197,-0.0589,-0.12985,0.00992,-0.02533,-0.04074,-0.01389,-0.00336,-0.00168,-0.04272,0.01984,0.0032,-0.0412,-0.00458,0.01785,-0.04623
7.907,0.02487,-0.03891,-0.14191,0.0061,-0.02594,-0.04303,-0.01297,-0.0029,0.0,-0.02533,0.0322,0.0032,-0.04211,-0.00381,0.01251,-0.04654
7.9075,0.02228,-0.0206,-0.16495,0.03754,-0.02762,-0.04562,-0.01282,-0.00229,-0.00031,-0.03296,0.04395,0.00641,-0.04211,-0.00381,0.01343,-0.0441
7.908,0.01099,-0.00504,-0.17395,0.0914,-0.02869,-0.04791,-0.01328,-0.00275,-0.00504,-0.06729,0.05539,0.01221,-0.04257,-0.00595,0.01587,-0.04318
7.9085,-0.00275,0.00687,-0.1535,0.1387,-0.02899,-0.05066,-0.01419,-0.00351,-0.01083,-0.11627,0.0647,0.01633,-0.04318,-0.01022,0.01328,-0.04333
7.909,-0.01007,0.01511,-0.11902,0.16846,-0.02945,-0.05325,-0.0148,-0.00244,-0.01526,-0.15366,0.0705,0.01724,-0.04333,-0.01358,0.01053,-0.04395
7.9095,-0.00839,0.01877,-0.09491,0.19226,-0.02838,-0.05417,-0.01434,-0.00092,-0.01862,-0.15671,0.07339,0.01633,-0.04288,-0.01419,0.00977,-0.04517
7.91,-0.0032,0.01892,-0.08667,0.20935,-0.02579,-0.05234,-0.01312,0.00015,-0.02274,-0.1207,0.07004,0.01709,-0.0415,-0.01221,0.00916,-0.04532
7.9105,0.00153,0.01404,-0.08438,0.19241,-0.02396,-0.04959,-0.01114,0.00046,-0.02853,-0.05737,0.05798,0.01801,-0.04013,-0.0116,0.00687,-0.04578
7.911,0.0061,0.0061,-0.07919,0.11719,-0.02243,-0.0473,-0.01068,0.00031,-0.03433,0.01633,0.04181,0.01663,-0.03845,-0.0119,0.00534,-0.04532
7.9115,0.01099,-0.00412,-0.07065,0.00076,-0.02228,-0.04532,-0.01099,-0.00076,-0.03815,0.08652,0.0264,0.01129,-0.03647,-0.0119,0.00504,-0.0444
7.912,0.01434,-0.01572,-0.05951,-0.11734,-0.02335,-0.04395,-0.0116,-0.00137,-0.04181,0.1445,0.01266,0.00687,-0.03479,-0.01266,0.00534,-0.04196
7.9125,0.01556,-0.0293,-0.04684,-0.21729,-0.02365,-0.04318,-0.01129,-0.00122,-0.04532,0.1828,0.00015,0.00687,-0.03494,-0.01343,0.00519,-0.04059
7.913,0.0148,-0.04349,-0.03479,-0.29922,-0.02411,-0.0415,-0.01129,-0.00198,-0.04807,0.19821,-0.01236,0.00885,-0.03448,-0.01434,0.00519,-0.03922
7.9135,0.01541,-0.05417,-0.02441,-0.35416,-0.02441,-0.04028,-0.01343,-0.00275,-0.04944,0.19135,-0.02701,0.00595,-0.03265,-0.01358,0.00717,-0.03815
7.914,0.01602,-0.05203,-0.0174,-0.37521,-0.02533,-0.03952,-0.01511,-0.00351,-0.04929,0.16556,-0.04974,-0.00443,-0.02899,-0.01389,0.00732,-0.03815
7.9145,0.01221,-0.03723,-0.01266,-0.39505,-0.02533,-0.03952,-0.01556,-0.00366,-0.05035,0.1265,-0.08484,-0.02121,-0.0267,-0.01678,0.00641,-0.03952
7.915,0.00061,-0.02045,-0.00946,-0.43442,-0.02579,-0.04135,-0.01541,-0.00488,-0.05188,0.08286,-0.13,-0.04074,-0.02533,-0.01999,0.0029,-0.04211
7.9155,-0.01205,-0.00946,-0.00748,-0.43884,-0.02625,-0.04196,-0.0148,-0.0061,-0.05157,0.04517,-0.17426,-0.05859,-0.02502,-0.02121,0.00076,-0.04425
7.916,-0.01755,-0.00595,-0.00519,-0.34424,-0.02762,-0.04364,-0.01526,-0.00702,-0.04852,0.01755,-0.2066,-0.06866,-0.02274,-0.02213,-0.00031,-0.04471
7.9165,-0.01373,-0.00595,0.00259,-0.18784,-0.02823,-0.04089,-0.01556,-0.00763,-0.04227,-0.00916,-0.22552,-0.06897,-0.02014,-0.02533,0.00076,-0.04425
7.917,-0.00488,-0.01221,0.01724,-0.05676,-0.02884,-0.03952,-0.01572,-0.00687,-0.03632,-0.04608,-0.23026,-0.05829,-0.01648,-0.02991,0.00412,-0.04303
7.9175,0.00397,-0.02975,0.03998,0.05829,-0.03006,-0.03784,-0.01556,-0.00656,-0.0322,-0.09155,-0.22171,-0.03494,-0.01389,-0.03372,0.01022,-0.04227
7.918,0.01038,-0.05676,0.06866,0.23575,-0.03143,-0.03662,-0.01495,-0.00534,-0.0296,-0.13321,-0.19867,-0.00031,-0.01236,-0.03464,0.01038,-0.04181
7.9185,0.01083,-0.08484,0.10361,0.43808,-0.0322,-0.03815,-0.01495,-0.00412,-0.02563,-0.14923,-0.16357,0.03784,-0.01266,-0.0351,0.0061,-0.04211
7.919,0.00381,-0.11047,0.1416,0.51376,-0.03311,-0.04272,-0.01526,-0.00366,-0.02029,-0.13474,-0.11993,0.06592,-0.01343,-0.03571,0.00076,-0.04333
7.9195,-0.00992,-0.13596,0.16663,0.41428,-0.03357,-0.04852,-0.01419,-0.00366,-0.01419,-0.10208,-0.07904,0.06744,-0.01434,-0.03571,0.00061,-0.04257
7.92,-0.02304,-0.15823,0.1709,0.26276,-0.03525,-0.05127,-0.01328,-0.00534,-0.00519,-0.07355,-0.05203,0.04227,-0.01465,-0.0325,0.0032,-0.04059
7.9205,-0.02792,-0.16449,0.16663,0.1767,-0.03784,-0.05249,-0.01343,-0.0061,0.0029,-0.05417,-0.04623,0.01373,-0.01495,-0.02869,0.00153,-0.03922
7.921,-0.02182,-0.1506,0.17258,0.15457,-0.03876,-0.05035,-0.0148,-0.00565,0.00992,-0.03387,-0.05722,0.00504,-0.01526,-0.02487,-0.00671,-0.03799
7.9215,-0.0119,-0.12558,0.18341,0.14221,-0.03815,-0.04852,-0.01648,-0.00473,0.01328,-0.00778,-0.07339,0.0148,-0.01755,-0.02472,-0.01877,-0.03662
7.922,-0.0061,-0.10147,0.17075,0.12482,-0.03708,-0.04623,-0.01709,-0.00381,0.0145,0.01907,-0.10101,0.02228,-0.01923,-0.02533,-0.03098,-0.03601
7.9225,-0.00595,-0.0798,0.12146,0.11444,-0.03479,-0.04517,-0.01709,-0.00305,0.0145,0.03799,-0.15106,0.01694,-0.0209,-0.02548,-0.04318,-0.03647
7.923,-0.00839,-0.05814,0.05569,0.11215,-0.03448,-0.04471,-0.01633,-0.00229,0.01312,0.04745,-0.20782,0.00549,-0.02121,-0.02548,-0.05432,-0.0383
7.9235,-0.01083,-0.0351,-0.00031,0.10941,-0.03494,-0.0444,-0.01465,-0.0029,0.00885,0.04868,-0.2269,0.0,-0.02243,-0.02609,-0.06516,-0.04013
7.924,-0.01022,-0.02106,-0.04868,0.10452,-0.03555,-0.04333,-0.01343,-0.00351,0.00443,0.04181,-0.19791,-0.00061,-0.02609,-0.0267,-0.07141,-0.04059
7.9245,-0.00824,-0.02853,-0.11444,0.09918,-0.03693,-0.04196,-0.01434,-0.00412,0.00046,0.03067,-0.15305,0.00076,-0.03006,-0.02594,-0.07004,-0.04074
7.925,-0.01022,-0.0592,-0.1918,0.09476,-0.03723,-0.04059,-0.01511,-0.00443,-0.00153,0.01556,-0.12619,0.00031,-0.03174,-0.02441,-0.0705,-0.03983
7.9255,-0.01724,-0.09048,-0.24841,0.09048,-0.03693,-0.04318,-0.01465,-0.00336,-0.00259,0.00458,-0.11078,-0.00061,-0.03296,-0.0238,-0.065,-0.04379
7.926,-0.02563,-0.09384,-0.26459,0.08774,-0.03586,-0.05005,-0.01282,-0.00183,-0.00305,-0.00153,-0.08911,-0.00168,-0.03448,-0.0238,-0.04303,-0.05341
7.9265,-0.03006,-0.06317,-0.26627,0.08255,-0.03464,-0.05798,-0.01129,-0.00107,-0.00214,-0.00366,-0.0589,-0.00351,-0.03586,-0.02365,0.00443,-0.06332
7.927,-0.02853,-0.01999,-0.2774,0.07706,-0.03311,-0.06409,-0.0116,-0.00168,0.00015,-0.00702,-0.03357,-0.00412,-0.03891,-0.02243,0.06699,-0.06546
7.9275,-0.02197,0.01007,-0.28046,0.07111,-0.0322,-0.06882,-0.01282,-0.00229,0.0029,-0.01266,-0.01755,-0.00229,-0.04181,-0.02121,0.11429,-0.05615
7.928,-0.0119,0.01236,-0.24033,0.06607,-0.03067,-0.06912,-0.01297,-0.0032,0.00549,-0.0177,-0.00366,0.00046,-0.04379,-0.02029,0.12878,-0.03983
7.9285,-0.00412,-0.00565,-0.16571,0.06241,-0.0296,-0.0676,-0.01266,-0.00397,0.0061,-0.01923,0.01328,-0.00031,-0.04517,-0.02136,0.12146,-0.02731
7.929,-0.00244,-0.0174,-0.10422,0.06027,-0.03036,-0.0647,-0.01328,-0.00397,0.00504,-0.01785,0.03403,-0.00397,-0.04608,-0.02151,0.11292,-0.02762
7.9295,-0.00641,-0.00198,-0.08423,0.05753,-0.02914,-0.06088,-0.01343,-0.00275,0.00092,-0.01602,0.05127,-0.00702,-0.04669,-0.02045,0.10818,-0.03738
7.93,-0.01282,0.03143,-0.09415,0.05493,-0.02792,-0.05753,-0.01297,-0.00137,-0.00366,-0.01343,0.05981,-0.00504,-0.04868,-0.01953,0.10254,-0.04578
7.9305,-0.01999,0.05417,-0.11032,0.05142,-0.02762,-0.05447,-0.01266,-0.00183,-0.00626,-0.01846,0.05814,-0.00107,-0.04944,-0.01862,0.08118,-0.04379
7.931,-0.02762,0.05508,-0.12161,0.04669,-0.02838,-0.05295,-0.01328,-0.0029,-0.00702,-0.03418,0.05203,0.00214,-0.04974,-0.01984,0.03311,-0.03647
7.9315,-0.03433,0.0473,-0.13321,0.04074,-0.03021,-0.05325,-0.01373,-0.00366,-0.00946,-0.0589,0.05005,0.00427,-0.05005,-0.01999,-0.0209,-0.02838
7.932,-0.03922,0.04211,-0.14786,0.03571,-0.03174,-0.05707,-0.01358,-0.0029,-0.01083,-0.08026,0.05402,0.00854,-0.04929,-0.01831,-0.03937,-0.02533
7.9325,-0.03906,0.03754,-0.15793,0.03265,-0.0322,-0.06058,-0.01297,-0.00198,-0.01144,-0.08987,0.06317,0.01526,-0.04974,-0.01755,-0.01282,-0.0293
7.933,-0.03357,0.02655,-0.15152,0.03006,-0.03265,-0.06271,-0.01297,-0.00259,-0.01144,-0.09384,0.0737,0.01877,-0.04883,-0.01648,0.02151,-0.03677
7.9335,-0.02487,0.00992,-0.13,0.02731,-0.03098,-0.06226,-0.01358,-0.00305,-0.01236,-0.10132,0.08575,0.01404,-0.04776,-0.01633,0.03372,-0.04227
7.934,-0.01526,-0.00839,-0.10498,0.02716,-0.02991,-0.05783,-0.01389,-0.00381,-0.01373,-0.1149,0.09842,0.00229,-0.04639,-0.01541,0.03235,-0.04257
7.9345,-0.00443,-0.0264,-0.08499,0.02884,-0.02808,-0.0531,-0.01312,-0.00473,-0.01617,-0.12177,0.10971,-0.00931,-0.04608,-0.01434,0.03281,-0.04181
7.935,0.00885,-0.03799,-0.06973,0.03006,-0.02655,-0.04822,-0.01312,-0.00427,-0.02014,-0.11566,0.11856,-0.0148,-0.04562,-0.01221,0.03586,-0.0415
7.9355,0.02075,-0.0412,-0.0528,0.03204,-0.02533,-0.04196,-0.0145,-0.0032,-0.02426,-0.09491,0.12878,-0.01587,-0.04639,-0.01007,0.03281,-0.04272
7.936,0.02991,-0.03967,-0.03265,0.0412,-0.02426,-0.03571,-0.01495,-0.0029,-0.02686,-0.06317,0.14008,-0.01816,-0.04456,-0.00885,0.02441,-0.04135
7.9365,0.03708,-0.03906,-0.01358,0.0563,-0.02441,-0.03235,-0.01526,-0.00259,-0.02731,-0.02808,0.14496,-0.01999,-0.04272,-0.00854,0.01785,-0.04013
7.937,0.04364,-0.04181,-0.00198,0.0621,-0.02365,-0.03342,-0.01434,-0.00244,-0.02777,0.00397,0.13718,-0.01541,-0.04227,-0.00961,0.01495,-0.03998
7.9375,0.04837,-0.04547,0.00015,0.05096,-0.02304,-0.03754,-0.01404,-0.00336,-0.03052,0.02869,0.1181,0.00076,-0.04196,-0.01129,0.01343,-0.04089
7.938,0.05264,-0.047,-0.00305,0.03036,-0.02289,-0.0412,-0.0148,-0.00412,-0.03418,0.04333,0.08911,0.02716,-0.0412,-0.01373,0.00824,-0.04089
7.9385,0.0563,-0.047,-0.00641,0.01328,-0.02502,-0.04349,-0.01572,-0.00351,-0.03555,0.04913,0.05386,0.05005,-0.03998,-0.01617,0.00443,-0.04074
7.939,0.05875,-0.04868,-0.00626,0.00092,-0.02823,-0.04333,-0.01541,-0.00214,-0.03479,0.04517,0.01816,0.04929,-0.03769,-0.01831,0.00397,-0.04105
7.9395,0.05905,-0.05188,-0.00031,-0.02045,-0.02975,-0.04318,-0.01434,-0.00122,-0.03326,0.03204,-0.00977,0.02686,-0.0351,-0.01968,0.00534,-0.04242
7.94,0.0592,-0.0563,0.00961,-0.06195,-0.03006,-0.04227,-0.01389,-0.00107,-0.03265,0.01312,-0.0264,-0.00366,-0.0322,-0.0206,0.0061,-0.04257
7.9405,0.06073,-0.05875,0.01907,-0.11749,-0.03021,-0.04044,-0.01328,-0.00092,-0.03479,-0.00443,-0.03632,-0.0325,-0.03052,-0.01999,0.00519,-0.04318
7.941,0.06256,-0.05768,0.02518,-0.15625,-0.03082,-0.03647,-0.01236,-0.00107,-0.03784,-0.01556,-0.0473,-0.05783,-0.02899,-0.01816,0.00061,-0.0441
7.9415,0.06119,-0.05417,0.03006,-0.15274,-0.03281,-0.0322,-0.0119,-0.00122,-0.03845,-0.02441,-0.06805,-0.06836,-0.0267,-0.01907,-0.00214,-0.04517
7.942,0.05463,-0.05157,0.03571,-0.10483,-0.03357,-0.03036,-0.01251,-0.00214,-0.03616,-0.03357,-0.09521,-0.05997,-0.02472,-0.02243,-0.00305,-0.04562
7.9425,0.04547,-0.0502,0.03372,-0.04517,-0.03418,-0.03098,-0.01358,-0.00305,-0.03357,-0.03952,-0.11108,-0.04089,-0.0235,-0.0267,-0.00183,-0.04547
7.943,0.03769,-0.04715,0.01556,-0.01312,-0.03418,-0.03265,-0.01389,-0.0032,-0.03189,-0.0351,-0.10086,-0.02258,-0.02274,-0.02731,0.00015,-0.04349
7.9435,0.03128,-0.04089,-0.02258,-0.02182,-0.03357,-0.03601,-0.01236,-0.00275,-0.03098,-0.0174,-0.06577,-0.00595,-0.02274,-0.02411,0.00092,-0.04059
7.944,0.02335,-0.03784,-0.05615,-0.04807,-0.03311,-0.03967,-0.01221,-0.0029,-0.03067,0.01251,-0.02655,0.00427,-0.02228,-0.01968,0.00153,-0.03967
7.9445,0.01434,-0.03784,-0.04028,-0.05783,-0.03326,-0.0441,-0.01328,-0.00305,-0.02975,0.0441,-0.0032,0.0,-0.02151,-0.01801,0.00061,-0.04135
7.945,0.00946,-0.04333,0.03723,-0.03433,-0.03464,-0.04608,-0.01434,-0.00305,-0.02686,0.06622,0.00366,-0.01801,-0.01953,-0.01877,0.00076,-0.04288
7.9455,0.01205,-0.04944,0.12924,0.01968,-0.03677,-0.04623,-0.01373,-0.00198,-0.02136,0.0708,0.00717,-0.02853,-0.0177,-0.01984,0.00031,-0.04288
7.946,0.01785,-0.05066,0.17334,0.08575,-0.03784,-0.04745,-0.0116,-0.00061,-0.01587,0.06134,0.01877,-0.02106,-0.01816,-0.01999,0.00122,-0.04318
7.9465,0.02075,-0.04608,0.15015,0.12466,-0.03891,-0.04898,-0.01175,-0.00076,-0.01205,0.04929,0.03159,-0.00427,-0.01892,-0.01968,0.00229,-0.04349
7.947,0.01877,-0.04105,0.08286,0.10269,-0.03891,-0.05035,-0.01175,-0.00153,-0.00961,0.03983,0.03159,0.00626,-0.01938,-0.02014,0.00275,-0.04333
7.9475,0.01312,-0.04272,0.00183,0.02853,-0.03708,-0.05035,-0.01221,-0.00244,-0.00839,0.03265,0.01846,0.00931,-0.02045,-0.01938,0.00198,-0.04227
7.948,0.00824,-0.05829,-0.06302,-0.04349,-0.03555,-0.05142,-0.01221,-0.00198,-0.00732,0.02304,0.00977,0.01007,-0.02121,-0.01633,0.00168,-0.04089
7.9485,0.00534,-0.09338,-0.09323,-0.06927,-0.03494,-0.05234,-0.01205,-0.00153,-0.00641,0.01068,0.0119,0.0116,-0.02213,-0.01358,0.0029,-0.04105
7.949,0.00122,-0.13962,-0.08743,-0.05188,-0.03479,-0.05325,-0.01251,-0.00198,-0.00473,-0.00534,0.01251,0.01114,-0.02502,-0.01282,0.00427,-0.0412
7.9495,-0.00702,-0.17807,-0.06393,-0.02106,-0.03494,-0.05249,-0.01297,-0.00366,-0.00259,-0.02228,0.00443,0.00916,-0.02731,-0.01144,0.00473,-0.04089
7.95,-0.01648,-0.20233,-0.04425,0.00671,-0.03372,-0.05173,-0.01312,-0.00519,-0.00046,-0.03937,-0.00046,0.0087,-0.02899,-0.00961,0.00519,-0.04028
7.9505,-0.02075,-0.21927,-0.0351,0.02945,-0.03143,-0.05142,-0.01297,-0.00671,-0.00092,-0.05325,0.01678,0.00931,-0.02884,-0.00946,0.00412,-0.03983
7.951,-0.01587,-0.22476,-0.01709,0.04013,-0.02975,-0.05188,-0.01328,-0.00687,-0.00168,-0.06271,0.05096,0.009,-0.02686,-0.01007,0.00565,-0.04013
7.9515,-0.00641,-0.20004,0.02472,0.03128,-0.02899,-0.05249,-0.01282,-0.00626,-0.00107,-0.06714,0.07538,0.00885,-0.02335,-0.01068,0.0061,-0.04074
7.952,-0.00275,-0.14511,0.08087,0.01312,-0.02777,-0.05295,-0.01205,-0.00473,0.00153,-0.06653,0.06027,0.00992,-0.02121,-0.00961,0.00671,-0.04013
7.9525,-0.00473,-0.07874,0.12466,0.0,-0.02762,-0.05234,-0.01205,-0.00458,0.00351,-0.06393,0.00565,0.01007,-0.02106,-0.00778,0.00687,-0.03876
7.953,-0.00595,-0.02014,0.14435,-0.00702,-0.02655,-0.05249,-0.01236,-0.00549,0.00305,-0.05844,-0.05875,0.009,-0.02289,-0.00748,0.00702,-0.03723
7.9535,-0.00183,0.02487,0.14099,-0.0177,-0.02609,-0.05295,-0.01251,-0.00549,0.00122,-0.05112,-0.09369,0.00854,-0.02655,-0.01266,0.00534,-0.03708
7.954,0.00275,0.05035,0.11475,-0.0322,-0.02563,-0.05127,-0.01221,-0.00504,0.00092,-0.04074,-0.08987,0.00839,-0.03098,-0.02319,0.00519,-0.03647
7.9545,0.00259,0.04883,0.06653,-0.03983,-0.02502,-0.04959,-0.01221,-0.00458,0.00076,-0.03632,-0.06424,0.00885,-0.03433,-0.03738,0.00504,-0.03769
7.955,-0.00046,0.02823,-0.00076,-0.03662,-0.02396,-0.04868,-0.01373,-0.00488,-0.00015,-0.0415,-0.0412,0.00885,-0.03693,-0.05066,0.0061,-0.04105
7.9555,-0.00336,0.01434,-0.07797,-0.03052,-0.02319,-0.04959,-0.01526,-0.00488,-0.00092,-0.05341,-0.03082,0.009,-0.03967,-0.05737,0.00687,-0.04532
7.956,-0.00549,0.02136,-0.15015,-0.02487,-0.02304,-0.05066,-0.01572,-0.00443,-0.00229,-0.06577,-0.02686,0.00839,-0.04196,-0.05478,0.00626,-0.0502
7.9565,-0.0058,0.03815,-0.19913,-0.0174,-0.02411,-0.05096,-0.01511,-0.00488,-0.0029,-0.07645,-0.0235,0.00763,-0.04395,-0.0444,0.00427,-0.05264
7.957,-0.00458,0.04745,-0.21271,-0.00336,-0.02502,-0.05035,-0.01465,-0.00519,-0.00519,-0.08545,-0.01389,0.00595,-0.04517,-0.0325,0.00275,-0.05112
7.9575,-0.00366,0.04272,-0.19272,0.01175,-0.02579,-0.04929,-0.01556,-0.00549,-0.01129,-0.08789,0.00168,0.00412,-0.04654,-0.02441,0.00168,-0.04654
7.958,-0.00336,0.01892,-0.15625,0.01999,-0.02731,-0.04898,-0.01587,-0.00626,-0.01984,-0.0737,0.01953,0.00275,-0.04623,-0.02335,0.00229,-0.04349
7.9585,-0.00488,-0.02014,-0.12405,0.01801,-0.02731,-0.04929,-0.01602,-0.00534,-0.02594,-0.03952,0.0354,0.0029,-0.04532,-0.02853,0.00259,-0.04242
7.959,-0.00641,-0.05356,-0.10864,0.01114,-0.02838,-0.05066,-0.01587,-0.00412,-0.02716,0.00519,0.04578,0.00305,-0.04486,-0.03418,0.00351,-0.04227
7.9595,-0.00626,-0.05814,-0.10452,0.00504,-0.03052,-0.05157,-0.01617,-0.00336,-0.02686,0.04745,0.05127,0.00336,-0.04517,-0.03387,0.00412,-0.04135
7.96,-0.00244,-0.04028,-0.10162,0.00214,-0.0322,-0.05112,-0.01587,-0.00305,-0.02945,0.07263,0.05234,0.00443,-0.04257,-0.0264,0.00504,-0.03998
7.9605,0.00412,-0.02762,-0.09491,0.00061,-0.03189,-0.04944,-0.01511,-0.00183,-0.03021,0.07278,0.04959,0.00412,-0.04028,-0.01343,0.00549,-0.04059
7.961,0.01099,-0.02975,-0.08316,0.01266,-0.0293,-0.04837,-0.01389,-0.00031,-0.02716,0.05005,0.04288,0.00641,-0.03891,-0.00427,0.00519,-0.04074
7.9615,0.01602,-0.03571,-0.06866,0.05157,-0.02686,-0.04669,-0.0119,0.00015,-0.02289,0.01984,0.03021,0.01678,-0.03845,-0.00702,0.00305,-0.04089
7.962,0.01602,-0.0354,-0.0531,0.10895,-0.02838,-0.04471,-0.01068,-0.00076,-0.0267,-0.00259,0.01236,0.03403,-0.03708,-0.01312,0.00229,-0.03952
7.9625,0.0148,-0.03326,-0.03952,0.14832,-0.03052,-0.04349,-0.0116,-0.00061,-0.04135,-0.01404,-0.00626,0.04425,-0.0351,-0.01434,0.00061,-0.03815
7.963,0.01236,-0.03494,-0.03098,0.13367,-0.03143,-0.04105,-0.01266,0.0,-0.05554,-0.02594,-0.0206,0.03784,-0.03433,-0.01633,0.00061,-0.03845
7.9635,0.01068,-0.04044,-0.02686,0.06363,-0.03067,-0.03891,-0.01205,0.00198,-0.05768,-0.0441,-0.02747,0.01541,-0.03464,-0.02975,0.00244,-0.03967
7.964,0.00854,-0.04349,-0.02853,-0.02808,-0.03006,-0.03769,-0.01099,0.00381,-0.04944,-0.06577,-0.02838,-0.01129,-0.03525,-0.04807,0.00534,-0.04135
7.9645,0.0058,-0.04196,-0.03601,-0.10162,-0.03052,-0.03845,-0.01038,0.00336,-0.04166,-0.07843,-0.02472,-0.03082,-0.03372,-0.056,0.00824,-0.04227
7.965,0.00336,-0.03891,-0.04837,-0.14679,-0.02991,-0.04089,-0.01144,0.00229,-0.0412,-0.07782,-0.01877,-0.03235,-0.03128,-0.04807,0.00977,-0.04028
7.9655,-0.00229,-0.03815,-0.05844,-0.19012,-0.03052,-0.04272,-0.01312,0.00092,-0.04318,-0.06729,-0.01236,-0.01099,-0.03036,-0.03189,0.01022,-0.03891
7.966,-0.01434,-0.0415,-0.06042,-0.25986,-0.03143,-0.04303,-0.01404,-0.00015,-0.04196,-0.05417,-0.00381,0.02594,-0.03143,-0.01266,0.01236,-0.03799
7.9665,-0.02701,-0.04639,-0.05341,-0.34378,-0.03311,-0.04196,-0.01495,-0.00183,-0.03677,-0.04318,0.00931,0.05402,-0.03189,0.00885,0.01511,-0.03952
7.967,-0.03036,-0.05173,-0.0444,-0.39871,-0.03479,-0.04196,-0.01617,-0.00351,-0.03113,-0.03586,0.02609,0.05539,-0.03159,0.02472,0.01862,-0.04242
7.9675,-0.02411,-0.05692,-0.03708,-0.40619,-0.03448,-0.04288,-0.0174,-0.00488,-0.02716,-0.03204,0.04562,0.02777,-0.03128,0.02808,0.01831,-0.04471
7.968,-0.01755,-0.06714,-0.03387,-0.39261,-0.03525,-0.04288,-0.01785,-0.00534,-0.02258,-0.03113,0.06638,-0.01587,-0.03113,0.01434,0.01022,-0.04608
7.9685,-0.01495,-0.09521,-0.03082,-0.38498,-0.03555,-0.04257,-0.01709,-0.0061,-0.01389,-0.02213,0.08438,-0.05157,-0.03143,-0.01007,0.00153,-0.04639
7.969,-0.0145,-0.14847,-0.02792,-0.37354,-0.03525,-0.04211,-0.01678,-0.00732,-0.00427,-0.00061,0.09598,-0.05661,-0.03174,-0.03479,0.00198,-0.04639
7.9695,-0.01328,-0.20645,-0.02121,-0.31296,-0.03464,-0.04242,-0.01678,-0.00885,0.0,0.02274,0.10239,-0.03387,-0.03159,-0.047,0.00809,-0.04547
7.97,-0.01221,-0.22583,-0.00732,-0.15839,-0.03433,-0.04288,-0.01572,-0.00946,-0.00076,0.0296,0.10727,-0.01205,-0.03021,-0.04105,0.01236,-0.0441
7.9705,-0.0116,-0.19058,0.01816,0.08469,-0.03403,-0.04333,-0.01389,-0.00977,-0.00122,0.01572,0.10315,-0.01282,-0.02914,-0.02457,0.01053,-0.04318
7.971,-0.01236,-0.11948,0.04578,0.31754,-0.0354,-0.04257,-0.01282,-0.00931,0.00061,-0.00305,0.08026,-0.03067,-0.03021,-0.01221,0.00793,-0.04379
7.9715,-0.01099,-0.04028,0.05798,0.41855,-0.03601,-0.04242,-0.01358,-0.009,0.00351,-0.00961,0.03708,-0.04959,-0.03098,-0.01129,0.00824,-0.04639
7.972,-0.00839,0.02396,0.04044,0.3714,-0.03632,-0.04425,-0.01495,-0.009,0.00183,-0.00763,-0.01511,-0.06104,-0.03189,-0.01678,0.00977,-0.04837
7.9725,-0.00717,0.04761,0.0087,0.271,-0.03464,-0.047,-0.01526,-0.00778,-0.00229,-0.01373,-0.06454,-0.06042,-0.03052,-0.0206,0.01007,-0.04807
7.973,-0.01022,0.02228,0.009,0.19104,-0.03311,-0.0499,-0.01358,-0.00549,-0.00488,-0.03479,-0.103,-0.04303,-0.02869,-0.02136,0.00977,-0.04684
7.9735,-0.01556,-0.02655,0.06363,0.13092,-0.03113,-0.05402,-0.01236,-0.0029,-0.00381,-0.05157,-0.12482,-0.01465,-0.02747,-0.02182,0.00977,-0.04425
7.974,-0.02319,-0.05936,0.13474,0.0737,-0.03143,-0.05905,-0.01236,-0.00137,-0.00168,-0.04089,-0.12802,0.00702,-0.02701,-0.02182,0.01022,-0.0415
7.9745,-0.03601,-0.05753,0.16205,0.0325,-0.03067,-0.06271,-0.01343,-0.0032,0.00046,-0.00641,-0.11841,0.01297,-0.02716,-0.02136,0.00854,-0.04013
7.975,-0.05493,-0.04227,0.1181,0.01907,-0.03052,-0.06241,-0.01312,-0.00473,0.00336,0.02655,-0.11032,0.00885,-0.02716,-0.02029,0.00778,-0.04028
7.9755,-0.07324,-0.04105,0.01587,0.01465,-0.03067,-0.06088,-0.01312,-0.00473,0.00473,0.04196,-0.1088,0.00488,-0.02747,-0.01846,0.00809,-0.03937
7.976,-0.08774,-0.0592,-0.10834,0.00397,-0.03265,-0.05951,-0.01373,-0.00275,0.00519,0.04196,-0.10818,0.00351,-0.02747,-0.01587,0.0087,-0.03662
7.9765,-0.09857,-0.07919,-0.19958,-0.009,-0.03433,-0.05905,-0.01526,-0.00137,0.00488,0.0354,-0.10178,0.00229,-0.02777,-0.01236,0.009,-0.03296
7.977,-0.10925,-0.08408,-0.20813,-0.01511,-0.03662,-0.05966,-0.01556,-0.00092,0.00412,0.01816,-0.08667,-0.00137,-0.02747,-0.00839,0.00854,-0.03128
7.9775,-0.11703,-0.07233,-0.13229,-0.01846,-0.03876,-0.06165,-0.01404,-0.00137,0.00381,-0.01205,-0.06836,-0.00626,-0.0267,-0.00687,0.00931,-0.03281
7.978,-0.11978,-0.05707,-0.02548,-0.02304,-0.04074,-0.06409,-0.01266,-0.00198,0.00229,-0.047,-0.05417,-0.00641,-0.02548,-0.00763,0.009,-0.03586
7.9785,-0.12207,-0.04318,0.04959,-0.02274,-0.04227,-0.065,-0.01221,-0.00351,-0.00046,-0.07584,-0.05081,-0.00092,-0.02563,-0.01022,0.01007,-0.03769
7.979,-0.12909,-0.0264,0.0679,-0.01007,-0.04166,-0.06439,-0.0119,-0.00427,-0.00366,-0.10315,-0.05753,0.00626,-0.02731,-0.0116,0.01129,-0.03998
7.9795,-0.13428,-0.00656,0.04211,0.01282,-0.04059,-0.06393,-0.0119,-0.00305,-0.00534,-0.12741,-0.06088,0.00885,-0.02731,-0.01068,0.01419,-0.04044
7.98,-0.12939,0.01022,0.00305,0.03403,-0.03891,-0.06424,-0.01266,-0.00076,-0.00549,-0.13245,-0.04883,0.00641,-0.02609,-0.01129,0.0148,-0.04135
7.9805,-0.11871,0.02258,-0.03189,0.03906,-0.0386,-0.06546,-0.01404,-0.00076,-0.00565,-0.10757,-0.02731,0.00366,-0.02533,-0.01205,0.01526,-0.04486
7.981,-0.11276,0.03677,-0.06027,0.02579,-0.03891,-0.06638,-0.01572,-0.00198,-0.00626,-0.06256,-0.00702,0.00214,-0.02502,-0.00839,0.01343,-0.0499
7.9815,-0.112,0.05371,-0.08224,0.00397,-0.03906,-0.06561,-0.01511,-0.00336,-0.00626,-0.01648,0.00809,0.00107,-0.02472,-0.00031,0.0116,-0.05264
7.982,-0.10773,0.07324,-0.09613,-0.01007,-0.03708,-0.06241,-0.0145,-0.00275,-0.00626,0.01877,0.02136,-0.00061,-0.02716,0.00748,0.00778,-0.05188
7.9825,-0.09201,0.09186,-0.10559,-0.01358,-0.03403,-0.05676,-0.01358,-0.00183,-0.00656,0.04333,0.03204,-0.00015,-0.02975,0.00961,0.00351,-0.04913
7.983,-0.06561,0.1059,-0.11993,-0.01556,-0.03036,-0.05005,-0.01373,-0.00198,-0.00687,0.06073,0.04105,0.00137,-0.03189,0.0058,0.00229,-0.04623
7.9835,-0.03677,0.10864,-0.14587,-0.02045,-0.02792,-0.0441,-0.01404,-0.00229,-0.00717,0.06805,0.04486,0.00168,-0.03464,0.00168,0.00198,-0.04639
7.984,-0.0145,0.10086,-0.17792,-0.02487,-0.0267,-0.03952,-0.01389,-0.00229,-0.00839,0.0563,0.04196,0.00076,-0.03632,0.00061,0.00214,-0.04761
7.9845,-0.00153,0.08636,-0.19928,-0.02579,-0.02716,-0.03586,-0.01282,-0.00259,-0.00885,0.01968,0.03418,-0.00031,-0.03967,0.00244,-0.00092,-0.04822
7.985,0.00702,0.07339,-0.19958,-0.02548,-0.02777,-0.03326,-0.0119,-0.0029,-0.00977,-0.03693,0.02655,0.00031,-0.04196,0.00488,-0.0029,-0.04593
7.9855,0.01724,0.06149,-0.17914,-0.02594,-0.02777,-0.03143,-0.01175,-0.00259,-0.00916,-0.08774,0.02747,0.00107,-0.04379,0.00305,-0.00275,-0.04181
7.986,0.02838,0.04669,-0.14587,-0.02747,-0.02853,-0.02945,-0.0119,-0.00259,-0.009,-0.11032,0.03937,0.00183,-0.04333,-0.00641,-0.00031,-0.03937
7.9865,0.03616,0.02853,-0.11566,-0.02945,-0.03036,-0.02701,-0.01282,-0.00229,-0.009,-0.11108,0.06393,0.00198,-0.04333,-0.01785,0.00397,-0.03906
7.987,0.04074,0.00961,-0.09857,-0.03006,-0.03189,-0.02655,-0.01373,-0.00229,-0.00931,-0.11337,0.09979,0.00107,-0.04364,-0.01892,0.00717,-0.03952
7.9875,0.04333,-0.00534,-0.0946,-0.03036,-0.03143,-0.02899,-0.01389,-0.00305,-0.01022,-0.11475,0.13412,-0.00092,-0.04425,-0.00458,0.009,-0.03952
7.988,0.04761,-0.01389,-0.09399,-0.0296,-0.0296,-0.03113,-0.01419,-0.00351,-0.01022,-0.09399,0.15045,-0.00122,-0.04532,0.01434,0.00854,-0.03906
7.9885,0.05325,-0.01831,-0.08957,-0.02838,-0.0293,-0.03098,-0.01465,-0.00381,-0.01114,-0.05157,0.13962,-0.00015,-0.04547,0.01755,0.00839,-0.0383
7.989,0.06042,-0.02548,-0.0827,-0.02655,-0.02914,-0.03021,-0.0145,-0.0032,-0.01282,-0.02396,0.11032,0.00305,-0.04517,-0.00381,0.00748,-0.03708
7.9895,0.06714,-0.03937,-0.07507,-0.02548,-0.02838,-0.02991,-0.01266,-0.00336,-0.01556,-0.03143,0.08835,0.00595,-0.04471,-0.04364,0.00809,-0.03525
7.99,0.07278,-0.06912,-0.0592,-0.02426,-0.02686,-0.02991,-0.01083,-0.00305,-0.02029,-0.05707,0.09338,0.00717,-0.0444,-0.0824,0.01007,-0.03342
7.9905,0.07767,-0.1207,-0.02975,-0.02335,-0.02823,-0.03403,-0.01007,-0.00305,-0.02563,-0.07111,0.11154,0.00671,-0.04456,-0.10056,0.01053,-0.03464
7.991,0.08514,-0.17731,0.01221,-0.02274,-0.03067,-0.0386,-0.01053,-0.00336,-0.02823,-0.07126,0.10681,0.00519,-0.04532,-0.09521,0.01022,-0.03708
7.9915,0.09521,-0.2037,0.05066,-0.02213,-0.03265,-0.04181,-0.01038,-0.00366,-0.02991,-0.08072,0.05966,0.00549,-0.04639,-0.0769,0.009,-0.03876
7.992,0.10391,-0.18127,0.07721,-0.0209,-0.03403,-0.04272,-0.01022,-0.00397,-0.03433,-0.11185,-0.01251,0.0061,-0.04517,-0.05753,0.0087,-0.0383
7.9925,0.10696,-0.13458,0.1004,-0.01816,-0.0354,-0.04333,-0.01083,-0.00351,-0.04227,-0.13901,-0.0769,0.00656,-0.04272,-0.04501,0.00839,-0.03754
7.993,0.10208,-0.09705,0.13214,-0.01251,-0.0351,-0.04501,-0.01221,-0.00275,-0.05096,-0.12619,-0.11642,0.00626,-0.04089,-0.0383,0.00977,-0.0386
7.9935,0.09628,-0.07813,0.16022,-0.0029,-0.0351,-0.04684,-0.01282,-0.00153,-0.05585,-0.06668,-0.1239,0.00595,-0.03983,-0.0325,0.01022,-0.04166
7.994,0.09537,-0.06714,0.15335,0.01068,-0.0351,-0.04837,-0.01236,-0.00137,-0.05768,0.01999,-0.09918,0.00626,-0.03906,-0.02731,0.01053,-0.04318
7.9945,0.09659,-0.05722,0.09827,0.02472,-0.03494,-0.0499,-0.01083,-0.00198,-0.05844,0.10574,-0.05081,0.00763,-0.03677,-0.01892,0.01007,-0.04257
7.995,0.09415,-0.06165,0.01892,0.03876,-0.03662,-0.05081,-0.01007,-0.00275,-0.05707,0.17487,-0.00092,0.00717,-0.03342,-0.01144,0.00961,-0.04181
7.9955,0.08575,-0.09857,-0.0412,0.05142,-0.03845,-0.05234,-0.01129,-0.00275,-0.05325,0.22476,0.02365,0.00229,-0.03098,-0.00687,0.01053,-0.04135
7.996,0.07217,-0.16205,-0.05814,0.05798,-0.04044,-0.05295,-0.01282,-0.00229,-0.04898,0.25131,0.00977,-0.00519,-0.0293,-0.00977,0.01053,-0.04089
7.9965,0.05569,-0.20996,-0.03891,0.05188,-0.03937,-0.0528,-0.01419,-0.00183,-0.04898,0.25665,-0.03677,-0.01282,-0.02899,-0.0174,0.00992,-0.04135
7.997,0.03967,-0.20111,-0.00473,0.03815,-0.03799,-0.0531,-0.01373,-0.00229,-0.05386,0.2388,-0.10117,-0.01556,-0.02853,-0.02228,0.00885,-0.04166
7.9975,0.02991,-0.14633,0.02686,0.02808,-0.0383,-0.05371,-0.01343,-0.00275,-0.06241,0.20264,-0.16937,-0.01297,-0.02716,-0.02243,0.0087,-0.04089
7.998,0.02869,-0.09232,0.04669,0.01129,-0.03876,-0.05524,-0.01373,-0.0029,-0.06973,0.15961,-0.23514,-0.00793,-0.02502,-0.01862,0.01099,-0.03952
7.9985,0.03113,-0.05402,0.04425,-0.03555,-0.03876,-0.05676,-0.01434,-0.00381,-0.06836,0.11932,-0.29587,-0.00534,-0.02182,-0.01785,0.01312,-0.03799
7.999,0.03326,-0.01389,0.00732,-0.10864,-0.03677,-0.05737,-0.01404,-0.00458,-0.05676,0.0856,-0.35004,-0.00488,-0.01709,-0.01984,0.01495,-0.03769
7.9995,0.0351,0.0322,-0.05417,-0.17365,-0.03387,-0.05554,-0.01343,-0.00412,-0.03937,0.056,-0.39108,-0.00519,-0.01175,-0.02258,0.01495,-0.03799
8.0,0.03799,0.06317,-0.10483,-0.21332,-0.03113,-0.05295,-0.01373,-0.00259,-0.02151,0.03021,-0.40817,-0.00702,-0.00916,-0.02487,0.01526,-0.03784
8.0005,0.03632,0.07004,-0.11917,-0.25299,-0.0293,-0.05051,-0.01389,-0.00107,-0.00732,0.01038,-0.39215,-0.01328,-0.00839,-0.02808,0.01633,-0.03723
8.001,0.02487,0.06088,-0.11658,-0.3093,-0.03098,-0.05081,-0.01328,-0.00122,0.00397,-0.00275,-0.34027,-0.01846,-0.009,-0.03372,0.01663,-0.0354
8.0015,0.00916,0.04272,-0.13428,-0.34622,-0.03067,-0.05341,-0.01144,-0.00351,0.01312,-0.01282,-0.25711,-0.01831,-0.00854,-0.03693,0.01709,-0.03555
8.002,0.00381,0.02167,-0.1796,-0.32043,-0.03143,-0.056,-0.01144,-0.0058,0.02045,-0.02014,-0.15076,-0.01266,-0.00885,-0.03586,0.01648,-0.03387
8.0025,0.01389,0.01663,-0.21469,-0.23209,-0.02838,-0.05615,-0.01358,-0.00656,0.02518,-0.02319,-0.0351,-0.00732,-0.00977,-0.03174,0.01511,-0.03296
8.003,0.03098,0.03891,-0.20462,-0.10803,-0.02594,-0.05478,-0.01541,-0.0061,0.02609,-0.02045,0.07431,-0.00504,-0.01389,-0.02625,0.01495,-0.03525
8.0035,0.04593,0.07141,-0.16113,0.03998,-0.02487,-0.05249,-0.01663,-0.00549,0.02365,-0.01678,0.15976,-0.00427,-0.01877,-0.02136,0.01602,-0.03906
8.004,0.05814,0.08377,-0.12299,0.1828,-0.0235,-0.04852,-0.01556,-0.00519,0.02045,-0.01846,0.20157,-0.00275,-0.0238,-0.01877,0.0145,-0.04196
8.0045,0.07172,0.06958,-0.11261,0.24902,-0.02289,-0.0444,-0.01404,-0.00443,0.01907,-0.03235,0.18539,-0.00107,-0.02609,-0.01709,0.01175,-0.0441
8.005,0.0856,0.04044,-0.11581,0.19608,-0.02213,-0.04242,-0.01404,-0.00259,0.01938,-0.04944,0.12375,0.00015,-0.02777,-0.01343,0.00717,-0.04669
8.0055,0.09674,0.00153,-0.10864,0.07248,-0.02274,-0.04196,-0.01511,-0.00183,0.01953,-0.06317,0.04837,0.00229,-0.02869,-0.009,0.0,-0.05264
8.006,0.10269,-0.0499,-0.08163,-0.02975,-0.02243,-0.04227,-0.01648,-0.00198,0.01877,-0.06729,-0.02319,0.00427,-0.0296,-0.0058,-0.00595,-0.0592
8.0065,0.10559,-0.10498,-0.04562,-0.05615,-0.02258,-0.04135,-0.01678,-0.00275,0.01801,-0.06805,-0.09552,0.00549,-0.02914,-0.00473,-0.01099,-0.0621
8.007,0.10864,-0.13855,-0.01328,-0.01297,-0.02304,-0.04044,-0.01633,-0.00412,0.0177,-0.06927,-0.16098,0.00595,-0.02975,-0.00366,-0.01266,-0.06088
8.0075,0.11429,-0.1416,0.009,0.05737,-0.02487,-0.03769,-0.01541,-0.00473,0.01694,-0.07401,-0.19028,0.00702,-0.0325,-0.0029,-0.0119,-0.05829
8.008,0.12039,-0.1265,0.02594,0.11475,-0.02762,-0.03403,-0.01465,-0.00366,0.01297,-0.07904,-0.16479,0.00931,-0.03601,-0.0029,-0.00732,-0.05646
8.0085,0.12527,-0.10895,0.0412,0.14969,-0.02884,-0.03113,-0.01328,-0.0032,0.00824,-0.08255,-0.10422,0.01083,-0.0383,-0.00366,0.00015,-0.05264
8.009,0.12924,-0.08972,0.05478,0.16708,-0.02975,-0.03082,-0.01312,-0.00275,0.00458,-0.08347,-0.04974,0.00961,-0.03937,-0.00488,0.00717,-0.04486
8.0095,0.13321,-0.06638,0.06393,0.16144,-0.03113,-0.03418,-0.01251,-0.00275,0.00275,-0.08453,-0.01572,0.00748,-0.0386,-0.00549,0.01083,-0.03708
8.01,0.14175,-0.04135,0.06668,0.1207,-0.03311,-0.0386,-0.01358,-0.00244,0.00229,-0.08347,0.00397,0.00732,-0.03845,-0.00534,0.01297,-0.03433
8.0105,0.15518,-0.02335,0.06454,0.06638,-0.03357,-0.03998,-0.01419,-0.00214,0.00046,-0.08286,0.01831,0.00916,-0.03967,-0.00595,0.01312,-0.03723
8.011,0.17059,-0.01877,0.06104,0.03433,-0.03387,-0.0383,-0.01541,-0.00198,-0.00275,-0.08118,0.03296,0.01083,-0.04074,-0.00687,0.0145,-0.04044
8.0115,0.17685,-0.02563,0.0528,0.03128,-0.03448,-0.03616,-0.0145,-0.00198,-0.00763,-0.07904,0.04913,0.00946,-0.0415,-0.00763,0.01419,-0.04028
8.012,0.16953,-0.03571,0.03479,0.03433,-0.03693,-0.03616,-0.01343,-0.00137,-0.0119,-0.07751,0.06165,0.00778,-0.04211,-0.0087,0.01312,-0.03769
8.0125,0.15335,-0.04456,0.0087,0.02518,-0.03952,-0.03784,-0.01266,-0.00168,-0.01373,-0.07462,0.06714,0.00595,-0.04242,-0.00824,0.01114,-0.03494
8.013,0.13687,-0.05219,-0.01572,0.00992,-0.03952,-0.04089,-0.01343,-0.00305,-0.01389,-0.07278,0.0679,0.00458,-0.04349,-0.00702,0.01205,-0.03571
8.0135,0.12283,-0.06058,-0.03174,0.00076,-0.0386,-0.04272,-0.01404,-0.00305,-0.01434,-0.06958,0.06912,0.00351,-0.04456,-0.00641,0.01373,-0.03723
8.014,0.11139,-0.06836,-0.04257,0.00015,-0.03616,-0.04272,-0.01373,-0.00305,-0.01526,-0.06485,0.07019,0.00336,-0.04578,-0.00748,0.01526,-0.03845
