time,RectFemL,VastusMedL,VastusLatL,TibAntL,HamMedL,HamLatL,GastroMedL,GastroLatL,RectFemR,VastusMedR,VastusLatR,TibAntR,HamMedR,HamLatR,GastroMedR,GastroLatR
13.7,-0.0174,-0.04608,-0.10376,-0.01724,-0.02289,-0.03708,-0.01282,-0.00031,-0.0563,0.11993,-0.22293,-0.01251,-0.03128,-0.0206,0.00854,-0.0415
13.7005,-0.01602,-0.04883,-0.09552,-0.01617,-0.02426,-0.03845,-0.0116,-0.00107,-0.05783,0.10849,-0.29495,-0.04623,-0.0296,-0.02136,0.00885,-0.0412
13.701,-0.0119,-0.05661,-0.08408,-0.02106,-0.02487,-0.03769,-0.01144,-0.00198,-0.05768,0.10773,-0.33005,-0.08148,-0.02869,-0.02182,0.00809,-0.04105
13.7015,-0.00397,-0.06653,-0.07172,-0.03403,-0.02472,-0.03647,-0.01236,-0.00214,-0.05707,0.10757,-0.33661,-0.10025,-0.0264,-0.0206,0.00778,-0.04196
13.702,0.00519,-0.07507,-0.06378,-0.06454,-0.02365,-0.03708,-0.01434,-0.00305,-0.0563,0.10056,-0.32822,-0.10117,-0.02411,-0.01953,0.00732,-0.04288
13.7025,0.01251,-0.08041,-0.06042,-0.09125,-0.0235,-0.03998,-0.01556,-0.0032,-0.05432,0.08499,-0.31723,-0.09445,-0.02228,-0.01968,0.00885,-0.04364
13.703,0.01694,-0.08408,-0.05783,-0.07202,-0.02579,-0.04349,-0.01434,-0.00366,-0.05173,0.06332,-0.30731,-0.08514,-0.02167,-0.02228,0.00885,-0.04379
13.7035,0.01938,-0.08865,-0.0563,0.00565,-0.02823,-0.04501,-0.01343,-0.00381,-0.05066,0.03998,-0.29175,-0.06989,-0.02213,-0.02655,0.00931,-0.04425
13.704,0.02014,-0.0943,-0.06088,0.09445,-0.03006,-0.04532,-0.01312,-0.00458,-0.05066,0.01709,-0.2681,-0.05051,-0.02167,-0.03082,0.00931,-0.04425
13.7045,0.01968,-0.09689,-0.07004,0.12955,-0.03204,-0.04517,-0.01282,-0.00488,-0.04791,-0.00153,-0.23865,-0.03296,-0.02075,-0.03387,0.00732,-0.0444
13.705,0.01892,-0.09888,-0.07858,0.10468,-0.03525,-0.047,-0.01282,-0.00488,-0.03815,-0.01495,-0.21301,-0.02319,-0.02014,-0.03586,0.0058,-0.04425
13.7055,0.01862,-0.11429,-0.08331,0.07034,-0.03632,-0.0499,-0.01328,-0.0058,-0.02655,-0.02243,-0.19989,-0.02045,-0.02029,-0.03876,0.00504,-0.0444
13.706,0.01755,-0.15518,-0.09201,0.05615,-0.03693,-0.05051,-0.01404,-0.0087,-0.01923,-0.02655,-0.19257,-0.02701,-0.01923,-0.04089,0.00595,-0.0444
13.7065,0.01038,-0.2005,-0.10986,0.04211,-0.04059,-0.05005,-0.01465,-0.00977,-0.01495,-0.02823,-0.18143,-0.03906,-0.01846,-0.04044,0.00519,-0.04471
13.707,-0.00137,-0.20782,-0.11551,0.00687,-0.04425,-0.05051,-0.01434,-0.00824,-0.00824,-0.03052,-0.16251,-0.04166,-0.01801,-0.03815,0.00397,-0.04623
13.7075,-0.01297,-0.16052,-0.0972,-0.03128,-0.04715,-0.05325,-0.01389,-0.00656,0.00229,-0.03357,-0.14114,-0.02975,-0.01968,-0.0351,0.00427,-0.04669
13.708,-0.01831,-0.08759,-0.07736,-0.04333,-0.04761,-0.05676,-0.01404,-0.00626,0.01312,-0.03799,-0.12146,-0.01358,-0.02167,-0.0325,0.00275,-0.04761
13.7085,-0.01938,-0.03006,-0.08026,-0.02579,-0.04639,-0.05768,-0.01602,-0.00671,0.01968,-0.04135,-0.10696,-0.00427,-0.02396,-0.03143,0.00397,-0.04883
13.709,-0.02106,-0.00687,-0.08102,-0.00351,-0.04471,-0.05676,-0.01694,-0.00641,0.02197,-0.04456,-0.09384,-0.00275,-0.02655,-0.03159,0.00351,-0.04807
13.7095,-0.02274,-0.01038,-0.0383,0.00763,-0.04272,-0.05615,-0.01633,-0.00473,0.02289,-0.04547,-0.07156,-0.00183,-0.02777,-0.03006,0.00473,-0.04669
13.71,-0.02426,-0.02106,0.0444,0.01343,-0.04227,-0.05493,-0.01465,-0.00412,0.02487,-0.04364,-0.03189,0.00305,-0.02869,-0.02625,0.00504,-0.04517
13.7105,-0.02823,-0.02106,0.11993,0.02472,-0.04089,-0.05341,-0.01389,-0.00305,0.02701,-0.04318,0.01938,0.00946,-0.0293,-0.02258,0.00595,-0.04227
13.711,-0.03494,-0.01114,0.15427,0.0386,-0.04181,-0.05127,-0.01373,-0.0029,0.02655,-0.04181,0.06546,0.01495,-0.03006,-0.02014,0.0061,-0.04166
13.7115,-0.04044,-0.01389,0.1503,0.04333,-0.0441,-0.05203,-0.01404,-0.00275,0.02136,-0.04135,0.09415,0.01984,-0.03067,-0.01846,0.00565,-0.04044
13.712,-0.04364,-0.04364,0.12238,0.03799,-0.04517,-0.05554,-0.01511,-0.0029,0.01434,-0.04196,0.09949,0.02289,-0.03082,-0.01678,0.00687,-0.04105
13.7125,-0.04379,-0.08087,0.0766,0.03189,-0.0444,-0.06012,-0.01663,-0.00259,0.00748,-0.04135,0.0795,0.02319,-0.0322,-0.01587,0.00946,-0.04135
13.713,-0.04349,-0.08774,0.01923,0.03128,-0.04272,-0.06195,-0.01663,-0.00153,0.00412,-0.03845,0.03967,0.02029,-0.03433,-0.01328,0.01007,-0.0415
13.7135,-0.04654,-0.06439,-0.01831,0.03128,-0.03998,-0.06119,-0.01572,-0.00366,0.00443,-0.03494,-0.00961,0.0174,-0.03571,-0.01022,0.00992,-0.04166
13.714,-0.05173,-0.03662,-0.01144,0.02686,-0.03876,-0.05859,-0.01572,-0.00397,0.00504,-0.03021,-0.0528,0.01587,-0.0351,-0.00977,0.00839,-0.04257
13.7145,-0.05249,-0.02106,0.02731,0.02289,-0.03616,-0.05447,-0.01526,-0.00412,0.00671,-0.02609,-0.08041,0.01663,-0.03662,-0.01038,0.00793,-0.04364
13.715,-0.04578,-0.01343,0.05737,0.0209,-0.03403,-0.05096,-0.01648,-0.00366,0.00748,-0.02548,-0.09201,0.01801,-0.03876,-0.01114,0.00854,-0.04333
13.7155,-0.03281,-0.00595,0.06302,0.02228,-0.03174,-0.04883,-0.01678,-0.00458,0.00763,-0.03006,-0.08804,0.01846,-0.04028,-0.01053,0.00702,-0.0415
13.716,-0.02014,-0.00275,0.05569,0.02426,-0.02823,-0.04822,-0.01648,-0.00473,0.009,-0.04013,-0.07263,0.01923,-0.03906,-0.00931,0.00565,-0.0412
13.7165,-0.01175,-0.00824,0.04913,0.02609,-0.02487,-0.04532,-0.01556,-0.00397,0.00977,-0.05859,-0.04654,0.01907,-0.03799,-0.00931,0.00656,-0.04257
13.717,-0.00671,-0.02121,0.0441,0.02502,-0.02106,-0.04028,-0.01358,-0.00397,0.00626,-0.08743,-0.01526,0.01862,-0.03906,-0.0087,0.00687,-0.04288
13.7175,-0.00092,-0.03769,0.03723,0.01892,-0.01892,-0.0354,-0.01297,-0.00336,0.00153,-0.11688,0.01617,0.01877,-0.04044,-0.00732,0.00671,-0.04318
13.718,0.00748,-0.05615,0.03906,0.01038,-0.01877,-0.03281,-0.01419,-0.00381,-0.00107,-0.13123,0.04623,0.01892,-0.0412,-0.00656,0.00732,-0.04272
13.7185,0.01541,-0.06653,0.05814,0.00793,-0.01907,-0.03159,-0.0148,-0.00336,-0.00214,-0.12253,0.07416,0.01923,-0.0415,-0.00656,0.00717,-0.04272
13.719,0.01938,-0.05814,0.08926,0.0116,-0.01923,-0.03311,-0.0145,-0.00381,-0.00565,-0.10178,0.09842,0.01984,-0.0412,-0.0058,0.00641,-0.04303
13.7195,0.01907,-0.03708,0.11078,0.01572,-0.01923,-0.03616,-0.01358,-0.00443,-0.01129,-0.07736,0.12085,0.01877,-0.04135,-0.00397,0.00778,-0.04227
13.72,0.01877,-0.02472,0.1091,0.01587,-0.01923,-0.03784,-0.01266,-0.00443,-0.01572,-0.04745,0.14343,0.01663,-0.04135,-0.00168,0.00824,-0.04074
13.7205,0.02106,-0.03387,0.08591,0.01434,-0.01984,-0.03693,-0.01175,-0.00259,-0.01572,-0.01205,0.16678,0.01373,-0.04059,-0.00046,0.00473,-0.04059
13.721,0.02411,-0.04791,0.05508,0.01083,-0.0206,-0.03464,-0.01099,-0.00214,-0.01556,0.01282,0.18875,0.01175,-0.03983,-0.00061,0.0058,-0.04135
13.7215,0.02533,-0.04654,0.02457,0.00671,-0.02045,-0.0354,-0.01099,-0.00214,-0.01923,0.01465,0.20645,0.01083,-0.03998,-0.00153,0.0061,-0.0415
13.722,0.02411,-0.03311,-0.00732,0.00229,-0.02045,-0.0386,-0.01083,-0.00305,-0.02716,0.00183,0.21881,0.01068,-0.03952,-0.00305,0.00732,-0.04074
13.7225,0.02167,-0.02335,-0.04318,-0.00046,-0.02075,-0.04105,-0.01205,-0.00305,-0.03403,-0.00488,0.2298,0.01175,-0.0386,-0.00458,0.00916,-0.03998
13.723,0.02045,-0.02411,-0.07919,0.00015,-0.0209,-0.04196,-0.01343,-0.0029,-0.03754,-0.00214,0.24185,0.01175,-0.0383,-0.00473,0.00946,-0.04135
13.7235,0.02029,-0.02747,-0.11398,-0.00031,-0.02197,-0.0415,-0.0145,-0.00137,-0.0415,0.00183,0.25223,0.00916,-0.0386,-0.00519,0.00809,-0.04135
13.724,0.01953,-0.02441,-0.14618,-0.00519,-0.0238,-0.03983,-0.01465,0.0,-0.04532,0.00656,0.25269,0.00687,-0.03754,-0.00687,0.00809,-0.04105
13.7245,0.01694,-0.01633,-0.16251,-0.01373,-0.02609,-0.03754,-0.01419,-0.00031,-0.04532,0.01114,0.23865,0.00488,-0.03708,-0.009,0.00916,-0.04089
13.725,0.01266,-0.01114,-0.14481,-0.02274,-0.02808,-0.03708,-0.01312,-0.00046,-0.04181,0.00854,0.20981,0.00397,-0.03586,-0.01053,0.01022,-0.04135
13.7255,0.00824,-0.01251,-0.1001,-0.02838,-0.03082,-0.03891,-0.01282,-0.00229,-0.03845,-0.00702,0.16724,0.00397,-0.03448,-0.01099,0.00946,-0.04135
13.726,0.00427,-0.01923,-0.05814,-0.02975,-0.03098,-0.04105,-0.01297,-0.00351,-0.03799,-0.02914,0.1181,0.00458,-0.03265,-0.01099,0.00778,-0.04044
13.7265,0.00336,-0.0293,-0.0415,-0.02762,-0.03067,-0.04395,-0.01404,-0.00397,-0.03922,-0.03525,0.07645,0.00381,-0.03098,-0.01266,0.00702,-0.03922
13.727,0.00443,-0.0412,-0.05814,-0.01984,-0.03036,-0.04654,-0.01419,-0.00229,-0.04303,-0.0206,0.05051,0.0029,-0.03067,-0.01648,0.00702,-0.03952
13.7275,0.00504,-0.05096,-0.09964,-0.00366,-0.02945,-0.0499,-0.01343,-0.00168,-0.04868,-0.00137,0.03494,0.00092,-0.03113,-0.02243,0.00763,-0.04044
13.728,0.00381,-0.05737,-0.14496,0.01678,-0.02808,-0.05295,-0.01328,-0.00259,-0.05432,0.0061,0.01389,0.00122,-0.02991,-0.02884,0.00656,-0.04105
13.7285,0.00137,-0.0618,-0.1709,0.02762,-0.02609,-0.05524,-0.01373,-0.00351,-0.05524,-0.00031,-0.02258,0.00015,-0.0267,-0.03281,0.00641,-0.0415
13.729,-0.00183,-0.06226,-0.17578,0.02289,-0.02533,-0.05508,-0.01526,-0.00305,-0.0531,-0.00519,-0.07172,-0.00015,-0.02472,-0.03555,0.00778,-0.04242
13.7295,-0.0061,-0.05539,-0.17319,0.01007,-0.02487,-0.05539,-0.01556,-0.00214,-0.05188,-0.00275,-0.12589,0.00015,-0.02426,-0.03662,0.00702,-0.04318
13.73,-0.00977,-0.04013,-0.1738,-0.00397,-0.02472,-0.05493,-0.0145,-0.00229,-0.05035,0.00092,-0.18204,0.00244,-0.02289,-0.03708,0.00595,-0.04105
13.7305,-0.01205,-0.02243,-0.17166,-0.02014,-0.02731,-0.05493,-0.01328,-0.00336,-0.04761,-0.00351,-0.24536,0.00336,-0.02106,-0.03876,0.0058,-0.03922
13.731,-0.01511,-0.01099,-0.15976,-0.04028,-0.02747,-0.05554,-0.01266,-0.00275,-0.04211,-0.01083,-0.31769,0.00198,-0.01907,-0.04242,0.00732,-0.0386
13.7315,-0.01923,-0.00488,-0.13718,-0.0621,-0.02823,-0.05432,-0.01175,-0.00198,-0.03693,-0.01221,-0.38666,0.00015,-0.01923,-0.04669,0.00916,-0.03906
13.732,-0.02502,-0.00061,-0.1088,-0.0827,-0.02853,-0.05341,-0.01221,-0.00107,-0.03189,-0.009,-0.4213,-0.00153,-0.01984,-0.05005,0.00885,-0.03967
13.7325,-0.03021,-0.00168,-0.0824,-0.09903,-0.02884,-0.05508,-0.01297,-0.00168,-0.02686,-0.00259,-0.39886,-0.00259,-0.02014,-0.05081,0.00717,-0.04074
13.733,-0.03418,-0.01495,-0.06912,-0.1062,-0.02853,-0.05844,-0.01343,-0.00229,-0.02045,0.00504,-0.3299,-0.00412,-0.01999,-0.04929,0.00656,-0.04074
13.7335,-0.03815,-0.03311,-0.06851,-0.10117,-0.02823,-0.06165,-0.01343,-0.0029,-0.01266,0.0206,-0.24536,-0.00473,-0.01923,-0.04623,0.0061,-0.04135
13.734,-0.04211,-0.0354,-0.06897,-0.08881,-0.02853,-0.06271,-0.01343,-0.00244,-0.00351,0.04257,-0.16876,-0.00351,-0.01892,-0.04364,0.00519,-0.04074
13.7345,-0.04211,-0.01465,-0.05569,-0.07874,-0.03098,-0.06119,-0.01404,-0.00214,0.00351,0.06226,-0.10681,0.00015,-0.02014,-0.04028,0.00671,-0.04013
13.735,-0.03632,0.01144,-0.02777,-0.07416,-0.0351,-0.05966,-0.0148,-0.00275,0.00565,0.06561,-0.05783,0.00092,-0.02136,-0.03754,0.00824,-0.03906
13.7355,-0.02701,0.01816,0.01328,-0.06714,-0.0383,-0.05692,-0.0145,-0.00259,0.00427,0.04837,-0.02319,0.00031,-0.0209,-0.03555,0.00916,-0.03937
13.736,-0.01968,-0.00305,0.06546,-0.05295,-0.03998,-0.0531,-0.01343,-0.0029,0.00351,0.01938,-0.00565,-0.00229,-0.0206,-0.03433,0.00763,-0.04028
13.7365,-0.01511,-0.0528,0.11963,-0.03464,-0.04044,-0.04959,-0.01251,-0.00473,0.00717,-0.00641,-0.00473,-0.00458,-0.0209,-0.03464,0.00656,-0.04089
13.737,-0.01205,-0.12299,0.15274,-0.02136,-0.03937,-0.04776,-0.01236,-0.0058,0.01389,-0.02045,-0.01083,-0.00336,-0.02182,-0.03281,0.00687,-0.04059
13.7375,-0.01022,-0.19012,0.14511,-0.01663,-0.04044,-0.047,-0.01404,-0.00565,0.0177,-0.02518,-0.01282,0.00153,-0.02243,-0.03067,0.00748,-0.04105
13.738,-0.00854,-0.22079,0.09888,-0.01724,-0.04272,-0.04578,-0.01633,-0.00427,0.01816,-0.02899,-0.00595,0.00549,-0.02457,-0.02777,0.00671,-0.04181
13.7385,-0.0058,-0.20432,0.03372,-0.0177,-0.0441,-0.04486,-0.01709,-0.00366,0.0174,-0.03433,0.00702,0.00717,-0.02731,-0.02625,0.00488,-0.04211
13.739,-0.00305,-0.15686,-0.02563,-0.01617,-0.04608,-0.04532,-0.01633,-0.00504,0.01923,-0.03998,0.01694,0.00687,-0.0293,-0.02487,0.0058,-0.04166
13.7395,0.00015,-0.10239,-0.05829,-0.01434,-0.04715,-0.04578,-0.01556,-0.00702,0.02243,-0.04578,0.01907,0.00381,-0.03052,-0.02304,0.00717,-0.03998
13.74,0.00031,-0.0563,-0.0528,-0.01343,-0.04608,-0.047,-0.01434,-0.00671,0.02167,-0.04791,0.02014,-0.00168,-0.03204,-0.02121,0.009,-0.03922
13.7405,-0.0029,-0.02762,-0.01434,-0.01343,-0.04227,-0.04807,-0.01312,-0.00458,0.01663,-0.04639,0.02075,-0.00671,-0.03479,-0.01999,0.009,-0.04028
13.741,-0.00702,-0.01617,0.04669,-0.01205,-0.03876,-0.04959,-0.01282,-0.0029,0.01221,-0.04349,0.02045,-0.00763,-0.03616,-0.01862,0.00916,-0.04105
13.7415,-0.01022,-0.01984,0.1091,-0.01175,-0.03571,-0.05035,-0.01328,-0.0029,0.00931,-0.04089,0.01633,-0.0061,-0.03647,-0.01511,0.00854,-0.0412
13.742,-0.01373,-0.04257,0.14069,-0.01389,-0.03418,-0.05096,-0.01328,-0.00366,0.00748,-0.03952,0.01099,-0.00565,-0.03632,-0.01251,0.00931,-0.04013
13.7425,-0.01923,-0.08911,0.11871,-0.01648,-0.03296,-0.05188,-0.01343,-0.0029,0.0058,-0.04181,0.00946,-0.00717,-0.03754,-0.01144,0.00977,-0.03906
13.743,-0.02548,-0.13428,0.0351,-0.01633,-0.03235,-0.0531,-0.01404,-0.00305,0.00397,-0.04639,0.01862,-0.00977,-0.03922,-0.00977,0.009,-0.03891
13.7435,-0.02945,-0.13977,-0.08942,-0.01511,-0.03265,-0.05417,-0.01373,-0.00351,0.00229,-0.05325,0.03372,-0.01038,-0.03922,-0.00641,0.00732,-0.04059
13.744,-0.03021,-0.10208,-0.21011,-0.01511,-0.03281,-0.056,-0.01465,-0.00412,-0.00061,-0.05341,0.0473,-0.01175,-0.03937,-0.00198,0.0058,-0.04181
13.7445,-0.0267,-0.05951,-0.27802,-0.01785,-0.03235,-0.05692,-0.01556,-0.00397,-0.00565,-0.04089,0.05569,-0.01328,-0.03906,-0.00122,0.00656,-0.04211
13.745,-0.0235,-0.03998,-0.28015,-0.01846,-0.03052,-0.056,-0.01587,-0.00351,-0.01114,-0.02167,0.05905,-0.01419,-0.03983,-0.00275,0.00763,-0.0412
13.7455,-0.02304,-0.0267,-0.24704,-0.01892,-0.02747,-0.05508,-0.01556,-0.00381,-0.01556,-0.00748,0.06134,-0.01144,-0.04013,-0.00336,0.00946,-0.03983
13.746,-0.02289,0.00381,-0.21133,-0.01923,-0.02533,-0.05386,-0.01526,-0.00366,-0.01831,-0.00351,0.06531,-0.00732,-0.04135,-0.00168,0.01007,-0.04028
13.7465,-0.02167,0.04608,-0.17776,-0.01923,-0.02396,-0.05188,-0.01465,-0.00275,-0.01907,-0.00534,0.07263,-0.00443,-0.04242,0.0,0.00931,-0.04105
13.747,-0.01755,0.07782,-0.14008,-0.01968,-0.02274,-0.04974,-0.01404,-0.00244,-0.01907,-0.00931,0.08362,-0.00305,-0.04288,0.00031,0.00854,-0.04166
13.7475,-0.01205,0.09155,-0.10483,-0.02121,-0.02228,-0.04959,-0.0145,-0.00275,-0.01892,-0.0177,0.09872,-0.0029,-0.04227,0.00076,0.00717,-0.0412
13.748,-0.00778,0.09277,-0.08575,-0.02502,-0.02213,-0.05142,-0.0148,-0.00336,-0.02045,-0.03616,0.11459,-0.00275,-0.0412,0.00153,0.00732,-0.04089
13.7485,-0.00427,0.08728,-0.08255,-0.02991,-0.02182,-0.05173,-0.01495,-0.00427,-0.02274,-0.06088,0.12711,-0.00229,-0.04013,0.00229,0.00809,-0.0412
13.749,-0.00183,0.07874,-0.08652,-0.03403,-0.02151,-0.05051,-0.01511,-0.00458,-0.02411,-0.07446,0.1355,-0.00275,-0.04013,0.00153,0.0087,-0.04135
13.7495,0.00122,0.06943,-0.08942,-0.03769,-0.02121,-0.0499,-0.01312,-0.00381,-0.02472,-0.06424,0.14114,-0.0032,-0.04044,-0.00061,0.00824,-0.04181
13.75,0.00458,0.05508,-0.08728,-0.04089,-0.02029,-0.04898,-0.01251,-0.00244,-0.02518,-0.0415,0.13931,-0.00336,-0.03998,-0.00275,0.00824,-0.04227
13.7505,0.00702,0.02975,-0.07782,-0.04272,-0.02106,-0.04761,-0.01221,-0.00122,-0.02899,-0.03143,0.12344,-0.00351,-0.03922,-0.00488,0.00961,-0.04349
13.751,0.00961,-0.00748,-0.06424,-0.04272,-0.02151,-0.04562,-0.01312,-0.00168,-0.03586,-0.0444,0.0914,-0.00198,-0.0383,-0.00671,0.00992,-0.04425
13.7515,0.01465,-0.0415,-0.04974,-0.04395,-0.02182,-0.04196,-0.01328,-0.00381,-0.04379,-0.06546,0.04883,-0.00061,-0.03799,-0.00824,0.00916,-0.04364
13.752,0.01999,-0.0563,-0.0267,-0.04837,-0.02167,-0.03998,-0.01358,-0.00412,-0.04883,-0.07309,0.01389,0.0,-0.03891,-0.01114,0.00778,-0.04257
13.7525,0.02426,-0.05341,0.01251,-0.05157,-0.02258,-0.0386,-0.01312,-0.00305,-0.04913,-0.06073,0.00015,0.00031,-0.03998,-0.01266,0.00732,-0.04242
13.753,0.02686,-0.04913,0.04959,-0.04761,-0.02548,-0.03906,-0.01221,-0.00275,-0.04547,-0.04074,0.00824,0.00015,-0.03891,-0.01266,0.00885,-0.04272
13.7535,0.0264,-0.05463,0.05264,-0.04135,-0.0293,-0.04196,-0.0119,-0.00168,-0.0412,-0.03021,0.02457,0.00031,-0.03662,-0.01297,0.00961,-0.04395
13.754,0.02274,-0.07294,0.01953,-0.03891,-0.03326,-0.04379,-0.01251,-0.00107,-0.03769,-0.04272,0.04074,-0.00061,-0.0351,-0.01434,0.00961,-0.0441
13.7545,0.01846,-0.11047,-0.0119,-0.04211,-0.03967,-0.04532,-0.01297,-0.00061,-0.03311,-0.07156,0.05524,-0.00122,-0.03525,-0.01663,0.00778,-0.04272
13.755,0.01526,-0.16525,-0.00381,-0.04578,-0.04684,-0.04547,-0.01328,-0.00092,-0.02777,-0.09995,0.07416,-0.00092,-0.03387,-0.0174,0.00717,-0.0415
13.7555,0.01495,-0.20569,0.03586,-0.04623,-0.04944,-0.04547,-0.01328,-0.00092,-0.02167,-0.10803,0.09491,-0.00168,-0.03342,-0.01816,0.00778,-0.04074
13.756,0.01419,-0.19775,0.06683,-0.04272,-0.04562,-0.04471,-0.01434,-0.00183,-0.01709,-0.08972,0.10284,-0.00259,-0.03296,-0.01907,0.00793,-0.0412
13.7565,0.01205,-0.14694,0.05768,-0.03876,-0.03998,-0.04349,-0.01572,-0.00214,-0.01328,-0.05707,0.08102,-0.00229,-0.03403,-0.0209,0.00809,-0.04059
13.757,0.00793,-0.09216,0.0145,-0.03189,-0.03647,-0.04257,-0.01556,-0.00275,-0.01068,-0.0264,0.02228,-0.00076,-0.03555,-0.02335,0.00839,-0.04028
13.7575,0.00412,-0.05814,-0.03357,-0.01831,-0.03647,-0.04349,-0.01312,-0.0032,-0.00854,-0.0029,-0.05951,0.00015,-0.03647,-0.02609,0.0087,-0.04105
13.758,0.00259,-0.04333,-0.05676,0.00443,-0.03769,-0.04593,-0.01099,-0.0032,-0.0058,0.01694,-0.13901,0.00076,-0.0354,-0.02777,0.009,-0.04211
13.7585,0.00183,-0.03693,-0.04562,0.02701,-0.03784,-0.04776,-0.01129,-0.0029,-0.00473,0.03876,-0.19028,0.00214,-0.03494,-0.03006,0.00809,-0.04288
13.759,0.0,-0.03067,-0.02197,0.03403,-0.03922,-0.0473,-0.01266,-0.0029,-0.00549,0.0618,-0.20309,0.00275,-0.03571,-0.03235,0.00687,-0.04303
13.7595,-0.00336,-0.01587,-0.01434,0.0209,-0.03998,-0.04501,-0.01297,-0.00336,-0.00504,0.08072,-0.18387,0.00305,-0.03586,-0.03326,0.0058,-0.04272
13.76,-0.0058,0.0087,-0.02502,-0.00107,-0.03922,-0.04333,-0.01221,-0.0032,-0.00397,0.09171,-0.14603,0.00198,-0.03403,-0.03311,0.00458,-0.04318
13.7605,-0.00671,0.02838,-0.02823,-0.01434,-0.03891,-0.04196,-0.01297,-0.00305,-0.00381,0.09201,-0.10361,0.00046,-0.03189,-0.03433,0.00427,-0.04257
13.761,-0.00565,0.03372,-0.00702,-0.01205,-0.03906,-0.0412,-0.01419,-0.00275,-0.0061,0.08118,-0.06302,0.00092,-0.0293,-0.03616,0.00397,-0.04211
13.7615,-0.00275,0.03235,0.01877,-0.00259,-0.03906,-0.04105,-0.01434,-0.00305,-0.009,0.06027,-0.0322,0.00275,-0.02762,-0.03769,0.00427,-0.04074
13.762,0.00061,0.03281,0.0206,0.00473,-0.03815,-0.04181,-0.01205,-0.00275,-0.01144,0.03891,-0.01694,0.00366,-0.02655,-0.03799,0.00427,-0.04105
13.7625,0.00397,0.03021,-0.00137,0.00519,-0.03662,-0.04074,-0.01144,-0.00244,-0.01266,0.02258,-0.01938,0.00275,-0.02716,-0.03723,0.0058,-0.0415
13.763,0.00565,0.02319,-0.02243,0.00397,-0.03479,-0.03937,-0.0119,-0.00198,-0.01099,0.01694,-0.0293,0.00092,-0.02808,-0.03616,0.00687,-0.0415
13.7635,0.00473,0.01831,-0.02701,0.00305,-0.03311,-0.03784,-0.01251,-0.0032,-0.01022,0.01541,-0.0325,-0.00122,-0.0293,-0.03448,0.00748,-0.04135
13.764,0.00198,0.01953,-0.02243,0.00061,-0.0325,-0.03723,-0.01358,-0.00336,-0.01251,0.01053,-0.02182,-0.00214,-0.03082,-0.03265,0.00671,-0.0412
13.7645,0.00015,0.01602,-0.01343,-0.00534,-0.03326,-0.03922,-0.01373,-0.00198,-0.01358,0.0,-0.00687,-0.00122,-0.03052,-0.03159,0.00656,-0.04181
13.765,-0.00061,-0.00641,-0.00061,-0.00977,-0.03448,-0.04257,-0.01328,-0.00168,-0.01083,-0.01389,-0.00702,0.00275,-0.0296,-0.03052,0.00778,-0.04242
13.7655,-0.00214,-0.04669,0.01633,-0.00641,-0.03464,-0.04608,-0.01251,-0.00214,-0.00748,-0.02625,-0.0267,0.00809,-0.02899,-0.02914,0.01038,-0.04227
13.766,-0.00641,-0.08469,0.0264,0.00397,-0.03342,-0.04776,-0.01221,-0.0029,-0.00549,-0.03616,-0.05905,0.00809,-0.0296,-0.02625,0.01114,-0.04166
13.7665,-0.00961,-0.09842,0.0235,0.00809,-0.03235,-0.04547,-0.0116,-0.00214,-0.00397,-0.04532,-0.09064,0.00076,-0.03036,-0.02197,0.01099,-0.04227
13.767,-0.01022,-0.08636,0.01572,-0.00854,-0.03067,-0.0415,-0.0119,-0.00183,0.00061,-0.05463,-0.11566,-0.00839,-0.03036,-0.01831,0.0087,-0.04166
13.7675,-0.00946,-0.06226,0.0116,-0.04593,-0.02625,-0.03799,-0.01251,-0.00137,0.00656,-0.06104,-0.13397,-0.01282,-0.0296,-0.01556,0.00687,-0.0412
13.768,-0.00809,-0.03952,0.00992,-0.08072,-0.02274,-0.03708,-0.01343,-0.00137,0.01038,-0.0621,-0.14267,-0.01221,-0.02899,-0.01343,0.0058,-0.0415
13.7685,-0.00504,-0.02594,0.0087,-0.08804,-0.02029,-0.0383,-0.01343,-0.00198,0.00977,-0.05951,-0.13702,-0.01038,-0.03067,-0.01343,0.00702,-0.04272
13.769,-0.00153,-0.02808,0.0087,-0.06683,-0.01968,-0.04257,-0.01373,-0.0029,0.00656,-0.05386,-0.12192,-0.00778,-0.03372,-0.01389,0.00763,-0.04364
13.7695,0.00107,-0.04486,0.01724,-0.03586,-0.01953,-0.04684,-0.01434,-0.0029,0.00488,-0.04929,-0.10651,-0.00259,-0.03479,-0.01297,0.0087,-0.0415
13.77,0.00275,-0.05829,0.03036,-0.01038,-0.01953,-0.05112,-0.0145,-0.00244,0.00504,-0.05539,-0.0914,0.00259,-0.03464,-0.01083,0.00916,-0.03967
13.7705,0.00198,-0.04974,0.03738,0.00732,-0.02228,-0.05554,-0.01373,-0.00229,0.00504,-0.07767,-0.06775,0.00397,-0.03387,-0.00793,0.00854,-0.03952
13.771,0.0,-0.02487,0.0296,0.02075,-0.0267,-0.05753,-0.01328,-0.00336,0.00443,-0.10498,-0.03204,0.00153,-0.03357,-0.00748,0.00748,-0.03983
13.7715,-0.00046,-0.00839,0.00977,0.03189,-0.03082,-0.05707,-0.01312,-0.00443,0.00366,-0.11963,0.00534,-0.00107,-0.03326,-0.00565,0.00626,-0.04059
13.772,0.00076,-0.0119,-0.02136,0.03036,-0.03235,-0.05402,-0.01358,-0.00381,0.00259,-0.11581,0.03098,0.00092,-0.03296,-0.00198,0.00656,-0.04044
13.7725,0.00137,-0.02457,-0.07736,0.01923,-0.03204,-0.05096,-0.01328,-0.00366,0.0,-0.10834,0.04089,0.00305,-0.0325,0.0,0.00687,-0.04196
13.773,-0.00137,-0.02914,-0.16342,0.01511,-0.03021,-0.04837,-0.01343,-0.00381,-0.0029,-0.10727,0.03845,-0.00015,-0.0322,0.00061,0.00748,-0.04349
13.7735,-0.00381,-0.02609,-0.25192,0.0354,-0.02792,-0.047,-0.01343,-0.00381,-0.00748,-0.10681,0.03143,-0.00854,-0.0325,-0.00046,0.00763,-0.0441
13.774,-0.00305,-0.02701,-0.28915,0.07355,-0.02762,-0.04715,-0.01465,-0.00443,-0.0119,-0.0943,0.02731,-0.01266,-0.0325,-0.00061,0.00809,-0.04333
13.7745,-0.00031,-0.0354,-0.25375,0.1062,-0.02869,-0.04852,-0.01495,-0.00458,-0.01709,-0.06805,0.03281,-0.009,-0.03281,0.00092,0.009,-0.04227
13.775,0.00168,-0.04715,-0.17563,0.11383,-0.03021,-0.05035,-0.0148,-0.00381,-0.02228,-0.03647,0.04547,-0.00122,-0.03357,0.00244,0.00885,-0.04257
13.7755,0.00137,-0.05493,-0.10193,0.0946,-0.03403,-0.05173,-0.01434,-0.00443,-0.02655,-0.00687,0.05585,0.00153,-0.03433,0.00107,0.00946,-0.04303
13.776,-0.00168,-0.06271,-0.05142,0.05905,-0.0386,-0.05096,-0.01419,-0.00504,-0.02975,0.0148,0.06134,-0.00076,-0.03418,-0.00183,0.00931,-0.04303
13.7765,-0.00534,-0.07675,-0.01633,0.02762,-0.04074,-0.04898,-0.01389,-0.00595,-0.03174,0.02579,0.07095,-0.00488,-0.0351,-0.00549,0.01022,-0.04303
13.777,-0.0119,-0.09705,0.01129,0.01221,-0.04196,-0.04776,-0.01312,-0.00626,-0.03448,0.03464,0.0946,-0.00748,-0.03632,-0.00793,0.01022,-0.04333
13.7775,-0.01892,-0.11566,0.03189,0.00961,-0.04272,-0.04761,-0.01389,-0.00687,-0.03891,0.04807,0.12695,-0.009,-0.03708,-0.00992,0.0087,-0.04333
13.778,-0.02441,-0.12497,0.04288,0.00885,-0.04547,-0.04959,-0.01526,-0.00656,-0.04486,0.06699,0.15442,-0.00885,-0.03677,-0.01282,0.00809,-0.04318
13.7785,-0.02686,-0.12436,0.04715,0.00458,-0.04761,-0.05188,-0.01663,-0.00595,-0.05066,0.08316,0.16769,-0.00732,-0.03571,-0.01572,0.0087,-0.04349
13.779,-0.02716,-0.11673,0.04745,-0.00381,-0.04639,-0.05508,-0.01648,-0.00565,-0.05508,0.09003,0.16617,-0.00473,-0.0351,-0.01938,0.009,-0.04486
13.7795,-0.02533,-0.10468,0.04501,-0.01251,-0.04166,-0.05661,-0.01541,-0.00488,-0.05798,0.09247,0.14603,-0.00122,-0.03555,-0.02167,0.00839,-0.0444
13.78,-0.02014,-0.08667,0.0383,-0.02045,-0.03616,-0.05722,-0.01419,-0.00336,-0.05676,0.09537,0.10239,0.00153,-0.0351,-0.02457,0.00732,-0.04318
13.7805,-0.01434,-0.07004,0.03204,-0.02609,-0.0322,-0.05676,-0.01312,-0.0029,-0.05402,0.0943,0.02594,0.00305,-0.03403,-0.02838,0.0061,-0.04257
13.781,-0.00931,-0.05951,0.03479,-0.02991,-0.03098,-0.05615,-0.01343,-0.00366,-0.05035,0.08469,-0.08102,0.00275,-0.03281,-0.03311,0.00397,-0.04257
13.7815,-0.00824,-0.05081,0.05234,-0.03433,-0.03067,-0.05661,-0.01373,-0.00443,-0.04654,0.06821,-0.19272,0.00061,-0.03265,-0.03662,0.00397,-0.04242
13.782,-0.00671,-0.04074,0.0737,-0.03769,-0.03128,-0.05493,-0.01434,-0.00366,-0.04425,0.05081,-0.27161,-0.00122,-0.03372,-0.03754,0.00549,-0.04242
13.7825,-0.0029,-0.02655,0.08148,-0.03815,-0.03006,-0.05173,-0.01358,-0.00259,-0.04318,0.03769,-0.29831,-0.00076,-0.03326,-0.03754,0.00702,-0.04227
13.783,0.00153,-0.00977,0.06851,-0.03586,-0.02808,-0.04822,-0.01328,-0.00198,-0.04272,0.02701,-0.28992,0.00122,-0.0325,-0.03799,0.00824,-0.04166
13.7835,0.00275,0.00671,0.03433,-0.03281,-0.02502,-0.04639,-0.01434,-0.00214,-0.04211,0.01373,-0.27573,0.00229,-0.03174,-0.03769,0.00977,-0.04135
13.784,0.00137,0.01907,-0.02533,-0.03036,-0.02289,-0.04532,-0.01556,-0.00214,-0.03998,-0.00305,-0.26581,0.00229,-0.03113,-0.03464,0.01068,-0.04196
13.7845,0.00031,0.0238,-0.09979,-0.02701,-0.02213,-0.04578,-0.01526,-0.00275,-0.03632,-0.01923,-0.24643,0.00183,-0.03021,-0.03052,0.01068,-0.04242
13.785,0.00259,0.02457,-0.15778,-0.01892,-0.02213,-0.0473,-0.0145,-0.00336,-0.03204,-0.0322,-0.20966,0.00168,-0.02945,-0.02853,0.01053,-0.04227
13.7855,0.00534,0.02213,-0.16937,-0.00473,-0.02106,-0.0502,-0.01434,-0.00397,-0.02747,-0.04349,-0.16937,0.00137,-0.0293,-0.03082,0.00854,-0.04257
13.786,0.00717,0.01495,-0.14267,0.01068,-0.02014,-0.05066,-0.01404,-0.00412,-0.02304,-0.0528,-0.14343,0.00031,-0.02945,-0.03296,0.00748,-0.04303
13.7865,0.00793,-0.00244,-0.10345,0.01587,-0.01862,-0.04791,-0.0145,-0.00427,-0.01724,-0.06012,-0.13153,0.0,-0.02869,-0.03189,0.00687,-0.04303
13.787,0.00839,-0.02991,-0.07202,0.00351,-0.02045,-0.04395,-0.0145,-0.00549,-0.01144,-0.0647,-0.12329,-0.00015,-0.02716,-0.03006,0.00748,-0.04166
13.7875,0.00885,-0.05707,-0.04959,-0.01266,-0.02213,-0.04181,-0.01419,-0.00549,-0.00488,-0.06607,-0.10788,0.00137,-0.02594,-0.02777,0.0087,-0.04059
13.788,0.00778,-0.07172,-0.03845,-0.01801,-0.02441,-0.03998,-0.01511,-0.00488,0.00153,-0.06348,-0.08392,0.00214,-0.02655,-0.02655,0.00824,-0.04089
13.7885,0.00671,-0.07156,-0.04272,-0.0145,-0.02701,-0.0383,-0.01572,-0.00351,0.0058,-0.05554,-0.05692,0.00168,-0.02823,-0.02411,0.00671,-0.04181
13.789,0.00656,-0.06424,-0.06241,-0.00946,-0.02991,-0.03845,-0.01602,-0.00305,0.00809,-0.04654,-0.03586,0.00137,-0.03006,-0.02365,0.00519,-0.04196
13.7895,0.00641,-0.06607,-0.09399,-0.00397,-0.03387,-0.04089,-0.01541,-0.00366,0.009,-0.03876,-0.02289,0.00153,-0.03098,-0.02304,0.00336,-0.04196
13.79,0.00504,-0.0827,-0.13947,0.00381,-0.03769,-0.04425,-0.01465,-0.00412,0.00839,-0.03235,-0.01648,0.0029,-0.03021,-0.0206,0.0029,-0.04211
13.7905,0.00183,-0.09827,-0.19318,0.00809,-0.04059,-0.04654,-0.0145,-0.00366,0.00671,-0.02762,-0.00809,0.0032,-0.02945,-0.01678,0.00549,-0.04196
13.791,0.00061,-0.08865,-0.23972,0.00107,-0.04105,-0.04486,-0.01434,-0.00214,0.0061,-0.0235,0.00702,0.00244,-0.0296,-0.01358,0.00992,-0.03983
13.7915,0.00137,-0.05798,-0.26108,-0.01495,-0.04059,-0.04425,-0.0145,-0.00153,0.00702,-0.02197,0.02487,0.00198,-0.03021,-0.0119,0.01114,-0.03937
13.792,0.00015,-0.0502,-0.23773,-0.02899,-0.04089,-0.04471,-0.01419,-0.00183,0.00931,-0.02182,0.03922,0.00015,-0.03082,-0.01144,0.009,-0.04105
13.7925,-0.00366,-0.1062,-0.15472,-0.04028,-0.04211,-0.0473,-0.01358,-0.00107,0.01083,-0.02121,0.0444,-0.00107,-0.03189,-0.01053,0.00702,-0.04242
13.793,-0.00839,-0.20737,-0.02884,-0.05768,-0.04395,-0.0502,-0.01297,-0.00107,0.00946,-0.02167,0.04211,-0.00214,-0.03403,-0.00961,0.00626,-0.04272
13.7935,-0.0116,-0.27893,0.09369,-0.08316,-0.047,-0.05341,-0.0119,-0.00122,0.00427,-0.02716,0.03677,-0.00214,-0.03586,-0.00778,0.00702,-0.04196
13.794,-0.01236,-0.26398,0.16891,-0.1001,-0.05066,-0.0563,-0.01236,-0.00244,-0.00183,-0.04257,0.03708,-0.00198,-0.03693,-0.00595,0.00671,-0.04166
13.7945,-0.01022,-0.17593,0.19485,-0.09415,-0.05234,-0.0589,-0.01312,-0.0032,-0.00458,-0.06424,0.04761,-0.00565,-0.03708,-0.00427,0.00443,-0.04211
13.795,-0.00351,-0.07385,0.19379,-0.0705,-0.05264,-0.05981,-0.01419,-0.0029,-0.0032,-0.08026,0.06577,-0.01282,-0.03784,-0.00473,0.00397,-0.04135
13.7955,0.00809,0.00717,0.18021,-0.04761,-0.05341,-0.05798,-0.01404,-0.00183,-0.00168,-0.08438,0.08667,-0.01938,-0.03952,-0.00549,0.00519,-0.04181
13.796,0.02045,0.0618,0.15396,-0.0351,-0.05585,-0.05539,-0.01358,-0.00122,-0.00183,-0.08041,0.10742,-0.01923,-0.04196,-0.00793,0.00793,-0.04196
13.7965,0.02655,0.09415,0.11688,-0.02975,-0.05676,-0.05356,-0.01297,-0.00183,-0.0029,-0.07431,0.12787,-0.01007,-0.04425,-0.00916,0.00931,-0.04166
13.797,0.02411,0.10818,0.08041,-0.02213,-0.05295,-0.05341,-0.01328,-0.00412,-0.00519,-0.06546,0.14969,-0.00046,-0.04501,-0.00793,0.00916,-0.04166
13.7975,0.01633,0.10864,0.05646,-0.00717,-0.04456,-0.05539,-0.0148,-0.00519,-0.00717,-0.05051,0.1738,0.00687,-0.04471,-0.00565,0.00885,-0.0412
13.798,0.00778,0.1059,0.04669,0.01007,-0.03784,-0.05875,-0.0145,-0.00412,-0.00839,-0.03357,0.19989,0.01556,-0.04456,-0.00488,0.00931,-0.0412
13.7985,-0.00015,0.1059,0.03891,0.01999,-0.03448,-0.06088,-0.01419,-0.00397,-0.009,-0.02365,0.22308,0.02945,-0.04486,-0.00473,0.00839,-0.04044
13.799,-0.00961,0.10406,0.01999,0.01785,-0.03464,-0.06149,-0.0145,-0.00366,-0.01053,-0.02197,0.23819,0.03571,-0.04456,-0.00381,0.00626,-0.03983
13.7995,-0.01785,0.09705,-0.0119,0.01022,-0.03372,-0.06088,-0.01511,-0.00427,-0.01175,-0.01526,0.24017,0.01968,-0.04318,0.00061,0.00687,-0.04013
13.8,-0.02243,0.08545,-0.04791,0.00473,-0.03159,-0.06195,-0.01434,-0.00458,-0.01236,0.0116,0.22247,-0.00748,-0.04272,0.00565,0.0087,-0.04074
13.8005,-0.0235,0.07294,-0.07919,0.00153,-0.02762,-0.06226,-0.01373,-0.00458,-0.01358,0.05264,0.18341,-0.02182,-0.04181,0.00549,0.01068,-0.04242
13.801,-0.02411,0.05905,-0.1062,-0.00061,-0.02335,-0.06088,-0.01373,-0.00534,-0.01526,0.08453,0.13062,-0.01266,-0.04059,-0.00244,0.01053,-0.04349
13.8015,-0.02304,0.04166,-0.13428,-0.00122,-0.01831,-0.05829,-0.01434,-0.00473,-0.01923,0.08728,0.0795,0.00198,-0.03799,-0.01266,0.00977,-0.04196
13.802,-0.01694,0.01999,-0.16006,0.0,-0.01434,-0.05493,-0.01465,-0.0029,-0.02579,0.06424,0.03464,0.0061,-0.03586,-0.02182,0.00824,-0.04028
13.8025,-0.00519,-0.0032,-0.17899,0.00137,-0.01251,-0.0531,-0.01419,-0.00214,-0.0325,0.03555,-0.00198,0.00275,-0.03464,-0.03174,0.00885,-0.04028
13.803,0.00717,-0.02609,-0.19424,-0.00153,-0.0119,-0.05219,-0.01328,-0.0029,-0.0383,0.01602,-0.03311,0.00153,-0.03296,-0.04425,0.00854,-0.04166
13.8035,0.01373,-0.04745,-0.21362,-0.00626,-0.01221,-0.05112,-0.01358,-0.00458,-0.04242,0.0058,-0.05844,0.00305,-0.03143,-0.05325,0.00885,-0.04318
13.804,0.01587,-0.07263,-0.2359,-0.0087,-0.01266,-0.04898,-0.01465,-0.00458,-0.04349,-0.00137,-0.07385,0.00244,-0.02975,-0.05386,0.0087,-0.04364
13.8045,0.01953,-0.10452,-0.24109,-0.00732,-0.01328,-0.0473,-0.01602,-0.0032,-0.04211,-0.00931,-0.0766,-0.00122,-0.02884,-0.0499,0.00931,-0.04364
13.805,0.02838,-0.12985,-0.21317,-0.0058,-0.01358,-0.04471,-0.01617,-0.00214,-0.04044,-0.01495,-0.07095,-0.00275,-0.02792,-0.0473,0.01007,-0.04303
13.8055,0.03708,-0.13168,-0.16785,-0.00748,-0.01511,-0.04135,-0.01511,-0.00214,-0.03937,-0.01801,-0.06516,-0.00198,-0.02731,-0.0473,0.00961,-0.04211
13.806,0.03922,-0.10864,-0.12665,-0.01099,-0.01617,-0.03738,-0.01465,-0.00305,-0.0383,-0.01953,-0.0589,-0.00061,-0.02563,-0.04715,0.00946,-0.04196
13.8065,0.03601,-0.07736,-0.09674,-0.01587,-0.01709,-0.03525,-0.0148,-0.00397,-0.03586,-0.02319,-0.05081,0.0,-0.02258,-0.04532,0.01022,-0.04242
13.807,0.02945,-0.04959,-0.07004,-0.01785,-0.01831,-0.03357,-0.01465,-0.00443,-0.03189,-0.02991,-0.04242,-0.00061,-0.01892,-0.04288,0.00992,-0.04349
13.8075,0.02441,-0.02625,-0.03845,-0.01648,-0.01999,-0.03296,-0.01343,-0.00351,-0.02838,-0.03693,-0.0412,-0.00061,-0.0174,-0.03937,0.00885,-0.04379
13.808,0.02258,-0.00763,-0.00931,-0.01465,-0.02274,-0.03418,-0.0119,-0.00259,-0.02487,-0.0386,-0.05981,-0.00015,-0.01694,-0.03601,0.00671,-0.04318
13.8085,0.02274,0.00015,0.00946,-0.01373,-0.02579,-0.03616,-0.0119,-0.00214,-0.02167,-0.03571,-0.1001,-0.00031,-0.01633,-0.03418,0.00702,-0.04166
13.809,0.02319,-0.00565,0.01907,-0.01236,-0.02609,-0.03952,-0.01282,-0.00122,-0.01816,-0.03372,-0.14633,0.0,-0.01526,-0.03113,0.00885,-0.04135
13.8095,0.02167,-0.01694,0.02472,-0.01007,-0.02487,-0.04257,-0.01297,-0.00122,-0.01465,-0.0351,-0.17242,0.00031,-0.01465,-0.02716,0.01022,-0.04181
13.81,0.02106,-0.02365,0.0267,-0.00824,-0.02335,-0.04242,-0.0119,-0.00229,-0.01129,-0.0383,-0.17075,0.00092,-0.01663,-0.02228,0.00961,-0.04135
13.8105,0.02075,-0.03021,0.01572,-0.00778,-0.02243,-0.04044,-0.01083,-0.00351,-0.00732,-0.04105,-0.15564,0.00168,-0.01907,-0.0177,0.01007,-0.04074
13.811,0.01968,-0.04883,-0.00336,-0.01007,-0.02274,-0.0386,-0.01144,-0.00427,-0.00458,-0.04074,-0.13351,0.00214,-0.02121,-0.01556,0.00931,-0.03983
13.8115,0.01602,-0.07538,-0.02045,-0.01312,-0.02426,-0.04028,-0.01312,-0.00305,-0.00336,-0.03677,-0.10071,0.00305,-0.02365,-0.01343,0.00778,-0.03876
13.812,0.00931,-0.09628,-0.03098,-0.01465,-0.02548,-0.04211,-0.01358,-0.00259,-0.00244,-0.03235,-0.05661,0.0032,-0.02609,-0.01114,0.00549,-0.03845
13.8125,0.00275,-0.11108,-0.04868,-0.01236,-0.02792,-0.04395,-0.01328,-0.00275,-0.00061,-0.02792,-0.01556,0.00198,-0.02792,-0.00824,0.00565,-0.03784
13.813,-0.00229,-0.13123,-0.07874,-0.01007,-0.03098,-0.04486,-0.01266,-0.00305,0.0032,-0.03021,0.00885,0.00031,-0.02899,-0.00397,0.0061,-0.03845
13.8135,-0.009,-0.14481,-0.09354,-0.01007,-0.03479,-0.04639,-0.01328,-0.00351,0.00763,-0.03952,0.01724,-0.00092,-0.02869,0.0029,0.00671,-0.04105
13.814,-0.01709,-0.12726,-0.06271,-0.01205,-0.0383,-0.04944,-0.0145,-0.00244,0.01099,-0.05966,0.0177,-0.00137,-0.02914,0.01022,0.0061,-0.04318
13.8145,-0.02625,-0.07904,0.00916,-0.01358,-0.03937,-0.05234,-0.01465,-0.00229,0.01282,-0.09003,0.01862,-0.00137,-0.03113,0.01389,0.00687,-0.04379
13.815,-0.03494,-0.03448,0.07828,-0.01297,-0.03723,-0.05417,-0.01343,-0.00229,0.01465,-0.11948,0.02289,-0.00229,-0.0322,0.01373,0.00717,-0.04318
13.8155,-0.04257,-0.02075,0.10666,-0.0116,-0.03601,-0.05402,-0.01251,-0.00214,0.01511,-0.1265,0.02533,-0.00214,-0.0325,0.01495,0.00687,-0.04333
13.816,-0.04898,-0.03769,0.0946,-0.00916,-0.03677,-0.05325,-0.01358,-0.00183,0.0116,-0.09933,0.01984,-0.00076,-0.03189,0.01755,0.00519,-0.0444
13.8165,-0.05371,-0.07202,0.06882,-0.00931,-0.03723,-0.05493,-0.01556,-0.00229,0.00305,-0.04791,0.00809,-0.00015,-0.03372,0.02106,0.00504,-0.04486
13.817,-0.05646,-0.1062,0.04761,-0.01068,-0.03662,-0.05737,-0.01495,-0.00336,-0.00473,0.01053,0.00076,-0.00076,-0.03616,0.02167,0.00595,-0.04456
13.8175,-0.05707,-0.12177,0.02518,-0.01312,-0.03296,-0.05798,-0.01419,-0.00412,-0.00824,0.05981,0.00443,-0.00259,-0.03708,0.01831,0.00702,-0.0441
13.818,-0.05295,-0.11673,-0.009,-0.01221,-0.03082,-0.05402,-0.01389,-0.00443,-0.00671,0.09521,0.02243,-0.00229,-0.03738,0.00687,0.00763,-0.0441
13.8185,-0.04456,-0.10681,-0.04288,-0.01022,-0.02975,-0.04837,-0.01434,-0.00473,-0.00641,0.11368,0.04822,-0.00244,-0.0383,-0.01083,0.00671,-0.04425
13.819,-0.03479,-0.10391,-0.05219,-0.01053,-0.02869,-0.0444,-0.01511,-0.00473,-0.00992,0.11017,0.07278,-0.0029,-0.03983,-0.02808,0.00687,-0.04227
13.8195,-0.02762,-0.10162,-0.0354,-0.01114,-0.02579,-0.04272,-0.01404,-0.00427,-0.01251,0.08484,0.09476,-0.00381,-0.03952,-0.03067,0.00992,-0.04105
13.82,-0.02335,-0.08926,-0.01007,-0.00977,-0.0209,-0.04135,-0.01282,-0.00397,-0.01221,0.05066,0.11978,-0.00351,-0.03952,-0.01968,0.01236,-0.03967
13.8205,-0.01953,-0.06653,0.0029,-0.00793,-0.01892,-0.04196,-0.01251,-0.00412,-0.0116,0.02686,0.15289,-0.00305,-0.04059,-0.00778,0.01175,-0.04089
13.821,-0.0145,-0.04059,0.00198,-0.00793,-0.01984,-0.04501,-0.01205,-0.00427,-0.01373,0.02121,0.19028,-0.00183,-0.03998,-0.00458,0.01053,-0.04135
13.8215,-0.00961,-0.01663,-0.00412,-0.00809,-0.02151,-0.0473,-0.01205,-0.00565,-0.01907,0.02228,0.22461,-0.00031,-0.03937,-0.00748,0.01068,-0.03937
13.822,-0.00504,0.00015,0.00015,-0.00641,-0.02304,-0.04715,-0.01266,-0.00549,-0.02808,0.0174,0.24612,-0.00061,-0.03937,-0.00916,0.01083,-0.03967
13.8225,-0.00153,0.01007,0.03708,-0.00366,-0.02731,-0.04562,-0.01282,-0.00443,-0.03555,0.00366,0.24506,-0.0029,-0.03906,-0.00854,0.01175,-0.03937
13.823,0.00076,0.02029,0.10895,-0.0029,-0.03555,-0.04562,-0.01358,-0.00351,-0.03769,-0.01053,0.21896,-0.00458,-0.0386,-0.00885,0.01205,-0.03967
13.8235,0.00015,0.03372,0.18158,-0.0058,-0.04837,-0.04715,-0.01404,-0.00305,-0.03448,-0.02289,0.17731,-0.00519,-0.03891,-0.0116,0.01221,-0.04013
13.824,-0.00168,0.04517,0.21378,-0.00809,-0.05844,-0.04807,-0.01465,-0.00366,-0.03326,-0.0351,0.12756,-0.00626,-0.03845,-0.02136,0.0116,-0.04105
13.8245,-0.00153,0.04547,0.1947,-0.01022,-0.06058,-0.04837,-0.01465,-0.00443,-0.03479,-0.047,0.0705,-0.00778,-0.03769,-0.03937,0.01129,-0.04166
13.825,-0.00092,0.03204,0.13962,-0.01053,-0.05478,-0.04959,-0.01389,-0.00397,-0.0386,-0.05707,0.00076,-0.00793,-0.03677,-0.06241,0.01068,-0.04074
13.8255,-0.00214,0.00824,0.05753,-0.00793,-0.04623,-0.05249,-0.01297,-0.00336,-0.0412,-0.06027,-0.07599,-0.00854,-0.03448,-0.07965,0.00961,-0.04028
13.826,-0.00656,-0.01999,-0.05356,-0.00549,-0.04044,-0.05432,-0.01236,-0.00366,-0.04059,-0.0592,-0.14938,-0.00961,-0.03189,-0.08606,0.0087,-0.04028
13.8265,-0.00946,-0.04517,-0.18082,-0.00519,-0.03998,-0.05615,-0.01343,-0.00427,-0.03845,-0.05722,-0.20706,-0.01007,-0.0293,-0.08057,0.01007,-0.04089
13.827,-0.00977,-0.05676,-0.28992,-0.00946,-0.04166,-0.05692,-0.01419,-0.00488,-0.03632,-0.05493,-0.24414,-0.00961,-0.02838,-0.06454,0.0119,-0.03998
13.8275,-0.009,-0.04333,-0.34012,-0.01373,-0.03983,-0.05554,-0.01541,-0.00534,-0.03448,-0.05386,-0.26489,-0.00671,-0.02884,-0.04532,0.01312,-0.0386
13.828,-0.0087,-0.01526,-0.30899,-0.01511,-0.03784,-0.05386,-0.01572,-0.00427,-0.03067,-0.0502,-0.27832,-0.00366,-0.02838,-0.03571,0.01175,-0.0383
13.8285,-0.00824,0.0029,-0.20767,-0.01404,-0.0354,-0.05051,-0.01511,-0.00351,-0.02289,-0.0441,-0.28717,-0.00183,-0.02716,-0.04333,0.00992,-0.03693
13.829,-0.01038,-0.00229,-0.08362,-0.01266,-0.03525,-0.04669,-0.01373,-0.00305,-0.01282,-0.03632,-0.28137,-0.00122,-0.02686,-0.0621,0.009,-0.03677
13.8295,-0.01526,-0.01633,0.01007,-0.01205,-0.03555,-0.0444,-0.01251,-0.0029,-0.00427,-0.03036,-0.24841,0.00092,-0.02792,-0.07172,0.00946,-0.03723
13.83,-0.02167,-0.02167,0.04318,-0.01251,-0.03326,-0.04425,-0.01251,-0.00381,0.00046,-0.02625,-0.18997,0.0029,-0.0293,-0.06287,0.01038,-0.03815
13.8305,-0.02823,-0.02213,0.02472,-0.01312,-0.03128,-0.04639,-0.01434,-0.00412,0.00229,-0.02319,-0.12802,0.00397,-0.02975,-0.04074,0.01038,-0.03754
13.831,-0.03296,-0.03769,-0.01266,-0.0148,-0.02884,-0.05005,-0.01465,-0.00397,0.00671,-0.02151,-0.08514,0.00259,-0.02838,-0.02197,0.01083,-0.03754
13.8315,-0.03418,-0.07019,-0.03616,-0.0148,-0.02792,-0.05188,-0.01419,-0.00336,0.01282,-0.02457,-0.07065,0.00122,-0.02686,-0.01617,0.01099,-0.03708
13.832,-0.03403,-0.09644,-0.0351,-0.01358,-0.0264,-0.05127,-0.01434,-0.00305,0.01755,-0.03906,-0.0798,0.0,-0.02701,-0.01953,0.01099,-0.0383
13.8325,-0.03342,-0.09323,-0.02426,-0.01419,-0.02777,-0.0499,-0.0148,-0.00259,0.01816,-0.065,-0.09827,0.0,-0.02853,-0.02136,0.01144,-0.04196
13.833,-0.03159,-0.06912,-0.02792,-0.01678,-0.02701,-0.04791,-0.01495,-0.00214,0.01511,-0.09232,-0.10818,0.00015,-0.03067,-0.01938,0.01114,-0.04562
13.8335,-0.02884,-0.04745,-0.0499,-0.01953,-0.02502,-0.04364,-0.01373,-0.00168,0.01099,-0.10452,-0.10208,0.0,-0.03326,-0.0174,0.00916,-0.04715
13.834,-0.02533,-0.03784,-0.07416,-0.01831,-0.02228,-0.0386,-0.01251,-0.00076,0.0087,-0.0943,-0.08698,-0.00122,-0.03403,-0.01541,0.00702,-0.047
13.8345,-0.02029,-0.03281,-0.08057,-0.01343,-0.02213,-0.03296,-0.0116,-0.00092,0.00961,-0.07462,-0.06485,-0.00214,-0.03387,-0.01358,0.00458,-0.04562
13.835,-0.01434,-0.02563,-0.0589,-0.00839,-0.02304,-0.02991,-0.0116,-0.00168,0.01099,-0.06012,-0.03464,-0.00198,-0.03326,-0.0119,0.00183,-0.04486
13.8355,-0.00763,-0.01785,-0.02533,-0.00259,-0.02487,-0.02991,-0.01221,-0.00259,0.01007,-0.05539,-0.0032,-0.00015,-0.03479,-0.01144,0.00046,-0.0441
13.836,-0.00076,-0.01526,-0.00534,0.00488,-0.02533,-0.03464,-0.01297,-0.0029,0.00717,-0.05402,0.01587,0.0,-0.03769,-0.01053,-0.00229,-0.0441
13.8365,0.0058,-0.02213,-0.01831,0.01694,-0.02472,-0.04013,-0.01312,-0.00275,0.00366,-0.04242,0.02136,-0.00046,-0.03876,-0.00748,-0.00107,-0.04578
13.837,0.00885,-0.03891,-0.06592,0.03403,-0.02289,-0.04349,-0.01328,-0.00198,-0.00015,-0.02167,0.02594,-0.00107,-0.03769,-0.00427,0.00336,-0.04684
13.8375,0.00778,-0.05905,-0.13214,0.0531,-0.02213,-0.04349,-0.01266,-0.00244,-0.00504,0.00259,0.03494,-0.00092,-0.03677,-0.00214,0.00687,-0.04578
13.838,0.00595,-0.07492,-0.19623,0.07034,-0.02228,-0.04517,-0.01221,-0.00336,-0.01129,0.02502,0.03906,-0.00061,-0.03738,-0.00015,0.00839,-0.0444
13.8385,0.00443,-0.08514,-0.24078,0.08072,-0.02518,-0.04898,-0.01328,-0.00381,-0.01541,0.04135,0.03159,-0.00107,-0.03845,0.00122,0.00916,-0.04471
13.839,0.00336,-0.09369,-0.24963,0.08163,-0.02701,-0.05341,-0.01495,-0.00412,-0.01938,0.04852,0.01831,-0.00092,-0.03891,0.00259,0.00916,-0.04623
13.8395,0.00244,-0.0975,-0.21973,0.07355,-0.02716,-0.0563,-0.0148,-0.00381,-0.02396,0.04593,0.00916,-0.00031,-0.03754,0.0032,0.00839,-0.04837
13.84,0.00275,-0.09338,-0.16022,0.05295,-0.02762,-0.05676,-0.01343,-0.00381,-0.03036,0.03235,0.00763,0.00122,-0.03586,0.00259,0.00809,-0.04807
13.8405,0.00626,-0.08179,-0.09491,0.01511,-0.03006,-0.05722,-0.01205,-0.00366,-0.03632,0.01266,0.01297,0.00076,-0.03494,0.00122,0.0087,-0.04532
13.841,0.01129,-0.06805,-0.04623,-0.04761,-0.0325,-0.05707,-0.01144,-0.00244,-0.04059,-0.00565,0.02563,-0.00061,-0.0351,-0.00015,0.00961,-0.04257
13.8415,0.01373,-0.05844,-0.0264,-0.14374,-0.03586,-0.05615,-0.01068,-0.00076,-0.04425,-0.01221,0.04425,-0.00046,-0.03632,-0.00244,0.01053,-0.04227
13.842,0.01358,-0.056,-0.02808,-0.26428,-0.0383,-0.05478,-0.01099,0.00092,-0.04822,-0.00458,0.06546,0.00259,-0.03723,-0.00458,0.01022,-0.04318
13.8425,0.01251,-0.05753,-0.04074,-0.36545,-0.03983,-0.05249,-0.01282,0.00198,-0.05081,0.00992,0.08835,0.0061,-0.03632,-0.00595,0.01007,-0.04318
13.843,0.01343,-0.04944,-0.06287,-0.39856,-0.04013,-0.05112,-0.01556,0.00153,-0.05051,0.02869,0.11063,0.01099,-0.03464,-0.009,0.01083,-0.04272
13.8435,0.01266,-0.03159,-0.10132,-0.36606,-0.04028,-0.04898,-0.01724,0.00031,-0.04684,0.04837,0.12527,0.0206,-0.03326,-0.01251,0.01129,-0.04135
13.844,0.01007,-0.01923,-0.13763,-0.30106,-0.0412,-0.04776,-0.01648,-0.00183,-0.04318,0.07034,0.1178,0.0386,-0.03342,-0.01511,0.01221,-0.03967
13.8445,0.00687,-0.0206,-0.12848,-0.21469,-0.04333,-0.04532,-0.0148,-0.0032,-0.04379,0.08606,0.08163,0.0592,-0.03235,-0.01526,0.01038,-0.03952
13.845,0.00504,-0.03067,-0.05585,-0.09247,-0.0444,-0.04303,-0.01358,-0.00519,-0.04791,0.08774,0.02213,0.06897,-0.03159,-0.01419,0.00839,-0.03967
13.8455,0.00259,-0.04364,0.04532,0.07172,-0.04364,-0.04227,-0.01297,-0.00626,-0.05066,0.07385,-0.04456,0.05875,-0.03113,-0.01312,0.00793,-0.03922
13.846,-0.00076,-0.06638,0.12161,0.2475,-0.04333,-0.0415,-0.01266,-0.00626,-0.04868,0.04959,-0.09705,0.03494,-0.03098,-0.01389,0.0087,-0.0383
13.8465,-0.00473,-0.09506,0.15717,0.36758,-0.04211,-0.04257,-0.01343,-0.0058,-0.04654,0.02151,-0.1265,0.00839,-0.03143,-0.01724,0.00946,-0.0383
13.847,-0.009,-0.10666,0.17502,0.37155,-0.03983,-0.04547,-0.01404,-0.00595,-0.04639,-0.00671,-0.13382,-0.01083,-0.03067,-0.01953,0.00992,-0.03983
13.8475,-0.01419,-0.08392,0.18631,0.26947,-0.03754,-0.04898,-0.0145,-0.00748,-0.0444,-0.03159,-0.12558,-0.02182,-0.02914,-0.02167,0.00946,-0.04028
13.848,-0.0206,-0.0415,0.16022,0.14053,-0.03586,-0.05005,-0.01511,-0.00778,-0.0354,-0.05524,-0.11169,-0.02914,-0.02792,-0.0235,0.00885,-0.04059
13.8485,-0.02563,-0.01266,0.07797,0.05905,-0.03723,-0.04913,-0.01526,-0.00717,-0.02258,-0.08347,-0.0972,-0.0351,-0.02853,-0.02518,0.00824,-0.04105
13.849,-0.02731,-0.00656,-0.01633,0.04028,-0.04242,-0.04852,-0.01526,-0.00732,-0.01205,-0.11124,-0.07889,-0.03708,-0.02853,-0.02563,0.00854,-0.04196
13.8495,-0.02609,-0.00732,-0.0618,0.05753,-0.04822,-0.05096,-0.01465,-0.00717,-0.00748,-0.12924,-0.05386,-0.03128,-0.02777,-0.02441,0.01022,-0.04196
13.85,-0.02518,-0.00183,-0.05203,0.07751,-0.05356,-0.05493,-0.01389,-0.00641,-0.00748,-0.12848,-0.03067,-0.01724,-0.02716,-0.02213,0.01038,-0.04227
13.8505,-0.02731,0.00931,-0.03555,0.07874,-0.05447,-0.05859,-0.0145,-0.00549,-0.0087,-0.11414,-0.03098,-0.00488,-0.02686,-0.02014,0.00961,-0.04257
13.851,-0.03159,0.0177,-0.04913,0.06012,-0.05051,-0.05798,-0.01587,-0.00458,-0.00885,-0.09476,-0.06409,-0.01068,-0.02701,-0.01877,0.00793,-0.04242
13.8515,-0.03525,0.01923,-0.08377,0.04166,-0.04593,-0.05539,-0.01495,-0.00412,-0.00778,-0.08057,-0.11551,-0.03265,-0.02731,-0.01862,0.00809,-0.04227
13.852,-0.03632,0.0148,-0.10254,0.03525,-0.04196,-0.05356,-0.01373,-0.00427,-0.00809,-0.07187,-0.14786,-0.05371,-0.02762,-0.01877,0.00763,-0.04288
13.8525,-0.03647,0.00809,-0.07446,0.03647,-0.03845,-0.05234,-0.01221,-0.00473,-0.01068,-0.06393,-0.1355,-0.06424,-0.0296,-0.01877,0.00656,-0.04257
13.853,-0.03647,0.00153,-0.00854,0.03082,-0.03708,-0.05051,-0.01282,-0.00458,-0.01511,-0.05554,-0.08774,-0.07019,-0.03113,-0.01892,0.00519,-0.0412
13.8535,-0.03601,-0.00183,0.04837,0.0174,-0.03616,-0.04944,-0.01404,-0.00366,-0.01602,-0.04135,-0.03784,-0.07492,-0.03143,-0.01801,0.00443,-0.04105
13.854,-0.03342,-0.00412,0.04745,0.00443,-0.03494,-0.04776,-0.01541,-0.00366,-0.01266,-0.02472,-0.00732,-0.0679,-0.03067,-0.01572,0.00427,-0.04135
13.8545,-0.03006,-0.00854,-0.0116,-0.00244,-0.03387,-0.04608,-0.01602,-0.00366,-0.00702,-0.00992,0.01007,-0.04242,-0.03036,-0.0145,0.00519,-0.04242
13.855,-0.02457,-0.0174,-0.08179,-0.00366,-0.03082,-0.04532,-0.01465,-0.00351,-0.00381,0.00397,0.0322,-0.00717,-0.03082,-0.01526,0.00534,-0.04257
13.8555,-0.01831,-0.02747,-0.11383,-0.00259,-0.02655,-0.04562,-0.01297,-0.00351,-0.00305,0.02167,0.06622,0.01862,-0.03082,-0.0174,0.00534,-0.04211
13.856,-0.00992,-0.03372,-0.10437,-0.00259,-0.02411,-0.04639,-0.01251,-0.00458,-0.0029,0.04822,0.10193,0.02213,-0.03082,-0.01877,0.00641,-0.0412
13.8565,-0.00397,-0.03357,-0.08713,-0.00412,-0.02457,-0.047,-0.01312,-0.00488,-0.00229,0.07462,0.12207,0.01022,-0.0322,-0.01938,0.00687,-0.04135
13.857,-0.00122,-0.03525,-0.08224,-0.00656,-0.02487,-0.04608,-0.01404,-0.00412,-0.0029,0.09018,0.11108,-0.00061,-0.03311,-0.02045,0.00504,-0.0415
13.8575,-0.00183,-0.0412,-0.08438,-0.00656,-0.02457,-0.04486,-0.01358,-0.00183,-0.00641,0.09094,0.06378,-0.00473,-0.03479,-0.02243,0.00473,-0.04135
13.858,-0.00198,-0.04974,-0.07431,-0.00549,-0.02289,-0.04257,-0.01282,0.00031,-0.01038,0.07904,-0.01434,-0.00488,-0.03571,-0.02335,0.00565,-0.03998
13.8585,0.00031,-0.05737,-0.05127,-0.00504,-0.02182,-0.04089,-0.01297,0.00031,-0.01434,0.06149,-0.10376,-0.00229,-0.03647,-0.0238,0.00824,-0.03952
13.859,0.00214,-0.06424,-0.02197,-0.00641,-0.02106,-0.04074,-0.01495,-0.00229,-0.01419,0.0412,-0.18005,0.00198,-0.03723,-0.02289,0.00854,-0.03983
13.8595,0.00305,-0.06714,0.00015,-0.009,-0.02136,-0.04044,-0.01587,-0.00366,-0.01312,0.02228,-0.22781,0.00824,-0.03616,-0.02151,0.00717,-0.04059
13.86,0.00565,-0.06927,-0.00519,-0.01251,-0.02228,-0.03998,-0.01587,-0.00244,-0.01251,0.00687,-0.24307,0.01007,-0.03326,-0.02075,0.00504,-0.04074
13.8605,0.00977,-0.07278,-0.04074,-0.01572,-0.02289,-0.04028,-0.01556,-0.00015,-0.01297,-0.00275,-0.22751,0.00717,-0.03113,-0.02014,0.00504,-0.03967
13.861,0.0148,-0.08286,-0.07599,-0.01755,-0.02289,-0.04059,-0.01587,0.00046,-0.01099,-0.00778,-0.18585,0.00534,-0.03052,-0.01938,0.00641,-0.03952
13.8615,0.01755,-0.1033,-0.08347,-0.02029,-0.02243,-0.04059,-0.01511,-0.00046,-0.00778,-0.01205,-0.13062,0.00778,-0.03067,-0.01892,0.00641,-0.03998
13.862,0.01694,-0.13626,-0.06622,-0.02457,-0.0206,-0.04074,-0.01389,-0.00153,-0.00473,-0.01907,-0.08179,0.01129,-0.03098,-0.01785,0.00534,-0.04028
13.8625,0.01465,-0.16846,-0.04471,-0.02884,-0.02243,-0.04257,-0.01358,-0.00183,-0.00137,-0.03296,-0.05371,0.01434,-0.03265,-0.01663,0.00504,-0.03998
13.863,0.01389,-0.17136,-0.03052,-0.03052,-0.02441,-0.04456,-0.0145,-0.00198,0.00336,-0.05478,-0.04837,0.01404,-0.03403,-0.01617,0.00549,-0.03937
13.8635,0.0174,-0.13397,-0.02625,-0.03128,-0.02579,-0.04562,-0.0148,-0.00153,0.0087,-0.07401,-0.06241,0.01328,-0.0351,-0.0174,0.0061,-0.03906
13.864,0.02213,-0.0798,-0.02869,-0.03052,-0.02686,-0.04562,-0.01465,-0.00153,0.0119,-0.07355,-0.08224,0.0116,-0.03571,-0.0177,0.00443,-0.03998
13.8645,0.02472,-0.04501,-0.01892,-0.02869,-0.02594,-0.04532,-0.01404,-0.00183,0.01175,-0.05295,-0.08957,0.00946,-0.03525,-0.01724,0.00458,-0.0412
13.865,0.02182,-0.04486,0.01846,-0.0264,-0.02426,-0.04578,-0.01465,-0.00336,0.01083,-0.03021,-0.07278,0.00854,-0.03647,-0.01724,0.00519,-0.0415
13.8655,0.01617,-0.05966,0.07156,-0.02319,-0.02243,-0.04791,-0.01541,-0.00519,0.01129,-0.02335,-0.03937,0.00916,-0.03784,-0.01602,0.00732,-0.0412
13.866,0.0116,-0.05966,0.10284,-0.01831,-0.02045,-0.04913,-0.01556,-0.00626,0.01297,-0.03098,-0.00656,0.01022,-0.0386,-0.01251,0.00977,-0.04135
13.8665,0.0087,-0.0351,0.0914,-0.0148,-0.02029,-0.04898,-0.01419,-0.0061,0.01404,-0.03738,0.01663,0.01099,-0.03967,-0.00748,0.01144,-0.04181
13.867,0.00458,0.00076,0.04974,-0.01999,-0.02151,-0.04913,-0.01282,-0.00443,0.009,-0.03601,0.03494,0.00977,-0.04089,-0.00519,0.01114,-0.04379
13.8675,-0.00092,0.03616,0.00824,-0.04196,-0.02258,-0.04974,-0.01266,-0.00305,0.00015,-0.03632,0.05447,0.00763,-0.04196,-0.00595,0.01083,-0.0441
13.868,-0.00916,0.06485,-0.0119,-0.06851,-0.02411,-0.05112,-0.01251,-0.00351,-0.00717,-0.05402,0.07492,0.00626,-0.04272,-0.00809,0.01129,-0.04257
13.8685,-0.01678,0.08041,-0.01648,-0.07843,-0.02396,-0.05249,-0.01144,-0.00412,-0.01099,-0.09125,0.09109,0.0061,-0.04242,-0.00931,0.01099,-0.04105
13.869,-0.0235,0.07874,-0.01785,-0.06775,-0.02411,-0.05264,-0.01221,-0.00397,-0.01328,-0.12863,0.1033,0.0061,-0.04196,-0.01022,0.01007,-0.04044
13.8695,-0.02777,0.06546,-0.02197,-0.04974,-0.02289,-0.05295,-0.01419,-0.00305,-0.01633,-0.13794,0.11948,0.00549,-0.0412,-0.01114,0.01022,-0.04074
13.87,-0.02792,0.04761,-0.03174,-0.03922,-0.02228,-0.05325,-0.01511,-0.00214,-0.01968,-0.1059,0.1445,0.00504,-0.04059,-0.0116,0.00961,-0.04105
13.8705,-0.02625,0.02716,-0.04654,-0.03113,-0.01968,-0.05173,-0.01465,-0.0029,-0.02274,-0.04959,0.17502,0.00565,-0.04059,-0.01221,0.00946,-0.04089
13.871,-0.02426,0.00427,-0.05646,-0.01358,-0.01541,-0.04974,-0.01495,-0.00427,-0.02502,0.00031,0.20538,0.00931,-0.04089,-0.01175,0.01022,-0.0412
13.8715,-0.02502,-0.0177,-0.05371,0.01541,-0.01175,-0.04837,-0.01495,-0.00397,-0.02609,0.03128,0.233,0.0177,-0.04044,-0.0116,0.01205,-0.04044
13.872,-0.02762,-0.03784,-0.04028,0.04425,-0.01053,-0.04715,-0.01526,-0.00214,-0.02548,0.0499,0.25925,0.03082,-0.03906,-0.01205,0.01266,-0.04074
13.8725,-0.02853,-0.05249,-0.02579,0.07126,-0.01053,-0.04715,-0.01465,0.00031,-0.02319,0.065,0.27847,0.04501,-0.03815,-0.0119,0.01175,-0.04105
13.873,-0.02594,-0.05798,-0.01587,0.10651,-0.01266,-0.04898,-0.01373,0.00076,-0.0235,0.07843,0.28122,0.05478,-0.03662,-0.01175,0.01068,-0.04196
13.8735,-0.02121,-0.05417,-0.01221,0.13977,-0.01556,-0.04974,-0.01404,-0.00137,-0.02853,0.08453,0.2623,0.05569,-0.03464,-0.01236,0.00916,-0.04349
13.874,-0.0177,-0.04669,-0.01343,0.13885,-0.01923,-0.04807,-0.01526,-0.00381,-0.03571,0.08011,0.22232,0.04837,-0.03403,-0.01404,0.00839,-0.04562
13.8745,-0.01572,-0.04425,-0.01877,0.08865,-0.02258,-0.04425,-0.01572,-0.00473,-0.0415,0.06699,0.16449,0.03387,-0.03326,-0.01633,0.00946,-0.04654
13.875,-0.01419,-0.04684,-0.0267,0.00793,-0.02609,-0.04272,-0.01495,-0.00443,-0.04639,0.0499,0.08926,0.01053,-0.03265,-0.01984,0.01022,-0.04456
13.8755,-0.01068,-0.05173,-0.03632,-0.07477,-0.03128,-0.04349,-0.01373,-0.00397,-0.05356,0.0296,0.00107,-0.01846,-0.03204,-0.02472,0.01022,-0.03983
13.876,-0.0058,-0.05737,-0.04532,-0.13382,-0.03891,-0.0473,-0.01251,-0.00473,-0.0618,0.00763,-0.09186,-0.03693,-0.02991,-0.03113,0.0116,-0.03616
13.8765,-0.00137,-0.06256,-0.05417,-0.14557,-0.04852,-0.0528,-0.0116,-0.00549,-0.06714,-0.0145,-0.17548,-0.03098,-0.02731,-0.03738,0.01236,-0.0354
13.877,0.00259,-0.06485,-0.05844,-0.11505,-0.05508,-0.05737,-0.01144,-0.00534,-0.06699,-0.0354,-0.23773,-0.00153,-0.0264,-0.04105,0.01099,-0.03601
13.8775,0.00443,-0.06561,-0.0589,-0.08102,-0.0563,-0.0592,-0.01221,-0.00427,-0.06485,-0.0528,-0.27039,0.0383,-0.02594,-0.04272,0.00916,-0.03708
13.878,0.00427,-0.07065,-0.05768,-0.07355,-0.05249,-0.05936,-0.01297,-0.00229,-0.06195,-0.06378,-0.27527,0.08148,-0.02457,-0.04379,0.00916,-0.03906
13.8785,0.00412,-0.08713,-0.05859,-0.08987,-0.0473,-0.0589,-0.01465,-0.00244,-0.05875,-0.06577,-0.26413,0.1088,-0.02167,-0.04654,0.00961,-0.03998
13.879,0.00549,-0.10635,-0.05997,-0.11093,-0.04349,-0.05615,-0.01602,-0.00412,-0.05219,-0.06027,-0.2536,0.09491,-0.01892,-0.04868,0.00839,-0.04089
13.8795,0.00839,-0.10941,-0.06012,-0.12817,-0.04196,-0.05219,-0.01526,-0.00534,-0.04242,-0.04883,-0.25436,0.03845,-0.01709,-0.04883,0.0061,-0.04242
13.88,0.01068,-0.0914,-0.05997,-0.13947,-0.04257,-0.04669,-0.01266,-0.00565,-0.03159,-0.03494,-0.26108,-0.03326,-0.01602,-0.04639,0.00381,-0.04425
13.8805,0.01175,-0.06226,-0.05981,-0.13947,-0.04623,-0.04211,-0.0119,-0.0058,-0.02182,-0.02747,-0.25558,-0.09872,-0.01526,-0.04395,0.00473,-0.04623
13.881,0.01328,-0.03799,-0.05859,-0.11871,-0.04929,-0.03983,-0.01312,-0.0061,-0.01648,-0.03174,-0.23163,-0.15366,-0.01572,-0.04059,0.00458,-0.04669
13.8815,0.01526,-0.02319,-0.05463,-0.08194,-0.05142,-0.03876,-0.01434,-0.00702,-0.01297,-0.04044,-0.19379,-0.1944,-0.01801,-0.03693,0.00427,-0.04776
13.882,0.01709,-0.01816,-0.04883,-0.04196,-0.05188,-0.03647,-0.01434,-0.00687,-0.00961,-0.0441,-0.14923,-0.22018,-0.0209,-0.03311,0.00381,-0.04944
13.8825,0.01694,-0.0238,-0.04425,-0.00977,-0.04852,-0.0322,-0.01419,-0.0058,-0.00397,-0.04059,-0.10406,-0.23895,-0.02213,-0.03036,0.00473,-0.05096
13.883,0.01572,-0.03586,-0.04028,0.00824,-0.04364,-0.02731,-0.01343,-0.00458,0.00229,-0.03525,-0.06577,-0.24307,-0.02197,-0.02838,0.00504,-0.05066
13.8835,0.01312,-0.04761,-0.03799,0.01419,-0.03937,-0.0264,-0.01266,-0.0032,0.00671,-0.03372,-0.03967,-0.20187,-0.02258,-0.02716,0.00595,-0.04929
13.884,0.01053,-0.05417,-0.03616,0.01282,-0.0383,-0.02777,-0.01114,-0.00244,0.00656,-0.03754,-0.02121,-0.11215,-0.02548,-0.02457,0.00595,-0.04807
13.8845,0.00885,-0.05707,-0.03372,0.01114,-0.03922,-0.03098,-0.00992,-0.0029,0.00443,-0.04257,-0.00229,-0.02472,-0.02914,-0.02182,0.00763,-0.04654
13.885,0.00717,-0.05859,-0.02991,0.00961,-0.03662,-0.03601,-0.01022,-0.00336,0.00153,-0.04654,0.01724,0.01724,-0.0325,-0.01968,0.00931,-0.04547
13.8855,0.00717,-0.05966,-0.02197,0.00671,-0.03387,-0.04257,-0.01114,-0.0029,-0.00015,-0.04654,0.03159,0.03525,-0.03479,-0.01862,0.00977,-0.04456
13.886,0.00732,-0.06104,-0.00412,-0.00031,-0.03357,-0.04837,-0.01236,-0.0029,-0.00015,-0.04578,0.03693,0.07141,-0.03662,-0.0177,0.00916,-0.04425
13.8865,0.00656,-0.06577,0.01724,-0.00946,-0.0354,-0.05096,-0.01266,-0.00427,0.00092,-0.04547,0.03769,0.1152,-0.03845,-0.01633,0.00839,-0.04425
13.887,0.00381,-0.07385,0.03418,-0.01465,-0.03616,-0.05219,-0.01251,-0.00397,0.00122,-0.04456,0.03937,0.13535,-0.03937,-0.01419,0.00687,-0.04364
13.8875,-0.00046,-0.0769,0.04532,-0.01144,-0.03555,-0.05295,-0.01205,-0.00259,0.00198,-0.03937,0.04166,0.1387,-0.03845,-0.0119,0.00671,-0.04272
13.888,-0.00443,-0.0705,0.05371,0.00229,-0.03586,-0.05234,-0.01221,-0.00214,0.00214,-0.03357,0.0386,0.14511,-0.03815,-0.00961,0.00748,-0.0412
13.8885,-0.00595,-0.05402,0.05707,0.01923,-0.03815,-0.0528,-0.01266,-0.00244,0.00198,-0.03067,0.02991,0.14328,-0.03906,-0.00656,0.00702,-0.03998
13.889,-0.00305,-0.03906,0.0499,0.03052,-0.03723,-0.05432,-0.01221,-0.00259,0.00015,-0.0322,0.02029,0.11383,-0.04074,-0.00214,0.00565,-0.03967
13.8895,-0.00061,-0.04074,0.02457,0.03342,-0.03372,-0.05463,-0.01205,-0.00183,-0.00244,-0.03906,0.01617,0.07065,-0.04135,0.00198,0.00519,-0.03983
13.89,-0.00107,-0.05936,-0.00809,0.0325,-0.03128,-0.05478,-0.01205,-0.00183,-0.00351,-0.04471,0.01923,0.04608,-0.04044,0.00244,0.00641,-0.03952
13.8905,-0.0029,-0.07507,-0.03342,0.03311,-0.03052,-0.05463,-0.01297,-0.00137,-0.00397,-0.0412,0.02701,0.04333,-0.03967,-0.00122,0.00839,-0.03922
13.891,-0.00351,-0.07004,-0.04288,0.0354,-0.03143,-0.05447,-0.01343,-0.00198,-0.00412,-0.0293,0.03693,0.04471,-0.03937,-0.00595,0.00946,-0.03983
13.8915,-0.00504,-0.04715,-0.04181,0.03601,-0.03036,-0.05432,-0.01434,-0.00214,-0.0058,-0.01663,0.04593,0.03815,-0.04013,-0.009,0.00977,-0.03922
13.892,-0.00931,-0.01801,-0.04639,0.03204,-0.02914,-0.05432,-0.01556,-0.00198,-0.00748,-0.00992,0.05295,0.02991,-0.04135,-0.00977,0.00946,-0.03906
13.8925,-0.01602,0.00458,-0.06439,0.02792,-0.02853,-0.05341,-0.01556,-0.00183,-0.00854,-0.00931,0.05814,0.02609,-0.0412,-0.00946,0.00977,-0.0386
13.893,-0.0235,0.01587,-0.08606,0.02563,-0.0293,-0.05173,-0.01434,-0.00137,-0.01068,-0.00793,0.06302,0.02487,-0.04059,-0.00824,0.01053,-0.03876
13.8935,-0.03159,0.0174,-0.10559,0.02396,-0.03036,-0.05051,-0.01404,-0.00259,-0.01343,-0.01175,0.06836,0.02304,-0.03952,-0.00702,0.01022,-0.03937
13.894,-0.0351,0.01434,-0.12558,0.02029,-0.03052,-0.05005,-0.01373,-0.00336,-0.01877,-0.02579,0.07278,0.02075,-0.03967,-0.00626,0.00946,-0.04074
13.8945,-0.03357,0.00946,-0.14557,0.01572,-0.03021,-0.05081,-0.01328,-0.00214,-0.02457,-0.04501,0.07645,0.01877,-0.03998,-0.00549,0.00946,-0.04028
13.895,-0.02884,0.00549,-0.15839,0.01312,-0.02914,-0.0528,-0.01389,0.00015,-0.0267,-0.05157,0.08026,0.0174,-0.04013,-0.00397,0.00931,-0.04013
13.8955,-0.02289,-0.00183,-0.15808,0.01373,-0.02701,-0.05386,-0.01328,0.00031,-0.02502,-0.0383,0.08362,0.01572,-0.03937,-0.0029,0.00946,-0.04044
13.896,-0.0174,-0.01556,-0.14999,0.01572,-0.02472,-0.05371,-0.01404,-0.00122,-0.02289,-0.02045,0.08698,0.01526,-0.03769,-0.00336,0.00946,-0.04089
13.8965,-0.01373,-0.0322,-0.13977,0.01495,-0.02426,-0.0531,-0.01419,-0.00336,-0.02243,-0.01389,0.09018,0.01511,-0.03632,-0.00397,0.0087,-0.04044
13.897,-0.01205,-0.04227,-0.12619,0.01236,-0.02289,-0.05203,-0.01373,-0.00366,-0.02319,-0.01648,0.09369,0.01358,-0.03601,-0.00519,0.00656,-0.04028
13.8975,-0.01068,-0.04517,-0.10696,0.00824,-0.02182,-0.04944,-0.01465,-0.00351,-0.02213,-0.0174,0.09354,0.01175,-0.03571,-0.00732,0.00504,-0.04089
13.898,-0.00687,-0.04944,-0.08438,0.00626,-0.0206,-0.04547,-0.01526,-0.00366,-0.01968,-0.01251,0.09064,0.01038,-0.0354,-0.01099,0.00565,-0.04135
13.8985,-0.00275,-0.0647,-0.06699,0.00732,-0.01892,-0.04227,-0.01511,-0.00351,-0.01556,-0.00504,0.08728,0.00931,-0.03387,-0.01511,0.00763,-0.04196
13.899,-0.00076,-0.09613,-0.07156,0.00885,-0.01755,-0.03906,-0.01404,-0.0029,-0.01205,0.00214,0.08286,0.00732,-0.0325,-0.01923,0.0087,-0.04227
13.8995,-0.00183,-0.13016,-0.10483,0.00916,-0.0174,-0.03738,-0.01328,-0.00336,-0.00854,0.01221,0.07767,0.00519,-0.03143,-0.02304,0.00732,-0.04272
13.9,-0.00107,-0.14801,-0.14008,0.00763,-0.01892,-0.03815,-0.01373,-0.0032,-0.00565,0.02518,0.07019,0.00366,-0.03159,-0.02548,0.00565,-0.04242
13.9005,0.00198,-0.14191,-0.14648,0.00549,-0.02045,-0.04196,-0.0145,-0.00183,-0.00412,0.03708,0.05875,0.0029,-0.03113,-0.02655,0.00565,-0.04074
13.901,0.00565,-0.1178,-0.1178,0.00183,-0.02228,-0.04547,-0.01343,-0.00137,-0.00504,0.04333,0.04242,0.00305,-0.0296,-0.02686,0.00763,-0.03891
13.9015,0.00748,-0.08743,-0.07324,-0.00229,-0.0238,-0.047,-0.01236,-0.00076,-0.00916,0.04257,0.02304,0.00275,-0.02731,-0.02777,0.00687,-0.03876
13.902,0.00916,-0.05844,-0.03174,-0.00366,-0.02441,-0.04593,-0.01144,-0.00031,-0.0145,0.03769,0.00717,0.00229,-0.02655,-0.03006,0.00488,-0.03998
13.9025,0.00946,-0.03357,-0.00397,-0.00168,-0.0264,-0.04593,-0.01175,0.0,-0.01877,0.03357,-0.00198,0.00153,-0.0264,-0.03159,0.00381,-0.04181
13.903,0.00931,-0.01358,0.01038,-0.00183,-0.02838,-0.04562,-0.01175,-0.00153,-0.01907,0.02884,-0.00961,0.00061,-0.02533,-0.03235,0.00565,-0.0415
13.9035,0.009,0.00351,0.01678,-0.00717,-0.03006,-0.04471,-0.01205,-0.00275,-0.01633,0.01785,-0.01923,0.00061,-0.02472,-0.03296,0.00565,-0.04105
13.904,0.0087,0.01556,0.02518,-0.01541,-0.03128,-0.04486,-0.01282,-0.00336,-0.01389,0.00305,-0.02884,0.00092,-0.02548,-0.03387,0.00473,-0.04028
13.9045,0.00732,0.02197,0.03769,-0.02014,-0.03265,-0.04547,-0.01419,-0.0029,-0.01419,-0.00854,-0.03143,0.00107,-0.02686,-0.03357,0.00412,-0.04044
13.905,0.00275,0.02686,0.0528,-0.01633,-0.0354,-0.04578,-0.01389,-0.00092,-0.01678,-0.01266,-0.02716,0.00107,-0.02731,-0.03174,0.00427,-0.04059
13.9055,-0.00305,0.03143,0.065,-0.00305,-0.03693,-0.04471,-0.01297,-0.00015,-0.01831,-0.01434,-0.02548,-0.00031,-0.0264,-0.03067,0.00412,-0.04059
13.906,-0.00687,0.03067,0.07065,0.01312,-0.03662,-0.04425,-0.01297,-0.00061,-0.0177,-0.01938,-0.03113,-0.00366,-0.02518,-0.03098,0.00488,-0.04105
13.9065,-0.00656,0.02121,0.06638,0.02441,-0.03571,-0.04593,-0.01434,-0.00229,-0.0148,-0.02686,-0.04623,-0.00488,-0.02411,-0.03052,0.00565,-0.04181
13.907,-0.00519,0.00732,0.05447,0.02716,-0.0386,-0.04837,-0.01495,-0.00259,-0.01205,-0.03525,-0.06638,-0.00458,-0.02441,-0.02808,0.00595,-0.04272
13.9075,-0.00412,-0.00534,0.04166,0.01923,-0.04318,-0.04837,-0.01511,-0.00305,-0.01007,-0.04166,-0.0853,-0.00259,-0.02472,-0.02411,0.0061,-0.04181
13.908,-0.00397,-0.0174,0.03143,0.00122,-0.04532,-0.04898,-0.01434,-0.00336,-0.00854,-0.04608,-0.0946,-0.00305,-0.02518,-0.01984,0.0061,-0.04105
13.9085,-0.00443,-0.03632,0.02304,-0.01862,-0.04349,-0.04684,-0.01328,-0.00412,-0.0061,-0.04837,-0.09186,-0.00488,-0.02609,-0.0174,0.00519,-0.04074
13.909,-0.00458,-0.06516,0.01358,-0.03723,-0.0412,-0.04669,-0.01389,-0.00381,-0.00198,-0.04822,-0.07889,-0.0061,-0.02701,-0.01694,0.00488,-0.0415
13.9095,-0.0032,-0.09354,0.00381,-0.05188,-0.04135,-0.047,-0.01511,-0.00275,0.00137,-0.04913,-0.06165,-0.00519,-0.02838,-0.01785,0.00504,-0.04135
13.91,0.00076,-0.1033,-0.00427,-0.06195,-0.04242,-0.04837,-0.01556,-0.00168,0.00351,-0.05173,-0.04837,-0.0029,-0.02975,-0.01968,0.00565,-0.04196
13.9105,0.00473,-0.08957,-0.0119,-0.06607,-0.04227,-0.04868,-0.0145,-0.00244,0.00397,-0.0563,-0.04379,-0.00183,-0.03174,-0.02106,0.0058,-0.04242
13.911,0.00793,-0.06378,-0.01816,-0.06393,-0.03998,-0.04852,-0.01282,-0.00443,0.00275,-0.06531,-0.04562,-0.00137,-0.03403,-0.02182,0.00519,-0.04196
13.9115,0.00854,-0.04257,-0.0206,-0.06119,-0.03693,-0.04837,-0.01251,-0.00595,0.00229,-0.07355,-0.04944,-0.00122,-0.03525,-0.02136,0.00488,-0.04105
13.912,0.00793,-0.03067,-0.01831,-0.06393,-0.03479,-0.04852,-0.01434,-0.00641,0.00305,-0.07629,-0.05386,-0.00076,-0.03693,-0.02014,0.0061,-0.04181
13.9125,0.0061,-0.02762,-0.0058,-0.0705,-0.03357,-0.04883,-0.01572,-0.00641,0.00488,-0.07004,-0.05783,0.00015,-0.03723,-0.01648,0.00748,-0.04227
13.913,0.00397,-0.02975,0.02411,-0.0705,-0.03296,-0.04852,-0.01526,-0.00641,0.00641,-0.05524,-0.0563,0.00137,-0.03784,-0.01419,0.00717,-0.04257
13.9135,0.00244,-0.03235,0.07813,-0.0589,-0.03311,-0.04761,-0.01373,-0.0061,0.00671,-0.0354,-0.04181,0.00198,-0.03845,-0.01312,0.00717,-0.04211
13.914,0.00214,-0.03052,0.14252,-0.04135,-0.03143,-0.04532,-0.01343,-0.00504,0.00458,-0.00977,-0.01602,0.00153,-0.03876,-0.01129,0.00778,-0.0415
13.9145,0.00153,-0.02228,0.18646,-0.02686,-0.03052,-0.0444,-0.01404,-0.00336,0.0,0.01358,0.01083,0.00092,-0.04028,-0.00732,0.009,-0.04196
13.915,-0.00092,-0.01099,0.18234,-0.01968,-0.03082,-0.04593,-0.01419,-0.00214,-0.00916,0.0267,0.03387,0.00046,-0.04196,-0.00351,0.00885,-0.04242
13.9155,-0.00336,-0.00717,0.13855,-0.01343,-0.0322,-0.04868,-0.01389,-0.00336,-0.01816,0.01907,0.05615,0.00031,-0.04211,-0.00137,0.00809,-0.04288
13.916,-0.00381,-0.02151,0.08072,-0.00748,-0.03342,-0.05066,-0.01434,-0.00473,-0.02258,-0.00702,0.07858,0.00015,-0.04242,-0.00076,0.00961,-0.04242
13.9165,-0.0029,-0.05707,0.0238,-0.00336,-0.03403,-0.05112,-0.01389,-0.00427,-0.02167,-0.04059,0.09842,0.00046,-0.04272,-0.00259,0.01114,-0.0412
13.917,-0.00412,-0.09476,-0.03128,-0.00412,-0.03387,-0.05081,-0.01282,-0.0032,-0.0206,-0.06378,0.10727,0.00122,-0.04395,-0.00656,0.01312,-0.04044
13.9175,-0.00793,-0.10208,-0.07568,-0.00519,-0.0351,-0.05005,-0.0116,-0.00412,-0.02228,-0.06577,0.10284,0.00198,-0.04395,-0.01022,0.01328,-0.04089
13.918,-0.01266,-0.07034,-0.08072,-0.00488,-0.03677,-0.05066,-0.01144,-0.00565,-0.02563,-0.05081,0.08835,0.00275,-0.04318,-0.01144,0.01221,-0.04227
13.9185,-0.01587,-0.02441,-0.03784,-0.00153,-0.03693,-0.05173,-0.01266,-0.0058,-0.02716,-0.03601,0.07172,0.00214,-0.04166,-0.01022,0.01129,-0.04349
13.919,-0.01511,0.00259,0.01846,0.00412,-0.03647,-0.0528,-0.01495,-0.00504,-0.0267,-0.03723,0.05722,0.00214,-0.04059,-0.00778,0.01144,-0.04303
13.9195,-0.01266,0.00397,0.03479,0.01022,-0.03479,-0.05173,-0.01526,-0.00305,-0.0267,-0.04761,0.04822,0.00275,-0.03876,-0.00778,0.01175,-0.04227
13.92,-0.01328,-0.01007,-0.00565,0.01495,-0.03342,-0.05035,-0.0145,-0.00275,-0.03036,-0.05264,0.0444,0.00397,-0.03784,-0.01129,0.0116,-0.0415
13.9205,-0.01572,-0.03143,-0.07965,0.01831,-0.0322,-0.05096,-0.01282,-0.00229,-0.03708,-0.04303,0.04135,0.00443,-0.03677,-0.0174,0.01083,-0.04135
13.921,-0.01785,-0.05829,-0.14771,0.02182,-0.03235,-0.05249,-0.01175,-0.00229,-0.04242,-0.02533,0.02457,0.00397,-0.03601,-0.02167,0.01099,-0.0415
13.9215,-0.01999,-0.07996,-0.18524,0.02991,-0.03082,-0.05432,-0.01114,-0.00168,-0.04364,-0.01007,-0.01755,0.00412,-0.03464,-0.02319,0.01022,-0.0415
13.922,-0.02228,-0.08347,-0.18677,0.04196,-0.02945,-0.05447,-0.01129,-0.00229,-0.04272,-0.00092,-0.08026,0.00397,-0.03387,-0.02594,0.00992,-0.04059
13.9225,-0.02304,-0.06668,-0.16083,0.05081,-0.02869,-0.05325,-0.01175,-0.0032,-0.0415,0.0061,-0.14374,0.00259,-0.03311,-0.02914,0.00946,-0.04074
13.923,-0.02121,-0.04623,-0.12421,0.0499,-0.02853,-0.05157,-0.01205,-0.00381,-0.04242,0.01434,-0.18677,0.00244,-0.0322,-0.03235,0.00961,-0.04013
13.9235,-0.01785,-0.03906,-0.09796,0.03998,-0.02823,-0.05051,-0.01175,-0.00336,-0.04578,0.02396,-0.20523,0.00137,-0.03036,-0.03448,0.00992,-0.04059
13.924,-0.0148,-0.04089,-0.09583,0.0235,-0.0267,-0.04974,-0.01099,-0.00275,-0.04959,0.02914,-0.20569,0.00031,-0.02777,-0.03647,0.00992,-0.04105
13.9245,-0.01129,-0.03876,-0.11765,0.00107,-0.02548,-0.05005,-0.01129,-0.00107,-0.05157,0.02762,-0.19241,-0.00015,-0.02563,-0.03937,0.009,-0.04181
13.925,-0.00885,-0.02716,-0.15594,-0.03326,-0.0238,-0.05112,-0.01144,0.0,-0.04959,0.02014,-0.15976,0.00031,-0.02182,-0.03983,0.00824,-0.04272
13.9255,-0.00931,-0.01312,-0.19196,-0.07858,-0.02426,-0.0502,-0.01083,0.00092,-0.04547,0.0119,-0.10544,0.00214,-0.01953,-0.04013,0.00885,-0.04257
13.926,-0.01007,-0.00153,-0.21515,-0.12421,-0.02457,-0.04868,-0.01129,0.0,-0.04166,0.00656,-0.03448,0.0032,-0.01892,-0.04181,0.00977,-0.04196
13.9265,-0.01083,0.00641,-0.22247,-0.15564,-0.02518,-0.04776,-0.01297,-0.00137,-0.03891,0.00656,0.03326,0.00488,-0.01984,-0.04272,0.01129,-0.04196
13.927,-0.00946,0.00839,-0.22156,-0.16937,-0.02457,-0.04959,-0.01495,-0.00259,-0.03479,0.00946,0.0737,0.00565,-0.01968,-0.04211,0.01114,-0.04257
13.9275,-0.00595,0.00046,-0.22141,-0.18753,-0.02335,-0.05035,-0.01526,-0.00305,-0.02731,0.01617,0.07156,0.0058,-0.0206,-0.03815,0.00992,-0.04364
13.928,-0.00168,-0.01877,-0.22263,-0.22552,-0.02274,-0.0502,-0.01434,-0.00305,-0.0177,0.02258,0.02914,0.0087,-0.02182,-0.03342,0.00839,-0.04272
13.9285,0.00229,-0.05203,-0.22308,-0.25681,-0.02197,-0.04929,-0.01419,-0.00427,-0.00778,0.02274,-0.03677,0.01816,-0.02136,-0.02808,0.00793,-0.04211
13.929,0.0087,-0.09476,-0.2179,-0.24384,-0.01999,-0.04715,-0.01404,-0.00549,0.00183,0.01648,-0.10544,0.03891,-0.02106,-0.02396,0.00793,-0.0415
13.9295,0.01984,-0.13168,-0.20432,-0.18753,-0.01801,-0.04456,-0.01526,-0.0058,0.01007,0.01053,-0.15228,0.06531,-0.02136,-0.01892,0.00793,-0.0415
13.93,0.03113,-0.14252,-0.17578,-0.11246,-0.01755,-0.04166,-0.01678,-0.0061,0.01602,0.00748,-0.16449,0.08194,-0.02228,-0.01419,0.00824,-0.04105
13.9305,0.03784,-0.11749,-0.13016,-0.02274,-0.01892,-0.03983,-0.01541,-0.00717,0.02029,0.00732,-0.1474,0.07416,-0.02365,-0.01205,0.009,-0.04074
13.931,0.03937,-0.07233,-0.07263,0.08163,-0.02197,-0.04059,-0.01343,-0.00885,0.02258,0.00626,-0.11978,0.04929,-0.02441,-0.01099,0.00992,-0.04089
13.9315,0.04044,-0.03204,-0.02182,0.18875,-0.0238,-0.04242,-0.01282,-0.00977,0.02319,0.00305,-0.09705,0.02701,-0.02472,-0.00992,0.00931,-0.04211
13.932,0.04349,-0.00854,-0.00748,0.27878,-0.02548,-0.04471,-0.01358,-0.00977,0.02274,-0.00122,-0.08331,0.01984,-0.02441,-0.00778,0.00793,-0.04242
13.9325,0.04669,0.00137,-0.03052,0.32532,-0.02655,-0.04532,-0.0148,-0.00732,0.02045,-0.00488,-0.07111,0.01831,-0.02457,-0.00336,0.00824,-0.0415
13.933,0.04837,0.00427,-0.05707,0.30106,-0.02747,-0.04318,-0.01541,-0.00443,0.0177,-0.01007,-0.05692,0.00092,-0.02609,0.00168,0.01007,-0.04044
13.9335,0.04898,0.00381,-0.04929,0.21667,-0.03036,-0.04166,-0.01617,-0.00336,0.0148,-0.01663,-0.03922,-0.03494,-0.02838,0.00824,0.01221,-0.03937
13.934,0.05188,0.00107,-0.01389,0.12665,-0.0325,-0.04166,-0.01678,-0.00168,0.0116,-0.02197,-0.02151,-0.06775,-0.02884,0.00916,0.01343,-0.0386
13.9345,0.05432,-0.01099,-0.00031,0.06973,-0.03494,-0.04272,-0.01755,-0.00259,0.00717,-0.02609,-0.00763,-0.08347,-0.02975,-0.0029,0.01404,-0.03754
13.935,0.05081,-0.04028,-0.05051,0.03738,-0.03677,-0.04333,-0.01785,-0.00397,0.00168,-0.02701,-0.00046,-0.08636,-0.03128,-0.02808,0.01419,-0.03769
13.9355,0.04089,-0.08362,-0.15945,0.00885,-0.03769,-0.04349,-0.01678,-0.0058,-0.00366,-0.02563,0.00259,-0.08484,-0.03387,-0.0528,0.01251,-0.03876
13.936,0.02899,-0.12177,-0.27374,-0.01251,-0.03876,-0.0441,-0.01602,-0.00671,-0.00732,-0.02426,0.00519,-0.07309,-0.03525,-0.0647,0.01038,-0.0412
13.9365,0.01892,-0.13138,-0.32379,-0.01236,-0.03983,-0.04471,-0.01526,-0.00717,-0.00885,-0.0264,0.00748,-0.05478,-0.03662,-0.06516,0.00885,-0.04303
13.937,0.01114,-0.10269,-0.2774,0.00366,-0.04227,-0.04684,-0.0148,-0.00626,-0.00977,-0.03143,0.00488,-0.04883,-0.03876,-0.06439,0.00778,-0.04395
13.9375,0.00366,-0.056,-0.14633,0.01862,-0.0441,-0.04898,-0.01419,-0.00488,-0.00992,-0.03937,-0.00183,-0.05264,-0.04059,-0.06378,0.00793,-0.0444
13.938,-0.00214,-0.02167,0.03754,0.02304,-0.04517,-0.04974,-0.01404,-0.00381,-0.00961,-0.05157,-0.00778,-0.04593,-0.04166,-0.05402,0.009,-0.04395
13.9385,-0.00504,-0.00244,0.22583,0.01709,-0.0473,-0.0499,-0.01434,-0.0032,-0.0119,-0.06805,-0.00809,-0.02228,-0.04288,-0.03372,0.00946,-0.0444
13.939,-0.00778,0.01312,0.36514,0.00671,-0.04837,-0.05035,-0.01434,-0.00427,-0.0145,-0.08545,0.00076,-0.00229,-0.0441,-0.01358,0.00809,-0.04501
13.9395,-0.01343,0.02304,0.4126,-0.00259,-0.04974,-0.05112,-0.01404,-0.00458,-0.01694,-0.09735,0.01877,0.00137,-0.0441,-0.00397,0.00595,-0.04532
13.94,-0.02136,0.0145,0.36804,-0.00687,-0.04913,-0.05234,-0.01434,-0.00412,-0.01755,-0.09995,0.04105,-0.00031,-0.04318,-0.00412,0.00549,-0.04562
13.9405,-0.03098,-0.00916,0.28183,-0.00717,-0.04608,-0.05295,-0.0145,-0.00336,-0.01617,-0.09369,0.05997,0.00763,-0.04181,-0.00443,0.00839,-0.04425
13.941,-0.03937,-0.03708,0.20782,-0.00992,-0.04486,-0.05463,-0.01297,-0.0029,-0.0145,-0.07782,0.07309,0.02457,-0.0415,0.00061,0.01083,-0.04257
13.9415,-0.04608,-0.07019,0.15839,-0.01389,-0.04547,-0.05875,-0.01144,-0.00427,-0.01495,-0.04593,0.08011,0.03601,-0.04211,0.00549,0.0116,-0.0412
13.942,-0.05096,-0.11261,0.12283,-0.01755,-0.0444,-0.06226,-0.01068,-0.0058,-0.01755,-0.00793,0.08301,0.02701,-0.04364,0.00259,0.01068,-0.04028
13.9425,-0.05157,-0.14389,0.09476,-0.01938,-0.04196,-0.06454,-0.01251,-0.00565,-0.01923,0.01907,0.08774,0.00534,-0.04456,-0.00458,0.00885,-0.04135
13.943,-0.04807,-0.13794,0.08591,-0.0209,-0.0383,-0.06287,-0.01465,-0.00427,-0.01984,0.02823,0.10147,-0.00061,-0.04654,-0.00671,0.00916,-0.04242
13.9435,-0.04135,-0.10223,0.09842,-0.02274,-0.0354,-0.05829,-0.01526,-0.00336,-0.02243,0.0235,0.12558,0.02228,-0.04837,-0.00076,0.00977,-0.04196
13.944,-0.03387,-0.06638,0.11856,-0.02396,-0.03235,-0.05173,-0.01541,-0.00336,-0.02777,0.01602,0.15182,0.05173,-0.04715,0.00793,0.01038,-0.04211
13.9445,-0.02731,-0.05203,0.13016,-0.02518,-0.02869,-0.04669,-0.01434,-0.00473,-0.0354,0.00732,0.17105,0.0531,-0.04364,0.01205,0.01205,-0.04318
13.945,-0.02243,-0.06271,0.11703,-0.02701,-0.02518,-0.04654,-0.01373,-0.00534,-0.04074,-0.00351,0.1799,0.02151,-0.04089,0.00992,0.01083,-0.04364
13.9455,-0.01663,-0.08621,0.0705,-0.02762,-0.02289,-0.04929,-0.0145,-0.00519,-0.04089,-0.0177,0.17868,-0.01251,-0.04028,0.00427,0.00931,-0.04303
13.946,-0.00931,-0.10178,0.009,-0.02777,-0.02182,-0.0499,-0.0145,-0.00397,-0.03922,-0.03326,0.16708,-0.02518,-0.03906,-0.00107,0.00809,-0.04227
13.9465,-0.00198,-0.09567,-0.03098,-0.02731,-0.01984,-0.04608,-0.01404,-0.00351,-0.03555,-0.04608,0.15366,-0.01801,-0.03799,-0.00397,0.00885,-0.04349
13.947,0.00198,-0.07187,-0.03265,-0.02792,-0.01938,-0.04135,-0.01404,-0.00336,-0.03235,-0.05447,0.14496,-0.01038,-0.03616,-0.00641,0.00931,-0.0441
13.9475,0.00381,-0.04761,-0.0177,-0.02838,-0.0209,-0.0415,-0.01556,-0.00305,-0.02945,-0.05676,0.13824,-0.01373,-0.03418,-0.01068,0.00931,-0.04379
13.948,0.00473,-0.03036,-0.01678,-0.02777,-0.02151,-0.04501,-0.01678,-0.00336,-0.0267,-0.05417,0.12329,-0.02533,-0.03281,-0.01633,0.00732,-0.04333
13.9485,0.00641,-0.01755,-0.0322,-0.02655,-0.02243,-0.04776,-0.0174,-0.00443,-0.0238,-0.04639,0.09674,-0.03403,-0.03204,-0.02411,0.00656,-0.04303
13.949,0.00824,-0.00244,-0.04562,-0.02563,-0.02457,-0.04791,-0.01633,-0.00458,-0.02258,-0.03967,0.06027,-0.03021,-0.03052,-0.03006,0.00641,-0.04318
13.9495,0.01007,0.01541,-0.04639,-0.02457,-0.02594,-0.04761,-0.01404,-0.00366,-0.02197,-0.03601,0.01526,-0.0119,-0.02899,-0.03479,0.00809,-0.04349
13.95,0.01328,0.0351,-0.04456,-0.02304,-0.0264,-0.04684,-0.01358,-0.00259,-0.02289,-0.03326,-0.04471,0.00748,-0.02838,-0.04044,0.00992,-0.04318
13.9505,0.01785,0.04959,-0.05173,-0.02167,-0.02472,-0.04593,-0.01389,-0.00351,-0.02548,-0.02716,-0.112,0.01434,-0.02838,-0.04608,0.01068,-0.04211
13.951,0.02228,0.05859,-0.06958,-0.01907,-0.02289,-0.04425,-0.0145,-0.00366,-0.03021,-0.01663,-0.16632,0.01068,-0.02869,-0.05005,0.01022,-0.04211
13.9515,0.02457,0.06088,-0.09232,-0.01526,-0.02258,-0.04166,-0.0148,-0.00381,-0.03601,-0.00351,-0.19913,0.00443,-0.02701,-0.05035,0.0087,-0.04181
13.952,0.0238,0.05203,-0.11276,-0.01175,-0.02151,-0.03937,-0.01495,-0.00336,-0.03937,0.00549,-0.22766,0.0032,-0.02533,-0.04761,0.00763,-0.04166
13.9525,0.02258,0.02747,-0.12558,-0.01175,-0.02136,-0.0386,-0.01465,-0.00229,-0.03586,0.01144,-0.27679,0.00565,-0.02365,-0.04288,0.00748,-0.04181
13.953,0.02121,-0.00412,-0.13184,-0.01373,-0.02274,-0.03799,-0.0148,-0.00153,-0.0264,0.01465,-0.34058,0.00732,-0.02319,-0.03784,0.0087,-0.04059
13.9535,0.02106,-0.02243,-0.13077,-0.01419,-0.02335,-0.03693,-0.01419,-0.00107,-0.01602,0.01633,-0.39169,0.00656,-0.02243,-0.03387,0.01007,-0.03998
13.954,0.02029,-0.01602,-0.11993,-0.01099,-0.02502,-0.03784,-0.01419,-0.00092,-0.00778,0.01556,-0.40329,0.00397,-0.02304,-0.03052,0.01083,-0.04089
13.9545,0.01831,0.00381,-0.09598,-0.00824,-0.02701,-0.04135,-0.01511,-0.00168,-0.00107,0.01175,-0.36835,0.00137,-0.0238,-0.02716,0.00992,-0.04272
13.955,0.01511,0.01999,-0.06531,-0.00702,-0.02869,-0.04486,-0.01556,-0.00229,0.00381,0.00504,-0.29221,0.00076,-0.02426,-0.02319,0.00916,-0.04318
13.9555,0.01129,0.02319,-0.04059,-0.0087,-0.02899,-0.047,-0.01526,-0.0029,0.00702,-0.00381,-0.19989,0.00046,-0.02396,-0.0209,0.00793,-0.04227
13.956,0.00687,0.01587,-0.03052,-0.01007,-0.02884,-0.04684,-0.01282,-0.0029,0.00839,-0.01282,-0.12695,-0.00046,-0.02335,-0.02045,0.00809,-0.04135
13.9565,0.00061,0.00076,-0.02945,-0.01251,-0.03036,-0.04623,-0.01312,-0.0029,0.00946,-0.01755,-0.08514,-0.0029,-0.02365,-0.0209,0.00717,-0.04059
13.957,-0.00336,-0.01633,-0.03082,-0.01343,-0.03372,-0.04623,-0.0148,-0.0032,0.00992,-0.01938,-0.06424,-0.00427,-0.02365,-0.01999,0.00717,-0.04013
13.9575,-0.00412,-0.02655,-0.03021,-0.01419,-0.03571,-0.04639,-0.01541,-0.0032,0.00916,-0.01801,-0.05432,-0.00443,-0.02441,-0.01724,0.00626,-0.04105
13.958,-0.00076,-0.02655,-0.03357,-0.01465,-0.03799,-0.04608,-0.01419,-0.00229,0.009,-0.01694,-0.05814,-0.00488,-0.02518,-0.01465,0.00488,-0.0412
13.9585,0.00122,-0.02243,-0.04013,-0.01648,-0.03952,-0.04669,-0.01358,-0.00244,0.00992,-0.01923,-0.07584,-0.00732,-0.02655,-0.01114,0.00458,-0.04105
13.959,0.00031,-0.02411,-0.04196,-0.01862,-0.04044,-0.04837,-0.01312,-0.00351,0.01083,-0.02213,-0.09033,-0.01068,-0.02884,-0.00748,0.00427,-0.04059
13.9595,-0.00168,-0.03296,-0.03036,-0.02106,-0.0412,-0.04974,-0.01312,-0.00412,0.00916,-0.02335,-0.08163,-0.01205,-0.03174,-0.00443,0.00443,-0.04028
13.96,-0.00168,-0.04608,-0.00031,-0.02304,-0.04257,-0.04822,-0.01328,-0.00381,0.00763,-0.0238,-0.04974,-0.01144,-0.0325,-0.00229,0.00549,-0.03967
13.9605,-0.00214,-0.06653,0.04242,-0.01801,-0.0444,-0.0473,-0.01282,-0.00381,0.0061,-0.0235,-0.00824,-0.01114,-0.03342,-0.00031,0.0061,-0.03845
13.961,-0.00534,-0.09552,0.08377,-0.00259,-0.0441,-0.04669,-0.01312,-0.00381,0.00397,-0.01846,0.02563,-0.01053,-0.03372,0.00061,0.00671,-0.03876
13.9615,-0.01205,-0.12527,0.09628,0.01678,-0.04227,-0.04654,-0.01343,-0.00397,0.00137,-0.01175,0.04364,-0.01099,-0.03418,0.00244,0.00641,-0.03983
13.962,-0.01999,-0.14694,0.05478,0.02594,-0.04044,-0.04654,-0.01312,-0.0032,0.00031,-0.0058,0.04776,-0.01144,-0.03586,0.00107,0.00519,-0.03998
13.9625,-0.02426,-0.16006,-0.04211,0.0209,-0.03952,-0.04608,-0.01221,-0.00275,-0.00229,-0.00458,0.04745,-0.01343,-0.03754,-0.00366,0.00412,-0.04028
13.963,-0.02365,-0.16312,-0.16357,0.00763,-0.03952,-0.04547,-0.01175,-0.00259,-0.00656,-0.01007,0.05402,-0.01419,-0.03937,-0.00641,0.00412,-0.04166
13.9635,-0.02167,-0.14908,-0.26062,-0.00626,-0.03906,-0.04532,-0.01175,-0.00198,-0.01144,-0.01877,0.06866,-0.00961,-0.04044,-0.00641,0.00397,-0.04257
13.964,-0.02365,-0.11673,-0.29114,-0.02014,-0.03922,-0.04456,-0.01205,-0.00183,-0.01694,-0.0264,0.08347,-0.00244,-0.04074,-0.00473,0.00397,-0.04211
13.9645,-0.0293,-0.07202,-0.2594,-0.03418,-0.03784,-0.04517,-0.0116,-0.00244,-0.02045,-0.0296,0.09064,0.00259,-0.04044,-0.00351,0.00412,-0.04059
13.965,-0.03754,-0.02655,-0.20798,-0.04517,-0.03693,-0.04761,-0.01038,-0.00214,-0.0238,-0.03296,0.08957,0.00122,-0.04211,-0.00397,0.00397,-0.03952
13.9655,-0.047,0.01129,-0.16678,-0.04974,-0.03647,-0.04974,-0.01144,-0.00229,-0.0267,-0.047,0.08667,-0.00885,-0.04257,-0.00397,0.00275,-0.04013
13.966,-0.056,0.03723,-0.13412,-0.04944,-0.03708,-0.04913,-0.01389,-0.00244,-0.0293,-0.07019,0.0856,-0.02411,-0.04272,-0.00488,0.00427,-0.04105
13.9665,-0.06287,0.04807,-0.09354,-0.04913,-0.03754,-0.04745,-0.01526,-0.00214,-0.03174,-0.08499,0.08942,-0.03723,-0.04059,-0.00473,0.00626,-0.0415
13.967,-0.06424,0.04547,-0.04959,-0.05447,-0.03693,-0.04715,-0.01541,-0.00107,-0.03433,-0.0827,0.0975,-0.04257,-0.03906,-0.00412,0.00778,-0.04089
13.9675,-0.06073,0.03708,-0.01526,-0.06348,-0.03494,-0.04868,-0.0145,0.0,-0.03647,-0.07553,0.11047,-0.0415,-0.0383,-0.00275,0.00656,-0.04044
13.968,-0.0563,0.0264,0.0029,-0.06622,-0.03372,-0.05142,-0.01343,-0.00092,-0.03906,-0.08209,0.12543,-0.0386,-0.03876,-0.00336,0.0058,-0.04135
13.9685,-0.05356,0.01282,0.00839,-0.05951,-0.03265,-0.05295,-0.01328,-0.00305,-0.04227,-0.10345,0.13992,-0.03479,-0.0383,-0.0061,0.00702,-0.04227
13.969,-0.05081,-0.00702,0.00504,-0.05142,-0.03098,-0.05325,-0.01373,-0.00427,-0.047,-0.11459,0.15335,-0.0238,-0.03754,-0.00992,0.00748,-0.04196
13.9695,-0.04608,-0.02731,-0.00946,-0.04669,-0.02899,-0.05402,-0.01511,-0.00519,-0.05219,-0.09506,0.16754,-0.00549,-0.03632,-0.01419,0.00885,-0.04135
13.97,-0.03998,-0.0415,-0.03555,-0.04166,-0.02548,-0.05463,-0.0148,-0.00519,-0.05493,-0.06256,0.17319,0.01205,-0.0351,-0.01938,0.00931,-0.04013
13.9705,-0.03433,-0.04517,-0.06485,-0.0325,-0.02335,-0.05661,-0.01419,-0.00504,-0.05234,-0.05096,0.15579,0.01465,-0.03387,-0.02518,0.00824,-0.03983
13.971,-0.03067,-0.04135,-0.07904,-0.01877,-0.02228,-0.05692,-0.01419,-0.00427,-0.0441,-0.06195,0.10696,0.00305,-0.03235,-0.0293,0.00626,-0.03967
13.9715,-0.02701,-0.03769,-0.06699,-0.00626,-0.02213,-0.05615,-0.01434,-0.00336,-0.03372,-0.05936,0.03174,-0.00854,-0.03113,-0.03113,0.0061,-0.03967
13.972,-0.02289,-0.03769,-0.03342,0.00092,-0.02335,-0.05417,-0.01404,-0.00229,-0.02167,-0.01816,-0.05203,-0.00916,-0.02762,-0.03311,0.00626,-0.04059
13.9725,-0.01907,-0.04395,0.00397,0.00275,-0.0235,-0.05157,-0.01205,-0.00275,-0.01266,0.04303,-0.12253,-0.00351,-0.02472,-0.03448,0.00687,-0.0415
13.973,-0.01694,-0.0589,0.03342,0.00412,-0.02274,-0.04822,-0.01068,-0.00458,-0.01282,0.08881,-0.16922,-0.00107,-0.02289,-0.03464,0.00793,-0.0415
13.9735,-0.01617,-0.08423,0.05203,0.00366,-0.02274,-0.04379,-0.0116,-0.00458,-0.02274,0.11169,-0.19745,-0.00427,-0.02182,-0.03586,0.00839,-0.04135
13.974,-0.01282,-0.1088,0.06165,-0.00259,-0.02319,-0.03922,-0.01328,-0.00427,-0.03174,0.12314,-0.20767,-0.0087,-0.0209,-0.03876,0.00793,-0.04135
13.9745,-0.00549,-0.11719,0.0589,-0.01846,-0.02518,-0.03616,-0.01495,-0.00366,-0.03357,0.12848,-0.19836,-0.0145,-0.02106,-0.04211,0.0087,-0.04303
13.975,0.00458,-0.10742,0.04623,-0.03418,-0.02563,-0.03525,-0.01572,-0.0029,-0.03098,0.11795,-0.16815,-0.02197,-0.02136,-0.04074,0.009,-0.0444
13.9755,0.01114,-0.08926,0.02686,-0.03418,-0.02777,-0.0386,-0.01602,-0.00305,-0.02869,0.08698,-0.1265,-0.02518,-0.02243,-0.0354,0.00854,-0.04379
13.976,0.01266,-0.07095,0.00931,-0.01053,-0.03021,-0.04196,-0.01556,-0.0032,-0.02747,0.04684,-0.09079,-0.02548,-0.0235,-0.02975,0.0058,-0.04318
13.9765,0.0116,-0.05554,0.00565,0.02777,-0.03098,-0.04486,-0.01572,-0.00305,-0.02594,0.01862,-0.07263,-0.02457,-0.02441,-0.02777,0.00443,-0.04272
13.977,0.01129,-0.04318,0.01755,0.07263,-0.03052,-0.04745,-0.01587,-0.00336,-0.02365,0.01587,-0.06683,-0.02533,-0.02563,-0.0267,0.0032,-0.04272
13.9775,0.01343,-0.03799,0.02991,0.11337,-0.02884,-0.04929,-0.01495,-0.00351,-0.02182,0.03616,-0.05951,-0.02289,-0.0267,-0.02365,0.00504,-0.04318
13.978,0.01648,-0.03998,0.03265,0.13779,-0.02762,-0.04898,-0.01358,-0.00351,-0.01907,0.06424,-0.0441,-0.0177,-0.02762,-0.02014,0.00626,-0.04333
13.9785,0.01785,-0.04623,0.02548,0.13123,-0.02457,-0.04807,-0.01312,-0.00229,-0.01617,0.08392,-0.02518,-0.01099,-0.02838,-0.01862,0.0058,-0.04318
13.979,0.01556,-0.05112,0.0145,0.09521,-0.02441,-0.04669,-0.01358,0.0,-0.01495,0.08408,-0.01236,-0.00595,-0.02869,-0.01831,0.00351,-0.04303
13.9795,0.01266,-0.04974,0.00107,0.05096,-0.02457,-0.04654,-0.01282,0.00092,-0.01633,0.06836,-0.00717,-0.00412,-0.02945,-0.01709,0.00275,-0.04272
13.98,0.01114,-0.04501,-0.02182,0.01892,-0.02441,-0.04791,-0.01266,-0.00015,-0.01572,0.04593,-0.00031,-0.00366,-0.03036,-0.01465,0.00473,-0.04211
13.9805,0.00977,-0.04227,-0.05249,0.00168,-0.02396,-0.04776,-0.01297,-0.00137,-0.01312,0.02457,0.01007,-0.00244,-0.03143,-0.01282,0.00778,-0.0412
13.981,0.00885,-0.04364,-0.07996,-0.00748,-0.02182,-0.04578,-0.01404,-0.00214,-0.01007,0.00687,0.01511,-0.00015,-0.03174,-0.01221,0.00778,-0.04074
13.9815,0.009,-0.04868,-0.09171,-0.01358,-0.01938,-0.04425,-0.01389,-0.00229,-0.01099,-0.00931,0.00458,0.00076,-0.0325,-0.01236,0.00717,-0.04044
13.982,0.00885,-0.05371,-0.08881,-0.02258,-0.01678,-0.0444,-0.01419,-0.00275,-0.01389,-0.02457,-0.01678,-0.00031,-0.03311,-0.01205,0.00687,-0.04028
13.9825,0.00854,-0.05737,-0.08118,-0.03433,-0.01648,-0.04684,-0.01495,-0.00412,-0.01556,-0.04211,-0.03464,-0.00076,-0.03342,-0.01221,0.00732,-0.04105
13.983,0.00748,-0.05859,-0.07568,-0.03937,-0.01816,-0.04868,-0.01389,-0.00519,-0.01389,-0.0621,-0.03906,0.00153,-0.03296,-0.01236,0.00626,-0.04181
13.9835,0.00519,-0.06073,-0.07446,-0.02823,-0.02518,-0.04913,-0.01251,-0.00626,-0.01129,-0.08255,-0.03754,0.00885,-0.0325,-0.01282,0.0058,-0.04288
13.984,0.00275,-0.06653,-0.07385,-0.01617,-0.04059,-0.04883,-0.0119,-0.00641,-0.01068,-0.10132,-0.04364,0.01953,-0.03342,-0.01358,0.00702,-0.04272
13.9845,0.00183,-0.0798,-0.06332,-0.02487,-0.0589,-0.04868,-0.01236,-0.00748,-0.01251,-0.11292,-0.06104,0.03067,-0.03448,-0.01617,0.00702,-0.04272
13.985,0.0029,-0.10437,-0.03403,-0.04898,-0.06821,-0.04837,-0.01358,-0.00687,-0.01495,-0.11627,-0.07568,0.03967,-0.03418,-0.01831,0.00687,-0.04181
13.9855,0.0029,-0.13901,0.00504,-0.06561,-0.06409,-0.04776,-0.01465,-0.00504,-0.01541,-0.11002,-0.07278,0.04196,-0.03204,-0.01877,0.00626,-0.04166
13.986,-0.00031,-0.16876,0.03571,-0.06104,-0.05493,-0.04776,-0.01419,-0.00397,-0.01389,-0.09674,-0.05722,0.03403,-0.03082,-0.01923,0.0058,-0.04257
13.9865,-0.00565,-0.18005,0.04288,-0.04318,-0.04974,-0.04822,-0.01373,-0.00412,-0.0116,-0.07767,-0.04105,0.02441,-0.03067,-0.02014,0.0061,-0.04196
13.987,-0.01038,-0.1683,0.03448,-0.02731,-0.04898,-0.04913,-0.01297,-0.00504,-0.00961,-0.05768,-0.0325,0.0267,-0.03128,-0.02014,0.00687,-0.0412
13.9875,-0.01495,-0.13763,0.02487,-0.02258,-0.04608,-0.04852,-0.01297,-0.00427,-0.00534,-0.04059,-0.02823,0.04257,-0.0322,-0.02045,0.00656,-0.04089
13.988,-0.0206,-0.09644,0.01831,-0.03098,-0.04028,-0.04745,-0.01221,-0.00305,0.0,-0.03082,-0.02426,0.05737,-0.03296,-0.02029,0.00641,-0.03983
13.9885,-0.02625,-0.05585,0.00687,-0.04181,-0.03479,-0.04669,-0.0116,-0.00366,0.00427,-0.03143,-0.02014,0.05371,-0.03342,-0.0206,0.00687,-0.03906
13.989,-0.02945,-0.03021,-0.02457,-0.04654,-0.03326,-0.0473,-0.01114,-0.00488,0.00793,-0.03937,-0.0145,0.03204,-0.03281,-0.02014,0.00778,-0.03952
13.9895,-0.02899,-0.02609,-0.07813,-0.04318,-0.03326,-0.04684,-0.01328,-0.00458,0.01404,-0.0473,-0.00305,0.00366,-0.03143,-0.01785,0.00809,-0.04135
13.99,-0.02853,-0.02884,-0.13062,-0.0354,-0.03311,-0.04639,-0.0145,-0.0029,0.02243,-0.05066,0.01572,-0.02335,-0.03143,-0.01587,0.00687,-0.04272
13.9905,-0.03113,-0.01648,-0.15915,-0.02808,-0.0325,-0.04639,-0.01373,-0.00153,0.02731,-0.05356,0.03662,-0.04944,-0.03204,-0.01617,0.00595,-0.04196
13.991,-0.03586,0.0145,-0.1593,-0.02228,-0.03311,-0.04761,-0.01175,-0.00137,0.02533,-0.06119,0.04776,-0.07675,-0.03204,-0.01801,0.00671,-0.04135
13.9915,-0.03799,0.05066,-0.15472,-0.01556,-0.03326,-0.04929,-0.01129,-0.00153,0.01968,-0.07645,0.04059,-0.10468,-0.03174,-0.01785,0.00839,-0.04059
13.992,-0.03677,0.07965,-0.15579,-0.01022,-0.03372,-0.05096,-0.01114,-0.00137,0.01266,-0.08957,0.01602,-0.13062,-0.03265,-0.01709,0.009,-0.04135
13.9925,-0.0325,0.09811,-0.15198,-0.00824,-0.0322,-0.05112,-0.01175,-0.00076,0.00671,-0.0853,-0.00839,-0.14328,-0.03342,-0.01648,0.00793,-0.04227
13.993,-0.02701,0.10635,-0.12802,-0.00763,-0.02975,-0.05081,-0.01205,-0.00137,0.00153,-0.06226,-0.01526,-0.13641,-0.0325,-0.01724,0.00717,-0.04211
13.9935,-0.02289,0.10406,-0.09171,-0.00809,-0.02884,-0.05051,-0.01282,-0.00168,-0.00244,-0.03265,-0.00229,-0.11658,-0.03189,-0.01617,0.00854,-0.04181
13.994,-0.01953,0.09537,-0.06363,-0.00854,-0.02777,-0.05051,-0.01465,-0.00168,-0.00443,-0.01251,0.01373,-0.09918,-0.0325,-0.01419,0.00885,-0.04181
13.9945,-0.01328,0.08377,-0.05432,-0.00885,-0.02594,-0.04959,-0.01526,-0.00107,-0.00687,0.00092,0.01953,-0.08591,-0.03479,-0.01251,0.00824,-0.0415
13.995,-0.00412,0.07019,-0.05829,-0.00885,-0.02258,-0.04791,-0.0148,-0.00183,-0.01022,0.00809,0.01755,-0.05707,-0.03693,-0.01312,0.00549,-0.0415
13.9955,0.00473,0.05371,-0.06149,-0.00992,-0.01892,-0.04639,-0.01373,-0.00275,-0.01373,0.01083,0.01755,0.00198,-0.03708,-0.01389,0.00458,-0.04349
13.996,0.00885,0.03571,-0.04593,-0.01297,-0.01602,-0.04547,-0.01343,-0.00214,-0.01633,0.01114,0.02319,0.07126,-0.03586,-0.01328,0.00504,-0.04593
13.9965,0.00702,0.0177,-0.00092,-0.01617,-0.0148,-0.04486,-0.01266,-0.00198,-0.01801,0.01053,0.03296,0.10986,-0.03464,-0.01144,0.00626,-0.04547
13.997,0.00626,0.00198,0.05859,-0.01602,-0.01297,-0.04257,-0.01297,-0.0032,-0.01846,0.01343,0.04547,0.09674,-0.03525,-0.01068,0.00549,-0.04288
13.9975,0.00977,-0.00732,0.0914,-0.01328,-0.01129,-0.04059,-0.01221,-0.00549,-0.01831,0.01587,0.06439,0.04868,-0.03693,-0.01022,0.0029,-0.04135
13.998,0.01785,-0.01144,0.06683,-0.01297,-0.01053,-0.03952,-0.01205,-0.00626,-0.01892,0.01526,0.09216,0.00549,-0.03784,-0.00992,0.00214,-0.04227
13.9985,0.02747,-0.01999,-0.00549,-0.01526,-0.01236,-0.04013,-0.01251,-0.00519,-0.01999,0.0061,0.1297,-0.00504,-0.03799,-0.00946,0.00153,-0.0441
13.999,0.03143,-0.04257,-0.09399,-0.01633,-0.0148,-0.04135,-0.01266,-0.00351,-0.02335,-0.00854,0.1709,0.01144,-0.03784,-0.01099,0.00153,-0.04486
13.9995,0.02991,-0.07324,-0.17303,-0.01404,-0.01724,-0.04166,-0.01221,-0.0029,-0.02716,-0.02457,0.20752,0.02975,-0.03723,-0.0119,0.00168,-0.04456
14.0,0.02441,-0.08881,-0.22644,-0.00885,-0.01999,-0.0412,-0.01266,-0.00336,-0.02945,-0.03418,0.23163,0.03296,-0.03662,-0.0119,0.00305,-0.04517
14.0005,0.01862,-0.07538,-0.23727,-0.00412,-0.02457,-0.04135,-0.01358,-0.00305,-0.02838,-0.03708,0.23819,0.02365,-0.03662,-0.0116,0.00595,-0.0441
14.001,0.01343,-0.04822,-0.2095,-0.00015,-0.0325,-0.04318,-0.01465,-0.00168,-0.02792,-0.03967,0.22324,0.01587,-0.03754,-0.01312,0.00839,-0.04135
14.0015,0.00748,-0.03464,-0.17426,0.00397,-0.03784,-0.04562,-0.01511,0.00198,-0.02991,-0.04639,0.18372,0.01541,-0.03799,-0.01709,0.00931,-0.03845
14.002,0.00153,-0.04593,-0.15884,0.00824,-0.04379,-0.04898,-0.01389,0.00214,-0.03418,-0.05463,0.12222,0.01785,-0.03784,-0.01968,0.01053,-0.0386
14.0025,-0.00397,-0.07309,-0.15121,0.00977,-0.05478,-0.05112,-0.01358,-0.00015,-0.03677,-0.056,0.04471,0.01892,-0.03769,-0.01923,0.01175,-0.03983
14.003,-0.009,-0.09766,-0.1239,0.00534,-0.06592,-0.05341,-0.01404,-0.00244,-0.03876,-0.05035,-0.03647,0.01968,-0.0383,-0.01724,0.01129,-0.04074
14.0035,-0.01633,-0.1062,-0.06531,-0.00595,-0.06973,-0.05569,-0.01404,-0.00275,-0.03983,-0.04349,-0.10834,0.01984,-0.03922,-0.01526,0.01068,-0.04013
14.004,-0.02457,-0.10117,0.00214,-0.02258,-0.06195,-0.05585,-0.01343,-0.00259,-0.03815,-0.0412,-0.16296,0.01968,-0.03906,-0.01495,0.01083,-0.04028
14.0045,-0.02914,-0.09735,0.04257,-0.03967,-0.05035,-0.05569,-0.0119,-0.00153,-0.03311,-0.04288,-0.19394,0.0177,-0.03845,-0.01404,0.01083,-0.04166
14.005,-0.0293,-0.10162,0.03784,-0.05341,-0.0444,-0.05722,-0.01266,-0.00198,-0.02655,-0.04028,-0.20126,0.0148,-0.0383,-0.01282,0.01053,-0.04181
14.0055,-0.02411,-0.11154,0.00626,-0.05707,-0.04456,-0.05966,-0.01419,-0.00107,-0.02136,-0.0293,-0.18997,0.01251,-0.0383,-0.01236,0.00931,-0.04028
14.006,-0.01694,-0.11948,-0.01099,-0.04974,-0.04364,-0.06149,-0.01465,-0.00229,-0.02014,-0.01297,-0.17029,0.01129,-0.03876,-0.01389,0.00854,-0.03815
14.0065,-0.009,-0.12024,0.00839,-0.04105,-0.04074,-0.06088,-0.01343,-0.00244,-0.02182,0.00366,-0.15045,0.01022,-0.03922,-0.0177,0.00885,-0.03754
14.007,-0.00259,-0.10986,0.03738,-0.03784,-0.03799,-0.05905,-0.01404,-0.00214,-0.02487,0.0206,-0.13458,0.00885,-0.0386,-0.02213,0.00854,-0.03845
14.0075,0.00122,-0.09521,0.04044,-0.03876,-0.03616,-0.05692,-0.01587,-0.00229,-0.02853,0.03433,-0.12009,0.00778,-0.03754,-0.02502,0.00763,-0.03876
14.008,0.00351,-0.09613,0.03174,-0.03799,-0.03281,-0.05417,-0.01678,-0.00259,-0.03021,0.04349,-0.10895,0.00809,-0.03662,-0.02945,0.00473,-0.0383
14.0085,0.00351,-0.13153,0.05386,-0.03281,-0.0325,-0.05142,-0.01633,-0.00275,-0.02869,0.04272,-0.11139,0.00824,-0.03571,-0.04196,0.0029,-0.03647
14.009,0.00168,-0.19516,0.11261,-0.02548,-0.03281,-0.0499,-0.01556,-0.0029,-0.0264,0.03586,-0.13947,0.0087,-0.03418,-0.06348,0.00214,-0.03464
14.0095,0.00015,-0.24277,0.16617,-0.01785,-0.03403,-0.05203,-0.01465,-0.00381,-0.0238,0.02335,-0.18845,0.0087,-0.03265,-0.0827,0.00351,-0.03433
14.01,0.00092,-0.23499,0.17822,-0.01297,-0.03235,-0.05508,-0.01465,-0.00443,-0.02075,0.00763,-0.23178,0.00778,-0.03113,-0.08606,0.00397,-0.03738
14.0105,0.00534,-0.17242,0.15137,-0.01221,-0.02869,-0.05798,-0.01434,-0.00412,-0.01434,-0.0087,-0.23315,0.00763,-0.02991,-0.07263,0.0032,-0.04257
14.011,0.00854,-0.09109,0.12283,-0.01328,-0.0264,-0.05814,-0.01373,-0.00366,-0.00824,-0.02258,-0.18417,0.00793,-0.02899,-0.0531,0.0029,-0.04639
14.0115,0.00809,-0.01694,0.13855,-0.01266,-0.02563,-0.05692,-0.01419,-0.00214,-0.00366,-0.03372,-0.11108,0.00824,-0.02716,-0.03967,0.00427,-0.04715
14.012,0.00763,0.04059,0.20111,-0.0119,-0.02594,-0.05371,-0.01556,-0.00137,0.00076,-0.04242,-0.05234,0.00824,-0.0264,-0.03113,0.00656,-0.04486
14.0125,0.01129,0.0708,0.26169,-0.01266,-0.02487,-0.04898,-0.01556,-0.00259,0.00412,-0.04684,-0.02457,0.00778,-0.02579,-0.02411,0.00778,-0.0415
14.013,0.01633,0.0589,0.26978,-0.01373,-0.02411,-0.04608,-0.01495,-0.00473,0.0058,-0.04486,-0.02167,0.00763,-0.02655,-0.0174,0.00839,-0.0415
14.0135,0.01648,0.00732,0.22476,-0.01175,-0.02289,-0.0441,-0.01404,-0.00549,0.00488,-0.03922,-0.03464,0.00717,-0.0267,-0.01465,0.0087,-0.04593
14.014,0.01114,-0.03784,0.15686,-0.00748,-0.02365,-0.04333,-0.01297,-0.00458,0.00397,-0.03403,-0.05417,0.00626,-0.02686,-0.01526,0.01099,-0.05234
14.0145,0.00397,-0.03296,0.07553,-0.00458,-0.02274,-0.04349,-0.01358,-0.00397,0.00275,-0.03128,-0.0708,0.0058,-0.02686,-0.01724,0.01038,-0.05707
14.015,-0.00015,0.01572,-0.03616,-0.00504,-0.02289,-0.0412,-0.0148,-0.00351,-0.00046,-0.03067,-0.07782,0.00504,-0.02625,-0.01816,0.0087,-0.05615
14.0155,-0.00259,0.06226,-0.16464,-0.00671,-0.02411,-0.0386,-0.01572,-0.00336,-0.00702,-0.03387,-0.0766,0.00595,-0.02518,-0.01724,0.00778,-0.05081
14.016,-0.00244,0.07385,-0.26199,-0.009,-0.02609,-0.03677,-0.01587,-0.0029,-0.01419,-0.04105,-0.07065,0.00641,-0.02686,-0.01511,0.00778,-0.04501
14.0165,-0.00351,0.0531,-0.28946,-0.01129,-0.02792,-0.0351,-0.01648,-0.00305,-0.01602,-0.0473,-0.05981,0.00656,-0.02991,-0.01251,0.00824,-0.04242
14.017,-0.00626,0.01328,-0.26093,-0.01312,-0.02762,-0.03281,-0.01633,-0.00412,-0.01205,-0.0441,-0.04349,0.00519,-0.03235,-0.01312,0.0061,-0.04242
14.0175,-0.01099,-0.02426,-0.21561,-0.01434,-0.02731,-0.0296,-0.01587,-0.00534,-0.00931,-0.02777,-0.02319,0.00244,-0.03281,-0.01328,0.0029,-0.0441
14.018,-0.01434,-0.03662,-0.18051,-0.01587,-0.02731,-0.02548,-0.01495,-0.0058,-0.00992,-0.00305,-0.00595,0.00107,-0.0322,-0.01389,0.00168,-0.04501
14.0185,-0.01587,-0.01923,-0.16266,-0.01541,-0.0264,-0.02319,-0.0145,-0.0058,-0.01175,0.02182,0.00824,0.00229,-0.03189,-0.01389,0.00305,-0.0444
14.019,-0.01465,0.01205,-0.14099,-0.01328,-0.0267,-0.02533,-0.01404,-0.00534,-0.01266,0.04288,0.0235,0.00305,-0.03372,-0.01205,0.00595,-0.04257
14.0195,-0.01373,0.03448,-0.08514,-0.01053,-0.02731,-0.03143,-0.01358,-0.00458,-0.01114,0.05829,0.0415,0.00229,-0.03448,-0.00977,0.00916,-0.04059
14.02,-0.01343,0.04105,-0.00198,-0.00885,-0.02838,-0.03983,-0.01343,-0.00412,-0.00946,0.06592,0.06104,-0.00015,-0.0351,-0.00824,0.01053,-0.03906
14.0205,-0.01495,0.04089,0.05844,-0.00916,-0.03006,-0.04517,-0.01434,-0.00381,-0.00977,0.05798,0.07965,0.00046,-0.03662,-0.00717,0.01007,-0.03815
14.021,-0.01892,0.04608,0.05905,-0.00992,-0.0322,-0.04654,-0.01511,-0.0032,-0.01144,0.03174,0.09842,0.00092,-0.03891,-0.00488,0.0087,-0.0383
14.0215,-0.02426,0.05798,0.02213,-0.00916,-0.03372,-0.04745,-0.01541,-0.00366,-0.0119,-0.00504,0.11871,0.00076,-0.04013,-0.0032,0.00931,-0.03876
14.022,-0.02884,0.06607,-0.01129,-0.00748,-0.0351,-0.05112,-0.01556,-0.00427,-0.00946,-0.03586,0.14038,0.00076,-0.03922,-0.00275,0.01068,-0.03891
14.0225,-0.03189,0.06744,-0.03494,-0.00473,-0.03723,-0.05615,-0.01663,-0.0058,-0.00702,-0.05188,0.159,0.00015,-0.03876,-0.00351,0.01129,-0.03784
14.023,-0.0325,0.06531,-0.08148,-0.00275,-0.0383,-0.05783,-0.01663,-0.00641,-0.00687,-0.0618,0.17227,0.00046,-0.03876,-0.00412,0.01114,-0.03723
14.0235,-0.03143,0.06042,-0.16495,-0.00031,-0.03876,-0.05569,-0.01694,-0.00488,-0.009,-0.07385,0.17807,0.00015,-0.04028,-0.00519,0.01083,-0.03677
14.024,-0.02609,0.05035,-0.23682,0.00351,-0.03632,-0.05188,-0.01755,-0.00351,-0.01297,-0.09476,0.18005,0.0,-0.04074,-0.00778,0.01068,-0.03754
14.0245,-0.01999,0.03448,-0.23727,0.01038,-0.03448,-0.05066,-0.0177,-0.00305,-0.01831,-0.11398,0.18143,0.00015,-0.03891,-0.01144,0.01099,-0.03784
14.025,-0.01587,0.02029,-0.17059,0.01892,-0.03357,-0.05005,-0.01755,-0.00336,-0.02502,-0.12192,0.18311,0.00122,-0.03769,-0.01312,0.01221,-0.03754
14.0255,-0.01465,0.0087,-0.10071,0.02502,-0.03189,-0.05157,-0.01755,-0.00412,-0.03098,-0.11703,0.18433,0.00198,-0.03769,-0.01373,0.01328,-0.03693
14.026,-0.01251,-0.0058,-0.0737,0.02914,-0.03189,-0.05142,-0.01724,-0.00366,-0.03204,-0.10956,0.18143,0.00153,-0.03769,-0.01511,0.01297,-0.03845
14.0265,-0.00809,-0.02625,-0.08087,0.03418,-0.03342,-0.05035,-0.01724,-0.00381,-0.03052,-0.10269,0.17075,0.00046,-0.03647,-0.01709,0.01129,-0.03983
14.027,-0.00275,-0.04929,-0.10452,0.03983,-0.03326,-0.04639,-0.01663,-0.00366,-0.03357,-0.08957,0.15182,-0.00107,-0.0351,-0.0177,0.01022,-0.0412
14.0275,-0.00046,-0.06943,-0.13885,0.04028,-0.03143,-0.04211,-0.01633,-0.00412,-0.04074,-0.06332,0.13275,-0.00153,-0.03387,-0.01678,0.01022,-0.04272
14.028,-0.00107,-0.08255,-0.15686,0.03235,-0.03021,-0.03784,-0.01617,-0.00458,-0.04791,-0.02853,0.11398,-0.00198,-0.03204,-0.01572,0.01083,-0.04288
14.0285,0.00031,-0.0914,-0.1178,0.01846,-0.0293,-0.03555,-0.01511,-0.00397,-0.05188,0.00427,0.0824,-0.00168,-0.03128,-0.01587,0.01038,-0.04379
14.029,0.00473,-0.0975,-0.02228,0.00443,-0.03113,-0.03784,-0.01434,-0.00351,-0.05127,0.02792,0.0177,-0.00061,-0.0293,-0.01678,0.01022,-0.04364
14.0295,0.00702,-0.1033,0.06546,-0.00549,-0.03281,-0.03937,-0.01343,-0.0029,-0.04822,0.04593,-0.08682,0.00092,-0.02579,-0.01877,0.01007,-0.04303
14.03,0.00275,-0.10681,0.09125,-0.01358,-0.03311,-0.04059,-0.01236,-0.00183,-0.04333,0.05966,-0.22034,0.00198,-0.02274,-0.01984,0.00961,-0.04135
14.0305,-0.00412,-0.10727,0.06439,-0.02457,-0.03326,-0.04211,-0.01083,-0.00183,-0.03891,0.06424,-0.35263,0.00122,-0.02243,-0.02136,0.00961,-0.04028
14.031,-0.00931,-0.10437,0.02594,-0.03799,-0.03357,-0.04456,-0.00946,-0.00153,-0.03601,0.06195,-0.44983,-0.00046,-0.02304,-0.02228,0.00977,-0.03952
14.0315,-0.01266,-0.09796,-0.00702,-0.04349,-0.03387,-0.04837,-0.01007,-0.00305,-0.0351,0.05249,-0.49271,-0.00198,-0.0235,-0.02289,0.00885,-0.03983
14.032,-0.01709,-0.08606,-0.04486,-0.03967,-0.03403,-0.05066,-0.0116,-0.00458,-0.03448,0.03738,-0.48218,-0.0029,-0.02182,-0.02335,0.00824,-0.04059
14.0325,-0.02258,-0.07034,-0.08942,-0.03357,-0.03326,-0.05112,-0.01312,-0.00565,-0.03098,0.01877,-0.43533,-0.00259,-0.01968,-0.02426,0.00885,-0.04196
14.033,-0.02777,-0.05753,-0.12375,-0.0322,-0.03189,-0.04898,-0.01419,-0.0058,-0.02625,0.00412,-0.36179,-0.00153,-0.01862,-0.02518,0.00946,-0.0441
14.0335,-0.03204,-0.05386,-0.1384,-0.0351,-0.03189,-0.04807,-0.01419,-0.00519,-0.02182,-0.00107,-0.26505,-0.00122,-0.01968,-0.0238,0.0087,-0.047
14.034,-0.03494,-0.05875,-0.14099,-0.03418,-0.03204,-0.04837,-0.01389,-0.00458,-0.01846,-0.00275,-0.15747,-0.00092,-0.02167,-0.0209,0.00885,-0.04837
14.0345,-0.0383,-0.06592,-0.13901,-0.02625,-0.03189,-0.04913,-0.01434,-0.00397,-0.0148,-0.00641,-0.05951,-0.00092,-0.02365,-0.01907,0.0087,-0.04791
14.035,-0.03891,-0.07462,-0.12573,-0.0206,-0.03143,-0.04883,-0.01495,-0.00351,-0.00946,-0.00946,0.01236,-0.00076,-0.0235,-0.02014,0.00778,-0.04669
14.0355,-0.03784,-0.08316,-0.09888,-0.02426,-0.03189,-0.04608,-0.01541,-0.00168,-0.00397,-0.01038,0.05142,-0.00015,-0.02167,-0.0235,0.00565,-0.04654
14.036,-0.04044,-0.09048,-0.06439,-0.03342,-0.03326,-0.04395,-0.01419,-0.00046,0.00229,-0.00931,0.05875,0.00061,-0.0209,-0.02731,0.00336,-0.04654
14.0365,-0.05371,-0.09567,-0.03342,-0.03891,-0.03418,-0.04364,-0.01266,-0.00061,0.00824,-0.00778,0.04135,0.00122,-0.02197,-0.03082,0.00168,-0.04547
14.037,-0.07202,-0.0972,-0.00824,-0.04013,-0.03403,-0.04532,-0.01251,-0.00259,0.01389,-0.00809,0.01099,0.00153,-0.0235,-0.03052,0.00244,-0.04257
14.0375,-0.08499,-0.09445,0.01495,-0.04288,-0.03387,-0.04852,-0.01328,-0.00412,0.01724,-0.00793,-0.02014,0.00137,-0.02457,-0.02548,0.00488,-0.04059
14.038,-0.08667,-0.08545,0.03448,-0.05051,-0.03265,-0.05066,-0.01434,-0.00488,0.01831,-0.00519,-0.04272,0.00122,-0.02548,-0.01801,0.00702,-0.04074
14.0385,-0.08118,-0.07278,0.04852,-0.0589,-0.03204,-0.05096,-0.01465,-0.00549,0.01617,-0.00122,-0.05295,0.00122,-0.02747,-0.01083,0.00916,-0.04059
14.039,-0.07858,-0.06149,0.05692,-0.05859,-0.02991,-0.04929,-0.0145,-0.0061,0.01373,0.00381,-0.0499,0.00046,-0.0296,-0.00626,0.0087,-0.04059
14.0395,-0.08331,-0.05417,0.06119,-0.04868,-0.02975,-0.04745,-0.01373,-0.00565,0.01266,0.00595,-0.03693,-0.00092,-0.03113,-0.00259,0.00839,-0.04196
14.04,-0.09415,-0.04868,0.06195,-0.03403,-0.02853,-0.04578,-0.01358,-0.00427,0.0116,0.00778,-0.01801,-0.00153,-0.03174,0.00061,0.00854,-0.04364
14.0405,-0.11032,-0.04395,0.05844,-0.02243,-0.02686,-0.04379,-0.01389,-0.00305,0.00916,0.00702,0.0061,-0.00275,-0.03265,0.00214,0.00809,-0.04349
14.041,-0.12741,-0.03693,0.04944,-0.0145,-0.02655,-0.04364,-0.01389,-0.00229,0.00381,0.00504,0.03159,-0.00214,-0.03387,0.00122,0.00854,-0.04059
14.0415,-0.13916,-0.03006,0.03571,-0.00778,-0.02716,-0.04501,-0.01373,-0.00198,0.00046,0.00198,0.04959,-0.00031,-0.03571,-0.00214,0.00946,-0.03677
14.042,-0.14069,-0.02716,0.02274,0.00122,-0.02869,-0.04791,-0.01404,-0.00198,-0.00031,-0.00046,0.05554,0.00076,-0.03784,-0.00687,0.00992,-0.03677
14.0425,-0.1355,-0.02731,0.01175,0.01343,-0.0293,-0.04944,-0.01404,-0.00305,-0.00122,-0.00107,0.05096,0.00046,-0.03937,-0.00977,0.00961,-0.03891
14.043,-0.13107,-0.02731,0.00351,0.02518,-0.02945,-0.04868,-0.01266,-0.0032,-0.00366,-0.00107,0.0415,-0.00061,-0.04059,-0.01083,0.00885,-0.04074
14.0435,-0.13046,-0.02823,-0.00443,0.02884,-0.02991,-0.04684,-0.01343,-0.00259,-0.00671,-0.0032,0.03281,-0.00092,-0.04044,-0.01022,0.00931,-0.03998
14.044,-0.12985,-0.03738,-0.02213,0.02029,-0.03189,-0.0441,-0.01419,-0.00275,-0.00977,-0.00854,0.02762,-0.00229,-0.04074,-0.01083,0.01007,-0.03815
14.0445,-0.12711,-0.06012,-0.05615,0.00732,-0.03387,-0.04089,-0.0148,-0.00366,-0.01114,-0.01358,0.02975,-0.00427,-0.04318,-0.01755,0.00931,-0.03784
14.045,-0.12421,-0.09247,-0.09109,0.00031,-0.03448,-0.03769,-0.01328,-0.00504,-0.01053,-0.01648,0.03799,-0.00549,-0.04532,-0.03326,0.00763,-0.0386
14.0455,-0.12497,-0.12543,-0.0972,0.00443,-0.03494,-0.03738,-0.01205,-0.00488,-0.00854,-0.01709,0.04745,-0.00504,-0.04608,-0.05096,0.00885,-0.03998
14.046,-0.12726,-0.15442,-0.06012,0.01266,-0.03494,-0.03876,-0.0116,-0.00366,-0.00916,-0.01633,0.05615,-0.00366,-0.04501,-0.06287,0.01221,-0.04105
14.0465,-0.13,-0.16953,-0.00229,0.01572,-0.03555,-0.04318,-0.01266,-0.00259,-0.00931,-0.01816,0.06195,-0.00366,-0.04379,-0.0676,0.01373,-0.04135
14.047,-0.13,-0.1564,0.047,0.01511,-0.03632,-0.04929,-0.01358,-0.00275,-0.00946,-0.0267,0.06592,-0.0029,-0.04318,-0.06241,0.0119,-0.04044
14.0475,-0.12711,-0.11566,0.08041,0.01587,-0.03815,-0.05447,-0.01312,-0.00305,-0.009,-0.04456,0.06851,0.00397,-0.04379,-0.04318,0.00839,-0.03967
14.048,-0.12772,-0.06638,0.11276,0.01755,-0.03998,-0.0592,-0.01221,-0.00351,-0.00885,-0.06546,0.07095,0.01678,-0.0441,-0.01724,0.00763,-0.03952
14.0485,-0.13367,-0.03555,0.14389,0.01938,-0.04211,-0.06104,-0.01266,-0.00381,-0.01022,-0.07584,0.07309,0.02731,-0.04364,-0.00168,0.00931,-0.04013
14.049,-0.14465,-0.02853,0.15121,0.01785,-0.04196,-0.06149,-0.01389,-0.00336,-0.01114,-0.06866,0.07385,0.02365,-0.04349,-0.00198,0.01205,-0.04105
14.0495,-0.15701,-0.02396,0.11887,0.01328,-0.03952,-0.06134,-0.0145,-0.00214,-0.01068,-0.05234,0.07523,0.00641,-0.04242,-0.01038,0.01297,-0.0415
14.05,-0.16647,-0.00534,0.05569,0.00793,-0.03632,-0.06042,-0.01434,-0.00214,-0.01114,-0.03876,0.08011,-0.01144,-0.0415,-0.0177,0.0116,-0.04181
14.0505,-0.16922,0.01831,-0.01236,0.00565,-0.03265,-0.0592,-0.01343,-0.00259,-0.0119,-0.03189,0.0856,-0.02258,-0.04074,-0.01648,0.01053,-0.04211
14.051,-0.15945,0.02975,-0.06607,0.00397,-0.03021,-0.05829,-0.01266,-0.00275,-0.01282,-0.02701,0.08789,-0.0264,-0.04074,-0.00748,0.01251,-0.04166
14.0515,-0.13626,0.02548,-0.09491,0.00198,-0.02762,-0.05798,-0.01328,-0.00336,-0.0145,-0.02258,0.0882,-0.02701,-0.03983,0.00214,0.01373,-0.04013
14.052,-0.10544,0.01602,-0.09903,0.00015,-0.02579,-0.06027,-0.01266,-0.00351,-0.01816,-0.01984,0.08896,-0.02365,-0.03799,0.00381,0.01251,-0.03937
14.0525,-0.07706,0.00916,-0.09262,-0.00046,-0.02335,-0.0618,-0.01266,-0.00275,-0.0235,-0.01572,0.09232,-0.01999,-0.03586,-0.00137,0.01129,-0.03876
14.053,-0.05356,0.00351,-0.09338,-0.00183,-0.02167,-0.05981,-0.01236,-0.00229,-0.02975,-0.00992,0.09735,-0.02243,-0.03342,-0.00641,0.0116,-0.03937
14.0535,-0.03006,-0.00351,-0.11002,-0.00305,-0.01984,-0.056,-0.01221,-0.00214,-0.0351,-0.00839,0.10056,-0.03189,-0.03189,-0.00839,0.0119,-0.04044
14.054,-0.00443,-0.01068,-0.12314,-0.00381,-0.01984,-0.05295,-0.01251,-0.0029,-0.0412,-0.01785,0.09689,-0.03876,-0.03143,-0.00946,0.0116,-0.04135
14.0545,0.01892,-0.01648,-0.11765,-0.00366,-0.01984,-0.05142,-0.01282,-0.0032,-0.04791,-0.0293,0.08179,-0.0354,-0.03128,-0.01114,0.01022,-0.04196
14.055,0.03845,-0.02075,-0.10406,-0.00092,-0.01862,-0.05066,-0.01358,-0.00351,-0.05478,-0.03235,0.05981,-0.0238,-0.03036,-0.01282,0.00992,-0.04166
14.0555,0.05386,-0.02457,-0.10437,0.00259,-0.01877,-0.04944,-0.0145,-0.00549,-0.06042,-0.02853,0.03754,-0.0119,-0.02991,-0.01434,0.01053,-0.04135
14.056,0.06973,-0.02914,-0.11734,0.01007,-0.01709,-0.04822,-0.01526,-0.00671,-0.06088,-0.02441,0.01785,-0.00549,-0.03067,-0.01511,0.01083,-0.04196
14.0565,0.08636,-0.03494,-0.1268,0.02167,-0.01526,-0.04639,-0.01572,-0.00626,-0.05615,-0.01938,-0.00351,-0.00504,-0.03128,-0.01709,0.00931,-0.04303
14.057,0.10391,-0.04044,-0.12222,0.03708,-0.0145,-0.04639,-0.01587,-0.00381,-0.04852,-0.00885,-0.02884,-0.009,-0.03021,-0.01923,0.00717,-0.04318
14.0575,0.12024,-0.04471,-0.10986,0.05325,-0.01495,-0.04745,-0.01633,-0.00259,-0.04364,0.00702,-0.05859,-0.01328,-0.02808,-0.02182,0.00687,-0.04379
14.058,0.13519,-0.04669,-0.09735,0.06195,-0.01602,-0.04807,-0.01694,-0.00229,-0.04456,0.02228,-0.0882,-0.0148,-0.02518,-0.02365,0.00809,-0.04364
14.0585,0.14496,-0.04639,-0.0853,0.05966,-0.01694,-0.04974,-0.01755,-0.00183,-0.04791,0.03067,-0.11368,-0.0148,-0.02502,-0.02487,0.01053,-0.04379
14.059,0.15015,-0.04578,-0.07416,0.05188,-0.01968,-0.05142,-0.0177,-0.00107,-0.05035,0.0296,-0.13458,-0.0148,-0.02594,-0.02716,0.01068,-0.04318
14.0595,0.15152,-0.04288,-0.06378,0.05219,-0.02396,-0.05249,-0.01617,-0.00168,-0.04791,0.01785,-0.14801,-0.01266,-0.02396,-0.03036,0.01129,-0.0415
14.06,0.15182,-0.03998,-0.05569,0.0621,-0.02991,-0.05203,-0.01404,-0.00183,-0.04059,-0.0032,-0.14862,-0.00443,-0.02182,-0.03159,0.01099,-0.0415
14.0605,0.15274,-0.03983,-0.05173,0.05447,-0.03525,-0.05081,-0.01221,-0.00183,-0.03113,-0.02625,-0.13809,0.00809,-0.02243,-0.02975,0.01129,-0.04166
14.061,0.15564,-0.04272,-0.05051,0.00839,-0.03845,-0.04898,-0.01114,-0.00107,-0.02213,-0.04166,-0.11993,0.02213,-0.02411,-0.0267,0.01053,-0.04211
14.0615,0.15884,-0.04562,-0.05005,-0.06226,-0.03952,-0.04761,-0.01114,-0.00046,-0.01511,-0.0473,-0.10315,0.02823,-0.02411,-0.02625,0.00885,-0.04257
14.062,0.16296,-0.04593,-0.04913,-0.11871,-0.03845,-0.04791,-0.01312,-0.00122,-0.0116,-0.04715,-0.08957,0.02319,-0.02274,-0.02762,0.00717,-0.04272
14.0625,0.16678,-0.04517,-0.04791,-0.14603,-0.03799,-0.04959,-0.01511,-0.00183,-0.00977,-0.04318,-0.07538,0.01175,-0.02396,-0.0293,0.00748,-0.04257
14.063,0.17014,-0.04562,-0.04608,-0.16693,-0.03906,-0.05127,-0.0145,-0.00137,-0.00763,-0.0386,-0.06042,0.00366,-0.02518,-0.02808,0.00854,-0.04242
14.0635,0.17075,-0.047,-0.04196,-0.19684,-0.04257,-0.05112,-0.01312,-0.00076,-0.0032,-0.03494,-0.04578,0.00092,-0.0264,-0.02411,0.00992,-0.04211
14.064,0.17181,-0.04776,-0.03403,-0.21347,-0.04623,-0.04959,-0.01129,-0.00122,0.00046,-0.03448,-0.0354,0.00092,-0.02808,-0.02167,0.01038,-0.04196
14.0645,0.17288,-0.04639,-0.02548,-0.19196,-0.04913,-0.04715,-0.01114,-0.0032,0.00397,-0.03555,-0.02991,0.00031,-0.03006,-0.02167,0.00931,-0.04135
14.065,0.17227,-0.0444,-0.01434,-0.15106,-0.0502,-0.04379,-0.01221,-0.00366,0.00656,-0.03632,-0.03021,0.00015,-0.03052,-0.02197,0.00946,-0.0415
14.0655,0.17029,-0.04211,0.0058,-0.13412,-0.05005,-0.03891,-0.01343,-0.00427,0.00931,-0.03723,-0.03403,0.00031,-0.02991,-0.02014,0.01038,-0.04196
14.066,0.16678,-0.03952,0.03784,-0.14374,-0.04745,-0.0351,-0.01343,-0.00504,0.01251,-0.03647,-0.03616,0.00092,-0.0293,-0.0174,0.01099,-0.04242
14.0665,0.16342,-0.0383,0.07263,-0.13916,-0.04379,-0.03235,-0.01297,-0.00656,0.01419,-0.0351,-0.03571,0.00137,-0.03052,-0.0148,0.009,-0.04211
14.067,0.15961,-0.04028,0.09094,-0.10529,-0.03754,-0.03128,-0.01282,-0.00763,0.01343,-0.03372,-0.03281,0.00061,-0.03204,-0.01282,0.00671,-0.04181
14.0675,0.15396,-0.04425,0.07965,-0.07187,-0.0322,-0.03311,-0.01205,-0.00717,0.01221,-0.03113,-0.02411,0.00092,-0.03174,-0.00885,0.00702,-0.04242
14.068,0.14725,-0.04791,0.0502,-0.04974,-0.0264,-0.03769,-0.01175,-0.00412,0.01038,-0.02823,-0.00549,0.00122,-0.03098,-0.00519,0.00885,-0.04257
14.0685,0.14114,-0.04761,0.0264,-0.01373,-0.02121,-0.04227,-0.0119,-0.00244,0.00809,-0.02594,0.01801,0.00183,-0.03128,-0.00519,0.00809,-0.04257
14.069,0.13565,-0.04517,0.01236,0.05447,-0.01831,-0.04562,-0.01266,-0.00336,0.00504,-0.0235,0.03799,0.00107,-0.03235,-0.0087,0.00641,-0.04227
14.0695,0.12955,-0.04318,-0.02045,0.13535,-0.02029,-0.04684,-0.01099,-0.00473,0.0029,-0.02243,0.05173,0.00092,-0.03281,-0.01328,0.00488,-0.04135
14.07,0.12238,-0.04028,-0.0975,0.18356,-0.02563,-0.04623,-0.00961,-0.00366,0.00351,-0.0209,0.06256,0.00015,-0.03296,-0.0145,0.00458,-0.04074
14.0705,0.11642,-0.03983,-0.19028,0.17227,-0.0296,-0.04562,-0.00885,-0.00198,0.00458,-0.01877,0.07172,0.0,-0.03372,-0.01343,0.00565,-0.04028
14.071,0.11215,-0.04593,-0.22903,0.11795,-0.03052,-0.04547,-0.01022,-0.00076,0.00214,-0.01801,0.07492,0.0,-0.03494,-0.01175,0.00671,-0.04059
14.0715,0.10651,-0.05554,-0.1796,0.06546,-0.02975,-0.0444,-0.01083,-0.00183,-0.0032,-0.01801,0.06882,0.00046,-0.03632,-0.01022,0.00656,-0.04013
14.072,0.09933,-0.05615,-0.08774,0.04456,-0.0293,-0.04456,-0.01099,-0.00397,-0.00854,-0.02182,0.05081,0.00122,-0.03708,-0.00977,0.00656,-0.04105
14.0725,0.09232,-0.0444,-0.0177,0.05035,-0.03281,-0.04654,-0.01175,-0.00549,-0.01068,-0.02899,0.0238,0.00076,-0.03845,-0.00961,0.00687,-0.04257
14.073,0.08591,-0.03906,0.01358,0.05798,-0.03876,-0.04913,-0.01236,-0.00626,-0.01144,-0.03662,-0.00259,0.00107,-0.03891,-0.00946,0.00702,-0.04379
14.0735,0.07889,-0.06546,0.03098,0.05753,-0.04456,-0.05035,-0.01328,-0.00473,-0.01099,-0.04013,-0.01511,0.00061,-0.03906,-0.00916,0.0058,-0.04395
14.074,0.0708,-0.12009,0.05783,0.05905,-0.04913,-0.05081,-0.01343,-0.00259,-0.01205,-0.03403,-0.00626,0.00153,-0.0386,-0.00885,0.00443,-0.04257
14.0745,0.06531,-0.17426,0.09048,0.06638,-0.04807,-0.04898,-0.01205,-0.00122,-0.01312,-0.02029,0.01511,0.00198,-0.03769,-0.00702,0.0032,-0.04181
14.075,0.06454,-0.20233,0.11169,0.06927,-0.04547,-0.04807,-0.01053,-0.00214,-0.01434,-0.00473,0.03281,0.00015,-0.03891,-0.00015,0.00275,-0.04211
14.0755,0.06622,-0.19394,0.10727,0.06241,-0.03967,-0.04929,-0.00961,-0.0029,-0.01648,0.00458,0.03586,-0.00153,-0.03922,0.01022,0.00519,-0.04211
14.076,0.06653,-0.15121,0.07538,0.05005,-0.03311,-0.05173,-0.01053,-0.0032,-0.02014,0.00488,0.02136,-0.00015,-0.0386,0.01038,0.00778,-0.04074
14.0765,0.06317,-0.09323,0.02411,0.03571,-0.02914,-0.05203,-0.0116,-0.00259,-0.02518,0.00229,0.0,0.0032,-0.03754,-0.00809,0.0087,-0.03952
14.077,0.05753,-0.03937,-0.03387,0.02213,-0.02792,-0.04852,-0.01221,-0.00198,-0.02899,0.00397,-0.01907,0.00641,-0.03723,-0.0354,0.00687,-0.03937
14.0775,0.05325,-0.00122,-0.08545,0.01343,-0.02731,-0.04456,-0.01312,-0.00214,-0.03143,0.00687,-0.03128,0.00626,-0.03647,-0.05173,0.00763,-0.03922
14.078,0.05081,0.0206,-0.1207,0.01038,-0.0293,-0.04318,-0.01297,-0.0032,-0.03357,0.01022,-0.03967,0.00366,-0.0354,-0.05096,0.00946,-0.03799
14.0785,0.05142,0.0322,-0.13382,0.00931,-0.03067,-0.04501,-0.01175,-0.00412,-0.03601,0.01419,-0.05096,0.00015,-0.03433,-0.04272,0.0119,-0.03662
14.079,0.05341,0.04028,-0.12756,0.00595,-0.03235,-0.04837,-0.01007,-0.00565,-0.03906,0.02121,-0.06439,-0.00229,-0.03281,-0.03723,0.00992,-0.03601
14.0795,0.05539,0.04776,-0.1123,0.00092,-0.03326,-0.05066,-0.01038,-0.00671,-0.03983,0.02609,-0.07401,-0.00214,-0.03265,-0.03372,0.00931,-0.03632
14.08,0.05554,0.05264,-0.09567,-0.0032,-0.03281,-0.05234,-0.01068,-0.00732,-0.03754,0.02396,-0.07889,-0.00046,-0.0322,-0.03143,0.01007,-0.03586
14.0805,0.0528,0.05157,-0.08499,-0.00549,-0.0351,-0.05402,-0.0116,-0.00626,-0.03433,0.01297,-0.0827,0.00031,-0.03296,-0.0322,0.01099,-0.03616
14.081,0.04684,0.04684,-0.08011,-0.0061,-0.03632,-0.05615,-0.01205,-0.00305,-0.0325,-0.00122,-0.08865,0.00015,-0.03342,-0.03677,0.01007,-0.03784
14.0815,0.04074,0.0412,-0.07782,-0.00626,-0.03693,-0.05829,-0.01251,-0.00168,-0.03113,-0.01389,-0.09476,-0.00153,-0.03235,-0.04044,0.00656,-0.04044
14.082,0.03693,0.03555,-0.07278,-0.00824,-0.03555,-0.05829,-0.01328,-0.0029,-0.02731,-0.02487,-0.09644,-0.00244,-0.03082,-0.04196,0.00092,-0.04562
14.0825,0.03403,0.02991,-0.06592,-0.01129,-0.03464,-0.05554,-0.01343,-0.00473,-0.0209,-0.03693,-0.09583,-0.00305,-0.0293,-0.0412,-0.00198,-0.05066
14.083,0.03006,0.02304,-0.05798,-0.01144,-0.03387,-0.05127,-0.01282,-0.00458,-0.01343,-0.04929,-0.09583,-0.00351,-0.02945,-0.04059,-0.00336,-0.05463
14.0835,0.02472,0.01602,-0.05173,-0.01038,-0.03189,-0.04776,-0.01373,-0.00305,-0.00977,-0.05966,-0.09338,-0.00366,-0.02899,-0.03845,-0.00412,-0.05371
14.084,0.01892,0.01144,-0.04456,-0.01007,-0.03098,-0.04486,-0.01541,-0.00305,-0.009,-0.06454,-0.08224,-0.00259,-0.02899,-0.03525,-0.0032,-0.04929
14.0845,0.01556,0.0119,-0.03784,-0.01007,-0.03174,-0.04272,-0.01602,-0.00397,-0.00839,-0.0647,-0.06073,-0.0029,-0.0296,-0.03143,0.0,-0.04593
14.085,0.01404,0.0148,-0.03052,-0.01053,-0.03387,-0.04074,-0.01556,-0.00473,-0.00687,-0.06409,-0.03387,-0.00198,-0.02991,-0.02747,0.00458,-0.04547
14.0855,0.01373,0.01465,-0.02045,-0.01038,-0.03448,-0.03891,-0.01541,-0.00366,-0.00534,-0.06439,-0.00809,-0.00061,-0.03098,-0.02365,0.00748,-0.04761
14.086,0.0119,0.00549,-0.01404,-0.01266,-0.03448,-0.03967,-0.01556,-0.00229,-0.00366,-0.06256,0.00793,0.00153,-0.0322,-0.02243,0.009,-0.04898
14.0865,0.00778,-0.01205,-0.0264,-0.01526,-0.03494,-0.0412,-0.01602,-0.00076,-0.0029,-0.05981,0.00931,0.00244,-0.03311,-0.02197,0.00809,-0.04883
14.087,0.00183,-0.03647,-0.06561,-0.01801,-0.03815,-0.04395,-0.01617,-0.00092,-0.00275,-0.05829,0.00031,0.00198,-0.03448,-0.0209,0.00565,-0.04608
14.0875,-0.00473,-0.06607,-0.09537,-0.01862,-0.04013,-0.04669,-0.01648,-0.00153,-0.00122,-0.06134,-0.00809,0.00076,-0.03448,-0.01678,0.00458,-0.04425
14.088,-0.009,-0.09567,-0.07507,-0.01846,-0.03891,-0.04745,-0.01587,-0.00229,0.00168,-0.06332,-0.00977,-0.00061,-0.03448,-0.01144,0.00488,-0.04349
14.0885,-0.01129,-0.11093,-0.01175,-0.01999,-0.0351,-0.047,-0.0145,-0.00229,0.00336,-0.05783,-0.00427,-0.00137,-0.03448,-0.00565,0.00687,-0.04318
14.089,-0.01465,-0.09689,0.05081,-0.02411,-0.03098,-0.04745,-0.01419,-0.00153,0.00336,-0.04669,0.00031,-0.00183,-0.03555,-0.00122,0.00687,-0.04089
14.0895,-0.02167,-0.06012,0.09827,-0.02563,-0.02884,-0.0473,-0.01434,-0.00153,0.0029,-0.03769,-0.00153,-0.00244,-0.03708,0.00259,0.00809,-0.03967
14.09,-0.03052,-0.02762,0.13763,-0.02457,-0.02792,-0.04745,-0.01343,-0.00229,0.0032,-0.0325,-0.00885,-0.00259,-0.03677,0.00534,0.00793,-0.03983
14.0905,-0.03677,-0.01862,0.1651,-0.02121,-0.02777,-0.04776,-0.01266,-0.00381,0.00488,-0.0322,-0.00687,-0.00198,-0.03662,0.00626,0.00748,-0.04166
14.091,-0.04089,-0.02731,0.15884,-0.0206,-0.02686,-0.04807,-0.01251,-0.00519,0.00427,-0.03906,0.01266,-0.00137,-0.03647,0.00793,0.00656,-0.04318
14.0915,-0.04562,-0.04166,0.11475,-0.0238,-0.02731,-0.04944,-0.01343,-0.00473,0.00137,-0.05966,0.03845,-0.00259,-0.03799,0.01022,0.00565,-0.04242
14.092,-0.05432,-0.05661,0.0647,-0.02792,-0.02762,-0.05005,-0.01465,-0.00397,-0.00229,-0.08255,0.05463,-0.00458,-0.03891,0.01373,0.00519,-0.0412
14.0925,-0.06454,-0.06836,0.03983,-0.0296,-0.02731,-0.0499,-0.01556,-0.00305,-0.00488,-0.08636,0.05798,-0.00534,-0.0386,0.01602,0.00412,-0.04013
14.093,-0.07355,-0.07019,0.03418,-0.02747,-0.0264,-0.0502,-0.0148,-0.00412,-0.00626,-0.0528,0.06088,-0.00412,-0.03769,0.01678,0.00488,-0.04074
14.0935,-0.07874,-0.06256,0.02319,-0.02563,-0.02731,-0.05127,-0.01297,-0.00458,-0.00793,0.0032,0.0705,-0.00275,-0.03754,0.01816,0.00717,-0.0412
14.094,-0.08301,-0.05524,-0.00641,-0.02518,-0.02808,-0.05417,-0.01236,-0.00397,-0.01007,0.05249,0.08209,-0.00153,-0.0383,0.02029,0.00885,-0.04181
14.0945,-0.08789,-0.05569,-0.0499,-0.0264,-0.02762,-0.05783,-0.01404,-0.00259,-0.01251,0.07797,0.08621,-0.00137,-0.03815,0.02396,0.00992,-0.04135
14.095,-0.09277,-0.05676,-0.09735,-0.02869,-0.0264,-0.06088,-0.01541,-0.00214,-0.01404,0.09018,0.08392,-0.00244,-0.03647,0.02197,0.01007,-0.0412
14.0955,-0.0972,-0.05463,-0.14023,-0.03082,-0.02472,-0.06058,-0.01648,-0.0029,-0.01526,0.09537,0.08224,-0.00366,-0.03326,0.01022,0.01114,-0.0415
14.096,-0.09689,-0.05142,-0.17044,-0.03189,-0.02396,-0.05615,-0.01602,-0.00366,-0.01556,0.09354,0.08377,-0.00443,-0.03189,-0.01175,0.00946,-0.0412
14.0965,-0.09445,-0.05295,-0.18356,-0.03098,-0.02411,-0.05051,-0.01511,-0.00351,-0.01663,0.0798,0.0856,-0.00244,-0.03113,-0.03616,0.00946,-0.04135
14.097,-0.09186,-0.05997,-0.17899,-0.0296,-0.02533,-0.04333,-0.01495,-0.00229,-0.01801,0.06149,0.08575,-0.00015,-0.03067,-0.05142,0.01083,-0.04105
14.0975,-0.09354,-0.06912,-0.16251,-0.02808,-0.02594,-0.03738,-0.01648,-0.00305,-0.02182,0.04852,0.08118,0.0,-0.03098,-0.05371,0.01099,-0.04166
14.098,-0.09796,-0.07813,-0.1442,-0.02701,-0.02533,-0.03357,-0.01724,-0.00366,-0.02853,0.03967,0.06638,-0.00122,-0.03098,-0.05112,0.01022,-0.04196
14.0985,-0.09995,-0.08316,-0.13214,-0.02594,-0.02441,-0.0322,-0.01633,-0.00443,-0.03433,0.03235,0.04303,-0.00259,-0.03067,-0.0563,0.00793,-0.04211
14.099,-0.0972,-0.08087,-0.12573,-0.02533,-0.02304,-0.03265,-0.01526,-0.00366,-0.03632,0.02792,0.01694,-0.00259,-0.02975,-0.0737,0.00641,-0.04257
14.0995,-0.09293,-0.07126,-0.1207,-0.02533,-0.02411,-0.0325,-0.01419,-0.00275,-0.03448,0.02853,-0.0058,-0.00015,-0.02731,-0.09384,0.00702,-0.04227
14.1,-0.09033,-0.05737,-0.11337,-0.02472,-0.02594,-0.03296,-0.01465,-0.00229,-0.0325,0.03418,-0.02182,0.00305,-0.02563,-0.09857,0.00916,-0.04074
14.1005,-0.08942,-0.04532,-0.1033,-0.02426,-0.02731,-0.03342,-0.0148,-0.00305,-0.03204,0.03708,-0.02838,0.00534,-0.02548,-0.0853,0.01144,-0.03937
14.101,-0.08987,-0.03891,-0.09338,-0.02365,-0.0267,-0.03342,-0.01419,-0.00351,-0.03448,0.02975,-0.0296,0.00473,-0.02533,-0.06378,0.01236,-0.03723
14.1015,-0.08972,-0.04196,-0.08347,-0.02304,-0.02579,-0.03067,-0.01541,-0.0032,-0.03586,0.0119,-0.03784,0.0032,-0.02548,-0.05051,0.01099,-0.03723
14.102,-0.08728,-0.047,-0.07401,-0.02213,-0.02625,-0.02655,-0.01602,-0.00244,-0.03586,-0.01221,-0.06454,0.00244,-0.02731,-0.05127,0.01068,-0.03799
14.1025,-0.08423,-0.04929,-0.06195,-0.02106,-0.02884,-0.02274,-0.01556,-0.00198,-0.03403,-0.03433,-0.11124,0.00137,-0.02823,-0.05615,0.00977,-0.03937
14.103,-0.0824,-0.04639,-0.047,-0.01999,-0.03159,-0.02029,-0.01495,-0.00153,-0.03021,-0.05219,-0.16632,0.00061,-0.02899,-0.05539,0.00961,-0.04074
14.1035,-0.08835,-0.04196,-0.02899,-0.02075,-0.03403,-0.01694,-0.01389,-0.00198,-0.0267,-0.06027,-0.20737,-0.00031,-0.02838,-0.04852,0.00931,-0.04013
14.104,-0.10086,-0.03784,-0.00595,-0.02197,-0.03479,-0.01511,-0.01434,-0.00381,-0.02472,-0.05676,-0.21835,0.00046,-0.02747,-0.04227,0.00839,-0.03967
14.1045,-0.11383,-0.03082,0.02594,-0.02045,-0.03586,-0.01511,-0.01495,-0.00412,-0.02411,-0.04257,-0.19928,0.00275,-0.02686,-0.03769,0.00778,-0.03845
14.105,-0.11658,-0.01984,0.05936,-0.01678,-0.03601,-0.01968,-0.0148,-0.00366,-0.0235,-0.02701,-0.16556,0.00412,-0.02731,-0.03021,0.00824,-0.03891
14.1055,-0.10818,-0.01022,0.07507,-0.0145,-0.03448,-0.02808,-0.01526,-0.00381,-0.0206,-0.02151,-0.12955,0.00366,-0.02975,-0.01923,0.00854,-0.04044
14.106,-0.09628,-0.01266,0.05127,-0.01572,-0.03235,-0.04211,-0.01633,-0.00397,-0.01541,-0.03006,-0.08987,0.00305,-0.0322,-0.00641,0.009,-0.04242
14.1065,-0.08652,-0.03296,-0.009,-0.01892,-0.03128,-0.06073,-0.01694,-0.00366,-0.01114,-0.0444,-0.04791,0.00381,-0.0325,0.00488,0.00977,-0.04395
14.107,-0.07919,-0.06927,-0.06546,-0.01907,-0.02869,-0.07813,-0.01541,-0.0032,-0.00839,-0.05264,-0.01419,0.00565,-0.03357,0.0145,0.00992,-0.04364
14.1075,-0.07004,-0.10864,-0.0827,-0.01694,-0.02731,-0.08514,-0.01495,-0.0032,-0.00732,-0.05356,0.00519,0.00626,-0.0354,0.02533,0.0087,-0.04257
14.108,-0.06058,-0.13275,-0.07782,-0.01434,-0.02808,-0.07843,-0.01526,-0.00381,-0.00641,-0.05569,0.01434,0.00687,-0.03677,0.03723,0.00839,-0.04166
14.1085,-0.05157,-0.1297,-0.09094,-0.01266,-0.0293,-0.06454,-0.01541,-0.00305,-0.00763,-0.06622,0.02533,0.00687,-0.03723,0.04288,0.00946,-0.04135
14.109,-0.04349,-0.10376,-0.1265,-0.0119,-0.03159,-0.05524,-0.01526,-0.00397,-0.00977,-0.07828,0.04456,0.0058,-0.03708,0.03326,0.01022,-0.04105
14.1095,-0.03662,-0.0676,-0.15793,-0.01266,-0.03281,-0.05386,-0.01419,-0.00381,-0.01144,-0.08484,0.07309,0.00488,-0.03815,0.01373,0.01144,-0.04135
14.11,-0.03311,-0.03204,-0.18631,-0.01602,-0.03311,-0.05386,-0.01297,-0.00336,-0.01022,-0.0885,0.10727,0.00427,-0.03922,-0.00229,0.0116,-0.04089
14.1105,-0.03372,-0.00366,-0.23483,-0.0209,-0.03387,-0.05325,-0.01251,-0.00305,-0.00687,-0.09827,0.14023,0.00351,-0.03906,-0.00778,0.01129,-0.04028
14.111,-0.03433,0.00977,-0.2803,-0.02594,-0.03479,-0.05051,-0.01312,-0.00275,-0.00381,-0.11246,0.1683,0.00198,-0.03693,-0.00504,0.01053,-0.03998
