time,RectFemL,VastusMedL,VastusLatL,TibAntL,HamMedL,HamLatL,GastroMedL,GastroLatL,RectFemR,VastusMedR,VastusLatR,TibAntR,HamMedR,HamLatR,GastroMedR,GastroLatR
5.49,-0.01068,-0.11841,0.03571,-0.00305,-0.01434,-0.04425,-0.0177,0.00702,-0.01724,-0.02579,-0.03799,0.00916,-0.02396,-0.01938,-0.01465,-0.03937
5.4905,-0.00961,-0.11429,0.01419,0.0058,-0.00076,-0.04532,-0.01343,0.02533,-0.01801,-0.02991,-0.05142,0.00931,-0.02411,-0.02243,-0.00107,-0.04059
5.491,-0.01343,-0.1033,-0.00427,0.00946,-0.00061,-0.04822,-0.00778,0.03448,-0.01923,-0.03311,-0.06134,0.01038,-0.02762,-0.02457,0.01541,-0.04028
5.4915,-0.01907,-0.0827,-0.01343,0.01205,-0.03036,-0.05157,-0.00031,0.02838,-0.02045,-0.03204,-0.06851,0.01083,-0.0325,-0.02457,0.02853,-0.03937
5.492,-0.02151,-0.05585,-0.01663,0.01694,-0.0737,-0.05173,0.00916,0.01526,-0.01923,-0.02533,-0.0737,0.00946,-0.0351,-0.02487,0.03174,-0.03922
5.4925,-0.0206,-0.03372,-0.02106,0.01801,-0.09384,-0.04593,0.01343,0.00748,-0.01663,-0.01328,-0.07294,0.00732,-0.0354,-0.02579,0.0267,-0.03922
5.493,-0.01862,-0.02045,-0.04135,0.01343,-0.07965,-0.03784,0.00275,0.00641,-0.01434,-0.00397,-0.06424,0.00549,-0.03189,-0.0267,0.01923,-0.03876
5.4935,-0.01877,-0.01648,-0.09277,0.00626,-0.05859,-0.03128,-0.01999,0.00519,-0.01251,-0.00137,-0.05371,0.00305,-0.02518,-0.02472,0.01266,-0.03998
5.494,-0.01953,-0.01678,-0.17212,0.00259,-0.05737,-0.02899,-0.0386,0.00046,-0.00977,-0.00458,-0.04684,0.00153,-0.01709,-0.02197,0.00763,-0.04028
5.4945,-0.02289,-0.01648,-0.23361,0.00229,-0.07172,-0.03098,-0.04196,-0.00717,-0.00656,-0.01144,-0.04272,0.00107,-0.01251,-0.01968,0.00717,-0.03998
5.495,-0.02533,-0.01373,-0.21942,0.00015,-0.08011,-0.03464,-0.03632,-0.01221,-0.00427,-0.01724,-0.04074,0.00092,-0.00854,-0.0174,0.01099,-0.04013
5.4955,-0.02487,-0.01144,-0.12512,-0.00412,-0.0798,-0.0386,-0.0354,-0.01282,-0.0032,-0.01984,-0.03723,-0.00092,-0.00076,-0.01434,0.0148,-0.04074
5.496,-0.02121,-0.01068,-0.01266,-0.00656,-0.08499,-0.04211,-0.04333,-0.01266,-0.00244,-0.02151,-0.03281,-0.00198,0.00931,-0.01175,0.01495,-0.04318
5.4965,-0.01953,-0.01175,0.05951,-0.0061,-0.09872,-0.04395,-0.05157,-0.0119,-0.00336,-0.02365,-0.02792,-0.00168,0.01251,-0.01389,0.01053,-0.0441
5.497,-0.01984,-0.01297,0.08423,-0.00656,-0.10422,-0.04715,-0.05081,-0.01404,-0.00519,-0.02701,-0.02441,-0.00137,-0.00122,-0.02014,0.00763,-0.0444
5.4975,-0.01968,-0.01266,0.08423,-0.00916,-0.08957,-0.05798,-0.03693,-0.01663,-0.00687,-0.02945,-0.02075,0.00015,-0.02518,-0.02533,0.00565,-0.04333
5.498,-0.01678,-0.01038,0.07599,-0.01144,-0.05798,-0.07706,-0.0029,-0.01648,-0.00931,-0.03113,-0.01709,0.00092,-0.0473,-0.02731,0.00748,-0.04257
5.4985,-0.01236,-0.00809,0.0621,-0.01129,-0.02396,-0.09491,0.05005,-0.0116,-0.01022,-0.03159,-0.01144,0.00061,-0.06027,-0.02823,0.00992,-0.04211
5.499,-0.009,-0.01053,0.04471,-0.00946,0.00214,-0.09766,0.09125,-0.00793,-0.00946,-0.03143,-0.00381,0.00031,-0.06836,-0.02945,0.01236,-0.04181
5.4995,-0.00656,-0.01465,0.03159,-0.00717,0.01373,-0.08102,0.07843,-0.01038,-0.00732,-0.02808,0.00214,0.00031,-0.0737,-0.03342,0.01175,-0.04059
5.5,-0.00366,-0.0177,0.02823,-0.00702,0.00748,-0.05478,0.01648,-0.01648,-0.00626,-0.02426,0.00412,0.00168,-0.07767,-0.04181,0.01053,-0.03967
5.5005,-0.00137,-0.01724,0.02686,-0.00946,-0.00931,-0.03235,-0.03555,-0.0209,-0.00763,-0.01831,0.00427,0.00259,-0.08118,-0.0502,0.01099,-0.03952
5.501,-0.00107,-0.01801,0.0209,-0.0119,-0.02518,-0.01938,-0.03601,-0.02151,-0.00977,-0.01236,0.00458,0.00198,-0.08377,-0.04913,0.01312,-0.03952
5.5015,-0.00214,-0.01999,0.00641,-0.01282,-0.03342,-0.01236,-0.00641,-0.01556,-0.01175,-0.00381,0.00549,0.00061,-0.08011,-0.03601,0.01434,-0.04166
5.502,-0.0032,-0.02274,-0.01999,-0.01358,-0.03357,-0.00992,0.00626,-0.00336,-0.01389,0.00046,0.01144,-0.00015,-0.06989,-0.02289,0.0119,-0.04303
5.5025,-0.00412,-0.02304,-0.0528,-0.01389,-0.03342,-0.01236,-0.00839,0.01053,-0.01633,-0.00031,0.0293,0.0,-0.0589,-0.02029,0.00885,-0.04211
5.503,-0.00488,-0.02106,-0.07797,-0.01297,-0.03922,-0.02167,-0.02472,0.01633,-0.01678,-0.00778,0.05035,0.00031,-0.0502,-0.02594,0.00748,-0.04257
5.5035,-0.00397,-0.01999,-0.08606,-0.01129,-0.0499,-0.03723,-0.02304,0.01236,-0.01602,-0.01648,0.05569,-0.00107,-0.04349,-0.02991,0.0087,-0.04181
5.504,-0.00168,-0.01755,-0.07904,-0.01114,-0.05524,-0.0563,-0.0116,0.00549,-0.01602,-0.02151,0.03815,-0.00305,-0.03738,-0.02899,0.009,-0.04059
5.5045,0.00015,-0.01572,-0.06622,-0.01266,-0.047,-0.07568,-0.0087,0.00427,-0.0177,-0.02304,0.01511,-0.0032,-0.0322,-0.02197,0.00763,-0.04013
5.505,0.0029,-0.01816,-0.04822,-0.01358,-0.02823,-0.09064,-0.01999,0.01099,-0.02014,-0.02289,0.00351,-0.0029,-0.02991,-0.01129,0.00336,-0.04166
5.5055,0.00275,-0.02563,-0.02396,-0.01373,-0.01114,-0.09415,-0.03128,0.01923,-0.02258,-0.02319,0.0032,-0.00366,-0.02808,-0.00305,-0.00366,-0.04227
5.506,-0.00092,-0.03296,-0.00076,-0.01282,-0.00839,-0.0824,-0.02853,0.0206,-0.02441,-0.02594,0.00275,-0.00427,-0.02548,-0.00092,-0.00977,-0.04089
5.5065,-0.00687,-0.03677,0.00885,-0.01404,-0.01297,-0.06271,-0.01389,0.01175,-0.02594,-0.02899,-0.00412,-0.00366,-0.02274,0.00122,-0.01068,-0.03891
5.507,-0.0119,-0.03891,0.00275,-0.01465,-0.01511,-0.04089,-0.00244,-0.00427,-0.02518,-0.03052,-0.00839,-0.00412,-0.0209,0.01038,-0.00763,-0.03967
5.5075,-0.01328,-0.04364,-0.01312,-0.01434,-0.01602,-0.02502,-0.00381,-0.01831,-0.02396,-0.0293,-0.00214,-0.00549,-0.02045,0.02121,-0.00519,-0.04288
5.508,-0.0116,-0.05173,-0.02792,-0.01343,-0.02304,-0.01968,-0.01221,-0.02274,-0.02304,-0.02762,0.00992,-0.00778,-0.01999,0.02335,-0.00793,-0.04547
5.5085,-0.00931,-0.05951,-0.04303,-0.01404,-0.03662,-0.02731,-0.01633,-0.01297,-0.0235,-0.02884,0.0116,-0.00885,-0.0206,0.01282,-0.01495,-0.04532
5.509,-0.00778,-0.0676,-0.05646,-0.01556,-0.04349,-0.04593,-0.01114,0.00198,-0.02518,-0.03113,-0.00305,-0.00748,-0.02121,0.00031,-0.02121,-0.04425
5.5095,-0.00641,-0.07889,-0.06622,-0.01526,-0.0354,-0.07294,-0.0032,0.00992,-0.02563,-0.0325,-0.02518,-0.00473,-0.02182,-0.00519,-0.02106,-0.04364
5.51,-0.00549,-0.08682,-0.06775,-0.01434,-0.01801,-0.10574,-0.00168,0.00534,-0.02426,-0.03189,-0.04776,-0.00259,-0.02304,-0.0032,-0.01663,-0.04196
5.5105,-0.0032,-0.0853,-0.06454,-0.01358,-0.00702,-0.13367,-0.00854,-0.0032,-0.02075,-0.03021,-0.06729,-0.00305,-0.02548,-0.00031,-0.01404,-0.04059
5.511,-0.00046,-0.07523,-0.06195,-0.0116,-0.0087,-0.13962,-0.01633,-0.00626,-0.01633,-0.02899,-0.08286,-0.0032,-0.02731,-0.00504,-0.01465,-0.03906
5.5115,0.00259,-0.06653,-0.06332,-0.00977,-0.01389,-0.11093,-0.01831,-0.00351,-0.01373,-0.02808,-0.08759,-0.00259,-0.0264,-0.02213,-0.0119,-0.03845
5.512,0.00427,-0.06516,-0.06561,-0.00961,-0.01572,-0.06348,-0.0174,-0.00137,-0.01328,-0.02548,-0.08011,-0.00122,-0.01999,-0.03922,0.00259,-0.0383
5.5125,0.00397,-0.06546,-0.06653,-0.01068,-0.01465,-0.03143,-0.01785,-0.00046,-0.01511,-0.01724,-0.0705,-0.00061,-0.0116,-0.03952,0.02563,-0.03815
5.513,0.00244,-0.0618,-0.06592,-0.01175,-0.0174,-0.02609,-0.01907,0.0,-0.01465,-0.0029,-0.06699,-0.00153,-0.00641,-0.02213,0.03815,-0.03922
5.5135,0.00137,-0.05234,-0.06378,-0.01144,-0.02472,-0.03479,-0.0206,0.00122,-0.01205,0.01129,-0.0647,-0.00381,-0.0087,-0.00854,0.02686,-0.03906
5.514,0.00107,-0.0441,-0.0621,-0.00992,-0.0351,-0.04044,-0.02075,0.00244,-0.00946,0.01373,-0.05997,-0.00656,-0.01526,-0.01053,-0.0032,-0.03998
5.5145,0.00137,-0.0415,-0.06042,-0.00824,-0.04135,-0.04074,-0.01953,0.00229,-0.00931,0.00076,-0.05341,-0.00778,-0.02167,-0.01923,-0.02609,-0.04257
5.515,0.00076,-0.0441,-0.05905,-0.00916,-0.04074,-0.0415,-0.01801,0.00168,-0.01083,-0.01694,-0.04639,-0.00671,-0.02472,-0.02151,-0.03067,-0.04486
5.5155,0.00046,-0.04791,-0.05615,-0.01068,-0.03342,-0.04318,-0.01694,0.00031,-0.01236,-0.0293,-0.0386,-0.00381,-0.02502,-0.01968,-0.02197,-0.04547
5.516,-0.00137,-0.04669,-0.04776,-0.01129,-0.02609,-0.04333,-0.01556,-0.00137,-0.01297,-0.03174,-0.02945,-0.00168,-0.0235,-0.01923,-0.00504,-0.04547
5.5165,-0.00565,-0.04288,-0.03784,-0.00977,-0.02502,-0.04272,-0.01373,-0.0029,-0.01343,-0.03036,-0.0209,-0.00031,-0.01801,-0.02136,0.02121,-0.04501
5.517,-0.01266,-0.03937,-0.0322,-0.00763,-0.02808,-0.04135,-0.01312,-0.00366,-0.01419,-0.02518,-0.01511,-0.00015,-0.00946,-0.0235,0.06119,-0.04517
5.5175,-0.01831,-0.03998,-0.03128,-0.00626,-0.02304,-0.04028,-0.01511,-0.00671,-0.0145,-0.01968,-0.00916,-0.00031,-0.00412,-0.02548,0.10101,-0.04639
5.518,-0.01999,-0.04288,-0.03418,-0.0058,-0.00198,-0.03693,-0.01999,-0.01404,-0.01419,-0.01556,-0.00259,-0.00153,-0.00366,-0.02899,0.11063,-0.04929
5.5185,-0.0174,-0.0441,-0.03738,-0.0061,0.02457,-0.03357,-0.02625,-0.0235,-0.01434,-0.01266,0.00626,-0.0029,-0.00992,-0.03174,0.07523,-0.05356
5.519,-0.01282,-0.04318,-0.03693,-0.00626,0.03494,-0.03067,-0.03326,-0.02853,-0.01465,-0.01175,0.01373,-0.00443,-0.02045,-0.03082,0.01328,-0.05554
5.5195,-0.00992,-0.0412,-0.03647,-0.00626,0.01923,-0.0293,-0.04196,-0.0267,-0.01404,-0.01129,0.01923,-0.00427,-0.03281,-0.02625,-0.03159,-0.0528
5.52,-0.00839,-0.03967,-0.03754,-0.00565,-0.01053,-0.02945,-0.05234,-0.02228,-0.01404,-0.01236,0.02136,-0.0032,-0.04654,-0.02228,-0.03464,-0.04959
5.5205,-0.00702,-0.03754,-0.04059,-0.00488,-0.03448,-0.03311,-0.06256,-0.02045,-0.01434,-0.01419,0.02151,-0.00076,-0.06012,-0.02274,-0.01602,-0.04684
5.521,-0.00565,-0.03647,-0.04242,-0.00412,-0.0473,-0.03967,-0.06714,-0.01892,-0.01495,-0.01678,0.01968,0.00107,-0.07217,-0.02594,-0.00275,-0.04303
5.5215,-0.00549,-0.03677,-0.0412,-0.00397,-0.05356,-0.04425,-0.05859,-0.01389,-0.0148,-0.01831,0.01999,0.00122,-0.08148,-0.02808,0.00534,-0.03601
5.522,-0.00656,-0.03723,-0.03906,-0.0029,-0.05096,-0.04211,-0.0412,-0.00183,-0.01434,-0.01785,0.02151,0.00076,-0.08606,-0.02716,0.02274,-0.03052
5.5225,-0.00717,-0.03708,-0.03586,-0.00168,-0.04074,-0.03494,-0.02731,0.0148,-0.01358,-0.01678,0.02228,0.00107,-0.08484,-0.02472,0.05188,-0.02975
5.523,-0.00778,-0.0386,-0.03448,0.00092,-0.02808,-0.02762,-0.01846,0.0238,-0.01389,-0.01678,0.02075,0.00183,-0.07721,-0.02045,0.06882,-0.03357
5.5235,-0.00793,-0.04227,-0.03342,0.00366,-0.02457,-0.02502,-0.00031,0.01602,-0.01465,-0.01663,0.01801,0.00229,-0.06653,-0.01633,0.05814,-0.03845
5.524,-0.00854,-0.04395,-0.03372,0.00381,-0.02609,-0.02731,0.03693,-0.0058,-0.01572,-0.01541,0.01816,0.00305,-0.05585,-0.01404,0.03281,-0.04013
5.5245,-0.00946,-0.04257,-0.03342,0.00198,-0.0238,-0.03067,0.0705,-0.02441,-0.01724,-0.0119,0.01999,0.00275,-0.04578,-0.01328,0.01694,-0.04044
5.525,-0.009,-0.03876,-0.03189,-0.00015,-0.02029,-0.03235,0.06226,-0.02502,-0.01892,-0.01129,0.02075,0.00214,-0.03525,-0.01343,0.01007,-0.04181
5.5255,-0.00854,-0.03677,-0.03174,-0.00198,-0.02716,-0.03098,0.00641,-0.00626,-0.01968,-0.01175,0.01907,0.00076,-0.02594,-0.0148,0.0058,-0.04166
5.526,-0.00626,-0.03784,-0.03311,-0.00397,-0.04501,-0.02792,-0.04807,0.01694,-0.01999,-0.01312,0.01694,-0.00107,-0.02121,-0.01801,0.01328,-0.04105
5.5265,-0.00366,-0.03891,-0.03418,-0.0061,-0.05844,-0.02731,-0.0589,0.0296,-0.01968,-0.01526,0.01602,-0.00397,-0.02319,-0.02167,0.03448,-0.03967
5.527,-0.00031,-0.03922,-0.03265,-0.00931,-0.05859,-0.02991,-0.04211,0.02472,-0.01984,-0.01556,0.01541,-0.00626,-0.02853,-0.02518,0.05493,-0.03662
5.5275,0.00336,-0.03937,-0.03204,-0.01053,-0.05478,-0.03036,-0.02762,0.00961,-0.02121,-0.01572,0.01221,-0.00458,-0.03372,-0.02792,0.05936,-0.03326
5.528,0.00702,-0.04303,-0.03128,-0.01175,-0.06073,-0.02731,-0.00381,-0.00351,-0.02335,-0.01694,0.00687,-0.00092,-0.03647,-0.02823,0.04868,-0.03143
5.5285,0.00961,-0.04974,-0.03113,-0.01312,-0.07736,-0.02289,0.03769,-0.00595,-0.0235,-0.01984,0.00229,0.00122,-0.03479,-0.02731,0.02945,-0.03342
5.529,0.01099,-0.05707,-0.03021,-0.01526,-0.08514,-0.02304,0.06027,0.00015,-0.02228,-0.02304,0.00198,0.00092,-0.03021,-0.02563,0.00687,-0.03677
5.5295,0.01434,-0.0589,-0.02823,-0.01541,-0.0737,-0.03128,0.03922,0.00809,-0.01892,-0.02319,0.00275,0.00061,-0.02441,-0.02335,-0.00732,-0.03983
5.53,0.01816,-0.05249,-0.02625,-0.01282,-0.05142,-0.04547,0.00275,0.01053,-0.01465,-0.02228,0.00183,0.00244,-0.01846,-0.02075,-0.01114,-0.0412
5.5305,0.01938,-0.04211,-0.02457,-0.01083,-0.0325,-0.05737,-0.01282,0.00916,-0.01205,-0.02197,-0.00015,0.00519,-0.01129,-0.01862,-0.00854,-0.04135
5.531,0.0174,-0.02869,-0.02289,-0.01038,-0.02213,-0.06714,-0.00839,0.00702,-0.01129,-0.02289,-0.00107,0.00641,-0.00259,-0.01755,-0.01053,-0.04227
5.5315,0.01419,-0.01495,-0.02167,-0.01129,-0.01801,-0.0737,-0.00473,0.00473,-0.01114,-0.02258,-0.00092,0.00565,0.00626,-0.01694,-0.01328,-0.0444
5.532,0.01083,-0.00656,-0.02289,-0.01343,-0.02167,-0.07446,-0.00885,0.00168,-0.01144,-0.02136,-0.00122,0.00336,0.01266,-0.01526,-0.01709,-0.04684
5.5325,0.00671,-0.0087,-0.03387,-0.01434,-0.03571,-0.06866,-0.01251,-0.00198,-0.01236,-0.01923,-0.00214,0.00137,0.01541,-0.0119,-0.01968,-0.04852
5.533,-0.00137,-0.02151,-0.06348,-0.01144,-0.05371,-0.05844,-0.01312,-0.0029,-0.01434,-0.01617,-0.00046,0.00107,0.01205,-0.00824,-0.01785,-0.04898
5.5335,-0.009,-0.03738,-0.10773,-0.00595,-0.05905,-0.0499,-0.01221,-0.00229,-0.01434,-0.01358,0.00229,0.00061,0.0032,-0.00687,-0.01465,-0.05035
5.534,-0.0145,-0.04913,-0.13199,0.00275,-0.04776,-0.04593,-0.0116,-0.00168,-0.01389,-0.01053,0.00397,-0.00137,-0.00793,-0.00671,-0.01801,-0.05112
5.5345,-0.01678,-0.05371,-0.11169,0.01053,-0.03143,-0.04517,-0.0087,-0.00137,-0.01389,-0.00885,0.00076,-0.00305,-0.01923,-0.00717,-0.03128,-0.05066
5.535,-0.02029,-0.05066,-0.05783,0.01602,-0.02014,-0.04593,-0.00732,-0.00153,-0.01404,-0.00885,-0.00336,-0.00183,-0.0296,-0.00977,-0.04898,-0.04807
5.5355,-0.0267,-0.03952,-0.0058,0.01328,-0.01556,-0.04822,-0.01022,-0.00351,-0.01343,-0.01129,-0.00626,0.00168,-0.03967,-0.0145,-0.05249,-0.04562
5.536,-0.03326,-0.0267,0.02533,0.00336,-0.01358,-0.05096,-0.01495,-0.00839,-0.01221,-0.01434,-0.00717,0.0029,-0.0499,-0.01877,-0.03494,-0.04227
5.5365,-0.03632,-0.02289,0.03815,-0.00412,-0.00977,-0.05417,-0.01709,-0.01389,-0.01053,-0.01587,-0.00732,0.00015,-0.05829,-0.02167,-0.00824,-0.03906
5.537,-0.0351,-0.03204,0.0386,-0.00534,-0.00031,-0.05524,-0.01755,-0.01846,-0.01114,-0.0148,-0.00839,-0.00458,-0.06271,-0.02335,0.00458,-0.0383
5.5375,-0.03021,-0.04547,0.02701,0.00076,0.01526,-0.05447,-0.02319,-0.02197,-0.01205,-0.01266,-0.01007,-0.00793,-0.06393,-0.02609,-0.00061,-0.03983
5.538,-0.02548,-0.05234,0.00458,0.0087,0.02655,-0.05142,-0.03448,-0.02762,-0.01221,-0.01129,-0.01221,-0.00854,-0.06424,-0.02747,0.00198,-0.04349
5.5385,-0.02258,-0.05249,-0.0177,0.01007,0.0206,-0.04791,-0.03769,-0.03448,-0.01297,-0.01175,-0.0116,-0.0061,-0.06226,-0.02548,0.03906,-0.04501
5.539,-0.02014,-0.05157,-0.03021,0.00229,-0.00076,-0.0441,-0.02472,-0.0383,-0.01389,-0.0145,-0.00931,-0.00397,-0.0563,-0.02121,0.09186,-0.04303
5.5395,-0.01526,-0.05157,-0.03357,-0.00977,-0.01999,-0.04089,-0.00824,-0.03754,-0.01572,-0.01953,-0.00778,-0.00122,-0.047,-0.0174,0.11093,-0.0412
5.54,-0.00916,-0.05157,-0.0322,-0.01923,-0.02258,-0.03983,-0.00626,-0.03387,-0.01678,-0.02487,-0.00885,0.00137,-0.0412,-0.0174,0.07935,-0.0415
5.5405,-0.00534,-0.05051,-0.02777,-0.02777,-0.01663,-0.04257,-0.0148,-0.02625,-0.01648,-0.02655,-0.01312,0.00351,-0.0412,-0.01999,0.02792,-0.04242
5.541,-0.00351,-0.04715,-0.02045,-0.03799,-0.02243,-0.04807,-0.02075,-0.00809,-0.01648,-0.02274,-0.01602,0.00458,-0.0444,-0.02045,0.00092,-0.04211
5.5415,-0.00153,-0.04257,-0.01373,-0.04486,-0.047,-0.05203,-0.01877,0.01709,-0.01724,-0.01328,-0.01846,0.00381,-0.0441,-0.01999,0.0032,-0.04089
5.542,-0.00061,-0.03952,-0.01266,-0.04303,-0.07828,-0.05264,-0.01511,0.03662,-0.01785,-0.00549,-0.01953,0.00275,-0.04227,-0.01999,0.00977,-0.04028
5.5425,0.0,-0.03998,-0.01694,-0.03311,-0.09323,-0.0499,-0.01389,0.03937,-0.01648,-0.00519,-0.01831,0.00061,-0.04181,-0.02182,0.00427,-0.03799
5.543,-0.00031,-0.04517,-0.0235,-0.02014,-0.08255,-0.04608,-0.01419,0.03036,-0.0145,-0.009,-0.01434,0.00031,-0.04196,-0.02045,-0.00732,-0.03479
5.5435,-0.00046,-0.05188,-0.03143,-0.01129,-0.05554,-0.04303,-0.01526,0.0209,-0.01404,-0.01373,-0.01022,0.00183,-0.0415,-0.0177,-0.01572,-0.03159
5.544,-0.00031,-0.05646,-0.03616,-0.00946,-0.03799,-0.0412,-0.01648,0.01495,-0.01511,-0.01709,-0.01053,0.00443,-0.03784,-0.01663,-0.01816,-0.03311
5.5445,-0.00015,-0.0563,-0.03586,-0.01312,-0.03967,-0.03845,-0.01785,0.00931,-0.01709,-0.02029,-0.0148,0.00656,-0.03281,-0.01663,-0.01221,-0.03677
5.545,-0.00076,-0.05142,-0.0325,-0.01572,-0.04837,-0.03662,-0.01877,0.00198,-0.01785,-0.02365,-0.01907,0.00717,-0.0296,-0.01694,0.00076,-0.04044
5.5455,-0.00275,-0.04501,-0.02853,-0.01144,-0.05051,-0.03479,-0.01923,-0.0058,-0.01923,-0.02701,-0.02319,0.00565,-0.02853,-0.01831,0.0116,-0.04105
5.546,-0.00565,-0.03906,-0.02792,-0.00458,-0.05432,-0.03326,-0.01923,-0.01114,-0.02136,-0.02991,-0.0296,0.00275,-0.02914,-0.0206,0.01007,-0.04135
5.5465,-0.00732,-0.03571,-0.02991,-0.00015,-0.06577,-0.03342,-0.01892,-0.01266,-0.02335,-0.03052,-0.03769,0.00107,-0.02838,-0.02228,-0.00137,-0.04196
5.547,-0.00763,-0.03525,-0.0322,-0.00214,-0.07202,-0.03494,-0.0177,-0.0119,-0.0235,-0.03174,-0.04074,0.00031,-0.02563,-0.02304,-0.0116,-0.04227
5.5475,-0.00549,-0.03601,-0.0351,-0.0116,-0.05646,-0.03967,-0.01694,-0.01312,-0.02197,-0.0325,-0.03891,-0.00046,-0.02167,-0.02197,-0.01526,-0.04166
5.548,-0.00229,-0.03754,-0.03448,-0.0264,-0.02457,-0.04486,-0.01846,-0.01724,-0.02014,-0.03021,-0.03586,-0.00137,-0.01953,-0.01968,-0.01572,-0.0412
5.5485,-0.00061,-0.03906,-0.03204,-0.0383,0.00504,-0.05035,-0.02502,-0.01755,-0.01755,-0.02701,-0.03616,-0.00229,-0.02075,-0.01846,-0.01328,-0.04333
5.549,-0.00122,-0.03723,-0.0296,-0.04257,0.02396,-0.05447,-0.03372,-0.0116,-0.01526,-0.02487,-0.03906,-0.00412,-0.02579,-0.01801,-0.01022,-0.04669
5.5495,-0.00412,-0.03189,-0.02579,-0.03906,0.03494,-0.056,-0.03769,-0.00198,-0.01266,-0.02274,-0.0415,-0.00595,-0.03082,-0.01846,-0.00702,-0.04868
5.55,-0.0032,-0.02396,-0.02289,-0.03174,0.03937,-0.05737,-0.03525,0.00504,-0.01144,-0.02106,-0.04044,-0.00534,-0.03204,-0.01831,-0.00595,-0.04822
5.5505,0.00214,-0.0174,-0.02243,-0.02518,0.03586,-0.05966,-0.02838,0.0061,-0.01099,-0.01862,-0.03632,-0.0032,-0.03036,-0.01724,-0.00702,-0.04578
5.551,0.01038,-0.01129,-0.02853,-0.01999,0.01587,-0.06439,-0.0209,0.00259,-0.01144,-0.0174,-0.03143,-0.00107,-0.02563,-0.01205,-0.00778,-0.04227
5.5515,0.01541,-0.00046,-0.03845,-0.01694,-0.03006,-0.07004,-0.01526,-0.00137,-0.01236,-0.01801,-0.0267,0.00076,-0.02411,-0.00122,-0.00458,-0.03708
5.552,0.01602,0.0145,-0.047,-0.01663,-0.09583,-0.07248,-0.01266,-0.00443,-0.0119,-0.01846,-0.02258,0.00168,-0.02777,0.00946,-0.00046,-0.0325
5.5525,0.01373,0.01816,-0.05325,-0.01648,-0.14862,-0.07034,-0.01221,-0.00366,-0.01114,-0.01953,-0.02151,0.00076,-0.03403,0.01434,0.00137,-0.03113
5.553,0.0116,-0.00656,-0.05722,-0.01648,-0.14908,-0.06271,-0.01053,0.00061,-0.01083,-0.02121,-0.02106,-0.0029,-0.03677,0.01343,0.00015,-0.03555
5.5535,0.00748,-0.05463,-0.05844,-0.0174,-0.10239,-0.05676,-0.00214,0.00443,-0.01144,-0.02441,-0.01923,-0.00702,-0.03693,0.00946,-0.00412,-0.03998
5.554,0.00198,-0.09811,-0.05661,-0.01984,-0.05325,-0.05447,0.01175,0.00229,-0.01297,-0.02487,-0.01556,-0.00839,-0.03525,0.00687,-0.00977,-0.04105
5.5545,-0.00275,-0.11475,-0.05188,-0.02106,-0.03571,-0.05447,0.01678,-0.00397,-0.01602,-0.02457,-0.01236,-0.0058,-0.0351,0.00458,-0.0116,-0.04181
5.555,-0.00626,-0.1091,-0.04761,-0.01816,-0.04547,-0.05356,0.00702,-0.00793,-0.01663,-0.02258,-0.00961,-0.00168,-0.03311,0.00153,-0.00992,-0.04288
5.5555,-0.00992,-0.09735,-0.04517,-0.01083,-0.05585,-0.05051,-0.00839,-0.00763,-0.01633,-0.02014,-0.00839,0.00076,-0.02808,-0.00549,-0.00366,-0.0444
5.556,-0.01678,-0.08728,-0.04547,0.00137,-0.04852,-0.04761,-0.01678,-0.00488,-0.01572,-0.01984,-0.00778,0.00244,-0.02426,-0.0235,0.00076,-0.04425
5.5565,-0.02396,-0.0795,-0.04791,0.01511,-0.02304,-0.04608,-0.01678,-0.00351,-0.01587,-0.0209,-0.01022,0.00397,-0.02396,-0.05478,0.00183,-0.04349
5.557,-0.03067,-0.07263,-0.05051,0.02609,0.00443,-0.04395,-0.01389,-0.00366,-0.01602,-0.0235,-0.01343,0.00381,-0.02518,-0.08606,-0.00198,-0.04364
5.5575,-0.03342,-0.06683,-0.05066,0.02975,0.02182,-0.04135,-0.01328,-0.00671,-0.01434,-0.02533,-0.01343,0.00229,-0.02609,-0.09399,-0.00549,-0.04425
5.558,-0.03265,-0.06088,-0.047,0.02609,0.02014,-0.04089,-0.01465,-0.01251,-0.01129,-0.02441,-0.00992,-0.00015,-0.02731,-0.07843,-0.01068,-0.04379
5.5585,-0.02747,-0.05508,-0.0412,0.01404,0.00824,-0.0415,-0.01587,-0.01678,-0.00931,-0.0235,-0.00626,-0.00259,-0.02899,-0.05814,-0.01663,-0.0412
5.559,-0.01938,-0.05081,-0.03418,0.00015,0.00061,-0.04257,-0.01587,-0.01465,-0.00916,-0.02274,-0.00809,-0.00458,-0.02899,-0.04456,-0.01923,-0.03784
5.5595,-0.01068,-0.04883,-0.02899,-0.0119,0.00183,-0.0441,-0.01511,-0.0087,-0.00961,-0.02258,-0.01251,-0.00534,-0.02686,-0.03296,-0.01633,-0.03571
5.56,-0.00504,-0.05524,-0.02472,-0.02228,-0.00183,-0.04456,-0.0145,-0.00732,-0.01053,-0.02274,-0.01419,-0.00412,-0.02426,-0.02167,-0.00885,-0.0354
5.5605,-0.00153,-0.06744,-0.02319,-0.03418,-0.02487,-0.04593,-0.01404,-0.01373,-0.01282,-0.02365,-0.01099,-0.00183,-0.02426,-0.01801,-0.00504,-0.0386
5.561,0.0,-0.07294,-0.02319,-0.04883,-0.05585,-0.0473,-0.01404,-0.02777,-0.01633,-0.02335,-0.0087,0.00214,-0.02533,-0.02136,-0.00595,-0.04242
5.5615,0.00229,-0.06577,-0.02441,-0.06256,-0.07233,-0.04929,-0.01434,-0.04761,-0.01862,-0.0209,-0.00916,0.00641,-0.02701,-0.02411,-0.00717,-0.04349
5.562,0.00488,-0.05783,-0.02579,-0.06912,-0.06973,-0.04929,-0.0148,-0.07233,-0.0209,-0.01709,-0.01144,0.009,-0.02914,-0.02136,-0.00717,-0.04227
5.5625,0.00793,-0.06683,-0.02731,-0.06927,-0.05951,-0.0502,-0.01511,-0.09735,-0.02106,-0.01541,-0.01328,0.00839,-0.03159,-0.0174,-0.00366,-0.04227
5.563,0.00992,-0.09186,-0.03021,-0.06851,-0.05646,-0.0502,-0.01526,-0.10361,-0.01984,-0.0145,-0.01633,0.00595,-0.03204,-0.01633,0.00351,-0.04303
5.5635,0.01129,-0.10742,-0.03372,-0.07141,-0.05829,-0.05035,-0.0148,-0.06622,-0.01785,-0.0145,-0.01907,0.00443,-0.03189,-0.01678,0.01358,-0.04425
5.564,0.01251,-0.09369,-0.03876,-0.07599,-0.05569,-0.0499,-0.01617,0.01419,-0.01663,-0.01404,-0.02151,0.0032,-0.03372,-0.01801,0.01862,-0.04517
5.5645,0.01404,-0.05951,-0.04471,-0.0769,-0.04471,-0.05112,-0.01633,0.09903,-0.01633,-0.01434,-0.01923,0.00351,-0.03555,-0.01755,0.0177,-0.04532
5.565,0.01434,-0.02701,-0.04623,-0.0737,-0.03113,-0.05127,-0.01602,0.1326,-0.01892,-0.01541,-0.01755,0.0029,-0.03632,-0.01694,0.01495,-0.04425
5.5655,0.01373,-0.00717,-0.04227,-0.06836,-0.02518,-0.04791,-0.01648,0.09979,-0.02167,-0.01602,-0.02121,0.00214,-0.03723,-0.01785,0.01282,-0.04395
5.566,0.01434,0.00412,-0.0386,-0.06332,-0.02655,-0.04349,-0.01709,0.0415,-0.02365,-0.01633,-0.02914,0.00046,-0.0383,-0.01907,0.01053,-0.04349
5.5665,0.01511,0.01236,-0.03677,-0.05859,-0.02884,-0.0412,-0.0177,0.00473,-0.02365,-0.01709,-0.03616,-0.00244,-0.03738,-0.01801,0.01099,-0.04288
5.567,0.01587,0.01648,-0.03952,-0.05295,-0.0322,-0.03967,-0.01755,0.00168,-0.02197,-0.01862,-0.03906,-0.00427,-0.03342,-0.0145,0.01541,-0.0412
5.5675,0.01617,0.01785,-0.04547,-0.04517,-0.0415,-0.04181,-0.01724,0.00916,-0.01999,-0.01953,-0.03906,-0.00305,-0.02899,-0.01175,0.01923,-0.03922
5.568,0.01602,0.01709,-0.05157,-0.03403,-0.04807,-0.04456,-0.0174,0.0119,-0.01907,-0.01709,-0.03708,-0.00015,-0.02747,-0.01175,0.01724,-0.03845
5.5685,0.01648,0.01709,-0.05554,-0.01984,-0.04562,-0.04669,-0.01678,0.01022,-0.01785,-0.01312,-0.0325,0.00366,-0.0264,-0.01221,0.01648,-0.03983
5.569,0.01862,0.01495,-0.05737,-0.00702,-0.0351,-0.04929,-0.01633,0.00992,-0.01495,-0.01083,-0.02563,0.0061,-0.02335,-0.01312,0.02213,-0.04166
5.5695,0.02136,0.01038,-0.05295,0.00153,-0.02426,-0.04913,-0.01587,0.01221,-0.01099,-0.0119,-0.0206,0.00748,-0.01602,-0.01282,0.02991,-0.04166
5.57,0.02258,0.00519,-0.04364,0.00275,-0.01938,-0.0473,-0.01556,0.01434,-0.00916,-0.01404,-0.01831,0.00595,-0.00763,-0.01282,0.03189,-0.04028
5.5705,0.02258,-0.00122,-0.03464,-0.00214,-0.02014,-0.04715,-0.01526,0.01312,-0.01022,-0.0145,-0.01907,0.00092,0.00107,-0.01312,0.02914,-0.0415
5.571,0.02274,-0.0058,-0.03052,-0.00702,-0.0238,-0.04837,-0.01389,0.00732,-0.01022,-0.01343,-0.02014,-0.00488,0.00839,-0.01312,0.02609,-0.04318
5.5715,0.02365,-0.00793,-0.03906,-0.00687,-0.02548,-0.0499,-0.01389,0.00015,-0.01068,-0.01358,-0.0206,-0.00854,0.01114,-0.01312,0.02563,-0.04425
5.572,0.02426,-0.00931,-0.06882,-0.00183,-0.01999,-0.05112,-0.01556,-0.00534,-0.01038,-0.0148,-0.02167,-0.00732,0.009,-0.01373,0.02548,-0.04364
5.5725,0.02411,-0.01129,-0.11414,0.00595,-0.01007,-0.05081,-0.0174,-0.00702,-0.01038,-0.01587,-0.02319,-0.0029,0.00763,-0.01434,0.02502,-0.04257
5.573,0.02289,-0.01282,-0.14404,0.01526,-0.00305,-0.05005,-0.01755,-0.00565,-0.01129,-0.01633,-0.02441,0.00198,0.01068,-0.01663,0.02457,-0.04242
5.5735,0.02121,-0.00916,-0.12909,0.02426,-0.00107,-0.05066,-0.01678,-0.00275,-0.01312,-0.01801,-0.02594,0.00443,0.01175,-0.02029,0.02441,-0.04364
5.574,0.01862,0.00122,-0.07462,0.03082,-0.00351,-0.05112,-0.01617,-0.00031,-0.01465,-0.01907,-0.02625,0.00336,-0.00046,-0.02335,0.02533,-0.04578
5.5745,0.0174,0.0119,-0.01022,0.03235,-0.00488,-0.05051,-0.01526,0.00046,-0.01572,-0.01968,-0.02502,0.0029,-0.02625,-0.0235,0.02411,-0.04868
5.575,0.01862,0.00946,0.03647,0.03098,-0.0029,-0.0499,-0.01465,0.00153,-0.0174,-0.01907,-0.02365,0.01099,-0.05341,-0.02274,0.0209,-0.04852
5.5755,0.0209,-0.00916,0.05936,0.02853,-0.00092,-0.0499,-0.01389,0.00183,-0.01785,-0.01984,-0.0235,0.0238,-0.07294,-0.02213,0.01831,-0.04654
5.576,0.02197,-0.03235,0.06485,0.02625,-0.00534,-0.05112,-0.01038,0.00229,-0.0174,-0.0209,-0.02167,0.02487,-0.08392,-0.02213,0.01633,-0.0415
5.5765,0.02243,-0.04944,0.0621,0.02533,-0.0148,-0.05264,-0.00626,0.00061,-0.01587,-0.02243,-0.01709,0.00565,-0.08972,-0.02075,0.01205,-0.03754
5.577,0.02548,-0.06104,0.05524,0.02594,-0.02563,-0.05188,-0.00534,-0.00397,-0.01526,-0.02045,-0.00565,-0.01892,-0.09613,-0.01984,0.0032,-0.0354
5.5775,0.0296,-0.06912,0.04257,0.02716,-0.03128,-0.04913,-0.00946,-0.00977,-0.01541,-0.01862,0.01297,-0.02747,-0.10391,-0.01907,-0.00839,-0.03372
5.578,0.03265,-0.07355,0.02609,0.02518,-0.0325,-0.04761,-0.01358,-0.01495,-0.01511,-0.01923,0.02975,-0.01968,-0.1088,-0.01816,-0.0177,-0.03159
5.5785,0.0322,-0.07263,0.00671,0.01816,-0.03723,-0.04761,-0.01434,-0.02213,-0.01465,-0.01801,0.03372,-0.01038,-0.10376,-0.0148,-0.02502,-0.02945
5.579,0.0296,-0.06943,-0.00961,0.00977,-0.04761,-0.04898,-0.01343,-0.03128,-0.01434,-0.01434,0.02319,-0.00717,-0.08743,-0.00946,-0.02945,-0.0293
5.5795,0.02762,-0.06683,-0.02136,0.00259,-0.05524,-0.04868,-0.01175,-0.03845,-0.01373,-0.01068,0.00748,-0.00687,-0.07004,-0.0032,-0.0293,-0.0325
5.58,0.02548,-0.06393,-0.02365,-0.00107,-0.05386,-0.04745,-0.01129,-0.03922,-0.01266,-0.01022,-0.00549,-0.00549,-0.05783,0.00092,-0.0264,-0.03998
5.5805,0.02121,-0.06134,-0.01984,-0.00244,-0.04166,-0.04578,-0.0116,-0.03616,-0.01236,-0.01282,-0.01831,-0.00412,-0.04807,0.00214,-0.02594,-0.04761
5.581,0.0148,-0.05966,-0.01862,-0.00351,-0.03006,-0.04379,-0.01175,-0.03296,-0.01282,-0.01755,-0.0322,-0.00534,-0.03494,0.00031,-0.03204,-0.0502
5.5815,0.00748,-0.06149,-0.02747,-0.00519,-0.02914,-0.04166,-0.01144,-0.03265,-0.01389,-0.02228,-0.0441,-0.00717,-0.02182,-0.0032,-0.03738,-0.0473
5.582,-0.00061,-0.06546,-0.05066,-0.00839,-0.03906,-0.04074,-0.01221,-0.03555,-0.01587,-0.02457,-0.05051,-0.00732,-0.01358,-0.00671,-0.02396,-0.04364
5.5825,-0.01236,-0.06775,-0.08118,-0.01129,-0.04562,-0.04211,-0.01282,-0.04074,-0.01709,-0.02716,-0.05188,-0.00458,-0.01205,-0.00778,0.01831,-0.04166
5.583,-0.02487,-0.06775,-0.11261,-0.01633,-0.04074,-0.04333,-0.01144,-0.0386,-0.01755,-0.02823,-0.05096,-0.00214,-0.01373,-0.00839,0.07034,-0.04135
5.5835,-0.0351,-0.06866,-0.13824,-0.01968,-0.02457,-0.04242,-0.00992,-0.02228,-0.01663,-0.02869,-0.04944,-0.00214,-0.0177,-0.01114,0.09521,-0.0412
5.584,-0.03815,-0.0737,-0.14618,-0.02014,-0.00931,-0.04196,-0.01007,0.00031,-0.01709,-0.02655,-0.04517,-0.00458,-0.02243,-0.01816,0.08408,-0.0441
5.5845,-0.03616,-0.08331,-0.12665,-0.01404,0.00061,-0.0415,-0.01312,0.00687,-0.01999,-0.02228,-0.03769,-0.00656,-0.02914,-0.02808,0.07782,-0.04761
5.585,-0.03326,-0.09018,-0.10345,-0.00427,0.01068,-0.04013,-0.01724,-0.01358,-0.02304,-0.02045,-0.02991,-0.00824,-0.03632,-0.03525,0.10025,-0.05142
5.5855,-0.0322,-0.08636,-0.10895,0.00259,0.02426,-0.03586,-0.01953,-0.0444,-0.02289,-0.02213,-0.02457,-0.00916,-0.0441,-0.03647,0.11459,-0.05554
5.586,-0.03311,-0.07172,-0.13458,0.00381,0.03387,-0.02945,-0.01953,-0.05844,-0.01999,-0.02502,-0.02197,-0.0087,-0.05005,-0.03265,0.07874,-0.05997
5.5865,-0.03403,-0.05646,-0.12634,0.00046,0.03189,-0.02716,-0.01617,-0.04639,-0.01434,-0.02502,-0.02151,-0.0061,-0.05188,-0.02899,0.02319,-0.06134
5.587,-0.03143,-0.04654,-0.05707,-0.00397,0.01358,-0.03067,-0.01343,-0.02335,-0.00778,-0.01816,-0.02304,-0.00305,-0.0499,-0.0264,0.00122,-0.0528
5.5875,-0.0264,-0.04196,0.03464,-0.00565,-0.01999,-0.03677,-0.01495,-0.00015,-0.00107,-0.01099,-0.0235,-0.00076,-0.04517,-0.02457,0.01465,-0.03067
5.588,-0.02045,-0.03616,0.0943,-0.00458,-0.06271,-0.04471,-0.0206,0.02365,0.00412,-0.01022,-0.01877,-0.00107,-0.03967,-0.02289,0.02899,-0.01022
5.5885,-0.0145,-0.03113,0.10361,-0.00259,-0.1033,-0.05188,-0.0267,0.0499,0.00626,-0.01617,-0.00885,-0.00229,-0.0325,-0.02075,0.02686,-0.01068
5.589,-0.00778,-0.02884,0.08224,-0.00153,-0.12878,-0.05478,-0.02975,0.07034,0.00549,-0.0209,0.00229,-0.0029,-0.02487,-0.01846,0.02014,-0.02792
5.5895,-0.00137,-0.02899,0.05661,-0.00046,-0.13321,-0.05188,-0.02777,0.07675,0.00458,-0.01877,0.00961,-0.00275,-0.01923,-0.01617,0.01633,-0.04089
5.59,0.00229,-0.03052,0.03662,0.00168,-0.11719,-0.0444,-0.01984,0.06729,0.00366,-0.01205,0.01053,-0.00198,-0.01923,-0.01617,0.01434,-0.04059
5.5905,0.00488,-0.03189,0.0238,0.00443,-0.08682,-0.03937,-0.0087,0.04837,0.00092,-0.01221,0.00732,-0.00229,-0.02274,-0.01877,0.01648,-0.03632
5.591,0.00671,-0.03067,0.01785,0.0058,-0.05493,-0.04044,-0.00061,0.02853,-0.00366,-0.02258,0.00259,-0.00305,-0.02594,-0.02228,0.02701,-0.03754
5.5915,0.00992,-0.0267,0.01312,0.00565,-0.03647,-0.04608,-0.00031,0.01663,-0.00854,-0.0354,-0.00198,-0.00473,-0.02655,-0.02487,0.03586,-0.04044
5.592,0.01251,-0.02243,0.00488,0.00397,-0.03189,-0.05249,-0.00763,0.01266,-0.01282,-0.04242,-0.00458,-0.00519,-0.02258,-0.0267,0.02869,-0.0415
5.5925,0.01282,-0.02136,-0.00534,0.00275,-0.03174,-0.05829,-0.01236,0.01404,-0.01511,-0.04364,-0.00229,-0.00458,-0.0174,-0.02838,0.00702,-0.04105
5.593,0.01251,-0.02609,-0.01541,0.00381,-0.03265,-0.06577,-0.00565,0.01785,-0.01694,-0.04211,0.00443,-0.00412,-0.01602,-0.02884,-0.0087,-0.04074
5.5935,0.01328,-0.03052,-0.02411,0.00443,-0.03464,-0.07813,0.00793,0.02045,-0.01892,-0.03967,0.01709,-0.00473,-0.01953,-0.02823,-0.00534,-0.04135
5.594,0.01389,-0.03403,-0.03464,0.00473,-0.03647,-0.0946,0.01083,0.02304,-0.02457,-0.03387,0.03311,-0.0058,-0.02548,-0.02563,0.00977,-0.0412
5.5945,0.01465,-0.03113,-0.04761,0.00427,-0.03281,-0.10529,-0.00015,0.02151,-0.0351,-0.0267,0.04471,-0.00595,-0.02747,-0.02182,0.01938,-0.04074
5.595,0.01724,-0.02701,-0.05997,0.00641,-0.02304,-0.09995,-0.01465,0.01434,-0.04761,-0.02106,0.0444,-0.00519,-0.02533,-0.01633,0.01511,-0.04044
5.5955,0.02335,-0.02319,-0.06821,0.0087,-0.01297,-0.07965,-0.01862,0.00565,-0.05569,-0.01953,0.03006,-0.00336,-0.02289,-0.00992,0.00214,-0.04196
5.596,0.03143,-0.02213,-0.07126,0.00961,-0.00534,-0.05829,-0.01495,0.00092,-0.05875,-0.02045,0.00916,-0.00107,-0.02441,-0.00259,-0.01114,-0.04456
5.5965,0.03311,-0.01907,-0.07202,0.00977,-0.00061,-0.04654,-0.01205,0.00137,-0.0563,-0.02289,-0.00839,0.00031,-0.02884,0.0029,-0.02289,-0.04761
5.597,0.02808,-0.01205,-0.07233,0.00946,-0.00198,-0.04547,-0.01373,0.00275,-0.0499,-0.02228,-0.02106,0.00183,-0.03693,0.00275,-0.02625,-0.04852
5.5975,0.02136,-0.00427,-0.06821,0.009,-0.01007,-0.04562,-0.01663,0.00305,-0.03906,-0.01938,-0.03464,0.00397,-0.04227,-0.00427,-0.0177,-0.04745
5.598,0.01831,-0.00397,-0.05875,0.00748,-0.02655,-0.04028,-0.01862,0.00107,-0.02701,-0.01556,-0.05661,0.00351,-0.04288,-0.01831,-0.00229,-0.04639
5.5985,0.01755,-0.01541,-0.04547,0.00534,-0.04578,-0.03143,-0.0174,-0.00107,-0.01678,-0.01358,-0.08194,-0.00092,-0.03815,-0.03708,0.0145,-0.04745
5.599,0.01602,-0.03433,-0.03342,0.00381,-0.05981,-0.02319,-0.01495,-0.00336,-0.01083,-0.0116,-0.09644,-0.00732,-0.03082,-0.0621,0.02396,-0.047
5.5995,0.01282,-0.05005,-0.02136,0.00305,-0.06516,-0.01617,-0.01221,-0.0058,-0.00702,-0.00931,-0.09369,-0.00732,-0.02716,-0.0798,0.02365,-0.04532
5.6,0.00992,-0.05249,-0.00549,0.0,-0.06393,-0.00931,-0.01022,-0.0087,-0.0058,-0.00763,-0.07965,-0.00015,-0.02975,-0.07095,0.01648,-0.04303
5.6005,0.00839,-0.04074,0.01495,-0.00351,-0.06058,0.00031,-0.00946,-0.01068,-0.00626,-0.00732,-0.06134,0.00793,-0.03662,-0.03281,0.0061,-0.04135
5.601,0.00763,-0.01831,0.03448,-0.00427,-0.05569,0.00778,-0.00931,-0.01129,-0.00992,-0.00671,-0.04242,0.01022,-0.04303,0.00824,0.00122,-0.04044
5.6015,0.00824,0.00214,0.04272,-0.00092,-0.04623,0.00916,-0.01022,-0.01129,-0.01663,-0.00748,-0.02258,0.00839,-0.0441,0.02594,0.00275,-0.04089
5.602,0.00977,0.01007,0.02747,0.00244,-0.03082,-0.00061,-0.01144,-0.01007,-0.02243,-0.00809,-0.0029,0.00702,-0.03952,0.02228,0.00519,-0.04105
5.6025,0.0087,0.00519,-0.01556,0.00366,-0.01938,-0.02655,-0.01297,-0.00931,-0.02487,-0.01022,0.01663,0.01144,-0.02975,0.01251,0.00504,-0.04211
5.603,0.00412,-0.0058,-0.06699,0.00305,-0.01556,-0.06668,-0.01373,-0.00977,-0.0235,-0.01038,0.03754,0.02167,-0.01663,0.00336,0.00244,-0.04257
5.6035,-0.00183,-0.01678,-0.0914,0.00229,-0.01968,-0.1059,-0.01297,-0.01129,-0.02045,-0.01068,0.0592,0.03448,-0.00122,-0.00641,0.00031,-0.04242
5.604,-0.00748,-0.01846,-0.07431,0.00397,-0.02655,-0.12604,-0.0116,-0.01312,-0.01694,-0.00641,0.0769,0.04242,0.00977,-0.01984,-0.00122,-0.04196
5.6045,-0.0119,-0.00458,-0.0415,0.00809,-0.03189,-0.12039,-0.01175,-0.01404,-0.01511,0.0,0.0766,0.04044,0.0116,-0.03403,-0.00244,-0.04105
5.605,-0.01495,0.00885,-0.02472,0.01297,-0.03174,-0.09811,-0.01404,-0.01312,-0.01404,0.00549,0.04623,0.02853,0.00671,-0.0415,-0.00229,-0.04074
5.6055,-0.01587,-0.00412,-0.02823,0.01602,-0.02884,-0.07431,-0.01602,-0.01099,-0.0116,0.00732,-0.00504,0.01282,0.00275,-0.03922,-0.00198,-0.04059
5.606,-0.01358,-0.05096,-0.03815,0.01633,-0.02518,-0.05905,-0.01663,-0.00992,-0.00931,0.00427,-0.05173,-0.00275,-0.00031,-0.02853,-0.00198,-0.04135
5.6065,-0.01114,-0.10498,-0.04593,0.01389,-0.02609,-0.05386,-0.01572,-0.00931,-0.009,-0.00076,-0.07614,-0.01633,-0.01007,-0.02045,-0.00259,-0.04074
5.607,-0.01083,-0.13626,-0.05707,0.00916,-0.02975,-0.05417,-0.01282,-0.00839,-0.01007,-0.00595,-0.07858,-0.02625,-0.02869,-0.02274,-0.00366,-0.04135
5.6075,-0.01419,-0.14069,-0.07339,0.00458,-0.03265,-0.05402,-0.01083,-0.00854,-0.01068,-0.01205,-0.07233,-0.03128,-0.05386,-0.03174,-0.00763,-0.0415
5.608,-0.01694,-0.13687,-0.08606,0.00107,-0.03235,-0.05127,-0.01068,-0.00961,-0.00916,-0.01801,-0.065,-0.03418,-0.07629,-0.03708,-0.01236,-0.04517
5.6085,-0.01785,-0.13458,-0.09232,-0.0032,-0.03143,-0.04852,-0.0119,-0.01007,-0.00824,-0.02289,-0.05905,-0.03586,-0.08942,-0.03662,-0.01556,-0.04791
5.609,-0.02014,-0.13138,-0.09125,-0.01205,-0.03067,-0.04608,-0.01358,-0.00946,-0.00946,-0.02411,-0.05127,-0.0351,-0.09109,-0.03464,-0.0145,-0.04715
5.6095,-0.02655,-0.12329,-0.08713,-0.02121,-0.0293,-0.04456,-0.01358,-0.009,-0.01266,-0.0235,-0.04257,-0.02991,-0.08301,-0.03189,-0.00778,-0.04349
5.61,-0.03555,-0.11032,-0.07919,-0.02579,-0.02747,-0.04303,-0.01236,-0.00809,-0.01556,-0.02319,-0.0354,-0.02304,-0.07263,-0.02579,0.00443,-0.04089
5.6105,-0.04318,-0.09613,-0.065,-0.02472,-0.0264,-0.04272,-0.0119,-0.00824,-0.01724,-0.02579,-0.03174,-0.02029,-0.06332,-0.01816,0.01358,-0.04211
5.611,-0.04868,-0.08224,-0.04761,-0.0209,-0.02426,-0.04272,-0.01419,-0.00824,-0.01678,-0.02899,-0.02914,-0.02228,-0.05341,-0.01266,0.00626,-0.04547
5.6115,-0.04913,-0.07111,-0.0351,-0.01907,-0.02167,-0.04105,-0.01785,-0.00732,-0.01541,-0.0293,-0.02258,-0.02365,-0.04211,-0.01312,-0.01465,-0.04761
5.612,-0.04654,-0.06424,-0.0325,-0.02243,-0.02106,-0.03937,-0.02045,-0.00732,-0.0148,-0.02808,-0.0116,-0.01953,-0.0354,-0.01816,-0.02823,-0.04654
5.6125,-0.04074,-0.06027,-0.03418,-0.02762,-0.0209,-0.03891,-0.01923,-0.00809,-0.01495,-0.0267,-0.00015,-0.0119,-0.03464,-0.0238,-0.0209,-0.04089
5.613,-0.0322,-0.05692,-0.03632,-0.03128,-0.01709,-0.03815,-0.01633,-0.00748,-0.01373,-0.02609,0.0087,-0.00092,-0.03571,-0.02579,-0.00061,-0.03403
5.6135,-0.02304,-0.05356,-0.03708,-0.03098,-0.01251,-0.03677,-0.01343,-0.00702,-0.01083,-0.02655,0.01572,0.01099,-0.03479,-0.02365,0.02274,-0.02914
5.614,-0.01343,-0.04898,-0.03845,-0.02853,-0.01068,-0.03723,-0.01083,-0.00809,-0.00748,-0.02853,0.01877,0.02258,-0.03326,-0.01953,0.0444,-0.02945
5.6145,-0.00626,-0.04227,-0.03891,-0.02365,-0.01434,-0.03845,-0.01144,-0.01053,-0.00656,-0.02914,0.02045,0.02853,-0.03204,-0.01785,0.05615,-0.03433
5.615,-0.00305,-0.0354,-0.03723,-0.01831,-0.02213,-0.03937,-0.01465,-0.0116,-0.00671,-0.02853,0.02228,0.02762,-0.03342,-0.0174,0.04593,-0.03967
5.6155,-0.00504,-0.02914,-0.03403,-0.01251,-0.02731,-0.04028,-0.01663,-0.01099,-0.00626,-0.02655,0.02457,0.02243,-0.03708,-0.01312,0.02151,-0.04196
5.616,-0.01007,-0.02518,-0.03143,-0.0087,-0.03021,-0.04135,-0.01541,-0.01038,-0.00626,-0.02274,0.02747,0.01587,-0.0415,-0.00381,0.00671,-0.04089
5.6165,-0.01205,-0.02258,-0.03036,-0.00793,-0.03113,-0.04395,-0.01144,-0.00931,-0.00595,-0.01892,0.02884,0.01038,-0.04364,0.00381,0.00671,-0.04074
5.617,-0.01068,-0.02243,-0.02838,-0.00977,-0.03113,-0.04776,-0.01083,-0.00824,-0.00565,-0.01373,0.02823,0.00519,-0.04074,0.00168,0.00763,-0.04242
5.6175,-0.00671,-0.02426,-0.02701,-0.01175,-0.02975,-0.04944,-0.01251,-0.00549,-0.00427,-0.01053,0.02655,0.00381,-0.03601,-0.01068,0.0,-0.04532
5.618,-0.00397,-0.02747,-0.02823,-0.01129,-0.03082,-0.04913,-0.01434,-0.00366,-0.0032,-0.00824,0.02457,0.0058,-0.03418,-0.02563,-0.01129,-0.04547
5.6185,-0.0032,-0.02838,-0.03113,-0.01007,-0.03296,-0.04684,-0.0148,-0.0032,-0.00458,-0.00763,0.02411,0.00916,-0.03571,-0.03265,-0.01541,-0.04242
5.619,-0.00397,-0.02747,-0.03387,-0.00961,-0.03372,-0.04272,-0.01312,-0.00275,-0.00763,-0.00885,0.02136,0.00992,-0.03647,-0.02594,-0.00977,-0.04028
5.6195,-0.00534,-0.02548,-0.03387,-0.01068,-0.02838,-0.04166,-0.01236,-0.00153,-0.00977,-0.00946,0.01831,0.00809,-0.03433,-0.0087,-0.00015,-0.0383
5.62,-0.00656,-0.02335,-0.03021,-0.01099,-0.01831,-0.04059,-0.01343,-0.00107,-0.01099,-0.00839,0.01526,0.00504,-0.02884,0.00824,0.00641,-0.03815
5.6205,-0.00626,-0.0209,-0.02701,-0.01022,-0.00793,-0.03815,-0.0145,-0.00244,-0.01144,-0.00793,0.01297,0.00046,-0.02304,0.01053,0.00671,-0.03906
5.621,-0.00519,-0.01968,-0.02396,-0.00809,-0.00412,-0.03601,-0.01648,-0.00458,-0.01083,-0.00793,0.0116,-0.00488,-0.02106,-0.01266,0.00702,-0.04288
5.6215,-0.00549,-0.01999,-0.02289,-0.00763,-0.0087,-0.0354,-0.01877,-0.00473,-0.00916,-0.00778,0.01083,-0.0087,-0.0206,-0.04684,0.009,-0.04684
5.622,-0.00763,-0.02167,-0.02228,-0.00671,-0.0145,-0.03616,-0.01862,-0.00427,-0.009,-0.00763,0.01114,-0.01282,-0.01999,-0.06134,0.01221,-0.04898
5.6225,-0.01022,-0.0235,-0.02243,-0.00687,-0.01877,-0.03571,-0.01755,-0.00351,-0.0087,-0.00778,0.00946,-0.01877,-0.01968,-0.04364,0.0177,-0.05051
5.623,-0.01175,-0.02502,-0.02258,-0.00732,-0.02441,-0.03555,-0.01617,-0.00229,-0.00809,-0.00839,0.00793,-0.0235,-0.02045,-0.01572,0.02579,-0.05234
5.6235,-0.01465,-0.02625,-0.02106,-0.00824,-0.03799,-0.03662,-0.01556,-0.00153,-0.00763,-0.00748,0.00702,-0.02243,-0.02121,-0.00656,0.02655,-0.05356
5.624,-0.01801,-0.03036,-0.01953,-0.00824,-0.05844,-0.03784,-0.01572,-0.00031,-0.00839,-0.00671,0.00702,-0.01358,-0.02075,-0.01556,0.0116,-0.05356
5.6245,-0.02014,-0.0322,-0.01862,-0.00778,-0.07492,-0.03662,-0.01572,0.0,-0.00885,-0.00519,0.0058,-0.00336,-0.01877,-0.02274,-0.00809,-0.0502
5.625,-0.02167,-0.03082,-0.01785,-0.00809,-0.07858,-0.03342,-0.01648,-0.00015,-0.00916,-0.00229,0.00336,-0.00061,-0.01785,-0.0177,-0.01633,-0.04608
5.6255,-0.02243,-0.02686,-0.01663,-0.00946,-0.07278,-0.0293,-0.0174,-0.00061,-0.0087,0.00259,-0.00046,-0.00656,-0.02014,-0.00839,-0.01114,-0.04471
5.626,-0.02426,-0.02747,-0.01572,-0.00931,-0.06241,-0.02701,-0.01678,-0.00122,-0.00763,0.00702,-0.00504,-0.01343,-0.0238,-0.0029,-0.00534,-0.04608
5.6265,-0.02518,-0.03632,-0.01404,-0.00977,-0.05173,-0.02792,-0.01526,-0.00183,-0.01068,0.00671,-0.00839,-0.0148,-0.02716,-0.00504,-0.00076,-0.0444
5.627,-0.02655,-0.04776,-0.0116,-0.01038,-0.04288,-0.03082,-0.01511,-0.00336,-0.01648,0.00046,-0.00885,-0.01114,-0.03143,-0.01022,0.01205,-0.03723
5.6275,-0.03235,-0.05722,-0.00824,-0.01083,-0.03632,-0.03159,-0.01511,-0.00488,-0.02258,-0.00931,-0.0087,-0.00778,-0.03479,-0.01892,0.03418,-0.03036
5.628,-0.04227,-0.07019,-0.00519,-0.01007,-0.03098,-0.03021,-0.0174,-0.00626,-0.02563,-0.01694,-0.00992,-0.00687,-0.03448,-0.03021,0.0528,-0.03067
5.6285,-0.04684,-0.0853,-0.00458,-0.00916,-0.02609,-0.0267,-0.02319,-0.00519,-0.02533,-0.02197,-0.01221,-0.00732,-0.0325,-0.03601,0.05234,-0.03799
5.629,-0.03769,-0.08804,-0.00595,-0.00885,-0.02243,-0.0238,-0.03143,-0.00305,-0.02518,-0.02441,-0.01419,-0.00748,-0.03326,-0.03006,0.0322,-0.04379
5.6295,-0.02289,-0.06851,-0.00549,-0.009,-0.02182,-0.02365,-0.03418,0.00015,-0.02563,-0.02594,-0.0148,-0.00702,-0.03662,-0.01648,0.00458,-0.04425
5.63,-0.01266,-0.03922,-0.00381,-0.0087,-0.0238,-0.02426,-0.02991,0.00107,-0.02716,-0.02579,-0.01404,-0.00397,-0.03708,0.00107,-0.01389,-0.04044
5.6305,-0.00916,-0.01907,-0.00305,-0.00854,-0.02151,-0.02792,-0.02777,0.00137,-0.02701,-0.02304,-0.01251,0.00153,-0.03464,0.01801,-0.01602,-0.03616
5.631,-0.00809,-0.01144,-0.00671,-0.01068,-0.01526,-0.04822,-0.03433,0.00076,-0.02625,-0.02243,-0.01083,0.00854,-0.03403,0.02838,-0.01038,-0.03372
5.6315,-0.00763,-0.00336,-0.01205,-0.01343,-0.0087,-0.08621,-0.04303,0.00015,-0.02411,-0.02579,-0.00946,0.0148,-0.03601,0.01862,-0.00916,-0.03342
5.632,-0.00931,0.00839,-0.01938,-0.01617,-0.00763,-0.12497,-0.04425,0.00092,-0.02365,-0.03418,-0.00778,0.01816,-0.03815,-0.00824,-0.01541,-0.03571
5.6325,-0.01358,0.01694,-0.02945,-0.01785,-0.01236,-0.1384,-0.03601,0.00046,-0.02304,-0.03952,-0.0058,0.01785,-0.03632,-0.03143,-0.02197,-0.03906
5.633,-0.0174,0.0148,-0.04135,-0.01755,-0.02365,-0.12054,-0.01602,-0.00229,-0.02319,-0.03906,-0.00534,0.01343,-0.03372,-0.03632,-0.01968,-0.0415
5.6335,-0.01846,0.00397,-0.05478,-0.01648,-0.03815,-0.09811,0.01953,-0.00656,-0.02121,-0.03281,-0.00641,0.00717,-0.03235,-0.03006,0.00092,-0.04272
5.634,-0.01801,-0.00763,-0.06485,-0.01633,-0.0621,-0.08957,0.05386,-0.01129,-0.01816,-0.02914,-0.00854,0.00351,-0.03342,-0.0264,0.03845,-0.0441
5.6345,-0.01694,-0.01495,-0.07294,-0.01465,-0.08682,-0.09216,0.04761,-0.01556,-0.01755,-0.02899,-0.00946,0.00397,-0.03448,-0.02777,0.06973,-0.0444
5.635,-0.01678,-0.01923,-0.0798,-0.01312,-0.09781,-0.0914,-0.00397,-0.01892,-0.01816,-0.03159,-0.00992,0.00549,-0.03403,-0.02762,0.06088,-0.04608
5.6355,-0.01755,-0.0209,-0.08331,-0.01053,-0.08148,-0.07889,-0.05203,-0.02045,-0.01877,-0.03082,-0.00992,0.00565,-0.03342,-0.02579,0.01831,-0.04745
5.636,-0.01587,-0.02121,-0.08087,-0.01083,-0.04776,-0.05737,-0.05386,-0.01907,-0.01892,-0.02518,-0.01236,0.00443,-0.03326,-0.02457,-0.01938,-0.04684
5.6365,-0.01251,-0.02151,-0.07248,-0.0119,-0.02121,-0.0351,-0.01907,-0.01419,-0.01801,-0.01938,-0.01373,0.00244,-0.03281,-0.02655,-0.01892,-0.047
5.637,-0.00763,-0.02029,-0.06241,-0.01144,-0.01785,-0.01938,0.01678,-0.00763,-0.01709,-0.01648,-0.01465,0.0029,-0.03143,-0.02945,0.00671,-0.047
5.6375,-0.00275,-0.0177,-0.05569,-0.00961,-0.02563,-0.01007,0.04028,-0.00198,-0.01587,-0.01694,-0.00916,0.00275,-0.03098,-0.02853,0.02884,-0.04639
5.638,0.00076,-0.01556,-0.05219,-0.00671,-0.03082,-0.00015,0.04883,0.00153,-0.01358,-0.01633,0.00534,0.0032,-0.03128,-0.02472,0.03326,-0.0444
5.6385,0.00259,-0.01541,-0.05035,-0.00565,-0.03128,0.01083,0.03159,0.0,-0.01114,-0.01556,0.02441,0.00549,-0.03113,-0.02121,0.02945,-0.03998
5.639,0.00366,-0.01862,-0.04898,-0.009,-0.0322,0.01831,-0.01022,-0.00412,-0.00854,-0.01572,0.03052,0.00656,-0.02853,-0.02167,0.03189,-0.03372
5.6395,0.00443,-0.02289,-0.047,-0.01236,-0.03647,0.01419,-0.04364,-0.00717,-0.00885,-0.0177,0.01862,0.00763,-0.02441,-0.0235,0.0325,-0.03036
5.64,0.00473,-0.02716,-0.04562,-0.01312,-0.03815,-0.00229,-0.04333,-0.0058,-0.0119,-0.01709,0.00504,0.0061,-0.02426,-0.02289,0.02396,-0.0325
5.6405,0.00458,-0.0296,-0.0441,-0.01175,-0.03372,-0.0235,-0.02335,-0.00259,-0.01312,-0.01495,0.00153,0.00443,-0.02914,-0.01984,0.00824,-0.03677
5.641,0.00305,-0.03098,-0.04074,-0.01068,-0.0264,-0.03967,-0.01022,0.00076,-0.01221,-0.01419,0.00519,0.00351,-0.03479,-0.0174,-0.00229,-0.03998
5.6415,0.00198,-0.03128,-0.0383,-0.01221,-0.0238,-0.05005,-0.00183,0.00107,-0.01007,-0.01602,0.00519,0.00351,-0.03799,-0.01694,-0.00076,-0.04013
5.642,0.00183,-0.03387,-0.03647,-0.01373,-0.02472,-0.07095,0.00931,-0.00031,-0.01114,-0.01709,0.00122,0.00351,-0.0383,-0.01755,0.00717,-0.0412
5.6425,0.00153,-0.03845,-0.03662,-0.01495,-0.02502,-0.1001,0.01419,-0.00305,-0.01526,-0.01801,-0.00351,0.00381,-0.03708,-0.0177,0.01297,-0.04303
5.643,0.00046,-0.04181,-0.0354,-0.01556,-0.02487,-0.11337,0.00229,-0.00412,-0.01709,-0.01923,-0.00534,0.00519,-0.03571,-0.01892,0.01373,-0.0441
5.6435,-0.00015,-0.04333,-0.03113,-0.01801,-0.02396,-0.09232,-0.0174,-0.00137,-0.01633,-0.02045,-0.00443,0.00595,-0.03204,-0.01846,0.00992,-0.04456
5.644,0.00015,-0.04517,-0.02716,-0.02029,-0.02396,-0.05188,-0.03006,0.00198,-0.0148,-0.02151,-0.00473,0.00519,-0.02396,-0.01755,0.0058,-0.04532
5.6445,0.0,-0.04639,-0.02487,-0.02213,-0.02487,-0.02548,-0.03021,0.0029,-0.01587,-0.02121,-0.00458,0.00443,-0.0116,-0.0177,0.0029,-0.04593
5.645,-0.00122,-0.04745,-0.02289,-0.02182,-0.0264,-0.02365,-0.02396,0.00153,-0.01862,-0.02213,-0.00336,0.00259,-0.00427,-0.01801,-0.00031,-0.04456
5.6455,-0.0061,-0.04578,-0.02151,-0.02213,-0.03052,-0.03357,-0.01709,0.00031,-0.01953,-0.02258,-0.00412,0.00046,-0.00916,-0.01785,-0.00214,-0.04227
5.646,-0.01373,-0.04425,-0.01999,-0.02289,-0.03571,-0.04211,-0.01114,0.00046,-0.01663,-0.02335,-0.00839,-0.00122,-0.02335,-0.01846,-0.00275,-0.04044
5.6465,-0.02106,-0.04501,-0.01907,-0.0235,-0.03937,-0.04837,-0.00595,0.00122,-0.01419,-0.02106,-0.01572,-0.00229,-0.03525,-0.01877,-0.00458,-0.0412
5.647,-0.0238,-0.04868,-0.02014,-0.02335,-0.04089,-0.05402,-0.00214,0.00046,-0.01602,-0.0174,-0.0209,-0.00397,-0.03555,-0.02014,-0.00549,-0.04257
5.6475,-0.02151,-0.05249,-0.02182,-0.02289,-0.04028,-0.05585,-0.00153,-0.00061,-0.01831,-0.01572,-0.02014,-0.0032,-0.02777,-0.02228,-0.00656,-0.04196
5.648,-0.02014,-0.05417,-0.02258,-0.02426,-0.03571,-0.0528,-0.00427,-0.00122,-0.01862,-0.01755,-0.01038,-0.00076,-0.02136,-0.02213,-0.00519,-0.04013
5.6485,-0.01938,-0.05249,-0.02151,-0.02609,-0.02899,-0.04822,-0.01099,-0.00153,-0.0177,-0.02228,0.01038,0.00137,-0.0235,-0.01984,-0.00046,-0.03952
5.649,-0.01694,-0.05188,-0.02151,-0.02579,-0.01785,-0.04333,-0.01556,-0.00168,-0.01602,-0.02457,0.03616,0.00061,-0.03098,-0.01755,0.00259,-0.04074
5.6495,-0.01297,-0.05417,-0.02411,-0.02335,-0.00351,-0.03845,-0.01389,-0.00092,-0.01541,-0.02167,0.04684,-0.00183,-0.03754,-0.0177,0.00214,-0.04135
5.65,-0.00916,-0.05859,-0.02777,-0.02213,0.00763,-0.03418,-0.009,0.00061,-0.01434,-0.01633,0.02945,-0.00397,-0.03555,-0.02029,-0.00031,-0.04181
5.6505,-0.00824,-0.06027,-0.03021,-0.02319,0.00717,-0.03189,-0.00702,0.00015,-0.01328,-0.01129,-0.00717,-0.00443,-0.02548,-0.02319,0.0,-0.04227
5.651,-0.01007,-0.0589,-0.03204,-0.02472,-0.00366,-0.03159,-0.00702,-0.00259,-0.01099,-0.00885,-0.04074,-0.00366,-0.0148,-0.02411,0.00336,-0.04318
5.6515,-0.0119,-0.05463,-0.03433,-0.0238,-0.01663,-0.03433,-0.00824,-0.00473,-0.00763,-0.00763,-0.05569,-0.0029,-0.01617,-0.02319,0.00565,-0.04425
5.652,-0.01221,-0.05051,-0.03784,-0.02106,-0.01984,-0.03586,-0.01144,-0.00504,-0.00504,-0.00763,-0.04913,-0.00198,-0.0322,-0.02136,0.00397,-0.04486
5.6525,-0.01114,-0.04852,-0.04059,-0.01892,-0.01816,-0.03586,-0.01663,-0.00351,-0.00488,-0.00824,-0.02975,-0.00046,-0.05463,-0.02075,0.00183,-0.0444
5.653,-0.00885,-0.04822,-0.04135,-0.01816,-0.01877,-0.03693,-0.01877,-0.00244,-0.00504,-0.01022,-0.01312,0.00122,-0.06897,-0.02014,0.00259,-0.04303
5.6535,-0.00732,-0.04776,-0.03967,-0.01846,-0.02289,-0.03952,-0.0177,-0.00214,-0.00412,-0.01358,-0.01022,0.00198,-0.06912,-0.01938,0.00565,-0.04242
5.654,-0.00671,-0.04684,-0.0383,-0.01923,-0.0267,-0.04349,-0.01801,-0.00046,-0.00366,-0.01633,-0.0206,0.00107,-0.06195,-0.01831,0.0061,-0.04196
5.6545,-0.00641,-0.04562,-0.03799,-0.01984,-0.02472,-0.04807,-0.01968,0.00015,-0.00412,-0.02029,-0.03357,-0.00092,-0.05981,-0.0174,0.00443,-0.03967
5.655,-0.00565,-0.04684,-0.03937,-0.02045,-0.01907,-0.05569,-0.02106,-0.00061,-0.00656,-0.02258,-0.04471,-0.00366,-0.06638,-0.01892,0.00366,-0.03601
5.6555,-0.00534,-0.04944,-0.03983,-0.02182,-0.01541,-0.07324,-0.01968,-0.00183,-0.009,-0.02502,-0.05493,-0.00626,-0.07202,-0.02029,0.00458,-0.03433
5.656,-0.00519,-0.05127,-0.0386,-0.02182,-0.01465,-0.10147,-0.01755,-0.00168,-0.01129,-0.02487,-0.06775,-0.00992,-0.06592,-0.01968,0.00504,-0.03616
5.6565,-0.00778,-0.05295,-0.03891,-0.02121,-0.02472,-0.12039,-0.01694,-0.00061,-0.01434,-0.02441,-0.08026,-0.01236,-0.04684,-0.01724,0.0058,-0.03967
5.657,-0.01053,-0.05447,-0.04807,-0.0206,-0.04059,-0.1062,-0.0174,-0.00076,-0.01617,-0.02228,-0.08911,-0.01221,-0.02792,-0.0148,0.00687,-0.04242
5.6575,-0.01083,-0.05371,-0.07172,-0.02045,-0.05783,-0.06592,-0.01755,-0.00198,-0.01831,-0.01877,-0.08987,-0.00946,-0.01984,-0.01434,0.00839,-0.04257
5.658,-0.00931,-0.04883,-0.10117,-0.0206,-0.06104,-0.03098,-0.01602,-0.00305,-0.01953,-0.01541,-0.08209,-0.00671,-0.02243,-0.0177,0.00885,-0.04242
5.6585,-0.00702,-0.0412,-0.11536,-0.01831,-0.04425,-0.02106,-0.01465,-0.0029,-0.02151,-0.01465,-0.06882,-0.00656,-0.02716,-0.02167,0.00793,-0.04257
5.659,-0.00397,-0.03662,-0.10071,-0.01419,-0.02258,-0.02045,-0.01526,-0.00168,-0.02457,-0.01648,-0.05707,-0.00809,-0.0293,-0.02365,0.00732,-0.04288
5.6595,-0.00137,-0.03983,-0.06683,-0.01083,-0.01968,-0.01282,-0.01709,-0.00046,-0.02899,-0.01709,-0.0499,-0.0058,-0.02823,-0.02411,0.00824,-0.04074
5.66,0.00183,-0.04974,-0.03265,-0.01053,-0.04364,-0.00061,-0.01785,0.00122,-0.03281,-0.01892,-0.04562,-0.00259,-0.02808,-0.0238,0.00992,-0.03784
5.6605,0.00351,-0.06027,-0.01114,-0.01297,-0.07004,0.00656,-0.01755,0.00137,-0.03662,-0.02182,-0.04044,-0.00153,-0.0293,-0.02243,0.00824,-0.03693
5.661,0.00229,-0.06577,-0.00122,-0.01419,-0.06454,0.00443,-0.01724,0.00015,-0.03845,-0.02594,-0.03464,-0.00397,-0.03326,-0.02228,0.00656,-0.03876
5.6615,0.00076,-0.06485,-0.00351,-0.01358,-0.02518,-0.00168,-0.01587,-0.00061,-0.03815,-0.02777,-0.02945,-0.00656,-0.0386,-0.02274,0.00381,-0.04013
5.662,-0.00046,-0.06149,-0.02213,-0.01251,0.02274,-0.00839,-0.01358,-0.00061,-0.03265,-0.02686,-0.02609,-0.00443,-0.04456,-0.02304,0.00214,-0.04166
5.6625,-0.00198,-0.05615,-0.05554,-0.01221,0.05051,-0.01312,-0.01282,-0.00046,-0.02655,-0.02228,-0.02533,0.00092,-0.04639,-0.02167,0.00122,-0.0415
5.663,-0.00412,-0.04929,-0.08301,-0.01175,0.04776,-0.01831,-0.01343,-0.00122,-0.02075,-0.01892,-0.02502,0.00473,-0.04105,-0.01968,0.00061,-0.03998
5.6635,-0.00732,-0.04639,-0.08057,-0.0116,0.02289,-0.02625,-0.01282,-0.00305,-0.01694,-0.01724,-0.02411,0.00381,-0.03265,-0.01816,-0.00259,-0.03815
5.664,-0.00931,-0.05219,-0.0473,-0.0119,-0.00824,-0.03754,-0.01205,-0.00305,-0.01465,-0.01801,-0.01892,0.00076,-0.02701,-0.01663,-0.00671,-0.03891
5.6645,-0.01022,-0.06332,-0.0061,-0.01282,-0.03601,-0.05112,-0.01251,-0.00229,-0.01389,-0.0174,-0.00656,0.0,-0.02686,-0.01389,-0.00732,-0.04181
5.665,-0.01068,-0.06775,0.02136,-0.01175,-0.06226,-0.06149,-0.01389,-0.00015,-0.01526,-0.01678,0.00244,0.00046,-0.02975,-0.01144,-0.00107,-0.04517
5.6655,-0.01114,-0.06088,0.03418,-0.01129,-0.09949,-0.07156,-0.0148,0.00015,-0.01572,-0.01633,0.00092,0.00137,-0.0322,-0.01251,0.00671,-0.04639
5.666,-0.01114,-0.04822,0.04166,-0.01251,-0.1358,-0.08377,-0.01495,-0.00214,-0.01389,-0.01755,-0.00732,0.00397,-0.03189,-0.01709,0.00732,-0.04532
5.6665,-0.01221,-0.03845,0.04654,-0.01587,-0.14984,-0.09644,-0.01511,-0.00412,-0.01022,-0.01938,-0.01663,0.00656,-0.03128,-0.02213,-0.00076,-0.0441
5.667,-0.01373,-0.0351,0.04745,-0.02029,-0.13565,-0.10239,-0.01495,-0.00504,-0.00854,-0.01984,-0.02472,0.00763,-0.02991,-0.02655,-0.00549,-0.04379
5.6675,-0.01633,-0.03479,0.04135,-0.02274,-0.1059,-0.10147,-0.0148,-0.00473,-0.00793,-0.0206,-0.03311,0.00839,-0.02853,-0.03387,-0.00229,-0.04395
5.668,-0.01877,-0.03448,0.02777,-0.02289,-0.07599,-0.10468,-0.0145,-0.00443,-0.00824,-0.02136,-0.03754,0.00931,-0.02792,-0.04135,0.00275,-0.04333
5.6685,-0.01831,-0.03281,0.01053,-0.02151,-0.05203,-0.1181,-0.01511,-0.00488,-0.01083,-0.02121,-0.03632,0.00885,-0.02716,-0.04471,0.00244,-0.04227
5.669,-0.01709,-0.0325,-0.00351,-0.02182,-0.03448,-0.13474,-0.01694,-0.00473,-0.01373,-0.0206,-0.03235,0.00687,-0.02258,-0.04303,0.00443,-0.03937
5.6695,-0.01724,-0.03311,-0.01266,-0.02304,-0.02411,-0.13855,-0.01862,-0.00473,-0.01404,-0.02182,-0.03265,0.00443,-0.00961,-0.0412,0.02121,-0.03693
5.67,-0.01999,-0.03189,-0.01587,-0.02213,-0.02151,-0.12009,-0.01984,-0.00458,-0.01175,-0.02441,-0.03738,0.00412,0.01114,-0.03998,0.04608,-0.03662
5.6705,-0.02289,-0.02365,-0.01648,-0.01694,-0.02151,-0.08362,-0.0206,-0.00565,-0.01022,-0.02487,-0.04333,0.00412,0.0322,-0.0354,0.05295,-0.03983
5.671,-0.02151,-0.01175,-0.0206,-0.01099,-0.02472,-0.04242,-0.02045,-0.00763,-0.01022,-0.02151,-0.04593,0.00305,0.04059,-0.02411,0.03494,-0.04517
5.6715,-0.01678,-0.00488,-0.03098,-0.00793,-0.03143,-0.0119,-0.01785,-0.00687,-0.01068,-0.01602,-0.0444,0.00153,0.03326,-0.01068,0.01221,-0.04959
5.672,-0.01251,-0.01221,-0.04517,-0.0087,-0.04272,-0.00259,-0.01541,-0.00458,-0.01007,-0.01282,-0.04196,0.00061,0.01724,-0.00305,0.00534,-0.04807
5.6725,-0.01007,-0.02975,-0.05844,-0.00946,-0.0499,-0.01419,-0.01404,-0.00305,-0.00961,-0.01297,-0.03723,0.00229,0.00244,-0.0029,0.01419,-0.0441
5.673,-0.01053,-0.04669,-0.06378,-0.00748,-0.04608,-0.04089,-0.0148,-0.00198,-0.01099,-0.01373,-0.0322,0.00519,-0.01114,-0.00793,0.02472,-0.03998
5.6735,-0.01144,-0.05783,-0.0621,-0.00153,-0.03326,-0.07126,-0.01572,-0.00183,-0.01297,-0.01419,-0.02716,0.00778,-0.02914,-0.01343,0.03128,-0.03876
5.674,-0.01266,-0.06454,-0.05722,0.0058,-0.02411,-0.09323,-0.01297,-0.00198,-0.01282,-0.01465,-0.02319,0.00885,-0.05157,-0.01373,0.03433,-0.03937
5.6745,-0.01266,-0.06622,-0.05356,0.01129,-0.02396,-0.10193,-0.0087,-0.00381,-0.01282,-0.01465,-0.0206,0.00687,-0.07019,-0.00366,0.03326,-0.03998
5.675,-0.01312,-0.06165,-0.05295,0.01343,-0.02502,-0.09567,-0.00793,-0.00687,-0.01236,-0.01602,-0.02014,0.0032,-0.07599,0.01572,0.02762,-0.04013
5.6755,-0.01297,-0.05508,-0.05295,0.01205,-0.02426,-0.08255,-0.01785,-0.00977,-0.00992,-0.01587,-0.01907,0.00031,-0.07019,0.03326,0.01877,-0.03952
5.676,-0.01343,-0.05127,-0.05371,0.00702,-0.02197,-0.07019,-0.03357,-0.01068,-0.00793,-0.0148,-0.01755,-0.00015,-0.06393,0.03174,0.01205,-0.0386
5.6765,-0.01404,-0.05096,-0.05264,-0.00092,-0.02228,-0.0592,-0.04944,-0.00916,-0.00824,-0.00793,-0.01633,0.0,-0.06683,0.01053,0.00839,-0.03815
5.677,-0.01495,-0.0499,-0.04959,-0.00854,-0.0238,-0.04761,-0.06683,-0.00656,-0.00931,0.00534,-0.0148,-0.00092,-0.07431,-0.01266,0.00885,-0.03815
5.6775,-0.01602,-0.047,-0.0499,-0.01297,-0.02457,-0.03769,-0.07431,-0.00351,-0.0116,0.01495,-0.01419,-0.00275,-0.07462,-0.02304,0.00977,-0.03769
5.678,-0.0174,-0.04425,-0.05661,-0.01526,-0.02487,-0.03174,-0.05402,-0.00198,-0.0148,0.0116,-0.0116,-0.00427,-0.06424,-0.0209,0.009,-0.03784
5.6785,-0.01816,-0.04257,-0.06561,-0.0174,-0.02472,-0.02914,-0.00839,-0.00076,-0.01801,-0.00809,-0.00671,-0.00702,-0.04974,-0.0174,0.00687,-0.0386
5.679,-0.01892,-0.04181,-0.06683,-0.01755,-0.02396,-0.02853,0.02869,-0.00122,-0.01907,-0.03113,-0.00046,-0.01175,-0.04044,-0.0174,0.0061,-0.04166
5.6795,-0.02106,-0.03983,-0.05753,-0.01831,-0.02335,-0.02808,0.03937,-0.00092,-0.01877,-0.04608,0.00565,-0.02014,-0.04074,-0.01816,0.00565,-0.04211
5.68,-0.02365,-0.03754,-0.04578,-0.02548,-0.02213,-0.02777,0.03677,-0.00015,-0.01846,-0.05157,0.009,-0.02747,-0.04333,-0.01526,0.00626,-0.04135
5.6805,-0.0235,-0.03662,-0.03891,-0.03891,-0.02228,-0.02823,0.0322,-0.00061,-0.01984,-0.0502,0.00961,-0.02762,-0.03998,-0.00824,0.00671,-0.03983
5.681,-0.01862,-0.03494,-0.03616,-0.04807,-0.02365,-0.02716,0.02106,-0.00061,-0.02106,-0.04623,0.01053,-0.01816,-0.03006,0.00046,0.00656,-0.04028
5.6815,-0.01038,-0.03433,-0.03174,-0.0383,-0.02579,-0.0264,0.00183,-0.00046,-0.02075,-0.03784,0.01312,-0.00641,-0.0209,0.00305,0.0061,-0.04089
5.682,-0.00381,-0.0322,-0.02716,-0.00885,-0.03067,-0.02625,-0.01389,-0.00153,-0.02136,-0.02975,0.01724,0.00305,-0.01892,-0.00397,0.00443,-0.04089
5.6825,-0.00031,-0.02853,-0.02625,0.02487,-0.03281,-0.0264,-0.01831,-0.00381,-0.02228,-0.02258,0.02121,0.01465,-0.02167,-0.01328,0.00504,-0.03906
5.683,0.00107,-0.01465,-0.02747,0.05005,-0.03387,-0.02762,-0.01602,-0.00549,-0.0235,-0.01663,0.02167,0.03128,-0.02808,-0.01923,0.00504,-0.03922
5.6835,0.00336,0.01221,-0.02884,0.06165,-0.03128,-0.02808,-0.01465,-0.00534,-0.02411,-0.01404,0.01434,0.04028,-0.03815,-0.02075,0.00671,-0.04074
5.684,0.00565,0.03464,-0.02808,0.06363,-0.03036,-0.0296,-0.01541,-0.00351,-0.02411,-0.01389,0.00427,0.0264,-0.04898,-0.02228,0.0061,-0.04089
5.6845,0.00626,0.02762,-0.02731,0.0589,-0.02853,-0.03204,-0.01541,-0.00198,-0.02518,-0.01328,-0.00626,0.0,-0.05371,-0.02579,0.00504,-0.03983
5.685,0.00443,-0.01129,-0.02762,0.04761,-0.02289,-0.03433,-0.01404,-0.00168,-0.02777,-0.01328,-0.01862,-0.01511,-0.04898,-0.02914,0.00519,-0.03906
5.6855,0.00122,-0.05829,-0.02899,0.03036,-0.01343,-0.03464,-0.01297,-0.00137,-0.02991,-0.0148,-0.03174,-0.01144,-0.03967,-0.03204,0.00458,-0.04044
5.686,-0.00229,-0.08713,-0.03082,0.01495,-0.00061,-0.0354,-0.01297,-0.00076,-0.02823,-0.01846,-0.04089,-0.00137,-0.03311,-0.03342,0.00336,-0.04089
5.6865,-0.00488,-0.09308,-0.03235,0.00549,0.01358,-0.03754,-0.01328,0.00031,-0.0238,-0.02167,-0.04486,0.00275,-0.03403,-0.03387,0.00458,-0.04059
5.687,-0.00565,-0.08682,-0.03082,-0.00488,0.01953,-0.03998,-0.01282,0.00092,-0.0177,-0.02472,-0.04776,0.00122,-0.03952,-0.03418,0.00565,-0.04044
5.6875,-0.00549,-0.07629,-0.02808,-0.02304,0.01022,-0.04074,-0.01099,0.00092,-0.01205,-0.02396,-0.04913,-0.00443,-0.04059,-0.03387,0.00549,-0.04181
5.688,-0.00626,-0.06226,-0.02747,-0.04181,-0.01236,-0.03952,-0.009,0.00107,-0.0061,-0.02182,-0.04333,-0.0119,-0.03494,-0.03006,0.00412,-0.04257
5.6885,-0.00732,-0.04913,-0.03586,-0.0502,-0.02884,-0.03784,-0.01022,0.00122,-0.00244,-0.01801,-0.03113,-0.02045,-0.02731,-0.0235,0.0032,-0.04333
5.689,-0.00916,-0.04181,-0.05432,-0.05112,-0.03235,-0.03616,-0.0145,0.00168,-0.00107,-0.01526,-0.02197,-0.02548,-0.0209,-0.01816,0.00336,-0.04364
5.6895,-0.01068,-0.0415,-0.07294,-0.05417,-0.0322,-0.03632,-0.01877,0.00305,-0.00198,-0.01343,-0.02151,-0.02472,-0.0177,-0.01678,0.00336,-0.04349
5.69,-0.0119,-0.04288,-0.07614,-0.0589,-0.04196,-0.03662,-0.01831,0.00381,-0.00336,-0.01266,-0.02655,-0.01816,-0.01968,-0.01801,0.00351,-0.04272
5.6905,-0.01129,-0.04486,-0.06165,-0.06592,-0.0589,-0.03586,-0.01587,0.00366,-0.00534,-0.01282,-0.0322,-0.01038,-0.0264,-0.01892,0.00565,-0.04211
5.691,-0.009,-0.04837,-0.03998,-0.0795,-0.06958,-0.03418,-0.01373,0.00275,-0.00763,-0.01236,-0.03876,-0.00443,-0.03311,-0.01678,0.00702,-0.04196
5.6915,-0.00854,-0.05203,-0.02411,-0.0972,-0.06882,-0.03296,-0.01404,0.00107,-0.009,-0.00916,-0.04868,-0.00061,-0.03555,-0.01617,0.00702,-0.04272
5.692,-0.00916,-0.05219,-0.01358,-0.10345,-0.06271,-0.03433,-0.01526,-0.00214,-0.00992,-0.00565,-0.05661,0.00092,-0.03296,-0.01877,0.00626,-0.04379
5.6925,-0.01007,-0.04654,-0.00717,-0.08835,-0.05737,-0.03876,-0.01526,-0.00504,-0.01068,-0.00443,-0.06027,0.00168,-0.03098,-0.02243,0.00534,-0.04318
5.693,-0.00961,-0.03967,-0.00565,-0.05936,-0.05203,-0.04288,-0.01419,-0.00565,-0.01205,-0.00641,-0.06134,0.0029,-0.03098,-0.02228,0.00565,-0.04272
5.6935,-0.00809,-0.03647,-0.00854,-0.03006,-0.0441,-0.04425,-0.01404,-0.00397,-0.01434,-0.01038,-0.06409,0.00259,-0.03403,-0.02029,0.00671,-0.04227
5.694,-0.00626,-0.03586,-0.01419,-0.00626,-0.03601,-0.04242,-0.01419,-0.00351,-0.01785,-0.01251,-0.06607,0.00214,-0.03677,-0.01724,0.00626,-0.04211
5.6945,-0.00397,-0.03571,-0.01953,0.01282,-0.02823,-0.04074,-0.01434,-0.00473,-0.01877,-0.01404,-0.0618,0.00259,-0.03494,-0.01434,0.0058,-0.04227
5.695,-0.00229,-0.03632,-0.02258,0.02655,-0.01999,-0.04028,-0.01434,-0.00626,-0.01892,-0.01404,-0.05264,0.0032,-0.02899,-0.01526,0.00519,-0.04135
5.6955,-0.00397,-0.04089,-0.02686,0.03662,-0.01129,-0.04135,-0.0145,-0.00839,-0.01816,-0.01465,-0.04089,0.00336,-0.02579,-0.02655,0.00458,-0.04135
5.696,-0.00946,-0.04639,-0.0322,0.04089,-0.00839,-0.04272,-0.01404,-0.00977,-0.0177,-0.01465,-0.03159,0.00381,-0.02579,-0.0415,0.00381,-0.04089
5.6965,-0.01434,-0.04608,-0.03784,0.03616,-0.01297,-0.04379,-0.01282,-0.01068,-0.01633,-0.01511,-0.02441,0.00458,-0.02472,-0.04669,-0.00076,-0.04105
5.697,-0.01556,-0.03967,-0.04181,0.02289,-0.02213,-0.04501,-0.01236,-0.01038,-0.01633,-0.01526,-0.01755,0.00473,-0.01984,-0.03601,-0.00809,-0.0412
5.6975,-0.01434,-0.03204,-0.04333,0.01099,-0.03128,-0.04639,-0.0145,-0.00809,-0.01755,-0.01541,-0.00748,0.00366,-0.01419,-0.02197,-0.01221,-0.04135
5.698,-0.01328,-0.02884,-0.04364,0.00839,-0.0351,-0.05051,-0.0174,-0.0061,-0.01953,-0.0145,0.0032,0.00214,-0.00946,-0.01663,-0.01007,-0.04242
5.6985,-0.01541,-0.02655,-0.04257,0.01007,-0.03723,-0.05661,-0.01785,-0.00473,-0.02014,-0.01419,0.00885,0.00153,-0.00443,-0.01785,-0.00412,-0.04272
5.699,-0.01541,-0.02396,-0.03983,0.00977,-0.04074,-0.0621,-0.01419,-0.00488,-0.01862,-0.0145,0.00885,0.00198,0.00137,-0.0177,0.00092,-0.04257
5.6995,-0.01129,-0.02197,-0.03662,0.00153,-0.04532,-0.06317,-0.01083,-0.00458,-0.01648,-0.01465,0.0061,0.00259,0.00519,-0.01572,0.0058,-0.04044
5.7,-0.00595,-0.02136,-0.03448,-0.01099,-0.04883,-0.0592,-0.00961,-0.00412,-0.01358,-0.01358,0.00473,0.00366,0.00275,-0.01419,0.01312,-0.03967
5.7005,-0.00122,-0.02289,-0.03677,-0.02167,-0.04868,-0.05356,-0.01221,-0.00351,-0.01068,-0.01221,0.00519,0.00412,-0.00473,-0.01419,0.02655,-0.04013
5.701,0.0032,-0.02319,-0.03754,-0.02792,-0.04211,-0.04745,-0.01572,-0.00351,-0.009,-0.01038,0.01038,0.00397,-0.01602,-0.0177,0.04105,-0.04074
5.7015,0.00519,-0.02655,-0.03876,-0.0325,-0.02991,-0.04181,-0.01678,-0.00504,-0.00748,-0.01038,0.02731,0.00397,-0.02609,-0.02029,0.04425,-0.04181
5.702,0.00336,-0.03296,-0.03998,-0.03784,-0.01968,-0.03922,-0.01541,-0.00671,-0.00671,-0.01297,0.06119,0.00381,-0.03464,-0.01923,0.03067,-0.04242
5.7025,-0.00137,-0.04013,-0.03952,-0.04257,-0.01892,-0.03906,-0.01343,-0.00763,-0.00534,-0.01694,0.0943,0.00305,-0.04333,-0.01526,0.01419,-0.04303
5.703,-0.00549,-0.04562,-0.03891,-0.04272,-0.02197,-0.04044,-0.0119,-0.00824,-0.00443,-0.01953,0.09247,0.00137,-0.05386,-0.01144,0.00809,-0.04272
5.7035,-0.00366,-0.05096,-0.04013,-0.03632,-0.02197,-0.03983,-0.0116,-0.00778,-0.00412,-0.01984,0.04669,0.00031,-0.0647,-0.01083,0.01129,-0.04211
5.704,0.0032,-0.05569,-0.04272,-0.02579,-0.01511,-0.03845,-0.01022,-0.00793,-0.00351,-0.01709,-0.01572,0.00031,-0.06866,-0.01251,0.01434,-0.04227
5.7045,0.01007,-0.05768,-0.04532,-0.00916,-0.00626,-0.0383,-0.01038,-0.00824,-0.00305,-0.0119,-0.05951,0.00168,-0.0621,-0.01282,0.01312,-0.04303
5.705,0.01389,-0.05508,-0.04105,0.01114,0.0032,-0.03891,-0.01083,-0.00763,-0.00229,-0.00671,-0.07507,0.00214,-0.04868,-0.01205,0.01038,-0.04333
5.7055,0.01495,-0.04822,-0.02914,0.03082,0.0145,-0.04074,-0.01175,-0.00687,-0.0029,-0.00168,-0.07294,0.00076,-0.03784,-0.01144,0.009,-0.04242
5.706,0.0148,-0.03998,-0.01709,0.03754,0.02258,-0.04333,-0.01343,-0.00702,-0.00488,-0.00015,-0.06256,-0.00031,-0.03174,-0.01236,0.00809,-0.04105
5.7065,0.01419,-0.03342,-0.01541,0.02335,0.02045,-0.04868,-0.01526,-0.00763,-0.00839,-0.00397,-0.05035,0.00076,-0.02686,-0.01816,0.00717,-0.03967
5.707,0.01495,-0.03036,-0.02182,-0.00809,0.00854,-0.05264,-0.01526,-0.00839,-0.01099,-0.01282,-0.04059,0.00381,-0.01907,-0.03204,0.00931,-0.03906
5.7075,0.01755,-0.03098,-0.02777,-0.0412,-0.00687,-0.05646,-0.0145,-0.00763,-0.01312,-0.02213,-0.03555,0.00488,-0.01328,-0.04639,0.01053,-0.04028
5.708,0.02228,-0.03357,-0.03036,-0.06104,-0.02762,-0.05981,-0.01419,-0.00534,-0.01404,-0.02945,-0.03433,0.00381,-0.01343,-0.04654,0.009,-0.04135
5.7085,0.02563,-0.03708,-0.03143,-0.06729,-0.05081,-0.06287,-0.01389,-0.00366,-0.0174,-0.03159,-0.03265,0.00183,-0.02045,-0.03235,0.00626,-0.04181
5.709,0.0264,-0.0412,-0.03464,-0.06317,-0.0676,-0.06516,-0.01343,-0.0029,-0.02258,-0.03021,-0.02853,0.00183,-0.02975,-0.02014,0.00519,-0.04135
5.7095,0.02625,-0.04547,-0.03784,-0.05295,-0.07553,-0.06393,-0.01389,-0.00244,-0.03128,-0.02594,-0.02243,0.00427,-0.03723,-0.01877,0.00656,-0.04196
5.71,0.02396,-0.04639,-0.03967,-0.04242,-0.08621,-0.06149,-0.01434,-0.00275,-0.0412,-0.02045,-0.02335,0.00702,-0.04318,-0.0238,0.00778,-0.04196
5.7105,0.02228,-0.04166,-0.04028,-0.04379,-0.10162,-0.06012,-0.01373,-0.00336,-0.04898,-0.01358,-0.03082,0.00504,-0.04547,-0.02716,0.00687,-0.04211
5.711,0.02045,-0.03433,-0.0386,-0.05417,-0.10376,-0.05844,-0.01343,-0.0032,-0.05173,-0.00641,-0.03479,-0.00015,-0.04578,-0.02655,0.00534,-0.04074
5.7115,0.02106,-0.02823,-0.0354,-0.05615,-0.08102,-0.0563,-0.01312,-0.00275,-0.05127,0.00092,-0.02747,-0.00336,-0.047,-0.02655,0.00534,-0.03983
5.712,0.02106,-0.02533,-0.03189,-0.03586,-0.04654,-0.05234,-0.01343,-0.00229,-0.05035,0.00366,-0.01205,-0.00015,-0.04776,-0.02884,0.00977,-0.03998
5.7125,0.01968,-0.02502,-0.03082,0.00641,-0.02457,-0.04944,-0.01419,-0.00305,-0.04883,0.00092,0.00107,0.00916,-0.04333,-0.03036,0.01495,-0.03998
5.713,0.01709,-0.02487,-0.03143,0.06378,-0.02258,-0.04807,-0.01465,-0.00412,-0.04623,-0.00504,0.00519,0.01984,-0.03235,-0.02808,0.01617,-0.04059
5.7135,0.01556,-0.02731,-0.03052,0.12543,-0.03113,-0.04898,-0.01541,-0.00366,-0.04242,-0.01129,0.0,0.02472,-0.0177,-0.02029,0.01297,-0.04089
5.714,0.01556,-0.03448,-0.02731,0.16342,-0.03754,-0.0499,-0.01419,-0.00336,-0.03662,-0.01602,-0.01068,0.0206,-0.00778,-0.0119,0.00793,-0.04135
5.7145,0.01541,-0.04303,-0.0235,0.14633,-0.0354,-0.04837,-0.01282,-0.0032,-0.03006,-0.02289,-0.01953,0.01236,-0.00595,-0.00732,0.0061,-0.04272
5.715,0.01465,-0.04868,-0.02136,0.08133,-0.02411,-0.047,-0.01328,-0.00259,-0.02319,-0.02991,-0.02228,0.0061,-0.01205,-0.00702,0.00763,-0.04364
5.7155,0.01328,-0.05127,-0.02167,0.01099,-0.01541,-0.04745,-0.01495,-0.00336,-0.01694,-0.03189,-0.01953,0.00366,-0.02167,-0.00961,0.00885,-0.0441
5.716,0.01221,-0.05402,-0.02472,-0.03067,-0.01907,-0.05051,-0.01633,-0.00381,-0.01251,-0.02869,-0.01617,0.00397,-0.03281,-0.01144,0.009,-0.04395
5.7165,0.01266,-0.05722,-0.02792,-0.04105,-0.03036,-0.05386,-0.01862,-0.00366,-0.00931,-0.01923,-0.01221,0.00534,-0.04211,-0.01495,0.00793,-0.04318
5.717,0.01297,-0.06012,-0.03143,-0.03479,-0.03723,-0.05417,-0.0209,-0.0029,-0.00687,-0.00229,-0.00793,0.00687,-0.04852,-0.01862,0.00717,-0.04181
5.7175,0.01373,-0.06149,-0.0354,-0.02502,-0.03616,-0.05005,-0.02335,-0.00137,-0.00488,0.01556,-0.00305,0.0087,-0.05447,-0.02136,0.00702,-0.04166
5.718,0.01465,-0.06042,-0.03723,-0.02838,-0.03571,-0.04211,-0.0238,-0.00107,-0.00397,0.01999,0.00488,0.00992,-0.05859,-0.02182,0.00763,-0.04181
5.7185,0.01556,-0.05798,-0.04059,-0.05112,-0.04486,-0.03723,-0.02151,-0.00153,-0.00397,0.00061,0.01892,0.01297,-0.05798,-0.02213,0.00854,-0.04242
5.719,0.0174,-0.05478,-0.0473,-0.08133,-0.05493,-0.03708,-0.01678,-0.00259,-0.0029,-0.03204,0.03601,0.01816,-0.04807,-0.02167,0.009,-0.04272
5.7195,0.01907,-0.05478,-0.05478,-0.09567,-0.04654,-0.04074,-0.01373,-0.00214,-0.00153,-0.05707,0.04761,0.02747,-0.02945,-0.01862,0.0087,-0.04242
5.72,0.01953,-0.05737,-0.06134,-0.0824,-0.0174,-0.03967,-0.01251,-0.00168,-0.00046,-0.06485,0.04745,0.03967,-0.00839,-0.0119,0.00778,-0.04105
5.7205,0.01907,-0.06073,-0.06592,-0.05035,0.01022,-0.03098,-0.01068,-0.00107,-0.00122,-0.06073,0.03891,0.05051,0.00504,-0.0058,0.00793,-0.04059
5.721,0.01984,-0.06119,-0.06851,-0.01831,0.00931,-0.01938,-0.00488,-0.00122,-0.00381,-0.05432,0.02487,0.04791,0.00748,-0.0058,0.00839,-0.04166
5.7215,0.02045,-0.05737,-0.06668,0.00351,-0.02716,-0.01358,0.00351,-0.00061,-0.00687,-0.04974,0.0087,0.02701,0.0029,-0.01175,0.00946,-0.04288
5.722,0.01862,-0.05325,-0.05707,0.01907,-0.07401,-0.01617,0.00809,-0.00046,-0.009,-0.04578,-0.00916,-0.00351,-0.00366,-0.01831,0.00793,-0.04242
5.7225,0.01541,-0.04852,-0.04471,0.03174,-0.09842,-0.02518,0.00443,-0.00122,-0.01022,-0.0441,-0.02457,-0.02655,-0.01038,-0.02258,0.00793,-0.04105
5.723,0.01221,-0.04395,-0.03555,0.03922,-0.09079,-0.03281,-0.00671,-0.00259,-0.01038,-0.04425,-0.03372,-0.03601,-0.0177,-0.0235,0.00702,-0.04028
5.7235,0.01175,-0.03876,-0.03464,0.03494,-0.06851,-0.03464,-0.0145,-0.00351,-0.01022,-0.04456,-0.03998,-0.03693,-0.02975,-0.0209,0.00687,-0.04135
5.724,0.01114,-0.03464,-0.03952,0.02472,-0.05142,-0.03159,-0.01495,-0.00412,-0.01007,-0.0441,-0.04456,-0.03967,-0.04608,-0.01312,0.00687,-0.04288
5.7245,0.01053,-0.03342,-0.04517,0.02197,-0.04059,-0.03784,-0.01205,-0.00473,-0.00977,-0.04303,-0.0473,-0.04578,-0.06317,-0.00259,0.00702,-0.04349
5.725,0.01053,-0.03281,-0.04807,0.02884,-0.03143,-0.05844,-0.01114,-0.00534,-0.00778,-0.04242,-0.04715,-0.05463,-0.07462,0.0,0.00641,-0.04456
5.7255,0.01068,-0.03265,-0.04852,0.03036,-0.02548,-0.08575,-0.0119,-0.00427,-0.00778,-0.03983,-0.04486,-0.05844,-0.0737,-0.00504,0.00732,-0.04517
5.726,0.00885,-0.03265,-0.04608,0.01633,-0.02945,-0.10406,-0.01282,-0.00336,-0.00885,-0.03693,-0.03922,-0.05371,-0.05753,-0.00977,0.00732,-0.04593
5.7265,0.00412,-0.03616,-0.04379,-0.00748,-0.03723,-0.10468,-0.01328,-0.00275,-0.01038,-0.03555,-0.03342,-0.04211,-0.03464,-0.0116,0.00595,-0.04654
5.727,-0.00107,-0.04074,-0.04272,-0.02396,-0.03754,-0.08636,-0.01373,-0.00244,-0.00916,-0.03571,-0.0267,-0.03113,-0.01633,-0.01907,0.0058,-0.04669
5.7275,-0.00458,-0.04303,-0.04379,-0.02686,-0.02975,-0.05325,-0.01434,-0.00198,-0.00702,-0.03677,-0.02121,-0.02853,-0.01007,-0.03036,0.00626,-0.04578
5.728,-0.00549,-0.04349,-0.04532,-0.02274,-0.02213,-0.02121,-0.01526,-0.00122,-0.00641,-0.03647,-0.0148,-0.03387,-0.01572,-0.03448,0.00778,-0.04364
5.7285,-0.00687,-0.04654,-0.04868,-0.01907,-0.01999,-0.0061,-0.0148,-0.00046,-0.009,-0.0354,-0.00565,-0.03723,-0.02853,-0.03159,0.00809,-0.04288
5.729,-0.00763,-0.05219,-0.05188,-0.01617,-0.02121,-0.01205,-0.01404,-0.00061,-0.01236,-0.03128,0.00595,-0.03113,-0.04562,-0.0351,0.00641,-0.04288
5.7295,-0.00778,-0.05707,-0.056,-0.01251,-0.02213,-0.02792,-0.0145,-0.00076,-0.01434,-0.02548,0.01526,-0.01709,-0.06119,-0.04486,0.00565,-0.04257
5.73,-0.00748,-0.05798,-0.06058,-0.00671,-0.02258,-0.04227,-0.01602,-0.00168,-0.01404,-0.01938,0.02045,-0.00351,-0.06897,-0.04868,0.00763,-0.04211
5.7305,-0.00839,-0.05615,-0.06699,-0.00046,-0.0235,-0.05081,-0.01602,-0.0029,-0.01343,-0.01587,0.02396,0.00488,-0.06851,-0.04349,0.00992,-0.04242
5.731,-0.00885,-0.05341,-0.06973,0.00473,-0.02365,-0.05478,-0.01511,-0.00336,-0.01266,-0.01526,0.02701,0.00519,-0.06653,-0.03723,0.01007,-0.04303
5.7315,-0.00748,-0.05142,-0.06531,0.00671,-0.02396,-0.05524,-0.01434,-0.00336,-0.01144,-0.01709,0.0296,0.00153,-0.06592,-0.0351,0.00839,-0.04379
5.732,-0.00473,-0.05005,-0.05386,0.00626,-0.02319,-0.05417,-0.01495,-0.00336,-0.01144,-0.02029,0.03372,-0.00305,-0.06149,-0.03159,0.00565,-0.04379
5.7325,-0.00259,-0.04807,-0.04074,0.00259,-0.0206,-0.05371,-0.01556,-0.00366,-0.01266,-0.02304,0.03952,-0.00717,-0.05142,-0.02441,0.00488,-0.04333
5.733,-0.00168,-0.03952,-0.03265,-0.00137,-0.01801,-0.05417,-0.01556,-0.00336,-0.01465,-0.02472,0.04501,-0.00717,-0.04196,-0.01617,0.00534,-0.04288
5.7335,-0.00153,-0.02426,-0.0293,-0.00595,-0.01556,-0.05554,-0.01495,-0.00275,-0.01678,-0.02441,0.04639,-0.00351,-0.04013,-0.0087,0.00702,-0.04318
5.734,-0.00198,-0.01663,-0.02991,-0.00809,-0.01511,-0.05615,-0.01541,-0.00168,-0.01755,-0.02243,0.04669,0.00198,-0.04227,0.00107,0.00687,-0.04333
5.7345,-0.00427,-0.03021,-0.03174,-0.00793,-0.01541,-0.05692,-0.01633,-0.00092,-0.0177,-0.02182,0.05035,0.00534,-0.04318,0.01282,0.00595,-0.04364
5.735,-0.009,-0.05798,-0.03296,-0.00717,-0.0174,-0.05646,-0.01648,-0.00015,-0.01816,-0.02197,0.05478,0.00793,-0.04333,0.01648,0.00595,-0.04288
5.7355,-0.01221,-0.0766,-0.03403,-0.00732,-0.02151,-0.05508,-0.01526,-0.00092,-0.01923,-0.02197,0.05615,0.01434,-0.04211,0.0029,0.00656,-0.04181
5.736,-0.01266,-0.07538,-0.03555,-0.00595,-0.02899,-0.05371,-0.01419,-0.00366,-0.02029,-0.02228,0.05249,0.02716,-0.04013,-0.01907,0.00671,-0.0412
5.7365,-0.01083,-0.06348,-0.03693,-0.00137,-0.0383,-0.05157,-0.01404,-0.00473,-0.01984,-0.02274,0.04669,0.03967,-0.03708,-0.03098,0.00671,-0.04105
5.737,-0.00931,-0.05493,-0.03876,0.00305,-0.0473,-0.05005,-0.01389,-0.00458,-0.01831,-0.02304,0.03967,0.03922,-0.03662,-0.02701,0.00732,-0.04242
5.7375,-0.01007,-0.05249,-0.04272,0.00793,-0.0531,-0.04883,-0.01358,-0.00366,-0.0177,-0.02335,0.03372,0.02457,-0.03723,-0.0177,0.00824,-0.04288
5.738,-0.01144,-0.05356,-0.04639,0.01297,-0.05371,-0.04745,-0.01297,-0.00381,-0.0177,-0.02304,0.02777,0.01053,-0.03387,-0.01389,0.00946,-0.04181
5.7385,-0.01175,-0.05341,-0.0499,0.01785,-0.04837,-0.04822,-0.01434,-0.00443,-0.01831,-0.02289,0.02106,0.00671,-0.02533,-0.01465,0.00793,-0.04089
5.739,-0.01129,-0.05234,-0.04944,0.01999,-0.03967,-0.0499,-0.01572,-0.00443,-0.01892,-0.02335,0.0119,0.00916,-0.01556,-0.01358,0.0058,-0.04105
5.7395,-0.00854,-0.04852,-0.04715,0.01663,-0.0322,-0.04974,-0.01511,-0.0032,-0.01862,-0.02396,-0.00046,0.00824,-0.0061,-0.01099,0.0058,-0.04181
5.74,-0.00671,-0.04517,-0.04486,0.00717,-0.02716,-0.04913,-0.01389,-0.00305,-0.01938,-0.02319,-0.01465,0.00336,0.00122,-0.01068,0.00732,-0.04135
5.7405,-0.0058,-0.04318,-0.04486,-0.00702,-0.02563,-0.04929,-0.01297,-0.0032,-0.01938,-0.02197,-0.03067,0.00198,0.00687,-0.0116,0.00885,-0.04135
5.741,-0.00778,-0.04257,-0.04456,-0.01846,-0.02319,-0.05035,-0.01312,-0.00214,-0.01755,-0.02045,-0.04532,0.00793,0.00854,-0.0116,0.00992,-0.04059
5.7415,-0.01038,-0.0415,-0.04639,-0.02365,-0.02335,-0.05066,-0.01282,-0.00092,-0.01434,-0.02029,-0.05737,0.01785,0.0061,-0.0116,0.00885,-0.03906
5.742,-0.01389,-0.04166,-0.05035,-0.02884,-0.02548,-0.05096,-0.01251,0.00015,-0.0116,-0.01892,-0.06134,0.02289,0.00092,-0.01144,0.00931,-0.03723
5.7425,-0.01663,-0.04135,-0.05356,-0.0383,-0.02457,-0.05112,-0.01251,0.00015,-0.01099,-0.01801,-0.05997,0.01785,-0.00732,-0.01221,0.01007,-0.03662
5.743,-0.01709,-0.0383,-0.05417,-0.04974,-0.0148,-0.05188,-0.01282,-0.00061,-0.01129,-0.01862,-0.05524,0.00443,-0.01953,-0.01343,0.01083,-0.03677
5.7435,-0.01663,-0.03021,-0.05142,-0.05402,-0.00061,-0.05203,-0.01312,-0.00214,-0.01022,-0.02029,-0.0473,-0.01083,-0.03525,-0.01572,0.01038,-0.03784
5.744,-0.01511,-0.02258,-0.04608,-0.04913,0.01007,-0.05142,-0.01328,-0.0029,-0.00839,-0.02014,-0.03326,-0.02106,-0.04883,-0.01953,0.00931,-0.0386
5.7445,-0.01266,-0.01968,-0.0412,-0.04089,0.01602,-0.04852,-0.0145,-0.0032,-0.00626,-0.01801,-0.0174,-0.02518,-0.05615,-0.02335,0.01007,-0.0415
5.745,-0.00839,-0.01999,-0.03891,-0.03555,0.02075,-0.04654,-0.01541,-0.00336,-0.00519,-0.01511,-0.00717,-0.02823,-0.05905,-0.02716,0.01007,-0.04654
5.7455,-0.00381,-0.02243,-0.0383,-0.03143,0.02991,-0.04593,-0.01648,-0.00397,-0.00626,-0.01343,-0.00488,-0.03311,-0.06119,-0.02975,0.00763,-0.05295
5.746,-0.00076,-0.0296,-0.0386,-0.02899,0.04272,-0.047,-0.01663,-0.00504,-0.009,-0.01328,-0.00549,-0.03754,-0.06302,-0.03067,0.00549,-0.05646
5.7465,-0.00031,-0.0415,-0.03632,-0.0264,0.04913,-0.04929,-0.01602,-0.00595,-0.0119,-0.01617,-0.00229,-0.03738,-0.05981,-0.02914,0.00473,-0.05676
5.747,-0.00046,-0.05264,-0.0296,-0.0238,0.03616,-0.05066,-0.01495,-0.00519,-0.01328,-0.01892,0.00229,-0.03174,-0.05157,-0.02579,0.00534,-0.05417
5.7475,-0.00153,-0.0563,-0.01495,-0.01831,-0.00397,-0.05173,-0.01419,-0.00534,-0.0148,-0.02182,0.00381,-0.02319,-0.04532,-0.0209,0.00671,-0.0499
5.748,-0.00183,-0.05096,0.00717,-0.00931,-0.06058,-0.05341,-0.01373,-0.0058,-0.01617,-0.0238,0.00153,-0.01617,-0.04486,-0.01572,0.00641,-0.04684
5.7485,-0.00076,-0.04227,0.02945,0.00031,-0.11368,-0.05508,-0.01312,-0.0058,-0.01923,-0.02579,-0.00015,-0.01221,-0.04532,-0.01205,0.00641,-0.04517
5.749,-0.00153,-0.0354,0.03799,0.00732,-0.14191,-0.05661,-0.01404,-0.00458,-0.02441,-0.02747,0.00183,-0.0058,-0.04074,-0.01129,0.0061,-0.0441
5.7495,-0.0032,-0.03464,0.03159,0.01068,-0.13443,-0.05783,-0.01434,-0.00214,-0.02914,-0.02823,0.00732,0.00412,-0.03143,-0.01221,0.00687,-0.0412
5.75,-0.00549,-0.0386,0.01724,0.01312,-0.10559,-0.05524,-0.01419,-0.00137,-0.03082,-0.02777,0.01099,0.0145,-0.02502,-0.01312,0.00839,-0.03433
5.7505,-0.00763,-0.04074,0.00137,0.01495,-0.0795,-0.04913,-0.01465,-0.00137,-0.0296,-0.02731,0.0119,0.01968,-0.02579,-0.0116,0.009,-0.02716
5.751,-0.00854,-0.03494,-0.0145,0.0145,-0.06516,-0.04135,-0.01541,-0.00183,-0.02869,-0.02731,0.01129,0.01953,-0.02914,-0.01099,0.009,-0.02762
5.7515,-0.00839,-0.01755,-0.02975,0.01282,-0.05096,-0.03616,-0.01511,-0.00229,-0.02884,-0.0293,0.01022,0.01816,-0.03113,-0.01312,0.00748,-0.03708
5.752,-0.00931,0.00519,-0.04349,0.01007,-0.03616,-0.0322,-0.01419,-0.00275,-0.03174,-0.03021,0.00641,0.0177,-0.03113,-0.01907,0.00549,-0.04745
5.7525,-0.01144,0.01404,-0.05386,0.0087,-0.02975,-0.02716,-0.01404,-0.00397,-0.03387,-0.03159,-0.00183,0.0177,-0.03143,-0.02533,0.00534,-0.04913
5.753,-0.0145,-0.0061,-0.05829,0.00839,-0.03693,-0.02258,-0.01343,-0.00473,-0.03311,-0.02975,-0.01312,0.01633,-0.03006,-0.02686,0.00626,-0.04272
5.7535,-0.01526,-0.04425,-0.05753,0.00656,-0.04974,-0.02655,-0.01373,-0.00427,-0.02991,-0.02655,-0.02655,0.01328,-0.02594,-0.02548,0.00565,-0.03647
5.754,-0.01358,-0.07156,-0.06348,0.0032,-0.05707,-0.04166,-0.01389,-0.00275,-0.02609,-0.02487,-0.03937,0.01083,-0.0206,-0.02487,0.00504,-0.03357
5.7545,-0.01312,-0.07065,-0.0882,0.00153,-0.05585,-0.05737,-0.01358,-0.00412,-0.02335,-0.02609,-0.04852,0.01022,-0.01907,-0.0267,0.00519,-0.03372
5.755,-0.01541,-0.05081,-0.12344,0.0032,-0.04791,-0.05981,-0.01297,-0.00549,-0.02106,-0.02625,-0.05371,0.00946,-0.02014,-0.02716,0.00549,-0.03586
5.7555,-0.0174,-0.0322,-0.14557,0.00549,-0.03845,-0.04669,-0.01343,-0.00565,-0.01755,-0.02335,-0.05661,0.00931,-0.02151,-0.02625,0.00748,-0.03815
5.756,-0.01801,-0.02228,-0.14114,0.00534,-0.03342,-0.03296,-0.01419,-0.00549,-0.01266,-0.02045,-0.06149,0.01022,-0.0209,-0.02396,0.00717,-0.03952
5.7565,-0.0148,-0.01755,-0.11841,0.00412,-0.03723,-0.03601,-0.01419,-0.00488,-0.00687,-0.01938,-0.0679,0.01114,-0.01953,-0.02151,0.0061,-0.04013
5.757,-0.01053,-0.01434,-0.09521,0.00351,-0.0444,-0.06073,-0.01434,-0.00488,-0.00427,-0.02029,-0.07126,0.01099,-0.02045,-0.02029,0.00549,-0.04105
5.7575,-0.00595,-0.01663,-0.07919,0.00443,-0.04822,-0.09232,-0.01389,-0.00443,-0.00427,-0.0206,-0.06943,0.00961,-0.02258,-0.01999,0.0058,-0.04196
5.758,-0.00076,-0.0235,-0.06775,0.00443,-0.04562,-0.10712,-0.01358,-0.00504,-0.00656,-0.01892,-0.06531,0.00839,-0.02502,-0.01999,0.00763,-0.04395
5.7585,0.0029,-0.03204,-0.05447,0.00275,-0.04272,-0.09247,-0.01358,-0.00473,-0.00885,-0.01801,-0.06317,0.00854,-0.02502,-0.02029,0.00854,-0.0441
5.759,0.00381,-0.03708,-0.03906,0.00122,-0.03998,-0.06363,-0.01495,-0.00488,-0.01114,-0.01831,-0.06119,0.01007,-0.0238,-0.01984,0.00839,-0.04257
5.7595,0.00275,-0.04089,-0.02777,0.00046,-0.0351,-0.0444,-0.01526,-0.00473,-0.01251,-0.01785,-0.056,0.01053,-0.02289,-0.01831,0.00793,-0.03891
5.76,0.00107,-0.04333,-0.01999,0.00031,-0.02579,-0.04211,-0.01373,-0.00473,-0.01205,-0.01694,-0.0499,0.01053,-0.02563,-0.01495,0.0061,-0.0354
5.7605,0.00015,-0.0444,-0.01404,0.00015,-0.01984,-0.0444,-0.0119,-0.00366,-0.00992,-0.0145,-0.04776,0.01038,-0.03281,-0.01205,0.00458,-0.0325
5.761,-0.00046,-0.04318,-0.0061,0.00015,-0.01999,-0.04196,-0.01175,-0.00351,-0.00931,-0.01297,-0.04822,0.00916,-0.03891,-0.0116,0.00504,-0.03265
5.7615,-0.00229,-0.0412,0.00595,0.00092,-0.02106,-0.03784,-0.01297,-0.00336,-0.00931,-0.01083,-0.04715,0.00702,-0.04074,-0.0145,0.00702,-0.03525
5.762,-0.00305,-0.04105,0.01617,0.00275,-0.01755,-0.03632,-0.01358,-0.00305,-0.01007,-0.00824,-0.04349,0.00504,-0.03876,-0.01862,0.009,-0.03799
5.7625,-0.0032,-0.04318,0.01877,0.0032,-0.01007,-0.03677,-0.01404,-0.0029,-0.01038,-0.00717,-0.04013,0.00351,-0.03601,-0.02075,0.00946,-0.0412
5.763,-0.00259,-0.04318,0.01389,0.00214,-0.0029,-0.03738,-0.01236,-0.00229,-0.01068,-0.00656,-0.04166,0.0032,-0.03464,-0.02075,0.00854,-0.0444
5.7635,-0.00366,-0.03769,0.00427,-0.00046,-0.0061,-0.03754,-0.0116,-0.00214,-0.01144,-0.00885,-0.04623,0.00336,-0.03387,-0.02075,0.00793,-0.04669
5.764,-0.00565,-0.02808,-0.00717,-0.0032,-0.01648,-0.03708,-0.0119,-0.00214,-0.01282,-0.01343,-0.05173,0.00275,-0.03387,-0.02228,0.00854,-0.04715
5.7645,-0.00717,-0.02045,-0.01678,-0.00549,-0.0267,-0.03738,-0.01312,-0.00229,-0.01328,-0.01862,-0.05493,0.00244,-0.03204,-0.02426,0.00977,-0.04471
5.765,-0.00702,-0.01892,-0.01846,-0.00549,-0.03052,-0.04028,-0.01465,-0.0032,-0.01266,-0.02121,-0.0531,0.00275,-0.02502,-0.02411,0.01007,-0.04318
5.7655,-0.00641,-0.02213,-0.0119,-0.00626,-0.02899,-0.04547,-0.01495,-0.00351,-0.01312,-0.0209,-0.05219,0.00336,-0.01495,-0.02136,0.00809,-0.04242
5.766,-0.00656,-0.02762,-0.00519,-0.00717,-0.02777,-0.04776,-0.01434,-0.00351,-0.01526,-0.01923,-0.05341,0.0032,-0.00397,-0.01709,0.00656,-0.04211
5.7665,-0.00763,-0.03433,-0.0058,-0.00839,-0.02838,-0.0473,-0.01312,-0.00336,-0.01816,-0.01984,-0.0592,0.00183,0.0058,-0.01266,0.00626,-0.04181
5.767,-0.00992,-0.04135,-0.00977,-0.00946,-0.02869,-0.04669,-0.01312,-0.0032,-0.01938,-0.0209,-0.06409,-0.00046,0.00916,-0.01083,0.00748,-0.04181
5.7675,-0.01282,-0.04623,-0.00793,-0.01053,-0.02914,-0.04822,-0.01282,-0.00244,-0.01907,-0.01984,-0.06683,-0.00137,0.00305,-0.01129,0.00763,-0.04028
5.768,-0.01572,-0.04471,-0.00046,-0.01099,-0.02808,-0.05417,-0.01221,-0.00244,-0.01755,-0.01831,-0.06989,0.0,-0.00732,-0.01297,0.0061,-0.0386
5.7685,-0.01846,-0.03372,0.00595,-0.01129,-0.02563,-0.0563,-0.01251,-0.00275,-0.0177,-0.01907,-0.07416,0.00015,-0.01587,-0.01312,0.00397,-0.03937
5.769,-0.02045,-0.01205,-0.00122,-0.01099,-0.02106,-0.05341,-0.01251,-0.00351,-0.0174,-0.02121,-0.07645,-0.00183,-0.02396,-0.01465,0.00305,-0.04333
5.7695,-0.02243,0.01068,-0.02563,-0.01068,-0.01419,-0.05173,-0.01282,-0.00305,-0.0174,-0.02182,-0.07431,-0.00473,-0.03616,-0.01785,0.00229,-0.04684
5.77,-0.02319,0.02075,-0.05249,-0.00961,-0.00916,-0.05066,-0.01297,-0.00183,-0.01709,-0.02075,-0.0679,-0.00549,-0.05127,-0.02075,0.00275,-0.0499
5.7705,-0.02274,0.00717,-0.06363,-0.0087,-0.01007,-0.0499,-0.01266,-0.00305,-0.01709,-0.01953,-0.06027,-0.00443,-0.06424,-0.02136,0.00183,-0.05554
5.771,-0.02045,-0.02197,-0.05417,-0.00839,-0.0148,-0.04898,-0.01068,-0.00366,-0.01587,-0.01984,-0.05188,-0.00137,-0.07187,-0.02014,0.00244,-0.06393
5.7715,-0.01663,-0.05249,-0.03799,-0.01022,-0.02045,-0.04623,-0.00931,-0.00397,-0.01282,-0.02075,-0.04593,0.0,-0.07355,-0.01801,0.00397,-0.06592
5.772,-0.01373,-0.07462,-0.0293,-0.0116,-0.02518,-0.04333,-0.00946,-0.00351,-0.00748,-0.02121,-0.0415,-0.00122,-0.06683,-0.01648,0.00717,-0.05234
5.7725,-0.01511,-0.08545,-0.02716,-0.01312,-0.02731,-0.04196,-0.0119,-0.00305,-0.00351,-0.02121,-0.03784,-0.00198,-0.05783,-0.01663,0.00977,-0.02823
5.773,-0.01907,-0.08774,-0.02731,-0.01343,-0.02838,-0.0415,-0.01312,-0.00305,-0.00168,-0.01953,-0.03372,-0.00061,-0.05722,-0.02029,0.01068,-0.01404
5.7735,-0.01984,-0.08347,-0.03098,-0.01328,-0.03021,-0.04288,-0.01312,-0.00458,-0.00275,-0.01846,-0.03006,0.00061,-0.06683,-0.02457,0.01114,-0.01862
5.774,-0.01617,-0.07309,-0.04395,-0.01328,-0.03311,-0.04349,-0.01266,-0.00427,-0.00549,-0.01816,-0.02975,0.00076,-0.07492,-0.02548,0.01144,-0.03052
5.7745,-0.01022,-0.05951,-0.06088,-0.01419,-0.03571,-0.04181,-0.01343,-0.00259,-0.00778,-0.01709,-0.03494,0.00092,-0.06958,-0.02396,0.01114,-0.03555
5.775,-0.00717,-0.04654,-0.07141,-0.01587,-0.03525,-0.03998,-0.01495,-0.00183,-0.00992,-0.01602,-0.0441,0.00168,-0.05585,-0.0209,0.01099,-0.03708
5.7755,-0.00702,-0.04181,-0.0708,-0.01587,-0.03098,-0.03983,-0.01663,-0.00214,-0.00916,-0.01678,-0.056,0.00336,-0.04578,-0.01862,0.01022,-0.0412
5.776,-0.00748,-0.04791,-0.06042,-0.01389,-0.02411,-0.04379,-0.01678,-0.00336,-0.00809,-0.01923,-0.06683,0.00381,-0.0415,-0.01801,0.00992,-0.04761
5.7765,-0.00656,-0.05951,-0.05035,-0.0119,-0.02274,-0.04456,-0.01511,-0.0029,-0.00931,-0.02289,-0.07477,0.00153,-0.03693,-0.0177,0.01022,-0.04883
5.777,-0.00534,-0.0708,-0.04211,-0.01221,-0.0293,-0.03845,-0.01389,-0.0032,-0.01419,-0.02319,-0.07889,-0.00214,-0.03036,-0.01755,0.00977,-0.04257
5.7775,-0.00595,-0.07767,-0.03738,-0.01312,-0.04425,-0.02853,-0.01373,-0.00275,-0.02075,-0.02151,-0.07858,-0.00641,-0.02731,-0.01816,0.009,-0.03952
5.778,-0.00656,-0.08301,-0.0351,-0.01511,-0.06332,-0.02426,-0.01419,-0.00198,-0.02655,-0.01694,-0.07401,-0.00824,-0.02716,-0.01831,0.00763,-0.04822
5.7785,-0.00717,-0.08453,-0.03265,-0.01556,-0.08102,-0.02777,-0.01419,-0.0029,-0.03128,-0.01236,-0.06744,-0.00824,-0.02731,-0.01862,0.00778,-0.05829
5.779,-0.00641,-0.08179,-0.03204,-0.01663,-0.08636,-0.03479,-0.01343,-0.00381,-0.03571,-0.01038,-0.06226,-0.00626,-0.02716,-0.01862,0.00778,-0.0589
5.7795,-0.00534,-0.07599,-0.03098,-0.01785,-0.06729,-0.04242,-0.01389,-0.00458,-0.03815,-0.01099,-0.06195,-0.00381,-0.02579,-0.01831,0.009,-0.04654
5.78,-0.00427,-0.07278,-0.03021,-0.01694,-0.03082,-0.04913,-0.01373,-0.00519,-0.03983,-0.01343,-0.06622,-0.00153,-0.02426,-0.01892,0.01083,-0.03586
5.7805,-0.00153,-0.07416,-0.02579,-0.01404,0.00168,-0.05234,-0.01282,-0.00549,-0.0412,-0.01526,-0.07004,-0.00259,-0.02167,-0.02014,0.01175,-0.03387
5.781,0.00107,-0.07294,-0.0174,-0.01068,0.01236,-0.04883,-0.01205,-0.00519,-0.04272,-0.01694,-0.06668,-0.00366,-0.01892,-0.02121,0.01022,-0.03647
5.7815,0.00397,-0.06607,-0.01282,-0.01083,0.00198,-0.04425,-0.01236,-0.00397,-0.04379,-0.01831,-0.05524,-0.00305,-0.01617,-0.02121,0.00961,-0.03845
5.782,0.00534,-0.05646,-0.01297,-0.01266,-0.01572,-0.04517,-0.01373,-0.0029,-0.04257,-0.02167,-0.03937,-0.00214,-0.01526,-0.02197,0.00961,-0.03998
5.7825,0.00549,-0.04929,-0.01587,-0.01297,-0.02945,-0.05569,-0.01556,-0.00366,-0.03784,-0.02335,-0.02411,-0.0029,-0.01694,-0.02274,0.00961,-0.04227
5.783,0.00565,-0.04471,-0.01831,-0.01221,-0.03937,-0.0676,-0.01434,-0.00427,-0.03067,-0.02289,-0.01068,-0.00732,-0.01984,-0.0235,0.00839,-0.04318
5.7835,0.00534,-0.04288,-0.02014,-0.01068,-0.04654,-0.0769,-0.01282,-0.00473,-0.02228,-0.01923,0.0,-0.01282,-0.02533,-0.02319,0.00732,-0.04196
5.784,0.0058,-0.04135,-0.02396,-0.01083,-0.05219,-0.08072,-0.0119,-0.00305,-0.01526,-0.01297,0.00504,-0.01617,-0.03433,-0.02136,0.00687,-0.04074
5.7845,0.00626,-0.04135,-0.02747,-0.01144,-0.05493,-0.07935,-0.01251,-0.00366,-0.00916,-0.00824,0.00702,-0.0148,-0.04181,-0.02014,0.00504,-0.04135
5.785,0.00549,-0.04303,-0.02808,-0.0119,-0.05249,-0.07233,-0.01312,-0.00412,-0.00275,-0.00702,0.0087,-0.0116,-0.04318,-0.01984,0.00687,-0.04318
5.7855,0.00412,-0.04501,-0.02731,-0.0116,-0.04593,-0.0618,-0.01251,-0.00458,0.00183,-0.009,0.01083,-0.00854,-0.03754,-0.02075,0.00916,-0.04349
5.786,0.0029,-0.04333,-0.02533,-0.01144,-0.03937,-0.0502,-0.01236,-0.00519,0.00305,-0.01022,0.01129,-0.00748,-0.03159,-0.02167,0.00931,-0.04196
5.7865,0.00107,-0.03464,-0.02335,-0.01175,-0.03448,-0.04211,-0.01266,-0.00549,0.00168,-0.00793,0.00778,-0.00687,-0.02991,-0.0209,0.00824,-0.04059
5.787,-0.00031,-0.02258,-0.02136,-0.01404,-0.03448,-0.04272,-0.01343,-0.00443,0.00046,-0.00198,0.00504,-0.00458,-0.03128,-0.01953,0.0061,-0.03983
5.7875,0.0,-0.01129,-0.01862,-0.01617,-0.03616,-0.04929,-0.01358,-0.00259,0.00061,0.00961,0.00671,-0.0029,-0.02899,-0.01862,0.00656,-0.0412
5.788,0.00046,-0.00305,-0.01495,-0.01938,-0.03616,-0.06027,-0.01312,-0.00214,0.00198,0.02304,0.01221,-0.00336,-0.02548,-0.01556,0.00732,-0.04456
5.7885,0.00031,0.00549,-0.01068,-0.02014,-0.03464,-0.06973,-0.01297,-0.00275,0.00198,0.02945,0.01709,-0.00534,-0.0235,-0.01236,0.00717,-0.04913
5.789,0.00015,0.01648,-0.00504,-0.01984,-0.03021,-0.07172,-0.01373,-0.00381,0.00015,0.02029,0.02029,-0.00656,-0.02487,-0.01175,0.00671,-0.05371
5.7895,-0.00061,0.02838,0.00427,-0.02106,-0.02396,-0.0621,-0.01419,-0.00275,-0.00168,-0.00183,0.02289,-0.00763,-0.02823,-0.01389,0.00793,-0.05524
5.79,-0.00122,0.03601,0.01648,-0.02441,-0.01678,-0.04486,-0.01282,-0.00183,-0.00183,-0.02441,0.02625,-0.00839,-0.03326,-0.01633,0.01144,-0.05264
5.7905,-0.00259,0.03708,0.03082,-0.0267,-0.01221,-0.03418,-0.0116,-0.00137,-0.00122,-0.03494,0.02975,-0.01007,-0.04089,-0.01801,0.0145,-0.04929
5.791,-0.00519,0.03067,0.04501,-0.02594,-0.00961,-0.03494,-0.01144,-0.00214,-0.00137,-0.03326,0.03174,-0.01053,-0.04684,-0.02045,0.0119,-0.04532
5.7915,-0.00824,0.01663,0.05753,-0.02258,-0.00809,-0.03906,-0.01282,-0.00305,-0.00412,-0.02426,0.0322,-0.00854,-0.0444,-0.02243,0.0061,-0.04227
5.792,-0.01083,-0.00427,0.05981,-0.01999,-0.00931,-0.04013,-0.01495,-0.00366,-0.00748,-0.0148,0.03372,-0.00595,-0.03525,-0.02365,0.00198,-0.03677
5.7925,-0.0119,-0.02686,0.04959,-0.01862,-0.01678,-0.03876,-0.01511,-0.0029,-0.01022,-0.01114,0.03632,-0.00458,-0.02792,-0.0209,0.00305,-0.02869
5.793,-0.01221,-0.04425,0.02991,-0.01678,-0.03159,-0.03723,-0.0145,-0.00107,-0.01129,-0.01099,0.04044,-0.00412,-0.02991,-0.01801,0.00687,-0.01816
5.7935,-0.01373,-0.05463,0.00458,-0.0148,-0.0499,-0.03815,-0.01419,0.00107,-0.01144,-0.01343,0.04288,-0.00504,-0.03952,-0.01724,0.00916,-0.01419
5.794,-0.01785,-0.0592,-0.02243,-0.01343,-0.06363,-0.04135,-0.01495,0.00244,-0.01389,-0.01495,0.04349,-0.00519,-0.04807,-0.01999,0.00916,-0.02472
5.7945,-0.02167,-0.0621,-0.04974,-0.01205,-0.06332,-0.04669,-0.0145,0.00122,-0.02045,-0.01511,0.04395,-0.00443,-0.05081,-0.02335,0.00763,-0.04593
5.795,-0.02548,-0.06393,-0.07431,-0.01053,-0.04974,-0.05386,-0.01343,0.00015,-0.02762,-0.01434,0.04532,-0.0032,-0.04974,-0.02441,0.00458,-0.06393
5.7955,-0.02747,-0.06409,-0.09262,-0.0087,-0.03464,-0.05707,-0.01205,-0.00076,-0.03082,-0.01282,0.04822,-0.00305,-0.04471,-0.02396,0.00275,-0.07034
5.796,-0.02869,-0.0647,-0.1062,-0.00717,-0.02808,-0.05798,-0.01144,-0.00076,-0.03036,-0.01343,0.04791,-0.00351,-0.03693,-0.02075,0.00275,-0.06699
5.7965,-0.02838,-0.06683,-0.11505,-0.00656,-0.0238,-0.05569,-0.01221,-0.00076,-0.02869,-0.01633,0.04318,-0.00397,-0.02808,-0.0174,0.00748,-0.05402
5.797,-0.02731,-0.06912,-0.1207,-0.00717,-0.01312,-0.05356,-0.01358,-0.00137,-0.02945,-0.02014,0.03571,-0.00336,-0.02319,-0.01541,0.0116,-0.03494
5.7975,-0.02548,-0.06897,-0.12451,-0.00763,0.00092,-0.05066,-0.01389,-0.00107,-0.03235,-0.0238,0.02472,-0.00168,-0.02335,-0.01602,0.01175,-0.01923
5.798,-0.02304,-0.06348,-0.12527,-0.00793,0.00793,-0.04608,-0.01328,-0.00122,-0.03632,-0.02869,0.00732,-0.00046,-0.02625,-0.0174,0.00809,-0.01694
5.7985,-0.02182,-0.05417,-0.12177,-0.00702,0.00656,-0.04333,-0.01328,-0.00076,-0.03693,-0.03311,-0.01251,-0.00122,-0.02899,-0.02014,0.00443,-0.02411
5.799,-0.02136,-0.0473,-0.11719,-0.00641,-0.00153,-0.04425,-0.01343,-0.00046,-0.03525,-0.03479,-0.02548,-0.00275,-0.02823,-0.02304,-0.00015,-0.03159
5.7995,-0.02029,-0.04578,-0.11261,-0.00656,-0.01205,-0.04623,-0.01404,-0.00061,-0.03204,-0.03189,-0.03128,-0.00458,-0.02411,-0.02533,-0.00702,-0.03448
5.8,-0.01678,-0.04883,-0.10712,-0.00671,-0.02258,-0.04562,-0.01495,0.00015,-0.02716,-0.02792,-0.0354,-0.00519,-0.01846,-0.02563,-0.01175,-0.03555
5.8005,-0.01556,-0.05203,-0.09766,-0.00717,-0.03159,-0.04028,-0.01419,-0.00031,-0.01984,-0.02319,-0.04181,-0.00504,-0.0177,-0.02319,-0.01236,-0.03616
5.801,-0.01648,-0.05173,-0.08347,-0.00671,-0.04166,-0.03357,-0.01297,0.0,-0.01221,-0.02029,-0.04608,-0.0032,-0.0264,-0.01907,-0.00641,-0.03586
5.8015,-0.01999,-0.04807,-0.06531,-0.00687,-0.05371,-0.02975,-0.01205,0.00031,-0.00885,-0.01785,-0.04578,-0.00259,-0.0383,-0.01694,0.0,-0.03494
5.802,-0.02304,-0.04486,-0.04974,-0.00565,-0.06729,-0.03082,-0.01282,0.00076,-0.00977,-0.01785,-0.04196,-0.00443,-0.04257,-0.01999,0.00702,-0.03677
5.8025,-0.02457,-0.0441,-0.03922,-0.00443,-0.07828,-0.03479,-0.01373,-0.00046,-0.00992,-0.01678,-0.03693,-0.00565,-0.03464,-0.02289,0.01617,-0.03998
5.803,-0.02518,-0.04532,-0.03326,-0.00351,-0.08209,-0.03845,-0.01389,-0.00183,-0.00702,-0.01465,-0.03052,-0.0058,-0.02106,-0.02426,0.02213,-0.04135
5.8035,-0.02365,-0.04745,-0.02869,-0.00366,-0.07599,-0.03738,-0.01358,-0.00351,-0.00381,-0.01144,-0.0238,-0.00381,-0.01266,-0.0209,0.01999,-0.03922
5.804,-0.02151,-0.04898,-0.02472,-0.00671,-0.065,-0.03418,-0.01434,-0.00458,-0.00366,-0.01083,-0.01724,-0.00305,-0.01434,-0.01877,0.01434,-0.03693
5.8045,-0.01831,-0.04913,-0.02151,-0.01007,-0.05188,-0.02853,-0.01511,-0.00504,-0.00519,-0.01434,-0.01022,-0.00427,-0.02319,-0.01801,0.01266,-0.03754
5.805,-0.01556,-0.04715,-0.01968,-0.00946,-0.04074,-0.02213,-0.01419,-0.00473,-0.00504,-0.01907,-0.00198,-0.00702,-0.03418,-0.01801,0.0174,-0.04211
5.8055,-0.01266,-0.04471,-0.01846,-0.00778,-0.03418,-0.01587,-0.01251,-0.00565,-0.00443,-0.0235,0.00763,-0.009,-0.04166,-0.01633,0.02151,-0.04745
5.806,-0.009,-0.04257,-0.01526,-0.00687,-0.03281,-0.01083,-0.01251,-0.00641,-0.00504,-0.0235,0.01633,-0.009,-0.04379,-0.01297,0.02151,-0.05112
5.8065,-0.00427,-0.03922,-0.01114,-0.00748,-0.03479,-0.01328,-0.01221,-0.00687,-0.00549,-0.01709,0.02228,-0.00732,-0.04349,-0.01099,0.01785,-0.04974
5.807,-0.00137,-0.03754,-0.00824,-0.00824,-0.03738,-0.02869,-0.01282,-0.0058,-0.00626,-0.00763,0.02533,-0.00305,-0.047,-0.01328,0.01282,-0.04608
5.8075,-0.00137,-0.04242,-0.00671,-0.00763,-0.04013,-0.05753,-0.01389,-0.00519,-0.00717,0.00366,0.0267,0.00092,-0.056,-0.01801,0.00992,-0.04349
5.808,-0.00244,-0.05768,-0.00336,-0.00793,-0.04211,-0.0853,-0.0148,-0.00488,-0.00839,0.01862,0.02884,0.00244,-0.0679,-0.02274,0.00961,-0.04272
5.8085,-0.00305,-0.07629,-0.00137,-0.00977,-0.04105,-0.09552,-0.01526,-0.00549,-0.00931,0.03845,0.03036,0.00031,-0.07202,-0.02411,0.00931,-0.04242
5.809,-0.0032,-0.08224,-0.00061,-0.01038,-0.03708,-0.0824,-0.01434,-0.00534,-0.00916,0.05249,0.02991,-0.00336,-0.06302,-0.01938,0.00778,-0.04196
5.8095,-0.00244,-0.06775,0.00244,-0.01022,-0.03403,-0.06073,-0.01312,-0.00504,-0.0087,0.04486,0.02625,-0.00443,-0.04745,-0.00626,0.00641,-0.04059
5.81,-0.00229,-0.04349,0.0087,-0.00809,-0.03143,-0.05005,-0.01251,-0.00488,-0.00824,0.01556,0.02197,-0.00259,-0.03647,0.009,0.00763,-0.03891
5.8105,-0.00275,-0.02441,0.0174,-0.00839,-0.03036,-0.05051,-0.01175,-0.00427,-0.00854,-0.01724,0.02563,-0.00031,-0.03342,0.01144,0.00961,-0.03891
5.811,-0.00259,-0.01175,0.02609,-0.00916,-0.02884,-0.05173,-0.01129,-0.00397,-0.00854,-0.03296,0.05051,0.00031,-0.0322,-0.00626,0.00961,-0.03952
5.8115,-0.00412,0.00687,0.03006,-0.00763,-0.02838,-0.0473,-0.01129,-0.00366,-0.00748,-0.02853,0.1062,-0.00092,-0.02655,-0.03296,0.00778,-0.0412
5.812,-0.00702,0.03479,0.02853,-0.00229,-0.02914,-0.03922,-0.01205,-0.00473,-0.00793,-0.01968,0.16937,-0.00214,-0.01846,-0.04471,0.00687,-0.04166
5.8125,-0.01328,0.05051,0.02136,0.00214,-0.02823,-0.03372,-0.01343,-0.00473,-0.00916,-0.02075,0.19058,-0.00397,-0.01221,-0.03418,0.00656,-0.04196
5.813,-0.01801,0.03006,0.01205,-0.00107,-0.02625,-0.0293,-0.0148,-0.00366,-0.01053,-0.03113,0.14481,-0.00412,-0.01007,-0.01236,0.00763,-0.04196
5.8135,-0.02045,-0.02014,0.00061,-0.00671,-0.02274,-0.02609,-0.01648,-0.00259,-0.0116,-0.04211,0.06973,-0.00381,-0.01312,0.0058,0.00748,-0.04272
5.814,-0.01907,-0.06989,-0.01221,-0.00992,-0.02228,-0.02533,-0.01602,-0.0029,-0.01343,-0.04669,0.02731,-0.00397,-0.01907,0.01862,0.00687,-0.04486
5.8145,-0.01602,-0.09583,-0.02777,-0.01038,-0.02335,-0.03265,-0.01389,-0.00412,-0.01511,-0.04349,0.04028,-0.00427,-0.02304,0.02716,0.00763,-0.04547
5.815,-0.01389,-0.10132,-0.04105,-0.01175,-0.0238,-0.04745,-0.0119,-0.00519,-0.01709,-0.03906,0.07965,-0.00198,-0.02335,0.0293,0.01053,-0.04456
5.8155,-0.01465,-0.09445,-0.04913,-0.01526,-0.02518,-0.06729,-0.01236,-0.00412,-0.02014,-0.03372,0.10117,-0.00107,-0.02304,0.0209,0.01221,-0.04379
5.816,-0.01709,-0.07629,-0.05371,-0.02014,-0.02625,-0.08652,-0.01389,-0.00381,-0.02304,-0.0293,0.07935,0.00015,-0.02533,0.00824,0.01038,-0.04501
5.8165,-0.01801,-0.05005,-0.05646,-0.02518,-0.02563,-0.1001,-0.01495,-0.00412,-0.02563,-0.02487,0.01175,-0.00046,-0.02792,-0.00076,0.00687,-0.04532
5.817,-0.01694,-0.0293,-0.05905,-0.02777,-0.02533,-0.09933,-0.01526,-0.00519,-0.02792,-0.02365,-0.0766,-0.00107,-0.02777,-0.0061,0.00626,-0.04395
5.8175,-0.01572,-0.02487,-0.06165,-0.02594,-0.0238,-0.0824,-0.01434,-0.0061,-0.02914,-0.02441,-0.15182,-0.00153,-0.0238,-0.01389,0.00977,-0.04257
5.818,-0.01465,-0.03601,-0.06378,-0.0209,-0.02029,-0.05966,-0.01312,-0.00549,-0.02869,-0.02426,-0.19058,-0.00122,-0.01663,-0.03113,0.01205,-0.0415
5.8185,-0.01297,-0.0502,-0.06332,-0.01663,-0.01602,-0.04822,-0.01236,-0.00519,-0.02487,-0.01328,-0.19516,0.00015,-0.00839,-0.06317,0.01175,-0.04242
5.819,-0.00992,-0.0531,-0.06073,-0.02029,-0.01297,-0.0502,-0.01175,-0.00534,-0.02136,0.01434,-0.18021,0.00229,-0.00214,-0.1004,0.00961,-0.04288
5.8195,-0.00534,-0.04318,-0.05646,-0.02686,-0.01297,-0.05417,-0.01236,-0.00595,-0.01999,0.05478,-0.15381,0.00397,0.00031,-0.12161,0.00778,-0.04303
5.82,-0.00046,-0.02853,-0.05249,-0.03159,-0.01465,-0.05219,-0.01419,-0.00549,-0.01999,0.08713,-0.121,0.0032,-0.00061,-0.11047,0.009,-0.04333
5.8205,0.00244,-0.02045,-0.05219,-0.03204,-0.01648,-0.04623,-0.01465,-0.00549,-0.0206,0.09842,-0.09186,-0.00046,-0.00366,-0.08133,0.01007,-0.04456
5.821,0.00488,-0.02014,-0.05386,-0.02884,-0.01953,-0.04242,-0.01404,-0.00595,-0.02136,0.08804,-0.07034,-0.00427,-0.00793,-0.05997,0.01038,-0.04532
5.8215,0.00641,-0.02502,-0.05539,-0.02472,-0.02151,-0.04089,-0.01328,-0.0058,-0.02106,0.06851,-0.0563,-0.00595,-0.01465,-0.05051,0.01038,-0.04471
5.822,0.00809,-0.02808,-0.05173,-0.02121,-0.02121,-0.04013,-0.01328,-0.00504,-0.01999,0.0531,-0.04333,-0.00534,-0.02457,-0.04059,0.00931,-0.04379
5.8225,0.00961,-0.02625,-0.04349,-0.01709,-0.02136,-0.0386,-0.01389,-0.00473,-0.01923,0.04486,-0.02777,-0.00381,-0.03174,-0.02533,0.00793,-0.04318
5.823,0.01129,-0.02319,-0.03647,-0.01343,-0.02411,-0.03616,-0.01343,-0.00473,-0.01938,0.03815,-0.01053,-0.00381,-0.03311,-0.01373,0.00671,-0.04333
5.8235,0.01373,-0.02289,-0.03342,-0.0119,-0.02655,-0.03723,-0.0148,-0.00458,-0.01801,0.03113,0.00397,-0.00488,-0.03433,-0.01221,0.00656,-0.04318
5.824,0.01389,-0.02686,-0.03479,-0.01328,-0.02518,-0.03967,-0.01617,-0.00427,-0.01572,0.02151,0.01221,-0.00473,-0.04501,-0.01923,0.00458,-0.04318
5.8245,0.01083,-0.0322,-0.03662,-0.01419,-0.0174,-0.04272,-0.01602,-0.00259,-0.01373,0.01266,0.01877,-0.00229,-0.06348,-0.02838,0.00214,-0.04318
5.825,0.0061,-0.04059,-0.03632,-0.01312,-0.009,-0.04303,-0.01419,-0.00198,-0.01236,0.00549,0.0264,0.00061,-0.07965,-0.03204,0.00076,-0.04288
5.8255,0.00046,-0.04822,-0.03326,-0.01068,-0.00595,-0.03937,-0.01251,-0.00229,-0.01022,-0.00137,0.03555,0.00275,-0.08881,-0.02319,0.00061,-0.04242
5.826,-0.00214,-0.05325,-0.02884,-0.00992,-0.01404,-0.03586,-0.01221,-0.0032,-0.00763,-0.00809,0.04257,0.00214,-0.09094,-0.00092,0.00229,-0.04227
5.8265,-0.00366,-0.05188,-0.02609,-0.0119,-0.03189,-0.03464,-0.01358,-0.00397,-0.00595,-0.0148,0.04211,0.00061,-0.08743,0.02594,0.00443,-0.04333
5.827,-0.00473,-0.04761,-0.02304,-0.01434,-0.05066,-0.03555,-0.01389,-0.00366,-0.00641,-0.01999,0.02991,-0.00046,-0.07828,0.04486,0.00519,-0.0444
5.8275,-0.0058,-0.04257,-0.01938,-0.01434,-0.05814,-0.03555,-0.01297,-0.00244,-0.00595,-0.02319,0.00977,-0.00061,-0.0647,0.04791,0.00687,-0.04456
5.828,-0.00671,-0.03845,-0.01404,-0.01312,-0.05402,-0.03586,-0.0119,-0.00061,-0.00366,-0.02777,-0.01053,-0.00031,-0.05249,0.03922,0.01221,-0.04425
5.8285,-0.00671,-0.03418,0.00137,-0.01282,-0.04196,-0.03647,-0.01205,-0.00061,-0.00122,-0.03342,-0.02426,0.0,-0.04395,0.02701,0.0206,-0.04318
5.829,-0.00717,-0.02853,0.0322,-0.01343,-0.03326,-0.03815,-0.01297,-0.00153,-0.00259,-0.03632,-0.0296,0.00092,-0.03922,0.01633,0.02426,-0.04166
5.8295,-0.00671,-0.02121,0.07843,-0.01266,-0.03159,-0.03983,-0.01175,-0.00214,-0.00473,-0.03647,-0.02975,0.00381,-0.03525,0.00504,0.01816,-0.04089
5.83,-0.00519,-0.01175,0.12482,-0.01099,-0.03342,-0.04364,-0.01038,-0.00229,-0.0058,-0.03616,-0.03036,0.00824,-0.02945,-0.0061,0.01007,-0.0415
5.8305,-0.00366,0.00183,0.13885,-0.01022,-0.03555,-0.04623,-0.01251,-0.00168,-0.00534,-0.03647,-0.03342,0.01129,-0.02365,-0.01266,0.00748,-0.0415
5.831,-0.00351,0.02167,0.09781,-0.0119,-0.03647,-0.047,-0.01556,-0.00244,-0.00549,-0.03769,-0.02991,0.01144,-0.02045,-0.01205,0.01068,-0.04135
5.8315,-0.00458,0.03952,0.01373,-0.01251,-0.03693,-0.04425,-0.01724,-0.00412,-0.00748,-0.03891,-0.01831,0.00854,-0.02014,-0.01144,0.01373,-0.04105
5.832,-0.0061,0.04242,-0.06424,-0.0116,-0.03784,-0.04181,-0.01755,-0.0058,-0.00916,-0.04196,-0.00412,0.00595,-0.02106,-0.01953,0.01419,-0.0415
5.8325,-0.00595,0.02518,-0.10559,-0.00961,-0.03754,-0.04013,-0.0174,-0.00732,-0.00946,-0.04456,0.00214,0.00473,-0.02121,-0.03815,0.01495,-0.04242
5.833,-0.00473,-0.0029,-0.11459,-0.0087,-0.03632,-0.04089,-0.01572,-0.009,-0.01038,-0.04425,0.00229,0.00336,-0.02167,-0.05814,0.01678,-0.04272
5.8335,-0.00626,-0.03036,-0.11398,-0.00824,-0.0354,-0.04211,-0.01297,-0.00793,-0.01266,-0.04105,0.0032,0.00259,-0.02274,-0.06546,0.01602,-0.0415
5.834,-0.01083,-0.04868,-0.11398,-0.00946,-0.0354,-0.0444,-0.01205,-0.00534,-0.01587,-0.0386,0.00656,0.00122,-0.02548,-0.05356,0.0116,-0.03998
5.8345,-0.01694,-0.05768,-0.11215,-0.01083,-0.03525,-0.0473,-0.01343,-0.0029,-0.01907,-0.03769,0.00793,-0.00122,-0.02823,-0.02991,0.00824,-0.04028
5.835,-0.0206,-0.05981,-0.10513,-0.01175,-0.03494,-0.04944,-0.01404,-0.00244,-0.0235,-0.03891,0.00809,-0.00473,-0.0296,-0.01144,0.00854,-0.04028
5.8355,-0.02075,-0.05783,-0.09613,-0.01114,-0.03464,-0.05112,-0.01297,-0.0032,-0.02792,-0.04791,0.0087,-0.00885,-0.02975,-0.00641,0.01129,-0.04105
5.836,-0.01877,-0.05753,-0.08865,-0.00839,-0.03586,-0.05173,-0.0119,-0.00504,-0.02975,-0.06378,0.01282,-0.01175,-0.02975,-0.00885,0.0119,-0.0412
5.8365,-0.01923,-0.05875,-0.07965,-0.00565,-0.03586,-0.05005,-0.01205,-0.00549,-0.02792,-0.0766,0.01541,-0.01236,-0.03082,-0.01312,0.01175,-0.04089
5.837,-0.01953,-0.06424,-0.06882,-0.00473,-0.03433,-0.04807,-0.01358,-0.00549,-0.02594,-0.07507,0.01587,-0.01083,-0.03098,-0.01602,0.01099,-0.04211
5.8375,-0.01633,-0.07065,-0.05798,-0.00626,-0.03311,-0.04715,-0.01373,-0.00519,-0.02609,-0.06592,0.01404,-0.00702,-0.03006,-0.01709,0.01083,-0.04257
5.838,-0.00946,-0.07935,-0.05142,-0.00839,-0.03357,-0.04791,-0.01373,-0.00473,-0.02625,-0.05798,0.01266,-0.00122,-0.02808,-0.01801,0.01053,-0.0415
5.8385,-0.0032,-0.09079,-0.04593,-0.01068,-0.0354,-0.05096,-0.01343,-0.00488,-0.02655,-0.056,0.01053,0.00427,-0.02716,-0.01892,0.00916,-0.04089
5.839,0.00046,-0.10086,-0.03998,-0.01221,-0.03616,-0.05203,-0.01251,-0.00443,-0.02655,-0.05478,0.00931,0.00687,-0.02655,-0.02029,0.0061,-0.04105
5.8395,0.00275,-0.10574,-0.03586,-0.01114,-0.03525,-0.05005,-0.01175,-0.00443,-0.02716,-0.04974,0.00748,0.00656,-0.02548,-0.02075,0.00244,-0.04135
5.84,0.00458,-0.10666,-0.04364,-0.00961,-0.03174,-0.04608,-0.01251,-0.00381,-0.02655,-0.04227,0.0058,0.00595,-0.02533,-0.02121,0.00183,-0.04089
5.8405,0.00381,-0.10529,-0.06348,-0.00809,-0.02884,-0.04074,-0.01236,-0.00275,-0.02457,-0.03677,0.00259,0.00702,-0.02533,-0.0235,0.00107,-0.03952
5.841,0.00153,-0.10071,-0.08469,-0.00854,-0.02609,-0.03693,-0.01266,-0.00183,-0.02228,-0.03586,-0.00061,0.00824,-0.02655,-0.02579,-0.00046,-0.03784
5.8415,-0.00061,-0.09201,-0.09521,-0.00916,-0.02518,-0.03632,-0.01221,-0.00122,-0.02167,-0.03845,-0.00519,0.00809,-0.02884,-0.02716,-0.0032,-0.03845
5.842,-0.00229,-0.08118,-0.09094,-0.00885,-0.02426,-0.03983,-0.0119,-0.00076,-0.02136,-0.04333,-0.01328,0.00641,-0.02991,-0.02655,-0.0032,-0.04089
5.8425,-0.00534,-0.07172,-0.07904,-0.009,-0.02548,-0.04425,-0.01343,0.0,-0.02075,-0.04684,-0.0235,0.00534,-0.02914,-0.02579,0.00076,-0.0441
5.843,-0.01022,-0.06638,-0.06836,-0.00946,-0.02777,-0.0499,-0.01343,-0.00031,-0.0206,-0.04623,-0.0322,0.0058,-0.02686,-0.02609,0.00656,-0.04654
5.8435,-0.01419,-0.06516,-0.06332,-0.00992,-0.02823,-0.05768,-0.01419,-0.00137,-0.0209,-0.04242,-0.0354,0.00519,-0.02411,-0.02518,0.01404,-0.04745
5.844,-0.01434,-0.06836,-0.06302,-0.00977,-0.02609,-0.06638,-0.01587,-0.00229,-0.02014,-0.03922,-0.03448,0.00549,-0.02274,-0.02304,0.0174,-0.04868
5.8445,-0.01175,-0.07431,-0.06622,-0.00885,-0.02457,-0.07278,-0.01678,-0.00183,-0.01709,-0.04013,-0.03189,0.00458,-0.02167,-0.01999,0.01816,-0.05127
5.845,-0.00717,-0.07553,-0.06516,-0.00793,-0.02563,-0.07431,-0.01678,-0.00107,-0.01282,-0.04425,-0.0264,0.00336,-0.0206,-0.01648,0.02167,-0.05188
5.8455,-0.00397,-0.06775,-0.05646,-0.00809,-0.02655,-0.07126,-0.01556,-0.00046,-0.01022,-0.04654,-0.01785,0.0032,-0.02075,-0.01343,0.02808,-0.04974
5.846,-0.00153,-0.05127,-0.04135,-0.00992,-0.02396,-0.06393,-0.01541,0.00031,-0.00793,-0.04379,-0.00992,0.00565,-0.02258,-0.00641,0.02441,-0.04364
5.8465,-0.00183,-0.03479,-0.02701,-0.01389,-0.01587,-0.05493,-0.01495,0.0,-0.00641,-0.03616,-0.00565,0.00793,-0.02686,0.00549,0.0032,-0.03448
5.847,-0.0032,-0.02548,-0.02243,-0.0177,-0.00473,-0.047,-0.0148,-0.00061,-0.00595,-0.02991,-0.0032,0.00854,-0.03082,0.01663,-0.02274,-0.02686
5.8475,-0.00519,-0.02304,-0.03357,-0.01984,0.00351,-0.04242,-0.01312,0.00076,-0.00687,-0.02808,-0.00198,0.00839,-0.0351,0.02045,-0.02991,-0.02548
5.848,-0.00565,-0.02411,-0.05234,-0.02014,0.00626,-0.03876,-0.0119,0.00366,-0.009,-0.02975,-0.00137,0.0087,-0.04135,0.01465,-0.01892,-0.03204
5.8485,-0.00488,-0.02548,-0.06348,-0.01938,0.00351,-0.03601,-0.01266,0.00549,-0.01007,-0.0325,-0.00198,0.01053,-0.04807,0.00778,-0.00504,-0.04181
5.849,-0.00336,-0.02548,-0.0592,-0.0209,-0.00366,-0.03281,-0.01389,0.00488,-0.00946,-0.03632,-0.00259,0.0116,-0.05157,0.00504,0.01129,-0.04654
5.8495,-0.00275,-0.02441,-0.04486,-0.02258,-0.0145,-0.02945,-0.01312,0.00412,-0.00854,-0.03708,-0.00198,0.0119,-0.05005,0.00488,0.03754,-0.04425
5.85,-0.00214,-0.02365,-0.03281,-0.02396,-0.03082,-0.02762,-0.01144,0.00381,-0.00961,-0.03632,0.00107,0.01144,-0.04562,0.00214,0.06073,-0.04135
5.8505,-0.00275,-0.02243,-0.02884,-0.02396,-0.05829,-0.02899,-0.01099,0.00305,-0.0119,-0.03632,0.0029,0.009,-0.03998,-0.00427,0.06165,-0.0415
5.851,-0.00259,-0.01923,-0.02945,-0.0238,-0.08408,-0.03143,-0.01205,-0.00107,-0.01373,-0.03799,0.00198,0.00885,-0.03693,-0.01419,0.03952,-0.04333
5.8515,-0.00168,-0.01663,-0.02914,-0.0238,-0.08896,-0.03311,-0.01266,-0.00809,-0.01236,-0.03845,-0.00153,0.00946,-0.03601,-0.03204,0.01785,-0.04349
5.852,-0.00031,-0.01633,-0.02274,-0.02502,-0.06714,-0.03387,-0.01297,-0.0148,-0.01083,-0.03525,-0.0058,0.00977,-0.03586,-0.05173,0.0116,-0.04257
5.8525,0.00214,-0.01678,-0.01617,-0.02701,-0.04211,-0.03281,-0.01358,-0.01724,-0.00992,-0.03021,-0.00885,0.00946,-0.03387,-0.05844,0.01572,-0.04105
5.853,0.0061,-0.01587,-0.01251,-0.0293,-0.03403,-0.03067,-0.01389,-0.01556,-0.00916,-0.02563,-0.00732,0.00946,-0.02808,-0.05051,0.01862,-0.03815
5.8535,0.00839,-0.01419,-0.01511,-0.02869,-0.04669,-0.03036,-0.01389,-0.01266,-0.00916,-0.02518,-0.00427,0.01099,-0.02289,-0.0499,0.01907,-0.03769
5.854,0.00763,-0.01511,-0.01938,-0.02548,-0.05844,-0.0322,-0.01404,-0.009,-0.00931,-0.02533,-0.00443,0.01129,-0.02106,-0.06378,0.01678,-0.03876
5.8545,0.00504,-0.01709,-0.02106,-0.02121,-0.05951,-0.03922,-0.01663,-0.00534,-0.00885,-0.02411,-0.00793,0.0116,-0.02457,-0.07538,0.01221,-0.0415
5.855,0.00336,-0.01938,-0.01999,-0.01892,-0.05234,-0.04852,-0.01831,-0.00275,-0.00793,-0.01953,-0.00946,0.0116,-0.02655,-0.06577,0.00977,-0.04364
5.8555,0.00381,-0.01984,-0.01526,-0.01938,-0.04486,-0.05478,-0.01831,-0.00214,-0.00778,-0.01099,-0.00793,0.01114,-0.02502,-0.04074,0.0087,-0.04395
5.856,0.00412,-0.01801,-0.00778,-0.01892,-0.04105,-0.06088,-0.01846,-0.00214,-0.00778,0.00168,-0.00397,0.01099,-0.02121,-0.01846,0.0087,-0.04288
5.8565,0.00168,-0.01297,0.00168,-0.01923,-0.03815,-0.06256,-0.02289,-0.00366,-0.00595,0.01526,0.0032,0.01129,-0.02258,-0.00778,0.00763,-0.03952
5.857,-0.00244,-0.0058,0.00946,-0.01968,-0.03403,-0.0592,-0.03082,-0.00641,-0.00198,0.02258,0.03311,0.01175,-0.02914,-0.00244,0.00443,-0.0351
5.8575,-0.00549,0.00168,0.00977,-0.01984,-0.03128,-0.05127,-0.04181,-0.009,0.00031,0.01785,0.11734,0.01053,-0.03555,-0.00092,0.00107,-0.03311
5.858,-0.00732,0.00717,0.00168,-0.01938,-0.03067,-0.04471,-0.05234,-0.00916,-0.00198,0.00046,0.2388,0.00946,-0.03876,-0.00031,-0.00336,-0.03525
5.8585,-0.00809,0.00717,-0.0087,-0.01907,-0.03296,-0.04578,-0.05341,-0.00656,-0.00473,-0.02197,0.31052,0.00961,-0.03922,0.00015,-0.00534,-0.03891
5.859,-0.00839,-0.00336,-0.01755,-0.01938,-0.0351,-0.05447,-0.03693,-0.00351,-0.00824,-0.04181,0.2713,0.01038,-0.03876,0.00092,-0.00427,-0.04013
5.8595,-0.00687,-0.02365,-0.02197,-0.01892,-0.03525,-0.06241,-0.00427,-0.00153,-0.01236,-0.05325,0.16296,0.00809,-0.03677,0.00305,-0.00031,-0.0412
5.86,-0.00488,-0.04715,-0.0235,-0.01938,-0.03387,-0.06531,0.03082,-0.00214,-0.0177,-0.05692,0.05997,0.0029,-0.03342,0.01205,0.00214,-0.04272
5.8605,-0.00565,-0.0647,-0.02594,-0.01968,-0.03296,-0.0621,0.04837,-0.00443,-0.02106,-0.0531,-0.02243,-0.00107,-0.02991,0.02716,0.00137,-0.04578
5.861,-0.00793,-0.07416,-0.02777,-0.01999,-0.03159,-0.05829,0.03159,-0.00534,-0.02243,-0.04745,-0.1004,-0.00244,-0.02731,0.0444,0.0029,-0.04608
5.8615,-0.00885,-0.0795,-0.02991,-0.01801,-0.03052,-0.056,-0.00397,-0.00351,-0.02426,-0.04227,-0.159,-0.00183,-0.02487,0.05524,0.01007,-0.04425
5.862,-0.00656,-0.08179,-0.03311,-0.01648,-0.02777,-0.05508,-0.02899,-0.00137,-0.02899,-0.03922,-0.17593,-0.00153,-0.02472,0.05524,0.01511,-0.04272
5.8625,-0.00366,-0.08057,-0.03479,-0.01648,-0.02411,-0.05325,-0.03052,-0.00076,-0.03525,-0.03845,-0.16052,-0.00275,-0.02609,0.04669,0.01175,-0.04242
5.863,-0.00214,-0.07584,-0.03479,-0.01816,-0.02029,-0.05081,-0.02548,-0.00153,-0.04318,-0.03845,-0.14557,-0.00229,-0.02823,0.02777,0.00778,-0.04181
5.8635,-0.00122,-0.06973,-0.03265,-0.01755,-0.01755,-0.04959,-0.02258,-0.00198,-0.0502,-0.0386,-0.14435,0.00015,-0.02853,-0.009,0.00916,-0.04196
5.864,0.00031,-0.0647,-0.03067,-0.01602,-0.01602,-0.04883,-0.01907,-0.00046,-0.05463,-0.03738,-0.1532,0.00351,-0.02686,-0.06378,0.0145,-0.04181
5.8645,0.00122,-0.06241,-0.0325,-0.01434,-0.01633,-0.04715,-0.01251,0.00046,-0.05463,-0.03601,-0.16342,0.00488,-0.02701,-0.11597,0.01434,-0.04135
5.865,0.00092,-0.0592,-0.03479,-0.01404,-0.01724,-0.04639,-0.01205,-0.00061,-0.05066,-0.03555,-0.17563,0.00305,-0.02655,-0.14069,0.00977,-0.04059
5.8655,0.00275,-0.05707,-0.03525,-0.01328,-0.01694,-0.04608,-0.01968,-0.00275,-0.0473,-0.03616,-0.18814,-0.00046,-0.02594,-0.1358,0.00656,-0.03967
5.866,0.00534,-0.05569,-0.03342,-0.01205,-0.01602,-0.04608,-0.02563,-0.00336,-0.04227,-0.03799,-0.19821,-0.0029,-0.02533,-0.12115,0.00702,-0.04059
5.8665,0.00824,-0.05569,-0.03143,-0.01007,-0.01297,-0.04364,-0.02533,-0.00351,-0.03433,-0.03876,-0.20599,-0.00488,-0.02838,-0.10773,0.00778,-0.04242
5.867,0.00961,-0.05539,-0.03067,-0.00839,-0.00977,-0.03998,-0.02167,-0.00244,-0.02304,-0.0412,-0.21408,-0.00732,-0.03571,-0.0885,0.00671,-0.04318
5.8675,0.00931,-0.05234,-0.0293,-0.00885,-0.00977,-0.03738,-0.02121,-0.00137,-0.01251,-0.04272,-0.21744,-0.00931,-0.04379,-0.06744,0.00534,-0.0415
5.868,0.00824,-0.04456,-0.02762,-0.01114,-0.01709,-0.03738,-0.02182,-0.00015,-0.00412,-0.0444,-0.19989,-0.01068,-0.05035,-0.05524,0.00443,-0.03952
5.8685,0.00824,-0.0325,-0.02594,-0.01282,-0.02899,-0.04227,-0.02151,0.0,0.0029,-0.04242,-0.15778,-0.01038,-0.05463,-0.05096,0.00488,-0.03876
5.869,0.009,-0.02136,-0.02563,-0.01343,-0.03738,-0.04898,-0.01877,0.00015,0.00763,-0.03784,-0.10757,-0.01022,-0.05768,-0.04639,0.0032,-0.03952
5.8695,0.01053,-0.01633,-0.0235,-0.01221,-0.03708,-0.05463,-0.01587,0.00122,0.00931,-0.03021,-0.06958,-0.01022,-0.05615,-0.04013,0.00153,-0.04089
5.87,0.0116,-0.01724,-0.01923,-0.01038,-0.03265,-0.05768,-0.01495,0.00244,0.00748,-0.02167,-0.04654,-0.009,-0.04974,-0.03586,0.00031,-0.04105
5.8705,0.01083,-0.02045,-0.01114,-0.00854,-0.02747,-0.05905,-0.01633,0.00305,0.0058,-0.01572,-0.03036,-0.00839,-0.03906,-0.02747,0.00153,-0.04105
5.871,0.01053,-0.02365,0.00137,-0.00916,-0.02457,-0.06058,-0.01892,0.00198,0.00244,-0.01419,-0.01587,-0.00732,-0.0293,-0.00748,0.00229,-0.04211
5.8715,0.01129,-0.02304,0.01968,-0.01282,-0.02777,-0.06027,-0.01968,0.00107,0.00015,-0.01572,-0.00565,-0.00671,-0.02258,0.01511,-0.00046,-0.04593
5.872,0.01175,-0.01175,0.04639,-0.01846,-0.04044,-0.05936,-0.01709,0.00015,-0.00244,-0.01678,-0.00107,-0.00671,-0.01846,0.02579,-0.0061,-0.0499
5.8725,0.00992,0.01144,0.07782,-0.02228,-0.05447,-0.05371,-0.01511,-0.00137,-0.00458,-0.01678,0.00092,-0.00778,-0.01648,0.01785,-0.01297,-0.0502
5.873,0.00656,0.02792,0.09872,-0.0235,-0.0592,-0.04242,-0.01511,-0.00275,-0.00763,-0.01923,0.00366,-0.00793,-0.01678,0.00183,-0.01617,-0.04578
5.8735,0.0029,0.00717,0.0885,-0.0235,-0.0563,-0.02823,-0.01465,-0.00397,-0.01038,-0.02106,0.00809,-0.00549,-0.01923,-0.00809,-0.01007,-0.04257
5.874,0.00031,-0.05005,0.04745,-0.02213,-0.05188,-0.01862,-0.01495,-0.00473,-0.01099,-0.02182,0.01343,-0.00275,-0.02274,-0.00702,0.00519,-0.04181
5.8745,-0.00275,-0.10895,-0.00061,-0.02029,-0.04669,-0.01495,-0.0145,-0.00427,-0.01022,-0.02182,0.01694,-0.00214,-0.02731,0.0029,0.01755,-0.04272
5.875,-0.00702,-0.13596,-0.03036,-0.01755,-0.03876,-0.01785,-0.01389,-0.00305,-0.00931,-0.02121,0.01816,-0.00427,-0.0322,0.01312,0.01434,-0.04227
5.8755,-0.01099,-0.13397,-0.03967,-0.01495,-0.0264,-0.02518,-0.01389,-0.00305,-0.00885,-0.02045,0.01892,-0.0061,-0.03555,0.01556,0.00504,-0.04074
5.876,-0.01266,-0.11887,-0.04639,-0.01465,-0.01678,-0.03479,-0.01373,-0.00458,-0.00839,-0.01968,0.0206,-0.00671,-0.03647,0.00763,0.01129,-0.0383
5.8765,-0.01373,-0.09857,-0.06271,-0.01633,-0.01617,-0.04547,-0.01373,-0.00473,-0.00824,-0.02014,0.02411,-0.00519,-0.03738,-0.00656,0.03326,-0.03571
5.877,-0.01678,-0.07523,-0.08286,-0.01923,-0.02686,-0.05737,-0.01389,-0.00397,-0.00931,-0.02167,0.02777,-0.00214,-0.03983,-0.01694,0.04486,-0.03479
5.8775,-0.01953,-0.05386,-0.10208,-0.01862,-0.04639,-0.07248,-0.0148,-0.00305,-0.01068,-0.02487,0.02945,0.00107,-0.04257,-0.01968,0.02991,-0.03677
5.878,-0.01999,-0.03922,-0.11536,-0.01587,-0.06744,-0.09109,-0.01785,-0.0029,-0.01251,-0.0238,0.02975,0.00122,-0.03845,-0.01801,0.00702,-0.03983
5.8785,-0.01633,-0.02884,-0.12619,-0.01175,-0.07919,-0.1062,-0.0206,-0.00305,-0.01419,-0.02182,0.03326,0.00061,-0.02808,-0.01556,-0.00153,-0.04257
5.879,-0.01175,-0.01999,-0.13382,-0.01038,-0.07416,-0.10498,-0.02548,-0.00351,-0.01556,-0.01831,0.03937,0.00031,-0.01907,-0.01205,0.00107,-0.0444
5.8795,-0.00473,-0.01511,-0.13611,-0.01068,-0.05692,-0.08575,-0.03036,-0.00381,-0.01572,-0.01724,0.04562,0.00107,-0.02228,-0.00153,0.00076,-0.04623
5.88,0.00244,-0.01694,-0.13397,-0.01007,-0.03769,-0.06439,-0.03174,-0.00458,-0.01572,-0.01678,0.04898,0.00137,-0.03754,0.01205,-0.00717,-0.04807
5.8805,0.00778,-0.02274,-0.12924,-0.00656,-0.02731,-0.05692,-0.03342,-0.00427,-0.0177,-0.01556,0.05005,0.00153,-0.05524,0.02197,-0.01663,-0.04913
5.881,0.00961,-0.02838,-0.12054,-0.00381,-0.02243,-0.06149,-0.03906,-0.00397,-0.01999,-0.01144,0.05325,0.0,-0.06485,0.02533,-0.0238,-0.047
5.8815,0.00931,-0.03128,-0.10712,-0.00427,-0.01984,-0.06683,-0.04761,-0.00473,-0.02075,-0.00702,0.05463,-0.00107,-0.06638,0.02014,-0.02823,-0.04395
5.882,0.0116,-0.03433,-0.09033,-0.00381,-0.01801,-0.0647,-0.05249,-0.0058,-0.02045,-0.00687,0.05081,-0.00046,-0.06302,0.01129,-0.0296,-0.04379
5.8825,0.01556,-0.03616,-0.07294,-0.00046,-0.01968,-0.05737,-0.05188,-0.00549,-0.02167,-0.00793,0.04623,0.00122,-0.05707,0.0032,-0.03296,-0.04471
5.883,0.01907,-0.03464,-0.05722,0.00198,-0.02457,-0.04776,-0.04929,-0.00443,-0.02441,-0.00824,0.0441,0.00092,-0.05127,-0.00015,-0.03891,-0.04456
5.8835,0.01831,-0.0296,-0.04639,0.00153,-0.02869,-0.03876,-0.03296,-0.00397,-0.0264,-0.00824,0.04227,-0.00031,-0.04822,-0.00122,-0.03738,-0.04242
5.884,0.01282,-0.02335,-0.03983,0.00076,-0.03067,-0.03128,0.00992,-0.00351,-0.0264,-0.00992,0.03662,-0.00214,-0.04715,-0.0032,-0.01251,-0.04105
5.8845,0.00656,-0.01724,-0.0354,0.00153,-0.02899,-0.02609,0.05203,-0.00336,-0.02533,-0.01205,0.02579,-0.00305,-0.04593,-0.00488,0.04028,-0.04105
5.885,0.00336,-0.01511,-0.03036,0.00336,-0.02777,-0.02426,0.04532,-0.00336,-0.02411,-0.01144,0.01297,-0.00259,-0.04303,-0.0061,0.0885,-0.04105
5.8855,0.00275,-0.01907,-0.02274,0.00305,-0.02701,-0.02426,-0.00153,-0.00351,-0.02243,-0.00626,0.00473,-0.00168,-0.0383,-0.00793,0.08789,-0.03998
5.886,0.00381,-0.02731,-0.0177,0.0029,-0.02533,-0.02731,-0.03098,-0.00443,-0.02075,0.00595,0.00626,-0.00153,-0.0351,-0.00885,0.04913,-0.03815
5.8865,0.00397,-0.0354,-0.01617,0.00381,-0.02258,-0.0325,-0.01633,-0.00488,-0.02167,0.02609,0.01892,-0.00137,-0.03525,-0.01068,0.02518,-0.03815
5.887,0.00488,-0.04059,-0.01938,0.00626,-0.02228,-0.03677,0.01175,-0.00443,-0.02289,0.04333,0.0351,0.0,-0.03662,-0.01343,0.04364,-0.03998
5.8875,0.00626,-0.04242,-0.02197,0.00854,-0.0235,-0.03815,0.02197,-0.0029,-0.0238,0.04639,0.04776,0.00031,-0.03677,-0.01968,0.07156,-0.04105
5.888,0.00946,-0.04181,-0.02136,0.00824,-0.02548,-0.03784,0.01358,-0.00214,-0.02319,0.03159,0.05707,-0.00122,-0.03571,-0.02533,0.06577,-0.04089
5.8885,0.01328,-0.04089,-0.01877,0.00763,-0.0264,-0.0383,0.00092,-0.00229,-0.02121,0.00717,0.06546,-0.00458,-0.03387,-0.02945,0.03143,-0.04181
5.889,0.01678,-0.03983,-0.01633,0.00931,-0.02579,-0.03876,-0.00778,-0.00427,-0.01862,-0.01999,0.0708,-0.00717,-0.0325,-0.03479,0.00275,-0.04196
5.8895,0.01831,-0.0383,-0.01526,0.01068,-0.02411,-0.03891,-0.00488,-0.00626,-0.01526,-0.04684,0.06927,-0.00732,-0.03082,-0.04196,-0.00198,-0.04181
5.89,0.01816,-0.0354,-0.01465,0.0116,-0.0206,-0.03998,0.00397,-0.00687,-0.01129,-0.06668,0.06088,-0.00732,-0.02869,-0.04791,0.00366,-0.04135
5.8905,0.01755,-0.03342,-0.01129,0.01389,-0.0177,-0.03952,0.00687,-0.00656,-0.00961,-0.07355,0.04868,-0.00748,-0.02594,-0.047,0.00656,-0.04013
5.891,0.01602,-0.0351,-0.00183,0.01999,-0.01785,-0.03952,0.00153,-0.00473,-0.00961,-0.0676,0.03311,-0.00732,-0.02197,-0.04105,0.00443,-0.03876
5.8915,0.01419,-0.04349,0.00946,0.02899,-0.02243,-0.03922,-0.00626,-0.0029,-0.01007,-0.05463,0.01663,-0.00763,-0.01755,-0.03479,0.00351,-0.03998
5.892,0.0119,-0.05646,0.01694,0.03586,-0.02731,-0.04074,-0.009,-0.00198,-0.01022,-0.04105,0.00336,-0.00885,-0.01617,-0.03082,0.00473,-0.0415
5.8925,0.00992,-0.06744,0.01801,0.03525,-0.02975,-0.04272,-0.00961,-0.0029,-0.00946,-0.02899,-0.0029,-0.00854,-0.01938,-0.02686,0.00519,-0.04181
5.893,0.00748,-0.06882,0.01526,0.02594,-0.02914,-0.04364,-0.01007,-0.00412,-0.00977,-0.01968,-0.00412,-0.00732,-0.02182,-0.02243,0.00656,-0.04028
5.8935,0.00366,-0.05997,0.01236,0.01373,-0.02518,-0.04242,-0.01083,-0.00397,-0.01083,-0.0148,-0.00702,-0.00336,-0.0206,-0.0209,0.00702,-0.03876
5.894,-0.00198,-0.04547,0.00977,0.00671,-0.02243,-0.04227,-0.01007,-0.0032,-0.01373,-0.0116,-0.01434,-0.00092,-0.01816,-0.01907,0.0061,-0.03815
5.8945,-0.009,-0.03189,0.00366,0.0119,-0.02502,-0.04517,-0.00946,-0.00351,-0.01694,-0.00854,-0.02121,0.00076,-0.0177,-0.02014,0.00488,-0.0386
5.895,-0.0174,-0.0238,-0.00809,0.0235,-0.03571,-0.04883,-0.00946,-0.00427,-0.01862,-0.00397,-0.0238,0.00214,-0.0206,-0.02106,0.00687,-0.03983
5.8955,-0.02655,-0.02151,-0.02106,0.02853,-0.0473,-0.05066,-0.00931,-0.00366,-0.01862,-0.00259,-0.02151,0.00351,-0.02594,-0.02258,0.00931,-0.04013
5.896,-0.03296,-0.0209,-0.03159,0.01862,-0.04776,-0.05051,-0.00854,-0.00244,-0.01724,-0.00381,-0.0209,0.00443,-0.03021,-0.02365,0.00778,-0.04013
5.8965,-0.03708,-0.0209,-0.03815,0.00137,-0.03906,-0.04807,-0.00854,-0.00153,-0.01617,-0.00427,-0.02792,0.00443,-0.03159,-0.02136,0.0029,-0.04028
5.897,-0.0386,-0.02319,-0.04181,-0.00763,-0.03143,-0.04639,-0.00946,-0.00046,-0.01633,-0.00275,-0.03342,0.00366,-0.02945,-0.01495,0.00076,-0.04074
5.8975,-0.03693,-0.02914,-0.04715,-0.00626,-0.03113,-0.04471,-0.00992,-0.00107,-0.01892,0.0,-0.03311,0.00275,-0.02823,-0.00473,0.00229,-0.04166
5.898,-0.03281,-0.03906,-0.05783,-0.0061,-0.03128,-0.04272,-0.01083,-0.00137,-0.02167,-0.00015,-0.02991,0.00183,-0.0293,0.00534,0.00473,-0.0415
5.8985,-0.02716,-0.04883,-0.07324,-0.01434,-0.02518,-0.03967,-0.01221,-0.00229,-0.02228,-0.00198,-0.03265,0.00183,-0.03311,0.01083,0.00519,-0.0412
5.899,-0.02213,-0.05341,-0.08789,-0.02838,-0.01663,-0.03708,-0.01297,-0.00183,-0.02106,-0.00687,-0.04181,0.00122,-0.03632,0.01205,0.00488,-0.04059
5.8995,-0.01694,-0.0531,-0.0946,-0.04272,-0.0145,-0.03738,-0.01144,-0.00214,-0.01877,-0.01114,-0.04578,0.00183,-0.03647,0.01236,0.00595,-0.04059
5.9,-0.01312,-0.05081,-0.09323,-0.05219,-0.01892,-0.03952,-0.01053,-0.00183,-0.01511,-0.01266,-0.03876,0.00275,-0.03098,0.01358,0.00626,-0.04074
5.9005,-0.00946,-0.04852,-0.08469,-0.05203,-0.02213,-0.04211,-0.01038,-0.00275,-0.01007,-0.01205,-0.02884,0.00336,-0.02045,0.01434,0.0058,-0.04089
5.901,-0.00748,-0.0441,-0.07324,-0.03998,-0.02045,-0.0415,-0.01251,-0.00244,-0.00565,-0.00824,-0.0235,0.00183,-0.00977,0.01724,0.00504,-0.04044
