time,RectFemL,VastusMedL,VastusLatL,TibAntL,HamMedL,HamLatL,GastroMedL,GastroLatL,RectFemR,VastusMedR,VastusLatR,TibAntR,HamMedR,HamLatR,GastroMedR,GastroLatR
4.9,-0.01816,-0.04959,0.02136,0.07935,-0.04013,-0.02365,-0.01511,-0.0032,-0.01968,-0.02701,-0.02625,0.02472,-0.0267,-0.00519,0.01099,-0.04013
4.9005,-0.01419,-0.05173,0.05753,0.0708,-0.03708,-0.02792,-0.01175,-0.00183,-0.01724,-0.02899,-0.03433,0.03265,-0.02563,0.00427,0.01007,-0.03937
4.901,-0.00839,-0.05676,0.06912,0.0386,-0.03494,-0.0293,-0.01022,-0.00092,-0.01602,-0.02563,-0.04379,0.04105,-0.02365,0.0116,0.00946,-0.03708
4.9015,-0.00214,-0.0618,0.06378,-0.00549,-0.03433,-0.0293,-0.00809,0.00031,-0.0177,-0.02014,-0.047,0.04456,-0.0238,0.01312,0.00885,-0.03616
4.902,0.00381,-0.06683,0.05173,-0.04547,-0.03357,-0.03036,-0.00656,0.00153,-0.01892,-0.01724,-0.04562,0.03967,-0.02731,0.00916,0.00854,-0.03464
4.9025,0.00885,-0.07294,0.04181,-0.07675,-0.03326,-0.03128,-0.00748,0.00214,-0.01785,-0.01724,-0.04272,0.03113,-0.03113,0.00351,0.00839,-0.03479
4.903,0.01114,-0.07675,0.03448,-0.10269,-0.03265,-0.03143,-0.01007,0.00076,-0.01434,-0.0174,-0.04166,0.03021,-0.03189,-0.00275,0.00992,-0.0354
4.9035,0.01114,-0.07492,0.02701,-0.12833,-0.03281,-0.03159,-0.01282,-0.00107,-0.01144,-0.01678,-0.04044,0.03174,-0.0325,-0.00854,0.00885,-0.0351
4.904,0.01144,-0.06744,0.01724,-0.15762,-0.03372,-0.03296,-0.01465,-0.00168,-0.01083,-0.01755,-0.03708,0.01541,-0.03235,-0.01114,0.00763,-0.03555
4.9045,0.01282,-0.06134,0.00473,-0.18234,-0.03586,-0.03586,-0.01495,-0.00168,-0.01221,-0.01968,-0.03067,-0.03006,-0.03235,-0.01038,0.00793,-0.03693
4.905,0.01495,-0.05569,-0.01175,-0.1828,-0.03769,-0.03876,-0.01419,-0.00214,-0.01328,-0.01923,-0.02289,-0.08377,-0.03235,-0.01053,0.00778,-0.0386
4.9055,0.01801,-0.04959,-0.03204,-0.14709,-0.03738,-0.04013,-0.01328,-0.0029,-0.01221,-0.01694,-0.01633,-0.11398,-0.03067,-0.01205,0.00687,-0.0412
4.906,0.02304,-0.04089,-0.04761,-0.07614,-0.03555,-0.04013,-0.01419,-0.00305,-0.0119,-0.01556,-0.01129,-0.10956,-0.02441,-0.01617,0.00534,-0.04333
4.9065,0.02747,-0.03296,-0.05295,0.01648,-0.03235,-0.03998,-0.01526,-0.00259,-0.0116,-0.01526,-0.0058,-0.09201,-0.01312,-0.01892,0.00259,-0.04517
4.907,0.02914,-0.02869,-0.04929,0.09918,-0.03082,-0.04013,-0.01633,-0.00229,-0.01129,-0.01511,0.00076,-0.08408,-0.00183,-0.02106,0.00122,-0.04654
4.9075,0.02563,-0.02716,-0.04395,0.13031,-0.03098,-0.04028,-0.01633,-0.00412,-0.01022,-0.01389,0.00778,-0.08667,0.00198,-0.02365,0.0,-0.0473
4.908,0.02045,-0.02716,-0.04318,0.09415,-0.03159,-0.04044,-0.01556,-0.00595,-0.01022,-0.01221,0.01068,-0.08179,-0.00244,-0.02548,-0.00092,-0.04776
4.9085,0.01694,-0.02747,-0.04547,0.0177,-0.03204,-0.04135,-0.01526,-0.0061,-0.01129,-0.0119,0.01022,-0.05692,-0.00977,-0.02518,-0.00092,-0.04761
4.909,0.01526,-0.02823,-0.0473,-0.05386,-0.03098,-0.04211,-0.01572,-0.00443,-0.01389,-0.01251,0.00793,-0.01816,-0.01083,-0.02228,-0.00046,-0.04684
4.9095,0.01297,-0.02884,-0.04898,-0.08865,-0.02991,-0.04272,-0.01694,-0.00305,-0.01434,-0.01312,0.00519,0.01556,-0.00458,-0.01831,0.00107,-0.04623
4.91,0.01083,-0.0293,-0.04974,-0.08545,-0.02945,-0.04135,-0.01648,-0.0029,-0.01312,-0.01221,0.00275,0.02991,-0.00381,-0.01678,0.00168,-0.04608
4.9105,0.00961,-0.02914,-0.04974,-0.06332,-0.03052,-0.03906,-0.01617,-0.00443,-0.01205,-0.01221,0.00031,0.02625,-0.01633,-0.01709,0.00168,-0.04684
4.911,0.00992,-0.02975,-0.05035,-0.03998,-0.03479,-0.03754,-0.01572,-0.0058,-0.01144,-0.01419,-0.00092,0.0174,-0.03952,-0.0174,-0.00015,-0.04578
4.9115,0.00977,-0.03052,-0.05112,-0.01907,-0.03815,-0.03906,-0.01511,-0.00549,-0.01099,-0.01648,-0.00061,0.01343,-0.05997,-0.01678,-0.00046,-0.0441
4.912,0.00778,-0.03418,-0.05219,-0.00107,-0.04196,-0.04105,-0.01556,-0.00519,-0.01099,-0.01755,0.00046,0.01358,-0.07004,-0.0177,-0.00015,-0.04227
4.9125,0.00565,-0.03754,-0.05402,0.01144,-0.04379,-0.04089,-0.01724,-0.00458,-0.01129,-0.01755,0.00168,0.01663,-0.06912,-0.01877,0.00183,-0.04135
4.913,0.00534,-0.03983,-0.05432,0.01709,-0.04395,-0.03998,-0.01831,-0.0032,-0.01282,-0.01541,0.00198,0.02136,-0.06287,-0.01862,0.00198,-0.03952
4.9135,0.00427,-0.03952,-0.05371,0.01816,-0.04608,-0.03952,-0.01785,-0.00214,-0.01358,-0.01358,0.00305,0.02457,-0.05707,-0.01617,0.00076,-0.03876
4.914,0.00214,-0.03738,-0.05264,0.01816,-0.05157,-0.04044,-0.01694,-0.00092,-0.01328,-0.01465,0.00473,0.02228,-0.05783,-0.01144,-0.0029,-0.03983
4.9145,0.00031,-0.03464,-0.05188,0.01694,-0.05661,-0.04242,-0.01617,-0.00061,-0.01358,-0.01343,0.00381,0.01602,-0.0589,-0.00656,-0.01053,-0.04272
4.915,-0.00031,-0.03448,-0.05234,0.01343,-0.05737,-0.04364,-0.01587,-0.00107,-0.01434,-0.01236,-0.00061,0.01099,-0.05264,-0.00214,-0.02167,-0.04501
4.9155,-0.00061,-0.03601,-0.05386,0.00854,-0.05112,-0.04486,-0.01572,-0.00229,-0.01541,-0.01266,-0.00824,0.01053,-0.03937,-0.00031,-0.03113,-0.0473
4.916,-0.00275,-0.03632,-0.05463,0.00427,-0.04044,-0.04745,-0.01495,-0.00397,-0.0148,-0.01373,-0.01236,0.01114,-0.02945,-0.0032,-0.0383,-0.04929
4.9165,-0.00443,-0.03601,-0.05402,0.00366,-0.02884,-0.0502,-0.01465,-0.00397,-0.01465,-0.01389,-0.01038,0.0116,-0.02869,-0.00885,-0.0412,-0.05127
4.917,-0.00488,-0.03571,-0.05432,0.00656,-0.0177,-0.05173,-0.01572,-0.00336,-0.01419,-0.01251,-0.00565,0.01221,-0.03525,-0.01587,-0.04593,-0.04974
4.9175,-0.00504,-0.03357,-0.06592,0.00961,-0.01099,-0.05173,-0.01648,-0.00336,-0.01419,-0.01175,-0.00244,0.01205,-0.04196,-0.02106,-0.05066,-0.04562
4.918,-0.00366,-0.03082,-0.09689,0.00961,-0.01297,-0.05249,-0.01678,-0.00336,-0.01373,-0.01343,-0.00366,0.01114,-0.04425,-0.02045,-0.05035,-0.04257
4.9185,-0.00153,-0.02899,-0.13336,0.00839,-0.01968,-0.0528,-0.01526,-0.00336,-0.0145,-0.01572,-0.00656,0.00961,-0.04364,-0.0206,-0.04303,-0.04425
4.919,0.00153,-0.02884,-0.14542,0.00702,-0.02563,-0.05142,-0.01419,-0.00336,-0.01526,-0.01495,-0.00717,0.00717,-0.04471,-0.02701,-0.02762,-0.04868
4.9195,0.00458,-0.02914,-0.11444,0.00656,-0.03052,-0.04837,-0.01343,-0.00351,-0.01526,-0.01297,-0.00717,0.00534,-0.04517,-0.03662,-0.00015,-0.05081
4.92,0.00504,-0.02975,-0.05951,0.00748,-0.03662,-0.04593,-0.01373,-0.00351,-0.0148,-0.01266,-0.00687,0.00519,-0.04501,-0.03952,0.04654,-0.04776
4.9205,0.00244,-0.03036,-0.0119,0.00854,-0.0415,-0.04608,-0.01434,-0.00336,-0.01511,-0.01312,-0.00809,0.00534,-0.0444,-0.03326,0.09476,-0.04288
4.921,0.00031,-0.03372,0.01404,0.00809,-0.04028,-0.0473,-0.01434,-0.0029,-0.01572,-0.01282,-0.00809,0.00397,-0.04333,-0.02686,0.11276,-0.03571
4.9215,0.00061,-0.04059,0.02472,0.00641,-0.03326,-0.04715,-0.0148,-0.00336,-0.01587,-0.01114,-0.0087,0.00107,-0.0415,-0.02655,0.08606,-0.02792
4.922,0.00244,-0.04929,0.02686,0.00748,-0.0235,-0.04623,-0.0148,-0.00473,-0.01602,-0.01251,-0.00931,-0.00244,-0.04501,-0.02701,0.04196,-0.02075
4.9225,0.00351,-0.05478,0.02472,0.01068,-0.01801,-0.04547,-0.01404,-0.00519,-0.01602,-0.01373,-0.00992,-0.00412,-0.05936,-0.02533,0.01968,-0.01755
4.923,0.00305,-0.05341,0.01907,0.01495,-0.01694,-0.04486,-0.01343,-0.00397,-0.01648,-0.01602,-0.01114,-0.00275,-0.0798,-0.02686,0.02808,-0.01755
4.9235,0.00259,-0.04257,0.01556,0.01587,-0.0174,-0.04517,-0.01266,-0.00275,-0.01648,-0.01785,-0.01083,0.00153,-0.09445,-0.03036,0.04196,-0.0177
4.924,0.00366,-0.02014,0.01541,0.01465,-0.01541,-0.04379,-0.01343,-0.0032,-0.01526,-0.02014,-0.00748,0.00626,-0.09094,-0.0296,0.03662,-0.02304
4.9245,0.00412,0.00702,0.01144,0.01236,-0.01129,-0.04257,-0.01694,-0.00443,-0.01495,-0.0206,0.00305,0.00763,-0.06989,-0.0174,0.01251,-0.03281
4.925,0.00336,0.01892,0.00351,0.01053,-0.009,-0.04257,-0.02563,-0.00427,-0.0148,-0.0209,0.01862,0.00687,-0.04364,0.00015,-0.00809,-0.04272
4.9255,0.00046,0.00031,-0.00336,0.00839,-0.01099,-0.04272,-0.03708,-0.00244,-0.01511,-0.02045,0.02975,0.00458,-0.02716,0.01129,-0.01678,-0.04745
4.926,-0.00214,-0.03876,-0.01038,0.00626,-0.01923,-0.04318,-0.04395,-0.00046,-0.01465,-0.02167,0.03372,0.00443,-0.02548,0.009,-0.01938,-0.04349
4.9265,-0.00397,-0.07248,-0.02014,0.00473,-0.03204,-0.04501,-0.04547,0.00046,-0.01434,-0.02258,0.03113,0.00702,-0.03265,-0.0029,-0.02396,-0.03525
4.927,-0.0058,-0.08667,-0.03265,0.00565,-0.04303,-0.04807,-0.04227,0.00153,-0.01465,-0.02243,0.02716,0.01022,-0.0383,-0.0148,-0.0325,-0.02853
4.9275,-0.00809,-0.08759,-0.03922,0.00549,-0.04593,-0.04974,-0.03754,0.00198,-0.01526,-0.02045,0.02289,0.01068,-0.03891,-0.01984,-0.04135,-0.02853
4.928,-0.01083,-0.08072,-0.0354,0.00336,-0.04028,-0.04959,-0.03433,0.00137,-0.01678,-0.02029,0.01495,0.00671,-0.03662,-0.0177,-0.03098,-0.03571
4.9285,-0.01465,-0.06256,-0.02518,0.00122,-0.0322,-0.04745,-0.03204,-0.00076,-0.01755,-0.02045,-0.00122,0.00198,-0.03601,-0.01465,0.0116,-0.04654
4.929,-0.01846,-0.03342,-0.01617,0.00031,-0.02655,-0.04807,-0.02777,-0.00229,-0.01831,-0.02167,-0.02121,-0.00015,-0.04013,-0.01572,0.06516,-0.05768
4.9295,-0.01968,-0.00885,-0.01389,-0.00183,-0.0209,-0.04913,-0.01801,-0.00244,-0.01862,-0.02213,-0.0412,0.00031,-0.04456,-0.01801,0.09567,-0.06607
4.93,-0.01846,-0.00305,-0.01312,-0.00381,-0.0119,-0.0499,0.00031,-0.00565,-0.01831,-0.02228,-0.06042,0.00031,-0.04623,-0.01938,0.08881,-0.07462
4.9305,-0.01694,-0.01312,-0.01205,-0.00458,0.00046,-0.05005,0.01282,-0.01526,-0.0174,-0.0209,-0.07675,-0.00153,-0.04227,-0.01877,0.06592,-0.08423
4.931,-0.01602,-0.02777,-0.01221,-0.00275,0.00961,-0.05096,0.00732,-0.03021,-0.01602,-0.02228,-0.08575,-0.00656,-0.0322,-0.01846,0.04562,-0.08499
4.9315,-0.01556,-0.03769,-0.01465,-0.00122,0.01205,-0.05356,-0.01022,-0.04227,-0.01495,-0.0264,-0.0856,-0.0116,-0.02014,-0.01862,0.03082,-0.06531
4.932,-0.01526,-0.0386,-0.01709,-0.00275,0.00565,-0.05463,-0.02121,-0.04486,-0.01556,-0.03082,-0.08057,-0.01434,-0.01266,-0.01923,0.01434,-0.03525
4.9325,-0.01328,-0.0351,-0.01831,-0.00549,-0.00595,-0.05432,-0.01892,-0.03738,-0.01572,-0.03372,-0.07294,-0.01251,-0.01038,-0.01801,0.00046,-0.02151
4.933,-0.00977,-0.03662,-0.01816,-0.00793,-0.01602,-0.05417,-0.00931,-0.02716,-0.01526,-0.03311,-0.05783,-0.00732,-0.01266,-0.01617,-0.00275,-0.03189
4.9335,-0.00778,-0.04868,-0.01877,-0.00854,-0.02487,-0.05417,0.00839,-0.02243,-0.01373,-0.02975,-0.03281,-0.00122,-0.01465,-0.01556,0.00229,-0.04623
4.934,-0.00748,-0.06668,-0.01801,-0.00916,-0.03769,-0.05356,0.03891,-0.02045,-0.01266,-0.0238,-0.00839,0.00275,-0.0177,-0.01602,0.00565,-0.04333
4.9345,-0.00992,-0.08148,-0.01709,-0.00885,-0.05829,-0.0531,0.07172,-0.00992,-0.01297,-0.01846,-0.00214,0.0029,-0.02151,-0.01572,0.00671,-0.02899
4.935,-0.01328,-0.09018,-0.02045,-0.00977,-0.07767,-0.05173,0.07767,0.01511,-0.01343,-0.01404,-0.01312,0.00076,-0.02487,-0.01541,0.01419,-0.0238
4.9355,-0.01602,-0.09445,-0.03189,-0.01175,-0.0827,-0.05127,0.04364,0.04089,-0.01221,-0.01068,-0.02533,-0.00275,-0.02563,-0.01511,0.03418,-0.03189
4.936,-0.01694,-0.09491,-0.04761,-0.01434,-0.07111,-0.05112,-0.00076,0.05005,-0.00854,-0.00961,-0.02777,-0.00473,-0.0264,-0.01862,0.05493,-0.03998
4.9365,-0.01877,-0.0943,-0.06165,-0.01724,-0.05508,-0.05249,-0.01862,0.0386,-0.00534,-0.01053,-0.02213,-0.00443,-0.02701,-0.02243,0.06302,-0.03616
4.937,-0.02182,-0.09491,-0.06989,-0.01816,-0.04242,-0.05234,-0.01038,0.01907,-0.00443,-0.01236,-0.01831,-0.00229,-0.02701,-0.02594,0.0589,-0.02716
4.9375,-0.02548,-0.09659,-0.07248,-0.0174,-0.03052,-0.05066,-0.00427,0.00473,-0.00397,-0.01175,-0.01755,0.00046,-0.02365,-0.02792,0.04959,-0.02548
4.938,-0.02563,-0.09735,-0.07324,-0.01556,-0.01495,-0.0473,-0.01297,-0.00031,-0.00336,-0.01068,-0.02045,0.00244,-0.01801,-0.02991,0.03845,-0.03281
4.9385,-0.02411,-0.09155,-0.07431,-0.0145,-0.00046,-0.04486,-0.0235,0.00061,-0.00214,-0.01129,-0.02579,0.00305,-0.01297,-0.03235,0.02365,-0.04364
4.939,-0.02197,-0.07965,-0.07828,-0.01495,0.00473,-0.04425,-0.02319,0.00443,-0.00168,-0.01358,-0.03113,0.00275,-0.01129,-0.03418,0.00687,-0.0502
4.9395,-0.02014,-0.06454,-0.08133,-0.01678,-0.00412,-0.04471,-0.01892,0.00824,-0.00275,-0.01572,-0.03342,0.00153,-0.01205,-0.0354,-0.00336,-0.05112
4.94,-0.01724,-0.0499,-0.08316,-0.01907,-0.02594,-0.04517,-0.01709,0.00824,-0.00549,-0.01511,-0.03082,-0.00031,-0.01358,-0.03601,-0.00931,-0.04807
4.9405,-0.01266,-0.03952,-0.0856,-0.01923,-0.04669,-0.04547,-0.01862,0.00443,-0.00931,-0.01343,-0.02106,-0.00031,-0.01434,-0.03464,-0.01755,-0.0444
4.941,-0.00748,-0.03387,-0.08743,-0.01816,-0.05753,-0.04395,-0.01907,-0.00107,-0.01266,-0.01266,-0.00885,0.00244,-0.01617,-0.03189,-0.02625,-0.04181
4.9415,-0.00412,-0.03098,-0.08453,-0.01678,-0.05478,-0.0412,-0.01755,-0.00793,-0.01556,-0.01221,0.00473,0.00488,-0.02121,-0.02686,-0.02777,-0.04059
4.942,-0.00458,-0.02563,-0.07431,-0.01633,-0.04379,-0.03647,-0.01572,-0.01251,-0.01785,-0.01068,0.02747,0.00519,-0.02579,-0.02213,-0.02136,-0.04059
4.9425,-0.00778,-0.01999,-0.05859,-0.01846,-0.03326,-0.03174,-0.01541,-0.01328,-0.01846,-0.00885,0.06439,0.00351,-0.02823,-0.01663,-0.01328,-0.03998
4.943,-0.01129,-0.01801,-0.04517,-0.0206,-0.02838,-0.02914,-0.01663,-0.00778,-0.01968,-0.00977,0.10529,0.00153,-0.02884,-0.00931,-0.00092,-0.04105
4.9435,-0.01343,-0.01999,-0.03601,-0.02121,-0.03342,-0.03372,-0.0177,-0.00198,-0.02472,-0.01526,0.12573,-0.00076,-0.02838,-0.00488,0.01755,-0.04364
4.944,-0.01373,-0.02243,-0.03159,-0.02045,-0.04395,-0.04562,-0.01709,0.00076,-0.03418,-0.02075,0.11215,-0.00458,-0.02701,-0.00427,0.0296,-0.05066
4.9445,-0.01236,-0.02289,-0.02899,-0.01923,-0.05203,-0.06363,-0.01602,0.0,-0.04486,-0.02182,0.08026,-0.00885,-0.02411,-0.00732,0.01846,-0.06058
4.945,-0.01114,-0.02457,-0.02914,-0.0177,-0.0592,-0.08148,-0.0174,-0.00137,-0.05508,-0.01816,0.05768,-0.01175,-0.0235,-0.01221,-0.01038,-0.07172
4.9455,-0.01068,-0.03342,-0.03128,-0.01678,-0.06577,-0.09354,-0.01862,-0.00122,-0.06058,-0.01663,0.05402,-0.00961,-0.02548,-0.01724,-0.02747,-0.07797
4.946,-0.01144,-0.04868,-0.03387,-0.01678,-0.07217,-0.09476,-0.01892,-0.00168,-0.05951,-0.01663,0.04974,-0.00351,-0.02869,-0.01907,-0.01846,-0.07721
4.9465,-0.01282,-0.06149,-0.03464,-0.0177,-0.07675,-0.0882,-0.01831,-0.00259,-0.05386,-0.01892,0.0238,0.00198,-0.02853,-0.01236,0.00275,-0.07202
4.947,-0.01495,-0.06165,-0.03387,-0.01862,-0.08163,-0.08087,-0.01785,-0.0029,-0.04761,-0.01907,-0.02289,0.00336,-0.02686,-0.00107,0.00488,-0.06973
4.9475,-0.01648,-0.04929,-0.0322,-0.01968,-0.08102,-0.07416,-0.01755,-0.00244,-0.04181,-0.01923,-0.07111,0.0,-0.02655,0.00687,-0.02121,-0.07004
4.948,-0.01633,-0.03479,-0.03143,-0.0206,-0.07294,-0.06744,-0.01877,-0.00259,-0.03494,-0.01938,-0.11154,-0.00305,-0.0264,0.00336,-0.05707,-0.06393
4.9485,-0.01526,-0.02609,-0.03082,-0.01892,-0.06165,-0.06149,-0.01999,-0.00366,-0.02563,-0.02075,-0.14755,-0.00168,-0.0267,-0.00809,-0.07553,-0.0531
4.949,-0.01251,-0.02548,-0.03006,-0.01831,-0.05753,-0.05646,-0.02075,-0.00458,-0.01556,-0.02396,-0.17899,0.00366,-0.02731,-0.0209,-0.06927,-0.04654
4.9495,-0.01099,-0.02701,-0.02884,-0.01862,-0.05676,-0.05264,-0.01953,-0.00443,-0.00687,-0.02563,-0.19653,0.00702,-0.02884,-0.02747,-0.04822,-0.04974
4.95,-0.01038,-0.02853,-0.02548,-0.02014,-0.05066,-0.04944,-0.01892,-0.00275,-0.00076,-0.02472,-0.1973,0.00671,-0.02975,-0.02869,-0.02563,-0.05356
4.9505,-0.00961,-0.0293,-0.02396,-0.01984,-0.03662,-0.04669,-0.01831,-0.00244,0.00076,-0.02365,-0.18448,0.00504,-0.02945,-0.02655,-0.00793,-0.04913
4.951,-0.00854,-0.02945,-0.02365,-0.01862,-0.02335,-0.04395,-0.01816,-0.00366,0.00015,-0.02121,-0.16174,0.00656,-0.02808,-0.02396,0.00534,-0.03647
4.9515,-0.00778,-0.0293,-0.02319,-0.01724,-0.02075,-0.03998,-0.01678,-0.00549,-0.00153,-0.01831,-0.13107,0.00809,-0.02869,-0.02274,0.01999,-0.01999
4.952,-0.00977,-0.0296,-0.02304,-0.01602,-0.03052,-0.0354,-0.01633,-0.00732,-0.00351,-0.01602,-0.09338,0.00763,-0.03036,-0.02365,0.03937,-0.00443
4.9525,-0.01282,-0.03006,-0.02411,-0.01541,-0.04013,-0.03159,-0.01648,-0.00824,-0.0058,-0.0177,-0.0563,0.00519,-0.03265,-0.02502,0.06287,0.00427
4.953,-0.01465,-0.02853,-0.02548,-0.0145,-0.04135,-0.03052,-0.01694,-0.00626,-0.00671,-0.02167,-0.0296,0.00214,-0.03403,-0.02441,0.07919,0.00076
4.9535,-0.0145,-0.02502,-0.02716,-0.01419,-0.03174,-0.03174,-0.01648,-0.00381,-0.00748,-0.02563,-0.01572,0.00061,-0.03494,-0.02289,0.07401,-0.00763
4.954,-0.0145,-0.02045,-0.02686,-0.01526,-0.02243,-0.03265,-0.01495,-0.00137,-0.00702,-0.02625,-0.01068,0.00061,-0.03601,-0.02106,0.05341,-0.00793
4.9545,-0.0148,-0.01755,-0.02655,-0.01602,-0.01938,-0.03372,-0.01312,-0.00107,-0.00641,-0.02487,-0.00549,0.00031,-0.03693,-0.01968,0.03357,0.00427
4.955,-0.01358,-0.01938,-0.0267,-0.01678,-0.02106,-0.0351,-0.01328,-0.00092,-0.00687,-0.02472,0.00412,0.00061,-0.03891,-0.01846,0.02167,0.01373
4.9555,-0.00946,-0.02441,-0.02686,-0.01801,-0.02167,-0.03845,-0.0145,-0.00183,-0.00778,-0.02594,0.01221,-0.00107,-0.03998,-0.01785,0.01907,0.00397
4.956,-0.00336,-0.02945,-0.02563,-0.01846,-0.02243,-0.04272,-0.01633,-0.00229,-0.00839,-0.02609,0.01633,-0.00336,-0.04028,-0.0177,0.02472,-0.0206
4.9565,0.00229,-0.03204,-0.02472,-0.01877,-0.0235,-0.04639,-0.01678,-0.00381,-0.00885,-0.02457,0.01831,-0.00366,-0.03845,-0.01785,0.03616,-0.0351
4.957,0.00412,-0.03189,-0.02548,-0.01801,-0.02411,-0.04883,-0.01678,-0.00519,-0.0087,-0.02121,0.02014,-0.00198,-0.03555,-0.01846,0.03433,-0.0325
4.9575,0.00351,-0.03174,-0.02762,-0.01801,-0.02411,-0.05066,-0.01801,-0.00687,-0.009,-0.01648,0.02106,0.00076,-0.03311,-0.01923,0.01328,-0.02335
4.958,0.00336,-0.03296,-0.03067,-0.01877,-0.02167,-0.05264,-0.02167,-0.00717,-0.00961,-0.01251,0.02106,0.00076,-0.03143,-0.02045,-0.01144,-0.02335
4.9585,0.00366,-0.03571,-0.0325,-0.02045,-0.01877,-0.05234,-0.02914,-0.00549,-0.0087,-0.01312,0.0209,-0.00275,-0.02914,-0.02151,-0.01816,-0.03189
4.959,0.00275,-0.0383,-0.03067,-0.02151,-0.01801,-0.05051,-0.0383,-0.00473,-0.00763,-0.01724,0.02411,-0.00763,-0.0264,-0.02121,-0.00473,-0.04135
4.9595,0.0,-0.0386,-0.02762,-0.02045,-0.01968,-0.04684,-0.047,-0.00443,-0.00427,-0.02136,0.02808,-0.01038,-0.0264,-0.02045,0.01343,-0.04517
4.96,-0.00473,-0.03967,-0.02686,-0.01968,-0.02228,-0.04349,-0.05585,-0.0029,-0.00046,-0.0235,0.03082,-0.00916,-0.02747,-0.01938,0.02274,-0.04532
4.9605,-0.00839,-0.05035,-0.02808,-0.01755,-0.0235,-0.03983,-0.06393,-0.00153,0.00198,-0.02533,0.03036,-0.0061,-0.02655,-0.01816,0.02274,-0.04471
4.961,-0.01114,-0.06866,-0.03006,-0.01526,-0.02167,-0.03754,-0.05295,-0.00061,0.00366,-0.02762,0.02869,-0.00443,-0.02411,-0.0148,0.01938,-0.04333
4.9615,-0.01389,-0.08362,-0.03418,-0.01465,-0.0174,-0.03571,-0.01923,-0.00214,0.00458,-0.02838,0.0264,-0.00504,-0.02289,-0.01328,0.02014,-0.04074
4.962,-0.01724,-0.08331,-0.06088,-0.01587,-0.01724,-0.03708,0.01022,-0.00931,0.00351,-0.02502,0.02441,-0.00702,-0.0238,-0.01358,0.02975,-0.04089
4.9625,-0.0206,-0.07156,-0.12314,-0.01709,-0.01877,-0.04028,0.00671,-0.01984,-0.00046,-0.01663,0.02457,-0.00717,-0.02686,-0.01663,0.04196,-0.04547
4.963,-0.02167,-0.05753,-0.19531,-0.01663,-0.02106,-0.04272,-0.01694,-0.02914,-0.00671,-0.00748,0.02518,-0.00381,-0.03052,-0.01953,0.03784,-0.05142
4.9635,-0.02106,-0.04608,-0.21622,-0.01617,-0.02182,-0.04166,-0.02457,-0.03036,-0.01358,-0.00381,0.02625,0.00397,-0.03403,-0.0209,0.01678,-0.05219
4.964,-0.02075,-0.03677,-0.15411,-0.01389,-0.02228,-0.03937,-0.00656,-0.02426,-0.01709,-0.00595,0.02518,0.01099,-0.03662,-0.02151,0.00214,-0.04532
4.9645,-0.02258,-0.02762,-0.04684,-0.0119,-0.02304,-0.03769,0.01251,-0.01831,-0.01801,-0.00824,0.02029,0.01328,-0.03799,-0.02136,0.01175,-0.03723
4.965,-0.02441,-0.02548,0.04028,-0.0116,-0.02274,-0.0386,0.01862,-0.01892,-0.01801,-0.00854,0.01495,0.01022,-0.03662,-0.02167,0.02716,-0.03647
4.9655,-0.02548,-0.03357,0.08118,-0.01404,-0.02335,-0.03967,0.02502,-0.02228,-0.02106,-0.00656,0.01099,0.00565,-0.03448,-0.02258,0.0267,-0.04272
4.966,-0.02396,-0.04578,0.09155,-0.01587,-0.02243,-0.03983,0.0415,-0.01999,-0.0267,-0.00565,0.00656,0.00092,-0.03418,-0.02289,0.0116,-0.04898
4.9665,-0.01999,-0.05173,0.09491,-0.01526,-0.02213,-0.03998,0.04807,-0.01236,-0.02884,-0.00824,-0.00214,-0.00336,-0.03494,-0.02411,-0.00015,-0.0528
4.967,-0.01434,-0.04776,0.09613,-0.01022,-0.02304,-0.0415,0.02991,-0.00412,-0.03021,-0.01297,-0.01175,-0.00809,-0.03677,-0.02563,-0.00534,-0.05402
4.9675,-0.00809,-0.03937,0.09247,-0.00305,-0.02274,-0.04578,-0.0029,0.00015,-0.03143,-0.01572,-0.01633,-0.01282,-0.03708,-0.02731,-0.00656,-0.05478
4.968,-0.00107,-0.0325,0.08301,-0.0058,-0.02289,-0.04852,-0.02365,0.00626,-0.03448,-0.01709,-0.01236,-0.01694,-0.03601,-0.02838,-0.00366,-0.05524
4.9685,0.0058,-0.02609,0.06927,-0.02243,-0.02502,-0.04929,-0.02289,0.01389,-0.03967,-0.01602,-0.00732,-0.01892,-0.03555,-0.02899,0.00641,-0.05585
4.969,0.01083,-0.01801,0.05127,-0.04227,-0.02777,-0.04959,-0.01617,0.01816,-0.04272,-0.01358,-0.00809,-0.01755,-0.03586,-0.02884,0.01617,-0.05615
4.9695,0.01328,-0.01221,0.03143,-0.04745,-0.0293,-0.05066,-0.01434,0.01709,-0.04044,-0.01343,-0.01465,-0.01205,-0.0351,-0.02655,0.01877,-0.05447
4.97,0.01236,-0.00992,0.0177,-0.03174,-0.02899,-0.05142,-0.01541,0.01297,-0.03448,-0.01709,-0.02014,-0.0058,-0.03372,-0.02167,0.01526,-0.05112
4.9705,0.00885,-0.01144,0.0119,-0.00961,-0.03143,-0.05188,-0.01633,0.01022,-0.02869,-0.02319,-0.02274,-0.00092,-0.03265,-0.01801,0.0116,-0.04654
4.971,0.00381,-0.01007,0.00824,0.00275,-0.03342,-0.0531,-0.01495,0.00854,-0.02365,-0.02991,-0.02167,0.00198,-0.03281,-0.01663,0.01022,-0.0444
4.9715,-0.0032,-0.00687,-0.00336,0.00809,-0.03357,-0.05295,-0.0145,0.00778,-0.01801,-0.03357,-0.01999,0.0029,-0.03357,-0.01785,0.00763,-0.04425
4.972,-0.00931,-0.00656,-0.0267,0.01663,-0.02945,-0.05219,-0.01389,0.00763,-0.01419,-0.0351,-0.01724,0.00168,-0.03265,-0.01831,0.00275,-0.04669
4.9725,-0.0148,-0.00977,-0.05371,0.02899,-0.02457,-0.05035,-0.01328,0.00839,-0.0116,-0.03357,-0.01205,-0.00214,-0.03159,-0.01831,-0.00259,-0.04898
4.973,-0.01633,-0.01511,-0.07553,0.03265,-0.02182,-0.04944,-0.01175,0.00809,-0.01022,-0.02914,-0.00519,-0.00656,-0.03113,-0.01648,-0.00443,-0.04959
4.9735,-0.01312,-0.02136,-0.09186,0.01984,-0.0209,-0.05112,-0.01251,0.00641,-0.00793,-0.02472,0.00046,-0.00793,-0.0325,-0.01572,-0.00381,-0.04684
4.974,-0.00626,-0.02686,-0.10406,-0.00549,-0.02106,-0.05219,-0.01282,0.00488,-0.00732,-0.02289,0.00107,-0.00656,-0.03555,-0.01465,-0.00244,-0.04379
4.9745,0.00397,-0.03098,-0.11276,-0.0322,-0.02014,-0.05112,-0.01282,0.00412,-0.00931,-0.02289,0.00046,-0.00443,-0.03677,-0.01495,0.00107,-0.04395
4.975,0.01205,-0.03265,-0.11536,-0.0502,-0.02258,-0.04929,-0.0116,0.0032,-0.01129,-0.02319,-0.00107,-0.00198,-0.03616,-0.01526,0.00565,-0.04501
4.9755,0.01678,-0.03296,-0.11353,-0.05585,-0.0293,-0.04837,-0.01175,0.00137,-0.01144,-0.0206,-0.00534,0.00107,-0.03525,-0.01724,0.00763,-0.04486
4.976,0.0174,-0.03387,-0.10925,-0.05081,-0.03494,-0.04807,-0.01373,-0.00031,-0.01068,-0.0177,-0.01083,0.00381,-0.03372,-0.01938,0.00397,-0.04196
4.9765,0.01511,-0.03754,-0.10422,-0.04379,-0.03693,-0.04669,-0.0148,-0.00229,-0.01129,-0.0174,-0.01587,0.00427,-0.02975,-0.02075,-0.00198,-0.0383
4.977,0.01129,-0.04227,-0.09903,-0.04333,-0.03494,-0.04593,-0.0145,-0.00381,-0.01404,-0.01968,-0.01831,0.00046,-0.02304,-0.02075,-0.00458,-0.0354
4.9775,0.00626,-0.04532,-0.09064,-0.05127,-0.03174,-0.0441,-0.01511,-0.00443,-0.01587,-0.02167,-0.01678,-0.00565,-0.01678,-0.01907,-0.00092,-0.03372
4.978,0.00198,-0.04593,-0.08072,-0.05646,-0.03098,-0.04395,-0.01572,-0.00473,-0.01617,-0.02167,-0.01053,-0.01144,-0.01251,-0.01862,0.00183,-0.03464
4.9785,0.00107,-0.04517,-0.07309,-0.05157,-0.03174,-0.0444,-0.01556,-0.00427,-0.0148,-0.0206,0.00198,-0.01373,-0.01175,-0.01892,-0.00336,-0.03937
4.979,0.00259,-0.04501,-0.06622,-0.03708,-0.03159,-0.04593,-0.01465,-0.00443,-0.01328,-0.0174,0.01572,-0.01205,-0.01709,-0.02213,-0.01938,-0.04471
4.9795,0.00519,-0.04395,-0.06165,-0.02151,-0.0293,-0.04578,-0.01389,-0.00519,-0.01144,-0.01419,0.02121,-0.00809,-0.02716,-0.02365,-0.0351,-0.04898
4.98,0.00504,-0.04242,-0.05554,-0.0145,-0.02869,-0.04578,-0.01282,-0.0058,-0.0119,-0.01343,0.0145,-0.00336,-0.03708,-0.02289,-0.04318,-0.05188
4.9805,0.00275,-0.0415,-0.05371,-0.01526,-0.02945,-0.04532,-0.01297,-0.00534,-0.01373,-0.01556,0.00168,0.00031,-0.04272,-0.02151,-0.04669,-0.05356
4.981,-0.00061,-0.04196,-0.05737,-0.0174,-0.0296,-0.04547,-0.01236,-0.00366,-0.0148,-0.01511,-0.01144,0.00229,-0.04501,-0.02182,-0.05554,-0.05585
4.9815,-0.00153,-0.04211,-0.06226,-0.01358,-0.02777,-0.04349,-0.01236,-0.00366,-0.01526,-0.01358,-0.0238,0.00305,-0.04532,-0.02289,-0.07034,-0.05676
4.982,-0.00015,-0.04044,-0.05936,-0.0061,-0.02457,-0.04196,-0.01419,-0.00504,-0.01541,-0.01205,-0.03632,0.00137,-0.04242,-0.02365,-0.07645,-0.05478
4.9825,0.00214,-0.03906,-0.04715,-0.00214,-0.0235,-0.03906,-0.01678,-0.00595,-0.01495,-0.01266,-0.04745,-0.00198,-0.03387,-0.02335,-0.06836,-0.05234
4.983,0.00381,-0.03876,-0.03326,-0.00534,-0.02487,-0.03876,-0.01907,-0.00656,-0.01175,-0.01297,-0.05371,-0.00824,-0.02762,-0.02228,-0.04547,-0.05295
4.9835,0.00427,-0.03906,-0.02014,-0.01251,-0.02884,-0.03967,-0.02167,-0.00687,-0.0087,-0.01373,-0.05707,-0.01511,-0.0322,-0.02426,-0.00443,-0.05585
4.984,0.00381,-0.03815,-0.00809,-0.01678,-0.03448,-0.04135,-0.02411,-0.00671,-0.00702,-0.01465,-0.05722,-0.01419,-0.04303,-0.02533,0.04807,-0.05493
4.9845,0.00412,-0.03555,0.00732,-0.01724,-0.03738,-0.04257,-0.0264,-0.00595,-0.00748,-0.01678,-0.05463,-0.00656,-0.04868,-0.0238,0.07797,-0.05005
4.985,0.00427,-0.02991,0.02228,-0.01556,-0.03769,-0.04395,-0.02838,-0.00626,-0.00839,-0.01831,-0.04944,0.00153,-0.0473,-0.0209,0.05249,-0.04898
4.9855,0.00275,-0.02121,0.03174,-0.01511,-0.0354,-0.04547,-0.03021,-0.00702,-0.00931,-0.02106,-0.04349,0.00214,-0.04303,-0.01877,-0.00488,-0.05478
4.986,-0.00015,-0.01404,0.02975,-0.01556,-0.03616,-0.04425,-0.03113,-0.00717,-0.01068,-0.02029,-0.03738,-0.00122,-0.04074,-0.01801,-0.0412,-0.06027
4.9865,-0.00565,-0.01175,0.02014,-0.01709,-0.03967,-0.04379,-0.03235,-0.0061,-0.01282,-0.01892,-0.03342,-0.00305,-0.04166,-0.01801,-0.02808,-0.05722
4.987,-0.01205,-0.00824,0.00458,-0.01953,-0.04547,-0.05066,-0.0351,-0.00458,-0.01358,-0.01694,-0.03006,-0.00107,-0.0441,-0.01709,0.01999,-0.04623
4.9875,-0.01694,0.0058,-0.0209,-0.02182,-0.04715,-0.06531,-0.04242,-0.00366,-0.01465,-0.01663,-0.02426,0.00198,-0.04715,-0.01434,0.07645,-0.03845
4.988,-0.01892,0.02365,-0.06912,-0.02213,-0.03799,-0.07614,-0.04425,-0.0032,-0.0148,-0.01587,-0.01495,0.00244,-0.05341,-0.01068,0.11612,-0.03571
4.9885,-0.01938,0.01663,-0.13702,-0.02213,-0.02502,-0.07217,-0.02487,-0.00229,-0.0148,-0.01373,-0.00183,0.0032,-0.06104,-0.00778,0.11749,-0.03036
4.989,-0.02029,-0.02487,-0.19913,-0.02213,-0.0148,-0.05737,0.00824,-0.00137,-0.01541,-0.01114,0.01465,0.00366,-0.06271,-0.00519,0.0798,-0.01358
4.9895,-0.02182,-0.07706,-0.22095,-0.02319,-0.00977,-0.04593,0.02228,-0.00092,-0.01602,-0.00946,0.03326,0.00275,-0.05249,-0.00366,0.0238,0.00336
4.99,-0.02182,-0.11108,-0.18906,-0.02426,-0.00641,-0.04272,0.0058,-0.00015,-0.01587,-0.00824,0.05005,0.00061,-0.03174,-0.00351,-0.0206,0.00595
4.9905,-0.01984,-0.11765,-0.11597,-0.02487,-0.00671,-0.04486,-0.01404,-0.00259,-0.01526,-0.00626,0.0589,0.00061,-0.01175,-0.00626,-0.02808,-0.00473
4.991,-0.01785,-0.10712,-0.03311,-0.02502,-0.01617,-0.04608,-0.01236,-0.00748,-0.01419,-0.00259,0.05753,0.00229,-0.00137,-0.01038,0.00244,-0.01389
4.9915,-0.01572,-0.08636,0.03464,-0.02457,-0.03311,-0.0444,0.00336,-0.01266,-0.01236,0.00031,0.04959,0.00366,-0.0061,-0.01312,0.04684,-0.01892
4.992,-0.01373,-0.06577,0.07523,-0.02335,-0.05203,-0.04196,0.01358,-0.01663,-0.00839,-0.00076,0.04089,0.00198,-0.02014,-0.01465,0.06836,-0.02579
4.9925,-0.01251,-0.05295,0.08789,-0.02258,-0.06516,-0.03952,0.01587,-0.02045,-0.00473,-0.00824,0.03357,-0.00092,-0.03632,-0.01602,0.05768,-0.03616
4.993,-0.01282,-0.05203,0.08057,-0.02197,-0.06485,-0.03906,0.01205,-0.02563,-0.00259,-0.01678,0.02487,-0.00351,-0.04837,-0.0177,0.03265,-0.0412
4.9935,-0.01328,-0.05737,0.06409,-0.01984,-0.05371,-0.03845,0.00397,-0.03067,-0.0032,-0.01831,0.01358,-0.00351,-0.05234,-0.0209,0.01312,-0.03998
4.994,-0.01022,-0.06012,0.05005,-0.01755,-0.04059,-0.0383,-0.00488,-0.0325,-0.0061,-0.01602,-0.00214,-0.00198,-0.05295,-0.02335,0.00458,-0.03845
4.9945,-0.00443,-0.05936,0.03967,-0.01526,-0.0351,-0.03357,-0.00977,-0.02731,-0.01068,-0.01953,-0.01984,-0.00046,-0.05539,-0.02289,0.00793,-0.04013
4.995,0.00214,-0.05661,0.03281,-0.01434,-0.03632,-0.02609,-0.01022,-0.01221,-0.01526,-0.03342,-0.0354,0.00046,-0.05951,-0.02213,0.02563,-0.04242
4.9955,0.00671,-0.05371,0.02533,-0.01556,-0.03632,-0.01724,-0.01144,0.00732,-0.02014,-0.04684,-0.04578,0.00168,-0.05936,-0.02045,0.05524,-0.04242
4.996,0.0087,-0.04913,0.01465,-0.01831,-0.03525,-0.01404,-0.01389,0.02228,-0.02274,-0.04929,-0.05341,0.00412,-0.04654,-0.02014,0.08118,-0.04181
4.9965,0.00916,-0.04379,-0.00015,-0.02045,-0.03281,-0.02319,-0.01373,0.02441,-0.02289,-0.0441,-0.0589,0.00641,-0.02579,-0.01785,0.07965,-0.04227
4.997,0.00946,-0.03937,-0.01572,-0.01999,-0.03082,-0.04364,-0.0116,0.01602,-0.02258,-0.03738,-0.05981,0.00565,-0.0116,-0.01358,0.04349,-0.04379
4.9975,0.01022,-0.03708,-0.03693,-0.01663,-0.0267,-0.06577,-0.00992,0.00641,-0.02502,-0.03265,-0.05234,0.00153,-0.01099,-0.0119,-0.00778,-0.04456
4.998,0.01175,-0.03433,-0.06912,-0.01358,-0.02441,-0.07065,-0.01007,0.00198,-0.02945,-0.03265,-0.03876,-0.00229,-0.0174,-0.01373,-0.04166,-0.04608
4.9985,0.01312,-0.02808,-0.10788,-0.01266,-0.02762,-0.05585,-0.0116,0.00198,-0.03357,-0.03326,-0.0267,-0.00214,-0.02243,-0.01709,-0.0444,-0.04639
4.999,0.01373,-0.02106,-0.13031,-0.01205,-0.03448,-0.0415,-0.01266,0.00305,-0.03357,-0.03357,-0.02594,0.00076,-0.02426,-0.01846,-0.03128,-0.04501
4.9995,0.01144,-0.01633,-0.11642,-0.01129,-0.03998,-0.04761,-0.01282,0.0032,-0.03113,-0.03204,-0.03464,0.00076,-0.02457,-0.0174,-0.00885,-0.04318
5.0,0.00778,-0.01755,-0.07034,-0.00931,-0.0415,-0.07416,-0.00916,0.0029,-0.0267,-0.03387,-0.04517,-0.00366,-0.02563,-0.01801,0.02045,-0.04471
5.0005,0.00183,-0.0235,-0.02182,-0.00656,-0.04044,-0.10727,-0.00381,0.00351,-0.02274,-0.03891,-0.0502,-0.00961,-0.0296,-0.01968,0.0499,-0.05173
5.001,-0.0029,-0.03311,0.00443,-0.00137,-0.03769,-0.12787,0.00015,0.00381,-0.01968,-0.0444,-0.05157,-0.00916,-0.03708,-0.02289,0.05508,-0.06042
5.0015,-0.00427,-0.04227,0.00183,0.0061,-0.03677,-0.12573,0.00153,0.00259,-0.02121,-0.0444,-0.05066,-0.00229,-0.04715,-0.02625,0.03738,-0.06622
5.002,0.0,-0.04837,-0.02304,0.01068,-0.03891,-0.10132,0.00031,0.00076,-0.02457,-0.03723,-0.04852,0.00458,-0.05447,-0.02838,0.02213,-0.06638
5.0025,0.00748,-0.05051,-0.05127,0.01007,-0.03967,-0.07065,-0.00183,-0.00076,-0.02502,-0.02686,-0.04303,0.00565,-0.05692,-0.02701,0.02563,-0.06256
5.003,0.01114,-0.05066,-0.05783,0.00504,-0.03723,-0.04929,-0.00427,-0.00168,-0.0209,-0.01678,-0.03586,0.00488,-0.0528,-0.0235,0.03784,-0.05173
5.0035,0.00839,-0.0499,-0.03281,0.00031,-0.03632,-0.04166,-0.00793,-0.00168,-0.01556,-0.01053,-0.03006,0.00488,-0.04471,-0.02045,0.0351,-0.03204
5.004,0.00244,-0.04974,0.00107,-0.00259,-0.03937,-0.04181,-0.01389,-0.00229,-0.01129,-0.00763,-0.02747,0.00641,-0.03677,-0.02121,0.0145,-0.01404
5.0045,-0.00259,-0.05157,0.01862,-0.00488,-0.04364,-0.04532,-0.01877,-0.00336,-0.00763,-0.00809,-0.02502,0.00732,-0.03281,-0.02457,-0.00717,-0.01022
5.005,-0.00763,-0.05249,0.01801,-0.01022,-0.04715,-0.05249,-0.01938,-0.00381,-0.00504,-0.00885,-0.02029,0.00595,-0.02914,-0.02762,-0.0177,-0.01999
5.0055,-0.01373,-0.05203,0.01617,-0.02045,-0.04837,-0.05997,-0.01633,-0.00427,-0.00336,-0.01022,-0.01373,0.00107,-0.02441,-0.02777,-0.01862,-0.03189
5.006,-0.01862,-0.05081,0.02014,-0.03174,-0.04654,-0.06302,-0.01465,-0.00473,-0.00397,-0.01068,-0.00885,-0.00458,-0.01907,-0.02747,-0.02258,-0.03632
5.0065,-0.02075,-0.05173,0.02213,-0.03983,-0.04013,-0.06012,-0.01617,-0.00504,-0.00519,-0.01038,-0.00717,-0.00549,-0.01526,-0.02838,-0.03265,-0.03479
5.007,-0.01938,-0.05569,0.00763,-0.04044,-0.02762,-0.05661,-0.01877,-0.00397,-0.00412,-0.01099,-0.00778,0.00092,-0.01312,-0.02808,-0.0415,-0.03342
5.0075,-0.0148,-0.06042,-0.02365,-0.03662,-0.0119,-0.05524,-0.02029,-0.00275,-0.00366,-0.01328,-0.01007,0.00992,-0.01465,-0.02563,-0.04379,-0.03387
5.008,-0.00839,-0.05951,-0.05966,-0.03372,0.00183,-0.05585,-0.02045,-0.00305,-0.00412,-0.01343,-0.01434,0.0148,-0.0209,-0.02243,-0.04059,-0.03754
5.0085,-0.00214,-0.05188,-0.08575,-0.03235,0.01404,-0.05478,-0.01923,-0.00458,-0.00626,-0.01083,-0.02213,0.01373,-0.03067,-0.01923,-0.03723,-0.04715
5.009,0.00183,-0.04318,-0.09216,-0.0325,0.02197,-0.05051,-0.01785,-0.00488,-0.00946,-0.00854,-0.0325,0.01129,-0.0383,-0.01648,-0.03448,-0.05905
5.0095,0.00259,-0.03754,-0.08163,-0.03098,0.02121,-0.04471,-0.01694,-0.00519,-0.01053,-0.00885,-0.04318,0.00977,-0.04211,-0.01602,-0.02563,-0.06729
5.01,0.00107,-0.03555,-0.06531,-0.02975,0.00336,-0.04181,-0.01816,-0.00381,-0.00809,-0.00961,-0.04578,0.01038,-0.04211,-0.01724,-0.0087,-0.0708
5.0105,0.00015,-0.0354,-0.05188,-0.02609,-0.03174,-0.04272,-0.02014,-0.00336,-0.00473,-0.01068,-0.0325,0.0116,-0.03891,-0.01816,0.01266,-0.07019
5.011,0.00015,-0.03448,-0.04562,-0.01953,-0.07263,-0.04547,-0.0206,-0.00336,-0.00153,-0.00885,0.00351,0.01236,-0.03372,-0.01602,0.03174,-0.05966
5.0115,0.00076,-0.03387,-0.04593,-0.01236,-0.1004,-0.04807,-0.01892,-0.00397,0.00061,-0.00519,0.05844,0.01236,-0.0267,-0.01205,0.04486,-0.03906
5.012,0.00061,-0.03342,-0.04791,-0.00763,-0.10132,-0.04852,-0.01755,-0.00397,0.00412,0.00504,0.11322,0.01282,-0.02335,-0.00839,0.0499,-0.02335
5.0125,-0.00061,-0.03342,-0.04822,-0.00412,-0.08057,-0.04639,-0.01831,-0.00397,0.00519,0.02167,0.13702,0.0119,-0.02472,-0.0061,0.03845,-0.02762
5.013,-0.00229,-0.03525,-0.04944,0.00137,-0.05417,-0.04135,-0.0209,-0.00366,0.00229,0.03723,0.11185,0.00717,-0.02869,-0.00443,0.0174,-0.04227
5.0135,-0.00229,-0.03738,-0.05051,0.0087,-0.0386,-0.03342,-0.02365,-0.00488,-0.00366,0.03815,0.05142,0.0,-0.0325,-0.00381,-0.00229,-0.0499
5.014,-0.00092,-0.03723,-0.05173,0.01419,-0.03601,-0.0238,-0.02335,-0.00595,-0.00961,0.01617,-0.00763,-0.00534,-0.0351,-0.00214,-0.01572,-0.04883
5.0145,0.00015,-0.03448,-0.05173,0.01572,-0.03952,-0.01587,-0.02182,-0.00549,-0.0145,-0.01816,-0.04349,-0.00473,-0.03799,-0.00229,-0.03082,-0.04562
5.015,0.00168,-0.03235,-0.05035,0.01465,-0.04044,-0.0116,-0.01984,-0.00336,-0.01862,-0.04623,-0.05905,-0.00275,-0.03922,-0.00671,-0.04837,-0.04318
5.0155,0.00427,-0.03143,-0.04669,0.01312,-0.03799,-0.00885,-0.02075,-0.00259,-0.02365,-0.05829,-0.06836,-0.00214,-0.03952,-0.01404,-0.05905,-0.04044
5.016,0.00549,-0.03128,-0.03952,0.01251,-0.03372,-0.00702,-0.02304,-0.00244,-0.02777,-0.05798,-0.07477,-0.00305,-0.04105,-0.02029,-0.04715,-0.03983
5.0165,0.00351,-0.02991,-0.02548,0.01175,-0.03128,-0.00687,-0.02426,-0.00305,-0.0296,-0.05325,-0.07324,-0.00626,-0.04181,-0.0235,-0.02213,-0.04379
5.017,-0.00031,-0.02701,-0.00671,0.01053,-0.03006,-0.00702,-0.02319,-0.00366,-0.03036,-0.047,-0.06653,-0.00854,-0.04074,-0.02319,-0.00778,-0.04807
5.0175,-0.0032,-0.02457,0.00839,0.01022,-0.02838,-0.00687,-0.02136,-0.00443,-0.03036,-0.03891,-0.06256,-0.00793,-0.03647,-0.02365,-0.01495,-0.04776
5.018,-0.00443,-0.02502,0.01297,0.01083,-0.0267,-0.00885,-0.01831,-0.00534,-0.03174,-0.0296,-0.06668,-0.00504,-0.03265,-0.02625,-0.02884,-0.04486
5.0185,-0.00473,-0.0264,0.00702,0.01114,-0.02319,-0.01373,-0.01511,-0.00549,-0.03403,-0.02258,-0.07294,-0.00351,-0.0296,-0.0296,-0.03036,-0.04318
5.019,-0.00473,-0.01984,-0.00397,0.01022,-0.01511,-0.02243,-0.01328,-0.00458,-0.0386,-0.02045,-0.07339,-0.00336,-0.02823,-0.03098,-0.009,-0.04333
5.0195,-0.00473,-0.00351,-0.01465,0.01129,-0.00015,-0.03448,-0.01282,-0.0032,-0.04227,-0.02258,-0.0679,-0.00351,-0.02548,-0.02914,0.03433,-0.04456
5.02,-0.00626,0.00687,-0.02396,0.0116,0.02075,-0.05493,-0.0148,-0.00397,-0.04486,-0.02563,-0.05707,-0.00366,-0.02289,-0.02579,0.0824,-0.04395
5.0205,-0.00778,-0.00778,-0.03387,0.00854,0.03693,-0.07874,-0.01801,-0.00336,-0.04593,-0.02869,-0.04074,-0.00305,-0.02106,-0.02457,0.10147,-0.04166
5.021,-0.00824,-0.04578,-0.04288,0.00275,0.03922,-0.08789,-0.02075,-0.00259,-0.04593,-0.03281,-0.01495,-0.00168,-0.01923,-0.02411,0.07523,-0.03937
5.0215,-0.00656,-0.08316,-0.0499,-0.00122,0.02823,-0.07492,-0.02228,-0.00153,-0.04257,-0.03632,0.01373,0.00153,-0.01633,-0.02472,0.03082,-0.04013
5.022,-0.0058,-0.09933,-0.04791,-0.00076,0.01251,-0.05341,-0.02487,-0.00076,-0.03708,-0.03906,0.03204,0.00305,-0.01251,-0.02518,0.01312,-0.04517
5.0225,-0.00641,-0.09689,-0.03799,0.0032,0.00092,-0.04196,-0.0264,-0.00198,-0.03052,-0.03784,0.0322,0.00366,-0.01144,-0.02502,0.0296,-0.0531
5.023,-0.0061,-0.08728,-0.02808,0.00595,-0.00519,-0.04395,-0.02777,-0.0029,-0.02548,-0.02945,0.01801,0.00534,-0.01526,-0.02426,0.04776,-0.056
5.0235,-0.00458,-0.07965,-0.02747,0.00427,-0.01373,-0.04868,-0.02838,-0.00305,-0.02045,-0.01495,0.0061,0.01022,-0.02548,-0.02304,0.04501,-0.04807
5.024,-0.00366,-0.07355,-0.03769,-0.00107,-0.03815,-0.05508,-0.02808,-0.00244,-0.01633,-0.00229,0.00488,0.01541,-0.03357,-0.0209,0.02869,-0.0354
5.0245,-0.00229,-0.06805,-0.0502,-0.00381,-0.07797,-0.06882,-0.02808,-0.00244,-0.01114,-0.00198,0.01236,0.01678,-0.03693,-0.01801,0.01892,-0.02991
5.025,-0.00015,-0.06134,-0.0621,-0.00305,-0.11597,-0.08774,-0.02609,-0.00198,-0.00778,-0.01404,0.01862,0.01343,-0.03738,-0.0145,0.01297,-0.03479
5.0255,0.00198,-0.05737,-0.07355,0.00092,-0.12634,-0.10056,-0.02136,-0.00229,-0.0061,-0.02945,0.01877,0.01129,-0.03647,-0.01129,0.00534,-0.04288
5.026,0.00412,-0.05692,-0.08316,0.00641,-0.1088,-0.09888,-0.01297,-0.00061,-0.0032,-0.03799,0.01617,0.01205,-0.03632,-0.01099,-0.00214,-0.04608
5.0265,0.00488,-0.05753,-0.08408,0.01175,-0.08896,-0.08698,-0.0029,0.0,-0.00092,-0.04028,0.01526,0.01282,-0.03769,-0.01083,-0.009,-0.04684
5.027,0.00351,-0.05646,-0.07813,0.01617,-0.08301,-0.07843,0.00473,-0.00046,-0.00046,-0.03525,0.0174,0.01053,-0.0386,-0.01068,-0.02426,-0.05173
5.0275,0.00076,-0.05203,-0.07111,0.01572,-0.07996,-0.07721,0.00214,-0.00153,-0.00122,-0.02411,0.01968,0.00702,-0.03586,-0.0087,-0.04822,-0.05554
5.028,-0.00092,-0.04654,-0.06714,0.01053,-0.06821,-0.0737,-0.0116,-0.00244,-0.00214,-0.009,0.01846,0.00519,-0.0296,-0.00839,-0.06821,-0.05005
5.0285,-0.00183,-0.0415,-0.06317,0.0058,-0.05051,-0.06027,-0.02319,-0.00259,-0.00092,-0.00244,0.01617,0.0058,-0.02396,-0.00854,-0.07538,-0.03998
5.029,-0.00397,-0.03677,-0.05768,0.0029,-0.03601,-0.04379,-0.01785,-0.00259,0.00137,-0.01373,0.01495,0.00519,-0.02029,-0.009,-0.07111,-0.03494
5.0295,-0.00626,-0.03082,-0.0502,-0.00168,-0.02792,-0.03677,0.00046,-0.00137,0.00351,-0.03281,0.01572,0.00381,-0.01846,-0.00885,-0.05844,-0.03662
5.03,-0.00854,-0.02716,-0.04578,-0.01068,-0.02228,-0.04059,0.01175,-0.00031,0.00458,-0.04593,0.0174,0.0032,-0.01801,-0.0061,-0.03235,-0.03632
5.0305,-0.01129,-0.02579,-0.0473,-0.01816,-0.01343,-0.04959,0.00626,0.00046,0.00381,-0.0473,0.0174,0.00473,-0.0206,-0.00595,0.01373,-0.02884
5.031,-0.01251,-0.02609,-0.0531,-0.02121,-0.00504,-0.05569,-0.0032,0.00122,0.00183,-0.04227,0.0177,0.00671,-0.02472,-0.00793,0.06943,-0.01907
5.0315,-0.0119,-0.0235,-0.05951,-0.02426,-0.00153,-0.05692,-0.00854,0.00122,0.00015,-0.03662,0.02792,0.00702,-0.02747,-0.00931,0.10147,-0.01465
5.032,-0.01022,-0.02213,-0.0618,-0.03189,-0.00275,-0.05341,-0.00977,0.00046,-0.00046,-0.03296,0.04456,0.00427,-0.0296,-0.00961,0.08713,-0.0209
5.0325,-0.00839,-0.0296,-0.06149,-0.04059,-0.00702,-0.04974,-0.01114,-0.00015,-0.00153,-0.02731,0.04929,0.0032,-0.03433,-0.00916,0.04242,-0.03204
5.033,-0.00854,-0.04929,-0.06088,-0.04501,-0.01068,-0.04745,-0.01297,-0.00061,-0.00488,-0.02029,0.02884,0.0032,-0.04211,-0.01144,0.01572,-0.04013
5.0335,-0.00916,-0.06973,-0.06348,-0.04684,-0.01434,-0.04791,-0.01297,-0.00122,-0.01068,-0.01328,-0.00732,0.00229,-0.05096,-0.01587,0.02518,-0.04303
5.034,-0.00977,-0.07751,-0.06592,-0.04959,-0.01709,-0.04761,-0.01312,-0.00198,-0.01648,-0.00809,-0.0386,-0.00137,-0.05386,-0.02136,0.04684,-0.04318
5.0345,-0.01022,-0.07202,-0.06409,-0.05219,-0.02182,-0.04547,-0.01465,-0.0032,-0.02029,-0.00565,-0.05508,-0.00687,-0.04639,-0.0293,0.05035,-0.04303
5.035,-0.01053,-0.06409,-0.05829,-0.04852,-0.02808,-0.04089,-0.01694,-0.00458,-0.01953,-0.00397,-0.06119,-0.01068,-0.03098,-0.03693,0.03662,-0.04303
5.0355,-0.01099,-0.05737,-0.05142,-0.0354,-0.03021,-0.03479,-0.01648,-0.00534,-0.01511,-0.00061,-0.0621,-0.01358,-0.01495,-0.03662,0.0238,-0.04333
5.036,-0.0116,-0.04868,-0.04288,-0.02121,-0.02441,-0.03159,-0.01511,-0.00488,-0.00992,0.00473,-0.05905,-0.01587,-0.0087,-0.02533,0.02441,-0.04242
5.0365,-0.0119,-0.03815,-0.0322,-0.00793,-0.01419,-0.0325,-0.01419,-0.00427,-0.0087,0.00916,-0.05173,-0.01892,-0.0116,-0.00961,0.03128,-0.04044
5.037,-0.01328,-0.03006,-0.02228,0.01083,-0.00687,-0.03387,-0.01465,-0.00366,-0.01358,0.00793,-0.04578,-0.02182,-0.01785,-0.00351,0.03082,-0.03738
5.0375,-0.01526,-0.02899,-0.01633,0.04272,-0.00229,-0.03098,-0.0148,-0.00488,-0.02289,0.00198,-0.04272,-0.01938,-0.02258,-0.01907,0.02243,-0.03525
5.038,-0.01678,-0.03174,-0.01328,0.07446,-0.00015,-0.02319,-0.01556,-0.00549,-0.03021,-0.00565,-0.03479,-0.01282,-0.0264,-0.04654,0.01099,-0.03632
5.0385,-0.01587,-0.0354,-0.01266,0.07675,0.00015,-0.01312,-0.01633,-0.00565,-0.03265,-0.01083,-0.01633,-0.00229,-0.02731,-0.06332,0.00275,-0.03769
5.039,-0.01114,-0.03937,-0.01328,0.03693,-0.00198,-0.00443,-0.01663,-0.00534,-0.03113,-0.01144,-0.00168,0.00839,-0.03067,-0.06027,0.0,-0.0386
5.0395,-0.00443,-0.04318,-0.01404,-0.02258,-0.00992,-0.00107,-0.01465,-0.00427,-0.02853,-0.0087,-0.0058,0.0235,-0.03906,-0.05569,0.00168,-0.03769
5.04,-0.00015,-0.04532,-0.01221,-0.0708,-0.02243,-0.00351,-0.01282,-0.0029,-0.02625,-0.00595,-0.02487,0.04547,-0.05081,-0.06683,0.00366,-0.04074
5.0405,0.00137,-0.04654,-0.00916,-0.09796,-0.03738,-0.00946,-0.01312,-0.00397,-0.02426,-0.00626,-0.04074,0.06378,-0.05981,-0.08591,0.00351,-0.04669
5.041,0.00153,-0.047,-0.00458,-0.11047,-0.05005,-0.01053,-0.01419,-0.00534,-0.02213,-0.00977,-0.04181,0.06012,-0.0621,-0.09232,0.00137,-0.0502
5.0415,0.0032,-0.04883,-0.00015,-0.10956,-0.05661,-0.00183,-0.0145,-0.00565,-0.01877,-0.01129,-0.03464,0.03296,-0.05722,-0.08011,0.00076,-0.04959
5.042,0.00549,-0.05371,0.00214,-0.08865,-0.05737,0.00946,-0.01266,-0.00397,-0.0145,-0.01099,-0.03143,0.00198,-0.04654,-0.06104,0.00122,-0.04807
5.0425,0.00565,-0.05615,0.00214,-0.03967,-0.05478,0.01419,-0.01175,-0.00244,-0.01083,-0.01114,-0.03876,-0.01404,-0.03616,-0.04303,0.00153,-0.04822
5.043,0.00397,-0.05371,0.0,0.03464,-0.05783,0.00458,-0.01236,-0.00092,-0.00885,-0.01282,-0.05005,-0.01587,-0.03098,-0.02396,-0.00015,-0.04944
5.0435,0.00122,-0.04807,-0.00214,0.11002,-0.06668,-0.02472,-0.01465,-0.00061,-0.00977,-0.01495,-0.05707,-0.01709,-0.03067,-0.00381,-0.0029,-0.04929
5.044,-0.00259,-0.04395,-0.00488,0.1387,-0.07202,-0.07095,-0.01511,-0.00061,-0.01022,-0.01633,-0.05508,-0.02487,-0.0351,0.01434,-0.0032,-0.04761
5.0445,-0.00717,-0.04196,-0.01007,0.08926,-0.05951,-0.11002,-0.01495,-0.00244,-0.00824,-0.01984,-0.05112,-0.03433,-0.03967,0.02808,-0.00275,-0.04623
5.045,-0.01251,-0.0383,-0.02884,-0.01099,-0.03189,-0.1178,-0.01526,-0.00443,-0.00458,-0.02457,-0.04944,-0.03708,-0.04059,0.04074,-0.00076,-0.04776
5.0455,-0.01633,-0.03189,-0.07996,-0.09903,-0.00854,-0.09338,-0.01556,-0.00565,-0.00137,-0.02701,-0.05005,-0.03174,-0.03525,0.05051,-0.00153,-0.04593
5.046,-0.01907,-0.02594,-0.16235,-0.13321,-0.00473,-0.05905,-0.01511,-0.00656,-0.00244,-0.02579,-0.04807,-0.02197,-0.02853,0.04669,-0.0032,-0.04242
5.0465,-0.02243,-0.02289,-0.22614,-0.12085,-0.01968,-0.03448,-0.01465,-0.00717,-0.00595,-0.0209,-0.04013,-0.01419,-0.02792,0.02609,-0.00397,-0.03891
5.047,-0.02838,-0.02274,-0.21301,-0.09232,-0.03799,-0.02487,-0.01572,-0.00702,-0.01038,-0.01724,-0.02869,-0.01129,-0.03281,-0.00015,-0.00519,-0.03647
5.0475,-0.03586,-0.02274,-0.12039,-0.0589,-0.04883,-0.0296,-0.0174,-0.00671,-0.01343,-0.01511,-0.01648,-0.01266,-0.03616,-0.01572,-0.0087,-0.03662
5.048,-0.0412,-0.02243,-0.00931,-0.02045,-0.05035,-0.04211,-0.01801,-0.00504,-0.01541,-0.01358,-0.00717,-0.0145,-0.0354,-0.0177,-0.01633,-0.03662
5.0485,-0.04257,-0.02258,0.05936,0.01785,-0.04852,-0.0563,-0.01678,-0.0032,-0.0148,-0.0116,-0.0032,-0.01221,-0.03235,-0.01419,-0.0267,-0.03708
5.049,-0.04242,-0.02441,0.0798,0.04471,-0.04837,-0.06897,-0.01511,-0.0029,-0.01297,-0.01022,-0.00412,-0.00656,-0.02975,-0.01358,-0.03876,-0.03738
5.0495,-0.0386,-0.0264,0.07736,0.05524,-0.05096,-0.08408,-0.0145,-0.0029,-0.01297,-0.01099,-0.00748,-0.00229,-0.02747,-0.01572,-0.04608,-0.03906
5.05,-0.03235,-0.02823,0.06943,0.05508,-0.04944,-0.10025,-0.01312,-0.00275,-0.01526,-0.01175,-0.01022,-0.00153,-0.02594,-0.01663,-0.04562,-0.04105
5.0505,-0.02533,-0.02914,0.05905,0.04425,-0.04181,-0.10895,-0.01221,-0.00305,-0.0177,-0.01312,-0.01266,-0.00259,-0.0267,-0.01556,-0.04013,-0.04257
5.051,-0.01862,-0.03204,0.04578,0.02365,-0.03189,-0.11032,-0.01205,-0.00397,-0.01923,-0.01648,-0.01343,-0.00458,-0.03265,-0.01541,-0.03525,-0.04333
5.0515,-0.01419,-0.03632,0.03387,0.00534,-0.02716,-0.11124,-0.01312,-0.00305,-0.02197,-0.01968,-0.00931,-0.00946,-0.03906,-0.01724,-0.03006,-0.0441
5.052,-0.0119,-0.04303,0.02335,0.00519,-0.02991,-0.11063,-0.01389,-0.0032,-0.0267,-0.02151,0.00381,-0.01572,-0.04074,-0.0209,-0.02182,-0.04623
5.0525,-0.01114,-0.04852,0.01648,0.01678,-0.03494,-0.10208,-0.01465,-0.00305,-0.03265,-0.02029,0.02167,-0.02029,-0.03967,-0.02396,-0.00244,-0.04837
5.053,-0.01144,-0.04959,0.01022,0.02457,-0.04089,-0.08194,-0.01419,-0.00305,-0.03616,-0.01678,0.0325,-0.01755,-0.03845,-0.0238,0.03815,-0.04669
5.0535,-0.01053,-0.04868,0.00748,0.02167,-0.04578,-0.06378,-0.01236,-0.00275,-0.03555,-0.01526,0.0293,-0.01022,-0.03769,-0.0235,0.09476,-0.04318
5.054,-0.00732,-0.04761,0.00244,0.0148,-0.04349,-0.05402,-0.01175,-0.00275,-0.03174,-0.01556,0.01373,-0.00107,-0.03418,-0.02304,0.13199,-0.04227
5.0545,-0.00336,-0.04776,-0.00916,0.01221,-0.03372,-0.04852,-0.01266,-0.00244,-0.0267,-0.01831,-0.00412,0.00488,-0.02869,-0.02136,0.11475,-0.04593
5.055,-0.00031,-0.04761,-0.0267,0.01343,-0.02289,-0.04135,-0.01328,-0.0029,-0.0238,-0.02213,-0.01846,0.00626,-0.02686,-0.02014,0.056,-0.05051
5.0555,0.00275,-0.04639,-0.04318,0.01663,-0.01755,-0.0325,-0.01526,-0.0029,-0.02213,-0.02533,-0.02884,0.00534,-0.03067,-0.02426,0.00473,-0.05234
5.056,0.00549,-0.04089,-0.05386,0.01862,-0.01434,-0.02747,-0.02136,-0.00244,-0.02167,-0.02548,-0.03845,0.00504,-0.0354,-0.03128,-0.01358,-0.0531
5.0565,0.00793,-0.02258,-0.05585,0.01434,-0.01389,-0.02609,-0.0296,-0.00061,-0.0206,-0.02365,-0.04562,0.0058,-0.0386,-0.03464,-0.01465,-0.05753
5.057,0.00946,0.00931,-0.05325,0.00366,-0.0209,-0.02823,-0.0351,0.00092,-0.01877,-0.0209,-0.05005,0.00626,-0.03754,-0.03067,-0.01709,-0.06226
5.0575,0.00885,0.03616,-0.04837,-0.00626,-0.03876,-0.0325,-0.03357,0.00198,-0.0174,-0.01862,-0.0499,0.00717,-0.03098,-0.02304,-0.0238,-0.06393
5.058,0.00671,0.03311,-0.04257,-0.01068,-0.05524,-0.03525,-0.02853,-0.00061,-0.01617,-0.01678,-0.04837,0.00778,-0.0174,-0.01648,-0.03021,-0.06042
5.0585,0.00534,-0.00671,-0.03464,-0.01236,-0.05417,-0.03586,-0.02899,-0.0058,-0.0145,-0.01617,-0.04654,0.0087,0.00061,-0.0119,-0.03494,-0.05417
5.059,0.0032,-0.06027,-0.02502,-0.01633,-0.03952,-0.03159,-0.03525,-0.01236,-0.01251,-0.01724,-0.04578,0.00916,0.01953,-0.00961,-0.03448,-0.04745
5.0595,0.00229,-0.09933,-0.01465,-0.02075,-0.02548,-0.02365,-0.04044,-0.01541,-0.01022,-0.01877,-0.04395,0.01022,0.03769,-0.00839,-0.02502,-0.03983
5.06,0.00381,-0.11673,-0.00534,-0.02167,-0.0145,-0.01663,-0.03876,-0.0148,-0.00885,-0.01907,-0.03967,0.01221,0.04868,-0.00916,-0.00488,-0.03082
5.0605,0.00641,-0.1178,-0.00366,-0.02014,-0.00198,-0.01572,-0.03235,-0.01312,-0.00885,-0.01801,-0.03601,0.01221,0.04181,-0.0119,0.0267,-0.01984
5.061,0.00702,-0.10834,-0.00473,-0.01694,0.00656,-0.01999,-0.01556,-0.01419,-0.01007,-0.01907,-0.03189,0.00916,0.01373,-0.01678,0.06027,-0.00854
5.0615,0.0032,-0.0914,-0.00824,-0.01404,0.00443,-0.02518,0.0148,-0.01556,-0.01114,-0.02441,-0.02625,0.00458,-0.02853,-0.02167,0.07126,-0.00458
5.062,-0.00031,-0.07416,-0.01694,-0.01083,-0.00565,-0.02518,0.0528,-0.01221,-0.01221,-0.02899,-0.01862,0.00305,-0.06714,-0.0235,0.0531,-0.01389
5.0625,-0.00168,-0.06348,-0.03723,-0.0087,-0.0145,-0.02167,0.06851,-0.00061,-0.01389,-0.02777,-0.01114,0.00443,-0.08774,-0.0238,0.02136,-0.02975
5.063,-0.00168,-0.05722,-0.07629,-0.00946,-0.02121,-0.0145,0.04059,0.01434,-0.01511,-0.0238,-0.00473,0.00626,-0.09262,-0.02441,-0.00244,-0.04028
5.0635,-0.00168,-0.05035,-0.12375,-0.01038,-0.03311,-0.00992,-0.01083,0.02106,-0.0145,-0.02151,0.00565,0.00641,-0.09399,-0.02579,-0.01694,-0.0415
5.064,-0.00443,-0.0444,-0.15396,-0.01022,-0.04669,-0.01389,-0.04181,0.01495,-0.01236,-0.02182,0.02136,0.00519,-0.09857,-0.02777,-0.02853,-0.04105
5.0645,-0.00885,-0.04501,-0.14236,-0.00885,-0.05295,-0.03494,-0.03693,0.00275,-0.01083,-0.02151,0.03647,0.00427,-0.10086,-0.02869,-0.03357,-0.04227
5.065,-0.01297,-0.04944,-0.09796,-0.00778,-0.05142,-0.07065,-0.02121,-0.00397,-0.00992,-0.02014,0.04288,0.0032,-0.09262,-0.02823,-0.02777,-0.0444
5.0655,-0.01724,-0.0499,-0.05188,-0.00702,-0.04929,-0.09659,-0.01373,-0.00259,-0.01083,-0.01907,0.04166,0.00351,-0.07477,-0.02548,-0.01251,-0.04715
5.066,-0.01877,-0.03952,-0.0238,-0.00793,-0.04639,-0.09033,-0.00717,0.00168,-0.0116,-0.0209,0.03891,0.00687,-0.05432,-0.0209,-0.00244,-0.05096
5.0665,-0.01785,-0.02975,-0.01404,-0.00916,-0.03738,-0.06058,0.01053,0.00473,-0.01175,-0.02289,0.03738,0.01038,-0.0383,-0.01633,-0.01251,-0.05127
5.067,-0.01434,-0.0322,-0.01175,-0.00931,-0.01953,-0.0415,0.03098,0.00641,-0.01251,-0.02319,0.03403,0.01297,-0.02396,-0.01129,-0.03677,-0.04974
5.0675,-0.009,-0.04364,-0.01419,-0.0087,0.00427,-0.05569,0.03494,0.00595,-0.01312,-0.02365,0.02518,0.01373,-0.01083,-0.00412,-0.05936,-0.04807
5.068,-0.00626,-0.05234,-0.02274,-0.00702,0.02457,-0.08118,0.01648,0.00381,-0.01358,-0.02548,0.01114,0.01175,-0.00061,0.00687,-0.0766,-0.0531
5.0685,-0.00549,-0.05249,-0.0354,-0.0058,0.03601,-0.08652,-0.00687,0.00092,-0.01328,-0.02884,-0.00534,0.00793,0.00244,0.01907,-0.08728,-0.06454
5.069,-0.00488,-0.04684,-0.04974,-0.00504,0.02747,-0.06546,-0.01572,-0.00275,-0.01389,-0.03235,-0.01877,0.00305,-0.00336,0.02533,-0.07889,-0.07217
5.0695,-0.00183,-0.04272,-0.05737,-0.00305,0.00107,-0.03967,-0.01053,-0.00595,-0.01572,-0.03403,-0.02487,-0.00153,-0.0119,0.02304,-0.0415,-0.06393
5.07,0.00198,-0.04242,-0.05417,-0.00061,-0.03448,-0.02899,-0.00809,-0.00748,-0.01678,-0.03128,-0.02365,-0.00366,-0.01968,0.01328,0.00046,-0.0412
5.0705,0.00534,-0.04425,-0.04547,-0.00046,-0.0676,-0.03906,-0.01663,-0.00717,-0.01678,-0.02472,-0.02258,-0.00397,-0.02762,0.00275,0.01114,-0.02319
5.071,0.00656,-0.04654,-0.0351,-0.00244,-0.09445,-0.06195,-0.02686,-0.0061,-0.01648,-0.01648,-0.02625,-0.0032,-0.0354,-0.00748,-0.00381,-0.02274
5.0715,0.00565,-0.04761,-0.02197,-0.00275,-0.11246,-0.0827,-0.02975,-0.00534,-0.01709,-0.00961,-0.03677,-0.00122,-0.04181,-0.01801,-0.00458,-0.02991
5.072,0.00351,-0.04608,-0.00412,-0.00092,-0.1178,-0.08621,-0.02365,-0.00595,-0.01953,-0.00366,-0.05157,-0.00061,-0.0441,-0.02716,0.03433,-0.0296
5.0725,0.00183,-0.04257,0.01404,0.00015,-0.10956,-0.06897,-0.01587,-0.00702,-0.02213,-0.00092,-0.06424,0.00031,-0.04532,-0.04059,0.09384,-0.02182
5.073,0.00107,-0.0386,0.02258,-0.00137,-0.09232,-0.0415,-0.01373,-0.00702,-0.02213,-0.00137,-0.07294,0.00305,-0.04471,-0.06516,0.13153,-0.01205
5.0735,0.00214,-0.03525,0.01617,-0.00381,-0.07233,-0.01724,-0.01633,-0.00641,-0.01984,-0.00504,-0.07629,0.00717,-0.0386,-0.10178,0.12421,-0.00092
5.074,0.00412,-0.03265,-0.00015,-0.00473,-0.05707,-0.00671,-0.02045,-0.00641,-0.01724,-0.01007,-0.07706,0.01038,-0.02975,-0.13138,0.08743,0.00992
5.0745,0.0058,-0.03082,-0.01923,-0.00504,-0.04715,-0.01678,-0.01953,-0.00626,-0.01434,-0.01511,-0.07599,0.00793,-0.02426,-0.12939,0.06699,0.01022
5.075,0.00732,-0.02975,-0.04044,-0.00534,-0.04196,-0.04059,-0.01434,-0.00641,-0.01144,-0.01846,-0.07553,0.00137,-0.02838,-0.09079,0.0769,-0.00946
5.0755,0.00748,-0.02731,-0.05783,-0.00488,-0.0383,-0.05951,-0.01328,-0.00565,-0.00793,-0.02121,-0.07446,-0.00366,-0.03677,-0.03708,0.09048,-0.03784
5.076,0.00565,-0.02731,-0.06699,-0.0032,-0.03342,-0.05814,-0.01587,-0.00565,-0.00534,-0.02182,-0.06943,-0.00244,-0.04272,0.00671,0.07919,-0.05371
5.0765,0.00244,-0.02747,-0.0676,-0.00122,-0.0264,-0.04044,-0.01938,-0.00534,-0.00336,-0.02243,-0.05722,0.00443,-0.0415,0.03021,0.04425,-0.0502
5.077,-0.00031,-0.02808,-0.06393,-0.00275,-0.01648,-0.0209,-0.02045,-0.00504,-0.00336,-0.02151,-0.04486,0.009,-0.03677,0.04044,0.00443,-0.04349
5.0775,-0.00198,-0.02808,-0.06149,-0.00641,-0.00412,-0.00977,-0.01907,-0.00443,-0.00519,-0.01938,-0.04105,0.00549,-0.03357,0.04684,-0.02579,-0.0441
5.078,-0.00305,-0.03036,-0.06195,-0.01007,0.01373,-0.00763,-0.01755,-0.00412,-0.00702,-0.01663,-0.0412,-0.00305,-0.03098,0.04715,-0.03601,-0.0499
5.0785,-0.0029,-0.03708,-0.06332,-0.01038,0.02914,-0.01663,-0.01709,-0.00351,-0.00748,-0.01434,-0.03464,-0.0087,-0.02701,0.03128,-0.02365,-0.05371
5.079,-0.00137,-0.04303,-0.065,-0.01022,0.03403,-0.03525,-0.01816,-0.00443,-0.00656,-0.01556,-0.01907,-0.00748,-0.02213,0.00824,-0.00351,-0.05615
5.0795,0.00046,-0.04318,-0.06485,-0.00977,0.02884,-0.05722,-0.02029,-0.00519,-0.00534,-0.0148,-0.00443,-0.00122,-0.01938,-0.00305,0.01343,-0.06027
5.08,0.00351,-0.04044,-0.06195,-0.01099,0.0209,-0.07233,-0.02258,-0.00565,-0.00549,-0.01175,0.00305,0.00397,-0.01999,0.00381,0.03098,-0.06302
5.0805,0.0058,-0.03891,-0.05783,-0.01266,0.01816,-0.07767,-0.02228,-0.00534,-0.00748,-0.00931,0.00702,0.00732,-0.02289,0.01526,0.05569,-0.05981
5.081,0.0061,-0.03799,-0.05646,-0.01129,0.02121,-0.0766,-0.02136,-0.00473,-0.01083,-0.01068,0.01099,0.00778,-0.02533,0.01373,0.07721,-0.05203
5.0815,0.00549,-0.0354,-0.05661,-0.00763,0.02335,-0.07492,-0.02121,-0.00473,-0.01556,-0.01572,0.0145,0.00763,-0.02686,-0.00336,0.07736,-0.04425
5.082,0.00549,-0.03082,-0.05249,-0.00687,0.01236,-0.06927,-0.02243,-0.00458,-0.02029,-0.01953,0.0148,0.0061,-0.02533,-0.02441,0.05905,-0.0412
5.0825,0.00687,-0.02747,-0.04181,-0.00931,-0.01404,-0.05936,-0.02319,-0.00488,-0.02396,-0.02151,0.01465,0.00427,-0.02579,-0.03525,0.03967,-0.04242
5.083,0.00763,-0.02502,-0.03128,-0.0148,-0.04471,-0.04852,-0.02319,-0.00458,-0.02548,-0.02457,0.01617,0.00198,-0.02975,-0.03387,0.02838,-0.04517
5.0835,0.0087,-0.02457,-0.0264,-0.01953,-0.06989,-0.04044,-0.02258,-0.00351,-0.02686,-0.02884,0.01663,0.00061,-0.03601,-0.02914,0.0206,-0.04669
5.084,0.01007,-0.02563,-0.02808,-0.02335,-0.08301,-0.03632,-0.02213,-0.0032,-0.02914,-0.03052,0.01587,-0.00107,-0.04303,-0.02701,0.0116,-0.04684
5.0845,0.01068,-0.02762,-0.03128,-0.02319,-0.08636,-0.03342,-0.02182,-0.00336,-0.03143,-0.0293,0.01495,-0.00275,-0.04623,-0.03021,0.00046,-0.04501
5.085,0.01175,-0.02899,-0.03647,-0.02106,-0.08331,-0.03281,-0.02289,-0.00458,-0.03204,-0.02777,0.01358,-0.00412,-0.04471,-0.0325,-0.01221,-0.04318
5.0855,0.01068,-0.02853,-0.05707,-0.01968,-0.07874,-0.03403,-0.02731,-0.00549,-0.02991,-0.02594,0.01205,-0.00305,-0.03998,-0.03159,-0.02045,-0.04349
5.086,0.00809,-0.02701,-0.09598,-0.01846,-0.0769,-0.03479,-0.03082,-0.00565,-0.02579,-0.02441,0.01038,-0.00015,-0.03265,-0.02853,-0.01556,-0.04562
5.0865,0.00549,-0.02731,-0.13336,-0.01678,-0.07584,-0.03571,-0.03143,-0.00595,-0.02182,-0.02319,0.00946,0.00214,-0.02502,-0.02655,0.00275,-0.05081
5.087,0.00183,-0.03174,-0.13672,-0.01373,-0.06592,-0.03906,-0.02823,-0.00519,-0.01907,-0.02258,0.01175,-0.00122,-0.01663,-0.0264,0.02304,-0.06195
5.0875,-0.00244,-0.04517,-0.09613,-0.01144,-0.04669,-0.04807,-0.02441,-0.00168,-0.01801,-0.0238,0.0116,-0.00717,-0.00916,-0.02747,0.03128,-0.07782
5.088,-0.00778,-0.06729,-0.03922,-0.01053,-0.02777,-0.05783,-0.02167,0.00305,-0.01556,-0.02487,0.00824,-0.00916,-0.00732,-0.02762,0.02258,-0.08926
5.0885,-0.01221,-0.08423,0.00565,-0.01007,-0.01938,-0.06195,-0.01907,0.00687,-0.01495,-0.02411,0.00137,-0.00443,-0.01068,-0.02701,0.00595,-0.08667
5.089,-0.01297,-0.08514,0.02945,-0.00885,-0.01648,-0.05875,-0.01373,0.00397,-0.01495,-0.01785,-0.00381,0.00366,-0.01526,-0.02533,-0.00748,-0.06989
5.0895,-0.01114,-0.06989,0.03845,-0.00702,-0.0116,-0.05203,-0.00687,-0.00549,-0.01633,-0.01022,-0.00381,0.00839,-0.0177,-0.02335,-0.01404,-0.05005
5.09,-0.00793,-0.0499,0.03983,-0.00366,-0.00275,-0.04883,0.00107,-0.01465,-0.01755,-0.00626,0.00244,0.00702,-0.01785,-0.02151,-0.01434,-0.03723
5.0905,-0.00702,-0.03723,0.03799,-0.00244,0.00397,-0.05356,0.00336,-0.01709,-0.01816,-0.00992,0.01099,0.00153,-0.01816,-0.02075,-0.01373,-0.03326
5.091,-0.00778,-0.03189,0.03357,-0.00366,-0.00397,-0.06104,-0.00916,-0.01312,-0.01816,-0.01633,0.0177,-0.00351,-0.0174,-0.01999,-0.01678,-0.03296
5.0915,-0.00931,-0.02701,0.02304,-0.0058,-0.02457,-0.06317,-0.0351,-0.01144,-0.0174,-0.02289,0.02151,-0.00366,-0.01266,-0.0177,-0.02151,-0.03311
5.092,-0.00946,-0.01709,0.00076,-0.00793,-0.04959,-0.05676,-0.05508,-0.0177,-0.01617,-0.02701,0.02304,-0.00076,-0.00565,-0.01587,-0.02487,-0.02853
5.0925,-0.00992,-0.0061,-0.02579,-0.00916,-0.06546,-0.05051,-0.04639,-0.02823,-0.01587,-0.03036,0.0238,0.00336,-0.00427,-0.01465,-0.02762,-0.0148
5.093,-0.00916,-0.00153,-0.04074,-0.00793,-0.06927,-0.04959,-0.00839,-0.03006,-0.01465,-0.03113,0.02716,0.00687,-0.0119,-0.0145,-0.02975,0.00107
5.0935,-0.00748,-0.00351,-0.03586,-0.00519,-0.0647,-0.05219,0.02319,-0.01404,-0.01282,-0.02823,0.02899,0.00961,-0.02274,-0.0148,-0.03021,0.00366
5.094,-0.00565,-0.00717,-0.0206,-0.00504,-0.05371,-0.05127,0.02289,0.01373,-0.01099,-0.02548,0.02609,0.00961,-0.02747,-0.01526,-0.02869,-0.0148
5.0945,-0.00549,-0.00992,-0.00473,-0.00748,-0.03616,-0.04501,0.00031,0.0322,-0.01114,-0.02151,0.01938,0.00488,-0.02655,-0.01663,-0.03128,-0.03799
5.095,-0.00656,-0.01038,0.00839,-0.01129,-0.01953,-0.04349,-0.01648,0.02548,-0.01205,-0.01831,0.01099,-0.00198,-0.02945,-0.01862,-0.0412,-0.04974
5.0955,-0.00732,-0.00717,0.01785,-0.0119,-0.01328,-0.04669,-0.01907,0.00198,-0.01282,-0.01602,-0.00046,-0.00549,-0.04379,-0.02151,-0.05508,-0.05386
5.096,-0.00717,-0.00183,0.02045,-0.01022,-0.01816,-0.05325,-0.01556,-0.01419,-0.01343,-0.01404,-0.01358,-0.00305,-0.06378,-0.02335,-0.05951,-0.05905
5.0965,-0.00732,-0.00076,0.01312,-0.009,-0.02838,-0.05768,-0.01389,-0.01251,-0.01343,-0.01343,-0.02518,0.00366,-0.0795,-0.02502,-0.04623,-0.05951
5.097,-0.00977,-0.00824,0.00137,-0.00885,-0.03754,-0.05692,-0.01251,-0.00259,-0.01404,-0.01419,-0.03098,0.01038,-0.08682,-0.02777,-0.01236,-0.04974
5.0975,-0.01205,-0.01953,-0.00732,-0.00961,-0.03784,-0.04913,-0.00824,0.00168,-0.0148,-0.01495,-0.02625,0.01282,-0.08545,-0.03464,0.03113,-0.04501
5.098,-0.01114,-0.02716,-0.01251,-0.01053,-0.03067,-0.04166,-0.00015,0.00092,-0.01419,-0.01495,-0.01175,0.00977,-0.08041,-0.04303,0.0563,-0.05707
5.0985,-0.00687,-0.03006,-0.01556,-0.01282,-0.02045,-0.04181,0.00412,0.00046,-0.01312,-0.0148,0.00336,0.00458,-0.07599,-0.04166,0.05051,-0.07233
5.099,-0.00275,-0.03098,-0.0206,-0.01511,-0.01999,-0.04883,0.00122,0.00198,-0.01038,-0.01495,0.00122,0.0029,-0.07385,-0.0296,0.0296,-0.0676
5.0995,-0.00015,-0.03326,-0.02777,-0.01419,-0.02518,-0.05157,-0.00519,0.0032,-0.0087,-0.01801,-0.02365,0.00458,-0.06989,-0.01465,0.01678,-0.04532
5.1,-0.00015,-0.03845,-0.0354,-0.01144,-0.02457,-0.04181,-0.00839,0.00275,-0.01007,-0.01953,-0.05783,0.00748,-0.06149,-0.00549,0.01282,-0.03113
5.1005,-0.00107,-0.04364,-0.04166,-0.01007,-0.01541,-0.02487,-0.00778,0.00198,-0.01236,-0.01907,-0.07584,0.00687,-0.0528,-0.00229,0.0058,-0.04105
5.101,-0.00198,-0.04852,-0.04623,-0.01083,-0.00641,-0.01358,-0.00702,0.00214,-0.01434,-0.01663,-0.06958,0.00626,-0.04486,-0.00168,-0.00305,-0.06256
5.1015,-0.00244,-0.05325,-0.05005,-0.01175,-0.01068,-0.01144,-0.00793,0.00198,-0.01373,-0.01587,-0.05005,0.00702,-0.03738,-0.00092,0.00214,-0.07233
5.102,-0.00336,-0.05798,-0.05585,-0.01053,-0.03265,-0.01404,-0.009,0.00092,-0.01389,-0.01663,-0.03738,0.00748,-0.02747,-0.00443,0.02457,-0.05875
5.1025,-0.0029,-0.06134,-0.05997,-0.00885,-0.06073,-0.02121,-0.00931,-0.00076,-0.01495,-0.01984,-0.03723,0.00397,-0.01968,-0.00977,0.04593,-0.02838
5.103,0.00015,-0.06332,-0.06058,-0.00717,-0.07675,-0.03235,-0.01038,-0.00092,-0.01633,-0.02121,-0.04166,-0.00366,-0.01694,-0.01373,0.04395,0.00076
5.1035,0.00351,-0.06287,-0.05753,-0.00717,-0.06699,-0.04318,-0.01328,-0.00092,-0.01694,-0.0209,-0.04318,-0.01022,-0.01694,-0.01511,0.01938,0.0148
5.104,0.0058,-0.06088,-0.05478,-0.00763,-0.03983,-0.04684,-0.01587,-0.00046,-0.01755,-0.02075,-0.04318,-0.01114,-0.01907,-0.01968,-0.00809,0.00916
5.1045,0.00778,-0.05508,-0.0531,-0.00839,-0.0206,-0.04471,-0.0174,0.0,-0.01938,-0.02106,-0.04654,-0.0058,-0.01892,-0.02899,-0.02304,-0.00702
5.105,0.00687,-0.04684,-0.05432,-0.00946,-0.02533,-0.04303,-0.01678,-0.00092,-0.02228,-0.02258,-0.05157,-0.00031,-0.01999,-0.03876,-0.02411,-0.02289
5.1055,0.00397,-0.04242,-0.0531,-0.00946,-0.04349,-0.04654,-0.01465,-0.00183,-0.0238,-0.0264,-0.05157,-0.00168,-0.02121,-0.03891,-0.01816,-0.0325
5.106,0.00031,-0.04272,-0.04669,-0.00916,-0.05127,-0.05417,-0.01434,-0.00427,-0.02243,-0.02975,-0.04684,-0.009,-0.02106,-0.02716,-0.0058,-0.0351
5.1065,-0.00198,-0.04486,-0.0383,-0.00992,-0.04486,-0.05951,-0.01465,-0.00565,-0.01923,-0.03067,-0.03738,-0.01511,-0.0206,-0.01724,0.01068,-0.0354
5.107,-0.00336,-0.04547,-0.03464,-0.01129,-0.0351,-0.06027,-0.01343,-0.00504,-0.01663,-0.02701,-0.0238,-0.01648,-0.02457,-0.01511,0.02853,-0.03418
5.1075,-0.00412,-0.04684,-0.03433,-0.0116,-0.03052,-0.05722,-0.00839,-0.0032,-0.01602,-0.01984,-0.00839,-0.01511,-0.03372,-0.01801,0.0412,-0.03571
5.108,-0.00412,-0.04959,-0.03311,-0.01068,-0.03021,-0.05188,-0.00412,-0.00168,-0.01389,-0.0148,0.00351,-0.01389,-0.04135,-0.01999,0.0412,-0.04013
5.1085,-0.0029,-0.05173,-0.03128,-0.009,-0.03128,-0.04578,-0.00183,-0.00137,-0.01038,-0.01556,0.00626,-0.01389,-0.04074,-0.02167,0.02899,-0.04395
5.109,0.0,-0.05096,-0.02945,-0.00793,-0.03342,-0.04257,-0.00061,-0.0032,-0.00748,-0.01755,0.00153,-0.01251,-0.0325,-0.02274,0.01297,-0.0441
5.1095,0.00305,-0.04501,-0.02899,-0.00763,-0.0354,-0.04242,0.00198,-0.00458,-0.00732,-0.01968,-0.0058,-0.01083,-0.02609,-0.02228,0.00412,-0.0412
5.11,0.00381,-0.03494,-0.02914,-0.00626,-0.03464,-0.04608,0.00244,-0.00488,-0.00885,-0.01801,-0.01251,-0.009,-0.02686,-0.01923,0.00443,-0.03952
5.1105,0.00275,-0.02151,-0.02991,-0.00549,-0.03189,-0.0499,-0.00305,-0.00519,-0.00977,-0.01663,-0.01694,-0.00854,-0.03159,-0.01419,0.00687,-0.04166
5.111,-0.00031,-0.01114,-0.03036,-0.00641,-0.02853,-0.05219,-0.01114,-0.00412,-0.00992,-0.01816,-0.01724,-0.00931,-0.03265,-0.01099,0.00717,-0.04578
5.1115,-0.00137,-0.01144,-0.03143,-0.00931,-0.02701,-0.05142,-0.0148,-0.0029,-0.01053,-0.01862,-0.01465,-0.009,-0.03082,-0.01114,0.00778,-0.04745
5.112,-0.00229,-0.02289,-0.03235,-0.01205,-0.02625,-0.05051,-0.01373,-0.00198,-0.01175,-0.01877,-0.00549,-0.00946,-0.03036,-0.01266,0.01022,-0.04669
5.1125,-0.00183,-0.03815,-0.03403,-0.01266,-0.0264,-0.05096,-0.01053,-0.00229,-0.01251,-0.01923,0.00397,-0.00961,-0.0322,-0.01434,0.01251,-0.04517
5.113,0.0,-0.05081,-0.03815,-0.01099,-0.02594,-0.05264,-0.00916,-0.00336,-0.01266,-0.02045,0.00793,-0.00839,-0.03159,-0.0148,0.01251,-0.04105
5.1135,0.0029,-0.05966,-0.04181,-0.009,-0.02655,-0.05325,-0.01007,-0.00366,-0.01343,-0.0238,0.00443,-0.00671,-0.0235,-0.01419,0.01083,-0.03769
5.114,0.00488,-0.06516,-0.04395,-0.00763,-0.02762,-0.05356,-0.01144,-0.00229,-0.01587,-0.02487,-0.00183,-0.00595,-0.00885,-0.0145,0.00504,-0.03906
5.1145,0.00458,-0.06714,-0.04456,-0.00702,-0.02838,-0.05478,-0.01221,-0.00092,-0.01831,-0.02411,-0.0061,-0.00748,0.00412,-0.01862,-0.00397,-0.04486
5.115,0.00244,-0.06607,-0.04059,-0.00778,-0.02899,-0.05554,-0.01099,-0.00198,-0.01907,-0.02167,-0.009,-0.00854,0.00626,-0.02625,-0.01434,-0.047
5.1155,-0.00122,-0.06287,-0.03784,-0.00977,-0.02945,-0.05478,-0.00916,-0.00275,-0.01984,-0.02045,-0.01129,-0.00549,-0.00137,-0.03387,-0.02762,-0.04166
5.116,-0.00595,-0.05966,-0.03906,-0.0116,-0.03036,-0.05402,-0.00854,-0.00229,-0.02151,-0.01999,-0.01083,-0.00061,-0.01144,-0.0351,-0.03632,-0.03433
5.1165,-0.01205,-0.05753,-0.04547,-0.01129,-0.0322,-0.05173,-0.009,-0.00244,-0.0235,-0.01999,-0.00671,0.00183,-0.01495,-0.03143,-0.03845,-0.0293
5.117,-0.0177,-0.05569,-0.05524,-0.01022,-0.03281,-0.05081,-0.00854,-0.00351,-0.02213,-0.02014,-0.00198,0.00015,-0.01495,-0.02731,-0.03647,-0.02914
5.1175,-0.02274,-0.05569,-0.06195,-0.01068,-0.03204,-0.0499,-0.00885,-0.00366,-0.01877,-0.02075,-0.00015,-0.00229,-0.01495,-0.02502,-0.03555,-0.03204
5.118,-0.02518,-0.05707,-0.06134,-0.01251,-0.0296,-0.04791,-0.0087,-0.00381,-0.01541,-0.01877,-0.00153,-0.00214,-0.01709,-0.0238,-0.03708,-0.03723
5.1185,-0.02533,-0.05783,-0.0563,-0.01434,-0.02487,-0.04303,-0.009,-0.0032,-0.01343,-0.0148,-0.00366,0.00107,-0.02289,-0.02365,-0.03464,-0.04745
5.119,-0.02365,-0.05753,-0.05325,-0.01465,-0.01373,-0.03876,-0.00916,-0.00336,-0.01373,-0.01099,-0.00656,0.00153,-0.0351,-0.02472,-0.02014,-0.06165
5.1195,-0.02182,-0.05554,-0.05203,-0.01266,0.00076,-0.03647,-0.0087,-0.00473,-0.01434,-0.00656,-0.00778,-0.00107,-0.05402,-0.02731,0.0174,-0.07355
5.12,-0.02182,-0.05234,-0.04883,-0.01129,0.01114,-0.03464,-0.00732,-0.00595,-0.01434,-0.00259,-0.00687,-0.00275,-0.07278,-0.02945,0.06989,-0.08148
5.1205,-0.02304,-0.047,-0.04288,-0.01053,0.01205,-0.0322,-0.00671,-0.00748,-0.01419,0.00107,-0.0058,-0.00061,-0.08057,-0.02945,0.1033,-0.08453
5.121,-0.02335,-0.04135,-0.03754,-0.01083,0.00931,-0.0267,-0.0061,-0.00824,-0.01404,0.00259,-0.00458,0.00473,-0.0766,-0.02701,0.08514,-0.0856
5.1215,-0.02197,-0.03815,-0.03708,-0.01099,0.00778,-0.02213,-0.00702,-0.00763,-0.01312,0.00046,-0.00412,0.00717,-0.06348,-0.02594,0.03494,-0.08591
5.122,-0.01755,-0.03693,-0.03906,-0.01114,0.01236,-0.02136,-0.00824,-0.00626,-0.00992,-0.00275,-0.00427,0.00275,-0.04883,-0.02609,0.0,-0.0853
5.1225,-0.01312,-0.03571,-0.03952,-0.01053,0.01999,-0.02411,-0.00809,-0.00458,-0.00748,-0.00641,-0.00381,-0.0029,-0.03784,-0.02808,-0.00366,-0.08118
5.123,-0.00946,-0.03311,-0.03281,-0.01068,0.01999,-0.02869,-0.00687,-0.00443,-0.00641,-0.00977,-0.0032,-0.0029,-0.03494,-0.03128,0.00061,-0.06989
5.1235,-0.00763,-0.03036,-0.02289,-0.01114,0.00168,-0.03036,-0.00702,-0.00504,-0.00717,-0.01266,-0.00107,0.00412,-0.03967,-0.03113,0.00183,-0.05615
5.124,-0.00656,-0.03082,-0.01678,-0.00977,-0.03632,-0.02975,-0.00717,-0.00595,-0.00854,-0.01205,0.00046,0.01236,-0.04395,-0.02655,0.0058,-0.04883
5.1245,-0.00641,-0.03189,-0.01755,-0.00824,-0.08011,-0.02762,-0.00656,-0.00687,-0.00824,-0.00854,0.00122,0.01419,-0.04135,-0.01892,0.01694,-0.04715
5.125,-0.00656,-0.02762,-0.02258,-0.0058,-0.10376,-0.02487,-0.00565,-0.00763,-0.00702,-0.00244,0.00046,0.00916,-0.0354,-0.01389,0.02609,-0.0322
5.1255,-0.00565,-0.01785,-0.02701,-0.00519,-0.09796,-0.0238,-0.00549,-0.00656,-0.00702,-0.00137,0.0,0.00351,-0.03021,-0.01602,0.02823,0.00381
5.126,-0.00656,-0.00854,-0.02975,-0.00488,-0.07599,-0.02853,-0.00565,-0.00656,-0.0087,-0.00565,-0.00061,0.00214,-0.03052,-0.01862,0.03021,0.03983
5.1265,-0.00809,-0.00626,-0.03387,-0.00458,-0.0592,-0.04486,-0.00641,-0.00595,-0.01068,-0.01358,0.00153,0.00565,-0.03494,-0.01419,0.03571,0.04135
5.127,-0.00961,-0.01175,-0.04761,-0.00458,-0.05783,-0.07568,-0.0061,-0.00534,-0.01312,-0.02045,0.00473,0.00992,-0.03937,-0.0061,0.03418,0.00626
5.1275,-0.00992,-0.02213,-0.0769,-0.00458,-0.06332,-0.10391,-0.0061,-0.00473,-0.0145,-0.02457,0.00656,0.00931,-0.0386,-0.00412,0.01755,-0.02975
5.128,-0.01022,-0.0351,-0.11292,-0.00366,-0.06622,-0.11002,-0.00778,-0.00458,-0.01678,-0.03006,0.00351,0.00565,-0.02808,-0.00992,-0.00366,-0.04303
5.1285,-0.00977,-0.04944,-0.12848,-0.00473,-0.06348,-0.09277,-0.00977,-0.00504,-0.01892,-0.03632,-0.00122,0.00259,-0.01419,-0.01511,-0.00946,-0.04272
5.129,-0.00946,-0.0592,-0.10803,-0.00626,-0.05417,-0.07553,-0.01144,-0.00504,-0.02136,-0.04181,-0.00717,0.00153,-0.01083,-0.01221,0.00626,-0.04501
5.1295,-0.00885,-0.06088,-0.05844,-0.00763,-0.04181,-0.07751,-0.0116,-0.00443,-0.02441,-0.04456,-0.01175,0.00092,-0.0238,-0.00137,0.04593,-0.05157
5.13,-0.00839,-0.0618,-0.00885,-0.009,-0.03128,-0.09857,-0.0116,-0.00305,-0.02808,-0.04318,-0.01511,0.00137,-0.04318,0.01022,0.10071,-0.05341
5.1305,-0.00763,-0.0705,0.02258,-0.01053,-0.0264,-0.12207,-0.01358,-0.00305,-0.03494,-0.03845,-0.01694,0.00198,-0.056,0.01633,0.14145,-0.05173
5.131,-0.00748,-0.07782,0.03433,-0.01328,-0.02808,-0.13062,-0.0174,-0.00336,-0.04349,-0.03464,-0.02167,0.00122,-0.05661,0.01495,0.12909,-0.05051
5.1315,-0.00717,-0.06378,0.03601,-0.01633,-0.03265,-0.11841,-0.0209,-0.00244,-0.04959,-0.03128,-0.03098,-0.00122,-0.05066,0.00778,0.06317,-0.04578
5.132,-0.00687,-0.02884,0.03433,-0.01801,-0.0351,-0.09277,-0.02396,-0.00076,-0.0502,-0.0293,-0.0412,-0.00412,-0.04608,-0.00229,-0.00107,-0.03677
5.1325,-0.00839,-0.00351,0.03098,-0.01816,-0.03418,-0.06912,-0.02533,-0.00122,-0.04456,-0.0264,-0.04654,-0.00702,-0.04517,-0.00946,-0.0296,-0.02701
5.133,-0.01205,-0.01602,0.02502,-0.01709,-0.03403,-0.05661,-0.02487,-0.00534,-0.03479,-0.02502,-0.0473,-0.00778,-0.04578,-0.01404,-0.03494,-0.02518
5.1335,-0.01511,-0.05173,0.01343,-0.01602,-0.03632,-0.05386,-0.0264,-0.01389,-0.02472,-0.02533,-0.04745,-0.0061,-0.04303,-0.01556,-0.04623,-0.02655
5.134,-0.01465,-0.08255,-0.00229,-0.01633,-0.03784,-0.05295,-0.03403,-0.02365,-0.01648,-0.02823,-0.05096,-0.00214,-0.03647,-0.01633,-0.06302,-0.02335
5.1345,-0.00992,-0.09262,-0.01953,-0.0177,-0.03571,-0.04929,-0.04715,-0.03098,-0.01099,-0.03342,-0.05219,0.00198,-0.0293,-0.0177,-0.0589,-0.01785
5.135,-0.00427,-0.08987,-0.03311,-0.01892,-0.03143,-0.0444,-0.05539,-0.03586,-0.00824,-0.03738,-0.04471,0.00427,-0.0267,-0.01968,-0.02441,-0.02029
5.1355,-0.00076,-0.08255,-0.04272,-0.01999,-0.03036,-0.04105,-0.05005,-0.0386,-0.00793,-0.03647,-0.02762,0.00092,-0.02869,-0.02213,0.0148,-0.03372
5.136,0.00076,-0.07095,-0.04837,-0.01953,-0.03128,-0.0412,-0.03464,-0.03632,-0.00854,-0.03189,-0.00443,-0.00595,-0.03143,-0.02472,0.02777,-0.04974
5.1365,0.00076,-0.05356,-0.05066,-0.01678,-0.03189,-0.04166,-0.02045,-0.02716,-0.00717,-0.02426,0.01892,-0.01114,-0.03143,-0.02441,0.01099,-0.05875
5.137,0.00031,-0.03769,-0.0502,-0.01312,-0.03143,-0.04257,-0.00732,-0.01297,-0.00534,-0.01816,0.03845,-0.01099,-0.03143,-0.02258,-0.00793,-0.05585
5.1375,-0.00092,-0.0293,-0.04929,-0.00977,-0.03159,-0.0412,0.0174,0.00275,-0.00412,-0.01389,0.05539,-0.00519,-0.02899,-0.02335,-0.00824,-0.04852
5.138,-0.00137,-0.0264,-0.04852,-0.00671,-0.03281,-0.03983,0.04364,0.01862,-0.00458,-0.01053,0.06897,0.00092,-0.02304,-0.02609,0.00214,-0.0441
5.1385,-0.00046,-0.02411,-0.04959,-0.0061,-0.03433,-0.0383,0.04684,0.02975,-0.00656,-0.00595,0.07309,0.00534,-0.0174,-0.03006,0.01038,-0.04852
5.139,0.00031,-0.0209,-0.05005,-0.0061,-0.03525,-0.03769,0.02777,0.0293,-0.00885,-0.00473,0.0621,0.0058,-0.0174,-0.03433,0.01572,-0.0589
5.1395,0.0,-0.01877,-0.04852,-0.0061,-0.03616,-0.03738,0.00778,0.01846,-0.01007,-0.00626,0.0383,0.00504,-0.02075,-0.03754,0.02121,-0.06317
5.14,-0.00015,-0.01923,-0.04562,-0.00565,-0.03555,-0.03708,-0.00259,0.00458,-0.01038,-0.00824,0.00687,0.00244,-0.0238,-0.03876,0.01251,-0.05386
5.1405,0.00031,-0.01923,-0.04257,-0.00687,-0.0351,-0.03799,-0.0087,-0.00351,-0.01038,-0.00946,-0.02319,-0.00168,-0.02518,-0.0386,-0.0177,-0.03693
5.141,0.00092,-0.01953,-0.03967,-0.00702,-0.03204,-0.03967,-0.01251,-0.00412,-0.00961,-0.00717,-0.04929,-0.00336,-0.02289,-0.03754,-0.04852,-0.02914
5.1415,0.00061,-0.02075,-0.03723,-0.00626,-0.02686,-0.03952,-0.00854,0.00168,-0.00992,-0.00351,-0.06989,0.00076,-0.01694,-0.03693,-0.04715,-0.0386
5.142,-0.00046,-0.02441,-0.03586,-0.00412,-0.01953,-0.03952,0.00183,0.01328,-0.01099,-0.00305,-0.08362,0.00824,-0.00961,-0.03586,-0.01358,-0.0499
5.1425,-0.00244,-0.0293,-0.03571,-0.00381,-0.00916,-0.03876,0.01114,0.02426,-0.0116,-0.00443,-0.0914,0.01053,-0.00763,-0.03204,0.02396,-0.04654
5.143,-0.00381,-0.02975,-0.03494,-0.00549,0.00336,-0.03769,0.00519,0.02991,-0.01099,-0.00702,-0.09369,0.00687,-0.01038,-0.02487,0.04135,-0.03326
5.1435,-0.00366,-0.02655,-0.03418,-0.0087,0.01312,-0.03647,-0.01602,0.02838,-0.01053,-0.00748,-0.0943,0.00336,-0.01343,-0.01755,0.02777,-0.02487
5.144,-0.0029,-0.0235,-0.03357,-0.01083,0.01526,-0.03525,-0.03647,0.02243,-0.0116,-0.00641,-0.09521,0.00412,-0.01434,-0.01038,-0.00336,-0.02518
5.1445,-0.00259,-0.02441,-0.03342,-0.01053,0.00992,-0.03418,-0.03708,0.01587,-0.0119,-0.00687,-0.0946,0.00626,-0.01495,0.00031,-0.01526,-0.03006
5.145,-0.00305,-0.02747,-0.03204,-0.00824,-0.00061,-0.03174,-0.02213,0.01083,-0.01144,-0.00916,-0.08835,0.00397,-0.01755,0.01801,0.02029,-0.03799
5.1455,-0.00244,-0.03006,-0.03036,-0.00702,-0.01938,-0.03113,-0.01083,0.00519,-0.01205,-0.01236,-0.07813,-0.00412,-0.02167,0.03571,0.07797,-0.05157
5.146,-0.00275,-0.03067,-0.03067,-0.00824,-0.04745,-0.0325,-0.01892,-0.00351,-0.01282,-0.01709,-0.06622,-0.01221,-0.02609,0.04364,0.10498,-0.06271
5.1465,-0.00366,-0.03296,-0.03113,-0.00916,-0.07126,-0.03632,-0.04379,-0.02075,-0.01389,-0.01877,-0.05371,-0.0145,-0.03128,0.04089,0.0827,-0.06058
5.147,-0.00427,-0.03693,-0.03159,-0.01114,-0.07523,-0.03922,-0.06149,-0.04395,-0.0145,-0.02045,-0.04059,-0.01068,-0.03922,0.03128,0.04532,-0.04501
5.1475,-0.00458,-0.03998,-0.03174,-0.01221,-0.05951,-0.04074,-0.05264,-0.06912,-0.0145,-0.02197,-0.02441,-0.00504,-0.05035,0.01083,0.02579,-0.02762
5.148,-0.00488,-0.03922,-0.03281,-0.01419,-0.03799,-0.04135,-0.03448,-0.08713,-0.01419,-0.02289,-0.00717,0.00046,-0.06027,-0.03616,0.02167,-0.02121
5.1485,-0.00595,-0.0386,-0.03326,-0.01434,-0.01923,-0.04044,-0.03983,-0.08789,-0.01495,-0.02243,0.00992,0.00458,-0.06561,-0.0975,0.01251,-0.02609
5.149,-0.00732,-0.04135,-0.03296,-0.01358,-0.00687,-0.03815,-0.06592,-0.06744,-0.01678,-0.02243,0.02945,0.00824,-0.06195,-0.1297,-0.0032,-0.03433
5.1495,-0.00748,-0.04349,-0.03387,-0.01221,0.00092,-0.03494,-0.07462,-0.03204,-0.01907,-0.02426,0.05142,0.01129,-0.0528,-0.10712,-0.00885,-0.04044
5.15,-0.00565,-0.04425,-0.03418,-0.01144,0.00183,-0.03143,-0.04349,0.00641,-0.01801,-0.02548,0.06622,0.01251,-0.04608,-0.05905,-0.00443,-0.04471
5.1505,-0.00488,-0.04471,-0.0351,-0.01099,-0.00305,-0.02945,0.00702,0.03372,-0.01495,-0.02594,0.06073,0.00916,-0.0473,-0.03036,-0.00412,-0.04807
5.151,-0.00549,-0.04486,-0.03494,-0.01175,-0.00717,-0.03128,0.04089,0.0386,-0.01373,-0.02594,0.03906,0.00168,-0.05112,-0.02762,-0.01251,-0.05081
5.1515,-0.00656,-0.04349,-0.03464,-0.01266,-0.01343,-0.03387,0.04913,0.03342,-0.01587,-0.02777,0.01648,-0.00549,-0.0502,-0.03036,-0.01694,-0.05219
5.152,-0.00717,-0.04211,-0.03433,-0.01343,-0.02304,-0.03876,0.05341,0.04913,-0.01755,-0.03174,0.00259,-0.00702,-0.04303,-0.02411,-0.00687,-0.05707
5.1525,-0.00626,-0.04303,-0.03479,-0.01358,-0.03525,-0.04608,0.05508,0.08942,-0.01801,-0.03403,-0.00458,-0.00168,-0.03372,-0.01419,0.00641,-0.06485
5.153,-0.00473,-0.04639,-0.03555,-0.01266,-0.04913,-0.05539,0.03448,0.1059,-0.01678,-0.03326,-0.00824,0.00656,-0.02655,-0.00595,0.00275,-0.06912
5.1535,-0.00427,-0.04593,-0.03479,-0.01236,-0.06302,-0.06348,-0.00519,0.06393,-0.01678,-0.0322,-0.01495,0.01175,-0.02213,0.00031,-0.01785,-0.06897
5.154,-0.00473,-0.04028,-0.03479,-0.01236,-0.07553,-0.06729,-0.02884,-0.00687,-0.01785,-0.03036,-0.02396,0.01007,-0.01877,0.00259,-0.03937,-0.06699
5.1545,-0.00549,-0.03357,-0.03845,-0.01114,-0.08133,-0.06531,-0.02319,-0.05096,-0.01678,-0.02716,-0.03296,0.00458,-0.0145,0.00137,-0.0415,-0.06287
5.155,-0.00443,-0.03113,-0.05081,-0.00961,-0.08163,-0.05875,-0.01007,-0.05844,-0.01465,-0.02182,-0.03784,-0.0029,-0.01129,-0.00259,-0.01648,-0.05798
5.1555,-0.0032,-0.03387,-0.07751,-0.01053,-0.07538,-0.05066,-0.01007,-0.05905,-0.01266,-0.01709,-0.03937,-0.00824,-0.01343,-0.00931,0.01938,-0.05127
5.156,-0.00381,-0.03754,-0.10971,-0.0116,-0.06287,-0.04471,-0.01617,-0.05859,-0.01144,-0.01373,-0.04318,-0.01236,-0.01892,-0.01694,0.03815,-0.04333
5.1565,-0.00336,-0.0412,-0.12115,-0.0116,-0.04929,-0.04196,-0.0177,-0.03723,-0.01114,-0.01389,-0.04639,-0.01328,-0.02167,-0.0209,0.02792,-0.03571
5.157,-0.00366,-0.04501,-0.09781,-0.01022,-0.04028,-0.04257,-0.01556,0.00214,-0.01114,-0.01434,-0.04547,-0.01236,-0.01862,-0.01923,0.00687,-0.02441
5.1575,-0.00381,-0.04761,-0.05325,-0.00961,-0.04166,-0.04501,-0.01419,0.02762,-0.01038,-0.01328,-0.03601,-0.00977,-0.01358,-0.01892,0.00046,-0.01068
5.158,-0.00488,-0.04898,-0.01068,-0.00961,-0.04776,-0.04486,-0.01572,0.02029,-0.01022,-0.01007,-0.02075,-0.00595,-0.01144,-0.03159,0.01617,-0.00534
5.1585,-0.00687,-0.04837,0.01755,-0.00992,-0.05173,-0.04196,-0.01678,-0.00519,-0.01266,-0.00687,-0.00473,-0.00366,-0.01511,-0.05814,0.04837,-0.01785
5.159,-0.00916,-0.0502,0.03723,-0.00885,-0.04929,-0.03845,-0.01923,-0.02182,-0.0148,-0.00626,0.009,-0.00336,-0.02411,-0.07523,0.0824,-0.04196
5.1595,-0.01007,-0.056,0.05112,-0.00595,-0.0412,-0.03891,-0.02304,-0.01755,-0.01495,-0.00885,0.02045,-0.00122,-0.03326,-0.05951,0.09125,-0.06363
5.16,-0.00977,-0.06439,0.05783,-0.00412,-0.03235,-0.0415,-0.02563,0.00259,-0.01251,-0.01251,0.03159,0.00214,-0.04211,-0.02213,0.05249,-0.07202
5.1605,-0.00992,-0.06912,0.05219,-0.00412,-0.0209,-0.04303,-0.02487,0.03204,-0.01053,-0.01266,0.05173,0.00488,-0.04959,0.00916,-0.01038,-0.06348
5.161,-0.01038,-0.06805,0.04089,-0.00763,-0.0087,-0.04395,-0.02121,0.05798,-0.01099,-0.01083,0.07706,0.00427,-0.05615,0.02365,-0.05142,-0.05096
5.1615,-0.01114,-0.06348,0.02899,-0.00977,0.0032,-0.04532,-0.02182,0.06622,-0.01389,-0.00854,0.08957,0.00031,-0.06134,0.0296,-0.04761,-0.05112
5.162,-0.01358,-0.05814,0.01709,-0.01007,0.00931,-0.04745,-0.02747,0.05157,-0.01724,-0.00427,0.07233,-0.00473,-0.06653,0.02884,-0.02045,-0.06271
5.1625,-0.01678,-0.05325,0.00198,-0.01068,0.00961,-0.04974,-0.03235,0.02716,-0.01999,-0.00107,0.03632,-0.00595,-0.06821,0.02182,0.00092,-0.06531
5.163,-0.01831,-0.05188,-0.01678,-0.01297,0.00778,-0.04974,-0.03174,0.01099,-0.02274,0.00015,0.00732,-0.00183,-0.0676,0.01495,0.00793,-0.04868
5.1635,-0.01602,-0.05417,-0.04105,-0.01572,0.00412,-0.04791,-0.02899,0.00565,-0.02457,-0.00061,-0.00366,0.00351,-0.0647,0.00961,0.00931,-0.02441
5.164,-0.01099,-0.05783,-0.08148,-0.01816,-0.0029,-0.04639,-0.02884,0.00427,-0.02563,-0.00061,-0.00534,0.00763,-0.05951,-0.00275,0.01434,-0.0087
5.1645,-0.00412,-0.05783,-0.14328,-0.01907,-0.01907,-0.04608,-0.02991,0.00076,-0.02502,0.0,-0.00854,0.009,-0.05035,-0.02502,0.02548,-0.0058
5.165,0.00076,-0.05447,-0.19577,-0.01755,-0.04532,-0.0473,-0.03082,-0.00092,-0.02579,-0.00397,-0.0209,0.00809,-0.0415,-0.04379,0.03632,-0.01175
5.1655,0.00427,-0.05127,-0.19455,-0.01541,-0.07172,-0.04761,-0.03082,-0.00092,-0.0264,-0.01297,-0.04425,0.00595,-0.03632,-0.04776,0.0351,-0.02151
5.166,0.00534,-0.04944,-0.13474,-0.01343,-0.0798,-0.04532,-0.02975,0.00015,-0.02731,-0.02182,-0.07584,0.00275,-0.03616,-0.04242,0.02243,-0.03189
5.1665,0.00641,-0.04761,-0.05981,-0.01297,-0.06256,-0.04227,-0.02838,0.00015,-0.02838,-0.02823,-0.10544,0.0,-0.03693,-0.03922,0.00656,-0.03616
5.167,0.00656,-0.04395,-0.01328,-0.01434,-0.03647,-0.04059,-0.02716,-0.00031,-0.0293,-0.03006,-0.12115,-0.00244,-0.03571,-0.03967,0.0,-0.03647
5.1675,0.00687,-0.04013,0.0029,-0.01617,-0.01999,-0.04242,-0.02716,-0.00046,-0.02869,-0.0293,-0.12009,-0.00427,-0.03372,-0.03891,0.00137,-0.0354
5.168,0.00778,-0.0354,0.00549,-0.01755,-0.01923,-0.0444,-0.02823,-0.00153,-0.02533,-0.02823,-0.10941,-0.00626,-0.03067,-0.03403,0.0032,-0.03555
5.1685,0.00839,-0.03326,0.00534,-0.01587,-0.02701,-0.04547,-0.02853,-0.00381,-0.01862,-0.02991,-0.09537,-0.00717,-0.02655,-0.02747,0.00107,-0.03601
5.169,0.00763,-0.0325,0.00351,-0.01389,-0.03754,-0.04807,-0.02838,-0.00931,-0.01251,-0.03098,-0.07767,-0.009,-0.02151,-0.02258,-0.00122,-0.03769
5.1695,0.00626,-0.03296,0.00137,-0.01175,-0.04944,-0.04959,-0.02762,-0.01465,-0.00717,-0.03052,-0.05295,-0.01022,-0.0177,-0.01892,-0.0032,-0.04059
5.17,0.00381,-0.03189,-0.00015,-0.00977,-0.0618,-0.04852,-0.02686,-0.01694,-0.00488,-0.02869,-0.03006,-0.01129,-0.01663,-0.01633,-0.00381,-0.04272
5.1705,0.00244,-0.02869,-0.00015,-0.00977,-0.07065,-0.04761,-0.02502,-0.01587,-0.00381,-0.02518,-0.01358,-0.01114,-0.01709,-0.01404,-0.00336,-0.04532
5.171,0.00214,-0.02609,0.00061,-0.01129,-0.07507,-0.04593,-0.02335,-0.01434,-0.00366,-0.02121,-0.00427,-0.01328,-0.01831,-0.01129,0.00336,-0.04608
5.1715,0.00397,-0.02502,0.00031,-0.01282,-0.06897,-0.0441,-0.02228,-0.01404,-0.00412,-0.01938,0.00092,-0.01343,-0.02106,-0.01083,0.01389,-0.04654
5.172,0.00458,-0.02594,-0.00015,-0.0116,-0.05219,-0.04257,-0.02197,-0.01495,-0.00366,-0.0209,0.00412,-0.00931,-0.02548,-0.01297,0.01999,-0.04807
5.1725,0.00473,-0.0296,-0.00244,-0.00992,-0.03021,-0.04272,-0.02243,-0.01663,-0.00183,-0.02518,0.00336,-0.00305,-0.03021,-0.01785,0.01297,-0.047
5.173,0.00458,-0.03357,-0.00885,-0.00671,-0.01282,-0.04532,-0.02228,-0.01785,0.00137,-0.02548,-0.00076,0.00305,-0.03174,-0.02136,0.00015,-0.0441
5.1735,0.00443,-0.03525,-0.01923,-0.00153,-0.00214,-0.04837,-0.02304,-0.02075,0.00519,-0.02365,-0.00366,0.00443,-0.02899,-0.02121,-0.00854,-0.04227
5.174,0.00565,-0.03616,-0.03174,0.01068,0.0029,-0.05127,-0.02533,-0.0235,0.00916,-0.02167,-0.00427,0.00366,-0.02655,-0.01953,-0.00992,-0.04288
5.1745,0.00824,-0.03769,-0.04196,0.03265,0.00336,-0.05157,-0.02518,-0.02411,0.0116,-0.02136,-0.00183,0.0032,-0.02594,-0.01938,-0.0061,-0.0444
5.175,0.01175,-0.04028,-0.04791,0.05692,-0.00214,-0.05035,-0.02365,-0.02075,0.01175,-0.02304,0.00244,0.00397,-0.02823,-0.01923,-0.00122,-0.04257
5.1755,0.01236,-0.04288,-0.04974,0.07034,-0.01556,-0.04623,-0.02197,-0.01648,0.0087,-0.02274,0.00763,0.00519,-0.03113,-0.0177,0.00244,-0.03937
5.176,0.01129,-0.04395,-0.04761,0.06699,-0.03235,-0.04089,-0.02167,-0.01343,0.00351,-0.01953,0.00977,0.00427,-0.03189,-0.01526,0.00275,-0.04181
5.1765,0.009,-0.04395,-0.04349,0.05569,-0.04333,-0.0383,-0.02258,-0.01236,-0.00198,-0.00809,0.0087,-0.00061,-0.02777,-0.0148,-0.00137,-0.05325
5.177,0.00641,-0.04425,-0.0415,0.04654,-0.04501,-0.03799,-0.02243,-0.01251,-0.0058,0.00443,0.0061,-0.00519,-0.0177,-0.0145,-0.00809,-0.06851
5.1775,0.00519,-0.04395,-0.03983,0.03952,-0.04166,-0.03693,-0.02029,-0.01266,-0.01007,0.00931,0.0058,-0.00565,-0.00732,-0.01389,-0.01633,-0.07095
5.178,0.00519,-0.047,-0.03845,0.02777,-0.03494,-0.03662,-0.01907,-0.01297,-0.01694,-0.00092,0.0058,-0.00229,-0.00671,-0.01282,-0.02014,-0.05066
5.1785,0.00458,-0.05203,-0.03555,0.01175,-0.0235,-0.03723,-0.01862,-0.01297,-0.02609,-0.02014,0.00443,0.00015,-0.0177,-0.01465,-0.01846,-0.02213
5.179,0.0032,-0.05905,-0.03357,-0.00641,-0.00931,-0.03723,-0.01862,-0.01251,-0.03448,-0.03708,0.00351,0.0,-0.03067,-0.01831,-0.01266,-0.00946
5.1795,0.00061,-0.06241,-0.03311,-0.02869,0.00336,-0.03296,-0.01816,-0.0119,-0.04089,-0.0441,0.00473,0.00107,-0.03693,-0.02014,-0.00793,-0.01862
5.18,-0.00229,-0.05905,-0.03403,-0.06088,0.009,-0.02655,-0.01846,-0.01038,-0.04562,-0.04303,0.01068,0.00824,-0.03418,-0.01816,-0.00687,-0.03479
5.1805,-0.00626,-0.05219,-0.03464,-0.10239,0.00565,-0.0235,-0.01892,-0.00793,-0.04913,-0.0383,0.02487,0.01892,-0.02777,-0.01526,-0.0058,-0.04318
5.181,-0.01083,-0.04593,-0.03525,-0.13748,-0.00595,-0.02411,-0.01984,-0.00534,-0.05173,-0.03357,0.04578,0.02853,-0.02213,-0.01602,-0.00259,-0.0444
5.1815,-0.01358,-0.04013,-0.0386,-0.15503,-0.01984,-0.02548,-0.01892,-0.00473,-0.05188,-0.02914,0.05554,0.03174,-0.01968,-0.01938,0.00519,-0.04395
5.182,-0.01434,-0.03616,-0.04288,-0.15884,-0.0296,-0.02487,-0.01801,-0.00595,-0.05203,-0.02808,0.03815,0.02701,-0.0209,-0.0235,0.01526,-0.04333
5.1825,-0.01434,-0.03403,-0.04761,-0.15015,-0.03357,-0.02396,-0.01846,-0.00641,-0.05035,-0.03036,0.00137,0.01724,-0.02563,-0.02655,0.02335,-0.04242
5.183,-0.01404,-0.0325,-0.05081,-0.12527,-0.03632,-0.02762,-0.01907,-0.00732,-0.04669,-0.03128,-0.03113,0.00549,-0.03036,-0.02686,0.01831,-0.0412
5.1835,-0.01541,-0.03265,-0.04745,-0.08331,-0.04532,-0.0386,-0.01892,-0.00732,-0.04166,-0.02945,-0.04471,-0.00595,-0.0322,-0.02625,-0.00275,-0.04074
5.184,-0.01587,-0.03342,-0.04303,-0.04379,-0.06119,-0.05905,-0.01831,-0.0061,-0.03586,-0.02487,-0.04364,-0.0148,-0.02655,-0.02655,-0.02487,-0.04028
5.1845,-0.01633,-0.03311,-0.04074,-0.02991,-0.07385,-0.08652,-0.0177,-0.00534,-0.02991,-0.02335,-0.0386,-0.02014,-0.01694,-0.02823,-0.03265,-0.04074
5.185,-0.01755,-0.0322,-0.04318,-0.03922,-0.07553,-0.11536,-0.01709,-0.00504,-0.02411,-0.02335,-0.03632,-0.0238,-0.01114,-0.03082,-0.03143,-0.04089
5.1855,-0.02075,-0.03143,-0.047,-0.04379,-0.06699,-0.14252,-0.01663,-0.00473,-0.01801,-0.02396,-0.03448,-0.02686,-0.01602,-0.0325,-0.02945,-0.0386
5.186,-0.02167,-0.03326,-0.0499,-0.02487,-0.0563,-0.15778,-0.01633,-0.00534,-0.01114,-0.02228,-0.03204,-0.02808,-0.02991,-0.0325,-0.02045,-0.03647
5.1865,-0.01984,-0.03601,-0.05325,0.00671,-0.04852,-0.1474,-0.01617,-0.00626,-0.0058,-0.02106,-0.02899,-0.02625,-0.04379,-0.02853,0.00107,-0.03616
5.187,-0.01694,-0.03952,-0.05615,0.02579,-0.03983,-0.1088,-0.01648,-0.00687,-0.00259,-0.02014,-0.02808,-0.02319,-0.05356,-0.01984,0.01541,-0.03784
5.1875,-0.01465,-0.04196,-0.05844,0.02197,-0.03128,-0.06409,-0.01694,-0.00549,-0.00183,-0.01907,-0.03067,-0.02045,-0.0589,-0.0087,0.00656,-0.03967
5.188,-0.01297,-0.04532,-0.05661,0.00565,-0.02609,-0.04013,-0.01694,-0.00351,-0.00275,-0.01678,-0.03311,-0.01831,-0.06287,0.00153,-0.01129,-0.03952
5.1885,-0.0116,-0.047,-0.05188,-0.00916,-0.02594,-0.04105,-0.01572,-0.00229,-0.00473,-0.01617,-0.03296,-0.0174,-0.06912,0.00687,-0.00763,-0.03906
5.189,-0.00854,-0.04593,-0.04654,-0.01419,-0.02899,-0.05234,-0.0145,-0.0029,-0.00549,-0.01816,-0.03067,-0.01556,-0.07858,0.00717,0.02975,-0.03738
5.1895,-0.00504,-0.04272,-0.04181,-0.00458,-0.0325,-0.06088,-0.01297,-0.00412,-0.00549,-0.01984,-0.02609,-0.01221,-0.08194,0.00443,0.08133,-0.03448
5.19,-0.00137,-0.04028,-0.03845,0.01465,-0.03342,-0.06165,-0.01221,-0.00427,-0.00427,-0.02121,-0.0206,-0.00595,-0.07019,0.0032,0.10513,-0.03662
5.1905,0.00015,-0.04044,-0.03586,0.03204,-0.0322,-0.056,-0.01312,-0.00351,-0.00305,-0.02167,-0.01251,0.00168,-0.05005,-0.00076,0.07675,-0.04807
5.191,0.00031,-0.04196,-0.03677,0.03723,-0.03235,-0.04822,-0.01266,-0.00336,-0.00305,-0.02075,-0.00366,0.00854,-0.03296,-0.01114,0.0235,-0.06149
5.1915,0.00031,-0.04333,-0.03662,0.03036,-0.03174,-0.0412,-0.0119,-0.00259,-0.00458,-0.02075,0.00076,0.01312,-0.02747,-0.02838,-0.00504,-0.06485
5.192,0.00031,-0.04395,-0.03525,0.01801,-0.03067,-0.03845,-0.0116,-0.00183,-0.00671,-0.02121,-0.00214,0.01511,-0.03036,-0.04547,0.00153,-0.05692
5.1925,0.00092,-0.04257,-0.03174,0.00732,-0.03326,-0.03754,-0.01114,-0.00107,-0.00748,-0.02045,-0.00732,0.01556,-0.0325,-0.04852,0.01221,-0.0502
5.193,0.00046,-0.03876,-0.02487,0.00168,-0.03601,-0.03448,-0.01007,-0.00137,-0.00641,-0.0174,-0.00916,0.01404,-0.02701,-0.0351,0.00824,-0.05585
5.1935,0.0,-0.03326,-0.01938,-0.00015,-0.0325,-0.03082,-0.00961,-0.00336,-0.00519,-0.01358,-0.00702,0.00931,-0.01495,-0.01526,0.00092,-0.07355
5.194,0.00168,-0.02853,-0.01694,0.00031,-0.02548,-0.02899,-0.0116,-0.00519,-0.00412,-0.01175,-0.00473,0.00153,-0.00412,-0.00336,0.01099,-0.08698
5.1945,0.00366,-0.02716,-0.01694,0.00061,-0.02121,-0.03189,-0.01495,-0.00549,-0.00412,-0.0116,-0.00549,-0.00366,-0.00397,-0.00259,0.0351,-0.08331
5.195,0.00534,-0.02853,-0.01816,0.00061,-0.02396,-0.03357,-0.01846,-0.00717,-0.00427,-0.01266,-0.00748,-0.00305,-0.01495,-0.009,0.04501,-0.05768
5.1955,0.00565,-0.0296,-0.01999,-0.00046,-0.0296,-0.03006,-0.01953,-0.01144,-0.00519,-0.01236,-0.00946,-0.00015,-0.0293,-0.01587,0.01862,-0.02441
5.196,0.0058,-0.03021,-0.02274,-0.00214,-0.03693,-0.02411,-0.0206,-0.01602,-0.0061,-0.01266,-0.00916,0.00214,-0.03784,-0.01953,-0.03052,0.00092
5.1965,0.00534,-0.03067,-0.02533,-0.0032,-0.04486,-0.02869,-0.02151,-0.01465,-0.00687,-0.01389,-0.00793,0.00504,-0.0383,-0.01938,-0.0621,0.0116
5.197,0.00305,-0.03311,-0.02945,-0.00366,-0.04807,-0.04196,-0.02258,-0.00946,-0.00778,-0.01511,-0.00931,0.01007,-0.03403,-0.01724,-0.05569,0.00916
5.1975,0.0,-0.03677,-0.03601,-0.00336,-0.04349,-0.04776,-0.02518,-0.00473,-0.00885,-0.01556,-0.01129,0.01358,-0.03296,-0.01785,-0.02899,-0.00092
5.198,-0.00244,-0.04044,-0.04456,-0.00244,-0.03601,-0.03357,-0.02487,-0.00504,-0.01053,-0.01541,-0.0119,0.01282,-0.03494,-0.02228,-0.00641,-0.01465
5.1985,-0.00504,-0.04227,-0.05142,-0.00092,-0.03235,-0.00885,-0.0209,-0.0087,-0.01343,-0.01465,-0.00977,0.00824,-0.0354,-0.02533,0.00397,-0.03326
5.199,-0.0061,-0.0444,-0.05341,0.00031,-0.03342,0.00198,-0.0145,-0.00916,-0.01587,-0.01358,-0.00717,0.0032,-0.03342,-0.02502,0.00214,-0.05829
5.1995,-0.00626,-0.04639,-0.04944,-0.00015,-0.03616,-0.0148,-0.01053,-0.00076,-0.01602,-0.01312,-0.00443,-0.00244,-0.03586,-0.02335,-0.00732,-0.08514
5.2,-0.00656,-0.04868,-0.0441,-0.00153,-0.0351,-0.05081,-0.00763,0.01373,-0.01526,-0.01251,-0.0029,-0.00626,-0.04272,-0.02258,-0.00671,-0.09781
5.2005,-0.00702,-0.04868,-0.04181,-0.00092,-0.0354,-0.0824,-0.00488,0.02396,-0.0148,-0.01205,-0.00366,-0.00671,-0.04837,-0.02319,0.01266,-0.08453
5.201,-0.00839,-0.04822,-0.04074,0.00015,-0.03525,-0.08972,0.00061,0.02029,-0.01434,-0.01389,-0.0061,-0.00504,-0.047,-0.0238,0.02869,-0.0589
5.2015,-0.00778,-0.04669,-0.04074,-0.00046,-0.03616,-0.07797,0.00916,0.00778,-0.01617,-0.01572,-0.00916,-0.00397,-0.04059,-0.02365,0.02716,-0.04593
5.202,-0.0061,-0.04593,-0.03998,-0.00305,-0.03769,-0.06638,0.01907,-0.00198,-0.01846,-0.01663,-0.0116,-0.00336,-0.0351,-0.02243,0.04105,-0.04593
5.2025,-0.00504,-0.047,-0.03967,-0.00641,-0.03662,-0.06592,0.02457,-0.00473,-0.02045,-0.01572,-0.01083,-0.00046,-0.03235,-0.02243,0.09766,-0.03983
5.203,-0.00702,-0.04684,-0.03906,-0.00931,-0.03021,-0.07202,0.01205,-0.00778,-0.02075,-0.01495,-0.009,0.00305,-0.03281,-0.02258,0.14923,-0.02121
5.2035,-0.01083,-0.04517,-0.03922,-0.01251,-0.01953,-0.07492,-0.01495,-0.01556,-0.01892,-0.01526,-0.00824,0.00549,-0.03586,-0.02365,0.12787,-0.00778
5.204,-0.01419,-0.04425,-0.03876,-0.01389,-0.00595,-0.06958,-0.03876,-0.0235,-0.01709,-0.01617,-0.00061,0.00534,-0.03815,-0.02487,0.04379,-0.01633
5.2045,-0.01602,-0.04333,-0.03525,-0.01266,0.00916,-0.06088,-0.04929,-0.02686,-0.01572,-0.01541,0.0235,0.00565,-0.03784,-0.02472,-0.02945,-0.03815
5.205,-0.01755,-0.04105,-0.03082,-0.01038,0.01999,-0.05371,-0.05661,-0.0264,-0.01694,-0.0145,0.06195,0.00641,-0.03891,-0.02502,-0.04395,-0.0502
5.2055,-0.01877,-0.03845,-0.02731,-0.00824,0.02136,-0.05081,-0.06699,-0.0235,-0.01862,-0.01511,0.08896,0.0058,-0.04639,-0.02548,-0.02197,-0.03616
5.206,-0.01877,-0.03784,-0.02686,-0.00748,0.01266,-0.05127,-0.06226,-0.01801,-0.01831,-0.01511,0.07751,0.00504,-0.056,-0.02518,-0.00519,-0.00732
5.2065,-0.01648,-0.03998,-0.02945,-0.00793,-0.00565,-0.05127,-0.0296,-0.0087,-0.01678,-0.01587,0.03265,0.00519,-0.05859,-0.02289,-0.00809,0.00656
5.207,-0.01129,-0.0415,-0.03296,-0.009,-0.03128,-0.0502,0.00839,0.00183,-0.01587,-0.01709,-0.01694,0.00427,-0.04913,-0.01968,-0.02304,-0.0061
5.2075,-0.00565,-0.04059,-0.03632,-0.0119,-0.06149,-0.04745,0.0238,0.01373,-0.01617,-0.01892,-0.04822,0.00244,-0.03204,-0.01678,-0.04135,-0.02274
5.208,0.00015,-0.0383,-0.03799,-0.01434,-0.08026,-0.04425,0.01511,0.02502,-0.01617,-0.01816,-0.06424,0.00229,-0.01831,-0.01648,-0.05295,-0.02792
5.2085,0.0029,-0.03784,-0.03723,-0.01373,-0.07568,-0.04105,0.00031,0.0325,-0.01587,-0.01755,-0.07629,0.00595,-0.0148,-0.01862,-0.04562,-0.03159
5.209,0.00351,-0.03677,-0.03296,-0.01099,-0.056,-0.0386,-0.01511,0.03159,-0.01617,-0.01801,-0.08759,0.01007,-0.01953,-0.02121,-0.0177,-0.04761
5.2095,0.00351,-0.03525,-0.02792,-0.00839,-0.04288,-0.03723,-0.03281,0.02518,-0.01587,-0.01877,-0.09476,0.00839,-0.02472,-0.02319,0.01099,-0.07004
5.21,0.00336,-0.0322,-0.02594,-0.00839,-0.04349,-0.03647,-0.04913,0.01556,-0.01526,-0.02014,-0.09369,0.00381,-0.02716,-0.02289,0.02075,-0.0885
5.2105,0.00244,-0.03006,-0.02548,-0.00916,-0.04669,-0.03662,-0.05478,0.0058,-0.01541,-0.02121,-0.08652,0.00076,-0.02823,-0.02136,0.01526,-0.10223
5.211,0.00122,-0.03021,-0.02701,-0.00824,-0.04211,-0.03601,-0.04486,-0.0029,-0.01556,-0.02106,-0.07736,0.00092,-0.02991,-0.02029,0.01526,-0.11505
5.2115,0.00076,-0.03235,-0.02899,-0.00595,-0.03448,-0.03708,-0.02563,-0.01221,-0.01572,-0.0209,-0.06866,0.00092,-0.03204,-0.0206,0.03952,-0.12054
5.212,0.00107,-0.03586,-0.03021,-0.00549,-0.02899,-0.03876,-0.01053,-0.02533,-0.01572,-0.01999,-0.06165,-0.0029,-0.03204,-0.02182,0.08194,-0.1033
5.2125,0.00198,-0.04028,-0.03143,-0.00671,-0.02777,-0.04074,-0.00534,-0.04471,-0.01511,-0.01907,-0.05554,-0.00916,-0.03159,-0.02289,0.10788,-0.0679
5.213,0.00259,-0.04257,-0.03159,-0.00824,-0.02838,-0.04196,-0.01114,-0.06546,-0.01419,-0.01724,-0.04944,-0.01358,-0.03021,-0.02151,0.08804,-0.03525
5.2135,0.0032,-0.04272,-0.03189,-0.00916,-0.02792,-0.04303,-0.02167,-0.07416,-0.01251,-0.01709,-0.04013,-0.0148,-0.02655,-0.01862,0.02777,-0.01572
5.214,0.00305,-0.04318,-0.03189,-0.00992,-0.0267,-0.04318,-0.01648,-0.0563,-0.01129,-0.01678,-0.0267,-0.01404,-0.0209,-0.01678,-0.02884,0.00305
5.2145,0.00275,-0.04395,-0.03113,-0.01053,-0.02579,-0.0444,0.01602,-0.01724,-0.01221,-0.01709,-0.01038,-0.01328,-0.01724,-0.01678,-0.03265,0.0264
5.215,0.00092,-0.04425,-0.03235,-0.01297,-0.02563,-0.04395,0.04623,0.01663,-0.01328,-0.01755,0.00443,-0.01114,-0.01556,-0.01755,0.02228,0.03662
5.2155,-0.00092,-0.04562,-0.03418,-0.01434,-0.0296,-0.04211,0.04089,0.02777,-0.01465,-0.01724,0.01358,-0.00412,-0.01877,-0.01724,0.08362,0.01709
5.216,-0.00214,-0.04547,-0.03723,-0.01343,-0.03418,-0.03906,0.01663,0.02502,-0.01526,-0.01816,0.0145,0.00961,-0.02579,-0.01755,0.09369,-0.01724
5.2165,-0.0029,-0.04456,-0.04013,-0.01205,-0.03418,-0.03525,0.00458,0.02808,-0.01633,-0.01831,0.01266,0.02472,-0.03311,-0.01862,0.04974,-0.03418
5.217,-0.00366,-0.04456,-0.04196,-0.01236,-0.02472,-0.03387,0.0032,0.0383,-0.01694,-0.01633,0.01236,0.03204,-0.03647,-0.02045,0.00122,-0.02686
5.2175,-0.00443,-0.04517,-0.04288,-0.01495,-0.01114,-0.03342,0.00092,0.03632,-0.01587,-0.01221,0.01297,0.02609,-0.03235,-0.02151,-0.01556,-0.01572
5.218,-0.00488,-0.04745,-0.04211,-0.01816,-0.0029,-0.03464,0.01007,0.01205,-0.01389,-0.00931,0.01175,0.01297,-0.02548,-0.0206,-0.00259,-0.01938
5.2185,-0.00473,-0.04868,-0.04028,-0.01709,-0.00443,-0.03632,0.04059,-0.01999,-0.0116,-0.00778,0.00931,0.00458,-0.02258,-0.02151,0.02289,-0.0322
5.219,-0.00504,-0.04852,-0.03784,-0.0145,-0.00885,-0.03937,0.06638,-0.03036,-0.01114,-0.00702,0.00519,0.00351,-0.02686,-0.02396,0.03845,-0.03967
5.2195,-0.00504,-0.04562,-0.03601,-0.01175,-0.00778,-0.04196,0.05554,-0.00916,-0.01221,-0.00504,0.00122,0.00336,-0.03342,-0.02655,0.02411,-0.0415
5.22,-0.0058,-0.04028,-0.03342,-0.0116,-0.00183,-0.04318,0.01328,0.01923,-0.01297,-0.00198,-0.00092,0.00153,-0.03632,-0.02594,-0.01648,-0.0415
5.2205,-0.00702,-0.03586,-0.03052,-0.01328,0.00656,-0.04288,-0.02274,0.02548,-0.01373,-0.00214,-0.00122,0.00076,-0.03296,-0.0209,-0.05035,-0.04196
5.221,-0.00824,-0.03571,-0.02823,-0.01511,0.01221,-0.04257,-0.03342,0.01083,-0.01419,-0.00549,-0.00183,0.00107,-0.02625,-0.01556,-0.04974,-0.04211
5.2215,-0.0087,-0.03632,-0.02487,-0.01526,0.00977,-0.04333,-0.02045,0.00244,-0.01495,-0.00961,-0.00397,0.00229,-0.02335,-0.01495,-0.02487,-0.04211
5.222,-0.00854,-0.03723,-0.02075,-0.01419,-0.00061,-0.04593,0.01434,0.02228,-0.01541,-0.01373,-0.00412,0.00244,-0.02579,-0.01877,0.00092,-0.0441
5.2225,-0.00732,-0.03876,-0.01633,-0.01404,-0.01785,-0.05051,0.05829,0.06042,-0.01434,-0.0174,0.00061,0.00259,-0.02914,-0.02304,0.01862,-0.0444
5.223,-0.00565,-0.04074,-0.01511,-0.01404,-0.0412,-0.05173,0.07187,0.0827,-0.0148,-0.02045,0.01038,0.00229,-0.02884,-0.01785,0.03555,-0.04166
5.2235,-0.0032,-0.04257,-0.01801,-0.01282,-0.0737,-0.05081,0.0386,0.07431,-0.01572,-0.02319,0.02213,0.00153,-0.02548,0.00046,0.05157,-0.03632
5.224,-0.00107,-0.04242,-0.02167,-0.01236,-0.11078,-0.0499,-0.0061,0.04974,-0.01724,-0.02686,0.03006,-0.00107,-0.02441,0.01968,0.05844,-0.03342
5.2245,0.00122,-0.04013,-0.02441,-0.01022,-0.12909,-0.05005,-0.01999,0.02884,-0.01816,-0.03036,0.03159,-0.00259,-0.02686,0.02716,0.04684,-0.03342
5.225,0.00244,-0.03571,-0.02655,-0.00916,-0.11551,-0.05051,-0.009,0.01389,-0.01892,-0.03311,0.02792,-0.00412,-0.03265,0.01343,0.02533,-0.03571
5.2255,0.00259,-0.02869,-0.03052,-0.00839,-0.08148,-0.04974,-0.00183,0.00198,-0.01862,-0.03464,0.02151,-0.00656,-0.03586,-0.01282,0.00839,-0.03815
5.226,0.00168,-0.01343,-0.03525,-0.00732,-0.05646,-0.05005,-0.00717,-0.00748,-0.01953,-0.03418,0.01419,-0.00977,-0.03311,-0.03662,0.00214,-0.04166
5.2265,0.00122,0.01129,-0.04044,-0.00595,-0.05035,-0.05051,-0.01328,-0.01587,-0.01999,-0.03555,0.00046,-0.01343,-0.02548,-0.04547,0.00076,-0.04532
5.227,0.00244,0.0354,-0.04593,-0.00488,-0.0499,-0.05173,-0.01389,-0.02762,-0.01907,-0.03754,-0.01648,-0.01556,-0.01953,-0.03433,-0.00092,-0.04822
5.2275,0.0029,0.03952,-0.0499,-0.00443,-0.04684,-0.05051,-0.01419,-0.04318,-0.01877,-0.03952,-0.03143,-0.01541,-0.0206,-0.01312,-0.00336,-0.05127
5.228,0.00092,0.01114,-0.0528,-0.00427,-0.04135,-0.04944,-0.01511,-0.05615,-0.02014,-0.03967,-0.0386,-0.01328,-0.02731,0.00092,-0.00183,-0.05341
5.2285,-0.00275,-0.03891,-0.05508,-0.00366,-0.03723,-0.04791,-0.0174,-0.0531,-0.0238,-0.03784,-0.04272,-0.00916,-0.03143,-0.00305,0.00046,-0.05463
5.229,-0.00565,-0.08545,-0.05463,-0.00366,-0.03342,-0.04654,-0.01846,-0.02014,-0.0264,-0.03708,-0.05051,-0.00458,-0.02716,-0.01968,-0.00122,-0.05371
5.2295,-0.00595,-0.11139,-0.05295,-0.00458,-0.02579,-0.04562,-0.01862,0.03052,-0.0235,-0.03525,-0.06195,-0.00168,-0.01709,-0.03159,-0.0087,-0.05066
5.23,-0.00534,-0.11765,-0.0499,-0.00671,-0.01236,-0.04425,-0.01755,0.05905,-0.01663,-0.0293,-0.07111,-0.00046,-0.01099,-0.03052,-0.01907,-0.04669
5.2305,-0.00534,-0.11139,-0.04532,-0.00946,0.00305,-0.04562,-0.01678,0.04196,-0.009,-0.01923,-0.0737,-0.00061,-0.01404,-0.02548,-0.02472,-0.04684
5.231,-0.00443,-0.09705,-0.04135,-0.0087,0.01266,-0.04807,-0.01801,0.00412,-0.00351,-0.00565,-0.07065,-0.00031,-0.0238,-0.02472,-0.02045,-0.05295
5.2315,-0.00397,-0.07797,-0.0386,-0.00336,0.00885,-0.05096,-0.02197,-0.01465,0.00137,0.00412,-0.06454,0.00061,-0.0322,-0.0267,-0.01099,-0.06165
5.232,-0.00473,-0.06271,-0.03708,0.00504,-0.0029,-0.05524,-0.02686,-0.00778,0.00275,0.0029,-0.05814,0.00244,-0.03571,-0.02457,-0.00381,-0.06805
5.2325,-0.00641,-0.05585,-0.03403,0.00809,-0.01205,-0.0563,-0.03067,0.00275,0.00229,-0.00824,-0.05096,0.0029,-0.03769,-0.01633,-0.00092,-0.06989
5.233,-0.00702,-0.05432,-0.0322,0.00412,-0.01572,-0.05768,-0.03281,0.00031,0.00153,-0.0206,-0.03937,0.00259,-0.03906,-0.00305,-0.00183,-0.06744
5.2335,-0.00656,-0.05264,-0.03067,-0.00198,-0.02228,-0.05539,-0.03342,-0.01083,0.00015,-0.0264,-0.02029,0.00229,-0.03876,0.00656,-0.00229,-0.06058
5.234,-0.00656,-0.04852,-0.02914,-0.0061,-0.03448,-0.05341,-0.03647,-0.0235,-0.00153,-0.03128,0.00595,0.00031,-0.0354,0.00473,-0.00504,-0.04456
5.2345,-0.00732,-0.04364,-0.02853,-0.00595,-0.04791,-0.05066,-0.04364,-0.03342,-0.00473,-0.03784,0.03815,-0.00168,-0.03006,-0.00717,-0.00824,-0.02747
5.235,-0.00809,-0.04166,-0.02991,-0.00443,-0.05219,-0.0473,-0.05341,-0.0415,-0.00885,-0.04486,0.06256,-0.00229,-0.02243,-0.01877,-0.009,-0.0235
5.2355,-0.00778,-0.0412,-0.03387,-0.0058,-0.04242,-0.0441,-0.05753,-0.04791,-0.01175,-0.04639,0.06805,-0.00061,-0.01373,-0.02335,-0.00656,-0.0322
5.236,-0.0061,-0.04105,-0.03662,-0.01617,-0.02487,-0.04379,-0.05249,-0.05173,-0.01465,-0.04395,0.05508,0.00153,-0.00549,-0.02136,-0.00488,-0.03632
5.2365,-0.0029,-0.03983,-0.04578,-0.0351,-0.0119,-0.04684,-0.04425,-0.05188,-0.01801,-0.04044,0.03494,0.00229,-0.00015,-0.02045,-0.00854,-0.02884
5.237,-0.00092,-0.03784,-0.06912,-0.0531,-0.00809,-0.04913,-0.03937,-0.04486,-0.02106,-0.03876,0.01648,-0.00015,0.00076,-0.02121,-0.02106,-0.02136
5.2375,-0.00198,-0.03708,-0.09613,-0.05768,-0.01144,-0.0499,-0.0296,-0.02975,-0.02411,-0.03616,0.00183,-0.00412,-0.00046,-0.02335,-0.03815,-0.02731
5.238,-0.00488,-0.03693,-0.1059,-0.04776,-0.01251,-0.04944,-0.00824,-0.0061,-0.02747,-0.03174,-0.0119,-0.0061,-0.00244,-0.02563,-0.04913,-0.03952
5.2385,-0.0061,-0.03586,-0.08865,-0.03281,-0.01495,-0.05127,0.01511,0.01846,-0.03189,-0.02609,-0.02563,-0.00458,-0.0061,-0.02701,-0.04593,-0.04486
5.239,-0.00534,-0.03326,-0.05783,-0.02167,-0.02762,-0.0531,0.02701,0.0386,-0.03708,-0.02319,-0.03876,-0.00168,-0.01236,-0.0264,-0.03418,-0.0415
5.2395,-0.00366,-0.03159,-0.02991,-0.01526,-0.04578,-0.05356,0.02533,0.04913,-0.04166,-0.02151,-0.04852,-0.00015,-0.01892,-0.02548,-0.01892,-0.03479
5.24,-0.00397,-0.03098,-0.01114,-0.00992,-0.05402,-0.05127,0.01572,0.04517,-0.04562,-0.0174,-0.05539,-0.00061,-0.02213,-0.02487,-0.00244,-0.02762
5.2405,-0.00412,-0.03159,0.00275,-0.00305,-0.04776,-0.04929,-0.00031,0.02563,-0.04654,-0.01526,-0.06226,-0.00046,-0.02121,-0.02441,0.0177,-0.02365
5.241,-0.00351,-0.03281,0.01144,0.00397,-0.03983,-0.04929,-0.01877,0.00168,-0.0412,-0.01678,-0.06912,0.0,-0.01556,-0.0235,0.04059,-0.0264
5.2415,-0.00473,-0.03525,0.01434,0.00916,-0.03754,-0.04929,-0.03296,-0.0119,-0.03235,-0.01892,-0.07645,-0.00015,-0.009,-0.02457,0.05341,-0.03815
5.242,-0.00671,-0.03906,0.01053,0.01465,-0.03601,-0.04715,-0.03799,-0.01038,-0.02487,-0.01617,-0.08469,-0.00107,-0.00732,-0.02823,0.04593,-0.05386
5.2425,-0.00671,-0.04196,0.00565,0.02472,-0.03677,-0.04227,-0.03738,-0.00427,-0.02014,-0.00854,-0.09201,-0.0032,-0.01221,-0.03128,0.0264,-0.06195
5.243,-0.00549,-0.04532,0.00015,0.04456,-0.0444,-0.03601,-0.03677,-0.00244,-0.01862,-0.00183,-0.09186,-0.00488,-0.01923,-0.0325,0.01297,-0.05539
5.2435,-0.00366,-0.04791,-0.0058,0.06958,-0.0592,-0.02731,-0.03571,-0.00656,-0.01556,0.00031,-0.08026,-0.00366,-0.0267,-0.03311,0.01129,-0.03952
5.244,-0.0029,-0.04807,-0.01373,0.08789,-0.0708,-0.01953,-0.03052,-0.01022,-0.01129,0.00015,-0.06302,-0.00076,-0.03647,-0.03265,0.01419,-0.03021
5.2445,-0.00259,-0.04364,-0.02167,0.08804,-0.07233,-0.01053,-0.02167,-0.01099,-0.00732,-0.00015,-0.04684,0.00031,-0.0502,-0.0325,0.01434,-0.03448
5.245,-0.00153,-0.03876,-0.02487,0.0676,-0.06927,-0.00198,-0.00732,-0.01022,-0.00565,0.00031,-0.0322,-0.00092,-0.06424,-0.0322,0.01312,-0.04471
5.2455,-0.00107,-0.03937,-0.02075,0.03433,-0.0676,0.0058,0.0148,-0.00931,-0.00671,0.00122,-0.01694,-0.00305,-0.07599,-0.03113,0.0116,-0.05249
5.246,-0.00061,-0.04364,-0.00687,0.00046,-0.06821,0.0148,0.03738,-0.00885,-0.0087,0.00259,-0.0029,-0.00244,-0.07996,-0.02991,0.00702,-0.05508
5.2465,-0.00275,-0.047,0.0145,-0.0238,-0.06699,0.02106,0.03983,-0.00717,-0.01007,0.00259,0.00458,-0.00229,-0.07614,-0.02792,-0.00046,-0.05936
5.247,-0.00473,-0.04883,0.03143,-0.03769,-0.06271,0.02289,0.01678,-0.00473,-0.00916,0.00092,0.00549,-0.00244,-0.0647,-0.02411,-0.00702,-0.06424
5.2475,-0.0061,-0.05081,0.0322,-0.047,-0.05478,0.01572,-0.01404,-0.00275,-0.00916,-0.00061,0.00427,-0.00183,-0.05127,-0.01663,-0.01297,-0.0647
5.248,-0.00595,-0.05341,0.0177,-0.05737,-0.04242,-0.00305,-0.02823,-0.00275,-0.01114,-0.00427,0.00519,0.00137,-0.04318,-0.00732,-0.02609,-0.06195
5.2485,-0.00732,-0.05493,0.00015,-0.06989,-0.03006,-0.03372,-0.02533,-0.00381,-0.01266,-0.01099,0.00839,0.00549,-0.04562,-0.00092,-0.04852,-0.06104
5.249,-0.00854,-0.05432,-0.01465,-0.08087,-0.02167,-0.07019,-0.01953,-0.0032,-0.01297,-0.01831,0.01038,0.00671,-0.05264,-0.00031,-0.0676,-0.06546
5.2495,-0.00748,-0.05219,-0.02701,-0.08072,-0.01862,-0.1033,-0.01968,-0.00137,-0.0119,-0.02518,0.01038,0.00427,-0.05524,-0.00305,-0.06271,-0.0708
5.25,-0.00595,-0.05173,-0.03891,-0.06317,-0.01541,-0.12985,-0.01999,0.00015,-0.01144,-0.02808,0.01007,0.00122,-0.05188,-0.00626,-0.03479,-0.06241
5.2505,-0.0058,-0.05554,-0.05188,-0.03235,-0.00809,-0.14526,-0.0174,-0.00137,-0.0116,-0.02792,0.01038,0.00122,-0.04898,-0.01038,-0.01007,-0.03662
5.251,-0.00656,-0.06012,-0.0618,0.01419,0.00488,-0.14389,-0.01221,-0.00565,-0.01297,-0.02655,0.01007,0.00412,-0.04974,-0.01373,-0.00366,-0.01236
5.2515,-0.0061,-0.0589,-0.06927,0.07889,0.01694,-0.12817,-0.00977,-0.01343,-0.01312,-0.0235,0.009,0.00702,-0.05127,-0.01648,-0.00565,-0.01236
5.252,-0.00443,-0.04745,-0.07278,0.1358,0.02533,-0.10727,-0.0119,-0.02609,-0.01343,-0.0209,0.009,0.00687,-0.0499,-0.0174,-0.00397,-0.0322
5.2525,-0.00366,-0.0267,-0.07401,0.13931,0.03067,-0.08545,-0.01633,-0.0412,-0.01282,-0.01923,0.0087,0.00504,-0.04654,-0.01755,0.00015,-0.04684
5.253,-0.00381,-0.00381,-0.0737,0.07919,0.02991,-0.05783,-0.01892,-0.05127,-0.01328,-0.01785,0.00748,0.00229,-0.04364,-0.01785,0.00031,-0.04684
5.2535,-0.00412,0.00916,-0.07248,-0.00153,0.02258,-0.03143,-0.01816,-0.05219,-0.01312,-0.0177,0.00443,-0.0032,-0.04211,-0.01984,0.00122,-0.04379
5.254,-0.0061,0.00427,-0.07004,-0.05844,0.00885,-0.02365,-0.01663,-0.04776,-0.01297,-0.01755,0.00229,-0.00854,-0.04272,-0.02213,0.01816,-0.04593
5.2545,-0.00687,-0.01266,-0.06866,-0.07584,-0.01129,-0.04929,-0.01663,-0.04028,-0.01251,-0.01678,0.00412,-0.00809,-0.04288,-0.02426,0.05722,-0.04654
5.255,-0.00839,-0.02716,-0.06805,-0.06851,-0.03769,-0.09674,-0.01694,-0.02609,-0.01236,-0.01572,0.00793,-0.00259,-0.04288,-0.02502,0.11108,-0.03983
5.2555,-0.00809,-0.03525,-0.06912,-0.06088,-0.07172,-0.12955,-0.0174,-0.00122,-0.01312,-0.01556,0.01144,0.00015,-0.04379,-0.02594,0.14786,-0.03372
5.256,-0.00671,-0.03769,-0.06775,-0.06546,-0.0972,-0.12329,-0.01755,0.02197,-0.01389,-0.01617,0.01511,-0.0029,-0.04501,-0.02655,0.13138,-0.03448
5.2565,-0.0032,-0.03967,-0.06424,-0.07523,-0.10056,-0.09216,-0.01648,0.0296,-0.01358,-0.01709,0.01862,-0.00717,-0.04593,-0.02609,0.06958,-0.03922
5.257,-0.00046,-0.04211,-0.05981,-0.07629,-0.08743,-0.06699,-0.01587,0.02243,-0.01282,-0.01602,0.02136,-0.00748,-0.04654,-0.02289,0.01266,-0.0412
5.2575,-0.00031,-0.04501,-0.0563,-0.06744,-0.08209,-0.05905,-0.01587,0.01328,-0.01266,-0.01556,0.02289,-0.0032,-0.04532,-0.01862,-0.00137,-0.03998
5.258,-0.00168,-0.04639,-0.05402,-0.05753,-0.09247,-0.05875,-0.01556,0.0087,-0.01282,-0.01419,0.02502,0.00107,-0.04456,-0.01129,0.0145,-0.03876
5.2585,-0.00229,-0.04486,-0.05066,-0.05219,-0.09811,-0.05478,-0.01602,0.00336,-0.01358,-0.01312,0.03204,0.00336,-0.04532,-0.00031,0.02457,-0.03723
5.259,-0.00259,-0.04105,-0.04608,-0.04471,-0.08041,-0.04761,-0.01633,-0.00122,-0.0145,-0.01282,0.04669,0.00366,-0.04517,0.00656,0.01495,-0.03708
5.2595,-0.00183,-0.03845,-0.04211,-0.03174,-0.04501,-0.04349,-0.01724,-0.00198,-0.01511,-0.01068,0.06226,0.00229,-0.03708,0.00275,0.00092,-0.03616
5.26,-0.00076,-0.03845,-0.03952,-0.01968,-0.01587,-0.04227,-0.01785,0.00122,-0.0145,-0.01114,0.06119,-0.00076,-0.01999,-0.00748,-0.00107,-0.03555
5.2605,-0.00031,-0.04105,-0.03693,-0.01297,-0.0058,-0.04288,-0.01816,0.00183,-0.01495,-0.01343,0.03174,-0.00381,0.00122,-0.01266,0.00626,-0.03708
5.261,-0.00137,-0.0444,-0.03342,-0.0116,-0.00687,-0.04135,-0.01709,-0.00153,-0.01633,-0.01709,-0.01541,-0.00366,0.01938,-0.01007,0.01297,-0.03906
5.2615,-0.00443,-0.04639,-0.0296,-0.01068,-0.00656,-0.0383,-0.01617,-0.00336,-0.01709,-0.01923,-0.05936,-0.00015,0.02869,-0.00763,0.01556,-0.0383
5.262,-0.00702,-0.04547,-0.02777,-0.01007,-0.00473,-0.0351,-0.01556,-0.00229,-0.01755,-0.0174,-0.08545,0.00381,0.02563,-0.01053,0.01068,-0.03494
5.2625,-0.00732,-0.0415,-0.02701,-0.01114,-0.00793,-0.03342,-0.01511,-0.00122,-0.01724,-0.0119,-0.09491,0.00443,0.01129,-0.01495,-0.00504,-0.03448
5.263,-0.00656,-0.0383,-0.0264,-0.01251,-0.01587,-0.03342,-0.01404,-0.00565,-0.01678,-0.00641,-0.09354,0.00137,-0.01099,-0.01831,-0.01892,-0.04196
5.2635,-0.00534,-0.03784,-0.0267,-0.01343,-0.02121,-0.0354,-0.01251,-0.01205,-0.01587,-0.00427,-0.08636,-0.00076,-0.0354,-0.02014,-0.00793,-0.05157
5.264,-0.0058,-0.03952,-0.02747,-0.01419,-0.02472,-0.03906,-0.0116,-0.01648,-0.0145,-0.00839,-0.08011,-0.00031,-0.05646,-0.02319,0.02869,-0.05341
5.2645,-0.00809,-0.04089,-0.02823,-0.01373,-0.02747,-0.04227,-0.0119,-0.01648,-0.01312,-0.01495,-0.07736,0.00015,-0.07248,-0.02747,0.05783,-0.04776
5.265,-0.00931,-0.0412,-0.02823,-0.01282,-0.0322,-0.04395,-0.01297,-0.01343,-0.01389,-0.02197,-0.07523,-0.00031,-0.08667,-0.03082,0.05966,-0.0444
5.2655,-0.00916,-0.04089,-0.02655,-0.01251,-0.03448,-0.0441,-0.01312,-0.01038,-0.01648,-0.02914,-0.06927,-0.00168,-0.10178,-0.03326,0.04593,-0.05188
5.266,-0.0087,-0.04242,-0.02747,-0.01495,-0.03204,-0.04395,-0.01266,-0.00931,-0.0174,-0.03265,-0.0592,-0.00336,-0.11307,-0.03418,0.02731,-0.0676
5.2665,-0.00809,-0.0441,-0.0293,-0.01526,-0.02731,-0.04318,-0.01465,-0.00885,-0.01709,-0.03494,-0.04974,-0.00717,-0.11414,-0.03342,-0.00305,-0.07874
5.267,-0.00519,-0.04486,-0.03189,-0.0119,-0.02487,-0.04211,-0.0177,-0.00778,-0.01633,-0.03662,-0.04227,-0.01297,-0.09979,-0.03143,-0.04196,-0.07156
5.2675,-0.00122,-0.04364,-0.03342,-0.00595,-0.02563,-0.03937,-0.02075,-0.00977,-0.01495,-0.03693,-0.03647,-0.0145,-0.07675,-0.03159,-0.04837,-0.04349
5.268,0.0029,-0.04196,-0.03326,-0.00092,-0.03036,-0.03418,-0.02121,-0.02014,-0.01434,-0.03815,-0.02975,-0.00931,-0.05615,-0.03494,-0.00763,-0.01862
5.2685,0.00504,-0.03906,-0.03143,0.00107,-0.04089,-0.02609,-0.02106,-0.03983,-0.01404,-0.0415,-0.02121,-0.00092,-0.04639,-0.03754,0.03571,-0.01266
5.269,0.00488,-0.03647,-0.02899,0.00092,-0.05096,-0.01816,-0.02197,-0.06088,-0.0145,-0.04242,-0.01312,0.00412,-0.0444,-0.03754,0.03845,-0.01877
5.2695,0.00366,-0.03601,-0.02747,0.00061,-0.05585,-0.01404,-0.02472,-0.07462,-0.01419,-0.03952,-0.00732,0.00565,-0.0415,-0.03326,0.01068,-0.01923
5.27,0.00381,-0.03922,-0.02716,-0.00031,-0.05371,-0.01434,-0.02609,-0.08087,-0.01328,-0.03387,-0.00595,0.00763,-0.03708,-0.02747,-0.00977,-0.01617
5.2705,0.00351,-0.0441,-0.02823,-0.00443,-0.04532,-0.01877,-0.0174,-0.08209,-0.01312,-0.02991,-0.00519,0.01175,-0.03525,-0.02167,-0.00961,-0.0235
5.271,0.0032,-0.04761,-0.02914,-0.00793,-0.02975,-0.02365,-0.00061,-0.07553,-0.01312,-0.03067,-0.00305,0.01465,-0.03677,-0.01694,0.00259,-0.03586
5.2715,0.00244,-0.04883,-0.02899,-0.00854,-0.01129,-0.02747,0.00702,-0.0499,-0.01312,-0.03311,-0.00122,0.01373,-0.03738,-0.01266,0.01526,-0.04135
5.272,0.0029,-0.04898,-0.02716,-0.00824,0.0032,-0.02914,-0.00458,-0.00015,-0.01175,-0.03387,-0.00168,0.00946,-0.03326,-0.00778,0.01999,-0.04913
5.2725,0.00244,-0.04913,-0.02609,-0.00961,0.00427,-0.03098,-0.02197,0.05768,-0.00946,-0.03311,-0.00366,0.00519,-0.02701,-0.00046,0.01617,-0.06805
5.273,0.00122,-0.04868,-0.02579,-0.01114,-0.00351,-0.03067,-0.02655,0.09811,-0.00656,-0.03143,-0.00275,0.00122,-0.02136,0.0058,0.00916,-0.07904
5.2735,-0.00122,-0.05051,-0.02701,-0.01205,-0.00931,-0.03281,-0.01846,0.10895,-0.00473,-0.03021,0.00153,-0.00153,-0.01968,0.00519,0.00641,-0.0621
5.274,-0.00412,-0.05432,-0.02991,-0.01282,-0.00793,-0.03601,-0.0119,0.09964,-0.00534,-0.02686,0.00763,-0.0032,-0.02136,-0.00351,0.00961,-0.03189
5.2745,-0.00702,-0.06012,-0.03479,-0.01389,-0.00427,-0.03906,-0.01205,0.08163,-0.00778,-0.02228,0.01221,-0.0029,-0.02365,-0.01328,0.01434,-0.01984
5.275,-0.00916,-0.06851,-0.03754,-0.01617,-0.0061,-0.0412,-0.01419,0.0531,-0.01007,-0.01846,0.01282,-0.00061,-0.02426,-0.01831,0.00732,-0.03113
5.2755,-0.01129,-0.07629,-0.0383,-0.01678,-0.01877,-0.04059,-0.01053,0.01648,-0.0119,-0.0177,0.01053,0.00198,-0.02533,-0.01907,-0.01999,-0.04578
5.276,-0.01144,-0.07843,-0.03525,-0.01556,-0.03647,-0.03967,-0.00656,-0.00977,-0.01373,-0.01434,0.00671,0.00305,-0.02747,-0.01923,-0.05661,-0.04639
5.2765,-0.01053,-0.07355,-0.03204,-0.0145,-0.04868,-0.04395,-0.00839,-0.01007,-0.01633,-0.01053,0.00534,0.00305,-0.03174,-0.01907,-0.07996,-0.03098
5.277,-0.00946,-0.06409,-0.03052,-0.01328,-0.04608,-0.05966,-0.01572,0.009,-0.01801,-0.00641,0.00565,0.00092,-0.0325,-0.01862,-0.08453,-0.00565
5.2775,-0.00885,-0.05539,-0.02823,-0.01312,-0.03601,-0.0824,-0.02075,0.03036,-0.01999,-0.00198,0.00656,-0.0032,-0.02975,-0.01862,-0.07278,0.00992
5.278,-0.00793,-0.04883,-0.02472,-0.01328,-0.03189,-0.09918,-0.01892,0.04669,-0.02228,0.00229,0.00748,-0.00534,-0.02472,-0.01953,-0.0296,-0.00778
5.2785,-0.00595,-0.04303,-0.01862,-0.0119,-0.04272,-0.09964,-0.01495,0.05981,-0.0235,0.00351,0.00519,-0.00397,-0.02213,-0.0209,0.03922,-0.05737
5.279,-0.0032,-0.03769,-0.01266,-0.00961,-0.05341,-0.08575,-0.01251,0.06851,-0.02289,0.00259,0.00198,-0.00168,-0.02151,-0.02014,0.08896,-0.10895
5.2795,-0.00168,-0.03235,-0.01251,-0.00748,-0.0499,-0.06531,-0.01251,0.06393,-0.02121,0.00061,-0.00259,-0.00107,-0.02014,-0.01938,0.09308,-0.1326
5.28,-0.00015,-0.02884,-0.01755,-0.00641,-0.03372,-0.04944,-0.01312,0.03616,-0.02045,-0.00107,-0.00931,-0.00046,-0.01877,-0.01999,0.09506,-0.12253
5.2805,-0.00031,-0.02747,-0.0235,-0.00671,-0.02289,-0.04211,-0.01343,-0.01007,-0.02045,-0.00214,-0.01724,0.00107,-0.01846,-0.02106,0.13794,-0.08896
5.281,-0.00046,-0.02716,-0.02594,-0.00671,-0.02197,-0.04166,-0.01419,-0.05661,-0.01953,-0.00198,-0.02045,0.00336,-0.01999,-0.02029,0.17273,-0.03845
5.2815,-0.00137,-0.0264,-0.02625,-0.00656,-0.02609,-0.04288,-0.01389,-0.0856,-0.01755,-0.00198,-0.0177,0.00488,-0.02014,-0.01801,0.12726,0.01465
5.282,-0.00137,-0.02518,-0.02502,-0.00519,-0.0293,-0.04227,-0.01312,-0.09399,-0.01663,-0.00183,-0.01053,0.00381,-0.01862,-0.01694,0.02426,0.05081
5.2825,-0.00076,-0.02289,-0.02655,-0.00305,-0.03235,-0.04028,-0.01129,-0.09308,-0.01785,-0.00214,-0.0029,-0.00061,-0.01602,-0.01709,-0.04089,0.05707
5.283,-0.00015,-0.02258,-0.02838,-0.00381,-0.03708,-0.0386,-0.01007,-0.09216,-0.01938,-0.0061,0.0,-0.00656,-0.01572,-0.01831,-0.03128,0.03799
5.2835,0.00061,-0.02502,-0.03082,-0.00717,-0.0386,-0.03845,-0.01083,-0.08423,-0.01892,-0.01053,-0.00122,-0.009,-0.0148,-0.01877,0.01068,0.00488
5.284,0.00046,-0.02731,-0.03159,-0.00916,-0.03662,-0.03906,-0.01129,-0.05432,-0.01816,-0.01358,-0.00626,-0.00519,-0.01205,-0.0177,0.0383,-0.0293
5.2845,-0.00076,-0.02747,-0.0325,-0.01038,-0.03128,-0.03891,-0.01266,-0.00061,-0.02045,-0.0145,-0.01007,0.0029,-0.00488,-0.01495,0.05051,-0.0502
5.285,-0.00244,-0.02686,-0.03479,-0.01068,-0.02731,-0.03891,-0.01282,0.06287,-0.02426,-0.01526,-0.01114,0.00809,0.00443,-0.00977,0.05707,-0.05249
5.2855,-0.00488,-0.02686,-0.03967,-0.01038,-0.02365,-0.03616,-0.01297,0.11627,-0.02502,-0.01602,-0.01129,0.00732,0.0148,-0.00198,0.05432,-0.04456
5.286,-0.00702,-0.02609,-0.04364,-0.01068,-0.01694,-0.02823,-0.01358,0.13138,-0.02304,-0.01862,-0.01617,0.00397,0.01892,0.00885,0.0383,-0.0412
5.2865,-0.00809,-0.02609,-0.04776,-0.00961,-0.00656,-0.02121,-0.01465,0.08911,-0.0206,-0.02243,-0.02777,0.00198,0.0116,0.01633,0.01801,-0.04166
5.287,-0.00778,-0.02808,-0.05096,-0.00885,0.0029,-0.02014,-0.01495,0.01663,-0.01984,-0.02716,-0.04196,0.00076,-0.00275,0.01846,0.00443,-0.03998
5.2875,-0.00732,-0.03113,-0.05264,-0.01053,0.00763,-0.02716,-0.01495,-0.03342,-0.01938,-0.03082,-0.04929,-0.00122,-0.01556,0.01694,-0.00259,-0.03525
5.288,-0.00687,-0.03418,-0.05371,-0.01404,0.00809,-0.03479,-0.01511,-0.04364,-0.01724,-0.03052,-0.04593,-0.00336,-0.02029,0.0174,-0.00458,-0.03189
5.2885,-0.00565,-0.03433,-0.05173,-0.01602,0.00504,-0.03738,-0.01495,-0.0441,-0.01373,-0.02869,-0.0354,-0.00549,-0.01801,0.01999,-0.00793,-0.03159
5.289,-0.00519,-0.03326,-0.04578,-0.01556,0.00427,-0.03723,-0.01663,-0.05264,-0.01221,-0.02594,-0.02487,-0.00732,-0.01389,0.02045,-0.01404,-0.03296
5.2895,-0.00595,-0.03387,-0.0386,-0.01343,0.00305,-0.0383,-0.01801,-0.04211,-0.01114,-0.02365,-0.01953,-0.00748,-0.0174,0.01328,-0.02274,-0.03494
5.29,-0.00732,-0.03525,-0.03143,-0.01083,-0.00702,-0.0415,-0.01862,0.00305,-0.01099,-0.02243,-0.02151,-0.00671,-0.0322,-0.01038,-0.02914,-0.03967
5.2905,-0.01007,-0.03754,-0.02777,-0.01114,-0.03357,-0.04395,-0.01617,0.04623,-0.01099,-0.02197,-0.02533,-0.00504,-0.0499,-0.04715,-0.02472,-0.04608
5.291,-0.01175,-0.03799,-0.02655,-0.01068,-0.06424,-0.04395,-0.01389,0.04105,-0.01221,-0.02213,-0.02579,-0.0029,-0.05707,-0.07904,-0.00992,-0.04913
5.2915,-0.01312,-0.03845,-0.02701,-0.00916,-0.0795,-0.04044,-0.01328,-0.0058,-0.01282,-0.02365,-0.01999,-0.00061,-0.05264,-0.09048,0.00153,-0.04745
5.292,-0.01312,-0.04059,-0.02655,-0.00824,-0.07675,-0.03662,-0.01373,-0.05264,-0.01205,-0.02472,-0.0116,0.00168,-0.04486,-0.08957,0.00061,-0.04532
5.2925,-0.0119,-0.04272,-0.02274,-0.00854,-0.07492,-0.03525,-0.01312,-0.07233,-0.01129,-0.02563,-0.00717,0.00305,-0.04196,-0.09369,-0.0058,-0.04776
5.293,-0.01022,-0.04333,-0.01556,-0.00977,-0.08377,-0.0351,-0.01053,-0.0589,-0.0119,-0.02792,-0.00809,0.00244,-0.04547,-0.10468,-0.00427,-0.05219
5.2935,-0.00839,-0.04135,-0.01114,-0.01175,-0.09201,-0.03662,-0.00916,-0.02457,-0.01389,-0.0296,-0.01053,0.00198,-0.04684,-0.10895,0.01022,-0.05173
5.294,-0.00717,-0.03998,-0.01389,-0.01282,-0.08377,-0.03922,-0.01022,0.00504,-0.01526,-0.02975,-0.01129,0.00275,-0.04028,-0.09766,0.02762,-0.04807
5.2945,-0.00565,-0.04196,-0.01892,-0.01221,-0.06012,-0.04227,-0.01205,0.01083,-0.01556,-0.02731,-0.00931,0.00488,-0.03036,-0.07217,0.03036,-0.04425
5.295,-0.00458,-0.04669,-0.02426,-0.00839,-0.0383,-0.04395,-0.01205,0.0061,-0.01511,-0.02426,-0.0061,0.00534,-0.03143,-0.04166,0.0116,-0.04379
5.2955,-0.00427,-0.05127,-0.02686,-0.00259,-0.03143,-0.04425,-0.01251,0.01984,-0.01312,-0.02228,-0.00519,0.00549,-0.04898,-0.01511,-0.01038,-0.04486
5.296,-0.00458,-0.05112,-0.03143,0.00153,-0.03479,-0.04318,-0.01236,0.04852,-0.01205,-0.02182,-0.00549,0.00488,-0.07599,-0.00061,-0.01831,-0.04623
5.2965,-0.00443,-0.04807,-0.0351,0.00336,-0.03784,-0.04532,-0.01358,0.06134,-0.01144,-0.02167,-0.00717,0.00336,-0.09674,-0.00122,-0.0148,-0.04639
5.297,-0.00336,-0.04318,-0.03555,0.00244,-0.03708,-0.05051,-0.01465,0.04501,-0.01236,-0.02213,-0.00809,0.00046,-0.09964,-0.01221,-0.01358,-0.04639
5.2975,-0.00168,-0.03845,-0.0322,0.00137,-0.03494,-0.05859,-0.01633,0.0238,-0.01236,-0.02213,-0.009,-0.00336,-0.08545,-0.02487,-0.0206,-0.0502
5.298,-0.00122,-0.03479,-0.02762,0.0029,-0.0351,-0.0708,-0.01801,0.01999,-0.01038,-0.02228,-0.01007,-0.00534,-0.06012,-0.03342,-0.03326,-0.05829
5.2985,-0.00153,-0.0325,-0.02502,0.00687,-0.0354,-0.09323,-0.01831,0.03296,-0.00732,-0.02182,-0.01114,-0.00458,-0.0354,-0.03555,-0.04425,-0.06638
5.299,-0.00458,-0.0322,-0.02487,0.009,-0.03342,-0.12482,-0.01785,0.04379,-0.00702,-0.02014,-0.00946,-0.00168,-0.02335,-0.0267,-0.0563,-0.06699
5.2995,-0.00671,-0.0322,-0.02365,0.00641,-0.03036,-0.14999,-0.01572,0.04059,-0.00931,-0.01709,-0.00626,0.00198,-0.02838,-0.01038,-0.05997,-0.05981
5.3,-0.00717,-0.03204,-0.02106,0.00153,-0.03052,-0.14847,-0.01556,0.02762,-0.00977,-0.01358,-0.00366,0.00381,-0.04395,-0.00366,-0.04517,-0.0531
5.3005,-0.00717,-0.03281,-0.01816,-0.00397,-0.03281,-0.11551,-0.01648,0.01373,-0.00793,-0.00992,-0.0032,0.0032,-0.05707,-0.01602,-0.01221,-0.05951
5.301,-0.00641,-0.0351,-0.01724,-0.00946,-0.03494,-0.07477,-0.01724,0.00397,-0.00595,-0.00534,-0.00061,0.00122,-0.05997,-0.03235,0.01602,-0.08148
5.3015,-0.00549,-0.03647,-0.01617,-0.01404,-0.03738,-0.04929,-0.01678,-0.00046,-0.00519,-0.00229,0.00778,0.00015,-0.05264,-0.03571,0.02487,-0.10651
5.302,-0.00534,-0.03754,-0.01663,-0.01617,-0.03799,-0.04456,-0.01617,-0.00351,-0.00626,-0.00778,0.03372,-0.00031,-0.04364,-0.02945,0.02335,-0.11276
5.3025,-0.00519,-0.0386,-0.01801,-0.01648,-0.03616,-0.04776,-0.0177,-0.00443,-0.00809,-0.01923,0.07584,0.00061,-0.03906,-0.02472,0.0293,-0.08774
5.303,-0.00549,-0.04105,-0.02045,-0.01938,-0.03387,-0.04807,-0.02213,-0.0061,-0.01038,-0.02991,0.11246,0.00122,-0.03906,-0.02731,0.04456,-0.04425
5.3035,-0.00381,-0.04242,-0.02563,-0.02426,-0.02808,-0.0441,-0.02518,-0.00824,-0.01236,-0.03174,0.11215,0.00305,-0.03845,-0.02869,0.05188,-0.01877
5.304,-0.00397,-0.04288,-0.0325,-0.02716,-0.01846,-0.0386,-0.0267,-0.00717,-0.01404,-0.02518,0.07278,0.00458,-0.03235,-0.02289,0.03632,-0.02686
5.3045,-0.00778,-0.04181,-0.03937,-0.02609,-0.00717,-0.03479,-0.02731,-0.00519,-0.01556,-0.01556,0.02243,0.00473,-0.02197,-0.00778,0.00168,-0.03769
5.305,-0.01526,-0.04196,-0.04715,-0.02197,0.00366,-0.03677,-0.02747,-0.00427,-0.01831,-0.00839,-0.01007,0.00351,-0.01373,0.01099,-0.03052,-0.01633
5.3055,-0.01923,-0.04211,-0.05127,-0.01862,0.0087,-0.03937,-0.02899,-0.00809,-0.02258,-0.00519,-0.02228,0.00351,-0.0145,0.02701,-0.04837,0.02045
5.306,-0.01999,-0.04089,-0.05035,-0.01587,0.00458,-0.03952,-0.03052,-0.01541,-0.0264,-0.00626,-0.02563,0.00305,-0.02182,0.03052,-0.0502,0.02991
5.3065,-0.01892,-0.03738,-0.04715,-0.01266,-0.00595,-0.0386,-0.02823,-0.02289,-0.02991,-0.01068,-0.03342,0.00259,-0.03021,0.01846,-0.04395,0.00412
5.307,-0.01831,-0.03021,-0.04623,-0.00946,-0.0206,-0.03616,-0.02167,-0.02792,-0.03296,-0.01724,-0.04501,0.00046,-0.03403,0.00046,-0.03128,-0.02289
5.3075,-0.01694,-0.01816,-0.04715,-0.009,-0.03403,-0.03647,-0.01328,-0.0296,-0.03677,-0.02396,-0.05661,-0.0032,-0.03586,-0.00916,-0.00992,-0.03235
5.308,-0.01328,-0.00626,-0.04822,-0.01007,-0.03632,-0.03876,-0.00641,-0.02914,-0.03952,-0.02655,-0.06653,-0.00809,-0.0386,-0.00916,0.01389,-0.03082
5.3085,-0.009,-0.00427,-0.04807,-0.00946,-0.02945,-0.04257,0.00656,-0.03494,-0.03967,-0.02686,-0.07782,-0.01236,-0.04181,-0.00793,0.02777,-0.03189
5.309,-0.00565,-0.01602,-0.04745,-0.00778,-0.02335,-0.04669,0.02396,-0.05402,-0.03647,-0.02701,-0.08987,-0.01343,-0.04242,-0.01007,0.0296,-0.0322
5.3095,-0.00473,-0.03326,-0.04776,-0.00717,-0.02274,-0.04974,0.02975,-0.08026,-0.03128,-0.0264,-0.09705,-0.01129,-0.04105,-0.00916,0.02884,-0.0296
5.31,-0.0061,-0.04684,-0.0499,-0.0087,-0.02563,-0.0502,0.01144,-0.09583,-0.02518,-0.02747,-0.09674,-0.00916,-0.03784,-0.00214,0.03098,-0.03204
5.3105,-0.00961,-0.05325,-0.05035,-0.01022,-0.03204,-0.04776,-0.01434,-0.09476,-0.01923,-0.02975,-0.08621,-0.00839,-0.03387,0.00381,0.03372,-0.04471
