time,RectFemL,VastusMedL,VastusLatL,TibAntL,HamMedL,HamLatL,GastroMedL,GastroLatL,RectFemR,VastusMedR,VastusLatR,TibAntR,HamMedR,HamLatR,GastroMedR,GastroLatR
6.07,-0.08774,-0.04166,-0.06577,0.58868,-0.01328,-0.05615,-0.0267,-0.05768,0.05096,-0.0441,-0.08835,-0.03128,-0.02136,-0.0058,0.00076,-0.11765
6.0705,-0.08911,-0.04898,-0.09903,0.74371,-0.05402,-0.05402,-0.02594,-0.01984,0.04166,-0.06042,-0.11215,-0.04379,-0.02274,-0.00946,-0.00153,-0.11765
6.071,-0.09048,-0.056,-0.10651,0.60135,-0.07843,-0.04791,-0.02258,-0.00076,0.03586,-0.0528,-0.1207,-0.01587,-0.02396,-0.0116,-0.00275,-0.05417
6.0715,-0.08896,-0.0618,-0.09247,0.29037,-0.09415,-0.0444,-0.01892,-0.00168,0.0267,-0.02441,-0.10239,0.0087,-0.02472,-0.01328,-0.00656,0.02167
6.072,-0.08636,-0.06653,-0.07065,0.03174,-0.10986,-0.04425,-0.01572,-0.00931,0.01236,0.01801,-0.0679,0.02213,-0.02548,-0.01602,-0.01801,0.04166
6.0725,-0.08728,-0.06943,-0.05554,-0.0766,-0.12436,-0.0473,-0.01373,-0.00916,0.00076,0.06088,-0.03632,0.0174,-0.0267,-0.01694,-0.02579,0.00702
6.073,-0.09079,-0.06897,-0.05081,-0.09354,-0.12924,-0.05249,-0.01328,0.01526,0.00076,0.08698,-0.01465,-0.02075,-0.0293,-0.01709,-0.01419,-0.02533
6.0735,-0.09476,-0.06607,-0.05463,-0.11444,-0.10788,-0.05478,-0.01343,0.07095,0.01175,0.08987,0.00153,-0.08057,-0.03006,-0.0174,0.01358,-0.02563
6.074,-0.09659,-0.06378,-0.05585,-0.18433,-0.05264,-0.05142,-0.0148,0.1326,0.02213,0.0856,0.01556,-0.12695,-0.03036,-0.01816,0.03784,-0.01434
6.0745,-0.09811,-0.06516,-0.04822,-0.2829,0.01022,-0.04761,-0.01633,0.14771,0.02396,0.09552,0.02594,-0.14114,-0.03082,-0.01816,0.04745,-0.01862
6.075,-0.10056,-0.07614,-0.03067,-0.35706,0.04395,-0.04639,-0.0174,0.09659,0.01877,0.11917,0.0325,-0.12543,-0.03098,-0.01785,0.03265,-0.03159
6.0755,-0.10483,-0.09094,-0.00565,-0.38376,0.0415,-0.04745,-0.01526,0.01755,0.01419,0.13947,0.03601,-0.08362,-0.0325,-0.01877,0.0148,-0.03571
6.076,-0.10696,-0.09247,0.01999,-0.38147,0.02762,-0.04654,-0.01328,-0.0441,0.01389,0.13535,0.03494,-0.02853,-0.03479,-0.01968,0.00458,-0.03006
6.0765,-0.10147,-0.07294,0.03845,-0.37552,0.03387,-0.0412,-0.01251,-0.07645,0.01373,0.10773,0.02457,0.01251,-0.03403,-0.01984,0.00519,-0.02487
6.077,-0.09033,-0.0415,0.0383,-0.36163,0.07523,-0.03281,-0.01266,-0.09125,0.01129,0.06653,0.00854,0.02655,-0.03281,-0.01968,0.01358,-0.02335
6.0775,-0.07904,-0.01389,0.02197,-0.3183,0.13901,-0.02701,-0.01404,-0.09552,0.00549,0.02228,-0.00259,0.03265,-0.02975,-0.01968,0.02518,-0.02274
6.078,-0.07248,0.0061,0.00183,-0.22064,0.18799,-0.02701,-0.01648,-0.08759,-0.00061,-0.0148,-0.0029,0.05203,-0.02853,-0.01984,0.02991,-0.02151
6.0785,-0.07263,0.01694,-0.01328,-0.05753,0.19135,-0.03036,-0.02029,-0.07385,-0.00671,-0.0386,0.00381,0.07904,-0.02853,-0.01953,0.03937,-0.01907
6.079,-0.07614,0.01556,-0.02808,0.12726,0.15839,-0.03647,-0.02213,-0.06042,-0.01068,-0.04913,0.00626,0.0827,-0.02914,-0.01846,0.03922,-0.01663
6.0795,-0.08133,-0.00076,-0.05051,0.2565,0.12421,-0.04349,-0.02014,-0.05188,-0.01297,-0.04974,0.00305,0.02762,-0.0293,-0.02014,0.03647,-0.01709
6.08,-0.0882,-0.02792,-0.07233,0.29037,0.10208,-0.05005,-0.01694,-0.04349,-0.01724,-0.04623,0.00183,-0.09216,-0.03052,-0.02258,0.00854,-0.02014
6.0805,-0.09354,-0.05219,-0.07965,0.26184,0.07004,-0.05295,-0.01648,-0.0354,-0.02533,-0.04181,0.00687,-0.24338,-0.0293,-0.02396,-0.03342,-0.02533
6.081,-0.09583,-0.06561,-0.07767,0.22583,0.0119,-0.05249,-0.01801,-0.03448,-0.03525,-0.03891,0.01709,-0.35568,-0.02808,-0.02487,-0.056,-0.03159
6.0815,-0.09674,-0.07156,-0.07538,0.19455,-0.06531,-0.05081,-0.01846,-0.04883,-0.04349,-0.03891,0.02884,-0.34012,-0.02747,-0.0267,-0.04196,-0.04028
6.082,-0.10193,-0.07706,-0.07965,0.12833,-0.14847,-0.05219,-0.01709,-0.0737,-0.04745,-0.04105,0.03769,-0.14252,-0.02899,-0.03052,-0.01328,-0.0531
6.0825,-0.11292,-0.0798,-0.08255,-0.00702,-0.22766,-0.05814,-0.01404,-0.08896,-0.04684,-0.0441,0.03983,0.1593,-0.03036,-0.03067,-0.00168,-0.06546
6.083,-0.12314,-0.07675,-0.06989,-0.19104,-0.2774,-0.06393,-0.01068,-0.08041,-0.04105,-0.05157,0.03326,0.37186,-0.02975,-0.02396,-0.00275,-0.07019
6.0835,-0.12863,-0.07935,-0.0296,-0.36957,-0.25833,-0.06744,-0.00854,-0.05753,-0.02991,-0.06302,0.02182,0.36575,-0.0264,-0.01373,0.00946,-0.06561
6.084,-0.12817,-0.10025,0.03754,-0.4776,-0.16251,-0.06729,-0.00839,-0.03281,-0.01617,-0.07034,0.01373,0.20615,-0.02014,-0.00748,0.04227,-0.05829
6.0845,-0.12344,-0.12909,0.10529,-0.45883,-0.047,-0.06485,-0.00992,-0.01114,-0.00687,-0.07034,0.00961,0.065,-0.01755,-0.00519,0.07767,-0.05386
6.085,-0.12131,-0.14359,0.14542,-0.29541,0.0116,-0.0647,-0.01175,0.01068,-0.00275,-0.06851,0.00641,0.0383,-0.01541,-0.00565,0.08698,-0.05325
6.0855,-0.11627,-0.13733,0.14038,-0.05402,-0.00763,-0.06546,-0.01099,0.0293,-0.00244,-0.07126,-0.00015,0.07767,-0.01678,-0.0058,0.06485,-0.05249
6.086,-0.10727,-0.12283,0.09033,0.13214,-0.06165,-0.06516,-0.009,0.04425,-0.00305,-0.07614,-0.01053,0.09018,-0.01572,-0.0061,0.03189,-0.05295
6.0865,-0.09491,-0.10635,0.01373,0.17212,-0.09659,-0.05844,-0.00839,0.06561,-0.00351,-0.07477,-0.02411,0.0531,-0.01465,-0.00717,-0.00168,-0.056
6.087,-0.08453,-0.0798,-0.05402,0.12268,-0.09567,-0.0473,-0.00793,0.10803,-0.00412,-0.06378,-0.0354,0.01266,-0.0145,-0.00854,-0.02747,-0.05829
6.0875,-0.07813,-0.03738,-0.08987,0.1593,-0.08789,-0.03616,-0.00565,0.16678,-0.00427,-0.04974,-0.04318,-0.00244,-0.02014,-0.01251,-0.05768,-0.05997
6.088,-0.0737,0.00748,-0.10925,0.34134,-0.11322,-0.02869,-0.00244,0.21194,-0.00412,-0.04364,-0.04715,-0.01312,-0.03265,-0.01862,-0.09735,-0.05768
6.0885,-0.07126,0.03571,-0.13977,0.48141,-0.18524,-0.02869,-0.00275,0.19623,-0.00229,-0.04883,-0.04761,-0.04364,-0.04807,-0.02579,-0.10498,-0.05447
6.089,-0.07172,0.04425,-0.18539,0.38223,-0.25925,-0.03494,-0.00824,0.10529,0.00565,-0.05661,-0.04532,-0.07965,-0.06104,-0.03036,-0.04822,-0.05661
6.0895,-0.07401,0.04562,-0.21729,0.11948,-0.2652,-0.04227,-0.0145,-0.00427,0.02014,-0.05569,-0.03891,-0.09842,-0.06409,-0.02914,0.04562,-0.07172
6.09,-0.07797,0.04944,-0.2095,-0.06744,-0.1889,-0.04532,-0.01663,-0.05127,0.03525,-0.04807,-0.02502,-0.09674,-0.05737,-0.02258,0.08987,-0.09598
6.0905,-0.08163,0.05371,-0.16617,-0.09583,-0.09354,-0.04471,-0.01099,-0.01053,0.04395,-0.05157,-0.00885,-0.0856,-0.04791,-0.01572,0.05646,-0.11429
6.091,-0.08469,0.05386,-0.11475,-0.09155,-0.04623,-0.04379,-0.00153,0.06821,0.04578,-0.07385,-0.00259,-0.10132,-0.03998,-0.01358,0.00671,-0.11246
6.0915,-0.08423,0.05249,-0.07904,-0.17242,-0.04456,-0.04578,0.00732,0.11551,0.04288,-0.10117,-0.01755,-0.1828,-0.03571,-0.01572,-0.00443,-0.09766
6.092,-0.0827,0.05371,-0.05875,-0.30121,-0.05173,-0.04883,0.01007,0.09705,0.03418,-0.1123,-0.05081,-0.29861,-0.03433,-0.01785,0.01205,-0.08377
6.0925,-0.07401,0.05569,-0.04669,-0.32913,-0.0499,-0.04929,0.00702,0.02304,0.01953,-0.10376,-0.07919,-0.32074,-0.03204,-0.0177,0.01862,-0.06119
6.093,-0.0531,0.05127,-0.04044,-0.15396,-0.0441,-0.04761,-0.00259,-0.07126,0.00443,-0.08591,-0.08041,-0.13351,-0.02975,-0.01862,0.01282,-0.00443
6.0935,-0.02594,0.03922,-0.0441,0.14023,-0.04639,-0.04654,-0.02365,-0.14694,-0.00595,-0.0676,-0.05722,0.20355,-0.03021,-0.0209,0.00916,0.06592
6.094,-0.00336,0.02731,-0.05127,0.3447,-0.05219,-0.05066,-0.05585,-0.18234,-0.01572,-0.04883,-0.03479,0.46692,-0.03235,-0.0235,0.01053,0.08499
6.0945,0.00687,0.02319,-0.04959,0.33249,-0.05569,-0.05783,-0.07996,-0.18143,-0.0296,-0.03052,-0.02899,0.48843,-0.03769,-0.02655,0.01175,0.03403
6.095,0.00931,0.02228,-0.03769,0.16525,-0.04456,-0.06088,-0.07126,-0.16495,-0.05096,-0.01999,-0.03189,0.30914,-0.04425,-0.02914,0.01068,-0.02701
6.0955,0.00717,0.01434,-0.02228,-0.00015,-0.00504,-0.05661,-0.03448,-0.16251,-0.07645,-0.0238,-0.02731,0.09796,-0.05005,-0.03189,0.01022,-0.0415
6.096,0.00458,-0.00046,-0.009,-0.06821,0.05692,-0.04776,-0.00351,-0.19867,-0.09903,-0.03708,-0.00931,-0.02594,-0.05432,-0.03479,0.01114,-0.02396
6.0965,0.00031,-0.01862,0.00778,-0.05081,0.11566,-0.04364,0.00015,-0.26047,-0.11353,-0.05142,0.00992,-0.05829,-0.05722,-0.03845,0.01175,-0.01663
6.097,-0.00458,-0.0351,0.02777,-0.02625,0.1413,-0.04761,-0.01129,-0.29068,-0.12024,-0.06134,0.00381,-0.03723,-0.0618,-0.04227,0.01221,-0.02609
6.0975,-0.00946,-0.04745,0.03296,-0.06577,0.12939,-0.05493,-0.02045,-0.2446,-0.12177,-0.06699,-0.05569,0.00519,-0.06409,-0.0415,0.00778,-0.03418
6.098,-0.01312,-0.05417,0.00351,-0.16617,0.09705,-0.06104,-0.02411,-0.14313,-0.11963,-0.0705,-0.15549,0.03662,-0.06317,-0.03601,0.00412,-0.03571
6.0985,-0.01602,-0.05981,-0.04883,-0.25604,0.0621,-0.0621,-0.02716,-0.0412,-0.11124,-0.07111,-0.21317,0.02838,-0.05875,-0.02762,0.0061,-0.03464
6.099,-0.01816,-0.06668,-0.08148,-0.27054,0.02319,-0.05859,-0.02975,0.02945,-0.09171,-0.07034,-0.16281,-0.00702,-0.05173,-0.02365,0.01007,-0.03525
6.0995,-0.02029,-0.07782,-0.06897,-0.2182,-0.02625,-0.05478,-0.02899,0.07324,-0.06165,-0.06454,-0.04425,-0.03204,-0.04288,-0.02518,0.01389,-0.03525
6.1,-0.01953,-0.08972,-0.03311,-0.14191,-0.07813,-0.05081,-0.02686,0.09781,-0.03052,-0.05203,0.04486,-0.05463,-0.03922,-0.02731,0.01663,-0.03464
6.1005,-0.01297,-0.09933,-0.01465,-0.04944,-0.11078,-0.04318,-0.02365,0.09811,-0.00961,-0.02487,0.06973,-0.10727,-0.03922,-0.02518,0.01389,-0.0351
6.101,-0.00137,-0.103,-0.02808,0.06699,-0.11215,-0.0322,-0.01831,0.07736,-0.00275,0.01785,0.06989,-0.17181,-0.03876,-0.02045,0.01282,-0.03647
6.1015,0.01053,-0.09888,-0.05295,0.16846,-0.10529,-0.02441,-0.01266,0.05157,-0.0061,0.06485,0.07751,-0.18997,-0.0386,-0.01587,0.01083,-0.03799
6.102,0.01831,-0.09277,-0.06912,0.19867,-0.10803,-0.02731,-0.00732,0.03174,-0.01389,0.11337,0.0914,-0.13184,-0.03601,-0.01038,0.00946,-0.03998
6.1025,0.01984,-0.09323,-0.06592,0.1825,-0.10269,-0.03586,-0.00732,0.01556,-0.02502,0.16907,0.10498,-0.03265,-0.03464,-0.00702,0.00839,-0.04303
6.103,0.02487,-0.09964,-0.04211,0.18845,-0.06989,-0.04044,-0.01053,-0.00092,-0.03754,0.22736,0.11093,0.02899,-0.03296,-0.00748,0.00916,-0.04593
6.1035,0.03632,-0.10498,-0.00229,0.21866,-0.02609,-0.04166,-0.01465,-0.0029,-0.04639,0.25894,0.09888,-0.01068,-0.03098,-0.01358,0.00748,-0.04761
6.104,0.05035,-0.1033,0.03723,0.20538,-0.00504,-0.04272,-0.01419,0.0177,-0.04364,0.23376,0.07248,-0.12222,-0.03159,-0.02014,0.00336,-0.04913
6.1045,0.05753,-0.10178,0.05341,0.11002,-0.00458,-0.04471,-0.00961,0.04257,-0.03052,0.15747,0.05005,-0.16983,-0.03021,-0.02167,0.00107,-0.04974
6.105,0.05539,-0.10773,0.03845,-0.02228,0.00259,-0.04349,-0.00595,0.04822,-0.01602,0.06042,0.04074,-0.06851,-0.02808,-0.01877,0.0,-0.04837
6.1055,0.04684,-0.12085,0.01175,-0.08209,0.03311,-0.03769,-0.00748,0.0383,-0.00793,-0.0235,0.0296,0.0943,-0.02853,-0.01419,0.0,-0.04883
6.106,0.0383,-0.13641,-0.00839,0.00061,0.06989,-0.03326,-0.01221,0.03616,-0.009,-0.0708,0.00504,0.16068,-0.02777,-0.0116,0.00214,-0.05081
6.1065,0.0325,-0.15564,-0.02014,0.12756,0.08575,-0.03342,-0.0145,0.05447,-0.0119,-0.07538,-0.0209,0.10513,-0.02731,-0.00748,0.00305,-0.05478
6.107,0.02914,-0.17914,-0.02899,0.09995,0.07217,-0.03723,-0.01373,0.08499,-0.00977,-0.05203,-0.03281,0.04959,-0.02365,-0.00366,0.00656,-0.05829
6.1075,0.02731,-0.20035,-0.0322,-0.10178,0.04242,-0.04089,-0.01038,0.1178,-0.00534,-0.02472,-0.03357,0.06195,-0.01968,-0.00381,0.00839,-0.05966
6.108,0.02655,-0.20416,-0.02335,-0.27344,0.01633,-0.04608,-0.00839,0.15717,-0.00366,-0.00153,-0.03296,0.07446,-0.01877,-0.00839,-0.00015,-0.05936
6.1085,0.02411,-0.18524,-0.00916,-0.28763,0.00397,-0.05386,-0.01038,0.20554,-0.00824,0.01877,-0.03021,0.01678,-0.01831,-0.01297,-0.01297,-0.05737
6.109,0.02197,-0.15106,-0.00656,-0.27985,0.00046,-0.06271,-0.01434,0.2327,-0.01587,0.03479,-0.01373,-0.0766,-0.01984,-0.01511,-0.02655,-0.05508
6.1095,0.0206,-0.11322,-0.02441,-0.41977,-0.00977,-0.06851,-0.01801,0.20981,-0.01892,0.03952,0.01602,-0.13107,-0.02167,-0.0145,-0.03387,-0.0528
6.11,0.01968,-0.0827,-0.04959,-0.63766,-0.03845,-0.06699,-0.0174,0.15671,-0.01495,0.03693,0.03967,-0.12466,-0.02335,-0.01495,-0.0322,-0.05478
6.1105,0.01785,-0.06439,-0.06012,-0.70786,-0.07767,-0.05966,-0.01358,0.1181,-0.00488,0.0386,0.04089,-0.07706,-0.0238,-0.01648,-0.02335,-0.06256
6.111,0.01602,-0.05295,-0.04929,-0.52094,-0.09842,-0.0531,-0.0087,0.0972,0.00977,0.04852,0.02213,-0.02258,-0.02289,-0.01785,-0.01617,-0.07263
6.1115,0.01556,-0.04318,-0.02533,-0.17517,-0.07629,-0.04929,-0.00641,0.06927,0.02563,0.05966,-0.00137,0.01068,-0.02365,-0.0177,-0.00687,-0.08148
6.112,0.01495,-0.03052,-0.00275,0.15305,-0.0267,-0.04822,-0.00534,0.03754,0.03738,0.06287,-0.02213,0.01419,-0.0264,-0.0177,0.00809,-0.09155
6.1125,0.01022,-0.01099,0.00931,0.336,0.00366,-0.04517,-0.00534,0.02457,0.04166,0.05356,-0.04257,0.00381,-0.03143,-0.01953,0.03555,-0.11505
6.113,0.00076,0.01602,0.00946,0.34988,-0.0087,-0.04028,-0.00519,0.01663,0.04044,0.02808,-0.0676,0.00397,-0.03708,-0.02136,0.07126,-0.1535
6.1135,-0.00732,0.04364,-0.00626,0.26779,-0.04837,-0.03876,-0.00549,-0.02899,0.03845,-0.0119,-0.0972,0.01526,-0.03937,-0.02197,0.10117,-0.17288
6.114,-0.00961,0.065,-0.03403,0.19699,-0.07889,-0.04028,-0.00427,-0.11597,0.0351,-0.04852,-0.12802,0.01434,-0.03815,-0.0206,0.10498,-0.11856
6.1145,-0.00824,0.07751,-0.05859,0.18295,-0.07828,-0.04364,-0.00214,-0.19806,0.02655,-0.06744,-0.15015,-0.02411,-0.03494,-0.01892,0.08347,0.00595
6.115,-0.00778,0.07645,-0.06256,0.1886,-0.04684,-0.0441,0.00031,-0.25131,0.00946,-0.06714,-0.14786,-0.08484,-0.03296,-0.01938,0.04807,0.10513
6.1155,-0.01328,0.0589,-0.04883,0.16235,-0.01175,-0.04318,0.00153,-0.3096,-0.01541,-0.06119,-0.11795,-0.12131,-0.03296,-0.02228,0.01282,0.10025
6.116,-0.0148,0.03662,-0.03876,0.11047,0.0148,-0.04486,0.00122,-0.39185,-0.04105,-0.06088,-0.08102,-0.1178,-0.03464,-0.02579,-0.02289,0.02884
6.1165,-0.0032,0.0325,-0.04425,0.07553,0.03723,-0.04807,0.00183,-0.44434,-0.06241,-0.06851,-0.05478,-0.10498,-0.03601,-0.02853,-0.06256,-0.01816
6.117,0.01938,0.05081,-0.0592,0.0705,0.06363,-0.04837,0.00122,-0.39902,-0.08057,-0.08026,-0.03998,-0.10315,-0.03632,-0.0293,-0.09125,-0.01358
6.1175,0.04196,0.07339,-0.07263,0.07065,0.09201,-0.04608,-0.00107,-0.25482,-0.09598,-0.09064,-0.02502,-0.07004,-0.03555,-0.02808,-0.07385,-0.00137
6.118,0.05249,0.08881,-0.07858,0.06668,0.10208,-0.04486,-0.00595,-0.07248,-0.10559,-0.09781,-0.00351,0.0322,-0.03433,-0.02533,-0.01099,-0.01266
6.1185,0.04898,0.09674,-0.07858,0.0769,0.08987,-0.04333,-0.01221,0.08621,-0.10773,-0.09888,0.02365,0.14542,-0.03433,-0.02411,0.04669,-0.03326
6.119,0.0383,0.09949,-0.06866,0.11368,0.05951,-0.04379,-0.01556,0.19943,-0.10559,-0.09552,0.04486,0.16846,-0.03571,-0.02563,0.05356,-0.04257
6.1195,0.02655,0.09232,-0.05096,0.159,0.01114,-0.04501,-0.01663,0.26413,-0.10178,-0.09064,0.04456,0.10498,-0.0386,-0.02823,0.02609,-0.04196
6.12,0.01556,0.07263,-0.03082,0.17319,-0.05478,-0.04837,-0.01511,0.27313,-0.09354,-0.08636,0.02289,0.05203,-0.04257,-0.03006,0.0061,-0.03983
6.1205,0.00717,0.04349,-0.01999,0.13687,-0.12299,-0.05249,-0.01144,0.22461,-0.08118,-0.07935,0.00366,0.05936,-0.04364,-0.02899,0.0087,-0.03952
6.121,0.00244,0.00946,-0.02441,0.06302,-0.18204,-0.05676,-0.00565,0.13992,-0.06744,-0.07385,0.00244,0.08194,-0.04013,-0.02411,0.0148,-0.03998
6.1215,0.00412,-0.02502,-0.04272,-0.009,-0.22644,-0.06241,0.00015,0.05035,-0.05707,-0.08041,0.01175,0.06882,-0.03372,-0.0177,0.01297,-0.04059
6.122,0.01495,-0.05356,-0.06012,-0.04166,-0.23285,-0.0647,0.00092,-0.02487,-0.05447,-0.10361,0.01343,0.01755,-0.02823,-0.01556,0.00931,-0.04181
6.1225,0.03296,-0.06882,-0.07172,-0.01923,-0.16159,-0.06027,-0.00473,-0.07874,-0.05798,-0.13062,0.00214,-0.04211,-0.02426,-0.01907,0.01068,-0.04288
6.123,0.05035,-0.0705,-0.06927,0.03784,-0.03098,-0.04959,-0.01343,-0.1088,-0.06134,-0.14511,-0.01312,-0.06348,-0.01953,-0.02518,0.01297,-0.04196
6.1235,0.05997,-0.07004,-0.05661,0.07401,0.07629,-0.03845,-0.02014,-0.11108,-0.05936,-0.14526,-0.02197,-0.01373,-0.0145,-0.02777,0.01114,-0.04013
6.124,0.06287,-0.07294,-0.04242,0.03433,0.10391,-0.03464,-0.02197,-0.08179,-0.05096,-0.13474,-0.01816,0.07797,-0.01099,-0.02472,0.01266,-0.04074
6.1245,0.06042,-0.07538,-0.03036,-0.07004,0.07645,-0.0386,-0.02029,-0.02472,-0.0412,-0.11795,-0.00748,0.12848,-0.00793,-0.01785,0.00626,-0.0415
6.125,0.056,-0.06927,-0.02121,-0.14771,0.047,-0.04456,-0.01648,0.03983,-0.03357,-0.09933,-0.00137,0.08545,-0.00519,-0.01114,0.00748,-0.04303
6.1255,0.0528,-0.06134,-0.01663,-0.11108,0.02563,-0.04974,-0.01434,0.07767,-0.02823,-0.08286,-0.00549,-0.00473,-0.00565,-0.00992,0.00565,-0.04639
6.126,0.05402,-0.06332,-0.01694,0.0264,-0.00076,-0.05341,-0.01404,0.06882,-0.02518,-0.0647,-0.01053,-0.05081,-0.00778,-0.0119,0.00519,-0.05783
6.1265,0.05966,-0.0798,-0.01678,0.17227,-0.03723,-0.05676,-0.0145,0.03372,-0.02518,-0.03448,-0.00458,-0.02701,-0.009,-0.01389,0.00519,-0.0798
6.127,0.06699,-0.09995,-0.01312,0.26031,-0.09308,-0.05951,-0.01297,0.01419,-0.03082,0.00824,0.01678,0.01694,-0.00778,-0.01526,0.0032,-0.10941
6.1275,0.07629,-0.10834,-0.00809,0.2858,-0.17395,-0.06302,-0.01114,0.02838,-0.03708,0.04837,0.03723,0.0322,-0.00519,-0.01373,0.00137,-0.14297
6.128,0.09903,-0.10223,-0.00809,0.2533,-0.25558,-0.06775,-0.01236,0.05768,-0.03372,0.06729,0.03571,0.02335,-0.00458,-0.01099,-0.00351,-0.18494
6.1285,0.14252,-0.0914,-0.01419,0.15106,-0.28458,-0.07233,-0.01663,0.07996,-0.01694,0.06531,0.01358,0.01465,-0.00946,-0.00961,-0.00687,-0.22552
6.129,0.19226,-0.08163,-0.02365,-0.00656,-0.23758,-0.07309,-0.02045,0.09521,0.01099,0.0621,-0.01831,0.0145,-0.01831,-0.01007,-0.01129,-0.22446
6.1295,0.22751,-0.07233,-0.02945,-0.15625,-0.15045,-0.06927,-0.02106,0.10788,0.03891,0.07309,-0.05692,0.01633,-0.02731,-0.01053,-0.0174,-0.13779
6.13,0.24033,-0.06104,-0.03021,-0.24368,-0.07874,-0.06271,-0.02106,0.11505,0.05905,0.0943,-0.09796,0.01495,-0.03372,-0.00916,-0.02655,0.00336
6.1305,0.24155,-0.05142,-0.02518,-0.26794,-0.04059,-0.05661,-0.02258,0.10788,0.07172,0.10742,-0.11948,0.01343,-0.0354,-0.00824,-0.03632,0.1001
6.131,0.24445,-0.04471,-0.01968,-0.25574,-0.0145,-0.05341,-0.02533,0.08987,0.07965,0.10376,-0.10239,0.0116,-0.03571,-0.00916,-0.03967,0.09537
6.1315,0.25131,-0.04013,-0.01312,-0.22766,0.02472,-0.04837,-0.02762,0.06866,0.08179,0.08148,-0.05463,0.01099,-0.03784,-0.01282,-0.03586,0.04257
6.132,0.25711,-0.0354,-0.01419,-0.18585,0.07523,-0.04135,-0.03235,0.04547,0.07813,0.04349,-0.00732,0.00931,-0.04089,-0.01633,-0.03036,0.02213
6.1325,0.2626,-0.03403,-0.02594,-0.12375,0.11871,-0.03464,-0.03754,0.01221,0.07599,-0.00381,0.01968,0.0061,-0.04257,-0.01785,-0.02945,0.03479
6.133,0.27283,-0.03525,-0.04013,-0.04547,0.13214,-0.03235,-0.03983,-0.04791,0.07828,-0.05554,0.03006,0.0032,-0.04272,-0.01877,-0.04318,0.01892
6.1335,0.28824,-0.03601,-0.05692,0.01007,0.1088,-0.03448,-0.03784,-0.14175,0.0708,-0.10635,0.02838,0.00244,-0.04166,-0.01953,-0.0563,-0.06653
6.134,0.3006,-0.03601,-0.05692,0.00275,0.05478,-0.03738,-0.03403,-0.24277,0.04166,-0.15076,-0.0029,0.00336,-0.0415,-0.02106,-0.04349,-0.15717
6.1345,0.29907,-0.03571,-0.04639,-0.0441,-0.01312,-0.03784,-0.02869,-0.29739,0.0,-0.18204,-0.06073,0.00336,-0.04349,-0.02151,0.00732,-0.15945
6.135,0.28198,-0.03632,-0.02747,-0.0737,-0.0705,-0.03693,-0.02441,-0.27313,-0.0354,-0.19653,-0.09537,-0.00153,-0.04654,-0.02136,0.07294,-0.06943
6.1355,0.25726,-0.04379,-0.00717,-0.06821,-0.10544,-0.03693,-0.02106,-0.18417,-0.05905,-0.19211,-0.0618,-0.009,-0.04959,-0.02075,0.12131,0.04532
6.136,0.23117,-0.06927,0.00153,-0.06393,-0.11459,-0.04044,-0.01907,-0.06866,-0.0766,-0.16998,0.01175,-0.01297,-0.0531,-0.02151,0.13733,0.11856
6.1365,0.20508,-0.11292,-0.00443,-0.09903,-0.10757,-0.04532,-0.01785,0.04059,-0.09781,-0.14099,0.07111,-0.01129,-0.05463,-0.02335,0.1181,0.12955
6.137,0.18234,-0.15808,-0.01389,-0.17365,-0.09399,-0.0502,-0.01587,0.12131,-0.12527,-0.1088,0.10498,-0.00931,-0.05463,-0.02686,0.07599,0.09293
6.1375,0.16556,-0.18372,-0.01099,-0.24307,-0.06958,-0.05264,-0.01175,0.16312,-0.15427,-0.06744,0.1239,-0.00977,-0.05585,-0.03036,0.03876,0.04562
6.138,0.15594,-0.17883,0.00259,-0.26108,-0.03601,-0.05295,-0.00885,0.15976,-0.17548,-0.0058,0.11642,-0.01282,-0.05814,-0.0351,0.04181,0.0264
6.1385,0.14938,-0.14938,0.01541,-0.22766,-0.00626,-0.04959,-0.01038,0.11719,-0.18204,0.05722,0.07553,-0.01526,-0.0592,-0.03723,0.08469,0.03326
6.139,0.14023,-0.10666,0.01678,-0.19882,0.01022,-0.04562,-0.01617,0.05585,-0.17593,0.08911,0.02319,-0.01846,-0.05905,-0.03815,0.13428,0.03952
6.1395,0.12573,-0.05936,-0.00061,-0.22781,0.01724,-0.04211,-0.02319,0.00061,-0.16434,0.08041,-0.01602,-0.02258,-0.05722,-0.0351,0.14542,0.02686
6.14,0.10071,-0.01511,-0.04227,-0.28366,0.02213,-0.03952,-0.0267,-0.03235,-0.1532,0.05615,-0.04242,-0.02655,-0.05432,-0.02945,0.10544,0.0058
6.1405,0.06882,0.01633,-0.08652,-0.23697,0.02686,-0.03998,-0.0264,-0.04364,-0.14694,0.04395,-0.05951,-0.02808,-0.05066,-0.02289,0.03387,0.00137
6.141,0.04044,0.02151,-0.09613,0.01968,0.0293,-0.04318,-0.02548,-0.0412,-0.14343,0.04303,-0.06592,-0.02838,-0.04776,-0.01984,-0.0267,0.01816
6.1415,0.02274,-0.00397,-0.05661,0.37338,0.03235,-0.04547,-0.02716,-0.03418,-0.13687,0.04181,-0.06561,-0.0267,-0.04547,-0.01709,-0.04791,0.03204
6.142,0.01328,-0.04303,-0.00305,0.51971,0.04105,-0.04272,-0.03052,-0.02945,-0.12115,0.03448,-0.07294,-0.02487,-0.04333,-0.01526,-0.03448,0.01892
6.1425,0.00595,-0.0676,0.00946,0.29968,0.05966,-0.03708,-0.03265,-0.02686,-0.09766,0.02029,-0.09567,-0.02106,-0.03952,-0.01328,-0.00931,-0.00549
6.143,0.00092,-0.0647,-0.02914,-0.10254,0.08499,-0.03052,-0.03296,-0.02457,-0.07095,0.00687,-0.11887,-0.01633,-0.03265,-0.01099,0.00168,0.01373
6.1435,0.00092,-0.04227,-0.08438,-0.40741,0.10345,-0.02563,-0.03296,-0.02151,-0.0441,0.00534,-0.12543,-0.0116,-0.02411,-0.00717,-0.00214,0.11185
6.144,0.0029,-0.01236,-0.11627,-0.5043,0.09842,-0.02411,-0.03326,-0.01877,-0.01602,0.02487,-0.11063,-0.01129,-0.01526,-0.00259,-0.00488,0.23773
6.1445,-0.00473,0.01755,-0.1181,-0.39185,0.06699,-0.0264,-0.0325,-0.01694,0.01129,0.06668,-0.08652,-0.01572,-0.00931,0.00031,0.0325,0.3006
6.145,-0.02716,0.04013,-0.09827,-0.07248,0.0267,-0.03067,-0.02945,-0.01526,0.03372,0.12299,-0.06454,-0.02136,-0.00839,0.00183,0.11642,0.25742
6.1455,-0.05341,0.0499,-0.06622,0.37506,0.00397,-0.03525,-0.02502,-0.01205,0.047,0.17441,-0.04837,-0.02075,-0.00809,0.00412,0.17868,0.14847
6.146,-0.07492,0.05081,-0.02563,0.77332,0.00824,-0.03769,-0.0206,-0.00626,0.05585,0.18997,-0.0415,-0.01343,-0.0061,0.00778,0.13687,0.02914
6.1465,-0.09354,0.04791,0.01373,0.95871,0.02243,-0.03922,-0.01572,-0.00092,0.06424,0.15137,-0.04288,-0.00244,-0.00259,0.00931,0.01709,-0.08179
6.147,-0.1149,0.04166,0.04135,0.90515,0.01617,-0.0415,-0.01343,-0.00046,0.07065,0.06577,-0.04211,0.00748,0.00061,0.00732,-0.06729,-0.17578
6.1475,-0.13672,0.02914,0.05356,0.71472,-0.01602,-0.04883,-0.01556,-0.00626,0.07278,-0.0209,-0.03448,0.01358,0.00214,0.00473,-0.06622,-0.2449
6.148,-0.15472,0.01114,0.05737,0.51559,-0.04684,-0.05646,-0.0206,-0.01434,0.07278,-0.06714,-0.02121,0.01221,0.00488,0.00351,-0.04242,-0.29587
6.1485,-0.17151,-0.00656,0.05203,0.36575,-0.04684,-0.0592,-0.0235,-0.01831,0.07523,-0.06714,-0.01266,0.0087,0.0116,0.00534,-0.06058,-0.34943
6.149,-0.1973,-0.02319,0.02747,0.23071,-0.02045,-0.05539,-0.02182,-0.01587,0.0798,-0.04196,-0.01144,0.00641,0.01831,0.00656,-0.10376,-0.40741
6.1495,-0.2417,-0.04211,-0.01816,0.07141,-0.00458,-0.04898,-0.01633,-0.00717,0.08011,-0.01144,-0.01038,0.00854,0.02182,0.0058,-0.12207,-0.43289
6.15,-0.30807,-0.06195,-0.07004,-0.08698,-0.02792,-0.04486,-0.01038,0.00168,0.07294,0.01678,-0.00717,0.00946,0.02151,0.0032,-0.10757,-0.38071
6.1505,-0.383,-0.0737,-0.10788,-0.20081,-0.08118,-0.04562,-0.00595,0.00809,0.06088,0.04089,-0.00427,0.00732,0.01892,-0.00183,-0.07706,-0.24887
6.151,-0.43762,-0.07599,-0.12405,-0.30396,-0.13794,-0.0499,-0.00198,0.01343,0.04883,0.05722,-0.00565,0.00351,0.0145,-0.00854,-0.05127,-0.1152
6.1515,-0.45578,-0.08682,-0.12573,-0.46844,-0.16846,-0.0528,0.00092,0.01846,0.03738,0.06393,-0.00839,-0.00046,0.00885,-0.01434,-0.03571,-0.0676
6.152,-0.45288,-0.12451,-0.12146,-0.67261,-0.15762,-0.05524,0.00229,0.01999,0.02411,0.06226,-0.01038,-0.00519,-0.00153,-0.0206,-0.02655,-0.10544
6.1525,-0.44907,-0.18127,-0.11215,-0.80887,-0.11536,-0.05463,0.00336,0.01709,0.01099,0.04959,-0.01022,-0.009,-0.01984,-0.03067,-0.02228,-0.14801
6.153,-0.448,-0.23193,-0.09201,-0.83359,-0.07034,-0.05112,0.00473,0.01389,0.00046,0.02274,-0.00916,-0.00885,-0.04669,-0.04089,-0.01968,-0.14313
6.1535,-0.44571,-0.26306,-0.06317,-0.80933,-0.03189,-0.04608,0.00793,0.01404,-0.00656,-0.01175,-0.00885,-0.00626,-0.06897,-0.04578,-0.01785,-0.11154
6.154,-0.44357,-0.26932,-0.03189,-0.77942,0.00977,-0.04318,0.00992,0.01633,-0.01144,-0.04044,-0.00885,-0.00534,-0.08224,-0.0441,-0.01495,-0.09476
6.1545,-0.4454,-0.24384,-0.00809,-0.67215,0.04761,-0.04288,0.01053,0.01724,-0.01465,-0.05478,-0.009,-0.00641,-0.09018,-0.03891,-0.00992,-0.10056
6.155,-0.45044,-0.18677,0.00397,-0.35187,0.05707,-0.04272,0.01114,0.01709,-0.0174,-0.05859,-0.01114,-0.00748,-0.0972,-0.03387,-0.00534,-0.10941
6.1555,-0.45868,-0.11703,-0.00366,0.20203,0.02243,-0.0441,0.01251,0.01694,-0.01892,-0.06226,-0.01434,-0.00626,-0.09903,-0.02899,-0.00122,-0.11032
6.156,-0.47073,-0.04883,-0.02518,0.73303,-0.03067,-0.04913,0.01343,0.0174,-0.02045,-0.06683,-0.01495,-0.00702,-0.09216,-0.02548,-0.00092,-0.10544
6.1565,-0.48325,0.01495,-0.04623,0.87692,-0.07233,-0.05615,0.01129,0.01358,-0.02121,-0.06882,-0.0119,-0.01053,-0.07782,-0.02243,-0.00397,-0.09903
6.157,-0.48813,0.06653,-0.05768,0.55557,-0.10391,-0.05951,0.00473,0.00381,-0.02243,-0.0679,-0.00748,-0.01511,-0.05905,-0.02289,-0.00992,-0.09415
6.1575,-0.47821,0.0885,-0.06149,0.11032,-0.14633,-0.05737,-0.00275,-0.00687,-0.02213,-0.06775,-0.00717,-0.01617,-0.04089,-0.02716,-0.01617,-0.08698
6.158,-0.46021,0.07248,-0.06638,-0.07858,-0.2124,-0.05219,-0.00809,-0.01328,-0.02014,-0.06958,-0.01144,-0.01389,-0.0293,-0.03143,-0.01755,-0.07736
6.1585,-0.44617,0.04456,-0.06943,0.02029,-0.26886,-0.04745,-0.00778,-0.01251,-0.01785,-0.07172,-0.01266,-0.01007,-0.02472,-0.03296,-0.01419,-0.06607
6.159,-0.43747,0.03616,-0.06241,0.16586,-0.25635,-0.04517,-0.00412,-0.00793,-0.01541,-0.07324,-0.01007,-0.00458,-0.02274,-0.03372,-0.00809,-0.05493
6.1595,-0.42374,0.04913,-0.04623,0.18982,-0.16357,-0.04364,0.0,-0.00336,-0.01358,-0.07339,-0.00717,0.00229,-0.01984,-0.03372,-0.00275,-0.04333
6.16,-0.39993,0.06058,-0.03143,0.12497,-0.0621,-0.04272,0.00412,0.0,-0.0119,-0.07446,-0.00824,0.0058,-0.01587,-0.03098,0.00107,-0.03601
6.1605,-0.3717,0.0589,-0.02594,0.05234,-0.02625,-0.04272,0.00748,0.00336,-0.01068,-0.07492,-0.01129,0.00473,-0.00977,-0.02563,0.00671,-0.03006
6.161,-0.35126,0.05508,-0.03036,-0.03494,-0.04791,-0.04333,0.00946,0.0087,-0.00946,-0.0737,-0.0116,-0.00153,-0.00549,-0.01801,0.01526,-0.0264
6.1615,-0.34363,0.05249,-0.03647,-0.1564,-0.06485,-0.04166,0.01053,0.01434,-0.00946,-0.0705,-0.00885,-0.00854,-0.0061,-0.01114,0.02792,-0.02228
6.162,-0.3476,0.0444,-0.03677,-0.2713,-0.04608,-0.03784,0.01022,0.01999,-0.00992,-0.06882,-0.00519,-0.01175,-0.01083,-0.00793,0.04395,-0.02045
6.1625,-0.35477,0.02686,-0.02594,-0.34378,-0.00427,-0.03281,0.00977,0.02274,-0.01038,-0.06744,-0.00229,-0.009,-0.01526,-0.00916,0.06119,-0.01999
6.163,-0.35263,0.01236,0.00183,-0.41183,0.03738,-0.02808,0.00931,0.02151,-0.01068,-0.06622,-0.00122,-0.00046,-0.01862,-0.01541,0.07462,-0.02075
6.1635,-0.33508,0.01205,0.03555,-0.50629,0.06973,-0.02701,0.00748,0.01648,-0.01068,-0.06424,-0.00153,0.00732,-0.02899,-0.02396,0.07584,-0.02792
6.164,-0.30838,0.01755,0.03967,-0.54153,0.08255,-0.03143,0.00427,0.01144,-0.01099,-0.06241,-0.0029,0.00885,-0.04944,-0.02975,0.06485,-0.04288
6.1645,-0.27802,0.01266,-0.00366,-0.39993,0.06973,-0.03967,0.00229,0.01038,-0.01083,-0.06027,-0.00412,0.00488,-0.0737,-0.02975,0.0473,-0.07278
6.165,-0.24567,-0.0032,-0.0621,-0.10773,0.04349,-0.04593,0.00366,0.01068,-0.01068,-0.05905,-0.00534,0.00153,-0.09338,-0.03128,0.03113,-0.1149
6.1655,-0.20721,-0.01938,-0.08667,0.1857,0.02304,-0.04623,0.00488,0.01205,-0.01129,-0.05768,-0.00427,0.00275,-0.10925,-0.03876,0.0206,-0.14908
6.166,-0.16479,-0.03036,-0.06989,0.39215,0.00946,-0.04288,0.00366,0.0116,-0.01266,-0.05646,-0.00183,0.00656,-0.12268,-0.05081,0.01144,-0.1561
6.1665,-0.12619,-0.04242,-0.04532,0.53085,-0.01373,-0.03998,-0.00107,0.01007,-0.01373,-0.0528,-0.00046,0.01068,-0.12985,-0.05569,-0.01038,-0.14191
6.167,-0.09399,-0.05844,-0.0412,0.60959,-0.05524,-0.03983,-0.00427,0.00793,-0.01328,-0.04883,0.00031,0.01495,-0.13,-0.05249,-0.05554,-0.13306
6.1675,-0.06531,-0.07553,-0.05173,0.58167,-0.08942,-0.04166,-0.00488,0.009,-0.01266,-0.04532,0.00061,0.01831,-0.12924,-0.0473,-0.103,-0.1265
6.168,-0.04166,-0.08621,-0.05539,0.44861,-0.09781,-0.04379,-0.00534,0.01251,-0.01328,-0.04333,0.00244,0.01816,-0.13123,-0.04395,-0.09628,-0.07492
6.1685,-0.0206,-0.08423,-0.04089,0.31296,-0.08347,-0.04532,-0.00656,0.01495,-0.01678,-0.04272,0.00824,0.01434,-0.13397,-0.04349,-0.0148,0.06195
6.169,0.00275,-0.06409,-0.01358,0.26001,-0.06561,-0.04364,-0.01022,0.01328,-0.0209,-0.04395,0.01526,0.01205,-0.13077,-0.04242,0.07416,0.21973
6.1695,0.03052,-0.03189,0.02197,0.25208,-0.04379,-0.03754,-0.01419,0.009,-0.02151,-0.04608,0.02151,0.01297,-0.11627,-0.03967,0.09247,0.26932
6.17,0.05951,-0.00214,0.03708,0.21057,-0.02777,-0.03128,-0.0174,0.00443,-0.01831,-0.04913,0.02518,0.01053,-0.08972,-0.03647,0.04944,0.1799
6.1705,0.08331,0.01343,0.03265,0.1358,-0.01328,-0.02808,-0.02045,0.00107,-0.01419,-0.0502,0.02594,-0.00443,-0.05524,-0.0351,0.01297,0.06287
6.171,0.09964,0.01602,0.01709,0.08057,-0.00076,-0.03067,-0.02289,-0.00031,-0.0119,-0.04745,0.02365,-0.03326,-0.01938,-0.03235,0.01541,0.02914
6.1715,0.11276,0.00458,-0.00763,0.04669,0.00336,-0.03906,-0.02472,-0.00061,-0.01251,-0.05005,0.01801,-0.06195,0.01114,-0.02914,0.02792,0.06775
6.172,0.13046,-0.02274,-0.03021,-0.01251,0.00336,-0.04623,-0.02716,-0.00183,-0.01434,-0.05386,0.00519,-0.07172,0.02441,-0.02884,0.01953,0.09796
6.1725,0.1535,-0.05554,-0.05157,-0.10895,0.0032,-0.04669,-0.03159,-0.00244,-0.01556,-0.05417,-0.01816,-0.05264,0.0206,-0.0322,0.009,0.0827
6.173,0.17975,-0.07233,-0.06012,-0.18188,-0.00046,-0.03998,-0.03723,-0.0029,-0.01556,-0.05508,-0.04837,-0.01541,0.0087,-0.03647,0.009,0.04501
6.1735,0.19638,-0.06821,-0.05295,-0.16464,-0.00519,-0.03387,-0.04089,-0.00473,-0.01648,-0.04883,-0.07797,0.00931,-0.00427,-0.0386,0.01663,0.01617
6.174,0.20096,-0.05692,-0.03281,-0.06485,-0.00702,-0.03204,-0.04211,-0.00793,-0.02045,-0.03906,-0.10025,-0.00488,-0.01755,-0.03723,0.02121,-0.00168
6.1745,0.20004,-0.05203,-0.01022,0.03983,-0.01144,-0.03159,-0.03983,-0.00854,-0.02518,-0.02792,-0.10254,-0.03265,-0.03357,-0.03342,0.01999,-0.01572
6.175,0.20187,-0.05966,0.00687,0.09064,-0.01251,-0.02945,-0.03754,-0.00549,-0.02792,-0.02106,-0.07645,-0.00183,-0.047,-0.02365,0.01953,-0.02518
6.1755,0.20706,-0.07935,0.00656,0.0972,-0.01068,-0.02808,-0.03571,-0.00183,-0.02792,-0.01404,-0.03677,0.09766,-0.05325,-0.01144,0.01801,-0.02747
6.176,0.21759,-0.10223,-0.02151,0.09705,0.00046,-0.03128,-0.03494,-0.00015,-0.02563,-0.00824,-0.00793,0.16968,-0.05478,-0.00198,0.01663,-0.02502
6.1765,0.23422,-0.11017,-0.07187,0.07507,0.02457,-0.03922,-0.03571,-0.00168,-0.02228,-0.00504,0.00153,0.13474,-0.06058,0.00168,0.01663,-0.02396
6.177,0.25223,-0.09537,-0.103,-0.01328,0.05875,-0.04913,-0.03723,-0.00381,-0.01816,-0.00214,0.00473,0.04288,-0.07233,0.00137,0.01724,-0.02304
6.1775,0.2652,-0.06516,-0.0853,-0.15778,0.07385,-0.06973,-0.03769,-0.00534,-0.01266,0.00275,0.00763,-0.00473,-0.07706,0.00214,0.01602,-0.02213
6.178,0.27115,-0.0325,-0.03998,-0.3067,0.05783,-0.10742,-0.03723,-0.00671,-0.00565,0.00427,0.00458,0.01144,-0.06378,0.00458,0.01389,-0.02182
6.1785,0.27283,-0.01312,-0.00229,-0.42953,0.00992,-0.14694,-0.03632,-0.00839,-0.00214,0.00549,0.00488,0.04501,-0.03647,0.00641,0.01175,-0.02197
6.179,0.27039,-0.01923,0.00549,-0.52414,-0.0499,-0.15671,-0.03403,-0.00916,-0.00488,0.00504,0.009,0.06439,-0.00992,0.00534,0.01038,-0.02014
6.1795,0.26199,-0.04349,-0.00443,-0.58334,-0.09964,-0.12894,-0.03128,-0.00885,-0.01175,0.00275,0.01892,0.07339,0.01038,0.00198,0.01144,-0.01282
6.18,0.25238,-0.06439,-0.02304,-0.57098,-0.12894,-0.08987,-0.02899,-0.01007,-0.01633,-0.00229,0.02502,0.07523,0.02396,0.00092,0.0174,0.00305
6.1805,0.25223,-0.0708,-0.03937,-0.42511,-0.13016,-0.0705,-0.02899,-0.01205,-0.01312,-0.01328,0.02243,0.06287,0.03372,0.00275,0.0177,0.02335
6.181,0.26352,-0.06744,-0.04242,-0.1445,-0.112,-0.06912,-0.02777,-0.01205,-0.00519,-0.02914,0.01678,0.03098,0.03983,0.00778,0.01724,0.04395
6.1815,0.27649,-0.05707,-0.03525,0.11612,-0.08743,-0.06927,-0.02563,-0.00931,0.00137,-0.04608,0.01541,-0.01251,0.04288,0.00809,0.01251,0.06744
6.182,0.28015,-0.03708,-0.02686,0.15503,-0.06393,-0.06607,-0.0235,-0.00626,0.00412,-0.05524,0.01678,-0.05707,0.04028,0.0029,0.00641,0.09888
6.1825,0.27298,-0.01251,-0.03021,-0.01938,-0.02975,-0.06271,-0.02487,-0.00671,0.00153,-0.04471,0.01816,-0.08987,0.02487,-0.00336,-0.00473,0.12436
6.183,0.26245,0.00488,-0.04089,-0.19028,0.02197,-0.06134,-0.02823,-0.01266,-0.00397,-0.01175,0.01068,-0.09445,0.00046,-0.00488,-0.01801,0.11169
6.1835,0.25391,0.00565,-0.06927,-0.20645,0.06531,-0.0589,-0.03082,-0.02197,-0.009,0.03296,-0.00092,-0.06439,-0.01709,-0.00504,-0.03082,0.03143
6.184,0.24734,-0.00793,-0.11688,-0.12115,0.0737,-0.05722,-0.03113,-0.02975,-0.01099,0.07278,-0.00931,-0.01877,-0.01785,-0.01175,-0.03448,-0.11261
6.1845,0.242,-0.0383,-0.16159,-0.05051,0.04486,-0.05859,-0.02869,-0.03036,-0.00916,0.09445,-0.01205,0.01404,-0.00641,-0.0296,-0.02457,-0.2739
6.185,0.23865,-0.09079,-0.16968,-0.02151,0.0029,-0.06577,-0.02426,-0.02609,-0.00656,0.08835,-0.01038,0.02228,0.00473,-0.04837,-0.01236,-0.37369
6.1855,0.23926,-0.15045,-0.12665,-0.00015,-0.03326,-0.07339,-0.02136,-0.0206,-0.00305,0.06332,-0.00778,0.01877,0.00397,-0.06149,-0.00458,-0.3714
6.186,0.23987,-0.17563,-0.05508,0.0235,-0.06348,-0.07416,-0.02228,-0.02014,0.00031,0.02899,-0.00397,0.01938,-0.01343,-0.06729,-0.00336,-0.32028
6.1865,0.23499,-0.14862,0.00916,0.04486,-0.10086,-0.06958,-0.02426,-0.0235,0.00443,0.00137,-0.0032,0.02686,-0.04196,-0.06546,0.00244,-0.30121
6.187,0.22263,-0.09872,0.04272,0.07889,-0.14938,-0.06424,-0.02472,-0.02655,0.00916,-0.01022,-0.00412,0.03662,-0.06836,-0.05463,0.02777,-0.30212
6.1875,0.20859,-0.06439,0.04837,0.12787,-0.18814,-0.06409,-0.02258,-0.02655,0.0116,-0.01022,-0.01007,0.04501,-0.09003,-0.03708,0.07401,-0.24612
6.188,0.20172,-0.04807,0.04623,0.16541,-0.18738,-0.06714,-0.01862,-0.02213,0.01236,-0.00839,-0.01358,0.0499,-0.11383,-0.0235,0.1207,-0.13367
6.1885,0.2034,-0.03647,0.05951,0.16602,-0.14252,-0.06653,-0.01633,-0.01495,0.01083,-0.01297,-0.01266,0.04074,-0.13809,-0.01953,0.13428,-0.04257
6.189,0.20569,-0.03204,0.0943,0.14206,-0.08179,-0.06012,-0.01465,-0.00732,0.01007,-0.01572,-0.00992,0.0029,-0.15015,-0.01938,0.09918,0.00916
6.1895,0.19897,-0.03937,0.12955,0.11993,-0.04227,-0.0502,-0.01434,-0.00366,0.01175,-0.02106,-0.00702,-0.05341,-0.1387,-0.01389,0.03571,0.07385
6.19,0.18097,-0.04303,0.12802,0.10056,-0.03021,-0.04379,-0.01328,-0.0032,0.01495,-0.01953,-0.00626,-0.0824,-0.10788,-0.00534,-0.01358,0.15228
6.1905,0.16083,-0.02243,0.0795,0.06134,-0.03113,-0.04166,-0.01282,-0.00473,0.0206,-0.01923,-0.00656,-0.04456,-0.0769,-0.00061,-0.03006,0.17227
6.191,0.14954,0.01755,0.01099,-0.00748,-0.03006,-0.04044,-0.01053,-0.00244,0.02808,-0.01953,-0.01587,0.03967,-0.05905,-0.00092,-0.02747,0.11932
6.1915,0.14816,0.05081,-0.04822,-0.0769,-0.02502,-0.03815,-0.00687,0.00366,0.03372,-0.0209,-0.03571,0.09842,-0.05478,-0.00015,-0.02472,0.05859
6.192,0.14954,0.06058,-0.08789,-0.10132,-0.01953,-0.0351,-0.00305,0.00778,0.03571,-0.02167,-0.05783,0.08881,-0.04745,0.00275,-0.03647,0.04349
6.1925,0.14923,0.04944,-0.10986,-0.06973,-0.0177,-0.03357,-0.0032,0.00778,0.03296,-0.02441,-0.06104,0.047,-0.02487,0.0058,-0.06332,0.05493
6.193,0.14954,0.0267,-0.11139,-0.0145,-0.01587,-0.03403,-0.00549,0.00305,0.02777,-0.0264,-0.03998,0.0351,0.00839,0.00595,-0.07889,0.05173
6.1935,0.15274,0.00275,-0.08789,0.02777,-0.01526,-0.03464,-0.00885,-0.00153,0.02106,-0.03128,-0.009,0.04395,0.03433,0.00092,-0.05264,0.03098
6.194,0.15823,-0.00717,-0.06165,0.04395,-0.01709,-0.03677,-0.01114,-0.00458,0.01343,-0.0354,0.01129,0.01114,0.04272,-0.00549,0.00397,0.01373
6.1945,0.16296,-0.00153,-0.05432,0.04776,-0.01862,-0.03784,-0.01129,-0.00397,0.00534,-0.04272,0.01465,-0.07019,0.03448,-0.00992,0.04028,0.00534
6.195,0.16541,0.00214,-0.07034,0.07507,-0.01785,-0.03708,-0.00839,-0.00183,0.00107,-0.04623,0.01007,-0.12009,0.02274,-0.00824,0.03448,-0.00259
6.1955,0.16663,-0.0148,-0.09003,0.14587,-0.01526,-0.03403,-0.00473,0.00107,-0.0029,-0.04913,0.00351,-0.07538,0.0145,-0.0061,0.01144,-0.01816
6.196,0.16571,-0.04242,-0.09247,0.2301,-0.0145,-0.0322,-0.0029,0.0032,-0.00793,-0.04776,0.00183,0.00031,0.00641,-0.00671,0.00092,-0.03265
6.1965,0.15625,-0.05707,-0.0766,0.25589,-0.0174,-0.03311,-0.00275,0.00488,-0.01465,-0.04425,0.00076,-0.00931,-0.00595,-0.00732,0.00168,-0.04211
6.197,0.13336,-0.0563,-0.05646,0.18707,-0.02228,-0.03479,-0.0029,0.00717,-0.02029,-0.03906,0.00107,-0.11047,-0.01831,-0.00809,0.00214,-0.04669
6.1975,0.10117,-0.06058,-0.04379,0.05783,-0.02762,-0.03647,-0.00366,0.00916,-0.02563,-0.03143,0.00244,-0.18433,-0.02716,-0.00809,-0.00092,-0.04929
6.198,0.07034,-0.07278,-0.04272,-0.06699,-0.03189,-0.04013,-0.00458,0.01297,-0.03311,-0.02426,0.00366,-0.14664,-0.03006,-0.00839,-0.00427,-0.05447
6.1985,0.04807,-0.07965,-0.0441,-0.13901,-0.03601,-0.04623,-0.00488,0.02106,-0.04227,-0.02167,0.00351,-0.04211,-0.03143,-0.01007,-0.00473,-0.0621
6.199,0.03479,-0.0798,-0.03845,-0.15503,-0.03952,-0.05386,-0.00641,0.03433,-0.05066,-0.01968,0.00259,0.03067,-0.02899,-0.01144,-0.0032,-0.06577
6.1995,0.0264,-0.08331,-0.02808,-0.16418,-0.04242,-0.05905,-0.009,0.04745,-0.05524,-0.01663,0.00381,0.02914,-0.02121,-0.00916,-0.00046,-0.06317
6.2,0.02304,-0.09155,-0.01968,-0.22415,-0.04547,-0.06027,-0.01175,0.05203,-0.0563,-0.01114,0.0032,-0.0238,-0.01068,-0.00427,0.00504,-0.05966
6.2005,0.02121,-0.08865,-0.01999,-0.31326,-0.04547,-0.05844,-0.01038,0.04501,-0.05402,-0.0061,0.00519,-0.08026,-0.00076,0.00137,0.009,-0.06058
6.201,0.01862,-0.06638,-0.0206,-0.33951,-0.04288,-0.05676,-0.0058,0.02991,-0.04974,-0.00198,0.00717,-0.11414,0.00793,0.00092,0.00931,-0.06363
6.2015,0.02029,-0.03601,-0.00809,-0.26352,-0.03876,-0.05463,-0.00107,0.01236,-0.04349,0.00092,0.00549,-0.11703,0.01389,-0.00214,0.0087,-0.06607
6.202,0.03372,-0.01526,0.01541,-0.13626,-0.03464,-0.04974,-0.00122,-0.00519,-0.03571,0.00153,0.00122,-0.04974,0.01663,-0.00763,0.00839,-0.06577
6.2025,0.05753,-0.00839,0.0322,-0.0116,-0.02823,-0.04333,-0.00427,-0.02426,-0.0293,-0.00687,-0.00565,0.11688,0.01419,-0.01038,0.01022,-0.065
6.203,0.08362,-0.00992,0.02853,0.11444,-0.02258,-0.0383,-0.00595,-0.03998,-0.02502,-0.0116,-0.01114,0.2887,0.009,-0.00977,0.0116,-0.06577
6.2035,0.10208,-0.01465,0.00412,0.24567,-0.02228,-0.03662,-0.00885,-0.04486,-0.02228,-0.00977,-0.01846,0.31021,0.00244,-0.00992,0.01068,-0.06714
6.204,0.11078,-0.02045,-0.03235,0.33112,-0.02594,-0.03784,-0.01648,-0.0412,-0.02045,-0.00427,-0.01816,0.17914,-0.00305,-0.01007,0.00763,-0.06897
6.2045,0.11398,-0.02304,-0.0676,0.30411,-0.03006,-0.03815,-0.02548,-0.04028,-0.01907,-0.00259,-0.01877,0.06104,-0.00687,-0.01007,0.00687,-0.06973
6.205,0.11261,-0.01801,-0.08942,0.16937,-0.03006,-0.0386,-0.02762,-0.0444,-0.01602,-0.00931,-0.0174,0.05249,-0.01144,-0.01007,0.00626,-0.06699
6.2055,0.10315,-0.0087,-0.09323,0.01266,-0.03036,-0.03876,-0.01984,-0.04639,-0.01175,-0.0177,-0.01724,0.08362,-0.0206,-0.0119,0.0029,-0.05981
6.206,0.08652,-0.00259,-0.08835,-0.07782,-0.03403,-0.03845,-0.00916,-0.03693,-0.00763,-0.01862,-0.01556,0.07141,-0.03143,-0.01556,0.00015,-0.04974
6.2065,0.07706,-0.01083,-0.08286,-0.09415,-0.03983,-0.0386,-0.00229,-0.02167,-0.00519,-0.01465,-0.01495,0.03281,-0.03616,-0.0145,-0.0029,-0.04395
6.207,0.08804,-0.03082,-0.08072,-0.0853,-0.04547,-0.03937,-0.00259,-0.01129,-0.00397,-0.00656,-0.01526,0.01358,-0.0293,-0.00916,-0.00305,-0.04761
6.2075,0.11383,-0.04913,-0.0824,-0.08636,-0.04898,-0.04059,-0.00641,-0.00732,-0.00397,-0.00031,-0.01648,0.01633,-0.01541,-0.00534,-0.00595,-0.06165
6.208,0.13351,-0.05722,-0.09064,-0.08286,-0.04929,-0.04196,-0.01297,-0.00763,-0.0032,0.00397,-0.0177,0.02014,-0.00427,-0.00641,-0.01251,-0.08331
6.2085,0.13824,-0.05997,-0.10315,-0.03357,-0.04776,-0.04288,-0.02029,-0.01022,-0.00214,0.00809,-0.01862,0.02502,0.00122,-0.01312,-0.01892,-0.09781
6.209,0.13306,-0.06531,-0.10986,0.09476,-0.04044,-0.04517,-0.02213,-0.01083,-0.00153,0.01038,-0.01678,0.03662,0.00198,-0.01801,-0.02319,-0.09537
6.2095,0.12772,-0.07187,-0.10239,0.28595,-0.02029,-0.04654,-0.01694,-0.00885,-0.00275,0.01175,-0.0148,0.04654,-0.00031,-0.02151,-0.0235,-0.07584
6.21,0.12115,-0.07507,-0.08667,0.45853,0.02243,-0.04501,-0.00854,-0.00366,-0.00458,0.00992,-0.01434,0.04364,-0.00244,-0.02213,-0.02304,-0.04807
6.2105,0.10666,-0.08011,-0.07004,0.50995,0.08347,-0.04211,-0.00214,-0.00046,-0.00702,0.00565,-0.0145,0.0296,0.00061,-0.02106,-0.02029,-0.03098
6.211,0.08392,-0.09369,-0.05661,0.39993,0.1329,-0.04013,-0.00076,-0.00214,-0.009,-0.00275,-0.01495,0.01816,0.00473,-0.02136,-0.01572,-0.02945
6.2115,0.05692,-0.11078,-0.04395,0.18631,0.13824,-0.03998,-0.0032,-0.00366,-0.00946,-0.0116,-0.01587,0.01511,-0.00122,-0.0235,-0.00504,-0.03342
6.212,0.03006,-0.1152,-0.03418,0.00092,0.09689,-0.04211,-0.00626,-0.00015,-0.00824,-0.01831,-0.01465,0.01633,-0.02258,-0.0296,0.01923,-0.03479
6.2125,0.00412,-0.11139,-0.03128,-0.04608,0.03418,-0.04654,-0.00595,0.00916,-0.00641,-0.02167,-0.01297,0.01404,-0.04715,-0.03494,0.05737,-0.03387
6.213,-0.01923,-0.10468,-0.03403,0.04059,-0.02823,-0.05142,-0.00214,0.01999,-0.00656,-0.02289,-0.01022,0.00854,-0.05447,-0.0354,0.08987,-0.03448
6.2135,-0.04135,-0.09232,-0.03723,0.15015,-0.08698,-0.05692,0.00244,0.02579,-0.00824,-0.02365,-0.009,0.00427,-0.04181,-0.03159,0.09308,-0.03723
6.214,-0.06348,-0.06882,-0.03738,0.16693,-0.15106,-0.06088,0.00458,0.02472,-0.01022,-0.02579,-0.00885,0.00153,-0.02472,-0.02609,0.0676,-0.03952
6.2145,-0.08408,-0.04639,-0.03601,0.06638,-0.21667,-0.06348,0.00259,0.01999,-0.00992,-0.02502,-0.01144,-0.00061,-0.01648,-0.02472,0.0383,-0.03952
6.215,-0.09384,-0.03586,-0.0444,-0.1001,-0.25482,-0.06287,-0.00198,0.01358,-0.00748,-0.02686,-0.01251,-0.00565,-0.01678,-0.02365,0.02075,-0.04044
6.2155,-0.08499,-0.02457,-0.07736,-0.28824,-0.23773,-0.06332,-0.00717,0.009,-0.00565,-0.03128,-0.01205,-0.00931,-0.01785,-0.02319,0.0116,-0.0415
6.216,-0.06683,-0.00183,-0.12955,-0.46768,-0.17563,-0.06241,-0.01099,0.00641,-0.0061,-0.0386,-0.01053,-0.01053,-0.01602,-0.02045,0.00549,-0.0444
6.2165,-0.05356,0.0235,-0.17303,-0.5275,-0.11826,-0.05951,-0.01205,0.00443,-0.00778,-0.04379,-0.01114,-0.00854,-0.0116,-0.01648,0.00076,-0.04501
6.217,-0.04807,0.03525,-0.17654,-0.34805,-0.09125,-0.05661,-0.0119,0.00443,-0.01114,-0.0444,-0.01175,-0.00793,-0.00824,-0.01175,0.00153,-0.04562
6.2175,-0.04501,0.03326,-0.12802,-0.04456,-0.08377,-0.0563,-0.01251,0.00336,-0.01419,-0.0444,-0.01221,-0.0116,-0.00961,-0.01053,0.0061,-0.04547
6.218,-0.04105,0.02563,-0.0383,0.07523,-0.07095,-0.05722,-0.01511,-0.00061,-0.01648,-0.03586,-0.01328,-0.01526,-0.01602,-0.01343,0.01114,-0.04684
6.2185,-0.03983,0.01541,0.06332,-0.10406,-0.05905,-0.05569,-0.01801,-0.00626,-0.01801,-0.03128,-0.01282,-0.01587,-0.02289,-0.01862,0.01877,-0.04837
6.219,-0.04379,-0.00443,0.14328,-0.36026,-0.05722,-0.0502,-0.01892,-0.01236,-0.01862,-0.02335,-0.01297,-0.01328,-0.02838,-0.02213,0.02838,-0.0528
6.2195,-0.05432,-0.02609,0.17838,-0.43503,-0.06104,-0.04364,-0.01724,-0.01602,-0.01831,-0.0145,-0.00885,-0.01068,-0.03052,-0.02228,0.0386,-0.05905
6.22,-0.06912,-0.03845,0.16907,-0.30914,-0.05524,-0.03906,-0.01602,-0.01617,-0.01831,-0.00549,-0.00473,-0.00839,-0.03128,-0.02075,0.04761,-0.05966
6.2205,-0.07904,-0.05432,0.13168,-0.13504,-0.04028,-0.03906,-0.01709,-0.01465,-0.01801,0.00214,-0.00458,-0.00885,-0.03342,-0.02106,0.0499,-0.06012
6.221,-0.07813,-0.103,0.09369,-0.02243,-0.02655,-0.0386,-0.01984,-0.01144,-0.01862,0.00671,-0.01205,-0.01099,-0.03922,-0.02243,0.04166,-0.05844
6.2215,-0.06775,-0.18372,0.07782,0.02792,-0.01663,-0.03708,-0.02197,-0.00946,-0.01938,0.00748,-0.0238,-0.01312,-0.04486,-0.02335,0.01755,-0.05569
6.222,-0.05463,-0.24521,0.08118,0.05463,0.00061,-0.03296,-0.02289,-0.00748,-0.02075,0.00595,-0.03265,-0.0145,-0.04639,-0.02365,-0.01755,-0.05325
6.2225,-0.04303,-0.24261,0.07874,0.07156,0.03006,-0.03082,-0.02228,-0.00763,-0.02243,0.00473,-0.03052,-0.01495,-0.04395,-0.02472,-0.0444,-0.04501
6.223,-0.03128,-0.19012,0.0322,0.07019,0.0621,-0.03235,-0.02136,-0.0087,-0.02319,0.00565,-0.0267,-0.01511,-0.04181,-0.02563,-0.04364,-0.02579
6.2235,-0.02289,-0.12375,-0.05478,0.04669,0.07874,-0.03586,-0.01877,-0.00809,-0.02533,0.00381,-0.02518,-0.01572,-0.04333,-0.02914,-0.01831,-0.00732
6.224,-0.02289,-0.05692,-0.13214,0.00687,0.07126,-0.03677,-0.01572,-0.00702,-0.0264,0.00488,-0.02426,-0.01434,-0.04517,-0.02975,0.00626,0.00412
6.2245,-0.02777,0.01373,-0.15381,-0.03906,0.04425,-0.03693,-0.01404,-0.00702,-0.02426,0.00137,-0.01968,-0.01297,-0.04227,-0.03082,0.01282,0.00702
6.225,-0.03098,0.07843,-0.12482,-0.08179,0.01083,-0.03784,-0.01404,-0.01205,-0.02136,-0.00427,-0.01144,-0.01114,-0.03586,-0.02945,0.00717,0.00061
6.2255,-0.02716,0.11841,-0.08301,-0.11459,-0.01846,-0.03922,-0.01312,-0.02502,-0.01923,-0.0119,-0.00427,-0.01053,-0.02792,-0.02777,0.00275,-0.00595
6.226,-0.02151,0.12878,-0.05188,-0.13138,-0.04211,-0.03845,-0.01068,-0.04044,-0.0177,-0.01877,0.00259,-0.01083,-0.0209,-0.02487,0.00244,-0.01907
6.2265,-0.02151,0.12039,-0.03036,-0.1207,-0.06943,-0.03815,-0.00885,-0.04623,-0.01633,-0.0235,0.00671,-0.0116,-0.01572,-0.02136,0.00488,-0.03418
6.227,-0.02594,0.10361,-0.01282,-0.07797,-0.09674,-0.03937,-0.00992,-0.03662,-0.01343,-0.02655,0.01144,-0.01328,-0.01373,-0.01999,0.00656,-0.05417
6.2275,-0.02777,0.08148,0.00244,-0.01587,-0.10162,-0.04349,-0.01465,-0.01053,-0.01022,-0.02853,0.01099,-0.01404,-0.01587,-0.01816,0.00931,-0.07599
6.228,-0.02396,0.05859,0.01221,0.03082,-0.06561,-0.04654,-0.02075,0.03326,-0.00702,-0.0351,0.00641,-0.0119,-0.02274,-0.01556,0.00916,-0.08881
6.2285,-0.01877,0.04608,0.01221,0.03876,-0.01083,-0.04532,-0.02304,0.0885,-0.00458,-0.03494,0.00168,-0.00885,-0.03052,-0.01343,0.00427,-0.08484
6.229,-0.01801,0.0473,0.00214,0.02426,0.02213,-0.04257,-0.01709,0.13123,-0.00259,-0.0296,-0.00137,-0.00763,-0.03754,-0.0145,-0.00717,-0.06851
6.2295,-0.02274,0.05005,-0.01068,0.01831,0.01556,-0.03952,-0.00427,0.13931,-0.00336,-0.02258,-0.0058,-0.00717,-0.0415,-0.01678,-0.02167,-0.05371
6.23,-0.03052,0.03998,-0.01862,0.02823,-0.00702,-0.04135,0.00809,0.12238,-0.00305,-0.01785,-0.00549,-0.00793,-0.04135,-0.01907,-0.02884,-0.04868
6.2305,-0.04044,0.01556,-0.0296,0.04074,-0.01694,-0.04395,0.01556,0.11185,-0.00137,-0.01541,-0.00351,-0.00809,-0.03845,-0.02014,-0.02991,-0.04395
6.231,-0.0563,-0.01694,-0.05539,0.0444,-0.00824,-0.04593,0.01495,0.11749,0.00153,-0.01312,-0.00031,-0.0061,-0.03708,-0.01785,-0.02686,-0.04517
6.2315,-0.08026,-0.05173,-0.09842,0.0444,0.00656,-0.04517,0.00824,0.11398,0.00259,-0.01175,0.00076,-0.00534,-0.03723,-0.01709,-0.02701,-0.04425
6.232,-0.11261,-0.08926,-0.14175,0.03967,0.00931,-0.04532,-0.00153,0.0708,0.00061,-0.01129,-0.00259,-0.00885,-0.03891,-0.01602,-0.03036,-0.04196
6.2325,-0.14587,-0.13824,-0.16876,0.01312,-0.00702,-0.04791,-0.01282,-0.00381,-0.00229,-0.01404,-0.00961,-0.01282,-0.04059,-0.01633,-0.02777,-0.0412
6.233,-0.17151,-0.19958,-0.18265,-0.03708,-0.03357,-0.05188,-0.0206,-0.07446,-0.00656,-0.01862,-0.01373,-0.01282,-0.04227,-0.01724,-0.00412,-0.04059
6.2335,-0.186,-0.24796,-0.19135,-0.08591,-0.04913,-0.05234,-0.02136,-0.11978,-0.01053,-0.02151,-0.01419,-0.00854,-0.04471,-0.02045,0.04501,-0.03845
6.234,-0.19562,-0.24994,-0.18036,-0.10101,-0.04822,-0.05035,-0.01831,-0.14267,-0.0148,-0.0238,-0.01465,-0.00259,-0.04684,-0.02319,0.09903,-0.0444
6.2345,-0.20584,-0.20157,-0.1239,-0.08789,-0.04974,-0.04593,-0.01633,-0.1474,-0.01801,-0.02625,-0.01633,0.00137,-0.04807,-0.02228,0.12405,-0.05081
6.235,-0.21896,-0.13336,-0.03937,-0.06821,-0.07721,-0.04532,-0.01587,-0.12756,-0.01923,-0.02716,-0.0177,0.00046,-0.04715,-0.02045,0.10544,-0.05096
6.2355,-0.2301,-0.07172,0.0116,-0.0441,-0.12421,-0.04822,-0.0148,-0.09186,-0.01984,-0.0264,-0.01831,-0.0029,-0.04684,-0.01892,0.06134,-0.04349
6.236,-0.23575,-0.02045,0.00168,0.01068,-0.15533,-0.05219,-0.01083,-0.06821,-0.02197,-0.02838,-0.02045,-0.00351,-0.04608,-0.01923,0.02014,-0.03754
6.2365,-0.2388,0.02029,-0.02411,0.11307,-0.14862,-0.05417,-0.00748,-0.0705,-0.02533,-0.02899,-0.02106,-0.00015,-0.04578,-0.02029,-0.00198,-0.03922
6.237,-0.24033,0.03571,-0.01221,0.24826,-0.11429,-0.05219,-0.0061,-0.07446,-0.02823,-0.03036,-0.02319,0.00336,-0.04501,-0.02136,-0.00992,-0.04623
6.2375,-0.23773,0.0177,0.03464,0.36163,-0.06668,-0.04593,-0.00809,-0.05554,-0.03174,-0.03006,-0.02426,0.00351,-0.04532,-0.02228,-0.01175,-0.05463
6.238,-0.22873,-0.00595,0.07477,0.38589,-0.01099,-0.03433,-0.01144,-0.01892,-0.0383,-0.02853,-0.02533,-0.00061,-0.04517,-0.0235,-0.01419,-0.08347
6.2385,-0.21881,-0.00626,0.08606,0.29892,0.04272,-0.01968,-0.01251,0.01495,-0.04379,-0.02869,-0.02823,-0.00549,-0.04517,-0.02457,-0.01663,-0.12299
6.239,-0.21622,0.01389,0.0705,0.14587,0.07263,-0.00717,-0.009,0.03189,-0.04654,-0.02838,-0.0322,-0.00854,-0.04623,-0.02472,-0.0174,-0.14725
6.2395,-0.22034,0.03067,0.04013,0.00275,0.06836,-0.0029,-0.00305,0.03647,-0.04608,-0.02975,-0.03342,-0.00839,-0.04745,-0.02502,-0.01419,-0.14389
6.24,-0.22293,0.03769,0.00809,-0.10437,0.03571,-0.00504,0.00015,0.02899,-0.04349,-0.02914,-0.03632,-0.00549,-0.04761,-0.02411,-0.00748,-0.11307
6.2405,-0.22491,0.04074,-0.00259,-0.19928,-0.01007,-0.00961,-0.00076,0.01312,-0.04013,-0.02609,-0.03616,-0.00229,-0.04608,-0.02243,0.0032,-0.07904
6.241,-0.23041,0.0354,0.01816,-0.29068,-0.06302,-0.01511,-0.00259,-0.00137,-0.03494,-0.0235,-0.03464,-0.00122,-0.04562,-0.02228,0.01678,-0.05051
6.2415,-0.23529,0.00748,0.05783,-0.32776,-0.12878,-0.02274,-0.00381,-0.00397,-0.03128,-0.02258,-0.03189,-0.00214,-0.04776,-0.02304,0.0264,-0.01663
6.242,-0.23331,-0.0441,0.09506,-0.27008,-0.19684,-0.03143,-0.00412,0.00229,-0.03006,-0.02884,-0.03006,-0.00198,-0.04883,-0.0238,0.02808,0.02304
6.2425,-0.22202,-0.09766,0.12375,-0.14923,-0.23483,-0.03769,-0.0058,0.01038,-0.03296,-0.03525,-0.03052,-0.00214,-0.04883,-0.02106,0.02701,0.05142
6.243,-0.21027,-0.13611,0.14374,-0.03311,-0.21851,-0.04272,-0.00885,0.01495,-0.03586,-0.03799,-0.03372,-0.00427,-0.04608,-0.0206,0.03555,0.05005
6.2435,-0.20813,-0.16312,0.14252,0.05142,-0.1593,-0.04868,-0.01129,0.01694,-0.03601,-0.03998,-0.0354,-0.00763,-0.04395,-0.0206,0.04776,0.02472
6.244,-0.21805,-0.17792,0.09811,0.13306,-0.09201,-0.05646,-0.0119,0.02197,-0.03387,-0.03799,-0.03357,-0.01022,-0.04196,-0.02029,0.04578,0.00473
6.2445,-0.23239,-0.16373,0.00488,0.22369,-0.04211,-0.06332,-0.01099,0.02991,-0.03159,-0.03296,-0.02975,-0.01007,-0.04105,-0.01892,0.02762,-0.00504
6.245,-0.24185,-0.12253,-0.11322,0.27756,-0.01266,-0.07034,-0.01007,0.03372,-0.03067,-0.02655,-0.02655,-0.00916,-0.04013,-0.01755,0.00519,-0.00702
6.2455,-0.24185,-0.07858,-0.21835,0.24139,-0.00031,-0.07751,-0.00931,0.0148,-0.03067,-0.01953,-0.02716,-0.00977,-0.03937,-0.01572,-0.00305,-0.00854
6.246,-0.23315,-0.05051,-0.27328,0.11963,0.00046,-0.08408,-0.00854,-0.0415,-0.03067,-0.01678,-0.02945,-0.01022,-0.0383,-0.01831,-0.00092,-0.00778
6.2465,-0.21759,-0.03723,-0.27054,-0.03174,0.00244,-0.08606,-0.00885,-0.12451,-0.03036,-0.01862,-0.03006,-0.00946,-0.03525,-0.01938,0.00153,-0.00473
6.247,-0.19913,-0.03448,-0.23041,-0.14542,0.01434,-0.08209,-0.01068,-0.19135,-0.02991,-0.02151,-0.0267,-0.00916,-0.03281,-0.0174,0.00183,-0.00458
6.2475,-0.17792,-0.03998,-0.17899,-0.18555,0.02945,-0.07156,-0.01205,-0.20462,-0.02701,-0.02243,-0.02304,-0.01053,-0.0322,-0.01373,0.0029,-0.00961
6.248,-0.15335,-0.05447,-0.13,-0.15625,0.03006,-0.06058,-0.0119,-0.15961,-0.02197,-0.02167,-0.01968,-0.01236,-0.03357,-0.01236,0.00412,-0.01999
6.2485,-0.12665,-0.07172,-0.08835,-0.10223,0.01694,-0.05478,-0.01266,-0.07278,-0.0174,-0.01694,-0.01755,-0.01266,-0.03448,-0.01434,0.00473,-0.03143
6.249,-0.10468,-0.08331,-0.05463,-0.07172,0.00473,-0.0499,-0.01434,0.03036,-0.01587,-0.01434,-0.01755,-0.01114,-0.03372,-0.01755,0.00412,-0.04791
6.2495,-0.08896,-0.08392,-0.03113,-0.07233,-0.00092,-0.04089,-0.0177,0.11642,-0.01541,-0.01251,-0.01709,-0.01022,-0.0293,-0.01968,0.00473,-0.06607
6.25,-0.08072,-0.07782,-0.01312,-0.07324,-0.0087,-0.03082,-0.01862,0.1532,-0.01648,-0.01312,-0.01923,-0.01144,-0.0238,-0.01984,0.00671,-0.0766
6.2505,-0.08087,-0.07385,0.00198,-0.05615,-0.01862,-0.02792,-0.01404,0.13657,-0.01816,-0.01389,-0.02029,-0.01389,-0.02182,-0.02014,0.00641,-0.07446
6.251,-0.09125,-0.07355,0.01129,-0.03235,-0.02335,-0.03281,-0.00824,0.103,-0.01831,-0.01511,-0.02274,-0.01572,-0.02487,-0.02045,0.00412,-0.06638
6.2515,-0.11017,-0.07599,0.00946,-0.01801,-0.01907,-0.03983,-0.00595,0.0885,-0.01495,-0.01709,-0.02533,-0.01526,-0.03082,-0.02197,-0.00107,-0.06165
6.252,-0.13397,-0.08179,0.00336,-0.01755,-0.01282,-0.04608,-0.00946,0.08789,-0.01068,-0.01755,-0.02533,-0.01419,-0.03418,-0.02167,-0.00534,-0.06866
6.2525,-0.1506,-0.0914,0.00381,-0.02197,-0.00687,-0.05066,-0.0174,0.06927,-0.00854,-0.01617,-0.02487,-0.01511,-0.03998,-0.02029,-0.00565,-0.07828
6.253,-0.14877,-0.09048,0.009,-0.02533,0.00061,-0.05386,-0.0322,0.02731,-0.00946,-0.01633,-0.02502,-0.01694,-0.04807,-0.01877,-0.00214,-0.08194
6.2535,-0.13,-0.06607,0.00534,-0.02197,0.0087,-0.05737,-0.05005,-0.0116,-0.01068,-0.01602,-0.02441,-0.01801,-0.05905,-0.01541,0.00061,-0.09232
6.254,-0.10986,-0.02899,-0.01343,-0.0148,0.01587,-0.06241,-0.06134,-0.02472,-0.00885,-0.01587,-0.02563,-0.01648,-0.06866,-0.01282,0.0029,-0.12177
6.2545,-0.09628,0.00504,-0.03952,-0.00595,0.0235,-0.06668,-0.05417,-0.02121,-0.00702,-0.01694,-0.02457,-0.01434,-0.07614,-0.01328,0.00626,-0.15717
6.255,-0.08118,0.03922,-0.0592,0.00076,0.03357,-0.06485,-0.03235,-0.01556,-0.00931,-0.01633,-0.02411,-0.0119,-0.0798,-0.01312,-0.00076,-0.13916
6.2555,-0.05798,0.08438,-0.06241,0.00427,0.04288,-0.05798,-0.01556,-0.00916,-0.01556,-0.01648,-0.02625,-0.01221,-0.07675,-0.01312,-0.02899,-0.04013
6.256,-0.03159,0.12589,-0.05096,0.01312,0.04318,-0.05203,-0.01328,0.0029,-0.01862,-0.01434,-0.02914,-0.01358,-0.06821,-0.01343,-0.06073,0.06912
6.2565,-0.01526,0.14267,-0.03525,0.03952,0.02121,-0.04898,-0.01968,0.01511,-0.0174,-0.01556,-0.03204,-0.01434,-0.05798,-0.01434,-0.06409,0.08804
6.257,-0.01144,0.13107,-0.0293,0.07401,-0.02289,-0.05051,-0.02289,0.02029,-0.01373,-0.01923,-0.03464,-0.01343,-0.05112,-0.01556,-0.03128,0.01404
6.2575,-0.01297,0.10513,-0.03876,0.08102,-0.06241,-0.05188,-0.02029,0.01694,-0.01068,-0.02197,-0.03403,-0.0119,-0.04745,-0.01678,0.01694,-0.06546
6.258,-0.01022,0.07721,-0.05676,0.04166,-0.06805,-0.05051,-0.01694,0.01114,-0.00916,-0.02075,-0.03128,-0.01236,-0.04669,-0.01709,0.05447,-0.08163
6.2585,0.00183,0.05157,-0.07294,-0.01175,-0.04303,-0.04578,-0.0174,0.00671,-0.0087,-0.02014,-0.02823,-0.01373,-0.04471,-0.01572,0.07172,-0.05722
6.259,0.01877,0.03113,-0.0856,-0.02914,-0.02228,-0.04272,-0.02045,-0.00031,-0.00992,-0.01846,-0.02548,-0.01404,-0.04181,-0.0177,0.07217,-0.04425
6.2595,0.03586,0.0177,-0.0943,-0.01129,-0.02045,-0.04196,-0.02243,-0.00854,-0.01053,-0.01999,-0.02548,-0.01221,-0.03723,-0.0177,0.07355,-0.05783
6.26,0.04898,0.009,-0.0946,-0.00168,-0.02411,-0.04272,-0.02213,-0.01938,-0.01099,-0.02045,-0.02426,-0.00824,-0.03464,-0.01968,0.08987,-0.07324
6.2605,0.05783,-0.00687,-0.08286,-0.02884,-0.01648,-0.03952,-0.0206,-0.03967,-0.0116,-0.02029,-0.02426,-0.00549,-0.03265,-0.01984,0.1239,-0.07492
6.261,0.0621,-0.04028,-0.06409,-0.09644,-0.0032,-0.0354,-0.02335,-0.07141,-0.01465,-0.02029,-0.02625,-0.00656,-0.03021,-0.01999,0.14816,-0.07294
6.2615,0.06317,-0.08728,-0.05051,-0.19104,0.00397,-0.03235,-0.02884,-0.10712,-0.01831,-0.01831,-0.02762,-0.0087,-0.02838,-0.01984,0.10513,-0.08224
6.262,0.06134,-0.12772,-0.04562,-0.27069,0.00061,-0.03235,-0.03082,-0.12863,-0.02258,-0.01801,-0.0264,-0.00916,-0.02823,-0.01953,-0.02914,-0.09628
6.2625,0.05661,-0.13809,-0.04837,-0.2832,-0.00702,-0.03296,-0.02701,-0.1207,-0.02548,-0.01617,-0.02258,-0.00839,-0.03174,-0.01633,-0.16159,-0.08835
6.263,0.0499,-0.11948,-0.0592,-0.21606,-0.0148,-0.03281,-0.02121,-0.08087,-0.02686,-0.01495,-0.02029,-0.00778,-0.0383,-0.01709,-0.15579,-0.05127
6.2635,0.04562,-0.09842,-0.07874,-0.13229,-0.01938,-0.03418,-0.01953,-0.02151,-0.0264,-0.01358,-0.01877,-0.0087,-0.04456,-0.0148,-0.02274,-0.02686
6.264,0.04852,-0.09308,-0.09338,-0.10788,-0.0206,-0.0386,-0.02106,0.03418,-0.0238,-0.01007,-0.02014,-0.00854,-0.04608,-0.01511,0.07751,-0.04364
6.2645,0.05676,-0.09552,-0.0914,-0.13855,-0.01801,-0.04379,-0.02136,0.06027,-0.02136,-0.01053,-0.02075,-0.0058,-0.04196,-0.01465,0.04105,-0.06912
6.265,0.065,-0.08926,-0.07263,-0.11093,-0.01389,-0.04715,-0.0206,0.05005,-0.02014,-0.01144,-0.0206,-0.0029,-0.0383,-0.01556,-0.05783,-0.0473
6.2655,0.07172,-0.07538,-0.04684,0.08835,-0.00961,-0.04807,-0.02075,0.01907,-0.01968,-0.01251,-0.01984,-0.00183,-0.03815,-0.01648,-0.09232,0.03433
6.266,0.07767,-0.06622,-0.02335,0.3775,-0.00549,-0.04745,-0.02335,-0.01144,-0.02106,-0.01282,-0.01938,-0.00153,-0.03952,-0.01602,-0.03937,0.13046
6.2665,0.0827,-0.06531,-0.00961,0.50308,-0.00244,-0.04608,-0.02533,-0.02884,-0.02502,-0.01389,-0.02167,-0.00092,-0.03952,-0.01511,0.02411,0.1709
6.267,0.08728,-0.06531,-0.01373,0.35385,-0.00031,-0.04532,-0.02609,-0.03174,-0.02838,-0.01205,-0.02121,-0.00275,-0.03662,-0.01434,0.03601,0.1326
6.2675,0.09125,-0.05997,-0.02914,0.10971,-0.00046,-0.0441,-0.02762,-0.02121,-0.0264,-0.01022,-0.0209,-0.00717,-0.03372,-0.01343,0.01205,0.04959
6.268,0.09583,-0.05264,-0.03738,-0.00427,-0.0029,-0.04349,-0.03082,-0.00412,-0.02182,-0.01205,-0.02029,-0.00916,-0.02884,-0.01602,-0.00427,-0.00977
6.2685,0.10056,-0.04272,-0.02701,0.02548,-0.00549,-0.04425,-0.03265,0.01144,-0.01755,-0.01404,-0.0206,-0.00595,-0.02457,-0.01862,-0.00473,-0.02411
6.269,0.10559,-0.03128,-0.00092,0.06363,-0.00717,-0.04868,-0.02838,0.02106,-0.01419,-0.01419,-0.01999,-0.00061,-0.02151,-0.02106,-0.00443,-0.01877
6.2695,0.10803,-0.02029,0.02594,0.04959,-0.00748,-0.0528,-0.02197,0.02777,-0.00992,-0.01694,-0.01648,0.00397,-0.02121,-0.0209,-0.01389,-0.02182
6.27,0.10681,-0.01312,0.04532,0.01953,-0.00748,-0.05295,-0.01923,0.02991,-0.00687,-0.01465,-0.01373,0.00565,-0.0206,-0.02075,-0.02914,-0.03418
6.2705,0.10269,-0.01526,0.0531,0.00854,-0.00763,-0.04944,-0.02243,0.0209,-0.00565,-0.01419,-0.01328,0.0058,-0.01709,-0.02167,-0.04379,-0.04333
6.271,0.0975,-0.0264,0.047,0.00641,-0.00778,-0.04684,-0.02533,-0.00168,-0.00641,-0.0148,-0.01328,0.00809,-0.01465,-0.02243,-0.047,-0.04715
6.2715,0.09232,-0.04318,0.03372,0.00046,-0.00763,-0.04379,-0.01923,-0.02975,-0.00565,-0.01343,-0.01404,0.01282,-0.01556,-0.02411,-0.04074,-0.04898
6.272,0.08774,-0.06104,0.0177,-0.0032,-0.00565,-0.03937,-0.00992,-0.05295,-0.00351,-0.01328,-0.01434,0.01587,-0.02151,-0.02319,-0.0322,-0.05219
6.2725,0.08499,-0.07523,0.00412,-0.00015,-0.00641,-0.03372,-0.00717,-0.0676,-0.0032,-0.01297,-0.01343,0.01266,-0.02777,-0.0209,-0.0267,-0.05569
6.273,0.08545,-0.08011,-0.00519,0.0032,-0.01053,-0.0267,-0.01526,-0.07584,-0.00458,-0.01328,-0.01099,0.0032,-0.03601,-0.02045,-0.02045,-0.05783
6.2735,0.08759,-0.07553,-0.01007,0.00366,-0.01648,-0.02228,-0.02823,-0.07828,-0.00626,-0.01328,-0.00885,-0.00671,-0.04318,-0.01984,-0.00107,-0.05905
6.274,0.08682,-0.06287,-0.01114,0.00381,-0.02365,-0.02075,-0.04227,-0.07309,-0.00519,-0.01404,-0.00839,-0.01495,-0.04776,-0.0209,0.04852,-0.05981
6.2745,0.0856,-0.04562,-0.00839,0.00519,-0.02853,-0.02213,-0.05539,-0.06195,-0.0032,-0.01343,-0.01068,-0.01984,-0.0499,-0.02365,0.11948,-0.06088
6.275,0.08575,-0.02731,-0.00473,0.00412,-0.03036,-0.02365,-0.05981,-0.05096,-0.00107,-0.01358,-0.01205,-0.02319,-0.04852,-0.02502,0.16083,-0.06332
6.2755,0.08865,-0.01373,-0.00168,-0.00183,-0.03052,-0.02457,-0.05081,-0.03693,-0.00107,-0.01419,-0.01038,-0.02243,-0.04639,-0.02655,0.12833,-0.06424
6.276,0.09003,-0.01099,0.00153,-0.00656,-0.02975,-0.02823,-0.0354,-0.01678,-0.00229,-0.01541,-0.00885,-0.01785,-0.04379,-0.02701,0.04807,-0.065
6.2765,0.08865,-0.01785,0.0032,-0.01022,-0.02945,-0.03281,-0.03098,0.00778,-0.00473,-0.01511,-0.009,-0.01266,-0.04166,-0.02625,-0.009,-0.06699
6.277,0.08698,-0.02808,-0.00183,-0.01541,-0.02701,-0.03479,-0.04303,0.0293,-0.00732,-0.01526,-0.01099,-0.00961,-0.04089,-0.02441,-0.01114,-0.06729
6.2775,0.08743,-0.03662,-0.01648,-0.02838,-0.02319,-0.0383,-0.04852,0.04105,-0.01038,-0.0145,-0.01144,-0.00778,-0.03998,-0.02151,0.00565,-0.06897
6.278,0.08591,-0.04272,-0.03708,-0.05966,-0.02075,-0.04944,-0.03464,0.04227,-0.01495,-0.01373,-0.01114,-0.00534,-0.03845,-0.02014,0.01022,-0.06683
6.2785,0.08179,-0.05035,-0.05524,-0.1059,-0.0238,-0.06805,-0.02289,0.03433,-0.01907,-0.01541,-0.01083,-0.00549,-0.03586,-0.01465,0.00488,-0.06485
6.279,0.07645,-0.05859,-0.07217,-0.13397,-0.0296,-0.07599,-0.01312,0.01587,-0.02274,-0.01755,-0.01175,-0.0148,-0.03311,-0.00549,0.00168,-0.06546
6.2795,0.07645,-0.06744,-0.10178,-0.11383,-0.03265,-0.06104,0.03433,-0.01602,-0.02304,-0.01938,-0.0119,-0.03342,-0.02884,-0.00183,0.00153,-0.06531
6.28,0.08514,-0.0795,-0.15793,-0.06241,-0.03311,-0.04105,0.11002,-0.05417,-0.02197,-0.02167,-0.01221,-0.05341,-0.02487,-0.00519,-0.00107,-0.06165
6.2805,0.09689,-0.09613,-0.21332,-0.01923,-0.0296,-0.04959,0.12833,-0.0737,-0.02136,-0.02289,-0.01221,-0.06912,-0.02426,-0.01556,-0.00641,-0.05905
6.281,0.10315,-0.10757,-0.2121,-0.00076,-0.02289,-0.08743,0.06927,-0.06058,-0.0206,-0.02396,-0.01312,-0.07736,-0.02655,-0.0209,-0.01221,-0.05737
6.2815,0.10239,-0.10574,-0.14053,0.00717,-0.01999,-0.11932,0.00992,-0.02838,-0.01724,-0.02457,-0.01495,-0.07172,-0.0296,-0.02014,-0.01495,-0.05814
6.282,0.0972,-0.09201,-0.05875,0.01892,-0.02243,-0.12177,0.00092,-0.00488,-0.01266,-0.02579,-0.0174,-0.04852,-0.0322,-0.01846,-0.01648,-0.05875
6.2825,0.09186,-0.07782,-0.02472,0.03983,-0.03128,-0.10696,0.00122,0.00092,-0.01099,-0.02731,-0.01862,-0.00214,-0.03586,-0.01892,-0.0206,-0.05844
6.283,0.08652,-0.06744,-0.01968,0.08072,-0.0412,-0.09628,-0.02502,0.00015,-0.01282,-0.02838,-0.01801,0.06439,-0.04135,-0.01923,-0.02502,-0.05737
6.2835,0.08514,-0.05249,0.00763,0.14481,-0.04944,-0.09415,-0.04913,0.0029,-0.01282,-0.02914,-0.01602,0.13107,-0.04486,-0.01923,-0.02258,-0.05829
6.284,0.09048,-0.03052,0.06241,0.19669,-0.05386,-0.09232,-0.04807,0.00809,-0.00809,-0.03006,-0.01419,0.16296,-0.04425,-0.01938,0.00107,-0.05844
6.2845,0.0975,-0.01556,0.10651,0.17883,-0.05493,-0.08972,-0.03784,0.00916,-0.00275,-0.03036,-0.01312,0.14511,-0.04211,-0.02029,0.04532,-0.05615
6.285,0.09384,-0.03281,0.11993,0.09064,-0.05234,-0.09171,-0.03815,0.00214,-0.00076,-0.02991,-0.0119,0.09872,-0.04395,-0.02075,0.08255,-0.05478
6.2855,0.08087,-0.08591,0.10223,-0.00351,-0.04745,-0.09659,-0.0386,-0.01083,-0.00305,-0.02853,-0.01038,0.04883,-0.04883,-0.02228,0.08438,-0.0531
6.286,0.07095,-0.14984,0.05402,-0.05005,-0.0441,-0.09979,-0.02289,-0.02487,-0.00412,-0.02731,-0.00961,0.00015,-0.05371,-0.02365,0.05234,-0.0528
6.2865,0.06882,-0.18478,-0.00656,-0.05829,-0.04257,-0.09552,0.00748,-0.03525,-0.00122,-0.02777,-0.01053,-0.05692,-0.05524,-0.02335,0.01801,-0.05325
6.287,0.06378,-0.18005,-0.03708,-0.06454,-0.04089,-0.0882,0.03662,-0.04044,0.00198,-0.02853,-0.01434,-0.14389,-0.05524,-0.02228,0.00244,-0.05264
6.2875,0.03983,-0.14771,-0.01892,-0.07935,-0.03952,-0.08392,0.05096,-0.03738,-0.00061,-0.02853,-0.01465,-0.26169,-0.056,-0.02182,0.00519,-0.05112
6.288,-0.00778,-0.09903,0.01236,-0.08942,-0.0386,-0.07858,0.04791,-0.02838,-0.01144,-0.02701,-0.01022,-0.34088,-0.05661,-0.02304,0.01266,-0.04791
6.2885,-0.06378,-0.04135,0.01633,-0.08545,-0.04059,-0.06439,0.03372,-0.01877,-0.02396,-0.02411,-0.00641,-0.29175,-0.05386,-0.02289,0.0174,-0.04593
6.289,-0.11169,0.01495,-0.0029,-0.06653,-0.04379,-0.03922,0.01724,-0.01434,-0.02975,-0.0206,-0.00305,-0.11551,-0.04669,-0.01999,0.01923,-0.04684
6.2895,-0.159,0.05707,-0.01511,-0.03189,-0.04974,-0.01999,0.00443,-0.01663,-0.02701,-0.0177,-0.00183,0.09918,-0.03845,-0.01404,0.01556,-0.04822
6.29,-0.24399,0.08087,-0.0087,-0.00015,-0.0528,-0.01663,-0.00381,-0.02121,-0.02228,-0.01694,-0.00061,0.27008,-0.02914,-0.00977,0.01205,-0.04898
6.2905,-0.37781,0.08148,-0.00214,0.00595,-0.0502,-0.01984,-0.00824,-0.02579,-0.02197,-0.01587,-0.00015,0.35965,-0.01862,-0.00809,0.00977,-0.0473
6.291,-0.50125,0.06668,-0.00534,-0.01495,-0.04532,-0.01389,-0.01022,-0.02808,-0.02625,-0.01419,0.00153,0.35004,-0.00671,-0.00717,0.01038,-0.04745
6.2915,-0.54382,0.04959,-0.01343,-0.04303,-0.04395,-0.00427,-0.01328,-0.0264,-0.03143,-0.01205,0.00031,0.23529,0.00381,-0.00793,0.00961,-0.04776
6.292,-0.51193,0.03799,-0.02182,-0.0621,-0.05005,-0.00473,-0.01511,-0.01709,-0.03479,-0.01266,-0.00183,0.06332,0.01282,-0.01007,0.00305,-0.04822
6.2925,-0.47241,0.03311,-0.0296,-0.06607,-0.05676,-0.01404,-0.01495,-0.00504,-0.03357,-0.01602,-0.00366,-0.06317,0.01663,-0.01343,-0.0087,-0.04745
6.293,-0.466,0.02411,-0.03998,-0.0589,-0.05569,-0.02029,-0.01282,0.00153,-0.02838,-0.01846,-0.00473,-0.06104,0.01266,-0.01801,-0.02121,-0.04776
6.2935,-0.48248,0.00549,-0.0531,-0.04517,-0.04837,-0.01709,-0.01297,0.00015,-0.02075,-0.01846,-0.00443,0.0618,0.00107,-0.0235,-0.03265,-0.04868
6.294,-0.50217,-0.02426,-0.06424,-0.03098,-0.03647,-0.01114,-0.01602,-0.00168,-0.01404,-0.01694,-0.00687,0.19196,-0.01251,-0.02869,-0.04181,-0.04898
6.2945,-0.52765,-0.0563,-0.07278,-0.02319,-0.0267,-0.00366,-0.02319,0.00137,-0.0087,-0.01511,-0.00778,0.20355,-0.02075,-0.02945,-0.04593,-0.0473
6.295,-0.56366,-0.07401,-0.07706,-0.0209,-0.01709,0.00183,-0.03433,0.00488,-0.00595,-0.01434,-0.00793,0.07965,-0.02304,-0.02411,-0.04654,-0.04547
6.2955,-0.59616,-0.0708,-0.07797,-0.02182,-0.00214,0.00565,-0.04623,0.00443,-0.00778,-0.01556,-0.00854,-0.06485,-0.02319,-0.01785,-0.04456,-0.04471
6.296,-0.60638,-0.06332,-0.07401,-0.02151,0.01694,0.00397,-0.05417,-0.00015,-0.01282,-0.01877,-0.01022,-0.11139,-0.02411,-0.01511,-0.03571,-0.04425
6.2965,-0.59082,-0.06927,-0.06989,-0.01816,0.03616,-0.00092,-0.05386,-0.00443,-0.01648,-0.01694,-0.01358,-0.05066,-0.02701,-0.0148,-0.02457,-0.04471
6.297,-0.55756,-0.08209,-0.06195,-0.01328,0.03937,-0.00778,-0.04761,-0.0058,-0.0148,-0.01816,-0.01495,0.03693,-0.03174,-0.01617,-0.0148,-0.04456
6.2975,-0.50552,-0.08087,-0.05035,-0.01236,0.01953,-0.01068,-0.0386,-0.00381,-0.00977,-0.01892,-0.0148,0.08133,-0.03632,-0.01755,0.00809,-0.04272
6.298,-0.42755,-0.06073,-0.03647,-0.01465,-0.01312,-0.01511,-0.03326,0.00046,-0.00656,-0.0177,-0.0177,0.07401,-0.03662,-0.01862,0.05554,-0.0412
6.2985,-0.33859,-0.03784,-0.02777,-0.01724,-0.0473,-0.02457,-0.0325,0.00351,-0.00717,-0.01923,-0.0177,0.04929,-0.03204,-0.02045,0.10788,-0.04013
6.299,-0.27435,-0.02106,-0.0267,-0.01999,-0.07751,-0.03784,-0.03372,0.00641,-0.0087,-0.02167,-0.02182,0.02777,-0.02502,-0.02258,0.12161,-0.03998
6.2995,-0.25253,-0.00854,-0.03265,-0.01755,-0.10788,-0.05249,-0.03143,0.01175,-0.00824,-0.02289,-0.02457,0.00748,-0.02197,-0.02472,0.0798,-0.03891
6.3,-0.24368,0.00259,-0.04044,-0.01266,-0.13733,-0.0679,-0.0235,0.02106,-0.00641,-0.02335,-0.0267,-0.01297,-0.02655,-0.02655,0.02045,-0.03891
6.3005,-0.21042,0.01007,-0.04623,-0.00824,-0.14709,-0.0827,-0.01495,0.03265,-0.00458,-0.0238,-0.02777,-0.02335,-0.03128,-0.02747,-0.02274,-0.03738
6.301,-0.14847,0.00824,-0.05157,-0.00397,-0.12146,-0.09354,-0.01663,0.04074,-0.00458,-0.02487,-0.02777,-0.01678,-0.02899,-0.02579,-0.0563,-0.03693
6.3015,-0.08377,-0.01038,-0.05875,-0.00046,-0.07767,-0.09872,-0.03326,0.04395,-0.00626,-0.02594,-0.0264,-0.00092,-0.01907,-0.02274,-0.08881,-0.03677
6.302,-0.03082,-0.04349,-0.0737,0.00183,-0.04807,-0.09949,-0.05798,0.04318,-0.00778,-0.02609,-0.02518,0.0148,-0.00946,-0.02029,-0.10635,-0.03769
6.3025,0.01755,-0.07202,-0.11246,0.0061,-0.0415,-0.09949,-0.07568,0.04364,-0.00961,-0.02396,-0.02335,0.03571,-0.00259,-0.01831,-0.09567,-0.03967
6.303,0.06882,-0.0737,-0.17746,0.01022,-0.04456,-0.09384,-0.06897,0.04593,-0.01068,-0.02304,-0.0206,0.0589,-0.00092,-0.01816,-0.07126,-0.03952
6.3035,0.11719,-0.04929,-0.23788,0.01434,-0.04456,-0.08133,-0.02457,0.04944,-0.01114,-0.02319,-0.01785,0.07599,-0.00443,-0.01968,-0.04272,-0.0386
6.304,0.15732,-0.02289,-0.2359,0.01785,-0.04028,-0.06927,0.04379,0.04959,-0.01221,-0.02426,-0.01541,0.07309,-0.00763,-0.0206,0.0032,-0.03891
6.3045,0.19073,-0.01419,-0.16006,0.02274,-0.03754,-0.06119,0.08743,0.04501,-0.01389,-0.02365,-0.01144,0.04242,-0.01068,-0.01816,0.07538,-0.03952
6.305,0.2211,-0.02045,-0.0621,0.03006,-0.03494,-0.05646,0.07248,0.03845,-0.01541,-0.02197,-0.00687,-0.02777,-0.01465,-0.01343,0.14008,-0.04105
6.3055,0.2446,-0.02533,0.00015,0.03906,-0.03418,-0.05402,0.02365,0.0351,-0.01633,-0.0206,-0.00473,-0.13092,-0.02319,-0.01266,0.15137,-0.0415
6.306,0.25696,-0.02487,0.02701,0.04547,-0.03281,-0.05264,-0.00549,0.0354,-0.01694,-0.02167,-0.00336,-0.23132,-0.03204,-0.01663,0.10529,-0.04257
6.3065,0.26382,-0.02686,0.04135,0.04501,-0.03067,-0.05112,-0.00046,0.03677,-0.0177,-0.02243,-0.00412,-0.27679,-0.03586,-0.01923,0.04135,-0.04242
6.307,0.27939,-0.03448,0.04578,0.03433,-0.0293,-0.04776,0.0119,0.03891,-0.02029,-0.02319,-0.00549,-0.24628,-0.03906,-0.02029,0.00214,-0.03922
6.3075,0.30716,-0.04318,0.03128,0.01526,-0.02625,-0.04318,0.00854,0.04242,-0.02258,-0.02289,-0.00778,-0.16632,-0.04959,-0.01999,-0.00443,-0.03586
6.308,0.33676,-0.0473,0.00427,-0.00519,-0.02121,-0.03952,-0.00504,0.0444,-0.02319,-0.02228,-0.0087,-0.09018,-0.0647,-0.02045,0.00275,-0.03433
6.3085,0.3624,-0.04761,-0.01633,-0.02548,-0.01617,-0.04044,-0.01404,0.04013,-0.0235,-0.02304,-0.00961,-0.04974,-0.07767,-0.01984,0.00656,-0.03387
6.309,0.38437,-0.04761,-0.02014,-0.0444,-0.0145,-0.04333,-0.01556,0.02792,-0.02533,-0.02335,-0.01083,-0.0354,-0.0798,-0.01877,0.00626,-0.03555
6.3095,0.40604,-0.04791,-0.01144,-0.05585,-0.01617,-0.04364,-0.01541,0.01389,-0.02731,-0.02258,-0.01038,-0.02396,-0.07217,-0.01801,0.00641,-0.03464
6.31,0.42526,-0.04959,-0.00259,-0.05112,-0.01831,-0.04364,-0.01709,0.00549,-0.02655,-0.01984,-0.00809,-0.01343,-0.06134,-0.01892,0.00702,-0.03494
6.3105,0.43701,-0.0528,-0.00229,-0.03433,-0.02029,-0.04471,-0.01831,0.00427,-0.02396,-0.01633,-0.00656,-0.01282,-0.05188,-0.01923,0.00488,-0.03677
6.311,0.44022,-0.05539,-0.01205,-0.01877,-0.02213,-0.04639,-0.01877,0.00488,-0.02258,-0.01358,-0.00732,-0.01556,-0.04272,-0.01877,0.00214,-0.04013
6.3115,0.43839,-0.05646,-0.02853,-0.01724,-0.02457,-0.04486,-0.01831,0.00275,-0.02274,-0.01236,-0.00839,-0.00046,-0.03647,-0.0177,0.00092,-0.04227
6.312,0.43533,-0.05829,-0.04639,-0.02502,-0.02686,-0.04333,-0.01663,-0.00168,-0.02274,-0.01266,-0.00992,0.03983,-0.03281,-0.01694,0.00244,-0.04166
6.3125,0.43304,-0.0618,-0.0589,-0.03143,-0.0296,-0.0441,-0.01404,-0.00671,-0.02197,-0.0148,-0.01022,0.08163,-0.03204,-0.01709,0.00259,-0.04059
6.313,0.43198,-0.06882,-0.06104,-0.03372,-0.0322,-0.04791,-0.01266,-0.00977,-0.02045,-0.01846,-0.01114,0.08942,-0.03204,-0.01831,0.00427,-0.03937
6.3135,0.4303,-0.08011,-0.05417,-0.04089,-0.03418,-0.05051,-0.01251,-0.01068,-0.01968,-0.01999,-0.01221,0.05783,-0.03143,-0.01968,0.00717,-0.0386
6.314,0.42847,-0.09705,-0.047,-0.05585,-0.03525,-0.04776,-0.01358,-0.01068,-0.01831,-0.02014,-0.01389,0.01678,-0.03082,-0.01953,0.00702,-0.03601
6.3145,0.42694,-0.12268,-0.05554,-0.07187,-0.03723,-0.0415,-0.01587,-0.01343,-0.01694,-0.01877,-0.01343,-0.00626,-0.03204,-0.01785,0.00168,-0.03387
6.315,0.42847,-0.15076,-0.08911,-0.08087,-0.03937,-0.0354,-0.01801,-0.0177,-0.01511,-0.01831,-0.01236,-0.0116,-0.0351,-0.01617,-0.00687,-0.03189
6.3155,0.4277,-0.17242,-0.12573,-0.08514,-0.04089,-0.02686,-0.0177,-0.02121,-0.01404,-0.01984,-0.01114,-0.0116,-0.03738,-0.0145,-0.01266,-0.03082
6.316,0.42053,-0.17273,-0.12833,-0.08728,-0.03906,-0.00854,-0.01495,-0.02197,-0.01434,-0.02182,-0.009,-0.00916,-0.03769,-0.01526,-0.01297,-0.02914
6.3165,0.40833,-0.14221,-0.09811,-0.08514,-0.03632,0.01389,-0.01465,-0.02335,-0.01678,-0.02289,-0.00748,-0.00259,-0.03616,-0.01678,-0.00977,-0.02853
6.317,0.39764,-0.08606,-0.07309,-0.07721,-0.02548,0.02167,-0.02029,-0.03067,-0.01801,-0.02167,-0.00778,0.00351,-0.03647,-0.01785,-0.0032,-0.02869
6.3175,0.39063,-0.01892,-0.06744,-0.06317,-0.00198,0.0,-0.02716,-0.03693,-0.01694,-0.01999,-0.00763,0.00427,-0.03616,-0.01862,0.00671,-0.03113
6.318,0.38589,0.03937,-0.04471,-0.04837,0.02914,-0.0412,-0.02701,-0.03113,-0.01511,-0.01923,-0.00946,0.00061,-0.0322,-0.01968,0.02106,-0.03418
6.3185,0.37918,0.07828,0.01801,-0.04181,0.05005,-0.07858,-0.0206,-0.01678,-0.01495,-0.02014,-0.01022,0.00198,-0.02609,-0.0206,0.03357,-0.03738
6.319,0.36804,0.10178,0.09552,-0.04562,0.04715,-0.08987,-0.01694,-0.00565,-0.01572,-0.02136,-0.01007,0.01068,-0.02289,-0.02136,0.03311,-0.0383
6.3195,0.34698,0.11398,0.14175,-0.05219,0.02823,-0.07477,-0.01953,-0.00656,-0.01602,-0.02151,-0.00595,0.02151,-0.02396,-0.02106,0.01907,-0.03799
6.32,0.31189,0.11429,0.14343,-0.05417,0.01038,-0.05447,-0.02502,-0.01282,-0.0145,-0.01938,-0.00229,0.03036,-0.02518,-0.02167,0.00046,-0.03723
6.3205,0.26688,0.103,0.12146,-0.05341,-0.00427,-0.04883,-0.02777,-0.01633,-0.01297,-0.01755,-0.00107,0.03601,-0.02304,-0.02228,-0.0116,-0.03891
6.321,0.2269,0.08194,0.09262,-0.05112,-0.03021,-0.05295,-0.02563,-0.01648,-0.01343,-0.01419,-0.00183,0.03754,-0.02014,-0.02167,-0.01297,-0.04578
6.3215,0.20828,0.0563,0.06104,-0.04501,-0.07309,-0.05447,-0.01968,-0.01373,-0.01541,-0.00931,-0.00229,0.0354,-0.0206,-0.01846,-0.0061,-0.0592
6.322,0.21332,0.0322,0.02991,-0.03082,-0.10239,-0.04959,-0.01144,-0.00778,-0.01633,-0.00626,-0.00244,0.03189,-0.02548,-0.01526,0.00229,-0.07141
6.3225,0.22888,0.00778,0.00259,-0.00992,-0.07782,-0.04517,-0.00305,0.0,-0.01541,-0.00565,-0.00366,0.03113,-0.03342,-0.01358,0.00748,-0.07523
6.323,0.23529,-0.01999,-0.01404,0.00977,-0.01389,-0.04593,0.0029,0.00443,-0.01343,-0.00641,-0.00671,0.03403,-0.03738,-0.01389,0.00916,-0.06775
6.3235,0.22873,-0.0528,-0.02167,0.02121,0.02182,-0.05051,0.00275,0.00214,-0.01312,-0.00778,-0.00839,0.03571,-0.03662,-0.01526,0.00534,-0.05661
6.324,0.21317,-0.07843,-0.02762,0.02228,-0.00778,-0.05417,-0.01236,-0.00137,-0.01495,-0.00717,-0.00839,0.03357,-0.03418,-0.01755,-0.00031,-0.0441
6.3245,0.19577,-0.08804,-0.04761,0.0145,-0.07401,-0.05386,-0.04303,-0.00061,-0.01526,-0.00626,-0.01099,0.02899,-0.03189,-0.02121,-0.00793,-0.03098
6.325,0.17883,-0.08575,-0.0856,0.00214,-0.1297,-0.05127,-0.07736,0.00656,-0.01221,-0.00458,-0.01373,0.02411,-0.03006,-0.0235,-0.01663,-0.02319
6.3255,0.16434,-0.08331,-0.12939,-0.00793,-0.1619,-0.05051,-0.09628,0.01709,-0.009,-0.00366,-0.01556,0.0209,-0.02686,-0.02396,-0.02457,-0.03036
6.326,0.15289,-0.08301,-0.15823,-0.01038,-0.1799,-0.05157,-0.09766,0.02838,-0.00717,-0.00626,-0.01602,0.0177,-0.02365,-0.02289,-0.03143,-0.04257
6.3265,0.14267,-0.07874,-0.16998,-0.00595,-0.18524,-0.05569,-0.10132,0.03235,-0.00809,-0.01099,-0.01663,0.01602,-0.0206,-0.02258,-0.03098,-0.03632
6.327,0.13382,-0.07065,-0.17334,-0.00046,-0.17838,-0.05997,-0.12878,0.02274,-0.00885,-0.01526,-0.01816,0.01755,-0.01923,-0.02365,-0.02274,-0.009
6.3275,0.12512,-0.06195,-0.16632,0.00122,-0.15121,-0.06058,-0.17456,-0.00168,-0.00854,-0.01923,-0.0177,0.02045,-0.01999,-0.02411,-0.01617,0.0148
6.328,0.1178,-0.05478,-0.13138,0.00015,-0.1004,-0.05768,-0.20966,-0.03036,-0.00793,-0.0206,-0.01816,0.02258,-0.02243,-0.0235,-0.01801,0.01755
6.3285,0.10895,-0.04639,-0.07019,-0.00107,-0.04532,-0.05234,-0.21072,-0.0441,-0.00809,-0.02029,-0.01938,0.0209,-0.02579,-0.02289,-0.0148,0.0058
6.329,0.09705,-0.03937,-0.00671,-0.00198,-0.01465,-0.04913,-0.16373,-0.03174,-0.00885,-0.01907,-0.01938,0.01755,-0.02975,-0.02289,0.01221,-0.00336
6.3295,0.08362,-0.03494,0.03235,-0.00244,-0.01877,-0.05081,-0.05875,-0.00046,-0.01038,-0.0177,-0.01968,0.01312,-0.03235,-0.02274,0.05432,-0.00214
6.33,0.0705,-0.03189,0.04486,-0.00031,-0.03159,-0.05493,0.08957,0.02762,-0.01236,-0.0177,-0.01633,0.00656,-0.03128,-0.02304,0.08118,0.0029
6.3305,0.05768,-0.03098,0.0444,0.00305,-0.03448,-0.05768,0.2037,0.04211,-0.01419,-0.01907,-0.01511,-0.00397,-0.02686,-0.02396,0.07782,0.00366
6.331,0.04395,-0.03799,0.03967,0.0058,-0.02731,-0.05737,0.19928,0.04242,-0.01526,-0.0209,-0.01526,-0.01419,-0.02106,-0.02289,0.0499,-0.00168
6.3315,0.03372,-0.056,0.03616,0.00565,-0.02197,-0.05539,0.11337,0.02991,-0.01556,-0.01923,-0.01694,-0.01709,-0.01801,-0.02182,0.00977,-0.0116
6.332,0.02869,-0.0827,0.03159,0.00641,-0.01648,-0.05341,0.07858,0.01236,-0.01602,-0.01999,-0.0177,-0.01114,-0.01968,-0.02029,-0.02762,-0.02686
6.3325,0.0267,-0.1091,0.02014,0.01053,-0.00412,-0.0528,0.13611,0.00168,-0.01434,-0.02167,-0.01694,-0.0029,-0.02869,-0.01953,-0.04517,-0.04959
6.333,0.02182,-0.12283,0.00015,0.01663,0.0209,-0.05188,0.18097,0.00763,-0.0119,-0.02151,-0.01755,0.00458,-0.0415,-0.01785,-0.03876,-0.07401
6.3335,0.01007,-0.1178,-0.02731,0.01862,0.04913,-0.05066,0.13489,0.01938,-0.00992,-0.02075,-0.01602,0.01175,-0.05142,-0.0174,-0.02701,-0.08896
6.334,-0.00702,-0.09933,-0.05371,0.01419,0.06393,-0.04807,0.04929,0.02197,-0.00931,-0.02045,-0.0145,0.02136,-0.056,-0.01678,-0.02472,-0.08789
6.3345,-0.02274,-0.07996,-0.07324,0.00626,0.05753,-0.04684,0.01038,0.00977,-0.00854,-0.02029,-0.0119,0.03342,-0.05447,-0.01556,-0.03204,-0.0769
6.335,-0.0322,-0.06348,-0.0795,0.00153,0.03662,-0.0502,0.02838,-0.00931,-0.00732,-0.0209,-0.01083,0.04745,-0.04929,-0.01526,-0.0383,-0.06592
6.3355,-0.03754,-0.04547,-0.07294,0.00763,0.01663,-0.05554,0.05463,-0.02151,-0.00595,-0.02151,-0.01205,0.05707,-0.04044,-0.01511,-0.03693,-0.05768
6.336,-0.04486,-0.02197,-0.06027,0.03113,-0.00153,-0.06149,0.05066,-0.02197,-0.00549,-0.02274,-0.0119,0.04822,-0.03281,-0.01633,-0.01526,-0.05173
6.3365,-0.05432,0.00244,-0.04486,0.06638,-0.02563,-0.06683,0.02686,-0.01389,-0.00397,-0.02243,-0.01297,0.01541,-0.02991,-0.01816,0.02182,-0.04913
6.337,-0.05768,0.0177,-0.03052,0.09308,-0.06393,-0.07172,0.01236,-0.00198,-0.00336,-0.02106,-0.0119,-0.02213,-0.03036,-0.01968,0.05692,-0.04654
6.3375,-0.05493,0.01862,-0.0174,0.09109,-0.1091,-0.07507,0.01892,0.00778,-0.00366,-0.02136,-0.0116,-0.03922,-0.02853,-0.02075,0.07538,-0.04395
6.338,-0.05005,0.01099,-0.00504,0.06287,-0.13489,-0.07462,0.03525,0.00946,-0.00473,-0.02182,-0.01053,-0.03159,-0.02304,-0.02167,0.07858,-0.04074
6.3385,-0.05005,0.00244,0.00458,0.03021,-0.12054,-0.06882,0.04547,0.00488,-0.0061,-0.02197,-0.009,-0.01785,-0.01968,-0.02151,0.07385,-0.03937
6.339,-0.05737,-0.00366,0.00946,0.00412,-0.08163,-0.05981,0.0444,-0.00092,-0.00595,-0.0209,-0.00793,-0.01266,-0.02106,-0.02121,0.06332,-0.0412
6.3395,-0.07111,-0.00961,0.00809,-0.01846,-0.05859,-0.05249,0.03738,-0.00107,-0.0061,-0.01907,-0.00671,-0.01877,-0.02701,-0.01953,0.04349,-0.04501
6.34,-0.08652,-0.01785,0.00107,-0.04517,-0.07599,-0.04776,0.0296,0.0061,-0.00626,-0.01923,-0.00748,-0.0351,-0.03143,-0.01785,0.01465,-0.04898
6.3405,-0.09689,-0.03174,-0.00717,-0.06592,-0.10666,-0.04745,0.02014,0.01282,-0.00641,-0.02029,-0.00992,-0.05829,-0.03448,-0.01694,-0.01114,-0.05157
6.341,-0.09827,-0.047,-0.01343,-0.06638,-0.11124,-0.04654,0.00351,0.01511,-0.00687,-0.02213,-0.01556,-0.0679,-0.03616,-0.01801,-0.01984,-0.05219
6.3415,-0.09277,-0.05768,-0.02167,-0.05035,-0.08392,-0.04379,-0.02014,0.01144,-0.00641,-0.02075,-0.01831,-0.03311,-0.03632,-0.01831,-0.00168,-0.0499
6.342,-0.08667,-0.05859,-0.03647,-0.03769,-0.0473,-0.03723,-0.04623,0.00626,-0.0061,-0.02197,-0.01709,0.03815,-0.0322,-0.01907,0.03311,-0.04837
6.3425,-0.08362,-0.05157,-0.05539,-0.03937,-0.02441,-0.02991,-0.07278,0.00275,-0.00702,-0.0206,-0.01587,0.08331,-0.02731,-0.02258,0.05707,-0.04822
6.343,-0.08438,-0.04318,-0.06836,-0.04944,-0.01389,-0.02594,-0.10223,-0.00015,-0.00763,-0.01923,-0.01526,0.04791,-0.02701,-0.0293,0.05066,-0.05081
6.3435,-0.08667,-0.0383,-0.07233,-0.05386,-0.01007,-0.02701,-0.13504,-0.00473,-0.00702,-0.01999,-0.01419,-0.04089,-0.02975,-0.03448,0.02441,-0.0528
6.344,-0.09155,-0.03616,-0.06699,-0.04868,-0.00549,-0.03265,-0.16876,-0.00931,-0.0061,-0.01846,-0.01389,-0.10483,-0.02884,-0.03418,0.00839,-0.0502
6.3445,-0.09689,-0.03571,-0.06042,-0.03769,-0.00244,-0.03815,-0.19714,-0.00885,-0.00641,-0.01816,-0.01434,-0.09659,-0.01953,-0.02884,0.01953,-0.04333
6.345,-0.09811,-0.03571,-0.05875,-0.0264,-0.00046,-0.03769,-0.22278,0.00092,-0.00824,-0.01923,-0.01404,-0.02365,-0.00946,-0.0235,0.03998,-0.03418
6.3455,-0.09338,-0.0386,-0.05768,-0.01984,0.00275,-0.03464,-0.23895,0.02304,-0.0087,-0.01923,-0.01465,0.06973,-0.00854,-0.01923,0.03662,-0.03021
6.346,-0.08377,-0.04517,-0.0563,-0.02014,0.01175,-0.03372,-0.20844,0.05646,-0.00854,-0.01938,-0.01434,0.12314,-0.0177,-0.01511,0.0116,-0.03464
6.3465,-0.07568,-0.05157,-0.04868,-0.02457,0.02869,-0.03525,-0.09598,0.09308,-0.00824,-0.01968,-0.01373,0.0946,-0.03036,-0.0119,0.00366,-0.04181
6.347,-0.07431,-0.05203,-0.03647,-0.02975,0.0499,-0.03494,0.04364,0.11246,-0.0087,-0.01785,-0.01251,0.00671,-0.03967,-0.01373,0.03448,-0.04578
6.3475,-0.07629,-0.04883,-0.02655,-0.03571,0.07202,-0.03159,0.09338,0.10559,-0.00854,-0.01511,-0.01495,-0.05127,-0.04257,-0.01724,0.07614,-0.04532
6.348,-0.07721,-0.04807,-0.02457,-0.04028,0.09399,-0.03113,0.03342,0.07782,-0.00824,-0.02029,-0.01434,-0.00626,-0.03799,-0.01678,0.08942,-0.04486
6.3485,-0.07858,-0.05035,-0.02869,-0.0415,0.11185,-0.03998,-0.02045,0.04242,-0.00839,-0.01724,-0.01266,0.09842,-0.02914,-0.01205,0.08087,-0.04654
6.349,-0.08301,-0.05188,-0.03403,-0.0354,0.11734,-0.05447,0.01587,0.00534,-0.01022,-0.01953,-0.01175,0.14984,-0.02396,-0.00824,0.07645,-0.04868
6.3495,-0.09048,-0.05005,-0.03601,-0.02426,0.11032,-0.06378,0.08194,-0.03403,-0.01038,-0.01801,-0.01343,0.10925,-0.02579,-0.00824,0.06012,-0.04852
6.35,-0.09583,-0.04837,-0.03342,-0.01389,0.09491,-0.06165,0.09262,-0.07172,-0.01038,-0.02106,-0.01312,0.04166,-0.03174,-0.00977,-0.02396,-0.04669
6.3505,-0.0975,-0.05295,-0.03052,-0.00839,0.06699,-0.05234,0.06241,-0.09872,-0.00961,-0.01923,-0.01251,0.00656,-0.03708,-0.01236,-0.16708,-0.03952
6.351,-0.09293,-0.06073,-0.02945,-0.00748,0.00656,-0.04379,0.06226,-0.12024,-0.00977,-0.01938,-0.01205,-0.00458,-0.03952,-0.01602,-0.24536,-0.02533
6.3515,-0.08408,-0.05554,-0.03174,-0.00687,-0.09094,-0.03586,0.11139,-0.14557,-0.00977,-0.01663,-0.01175,-0.01617,-0.03998,-0.02106,-0.186,-0.01114
6.352,-0.07385,-0.03448,-0.04227,-0.00534,-0.19043,-0.02625,0.17899,-0.17548,-0.01007,-0.01862,-0.01144,-0.01984,-0.04135,-0.0235,-0.0885,-0.00687
6.3525,-0.06516,-0.00778,-0.07202,-0.0029,-0.24887,-0.01968,0.23575,-0.19852,-0.01175,-0.02075,-0.01114,-0.00259,-0.04364,-0.02319,-0.07477,-0.01526
6.353,-0.06271,0.00671,-0.121,0.00137,-0.2446,-0.02106,0.24582,-0.21423,-0.01282,-0.02029,-0.01129,0.01953,-0.04532,-0.02213,-0.12665,-0.03326
6.3535,-0.06439,-0.00015,-0.1564,0.00443,-0.18951,-0.02594,0.17319,-0.22919,-0.01312,-0.02411,-0.01114,0.02121,-0.04471,-0.02243,-0.1535,-0.05981
6.354,-0.06622,-0.03174,-0.14496,0.00702,-0.12268,-0.02975,0.04517,-0.22797,-0.0119,-0.02335,-0.01083,-0.00549,-0.04288,-0.02457,-0.13611,-0.09262
6.3545,-0.06485,-0.08041,-0.09232,0.00748,-0.07858,-0.03235,-0.05432,-0.17899,-0.01129,-0.0206,-0.00809,-0.04044,-0.04318,-0.0267,-0.12009,-0.10986
6.355,-0.06149,-0.12497,-0.03952,0.00549,-0.06805,-0.03876,-0.08377,-0.07767,-0.01221,-0.02121,-0.009,-0.05783,-0.0441,-0.0267,-0.11017,-0.08469
6.3555,-0.06027,-0.14816,-0.01068,0.00443,-0.07355,-0.04868,-0.08102,0.03189,-0.01312,-0.02151,-0.01129,-0.04501,-0.04303,-0.02533,-0.05554,-0.02701
6.356,-0.06241,-0.14633,0.00763,0.00565,-0.0705,-0.05859,-0.08286,0.09811,-0.01358,-0.02258,-0.01328,-0.0119,-0.03998,-0.02167,0.08224,0.0148
6.3565,-0.06668,-0.12604,0.03113,0.01038,-0.056,-0.06622,-0.07507,0.11383,-0.01389,-0.02228,-0.01144,0.01968,-0.03723,-0.01663,0.27054,0.01556
6.357,-0.07385,-0.09338,0.05188,0.01678,-0.04059,-0.07324,-0.04242,0.11566,-0.01373,-0.02319,-0.00732,0.03082,-0.03738,-0.01175,0.37354,-0.00381
6.3575,-0.08331,-0.05661,0.056,0.02197,-0.03342,-0.08316,-0.01602,0.13138,-0.01221,-0.02151,-0.00992,0.01907,-0.03723,-0.01312,0.28473,-0.0206
6.358,-0.09354,-0.02701,0.04501,0.02472,-0.03357,-0.09262,-0.0267,0.14648,-0.01205,-0.02014,-0.01144,-0.00275,-0.03632,-0.01938,0.08957,-0.03479
6.3585,-0.10223,-0.01236,0.03204,0.02609,-0.03815,-0.0946,-0.06104,0.13474,-0.01282,-0.01984,-0.01297,-0.01984,-0.0351,-0.02396,-0.03189,-0.05859
6.359,-0.10544,-0.00443,0.0235,0.0293,-0.04379,-0.08728,-0.08728,0.09628,-0.01511,-0.01968,-0.01297,-0.02838,-0.03433,-0.0235,-0.01907,-0.08652
6.3595,-0.10117,0.00641,0.01923,0.03571,-0.04517,-0.07339,-0.10315,0.05569,-0.01633,-0.02121,-0.01068,-0.02701,-0.03418,-0.02167,0.03143,-0.10559
6.36,-0.08911,0.01785,0.01465,0.04593,-0.04059,-0.05905,-0.12436,0.03357,-0.01495,-0.01877,-0.00946,-0.01846,-0.03403,-0.02106,0.04639,-0.10803
6.3605,-0.07095,0.01968,0.00992,0.0528,-0.02899,-0.04623,-0.13702,0.02731,-0.01404,-0.0206,-0.01053,-0.00931,-0.03403,-0.02106,0.03738,-0.0972
6.361,-0.04837,0.01007,0.00946,0.04974,-0.01068,-0.0351,-0.112,0.02655,-0.01465,-0.01984,-0.01038,-0.0087,-0.03387,-0.01984,0.03342,-0.07965
6.3615,-0.02792,-0.00259,0.01083,0.03922,0.01328,-0.02457,-0.05081,0.02151,-0.01617,-0.01953,-0.01495,-0.02136,-0.03265,-0.01846,0.03571,-0.06531
6.362,-0.01663,-0.00961,0.00427,0.03128,0.04105,-0.01968,0.0209,0.00702,-0.01755,-0.01999,-0.01236,-0.04349,-0.03052,-0.01724,0.02945,-0.06012
6.3625,-0.01297,-0.00977,-0.01404,0.02975,0.06653,-0.02365,0.07965,-0.01404,-0.01953,-0.02182,-0.0116,-0.06531,-0.02869,-0.01724,0.01999,-0.06393
6.363,-0.01236,-0.00717,-0.03754,0.02472,0.08362,-0.03159,0.10468,-0.03281,-0.01999,-0.02121,-0.01099,-0.07019,-0.02716,-0.01801,0.01038,-0.06668
6.3635,-0.00885,-0.01083,-0.06607,0.00381,0.09018,-0.03662,0.07141,-0.04227,-0.02136,-0.02228,-0.00931,-0.05783,-0.0267,-0.01678,0.00229,-0.0621
6.364,-0.00397,-0.02075,-0.08743,-0.03387,0.08591,-0.04135,0.00107,-0.04364,-0.02151,-0.0209,-0.00732,-0.04257,-0.02655,-0.01587,-0.01328,-0.05264
6.3645,-0.00092,-0.02823,-0.09811,-0.0737,0.06882,-0.0444,-0.05112,-0.04288,-0.02014,-0.01938,-0.00626,-0.03601,-0.02579,-0.01617,-0.02716,-0.04532
6.365,-0.00153,-0.02731,-0.10223,-0.09644,0.0412,-0.04883,-0.05447,-0.04089,-0.02014,-0.01846,-0.00839,-0.03632,-0.02548,-0.01785,-0.03403,-0.04303
6.3655,-0.00305,-0.02075,-0.09064,-0.09857,0.00458,-0.0499,-0.03342,-0.03769,-0.02167,-0.0177,-0.01129,-0.03586,-0.02548,-0.01999,-0.03647,-0.04425
6.366,-0.0029,-0.01984,-0.07721,-0.09247,-0.03983,-0.04837,-0.02396,-0.03723,-0.02167,-0.01694,-0.01297,-0.03326,-0.02426,-0.02121,-0.04501,-0.04913
6.3665,-0.00122,-0.02518,-0.06714,-0.09262,-0.09018,-0.04715,-0.03021,-0.0415,-0.01862,-0.01465,-0.01389,-0.02945,-0.02335,-0.02045,-0.04974,-0.05341
6.367,0.00046,-0.03235,-0.07843,-0.0975,-0.13748,-0.04776,-0.03754,-0.04456,-0.01511,-0.01541,-0.01434,-0.02411,-0.02518,-0.01923,-0.02899,-0.05127
6.3675,0.00153,-0.03662,-0.08118,-0.09338,-0.16037,-0.04913,-0.04059,-0.04196,-0.01312,-0.01709,-0.01526,-0.01801,-0.02731,-0.01877,0.03052,-0.03983
6.368,0.00214,-0.03891,-0.08636,-0.06866,-0.14313,-0.0473,-0.04028,-0.03571,-0.01297,-0.01617,-0.01526,-0.01328,-0.02686,-0.01755,0.10178,-0.02792
6.3685,0.00351,-0.04211,-0.0737,-0.03372,-0.08636,-0.0441,-0.03876,-0.03143,-0.01282,-0.01633,-0.0145,-0.00946,-0.02518,-0.0174,0.13611,-0.02731
6.369,0.00443,-0.04547,-0.06577,-0.00748,-0.01251,-0.04013,-0.03616,-0.03418,-0.01221,-0.01495,-0.01556,-0.00641,-0.02304,-0.01694,0.11246,-0.04089
6.3695,0.00534,-0.04623,-0.06195,0.00183,0.04822,-0.03601,-0.03372,-0.03952,-0.01144,-0.0148,-0.01282,-0.00412,-0.02213,-0.0177,0.05569,-0.05997
6.37,0.00565,-0.04272,-0.05112,-0.00046,0.07477,-0.0351,-0.03296,-0.04349,-0.01144,-0.0148,-0.01068,-0.00336,-0.01953,-0.01984,0.01114,-0.07797
6.3705,0.00381,-0.03998,-0.04471,-0.00473,0.06302,-0.03723,-0.03326,-0.04333,-0.01266,-0.01526,-0.01251,-0.00366,-0.01556,-0.02243,-0.00427,-0.09628
6.371,0.00107,-0.04181,-0.04028,-0.00717,0.03006,-0.04288,-0.03479,-0.04028,-0.01312,-0.01541,-0.01495,-0.00244,-0.01343,-0.02502,-0.00534,-0.10193
6.3715,-0.00229,-0.04547,-0.04196,-0.00732,-0.00244,-0.05127,-0.03723,-0.03616,-0.01266,-0.0148,-0.01755,0.00031,-0.01419,-0.02502,-0.00839,-0.06805
6.372,-0.00458,-0.04593,-0.04242,-0.0061,-0.02426,-0.06363,-0.03891,-0.03082,-0.01144,-0.01556,-0.01907,0.00229,-0.01465,-0.02411,-0.00992,0.01663
6.3725,-0.00839,-0.04196,-0.03845,-0.00046,-0.04974,-0.07736,-0.03769,-0.02167,-0.01038,-0.01709,-0.01541,-0.00015,-0.01404,-0.02319,0.00107,0.10452
6.373,-0.01282,-0.03876,-0.03448,0.00763,-0.09583,-0.08591,-0.03448,-0.00732,-0.01129,-0.01724,-0.01404,-0.00946,-0.01404,-0.02243,0.0145,0.12344
6.3735,-0.01541,-0.04364,-0.03143,0.01343,-0.14893,-0.08194,-0.03281,0.00732,-0.0119,-0.01831,-0.01266,-0.02289,-0.01785,-0.02045,0.01511,0.06241
6.374,-0.01129,-0.05219,-0.03006,0.00732,-0.16724,-0.06683,-0.03128,0.01694,-0.01343,-0.02029,-0.01587,-0.03067,-0.02609,-0.01633,0.01129,-0.01541
6.3745,0.00092,-0.05753,-0.02563,-0.00977,-0.13504,-0.04654,-0.02762,0.02274,-0.0148,-0.02014,-0.01465,-0.02914,-0.03738,-0.01144,0.00519,-0.04898
6.375,0.01373,-0.05844,-0.01801,-0.02899,-0.08514,-0.0322,-0.02289,0.02716,-0.01511,-0.01923,-0.01312,-0.0264,-0.04608,-0.01038,-0.01389,-0.04181
6.3755,0.01572,-0.06561,-0.01099,-0.03967,-0.05264,-0.02808,-0.01984,0.02869,-0.0148,-0.01816,-0.01251,-0.03174,-0.04837,-0.01282,-0.04044,-0.02899
6.376,0.00565,-0.0853,-0.00687,-0.03891,-0.04272,-0.0267,-0.02121,0.02838,-0.01389,-0.0177,-0.01236,-0.04456,-0.04486,-0.01434,-0.04745,-0.02579
6.3765,-0.01068,-0.11169,-0.00519,-0.02823,-0.04059,-0.02319,-0.02411,0.02411,-0.01358,-0.01892,-0.01312,-0.05753,-0.04211,-0.01495,-0.02182,-0.02701
6.377,-0.02335,-0.12756,-0.0145,-0.01251,-0.0351,-0.01694,-0.02487,0.02075,-0.01312,-0.01999,-0.01312,-0.05432,-0.04135,-0.01617,0.01038,-0.02686
6.3775,-0.02762,-0.12009,-0.03235,0.00565,-0.02228,-0.01602,-0.02274,0.02029,-0.01144,-0.02029,-0.01465,-0.01785,-0.03967,-0.01831,0.01968,-0.02792
6.378,-0.02701,-0.09125,-0.07553,0.02319,-0.00748,-0.02167,-0.01862,0.02335,-0.01022,-0.01846,-0.01236,0.05798,-0.03647,-0.01999,0.00793,-0.03036
6.3785,-0.02747,-0.05463,-0.16083,0.0386,0.00122,-0.03082,-0.01678,0.03052,-0.01007,-0.01785,-0.01419,0.15015,-0.03235,-0.02029,0.00137,-0.03189
6.379,-0.02945,-0.0209,-0.2153,0.04532,0.00046,-0.04105,-0.01419,0.04013,-0.0119,-0.01907,-0.01465,0.20142,-0.02975,-0.02029,0.00397,-0.03281
6.3795,-0.03326,0.00473,-0.18951,0.03372,-0.00885,-0.04715,-0.01129,0.04745,-0.01312,-0.01984,-0.01617,0.16449,-0.03036,-0.02029,0.00595,-0.0351
6.38,-0.03967,0.02319,-0.0798,0.01495,-0.02533,-0.05432,-0.00763,0.04944,-0.0148,-0.01968,-0.01678,0.06088,-0.03296,-0.02029,0.01083,-0.03815
6.3805,-0.05203,0.03601,0.02747,0.02167,-0.04639,-0.05936,-0.00458,0.04364,-0.01526,-0.01968,-0.01694,-0.02945,-0.03616,-0.01968,0.00885,-0.0412
6.381,-0.06699,0.04105,0.07813,0.07019,-0.06897,-0.06317,-0.00519,0.0351,-0.01541,-0.0206,-0.01328,-0.05463,-0.03677,-0.01984,0.01022,-0.04318
6.3815,-0.07263,0.03708,0.05676,0.12344,-0.08377,-0.06042,-0.00793,0.02869,-0.01572,-0.0206,-0.01175,-0.03143,-0.03769,-0.02014,0.01129,-0.0444
6.382,-0.05768,0.0267,-0.03036,0.12741,-0.07568,-0.05417,-0.01083,0.0267,-0.01572,-0.02167,-0.01312,-0.01205,-0.04059,-0.02075,0.00549,-0.04684
6.3825,-0.02808,0.00824,-0.16159,0.06104,-0.03876,-0.04791,-0.01068,0.02228,-0.01602,-0.02045,-0.01144,-0.02991,-0.04471,-0.02014,0.00641,-0.04868
6.383,-0.00381,-0.02075,-0.25894,-0.04807,0.01129,-0.04303,-0.01007,0.00748,-0.01587,-0.02029,-0.01358,-0.07858,-0.04929,-0.01984,-0.00214,-0.04974
6.3835,0.00519,-0.05768,-0.24628,-0.13794,0.04654,-0.04074,-0.01282,-0.01297,-0.01511,-0.01907,-0.01434,-0.12497,-0.05188,-0.01984,-0.00229,-0.04944
6.384,0.00671,-0.09079,-0.1384,-0.14984,0.05066,-0.04227,-0.0174,-0.0264,-0.01526,-0.01831,-0.01404,-0.13657,-0.05066,-0.01953,0.00214,-0.04852
6.3845,0.00992,-0.1088,-0.00092,-0.07782,0.03128,-0.04883,-0.02136,-0.02609,-0.01572,-0.01831,-0.01831,-0.1062,-0.047,-0.01877,0.0061,-0.04974
6.385,0.01175,-0.11337,0.12405,0.03204,0.00854,-0.05783,-0.02197,-0.01541,-0.01526,-0.0177,-0.01678,-0.05707,-0.04089,-0.01862,0.00824,-0.05127
6.3855,-0.00168,-0.11169,0.20508,0.11703,-0.01068,-0.06577,-0.01984,-0.00687,-0.01404,-0.01678,-0.01617,-0.01328,-0.03708,-0.01923,0.01129,-0.05325
6.386,-0.02884,-0.10437,0.23621,0.11734,-0.03708,-0.06729,-0.01709,-0.00671,-0.01389,-0.01724,-0.01709,0.01709,-0.0354,-0.01953,0.01328,-0.0528
6.3865,-0.05661,-0.09201,0.20493,0.01251,-0.08194,-0.06943,-0.01648,-0.00977,-0.01541,-0.01816,-0.01633,0.03723,-0.03571,-0.01816,0.02136,-0.05096
6.387,-0.07706,-0.07736,0.13474,-0.14114,-0.12497,-0.07462,-0.01907,-0.01343,-0.0174,-0.01831,-0.01419,0.05386,-0.03601,-0.01709,0.0264,-0.04944
6.3875,-0.08987,-0.06577,0.07828,-0.25101,-0.12421,-0.08408,-0.02121,-0.01312,-0.01663,-0.01755,-0.0145,0.07538,-0.03708,-0.01663,0.02975,-0.0499
6.388,-0.09796,-0.05859,0.05081,-0.27069,-0.07858,-0.08835,-0.0206,-0.01328,-0.01617,-0.01694,-0.01526,0.10651,-0.03876,-0.01877,0.03494,-0.05127
6.3885,-0.09903,-0.05081,0.0444,-0.19943,-0.03342,-0.08072,-0.01953,-0.01511,-0.01663,-0.01724,-0.01633,0.13641,-0.03998,-0.02106,0.03387,-0.05081
6.389,-0.08743,-0.04044,0.0264,-0.04456,-0.02502,-0.06256,-0.01877,-0.01663,-0.01587,-0.01709,-0.01663,0.13672,-0.03922,-0.02213,0.03189,-0.04974
6.3895,-0.06317,-0.02747,0.00763,0.13382,-0.03906,-0.04379,-0.01694,-0.01694,-0.01511,-0.01709,-0.01556,0.0946,-0.03723,-0.0209,0.02457,-0.04868
6.39,-0.03723,-0.01709,-0.01022,0.21774,-0.04547,-0.0325,-0.01328,-0.01816,-0.0148,-0.01602,-0.01465,0.0351,-0.03555,-0.01938,0.0209,-0.04944
6.3905,-0.02228,-0.01312,-0.01953,0.15717,-0.04089,-0.02853,-0.0116,-0.02411,-0.01633,-0.01556,-0.01694,-0.01129,-0.03571,-0.01953,0.00641,-0.05096
6.391,-0.02151,-0.0174,-0.02426,0.05356,-0.03769,-0.02579,-0.01251,-0.0325,-0.01755,-0.01602,-0.01678,-0.03769,-0.03586,-0.01999,-0.01434,-0.05157
6.3915,-0.02533,-0.02853,-0.02914,0.02625,-0.03586,-0.02487,-0.01526,-0.03601,-0.01801,-0.01724,-0.0177,-0.05249,-0.03601,-0.02014,-0.04593,-0.05142
6.392,-0.02472,-0.04257,-0.04395,0.06561,-0.02441,-0.02563,-0.01953,-0.03403,-0.0177,-0.01801,-0.0148,-0.06378,-0.03555,-0.01892,-0.07309,-0.05127
6.3925,-0.02106,-0.05951,-0.06454,0.07034,-0.00076,-0.02853,-0.02365,-0.03082,-0.01877,-0.01953,-0.0148,-0.0766,-0.03586,-0.01694,-0.06897,-0.05264
6.393,-0.01755,-0.07278,-0.08331,0.00107,0.02609,-0.03098,-0.0267,-0.03082,-0.01984,-0.01862,-0.01511,-0.09033,-0.03586,-0.01709,-0.03693,-0.05478
6.3935,-0.01541,-0.07339,-0.09399,-0.07614,0.047,-0.03143,-0.02731,-0.03555,-0.01999,-0.0174,-0.01389,-0.09766,-0.03479,-0.01831,-0.00732,-0.05524
6.394,-0.01526,-0.05753,-0.1001,-0.08362,0.05661,-0.02838,-0.02609,-0.03998,-0.01938,-0.01862,-0.01572,-0.08057,-0.03311,-0.02014,0.01358,-0.05356
6.3945,-0.0177,-0.03693,-0.09491,-0.04227,0.05615,-0.02533,-0.02304,-0.04044,-0.01846,-0.01984,-0.01511,-0.02472,-0.03235,-0.02014,0.03967,-0.05157
6.395,-0.0206,-0.02197,-0.07904,-0.05875,0.04944,-0.02533,-0.02121,-0.03448,-0.01877,-0.02136,-0.01495,0.05432,-0.03296,-0.01953,0.08026,-0.05173
6.3955,-0.02411,-0.01617,-0.06195,-0.18616,0.03891,-0.03128,-0.01892,-0.0264,-0.01938,-0.02045,-0.01419,0.11063,-0.03326,-0.02045,0.09888,-0.05142
6.396,-0.02609,-0.0145,-0.04852,-0.34698,0.02197,-0.0412,-0.0177,-0.01556,-0.02045,-0.02014,-0.01511,0.11322,-0.03265,-0.02213,0.07385,-0.05005
6.3965,-0.02777,-0.01343,-0.03036,-0.40527,-0.00397,-0.04791,-0.01587,-0.00259,-0.02029,-0.0206,-0.01587,0.07935,-0.03128,-0.02243,0.02411,-0.04822
6.397,-0.03006,-0.01495,-0.02182,-0.29297,-0.03342,-0.05096,-0.01465,0.00977,-0.01968,-0.02029,-0.0174,0.04715,-0.02991,-0.02167,0.00183,-0.04776
6.3975,-0.03021,-0.02121,-0.01938,-0.05524,-0.05203,-0.05173,-0.01495,0.01678,-0.01831,-0.01953,-0.01862,0.01816,-0.02914,-0.02029,0.01266,-0.04929
6.398,-0.0296,-0.03052,-0.02396,0.19897,-0.04959,-0.05249,-0.01587,0.0174,-0.01678,-0.01877,-0.01709,-0.02899,-0.02899,-0.01984,0.02823,-0.05447
6.3985,-0.02884,-0.03937,-0.04517,0.37964,-0.03922,-0.05478,-0.01587,0.0145,-0.01587,-0.01755,-0.0148,-0.08301,-0.02792,-0.01938,0.03143,-0.07126
6.399,-0.02335,-0.04395,-0.06409,0.44815,-0.03693,-0.05707,-0.01434,0.0116,-0.01617,-0.01663,-0.01373,-0.11063,-0.02731,-0.01984,0.02533,-0.10651
6.3995,-0.01266,-0.04318,-0.0914,0.41382,-0.04745,-0.056,-0.01114,0.01205,-0.01587,-0.01633,-0.01419,-0.10178,-0.0267,-0.02045,0.03708,-0.15411
6.4,-0.00229,-0.04456,-0.13535,0.30869,-0.06256,-0.05081,-0.00732,0.01541,-0.0148,-0.01648,-0.01282,-0.08133,-0.02686,-0.01999,0.04028,-0.18753
6.4005,-0.00198,-0.06485,-0.19791,0.16403,-0.07278,-0.04303,-0.00702,0.01984,-0.01282,-0.01694,-0.01053,-0.06882,-0.02777,-0.01938,0.01801,-0.17914
6.401,-0.01068,-0.11185,-0.24368,-0.00107,-0.07599,-0.03372,-0.00839,0.02228,-0.01297,-0.01755,-0.00977,-0.05402,-0.0293,-0.01877,-0.00732,-0.12543
6.4015,-0.0235,-0.15976,-0.23361,-0.159,-0.07538,-0.02853,-0.00793,0.02213,-0.01495,-0.01724,-0.00961,-0.0235,-0.02945,-0.01862,-0.0267,-0.04059
6.402,-0.03433,-0.16754,-0.17242,-0.25635,-0.07355,-0.0293,-0.00717,0.02045,-0.01663,-0.01663,-0.01266,0.0116,-0.0293,-0.01892,-0.01053,0.05081
6.4025,-0.0444,-0.12756,-0.08636,-0.24673,-0.07111,-0.03067,-0.00793,0.01801,-0.01801,-0.01709,-0.01587,0.03174,-0.0296,-0.01862,0.01862,0.11917
6.403,-0.05447,-0.07156,-0.00519,-0.14191,-0.06561,-0.02945,-0.00946,0.01617,-0.01724,-0.0174,-0.01831,0.0293,-0.03052,-0.01862,0.02228,0.13077
6.4035,-0.06454,-0.02655,0.05783,-0.01251,-0.05997,-0.0264,-0.01022,0.01556,-0.01556,-0.01877,-0.01953,0.00854,-0.03189,-0.01953,0.00397,0.07843
6.404,-0.07202,0.00763,0.1149,0.06943,-0.05554,-0.02518,-0.00946,0.01633,-0.01465,-0.01785,-0.01877,-0.02899,-0.03204,-0.0209,-0.04166,0.00092
6.4045,-0.07401,0.03677,0.1535,0.07538,-0.05356,-0.03052,-0.0087,0.01953,-0.0148,-0.01862,-0.01602,-0.07858,-0.03113,-0.02151,-0.07294,-0.04501
6.405,-0.06943,0.05203,0.16281,0.03174,-0.05142,-0.0412,-0.00885,0.02655,-0.01572,-0.01755,-0.0148,-0.11765,-0.02991,-0.02136,-0.08255,-0.04318
6.4055,-0.06241,0.05096,0.1358,-0.00717,-0.05051,-0.05707,-0.00916,0.0351,-0.01572,-0.01587,-0.01389,-0.12222,-0.03143,-0.02136,-0.07477,-0.02609
6.406,-0.0592,0.0412,0.09521,-0.01251,-0.05035,-0.07828,-0.00809,0.03876,-0.01526,-0.01541,-0.01343,-0.09064,-0.03433,-0.02075,-0.05508,-0.02457
6.4065,-0.06302,0.03189,0.05951,-0.00214,-0.04883,-0.09811,-0.00656,0.03403,-0.01526,-0.01648,-0.01175,-0.04791,-0.03616,-0.01968,-0.02762,-0.03387
6.407,-0.0676,0.01938,0.04135,-0.02197,-0.04868,-0.10315,-0.0061,0.02502,-0.01587,-0.01846,-0.01083,-0.01434,-0.03571,-0.01953,0.02258,-0.03418
6.4075,-0.06454,-0.00214,0.03937,-0.08789,-0.04913,-0.09216,-0.00732,0.01663,-0.01572,-0.01846,-0.01129,0.00992,-0.0354,-0.01953,0.09552,-0.02792
6.408,-0.05234,-0.03342,0.03326,-0.16052,-0.05188,-0.07675,-0.009,0.01083,-0.0148,-0.01694,-0.0148,0.02563,-0.03616,-0.01953,0.14893,-0.03189
6.4085,-0.03632,-0.06226,0.0058,-0.18311,-0.0563,-0.06348,-0.00977,0.0029,-0.01526,-0.01617,-0.01678,0.02274,-0.03677,-0.01892,0.14862,-0.04471
6.409,-0.02396,-0.07599,-0.03021,-0.14206,-0.05936,-0.04944,-0.00946,-0.00534,-0.01648,-0.01785,-0.01541,-0.00748,-0.03677,-0.01984,0.1004,-0.04486
6.4095,-0.02029,-0.06973,-0.06119,-0.08011,-0.0563,-0.03479,-0.00839,-0.01068,-0.0177,-0.01862,-0.01312,-0.04883,-0.03601,-0.02014,0.05402,-0.0209
6.41,-0.02106,-0.05066,-0.07736,-0.0502,-0.04837,-0.02472,-0.00946,-0.01099,-0.02014,-0.01846,-0.01266,-0.06287,-0.03632,-0.02136,0.04303,0.00031
6.4105,-0.02441,-0.03555,-0.08286,-0.05981,-0.04044,-0.0209,-0.01022,-0.01083,-0.0206,-0.01755,-0.01541,-0.01602,-0.03769,-0.02014,0.03616,-0.0119
6.411,-0.02655,-0.04257,-0.0827,-0.07233,-0.03708,-0.01953,-0.01022,-0.01266,-0.02029,-0.01923,-0.01572,0.08087,-0.03983,-0.0177,0.00809,-0.04593
6.4115,-0.02731,-0.07111,-0.0769,-0.0531,-0.03952,-0.01785,-0.00931,-0.01694,-0.02167,-0.0206,-0.01495,0.16068,-0.04013,-0.01694,-0.03922,-0.06729
6.412,-0.02838,-0.0943,-0.07675,-0.00427,-0.04456,-0.0209,-0.01068,-0.02014,-0.02197,-0.02045,-0.01343,0.1564,-0.0383,-0.01709,-0.07645,-0.06607
6.4125,-0.03143,-0.08743,-0.06607,0.04761,-0.04715,-0.03174,-0.01343,-0.02136,-0.02106,-0.02029,-0.01434,0.06271,-0.03754,-0.01938,-0.08514,-0.06317
6.413,-0.03448,-0.05325,-0.05829,0.06622,-0.04532,-0.04745,-0.01755,-0.0206,-0.02045,-0.01984,-0.01389,-0.07095,-0.03708,-0.01999,-0.07935,-0.0737
6.4135,-0.03693,-0.01495,-0.04791,0.00626,-0.04105,-0.06393,-0.01892,-0.01938,-0.02182,-0.01877,-0.01434,-0.18723,-0.03738,-0.01923,-0.06821,-0.08789
6.414,-0.03967,0.01495,-0.03983,-0.14679,-0.03326,-0.07828,-0.01663,-0.01541,-0.02335,-0.01938,-0.01328,-0.22537,-0.03906,-0.01709,-0.06485,-0.08942
6.4145,-0.04471,0.03677,-0.03815,-0.32089,-0.02029,-0.08972,-0.01221,-0.00885,-0.02258,-0.01968,-0.01328,-0.14664,-0.04028,-0.01663,-0.07004,-0.07797
6.415,-0.05081,0.04791,-0.04181,-0.40344,0.00214,-0.10086,-0.00885,-0.00305,-0.02151,-0.01999,-0.01419,0.02579,-0.0412,-0.01617,-0.03906,-0.06592
6.4155,-0.05203,0.04333,-0.04883,-0.35904,0.03098,-0.1062,-0.00778,0.00229,-0.0206,-0.0206,-0.01694,0.20645,-0.0415,-0.01678,0.06256,-0.06104
6.416,-0.04501,0.02426,-0.05264,-0.25543,0.05646,-0.10086,-0.00641,0.009,-0.01999,-0.02151,-0.02014,0.31021,-0.04044,-0.01892,0.19211,-0.0592
6.4165,-0.03555,0.00137,-0.05402,-0.17456,0.06516,-0.0882,-0.00488,0.01862,-0.01801,-0.02075,-0.02106,0.30594,-0.0386,-0.01816,0.23804,-0.05493
6.417,-0.02747,-0.0177,-0.05249,-0.14236,0.0528,-0.07645,-0.00534,0.02777,-0.01495,-0.0206,-0.01999,0.21881,-0.03479,-0.0174,0.14771,-0.05005
6.4175,-0.02441,-0.03326,-0.0473,-0.1268,0.03113,-0.07034,-0.00641,0.02869,-0.01419,-0.02075,-0.02014,0.08789,-0.03189,-0.01694,0.02243,-0.04807
6.418,-0.02335,-0.04227,-0.04364,-0.03296,0.0148,-0.06653,-0.00763,0.02396,-0.01511,-0.0206,-0.01816,-0.04578,-0.03067,-0.01648,-0.02762,-0.04745
6.4185,-0.02304,-0.04715,-0.04364,0.25421,0.00458,-0.06363,-0.00763,0.01801,-0.01602,-0.02136,-0.01709,-0.13672,-0.03098,-0.0177,-0.009,-0.04623
6.419,-0.02548,-0.05417,-0.03235,0.67963,-0.01984,-0.06363,-0.00793,0.01343,-0.01633,-0.02136,-0.01755,-0.15915,-0.0322,-0.01968,0.00412,-0.04318
6.4195,-0.02625,-0.07233,-0.02197,0.92926,-0.0676,-0.06363,-0.00885,0.01205,-0.01633,-0.02228,-0.01999,-0.12573,-0.03357,-0.02106,-0.02563,-0.03845
6.42,-0.02243,-0.09674,-0.01663,0.72678,-0.10101,-0.06058,-0.00961,0.0116,-0.01587,-0.02274,-0.02319,-0.07446,-0.03387,-0.01999,-0.06134,-0.03342
6.4205,-0.01282,-0.11627,-0.02609,0.20386,-0.08347,-0.05478,-0.01099,0.00717,-0.01617,-0.02289,-0.02304,-0.03464,-0.03265,-0.01801,-0.08804,-0.02975
6.421,0.00031,-0.13046,-0.03983,-0.21576,-0.04333,-0.04837,-0.01465,-0.00595,-0.01724,-0.02289,-0.02106,-0.01984,-0.0322,-0.01709,-0.10849,-0.02838
6.4215,0.0119,-0.14664,-0.0618,-0.29388,-0.03815,-0.04257,-0.0206,-0.02838,-0.01785,-0.02197,-0.01938,-0.02243,-0.03159,-0.01694,-0.12894,-0.02884
6.422,0.0177,-0.15854,-0.07782,-0.16159,-0.0769,-0.03677,-0.02594,-0.05035,-0.0177,-0.02289,-0.01816,-0.00687,-0.03098,-0.01709,-0.1178,-0.0267
6.4225,0.01953,-0.14816,-0.09476,-0.0473,-0.11032,-0.03174,-0.02853,-0.05859,-0.01678,-0.02502,-0.01846,0.05646,-0.03082,-0.01709,-0.03555,-0.01923
6.423,0.02151,-0.1123,-0.10773,-0.01816,-0.09857,-0.02747,-0.02502,-0.04517,-0.01541,-0.02686,-0.01846,0.13077,-0.02975,-0.01709,0.11017,-0.01053
6.4235,0.02243,-0.06683,-0.12787,-0.01999,-0.06012,-0.02182,-0.01633,-0.01846,-0.01511,-0.02548,-0.01755,0.14374,-0.03098,-0.01709,0.22369,-0.01144
6.424,0.01999,-0.02563,-0.13885,-0.01984,-0.03204,-0.01694,-0.00992,0.0032,-0.01465,-0.02258,-0.01801,0.08667,-0.03143,-0.0177,0.21851,-0.03128
6.4245,0.0174,0.00839,-0.14008,-0.02609,-0.02533,-0.01541,-0.00809,0.01022,-0.01297,-0.02136,-0.01801,0.02457,-0.03143,-0.01816,0.11856,-0.06836
6.425,0.01755,0.03418,-0.12482,-0.02975,-0.02762,-0.01877,-0.01083,0.00519,-0.01099,-0.02014,-0.01846,0.00854,-0.03159,-0.01801,0.02884,-0.09964
6.4255,0.02121,0.04959,-0.10422,-0.00916,-0.03067,-0.02426,-0.01511,-0.00214,-0.01083,-0.01846,-0.01755,0.02243,-0.03174,-0.01724,-0.00504,-0.0975
6.426,0.02655,0.05539,-0.07431,0.02899,-0.03372,-0.03067,-0.0174,-0.00656,-0.01221,-0.01663,-0.01541,0.02716,-0.03387,-0.01709,-0.00854,-0.06256
6.4265,0.03204,0.05508,-0.02792,0.05829,-0.03708,-0.03891,-0.01694,-0.00565,-0.01434,-0.01678,-0.01404,0.01694,-0.03494,-0.01892,-0.00443,-0.02686
6.427,0.03616,0.04257,0.01602,0.05432,-0.03616,-0.04379,-0.01419,0.00076,-0.01465,-0.01831,-0.01434,0.00992,-0.03708,-0.02136,0.01373,-0.01541
6.4275,0.0351,0.0032,0.04562,0.00778,-0.03235,-0.04135,-0.0119,0.00656,-0.0145,-0.01862,-0.0145,0.0174,-0.03891,-0.02289,0.03708,-0.02121
6.428,0.02945,-0.06699,0.04593,-0.07843,-0.02945,-0.0322,-0.00992,0.00732,-0.01633,-0.01923,-0.01556,0.03342,-0.03937,-0.02228,0.05127,-0.02457
6.4285,0.02243,-0.13855,0.03082,-0.17258,-0.03082,-0.02258,-0.00778,0.00061,-0.01801,-0.01938,-0.01678,0.0441,-0.03998,-0.02106,0.0383,-0.0209
6.429,0.01999,-0.16937,0.02243,-0.22278,-0.03555,-0.0206,-0.00717,-0.01083,-0.01877,-0.01968,-0.01892,0.03891,-0.03967,-0.02045,-0.00229,-0.01831
6.4295,0.02365,-0.15106,0.02701,-0.20065,-0.03769,-0.02563,-0.00824,-0.02274,-0.01755,-0.01862,-0.01907,0.02075,-0.03891,-0.0206,-0.06744,-0.0206
6.43,0.03098,-0.11383,0.03372,-0.11948,-0.03708,-0.03296,-0.01068,-0.03372,-0.01587,-0.0177,-0.01801,0.00214,-0.03769,-0.02045,-0.12573,-0.0235
6.4305,0.0383,-0.08713,0.03326,-0.01068,-0.03387,-0.0386,-0.0119,-0.04044,-0.01541,-0.01755,-0.0174,-0.00641,-0.03769,-0.01968,-0.15305,-0.02396
6.431,0.03983,-0.07187,0.02838,0.10666,-0.02731,-0.04166,-0.01221,-0.03738,-0.01694,-0.01999,-0.01617,-0.00717,-0.03723,-0.01923,-0.13428,-0.02319
6.4315,0.03403,-0.05539,0.00992,0.21698,-0.02182,-0.04257,-0.01175,-0.02747,-0.01816,-0.0209,-0.01801,-0.01068,-0.03647,-0.01999,-0.09216,-0.02274
6.432,0.02411,-0.03403,-0.01999,0.28992,-0.01587,-0.04242,-0.01114,-0.01892,-0.01831,-0.02075,-0.0177,-0.01465,-0.0351,-0.01953,-0.04135,-0.02396
6.4325,0.01984,-0.01328,-0.07736,0.28778,-0.01144,-0.0412,-0.01007,-0.01892,-0.01709,-0.01907,-0.01984,0.0,-0.03418,-0.01816,0.02991,-0.02426
6.433,0.02792,0.00183,-0.15228,0.20691,-0.00671,-0.03922,-0.01099,-0.02472,-0.01617,-0.01785,-0.01968,0.03357,-0.03342,-0.01572,0.12329,-0.02563
6.4335,0.04227,0.00534,-0.20508,0.09323,-0.00137,-0.0386,-0.01312,-0.0264,-0.01587,-0.01862,-0.0206,0.05646,-0.0325,-0.01495,0.18646,-0.02792
6.434,0.05264,-0.00046,-0.20355,0.00961,0.00473,-0.0383,-0.01511,-0.01801,-0.01663,-0.01877,-0.01938,0.04822,-0.03204,-0.01556,0.16418,-0.03159
6.4345,0.0531,-0.009,-0.14755,-0.02167,0.01083,-0.03708,-0.01434,-0.00626,-0.0177,-0.01785,-0.0206,0.01801,-0.03235,-0.01648,0.0708,-0.03555
6.435,0.04913,-0.009,-0.09445,-0.02121,0.01099,-0.03387,-0.0145,0.00137,-0.0177,-0.0177,-0.02243,-0.00778,-0.03296,-0.01724,-0.01221,-0.03769
6.4355,0.04715,0.00031,-0.09384,-0.00824,0.00412,-0.03296,-0.01511,0.00381,-0.01617,-0.01709,-0.02365,-0.01984,-0.03281,-0.01724,-0.02853,-0.0386
6.436,0.05249,0.00473,-0.12924,0.01709,-0.00214,-0.03433,-0.01602,0.00641,-0.01526,-0.01587,-0.02243,-0.02243,-0.03098,-0.01678,-0.0145,-0.03983
6.4365,0.06302,-0.01282,-0.13626,0.04883,-0.00397,-0.03815,-0.01465,0.01175,-0.01633,-0.0145,-0.02274,-0.0177,-0.02899,-0.0177,-0.0087,-0.04074
6.437,0.0705,-0.04272,-0.07431,0.06683,-0.00092,-0.04028,-0.01358,0.01633,-0.01724,-0.01404,-0.02197,-0.00687,-0.02975,-0.01923,-0.01114,-0.04074
6.4375,0.07034,-0.05371,0.0177,0.05966,0.0,-0.0386,-0.01175,0.01816,-0.01663,-0.0148,-0.02228,0.00305,-0.03204,-0.01984,0.01114,-0.04074
6.438,0.065,-0.03342,0.07996,0.03555,-0.01495,-0.03799,-0.00824,0.01907,-0.01434,-0.01602,-0.02121,0.00565,-0.03403,-0.02029,0.04837,-0.0412
6.4385,0.05768,-0.00076,0.10345,0.00458,-0.05035,-0.04364,-0.00565,0.0177,-0.01511,-0.01556,-0.01999,0.00381,-0.03357,-0.01892,0.07248,-0.04074
6.439,0.04944,0.01953,0.11902,-0.02472,-0.08209,-0.05417,-0.00565,0.00824,-0.01801,-0.01541,-0.01877,0.00488,-0.03296,-0.01846,0.06897,-0.04028
6.4395,0.04059,0.02045,0.1297,-0.0412,-0.07874,-0.06287,-0.00717,-0.00702,-0.02136,-0.01465,-0.01755,0.00809,-0.0322,-0.01785,0.04654,-0.03998
6.44,0.03479,0.0061,0.12299,-0.0354,-0.04303,-0.06729,-0.00854,-0.01892,-0.02228,-0.01495,-0.01663,0.01114,-0.03021,-0.01755,0.01984,-0.04044
6.4405,0.03174,-0.01404,0.10025,-0.01968,-0.01205,-0.06882,-0.01083,-0.02136,-0.02075,-0.01587,-0.01663,0.01312,-0.02853,-0.0174,-0.0386,-0.04211
6.441,0.03464,-0.03235,0.07843,-0.01617,-0.0061,-0.06943,-0.01556,-0.02167,-0.01709,-0.01785,-0.01694,0.01587,-0.02823,-0.01724,-0.13443,-0.04211
6.4415,0.04669,-0.04547,0.06973,-0.02991,-0.01236,-0.0679,-0.02045,-0.02579,-0.0148,-0.01938,-0.01602,0.02289,-0.0293,-0.01694,-0.19821,-0.04074
6.442,0.06744,-0.05386,0.06271,-0.04822,-0.01694,-0.0647,-0.02106,-0.03143,-0.0145,-0.01953,-0.01541,0.03204,-0.03113,-0.01633,-0.14252,-0.04013
6.4425,0.0885,-0.06287,0.0441,-0.07385,-0.0264,-0.0621,-0.01785,-0.02991,-0.0148,-0.01892,-0.01511,0.04318,-0.03174,-0.0174,-0.01343,-0.04196
6.443,0.09811,-0.07339,0.01587,-0.12024,-0.04639,-0.0592,-0.01755,-0.02136,-0.01495,-0.01968,-0.01526,0.05203,-0.03143,-0.01816,0.06119,-0.04471
6.4435,0.09506,-0.07782,-0.02029,-0.1622,-0.06821,-0.05371,-0.01953,-0.01312,-0.01526,-0.02243,-0.01617,0.04822,-0.02991,-0.01648,0.04074,-0.04608
6.444,0.08423,-0.06927,-0.05127,-0.13641,-0.0769,-0.04852,-0.02121,-0.00992,-0.01633,-0.02396,-0.01572,0.02533,-0.03052,-0.01389,-0.00504,-0.04639
6.4445,0.0737,-0.05371,-0.08057,-0.0441,-0.07339,-0.04715,-0.01877,-0.01114,-0.01755,-0.02289,-0.01419,-0.01572,-0.03098,-0.01389,-0.009,-0.04578
6.445,0.06577,-0.04196,-0.09338,0.02075,-0.07309,-0.04929,-0.01678,-0.01083,-0.01709,-0.02075,-0.01312,-0.065,-0.03128,-0.01617,0.00916,-0.04761
6.4455,0.05753,-0.03693,-0.08575,-0.01831,-0.08362,-0.05341,-0.01785,-0.00992,-0.01572,-0.02029,-0.01419,-0.10315,-0.0293,-0.01785,0.01282,-0.04944
6.446,0.0441,-0.0383,-0.05829,-0.12375,-0.09735,-0.05783,-0.01999,-0.00732,-0.01572,-0.02075,-0.01709,-0.10956,-0.0296,-0.01892,-0.00015,-0.05112
6.4465,0.0238,-0.04272,-0.03067,-0.19867,-0.10162,-0.06226,-0.01938,-0.00336,-0.01709,-0.02167,-0.01877,-0.0827,-0.03143,-0.01923,-0.00931,-0.05127
6.447,0.00061,-0.04761,-0.0148,-0.19913,-0.09476,-0.06683,-0.0177,-0.00031,-0.01877,-0.02258,-0.01816,-0.04318,-0.03143,-0.01984,-0.01297,-0.05112
6.4475,-0.02396,-0.05249,-0.00839,-0.15396,-0.08423,-0.06836,-0.0177,0.00031,-0.01862,-0.02365,-0.01587,-0.00702,-0.03067,-0.02029,-0.02197,-0.05234
6.448,-0.04837,-0.05478,-0.01114,-0.1059,-0.07324,-0.06317,-0.02075,-0.00183,-0.01755,-0.02365,-0.01389,0.02823,-0.02914,-0.02029,-0.02884,-0.05219
6.4485,-0.06897,-0.05432,-0.00885,-0.07462,-0.06058,-0.05264,-0.02411,-0.00458,-0.01617,-0.02396,-0.01358,0.07034,-0.0296,-0.02136,-0.03647,-0.0528
6.449,-0.07523,-0.05219,-0.00626,-0.05997,-0.04471,-0.04028,-0.02396,-0.00824,-0.01617,-0.02289,-0.01434,0.11612,-0.03113,-0.02167,-0.04074,-0.05463
6.4495,-0.05783,-0.04974,-0.01114,-0.05432,-0.0296,-0.03204,-0.02289,-0.01083,-0.01572,-0.02274,-0.01572,0.14847,-0.03204,-0.02014,-0.04501,-0.056
6.45,-0.02457,-0.04608,-0.02686,-0.04456,-0.02243,-0.03159,-0.02167,-0.009,-0.01434,-0.02213,-0.01709,0.14343,-0.03159,-0.01938,-0.04364,-0.05554
6.4505,0.00732,-0.03998,-0.04639,-0.02289,-0.02151,-0.03571,-0.02213,0.00015,-0.01144,-0.02167,-0.01587,0.09674,-0.03174,-0.01968,-0.04059,-0.05356
6.451,0.02426,-0.03296,-0.06378,0.00717,-0.0209,-0.03754,-0.02243,0.01358,-0.00885,-0.01968,-0.0148,0.03448,-0.03189,-0.01968,-0.03189,-0.05219
6.4515,0.03052,-0.02548,-0.0824,0.03387,-0.01877,-0.03525,-0.02182,0.02289,-0.00763,-0.0177,-0.01556,-0.01144,-0.0322,-0.01968,0.00092,-0.05142
6.452,0.03265,-0.02121,-0.12619,0.04456,-0.01419,-0.0322,-0.02106,0.02548,-0.00916,-0.01678,-0.01663,-0.03098,-0.03143,-0.02014,0.03662,-0.05234
6.4525,0.03296,-0.01999,-0.18753,0.03922,-0.01205,-0.0325,-0.01953,0.02487,-0.01068,-0.01694,-0.01678,-0.03525,-0.03128,-0.01999,0.04745,-0.05264
6.453,0.03098,-0.01907,-0.22461,0.0267,-0.01266,-0.03616,-0.01724,0.0235,-0.01068,-0.01724,-0.01648,-0.03799,-0.03113,-0.01999,0.02396,-0.05188
6.4535,0.02777,-0.02167,-0.2002,0.0174,-0.01419,-0.04028,-0.01373,0.02151,-0.01038,-0.01709,-0.01663,-0.04166,-0.0322,-0.02029,-0.00488,-0.05051
6.454,0.02396,-0.02701,-0.12939,0.01297,-0.01297,-0.04196,-0.0119,0.01526,-0.01068,-0.01572,-0.01602,-0.04578,-0.03326,-0.02014,0.0029,-0.04929
6.4545,0.01923,-0.0325,-0.05417,0.01038,-0.00839,-0.04303,-0.0119,0.00809,-0.00961,-0.01404,-0.01495,-0.04715,-0.03433,-0.01923,0.04593,-0.04852
6.455,0.01266,-0.03693,0.00168,0.00916,-0.00504,-0.04517,-0.01389,0.00381,-0.00793,-0.0148,-0.01343,-0.05463,-0.03525,-0.02014,0.0853,-0.04837
6.4555,0.00809,-0.04013,0.03876,0.01099,-0.0029,-0.04639,-0.01511,0.00488,-0.00854,-0.01526,-0.01373,-0.07858,-0.03479,-0.0209,0.09201,-0.04807
6.456,0.0058,-0.04547,0.06989,0.01633,-0.00412,-0.04593,-0.0148,0.00732,-0.00977,-0.01633,-0.0145,-0.11612,-0.03342,-0.0206,0.06866,-0.04807
6.4565,0.00443,-0.05264,0.07813,0.02274,-0.00748,-0.04715,-0.01373,0.0087,-0.01038,-0.01572,-0.01404,-0.14801,-0.03296,-0.01892,0.03235,-0.04745
6.457,0.0,-0.05844,0.06119,0.02548,-0.01068,-0.04913,-0.01205,0.00977,-0.01068,-0.01511,-0.01328,-0.16724,-0.03387,-0.0177,-0.00183,-0.04715
6.4575,-0.00778,-0.05951,0.04135,0.02014,-0.0145,-0.05524,-0.01022,0.0119,-0.01205,-0.01434,-0.01221,-0.17746,-0.03494,-0.01816,-0.02502,-0.04837
6.458,-0.01663,-0.05798,0.0351,0.00946,-0.02045,-0.06363,-0.00885,0.01587,-0.01144,-0.01495,-0.01282,-0.16769,-0.03433,-0.01846,-0.02655,-0.0499
6.4585,-0.02411,-0.05966,0.02289,0.00397,-0.02686,-0.07248,-0.00931,0.01663,-0.0116,-0.01495,-0.01297,-0.09918,-0.03342,-0.01984,-0.02228,-0.05035
6.459,-0.03281,-0.06454,-0.01648,0.01755,-0.03098,-0.07706,-0.01007,0.01328,-0.01083,-0.01541,-0.01312,0.05219,-0.03311,-0.01968,-0.01358,-0.04852
6.4595,-0.04333,-0.06592,-0.08453,0.04883,-0.03601,-0.07874,-0.01144,0.009,-0.01144,-0.01404,-0.01312,0.22385,-0.03403,-0.01968,-0.00412,-0.04623
6.46,-0.05112,-0.06027,-0.14206,0.07599,-0.03677,-0.07736,-0.01007,0.00916,-0.01175,-0.01328,-0.01328,0.29297,-0.03387,-0.01846,0.01541,-0.04379
6.4605,-0.05219,-0.05676,-0.16602,0.0795,-0.03708,-0.07355,-0.00946,0.01251,-0.01099,-0.01312,-0.01343,0.21667,-0.03464,-0.01785,0.04044,-0.04257
6.461,-0.04715,-0.06042,-0.17899,0.06256,-0.03677,-0.06821,-0.0087,0.01495,-0.009,-0.01511,-0.01221,0.09689,-0.0354,-0.01846,0.06088,-0.0415
6.4615,-0.04181,-0.06622,-0.19028,0.04288,-0.03403,-0.06241,-0.00961,0.01083,-0.00824,-0.01678,-0.01144,0.04959,-0.03571,-0.01862,0.06332,-0.0412
6.462,-0.04135,-0.06592,-0.18051,0.02716,-0.03006,-0.05539,-0.0119,0.00122,-0.00916,-0.01724,-0.0119,0.07446,-0.03555,-0.01877,0.0499,-0.04105
6.4625,-0.04608,-0.06104,-0.12131,0.00977,-0.02487,-0.04791,-0.01328,-0.00885,-0.01251,-0.01785,-0.01434,0.10178,-0.03479,-0.01923,0.03998,-0.03983
6.463,-0.05005,-0.05737,-0.03647,-0.0174,-0.01907,-0.03799,-0.01328,-0.01404,-0.01633,-0.01846,-0.0148,0.09598,-0.03693,-0.01907,0.03052,-0.04044
6.4635,-0.04868,-0.05798,0.03128,-0.0502,-0.01328,-0.02762,-0.01236,-0.01175,-0.01831,-0.01831,-0.01419,0.06943,-0.03632,-0.01801,0.01312,-0.04395
6.464,-0.04242,-0.0679,0.07019,-0.07202,-0.00992,-0.0235,-0.01007,-0.00351,-0.01862,-0.01724,-0.01373,0.03769,-0.03601,-0.01816,-0.01572,-0.04761
6.4645,-0.03647,-0.08392,0.09796,-0.07217,-0.00977,-0.02991,-0.00687,0.0058,-0.01678,-0.01678,-0.01389,0.01129,-0.03326,-0.01831,-0.03342,-0.04745
6.465,-0.03525,-0.09277,0.12253,-0.056,-0.01053,-0.04135,-0.00717,0.00946,-0.01633,-0.0174,-0.01465,0.00046,-0.03082,-0.01816,-0.02548,-0.04486
6.4655,-0.03677,-0.08072,0.13077,-0.04715,-0.00931,-0.04974,-0.01175,0.00732,-0.01678,-0.01907,-0.01434,0.00031,-0.03036,-0.01694,-0.00778,-0.04257
6.466,-0.03754,-0.05386,0.09552,-0.05905,-0.00702,-0.05264,-0.0145,0.00458,-0.01785,-0.01953,-0.01343,-0.00443,-0.03174,-0.01648,-0.00366,-0.04059
6.4665,-0.03357,-0.02502,0.00519,-0.07965,-0.0032,-0.05234,-0.01358,0.00763,-0.02075,-0.01938,-0.01266,-0.02731,-0.03479,-0.0174,-0.0206,-0.03952
6.467,-0.02625,-0.00549,-0.11276,-0.08347,0.00168,-0.04868,-0.01053,0.01892,-0.02136,-0.0174,-0.01495,-0.05997,-0.03647,-0.01968,-0.03464,-0.03815
6.4675,-0.02335,0.00717,-0.18219,-0.06393,0.00977,-0.04501,-0.00641,0.03098,-0.02167,-0.01694,-0.01648,-0.08957,-0.03403,-0.02014,-0.01587,-0.03738
6.468,-0.03082,0.00931,-0.15701,-0.04166,0.01862,-0.04471,-0.00549,0.03387,-0.02258,-0.0174,-0.01709,-0.10345,-0.03128,-0.01953,0.02716,-0.03708
6.4685,-0.04517,-0.00488,-0.07492,-0.03296,0.02579,-0.04471,-0.009,0.02304,-0.02396,-0.01755,-0.01251,-0.0769,-0.02884,-0.01907,0.04547,-0.03708
6.469,-0.05829,-0.03525,0.00061,-0.03296,0.02777,-0.04303,-0.0148,0.00534,-0.02533,-0.0174,-0.01083,0.01404,-0.02838,-0.01892,0.01923,-0.03922
6.4695,-0.06714,-0.06699,0.03525,-0.03113,0.02533,-0.0412,-0.01877,-0.00931,-0.02396,-0.01663,-0.01083,0.14587,-0.02869,-0.01923,-0.01404,-0.0415
6.47,-0.07721,-0.08331,0.04837,-0.02396,0.01724,-0.04532,-0.0174,-0.01343,-0.02319,-0.01602,-0.01266,0.22827,-0.02869,-0.01907,-0.02075,-0.04227
6.4705,-0.08789,-0.08484,0.0386,-0.01511,0.00778,-0.05707,-0.01236,-0.00854,-0.02243,-0.01602,-0.01297,0.19318,-0.02823,-0.01862,-0.01266,-0.04196
6.471,-0.09384,-0.08514,0.0116,-0.00534,-0.00275,-0.06775,-0.00717,-0.00153,-0.02411,-0.01556,-0.01144,0.08057,-0.02899,-0.01846,-0.0029,-0.04166
6.4715,-0.0914,-0.09308,-0.01816,0.00275,-0.0174,-0.06927,-0.00717,0.00107,-0.02502,-0.01572,-0.0119,-0.00809,-0.02991,-0.01892,0.02808,-0.04059
6.472,-0.08392,-0.09674,-0.03143,0.00214,-0.02991,-0.06302,-0.01022,-0.00504,-0.02594,-0.01785,-0.01328,-0.02869,-0.02975,-0.01846,0.1033,-0.03891
6.4725,-0.07629,-0.08148,-0.01938,-0.01144,-0.04181,-0.05539,-0.01373,-0.01907,-0.0235,-0.01953,-0.01434,-0.02304,-0.02914,-0.0177,0.18723,-0.03754
6.473,-0.06973,-0.04898,0.00565,-0.03662,-0.05417,-0.0499,-0.01526,-0.03708,-0.02075,-0.02197,-0.0148,-0.05417,-0.02975,-0.01663,0.18631,-0.03708
6.4735,-0.06439,-0.02045,0.02441,-0.07935,-0.06744,-0.04349,-0.01831,-0.04974,-0.01846,-0.02457,-0.01251,-0.14984,-0.03204,-0.01801,0.07538,-0.03769
6.474,-0.06302,-0.0087,0.0293,-0.1387,-0.07935,-0.03372,-0.01968,-0.04883,-0.01877,-0.02777,-0.01175,-0.28076,-0.03418,-0.01999,-0.03189,-0.03769
6.4745,-0.06592,-0.01022,0.02151,-0.18829,-0.08667,-0.02975,-0.01907,-0.03494,-0.02029,-0.02899,-0.0119,-0.36469,-0.03296,-0.02014,-0.0444,-0.03647
6.475,-0.07126,-0.01801,0.00336,-0.19653,-0.08682,-0.03128,-0.01587,-0.01816,-0.02289,-0.03006,-0.01175,-0.32516,-0.03281,-0.01831,0.00626,-0.0354
6.4755,-0.07629,-0.03235,-0.01999,-0.15503,-0.08362,-0.03098,-0.0145,-0.01022,-0.02426,-0.03021,-0.01144,-0.16205,-0.03235,-0.01694,0.03464,-0.03448
6.476,-0.07813,-0.05127,-0.03937,-0.08438,-0.07736,-0.02457,-0.01495,-0.0087,-0.02396,-0.02945,-0.01205,0.04471,-0.03448,-0.01724,0.01648,-0.03464
6.4765,-0.07751,-0.0621,-0.05386,-0.0177,-0.07339,-0.02182,-0.01541,-0.00656,-0.02151,-0.02899,-0.01312,0.20523,-0.03311,-0.0177,-0.00381,-0.0351
6.477,-0.07736,-0.05783,-0.0563,0.01022,-0.07172,-0.02533,-0.01556,-0.00229,-0.01892,-0.0296,-0.01572,0.27603,-0.03159,-0.01816,-0.00336,-0.0354
6.4775,-0.0795,-0.04425,-0.05219,-0.01511,-0.0708,-0.03296,-0.0145,0.00198,-0.01923,-0.03036,-0.0174,0.25833,-0.02899,-0.01831,0.00717,-0.03601
6.478,-0.0827,-0.03036,-0.04105,-0.04669,-0.06836,-0.03738,-0.01205,0.0058,-0.02014,-0.02869,-0.01785,0.17761,-0.02609,-0.01801,0.01053,-0.03738
6.4785,-0.08835,-0.01755,-0.03372,-0.01389,-0.06744,-0.03693,-0.00992,0.00885,-0.02106,-0.02579,-0.01709,0.07294,-0.0235,-0.01602,0.00916,-0.04013
6.479,-0.09399,-0.00244,-0.03662,0.07813,-0.06439,-0.03571,-0.00839,0.01068,-0.02106,-0.02319,-0.01465,-0.00671,-0.02167,-0.01465,0.00763,-0.04318
6.4795,-0.09583,0.01556,-0.04944,0.14084,-0.05905,-0.03342,-0.009,0.01175,-0.0209,-0.02045,-0.00931,-0.03937,-0.02243,-0.01556,0.00595,-0.04425
6.48,-0.09308,0.03387,-0.06195,0.13077,-0.05051,-0.03006,-0.01022,0.01114,-0.02014,-0.01953,-0.00534,-0.04318,-0.02274,-0.01755,0.00275,-0.0444
6.4805,-0.08804,0.04944,-0.06912,0.11703,-0.04135,-0.02487,-0.01053,0.01129,-0.01892,-0.01587,-0.00412,-0.05173,-0.02274,-0.01938,-0.00092,-0.04395
6.481,-0.08636,0.05692,-0.07065,0.17471,-0.03418,-0.02197,-0.00839,0.01556,-0.01862,-0.01373,-0.00671,-0.07065,-0.0238,-0.01846,-0.00275,-0.04501
6.4815,-0.09048,0.05005,-0.07248,0.27954,-0.03113,-0.02731,-0.00458,0.02319,-0.01968,-0.01129,-0.01053,-0.08453,-0.02625,-0.01846,-0.00351,-0.04425
6.482,-0.09262,0.02289,-0.0795,0.32913,-0.02899,-0.04349,-0.00076,0.02853,-0.02289,-0.01083,-0.0119,-0.09415,-0.02899,-0.02014,-0.00473,-0.04272
6.4825,-0.08957,-0.02075,-0.0824,0.25116,-0.02884,-0.06851,0.00015,0.02472,-0.02441,-0.00916,-0.01007,-0.11749,-0.03281,-0.02136,-0.00916,-0.03601
6.483,-0.08118,-0.05875,-0.08499,0.07431,-0.0238,-0.09155,-0.00061,0.01297,-0.02243,-0.01312,-0.00793,-0.15091,-0.03372,-0.0209,-0.01785,-0.03235
