time,RectFemL,VastusMedL,VastusLatL,TibAntL,HamMedL,HamLatL,GastroMedL,GastroLatL,RectFemR,VastusMedR,VastusLatR,TibAntR,HamMedR,HamLatR,GastroMedR,GastroLatR
5.94,-0.17105,-0.02258,-0.0354,-0.01465,-0.03082,-0.04074,-0.13107,-0.00641,0.0145,-0.01984,-0.0058,0.54367,-0.03967,-0.01724,0.01083,-0.04547
5.9405,-0.17807,-0.02182,-0.03021,-0.01434,-0.03098,-0.04425,-0.08469,0.01007,0.01389,-0.09216,0.00778,0.44144,-0.04028,-0.01907,0.0087,-0.04669
5.941,-0.19135,-0.02686,-0.0293,-0.01419,-0.03204,-0.04623,0.00931,0.02655,0.01205,-0.13138,0.01724,0.20081,-0.0383,-0.01968,0.00702,-0.04929
5.9415,-0.19058,-0.03372,-0.03204,-0.01389,-0.03418,-0.04547,0.05539,0.04227,0.01251,-0.12756,0.01785,0.02289,-0.03555,-0.01816,0.00778,-0.05096
5.942,-0.16708,-0.04074,-0.03265,-0.00992,-0.03479,-0.0444,-0.02838,0.05753,0.01572,-0.08301,0.01328,-0.0322,-0.0354,-0.01709,0.009,-0.05157
5.9425,-0.13397,-0.04974,-0.02975,-0.00427,-0.03296,-0.047,-0.17685,0.0737,0.01938,-0.0029,0.00961,-0.04395,-0.03632,-0.01709,0.01053,-0.05096
5.943,-0.10803,-0.06027,-0.02716,0.00107,-0.03189,-0.05005,-0.24216,0.08453,0.01724,0.09186,0.00854,-0.07935,-0.04196,-0.01831,0.01083,-0.05112
5.9435,-0.09415,-0.06668,-0.02747,0.00549,-0.03067,-0.05203,-0.18219,0.08163,0.00931,0.17258,0.00366,-0.10742,-0.04822,-0.02045,0.01038,-0.05417
5.944,-0.08194,-0.07233,-0.02945,0.00931,-0.03235,-0.05188,-0.09583,0.05707,-0.00412,0.21729,-0.00702,-0.08224,-0.05219,-0.02213,0.00702,-0.05783
5.9445,-0.06622,-0.07782,-0.02808,0.01205,-0.03418,-0.0499,-0.04486,0.01053,-0.01587,0.22339,-0.01083,-0.03754,-0.05386,-0.02319,0.00443,-0.05981
5.945,-0.04807,-0.08057,-0.02228,0.01053,-0.03464,-0.04654,0.03265,-0.0412,-0.02213,0.20218,-0.00259,-0.03479,-0.05142,-0.02396,0.00351,-0.06058
5.9455,-0.03204,-0.07751,-0.01724,0.00473,-0.03235,-0.03998,0.17136,-0.07278,-0.02594,0.16296,0.00229,-0.07263,-0.04807,-0.02411,0.00504,-0.05951
5.946,-0.02014,-0.07034,-0.0177,-0.00168,-0.03021,-0.03372,0.24414,-0.07416,-0.03311,0.10498,-0.01526,-0.10406,-0.04547,-0.02258,0.00809,-0.05829
5.9465,-0.01129,-0.06485,-0.02335,-0.00717,-0.03128,-0.03174,0.14923,-0.065,-0.04105,0.03311,-0.05859,-0.11047,-0.04196,-0.02136,0.01007,-0.05768
5.947,-0.00641,-0.06226,-0.02655,-0.00839,-0.03494,-0.0354,-0.00778,-0.06134,-0.04669,-0.03265,-0.10651,-0.09964,-0.03922,-0.02121,0.00961,-0.05722
5.9475,-0.00366,-0.05417,-0.01953,-0.0058,-0.03723,-0.03983,-0.07004,-0.05524,-0.05188,-0.06714,-0.1387,-0.04349,-0.03708,-0.02365,0.00809,-0.05905
5.948,-0.00061,-0.03876,-0.00534,-0.00381,-0.03647,-0.04471,-0.04547,-0.03845,-0.05859,-0.06256,-0.15167,0.08408,-0.03479,-0.02533,0.00656,-0.0618
5.9485,0.00427,-0.02258,0.00031,-0.00473,-0.03525,-0.04669,-0.04257,-0.02167,-0.06531,-0.03143,-0.15305,0.2124,-0.0322,-0.02319,0.00488,-0.06393
5.949,0.00916,-0.01495,-0.00702,-0.0029,-0.03387,-0.04684,-0.07568,-0.0148,-0.07019,0.00183,-0.15167,0.21957,-0.02747,-0.01999,0.00504,-0.06256
5.9495,0.0145,-0.01251,-0.02029,0.00443,-0.0325,-0.04715,-0.06897,-0.00961,-0.07111,0.02411,-0.14618,0.10193,-0.01892,-0.01465,0.00504,-0.05966
5.95,0.02197,-0.00854,-0.02899,0.01205,-0.03021,-0.04745,0.01053,0.00107,-0.0679,0.03189,-0.13657,-0.01923,-0.00763,-0.00916,0.00656,-0.05814
5.9505,0.0322,-0.00122,-0.03098,0.01465,-0.0296,-0.04852,0.103,0.00977,-0.05936,0.03616,-0.12421,-0.05783,0.00107,-0.00534,0.00778,-0.05722
5.951,0.04013,0.00702,-0.02991,0.01144,-0.03036,-0.0499,0.14221,0.0087,-0.04471,0.0499,-0.10986,-0.04181,0.00397,-0.00183,0.00809,-0.05936
5.9515,0.04257,0.01266,-0.0264,0.00793,-0.03082,-0.05081,0.1207,0.00214,-0.02808,0.07294,-0.09628,-0.03174,0.00366,0.00107,0.00702,-0.06119
5.952,0.04517,0.0116,-0.02258,0.00656,-0.02869,-0.05142,0.06073,-0.00046,-0.01312,0.09552,-0.08545,-0.03479,0.00366,0.00244,0.00626,-0.06058
5.9525,0.05234,0.0061,-0.02548,0.00549,-0.02762,-0.05127,-0.02228,0.00488,-0.00183,0.10742,-0.07813,-0.02045,0.00443,-0.00061,0.00534,-0.05646
5.953,0.06424,-0.00137,-0.03876,0.00366,-0.02747,-0.05173,-0.10071,0.0174,0.00412,0.10574,-0.0708,0.01358,0.00717,-0.00473,0.00565,-0.05081
5.9535,0.07889,-0.00687,-0.06226,0.00168,-0.02609,-0.05157,-0.13489,0.0293,0.00702,0.08942,-0.06241,0.04211,0.00656,-0.00763,0.00641,-0.04425
5.954,0.09323,-0.01038,-0.08499,0.00336,-0.02487,-0.05096,-0.12573,0.02838,0.00793,0.06729,-0.05142,0.05951,0.00259,-0.00885,0.01022,-0.03891
5.9545,0.10468,-0.01297,-0.09323,0.00946,-0.0238,-0.05173,-0.11993,0.01587,0.01007,0.04181,-0.03983,0.09735,-0.00595,-0.01175,0.0145,-0.03494
5.955,0.11154,-0.01541,-0.08209,0.02029,-0.02426,-0.05447,-0.12131,0.00687,0.01129,0.01144,-0.03128,0.15488,-0.01541,-0.01389,0.01556,-0.03143
5.9555,0.11307,-0.01999,-0.0592,0.03464,-0.02533,-0.05844,-0.07172,0.00519,0.00946,-0.02426,-0.02625,0.16251,-0.02289,-0.01511,0.0148,-0.02975
5.956,0.11536,-0.02808,-0.03387,0.0563,-0.02869,-0.06104,0.01984,-0.00046,0.00183,-0.05371,-0.02304,0.0737,-0.02792,-0.01663,0.01373,-0.03098
5.9565,0.12177,-0.03845,-0.01038,0.08194,-0.03311,-0.06149,0.02335,-0.02121,-0.01007,-0.07019,-0.01755,-0.04852,-0.03113,-0.01709,0.01175,-0.03448
5.957,0.12863,-0.04852,0.00458,0.09628,-0.03555,-0.06012,-0.12802,-0.04181,-0.01923,-0.07462,-0.00931,-0.09872,-0.03082,-0.01663,0.00885,-0.03891
5.9575,0.13,-0.05646,0.00824,0.0853,-0.03632,-0.05966,-0.28625,-0.03494,-0.02228,-0.07309,0.00153,-0.06165,-0.03036,-0.01526,0.00702,-0.04196
5.958,0.1268,-0.05859,0.00336,0.05234,-0.03738,-0.05905,-0.2739,-0.00198,-0.01831,-0.07095,0.00931,-0.01633,-0.03143,-0.01633,0.00671,-0.04623
5.9585,0.12619,-0.05722,-0.0032,0.01541,-0.03723,-0.05951,-0.12741,0.02716,-0.0116,-0.06592,0.00702,-0.01724,-0.03647,-0.01984,0.00687,-0.05051
5.959,0.13184,-0.05417,-0.01419,-0.01389,-0.03677,-0.05692,-0.03189,0.02716,0.00015,-0.05783,-0.00351,-0.05173,-0.03952,-0.02411,0.00946,-0.05188
5.9595,0.13962,-0.05264,-0.02869,-0.03448,-0.03693,-0.05219,-0.07278,0.00458,0.0145,-0.04898,-0.01022,-0.0853,-0.04181,-0.02411,0.01221,-0.05234
5.96,0.14343,-0.05234,-0.04196,-0.05539,-0.03738,-0.04944,-0.17654,-0.02182,0.0235,-0.04105,-0.00214,-0.09552,-0.0415,-0.02274,0.01358,-0.05325
5.9605,0.14389,-0.05508,-0.05035,-0.07935,-0.03632,-0.05188,-0.2446,-0.04791,0.01907,-0.03647,0.01877,-0.06439,-0.04364,-0.02045,0.01297,-0.05295
5.961,0.14557,-0.05478,-0.05295,-0.10498,-0.03464,-0.056,-0.22858,-0.07095,0.00809,-0.03571,0.0412,0.00809,-0.04517,-0.01968,0.01175,-0.04944
5.9615,0.14969,-0.05554,-0.05295,-0.12543,-0.03403,-0.05386,-0.11826,-0.07294,-0.00031,-0.04044,0.05234,0.07767,-0.04562,-0.02151,0.01114,-0.04379
5.962,0.15076,-0.06256,-0.05402,-0.1355,-0.03326,-0.04074,0.0531,-0.04349,-0.00092,-0.05295,0.0502,0.09323,-0.04211,-0.02426,0.00961,-0.03891
5.9625,0.14801,-0.07446,-0.05615,-0.1329,-0.03235,-0.02396,0.18707,-0.00641,-0.00214,-0.07065,0.04395,0.06317,-0.03906,-0.02563,0.0087,-0.03845
5.963,0.14084,-0.0798,-0.05554,-0.12024,-0.03021,-0.01709,0.19608,0.0087,-0.00458,-0.08713,0.0415,0.03113,-0.03738,-0.02502,0.00641,-0.03998
5.9635,0.12939,-0.07462,-0.04929,-0.10437,-0.02945,-0.0238,0.10712,0.00061,-0.00977,-0.09781,0.04242,0.00275,-0.03937,-0.0238,0.00626,-0.04181
5.964,0.11597,-0.06531,-0.03769,-0.09109,-0.02991,-0.0354,0.04761,-0.00977,-0.01144,-0.10483,0.03754,-0.0441,-0.03983,-0.0238,0.0061,-0.04303
5.9645,0.10345,-0.05875,-0.02823,-0.08316,-0.0296,-0.04257,0.10437,-0.01053,-0.009,-0.11063,0.02014,-0.08926,-0.04013,-0.02289,0.00732,-0.04349
5.965,0.09811,-0.05661,-0.02777,-0.07446,-0.02975,-0.04501,0.22751,-0.00687,-0.00229,-0.11292,-0.00992,-0.07141,-0.04074,-0.02182,0.00916,-0.04318
5.9655,0.10193,-0.05386,-0.03723,-0.06348,-0.02792,-0.04471,0.27649,-0.00702,0.00427,-0.11032,-0.05188,0.01358,-0.04196,-0.0206,0.0116,-0.0415
5.966,0.10895,-0.04929,-0.04608,-0.05188,-0.02686,-0.04669,0.18173,-0.01617,0.00702,-0.10239,-0.10559,0.07843,-0.04456,-0.0209,0.01266,-0.03891
5.9665,0.11398,-0.0386,-0.04562,-0.04349,-0.02701,-0.047,0.04501,-0.03601,0.00992,-0.09903,-0.16281,0.04913,-0.047,-0.02243,0.01175,-0.03708
5.967,0.1149,-0.02365,-0.03647,-0.03799,-0.02625,-0.04654,0.00824,-0.05539,0.0116,-0.10193,-0.21057,-0.04517,-0.0502,-0.02243,0.0087,-0.03586
5.9675,0.11139,-0.00717,-0.02625,-0.03006,-0.02594,-0.04761,0.05554,-0.06256,0.01007,-0.10818,-0.23605,-0.12863,-0.05142,-0.02167,0.00763,-0.03586
5.968,0.1059,0.00671,-0.01953,-0.01831,-0.02731,-0.04929,0.09796,-0.04868,-0.00473,-0.11139,-0.23071,-0.16968,-0.05264,-0.02213,0.00748,-0.03418
5.9685,0.09979,0.01419,-0.01694,-0.00488,-0.03021,-0.05081,0.13123,-0.01251,-0.03113,-0.11383,-0.19913,-0.16922,-0.04898,-0.02304,0.00992,-0.03128
5.969,0.09476,0.01129,-0.01526,0.00305,-0.03342,-0.05081,0.17654,0.02594,-0.0531,-0.12115,-0.15625,-0.11673,-0.04486,-0.02579,0.01099,-0.02914
5.9695,0.09018,0.0,-0.0119,0.00641,-0.03677,-0.05066,0.18036,0.03494,-0.06287,-0.13687,-0.11978,-0.01862,-0.04211,-0.02762,0.0116,-0.0293
5.97,0.08682,-0.01907,-0.00778,0.00732,-0.03799,-0.05402,0.10742,0.0061,-0.06256,-0.15701,-0.08835,0.07126,-0.04318,-0.02945,0.00992,-0.02853
5.9705,0.08652,-0.03693,-0.00824,0.00824,-0.03754,-0.05692,0.02563,-0.02975,-0.06073,-0.17624,-0.05402,0.10406,-0.04517,-0.02975,0.00961,-0.02655
5.971,0.09293,-0.0499,-0.01312,0.00885,-0.03555,-0.05676,0.01541,-0.03708,-0.05875,-0.18631,-0.0145,0.0882,-0.04532,-0.02838,0.01007,-0.02731
5.9715,0.10208,-0.05737,-0.01938,0.00824,-0.03265,-0.0531,0.07156,-0.01328,-0.05875,-0.17822,0.02396,0.0647,-0.04883,-0.02548,0.01083,-0.03586
5.972,0.10971,-0.06134,-0.0235,0.0061,-0.03143,-0.05005,0.11139,0.01907,-0.0592,-0.15106,0.04974,0.05432,-0.05234,-0.02197,0.01007,-0.04883
5.9725,0.11017,-0.05905,-0.03067,0.00412,-0.03098,-0.04623,0.06256,0.03891,-0.065,-0.11337,0.04593,0.04669,-0.05875,-0.02014,0.00809,-0.05737
5.973,0.1059,-0.04898,-0.05386,0.0032,-0.0322,-0.04196,-0.05524,0.04196,-0.07034,-0.07736,0.01358,0.01831,-0.06241,-0.02121,0.00763,-0.05508
5.9735,0.10117,-0.03281,-0.09903,0.00473,-0.03433,-0.03784,-0.14786,0.03693,-0.07553,-0.0563,-0.02014,-0.0386,-0.06134,-0.02289,0.00809,-0.04761
5.974,0.09598,-0.02121,-0.14893,0.00961,-0.03647,-0.03708,-0.1413,0.03204,-0.07919,-0.05325,-0.03052,-0.10178,-0.0563,-0.02457,0.00809,-0.04227
5.9745,0.08682,-0.02655,-0.16907,0.01572,-0.03738,-0.03967,-0.05371,0.03311,-0.08652,-0.05676,-0.02121,-0.13824,-0.04868,-0.02548,0.00763,-0.04181
5.975,0.07339,-0.04913,-0.14297,0.01846,-0.03891,-0.04456,0.02197,0.04044,-0.09949,-0.04623,-0.01511,-0.1329,-0.04318,-0.02472,0.00748,-0.0412
5.9755,0.06119,-0.07568,-0.08774,0.01358,-0.04013,-0.04868,0.01907,0.04333,-0.11032,-0.00748,-0.02411,-0.08972,-0.04028,-0.02213,0.00839,-0.03922
5.976,0.05585,-0.08774,-0.0296,0.00565,-0.03952,-0.05188,-0.02686,0.02899,-0.11215,0.05478,-0.04578,-0.00793,-0.03662,-0.01938,0.00778,-0.03738
5.9765,0.05402,-0.0798,0.01892,0.00275,-0.03815,-0.05447,-0.02625,-0.00076,-0.09964,0.12344,-0.07263,0.09109,-0.03235,-0.0174,0.00717,-0.03632
5.977,0.04929,-0.06409,0.05432,0.00717,-0.03677,-0.05432,0.02899,-0.02518,-0.07813,0.17273,-0.10117,0.14832,-0.02823,-0.01617,0.00778,-0.03525
5.9775,0.03876,-0.05066,0.06866,0.01465,-0.03616,-0.05173,0.04425,-0.02472,-0.05478,0.18875,-0.12665,0.13,-0.02289,-0.01526,0.00916,-0.03281
5.978,0.02884,-0.0441,0.05707,0.01816,-0.03632,-0.04791,-0.04272,-0.00839,-0.03616,0.18448,-0.13992,0.06622,-0.0177,-0.01434,0.01221,-0.03021
5.9785,0.0293,-0.04318,0.02167,0.0177,-0.03525,-0.0473,-0.18234,0.00183,-0.02319,0.17578,-0.13763,0.00687,-0.01328,-0.01389,0.01343,-0.03128
5.979,0.03876,-0.05325,-0.03174,0.01282,-0.03372,-0.04913,-0.30487,0.00031,-0.01343,0.16541,-0.12894,-0.0325,-0.0119,-0.01541,0.01099,-0.03403
5.9795,0.04776,-0.07767,-0.07706,0.00366,-0.03311,-0.05234,-0.39902,-0.00076,-0.0058,0.14679,-0.1207,-0.05234,-0.01312,-0.01938,0.00916,-0.03677
5.98,0.04791,-0.11292,-0.0798,-0.01114,-0.03159,-0.05539,-0.42358,0.00259,-0.00183,0.11932,-0.11032,-0.05081,-0.01434,-0.0235,0.00885,-0.03784
5.9805,0.04395,-0.14969,-0.03586,-0.02609,-0.03143,-0.05661,-0.28259,-0.00137,0.00107,0.0946,-0.09247,-0.0354,-0.01495,-0.02487,0.01038,-0.03754
5.981,0.04089,-0.17746,0.01785,-0.03677,-0.0322,-0.05615,-0.0354,-0.01404,0.00458,0.08194,-0.06668,-0.02701,-0.01297,-0.02243,0.01038,-0.03494
5.9815,0.03937,-0.19058,0.04929,-0.04868,-0.03342,-0.05402,0.06989,-0.02243,0.01297,0.08179,-0.04013,-0.03403,-0.01205,-0.01801,0.00977,-0.03357
5.982,0.03448,-0.18188,0.05402,-0.07156,-0.03693,-0.05371,-0.05844,-0.01434,0.02121,0.08774,-0.01495,-0.04242,-0.01434,-0.0148,0.00916,-0.0322
5.9825,0.02762,-0.14877,0.03937,-0.09689,-0.0386,-0.0531,-0.20279,0.00107,0.02716,0.09903,0.00854,-0.04242,-0.01617,-0.0145,0.00916,-0.03265
5.983,0.02518,-0.1001,0.01282,-0.10513,-0.03693,-0.05295,-0.14679,0.01053,0.03036,0.11322,0.03067,-0.03601,-0.01373,-0.01419,0.00763,-0.0351
5.9835,0.02899,-0.04776,-0.02548,-0.08987,-0.0351,-0.05173,0.04654,0.00427,0.03387,0.11902,0.05173,-0.01404,-0.00793,-0.01144,0.00702,-0.03647
5.984,0.03403,0.00351,-0.07584,-0.06607,-0.03494,-0.05157,0.1593,-0.01007,0.03693,0.10513,0.0708,0.03769,-0.00275,-0.00931,0.00885,-0.03647
5.9845,0.0386,0.05615,-0.12497,-0.04929,-0.03677,-0.05386,0.12604,-0.01923,0.04013,0.07111,0.08514,0.09216,-0.00504,-0.009,0.01114,-0.03571
5.985,0.04501,0.10529,-0.14084,-0.04166,-0.03677,-0.05737,0.08865,-0.01511,0.04074,0.03006,0.09277,0.08026,-0.01495,-0.01038,0.0116,-0.03647
5.9855,0.05432,0.13382,-0.10605,-0.03738,-0.03387,-0.0592,0.16312,-0.00214,0.03845,-0.00854,0.09186,-0.01831,-0.0238,-0.01114,0.01007,-0.03952
5.986,0.06073,0.12619,-0.03784,-0.03143,-0.03052,-0.05783,0.27435,0.00717,0.03372,-0.04532,0.08987,-0.12726,-0.02243,-0.00977,0.00732,-0.04105
5.9865,0.05737,0.0882,0.02975,-0.02182,-0.02808,-0.05264,0.27496,0.00534,0.03006,-0.08102,0.09338,-0.15244,-0.00595,-0.00732,0.00519,-0.04181
5.987,0.04379,0.04181,0.07629,-0.00809,-0.02823,-0.04791,0.14725,-0.00885,0.02579,-0.11444,0.10178,-0.07278,0.00977,-0.0061,0.00427,-0.04257
5.9875,0.02609,0.00137,0.09491,0.00397,-0.03036,-0.04623,0.01877,-0.02167,0.0209,-0.13992,0.10788,0.05951,0.01068,-0.00671,0.00427,-0.04395
5.988,0.01144,-0.03296,0.08194,0.0116,-0.0325,-0.04379,-0.01572,-0.0206,0.01556,-0.15015,0.10666,0.17456,-0.00168,-0.00763,0.00473,-0.04517
5.9885,0.00565,-0.06851,0.04517,0.02747,-0.03006,-0.0383,0.00381,-0.00793,0.00931,-0.13916,0.10056,0.20874,-0.01801,-0.00854,0.00488,-0.04471
5.989,0.00961,-0.09476,0.00351,0.07568,-0.02533,-0.02975,0.00122,-0.00153,0.00244,-0.10345,0.0914,0.14191,-0.0267,-0.00931,0.00488,-0.04303
5.9895,0.01755,-0.10117,-0.02777,0.14862,-0.0206,-0.02609,-0.02747,-0.00626,-0.0032,-0.04974,0.08911,0.02777,-0.03052,-0.00946,0.00702,-0.04211
5.99,0.02563,-0.08957,-0.04456,0.19623,-0.01953,-0.02884,-0.03677,-0.009,-0.00931,0.0029,0.10132,-0.04791,-0.03479,-0.00763,0.00824,-0.04257
5.9905,0.03418,-0.06805,-0.05234,0.17654,-0.02197,-0.03372,-0.00473,-0.00168,-0.01251,0.03387,0.12344,-0.05356,-0.04242,-0.00824,0.00916,-0.04227
5.991,0.04517,-0.03952,-0.0592,0.10895,-0.02411,-0.0354,0.05112,0.00626,-0.0148,0.03937,0.14099,-0.02808,-0.05188,-0.0116,0.00809,-0.04379
5.9915,0.05753,-0.00534,-0.07584,0.04776,-0.02441,-0.03235,0.09583,0.00732,-0.01801,0.02945,0.14435,-0.01617,-0.06073,-0.01755,0.00702,-0.04318
5.992,0.06821,0.02533,-0.10284,0.02365,-0.02487,-0.02975,0.10117,0.00031,-0.02106,0.01816,0.13794,-0.02045,-0.05951,-0.02182,0.00656,-0.04303
5.9925,0.07401,0.03998,-0.12695,0.02548,-0.02838,-0.03067,0.06531,-0.0119,-0.02319,0.00916,0.1297,-0.01572,-0.04639,-0.02441,0.00565,-0.0415
5.993,0.07614,0.03693,-0.12909,0.02945,-0.03281,-0.03815,0.00595,-0.0264,-0.02487,-0.00031,0.12192,0.00946,-0.0325,-0.02487,0.00473,-0.03937
5.9935,0.07889,0.02502,-0.10651,0.0267,-0.03906,-0.0499,-0.06348,-0.03082,-0.02502,-0.01205,0.11276,0.03357,-0.02762,-0.02457,0.00351,-0.03632
5.994,0.08301,0.01419,-0.0853,0.02457,-0.04227,-0.06149,-0.13077,-0.01785,-0.02457,-0.02731,0.10086,0.01251,-0.03067,-0.02502,0.00427,-0.03403
5.9945,0.08972,0.00565,-0.09354,0.02625,-0.04318,-0.07767,-0.17303,0.00275,-0.01923,-0.04257,0.08759,-0.05814,-0.03311,-0.02502,0.00549,-0.03464
5.995,0.09796,-0.00214,-0.12863,0.02899,-0.04166,-0.10208,-0.16937,0.01404,-0.00885,-0.05569,0.07599,-0.10361,-0.03387,-0.02411,0.00793,-0.03647
5.9955,0.10956,-0.01434,-0.15121,0.02777,-0.04089,-0.11841,-0.11597,0.01221,0.00244,-0.06195,0.06866,-0.04822,-0.03632,-0.0238,0.01053,-0.03799
5.996,0.1268,-0.04318,-0.1387,0.02197,-0.03876,-0.11002,-0.03708,0.01083,0.01083,-0.05905,0.06546,0.07477,-0.03891,-0.02502,0.01236,-0.0383
5.9965,0.14954,-0.09384,-0.09979,0.01556,-0.0351,-0.07446,0.01999,0.01755,0.01434,-0.0528,0.06317,0.15488,-0.0351,-0.02686,0.0116,-0.0386
5.997,0.17395,-0.1442,-0.05264,0.01038,-0.03174,-0.03479,0.02075,0.02716,0.01312,-0.05005,0.06302,0.14114,-0.02823,-0.02747,0.00916,-0.04135
5.9975,0.19089,-0.16205,0.00015,0.0061,-0.03052,-0.00824,-0.02243,0.03433,0.01236,-0.05127,0.06424,0.06882,-0.02716,-0.02457,0.00641,-0.04181
5.998,0.19592,-0.1416,0.06149,0.00183,-0.03021,0.00504,-0.06378,0.03128,0.01099,-0.05814,0.06577,0.01877,-0.03525,-0.01923,0.00488,-0.04074
5.9985,0.19821,-0.10544,0.11627,-0.00427,-0.0293,0.00656,-0.06042,0.00992,0.00778,-0.06882,0.06256,0.05203,-0.0441,-0.01587,0.00641,-0.03891
5.999,0.21225,-0.07843,0.14694,-0.01068,-0.02838,-0.00778,-0.02747,-0.02823,0.00351,-0.07629,0.05157,0.12238,-0.04395,-0.01587,0.00824,-0.03967
5.9995,0.23804,-0.06104,0.14633,-0.01923,-0.02884,-0.02991,-0.02884,-0.06668,0.00015,-0.07065,0.03616,0.10178,-0.03403,-0.0174,0.01038,-0.04288
6.0,0.25558,-0.04471,0.12512,-0.02747,-0.03204,-0.04547,-0.10284,-0.08179,-0.00275,-0.05615,0.02136,-0.04639,-0.01984,-0.01648,0.00885,-0.0444
6.0005,0.25101,-0.02518,0.09872,-0.03235,-0.03586,-0.05249,-0.19424,-0.0679,-0.00656,-0.04044,0.01083,-0.19089,-0.00595,-0.01587,0.00763,-0.04318
6.001,0.23026,-0.01602,0.08011,-0.03433,-0.03952,-0.05722,-0.19531,-0.03296,-0.01144,-0.02914,0.00275,-0.2066,0.00671,-0.01785,0.00656,-0.03967
6.0015,0.21149,-0.03479,0.06363,-0.03983,-0.03998,-0.06363,-0.07111,0.00244,-0.01495,-0.02151,-0.00259,-0.14282,0.01007,-0.02075,0.0058,-0.03815
6.002,0.19867,-0.07736,0.04013,-0.05035,-0.03891,-0.07141,0.05981,0.01907,-0.01602,-0.01236,-0.00824,-0.12665,0.00259,-0.02304,0.00443,-0.04044
6.0025,0.18051,-0.11658,0.01099,-0.06287,-0.03845,-0.07629,0.04166,0.01175,-0.01923,0.0,-0.01724,-0.17303,-0.00977,-0.02457,0.0029,-0.04349
6.003,0.15396,-0.13,-0.01541,-0.06653,-0.04074,-0.07706,-0.11978,0.0,-0.02731,0.01068,-0.03113,-0.17761,-0.02106,-0.02502,0.00259,-0.04578
6.0035,0.12283,-0.11993,-0.03998,-0.06012,-0.04318,-0.07355,-0.2655,0.00366,-0.0383,0.01053,-0.04745,-0.07721,-0.02731,-0.02563,0.00458,-0.04776
6.004,0.08682,-0.10284,-0.07004,-0.05066,-0.04471,-0.06729,-0.27878,0.01907,-0.04837,-0.00153,-0.06195,0.07416,-0.02899,-0.02792,0.00626,-0.04791
6.0045,0.03845,-0.08911,-0.10681,-0.04395,-0.04272,-0.06042,-0.18784,0.02853,-0.05585,-0.01862,-0.07217,0.1738,-0.02594,-0.03021,0.00717,-0.04654
6.005,-0.01923,-0.07889,-0.14359,-0.03937,-0.03937,-0.05402,-0.0621,0.02182,-0.05981,-0.03128,-0.07706,0.18906,-0.02243,-0.02869,0.00717,-0.04501
6.0055,-0.06638,-0.06546,-0.17273,-0.0325,-0.03464,-0.04684,0.05493,0.00031,-0.06058,-0.03769,-0.07675,0.18021,-0.02563,-0.02319,0.00763,-0.04501
6.006,-0.0856,-0.04791,-0.186,-0.02731,-0.03204,-0.03677,0.12695,-0.02487,-0.05569,-0.04135,-0.07141,0.19577,-0.03647,-0.01755,0.0087,-0.04761
6.0065,-0.08118,-0.03281,-0.18494,-0.02884,-0.02975,-0.02975,0.13107,-0.03799,-0.04959,-0.04395,-0.06088,0.19272,-0.04532,-0.01572,0.00778,-0.04898
6.007,-0.07507,-0.0238,-0.16586,-0.03418,-0.02884,-0.02457,0.08881,-0.03525,-0.04349,-0.04623,-0.04974,0.11993,-0.04501,-0.01617,0.00641,-0.04868
6.0075,-0.08453,-0.01999,-0.13245,-0.03799,-0.02762,-0.02319,0.04364,-0.0293,-0.03784,-0.04501,-0.04105,0.02853,-0.03601,-0.01633,0.00626,-0.0473
6.008,-0.10696,-0.01328,-0.09308,-0.03784,-0.02518,-0.02274,0.02365,-0.03143,-0.02869,-0.04349,-0.03021,0.00427,-0.03082,-0.01526,0.00793,-0.04654
6.0085,-0.12939,0.00076,-0.065,-0.03433,-0.02151,-0.02029,0.01694,-0.03815,-0.01801,-0.04562,-0.01526,0.04562,-0.03113,-0.01297,0.00931,-0.04623
6.009,-0.13992,0.02289,-0.05203,-0.02777,-0.01968,-0.0177,-0.01724,-0.03632,-0.00931,-0.05142,-0.00076,0.07996,-0.03235,-0.01205,0.00992,-0.04608
6.0095,-0.14023,0.0444,-0.05203,-0.01862,-0.01923,-0.01755,-0.07935,-0.01953,-0.00626,-0.05661,0.01129,0.06378,-0.03036,-0.01343,0.00793,-0.04715
6.01,-0.13535,0.05554,-0.06332,-0.0087,-0.01831,-0.01816,-0.11246,0.00748,-0.00626,-0.0592,0.02411,0.00931,-0.02747,-0.01785,0.00473,-0.05005
6.0105,-0.12955,0.0499,-0.08469,0.00122,-0.01801,-0.02289,-0.07706,0.03601,-0.00916,-0.05768,0.03464,-0.06042,-0.02838,-0.02136,0.00351,-0.05234
6.011,-0.12589,0.03357,-0.10086,0.00839,-0.02075,-0.03098,-0.00275,0.05569,-0.01312,-0.05386,0.0325,-0.12878,-0.02991,-0.02426,0.0058,-0.05234
6.0115,-0.13199,0.01312,-0.08881,0.01022,-0.02472,-0.04242,0.06912,0.0563,-0.01587,-0.05112,0.01007,-0.16037,-0.02899,-0.02563,0.00778,-0.04898
6.012,-0.15244,-0.00977,-0.05173,0.00671,-0.02792,-0.0528,0.11047,0.04272,-0.01495,-0.0499,-0.02731,-0.12558,-0.02533,-0.02731,0.00793,-0.04501
6.0125,-0.18021,-0.03983,-0.01633,0.00153,-0.02914,-0.05905,0.0943,0.03113,-0.0145,-0.05219,-0.0705,-0.04654,-0.02441,-0.02838,0.00687,-0.04395
6.013,-0.2037,-0.07126,0.00641,0.00137,-0.02853,-0.05814,0.03983,0.03235,-0.01343,-0.06271,-0.11185,0.01617,-0.02838,-0.02686,0.00671,-0.04501
6.0135,-0.21866,-0.09109,0.02686,0.0061,-0.02808,-0.05463,0.03906,0.0351,-0.00977,-0.08224,-0.14145,0.02899,-0.03647,-0.02411,0.00641,-0.04684
6.014,-0.22583,-0.09079,0.05447,0.00641,-0.03036,-0.05081,0.12283,0.03067,-0.00412,-0.09903,-0.15274,0.00854,-0.04608,-0.02274,0.00565,-0.04807
6.0145,-0.23346,-0.07645,0.07278,0.00061,-0.03281,-0.05081,0.17517,0.03036,0.00214,-0.1059,-0.14877,-0.01434,-0.05234,-0.02243,0.0058,-0.04837
6.015,-0.24506,-0.05753,0.0589,-0.00809,-0.03479,-0.05463,0.08514,0.03067,0.00519,-0.09903,-0.13611,-0.02258,-0.05295,-0.02151,0.00854,-0.04608
6.0155,-0.25848,-0.03952,0.01389,-0.01587,-0.03601,-0.05936,-0.09079,0.01175,0.00381,-0.08347,-0.11917,-0.01968,-0.04837,-0.02075,0.00931,-0.04364
6.016,-0.27069,-0.02457,-0.03265,-0.01816,-0.03448,-0.05981,-0.19821,-0.02579,-0.00031,-0.0621,-0.1001,-0.01617,-0.04395,-0.0209,0.00854,-0.04242
6.0165,-0.27756,-0.01236,-0.0563,-0.01648,-0.03235,-0.05661,-0.19058,-0.05356,-0.00397,-0.03387,-0.08133,-0.02106,-0.04379,-0.02106,0.00824,-0.04318
6.017,-0.28091,-0.00198,-0.05463,-0.01328,-0.03098,-0.05447,-0.14099,-0.05173,-0.00351,-0.00549,-0.0618,-0.02655,-0.04669,-0.02106,0.00778,-0.04318
6.0175,-0.28503,-0.00153,-0.04181,-0.01251,-0.02991,-0.0563,-0.0676,-0.03082,-0.00519,0.01511,-0.04196,-0.01663,-0.04868,-0.01999,0.00641,-0.04395
6.018,-0.29022,-0.02045,-0.02441,-0.01602,-0.03036,-0.06226,0.07385,-0.00931,-0.01205,0.02869,-0.02533,0.01282,-0.04944,-0.02075,0.00626,-0.04395
6.0185,-0.29022,-0.05051,-0.00977,-0.02274,-0.03098,-0.06805,0.2182,0.00626,-0.02151,0.04059,-0.01434,0.05737,-0.0528,-0.02228,0.00641,-0.04379
6.019,-0.27786,-0.06744,0.00061,-0.02655,-0.03098,-0.0737,0.19897,0.01312,-0.02731,0.05524,-0.0087,0.1033,-0.05646,-0.0238,0.00824,-0.04242
6.0195,-0.25864,-0.06104,0.00351,-0.02243,-0.02945,-0.07797,-0.00244,0.00961,-0.02838,0.07339,-0.00244,0.1236,-0.05829,-0.02319,0.01038,-0.04044
6.02,-0.24475,-0.04684,-0.00381,-0.01434,-0.02838,-0.07828,-0.19821,-0.00641,-0.02884,0.08545,0.00809,0.08698,-0.05692,-0.02213,0.00977,-0.03815
6.0205,-0.24689,-0.03952,-0.01389,-0.01221,-0.02792,-0.07065,-0.24338,-0.02655,-0.03265,0.08026,0.02289,-0.00015,-0.05432,-0.0206,0.009,-0.03891
6.021,-0.25604,-0.03281,-0.02731,-0.01923,-0.02838,-0.05249,-0.18234,-0.03845,-0.03677,0.0589,0.03448,-0.08728,-0.05264,-0.01938,0.00824,-0.0412
6.0215,-0.25711,-0.01831,-0.04028,-0.03143,-0.02899,-0.03006,-0.10666,-0.03876,-0.03784,0.03265,0.03525,-0.12985,-0.05173,-0.01831,0.00778,-0.04303
6.022,-0.24155,0.00076,-0.04654,-0.04257,-0.0296,-0.01465,-0.02426,-0.03494,-0.03662,0.01022,0.02655,-0.12756,-0.04868,-0.01633,0.00748,-0.04318
6.0225,-0.21835,0.01572,-0.03784,-0.05096,-0.03036,-0.01419,0.05402,-0.03128,-0.03723,-0.01068,0.01755,-0.1062,-0.04303,-0.01236,0.00824,-0.04196
6.023,-0.20233,0.02777,-0.01389,-0.05753,-0.0325,-0.02655,0.06073,-0.03082,-0.04089,-0.03571,0.0116,-0.07278,-0.03693,-0.00992,0.00885,-0.03998
6.0235,-0.20157,0.03922,0.00916,-0.06332,-0.03433,-0.03876,-0.01007,-0.03418,-0.04654,-0.06226,0.00366,-0.01785,-0.03143,-0.00977,0.01053,-0.0383
6.024,-0.20782,0.04456,0.01953,-0.0679,-0.03662,-0.04364,-0.07492,-0.03967,-0.04974,-0.08453,-0.01343,0.03082,-0.02747,-0.01114,0.00961,-0.03876
6.0245,-0.20798,0.03784,0.01129,-0.06912,-0.0383,-0.0415,-0.07813,-0.0386,-0.04944,-0.09567,-0.03769,0.02396,-0.02609,-0.01251,0.00793,-0.03952
6.025,-0.19989,0.02213,-0.0119,-0.06241,-0.03799,-0.03906,-0.03616,-0.02869,-0.04471,-0.09109,-0.06134,-0.02655,-0.02701,-0.0145,0.0061,-0.04257
6.0255,-0.19119,0.00961,-0.03693,-0.05386,-0.03555,-0.03586,0.05386,-0.01831,-0.03845,-0.06897,-0.07645,-0.05692,-0.02792,-0.01648,0.00458,-0.04501
6.026,-0.19028,0.00351,-0.05417,-0.04959,-0.03159,-0.03571,0.17181,-0.01663,-0.03494,-0.03281,-0.08469,-0.04532,-0.02914,-0.01938,0.00504,-0.04517
6.0265,-0.19485,-0.00305,-0.06027,-0.05096,-0.03128,-0.03571,0.20447,-0.02136,-0.03494,0.00778,-0.08865,-0.0322,-0.0293,-0.0209,0.00504,-0.04333
6.027,-0.19775,-0.01648,-0.06134,-0.05066,-0.03128,-0.04013,0.08453,-0.02441,-0.03632,0.03799,-0.0914,-0.03357,-0.03052,-0.02106,0.00793,-0.04211
6.0275,-0.19791,-0.03708,-0.06393,-0.04288,-0.03159,-0.04807,-0.06912,-0.0206,-0.0383,0.04791,-0.09262,-0.00534,-0.03448,-0.02258,0.0116,-0.04227
6.028,-0.19623,-0.06226,-0.07309,-0.03174,-0.0322,-0.05539,-0.10117,-0.01526,-0.03754,0.03952,-0.0914,0.05417,-0.03433,-0.02563,0.01282,-0.04456
6.0285,-0.1915,-0.09186,-0.08606,-0.02502,-0.03296,-0.0647,-0.00214,-0.01495,-0.03479,0.02411,-0.08881,0.06332,-0.02884,-0.0267,0.01053,-0.04654
6.029,-0.1825,-0.12024,-0.09567,-0.02365,-0.0325,-0.08102,0.12863,-0.01907,-0.02914,0.01541,-0.08652,-0.01785,-0.02213,-0.02396,0.00992,-0.05005
6.0295,-0.1683,-0.13245,-0.09369,-0.02289,-0.03128,-0.10269,0.20279,-0.0209,-0.02228,0.01602,-0.08545,-0.08972,-0.02029,-0.02136,0.01221,-0.05219
6.03,-0.15305,-0.11627,-0.08591,-0.02014,-0.0296,-0.11246,0.18646,-0.01984,-0.01587,0.02106,-0.08224,-0.0444,-0.02609,-0.02045,0.01389,-0.05341
6.0305,-0.14236,-0.08057,-0.0795,-0.01816,-0.0296,-0.09537,0.09491,-0.02151,-0.01129,0.02365,-0.07217,0.0531,-0.03174,-0.02136,0.01297,-0.05157
6.031,-0.13458,-0.05234,-0.07858,-0.01526,-0.03113,-0.06195,-0.03143,-0.02411,-0.00687,0.02258,-0.05783,0.05432,-0.03265,-0.02045,0.0119,-0.05081
6.0315,-0.12558,-0.05341,-0.07843,-0.01144,-0.03281,-0.0386,-0.14771,-0.01831,-0.00305,0.02045,-0.04562,-0.03799,-0.03128,-0.0177,0.00946,-0.05127
6.032,-0.11551,-0.08347,-0.08606,-0.00595,-0.03494,-0.03647,-0.23071,-0.00061,0.00092,0.01984,-0.03876,-0.08942,-0.03159,-0.01541,0.00809,-0.05203
6.0325,-0.11063,-0.12039,-0.11871,-0.00031,-0.03723,-0.04761,-0.28946,0.02045,0.00549,0.02014,-0.03494,-0.03815,-0.03159,-0.01465,0.00626,-0.05096
6.033,-0.11063,-0.1384,-0.16556,0.01007,-0.03815,-0.05753,-0.33066,0.02991,0.01068,0.01938,-0.03036,0.04486,-0.03296,-0.01266,0.00534,-0.05005
6.0335,-0.11612,-0.13565,-0.18677,0.02441,-0.03922,-0.05997,-0.31647,0.02655,0.01511,0.01633,-0.02243,0.07599,-0.03738,-0.00946,0.00763,-0.04684
6.034,-0.12573,-0.12772,-0.15259,0.03601,-0.03998,-0.06104,-0.20767,0.01999,0.01663,0.00656,-0.00595,0.03891,-0.04349,-0.00626,0.01022,-0.04486
6.0345,-0.13901,-0.13062,-0.07996,0.03876,-0.04196,-0.05905,-0.03891,0.0174,0.01633,-0.00656,0.02106,-0.02502,-0.04471,-0.00351,0.01114,-0.04242
6.035,-0.14893,-0.14572,-0.01068,0.03311,-0.04333,-0.05737,0.10117,0.01846,0.01892,-0.0177,0.05203,-0.0621,-0.03021,-0.00031,0.00931,-0.03998
6.0355,-0.14862,-0.16785,0.03372,0.02991,-0.04333,-0.05661,0.16342,0.01984,0.02533,-0.02457,0.07645,-0.0531,-0.00671,0.00107,0.00748,-0.03754
6.036,-0.14267,-0.17975,0.05569,0.03296,-0.04135,-0.05295,0.16953,0.01968,0.03571,-0.02991,0.0885,-0.02991,0.00916,-0.00183,0.00519,-0.03586
6.0365,-0.13977,-0.159,0.04578,0.04013,-0.03876,-0.04593,0.1741,0.01556,0.04425,-0.03372,0.08865,-0.02304,0.00992,-0.009,0.00336,-0.03632
6.037,-0.14343,-0.10391,-0.00717,0.04654,-0.03647,-0.03784,0.18967,0.01068,0.04562,-0.03265,0.08255,-0.02182,-0.00031,-0.01648,0.0032,-0.03784
6.0375,-0.14893,-0.0354,-0.07278,0.0499,-0.03616,-0.03448,0.17761,0.00702,0.04044,-0.02289,0.07217,-0.0032,-0.01221,-0.02228,0.00366,-0.03952
6.038,-0.15625,0.02563,-0.09537,0.04974,-0.03693,-0.03479,0.11017,0.00671,0.03174,-0.00961,0.05554,0.02304,-0.01907,-0.02304,0.00397,-0.04028
6.0385,-0.17044,0.07324,-0.06607,0.04562,-0.03784,-0.03128,0.02594,0.01022,0.02396,-0.0029,0.03555,0.03372,-0.02075,-0.02213,0.00549,-0.04166
6.039,-0.18784,0.10574,-0.02655,0.03693,-0.03937,-0.02197,-0.01328,0.01358,0.01541,-0.00839,0.01862,0.02594,-0.01999,-0.02136,0.00824,-0.04272
6.0395,-0.19287,0.11917,-0.0119,0.02548,-0.03922,-0.01343,0.00183,0.01495,0.0061,-0.01877,0.009,0.01099,-0.02243,-0.02243,0.01221,-0.04379
6.04,-0.17471,0.11826,-0.00763,0.01556,-0.03632,-0.01068,0.03235,0.01282,-0.00259,-0.02594,0.00153,-0.01343,-0.0293,-0.02472,0.01587,-0.0444
6.0405,-0.1413,0.1062,0.0029,0.01099,-0.03159,-0.01434,0.03799,0.0119,-0.00931,-0.0325,-0.00595,-0.05463,-0.0383,-0.0267,0.01709,-0.04471
6.041,-0.11139,0.07965,0.01389,0.00793,-0.02838,-0.0209,0.02121,0.01572,-0.01526,-0.04364,-0.00992,-0.10986,-0.04578,-0.02838,0.01434,-0.0473
6.0415,-0.09552,0.01892,0.01236,0.00381,-0.02869,-0.02899,-0.00671,0.01938,-0.02121,-0.05798,-0.01419,-0.16571,-0.05127,-0.02838,0.01053,-0.0531
6.042,-0.08682,-0.0769,0.00763,-0.0058,-0.03052,-0.03479,-0.06195,0.01617,-0.02563,-0.0766,-0.02823,-0.18616,-0.05508,-0.0267,0.00488,-0.06287
6.0425,-0.07446,-0.1738,0.00763,-0.01968,-0.03204,-0.03799,-0.14801,0.00519,-0.02655,-0.0972,-0.05249,-0.11047,-0.05768,-0.02441,0.00153,-0.07126
6.043,-0.05768,-0.22598,-0.00305,-0.0322,-0.03021,-0.04105,-0.2121,-0.00397,-0.02625,-0.11978,-0.07523,0.06668,-0.05829,-0.02228,0.0,-0.07202
6.0435,-0.04288,-0.21988,-0.04181,-0.03845,-0.02792,-0.0441,-0.1944,-0.00381,-0.02838,-0.13565,-0.08881,0.23102,-0.05875,-0.02167,0.00214,-0.06699
6.044,-0.02914,-0.17609,-0.08026,-0.03799,-0.02701,-0.0444,-0.09949,0.00488,-0.03571,-0.13824,-0.09369,0.23422,-0.05997,-0.02182,0.00427,-0.05844
6.0445,-0.01511,-0.11688,-0.06851,-0.03082,-0.02609,-0.04074,-0.00061,0.01297,-0.04211,-0.12726,-0.08987,0.09506,-0.06027,-0.02106,0.00504,-0.0499
6.045,-0.00412,-0.05539,-0.01114,-0.0209,-0.02594,-0.03571,0.01831,0.01633,-0.04303,-0.10849,-0.07339,-0.00412,-0.05661,-0.01648,0.00519,-0.04562
6.0455,-0.00015,-0.00244,0.04578,-0.01312,-0.02701,-0.03204,-0.06546,0.01404,-0.0386,-0.08789,-0.05173,0.03677,-0.04913,-0.01038,0.00641,-0.04623
6.046,-0.00092,0.03464,0.07568,-0.01465,-0.02991,-0.03387,-0.15869,0.0087,-0.03403,-0.06424,-0.04028,0.11826,-0.03876,-0.00519,0.00641,-0.04898
6.0465,-0.00198,0.06409,0.09064,-0.0238,-0.03296,-0.03922,-0.14374,0.0,-0.03204,-0.03433,-0.04593,0.13275,-0.03204,-0.00549,0.00656,-0.04944
6.047,-0.00259,0.09109,0.10056,-0.03159,-0.03632,-0.04486,-0.05798,-0.01068,-0.03342,-0.00305,-0.06271,0.10223,-0.02945,-0.00931,0.00778,-0.04593
6.0475,-0.00565,0.10483,0.09369,-0.02975,-0.03983,-0.04868,-0.05432,-0.02197,-0.03632,0.02289,-0.07904,0.07843,-0.03159,-0.0148,0.00946,-0.04227
6.048,-0.01266,0.09521,0.06317,-0.02121,-0.03998,-0.05081,-0.16052,-0.02594,-0.03845,0.04028,-0.08881,0.04135,-0.03296,-0.01724,0.00732,-0.04288
6.0485,-0.01907,0.06821,0.03098,-0.01358,-0.03601,-0.04959,-0.22034,-0.02243,-0.03708,0.05447,-0.09048,-0.03189,-0.0293,-0.01694,0.00427,-0.04745
6.049,-0.0209,0.03983,0.01663,-0.01434,-0.03265,-0.04684,-0.11124,-0.02014,-0.03143,0.07034,-0.08331,-0.09415,-0.0209,-0.01434,0.00214,-0.0502
6.0495,-0.01419,0.02106,0.01984,-0.01617,-0.02899,-0.04517,0.10132,-0.02151,-0.02274,0.0885,-0.06836,-0.08316,-0.01495,-0.0119,0.0029,-0.04807
6.05,-0.00061,0.01175,0.02151,-0.01282,-0.02762,-0.04456,0.25604,-0.01434,-0.01663,0.10239,-0.05005,0.00412,-0.01434,-0.00946,0.00443,-0.04456
6.0505,0.01343,0.00519,0.00824,-0.00458,-0.02716,-0.04562,0.26108,0.0087,-0.01434,0.10803,-0.03235,0.10681,-0.02213,-0.00763,0.00443,-0.04196
6.051,0.0267,-0.00366,-0.01648,0.00214,-0.02609,-0.04593,0.12619,0.03815,-0.01617,0.1059,-0.0174,0.14236,-0.03174,-0.00717,0.00656,-0.04059
6.0515,0.03693,-0.01648,-0.04272,0.00183,-0.02579,-0.04471,-0.06302,0.04669,-0.02182,0.0972,-0.00473,0.08316,-0.03967,-0.00931,0.00793,-0.03967
6.052,0.0415,-0.0293,-0.06195,-0.00092,-0.02426,-0.04288,-0.1825,0.02975,-0.02991,0.08499,0.00717,-0.00885,-0.04456,-0.01282,0.00916,-0.03937
6.0525,0.03876,-0.0412,-0.07401,0.00015,-0.02365,-0.04166,-0.16907,0.00809,-0.03632,0.06958,0.01785,-0.04593,-0.04654,-0.01678,0.00854,-0.04074
6.053,0.03464,-0.04517,-0.09445,0.00656,-0.02533,-0.04272,-0.07797,-0.00351,-0.03891,0.0528,0.0267,-0.01709,-0.04501,-0.01999,0.00839,-0.04181
6.0535,0.03265,-0.03922,-0.14313,0.01648,-0.0296,-0.04639,0.01282,-0.01068,-0.03952,0.0354,0.03281,0.02106,-0.0444,-0.02106,0.00549,-0.04059
6.054,0.03403,-0.03174,-0.21042,0.02289,-0.03326,-0.05005,0.06668,-0.02014,-0.0412,0.01862,0.03326,0.03326,-0.04486,-0.02228,0.00381,-0.03906
6.0545,0.0412,-0.0325,-0.2478,0.02106,-0.03525,-0.05249,0.04501,-0.02319,-0.04135,0.00519,0.02853,0.03326,-0.04517,-0.02457,0.00259,-0.03723
6.055,0.05524,-0.04135,-0.22583,0.00916,-0.03677,-0.0528,-0.03632,-0.01251,-0.03662,-0.00656,0.01953,0.03098,-0.04196,-0.02701,0.00397,-0.03677
6.0555,0.07294,-0.05035,-0.17014,-0.00519,-0.03937,-0.05371,-0.05264,0.01038,-0.02579,-0.01663,0.00854,0.02258,-0.03494,-0.02716,0.00534,-0.03723
6.056,0.08759,-0.05676,-0.13474,-0.01282,-0.04181,-0.05524,0.06363,0.03372,-0.01495,-0.02686,-0.00061,0.0119,-0.02777,-0.02472,0.00549,-0.03922
6.0565,0.09293,-0.0618,-0.12421,-0.01297,-0.04211,-0.05539,0.19379,0.04013,-0.00809,-0.03708,-0.00656,0.01007,-0.02136,-0.01984,0.00565,-0.0412
6.057,0.08667,-0.06454,-0.11459,-0.00839,-0.04242,-0.056,0.20126,0.02106,-0.00488,-0.04379,-0.01022,0.01587,-0.01968,-0.01434,0.00626,-0.04242
6.0575,0.07843,-0.06454,-0.0943,-0.00656,-0.0415,-0.05814,0.13596,-0.0119,-0.00504,-0.04547,-0.01083,0.01892,-0.01663,-0.0116,0.00641,-0.04181
6.058,0.07767,-0.06577,-0.05905,-0.00549,-0.0412,-0.06226,0.13535,-0.03738,-0.00397,-0.04364,-0.00809,0.01099,-0.01434,-0.01282,0.00671,-0.03952
6.0585,0.08545,-0.07843,-0.0119,0.00183,-0.03967,-0.06714,0.20462,-0.03387,-0.00183,-0.04013,0.00061,-0.00854,-0.00885,-0.01633,0.00824,-0.03693
6.059,0.09369,-0.10818,0.04501,0.02426,-0.0386,-0.06897,0.21927,-0.01129,0.00046,-0.03677,0.01465,-0.04364,-0.00687,-0.01755,0.00977,-0.03571
6.0595,0.09811,-0.1442,0.09735,0.06195,-0.03769,-0.06561,0.13229,0.01068,0.00076,-0.03372,0.02686,-0.09552,-0.00961,-0.01755,0.01038,-0.03525
6.06,0.10178,-0.16388,0.12772,0.09872,-0.03616,-0.06042,0.02914,0.01678,-0.00107,-0.03281,0.02579,-0.15121,-0.02075,-0.01907,0.00977,-0.03433
6.0605,0.11078,-0.15427,0.13107,0.11322,-0.03418,-0.05676,-0.00992,0.01312,-0.00473,-0.03403,0.01556,-0.19012,-0.03586,-0.02075,0.00824,-0.03281
6.061,0.12375,-0.12589,0.11124,0.10117,-0.03159,-0.05661,-0.00275,0.00763,-0.00809,-0.03494,0.00885,-0.19577,-0.04883,-0.02106,0.01022,-0.03052
6.0615,0.13153,-0.0972,0.0798,0.07675,-0.02884,-0.05753,-0.00046,0.00183,-0.01083,-0.03372,0.01068,-0.15228,-0.05142,-0.01785,0.01022,-0.0296
6.062,0.1297,-0.07431,0.04333,0.05508,-0.02884,-0.05829,-0.01434,0.00046,-0.01312,-0.03113,0.01633,-0.03754,-0.04745,-0.01404,0.01114,-0.03113
6.0625,0.11993,-0.0563,0.01312,0.03479,-0.02853,-0.05692,-0.02853,0.00397,-0.01328,-0.02716,0.02151,0.13199,-0.04059,-0.01434,0.00931,-0.03311
6.063,0.10712,-0.05463,-0.01282,0.00732,-0.02975,-0.05371,-0.03738,0.00534,-0.01022,-0.02533,0.02487,0.26245,-0.03098,-0.01678,0.00793,-0.03494
6.0635,0.09262,-0.07553,-0.03937,-0.03082,-0.03082,-0.05081,-0.04425,0.00305,-0.00641,-0.02823,0.02747,0.2562,-0.02777,-0.02029,0.0061,-0.03632
6.064,0.08316,-0.10437,-0.07568,-0.07126,-0.0322,-0.04913,-0.05142,-0.00305,-0.00458,-0.03464,0.02762,0.13916,-0.03021,-0.02228,0.00534,-0.03769
6.0645,0.08179,-0.11581,-0.12299,-0.09964,-0.03128,-0.04852,-0.05386,-0.00778,-0.00427,-0.03937,0.02502,0.03021,-0.03906,-0.02274,0.00595,-0.03922
6.065,0.08499,-0.1059,-0.16068,-0.10986,-0.03128,-0.04807,-0.05371,-0.00793,-0.00519,-0.04227,0.01816,-0.00351,-0.04654,-0.02274,0.00748,-0.03891
6.0655,0.08148,-0.08804,-0.16235,-0.10513,-0.0322,-0.04852,-0.05463,-0.00458,-0.00671,-0.04105,0.00778,-0.00656,-0.04929,-0.0235,0.01022,-0.03632
6.066,0.06775,-0.06805,-0.11887,-0.0975,-0.03387,-0.04837,-0.05753,-0.00092,-0.00549,-0.04105,-0.00015,-0.03235,-0.05539,-0.02548,0.0119,-0.03372
6.0665,0.04974,-0.03784,-0.04898,-0.10025,-0.03372,-0.04532,-0.06271,-0.00061,-0.00427,-0.04211,-0.00122,-0.0679,-0.05753,-0.02579,0.01297,-0.03296
6.067,0.03632,0.00046,0.02396,-0.11948,-0.03265,-0.04028,-0.06805,-0.00046,-0.00229,-0.0444,0.00214,-0.07828,-0.05981,-0.02396,0.01297,-0.03387
6.0675,0.03113,0.0296,0.08621,-0.14603,-0.03189,-0.03891,-0.07156,0.00092,-0.00244,-0.04532,0.00641,-0.06836,-0.06241,-0.02213,0.01022,-0.03601
6.068,0.03036,0.0325,0.1297,-0.16754,-0.03342,-0.04166,-0.07813,0.00336,-0.00336,-0.04456,0.00946,-0.04684,-0.06317,-0.01999,0.00854,-0.0386
6.0685,0.02975,0.01236,0.14038,-0.19684,-0.0351,-0.04242,-0.09995,0.00336,-0.00443,-0.04318,0.01495,0.00656,-0.0589,-0.0177,0.00793,-0.04059
6.069,0.03098,-0.00778,0.1149,-0.2475,-0.03433,-0.03799,-0.14023,-0.00107,-0.00458,-0.04333,0.0264,0.07278,-0.04974,-0.01617,0.00992,-0.04135
6.0695,0.03433,-0.01465,0.06958,-0.29922,-0.0322,-0.0322,-0.18234,-0.00687,-0.00397,-0.04791,0.0415,0.07217,-0.04074,-0.01663,0.01068,-0.04044
6.07,0.04105,-0.00916,0.02975,-0.30884,-0.03159,-0.03067,-0.20828,-0.0119,-0.00458,-0.05737,0.05859,-0.00015,-0.0322,-0.01831,0.0145,-0.0383
6.0705,0.04578,-0.01144,0.00427,-0.26581,-0.03235,-0.03738,-0.21423,-0.01877,-0.0087,-0.07019,0.07217,-0.02304,-0.02701,-0.01877,0.01129,-0.0383
6.071,0.04425,-0.02716,-0.01328,-0.19791,-0.03433,-0.04669,-0.19089,-0.02716,-0.01511,-0.07996,0.0766,0.07629,-0.02563,-0.01755,0.00839,-0.03738
6.0715,0.0383,-0.04929,-0.03235,-0.12863,-0.03357,-0.05569,-0.09766,-0.02853,-0.01938,-0.08148,0.07004,0.19241,-0.02731,-0.01633,0.00763,-0.03632
6.072,0.03174,-0.06821,-0.05829,-0.04868,-0.03342,-0.06775,0.0827,-0.02228,-0.02045,-0.07538,0.06012,0.18555,-0.0325,-0.01724,0.00885,-0.03586
6.0725,0.02762,-0.08469,-0.08942,0.06271,-0.03143,-0.08743,0.24048,-0.01526,-0.01862,-0.06653,0.05524,0.05859,-0.03799,-0.01846,0.00946,-0.03723
6.073,0.02747,-0.09705,-0.11826,0.21469,-0.0296,-0.10376,0.22659,-0.01297,-0.01526,-0.05814,0.05722,-0.08545,-0.04044,-0.01877,0.00916,-0.0383
6.0735,0.03113,-0.09628,-0.13702,0.36957,-0.02808,-0.09811,0.05386,-0.01282,-0.01266,-0.05066,0.05692,-0.17441,-0.03906,-0.01846,0.00656,-0.03998
6.074,0.03098,-0.08194,-0.14816,0.4451,-0.02777,-0.07431,-0.09689,-0.01007,-0.01221,-0.04608,0.04669,-0.19333,-0.0386,-0.01923,0.00397,-0.04288
6.0745,0.02258,-0.07355,-0.14374,0.38528,-0.02777,-0.04959,-0.11368,-0.00702,-0.01663,-0.04562,0.02792,-0.15427,-0.04303,-0.02289,0.00244,-0.04654
6.075,0.00519,-0.07904,-0.12726,0.22766,-0.02777,-0.03677,-0.07431,-0.00504,-0.02457,-0.04211,0.00397,-0.08804,-0.05219,-0.02686,0.00244,-0.04852
6.0755,-0.02045,-0.08011,-0.10742,0.06927,-0.02777,-0.03586,-0.09796,-0.00687,-0.03128,-0.03326,-0.0177,-0.03937,-0.05798,-0.02945,0.00412,-0.04761
6.076,-0.05295,-0.0621,-0.0885,-0.02792,-0.02747,-0.03922,-0.16495,-0.00977,-0.03418,-0.02029,-0.03571,-0.02502,-0.05249,-0.03006,0.00687,-0.04517
6.0765,-0.08377,-0.03448,-0.08209,-0.0676,-0.02747,-0.04272,-0.16907,-0.01297,-0.03281,-0.0061,-0.05035,-0.03021,-0.03937,-0.02747,0.00793,-0.04211
6.077,-0.09842,-0.00763,-0.0885,-0.07629,-0.02762,-0.0444,-0.09979,-0.01816,-0.03021,0.00534,-0.06348,-0.03632,-0.02701,-0.02609,0.00717,-0.04105
6.0775,-0.09308,0.01984,-0.09369,-0.05936,-0.02701,-0.04532,-0.05081,-0.02426,-0.0264,0.01282,-0.07523,-0.03815,-0.02258,-0.02716,0.00778,-0.04135
6.078,-0.07858,0.04776,-0.0853,-0.01511,-0.02625,-0.04501,-0.04684,-0.02884,-0.02213,0.01923,-0.08469,-0.03403,-0.02319,-0.02762,0.00534,-0.04059
6.0785,-0.07187,0.06332,-0.06149,0.04059,-0.02411,-0.04196,0.00946,-0.0267,-0.01862,0.02472,-0.08865,-0.02411,-0.02335,-0.02426,0.00534,-0.03799
6.079,-0.08347,0.05997,-0.03204,0.07355,-0.02274,-0.03632,0.13931,-0.02304,-0.01678,0.02823,-0.0882,-0.01694,-0.02838,-0.01862,0.00626,-0.03616
6.0795,-0.10666,0.05066,-0.00809,0.06958,-0.02274,-0.03021,0.19882,-0.01831,-0.01572,0.02838,-0.08453,-0.02441,-0.04272,-0.01572,0.00732,-0.03525
6.08,-0.12726,0.04807,0.00549,0.04425,-0.02136,-0.02701,0.10117,-0.01709,-0.01312,0.02411,-0.07919,-0.0415,-0.05798,-0.01801,0.00809,-0.03632
6.0805,-0.13779,0.05188,0.00336,0.01999,-0.02151,-0.02914,-0.03143,-0.01511,-0.01007,0.01709,-0.07462,-0.0563,-0.06149,-0.02243,0.0087,-0.03693
6.081,-0.13748,0.05203,-0.03021,0.00519,-0.02396,-0.03464,-0.05905,-0.01221,-0.00793,0.01099,-0.06821,-0.05463,-0.05219,-0.02472,0.00946,-0.03662
6.0815,-0.13412,0.04242,-0.09949,-0.00336,-0.02686,-0.04013,-0.01755,-0.01022,-0.00793,0.00519,-0.05981,-0.0383,-0.04257,-0.02579,0.01007,-0.03525
6.082,-0.13443,0.02762,-0.17761,-0.00885,-0.02899,-0.04242,-0.01694,-0.01114,-0.009,0.0,-0.0528,-0.01022,-0.04181,-0.02701,0.01053,-0.03479
6.0825,-0.14481,0.01389,-0.20081,-0.01007,-0.03006,-0.04166,-0.06241,-0.01556,-0.01068,-0.00412,-0.05203,0.02365,-0.04272,-0.02869,0.01007,-0.03601
6.083,-0.16068,0.0029,-0.16312,-0.00778,-0.03036,-0.04028,-0.0856,-0.02258,-0.01282,-0.00809,-0.05325,0.04929,-0.04059,-0.02823,0.00854,-0.03693
6.0835,-0.17715,-0.01266,-0.09567,-0.00427,-0.03082,-0.04044,-0.06012,-0.03067,-0.01556,-0.01389,-0.05203,0.04669,-0.03357,-0.02716,0.00854,-0.03662
6.084,-0.19135,-0.04105,-0.03708,-0.00366,-0.03082,-0.04196,-0.01541,-0.03174,-0.02014,-0.01892,-0.04791,0.01907,-0.02518,-0.02625,0.00916,-0.0354
6.0845,-0.21057,-0.07843,0.01419,-0.00916,-0.03098,-0.04333,0.01923,-0.02777,-0.02335,-0.0209,-0.04425,-0.00626,-0.01526,-0.02655,0.00931,-0.03571
6.085,-0.2359,-0.10681,0.06302,-0.01801,-0.03189,-0.04349,0.03433,-0.02045,-0.02304,-0.02121,-0.04242,-0.00885,-0.00412,-0.02594,0.01053,-0.03616
6.0855,-0.26382,-0.11368,0.08926,-0.02289,-0.03387,-0.04623,0.02884,-0.01373,-0.01984,-0.02365,-0.03967,0.00168,0.00671,-0.02411,0.0119,-0.03723
6.086,-0.28732,-0.09949,0.08087,-0.01999,-0.03677,-0.05234,0.0148,-0.00946,-0.01617,-0.02609,-0.0325,0.00732,0.01129,-0.02136,0.01221,-0.03784
6.0865,-0.29922,-0.07339,0.05386,-0.01129,-0.03845,-0.05783,0.00778,-0.00732,-0.01358,-0.02792,-0.02441,0.00488,0.00778,-0.02014,0.0116,-0.03815
6.087,-0.29526,-0.04364,0.03662,-0.0061,-0.03708,-0.05844,0.00916,-0.00366,-0.01373,-0.02914,-0.01984,0.00229,-0.00107,-0.01938,0.00931,-0.0386
6.0875,-0.28305,-0.0238,0.03021,-0.00641,-0.0351,-0.05524,0.01053,0.0029,-0.01373,-0.02945,-0.01892,0.0,-0.01083,-0.01801,0.00702,-0.04013
6.088,-0.27756,-0.02563,0.02502,-0.01038,-0.0354,-0.05066,0.01099,0.01205,-0.01328,-0.02823,-0.0177,-0.00717,-0.01923,-0.01617,0.00641,-0.04135
6.0885,-0.28259,-0.04395,0.01892,-0.01511,-0.0354,-0.04913,0.01236,0.01846,-0.01312,-0.02747,-0.0116,-0.01144,-0.02594,-0.01617,0.0058,-0.04166
6.089,-0.2829,-0.05722,0.01465,-0.01968,-0.03586,-0.04929,0.00885,0.02029,-0.01221,-0.02563,-0.00336,0.00595,-0.0322,-0.01556,0.00702,-0.04044
6.0895,-0.26642,-0.05341,0.01358,-0.02167,-0.03601,-0.05005,-0.00824,0.01373,-0.01038,-0.02502,0.0,0.04227,-0.04318,-0.01495,0.00809,-0.03922
6.09,-0.24216,-0.03922,0.01068,-0.01953,-0.03616,-0.0499,-0.03143,-0.00305,-0.00854,-0.02289,-0.00153,0.05585,-0.05859,-0.01389,0.00885,-0.03891
6.0905,-0.21912,-0.02762,0.00092,-0.01434,-0.03799,-0.04974,-0.04288,-0.02594,-0.00778,-0.02029,-0.00412,0.01938,-0.07324,-0.01282,0.009,-0.03952
6.091,-0.19409,-0.02365,-0.01205,-0.01099,-0.03922,-0.04959,-0.03922,-0.03906,-0.00809,-0.01831,-0.00351,-0.01312,-0.07904,-0.01312,0.00885,-0.04074
6.0915,-0.1619,-0.02625,-0.03052,-0.01312,-0.04013,-0.04776,-0.03311,-0.03098,-0.00977,-0.02045,-0.00244,0.03036,-0.07538,-0.01312,0.00824,-0.04227
6.092,-0.12375,-0.03342,-0.04868,-0.01678,-0.03738,-0.04288,-0.03281,-0.00763,-0.01205,-0.02625,-0.0029,0.10986,-0.0647,-0.01343,0.00809,-0.0441
6.0925,-0.08865,-0.04608,-0.0618,-0.02121,-0.03357,-0.03952,-0.03372,0.00946,-0.01556,-0.03632,-0.00595,0.10849,-0.05447,-0.0145,0.00626,-0.04547
6.093,-0.05264,-0.06149,-0.06561,-0.02426,-0.03082,-0.03784,-0.02792,0.01175,-0.0177,-0.04669,-0.009,0.01251,-0.05081,-0.01801,0.00626,-0.04578
6.0935,-0.01572,-0.07324,-0.06851,-0.02686,-0.0322,-0.04028,-0.01923,0.00946,-0.01831,-0.05142,-0.01022,-0.06622,-0.05371,-0.02304,0.00595,-0.04486
6.094,0.0206,-0.07492,-0.08713,-0.02808,-0.03494,-0.04578,-0.01434,0.00488,-0.01801,-0.0473,-0.00809,-0.05783,-0.06088,-0.02655,0.00641,-0.04471
6.0945,0.0502,-0.06454,-0.14297,-0.02747,-0.03708,-0.05112,-0.01587,0.00504,-0.01938,-0.03906,-0.00549,-0.01617,-0.06699,-0.02747,0.00824,-0.04578
6.095,0.07263,-0.05142,-0.21942,-0.02594,-0.0383,-0.05417,-0.01755,0.00473,-0.02228,-0.0267,-0.0032,-0.01694,-0.06668,-0.02747,0.00778,-0.04776
6.0955,0.0914,-0.04654,-0.25452,-0.02289,-0.03662,-0.05295,-0.0174,0.00427,-0.02213,-0.01877,0.00107,-0.05554,-0.05951,-0.02747,0.00656,-0.04776
6.096,0.11154,-0.05844,-0.20203,-0.0148,-0.03311,-0.05081,-0.01556,0.00427,-0.01907,-0.01541,0.0087,-0.07614,-0.04822,-0.02701,0.00641,-0.04578
6.0965,0.1329,-0.09048,-0.0943,-0.0058,-0.03052,-0.04745,-0.01404,0.00519,-0.01526,-0.01648,0.01205,-0.0592,-0.03662,-0.02563,0.00626,-0.04272
6.097,0.14999,-0.13931,0.00046,-0.00015,-0.02914,-0.04486,-0.01083,0.00961,-0.01312,-0.02197,0.00961,-0.0235,-0.0238,-0.02472,0.00885,-0.04105
6.0975,0.15884,-0.17685,0.04715,0.00183,-0.02853,-0.04364,-0.0029,0.01831,-0.01236,-0.02319,0.00854,0.00763,-0.00977,-0.02228,0.01068,-0.04242
6.098,0.15884,-0.17227,0.05219,0.00458,-0.02884,-0.04562,0.0061,0.02792,-0.01312,-0.01816,0.01312,0.03067,0.00534,-0.01953,0.01114,-0.04471
6.0985,0.15961,-0.12222,0.01984,0.01007,-0.02823,-0.04807,0.01144,0.03265,-0.01465,-0.01022,0.0177,0.0441,0.01999,-0.01648,0.00931,-0.04517
6.099,0.16769,-0.05676,-0.03906,0.01541,-0.02701,-0.05112,0.00931,0.03006,-0.01678,-0.0032,0.01587,0.04257,0.0322,-0.01709,0.00763,-0.04501
6.0995,0.18387,-0.00214,-0.09567,0.01373,-0.0267,-0.05203,0.00275,0.02396,-0.0174,0.00107,0.01083,0.03281,0.03952,-0.01755,0.00854,-0.04425
6.1,0.20126,0.0322,-0.1152,0.00275,-0.0267,-0.05051,-0.00244,0.01892,-0.01801,0.0058,0.00732,0.02747,0.04013,-0.01572,0.01007,-0.04318
6.1005,0.21011,0.03799,-0.09445,-0.0145,-0.02792,-0.05081,-0.00198,0.01617,-0.01831,0.01129,0.00641,0.02914,0.03387,-0.01144,0.00931,-0.04425
6.101,0.20828,0.00748,-0.04456,-0.02701,-0.0293,-0.05554,0.00092,0.01465,-0.01984,0.0148,0.00488,0.03006,0.02304,-0.00885,0.00717,-0.04578
6.1015,0.20111,-0.05081,0.02518,-0.0322,-0.03021,-0.06149,0.00259,0.01251,-0.02243,0.01587,0.00046,0.02716,0.01144,-0.01114,0.00504,-0.04715
6.102,0.20065,-0.10773,0.09995,-0.03296,-0.03113,-0.0647,-0.00046,0.00946,-0.02533,0.01572,-0.00488,0.02106,-0.00092,-0.01587,0.00427,-0.04807
6.1025,0.20859,-0.14008,0.15335,-0.03326,-0.03036,-0.06332,-0.00534,0.00381,-0.02762,0.01343,-0.01068,0.01465,-0.01022,-0.01984,0.00473,-0.0473
6.103,0.22141,-0.15137,0.16418,-0.03357,-0.02762,-0.05905,-0.0061,-0.00244,-0.02838,0.009,-0.01801,0.00793,-0.01801,-0.02121,0.00656,-0.04684
6.1035,0.23544,-0.14923,0.13977,-0.0354,-0.02518,-0.05264,-0.00305,-0.00839,-0.02838,0.00137,-0.02487,0.00259,-0.02213,-0.02167,0.00793,-0.04532
6.104,0.25238,-0.13123,0.1062,-0.0383,-0.02335,-0.04395,-0.00015,-0.01266,-0.02991,-0.00732,-0.03204,-0.00015,-0.02335,-0.02106,0.00809,-0.04654
6.1045,0.26779,-0.09232,0.07614,-0.04196,-0.02213,-0.03693,-0.00214,-0.01022,-0.03387,-0.01511,-0.03967,0.0,-0.02594,-0.02029,0.00702,-0.04883
6.105,0.2771,-0.04471,0.04517,-0.04456,-0.02243,-0.03067,-0.01434,-0.00381,-0.03784,-0.02106,-0.04913,0.00214,-0.02975,-0.0209,0.00671,-0.05051
6.1055,0.27771,-0.00732,0.01617,-0.04547,-0.02457,-0.02274,-0.03525,0.00198,-0.03845,-0.02518,-0.05905,0.00443,-0.03174,-0.02136,0.00748,-0.04913
6.106,0.27054,0.00763,-0.00504,-0.0441,-0.02625,-0.01297,-0.05386,0.00381,-0.03494,-0.02777,-0.06897,0.00626,-0.03326,-0.01953,0.00809,-0.04501
6.1065,0.25726,-0.00763,-0.01373,-0.03571,-0.02792,-0.00534,-0.06317,0.00458,-0.03021,-0.0296,-0.07919,0.00748,-0.03433,-0.01678,0.00916,-0.04135
6.107,0.23544,-0.04913,-0.01724,-0.02151,-0.02899,-0.00198,-0.0592,0.00641,-0.02884,-0.03036,-0.0853,0.00763,-0.03403,-0.01266,0.01175,-0.0383
6.1075,0.20996,-0.09048,-0.0264,-0.01038,-0.02991,-0.00473,-0.03235,0.00473,-0.0296,-0.03128,-0.08469,0.00671,-0.03113,-0.00946,0.0145,-0.03693
6.108,0.18829,-0.10605,-0.04257,-0.01175,-0.02991,-0.01572,0.03479,-0.00183,-0.0293,-0.02869,-0.07874,0.00473,-0.02777,-0.0087,0.0148,-0.03738
6.1085,0.17288,-0.10254,-0.05951,-0.02396,-0.0322,-0.03769,0.12039,-0.01144,-0.02716,-0.02563,-0.07629,0.00244,-0.02609,-0.0116,0.01022,-0.0386
6.109,0.16174,-0.0975,-0.07355,-0.03693,-0.03433,-0.07172,0.14847,-0.0238,-0.02579,-0.02197,-0.07828,0.00031,-0.02243,-0.01404,0.00412,-0.03983
6.1095,0.14938,-0.08575,-0.10117,-0.04425,-0.03494,-0.1033,0.07202,-0.03525,-0.0235,-0.01923,-0.07675,0.00031,-0.01862,-0.01465,-0.00046,-0.04089
6.11,0.13489,-0.05096,-0.1535,-0.04654,-0.03494,-0.11337,-0.03784,-0.04059,-0.02029,-0.01755,-0.06516,0.00275,-0.01419,-0.01419,-0.00153,-0.04181
6.1105,0.12344,0.00092,-0.19989,-0.04471,-0.03357,-0.1004,-0.06805,-0.03326,-0.01434,-0.01694,-0.04654,0.00671,-0.01175,-0.01572,0.00046,-0.04288
6.111,0.11673,0.04944,-0.19287,-0.04074,-0.03387,-0.07965,-0.02228,-0.02029,-0.00824,-0.01556,-0.0293,0.00885,-0.01129,-0.01724,0.00397,-0.0441
6.1115,0.11246,0.08865,-0.12573,-0.03525,-0.03387,-0.06653,-0.00656,-0.01572,-0.00336,-0.01328,-0.0177,0.01022,-0.01038,-0.01801,0.00504,-0.04379
6.112,0.10666,0.12314,-0.04044,-0.03113,-0.03372,-0.06378,-0.07202,-0.02197,-0.00061,-0.01144,-0.00977,0.01114,-0.00961,-0.01755,0.00427,-0.04257
6.1125,0.10223,0.14969,0.02777,-0.02975,-0.03387,-0.06561,-0.16602,-0.02731,0.00092,-0.00946,-0.00351,0.01099,-0.01526,-0.01663,0.00336,-0.04379
6.113,0.103,0.15259,0.07294,-0.02731,-0.03372,-0.06805,-0.22491,-0.0206,0.00183,-0.00702,0.00046,0.00778,-0.02914,-0.01511,0.00183,-0.04623
6.1135,0.10925,0.12451,0.09415,-0.02457,-0.03403,-0.06973,-0.22339,-0.00229,0.00351,-0.00275,0.00381,0.00397,-0.04379,-0.01282,0.00229,-0.04776
6.114,0.11688,0.08301,0.0946,-0.02304,-0.03403,-0.06897,-0.16403,0.01617,0.00488,0.00015,0.0087,-0.00046,-0.05386,-0.0119,0.00381,-0.04639
6.1145,0.12436,0.05234,0.0795,-0.02365,-0.03433,-0.06531,-0.06744,0.02014,0.00565,0.0,0.01465,-0.00259,-0.05829,-0.01373,0.00717,-0.04272
6.115,0.13031,0.03693,0.04608,-0.02365,-0.03403,-0.05524,0.0386,0.00671,0.00473,-0.00336,0.01816,-0.00244,-0.05829,-0.01404,0.00946,-0.0412
6.1155,0.13229,0.02121,-0.02472,-0.02045,-0.03555,-0.03769,0.12619,-0.01007,0.00366,-0.00687,0.01999,-0.00046,-0.05371,-0.01495,0.01358,-0.04257
6.116,0.12634,-0.00488,-0.12482,-0.01343,-0.03632,-0.02029,0.16953,-0.01434,0.00412,-0.00809,0.0206,0.00076,-0.05127,-0.01617,0.01541,-0.04532
6.1165,0.11444,-0.02853,-0.20523,-0.00366,-0.03555,-0.01556,0.17212,-0.00946,0.00443,-0.01083,0.02274,0.00046,-0.05295,-0.01602,0.01465,-0.04654
6.117,0.10712,-0.03357,-0.22949,0.00565,-0.0325,-0.02258,0.18311,-0.01114,0.00183,-0.01434,0.02853,-0.00076,-0.05493,-0.01541,0.01358,-0.04562
6.1175,0.11154,-0.02319,-0.2034,0.01129,-0.02945,-0.03082,0.23071,-0.0238,-0.00153,-0.01755,0.03723,-0.00076,-0.05127,-0.01465,0.01312,-0.04349
6.118,0.12527,-0.01587,-0.15625,0.01175,-0.02731,-0.03372,0.25177,-0.0383,-0.0032,-0.01862,0.0441,-0.00137,-0.04379,-0.01617,0.01297,-0.04089
6.1185,0.13718,-0.02304,-0.10559,0.00839,-0.02716,-0.03448,0.17303,-0.03922,-0.00259,-0.01846,0.04852,-0.00107,-0.04059,-0.01953,0.01297,-0.03799
6.119,0.13306,-0.03708,-0.07324,0.00473,-0.02853,-0.03922,0.03586,-0.02625,-0.00137,-0.01724,0.05341,-0.00122,-0.04395,-0.02228,0.01144,-0.03555
6.1195,0.11368,-0.04807,-0.08392,0.00366,-0.02792,-0.04379,-0.04211,-0.00946,0.00061,-0.01678,0.0621,0.0,-0.0499,-0.02335,0.00961,-0.03555
6.12,0.08499,-0.05127,-0.11292,0.00626,-0.02838,-0.04547,-0.02014,0.00259,0.00381,-0.01862,0.07355,0.00015,-0.05249,-0.02228,0.00748,-0.03708
6.1205,0.05737,-0.05096,-0.10178,0.01266,-0.02701,-0.04318,0.03815,0.01038,0.00458,-0.02579,0.08423,-0.00031,-0.05371,-0.02182,0.00473,-0.03891
6.121,0.04288,-0.05295,-0.03113,0.02075,-0.02579,-0.04211,0.06332,0.01129,0.00076,-0.03586,0.0856,-0.00076,-0.05447,-0.02121,0.00351,-0.03967
6.1215,0.04303,-0.05646,0.05127,0.02441,-0.02762,-0.04486,0.04288,0.01007,-0.00534,-0.04349,0.07126,-0.00259,-0.05707,-0.02197,0.00671,-0.04013
6.122,0.05295,-0.06317,0.0943,0.01801,-0.03174,-0.05035,0.00153,0.00565,-0.00992,-0.04761,0.04654,-0.00458,-0.05737,-0.02335,0.01099,-0.04364
6.1225,0.06454,-0.07065,0.10361,0.00549,-0.03448,-0.05341,-0.03403,0.00137,-0.01129,-0.04913,0.02518,-0.00824,-0.0531,-0.02441,0.01373,-0.05234
6.123,0.07339,-0.07309,0.10178,-0.00092,-0.03525,-0.05264,-0.0499,-0.00031,-0.01251,-0.04868,0.01129,-0.00916,-0.04623,-0.02396,0.01724,-0.0647
6.1235,0.07507,-0.0705,0.09247,0.00427,-0.03387,-0.04807,-0.04715,0.00046,-0.01572,-0.04501,-0.00488,-0.00854,-0.04044,-0.02151,0.02045,-0.07202
6.124,0.06912,-0.06851,0.06775,0.01434,-0.03387,-0.04639,-0.0412,0.00137,-0.01953,-0.0386,-0.02899,-0.00763,-0.03571,-0.01923,0.02701,-0.06714
6.1245,0.06104,-0.06897,0.03128,0.0209,-0.0354,-0.04684,-0.04196,0.00076,-0.02243,-0.0296,-0.05325,-0.0061,-0.02991,-0.0174,0.03296,-0.05341
6.125,0.056,-0.065,0.0029,0.02182,-0.03632,-0.04883,-0.04578,0.00092,-0.02396,-0.02289,-0.06699,-0.00488,-0.02441,-0.01694,0.0325,-0.03723
6.1255,0.05814,-0.05386,-0.01801,0.01938,-0.03448,-0.05127,-0.04501,0.00397,-0.02426,-0.02213,-0.06805,-0.0058,-0.0177,-0.01495,0.02533,-0.02533
6.126,0.06256,-0.04364,-0.04105,0.01465,-0.03464,-0.05035,-0.04303,0.01007,-0.0209,-0.02823,-0.06088,-0.01007,-0.01343,-0.01236,0.01923,-0.01999
6.1265,0.06317,-0.04562,-0.07782,0.00702,-0.03479,-0.04913,-0.0444,0.01724,-0.01495,-0.03998,-0.056,-0.01389,-0.01328,-0.0116,0.0209,-0.02228
6.127,0.0618,-0.06577,-0.13519,-0.01007,-0.03479,-0.04395,-0.04837,0.02335,-0.00763,-0.05432,-0.05981,-0.01236,-0.01846,-0.01434,0.02563,-0.03632
6.1275,0.05859,-0.09766,-0.20035,-0.03586,-0.03387,-0.03784,-0.05066,0.02563,-0.00412,-0.07202,-0.07141,-0.00488,-0.02808,-0.01938,0.02472,-0.06027
6.128,0.05035,-0.12634,-0.24048,-0.05798,-0.03433,-0.03372,-0.04715,0.02563,-0.00809,-0.09018,-0.08026,0.00397,-0.03952,-0.02213,0.02289,-0.08057
6.1285,0.03586,-0.14053,-0.22858,-0.07095,-0.03494,-0.03357,-0.04135,0.02686,-0.01801,-0.10559,-0.0795,0.00977,-0.04807,-0.02258,0.02075,-0.08255
6.129,0.02106,-0.14038,-0.17181,-0.08499,-0.03784,-0.03998,-0.03815,0.02609,-0.02609,-0.10727,-0.07294,0.00931,-0.04974,-0.01999,0.02182,-0.07309
6.1295,0.01495,-0.1355,-0.09918,-0.10315,-0.03922,-0.04883,-0.03723,0.02289,-0.03113,-0.08957,-0.06775,0.00351,-0.04471,-0.01663,0.02533,-0.06882
6.13,0.01587,-0.12695,-0.0264,-0.1152,-0.03876,-0.05386,-0.03998,0.01663,-0.03326,-0.05341,-0.06821,-0.00473,-0.03799,-0.01465,0.02823,-0.06592
6.1305,0.00885,-0.10941,0.04272,-0.11887,-0.03662,-0.05371,-0.04379,0.01083,-0.03799,-0.00778,-0.07385,-0.01068,-0.03403,-0.01556,0.0293,-0.03479
6.131,-0.01556,-0.08652,0.10223,-0.1123,-0.0351,-0.04791,-0.047,0.0061,-0.04456,0.03677,-0.07706,-0.01389,-0.0325,-0.01678,0.03067,0.03555
6.1315,-0.04684,-0.07919,0.14008,-0.07095,-0.03326,-0.04074,-0.04944,-0.00076,-0.0499,0.0705,-0.07721,-0.01541,-0.03342,-0.01831,0.02731,0.10071
6.132,-0.07294,-0.10956,0.14496,0.03433,-0.03159,-0.03616,-0.05249,-0.01129,-0.05295,0.08575,-0.07782,-0.01175,-0.03357,-0.01938,0.02182,0.10574
6.1325,-0.08636,-0.16052,0.12054,0.16922,-0.03067,-0.03677,-0.05371,-0.02319,-0.05341,0.08347,-0.08072,-0.00504,-0.03296,-0.02167,0.01785,0.05402
6.133,-0.08331,-0.18677,0.08621,0.24063,-0.03113,-0.03922,-0.05249,-0.03113,-0.05051,0.06912,-0.08011,0.00061,-0.02899,-0.02304,0.00992,-0.00656
6.1335,-0.06424,-0.16479,0.06195,0.18951,-0.02884,-0.04257,-0.04807,-0.03204,-0.04501,0.05325,-0.06943,0.00336,-0.02045,-0.02228,-0.00732,-0.04669
6.134,-0.03922,-0.11765,0.04593,0.06165,-0.02777,-0.04471,-0.04379,-0.0296,-0.04227,0.0383,-0.0502,0.00443,-0.01511,-0.01968,-0.03281,-0.06973
6.1345,-0.02487,-0.08102,0.02686,-0.04089,-0.02808,-0.04623,-0.0415,-0.02731,-0.04135,0.02472,-0.03265,0.00549,-0.01236,-0.01816,-0.05753,-0.08804
6.135,-0.02243,-0.06271,-0.00351,-0.06683,-0.03036,-0.04837,-0.04349,-0.0264,-0.04242,0.00961,-0.02548,0.00763,-0.01297,-0.01785,-0.07278,-0.09583
6.1355,-0.02182,-0.04761,-0.04196,-0.03326,-0.03281,-0.04959,-0.04623,-0.02686,-0.04059,-0.00565,-0.02472,0.01083,-0.01587,-0.01709,-0.07629,-0.08774
6.136,-0.0148,-0.02502,-0.08575,0.02213,-0.03571,-0.0502,-0.04608,-0.02533,-0.03708,-0.01923,-0.02228,0.01358,-0.01816,-0.01389,-0.06866,-0.06897
6.1365,-0.00626,-0.00107,-0.12451,0.07217,-0.03632,-0.05157,-0.04486,-0.01999,-0.03235,-0.02853,-0.01572,0.01389,-0.01938,-0.01251,-0.05554,-0.05005
6.137,-0.00717,0.01556,-0.14572,0.09689,-0.03555,-0.05447,-0.0412,-0.01221,-0.02686,-0.03296,-0.00626,0.0119,-0.01953,-0.01373,-0.04013,-0.0386
6.1375,-0.01801,0.0293,-0.13779,0.0885,-0.03738,-0.05859,-0.03937,-0.00717,-0.02228,-0.03357,0.00366,0.00732,-0.0209,-0.01526,-0.02747,-0.03387
6.138,-0.02426,0.04425,-0.11032,0.05951,-0.03815,-0.06012,-0.03876,-0.00488,-0.01953,-0.02792,0.01129,0.00122,-0.02014,-0.01495,-0.01846,-0.03342
6.1385,-0.01724,0.05554,-0.07965,0.0325,-0.03845,-0.05798,-0.03723,-0.00259,-0.02014,-0.02121,0.01617,-0.00366,-0.02228,-0.01373,-0.01358,-0.03342
6.139,-0.00107,0.05722,-0.04868,0.01572,-0.03799,-0.05325,-0.03281,0.00183,-0.02029,-0.01633,0.01709,-0.00641,-0.02289,-0.01465,-0.00824,-0.03616
6.1395,0.01694,0.05615,-0.0145,-0.00153,-0.03662,-0.04807,-0.02808,0.0058,-0.01678,-0.01083,0.01633,-0.00656,-0.02319,-0.01602,-0.00168,-0.04196
6.14,0.03693,0.05875,0.01892,-0.03143,-0.03464,-0.04532,-0.02594,0.0061,-0.01038,-0.00458,0.0148,-0.00504,-0.02625,-0.01678,0.00427,-0.04959
6.1405,0.05768,0.05295,0.03265,-0.07462,-0.03342,-0.04395,-0.02762,0.00214,-0.00351,0.0,0.01068,-0.0029,-0.02777,-0.01663,0.01007,-0.05981
6.141,0.07339,0.03296,0.00565,-0.1149,-0.03326,-0.04349,-0.02869,-0.00168,0.00076,0.00046,0.00565,0.0,-0.0322,-0.01572,0.01572,-0.07187
6.1415,0.07843,0.00778,-0.04974,-0.13474,-0.03342,-0.04028,-0.02853,-0.00519,0.00336,-0.0029,-0.00015,0.00153,-0.03204,-0.01511,0.02182,-0.08133
6.142,0.08087,-0.00443,-0.08926,-0.12863,-0.0325,-0.03632,-0.02884,-0.00885,0.00458,-0.00687,-0.00549,0.00397,-0.03326,-0.01633,0.02548,-0.08514
6.1425,0.09232,-0.00504,-0.07721,-0.11078,-0.03098,-0.03433,-0.02869,-0.00977,0.0058,-0.00931,-0.00961,0.00381,-0.03403,-0.0177,0.02609,-0.07858
6.143,0.11688,-0.01572,-0.03189,-0.09308,-0.03235,-0.03525,-0.02716,-0.00641,0.00641,-0.01205,-0.01236,0.00259,-0.03571,-0.01816,0.02609,-0.06622
6.1435,0.14481,-0.06271,0.00626,-0.07355,-0.03479,-0.03723,-0.02594,-0.00259,0.00641,-0.01556,-0.01328,0.00214,-0.04044,-0.0177,0.02625,-0.05539
6.144,0.16876,-0.14572,0.02762,-0.04242,-0.03632,-0.04013,-0.02411,-0.00198,0.00565,-0.0209,-0.01373,0.0029,-0.04013,-0.01755,0.02594,-0.04608
6.1445,0.18555,-0.22736,0.04684,-0.0032,-0.03525,-0.04105,-0.01999,-0.00244,0.00458,-0.02441,-0.01526,0.00275,-0.04059,-0.0177,0.02365,-0.03815
6.145,0.20111,-0.25696,0.07538,0.03769,-0.03235,-0.03876,-0.01526,-0.00183,0.00244,-0.02487,-0.01663,-0.00229,-0.04059,-0.01892,0.02182,-0.03082
6.1455,0.22095,-0.21927,0.09872,0.08087,-0.02991,-0.03799,-0.01221,0.00198,0.0,-0.0238,-0.01663,-0.00671,-0.04288,-0.01999,0.02121,-0.02518
6.146,0.24109,-0.14175,0.09628,0.12573,-0.02991,-0.04028,-0.01144,0.00488,-0.0032,-0.02365,-0.01556,-0.00702,-0.04211,-0.02106,0.02182,-0.02609
6.1465,0.25177,-0.05966,0.06577,0.14496,-0.03021,-0.04562,-0.01144,0.00748,-0.00366,-0.02563,-0.01465,-0.00275,-0.04196,-0.01999,0.01984,-0.03464
6.147,0.24704,0.0116,0.02182,0.11078,-0.03143,-0.0528,-0.01068,0.00839,-0.00168,-0.02838,-0.009,0.00229,-0.04318,-0.01846,0.01373,-0.04837
6.1475,0.2356,0.0737,-0.01633,0.04059,-0.03143,-0.06287,-0.01144,0.00961,0.00076,-0.02899,0.00626,0.00488,-0.0441,-0.01633,0.01038,-0.05981
6.148,0.23407,0.12207,-0.03983,-0.01511,-0.02975,-0.07721,-0.01373,0.00961,0.00137,-0.02777,0.0267,0.00549,-0.047,-0.01389,0.01175,-0.06454
6.1485,0.24521,0.15091,-0.05295,-0.03677,-0.03006,-0.0914,-0.01587,0.0087,0.00168,-0.02472,0.04074,0.00381,-0.0499,-0.01312,0.01617,-0.06836
6.149,0.26108,0.15884,-0.06271,-0.04837,-0.03098,-0.09674,-0.01526,0.0061,0.00198,-0.02289,0.04028,-0.00061,-0.04944,-0.01511,0.02075,-0.07874
6.1495,0.27176,0.1532,-0.07462,-0.08423,-0.0322,-0.08972,-0.01312,0.00534,0.00259,-0.02426,0.02731,-0.00351,-0.04868,-0.01755,0.02686,-0.09491
6.15,0.27649,0.13657,-0.09201,-0.16235,-0.03296,-0.07431,-0.01266,0.0058,0.00183,-0.02869,0.0119,-0.00153,-0.04776,-0.01984,0.03387,-0.1088
6.1505,0.28305,0.10254,-0.10727,-0.26611,-0.03296,-0.06073,-0.01495,0.00809,0.00046,-0.03677,0.0,0.00031,-0.04623,-0.02045,0.0383,-0.12253
6.151,0.29205,0.05203,-0.10788,-0.3392,-0.03448,-0.05325,-0.01648,0.009,-0.00076,-0.04425,-0.00839,-0.0032,-0.04501,-0.02045,0.03265,-0.14771
6.1515,0.29892,0.00153,-0.10086,-0.33142,-0.03387,-0.05081,-0.01617,0.00824,-0.00168,-0.05096,-0.01541,-0.01144,-0.04517,-0.02106,0.02426,-0.19058
6.152,0.298,-0.02182,-0.12497,-0.25284,-0.03143,-0.04852,-0.0145,0.00504,-0.00366,-0.05447,-0.0209,-0.01968,-0.04486,-0.02243,0.01663,-0.24063
6.1525,0.28595,-0.01556,-0.21683,-0.15518,-0.0293,-0.04135,-0.01404,0.00168,-0.00763,-0.05493,-0.02487,-0.02228,-0.04303,-0.0238,0.0148,-0.24918
6.153,0.26566,-0.00031,-0.34775,-0.07462,-0.02838,-0.03174,-0.01434,0.0029,-0.01175,-0.05371,-0.02579,-0.0177,-0.0383,-0.02472,0.01709,-0.15274
6.1535,0.24353,0.00488,-0.42328,-0.0061,-0.02899,-0.02518,-0.0145,0.00534,-0.01297,-0.05051,-0.0264,-0.00763,-0.0325,-0.0238,0.02121,0.04288
6.154,0.22766,0.00244,-0.37323,0.06287,-0.02716,-0.02213,-0.01373,0.00671,-0.0145,-0.04791,-0.0267,0.00504,-0.02899,-0.02518,0.02563,0.22491
6.1545,0.22369,-0.00397,-0.22125,0.12238,-0.02411,-0.01801,-0.01099,0.00427,-0.0177,-0.04318,-0.02747,0.01617,-0.02869,-0.02579,0.0267,0.28885
6.155,0.23117,-0.01816,-0.05829,0.14633,-0.02167,-0.00916,-0.00641,0.0032,-0.02151,-0.04089,-0.02884,0.02075,-0.03189,-0.0264,0.0206,0.2356
6.1555,0.24155,-0.03876,0.05875,0.12939,-0.02167,0.00031,-0.0032,0.00519,-0.02289,-0.03677,-0.02823,0.01541,-0.03433,-0.02625,0.00854,0.13672
6.156,0.24506,-0.05737,0.13031,0.09811,-0.02365,0.00427,-0.00504,0.00824,-0.02182,-0.0296,-0.0267,0.00504,-0.03662,-0.02533,-0.00214,0.04684
6.1565,0.23605,-0.06866,0.17822,0.08408,-0.02426,0.00015,-0.0087,0.00763,-0.02045,-0.01999,-0.02518,-0.00061,-0.03952,-0.02548,-0.0087,-0.01572
6.157,0.21286,-0.07324,0.20615,0.09125,-0.02487,-0.00778,-0.01114,0.00549,-0.02106,-0.00885,-0.02289,0.00061,-0.04333,-0.02502,-0.01343,-0.05112
6.1575,0.18768,-0.07736,0.20126,0.09674,-0.02625,-0.01785,-0.01007,0.00534,-0.02167,0.00183,-0.02014,0.00763,-0.04471,-0.02472,-0.01801,-0.06378
6.158,0.17197,-0.08057,0.16464,0.08499,-0.02747,-0.0296,-0.00702,0.00717,-0.02304,0.01099,-0.01633,0.00793,-0.04318,-0.02441,-0.01846,-0.06561
6.1585,0.17242,-0.07858,0.11856,0.05951,-0.02716,-0.04517,-0.00488,0.00931,-0.02594,0.01648,-0.01541,0.00092,-0.04227,-0.02533,-0.01282,-0.06302
6.159,0.18097,-0.07156,0.0827,0.03815,-0.02609,-0.06821,-0.00519,0.01175,-0.02991,0.02075,-0.01846,-0.00626,-0.04349,-0.0264,-0.00504,-0.0499
6.1595,0.18555,-0.06454,0.0592,0.02838,-0.02502,-0.0972,-0.0058,0.01328,-0.03235,0.0209,-0.02457,-0.00687,-0.0415,-0.02533,0.00107,-0.02548
6.16,0.18784,-0.06668,0.03983,0.02563,-0.02518,-0.12451,-0.0061,0.01343,-0.03174,0.01724,-0.03006,0.00031,-0.03616,-0.02258,0.00305,-0.00153
6.1605,0.19806,-0.08453,0.0058,0.02258,-0.02579,-0.14252,-0.00809,0.01343,-0.02899,0.01038,-0.03113,0.00717,-0.03052,-0.02045,0.00015,0.01099
6.161,0.22354,-0.11047,-0.07095,0.0174,-0.02579,-0.1442,-0.01022,0.01465,-0.02716,0.0029,-0.02808,0.01114,-0.02762,-0.01923,-0.00519,0.01328
6.1615,0.2475,-0.12573,-0.18723,0.01328,-0.02625,-0.1297,-0.01068,0.01694,-0.02701,-0.00153,-0.02396,0.01251,-0.02579,-0.0174,-0.01068,0.00839
6.162,0.25299,-0.1181,-0.28351,0.01358,-0.02899,-0.10468,-0.01007,0.01923,-0.02518,-0.00473,-0.02014,0.01282,-0.02396,-0.01495,-0.01404,-0.01083
6.1625,0.2417,-0.0946,-0.30075,0.01511,-0.03098,-0.07797,-0.01266,0.01999,-0.02182,-0.00778,-0.0174,0.00885,-0.02213,-0.01236,-0.0145,-0.04852
6.163,0.22369,-0.07385,-0.26215,0.01434,-0.03082,-0.05981,-0.02014,0.01801,-0.01877,-0.01144,-0.01495,0.00259,-0.02228,-0.01099,-0.0148,-0.08789
6.1635,0.20416,-0.07935,-0.21744,0.00595,-0.0293,-0.05341,-0.0267,0.01389,-0.0177,-0.01282,-0.0116,0.00107,-0.02167,-0.0119,-0.01648,-0.10559
6.164,0.18524,-0.12131,-0.15015,-0.00595,-0.02914,-0.05386,-0.02502,0.00946,-0.0174,-0.01465,-0.009,0.00626,-0.02029,-0.01328,-0.01663,-0.09766
6.1645,0.16571,-0.18082,-0.02472,-0.01617,-0.03128,-0.05569,-0.01556,0.00763,-0.01648,-0.0177,-0.00702,0.01007,-0.01984,-0.01526,-0.01465,-0.08148
6.165,0.1442,-0.2179,0.12146,-0.01953,-0.03311,-0.056,0.00015,0.00549,-0.01511,-0.02029,-0.0058,0.009,-0.0206,-0.01556,-0.00809,-0.07248
6.1655,0.1152,-0.21606,0.21072,-0.01984,-0.03265,-0.056,0.01999,0.00412,-0.01404,-0.02213,-0.00198,0.00504,-0.02472,-0.01633,0.00061,-0.07477
6.166,0.07935,-0.18997,0.22095,-0.0235,-0.03113,-0.0531,0.0354,0.00244,-0.01465,-0.02014,-0.00015,0.00183,-0.02716,-0.01785,0.00946,-0.0798
6.1665,0.047,-0.14938,0.19928,-0.03265,-0.02914,-0.0499,0.03494,-0.00031,-0.0148,-0.01755,-0.00336,-0.00153,-0.02655,-0.01999,0.01312,-0.08148
6.167,0.02319,-0.09033,0.18311,-0.03967,-0.02914,-0.04623,0.01572,-0.00259,-0.01511,-0.01587,-0.01053,-0.00504,-0.02594,-0.01907,0.01175,-0.07751
6.1675,0.0029,-0.01831,0.16357,-0.03906,-0.03265,-0.04303,-0.0145,-0.00397,-0.01648,-0.01343,-0.01709,-0.00671,-0.02625,-0.01633,0.00671,-0.06836
6.168,-0.02243,0.04868,0.12344,-0.03036,-0.04059,-0.04059,-0.04532,-0.00427,-0.01968,-0.01144,-0.01862,-0.0032,-0.02823,-0.01434,0.00275,-0.05569
6.1685,-0.05051,0.09766,0.07187,-0.01953,-0.04486,-0.0386,-0.06104,-0.00412,-0.02319,-0.01083,-0.01663,0.00092,-0.02975,-0.01541,0.0061,-0.04196
6.169,-0.0737,0.12726,0.02899,-0.01175,-0.04105,-0.03647,-0.04898,-0.00275,-0.02319,-0.01144,-0.01251,-0.00031,-0.02777,-0.01678,0.01404,-0.03113
6.1695,-0.09293,0.13992,-0.00122,-0.00946,-0.02655,-0.03387,-0.01816,-0.00107,-0.01999,-0.01205,-0.00748,-0.00748,-0.02396,-0.01755,0.02121,-0.0267
6.17,-0.11276,0.13031,-0.02686,-0.01175,-0.00748,-0.03098,0.00381,0.00076,-0.01694,-0.01175,-0.00275,-0.01328,-0.02213,-0.01846,0.02533,-0.02655
6.1705,-0.14389,0.1004,-0.04333,-0.01587,0.00687,-0.02792,0.0029,0.00015,-0.01556,-0.0148,0.00137,-0.01282,-0.02533,-0.02045,0.02594,-0.02487
6.171,-0.1886,0.06256,-0.05035,-0.02121,0.0116,-0.02594,-0.00793,-0.00519,-0.01602,-0.01892,0.00488,-0.00641,-0.03006,-0.02167,0.02655,-0.02029
6.1715,-0.24384,0.03006,-0.05814,-0.02869,0.00748,-0.02579,-0.01068,-0.0145,-0.01572,-0.02426,0.00961,0.00168,-0.0325,-0.01999,0.02579,-0.01801
6.172,-0.3064,0.01038,-0.07782,-0.03693,-0.00412,-0.02838,-0.00717,-0.02213,-0.01465,-0.02731,0.01251,0.00717,-0.03159,-0.01801,0.02579,-0.02335
6.1725,-0.35568,-0.00458,-0.09979,-0.04349,-0.02045,-0.03204,-0.00412,-0.02441,-0.01312,-0.02792,0.01343,0.00717,-0.03174,-0.01709,0.02701,-0.0386
6.173,-0.35095,-0.02106,-0.1091,-0.04852,-0.03799,-0.03601,-0.00351,-0.02075,-0.01282,-0.02792,0.01129,0.00351,-0.03357,-0.01678,0.03021,-0.06912
6.1735,-0.27359,-0.03616,-0.10666,-0.04929,-0.05096,-0.03677,-0.00488,-0.01526,-0.01373,-0.02914,0.00824,-0.00198,-0.03677,-0.0174,0.03479,-0.1149
6.174,-0.16281,-0.04852,-0.10376,-0.04486,-0.05737,-0.03815,-0.00809,-0.00931,-0.01465,-0.03006,0.00366,-0.00549,-0.04181,-0.0206,0.0383,-0.16052
6.1745,-0.08133,-0.06073,-0.10559,-0.03571,-0.06363,-0.0351,-0.01511,-0.0029,-0.01495,-0.03143,0.00031,-0.00732,-0.04959,-0.02472,0.0386,-0.17944
6.175,-0.0473,-0.07584,-0.1059,-0.02563,-0.07462,-0.03143,-0.02075,0.00092,-0.01541,-0.03235,-0.00168,-0.00595,-0.05676,-0.03021,0.03815,-0.14679
6.1755,-0.0386,-0.09003,-0.10559,-0.01999,-0.08942,-0.02869,-0.01923,0.00137,-0.01755,-0.03357,-0.00198,-0.00122,-0.0589,-0.0354,0.03784,-0.06027
6.176,-0.0351,-0.09827,-0.11078,-0.01831,-0.0975,-0.02899,-0.01312,-0.00214,-0.01862,-0.03433,-0.0032,0.00427,-0.05646,-0.0386,0.0383,0.03891
6.1765,-0.03632,-0.09857,-0.12421,-0.01709,-0.09277,-0.03143,-0.01129,-0.00473,-0.02014,-0.0351,-0.00458,0.00534,-0.04974,-0.0383,0.03708,0.08728
6.177,-0.04471,-0.0914,-0.13641,-0.01328,-0.07599,-0.03403,-0.01816,-0.00412,-0.02213,-0.03448,-0.00656,0.00488,-0.04135,-0.03586,0.02823,0.05157
6.1775,-0.05173,-0.08118,-0.14038,-0.00946,-0.05676,-0.03464,-0.02716,-0.0032,-0.02396,-0.03464,-0.00748,0.00473,-0.03159,-0.03448,0.01205,-0.02945
6.178,-0.05386,-0.08133,-0.12924,-0.00397,-0.04517,-0.0354,-0.03265,-0.00519,-0.02258,-0.03342,-0.00854,0.00519,-0.02182,-0.0322,-0.00397,-0.08667
6.1785,-0.05905,-0.09445,-0.10803,0.00183,-0.04196,-0.03815,-0.03357,-0.00885,-0.01862,-0.03174,-0.00961,0.00687,-0.01205,-0.02762,-0.01373,-0.09567
6.179,-0.07172,-0.10727,-0.08148,0.00732,-0.04074,-0.04318,-0.03326,-0.01129,-0.01541,-0.02899,-0.00992,0.00977,-0.00381,-0.01968,-0.01602,-0.08835
6.1795,-0.08591,-0.1004,-0.06317,0.01129,-0.03952,-0.04791,-0.03479,-0.01251,-0.01389,-0.02686,-0.00946,0.01495,0.00427,-0.01282,-0.01892,-0.10208
6.18,-0.0943,-0.07599,-0.07126,0.01343,-0.03571,-0.05066,-0.03647,-0.01495,-0.01373,-0.02655,-0.00992,0.01892,0.01068,-0.01053,-0.02213,-0.14236
6.1805,-0.10651,-0.05447,-0.12299,0.01282,-0.0296,-0.05646,-0.03937,-0.01877,-0.01205,-0.0267,-0.01114,0.01892,0.01068,-0.01129,-0.03235,-0.18234
6.181,-0.13107,-0.04807,-0.19363,0.00595,-0.01968,-0.06348,-0.03998,-0.0206,-0.00793,-0.02548,-0.01343,0.01617,0.00229,-0.01221,-0.03662,-0.17029
6.1815,-0.16586,-0.04807,-0.22293,-0.00488,-0.00931,-0.06592,-0.02914,-0.01968,-0.00198,-0.02258,-0.01526,0.0116,-0.01099,-0.01129,-0.03738,-0.07309
6.182,-0.20111,-0.04562,-0.18036,-0.01373,-0.00381,-0.05951,0.00076,-0.01984,0.00412,-0.01984,-0.01678,0.00717,-0.02701,-0.00916,-0.03265,0.06104
6.1825,-0.23438,-0.04517,-0.10712,-0.01572,-0.00671,-0.04959,0.04196,-0.02258,0.00717,-0.01862,-0.01846,0.00549,-0.047,-0.01038,-0.02289,0.12665
6.183,-0.2684,-0.05508,-0.05905,-0.01297,-0.01648,-0.04639,0.07141,-0.02319,0.00504,-0.01831,-0.01953,0.00641,-0.06577,-0.01297,-0.00824,0.07813
6.1835,-0.30136,-0.07034,-0.03769,-0.01175,-0.02777,-0.04807,0.07187,-0.02029,0.00137,-0.01923,-0.02029,0.00824,-0.07324,-0.01495,-0.00046,-0.01953
6.184,-0.32562,-0.08011,-0.01068,-0.01083,-0.03387,-0.05173,0.047,-0.0174,-0.0032,-0.01984,-0.01938,0.00717,-0.065,-0.01617,-0.00137,-0.07675
6.1845,-0.3389,-0.08163,0.02716,-0.00366,-0.03738,-0.05386,0.01633,-0.01846,-0.00961,-0.01984,-0.01648,0.00458,-0.05249,-0.01648,-0.01068,-0.07599
6.185,-0.3479,-0.08377,0.05035,0.00839,-0.03922,-0.05432,-0.00397,-0.02365,-0.01617,-0.01724,-0.0145,0.00259,-0.0441,-0.01709,-0.01434,-0.06027
6.1855,-0.35965,-0.09155,0.04715,0.01816,-0.04425,-0.05508,-0.01068,-0.03067,-0.02121,-0.01419,-0.01236,0.00427,-0.04074,-0.01648,-0.01038,-0.0528
6.186,-0.37903,-0.10025,0.03601,0.02151,-0.056,-0.05386,-0.01251,-0.03571,-0.0238,-0.01251,-0.00687,0.00839,-0.03967,-0.01648,0.00107,-0.04257
6.1865,-0.39658,-0.1059,0.0322,0.02319,-0.06851,-0.05188,-0.01434,-0.03738,-0.02533,-0.01083,0.00153,0.0116,-0.03937,-0.01831,0.00931,-0.01968
6.187,-0.3952,-0.10223,0.03937,0.02808,-0.07187,-0.04684,-0.01678,-0.03601,-0.02731,-0.01099,0.00931,0.01144,-0.03937,-0.01999,0.01434,-0.00366
6.1875,-0.36926,-0.08331,0.04059,0.03296,-0.06332,-0.04181,-0.01678,-0.03143,-0.02823,-0.01053,0.00977,0.00916,-0.03815,-0.02151,0.01755,-0.0119
6.188,-0.33646,-0.05188,0.01923,0.0354,-0.04639,-0.03845,-0.01633,-0.02625,-0.02823,-0.01068,0.0032,0.00763,-0.03555,-0.02121,0.01801,-0.03326
6.1885,-0.31586,-0.0206,-0.03174,0.03738,-0.03067,-0.03769,-0.01633,-0.02151,-0.02838,-0.01221,-0.00275,0.00656,-0.03693,-0.0209,0.0206,-0.04639
6.189,-0.30609,-0.00244,-0.09415,0.03983,-0.02213,-0.03662,-0.01694,-0.02045,-0.03082,-0.01236,-0.00443,0.00244,-0.04395,-0.02258,0.01938,-0.04456
6.1895,-0.29724,0.00031,-0.13031,0.03647,-0.01968,-0.03494,-0.0174,-0.0206,-0.03143,-0.01099,-0.00381,-0.00137,-0.05219,-0.02609,0.01816,-0.03372
6.19,-0.29343,-0.00412,-0.11261,0.01892,-0.01984,-0.03082,-0.01877,-0.0235,-0.02975,-0.01083,-0.0058,-0.00397,-0.05417,-0.02686,0.01617,-0.02274
6.1905,-0.32364,-0.00854,-0.05844,-0.01358,-0.01801,-0.02502,-0.02075,-0.02579,-0.02686,-0.01266,-0.01022,-0.00198,-0.05005,-0.02487,0.01556,-0.01694
6.191,-0.457,-0.00809,0.00076,-0.04883,-0.01373,-0.02029,-0.02243,-0.02579,-0.02487,-0.01755,-0.01434,-0.00061,-0.04257,-0.02182,0.01648,-0.01877
6.1915,-0.77072,-0.00763,0.04715,-0.07156,-0.01251,-0.01953,-0.02258,-0.02365,-0.02472,-0.02197,-0.01373,-0.00244,-0.03784,-0.01923,0.01633,-0.0235
6.192,-1.25198,-0.01343,0.08087,-0.07034,-0.01389,-0.02151,-0.02106,-0.01923,-0.02594,-0.0235,-0.009,-0.00336,-0.03372,-0.01953,0.01846,-0.02609
6.1925,-1.76758,-0.02487,0.10056,-0.0444,-0.01709,-0.02441,-0.0209,-0.01602,-0.02655,-0.02289,-0.00336,-0.00397,-0.03006,-0.02228,0.02213,-0.02335
6.193,-2.10907,-0.03815,0.10422,-0.00259,-0.01968,-0.02655,-0.02167,-0.01495,-0.02502,-0.02228,-0.00076,-0.00229,-0.0293,-0.02533,0.02655,-0.02029
6.1935,-2.09641,-0.04654,0.08606,0.03571,-0.02045,-0.02777,-0.02304,-0.01358,-0.0209,-0.02106,-0.00229,-0.00229,-0.0325,-0.02686,0.03113,-0.01892
6.194,-1.76697,-0.04578,0.05997,0.06256,-0.02274,-0.02838,-0.0238,-0.01328,-0.01694,-0.0177,-0.00488,-0.00565,-0.03662,-0.02701,0.03784,-0.01816
6.1945,-1.4006,-0.03464,0.03098,0.08484,-0.02411,-0.03128,-0.0238,-0.01205,-0.01633,-0.01129,-0.00671,-0.00748,-0.03769,-0.02731,0.04028,-0.01541
6.195,-1.21994,-0.01572,0.00717,0.10132,-0.02441,-0.03952,-0.02472,-0.01007,-0.0177,-0.00549,-0.00854,-0.00717,-0.03555,-0.02731,0.04349,-0.00854
6.1955,-1.16302,0.00122,-0.01053,0.09018,-0.02335,-0.05783,-0.02594,-0.00885,-0.01785,-0.00061,-0.01083,-0.00549,-0.03464,-0.02747,0.04593,0.00137
6.196,-1.05896,0.00641,-0.01617,0.03464,-0.02121,-0.08041,-0.02731,-0.009,-0.01816,0.00183,-0.01114,-0.00534,-0.03571,-0.02563,0.04929,0.01373
6.1965,-0.88303,-0.00168,-0.00885,-0.05692,-0.01923,-0.09598,-0.02731,-0.01205,-0.01953,0.00275,-0.00977,-0.00702,-0.03677,-0.02243,0.05295,0.02213
6.197,-0.72617,-0.01953,-0.00168,-0.15686,-0.01877,-0.09567,-0.02548,-0.01251,-0.02213,0.00214,-0.00778,-0.00824,-0.03586,-0.01831,0.05554,0.0209
6.1975,-0.62759,-0.03998,-0.02319,-0.24078,-0.01984,-0.08118,-0.02075,-0.01068,-0.02396,-0.00046,-0.00702,-0.00793,-0.03189,-0.01678,0.05524,0.00534
6.198,-0.55069,-0.05417,-0.08148,-0.2977,-0.02197,-0.06638,-0.0177,-0.00748,-0.0238,-0.00565,-0.00946,-0.0058,-0.02594,-0.01694,0.05112,-0.02396
6.1985,-0.46356,-0.05829,-0.14328,-0.32272,-0.02472,-0.05798,-0.01831,-0.00534,-0.02258,-0.01129,-0.0116,-0.00397,-0.01953,-0.01953,0.04349,-0.06653
6.199,-0.36499,-0.05356,-0.16663,-0.30273,-0.02563,-0.05798,-0.01984,-0.00458,-0.0206,-0.01526,-0.01328,-0.00244,-0.01785,-0.02228,0.0351,-0.10834
6.1995,-0.26108,-0.04456,-0.14481,-0.20203,-0.02411,-0.05844,-0.02151,-0.00488,-0.01755,-0.01801,-0.01511,-0.0029,-0.02045,-0.02258,0.02472,-0.12573
6.2,-0.16022,-0.03738,-0.11261,0.00076,-0.0206,-0.05707,-0.02243,-0.00641,-0.01602,-0.0206,-0.01801,-0.00351,-0.02472,-0.0209,0.01129,-0.1059
6.2005,-0.07126,-0.04257,-0.09033,0.26932,-0.01923,-0.05554,-0.02258,-0.00565,-0.01617,-0.02319,-0.01877,-0.00488,-0.02487,-0.01801,-0.00229,-0.0621
6.201,0.00763,-0.07294,-0.05859,0.51422,-0.02151,-0.05341,-0.02197,-0.00168,-0.01816,-0.02411,-0.01556,-0.00473,-0.02258,-0.01678,-0.00916,-0.02884
6.2015,0.09048,-0.12665,-0.00046,0.65994,-0.02533,-0.05203,-0.02014,0.00381,-0.01831,-0.02533,-0.01236,-0.00366,-0.02136,-0.0177,-0.00259,-0.03647
6.202,0.1825,-0.17731,0.0621,0.68024,-0.02792,-0.05112,-0.01678,0.00778,-0.01678,-0.02899,-0.01053,-0.00458,-0.02411,-0.01923,0.00839,-0.07446
6.2025,0.27359,-0.19318,0.09369,0.58075,-0.02884,-0.05188,-0.01266,0.00809,-0.01465,-0.03448,-0.00824,-0.0061,-0.02884,-0.01816,0.00961,-0.09964
6.203,0.35339,-0.16693,0.08316,0.39658,-0.03021,-0.05371,-0.01068,0.00534,-0.01007,-0.03769,-0.0058,-0.00656,-0.03281,-0.01556,-0.0058,-0.08255
6.2035,0.42206,-0.12115,0.05661,0.18555,-0.03082,-0.05539,-0.01251,-0.00031,-0.00504,-0.03998,-0.00046,-0.00427,-0.03326,-0.01343,-0.02686,-0.03769
6.204,0.48004,-0.0766,0.04059,0.00519,-0.02945,-0.05447,-0.01556,-0.00397,-0.00092,-0.03983,0.00534,-0.00275,-0.03159,-0.01343,-0.04211,-0.01175
6.2045,0.52032,-0.04288,0.03555,-0.12512,-0.02792,-0.05325,-0.01831,-0.00931,-0.00031,-0.04181,0.01114,-0.00183,-0.02869,-0.01266,-0.04501,-0.04593
6.205,0.54001,-0.01801,0.02274,-0.21729,-0.02701,-0.0531,-0.0177,-0.01312,-0.00244,-0.04532,0.01572,0.00061,-0.02533,-0.0116,-0.03799,-0.11551
6.2055,0.54672,0.00717,-0.00687,-0.27756,-0.02686,-0.05402,-0.01617,-0.0177,-0.00626,-0.04883,0.0206,0.00427,-0.02335,-0.01068,-0.02884,-0.14023
6.206,0.5513,0.0354,-0.04303,-0.29602,-0.02762,-0.05478,-0.01678,-0.02258,-0.00824,-0.04929,0.02502,0.00626,-0.02182,-0.01205,-0.02594,-0.07355
6.2065,0.55603,0.05905,-0.0679,-0.27664,-0.02838,-0.05188,-0.0209,-0.02899,-0.00793,-0.04684,0.02686,0.00427,-0.02075,-0.01404,-0.0322,0.0383
6.207,0.55466,0.0676,-0.07767,-0.24597,-0.02899,-0.05203,-0.02441,-0.03433,-0.0058,-0.04318,0.02441,0.00336,-0.02014,-0.01328,-0.0351,0.11887
6.2075,0.54321,0.06271,-0.07629,-0.23895,-0.03098,-0.056,-0.02686,-0.03632,-0.00458,-0.03799,0.01862,0.00519,-0.01846,-0.01297,-0.02411,0.13733
6.208,0.52536,0.05325,-0.06912,-0.26291,-0.03372,-0.06027,-0.02563,-0.03296,-0.00519,-0.03143,0.01175,0.0061,-0.01801,-0.01175,0.00092,0.10269
6.2085,0.51453,0.04776,-0.05722,-0.28595,-0.03525,-0.06012,-0.02304,-0.02975,-0.00656,-0.02274,0.00717,0.00351,-0.01923,-0.01083,0.01877,0.0444
6.209,0.52155,0.047,-0.04135,-0.27161,-0.03464,-0.05722,-0.02243,-0.02762,-0.00793,-0.01495,0.00244,0.0,-0.02197,-0.01022,0.01419,-0.00839
6.2095,0.54077,0.04715,-0.01816,-0.21698,-0.03418,-0.05432,-0.0235,-0.02472,-0.009,-0.01022,-0.00214,-0.00031,-0.0235,-0.01083,-0.00839,-0.0415
6.21,0.5571,0.04425,0.00519,-0.15671,-0.03128,-0.05203,-0.02686,-0.02441,-0.01068,-0.00748,-0.00641,0.00168,-0.02304,-0.01099,-0.03098,-0.05844
6.2105,0.56107,0.03342,0.0148,-0.11826,-0.02533,-0.04898,-0.02762,-0.02426,-0.01205,-0.00504,-0.01175,0.00458,-0.02182,-0.01083,-0.04059,-0.06973
6.211,0.55298,0.01602,0.00122,-0.10025,-0.01755,-0.04456,-0.0264,-0.02579,-0.01373,-0.00107,-0.0177,0.00641,-0.02151,-0.01099,-0.03464,-0.07523
6.2115,0.53726,-0.00427,-0.03555,-0.08942,-0.0145,-0.04074,-0.02487,-0.02457,-0.01419,0.00214,-0.02121,0.009,-0.02136,-0.01068,-0.02274,-0.06989
6.212,0.51208,-0.03494,-0.09079,-0.07874,-0.02121,-0.03952,-0.02365,-0.02396,-0.01389,-0.00092,-0.02182,0.01343,-0.02213,-0.01144,-0.0148,-0.05737
6.2125,0.47821,-0.09079,-0.15625,-0.06836,-0.03906,-0.04135,-0.02289,-0.0267,-0.01373,-0.00778,-0.01938,0.01709,-0.02396,-0.01266,-0.00961,-0.05142
6.213,0.43716,-0.16251,-0.2002,-0.0589,-0.06424,-0.04471,-0.0209,-0.02594,-0.01419,-0.01389,-0.01404,0.01801,-0.02625,-0.01373,-0.0029,-0.05676
6.2135,0.39352,-0.2063,-0.19684,-0.04776,-0.08102,-0.04807,-0.01709,-0.01953,-0.01541,-0.01694,-0.00778,0.01678,-0.02655,-0.01526,0.00473,-0.07126
6.214,0.35187,-0.19455,-0.1506,-0.0354,-0.08072,-0.04913,-0.01389,-0.01022,-0.01541,-0.01511,-0.00595,0.01419,-0.0264,-0.01617,0.0087,-0.08728
6.2145,0.32394,-0.14511,-0.09476,-0.02716,-0.06256,-0.04684,-0.01465,-0.00305,-0.01465,-0.01221,-0.00748,0.01205,-0.0264,-0.01511,0.00565,-0.09933
6.215,0.30945,-0.08942,-0.04959,-0.02579,-0.0444,-0.04288,-0.01678,-0.00046,-0.01434,-0.00885,-0.00946,0.00778,-0.02472,-0.01312,-0.00168,-0.10468
6.2155,0.3006,-0.03662,-0.01312,-0.02853,-0.03647,-0.03754,-0.01816,-0.00046,-0.01282,-0.00687,-0.01083,0.00351,-0.02106,-0.0116,-0.00824,-0.10452
6.216,0.29022,0.00854,0.02289,-0.03098,-0.03647,-0.03265,-0.01923,0.0,-0.01175,-0.00412,-0.01175,0.00015,-0.0174,-0.01038,-0.00931,-0.10269
6.2165,0.27893,0.02579,0.05585,-0.02716,-0.03815,-0.03021,-0.01862,0.00244,-0.01007,-0.00366,-0.01175,-0.00229,-0.01923,-0.00961,-0.00351,-0.10269
6.217,0.26672,0.0058,0.07874,-0.0119,-0.03983,-0.03265,-0.01678,0.00793,-0.00809,-0.00381,-0.01022,-0.00153,-0.02594,-0.01129,0.00351,-0.10025
6.2175,0.24933,-0.02136,0.08453,0.01099,-0.04288,-0.03738,-0.01099,0.0145,-0.00854,-0.0058,-0.00671,0.00153,-0.03403,-0.01343,0.01053,-0.09079
6.218,0.22232,-0.0119,0.05814,0.02945,-0.04684,-0.04318,-0.00702,0.01984,-0.01144,-0.00916,-0.00137,0.00305,-0.03998,-0.01373,0.01495,-0.07645
6.2185,0.18738,0.03433,-0.01892,0.03326,-0.04776,-0.04807,-0.00641,0.01984,-0.01434,-0.01312,0.00076,0.00015,-0.04562,-0.01373,0.0174,-0.06409
6.219,0.15152,0.06882,-0.12878,0.02991,-0.04669,-0.05005,-0.00778,0.01862,-0.0148,-0.01663,0.00183,-0.00549,-0.05325,-0.01389,0.02228,-0.056
6.2195,0.12299,0.05142,-0.20309,0.02838,-0.04425,-0.04807,-0.00763,0.01923,-0.01358,-0.01907,0.0032,-0.00809,-0.05981,-0.01358,0.02853,-0.04562
6.22,0.10315,0.00122,-0.19577,0.03189,-0.0415,-0.04364,-0.00504,0.02243,-0.01205,-0.02136,0.00488,-0.00717,-0.06241,-0.0148,0.03311,-0.02975
6.2205,0.08743,-0.02701,-0.13474,0.03326,-0.03815,-0.04211,-0.00504,0.0238,-0.01007,-0.02304,0.00534,-0.00565,-0.06042,-0.01862,0.03494,-0.00839
6.221,0.07126,-0.01022,-0.06775,0.02747,-0.03662,-0.04486,-0.00519,0.02075,-0.00748,-0.02457,0.00427,-0.00565,-0.05585,-0.02106,0.03387,0.01495
6.2215,0.05463,0.02609,-0.01022,0.01816,-0.03647,-0.04959,-0.00458,0.0206,-0.00534,-0.02563,0.00153,-0.00626,-0.05081,-0.02304,0.03281,0.03647
6.222,0.04089,0.05066,0.04028,0.01389,-0.03616,-0.0531,-0.00366,0.02365,-0.0061,-0.02731,0.00092,-0.00641,-0.0473,-0.02441,0.03159,0.05142
6.2225,0.03296,0.05798,0.07156,0.01633,-0.0351,-0.05463,-0.00351,0.02563,-0.01022,-0.02686,0.00153,-0.00687,-0.04562,-0.02747,0.02808,0.05783
6.223,0.02975,0.05356,0.07233,0.02304,-0.03448,-0.05295,-0.00275,0.02792,-0.0148,-0.02411,0.00153,-0.00839,-0.04776,-0.03036,0.02335,0.05447
6.2235,0.02655,0.03296,0.05478,0.03159,-0.03235,-0.05157,-0.00336,0.0267,-0.0177,-0.02167,0.00046,-0.00992,-0.04974,-0.03235,0.01831,0.04135
6.224,0.01633,-0.0061,0.03464,0.04517,-0.03067,-0.04868,-0.00458,0.02426,-0.01892,-0.01816,0.00137,-0.0087,-0.05035,-0.03464,0.01678,0.0174
6.2245,0.00015,-0.05203,0.01541,0.06287,-0.02869,-0.04669,-0.00656,0.02045,-0.01862,-0.01419,0.00275,-0.00504,-0.04761,-0.03586,0.01785,-0.0145
6.225,-0.01389,-0.09109,-0.00259,0.08148,-0.02579,-0.04532,-0.00961,0.01938,-0.01831,-0.01175,0.0029,-0.00229,-0.04364,-0.03647,0.01907,-0.05234
6.2255,-0.0177,-0.11841,-0.01358,0.09949,-0.0235,-0.04303,-0.01083,0.01953,-0.01892,-0.01038,0.00076,-0.0032,-0.03922,-0.03464,0.02151,-0.09476
6.226,-0.01343,-0.13138,-0.01556,0.12268,-0.02563,-0.04166,-0.00977,0.02335,-0.01831,-0.00992,0.0,-0.00687,-0.03448,-0.02975,0.02518,-0.13336
6.2265,-0.00916,-0.12085,-0.01328,0.1413,-0.03098,-0.04105,-0.00763,0.02502,-0.01709,-0.00931,0.00229,-0.01038,-0.03036,-0.02411,0.0264,-0.15671
6.227,-0.00656,-0.08835,-0.01358,0.13229,-0.03937,-0.04105,-0.0058,0.02396,-0.01678,-0.00778,0.00641,-0.01068,-0.0267,-0.01862,0.02472,-0.15564
6.2275,-0.00504,-0.05646,-0.01938,0.08575,-0.04547,-0.03891,-0.00549,0.01968,-0.01801,-0.00748,0.00946,-0.00702,-0.02563,-0.01511,0.02365,-0.13641
6.228,-0.00626,-0.04684,-0.02884,0.02869,-0.04639,-0.0383,-0.00656,0.01907,-0.02121,-0.00809,0.00946,0.00031,-0.02686,-0.01556,0.02426,-0.11642
6.2285,-0.01526,-0.05737,-0.03723,-0.00595,-0.0412,-0.03952,-0.00748,0.0206,-0.02304,-0.0087,0.00626,0.00793,-0.02884,-0.0177,0.01968,-0.10437
6.229,-0.03128,-0.06607,-0.04166,-0.01709,-0.0351,-0.0412,-0.00778,0.0209,-0.02487,-0.00992,0.00214,0.01343,-0.03036,-0.02075,0.00778,-0.09415
6.2295,-0.0473,-0.06149,-0.04272,-0.02991,-0.03128,-0.03922,-0.009,0.01892,-0.02579,-0.01251,-0.00031,0.01495,-0.03159,-0.02106,-0.00595,-0.07523
6.23,-0.06256,-0.05112,-0.04456,-0.06073,-0.03082,-0.03448,-0.01022,0.01663,-0.02579,-0.0148,0.00244,0.01236,-0.03342,-0.01846,-0.0148,-0.05219
6.2305,-0.07523,-0.05096,-0.05188,-0.09628,-0.0322,-0.03296,-0.00977,0.01709,-0.02472,-0.01633,0.00427,0.00549,-0.03586,-0.01602,-0.01541,-0.04181
6.231,-0.0853,-0.06409,-0.06241,-0.11902,-0.03296,-0.03708,-0.00763,0.01648,-0.02396,-0.01785,0.00427,-0.00214,-0.03601,-0.01434,-0.00839,-0.05051
6.2315,-0.09018,-0.08636,-0.07797,-0.12436,-0.0351,-0.04211,-0.00458,0.01602,-0.02441,-0.0174,0.00427,-0.0061,-0.03464,-0.0145,0.00183,-0.06577
6.232,-0.09232,-0.10529,-0.11353,-0.12299,-0.03464,-0.04471,-0.00443,0.01511,-0.02441,-0.01816,0.00641,-0.00885,-0.03296,-0.01587,0.00977,-0.07141
6.2325,-0.09567,-0.11276,-0.17181,-0.12177,-0.03128,-0.04654,-0.00809,0.01038,-0.02151,-0.01938,0.00946,-0.01068,-0.03326,-0.01816,0.0116,-0.06638
6.233,-0.10086,-0.10803,-0.22552,-0.1236,-0.02899,-0.04684,-0.01221,0.00565,-0.01801,-0.02014,0.01297,-0.01114,-0.03601,-0.0209,0.01083,-0.06027
6.2335,-0.10529,-0.09125,-0.23361,-0.12772,-0.02762,-0.04715,-0.01389,0.00443,-0.01541,-0.02121,0.01785,-0.00961,-0.03967,-0.02274,0.01068,-0.0592
6.234,-0.10696,-0.06943,-0.18753,-0.13245,-0.03052,-0.04639,-0.01144,0.00519,-0.01373,-0.02197,0.02151,-0.0061,-0.04211,-0.02304,0.01205,-0.05997
6.2345,-0.1062,-0.05905,-0.11688,-0.13123,-0.0351,-0.04715,-0.01038,0.00656,-0.01205,-0.02258,0.0209,-0.00259,-0.04059,-0.02136,0.01404,-0.05859
6.235,-0.10635,-0.0705,-0.05035,-0.11765,-0.03799,-0.04868,-0.01205,0.00427,-0.01221,-0.02487,0.01694,-0.00122,-0.03815,-0.01877,0.01846,-0.05432
6.2355,-0.112,-0.08423,0.00458,-0.09232,-0.03738,-0.05096,-0.01511,0.00092,-0.01266,-0.02411,0.01236,0.00015,-0.03723,-0.01709,0.02014,-0.04929
6.236,-0.12451,-0.07523,0.04288,-0.065,-0.03632,-0.05295,-0.01694,0.00031,-0.01236,-0.0238,0.01007,0.00183,-0.03693,-0.01709,0.0177,-0.04532
6.2365,-0.14023,-0.05005,0.05402,-0.04379,-0.03693,-0.05386,-0.01694,0.00183,-0.01114,-0.0238,0.00717,0.00259,-0.03479,-0.01663,0.01221,-0.0412
6.237,-0.1532,-0.03067,0.03204,-0.03387,-0.03815,-0.05508,-0.01556,0.00031,-0.01099,-0.02411,0.00229,0.00092,-0.03159,-0.0177,0.00793,-0.03815
6.2375,-0.16434,-0.02151,-0.00748,-0.02991,-0.04089,-0.05707,-0.0145,-0.00488,-0.01099,-0.02365,-0.0032,-0.00107,-0.02869,-0.01923,0.00809,-0.03586
6.238,-0.17578,-0.01251,-0.03876,-0.02197,-0.04288,-0.05753,-0.01266,-0.01038,-0.01022,-0.02243,-0.00885,-0.00259,-0.02731,-0.02014,0.01144,-0.03235
6.2385,-0.18616,-0.00458,-0.04562,-0.00458,-0.04227,-0.05722,-0.01022,-0.01129,-0.01022,-0.02136,-0.01541,-0.00214,-0.02686,-0.02029,0.0145,-0.02548
6.239,-0.19257,-0.00854,-0.04166,0.01831,-0.03784,-0.05585,-0.00793,-0.00687,-0.01144,-0.02045,-0.02289,-0.00214,-0.02731,-0.01984,0.01495,-0.01694
6.2395,-0.19333,-0.01999,-0.05478,0.03769,-0.03281,-0.05386,-0.00702,-0.00168,-0.01312,-0.0209,-0.02975,-0.00198,-0.02975,-0.01953,0.01541,-0.01236
6.24,-0.19211,-0.02838,-0.11169,0.04547,-0.02945,-0.05203,-0.00824,0.00031,-0.01358,-0.02075,-0.03494,-0.00137,-0.03326,-0.01831,0.01556,-0.01266
6.2405,-0.19501,-0.03113,-0.19135,0.04181,-0.02808,-0.04944,-0.01022,0.00107,-0.01404,-0.02075,-0.04044,-0.00107,-0.0383,-0.01755,0.01541,-0.0148
6.241,-0.20126,-0.03036,-0.22141,0.03296,-0.02594,-0.04761,-0.01282,-0.00061,-0.01389,-0.0206,-0.04593,-0.00061,-0.04471,-0.01587,0.01236,-0.01511
6.2415,-0.20416,-0.0264,-0.14893,0.01938,-0.02167,-0.04562,-0.01633,-0.00305,-0.01343,-0.01984,-0.05188,0.00015,-0.0502,-0.01312,0.01053,-0.01373
6.242,-0.19699,-0.02151,-0.01816,-0.0174,-0.0177,-0.04303,-0.02243,-0.00916,-0.01312,-0.01984,-0.05798,0.00107,-0.05173,-0.01129,0.00961,-0.01434
6.2425,-0.18372,-0.01831,0.08209,-0.09583,-0.01434,-0.04196,-0.02502,-0.01297,-0.01511,-0.02136,-0.06424,0.00092,-0.04868,-0.01144,0.01129,-0.01526
6.243,-0.17685,-0.02167,0.11749,-0.1947,-0.01343,-0.04181,-0.02243,-0.0119,-0.01709,-0.02258,-0.06943,0.00092,-0.04257,-0.01312,0.01282,-0.01572
6.2435,-0.18372,-0.02808,0.121,-0.25208,-0.01404,-0.04532,-0.01648,-0.00824,-0.0177,-0.02335,-0.07004,0.00061,-0.03891,-0.01495,0.01343,-0.01831
6.244,-0.19913,-0.03265,0.12558,-0.23376,-0.0145,-0.0502,-0.01419,-0.00427,-0.01678,-0.02289,-0.06897,0.00168,-0.03906,-0.01617,0.0116,-0.02502
6.2445,-0.20981,-0.03616,0.12527,-0.17136,-0.01587,-0.05371,-0.01831,-0.00336,-0.01587,-0.0209,-0.06836,0.00443,-0.04105,-0.01938,0.01007,-0.03342
6.245,-0.2095,-0.03891,0.10254,-0.10971,-0.01831,-0.05539,-0.02289,-0.00732,-0.01556,-0.02014,-0.07065,0.00793,-0.04089,-0.02274,0.00992,-0.0383
6.2455,-0.20355,-0.04333,0.06424,-0.03571,-0.02167,-0.05524,-0.02304,-0.00961,-0.01511,-0.02106,-0.07599,0.00793,-0.03967,-0.02579,0.00946,-0.03693
6.246,-0.1973,-0.05157,0.03189,0.11169,-0.02487,-0.05493,-0.01648,-0.0061,-0.01144,-0.02182,-0.08179,0.00397,-0.04028,-0.0293,0.00839,-0.03204
6.2465,-0.19012,-0.06592,0.00488,0.34531,-0.02716,-0.05386,-0.00931,0.00473,-0.00702,-0.0206,-0.08759,0.00214,-0.04181,-0.03128,0.00656,-0.02701
6.247,-0.17746,-0.09094,-0.03479,0.5394,-0.02777,-0.05264,-0.00488,0.01663,-0.00397,-0.02029,-0.09262,0.00305,-0.04272,-0.03021,0.00595,-0.02457
6.2475,-0.16037,-0.12039,-0.08759,0.52017,-0.02457,-0.05112,-0.0058,0.02213,-0.00381,-0.0206,-0.09827,0.00626,-0.0441,-0.02838,0.00595,-0.02335
6.248,-0.14374,-0.14069,-0.12268,0.28656,-0.0206,-0.04929,-0.01007,0.02136,-0.00214,-0.02151,-0.10254,0.00748,-0.04562,-0.0267,0.00641,-0.02411
6.2485,-0.13153,-0.14343,-0.11032,0.04242,-0.01862,-0.04791,-0.01251,0.01999,-0.00031,-0.02106,-0.09949,0.00854,-0.0444,-0.02304,0.00732,-0.02396
6.249,-0.12314,-0.13168,-0.0621,-0.03677,-0.01999,-0.04654,-0.01175,0.01663,-0.00153,-0.01968,-0.09201,0.01099,-0.04013,-0.01709,0.00687,-0.02289
6.2495,-0.11795,-0.11261,-0.01205,0.01389,-0.02243,-0.04608,-0.00854,0.00885,-0.00732,-0.01801,-0.08438,0.01175,-0.03342,-0.01297,0.0061,-0.02426
6.25,-0.11246,-0.09018,0.01831,0.06027,-0.02274,-0.04623,-0.01083,-0.00534,-0.01495,-0.01801,-0.07828,0.01221,-0.02899,-0.01297,0.00732,-0.02731
6.2505,-0.10696,-0.06348,0.03159,0.0444,-0.02304,-0.04837,-0.01953,-0.02167,-0.02228,-0.0174,-0.0737,0.01312,-0.02853,-0.01404,0.00961,-0.02945
6.251,-0.09979,-0.03448,0.03998,0.00473,-0.02457,-0.0502,-0.02991,-0.03052,-0.02899,-0.01663,-0.06897,0.01648,-0.03006,-0.0148,0.01282,-0.0293
6.2515,-0.08987,-0.00702,0.0499,-0.01907,-0.02518,-0.05066,-0.03342,-0.02975,-0.03326,-0.01572,-0.06607,0.02136,-0.03052,-0.01434,0.0148,-0.02884
6.252,-0.07477,0.01587,0.0563,-0.02609,-0.02594,-0.05096,-0.02914,-0.0206,-0.03586,-0.01465,-0.06546,0.02808,-0.03143,-0.01526,0.01221,-0.02945
6.2525,-0.05798,0.03601,0.05463,-0.02365,-0.02502,-0.05188,-0.02426,-0.00092,-0.03754,-0.01511,-0.06577,0.03189,-0.03235,-0.01663,0.00946,-0.03021
6.253,-0.04318,0.05142,0.04303,-0.01511,-0.02579,-0.05249,-0.0206,0.03693,-0.03799,-0.01633,-0.06592,0.02853,-0.0325,-0.0174,0.00824,-0.03113
6.2535,-0.03479,0.06119,0.02716,-0.00259,-0.0267,-0.0528,-0.01709,0.09171,-0.03586,-0.01846,-0.06454,0.0206,-0.03235,-0.01724,0.009,-0.03159
6.254,-0.03067,0.0621,0.00961,0.00748,-0.02762,-0.05325,-0.01572,0.14343,-0.0293,-0.01892,-0.06317,0.01266,-0.03143,-0.01755,0.01007,-0.0325
6.2545,-0.02716,0.05081,-0.02182,0.01892,-0.0264,-0.05341,-0.0145,0.1622,-0.02075,-0.01785,-0.06485,0.009,-0.03082,-0.01801,0.00839,-0.03281
6.255,-0.01755,0.02716,-0.08728,0.04257,-0.02625,-0.05356,-0.00656,0.13062,-0.01404,-0.01678,-0.06805,0.00214,-0.03235,-0.01831,0.00671,-0.03281
6.2555,-0.00061,-0.00275,-0.18051,0.07431,-0.02777,-0.0528,0.01312,0.06729,-0.01114,-0.01724,-0.07004,-0.01617,-0.03235,-0.01755,0.00717,-0.0325
6.256,0.02106,-0.02869,-0.23972,0.0827,-0.0267,-0.05173,0.03098,0.00854,-0.01007,-0.01724,-0.07019,-0.04181,-0.03311,-0.01785,0.00763,-0.03372
6.2565,0.04242,-0.04883,-0.2063,0.04211,-0.02533,-0.05051,0.02838,-0.02457,-0.009,-0.01816,-0.07126,-0.06546,-0.03281,-0.01984,0.00687,-0.03586
6.257,0.05829,-0.06683,-0.10178,-0.02396,-0.02472,-0.04944,0.00931,-0.03937,-0.0061,-0.01846,-0.07172,-0.08301,-0.03311,-0.02319,0.0058,-0.03693
6.2575,0.0676,-0.08575,-0.00702,-0.06744,-0.02472,-0.04898,-0.00488,-0.05676,-0.0029,-0.01892,-0.07004,-0.09903,-0.03357,-0.0267,0.00275,-0.03632
6.258,0.0676,-0.09811,0.03555,-0.06851,-0.02335,-0.04913,-0.00336,-0.08209,-0.00229,-0.02014,-0.06699,-0.11505,-0.03448,-0.0296,0.00214,-0.03555
6.2585,0.0647,-0.09308,0.04608,-0.05112,-0.02213,-0.04852,0.00397,-0.10468,-0.00443,-0.02121,-0.06699,-0.12772,-0.03616,-0.03174,0.00275,-0.03525
6.259,0.06531,-0.06485,0.04562,-0.03998,-0.01999,-0.04791,0.00504,-0.11169,-0.00519,-0.02228,-0.06882,-0.13214,-0.03845,-0.03265,0.00336,-0.03601
6.2595,0.07568,-0.0238,0.01648,-0.03708,-0.02121,-0.04837,-0.00031,-0.1059,-0.00504,-0.02197,-0.06699,-0.1178,-0.03967,-0.03021,0.00534,-0.03586
6.26,0.09323,0.01343,-0.05051,-0.0351,-0.02335,-0.04745,-0.00885,-0.10284,-0.00549,-0.02136,-0.06149,-0.07416,-0.03845,-0.02609,0.00656,-0.03723
6.2605,0.10971,0.03708,-0.11368,-0.0325,-0.02548,-0.04486,-0.02182,-0.11322,-0.00702,-0.02106,-0.05615,0.00336,-0.03769,-0.02243,0.00687,-0.04013
6.261,0.12222,0.04868,-0.12146,-0.02914,-0.02625,-0.04333,-0.03845,-0.12878,-0.01038,-0.02029,-0.05356,0.0975,-0.03845,-0.02029,0.00687,-0.0415
6.2615,0.13306,0.04913,-0.07309,-0.02274,-0.02869,-0.0441,-0.05219,-0.12955,-0.01358,-0.01923,-0.05264,0.16769,-0.04074,-0.01999,0.00732,-0.0412
6.262,0.14297,0.03784,-0.01724,-0.01297,-0.03113,-0.04715,-0.05585,-0.11032,-0.01587,-0.01877,-0.05173,0.16846,-0.04089,-0.01846,0.00763,-0.03937
6.2625,0.14999,0.01541,0.01389,-0.00275,-0.03342,-0.04929,-0.05157,-0.08881,-0.01572,-0.01984,-0.05081,0.08789,-0.03891,-0.01633,0.0058,-0.0386
6.263,0.15244,-0.00839,0.0235,0.00534,-0.03342,-0.04944,-0.04669,-0.08713,-0.01282,-0.0209,-0.05005,-0.04791,-0.03555,-0.01495,0.0032,-0.0386
6.2635,0.15244,-0.02731,0.03098,0.01129,-0.03311,-0.04669,-0.04593,-0.12131,-0.01114,-0.02106,-0.04913,-0.1889,-0.03326,-0.0148,0.00015,-0.0386
6.264,0.15366,-0.03967,0.03708,0.01434,-0.03326,-0.04608,-0.04913,-0.18814,-0.01175,-0.02029,-0.04593,-0.27237,-0.03204,-0.01526,-0.00259,-0.0386
6.2645,0.15854,-0.04959,0.02701,0.01221,-0.03235,-0.047,-0.05157,-0.25497,-0.01663,-0.01984,-0.03906,-0.24017,-0.03098,-0.01404,-0.0029,-0.03922
6.265,0.16464,-0.05875,-0.00046,0.00351,-0.03143,-0.04837,-0.05219,-0.28076,-0.02274,-0.01953,-0.03464,-0.08682,-0.02731,-0.01099,-0.00015,-0.0415
6.2655,0.17029,-0.06622,-0.02914,-0.01038,-0.03036,-0.04929,-0.05417,-0.24658,-0.0296,-0.01801,-0.03571,0.11673,-0.02319,-0.00717,0.00198,-0.04425
6.266,0.177,-0.07065,-0.03891,-0.02625,-0.0296,-0.04822,-0.05875,-0.16235,-0.03494,-0.01648,-0.03754,0.26794,-0.02121,-0.00473,0.0029,-0.04547
6.2665,0.1828,-0.07431,-0.02686,-0.04013,-0.02777,-0.0473,-0.06012,-0.04272,-0.03754,-0.01678,-0.0351,0.30884,-0.0209,-0.00519,0.00153,-0.04486
6.267,0.18356,-0.07339,-0.00946,-0.04425,-0.02838,-0.04791,-0.05798,0.09048,-0.03601,-0.01801,-0.02838,0.26917,-0.02213,-0.00717,0.00015,-0.04349
6.2675,0.18112,-0.06577,-0.0032,-0.03067,-0.0296,-0.04807,-0.05875,0.2034,-0.03281,-0.01877,-0.02075,0.20905,-0.02411,-0.00977,0.00122,-0.04318
6.268,0.18127,-0.05356,-0.00885,-0.00671,-0.03204,-0.04807,-0.06439,0.26886,-0.03189,-0.01678,-0.01617,0.14709,-0.02533,-0.0119,0.0029,-0.0441
6.2685,0.18555,-0.04456,-0.02274,0.00702,-0.03403,-0.04745,-0.0705,0.28259,-0.03235,-0.01526,-0.01328,0.05508,-0.02563,-0.01343,0.00275,-0.04517
6.269,0.19073,-0.04303,-0.0383,0.00366,-0.03448,-0.04562,-0.07248,0.25146,-0.03082,-0.01526,-0.01114,-0.06653,-0.02502,-0.01358,0.00168,-0.04517
6.2695,0.19424,-0.04425,-0.0528,0.00244,-0.0322,-0.04425,-0.07355,0.1828,-0.02762,-0.0148,-0.00671,-0.14465,-0.02502,-0.01373,0.00107,-0.04257
6.27,0.19714,-0.04684,-0.06409,0.02197,-0.03082,-0.0441,-0.06958,0.10101,-0.02487,-0.01419,-0.00153,-0.10056,-0.02579,-0.01495,0.00244,-0.03983
6.2705,0.1976,-0.05066,-0.07126,0.0499,-0.03143,-0.04578,-0.04059,0.04227,-0.02365,-0.01221,0.00229,0.03128,-0.02609,-0.0174,0.00504,-0.04028
6.271,0.19318,-0.05737,-0.0766,0.04654,-0.03296,-0.047,0.02304,0.02304,-0.02136,-0.0119,0.00488,0.11673,-0.02563,-0.0177,0.00641,-0.04272
6.2715,0.18372,-0.06561,-0.08636,-0.01022,-0.03464,-0.04791,0.09842,0.02533,-0.01984,-0.01205,0.00565,0.08575,-0.02411,-0.01541,0.0061,-0.04379
6.272,0.17441,-0.07187,-0.09857,-0.10132,-0.03464,-0.04944,0.1442,0.02274,-0.01953,-0.01373,0.00504,0.00473,-0.02396,-0.01328,0.00534,-0.0444
6.2725,0.17227,-0.08026,-0.10391,-0.19531,-0.03326,-0.05142,0.13641,0.009,-0.01877,-0.01419,0.00351,-0.03098,-0.02335,-0.01282,0.00656,-0.0444
6.273,0.17258,-0.09094,-0.09537,-0.26932,-0.03403,-0.05188,0.09155,0.00061,-0.01831,-0.01495,0.00275,-0.00916,-0.02289,-0.0145,0.00824,-0.04501
6.2735,0.1683,-0.09537,-0.07645,-0.28168,-0.03418,-0.05157,0.05753,0.00565,-0.01617,-0.01556,0.00244,0.02045,-0.02289,-0.01602,0.009,-0.0444
6.274,0.159,-0.08804,-0.05798,-0.18204,-0.03387,-0.05295,0.05661,0.00641,-0.01495,-0.01617,0.00427,0.03708,-0.02274,-0.01602,0.00885,-0.04318
6.2745,0.15335,-0.0766,-0.04608,0.01297,-0.03265,-0.05478,0.05432,-0.01495,-0.01434,-0.01755,0.00702,0.03937,-0.0238,-0.01709,0.00854,-0.04318
6.275,0.15518,-0.0676,-0.03525,0.18219,-0.03296,-0.05478,0.01358,-0.04852,-0.0148,-0.01877,0.00885,0.0354,-0.02625,-0.01785,0.00717,-0.04425
6.2755,0.16083,-0.06317,-0.02335,0.19272,-0.03418,-0.0531,-0.03098,-0.07004,-0.01358,-0.02029,0.00961,0.03494,-0.02975,-0.01862,0.00336,-0.04593
6.276,0.1619,-0.05844,-0.0148,0.05142,-0.03387,-0.05157,-0.02808,-0.07294,-0.01144,-0.0209,0.00992,0.05478,-0.03342,-0.01923,0.00076,-0.04791
6.2765,0.15533,-0.05371,-0.01495,-0.09735,-0.03296,-0.05219,-0.00549,-0.06943,-0.01099,-0.01968,0.01129,0.09674,-0.03693,-0.01999,0.00031,-0.04898
6.277,0.14221,-0.05569,-0.02228,-0.12634,-0.03342,-0.05432,-0.02686,-0.06775,-0.0119,-0.01968,0.01282,0.12207,-0.0412,-0.02029,0.00122,-0.05081
6.2775,0.12131,-0.07248,-0.02991,-0.05157,-0.03433,-0.05539,-0.07584,-0.0621,-0.01144,-0.01999,0.01266,0.09262,-0.04593,-0.02106,0.0032,-0.05188
6.278,0.09659,-0.09842,-0.03601,0.02197,-0.03342,-0.05478,-0.07477,-0.0412,-0.01022,-0.01999,0.01129,0.01938,-0.04898,-0.02121,0.00305,-0.05203
6.2785,0.07202,-0.11673,-0.04318,0.03693,-0.03204,-0.05356,-0.00656,-0.0029,-0.00916,-0.0206,0.00916,-0.03922,-0.04684,-0.01877,0.00351,-0.05234
6.279,0.05249,-0.11688,-0.05096,0.03113,-0.03067,-0.05127,0.0589,0.03479,-0.009,-0.02014,0.00809,-0.05066,-0.04059,-0.01633,0.00229,-0.05264
6.2795,0.04028,-0.10529,-0.06088,0.09277,-0.02991,-0.04944,0.06104,0.04913,-0.00916,-0.02029,0.00839,-0.03494,-0.0354,-0.01373,0.00214,-0.05219
6.28,0.03586,-0.0946,-0.0824,0.27679,-0.03021,-0.04822,0.02151,0.03845,-0.01038,-0.02167,0.00961,-0.02838,-0.03555,-0.0119,0.00366,-0.05127
6.2805,0.04044,-0.08682,-0.12192,0.4895,-0.03098,-0.0473,-0.00275,0.01862,-0.01221,-0.02136,0.00977,-0.0322,-0.03708,-0.01205,0.00519,-0.05157
6.281,0.05157,-0.07568,-0.15656,0.51788,-0.03265,-0.04623,0.00671,0.00549,-0.01358,-0.01999,0.00809,-0.01083,-0.03601,-0.01282,0.00641,-0.05524
6.2815,0.06546,-0.05814,-0.14679,0.29083,-0.03296,-0.04364,0.02441,-0.00137,-0.01511,-0.01923,0.00687,0.05585,-0.0322,-0.01266,0.00748,-0.06485
6.282,0.07446,-0.03464,-0.08942,0.02258,-0.03128,-0.0383,0.02869,-0.00549,-0.01648,-0.01892,0.00748,0.12878,-0.03006,-0.01297,0.00656,-0.07782
6.2825,0.07309,-0.00656,-0.02487,-0.03876,-0.02808,-0.03479,0.01999,-0.0061,-0.01709,-0.01907,0.00992,0.14252,-0.03143,-0.01343,0.00595,-0.08408
6.283,0.06516,0.0174,0.01099,0.06073,-0.02609,-0.03326,0.00824,-0.00061,-0.01709,-0.01938,0.01083,0.08087,-0.03281,-0.01648,0.00549,-0.07767
6.2835,0.05875,0.02899,0.02167,0.07492,-0.02548,-0.0354,-0.00198,0.00473,-0.01755,-0.02045,0.01114,-0.01465,-0.03372,-0.01999,0.00488,-0.06058
6.284,0.05997,0.02899,0.02991,-0.09003,-0.02579,-0.03708,-0.00748,0.00687,-0.0177,-0.02045,0.01312,-0.09506,-0.03387,-0.02502,0.00458,-0.04105
6.2845,0.06668,0.0235,0.04486,-0.28137,-0.02716,-0.03937,-0.01129,0.00626,-0.01648,-0.01877,0.01465,-0.14694,-0.03525,-0.03036,0.00443,-0.02365
6.285,0.07034,0.01923,0.05783,-0.33539,-0.0296,-0.0415,-0.01862,0.00488,-0.01511,-0.01801,0.01343,-0.18021,-0.03708,-0.03296,0.00702,-0.01038
6.2855,0.06577,0.01801,0.05066,-0.2774,-0.03311,-0.04456,-0.02884,0.0029,-0.0148,-0.01785,0.01022,-0.18906,-0.03616,-0.03342,0.01038,-0.009
6.286,0.05402,0.01511,0.02563,-0.22766,-0.03799,-0.04715,-0.04013,0.00015,-0.01511,-0.01801,0.00839,-0.15259,-0.03357,-0.03357,0.0119,-0.02396
6.2865,0.03891,0.00595,-0.00626,-0.2272,-0.04257,-0.0499,-0.05096,-0.00198,-0.0148,-0.01923,0.00931,-0.0705,-0.0322,-0.03525,0.01205,-0.04044
6.287,0.02686,-0.01022,-0.03143,-0.23544,-0.04272,-0.05142,-0.06195,-0.00198,-0.01328,-0.02045,0.0087,0.00656,-0.03387,-0.03662,0.01221,-0.04257
6.2875,0.01877,-0.02899,-0.04486,-0.23788,-0.03906,-0.05096,-0.07843,-0.00046,-0.01099,-0.02243,0.00549,0.02335,-0.03708,-0.03708,0.01083,-0.03143
6.288,0.01694,-0.04196,-0.04807,-0.26031,-0.03525,-0.04669,-0.09888,0.00046,-0.00778,-0.02274,0.00244,-0.01495,-0.03815,-0.0354,0.00992,-0.02396
6.2885,0.0235,-0.04822,-0.04349,-0.29556,-0.03296,-0.04044,-0.11597,-0.00046,-0.00305,-0.02014,0.0029,-0.05188,-0.03754,-0.03082,0.00885,-0.0264
6.289,0.03372,-0.04974,-0.03647,-0.29648,-0.03265,-0.03647,-0.12131,-0.00168,0.00183,-0.01709,0.00397,-0.05569,-0.03784,-0.02655,0.00916,-0.03143
6.2895,0.0386,-0.04883,-0.03098,-0.24368,-0.03159,-0.03662,-0.12024,-0.00046,0.0058,-0.01678,0.00504,-0.04257,-0.03906,-0.02396,0.00961,-0.03403
6.29,0.03403,-0.04578,-0.02792,-0.17044,-0.03113,-0.03922,-0.12314,0.00015,0.0061,-0.01755,0.00488,-0.03662,-0.03998,-0.02197,0.01083,-0.0354
6.2905,0.0235,-0.03998,-0.0296,-0.11703,-0.03159,-0.04181,-0.12939,-0.00153,0.00351,-0.01831,0.00336,-0.0322,-0.04196,-0.02075,0.0116,-0.03952
6.291,0.01221,-0.03418,-0.03693,-0.09277,-0.03357,-0.04379,-0.09857,-0.00214,-0.00107,-0.01877,0.00244,-0.02151,-0.0441,-0.01953,0.00977,-0.04395
6.2915,0.00366,-0.0325,-0.04517,-0.0824,-0.0354,-0.04562,-0.00244,0.00076,-0.00519,-0.01862,0.00015,-0.01221,-0.04623,-0.0206,0.00839,-0.04547
6.292,-0.0029,-0.03372,-0.04745,-0.06927,-0.03448,-0.04791,0.09949,0.0061,-0.00916,-0.01953,-0.00137,-0.01175,-0.04608,-0.02136,0.009,-0.0444
6.2925,-0.00687,-0.03708,-0.04471,-0.04288,-0.03418,-0.05081,0.10788,0.00931,-0.01297,-0.01923,-0.00122,-0.01892,-0.04471,-0.02258,0.01114,-0.0412
6.293,-0.0058,-0.04532,-0.03769,-0.00015,-0.03235,-0.05051,0.03067,0.00931,-0.01694,-0.01846,-0.00168,-0.02228,-0.04486,-0.02548,0.01175,-0.03784
6.2935,0.00153,-0.06287,-0.03387,0.04242,-0.03143,-0.0444,-0.02182,0.00916,-0.02243,-0.01968,-0.00183,-0.01694,-0.04654,-0.02716,0.01205,-0.0354
6.294,0.01038,-0.0943,-0.03906,0.05737,-0.03418,-0.0325,0.00168,0.00778,-0.02823,-0.02029,-0.00214,-0.00885,-0.04745,-0.02792,0.01221,-0.03479
6.2945,0.01297,-0.11658,-0.05966,0.02579,-0.03799,-0.02243,0.03235,0.00565,-0.03326,-0.02167,-0.00397,-0.00473,-0.04501,-0.0264,0.01297,-0.03723
6.295,0.00366,-0.11032,-0.09491,-0.04272,-0.04105,-0.01892,0.01099,0.00473,-0.03754,-0.02274,-0.00687,-0.00595,-0.04135,-0.02518,0.01114,-0.03708
6.2955,-0.01266,-0.07874,-0.12589,-0.11093,-0.04303,-0.02106,-0.02686,0.00443,-0.04196,-0.02136,-0.00854,-0.00687,-0.03754,-0.02365,0.00839,-0.02487
6.296,-0.02487,-0.03922,-0.1326,-0.14328,-0.04242,-0.0235,-0.0325,0.00229,-0.04395,-0.01877,-0.00839,-0.00793,-0.03235,-0.01968,0.0061,-0.00015
6.2965,-0.02899,-0.00183,-0.11032,-0.13611,-0.04288,-0.0267,-0.01053,-0.00046,-0.0444,-0.01907,-0.00778,-0.01022,-0.0267,-0.01419,0.00519,0.01984
6.297,-0.02869,0.02716,-0.07172,-0.09842,-0.04425,-0.03098,0.01953,-0.00137,-0.0412,-0.01984,-0.00809,-0.0177,-0.02243,-0.01205,0.00473,0.00534
6.2975,-0.03159,0.0444,-0.0325,-0.02609,-0.04608,-0.03677,0.06042,0.00275,-0.03372,-0.01938,-0.00641,-0.03357,-0.0206,-0.0116,0.00702,-0.05814
6.298,-0.03876,0.04059,-0.00183,0.06516,-0.04745,-0.04272,0.09766,0.00916,-0.02441,-0.01892,-0.00366,-0.05905,-0.02121,-0.01404,0.00839,-0.15228
6.2985,-0.04684,0.01083,0.01984,0.13794,-0.04807,-0.05219,0.09598,0.01236,-0.01633,-0.01846,-0.00214,-0.08392,-0.02136,-0.01541,0.00931,-0.23102
6.299,-0.05096,-0.0293,0.03448,0.1973,-0.0473,-0.06744,0.04013,0.01022,-0.01266,-0.01907,-0.00305,-0.08987,-0.02106,-0.01495,0.01114,-0.25345
6.2995,-0.04761,-0.06485,0.0412,0.31693,-0.04593,-0.09125,-0.03128,0.00809,-0.01282,-0.01984,-0.00534,-0.07935,-0.02182,-0.01511,0.01434,-0.21469
6.3,-0.03876,-0.08942,0.03983,0.5127,-0.04211,-0.11719,-0.07233,0.00717,-0.01465,-0.01892,-0.00656,-0.06775,-0.0238,-0.01511,0.0148,-0.13992
6.3005,-0.03067,-0.1033,0.03387,0.63354,-0.03784,-0.13245,-0.07584,0.00626,-0.01495,-0.0174,-0.00641,-0.05859,-0.02747,-0.01587,0.01419,-0.05585
6.301,-0.01999,-0.11093,0.0264,0.50568,-0.03479,-0.12421,-0.06744,0.00626,-0.01373,-0.01617,-0.00656,-0.04028,-0.02945,-0.0174,0.01205,0.0087
6.3015,-0.00107,-0.11047,0.02045,0.19653,-0.03174,-0.09933,-0.06378,0.00565,-0.01251,-0.01678,-0.00931,-0.01541,-0.02792,-0.0177,0.01038,0.01923
6.302,0.02335,-0.10544,0.01221,-0.00412,-0.0293,-0.07492,-0.04578,0.00732,-0.01068,-0.01694,-0.01114,0.00015,-0.02548,-0.0174,0.00931,-0.03906
6.3025,0.03937,-0.10544,-0.00122,0.07675,-0.02625,-0.06042,0.01602,0.00961,-0.009,-0.01724,-0.01175,0.01053,-0.02502,-0.01648,0.00931,-0.12848
6.303,0.04013,-0.10971,-0.01526,0.33066,-0.02579,-0.05051,0.10376,0.01099,-0.00916,-0.01663,-0.01068,0.04425,-0.02625,-0.01678,0.01297,-0.17471
6.3035,0.03494,-0.10315,-0.02792,0.52399,-0.02579,-0.04349,0.14435,0.00854,-0.00885,-0.01724,-0.01129,0.09888,-0.0267,-0.01724,0.01862,-0.13168
6.304,0.03479,-0.07339,-0.0354,0.50995,-0.02548,-0.04044,0.10269,0.00275,-0.00778,-0.01816,-0.01205,0.1207,-0.02838,-0.0177,0.02319,-0.01862
6.3045,0.03845,-0.0322,-0.03723,0.29877,-0.02441,-0.04089,0.03693,-0.0029,-0.00656,-0.01953,-0.01556,0.06973,-0.03174,-0.01801,0.02579,0.08942
6.305,0.03769,-0.00076,-0.03708,0.00854,-0.02502,-0.04135,0.01373,-0.00595,-0.00656,-0.01999,-0.01877,-0.01602,-0.03143,-0.01877,0.02136,0.13275
6.3055,0.0325,0.01709,-0.03799,-0.23987,-0.02762,-0.04196,0.02319,-0.00809,-0.00824,-0.0206,-0.01953,-0.06454,-0.02701,-0.02045,0.01328,0.12146
6.306,0.02792,0.03128,-0.0415,-0.40115,-0.02975,-0.0412,0.01801,-0.01022,-0.00931,-0.02014,-0.01801,-0.06149,-0.02228,-0.02197,0.00427,0.11566
6.3065,0.02518,0.04608,-0.04715,-0.48676,-0.0293,-0.04181,-0.00885,-0.0145,-0.00809,-0.01938,-0.01694,-0.04578,-0.02258,-0.02243,-0.00275,0.13519
6.307,0.01907,0.05341,-0.05524,-0.5098,-0.0293,-0.04364,-0.02991,-0.02029,-0.00809,-0.01709,-0.01633,-0.03708,-0.02747,-0.02075,-0.00854,0.13763
6.3075,0.00885,0.04272,-0.06363,-0.47272,-0.03006,-0.04669,-0.04639,-0.02411,-0.00946,-0.0177,-0.01694,-0.01755,-0.03204,-0.01877,-0.01266,0.08911
6.308,0.00198,0.01724,-0.06866,-0.401,-0.03006,-0.04745,-0.06805,-0.02487,-0.01328,-0.01724,-0.01816,0.02518,-0.0325,-0.01663,-0.01358,0.01907
6.3085,0.00671,-0.00824,-0.06577,-0.34622,-0.0296,-0.04654,-0.09018,-0.02243,-0.01617,-0.01785,-0.02014,0.06393,-0.02884,-0.0148,-0.01099,-0.02594
6.309,0.02106,-0.01816,-0.05875,-0.33585,-0.02838,-0.04883,-0.09048,-0.02045,-0.01678,-0.01801,-0.02213,0.06378,-0.02472,-0.01312,-0.00626,-0.03571
6.3095,0.03845,-0.01541,-0.05478,-0.35339,-0.02838,-0.05707,-0.06256,-0.01755,-0.0174,-0.01678,-0.02167,0.03204,-0.02289,-0.0116,-0.00061,-0.03311
6.31,0.05005,-0.0145,-0.05737,-0.3569,-0.02975,-0.065,-0.03418,-0.01251,-0.01816,-0.01541,-0.01968,-0.00076,-0.02258,-0.01038,0.00336,-0.03403
6.3105,0.05325,-0.02243,-0.06454,-0.31815,-0.02975,-0.05814,-0.02319,-0.0061,-0.01801,-0.01511,-0.01755,-0.02625,-0.0238,-0.01099,0.00565,-0.03738
6.311,0.04959,-0.03281,-0.06989,-0.23911,-0.02884,-0.03433,-0.02167,0.00122,-0.01617,-0.01633,-0.01663,-0.05417,-0.02563,-0.01266,0.00641,-0.0412
6.3115,0.04028,-0.03479,-0.06821,-0.14542,-0.02777,-0.00839,-0.01556,0.01007,-0.01389,-0.01602,-0.01511,-0.07446,-0.02838,-0.01495,0.00824,-0.04868
6.312,0.02808,-0.02808,-0.05951,-0.07202,-0.02853,0.00046,-0.00275,0.01938,-0.01328,-0.01511,-0.01434,-0.06699,-0.03082,-0.01602,0.01297,-0.05661
6.3125,0.01709,-0.01968,-0.04623,-0.03967,-0.03265,-0.00671,0.01022,0.02579,-0.01389,-0.01389,-0.01465,-0.03098,-0.03159,-0.01663,0.0174,-0.05676
6.313,0.00916,-0.01465,-0.03342,-0.0386,-0.0386,-0.01526,0.02045,0.0264,-0.01373,-0.01587,-0.01755,0.01175,-0.03235,-0.01709,0.01755,-0.04944
6.3135,0.0,-0.01678,-0.0238,-0.03891,-0.04425,-0.01312,0.01831,0.02213,-0.01389,-0.01816,-0.01892,0.04959,-0.03281,-0.01892,0.01312,-0.04471
6.314,-0.01404,-0.02853,-0.01907,-0.02426,-0.04639,-0.00183,0.00031,0.01602,-0.01602,-0.01923,-0.0174,0.07858,-0.03372,-0.0206,0.00778,-0.05203
6.3145,-0.03159,-0.04745,-0.01862,-0.00168,-0.04608,0.00885,-0.02808,0.0061,-0.01816,-0.01923,-0.01511,0.08133,-0.03464,-0.02182,0.00427,-0.07065
6.315,-0.04898,-0.06653,-0.01938,0.01511,-0.04211,0.01022,-0.04547,-0.00854,-0.01968,-0.01862,-0.01526,0.04257,-0.03555,-0.02335,0.00549,-0.09293
6.3155,-0.06241,-0.08789,-0.02136,0.02396,-0.03906,0.00381,-0.04593,-0.02701,-0.01892,-0.01907,-0.01892,-0.00809,-0.0351,-0.02487,0.00778,-0.112
6.316,-0.06989,-0.10834,-0.02274,0.03418,-0.03708,-0.00854,-0.04578,-0.04227,-0.01953,-0.01938,-0.02213,-0.0087,-0.03387,-0.02548,0.009,-0.12604
6.3165,-0.06927,-0.10941,-0.02289,0.0473,-0.0386,-0.02563,-0.05798,-0.04883,-0.02258,-0.01877,-0.02228,0.06134,-0.03174,-0.02365,0.00992,-0.13885
6.317,-0.06409,-0.07843,-0.02243,0.05859,-0.04196,-0.05051,-0.07919,-0.04623,-0.02716,-0.01801,-0.02121,0.13,-0.02975,-0.01984,0.01007,-0.15121
6.3175,-0.06088,-0.02808,-0.02335,0.06454,-0.04517,-0.0795,-0.09598,-0.03845,-0.0296,-0.01709,-0.02136,0.12314,-0.02884,-0.01846,0.00961,-0.14938
6.318,-0.06241,0.00961,-0.03448,0.06638,-0.0444,-0.1059,-0.10162,-0.03174,-0.02884,-0.01694,-0.02243,0.05646,-0.03098,-0.01999,0.01068,-0.11597
6.3185,-0.06256,0.01419,-0.065,0.06927,-0.03983,-0.1239,-0.0975,-0.02472,-0.02609,-0.01755,-0.02319,0.00534,-0.03494,-0.02045,0.01251,-0.05188
6.319,-0.05905,-0.009,-0.11337,0.07446,-0.03357,-0.13428,-0.09064,-0.01587,-0.02243,-0.01801,-0.02243,-0.00046,-0.03693,-0.01953,0.01389,0.00473
6.3195,-0.05157,-0.03677,-0.15472,0.07401,-0.03189,-0.13397,-0.08408,-0.00641,-0.02029,-0.0177,-0.02014,0.01358,-0.03555,-0.01755,0.01465,0.00015
6.32,-0.04379,-0.05417,-0.16098,0.04639,-0.03159,-0.12131,-0.07736,0.00015,-0.01907,-0.01648,-0.01801,0.02228,-0.03281,-0.01678,0.01511,-0.06073
6.3205,-0.03708,-0.06027,-0.1297,-0.01404,-0.0322,-0.1004,-0.06851,0.0029,-0.0177,-0.01572,-0.01556,0.02106,-0.03036,-0.01678,0.01358,-0.09018
6.321,-0.03113,-0.05722,-0.07828,-0.06775,-0.02991,-0.07935,-0.04669,0.00458,-0.01511,-0.01572,-0.01633,0.01816,-0.0296,-0.01785,0.01633,-0.02274
6.3215,-0.02411,-0.04333,-0.02136,-0.07233,-0.02899,-0.06363,0.00732,0.00443,-0.01114,-0.01648,-0.01511,0.01678,-0.0293,-0.01816,0.02075,0.07462
6.322,-0.01846,-0.01984,0.03555,-0.03723,-0.02914,-0.05508,0.07721,-0.00244,-0.0087,-0.01877,-0.01434,0.01663,-0.03021,-0.0177,0.02258,0.08789
6.3225,-0.02197,0.00351,0.08591,-0.00427,-0.03067,-0.04898,0.10712,-0.0148,-0.00885,-0.02045,-0.01541,0.01785,-0.03189,-0.01724,0.01816,0.01389
6.323,-0.03616,0.02075,0.11383,0.04715,-0.03098,-0.04608,0.06104,-0.02365,-0.00946,-0.02136,-0.01602,0.0177,-0.03342,-0.01587,0.00854,-0.05524
6.3235,-0.05249,0.02914,0.11032,0.19409,-0.03067,-0.04349,-0.01892,-0.02075,-0.00885,-0.02197,-0.01556,0.01434,-0.03387,-0.01541,0.00092,-0.0647
6.324,-0.06027,0.02975,0.08636,0.43472,-0.03235,-0.04211,-0.06622,-0.0087,-0.00839,-0.02121,-0.01556,0.009,-0.03403,-0.01663,-0.00275,-0.047
6.3245,-0.05875,0.02045,0.05386,0.6044,-0.03525,-0.0386,-0.06317,0.0,-0.00961,-0.01923,-0.01358,0.00504,-0.0325,-0.01785,-0.00458,-0.04074
6.325,-0.05447,0.00427,0.00702,0.52841,-0.03525,-0.03265,-0.03906,-0.00092,-0.0116,-0.01831,-0.01328,0.00473,-0.03113,-0.01923,-0.00443,-0.04471
6.3255,-0.05066,-0.0119,-0.06805,0.24399,-0.03326,-0.02792,-0.02487,-0.00778,-0.0148,-0.01862,-0.01419,0.00458,-0.03036,-0.02075,-0.00351,-0.04044
6.326,-0.04593,-0.0235,-0.15915,-0.0206,-0.0325,-0.02884,-0.02884,-0.01709,-0.01816,-0.01785,-0.01282,0.00397,-0.03006,-0.02197,-0.00183,-0.02792
6.3265,-0.04105,-0.03555,-0.23682,-0.0972,-0.03189,-0.03265,-0.03693,-0.02502,-0.02228,-0.01877,-0.01144,0.00092,-0.03128,-0.02197,0.00015,-0.01923
6.327,-0.03769,-0.0531,-0.29831,-0.02121,-0.0325,-0.03647,-0.02655,-0.02808,-0.02548,-0.01846,-0.01373,-0.00107,-0.03235,-0.02304,0.00351,-0.02014
6.3275,-0.0386,-0.07126,-0.35736,0.09399,-0.03326,-0.03784,0.01175,-0.02396,-0.02579,-0.01892,-0.01358,-0.00198,-0.03342,-0.0206,0.0061,-0.02686
6.328,-0.04272,-0.08423,-0.39307,0.21561,-0.03326,-0.03723,0.05402,-0.01434,-0.02411,-0.01892,-0.01068,-0.00305,-0.03326,-0.0177,0.00732,-0.03357
6.3285,-0.04547,-0.08728,-0.345,0.35049,-0.03433,-0.03357,0.06393,-0.00732,-0.02228,-0.01862,-0.00626,-0.00351,-0.03281,-0.01617,0.00916,-0.04395
6.329,-0.04471,-0.08347,-0.18478,0.39764,-0.03494,-0.03067,0.03601,-0.00656,-0.0209,-0.01846,-0.00198,-0.00351,-0.03342,-0.01648,0.01205,-0.05646
6.3295,-0.03983,-0.07538,0.02197,0.22339,-0.03342,-0.03098,0.00305,-0.00824,-0.01801,-0.01862,0.0,-0.00122,-0.03387,-0.0174,0.01297,-0.06851
6.33,-0.03418,-0.06424,0.18219,-0.09094,-0.03189,-0.03281,-0.00687,-0.0061,-0.0145,-0.01938,-0.00015,0.00137,-0.03387,-0.01617,0.01419,-0.07614
6.3305,-0.03204,-0.0563,0.26031,-0.26566,-0.02945,-0.03494,0.00076,0.00031,-0.0116,-0.01938,-0.00107,0.0029,-0.03174,-0.01358,0.01328,-0.07492
6.331,-0.03311,-0.06088,0.29022,-0.18494,-0.02579,-0.03372,0.01358,0.0029,-0.01038,-0.01877,0.00015,0.00137,-0.02899,-0.0119,0.01144,-0.06821
6.3315,-0.0322,-0.08026,0.30106,-0.03799,-0.02213,-0.03387,0.02869,-0.00214,-0.00992,-0.01709,0.00259,0.00122,-0.02701,-0.01221,0.01038,-0.06104
6.332,-0.03021,-0.10117,0.28458,-0.02411,-0.01923,-0.03708,0.04074,-0.00992,-0.00824,-0.01724,0.00336,0.00641,-0.02747,-0.01343,0.00793,-0.05722
6.3325,-0.03082,-0.10956,0.2359,-0.10361,-0.01968,-0.03754,0.03708,-0.01389,-0.00641,-0.01755,0.0029,0.01389,-0.0293,-0.01465,0.00656,-0.05661
6.333,-0.03418,-0.10635,0.17532,-0.15656,-0.02045,-0.03891,0.01892,-0.0119,-0.0058,-0.01907,0.00107,0.01877,-0.03189,-0.01556,0.00443,-0.05737
6.3335,-0.03616,-0.09705,0.12726,-0.19302,-0.02182,-0.04105,0.00198,-0.00809,-0.00671,-0.02045,0.00092,0.01678,-0.03372,-0.01617,0.00381,-0.05753
6.334,-0.02899,-0.08713,0.08987,-0.271,-0.0235,-0.04608,-0.00458,-0.00473,-0.00793,-0.02075,0.0,0.01205,-0.03342,-0.01633,0.00488,-0.05783
6.3345,-0.0119,-0.07462,0.0531,-0.33401,-0.02563,-0.0528,-0.01083,-0.00198,-0.00854,-0.0206,-0.00168,0.00839,-0.03281,-0.01663,0.00671,-0.0563
6.335,0.00824,-0.06165,0.02029,-0.28397,-0.02625,-0.05737,-0.01953,-0.00137,-0.00977,-0.02121,-0.00275,0.009,-0.03113,-0.01816,0.00854,-0.05493
6.3355,0.02304,-0.05356,0.00092,-0.13962,-0.02594,-0.05829,-0.02426,-0.00229,-0.01129,-0.02136,-0.00443,0.01312,-0.02975,-0.01953,0.00961,-0.0528
6.336,0.0296,-0.04944,-0.00763,-0.00259,-0.02502,-0.05341,-0.02457,-0.00198,-0.01205,-0.01923,-0.00732,0.01709,-0.02975,-0.02106,0.01007,-0.0502
6.3365,0.03006,-0.04623,-0.01526,0.10208,-0.0235,-0.04898,-0.02716,-0.00122,-0.01053,-0.01953,-0.00946,0.01633,-0.03189,-0.0206,0.00854,-0.04898
6.337,0.02945,-0.04211,-0.03311,0.23209,-0.02319,-0.04608,-0.02975,-0.00122,-0.00977,-0.02106,-0.00977,0.00977,-0.03372,-0.01999,0.00702,-0.04837
6.3375,0.02792,-0.03601,-0.05905,0.36209,-0.02426,-0.04669,-0.02884,-0.00153,-0.01343,-0.02319,-0.00916,0.00092,-0.03296,-0.02045,0.0058,-0.04959
6.338,0.02625,-0.02945,-0.0885,0.36469,-0.02319,-0.04486,-0.0238,-0.00107,-0.0206,-0.0235,-0.00931,-0.0029,-0.03128,-0.02045,0.00687,-0.05005
6.3385,0.02457,-0.02075,-0.11444,0.19302,-0.02365,-0.04211,-0.02045,-0.00061,-0.02289,-0.02274,-0.01038,-0.0029,-0.02853,-0.02045,0.00992,-0.04959
6.339,0.02106,-0.01312,-0.12421,-0.02319,-0.02533,-0.03906,-0.02274,0.0,-0.01877,-0.02106,-0.0087,-0.00366,-0.02884,-0.01953,0.01022,-0.04929
6.3395,0.01678,-0.01038,-0.11246,-0.12177,-0.02609,-0.03647,-0.02563,0.00015,-0.01389,-0.02106,-0.00549,-0.01007,-0.0296,-0.01984,0.01083,-0.0531
6.34,0.01251,-0.0148,-0.0914,-0.09369,-0.0264,-0.0322,-0.02792,-0.00046,-0.01282,-0.02106,-0.00214,-0.01862,-0.02853,-0.02014,0.0116,-0.05997
6.3405,0.00732,-0.02594,-0.07553,-0.04364,-0.02792,-0.02792,-0.02686,-0.00122,-0.01389,-0.02121,-0.00366,-0.03265,-0.02808,-0.02121,0.01221,-0.06393
6.341,0.00046,-0.04807,-0.06882,-0.0412,-0.02914,-0.02411,-0.02319,0.0,-0.0148,-0.0209,-0.00473,-0.04913,-0.0296,-0.02258,0.01236,-0.0592
6.3415,-0.00595,-0.08087,-0.06088,-0.07141,-0.0293,-0.02548,-0.02045,0.00351,-0.01328,-0.02045,-0.00748,-0.06409,-0.03326,-0.02441,0.01175,-0.05051
6.342,-0.00748,-0.1178,-0.0499,-0.10513,-0.03052,-0.03204,-0.0206,0.0061,-0.0116,-0.01968,-0.00885,-0.05951,-0.03525,-0.02502,0.01205,-0.04547
6.3425,-0.00168,-0.16296,-0.0412,-0.14145,-0.03265,-0.04013,-0.02106,0.00595,-0.00946,-0.01892,-0.00641,-0.02045,-0.03494,-0.02274,0.01205,-0.0441
6.343,0.00824,-0.21637,-0.05692,-0.18005,-0.03571,-0.04608,-0.02075,0.00565,-0.00763,-0.0206,-0.0029,0.04379,-0.0325,-0.01892,0.01083,-0.04044
6.3435,0.01755,-0.24719,-0.11902,-0.20569,-0.0383,-0.05096,-0.02045,0.00427,-0.00671,-0.02075,-0.00092,0.09216,-0.03021,-0.01694,0.00763,-0.04272
6.344,0.01984,-0.224,-0.215,-0.20004,-0.03891,-0.05646,-0.0209,0.00336,-0.00687,-0.01984,-0.00229,0.09842,-0.02975,-0.01495,0.00549,-0.05997
6.3445,0.01099,-0.15823,-0.29175,-0.16205,-0.03922,-0.05997,-0.02502,-0.00031,-0.00916,-0.01892,-0.00549,0.0798,-0.03052,-0.01511,0.00168,-0.07584
6.345,-0.00351,-0.09537,-0.28946,-0.0943,-0.03952,-0.06256,-0.03174,-0.00565,-0.00992,-0.01968,-0.0061,0.06546,-0.03067,-0.01526,0.00092,-0.06927
6.3455,-0.01251,-0.05524,-0.19928,-0.00259,-0.04181,-0.06317,-0.03799,-0.01007,-0.01038,-0.02029,-0.0058,0.05447,-0.03052,-0.01526,0.00153,-0.04639
6.346,-0.01541,-0.01816,-0.07187,0.09262,-0.0444,-0.06332,-0.04181,-0.00763,-0.01068,-0.02106,-0.00214,0.03082,-0.0296,-0.01556,0.00397,-0.02701
6.3465,-0.02045,0.02686,0.03708,0.14099,-0.04654,-0.06241,-0.04547,-0.00046,-0.01129,-0.01984,0.00137,-0.00336,-0.02853,-0.01495,0.00656,-0.01495
6.347,-0.03311,0.06714,0.1088,0.08774,-0.04715,-0.06287,-0.04959,0.0061,-0.01205,-0.01968,0.00122,-0.02762,-0.02792,-0.01434,0.00824,-0.00336
6.3475,-0.04562,0.08484,0.14908,-0.06927,-0.04578,-0.06424,-0.0528,0.00809,-0.0119,-0.02106,-0.00092,-0.03098,-0.02808,-0.01358,0.00732,0.00626
6.348,-0.05325,0.08591,0.15198,-0.25085,-0.04501,-0.06577,-0.0502,0.00961,-0.01114,-0.02197,-0.00275,-0.02151,-0.02899,-0.0145,0.00351,0.00504
6.3485,-0.05829,0.08148,0.10498,-0.37384,-0.04349,-0.06561,-0.03784,0.01434,-0.00961,-0.02106,-0.00061,-0.01251,-0.02853,-0.0145,-0.00275,-0.00748
6.349,-0.06195,0.07599,0.01907,-0.43274,-0.03906,-0.06302,-0.01465,0.02014,-0.00809,-0.01846,0.00168,-0.00671,-0.0267,-0.01541,-0.00977,-0.02182
6.3495,-0.05386,0.0705,-0.06058,-0.41794,-0.03632,-0.05722,0.01801,0.0206,-0.00763,-0.01724,0.00214,-0.00259,-0.02426,-0.01572,-0.01221,-0.02838
6.35,-0.0267,0.06531,-0.09674,-0.20752,-0.03098,-0.04745,0.05173,0.01572,-0.00885,-0.01602,0.00183,0.00107,-0.02457,-0.01587,-0.01099,-0.02853
6.3505,0.00916,0.05173,-0.08713,0.27252,-0.02747,-0.03632,0.06821,0.01129,-0.00916,-0.01572,0.00244,0.00137,-0.02625,-0.01617,-0.00351,-0.02808
6.351,0.03555,0.02289,-0.05249,0.77148,-0.02243,-0.02838,0.05951,0.01068,-0.00763,-0.01526,0.00275,-0.00137,-0.02716,-0.01602,0.00397,-0.02762
6.3515,0.047,-0.02228,-0.01953,0.88196,-0.0209,-0.03036,0.03601,0.01328,-0.00641,-0.01434,0.00137,-0.00397,-0.02472,-0.01617,0.01205,-0.02701
6.352,0.04608,-0.07309,-0.00183,0.5455,-0.02335,-0.03616,0.01099,0.01297,-0.00732,-0.01343,-0.00092,-0.00488,-0.02304,-0.01602,0.0206,-0.02777
6.3525,0.03479,-0.11597,-0.00153,0.1622,-0.03098,-0.04257,-0.00565,0.00839,-0.01068,-0.01434,-0.00366,-0.0058,-0.02335,-0.01755,0.02777,-0.03281
6.353,0.01846,-0.13275,-0.01633,0.05539,-0.03647,-0.04562,-0.01221,0.00183,-0.0116,-0.01495,-0.00534,-0.00732,-0.02563,-0.01862,0.03067,-0.03876
6.3535,0.00153,-0.11353,-0.03891,0.09232,-0.03769,-0.04547,-0.01221,-0.00214,-0.0087,-0.01648,-0.00549,-0.00885,-0.02686,-0.02014,0.02823,-0.04181
6.354,-0.0145,-0.0676,-0.05875,-0.01022,-0.03586,-0.04776,-0.01389,-0.00153,-0.00473,-0.01801,-0.00412,-0.00885,-0.02823,-0.02167,0.01907,-0.04166
6.3545,-0.03265,-0.01633,-0.06943,-0.22888,-0.03601,-0.05005,-0.01389,0.00061,-0.00397,-0.01862,-0.00305,-0.00839,-0.03021,-0.02213,0.01144,-0.0383
6.355,-0.05127,0.0206,-0.06989,-0.32669,-0.03632,-0.05203,-0.01373,0.00305,-0.00717,-0.01846,-0.00229,-0.00778,-0.03296,-0.02106,0.00839,-0.03464
