time,RectFemL,VastusMedL,VastusLatL,TibAntL,HamMedL,HamLatL,GastroMedL,GastroLatL,RectFemR,VastusMedR,VastusLatR,TibAntR,HamMedR,HamLatR,GastroMedR,GastroLatR
9.23,-0.00839,-0.03357,0.01404,-0.01434,-0.01831,0.01297,0.01938,-0.0119,-0.01648,-0.0322,-0.01511,0.00885,-0.02777,-0.01511,0.02853,-0.08881
9.2305,-0.00763,-0.03235,-0.06271,-0.01358,-0.02258,0.00717,0.0415,-0.01312,-0.01572,-0.03235,0.00488,0.00305,-0.03052,-0.01663,-0.01175,0.03281
9.231,-0.00458,-0.03296,-0.11017,-0.01144,-0.02411,-0.00061,0.0589,-0.01129,-0.01404,-0.03082,0.02075,0.0029,-0.03265,-0.01984,-0.04196,0.26169
9.2315,-0.00137,-0.03372,-0.13046,-0.01038,-0.02731,-0.00473,0.04837,-0.00854,-0.01007,-0.03342,0.01953,0.00687,-0.0322,-0.02045,-0.04364,0.45532
9.232,-0.00015,-0.03326,-0.13687,-0.01144,-0.02899,-0.00778,0.02167,-0.00671,-0.00214,-0.04318,0.00183,0.01114,-0.0296,-0.0174,0.00671,0.40115
9.2325,-0.00153,-0.03311,-0.12924,-0.01328,-0.02014,-0.01373,0.0,-0.0061,0.00732,-0.05417,-0.01923,0.01144,-0.02945,-0.01328,0.07278,0.13992
9.233,-0.00412,-0.03555,-0.10422,-0.01205,0.0,-0.01984,-0.00687,-0.00732,0.0145,-0.05676,-0.0322,0.00839,-0.03174,-0.01129,0.09003,-0.05112
9.2335,-0.00732,-0.04211,-0.0676,-0.00702,0.03387,-0.02396,-0.00732,-0.00824,0.01541,-0.05173,-0.0383,0.00458,-0.0351,-0.01129,0.04257,-0.03464
9.234,-0.01022,-0.04868,-0.03403,0.00122,0.08255,-0.02777,-0.00854,-0.00702,0.01251,-0.04745,-0.04318,0.00061,-0.03769,-0.01373,-0.03113,0.04837
9.2345,-0.01251,-0.05417,-0.01511,0.0058,0.13336,-0.03326,-0.01373,-0.00443,0.01022,-0.04852,-0.04303,-0.00092,-0.03952,-0.01755,-0.08942,0.03937
9.235,-0.0148,-0.05569,-0.0148,0.00427,0.16739,-0.03845,-0.02243,-0.00336,0.00961,-0.04974,-0.03372,0.0,-0.04105,-0.02136,-0.12161,-0.00854
9.2355,-0.01495,-0.05356,-0.02808,-0.00153,0.17807,-0.03952,-0.03128,-0.00275,0.01007,-0.04654,-0.01831,0.00137,-0.04288,-0.02365,-0.12405,0.02289
9.236,-0.01404,-0.05066,-0.04059,-0.00473,0.17639,-0.03433,-0.0383,-0.00183,0.00748,-0.03983,-0.00092,-0.00092,-0.04456,-0.0264,-0.09644,0.09308
9.2365,-0.0145,-0.04883,-0.04364,-0.00336,0.17258,-0.02792,-0.04196,-0.00046,0.00381,-0.03387,0.01312,-0.00656,-0.04501,-0.02716,-0.05951,0.07111
9.237,-0.01846,-0.04684,-0.0386,0.00107,0.16449,-0.02304,-0.04486,-0.00015,0.00214,-0.03021,0.01266,-0.01099,-0.04272,-0.02518,-0.04349,-0.04562
9.2375,-0.02487,-0.04227,-0.03662,0.00519,0.14084,-0.02167,-0.0502,-0.00153,0.00122,-0.02396,-0.0087,-0.01099,-0.03967,-0.02106,-0.05005,-0.13474
9.238,-0.03021,-0.0354,-0.04044,0.00671,0.08743,-0.02258,-0.05524,-0.00229,-0.00061,-0.01205,-0.03769,-0.00641,-0.03799,-0.01709,-0.0351,-0.12802
9.2385,-0.03265,-0.02899,-0.04486,0.00504,-0.00671,-0.02792,-0.05264,-0.00198,-0.00366,0.00214,-0.04913,0.00183,-0.03738,-0.01404,0.04318,-0.0679
9.239,-0.03418,-0.02579,-0.04395,0.00153,-0.1387,-0.04288,-0.04089,-0.00046,-0.00671,0.01694,-0.03693,0.0087,-0.03601,-0.01282,0.16708,-0.0148
9.2395,-0.03418,-0.02396,-0.04227,-0.00183,-0.27298,-0.07339,-0.03464,0.00061,-0.01038,0.03098,-0.01862,0.00839,-0.0322,-0.01144,0.25024,0.02518
9.24,-0.0325,-0.02365,-0.04349,-0.0029,-0.35843,-0.11551,-0.04333,0.00244,-0.01755,0.04715,-0.01144,0.0,-0.02777,-0.01007,0.22293,0.05356
9.2405,-0.02975,-0.02472,-0.0473,-0.00305,-0.36163,-0.14771,-0.04456,0.00427,-0.02731,0.06073,-0.01724,-0.01221,-0.02533,-0.01007,0.12009,0.04929
9.241,-0.0264,-0.02792,-0.04959,-0.00488,-0.29297,-0.15396,-0.01175,0.00473,-0.03769,0.06058,-0.02823,-0.02045,-0.0264,-0.01312,0.04166,0.00259
9.2415,-0.02579,-0.0322,-0.04593,-0.0058,-0.19547,-0.12924,0.03418,0.00351,-0.04379,0.04288,-0.0473,-0.01938,-0.02899,-0.01724,0.07538,-0.04791
9.242,-0.02579,-0.0383,-0.03937,0.00671,-0.11841,-0.09995,0.04318,-0.00015,-0.04456,0.01541,-0.07477,-0.01175,-0.03052,-0.0206,0.19867,-0.05859
9.2425,-0.02502,-0.05035,-0.03387,0.03571,-0.07584,-0.07889,0.00443,-0.00183,-0.04105,-0.00931,-0.09872,-0.00305,-0.03036,-0.02167,0.27771,-0.03677
9.243,-0.02182,-0.06699,-0.03143,0.065,-0.04547,-0.05768,-0.03876,0.0,-0.03906,-0.03098,-0.10086,0.00244,-0.03082,-0.02029,0.20966,-0.02823
9.2435,-0.01846,-0.08301,-0.03098,0.07263,-0.00305,-0.03189,-0.05875,0.00244,-0.04211,-0.05417,-0.07477,0.0058,-0.03067,-0.01663,0.04791,-0.04532
9.244,-0.0148,-0.08728,-0.02792,0.05325,0.04211,-0.00839,-0.07156,0.00244,-0.05127,-0.0795,-0.03464,0.00824,-0.03021,-0.01556,-0.07385,-0.05585
9.2445,-0.01099,-0.07767,-0.0235,0.02625,0.05692,0.00351,-0.09583,0.00183,-0.06195,-0.10345,-0.00153,0.01175,-0.0293,-0.0145,-0.09735,-0.04395
9.245,-0.01038,-0.06393,-0.02045,0.00931,0.02533,0.00336,-0.11292,0.00198,-0.0708,-0.12802,0.01648,0.01465,-0.02869,-0.01556,-0.09735,-0.03525
9.2455,-0.01251,-0.05157,-0.02319,-0.00229,-0.02289,-0.00092,-0.09384,0.00244,-0.07507,-0.14771,0.02533,0.01556,-0.02853,-0.01846,-0.11978,-0.05493
9.246,-0.01495,-0.04349,-0.0267,-0.02258,-0.03799,0.00107,-0.04578,0.00153,-0.07355,-0.15411,0.03021,0.01343,-0.02884,-0.02075,-0.1265,-0.08881
9.2465,-0.01785,-0.03601,-0.03006,-0.05692,-0.00595,0.00946,-0.01099,0.0,-0.06454,-0.13779,0.02945,0.00717,-0.03082,-0.02106,-0.06836,-0.10574
9.247,-0.01877,-0.02945,-0.02533,-0.0914,0.04562,0.01801,-0.01572,-0.00137,-0.04654,-0.09308,0.01816,-0.00092,-0.03143,-0.0209,0.02289,-0.0946
9.2475,-0.0177,-0.02472,-0.01175,-0.10941,0.07645,0.02441,-0.04211,-0.00153,-0.02487,-0.02213,0.00549,-0.0061,-0.02975,-0.02075,0.0766,-0.07004
9.248,-0.01801,-0.02304,0.01038,-0.10742,0.06805,0.02487,-0.05646,-0.00061,-0.01053,0.06927,0.00565,-0.00443,-0.02655,-0.02121,0.0589,-0.05219
9.2485,-0.02075,-0.02365,0.02579,-0.09659,0.02762,0.00748,-0.04242,0.00061,-0.00793,0.15823,0.01938,0.00229,-0.02426,-0.01999,0.01297,-0.04715
9.249,-0.02701,-0.02533,0.0264,-0.08957,-0.01526,-0.04135,-0.01038,0.00183,-0.01099,0.2124,0.03418,0.00824,-0.02396,-0.01663,-0.01526,-0.04852
9.2495,-0.03128,-0.02518,0.01663,-0.08835,-0.02777,-0.11261,0.01495,0.00244,-0.00656,0.20752,0.03677,0.00946,-0.02457,-0.01343,-0.01892,-0.04257
9.25,-0.03067,-0.02487,0.00488,-0.0737,-0.00168,-0.16464,0.0209,0.00122,0.01205,0.15015,0.02609,0.00809,-0.02686,-0.01251,-0.01434,-0.02975
9.2505,-0.02792,-0.02762,-0.00717,-0.02975,0.02792,-0.16647,0.01572,-0.00122,0.03525,0.07523,0.00885,0.00656,-0.03204,-0.01526,-0.01389,-0.01968
9.251,-0.02548,-0.03357,-0.02579,0.03372,0.01266,-0.12802,0.01511,-0.00244,0.05249,0.01663,-0.00793,0.00687,-0.03723,-0.01846,-0.01312,-0.02518
9.2515,-0.0235,-0.03967,-0.04822,0.0766,-0.05341,-0.09186,0.02121,-0.00214,0.05325,-0.01434,-0.02487,0.00595,-0.03998,-0.02167,-0.01373,-0.0354
9.252,-0.02289,-0.04242,-0.06348,0.06622,-0.12253,-0.08057,0.01953,-0.00092,0.04181,-0.03235,-0.04395,0.00504,-0.03967,-0.0238,-0.01556,-0.04181
9.2525,-0.02274,-0.04059,-0.07294,0.02182,-0.14923,-0.08102,0.00656,-0.00061,0.02655,-0.05432,-0.05859,0.0058,-0.0383,-0.02426,-0.0209,-0.04181
9.253,-0.02167,-0.03769,-0.07355,-0.01282,-0.1355,-0.07278,-0.00534,-0.00046,0.0119,-0.08774,-0.06424,0.00793,-0.03799,-0.02319,-0.02151,-0.04227
9.2535,-0.01938,-0.03754,-0.07202,-0.0206,-0.11322,-0.05798,-0.00397,0.00092,-0.00473,-0.12344,-0.06805,0.01038,-0.03693,-0.02167,-0.01694,-0.04242
9.254,-0.01755,-0.03952,-0.06973,-0.01526,-0.10574,-0.04593,0.00565,0.0032,-0.02716,-0.14496,-0.07614,0.00793,-0.03555,-0.0206,-0.00748,-0.04028
9.2545,-0.01831,-0.04364,-0.06104,-0.01633,-0.1123,-0.03571,0.00839,0.00504,-0.05173,-0.14252,-0.08011,0.00198,-0.03326,-0.01923,-0.00168,-0.03708
9.255,-0.02014,-0.04761,-0.04562,-0.0235,-0.12665,-0.02747,-0.00107,0.00458,-0.07156,-0.1326,-0.06943,-0.00351,-0.03159,-0.01862,0.00046,-0.0415
9.2555,-0.02029,-0.05035,-0.01541,-0.02594,-0.1329,-0.02121,-0.01633,0.00244,-0.08102,-0.13123,-0.04791,-0.00259,-0.03036,-0.01984,0.0,-0.05905
9.256,-0.01862,-0.05539,0.0206,-0.01892,-0.11673,-0.01633,-0.03235,0.00061,-0.0856,-0.13641,-0.02655,0.00397,-0.03098,-0.0235,-0.00122,-0.08652
9.2565,-0.01663,-0.06836,0.03784,-0.00519,-0.07477,-0.00824,-0.0473,-0.00153,-0.08987,-0.13672,-0.00839,0.01038,-0.03296,-0.02548,-0.01083,-0.1059
9.257,-0.01678,-0.08606,0.02747,0.00565,-0.02731,0.00641,-0.06165,-0.00458,-0.09262,-0.12619,0.01282,0.00916,-0.03342,-0.02457,-0.03494,-0.10559
9.2575,-0.0174,-0.09537,-0.00046,0.009,-0.00259,0.02319,-0.07523,-0.00732,-0.09003,-0.11856,0.03281,-0.00076,-0.03342,-0.02304,-0.06439,-0.08347
9.258,-0.01633,-0.08789,-0.02686,0.00931,-0.0032,0.02945,-0.08377,-0.00885,-0.08163,-0.1265,0.03723,-0.01236,-0.03326,-0.02304,-0.07614,-0.05295
9.2585,-0.01434,-0.06912,-0.04349,0.00992,-0.00565,0.01968,-0.07751,-0.00885,-0.07141,-0.13931,0.02151,-0.01343,-0.03281,-0.02502,-0.05875,-0.02594
9.259,-0.01389,-0.04929,-0.05463,-0.00366,0.00565,-0.0116,-0.05676,-0.009,-0.05966,-0.1329,0.00473,-0.00336,-0.03235,-0.02518,-0.02914,-0.01114
9.2595,-0.01511,-0.03418,-0.05173,-0.05508,0.03235,-0.06729,-0.03128,-0.01068,-0.04364,-0.09445,0.01389,0.00763,-0.03204,-0.02365,-0.01968,-0.01724
9.26,-0.01953,-0.02518,-0.03159,-0.12833,0.056,-0.12238,-0.01434,-0.0119,-0.0235,-0.02991,0.04852,0.01114,-0.03128,-0.01877,-0.02884,-0.04028
9.2605,-0.0235,-0.02853,-0.00519,-0.16174,0.06042,-0.13626,-0.00931,-0.01266,-0.00153,0.04257,0.08209,0.00565,-0.02914,-0.01129,-0.03723,-0.06439
9.261,-0.02319,-0.04303,0.00565,-0.10193,0.04288,-0.09537,-0.00732,-0.01038,0.01724,0.112,0.09735,-0.00168,-0.02487,-0.00259,-0.04074,-0.06195
9.2615,-0.01755,-0.06012,-0.00259,0.04181,0.01022,-0.04166,-0.00168,-0.009,0.03342,0.18021,0.09277,-0.00549,-0.02167,0.00198,-0.05234,-0.03616
9.262,-0.01205,-0.07034,-0.01907,0.21271,-0.02136,-0.01999,0.00519,-0.00778,0.04333,0.23621,0.07324,-0.00427,-0.02121,-0.00015,-0.06912,-0.0116
9.2625,-0.01114,-0.07294,-0.03098,0.35782,-0.0412,-0.03265,0.00641,-0.00641,0.04471,0.26062,0.04395,-0.00046,-0.02243,-0.00626,-0.05646,-0.009
9.263,-0.01419,-0.0708,-0.04227,0.45074,-0.04486,-0.05234,0.00275,-0.00381,0.03799,0.23956,0.01648,0.00153,-0.02563,-0.01221,0.01389,-0.02075
9.2635,-0.01694,-0.06302,-0.05722,0.48386,-0.02701,-0.05692,-0.00076,-0.00092,0.02975,0.18768,0.00061,0.00107,-0.02853,-0.01587,0.1178,-0.02731
9.264,-0.0177,-0.04745,-0.07233,0.44617,0.00198,-0.05478,0.00351,-0.00015,0.02457,0.13687,-0.00519,-0.00061,-0.02991,-0.01907,0.18158,-0.02502
9.2645,-0.01617,-0.02762,-0.08575,0.31876,0.02045,-0.05157,0.01038,-0.00198,0.0206,0.10544,-0.01099,0.00015,-0.03128,-0.02121,0.15991,-0.02411
9.265,-0.01358,-0.00961,-0.09506,0.11581,0.01709,-0.04837,0.00519,-0.00458,0.01663,0.09048,-0.02014,0.00305,-0.03189,-0.02014,0.0824,-0.02502
9.2655,-0.01175,0.00305,-0.10712,-0.0975,0.01129,-0.04028,-0.01694,-0.0061,0.01312,0.08163,-0.02304,0.0032,-0.03189,-0.01663,0.01984,-0.0206
9.266,-0.01144,0.00748,-0.11505,-0.24689,0.01938,-0.03113,-0.03708,-0.00488,0.0116,0.07568,-0.01755,-0.00076,-0.03082,-0.01419,0.0058,-0.01205
9.2665,-0.01251,0.00488,-0.11215,-0.30548,0.02411,-0.02472,-0.03265,-0.00336,0.01205,0.0676,-0.00916,-0.0061,-0.02975,-0.01419,0.01617,-0.00961
9.267,-0.01312,-0.00137,-0.09918,-0.30243,0.00427,-0.02594,-0.01221,-0.00397,0.0116,0.05493,-0.01053,-0.00702,-0.02975,-0.01633,0.01648,-0.0238
9.2675,-0.01266,-0.00504,-0.08682,-0.28809,-0.01831,-0.03098,-0.00137,-0.00793,0.01099,0.03555,-0.02182,-0.00473,-0.03204,-0.01923,0.00565,-0.05005
9.268,-0.01068,-0.00366,-0.07736,-0.29282,0.00153,-0.03479,-0.00977,-0.01282,0.01251,0.01236,-0.03281,-0.00214,-0.03418,-0.02213,-0.00351,-0.07233
9.2685,-0.00687,-0.00275,-0.07263,-0.30609,0.0679,-0.03281,-0.01923,-0.01572,0.0177,-0.01053,-0.03647,-0.0029,-0.0351,-0.02365,-0.00168,-0.08026
9.269,0.00076,-0.00687,-0.05829,-0.28534,0.14069,-0.02487,-0.01648,-0.01373,0.02426,-0.03265,-0.03586,-0.00336,-0.03525,-0.02319,0.00275,-0.07751
9.2695,0.00977,-0.01495,-0.04196,-0.19806,0.18204,-0.01755,-0.00793,-0.01144,0.03036,-0.05615,-0.03342,0.0,-0.0354,-0.02121,0.00565,-0.07355
9.27,0.01663,-0.02426,-0.02213,-0.07401,0.18814,-0.01678,-0.00488,-0.01007,0.0354,-0.07828,-0.0325,0.00748,-0.03906,-0.02029,0.00351,-0.07462
9.2705,0.01862,-0.03189,-0.00687,-0.00473,0.16907,-0.02197,-0.00839,-0.01007,0.03922,-0.09308,-0.03036,0.01434,-0.04242,-0.01953,-0.0032,-0.08179
9.271,0.01755,-0.03784,0.00565,-0.05096,0.12711,-0.02945,-0.01328,-0.01099,0.03937,-0.09781,-0.0296,0.0145,-0.04303,-0.01907,-0.00854,-0.08972
9.2715,0.01602,-0.04242,0.01083,-0.17151,0.06363,-0.03922,-0.01419,-0.01099,0.03159,-0.09354,-0.03586,0.00946,-0.04089,-0.01923,-0.00793,-0.0914
9.272,0.01312,-0.04791,0.00488,-0.25726,-0.00626,-0.056,-0.01251,-0.01068,0.01587,-0.08621,-0.04211,0.0029,-0.03769,-0.01938,-0.00198,-0.08255
9.2725,0.00839,-0.0528,-0.00565,-0.25803,-0.07584,-0.08667,-0.00931,-0.01099,-0.00214,-0.07599,-0.03738,-0.00183,-0.03479,-0.01724,0.00504,-0.06973
9.273,0.0032,-0.05508,-0.01251,-0.2121,-0.15671,-0.12924,-0.00854,-0.01068,-0.01953,-0.06226,-0.02274,-0.00595,-0.03418,-0.01572,0.00824,-0.0621
9.2735,-0.00046,-0.05386,-0.01221,-0.17899,-0.25162,-0.16006,-0.00916,-0.01007,-0.04089,-0.04715,-0.01221,-0.00748,-0.03647,-0.01755,0.00473,-0.06516
9.274,-0.00137,-0.05463,-0.01068,-0.16754,-0.33295,-0.15961,-0.00854,-0.00763,-0.06683,-0.0354,-0.01144,-0.00595,-0.03876,-0.02289,-0.00153,-0.07217
9.2745,-0.00122,-0.06042,-0.01038,-0.15717,-0.35461,-0.13092,-0.00748,-0.00458,-0.08881,-0.02701,-0.01495,-0.00259,-0.03906,-0.02686,-0.00885,-0.08011
9.275,-0.00122,-0.0705,-0.01221,-0.14465,-0.29572,-0.09964,-0.00931,-0.00244,-0.09949,-0.02472,-0.01999,0.00031,-0.04028,-0.02853,-0.01175,-0.08911
9.2755,-0.00092,-0.07843,-0.01434,-0.13687,-0.20218,-0.08118,-0.01266,-0.00214,-0.09705,-0.0296,-0.02716,0.00183,-0.04196,-0.02777,-0.00809,-0.09567
9.276,0.00122,-0.08209,-0.01709,-0.13184,-0.15305,-0.06973,-0.01373,-0.00336,-0.0885,-0.04501,-0.03952,0.0029,-0.04379,-0.02686,-0.00366,-0.09872
9.2765,0.00443,-0.08179,-0.02136,-0.11612,-0.17075,-0.06256,-0.01022,-0.00275,-0.07935,-0.07126,-0.05554,0.00443,-0.0441,-0.02731,0.00381,-0.10849
9.277,0.00748,-0.07965,-0.02518,-0.06332,-0.19623,-0.05432,-0.00534,-0.00137,-0.07294,-0.09491,-0.0708,0.00488,-0.04425,-0.02808,0.00656,-0.12909
9.2775,0.00748,-0.07538,-0.02228,0.05096,-0.17273,-0.04547,-0.00519,-0.00168,-0.06821,-0.10391,-0.08179,0.00687,-0.04395,-0.02808,0.00687,-0.13306
9.278,0.0032,-0.06836,-0.02335,0.20493,-0.10696,-0.03357,-0.00992,-0.00443,-0.06119,-0.09674,-0.08728,0.00763,-0.04364,-0.02701,0.01205,-0.07584
9.2785,-0.00229,-0.05905,-0.0238,0.31586,-0.03937,-0.02243,-0.01816,-0.0058,-0.04807,-0.08453,-0.09277,0.00809,-0.04166,-0.02548,0.01526,0.02762
9.279,-0.00626,-0.047,-0.02335,0.31586,0.00092,-0.01968,-0.03052,-0.00595,-0.02975,-0.07431,-0.10483,0.0061,-0.03952,-0.0238,0.01785,0.08759
9.2795,-0.00885,-0.03494,-0.0148,0.23438,0.00061,-0.02777,-0.05127,-0.00534,-0.01205,-0.06104,-0.12756,0.00198,-0.03754,-0.02167,0.01678,0.04196
9.28,-0.01099,-0.0235,0.01709,0.16891,-0.04639,-0.0412,-0.07233,-0.00534,0.00229,-0.03937,-0.14969,-0.00183,-0.03464,-0.01648,0.01389,-0.05569
9.2805,-0.01144,-0.01602,0.07217,0.16922,-0.12527,-0.04959,-0.0679,-0.00519,0.01328,-0.01129,-0.14084,-0.00488,-0.03235,-0.0116,0.01434,-0.10849
9.281,-0.00931,-0.01297,0.10925,0.19684,-0.19867,-0.05081,-0.0235,-0.00687,0.02304,0.01495,-0.08667,-0.00488,-0.03174,-0.00992,0.01785,-0.07584
9.2815,-0.00534,-0.01587,0.08514,0.20157,-0.22034,-0.04761,0.03143,-0.009,0.03555,0.02792,-0.01205,-0.00565,-0.03281,-0.01129,0.02197,0.01938
9.282,-0.00198,-0.02655,0.00671,0.1828,-0.17227,-0.04227,0.05142,-0.01099,0.04669,0.01999,0.04242,-0.00595,-0.03143,-0.01205,0.02441,0.11795
9.2825,0.0,-0.03677,-0.07095,0.15884,-0.08667,-0.03662,0.02823,-0.01144,0.05051,-0.00473,0.06195,-0.00092,-0.0264,-0.00946,0.02396,0.14908
9.283,0.00122,-0.04257,-0.10681,0.13397,-0.01434,-0.03143,-0.00122,-0.00992,0.04532,-0.0351,0.0618,0.00748,-0.0206,-0.00443,0.02335,0.08606
9.2835,0.00366,-0.04181,-0.11063,0.10986,0.01663,-0.02655,-0.01038,-0.00916,0.03632,-0.05508,0.05981,0.01419,-0.01892,-0.00122,0.02151,-0.01373
9.284,0.0061,-0.04074,-0.11337,0.09613,0.01892,-0.0238,-0.00671,-0.00885,0.02701,-0.05646,0.05951,0.01297,-0.02014,-0.00412,0.01938,-0.06927
9.2845,0.00763,-0.04578,-0.12207,0.07446,0.02258,-0.01938,-0.0061,-0.00717,0.01663,-0.04166,0.05783,0.00641,-0.02441,-0.01007,0.02045,-0.06653
9.285,0.00885,-0.05493,-0.11871,0.02228,0.03952,-0.0174,-0.01144,-0.00488,0.00229,-0.01953,0.05341,0.00122,-0.02823,-0.01572,0.01755,-0.0473
9.2855,0.00931,-0.05951,-0.09979,-0.04318,0.06378,-0.01923,-0.01434,-0.0058,-0.01099,-0.00214,0.05157,0.0,-0.03098,-0.01785,0.01633,-0.03143
9.286,0.00977,-0.056,-0.08041,-0.08728,0.08987,-0.02472,-0.01419,-0.00809,-0.02213,0.00763,0.05539,0.00015,-0.03159,-0.0174,0.01099,-0.0029
9.2865,0.00732,-0.04761,-0.06805,-0.13229,0.12054,-0.02899,-0.01373,-0.00702,-0.03357,0.00793,0.05554,-0.00137,-0.03204,-0.01724,0.0029,0.0354
9.287,0.00366,-0.04044,-0.06149,-0.22232,0.1532,-0.03311,-0.01419,-0.00031,-0.04684,0.00381,0.04349,-0.0029,-0.03311,-0.01907,-0.00443,0.04623
9.2875,0.0,-0.03326,-0.05508,-0.3299,0.16388,-0.03677,-0.01389,0.00504,-0.05905,-0.00031,0.02319,-0.00366,-0.03403,-0.02213,-0.00763,0.01511
9.288,0.0,-0.02426,-0.04349,-0.36911,0.13519,-0.04013,-0.01312,0.0061,-0.06439,-0.00168,0.00473,-0.00275,-0.03479,-0.02396,-0.00381,-0.02029
9.2885,0.00183,-0.01358,-0.02731,-0.31128,0.07645,-0.04196,-0.01251,0.00397,-0.0621,-0.00076,-0.00809,0.00076,-0.03494,-0.0238,0.00259,-0.02457
9.289,0.00183,-0.0058,-0.01648,-0.23758,0.01801,-0.04364,-0.01419,0.00275,-0.05478,-0.00046,-0.01816,0.00519,-0.03281,-0.02197,0.00534,-0.00793
9.2895,-0.00092,-0.00458,-0.01404,-0.25406,-0.01938,-0.04501,-0.01556,0.0029,-0.04761,-0.00244,-0.02548,0.00641,-0.03052,-0.02014,0.00519,-0.00076
9.29,-0.0029,-0.0061,-0.02518,-0.36316,-0.04471,-0.0502,-0.01633,0.00137,-0.04242,-0.00687,-0.02701,0.00458,-0.02975,-0.02014,0.0032,-0.01236
9.2905,-0.00229,-0.00839,-0.03952,-0.40985,-0.07217,-0.05539,-0.01724,0.00015,-0.03876,-0.01434,-0.02426,0.00153,-0.03113,-0.02258,0.00443,-0.02441
9.291,-0.00076,-0.01175,-0.05157,-0.19775,-0.10193,-0.06027,-0.01816,-0.00061,-0.03342,-0.02533,-0.02182,0.00015,-0.03342,-0.02548,0.00824,-0.02594
9.2915,-0.00168,-0.01862,-0.06027,0.25452,-0.11688,-0.06302,-0.01801,-0.00031,-0.02533,-0.03784,-0.01907,0.00031,-0.03555,-0.02655,0.00824,-0.0235
9.292,-0.00397,-0.02853,-0.06516,0.65231,-0.11856,-0.06393,-0.01633,0.00183,-0.01511,-0.04791,-0.01511,-0.00015,-0.03662,-0.0264,-0.00015,-0.01984
9.2925,-0.00275,-0.03754,-0.07019,0.7283,-0.11154,-0.0621,-0.01495,0.00534,-0.00687,-0.05035,-0.01053,-0.00305,-0.03662,-0.0238,-0.01144,-0.01999
9.293,0.00168,-0.04272,-0.06989,0.52368,-0.10056,-0.05753,-0.01678,0.00824,-0.00153,-0.04761,-0.00656,-0.00702,-0.03418,-0.01999,-0.01556,-0.0351
9.2935,0.00702,-0.04517,-0.06058,0.28198,-0.08957,-0.04959,-0.02243,0.01038,0.00366,-0.04471,-0.00366,-0.01022,-0.0325,-0.01648,-0.01328,-0.08087
9.294,0.0116,-0.04593,-0.04532,0.13901,-0.0795,-0.04501,-0.0296,0.01083,0.01083,-0.04517,0.00305,-0.01114,-0.0322,-0.01419,-0.00916,-0.15335
9.2945,0.01312,-0.04669,-0.03281,0.05417,-0.06058,-0.0412,-0.03647,0.01083,0.01999,-0.0473,0.01251,-0.00763,-0.0322,-0.01404,-0.00671,-0.21088
9.295,0.01328,-0.04868,-0.02808,-0.0235,-0.02228,-0.03952,-0.04395,0.00992,0.03067,-0.04608,0.0174,-0.0032,-0.0322,-0.01465,-0.00641,-0.19852
9.2955,0.01221,-0.04837,-0.02899,-0.07172,0.02899,-0.03784,-0.04776,0.01022,0.03906,-0.04211,0.00916,-0.00061,-0.03067,-0.01511,-0.01205,-0.11383
9.296,0.01099,-0.04745,-0.02533,-0.06332,0.07324,-0.03876,-0.04547,0.01343,0.04425,-0.03769,-0.00641,-0.00275,-0.03036,-0.01678,-0.02487,-0.02731
9.2965,0.00854,-0.04639,-0.01389,-0.02487,0.09201,-0.04318,-0.03754,0.01724,0.04333,-0.02853,-0.0145,-0.00504,-0.03098,-0.01801,-0.03937,-0.01343
9.297,0.00549,-0.047,0.01755,0.00183,0.07858,-0.04913,-0.02731,0.02075,0.03555,-0.01816,-0.00458,-0.00458,-0.03281,-0.01999,-0.0267,-0.06958
9.2975,0.00183,-0.04745,0.06744,0.01099,0.03784,-0.05554,-0.01587,0.02182,0.02487,-0.01923,0.01266,-0.00015,-0.03311,-0.02106,0.02884,-0.12787
9.298,0.00092,-0.04547,0.12024,0.02319,-0.00366,-0.05707,-0.00458,0.02182,0.01694,-0.03784,0.01877,0.00443,-0.03403,-0.02258,0.09613,-0.14267
9.2985,0.0032,-0.04211,0.14923,0.05081,-0.00809,-0.05371,0.00137,0.0209,0.00961,-0.0592,0.00671,0.00534,-0.03464,-0.02335,0.12085,-0.12573
9.299,0.00595,-0.04013,0.13275,0.06927,0.02823,-0.04639,-0.00076,0.01831,0.00092,-0.06729,-0.01648,0.00198,-0.03525,-0.02518,0.08987,-0.0882
9.2995,0.00641,-0.03891,0.08469,0.04486,0.0705,-0.03754,-0.00702,0.01373,-0.01236,-0.05783,-0.04456,-0.00275,-0.03571,-0.02548,0.04791,-0.01709
9.3,0.00427,-0.03708,0.04013,-0.01312,0.08163,-0.03265,-0.01129,0.0061,-0.0264,-0.04089,-0.07263,-0.00656,-0.0354,-0.02487,0.04456,0.07233
9.3005,0.00076,-0.04211,0.02151,-0.06134,0.05814,-0.0325,-0.01236,-0.00458,-0.03784,-0.02869,-0.08606,-0.00992,-0.03632,-0.02228,0.07385,0.11414
9.301,-0.00183,-0.06424,0.0386,-0.07446,0.01526,-0.03784,-0.01511,-0.01007,-0.04654,-0.02441,-0.07477,-0.01312,-0.0383,-0.01984,0.09018,0.07782
9.3015,-0.00397,-0.10376,0.07462,-0.06729,-0.03311,-0.04623,-0.02136,-0.00427,-0.05402,-0.02563,-0.04929,-0.01709,-0.04227,-0.01923,0.06302,0.009
9.302,-0.0061,-0.14389,0.08957,-0.07004,-0.07416,-0.05508,-0.02777,0.01038,-0.06317,-0.02899,-0.02884,-0.02014,-0.04517,-0.01923,-0.00076,-0.0264
9.3025,-0.00824,-0.15869,0.04837,-0.09186,-0.08545,-0.0621,-0.0296,0.02045,-0.07431,-0.03326,-0.02243,-0.02106,-0.04486,-0.01831,-0.05371,-0.02625
9.303,-0.00992,-0.14084,-0.03647,-0.11169,-0.06241,-0.06592,-0.02869,0.02075,-0.08606,-0.03571,-0.02289,-0.01923,-0.03983,-0.01541,-0.05875,-0.02472
9.3035,-0.0119,-0.10559,-0.11841,-0.08636,-0.02838,-0.06302,-0.02792,0.01343,-0.09445,-0.04074,-0.02197,-0.01572,-0.03372,-0.01404,-0.01968,-0.0441
9.304,-0.01343,-0.07141,-0.17502,0.01083,-0.02502,-0.05432,-0.03036,0.00595,-0.09827,-0.04929,-0.01907,-0.01205,-0.02914,-0.01602,0.0058,-0.07324
9.3045,-0.01511,-0.0441,-0.21622,0.1416,-0.06775,-0.04471,-0.03342,-0.00122,-0.09689,-0.0531,-0.0174,-0.00854,-0.02838,-0.01984,-0.02182,-0.08423
9.305,-0.01938,-0.01999,-0.25101,0.21622,-0.1239,-0.03616,-0.03464,-0.00778,-0.08911,-0.04333,-0.01999,-0.00595,-0.02975,-0.0235,-0.07904,-0.0589
9.3055,-0.02411,-0.00427,-0.26474,0.18051,-0.13977,-0.0293,-0.03494,-0.01419,-0.07431,-0.02182,-0.02258,-0.00671,-0.03021,-0.0264,-0.112,0.0029
9.306,-0.02396,0.00366,-0.25146,0.07935,-0.10956,-0.02274,-0.03372,-0.0177,-0.0528,0.00031,-0.02228,-0.00961,-0.02975,-0.02701,-0.09262,0.08408
9.3065,-0.01648,0.00961,-0.22659,-0.00061,-0.07111,-0.01877,-0.03052,-0.01877,-0.02975,0.01755,-0.01862,-0.01266,-0.02823,-0.02686,-0.03326,0.1535
9.307,-0.0087,0.01663,-0.20508,-0.0296,-0.04959,-0.01892,-0.0293,-0.01984,-0.01266,0.03235,-0.01556,-0.01389,-0.02655,-0.02487,0.01877,0.16632
9.3075,-0.00732,0.0206,-0.18845,-0.03616,-0.03998,-0.02014,-0.02899,-0.02136,-0.00763,0.04883,-0.01633,-0.01312,-0.02563,-0.02167,0.02747,0.07767
9.308,-0.00809,0.01968,-0.15991,-0.04257,-0.0293,-0.02213,-0.0293,-0.02228,-0.01022,0.06439,-0.01984,-0.00931,-0.02548,-0.01846,-0.00656,-0.11047
9.3085,-0.00336,0.0177,-0.11566,-0.04013,-0.01984,-0.02228,-0.03036,-0.02151,-0.01389,0.07126,-0.02106,-0.00305,-0.02533,-0.0174,-0.0441,-0.33691
9.309,0.00763,0.01785,-0.06348,-0.0206,-0.01297,-0.0235,-0.02838,-0.0177,-0.01312,0.0618,-0.0177,0.00168,-0.02579,-0.01801,-0.04272,-0.50919
9.3095,0.0177,0.01831,-0.02914,0.0029,-0.00168,-0.02548,-0.02563,-0.01541,-0.01129,0.03983,-0.01434,0.00473,-0.02655,-0.0174,0.00565,-0.55313
9.31,0.0209,0.01648,-0.01648,0.01419,0.01801,-0.02869,-0.02335,-0.01617,-0.01099,0.01266,-0.0174,0.00671,-0.02731,-0.01556,0.07904,-0.45364
9.3105,0.01602,0.00809,-0.02319,0.00641,0.04059,-0.03265,-0.02243,-0.0206,-0.01343,-0.00916,-0.02426,0.00916,-0.02899,-0.01328,0.13092,-0.26657
9.311,0.00824,-0.00168,-0.03265,-0.01434,0.05356,-0.03754,-0.02228,-0.0267,-0.01801,-0.0209,-0.03021,0.01312,-0.0322,-0.01358,0.12833,-0.07965
9.3115,0.00107,-0.00931,-0.03769,-0.03845,0.06256,-0.0415,-0.02243,-0.03235,-0.0235,-0.0264,-0.03082,0.01648,-0.03754,-0.01678,0.0737,0.05264
9.312,-0.00412,-0.01419,-0.03662,-0.05951,0.08728,-0.04761,-0.02136,-0.03662,-0.02777,-0.03265,-0.02823,0.01801,-0.04303,-0.02243,0.00504,0.13351
9.3125,-0.00839,-0.02335,-0.03265,-0.07553,0.13321,-0.05539,-0.02045,-0.04059,-0.02747,-0.047,-0.02457,0.01587,-0.04532,-0.02487,-0.03082,0.15701
9.313,-0.01358,-0.03555,-0.02945,-0.08179,0.17532,-0.06302,-0.02075,-0.04395,-0.0206,-0.065,-0.02426,0.01221,-0.0415,-0.02228,-0.01907,0.10391
9.3135,-0.01953,-0.04715,-0.02777,-0.07126,0.18555,-0.06821,-0.0206,-0.04883,-0.00946,-0.07904,-0.02533,0.00473,-0.03525,-0.01587,0.02075,0.01099
9.314,-0.02213,-0.0531,-0.02457,-0.03693,0.15244,-0.06958,-0.02045,-0.05585,0.00076,-0.08575,-0.02853,-0.00397,-0.03143,-0.01144,0.04486,-0.02472
9.3145,-0.02029,-0.05615,-0.01846,0.00839,0.08377,-0.06821,-0.02045,-0.06409,0.00839,-0.0914,-0.03128,-0.00946,-0.03174,-0.01282,0.03647,0.02075
9.315,-0.01404,-0.06104,-0.01068,0.03204,0.00183,-0.06668,-0.02182,-0.07172,0.01266,-0.10315,-0.03174,-0.01007,-0.03647,-0.01907,0.03632,0.05997
9.3155,-0.00839,-0.0676,-0.00488,0.01892,-0.06195,-0.06577,-0.02182,-0.07645,0.01251,-0.1152,-0.02594,-0.00778,-0.04272,-0.02609,0.0766,0.03265
9.316,-0.00412,-0.07141,-0.00153,-0.01129,-0.09399,-0.06577,-0.02014,-0.07507,0.00854,-0.11551,-0.01358,-0.00275,-0.04471,-0.03021,0.1088,-0.01694
9.3165,-0.00046,-0.07004,0.00137,-0.02853,-0.12238,-0.06546,-0.01633,-0.06744,0.0029,-0.09537,0.00351,0.00229,-0.04272,-0.02884,0.07675,-0.02884
9.317,0.00214,-0.06546,0.00671,-0.02792,-0.17929,-0.06393,-0.01343,-0.05692,-0.00427,-0.06073,0.01862,0.00626,-0.03754,-0.02258,0.02167,-0.00107
9.3175,0.00244,-0.06134,0.01083,-0.01755,-0.23987,-0.0621,-0.01038,-0.04745,-0.01129,-0.02426,0.02319,0.00702,-0.03296,-0.01724,0.01221,0.03204
9.318,0.00061,-0.0592,0.01251,-0.00549,-0.24323,-0.05753,-0.00809,-0.04135,-0.01663,0.00671,0.01633,0.00504,-0.03174,-0.01633,0.01862,0.05432
9.3185,-0.00168,-0.05707,0.01022,0.00427,-0.18036,-0.04974,-0.00534,-0.0386,-0.01648,0.03189,0.0061,0.00198,-0.0325,-0.01938,-0.01968,0.06226
9.319,-0.00351,-0.05524,0.0061,0.00549,-0.11108,-0.04135,-0.00214,-0.03677,-0.01129,0.05814,-0.00275,0.00015,-0.03281,-0.02258,-0.07614,0.04517
9.3195,-0.00366,-0.05371,0.00214,-0.01572,-0.07919,-0.03647,0.00046,-0.03525,-0.00427,0.08743,-0.01038,0.00107,-0.03311,-0.02289,-0.0856,0.00793
9.32,-0.00381,-0.05386,0.00351,-0.06866,-0.06027,-0.03433,0.00275,-0.03052,0.00229,0.11063,-0.01846,0.0058,-0.03357,-0.02106,-0.04562,-0.02975
9.3205,-0.00412,-0.05493,0.00916,-0.15427,-0.03906,-0.03677,0.0058,-0.01648,0.00702,0.11749,-0.02609,0.01022,-0.03448,-0.01999,0.00153,-0.05341
9.321,-0.00488,-0.05981,0.01495,-0.26413,-0.04684,-0.04379,0.00854,0.0145,0.00992,0.10284,-0.03113,0.01038,-0.0354,-0.02151,0.04501,-0.06638
9.3215,-0.00565,-0.06912,0.01785,-0.38376,-0.11093,-0.05478,0.01083,0.05508,0.01007,0.07523,-0.03632,0.00565,-0.03433,-0.02411,0.09842,-0.08163
9.322,-0.00778,-0.07629,0.01816,-0.4744,-0.18509,-0.0679,0.01297,0.08087,0.00687,0.04547,-0.04272,0.00122,-0.03082,-0.02533,0.14145,-0.09933
9.3225,-0.0087,-0.07919,0.02029,-0.4808,-0.215,-0.07629,0.01419,0.07065,0.00122,0.02335,-0.05295,0.00046,-0.02731,-0.02472,0.13489,-0.1088
9.323,-0.00763,-0.07889,0.0296,-0.38422,-0.20889,-0.07843,0.01556,0.03174,-0.00168,0.00656,-0.06149,0.0,-0.02579,-0.02426,0.07126,-0.09003
9.3235,-0.0061,-0.07629,0.0444,-0.21332,-0.21362,-0.07614,0.01648,-0.01419,0.00412,-0.00717,-0.06744,-0.00305,-0.02655,-0.02457,0.00122,-0.04211
9.324,-0.00458,-0.06927,0.05692,0.0058,-0.23285,-0.07111,0.01526,-0.04898,0.01755,-0.01938,-0.07034,-0.00717,-0.02884,-0.02548,-0.02121,0.00183
9.3245,-0.00381,-0.05661,0.05798,0.26215,-0.23224,-0.06271,0.01358,-0.0705,0.03067,-0.02777,-0.06699,-0.0116,-0.03204,-0.02426,-0.00031,-0.00565
9.325,-0.00351,-0.04196,0.03876,0.49301,-0.19501,-0.05157,0.01144,-0.08347,0.03433,-0.02869,-0.05203,-0.01541,-0.03448,-0.02136,0.01953,-0.05371
9.3255,-0.00519,-0.03159,0.00824,0.58426,-0.13397,-0.04486,0.00824,-0.08636,0.03235,-0.02167,-0.02518,-0.01633,-0.03387,-0.01831,0.0029,-0.05981
9.326,-0.0058,-0.02686,-0.0177,0.47684,-0.07111,-0.04654,0.0061,-0.07813,0.03235,-0.01633,0.00519,-0.01083,-0.03006,-0.01556,-0.04425,0.0267
9.3265,-0.00412,-0.02747,-0.02991,0.24979,-0.02914,-0.05173,0.00534,-0.06393,0.03632,-0.02045,0.02853,-0.00168,-0.02533,-0.01205,-0.07904,0.12726
9.327,0.00198,-0.02991,-0.03204,0.04547,-0.01633,-0.05371,0.00565,-0.05051,0.0354,-0.02899,0.04272,0.00168,-0.02304,-0.00671,-0.06454,0.11505
9.3275,0.00717,-0.03021,-0.03708,-0.05783,-0.02533,-0.05341,0.00443,-0.04318,0.0209,-0.03189,0.04791,-0.00244,-0.02213,-0.00412,-0.0119,-0.01724
9.328,0.00992,-0.02869,-0.04425,-0.07721,-0.03479,-0.05463,0.00229,-0.03754,-0.00381,-0.0293,0.0441,-0.00839,-0.02289,-0.00443,0.02396,-0.13199
9.3285,0.01038,-0.03098,-0.04852,-0.06332,-0.03464,-0.056,0.00076,-0.03021,-0.02838,-0.0264,0.03815,-0.00977,-0.02426,-0.00839,0.00854,-0.12039
9.329,0.01053,-0.03723,-0.0473,-0.04379,-0.02686,-0.05417,0.00183,-0.01938,-0.04593,-0.02487,0.03342,-0.00504,-0.02701,-0.01129,-0.03464,-0.03799
9.3295,0.00885,-0.04379,-0.04486,-0.03021,-0.01556,-0.05173,0.00504,-0.00763,-0.05692,-0.02289,0.02945,-0.00061,-0.02823,-0.01053,-0.06317,-0.04425
9.33,0.00458,-0.04608,-0.04395,-0.03357,0.00259,-0.05264,0.00641,0.00061,-0.06271,-0.0174,0.02563,0.00122,-0.02686,-0.00824,-0.0737,-0.20248
9.3305,0.00214,-0.04791,-0.04654,-0.05783,0.03082,-0.05646,0.00549,0.00458,-0.06561,-0.01328,0.02228,0.00198,-0.02319,-0.00793,-0.08255,-0.39856
9.331,0.00366,-0.0528,-0.0499,-0.08469,0.05569,-0.05646,0.00412,0.00488,-0.06439,-0.0116,0.0206,0.00427,-0.01999,-0.00946,-0.08606,-0.43762
9.3315,0.00687,-0.05951,-0.05173,-0.09018,0.05905,-0.04684,0.00412,0.0032,-0.0618,-0.01328,0.02075,0.00793,-0.01999,-0.0119,-0.0592,-0.23087
9.332,0.00809,-0.06332,-0.04944,-0.06866,0.03906,-0.03052,0.00549,0.00107,-0.05814,-0.01633,0.02228,0.00839,-0.0238,-0.01389,-0.00809,0.09338
9.3325,0.00702,-0.06287,-0.04593,-0.03418,0.01923,-0.01526,0.00549,0.00092,-0.05341,-0.01617,0.02151,0.009,-0.02823,-0.01465,0.02945,0.28412
9.333,0.00549,-0.05981,-0.04761,-0.0029,0.02457,-0.00427,0.00641,0.00488,-0.04669,-0.0145,0.01282,0.0087,-0.02975,-0.01511,0.0296,0.22278
9.3335,0.00412,-0.0563,-0.05539,0.02518,0.05157,0.0029,0.00793,0.01129,-0.03952,-0.0209,-0.00549,0.00702,-0.0293,-0.01587,0.01114,0.03601
9.334,0.00397,-0.05157,-0.06302,0.05524,0.07355,0.01053,0.00916,0.01755,-0.03311,-0.03891,-0.03067,0.00473,-0.02838,-0.01755,0.00031,-0.07599
9.3345,0.00427,-0.04776,-0.05356,0.08286,0.06607,0.01648,0.01038,0.02365,-0.02823,-0.06073,-0.06104,0.00366,-0.02899,-0.01953,0.00153,-0.05829
9.335,0.00519,-0.04196,-0.02899,0.09598,0.03326,0.01465,0.01083,0.02991,-0.02716,-0.0795,-0.09277,0.00443,-0.03036,-0.02258,0.00137,0.00153
9.3355,0.00748,-0.03433,-0.00732,0.10529,0.00397,0.00946,0.01129,0.03403,-0.02853,-0.09338,-0.10788,0.00519,-0.03204,-0.02533,-0.00443,0.03281
9.336,0.01022,-0.0267,-0.00778,0.13123,0.00229,0.00336,0.01144,0.03555,-0.02945,-0.10406,-0.08728,0.00153,-0.03159,-0.02579,-0.00534,0.04166
9.3365,0.01083,-0.0238,-0.02914,0.16998,0.01724,0.00046,0.01144,0.03571,-0.02777,-0.10986,-0.03754,-0.00336,-0.0293,-0.02472,0.00656,0.05234
9.337,0.00793,-0.0235,-0.05402,0.18082,0.0238,0.00015,0.01175,0.03693,-0.0238,-0.10254,0.00961,-0.00534,-0.02823,-0.02518,0.0325,0.056
9.3375,0.00336,-0.02182,-0.06882,0.13611,0.01114,-0.00031,0.01175,0.03983,-0.01968,-0.07278,0.02594,-0.00412,-0.02914,-0.02808,0.05707,0.03082
9.338,0.00107,-0.01953,-0.07538,0.05539,-0.01236,-0.00046,0.01282,0.0444,-0.01511,-0.02045,0.01312,-0.00168,-0.03113,-0.02991,0.06287,-0.01785
9.3385,0.00229,-0.01953,-0.07721,-0.02197,-0.03922,-0.00168,0.01404,0.05005,-0.01083,0.04074,-0.01266,0.00107,-0.03098,-0.02762,0.04517,-0.0676
9.339,0.00488,-0.02243,-0.07721,-0.07782,-0.06012,-0.00198,0.01343,0.05585,-0.00793,0.08347,-0.03143,0.00366,-0.02808,-0.0235,0.02014,-0.09979
9.3395,0.00748,-0.02808,-0.07233,-0.11871,-0.06516,-0.00351,0.01114,0.05981,-0.0058,0.08743,-0.03372,0.00534,-0.02502,-0.01923,0.00046,-0.11414
9.34,0.00778,-0.03036,-0.06256,-0.15717,-0.05508,-0.01633,0.00824,0.06073,-0.00519,0.05386,-0.02243,0.00366,-0.02548,-0.01877,-0.00504,-0.11826
9.3405,0.00641,-0.03036,-0.05219,-0.19287,-0.03738,-0.05753,0.00458,0.05722,-0.00641,0.00381,-0.00687,0.00076,-0.03036,-0.01999,-0.00305,-0.11688
9.341,0.00443,-0.02853,-0.0444,-0.20798,-0.02029,-0.12329,-0.00153,0.05188,-0.00702,-0.03479,0.00641,-0.00198,-0.03555,-0.02045,-0.00626,-0.103
9.3415,0.00305,-0.02792,-0.04181,-0.18814,-0.0061,-0.17776,-0.00763,0.047,-0.0061,-0.05341,0.01877,-0.00198,-0.03632,-0.02014,-0.0145,-0.07874
9.342,0.00137,-0.03235,-0.04044,-0.14496,0.00641,-0.18539,-0.01175,0.04608,-0.00504,-0.06393,0.03052,-0.00015,-0.03357,-0.01999,-0.02075,-0.05508
9.3425,-0.00183,-0.03891,-0.03723,-0.12711,0.02258,-0.1535,-0.01328,0.0502,-0.00534,-0.07385,0.03967,0.00031,-0.02991,-0.02029,-0.02228,-0.03799
9.343,-0.00671,-0.04684,-0.03265,-0.18631,0.0383,-0.11307,-0.01434,0.05386,-0.00671,-0.08331,0.04578,-0.00336,-0.02899,-0.0206,-0.0235,-0.02609
9.3435,-0.00885,-0.05554,-0.02228,-0.31067,0.04929,-0.08484,-0.0177,0.05493,-0.009,-0.0914,0.04944,-0.00732,-0.03189,-0.02045,-0.02594,-0.01907
9.344,-0.00916,-0.06546,0.01175,-0.40924,0.05035,-0.07004,-0.02197,0.05157,-0.01068,-0.09598,0.04761,-0.00839,-0.03662,-0.02151,-0.02533,-0.02655
9.3445,-0.009,-0.07263,0.07935,-0.40619,0.03708,-0.0679,-0.02441,0.04715,-0.01343,-0.0946,0.03906,-0.00641,-0.03952,-0.0206,-0.0235,-0.05295
9.345,-0.01144,-0.07584,0.15839,-0.32242,0.01434,-0.07248,-0.02594,0.04425,-0.01709,-0.0824,0.03036,-0.00427,-0.03998,-0.01831,-0.02121,-0.08789
9.3455,-0.0177,-0.07248,0.19775,-0.23621,-0.01007,-0.07553,-0.02808,0.04288,-0.02258,-0.05997,0.02747,-0.00336,-0.03845,-0.01633,-0.0058,-0.10986
9.346,-0.02457,-0.06409,0.16571,-0.19424,-0.02609,-0.07172,-0.03189,0.04059,-0.02579,-0.03098,0.02686,-0.00259,-0.03723,-0.01434,0.04242,-0.10727
9.3465,-0.03067,-0.05341,0.07614,-0.17319,-0.02487,-0.06424,-0.03525,0.03738,-0.02426,-0.00183,0.01938,-0.00183,-0.03601,-0.01312,0.10803,-0.07919
9.347,-0.03372,-0.0441,-0.03448,-0.07935,-0.00732,-0.05157,-0.03662,0.0354,-0.01907,0.02045,0.0029,-0.00061,-0.03677,-0.0116,0.13443,-0.04196
9.3475,-0.03494,-0.0354,-0.13672,0.16083,0.02411,-0.02762,-0.03754,0.03464,-0.01572,0.0386,-0.01572,0.00061,-0.03937,-0.0116,0.09079,-0.02167
9.348,-0.03494,-0.02609,-0.20615,0.44556,0.05081,0.01663,-0.03922,0.03281,-0.01556,0.05569,-0.03128,0.00351,-0.04349,-0.01358,0.01999,-0.02502
9.3485,-0.03296,-0.0174,-0.22888,0.54291,0.05493,0.07309,-0.04349,0.02701,-0.01572,0.07202,-0.04059,0.00702,-0.04227,-0.01617,-0.01846,-0.03479
9.349,-0.03098,-0.01022,-0.21255,0.3746,0.02304,0.12558,-0.04791,0.01556,-0.01572,0.08209,-0.0444,0.00885,-0.03647,-0.01587,-0.00946,-0.03677
9.3495,-0.03052,-0.00778,-0.18158,0.14618,-0.03113,0.15671,-0.04974,0.00092,-0.01511,0.08072,-0.04456,0.00671,-0.03174,-0.01541,0.01038,-0.0325
9.35,-0.03098,-0.00793,-0.15839,0.0798,-0.08926,0.14481,-0.04883,-0.00946,-0.01434,0.06561,-0.04272,0.00076,-0.03189,-0.01785,0.01602,-0.03693
9.3505,-0.03067,-0.00839,-0.14282,0.14679,-0.13107,0.08438,-0.04761,-0.01297,-0.01358,0.04684,-0.04272,-0.00687,-0.03601,-0.02457,0.01129,-0.04669
9.351,-0.02823,-0.00916,-0.11917,0.18097,-0.14694,0.00015,-0.04868,-0.00946,-0.01343,0.03113,-0.04456,-0.01236,-0.04395,-0.03281,0.00793,-0.05051
9.3515,-0.02548,-0.01129,-0.08301,0.12985,-0.13901,-0.08377,-0.05081,-0.00183,-0.01328,0.02167,-0.0441,-0.01404,-0.0502,-0.03769,0.00946,-0.04318
9.352,-0.02228,-0.01816,-0.04364,0.06393,-0.11887,-0.16129,-0.05295,0.00946,-0.01266,0.01801,-0.0415,-0.01221,-0.0502,-0.0383,0.01129,-0.03525
9.3525,-0.01968,-0.03128,-0.01801,0.03174,-0.09872,-0.23163,-0.05356,0.02411,-0.01068,0.01511,-0.03754,-0.0087,-0.04471,-0.03525,0.01266,-0.0322
9.353,-0.01709,-0.05066,-0.01694,0.0209,-0.08057,-0.26764,-0.05157,0.03494,-0.00885,0.01312,-0.03586,-0.00565,-0.04013,-0.02884,0.01282,-0.03479
9.3535,-0.01434,-0.07553,-0.02838,0.01816,-0.05966,-0.24719,-0.04532,0.03265,-0.00748,0.01083,-0.03479,-0.00458,-0.03769,-0.02182,0.00992,-0.03983
9.354,-0.01373,-0.10635,-0.03159,0.0386,-0.03845,-0.1918,-0.03815,0.02014,-0.00702,0.00824,-0.03387,-0.00534,-0.03662,-0.01602,0.00717,-0.0441
9.3545,-0.01495,-0.13229,-0.02228,0.09125,-0.01999,-0.14175,-0.03372,0.00778,-0.00793,0.00504,-0.03235,-0.00809,-0.03448,-0.01221,0.00351,-0.04593
9.355,-0.01663,-0.14145,-0.0119,0.15656,-0.00031,-0.11505,-0.03372,0.00153,-0.00854,-0.00015,-0.03098,-0.00885,-0.03387,-0.0119,-0.00061,-0.04593
9.3555,-0.01602,-0.13351,-0.0145,0.19196,0.02472,-0.10818,-0.0386,-0.00473,-0.00809,-0.00732,-0.03159,-0.00702,-0.03342,-0.01266,-0.00183,-0.04776
9.356,-0.01419,-0.11642,-0.00992,0.16785,0.0473,-0.10696,-0.05264,-0.01419,-0.00763,-0.01312,-0.03128,-0.00122,-0.03418,-0.01465,-0.00229,-0.0499
9.3565,-0.01328,-0.09567,0.00504,0.09827,0.05066,-0.09781,-0.07095,-0.02243,-0.00793,-0.01709,-0.03036,0.00504,-0.04059,-0.02045,0.0,-0.04532
9.357,-0.01358,-0.07019,0.00916,0.0325,0.03357,-0.0769,-0.07034,-0.0267,-0.00946,-0.02045,-0.02777,0.00809,-0.04929,-0.0264,0.00427,-0.03662
9.3575,-0.01846,-0.04211,-0.01907,0.01724,0.00443,-0.06104,-0.03891,-0.02655,-0.01068,-0.02045,-0.02731,0.00641,-0.05447,-0.02762,0.009,-0.03006
9.358,-0.02655,-0.01663,-0.065,0.04578,-0.03326,-0.06042,-0.00122,-0.02243,-0.01083,-0.02045,-0.02884,0.00137,-0.05249,-0.02411,0.0119,-0.03036
9.3585,-0.03281,0.00534,-0.10376,0.05646,-0.07599,-0.06958,0.01007,-0.01556,-0.00977,-0.0209,-0.02975,-0.00244,-0.04715,-0.02045,0.00961,-0.03418
9.359,-0.03296,0.02655,-0.11917,-0.0029,-0.11734,-0.0708,-0.00427,-0.00748,-0.00748,-0.02365,-0.02975,-0.00397,-0.04272,-0.01907,0.00916,-0.03891
9.3595,-0.0296,0.04608,-0.11551,-0.13123,-0.14359,-0.06119,-0.01755,-0.0029,-0.0061,-0.02686,-0.02792,-0.00137,-0.03967,-0.01892,0.00977,-0.04227
9.36,-0.02716,0.05844,-0.10727,-0.29144,-0.14709,-0.05142,-0.0177,-0.00366,-0.00656,-0.03159,-0.02686,0.00259,-0.03632,-0.01694,0.01053,-0.04257
9.3605,-0.02808,0.05722,-0.09567,-0.44937,-0.14008,-0.04959,-0.01465,-0.00931,-0.00732,-0.03876,-0.0267,0.00763,-0.03128,-0.01434,0.01129,-0.03983
9.361,-0.03067,0.04623,-0.08575,-0.57098,-0.12177,-0.05539,-0.0177,-0.01831,-0.00916,-0.04578,-0.02808,0.01083,-0.02563,-0.01373,0.01144,-0.03723
9.3615,-0.03082,0.03311,-0.07278,-0.61417,-0.08011,-0.06226,-0.02411,-0.02609,-0.01251,-0.05066,-0.02975,0.01083,-0.02213,-0.01343,0.01266,-0.03479
9.362,-0.02884,0.02411,-0.047,-0.55008,-0.01831,-0.06439,-0.02686,-0.03174,-0.01678,-0.05249,-0.03265,0.00824,-0.0235,-0.01266,0.0119,-0.03433
9.3625,-0.02472,0.01877,-0.01053,-0.38177,0.02533,-0.06027,-0.0264,-0.03616,-0.01953,-0.05432,-0.03433,0.00275,-0.02914,-0.01251,0.01114,-0.0351
9.363,-0.02213,0.01022,0.02365,-0.15579,0.03067,-0.05249,-0.02289,-0.03799,-0.02045,-0.05539,-0.03372,-0.00305,-0.03555,-0.01343,0.00931,-0.03708
9.3635,-0.01801,-0.00946,0.03616,0.03265,0.0087,-0.04547,-0.01678,-0.0351,-0.02045,-0.0563,-0.0322,-0.0058,-0.03922,-0.01541,0.00748,-0.04105
9.364,-0.00931,-0.03586,0.02731,0.0737,-0.01511,-0.04135,-0.01175,-0.02701,-0.02258,-0.05264,-0.0296,-0.0029,-0.03998,-0.01663,0.00702,-0.04349
9.3645,0.00305,-0.05707,0.01221,-0.03677,-0.0351,-0.04166,-0.00961,-0.01999,-0.0267,-0.04471,-0.02655,0.0058,-0.04135,-0.01663,0.00793,-0.04135
9.365,0.01236,-0.065,-0.00641,-0.15869,-0.05417,-0.04791,-0.00839,-0.01572,-0.03128,-0.03296,-0.0238,0.01541,-0.04272,-0.01663,0.00992,-0.03708
9.3655,0.01221,-0.06241,-0.02548,-0.13367,-0.08423,-0.0563,-0.00656,-0.01358,-0.0325,-0.02365,-0.02106,0.02014,-0.04181,-0.01877,0.0116,-0.03387
9.366,0.00443,-0.05692,-0.04166,0.05051,-0.11017,-0.056,-0.00443,-0.00778,-0.03082,-0.01785,-0.01923,0.01816,-0.03738,-0.02075,0.01221,-0.03494
9.3665,-0.00412,-0.05493,-0.05066,0.26459,-0.10284,-0.0415,-0.00458,-0.00046,-0.02975,-0.01633,-0.01541,0.01282,-0.03128,-0.02243,0.00916,-0.03616
9.367,-0.00717,-0.05173,-0.05478,0.38208,-0.04959,-0.01801,-0.00595,0.00488,-0.03098,-0.01633,-0.00946,0.00839,-0.02655,-0.02258,0.00732,-0.03464
9.3675,-0.00687,-0.04562,-0.05768,0.39017,0.01282,-0.00183,-0.00763,0.00656,-0.03067,-0.01343,-0.0032,0.00626,-0.0235,-0.0209,0.00793,-0.03067
9.368,-0.00748,-0.04425,-0.0589,0.34439,0.02594,-0.00107,-0.01022,0.00473,-0.02533,-0.00626,0.00198,0.00748,-0.02228,-0.01816,0.01129,-0.02472
9.3685,-0.01083,-0.05371,-0.04776,0.28061,-0.01831,-0.00427,-0.01373,0.00031,-0.01678,0.00275,0.00656,0.01114,-0.02289,-0.01694,0.01297,-0.02182
9.369,-0.01617,-0.06805,-0.02533,0.20233,-0.07034,0.00427,-0.01602,-0.00549,-0.00946,0.00641,0.00854,0.01419,-0.0267,-0.01816,0.01205,-0.02365
9.3695,-0.01831,-0.0708,0.00641,0.13474,-0.08759,0.01907,-0.01617,-0.01083,-0.00656,0.00229,0.00778,0.0119,-0.03098,-0.01907,0.01083,-0.03021
9.37,-0.01633,-0.05768,0.03281,0.12527,-0.08072,0.0209,-0.01678,-0.01434,-0.00687,-0.00595,0.00687,0.00809,-0.03281,-0.01724,0.01129,-0.03708
9.3705,-0.01343,-0.03998,0.04364,0.18845,-0.07935,0.00473,-0.02121,-0.01678,-0.01022,-0.01495,0.00504,0.00641,-0.03143,-0.01617,0.01114,-0.04105
9.371,-0.01205,-0.02563,0.03586,0.27359,-0.08316,-0.01663,-0.02747,-0.01587,-0.01205,-0.0206,0.00412,0.00931,-0.03052,-0.0148,0.009,-0.04242
9.3715,-0.0119,-0.01221,0.01892,0.31555,-0.07477,-0.03098,-0.03159,-0.01205,-0.01221,-0.02533,0.00092,0.01236,-0.03189,-0.01373,0.00259,-0.04623
9.372,-0.01068,0.0,-0.00183,0.29495,-0.0499,-0.03891,-0.0296,-0.00824,-0.01175,-0.03159,-0.00305,0.0119,-0.03632,-0.01434,-0.00275,-0.05478
9.3725,-0.00717,0.00259,-0.02853,0.23087,-0.0209,-0.04395,-0.02457,-0.00687,-0.01175,-0.03769,-0.00595,0.01083,-0.04105,-0.01556,-0.00473,-0.06241
9.373,-0.00107,-0.01053,-0.05127,0.13702,-0.00473,-0.04715,-0.02029,-0.0087,-0.01236,-0.03937,-0.00778,0.01053,-0.04532,-0.01785,-0.00122,-0.06668
9.3735,0.0061,-0.03662,-0.06546,0.02502,-0.01129,-0.04547,-0.01846,-0.01282,-0.01404,-0.03143,-0.01038,0.01007,-0.047,-0.01953,0.00305,-0.06424
9.374,0.01358,-0.06134,-0.06165,-0.08728,-0.0296,-0.04105,-0.01938,-0.01511,-0.01495,-0.01587,-0.01251,0.00824,-0.04303,-0.01678,0.00839,-0.05646
9.3745,0.01785,-0.07126,-0.0473,-0.18799,-0.04242,-0.03586,-0.01862,-0.01358,-0.01419,-0.00366,-0.01343,0.00687,-0.03403,-0.01617,0.01328,-0.04562
9.375,0.02045,-0.07034,-0.03021,-0.27603,-0.04501,-0.03525,-0.0174,-0.01114,-0.01434,-0.00397,-0.01282,0.00656,-0.02625,-0.01724,0.01602,-0.04089
9.3755,0.02197,-0.06561,-0.01907,-0.34698,-0.05356,-0.03983,-0.01801,-0.01099,-0.01648,-0.01419,-0.01205,0.00595,-0.02243,-0.0206,0.0177,-0.04288
9.376,0.02441,-0.06165,-0.01266,-0.38223,-0.07935,-0.04761,-0.02014,-0.0148,-0.01846,-0.0264,-0.01266,0.00443,-0.02014,-0.02319,0.01663,-0.04486
9.3765,0.02594,-0.06271,-0.01297,-0.34775,-0.11887,-0.05188,-0.02029,-0.01923,-0.01831,-0.03113,-0.01205,0.00397,-0.01907,-0.01923,0.01404,-0.04196
9.377,0.02289,-0.06439,-0.02655,-0.22003,-0.14786,-0.04883,-0.01892,-0.02213,-0.01694,-0.03159,-0.01022,0.00336,-0.01877,-0.01495,0.00793,-0.03494
9.3775,0.01694,-0.06531,-0.05035,-0.04227,-0.13992,-0.03906,-0.01953,-0.02441,-0.01617,-0.03052,-0.00778,0.00229,-0.02075,-0.01328,-0.00015,-0.02853
9.378,0.01205,-0.06226,-0.07675,0.07996,-0.10849,-0.02991,-0.02213,-0.02808,-0.01404,-0.03067,-0.00626,0.00076,-0.02335,-0.01465,-0.00671,-0.02533
9.3785,0.0119,-0.05447,-0.08789,0.07065,-0.08667,-0.02487,-0.02426,-0.03021,-0.009,-0.03082,-0.0061,0.00031,-0.02472,-0.01633,-0.01205,-0.02625
9.379,0.01755,-0.04349,-0.07462,-0.02975,-0.09262,-0.02289,-0.02243,-0.02701,-0.00076,-0.03098,-0.00656,0.00046,-0.0267,-0.01709,-0.0087,-0.0296
9.3795,0.02274,-0.03708,-0.04181,-0.11185,-0.08652,-0.01953,-0.01755,-0.01938,0.0058,-0.03082,-0.00504,0.00153,-0.03036,-0.0177,0.00168,-0.03342
9.38,0.02335,-0.03906,-0.01282,-0.11749,-0.0235,-0.01236,-0.01465,-0.01312,0.00931,-0.03098,-0.00381,0.0029,-0.03357,-0.01862,0.01877,-0.0383
9.3805,0.02014,-0.04745,-0.00473,-0.07736,0.06836,-0.00412,-0.01572,-0.01068,0.00778,-0.03235,-0.00504,0.0032,-0.03372,-0.01816,0.03799,-0.04425
9.381,0.01404,-0.05066,-0.01068,-0.0499,0.12299,0.00412,-0.01709,-0.01099,0.00565,-0.03586,-0.00641,0.00092,-0.03204,-0.01953,0.04623,-0.04807
9.3815,0.00763,-0.04608,-0.01373,-0.05463,0.10818,0.00381,-0.01572,-0.01114,0.00183,-0.0386,-0.00626,-0.00107,-0.03036,-0.01984,0.03891,-0.04929
9.382,0.00061,-0.04089,-0.0119,-0.07492,0.04684,-0.00519,-0.01236,-0.01343,-0.00473,-0.04044,-0.00641,0.00031,-0.02899,-0.01877,0.02518,-0.04791
9.3825,-0.00626,-0.04379,-0.01495,-0.09094,-0.02823,-0.02075,-0.01007,-0.01816,-0.01282,-0.04105,-0.0061,0.00488,-0.0267,-0.01785,0.01373,-0.05173
9.383,-0.0119,-0.05569,-0.02823,-0.09476,-0.10147,-0.03799,-0.00854,-0.02151,-0.0209,-0.04196,-0.0058,0.00778,-0.02426,-0.01801,0.01083,-0.06058
9.3835,-0.01556,-0.06592,-0.04608,-0.08728,-0.15976,-0.05676,-0.00854,-0.02182,-0.0264,-0.04105,-0.00595,0.00549,-0.02304,-0.01801,0.01068,-0.06714
9.384,-0.01862,-0.06958,-0.05737,-0.07034,-0.19257,-0.08041,-0.00885,-0.01923,-0.03159,-0.03815,-0.00854,0.00122,-0.02441,-0.01709,0.0119,-0.065
9.3845,-0.02136,-0.06851,-0.06012,-0.04593,-0.19867,-0.11337,-0.00854,-0.01831,-0.03662,-0.03265,-0.01205,0.00015,-0.0267,-0.01511,0.01266,-0.05569
9.385,-0.02563,-0.07294,-0.05356,-0.02213,-0.18234,-0.14343,-0.00916,-0.02136,-0.04135,-0.02686,-0.01358,0.00153,-0.02838,-0.01495,0.01511,-0.04776
9.3855,-0.02747,-0.08682,-0.04684,-0.00641,-0.14603,-0.15594,-0.00824,-0.02747,-0.04486,-0.02426,-0.01236,0.00198,-0.02686,-0.01572,0.0177,-0.04562
9.386,-0.02533,-0.10452,-0.04196,0.00198,-0.09857,-0.14359,-0.00671,-0.02899,-0.04684,-0.02548,-0.01266,0.00015,-0.0235,-0.01602,0.01999,-0.04562
9.3865,-0.02029,-0.11551,-0.03387,0.00854,-0.05585,-0.11581,-0.00488,-0.01556,-0.04654,-0.02762,-0.01709,-0.00244,-0.01938,-0.01678,0.01984,-0.04501
9.387,-0.01526,-0.11536,-0.0235,0.01648,-0.02548,-0.09293,-0.00259,0.00885,-0.04196,-0.02426,-0.02243,-0.00519,-0.01694,-0.01877,0.01953,-0.04227
9.3875,-0.01129,-0.11139,-0.01663,0.02472,-0.00015,-0.08682,-0.0029,0.01678,-0.03387,-0.0174,-0.02274,-0.00671,-0.01556,-0.02136,0.01617,-0.04044
9.388,-0.0061,-0.10971,-0.02487,0.03098,0.02716,-0.09338,-0.00305,-0.01358,-0.02411,-0.00916,-0.0206,-0.00519,-0.01633,-0.02335,0.00824,-0.03876
9.3885,-0.00061,-0.10834,-0.05219,0.03372,0.05463,-0.09766,-0.0032,-0.06165,-0.01587,-0.0029,-0.01907,-0.00183,-0.01984,-0.02563,-0.00839,-0.03754
9.389,0.00473,-0.09827,-0.0798,0.03479,0.06699,-0.08377,-0.00351,-0.08408,-0.00961,0.00031,-0.01831,0.00137,-0.0235,-0.02823,-0.02747,-0.03647
9.3895,0.00977,-0.07507,-0.09171,0.03357,0.05814,-0.05936,-0.00397,-0.06912,-0.00687,0.00229,-0.0174,0.00153,-0.02777,-0.02899,-0.03281,-0.03632
9.39,0.01266,-0.04349,-0.08347,0.02884,0.03571,-0.04517,-0.00381,-0.03876,-0.00732,0.00153,-0.01709,0.00107,-0.03464,-0.02762,-0.0145,-0.03769
9.3905,0.01175,-0.01129,-0.06638,0.02243,0.0264,-0.05203,-0.00137,-0.00641,-0.01175,-0.00427,-0.01816,-0.00031,-0.04318,-0.02686,0.01221,-0.03738
9.391,0.00839,0.01572,-0.04791,0.01434,0.04074,-0.06409,0.00275,0.02701,-0.01816,-0.01022,-0.01907,-0.00092,-0.05295,-0.02609,0.02792,-0.03647
9.3915,0.00626,0.03555,-0.0351,0.00519,0.07477,-0.06577,0.00504,0.04959,-0.0209,-0.01404,-0.01724,-0.00076,-0.06256,-0.02563,0.0264,-0.03616
9.392,0.00916,0.04791,-0.02975,-0.00626,0.1091,-0.05737,0.00473,0.04578,-0.01923,-0.01572,-0.01617,-0.00015,-0.07065,-0.02472,0.00885,-0.03845
9.3925,0.01724,0.05722,-0.02777,-0.02014,0.12299,-0.0473,0.00336,0.02487,-0.0119,-0.01709,-0.01572,0.0,-0.07233,-0.02167,-0.01755,-0.04471
9.393,0.02792,0.06454,-0.02655,-0.02716,0.10681,-0.0354,0.00305,0.01236,-0.00427,-0.01846,-0.0145,0.00046,-0.06668,-0.01923,-0.04272,-0.05051
9.3935,0.03418,0.06866,-0.02319,-0.00107,0.06805,-0.01999,0.0032,0.01556,0.00107,-0.0206,-0.01221,-0.00015,-0.0592,-0.01801,-0.05096,-0.05417
9.394,0.03311,0.06683,-0.01556,0.08057,0.02563,-0.0058,0.00244,0.01846,0.00519,-0.02274,-0.01083,-0.00183,-0.05386,-0.02014,-0.04272,-0.05188
9.3945,0.02838,0.05676,-0.00565,0.19165,-0.00153,0.00061,0.00061,0.01266,0.00809,-0.02579,-0.01022,-0.00412,-0.05112,-0.02289,-0.03128,-0.03983
9.395,0.02487,0.03845,0.00153,0.25803,-0.00839,-0.00122,-0.00244,0.00702,0.00916,-0.02823,-0.009,-0.00427,-0.04883,-0.02396,-0.02808,-0.02014
9.3955,0.02472,0.01144,0.00183,0.22598,-0.00168,-0.0087,-0.00641,0.00992,0.00504,-0.02991,-0.00824,-0.00015,-0.04471,-0.02304,-0.02701,-0.00168
9.396,0.02731,-0.01785,-0.0029,0.11978,0.01114,-0.01678,-0.00763,0.01923,-0.00275,-0.03326,-0.00595,0.00549,-0.03937,-0.02167,-0.01495,-0.00183
9.3965,0.02808,-0.04028,-0.01022,0.00778,0.02594,-0.02213,-0.0058,0.02808,-0.01129,-0.04089,-0.00351,0.00824,-0.03403,-0.01984,0.00824,-0.02426
9.397,0.02609,-0.04837,-0.01129,-0.07523,0.03662,-0.02716,-0.00244,0.03281,-0.0177,-0.05219,-0.0029,0.00961,-0.03036,-0.01938,0.03113,-0.04944
9.3975,0.02045,-0.04318,-0.02197,-0.14359,0.02716,-0.03311,-0.00031,0.03403,-0.02121,-0.06973,-0.01022,0.01114,-0.02808,-0.01892,0.06165,-0.05646
9.398,0.0116,-0.03662,-0.03357,-0.20615,-0.01343,-0.03906,0.00107,0.03326,-0.02853,-0.08713,-0.03128,0.01053,-0.0293,-0.02014,0.10544,-0.04852
9.3985,0.00015,-0.03723,-0.03281,-0.23376,-0.06714,-0.04425,0.00107,0.03082,-0.04028,-0.09872,-0.05371,0.00595,-0.03143,-0.02014,0.12497,-0.04333
9.399,-0.01328,-0.04623,-0.01266,-0.19821,-0.10559,-0.04807,0.00015,0.02838,-0.05325,-0.10025,-0.0618,0.00031,-0.03296,-0.01923,0.09705,-0.05051
9.3995,-0.02869,-0.05569,0.01404,-0.11688,-0.1152,-0.05264,0.00031,0.02609,-0.06226,-0.09369,-0.05249,0.00031,-0.03189,-0.01938,0.04181,-0.06088
9.4,-0.04333,-0.06058,0.03799,-0.04333,-0.10345,-0.05875,0.00153,0.02106,-0.06561,-0.08041,-0.03723,0.0029,-0.03128,-0.02029,0.00656,-0.06332
9.4005,-0.05096,-0.06287,0.04623,-0.02075,-0.07614,-0.06699,0.00244,0.01297,-0.06546,-0.0592,-0.0235,0.00381,-0.03326,-0.02136,0.00137,-0.05798
9.401,-0.04837,-0.06531,0.03662,-0.04074,-0.03235,-0.07599,0.00092,0.00259,-0.06454,-0.03052,-0.00885,0.00244,-0.03815,-0.0209,0.00443,-0.04852
9.4015,-0.03769,-0.06714,0.01617,-0.05798,0.02335,-0.0856,-0.00031,-0.01175,-0.0647,0.00473,0.0061,0.00092,-0.04257,-0.01968,0.00122,-0.04242
9.402,-0.02441,-0.07202,-0.01678,-0.03204,0.06287,-0.09399,-0.00137,-0.03403,-0.06424,0.04211,0.01678,0.00061,-0.04272,-0.01984,-0.00153,-0.04028
9.4025,-0.01602,-0.08789,-0.05051,0.03235,0.07919,-0.0943,-0.00275,-0.05707,-0.05936,0.07797,0.02243,0.00076,-0.03998,-0.02014,0.0058,-0.03952
9.403,-0.0148,-0.11185,-0.08087,0.09521,0.07629,-0.08453,-0.00458,-0.06332,-0.0499,0.10437,0.02548,0.00183,-0.03845,-0.01938,0.0148,-0.03479
9.4035,-0.01663,-0.13367,-0.10666,0.11932,0.0499,-0.06989,-0.00702,-0.04791,-0.04013,0.11398,0.02731,0.0032,-0.03937,-0.01953,0.01938,-0.02655
9.404,-0.01602,-0.13687,-0.12772,0.10483,-0.00656,-0.05936,-0.01099,-0.02106,-0.03159,0.10422,0.02396,0.00275,-0.04105,-0.02075,0.01495,-0.02121
9.4045,-0.00839,-0.12451,-0.13763,0.07751,-0.06775,-0.05325,-0.01633,0.00214,-0.02319,0.07965,0.01694,-0.00076,-0.03998,-0.01999,0.0029,-0.02121
9.405,0.00198,-0.10666,-0.12924,0.06012,-0.0946,-0.04959,-0.02014,0.01511,-0.01373,0.05096,0.00748,-0.00488,-0.03693,-0.01923,-0.01236,-0.02762
9.4055,0.00397,-0.09003,-0.09598,0.05447,-0.07721,-0.04669,-0.0238,0.01541,-0.00351,0.02472,-0.0032,-0.0061,-0.03494,-0.01724,-0.02289,-0.03387
9.406,-0.00519,-0.07126,-0.04105,0.05051,-0.04837,-0.0444,-0.02686,0.00076,0.00793,0.00366,-0.01541,-0.00458,-0.0322,-0.01511,-0.02335,-0.03525
9.4065,-0.02045,-0.04547,0.0174,0.0386,-0.04929,-0.04257,-0.02991,-0.02304,0.01755,-0.01297,-0.0209,-0.00153,-0.02884,-0.01343,-0.01678,-0.03372
9.407,-0.03647,-0.0174,0.056,0.02029,-0.07828,-0.04608,-0.02991,-0.04303,0.02167,-0.02396,-0.01724,0.00015,-0.0267,-0.01144,-0.00839,-0.0322
9.4075,-0.05295,0.00732,0.06668,0.00336,-0.10056,-0.05173,-0.02548,-0.04654,0.01633,-0.02838,-0.00961,0.00046,-0.02655,-0.00992,0.0032,-0.03418
9.408,-0.0708,0.02365,0.05585,-0.00763,-0.0824,-0.0563,-0.01755,-0.02716,0.00671,-0.02701,-0.0058,0.00076,-0.02701,-0.01038,0.02991,-0.03922
9.4085,-0.08377,0.03113,0.03021,-0.01953,-0.03845,-0.05615,-0.01236,0.00122,-0.00168,-0.02213,-0.00778,0.00259,-0.02747,-0.01129,0.06424,-0.04166
9.409,-0.08987,0.02975,-0.00381,-0.03998,-0.00397,-0.05371,-0.01328,0.01526,-0.00519,-0.01602,-0.01129,0.00397,-0.02747,-0.01251,0.07217,-0.04013
9.4095,-0.09094,0.01678,-0.02991,-0.06775,-0.00534,-0.05432,-0.01923,0.00641,-0.00336,-0.01221,-0.01389,0.0032,-0.02747,-0.01312,0.02914,-0.03723
9.41,-0.08987,-0.01175,-0.03387,-0.09186,-0.02319,-0.05875,-0.02426,-0.01068,0.00107,-0.01144,-0.01556,0.00137,-0.02594,-0.01236,-0.04578,-0.03342
9.4105,-0.08881,-0.04944,-0.0177,-0.0975,-0.03433,-0.06271,-0.02792,-0.01572,0.00427,-0.01373,-0.01953,-0.00046,-0.02548,-0.01144,-0.10513,-0.0351
9.411,-0.08591,-0.07477,-0.00229,-0.07431,-0.03403,-0.06149,-0.02853,-0.00702,0.00412,-0.0174,-0.02548,-0.00046,-0.02747,-0.0119,-0.11795,-0.04471
9.4115,-0.08102,-0.07034,-0.00809,-0.03098,-0.02686,-0.05646,-0.02747,0.00534,0.00153,-0.02167,-0.02945,0.00153,-0.03128,-0.01556,-0.0766,-0.0592
9.412,-0.07263,-0.04227,-0.04257,0.00473,-0.02106,-0.0502,-0.02533,0.01434,-0.00275,-0.02609,-0.02853,0.00473,-0.03387,-0.01816,0.00305,-0.07019
9.4125,-0.06195,-0.01358,-0.09399,0.0061,-0.01572,-0.0444,-0.02213,0.01785,-0.00626,-0.02777,-0.02426,0.00671,-0.03448,-0.01938,0.08469,-0.06851
9.413,-0.05035,0.00427,-0.1387,-0.047,-0.009,-0.04257,-0.01755,0.0119,-0.00702,-0.02762,-0.01999,0.0058,-0.03479,-0.01892,0.12695,-0.06226
9.4135,-0.04028,0.01572,-0.14999,-0.16205,0.01205,-0.04349,-0.01343,-0.00107,-0.00717,-0.02609,-0.01755,0.00183,-0.03555,-0.01999,0.12573,-0.05798
9.414,-0.03143,0.0267,-0.11795,-0.3067,0.0444,-0.04395,-0.01266,-0.01434,-0.00824,-0.02579,-0.0177,0.00031,-0.03769,-0.02197,0.09842,-0.05737
9.4145,-0.0238,0.03357,-0.06149,-0.40283,0.06577,-0.04333,-0.01633,-0.02411,-0.00916,-0.0293,-0.01816,0.00046,-0.0386,-0.02335,0.05676,-0.05524
9.415,-0.0174,0.03143,-0.01419,-0.38971,0.05142,-0.04639,-0.02182,-0.03052,-0.01022,-0.03326,-0.01892,0.0,-0.0386,-0.02274,0.01709,-0.0499
9.4155,-0.01465,0.01923,0.0116,-0.27298,0.00305,-0.05203,-0.02487,-0.03296,-0.01068,-0.03632,-0.01999,-0.00046,-0.03876,-0.02182,-0.00153,-0.04257
9.416,-0.01587,0.00427,0.02182,-0.10376,-0.06348,-0.04929,-0.02365,-0.02808,-0.01022,-0.03632,-0.02014,-0.00137,-0.0386,-0.02182,-0.00504,-0.03769
9.4165,-0.01587,-0.00977,0.01831,0.07538,-0.121,-0.0322,-0.01999,-0.01678,-0.00977,-0.03571,-0.01999,-0.00229,-0.0383,-0.02151,-0.0206,-0.03616
9.417,-0.00793,-0.02548,0.00839,0.2388,-0.14175,-0.00916,-0.01755,-0.00824,-0.01022,-0.03265,-0.01862,-0.00427,-0.03799,-0.02197,-0.06149,-0.03769
9.4175,0.00885,-0.04257,0.00015,0.35278,-0.11063,0.00076,-0.01801,-0.01144,-0.01038,-0.03052,-0.0177,-0.00671,-0.04013,-0.02258,-0.09613,-0.03799
9.418,0.02808,-0.05737,-0.00198,0.37994,-0.03952,-0.01099,-0.01984,-0.02151,-0.00961,-0.03006,-0.01862,-0.00763,-0.04181,-0.02335,-0.0914,-0.03464
9.4185,0.04044,-0.06912,-0.00336,0.31738,0.03326,-0.0264,-0.01923,-0.02487,-0.00809,-0.03174,-0.01892,-0.00717,-0.04227,-0.02304,-0.04608,-0.03418
9.419,0.04181,-0.07675,-0.01144,0.20859,0.07233,-0.02777,-0.01526,-0.01846,-0.00748,-0.03357,-0.01892,-0.00626,-0.0415,-0.02197,0.00885,-0.04242
9.4195,0.03723,-0.08011,-0.02609,0.11307,0.07584,-0.02243,-0.01266,-0.01221,-0.00824,-0.03464,-0.01862,-0.00549,-0.0412,-0.0209,0.03067,-0.0528
9.42,0.03189,-0.07889,-0.0383,0.06256,0.05692,-0.02182,-0.01266,-0.0116,-0.0119,-0.03525,-0.01816,-0.00427,-0.04059,-0.02197,0.00732,-0.05676
9.4205,0.02762,-0.07278,-0.04303,0.04318,0.03372,-0.03006,-0.01556,-0.01556,-0.01602,-0.03677,-0.01862,-0.00397,-0.03937,-0.02289,-0.02655,-0.05051
9.421,0.02396,-0.06241,-0.0415,0.02533,0.00854,-0.03799,-0.01755,-0.0177,-0.01892,-0.0386,-0.01907,-0.00443,-0.03738,-0.02289,-0.04013,-0.04456
9.4215,0.02029,-0.05005,-0.04196,-0.00702,-0.02136,-0.04333,-0.01831,-0.01526,-0.01999,-0.03738,-0.01984,-0.0029,-0.03601,-0.02197,-0.02838,-0.04242
9.422,0.01648,-0.04135,-0.04776,-0.04303,-0.05386,-0.04745,-0.01892,0.0,-0.02121,-0.03632,-0.02304,0.00107,-0.0351,-0.02106,-0.01511,-0.04272
9.4225,0.01404,-0.03952,-0.05722,-0.0618,-0.08209,-0.04929,-0.01831,0.03845,-0.02472,-0.0386,-0.02609,0.00397,-0.03342,-0.02045,-0.02075,-0.04196
9.423,0.01221,-0.0412,-0.06226,-0.06302,-0.09201,-0.04547,-0.01694,0.08408,-0.02914,-0.04242,-0.02823,0.0029,-0.03113,-0.02106,-0.04593,-0.04013
9.4235,0.01007,-0.04425,-0.06271,-0.06226,-0.07492,-0.03784,-0.01678,0.10193,-0.02991,-0.04395,-0.02884,-0.00198,-0.02808,-0.02045,-0.07584,-0.03906
9.424,0.00641,-0.04776,-0.06256,-0.06699,-0.03922,-0.02899,-0.01755,0.07538,-0.02655,-0.04181,-0.02731,-0.00595,-0.0264,-0.01801,-0.07874,-0.04105
9.4245,0.00534,-0.05066,-0.06439,-0.06989,-0.01709,-0.01999,-0.01785,0.02655,-0.02167,-0.03662,-0.02426,-0.00641,-0.02838,-0.01785,-0.04074,-0.04105
9.425,0.01038,-0.05112,-0.0647,-0.06866,-0.02426,-0.01038,-0.01801,-0.01633,-0.01923,-0.03159,-0.02121,-0.00443,-0.03296,-0.02014,0.01297,-0.03891
9.4255,0.01663,-0.0473,-0.06516,-0.07095,-0.04959,-0.00717,-0.01785,-0.04715,-0.02014,-0.02701,-0.01923,-0.00214,-0.03571,-0.02045,0.01877,-0.03799
9.426,0.02136,-0.0412,-0.06531,-0.07416,-0.06912,-0.01556,-0.01724,-0.07202,-0.02228,-0.02396,-0.01816,0.00015,-0.03586,-0.01923,-0.03387,-0.03693
9.4265,0.02472,-0.03769,-0.06424,-0.06226,-0.0853,-0.03143,-0.01648,-0.08743,-0.0238,-0.02029,-0.01663,0.00076,-0.03632,-0.01816,-0.08789,-0.03464
9.427,0.02655,-0.04013,-0.05844,-0.02655,-0.11368,-0.04547,-0.01419,-0.08499,-0.02594,-0.01511,-0.01465,-0.00031,-0.03937,-0.01801,-0.09872,-0.03204
9.4275,0.02518,-0.04791,-0.04623,0.01694,-0.15411,-0.05081,-0.01266,-0.06699,-0.03021,-0.00931,-0.01312,-0.00122,-0.04425,-0.01785,-0.07233,-0.03021
9.428,0.02213,-0.05615,-0.03174,0.04776,-0.16281,-0.04517,-0.01312,-0.04242,-0.03448,-0.0029,-0.01038,-0.00198,-0.04684,-0.01953,-0.02945,-0.03281
9.4285,0.02136,-0.06027,-0.02045,0.0592,-0.10193,-0.03159,-0.01251,-0.02579,-0.03616,0.00336,-0.0087,-0.00061,-0.04669,-0.02151,0.05249,-0.03906
9.429,0.02228,-0.06134,-0.01495,0.05783,0.00275,-0.01648,-0.01129,-0.02319,-0.0325,0.00961,-0.0087,0.00122,-0.04364,-0.02182,0.16235,-0.04471
9.4295,0.02213,-0.06226,-0.01312,0.04883,0.07217,-0.00549,-0.01099,-0.02563,-0.02487,0.01541,-0.00885,0.00244,-0.04135,-0.01907,0.23865,-0.04501
9.43,0.02014,-0.06531,-0.01678,0.03571,0.06897,-0.00717,-0.01038,-0.01755,-0.01587,0.01907,-0.00687,0.00153,-0.0386,-0.01526,0.23209,-0.0386
9.4305,0.0209,-0.06699,-0.01602,0.02029,0.02014,-0.0209,-0.00931,0.00778,-0.01068,0.02045,-0.00458,-0.00015,-0.03571,-0.01251,0.17029,-0.02808
9.431,0.02869,-0.06378,-0.01022,0.00656,-0.02991,-0.03998,-0.0061,0.04105,-0.00961,0.01862,-0.0058,-0.00122,-0.03311,-0.0119,0.09445,-0.02655
9.4315,0.03937,-0.05661,0.00015,-0.009,-0.06424,-0.05295,-0.00397,0.06882,-0.01007,0.01099,-0.01083,0.00092,-0.03113,-0.01099,0.00778,-0.04089
9.432,0.04547,-0.04944,0.00641,-0.03677,-0.08224,-0.05722,-0.00366,0.0824,-0.00824,-0.00259,-0.01419,0.00412,-0.0293,-0.01068,-0.0885,-0.06027
9.4325,0.04517,-0.04532,0.00259,-0.07034,-0.07156,-0.05936,-0.00488,0.07858,-0.00656,-0.01846,-0.01389,0.0058,-0.02762,-0.01068,-0.15869,-0.06638
9.433,0.04013,-0.04242,-0.01297,-0.08331,-0.02945,-0.06439,-0.00534,0.05844,-0.00626,-0.02777,-0.01251,0.00427,-0.02533,-0.01114,-0.1622,-0.06073
9.4335,0.03403,-0.03876,-0.03036,-0.06073,0.02579,-0.07507,-0.0061,0.03021,-0.00595,-0.03082,-0.01099,0.00107,-0.02396,-0.01221,-0.08652,-0.05768
9.434,0.02884,-0.03784,-0.03891,-0.02228,0.06104,-0.0856,-0.00732,0.0058,-0.00504,-0.0296,-0.01251,-0.00153,-0.02335,-0.01251,0.04059,-0.06195
9.4345,0.02716,-0.04227,-0.03983,0.0032,0.05295,-0.09293,-0.00839,-0.00565,-0.00534,-0.02762,-0.0148,-0.00443,-0.02228,-0.01129,0.1564,-0.06241
9.435,0.02731,-0.05157,-0.04074,0.01038,0.00351,-0.0972,-0.01022,-0.00473,-0.0058,-0.02533,-0.01648,-0.0058,-0.02106,-0.01129,0.19028,-0.05463
9.4355,0.02914,-0.06592,-0.05844,0.00275,-0.06226,-0.09567,-0.01328,0.00015,-0.00732,-0.02258,-0.01862,-0.0061,-0.0206,-0.01099,0.12909,-0.04608
9.436,0.02808,-0.08362,-0.10193,-0.01175,-0.10345,-0.08865,-0.01602,-0.00137,-0.00763,-0.01984,-0.02014,-0.00336,-0.02228,-0.01144,0.04486,-0.04379
9.4365,0.02579,-0.09506,-0.15076,-0.02151,-0.10147,-0.07904,-0.01923,-0.01404,-0.00763,-0.01801,-0.01999,-0.00153,-0.02441,-0.0119,0.02502,-0.04318
9.437,0.02411,-0.09399,-0.16617,-0.00214,-0.09018,-0.07263,-0.02274,-0.03143,-0.00778,-0.01724,-0.01938,0.00061,-0.02548,-0.01114,0.07141,-0.0386
9.4375,0.02396,-0.08835,-0.13474,0.05219,-0.11505,-0.07172,-0.02533,-0.04532,-0.00946,-0.01587,-0.01968,0.00122,-0.02579,-0.01007,0.10147,-0.03372
9.438,0.02304,-0.09354,-0.08102,0.09979,-0.16541,-0.07004,-0.0267,-0.05325,-0.01266,-0.01251,-0.01968,0.00137,-0.02686,-0.00931,0.06882,-0.03311
9.4385,0.02167,-0.10132,-0.02823,0.08621,-0.18127,-0.0618,-0.02731,-0.0563,-0.01511,-0.01068,-0.02106,0.00153,-0.02899,-0.01038,0.00473,-0.03693
9.439,0.02075,-0.09506,0.01724,0.01099,-0.13611,-0.04395,-0.02762,-0.06104,-0.01678,-0.01221,-0.02258,0.00168,-0.03159,-0.01282,-0.03433,-0.04074
9.4395,0.01831,-0.07019,0.05188,-0.06577,-0.07263,-0.02274,-0.02853,-0.065,-0.0177,-0.01556,-0.02151,0.00336,-0.03464,-0.01648,-0.03876,-0.04211
9.44,0.01572,-0.04318,0.0679,-0.09933,-0.04669,-0.01114,-0.02853,-0.06348,-0.01785,-0.01801,-0.01953,0.00488,-0.03937,-0.01953,-0.02289,-0.03967
9.4405,0.01282,-0.02762,0.06256,-0.10178,-0.05371,-0.01251,-0.02563,-0.05234,-0.0174,-0.02228,-0.01755,0.00549,-0.04471,-0.02213,0.0119,-0.03784
9.441,0.01083,-0.02075,0.047,-0.10834,-0.04318,-0.02075,-0.02197,-0.03708,-0.0174,-0.02701,-0.01709,0.00504,-0.04898,-0.02289,0.06439,-0.03799
9.4415,0.01099,-0.01541,0.02945,-0.12405,0.01495,-0.02365,-0.01907,-0.02609,-0.01709,-0.03098,-0.01801,0.00458,-0.04913,-0.02106,0.09689,-0.04044
9.442,0.00961,-0.00961,0.01038,-0.12802,0.0856,-0.01953,-0.01785,-0.02182,-0.01816,-0.03036,-0.01953,0.00458,-0.04654,-0.01801,0.08072,-0.04349
9.4425,0.00778,-0.00702,-0.00458,-0.10925,0.10742,-0.02045,-0.01663,-0.03036,-0.01968,-0.02747,-0.02014,0.0058,-0.04471,-0.01648,0.02838,-0.04349
9.443,0.00443,-0.00793,-0.01343,-0.07538,0.05661,-0.03067,-0.01434,-0.056,-0.0206,-0.0235,-0.02029,0.00885,-0.04395,-0.01648,-0.01694,-0.04181
9.4435,0.00061,-0.00854,-0.01556,-0.03998,-0.02731,-0.04517,-0.01175,-0.08514,-0.02075,-0.0206,-0.02136,0.01251,-0.04379,-0.0177,-0.03845,-0.04059
9.444,-0.00381,-0.00656,-0.01495,-0.00793,-0.09293,-0.0528,-0.00977,-0.09064,-0.02075,-0.01907,-0.02197,0.01328,-0.04364,-0.01816,-0.03937,-0.04013
9.4445,-0.00656,-0.00381,-0.01602,0.01678,-0.12253,-0.05035,-0.00854,-0.05936,-0.0209,-0.01801,-0.02289,0.01114,-0.04425,-0.01831,-0.0325,-0.0412
9.445,-0.00641,-0.00381,-0.02502,0.0296,-0.13504,-0.04532,-0.00885,-0.00671,-0.02029,-0.01587,-0.02274,0.00916,-0.04349,-0.01755,-0.0145,-0.04196
9.4455,-0.00671,-0.00824,-0.0386,0.03433,-0.15121,-0.04074,-0.00916,0.05127,-0.01953,-0.01465,-0.02045,0.01022,-0.04166,-0.01724,0.01099,-0.04181
9.446,-0.01175,-0.01511,-0.05569,0.04211,-0.15686,-0.03555,-0.00931,0.09476,-0.01938,-0.01541,-0.0174,0.01358,-0.04089,-0.01801,0.03342,-0.04242
9.4465,-0.02182,-0.01938,-0.07065,0.05646,-0.12146,-0.03021,-0.00977,0.1062,-0.01999,-0.01663,-0.01587,0.01236,-0.04166,-0.01907,0.04333,-0.04379
9.447,-0.03098,-0.0206,-0.08087,0.06699,-0.04425,-0.0267,-0.00824,0.0853,-0.02014,-0.01938,-0.01587,0.00671,-0.04227,-0.01862,0.04517,-0.04349
9.4475,-0.03342,-0.02487,-0.08255,0.06119,0.03632,-0.02945,-0.00595,0.05234,-0.01953,-0.02029,-0.01648,0.00244,-0.04166,-0.0177,0.04272,-0.04333
9.448,-0.03098,-0.03586,-0.07507,0.03983,0.07782,-0.03677,-0.00427,0.02823,-0.01755,-0.01953,-0.01572,0.00244,-0.03738,-0.01602,0.02869,-0.04227
9.4485,-0.03204,-0.04944,-0.06516,0.01205,0.07507,-0.04364,-0.0058,0.02151,-0.01556,-0.01831,-0.01282,0.00519,-0.03403,-0.01602,-0.00397,-0.04074
9.449,-0.04349,-0.0563,-0.05966,-0.00854,0.05554,-0.0441,-0.00824,0.03296,-0.01328,-0.01831,-0.00992,0.00854,-0.03174,-0.01801,-0.0473,-0.0386
9.4495,-0.06775,-0.05264,-0.05905,-0.0145,0.0441,-0.03891,-0.01114,0.05493,-0.01282,-0.02151,-0.00824,0.01266,-0.02884,-0.01862,-0.08072,-0.03632
9.45,-0.09827,-0.04684,-0.05615,-0.00992,0.04761,-0.03357,-0.01068,0.06805,-0.01266,-0.02441,-0.0087,0.01343,-0.02548,-0.0177,-0.0882,-0.03372
9.4505,-0.121,-0.04822,-0.04852,-0.00504,0.05127,-0.03433,-0.0087,0.05753,-0.01266,-0.02777,-0.00931,-0.00244,-0.02304,-0.01709,-0.06927,-0.03235
9.451,-0.13031,-0.05295,-0.04196,-0.00214,0.03708,-0.0383,-0.00687,0.03067,-0.0119,-0.02869,-0.01068,-0.04639,-0.01923,-0.01526,-0.03693,-0.03357
9.4515,-0.1329,-0.0528,-0.03845,0.00107,-0.00336,-0.03998,-0.00565,0.01099,-0.01022,-0.02747,-0.0116,-0.11108,-0.01663,-0.01404,-0.01038,-0.03571
9.452,-0.13565,-0.0444,-0.0351,0.00702,-0.05524,-0.03876,-0.00366,0.0119,-0.00778,-0.02472,-0.01175,-0.17792,-0.01648,-0.01434,0.00107,-0.03616
9.4525,-0.14236,-0.03586,-0.03052,0.01373,-0.08072,-0.03586,-0.00244,0.02167,-0.00641,-0.02274,-0.01129,-0.21698,-0.01694,-0.01465,0.00519,-0.03586
9.453,-0.16312,-0.03174,-0.02808,0.01465,-0.05005,-0.03464,-0.00412,0.01923,-0.00626,-0.02274,-0.01053,-0.20584,-0.01755,-0.01343,0.01007,-0.03616
9.4535,-0.20416,-0.03082,-0.02777,0.01083,0.01938,-0.03647,-0.01053,-0.00366,-0.00717,-0.02289,-0.0119,-0.14923,-0.0177,-0.01282,0.01511,-0.03738
9.454,-0.25345,-0.02777,-0.02991,0.00778,0.10208,-0.03952,-0.01724,-0.03616,-0.00809,-0.02243,-0.01495,-0.07492,-0.01831,-0.01434,0.01312,-0.03876
9.4545,-0.28564,-0.02365,-0.02991,0.01053,0.1796,-0.04288,-0.0177,-0.0563,-0.00671,-0.02136,-0.01862,-0.00443,-0.01907,-0.01648,-0.0029,-0.04089
9.455,-0.29236,-0.02289,-0.0296,0.0174,0.22873,-0.04745,-0.01038,-0.05219,-0.00748,-0.01968,-0.02136,0.06897,-0.01938,-0.01755,-0.03479,-0.03677
9.4555,-0.28931,-0.02304,-0.0293,0.0206,0.21271,-0.05478,0.00061,-0.02747,-0.00992,-0.01862,-0.0209,0.15671,-0.01923,-0.01709,-0.07095,-0.03662
9.456,-0.28854,-0.02335,-0.03113,0.01541,0.1265,-0.06332,0.00916,0.00732,-0.0119,-0.0177,-0.01755,0.24033,-0.01892,-0.01602,-0.09888,-0.0354
9.4565,-0.28748,-0.02365,-0.03098,-0.00168,-0.00214,-0.0705,0.01312,0.04089,-0.0119,-0.0174,-0.01465,0.27328,-0.01892,-0.01602,-0.10666,-0.03586
9.457,-0.28305,-0.02411,-0.02945,-0.02396,-0.14786,-0.07385,0.01022,0.06226,-0.01114,-0.01694,-0.01328,0.22659,-0.01892,-0.01694,-0.0946,-0.03708
9.4575,-0.27954,-0.02396,-0.02594,-0.03891,-0.2858,-0.07141,-0.00244,0.06256,-0.01282,-0.01678,-0.01572,0.12833,-0.01999,-0.01816,-0.07538,-0.03937
9.458,-0.28,-0.02289,-0.02365,-0.04333,-0.37292,-0.07141,-0.02686,0.0473,-0.01511,-0.01648,-0.01724,0.04288,-0.02243,-0.01724,-0.06683,-0.04196
9.4585,-0.2739,-0.02319,-0.02365,-0.04517,-0.37613,-0.07034,-0.0473,0.0264,-0.0177,-0.01602,-0.0174,0.02045,-0.0238,-0.01511,-0.06393,-0.04501
9.459,-0.25696,-0.02731,-0.02838,-0.05066,-0.31067,-0.07156,-0.0473,0.00504,-0.01755,-0.01648,-0.01709,0.056,-0.02228,-0.01343,-0.05386,-0.04593
9.4595,-0.23056,-0.03372,-0.03448,-0.05569,-0.22491,-0.07294,-0.02777,-0.0148,-0.01678,-0.0174,-0.01755,0.09689,-0.01953,-0.01282,0.0058,-0.04562
9.46,-0.20248,-0.03937,-0.03708,-0.056,-0.14923,-0.07004,-0.01434,-0.03098,-0.01572,-0.02014,-0.0177,0.09705,-0.01724,-0.01358,0.1297,-0.04379
9.4605,-0.17853,-0.04517,-0.03571,-0.05569,-0.09613,-0.07065,-0.0206,-0.03601,-0.01419,-0.02121,-0.01648,0.06439,-0.01892,-0.01419,0.24109,-0.0415
9.461,-0.1593,-0.05142,-0.0325,-0.05295,-0.06592,-0.06683,-0.03418,-0.03159,-0.0119,-0.02167,-0.01389,0.03479,-0.02304,-0.01511,0.24155,-0.04105
9.4615,-0.14816,-0.05783,-0.03159,-0.04227,-0.05875,-0.06927,-0.03433,-0.02243,-0.009,-0.01968,-0.01068,0.01724,-0.02625,-0.01602,0.13702,-0.0412
9.462,-0.14511,-0.06577,-0.03647,-0.02518,-0.06546,-0.07172,-0.0267,-0.01648,-0.00824,-0.01602,-0.00824,-0.00504,-0.02853,-0.01617,0.04044,-0.04257
9.4625,-0.14694,-0.07919,-0.05127,-0.01999,-0.08011,-0.07355,-0.03128,-0.01266,-0.00992,-0.01221,-0.00565,-0.0325,-0.02945,-0.01633,0.02243,-0.04303
9.463,-0.14679,-0.09827,-0.06546,-0.0322,-0.09903,-0.07126,-0.04745,-0.00748,-0.0116,-0.00824,-0.00443,-0.04761,-0.03159,-0.01785,0.03967,-0.04562
9.4635,-0.13824,-0.11185,-0.06973,-0.04089,-0.1123,-0.06332,-0.04471,0.00824,-0.01282,-0.00504,-0.00488,-0.04761,-0.03326,-0.02106,0.03433,-0.04944
9.464,-0.12177,-0.10971,-0.06165,-0.02777,-0.09613,-0.0499,-0.00671,0.04562,-0.01358,-0.00351,-0.0061,-0.04242,-0.0354,-0.02365,0.0087,-0.04929
9.4645,-0.10574,-0.09155,-0.04837,-0.00168,-0.04913,-0.03448,0.03586,0.09888,-0.01526,-0.00519,-0.00854,-0.03738,-0.03769,-0.02411,-0.00366,-0.04822
9.465,-0.09415,-0.06744,-0.03983,0.01404,0.00229,-0.02411,0.04105,0.13214,-0.01724,-0.0087,-0.01053,-0.02823,-0.04059,-0.02365,-0.00244,-0.04578
9.4655,-0.08286,-0.04364,-0.03418,0.01724,0.02823,-0.0235,0.01099,0.1123,-0.01801,-0.01266,-0.01114,-0.01526,-0.04501,-0.02579,0.00122,-0.04471
9.466,-0.06622,-0.02274,-0.03357,0.02441,0.02731,-0.02609,-0.0145,0.05081,-0.01785,-0.01633,-0.00885,-0.00305,-0.04807,-0.02747,0.00107,-0.04242
9.4665,-0.04517,-0.00641,-0.03983,0.0412,0.01862,-0.03021,-0.01785,-0.01434,-0.01801,-0.01724,-0.00793,-0.00153,-0.04852,-0.0267,0.00198,-0.04028
9.467,-0.02197,0.00305,-0.06287,0.05829,0.01862,-0.03281,-0.0116,-0.06287,-0.01831,-0.01617,-0.00793,-0.01282,-0.04486,-0.02502,0.00412,-0.03998
9.4675,-0.00015,0.00641,-0.11032,0.06363,0.02289,-0.03494,-0.00824,-0.09232,-0.01663,-0.01434,-0.00839,-0.03235,-0.03845,-0.02411,0.00153,-0.04211
9.468,0.02045,0.0058,-0.16449,0.05829,0.03204,-0.03494,-0.00305,-0.1091,-0.01373,-0.01419,-0.00946,-0.06714,-0.03143,-0.02426,-0.00961,-0.04425
9.4685,0.04013,-0.00198,-0.18784,0.04333,0.05096,-0.03494,0.00946,-0.11688,-0.01373,-0.01648,-0.00977,-0.14145,-0.02701,-0.02396,-0.01434,-0.04364
9.469,0.05875,-0.01572,-0.15656,0.0206,0.0766,-0.03387,0.01785,-0.11917,-0.01587,-0.01862,-0.00961,-0.25131,-0.02655,-0.02396,-0.00839,-0.04379
9.4695,0.07492,-0.02899,-0.08347,-0.00565,0.09232,-0.03433,0.01022,-0.12024,-0.01801,-0.01862,-0.009,-0.33752,-0.02838,-0.02319,0.00214,-0.0441
9.47,0.08804,-0.03448,0.00061,-0.02441,0.08789,-0.03601,-0.00809,-0.11932,-0.01617,-0.01785,-0.009,-0.34973,-0.02991,-0.02213,0.00854,-0.04486
9.4705,0.09933,-0.03647,0.06958,-0.02884,0.07172,-0.04028,-0.02396,-0.11337,-0.01373,-0.01801,-0.00854,-0.30396,-0.02975,-0.01999,0.00702,-0.04456
9.471,0.11032,-0.03845,0.10345,-0.02655,0.05844,-0.0444,-0.03098,-0.09979,-0.01236,-0.01938,-0.009,-0.22858,-0.02853,-0.01816,0.00351,-0.0444
9.4715,0.12115,-0.04211,0.09613,-0.03174,0.05173,-0.0499,-0.03143,-0.08072,-0.0116,-0.01999,-0.00839,-0.10956,-0.02762,-0.01648,0.00168,-0.04288
9.472,0.12741,-0.04532,0.06302,-0.04929,0.04166,-0.05539,-0.03067,-0.05951,-0.01038,-0.02121,-0.00793,0.05768,-0.02945,-0.01587,0.00153,-0.04333
9.4725,0.13184,-0.04547,0.03143,-0.07751,0.02304,-0.06073,-0.03952,-0.04272,-0.01129,-0.02029,-0.00809,0.21423,-0.0322,-0.01556,0.00275,-0.04227
9.473,0.13977,-0.04333,0.01694,-0.10757,-0.00122,-0.06424,-0.05798,-0.0325,-0.01434,-0.02029,-0.009,0.26978,-0.0325,-0.01434,0.00275,-0.04135
9.4735,0.15457,-0.04257,0.01602,-0.12619,-0.02731,-0.06516,-0.06775,-0.02701,-0.01801,-0.01907,-0.01083,0.18997,-0.03143,-0.01373,0.00183,-0.04242
9.474,0.17746,-0.04395,0.01526,-0.11993,-0.05264,-0.06592,-0.05264,-0.01816,-0.01862,-0.01617,-0.01358,0.03876,-0.02869,-0.01526,0.00244,-0.04562
9.4745,0.20264,-0.0441,0.00763,-0.08987,-0.0708,-0.06454,-0.02335,-0.0029,-0.01602,-0.01465,-0.01328,-0.05737,-0.02457,-0.01816,0.00397,-0.04745
9.475,0.22034,-0.04211,-0.01068,-0.05402,-0.08408,-0.06119,-0.00778,0.01526,-0.01343,-0.01587,-0.0119,-0.01389,-0.02365,-0.02075,0.00458,-0.04852
9.4755,0.22766,-0.03891,-0.03601,-0.03311,-0.09384,-0.05676,-0.02075,0.02808,-0.01205,-0.01907,-0.01221,0.14404,-0.02792,-0.02411,0.00534,-0.04639
9.476,0.23056,-0.03662,-0.05829,-0.03052,-0.09491,-0.05554,-0.05219,0.03296,-0.01144,-0.0235,-0.01465,0.29984,-0.03448,-0.02594,0.00458,-0.04211
9.4765,0.2356,-0.03662,-0.07019,-0.03479,-0.07584,-0.05707,-0.08362,0.03571,-0.01129,-0.02579,-0.01785,0.33554,-0.03784,-0.02487,0.00458,-0.03922
9.477,0.24216,-0.04028,-0.07065,-0.03433,-0.03983,-0.05905,-0.10452,0.03769,-0.00961,-0.02594,-0.01999,0.24323,-0.03754,-0.02243,0.00412,-0.03906
9.4775,0.24567,-0.05493,-0.06607,-0.02655,-0.01495,-0.05859,-0.11322,0.03937,-0.00671,-0.02441,-0.01999,0.13382,-0.03632,-0.02075,0.00122,-0.04044
9.478,0.24445,-0.08514,-0.06729,-0.01114,-0.01999,-0.05692,-0.10666,0.03952,-0.00626,-0.02243,-0.01984,0.10162,-0.03693,-0.02014,0.00214,-0.04196
9.4785,0.24384,-0.11353,-0.07782,0.01083,-0.04944,-0.05341,-0.08438,0.04395,-0.00931,-0.02258,-0.01862,0.11108,-0.03937,-0.01953,0.00305,-0.04364
9.479,0.24445,-0.12192,-0.09583,0.03433,-0.07355,-0.04669,-0.05524,0.06424,-0.01434,-0.02655,-0.01678,0.08621,-0.03922,-0.0177,0.00397,-0.04379
9.4795,0.24307,-0.11169,-0.10529,0.05157,-0.0647,-0.03754,-0.03754,0.11017,-0.01633,-0.02899,-0.01373,0.03265,-0.03418,-0.01465,0.00443,-0.04456
9.48,0.23804,-0.09933,-0.09796,0.05341,-0.03265,-0.03189,-0.047,0.16632,-0.0145,-0.02762,-0.01038,0.00092,-0.02609,-0.01236,0.00381,-0.0444
9.4805,0.23148,-0.09094,-0.07614,0.04089,-0.00229,-0.03189,-0.07111,0.18387,-0.01312,-0.02609,-0.00793,-0.00336,-0.01877,-0.01556,0.00381,-0.04456
9.481,0.22659,-0.08072,-0.04898,0.02594,0.00717,-0.03448,-0.06165,0.13443,-0.01526,-0.02472,-0.00626,-0.00992,-0.01373,-0.02304,0.00565,-0.04471
9.4815,0.2243,-0.06256,-0.02441,0.02167,0.00443,-0.0383,0.01175,0.04868,-0.02045,-0.0238,-0.00534,-0.02121,-0.01068,-0.02853,0.00656,-0.04562
9.482,0.22003,-0.03906,-0.00671,0.02853,-0.00107,-0.04059,0.09796,-0.02121,-0.02579,-0.02365,-0.00504,-0.01572,-0.00977,-0.02869,0.00519,-0.04654
9.4825,0.21408,-0.01556,0.00153,0.03235,-0.0058,-0.04272,0.11536,-0.06149,-0.02853,-0.02029,-0.00656,0.00778,-0.01205,-0.02441,0.00443,-0.04608
9.483,0.20828,0.00534,0.00168,0.02274,-0.01129,-0.04303,0.05356,-0.0882,-0.02838,-0.01602,-0.00977,0.01358,-0.01556,-0.02106,0.0058,-0.0444
9.4835,0.20447,0.02075,-0.00275,0.00427,-0.01587,-0.04349,-0.01587,-0.10422,-0.02823,-0.0119,-0.01236,-0.02548,-0.01968,-0.02045,0.00839,-0.04272
9.484,0.20111,0.02899,-0.00793,-0.00549,-0.01541,-0.04623,-0.03281,-0.09888,-0.02853,-0.00961,-0.01297,-0.08911,-0.02335,-0.02136,0.01099,-0.04242
9.4845,0.19592,0.03189,-0.01282,0.00076,-0.00961,-0.05249,-0.00046,-0.07507,-0.02869,-0.00946,-0.01389,-0.13245,-0.02792,-0.02121,0.01053,-0.04272
9.485,0.18829,0.03189,-0.01541,0.00992,-0.0061,-0.05539,0.04944,-0.05493,-0.02625,-0.01129,-0.01373,-0.14145,-0.03647,-0.02014,0.00931,-0.04547
9.4855,0.18219,0.0322,-0.01968,0.00412,-0.00488,-0.05386,0.09415,-0.04852,-0.01984,-0.01266,-0.01404,-0.13275,-0.04807,-0.01724,0.01007,-0.04623
9.486,0.17792,0.0296,-0.02029,-0.01511,-0.00122,-0.05005,0.11276,-0.04562,-0.01114,-0.01328,-0.01465,-0.12665,-0.05585,-0.01617,0.00885,-0.04578
9.4865,0.17166,0.01999,-0.01953,-0.02731,0.0087,-0.04959,0.09354,-0.03479,-0.00458,-0.01038,-0.01556,-0.13596,-0.05539,-0.01724,0.00702,-0.04349
9.487,0.15991,0.00183,-0.01862,-0.0177,0.02213,-0.05035,0.05508,-0.01587,-0.00198,-0.00702,-0.01572,-0.15823,-0.04852,-0.01862,0.00885,-0.04135
9.4875,0.14297,-0.02274,-0.01678,0.00122,0.03082,-0.05096,0.00992,0.00626,-0.00229,-0.00687,-0.01465,-0.16602,-0.03983,-0.01923,0.01083,-0.04044
9.488,0.12558,-0.04868,-0.01785,0.00961,0.02716,-0.05066,-0.04959,0.02472,-0.00427,-0.01053,-0.01266,-0.11307,-0.03403,-0.01953,0.01251,-0.03876
9.4885,0.11002,-0.06638,-0.01892,0.00229,0.01419,-0.05219,-0.10635,0.03693,-0.00626,-0.01465,-0.01221,0.01816,-0.03082,-0.02106,0.01328,-0.03799
9.489,0.09567,-0.06363,-0.02686,-0.01129,-0.00305,-0.05875,-0.10086,0.04196,-0.00763,-0.01816,-0.01282,0.16617,-0.03067,-0.02197,0.0116,-0.03845
9.4895,0.08224,-0.04196,-0.0351,-0.01526,-0.01785,-0.06699,-0.01465,0.04425,-0.00778,-0.01709,-0.01221,0.22247,-0.03082,-0.02197,0.01114,-0.0383
9.49,0.06927,-0.01694,-0.04074,-0.01022,-0.02213,-0.07248,0.07874,0.04318,-0.00702,-0.01495,-0.01083,0.13733,-0.03098,-0.02121,0.01083,-0.03815
9.4905,0.05859,-0.00793,-0.04196,-0.0058,-0.01999,-0.07217,0.10559,0.03647,-0.00809,-0.0148,-0.01114,-0.02472,-0.03143,-0.0209,0.0116,-0.03799
9.491,0.05127,-0.02243,-0.04181,-0.01038,-0.0235,-0.06882,0.07584,0.02304,-0.01007,-0.01389,-0.01205,-0.16083,-0.03403,-0.01938,0.01022,-0.04044
9.4915,0.05081,-0.04547,-0.04547,-0.01984,-0.04303,-0.06577,0.03998,0.00687,-0.01221,-0.01465,-0.01221,-0.21851,-0.03662,-0.01312,0.01221,-0.04318
9.492,0.056,-0.06332,-0.05356,-0.02533,-0.08377,-0.06149,0.01617,-0.00336,-0.01236,-0.0148,-0.01312,-0.19455,-0.03738,-0.00534,0.01175,-0.04501
9.4925,0.06134,-0.07202,-0.06073,-0.02472,-0.13275,-0.05814,-0.00122,-0.00549,-0.01129,-0.01541,-0.01282,-0.10025,-0.03387,-0.00275,0.01297,-0.04486
9.493,0.06378,-0.07721,-0.06027,-0.01816,-0.17059,-0.05814,-0.01038,-0.00381,-0.01083,-0.01663,-0.01297,0.03616,-0.03036,-0.009,0.01297,-0.04257
9.4935,0.06744,-0.07889,-0.04883,-0.00595,-0.19135,-0.06027,-0.00763,-0.00397,-0.01099,-0.01709,-0.01266,0.15244,-0.0293,-0.01877,0.01205,-0.04196
9.494,0.07507,-0.07324,-0.03403,0.00565,-0.19257,-0.06348,-0.00153,-0.00778,-0.01099,-0.01694,-0.01297,0.19119,-0.0293,-0.02243,0.01144,-0.04242
9.4945,0.08179,-0.06256,-0.02029,0.00885,-0.16403,-0.06271,-0.0058,-0.01114,-0.00992,-0.01694,-0.0148,0.12833,-0.0296,-0.02197,0.01175,-0.04288
9.495,0.07904,-0.05234,-0.01404,0.00137,-0.11536,-0.05859,-0.01587,-0.01083,-0.00946,-0.01587,-0.01556,-0.03189,-0.02884,-0.02045,0.01236,-0.04272
9.4955,0.06729,-0.04974,-0.01358,-0.009,-0.07507,-0.05157,-0.0238,-0.009,-0.01099,-0.01663,-0.01556,-0.24506,-0.0293,-0.02029,0.01266,-0.04181
9.496,0.056,-0.05096,-0.01511,-0.01648,-0.06348,-0.0444,-0.02609,-0.00885,-0.01282,-0.01755,-0.01541,-0.42419,-0.03021,-0.02151,0.01068,-0.04166
9.4965,0.04974,-0.0563,-0.0209,-0.02502,-0.06439,-0.03693,-0.02609,-0.01022,-0.01282,-0.01999,-0.01495,-0.49393,-0.03082,-0.02258,0.0116,-0.04425
9.497,0.04684,-0.06226,-0.02167,-0.04211,-0.05371,-0.03052,-0.0264,-0.01328,-0.01205,-0.02106,-0.01434,-0.43091,-0.03006,-0.02197,0.00763,-0.04761
9.4975,0.04318,-0.06516,-0.02487,-0.0676,-0.01938,-0.02563,-0.02518,-0.01419,-0.01205,-0.02213,-0.01328,-0.24139,-0.02899,-0.02167,0.00565,-0.05005
9.498,0.03662,-0.06454,-0.03113,-0.09369,0.02838,-0.02396,-0.02014,-0.01175,-0.01251,-0.02136,-0.01343,0.03357,-0.03006,-0.02121,0.00549,-0.05127
9.4985,0.02716,-0.05707,-0.04044,-0.11093,0.06683,-0.02548,-0.01816,-0.00671,-0.01328,-0.02045,-0.01328,0.29648,-0.03082,-0.01999,0.0061,-0.05142
9.499,0.01251,-0.04944,-0.04227,-0.10544,0.07446,-0.02853,-0.03204,-0.00076,-0.01358,-0.01953,-0.01312,0.43961,-0.02975,-0.01785,0.0061,-0.05112
9.4995,-0.00687,-0.04501,-0.047,-0.07568,0.04974,-0.03098,-0.06119,0.0058,-0.01373,-0.01907,-0.01282,0.42267,-0.02579,-0.01495,0.00671,-0.04929
9.5,-0.02502,-0.04532,-0.0415,-0.03952,0.01724,-0.03281,-0.0769,0.01083,-0.01389,-0.01953,-0.01511,0.27649,-0.02121,-0.0145,0.00809,-0.04654
9.5005,-0.03448,-0.04761,-0.03571,-0.01953,-0.01923,-0.03693,-0.056,0.00992,-0.01419,-0.01755,-0.01831,0.07568,-0.01984,-0.01602,0.01129,-0.0441
9.501,-0.03464,-0.04807,-0.03159,-0.01404,-0.05844,-0.04074,-0.02106,0.00351,-0.01465,-0.01602,-0.0206,-0.08774,-0.02075,-0.01862,0.01465,-0.04379
9.5015,-0.03174,-0.04562,-0.03128,-0.00412,-0.07095,-0.04349,-0.0058,-0.00244,-0.01373,-0.01678,-0.01953,-0.14221,-0.02243,-0.02136,0.01678,-0.04242
9.502,-0.02853,-0.03983,-0.0351,0.02014,-0.00641,-0.04166,-0.01053,-0.00443,-0.01251,-0.01938,-0.01678,-0.0769,-0.02151,-0.02197,0.01389,-0.04105
9.5025,-0.02213,-0.03647,-0.03342,0.04883,0.13077,-0.03616,-0.01236,-0.00107,-0.01251,-0.0206,-0.01511,0.06134,-0.01724,-0.0209,0.01617,-0.03983
9.503,-0.0119,-0.03586,-0.03448,0.06851,0.25436,-0.02899,-0.00763,0.00336,-0.0148,-0.02151,-0.0145,0.19958,-0.01541,-0.01892,0.01556,-0.0383
9.5035,-0.00381,-0.03632,-0.03693,0.07523,0.27664,-0.01953,-0.01038,0.00626,-0.01587,-0.02258,-0.01495,0.27039,-0.01831,-0.01862,0.0145,-0.03922
9.504,-0.00092,-0.0383,-0.03922,0.06912,0.19974,-0.01343,-0.02228,0.00565,-0.01602,-0.02258,-0.01572,0.24353,-0.02563,-0.01999,0.01175,-0.04135
9.5045,-0.00137,-0.04181,-0.04623,0.0531,0.08148,-0.01236,-0.03296,0.00214,-0.01465,-0.02228,-0.01556,0.14175,-0.03372,-0.02167,0.00839,-0.04318
9.505,-0.00412,-0.04684,-0.06897,0.03464,-0.04059,-0.01816,-0.03525,-0.00153,-0.01434,-0.02151,-0.0145,0.02533,-0.03586,-0.02136,0.00504,-0.04532
9.5055,-0.00778,-0.05081,-0.11063,0.02258,-0.16724,-0.02914,-0.03326,-0.00229,-0.01511,-0.02045,-0.01236,-0.05005,-0.03128,-0.01984,0.00473,-0.04669
9.506,-0.01144,-0.05249,-0.14206,0.0209,-0.28,-0.03708,-0.03174,-0.00076,-0.01526,-0.01984,-0.01297,-0.06195,-0.02686,-0.01953,0.00687,-0.04807
9.5065,-0.01129,-0.05005,-0.14084,0.02594,-0.35294,-0.03784,-0.02914,0.00381,-0.01541,-0.01907,-0.01511,-0.01892,-0.02747,-0.02045,0.00565,-0.04807
9.507,-0.00748,-0.04486,-0.10223,0.03113,-0.35873,-0.03189,-0.01831,0.00778,-0.0145,-0.01678,-0.01648,0.04959,-0.03159,-0.02289,0.00351,-0.04776
9.5075,-0.00381,-0.03952,-0.05997,0.03113,-0.30884,-0.02411,-0.00015,0.00931,-0.01328,-0.01373,-0.01663,0.10712,-0.03601,-0.02731,0.00519,-0.04745
9.508,-0.00244,-0.0383,-0.02853,0.02502,-0.22995,-0.01984,0.01801,0.00854,-0.01312,-0.01236,-0.01556,0.12772,-0.03937,-0.03098,0.00656,-0.04593
9.5085,-0.00351,-0.04242,-0.00107,0.01678,-0.16129,-0.01907,0.02777,0.00534,-0.01419,-0.01343,-0.01434,0.10666,-0.0415,-0.03204,0.01068,-0.04456
9.509,-0.00534,-0.05249,0.0235,0.01129,-0.12222,-0.02258,0.02655,0.00168,-0.01419,-0.01556,-0.01358,0.06073,-0.04211,-0.02975,0.00702,-0.04425
9.5095,-0.00763,-0.06287,0.03525,0.00977,-0.09933,-0.02792,0.01648,-0.00031,-0.01328,-0.01556,-0.01175,0.00732,-0.04089,-0.02533,0.00534,-0.04486
9.51,-0.01144,-0.0679,0.0322,0.00687,-0.05798,-0.04608,0.00031,-0.00015,-0.01144,-0.01495,-0.01083,-0.0473,-0.03845,-0.02197,0.00809,-0.04395
9.5105,-0.01663,-0.0708,0.01266,-0.00153,0.00641,-0.08179,-0.01343,-0.00046,-0.01083,-0.01511,-0.00961,-0.10071,-0.03647,-0.02075,0.01404,-0.04227
9.511,-0.02258,-0.08087,-0.00961,-0.01236,0.06149,-0.11414,-0.01923,-0.00198,-0.01053,-0.01755,-0.01129,-0.14648,-0.0351,-0.02182,0.01862,-0.04135
9.5115,-0.02777,-0.09369,-0.02563,-0.02045,0.07385,-0.11993,-0.01953,-0.00443,-0.01038,-0.01984,-0.01236,-0.17258,-0.03342,-0.02182,0.01572,-0.04105
9.512,-0.03174,-0.10117,-0.03723,-0.0264,0.0444,-0.10162,-0.01968,-0.00534,-0.00931,-0.02045,-0.01282,-0.16037,-0.03113,-0.02243,0.01465,-0.03998
9.5125,-0.02975,-0.09445,-0.03677,-0.03464,0.00046,-0.08835,-0.02548,-0.00687,-0.00946,-0.01999,-0.01266,-0.09491,-0.03006,-0.02258,0.01587,-0.03754
9.513,-0.01816,-0.07751,-0.0325,-0.04593,-0.04257,-0.09445,-0.03891,-0.00717,-0.01038,-0.02014,-0.01266,0.00992,-0.02975,-0.02304,0.01678,-0.03555
9.5135,-0.00259,-0.05798,-0.0238,-0.05005,-0.08255,-0.10605,-0.05478,-0.00595,-0.0119,-0.01938,-0.01389,0.1001,-0.02975,-0.02441,0.01862,-0.03464
9.514,0.00809,-0.03998,-0.01266,-0.0386,-0.11505,-0.10925,-0.05188,-0.00397,-0.01251,-0.01862,-0.01572,0.11307,-0.02975,-0.02487,0.01892,-0.03372
9.5145,0.00931,-0.02716,-0.00809,-0.01877,-0.13184,-0.10223,-0.02182,-0.00076,-0.0119,-0.01663,-0.01724,0.04089,-0.02975,-0.02289,0.01709,-0.03281
9.515,0.00885,-0.01602,-0.00412,-0.00671,-0.11566,-0.0914,0.00565,0.00092,-0.01236,-0.01678,-0.01846,-0.04715,-0.03052,-0.02258,0.01846,-0.03494
9.5155,0.01175,-0.00702,-0.00443,-0.00656,-0.06714,-0.08377,-0.00641,0.00076,-0.01373,-0.02045,-0.01907,-0.06897,-0.03052,-0.02075,0.01526,-0.03937
9.516,0.01587,0.00336,0.00168,-0.01083,0.00565,-0.08041,-0.04013,0.0,-0.01556,-0.02289,-0.01862,-0.01663,-0.02884,-0.02045,0.00824,-0.04501
9.5165,0.0174,0.01648,0.0087,-0.01022,0.06805,-0.07858,-0.04349,-0.00137,-0.01678,-0.02243,-0.0177,0.0351,-0.02731,-0.01923,0.00473,-0.04883
9.517,0.01648,0.02808,0.01282,-0.00687,0.09628,-0.06989,-0.01068,-0.0029,-0.0177,-0.02121,-0.01755,0.02731,-0.02731,-0.01755,0.00412,-0.0502
9.5175,0.01434,0.03006,0.00671,-0.0061,0.09094,-0.05127,0.00549,-0.00534,-0.01862,-0.01907,-0.01694,-0.02136,-0.02853,-0.01816,0.00381,-0.0499
9.518,0.01419,0.02029,-0.0061,-0.0177,0.06729,-0.0322,-0.01541,-0.00702,-0.01923,-0.01801,-0.01648,-0.05524,-0.0293,-0.01907,0.00015,-0.0499
9.5185,0.01709,0.00549,-0.02838,-0.03815,0.03265,-0.02319,-0.03021,-0.00534,-0.01755,-0.0177,-0.01556,-0.05356,-0.02975,-0.01862,0.0,-0.05096
9.519,0.02258,-0.00671,-0.04913,-0.04776,-0.02625,-0.02533,-0.00214,0.00198,-0.01511,-0.0177,-0.01724,-0.03906,-0.03113,-0.01678,-0.00229,-0.05112
9.5195,0.03204,-0.01312,-0.06561,-0.03662,-0.09491,-0.02884,0.04578,0.01266,-0.0148,-0.01877,-0.01831,-0.03952,-0.0322,-0.01617,0.0058,-0.04974
9.52,0.04135,-0.01816,-0.06622,-0.01831,-0.15518,-0.03403,0.06195,0.01984,-0.01617,-0.01938,-0.01801,-0.05585,-0.03433,-0.01846,0.00824,-0.04684
9.5205,0.04669,-0.02487,-0.05463,-0.00931,-0.16205,-0.04486,0.03769,0.01816,-0.01648,-0.02029,-0.01617,-0.07187,-0.03586,-0.02136,0.00824,-0.04379
9.521,0.0444,-0.03128,-0.04501,-0.0032,-0.10971,-0.06058,0.00427,0.01083,-0.01633,-0.02045,-0.01465,-0.0795,-0.03632,-0.02243,0.00992,-0.0412
9.5215,0.03784,-0.03143,-0.04135,0.00809,-0.00687,-0.07431,-0.01068,0.00168,-0.0148,-0.01984,-0.01434,-0.08072,-0.03632,-0.02274,0.00519,-0.04074
9.522,0.03082,-0.02609,-0.04272,0.01801,0.09659,-0.07614,-0.00977,-0.0087,-0.0145,-0.0206,-0.01617,-0.0737,-0.0383,-0.02579,0.00717,-0.04227
9.5225,0.02563,-0.02075,-0.05295,0.01419,0.16251,-0.06027,-0.00824,-0.01999,-0.01434,-0.02274,-0.01663,-0.05096,-0.03998,-0.02899,0.009,-0.04349
9.523,0.02228,-0.01877,-0.06226,0.00366,0.17609,-0.03601,-0.01053,-0.03113,-0.01556,-0.0238,-0.01572,-0.0174,-0.0354,-0.03052,0.00931,-0.04379
9.5235,0.01648,-0.01953,-0.06607,-0.00397,0.14435,-0.01694,-0.0145,-0.03876,-0.01617,-0.02319,-0.01511,0.00977,-0.02853,-0.02838,0.00717,-0.04364
9.524,0.00626,-0.01816,-0.07004,-0.01083,0.0946,-0.01144,-0.01724,-0.0441,-0.01755,-0.02197,-0.01526,0.0235,-0.02518,-0.02548,0.00565,-0.04272
9.5245,-0.00549,-0.01831,-0.06348,-0.02457,0.04669,-0.01801,-0.01694,-0.04913,-0.01709,-0.02045,-0.01495,0.03479,-0.02792,-0.02533,0.00778,-0.04211
9.525,-0.01633,-0.01877,-0.05295,-0.04272,0.00107,-0.03082,-0.01694,-0.05295,-0.01556,-0.01999,-0.01617,0.05753,-0.03082,-0.02487,0.00793,-0.04074
9.5255,-0.02426,-0.0206,-0.04593,-0.05249,-0.08347,-0.04471,-0.01709,-0.05112,-0.01541,-0.01938,-0.0177,0.08759,-0.03021,-0.02228,0.009,-0.03967
9.526,-0.02701,-0.02365,-0.04013,-0.04547,-0.19379,-0.056,-0.02029,-0.0412,-0.01678,-0.01953,-0.01907,0.10376,-0.02441,-0.01923,0.0061,-0.03952
9.5265,-0.02274,-0.03235,-0.03723,-0.03174,-0.2504,-0.05814,-0.0264,-0.02594,-0.01755,-0.01999,-0.01953,0.09354,-0.02014,-0.01526,0.00793,-0.03967
9.527,-0.01282,-0.04883,-0.03235,-0.02167,-0.19058,-0.04852,-0.03067,-0.01099,-0.01724,-0.0206,-0.02014,0.07172,-0.02365,-0.01389,0.00793,-0.04059
9.5275,-0.00366,-0.06912,-0.01648,-0.02121,-0.05295,-0.03296,-0.03021,-0.00122,-0.01373,-0.02136,-0.02075,0.0676,-0.03387,-0.01419,0.00565,-0.04196
9.528,0.0,-0.08469,-0.00198,-0.0235,0.04349,-0.02167,-0.02777,-0.00229,-0.01221,-0.0209,-0.0206,0.08072,-0.04181,-0.01648,0.00778,-0.04379
9.5285,-0.00244,-0.09033,0.00305,-0.02365,0.03845,-0.02426,-0.02609,-0.00916,-0.01236,-0.01923,-0.01984,0.08453,-0.04242,-0.01755,0.00595,-0.04501
9.529,-0.00992,-0.08698,0.0,-0.01617,-0.02426,-0.03754,-0.02609,-0.01251,-0.01358,-0.01877,-0.01816,0.06912,-0.04074,-0.01999,0.00748,-0.04517
9.5295,-0.01892,-0.08102,-0.00992,-0.00107,-0.08408,-0.05325,-0.02563,-0.0087,-0.01404,-0.0177,-0.01831,0.04837,-0.04227,-0.01999,0.00458,-0.04379
9.53,-0.03067,-0.0676,-0.02075,0.01389,-0.12833,-0.06088,-0.02472,-0.00214,-0.01343,-0.01709,-0.01801,0.02594,-0.04639,-0.02045,0.00549,-0.04333
9.5305,-0.04654,-0.05127,-0.03311,0.01724,-0.15839,-0.05875,-0.02426,-0.00107,-0.01282,-0.0174,-0.01709,-0.01328,-0.05005,-0.02151,0.00565,-0.04364
9.531,-0.06439,-0.03616,-0.04715,0.00137,-0.15442,-0.05051,-0.02533,-0.00473,-0.01358,-0.02014,-0.01572,-0.06927,-0.05112,-0.02228,0.00534,-0.04364
9.5315,-0.07889,-0.02625,-0.05051,-0.02213,-0.10483,-0.04089,-0.02533,-0.01022,-0.01404,-0.02228,-0.01526,-0.11658,-0.05234,-0.0235,0.0058,-0.04333
9.532,-0.08621,-0.0209,-0.0383,-0.0354,-0.03952,-0.03433,-0.02487,-0.01328,-0.01358,-0.02319,-0.01495,-0.13489,-0.05325,-0.02365,0.00778,-0.04272
9.5325,-0.08789,-0.01587,-0.02182,-0.03128,-0.00671,-0.03113,-0.02335,-0.0116,-0.01343,-0.02258,-0.01541,-0.12299,-0.05142,-0.02182,0.00565,-0.04349
9.533,-0.08713,-0.01785,-0.01251,-0.02045,-0.0174,-0.03189,-0.02289,-0.00732,-0.01495,-0.02075,-0.01617,-0.07797,-0.04944,-0.02182,0.00717,-0.0415
9.5335,-0.08789,-0.02899,-0.01083,-0.01694,-0.04898,-0.03433,-0.02533,-0.0029,-0.01801,-0.02029,-0.01633,0.00153,-0.04837,-0.02304,0.00778,-0.04089
9.534,-0.08896,-0.04333,-0.0174,-0.0235,-0.07034,-0.02792,-0.03006,-0.00183,-0.01984,-0.02075,-0.01617,0.09186,-0.047,-0.02243,0.00595,-0.04074
9.5345,-0.0882,-0.05234,-0.02487,-0.02991,-0.06134,-0.01511,-0.03372,-0.00427,-0.01938,-0.02167,-0.01617,0.13855,-0.04425,-0.01846,0.01114,-0.04044
9.535,-0.08209,-0.05295,-0.03021,-0.03067,-0.03006,-0.00427,-0.03281,-0.00549,-0.01816,-0.0206,-0.01694,0.0972,-0.04166,-0.01404,0.00946,-0.04013
9.5355,-0.0737,-0.04929,-0.02975,-0.0267,-0.00168,-0.00198,-0.0293,-0.00595,-0.01648,-0.01892,-0.01724,-0.03387,-0.03952,-0.01419,0.01297,-0.03784
9.536,-0.06454,-0.04623,-0.02594,-0.02213,0.00931,-0.00549,-0.02594,-0.00534,-0.01694,-0.01892,-0.01633,-0.19928,-0.03738,-0.01602,0.0116,-0.03632
9.5365,-0.05432,-0.04608,-0.02853,-0.01785,0.00854,-0.01022,-0.02075,-0.00687,-0.0177,-0.02045,-0.01587,-0.30807,-0.03571,-0.01923,0.009,-0.03769
9.537,-0.04471,-0.04425,-0.03387,-0.01373,0.00809,-0.01312,-0.01312,-0.00946,-0.02029,-0.02151,-0.01556,-0.29053,-0.03403,-0.02121,0.009,-0.03937
9.5375,-0.03876,-0.0415,-0.04898,-0.00931,0.00473,-0.01907,-0.00732,-0.00824,-0.02258,-0.02228,-0.01587,-0.16006,-0.03479,-0.02121,0.00687,-0.0412
9.538,-0.03815,-0.03937,-0.0618,-0.00366,0.00153,-0.02853,-0.01175,0.00061,-0.02258,-0.02228,-0.01663,0.00427,-0.03372,-0.01953,0.00488,-0.04303
9.5385,-0.03677,-0.03922,-0.06729,-0.00412,0.00168,-0.03723,-0.02365,0.01114,-0.02136,-0.02167,-0.01602,0.121,-0.03098,-0.01755,0.00381,-0.04349
9.539,-0.03342,-0.04089,-0.06058,-0.01602,0.02151,-0.03967,-0.0325,0.01678,-0.02045,-0.02136,-0.01526,0.1622,-0.02823,-0.01648,0.00412,-0.04425
9.5395,-0.0325,-0.04211,-0.05066,-0.03632,0.06226,-0.03555,-0.03479,0.01526,-0.01953,-0.02014,-0.01373,0.15701,-0.02701,-0.01724,0.0032,-0.04456
9.54,-0.03891,-0.04059,-0.03891,-0.0499,0.10849,-0.02838,-0.03464,0.01236,-0.02075,-0.01816,-0.01266,0.13885,-0.02716,-0.01938,0.00412,-0.04501
9.5405,-0.05341,-0.03632,-0.04196,-0.04578,0.14496,-0.02487,-0.02609,0.01221,-0.02319,-0.01755,-0.01297,0.11017,-0.0267,-0.01953,0.00473,-0.04456
9.541,-0.07278,-0.03494,-0.04852,-0.0325,0.16281,-0.02701,-0.00122,0.01511,-0.02594,-0.01709,-0.01328,0.06775,-0.02487,-0.01801,0.00305,-0.04364
9.5415,-0.09399,-0.0354,-0.06699,-0.03128,0.15823,-0.03281,0.02289,0.01831,-0.02731,-0.01755,-0.01328,0.03967,-0.02426,-0.01587,0.00366,-0.04272
9.542,-0.11551,-0.03738,-0.0708,-0.04395,0.11795,-0.04135,0.01862,0.02136,-0.02594,-0.0174,-0.01266,0.05264,-0.02274,-0.01495,0.00168,-0.04196
9.5425,-0.13397,-0.04105,-0.05432,-0.05005,0.02869,-0.05112,-0.01663,0.02075,-0.02274,-0.01678,-0.01205,0.09033,-0.0206,-0.01572,0.00107,-0.04181
9.543,-0.14557,-0.04745,-0.04196,-0.04105,-0.10468,-0.05981,-0.06332,0.01236,-0.02045,-0.0174,-0.01129,0.11215,-0.02014,-0.01709,0.00031,-0.04089
9.5435,-0.14679,-0.0531,-0.06195,-0.02991,-0.23239,-0.065,-0.10498,-0.00244,-0.01968,-0.01633,-0.01144,0.0975,-0.02029,-0.01862,0.00275,-0.0383
9.544,-0.14084,-0.05615,-0.09872,-0.02747,-0.28549,-0.06485,-0.13458,-0.01556,-0.01892,-0.01633,-0.01312,0.05981,-0.01984,-0.01801,0.00351,-0.03571
9.5445,-0.13245,-0.05295,-0.10941,-0.02441,-0.24658,-0.05844,-0.15182,-0.02075,-0.01678,-0.01709,-0.01587,0.03265,-0.01877,-0.01709,0.00473,-0.03403
9.545,-0.12283,-0.05295,-0.06485,-0.00229,-0.15961,-0.05295,-0.1622,-0.01801,-0.01556,-0.01801,-0.01724,0.03448,-0.01892,-0.01633,0.00122,-0.0354
9.5455,-0.11383,-0.06561,0.00534,0.03296,-0.07919,-0.05005,-0.16724,-0.0116,-0.01556,-0.01831,-0.01617,0.0473,-0.02121,-0.01633,-0.00031,-0.03723
9.546,-0.10681,-0.09094,0.06531,0.06088,-0.02502,-0.05005,-0.14954,-0.00381,-0.01465,-0.01694,-0.01465,0.047,-0.02365,-0.01633,-0.00153,-0.03937
9.5465,-0.10437,-0.10468,0.10788,0.06668,0.00031,-0.05142,-0.07416,0.00168,-0.01328,-0.01602,-0.01617,0.03571,-0.02426,-0.01633,0.00046,-0.03937
9.547,-0.10345,-0.09064,0.12772,0.05234,-0.00092,-0.05417,0.06699,-0.00061,-0.0119,-0.01709,-0.01862,0.03906,-0.02396,-0.01678,0.00122,-0.03876
9.5475,-0.09995,-0.05676,0.11932,0.02945,-0.01038,-0.05859,0.22217,-0.00839,-0.01129,-0.01938,-0.0209,0.06149,-0.02487,-0.01831,0.00244,-0.03769
9.548,-0.09003,-0.02609,0.08209,0.01221,0.0,-0.06378,0.29953,-0.01343,-0.01144,-0.02228,-0.0209,0.08575,-0.02747,-0.01892,-0.00076,-0.03708
9.5485,-0.07599,-0.00961,0.04654,0.00824,0.02396,-0.06973,0.26199,-0.01038,-0.0116,-0.0238,-0.01923,0.09018,-0.0293,-0.01831,0.00031,-0.03677
9.549,-0.06699,-0.0058,0.0296,0.01556,0.02838,-0.07584,0.15594,-0.00397,-0.01144,-0.02365,-0.01678,0.07477,-0.02792,-0.01801,0.00031,-0.03647
9.5495,-0.06744,-0.00702,0.02655,0.01877,0.00549,-0.08316,0.05295,-0.00153,-0.0116,-0.02151,-0.01419,0.05081,-0.02594,-0.01663,0.00473,-0.03571
9.55,-0.07477,-0.00992,0.02304,0.01251,-0.03006,-0.08667,-0.00916,-0.00397,-0.01205,-0.01968,-0.01221,0.03479,-0.02579,-0.01663,0.00702,-0.0354
9.5505,-0.07935,-0.01312,0.00427,0.0061,-0.06485,-0.08926,-0.02686,-0.00626,-0.01175,-0.02014,-0.01099,0.03174,-0.02747,-0.01831,0.0061,-0.03525
9.551,-0.07813,-0.01938,-0.02762,0.01099,-0.10834,-0.09354,-0.01587,-0.00473,-0.01144,-0.0206,-0.01144,0.03784,-0.0296,-0.01694,0.00702,-0.03601
9.5515,-0.07095,-0.03006,-0.06409,0.02106,-0.15961,-0.0972,-0.00031,-0.00397,-0.01236,-0.01953,-0.01175,0.04669,-0.02945,-0.0174,0.00626,-0.03647
9.552,-0.05905,-0.03952,-0.09583,0.02319,-0.18539,-0.09598,0.00427,-0.00961,-0.01343,-0.01663,-0.01221,0.05646,-0.02869,-0.01846,0.00793,-0.03647
9.5525,-0.04456,-0.04669,-0.11398,0.01144,-0.15457,-0.08575,0.00092,-0.02167,-0.01465,-0.01465,-0.01282,0.06302,-0.02869,-0.01968,0.01053,-0.03464
9.553,-0.03189,-0.05157,-0.11169,-0.00397,-0.08682,-0.07126,0.00046,-0.0325,-0.01556,-0.01587,-0.01251,0.05676,-0.03082,-0.01923,0.0116,-0.03372
9.5535,-0.02563,-0.06134,-0.1001,-0.01038,-0.03647,-0.05539,0.00565,-0.03281,-0.01694,-0.01709,-0.01175,0.02991,-0.0325,-0.01785,0.00839,-0.03616
9.554,-0.02213,-0.08118,-0.08316,-0.00549,-0.03082,-0.04303,0.00824,-0.02686,-0.01831,-0.01663,-0.01099,-0.00153,-0.03296,-0.01801,0.00778,-0.03937
9.5545,-0.01556,-0.09537,-0.07431,-0.00092,-0.04852,-0.03296,0.00229,-0.02136,-0.01984,-0.01648,-0.01083,-0.01709,-0.03235,-0.01907,0.0032,-0.04105
9.555,-0.00763,-0.09094,-0.07278,-0.00473,-0.04578,-0.02472,-0.00946,-0.01785,-0.02151,-0.01694,-0.01038,-0.01617,-0.03281,-0.02258,0.00381,-0.0415
9.5555,-0.00046,-0.07065,-0.07462,-0.01694,-0.01328,-0.01755,-0.0209,-0.01266,-0.02136,-0.01907,-0.00977,-0.01068,-0.03448,-0.02243,0.00351,-0.04074
9.556,0.00397,-0.04974,-0.07492,-0.0293,0.01602,-0.01297,-0.02884,-0.00626,-0.02106,-0.02075,-0.01007,-0.00687,-0.0354,-0.02182,0.00519,-0.04089
9.5565,0.00763,-0.0386,-0.06882,-0.03998,0.02151,-0.01373,-0.0351,-0.00061,-0.02106,-0.02106,-0.01099,-0.00595,-0.03632,-0.01984,0.00565,-0.04135
9.557,0.01129,-0.03189,-0.06165,-0.0473,0.01129,-0.01846,-0.0412,0.00381,-0.02106,-0.01923,-0.01022,-0.0116,-0.03586,-0.01785,0.00641,-0.0412
9.5575,0.01434,-0.02548,-0.05722,-0.0528,0.00259,-0.02472,-0.04547,0.00778,-0.0206,-0.01984,-0.00992,-0.02457,-0.03464,-0.01297,0.00534,-0.03998
9.558,0.01846,-0.02167,-0.0621,-0.05371,0.0,-0.03098,-0.04501,0.01068,-0.02075,-0.0206,-0.01022,-0.03983,-0.03326,-0.00748,0.00656,-0.0386
9.5585,0.02502,-0.02243,-0.07294,-0.04379,0.00137,-0.03754,-0.04364,0.01282,-0.02106,-0.02136,-0.01114,-0.05569,-0.0322,-0.00534,0.00763,-0.03876
9.559,0.03693,-0.02502,-0.07751,-0.02335,0.00198,-0.04349,-0.04807,0.01694,-0.01892,-0.02075,-0.01114,-0.07538,-0.03174,-0.01007,0.01129,-0.03815
9.5595,0.05157,-0.02777,-0.07324,-0.00305,-0.00061,-0.04608,-0.05753,0.02335,-0.01617,-0.01846,-0.009,-0.10254,-0.03082,-0.01541,0.01099,-0.03708
9.56,0.06104,-0.03128,-0.06836,0.00916,-0.00473,-0.04517,-0.0621,0.02869,-0.01434,-0.01602,-0.00763,-0.13245,-0.03036,-0.01648,0.00977,-0.03616
9.5605,0.05905,-0.03983,-0.06241,0.01221,-0.00916,-0.04196,-0.05661,0.02533,-0.01419,-0.01648,-0.00595,-0.13901,-0.03113,-0.01389,0.00793,-0.03647
9.561,0.05142,-0.04974,-0.05829,0.01114,-0.01099,-0.04242,-0.04456,0.01419,-0.01389,-0.01862,-0.00458,-0.08392,-0.03265,-0.01221,0.00702,-0.0383
9.5615,0.04303,-0.05951,-0.05524,0.01114,-0.00977,-0.05096,-0.03128,0.00214,-0.01328,-0.01862,-0.00259,0.03937,-0.03433,-0.01205,0.00809,-0.0386
9.562,0.03677,-0.06927,-0.04776,0.01266,-0.0061,-0.06561,-0.01801,-0.00717,-0.01495,-0.01907,-0.00305,0.16632,-0.03464,-0.01328,0.01053,-0.03891
9.5625,0.03143,-0.07462,-0.03922,0.01282,-0.00259,-0.07736,-0.00229,-0.01465,-0.0174,-0.01892,-0.00488,0.19897,-0.03418,-0.01434,0.01373,-0.03998
9.563,0.02502,-0.06805,-0.03525,0.00992,-0.00687,-0.07874,0.00992,-0.01999,-0.01648,-0.01923,-0.00595,0.11322,-0.03448,-0.01526,0.01358,-0.04074
9.5635,0.01831,-0.05219,-0.02762,0.0058,-0.02029,-0.07065,0.00916,-0.01938,-0.0148,-0.01877,-0.0058,-0.01068,-0.03525,-0.01495,0.01068,-0.04242
9.564,0.00977,-0.03845,-0.0148,0.00641,-0.03326,-0.0621,-0.00412,-0.01144,-0.01404,-0.01846,-0.00687,-0.08514,-0.03632,-0.01419,0.00656,-0.04272
9.5645,-0.00015,-0.03159,-0.00366,0.00961,-0.0322,-0.05981,-0.02121,-0.00107,-0.01465,-0.01755,-0.00656,-0.10178,-0.03586,-0.01236,0.0032,-0.04379
9.565,-0.00763,-0.02838,-0.01114,0.01328,-0.02106,-0.06104,-0.03448,0.00259,-0.0145,-0.01755,-0.00488,-0.09964,-0.03571,-0.01236,0.00366,-0.04532
9.5655,-0.009,-0.02609,-0.04837,0.01663,-0.01633,-0.05936,-0.04181,-0.00122,-0.01495,-0.0174,-0.00412,-0.09674,-0.03632,-0.01556,0.0032,-0.04669
9.566,-0.00565,-0.02579,-0.09827,0.02121,-0.02686,-0.05386,-0.0441,-0.00504,-0.01587,-0.01831,-0.00458,-0.08392,-0.03693,-0.01709,0.00443,-0.04639
9.5665,-0.00214,-0.0296,-0.12131,0.02701,-0.04364,-0.05112,-0.04196,-0.00336,-0.01801,-0.01831,-0.00641,-0.06073,-0.03738,-0.01587,0.00565,-0.04578
9.567,-0.00046,-0.03448,-0.10193,0.03098,-0.05737,-0.0499,-0.03708,-0.00076,-0.0174,-0.0174,-0.00565,-0.05371,-0.03723,-0.0148,0.00504,-0.04456
9.5675,0.00259,-0.03799,-0.06149,0.03036,-0.06821,-0.04929,-0.0386,-0.00214,-0.0148,-0.01785,-0.00427,-0.08499,-0.03616,-0.01465,0.00504,-0.04379
9.568,0.01083,-0.03922,-0.02335,0.02228,-0.07355,-0.04593,-0.05661,-0.00839,-0.01389,-0.01968,-0.00397,-0.14328,-0.03601,-0.01587,0.0061,-0.04211
9.5685,0.02747,-0.0441,0.01419,0.0061,-0.05234,-0.04242,-0.08972,-0.0145,-0.01434,-0.0206,-0.00671,-0.18799,-0.03479,-0.01907,0.00824,-0.03967
9.569,0.04547,-0.0528,0.05066,-0.01923,0.00397,-0.03647,-0.12085,-0.01846,-0.01541,-0.01907,-0.00961,-0.19211,-0.03403,-0.02121,0.00824,-0.03998
9.5695,0.05569,-0.06226,0.07446,-0.0528,0.06256,-0.02701,-0.12985,-0.02197,-0.01587,-0.01846,-0.01129,-0.1651,-0.03387,-0.02243,0.009,-0.04105
9.57,0.056,-0.06592,0.06866,-0.09766,0.07858,-0.01556,-0.11154,-0.02716,-0.01526,-0.01892,-0.01221,-0.12787,-0.03387,-0.02228,0.00595,-0.04181
9.5705,0.04898,-0.05981,0.03677,-0.14572,0.05249,-0.01022,-0.07248,-0.02991,-0.01495,-0.0206,-0.01221,-0.0769,-0.03387,-0.02151,0.00595,-0.04166
9.571,0.04456,-0.04807,0.00153,-0.1767,0.01907,-0.01282,-0.0267,-0.02472,-0.01495,-0.02106,-0.01282,-0.00565,-0.03326,-0.02121,0.00534,-0.04166
9.5715,0.04349,-0.03616,-0.01846,-0.17731,0.0032,-0.02121,0.009,-0.01266,-0.01389,-0.01862,-0.01297,0.07111,-0.0322,-0.02075,0.00443,-0.04044
9.572,0.04517,-0.02411,-0.02396,-0.15579,-0.00061,-0.02991,0.03021,-0.00168,-0.01358,-0.01602,-0.01434,0.12253,-0.03235,-0.01968,0.00519,-0.03906
9.5725,0.04669,-0.01038,-0.02502,-0.12848,-0.00015,-0.0351,0.05005,-0.00137,-0.01343,-0.01602,-0.01511,0.13397,-0.03662,-0.01816,0.00824,-0.03784
9.573,0.04807,0.00137,-0.02563,-0.10208,0.00443,-0.03586,0.07034,-0.00885,-0.01221,-0.01663,-0.01404,0.10956,-0.03922,-0.01678,0.00916,-0.03754
9.5735,0.04532,0.00809,-0.02319,-0.06622,0.00824,-0.0354,0.08041,-0.01541,-0.01083,-0.01617,-0.01129,0.06287,-0.03738,-0.01617,0.01083,-0.03738
9.574,0.03754,0.00946,-0.01663,-0.02045,-0.00214,-0.03616,0.08377,-0.01419,-0.00931,-0.01633,-0.01083,0.01923,-0.03281,-0.01617,0.00885,-0.03693
9.5745,0.02594,0.00763,-0.01404,0.01938,-0.0322,-0.04227,0.09811,-0.00992,-0.0087,-0.01678,-0.01129,-0.00015,-0.03082,-0.01587,0.01007,-0.03601
9.575,0.01404,0.00275,-0.01907,0.03784,-0.07614,-0.05157,0.11536,-0.00839,-0.00931,-0.01801,-0.01144,-0.0061,-0.03067,-0.01556,0.01205,-0.0351
9.5755,0.00778,-0.00549,-0.03357,0.03906,-0.12985,-0.06226,0.10391,-0.00778,-0.01038,-0.01968,-0.0119,-0.02991,-0.03143,-0.01633,0.01205,-0.03693
9.576,0.00595,-0.01434,-0.04654,0.04181,-0.19119,-0.07034,0.06317,-0.00534,-0.01144,-0.02075,-0.01358,-0.07736,-0.03174,-0.01648,0.01328,-0.03632
9.5765,0.00595,-0.01984,-0.05524,0.05569,-0.2182,-0.07446,0.02716,-0.00168,-0.01373,-0.02045,-0.01465,-0.11932,-0.03189,-0.01648,0.01099,-0.03479
9.577,0.00473,-0.02457,-0.05447,0.0705,-0.16022,-0.07416,0.01328,-0.00046,-0.01511,-0.02014,-0.01404,-0.12711,-0.03235,-0.01648,0.01221,-0.03403
9.5775,0.0058,-0.0325,-0.05127,0.0737,-0.04196,-0.06989,0.00809,-0.00229,-0.01587,-0.02029,-0.01297,-0.10422,-0.03448,-0.01816,0.01221,-0.03464
9.578,0.00732,-0.047,-0.04745,0.06638,0.04242,-0.0679,-0.00519,-0.0029,-0.01526,-0.02014,-0.01205,-0.0708,-0.03555,-0.01923,0.01251,-0.03662
9.5785,0.00885,-0.06531,-0.04547,0.05905,0.0383,-0.07034,-0.01984,-0.00168,-0.0148,-0.0209,-0.01129,-0.04105,-0.03525,-0.01907,0.0119,-0.03784
9.579,0.00717,-0.08026,-0.04562,0.05066,-0.01221,-0.07202,-0.02533,-0.00107,-0.01465,-0.02014,-0.01053,-0.02182,-0.03372,-0.01907,0.01022,-0.03891
9.5795,0.00641,-0.09232,-0.04501,0.03464,-0.04639,-0.0676,-0.02274,-0.00198,-0.01495,-0.02014,-0.00992,-0.01205,-0.03296,-0.01984,0.00946,-0.03906
9.58,0.00549,-0.10651,-0.04135,0.01099,-0.06027,-0.05829,-0.01907,-0.00305,-0.01572,-0.01968,-0.00977,-0.00641,-0.03296,-0.01968,0.00992,-0.03815
9.5805,0.0058,-0.12177,-0.03784,-0.01068,-0.08286,-0.05112,-0.01877,-0.00366,-0.01572,-0.01923,-0.01038,0.00381,-0.03311,-0.01999,0.00809,-0.03799
9.581,0.00519,-0.1239,-0.03418,-0.02045,-0.11581,-0.05005,-0.01862,-0.00443,-0.01587,-0.01724,-0.01221,0.01495,-0.03418,-0.0206,0.01022,-0.03815
9.5815,0.00443,-0.1059,-0.02899,-0.01999,-0.12619,-0.05264,-0.0209,-0.00626,-0.01602,-0.01511,-0.01282,0.01633,-0.03448,-0.02151,0.00885,-0.03967
9.582,0.00656,-0.08118,-0.02869,-0.0174,-0.08987,-0.05203,-0.0267,-0.00626,-0.01572,-0.01541,-0.01144,0.00763,-0.03479,-0.02045,0.00931,-0.0412
9.5825,0.01389,-0.06882,-0.03342,-0.0148,-0.03113,-0.04715,-0.03342,-0.00336,-0.01678,-0.0148,-0.01068,0.00031,-0.03296,-0.01923,0.01129,-0.04211
9.583,0.02106,-0.07141,-0.03952,-0.01205,0.00076,-0.04166,-0.0351,-0.00153,-0.01694,-0.01389,-0.01083,0.00412,-0.03143,-0.01816,0.0119,-0.04135
9.5835,0.02289,-0.07523,-0.0412,-0.0087,-0.02121,-0.04059,-0.03357,-0.00458,-0.01648,-0.01251,-0.01297,0.01511,-0.03174,-0.01801,0.01221,-0.04059
9.584,0.01785,-0.06714,-0.04028,-0.00412,-0.07126,-0.04211,-0.03296,-0.01038,-0.01663,-0.01282,-0.01419,0.02472,-0.03387,-0.01862,0.01144,-0.04135
9.5845,0.01083,-0.047,-0.0415,0.00153,-0.10223,-0.04395,-0.0351,-0.01282,-0.01709,-0.01404,-0.01404,0.02991,-0.0351,-0.01678,0.01022,-0.04257
9.585,0.00504,-0.02457,-0.0473,0.00504,-0.09613,-0.04425,-0.03876,-0.01129,-0.01938,-0.01465,-0.01373,0.02762,-0.03525,-0.0177,0.01007,-0.04364
9.5855,-0.00061,-0.00061,-0.05447,0.00351,-0.06882,-0.04333,-0.04135,-0.00504,-0.0206,-0.01419,-0.01511,0.01389,-0.03403,-0.01923,0.01114,-0.04257
9.586,-0.00778,0.0209,-0.06073,-0.00137,-0.04059,-0.04349,-0.04395,0.00015,-0.02045,-0.01572,-0.01526,-0.00793,-0.03143,-0.02075,0.01282,-0.04318
9.5865,-0.01633,0.03433,-0.06317,-0.00504,-0.01129,-0.04669,-0.04562,-0.00153,-0.01968,-0.01648,-0.01572,-0.02121,-0.03067,-0.02121,0.01221,-0.04486
9.587,-0.02045,0.04074,-0.06119,-0.00702,0.01724,-0.05081,-0.04318,-0.009,-0.01968,-0.01633,-0.01587,-0.00458,-0.03174,-0.02045,0.01251,-0.04684
9.5875,-0.01816,0.04135,-0.0563,-0.00641,0.03174,-0.05402,-0.03723,-0.01251,-0.02121,-0.01617,-0.01663,0.03265,-0.03357,-0.01953,0.01328,-0.04745
9.588,-0.01068,0.0412,-0.04532,-0.00732,0.02426,-0.05569,-0.03098,-0.00626,-0.0206,-0.01587,-0.01755,0.0528,-0.03281,-0.01938,0.01434,-0.04761
9.5885,-0.00595,0.03708,-0.03525,-0.00854,0.00351,-0.05798,-0.02853,0.00458,-0.01923,-0.01602,-0.01755,0.02396,-0.03098,-0.0206,0.01343,-0.04852
9.589,-0.0032,0.02625,-0.02869,-0.00946,-0.02274,-0.06012,-0.02548,0.00824,-0.01831,-0.01648,-0.01709,-0.0415,-0.03128,-0.0206,0.01083,-0.05035
9.5895,0.00015,0.00946,-0.02731,-0.00824,-0.05432,-0.0589,-0.01755,0.00305,-0.01968,-0.01663,-0.01495,-0.09354,-0.0322,-0.02029,0.01068,-0.05188
9.59,0.0032,-0.00488,-0.03143,-0.00336,-0.08972,-0.05402,-0.00656,-0.00259,-0.01984,-0.01678,-0.01419,-0.08408,-0.03189,-0.01953,0.01175,-0.05142
9.5905,0.00107,-0.0119,-0.03311,-0.00076,-0.10315,-0.04776,-0.00122,-0.00076,-0.01877,-0.01663,-0.0145,0.0029,-0.03036,-0.01999,0.01328,-0.0499
9.591,-0.0058,-0.01617,-0.03265,-0.0032,-0.0766,-0.03937,-0.00473,0.00534,-0.01633,-0.01587,-0.01526,0.14511,-0.03021,-0.02075,0.0145,-0.04944
9.5915,-0.01282,-0.0235,-0.0322,-0.01114,-0.0293,-0.03036,-0.01465,0.00763,-0.01526,-0.01816,-0.01556,0.27557,-0.03143,-0.0206,0.01556,-0.04837
9.592,-0.01953,-0.03525,-0.03799,-0.0174,-0.00137,-0.02365,-0.02411,0.00412,-0.01495,-0.01862,-0.01648,0.30197,-0.03357,-0.0206,0.01892,-0.04944
9.5925,-0.02747,-0.04623,-0.0499,-0.01511,-0.01068,-0.02258,-0.03006,-0.00214,-0.01648,-0.01907,-0.0174,0.18799,-0.03616,-0.01984,0.01831,-0.05341
9.593,-0.03571,-0.05295,-0.06165,-0.00336,-0.03662,-0.02731,-0.03052,-0.00198,-0.0177,-0.01801,-0.01755,0.00015,-0.03738,-0.01877,0.01587,-0.05554
9.5935,-0.04349,-0.05493,-0.06592,0.0119,-0.04868,-0.03235,-0.0267,0.00549,-0.01785,-0.01831,-0.01709,-0.15244,-0.03708,-0.01877,0.01175,-0.05615
9.594,-0.05112,-0.056,-0.06454,0.02197,-0.03967,-0.03464,-0.02136,0.01511,-0.01633,-0.01816,-0.01755,-0.21027,-0.0354,-0.01862,0.00946,-0.0563
9.5945,-0.06058,-0.05798,-0.0618,0.02029,-0.02441,-0.03525,-0.0177,0.02258,-0.01541,-0.01846,-0.01709,-0.17578,-0.03342,-0.01938,0.00748,-0.05783
9.595,-0.07095,-0.06134,-0.05783,0.00595,-0.01526,-0.03723,-0.01572,0.02579,-0.01465,-0.01785,-0.01724,-0.09323,-0.03265,-0.02045,0.009,-0.05814
9.5955,-0.07523,-0.06226,-0.04868,-0.01602,-0.01404,-0.0415,-0.01511,0.02258,-0.01495,-0.01816,-0.01785,-0.03052,-0.03296,-0.02213,0.00626,-0.05707
9.596,-0.07187,-0.06073,-0.0351,-0.03738,-0.01602,-0.04669,-0.01434,0.01007,-0.0148,-0.01862,-0.01938,-0.03189,-0.03204,-0.0235,0.00107,-0.05585
9.5965,-0.06271,-0.05905,-0.01999,-0.05249,-0.01816,-0.05066,-0.01312,-0.0116,-0.01389,-0.01892,-0.0206,-0.07904,-0.03143,-0.02335,-0.01038,-0.05402
9.597,-0.05295,-0.05814,-0.00656,-0.05646,-0.01709,-0.0531,-0.01373,-0.02991,-0.01373,-0.01968,-0.01938,-0.1149,-0.03159,-0.02197,-0.03067,-0.05402
9.5975,-0.04272,-0.05722,0.00183,-0.0473,-0.0148,-0.05447,-0.01801,-0.03433,-0.01343,-0.01999,-0.01877,-0.10178,-0.03296,-0.02182,-0.04959,-0.05569
9.598,-0.03128,-0.05539,0.0058,-0.02853,-0.01389,-0.05386,-0.0238,-0.02502,-0.01266,-0.02121,-0.01694,-0.03006,-0.03601,-0.02274,-0.05341,-0.05569
9.5985,-0.01953,-0.05493,0.0032,-0.01251,-0.0119,-0.05219,-0.02838,-0.01495,-0.01175,-0.02121,-0.01694,0.09338,-0.03891,-0.02289,-0.03967,-0.05539
9.599,-0.01251,-0.05585,-0.00977,-0.00809,-0.00916,-0.04852,-0.02762,-0.01038,-0.01373,-0.02151,-0.01816,0.22247,-0.03876,-0.02151,-0.02121,-0.05585
9.5995,-0.01114,-0.05707,-0.02579,-0.01831,-0.00626,-0.04562,-0.02274,-0.01053,-0.01419,-0.02182,-0.0177,0.26855,-0.03479,-0.01953,-0.01343,-0.05341
9.6,-0.00885,-0.05951,-0.03555,-0.03387,-0.00351,-0.04211,-0.01892,-0.0119,-0.01373,-0.02243,-0.01816,0.18112,-0.03235,-0.0206,-0.00168,-0.05112
9.6005,-0.00565,-0.06409,-0.02838,-0.03998,-0.00305,-0.0415,-0.01892,-0.01404,-0.01282,-0.02106,-0.01953,0.02899,-0.03281,-0.02243,0.04608,-0.04974
9.601,-0.00381,-0.0676,-0.01099,-0.02838,-0.00458,-0.04517,-0.01984,-0.01556,-0.01236,-0.02014,-0.0206,-0.06409,-0.03357,-0.02304,0.12863,-0.04883
9.6015,-0.00412,-0.06454,0.00641,-0.01266,-0.00793,-0.04944,-0.01846,-0.01617,-0.01144,-0.01938,-0.02045,-0.06729,-0.03342,-0.0209,0.18692,-0.04929
9.602,-0.00595,-0.05753,0.01953,-0.01251,-0.009,-0.05508,-0.01434,-0.01755,-0.01038,-0.01923,-0.01999,-0.05554,-0.0322,-0.01953,0.1532,-0.05203
9.6025,-0.00626,-0.05325,0.02884,-0.02762,-0.00153,-0.05463,-0.01129,-0.01892,-0.01007,-0.01968,-0.01923,-0.08713,-0.03113,-0.01938,0.05386,-0.05188
9.603,-0.0061,-0.05295,0.02579,-0.04272,0.0235,-0.05157,-0.0119,-0.02151,-0.01129,-0.02029,-0.01923,-0.13199,-0.03021,-0.01831,-0.01892,-0.0499
9.6035,-0.00824,-0.05127,0.00687,-0.05005,0.06683,-0.047,-0.01511,-0.02274,-0.01251,-0.01984,-0.01877,-0.13031,-0.03052,-0.01907,-0.02289,-0.04807
9.604,-0.009,-0.04654,-0.01801,-0.056,0.1123,-0.04242,-0.01968,-0.02365,-0.01343,-0.01953,-0.01801,-0.05859,-0.03143,-0.01907,0.00549,-0.04807
9.6045,-0.00488,-0.04272,-0.04074,-0.05951,0.13504,-0.04044,-0.02502,-0.02487,-0.01419,-0.01923,-0.01877,0.06042,-0.03403,-0.01953,0.01984,-0.04654
9.605,0.00153,-0.04257,-0.05371,-0.05569,0.12253,-0.04074,-0.02823,-0.02426,-0.01373,-0.01892,-0.02106,0.18188,-0.03693,-0.01816,0.01678,-0.04425
9.6055,0.00641,-0.04425,-0.06256,-0.04089,0.08682,-0.0415,-0.02335,-0.0206,-0.01343,-0.01892,-0.02167,0.24323,-0.03708,-0.01495,0.01099,-0.04257
9.606,0.00885,-0.04562,-0.07156,-0.01984,0.04288,-0.04028,-0.01144,-0.01251,-0.01373,-0.01892,-0.02075,0.19669,-0.03494,-0.01312,0.00687,-0.04349
9.6065,0.01205,-0.04547,-0.08667,-0.00031,-0.01175,-0.03922,0.00061,-0.00244,-0.01495,-0.0174,-0.01938,0.0592,-0.03143,-0.01266,0.00519,-0.04532
9.607,0.01602,-0.04562,-0.10284,0.0145,-0.09171,-0.04272,0.00381,0.00351,-0.01556,-0.01633,-0.01755,-0.09277,-0.02884,-0.01205,0.00336,-0.04471
9.6075,0.01663,-0.04776,-0.112,0.02274,-0.17944,-0.05173,0.00107,0.0029,-0.0148,-0.01755,-0.01663,-0.18234,-0.02609,-0.01083,0.00351,-0.0444
9.608,0.01495,-0.04944,-0.10284,0.02228,-0.233,-0.06104,0.00046,0.00061,-0.01358,-0.01953,-0.01694,-0.18036,-0.02258,-0.01129,0.00443,-0.04379
9.6085,0.01556,-0.05081,-0.07446,0.01205,-0.22598,-0.06454,0.00458,-0.00122,-0.01221,-0.01877,-0.01816,-0.1059,-0.02167,-0.01312,0.00275,-0.04318
9.609,0.01678,-0.0499,-0.03662,-0.00046,-0.18234,-0.06287,0.00687,-0.00214,-0.01236,-0.0174,-0.0177,-0.00381,-0.0235,-0.01617,0.00092,-0.04303
9.6095,0.01556,-0.04684,-0.00137,-0.00748,-0.14404,-0.06104,0.00183,-0.00122,-0.01205,-0.01801,-0.01556,0.09659,-0.02701,-0.01633,-0.00092,-0.04395
9.61,0.01114,-0.04288,0.01801,-0.00595,-0.11429,-0.05981,-0.00824,0.00107,-0.01175,-0.01816,-0.01434,0.18356,-0.0293,-0.01511,-0.00092,-0.04593
9.6105,0.00595,-0.04013,0.0177,-0.00092,-0.07309,-0.05722,-0.01648,0.00381,-0.01114,-0.01801,-0.01602,0.24307,-0.03052,-0.01434,0.00031,-0.04562
9.611,0.00183,-0.03998,0.0058,-0.00046,-0.02731,-0.05508,-0.02258,0.00519,-0.01129,-0.01617,-0.0174,0.2536,-0.03098,-0.01511,0.00244,-0.0441
9.6115,-0.00305,-0.03891,-0.00198,-0.00366,-0.00641,-0.05203,-0.03052,0.00305,-0.01221,-0.01541,-0.0177,0.20126,-0.03387,-0.0174,0.00275,-0.04074
9.612,-0.009,-0.03586,-0.0029,-0.00458,-0.01556,-0.04898,-0.03632,0.00137,-0.01266,-0.01587,-0.01862,0.112,-0.03845,-0.02075,0.00122,-0.03845
9.6125,-0.01343,-0.03372,-0.00275,-0.00046,-0.03159,-0.04715,-0.02991,0.00107,-0.01251,-0.01755,-0.01892,0.05081,-0.0415,-0.02258,0.00015,-0.03754
9.613,-0.0148,-0.03159,-0.00992,0.00351,-0.03891,-0.04654,-0.01526,0.0029,-0.01205,-0.01984,-0.01831,0.05875,-0.04105,-0.02258,0.00122,-0.03769
9.6135,-0.01495,-0.02899,-0.02167,0.00397,-0.04166,-0.04623,-0.01221,0.00427,-0.01236,-0.02151,-0.01694,0.10284,-0.03906,-0.02289,0.00427,-0.03784
9.614,-0.01358,-0.02609,-0.0322,-0.00137,-0.04608,-0.04684,-0.03143,0.00473,-0.01373,-0.02258,-0.01465,0.11398,-0.03906,-0.02167,0.00702,-0.03952
9.6145,-0.01251,-0.02289,-0.04074,-0.00961,-0.0473,-0.04883,-0.0563,0.00366,-0.01495,-0.02335,-0.01495,0.07065,-0.04211,-0.0209,0.00732,-0.03983
9.615,-0.01541,-0.0209,-0.04562,-0.01556,-0.04211,-0.05051,-0.05722,0.00122,-0.01495,-0.02304,-0.01556,0.00778,-0.04425,-0.01984,0.00595,-0.0412
9.6155,-0.01999,-0.02365,-0.04929,-0.01343,-0.03632,-0.05096,-0.0322,-0.00076,-0.01511,-0.0235,-0.01511,-0.03204,-0.04364,-0.02014,0.00473,-0.04395
9.616,-0.02319,-0.03067,-0.05264,-0.00549,-0.03525,-0.04944,-0.00641,-0.00198,-0.01541,-0.0235,-0.01465,-0.03586,-0.03983,-0.02045,0.00488,-0.0444
9.6165,-0.02106,-0.03983,-0.06104,0.00168,-0.0354,-0.047,0.00336,-0.00137,-0.01511,-0.02304,-0.0145,-0.01114,-0.03723,-0.02136,0.00381,-0.04395
9.617,-0.01526,-0.04562,-0.07141,0.00397,-0.03555,-0.04562,0.00244,-0.00168,-0.01434,-0.02167,-0.01511,0.0264,-0.03738,-0.02182,0.00275,-0.04288
9.6175,-0.009,-0.0499,-0.07401,0.00137,-0.0322,-0.047,-0.00443,-0.00168,-0.01556,-0.02136,-0.01648,0.04517,-0.04074,-0.02365,0.00153,-0.04333
9.618,-0.00504,-0.05432,-0.06516,-0.00443,-0.02899,-0.04807,-0.0206,0.00229,-0.0177,-0.02243,-0.01617,0.0148,-0.04211,-0.02502,0.00244,-0.04211
9.6185,-0.00259,-0.0589,-0.05341,-0.00763,-0.02747,-0.04807,-0.03738,0.00916,-0.01816,-0.02182,-0.01602,-0.05539,-0.04105,-0.02548,0.00198,-0.03998
9.619,-0.00107,-0.06271,-0.0499,-0.00427,-0.02762,-0.0473,-0.03662,0.01434,-0.01678,-0.02182,-0.0174,-0.11948,-0.04044,-0.0238,0.00107,-0.03952
9.6195,-0.00122,-0.06775,-0.05203,0.00229,-0.02563,-0.04395,-0.01541,0.01297,-0.01556,-0.02121,-0.01938,-0.15137,-0.04211,-0.02167,0.00275,-0.04181
9.62,-0.00381,-0.07233,-0.05264,0.01053,-0.02579,-0.04135,0.0058,0.00778,-0.01617,-0.01968,-0.01984,-0.16022,-0.04593,-0.0209,0.00412,-0.04379
9.6205,-0.00824,-0.07477,-0.04974,0.01297,-0.02396,-0.03922,0.01099,0.00031,-0.01724,-0.01907,-0.01892,-0.15244,-0.0473,-0.02151,0.00366,-0.0441
9.621,-0.01053,-0.07355,-0.04593,0.00992,-0.02289,-0.0386,0.0032,-0.00458,-0.0177,-0.01831,-0.01724,-0.12238,-0.04669,-0.02029,0.0032,-0.04257
9.6215,-0.00977,-0.07523,-0.0415,0.00153,-0.02106,-0.03754,-0.00275,-0.00702,-0.01755,-0.01862,-0.01755,-0.07507,-0.04547,-0.01968,0.0032,-0.04318
9.622,-0.00931,-0.08484,-0.03662,-0.00549,-0.01938,-0.03555,-0.00366,-0.00778,-0.01709,-0.01892,-0.01846,-0.03632,-0.04486,-0.01968,0.0058,-0.0444
9.6225,-0.0119,-0.1001,-0.03265,-0.00671,-0.01907,-0.03525,-0.00397,-0.00549,-0.01755,-0.01968,-0.02045,-0.03036,-0.04547,-0.01923,0.00519,-0.04562
9.623,-0.02029,-0.10849,-0.02823,-0.00214,-0.01968,-0.03708,-0.00717,0.00076,-0.0174,-0.02045,-0.02151,-0.06012,-0.04654,-0.0177,0.00229,-0.04593
9.6235,-0.03159,-0.10834,-0.03021,0.00092,-0.0209,-0.03799,-0.01221,0.00839,-0.0177,-0.02075,-0.0206,-0.10422,-0.04837,-0.01602,-0.00015,-0.04608
9.624,-0.03891,-0.10895,-0.04654,-0.0029,-0.02319,-0.03952,-0.01648,0.01434,-0.01816,-0.0209,-0.01862,-0.12985,-0.0499,-0.01587,0.00015,-0.04715
9.6245,-0.03891,-0.10849,-0.08713,-0.01144,-0.02548,-0.03708,-0.01938,0.0206,-0.01862,-0.0206,-0.01709,-0.11703,-0.04913,-0.01648,0.00244,-0.04517
9.625,-0.03464,-0.09781,-0.1326,-0.01907,-0.0267,-0.03586,-0.0209,0.02518,-0.01816,-0.02014,-0.01663,-0.06622,-0.04578,-0.01694,0.00381,-0.04501
9.6255,-0.03159,-0.0769,-0.1474,-0.0209,-0.02701,-0.03708,-0.02426,0.02731,-0.01801,-0.01999,-0.01617,0.00717,-0.03998,-0.01648,0.00305,-0.04272
9.626,-0.0322,-0.05737,-0.12024,-0.01617,-0.02411,-0.03952,-0.03128,0.02441,-0.01877,-0.01907,-0.01587,0.07141,-0.03571,-0.01389,0.00153,-0.03906
9.6265,-0.03479,-0.04074,-0.07309,-0.00214,-0.02075,-0.04135,-0.04227,0.01678,-0.02045,-0.01907,-0.01541,0.08545,-0.03494,-0.01526,0.00092,-0.03876
9.627,-0.03754,-0.01831,-0.02975,0.0148,-0.01968,-0.0441,-0.0528,0.00885,-0.02045,-0.01938,-0.01648,0.04181,-0.03296,-0.01785,0.00092,-0.03967
9.6275,-0.03983,0.00748,0.01099,0.02426,-0.02136,-0.04883,-0.05493,0.00305,-0.01907,-0.01892,-0.01648,-0.01831,-0.02792,-0.01862,0.00229,-0.04196
9.628,-0.04318,0.02502,0.04776,0.0145,-0.02274,-0.0563,-0.047,-0.00259,-0.01816,-0.01801,-0.01511,-0.04425,-0.02136,-0.01648,0.00504,-0.04288
9.6285,-0.04517,0.03006,0.0708,-0.00885,-0.02594,-0.06546,-0.0351,-0.01083,-0.01831,-0.01724,-0.01495,-0.02197,-0.01968,-0.01434,0.00809,-0.0412
9.629,-0.04684,0.0293,0.06866,-0.03326,-0.03036,-0.07431,-0.02945,-0.01877,-0.01862,-0.01648,-0.01526,0.02365,-0.02243,-0.01404,0.00931,-0.03922
9.6295,-0.04593,0.03174,0.04974,-0.05066,-0.03525,-0.08026,-0.03265,-0.02441,-0.0177,-0.01633,-0.01541,0.0708,-0.02731,-0.0148,0.01022,-0.03769
9.63,-0.04227,0.03555,0.03006,-0.06378,-0.03754,-0.08011,-0.03662,-0.02716,-0.01678,-0.01617,-0.0145,0.11612,-0.03281,-0.01556,0.00839,-0.03677
9.6305,-0.03738,0.03494,0.01007,-0.07355,-0.03586,-0.07294,-0.01877,-0.02838,-0.01602,-0.01709,-0.01465,0.16388,-0.03647,-0.01663,0.00687,-0.0354
9.631,-0.03418,0.02869,-0.0235,-0.07172,-0.03174,-0.06332,0.03403,-0.02731,-0.01663,-0.01831,-0.0145,0.20294,-0.03632,-0.01831,0.00229,-0.0354
9.6315,-0.03128,0.01831,-0.0856,-0.05219,-0.03006,-0.05676,0.08392,-0.01984,-0.01678,-0.01846,-0.01511,0.20996,-0.03281,-0.01953,0.00015,-0.03876
9.632,-0.02731,0.0032,-0.17014,-0.02335,-0.03372,-0.05539,0.07706,-0.00809,-0.0177,-0.01984,-0.01633,0.1651,-0.03052,-0.02045,-0.00122,-0.04303
9.6325,-0.02319,-0.01434,-0.23346,-0.00076,-0.04013,-0.05478,0.01862,0.00214,-0.01785,-0.02151,-0.01724,0.07614,-0.03174,-0.02151,-0.00443,-0.04501
9.633,-0.02045,-0.0264,-0.23514,0.00443,-0.04074,-0.05142,-0.02808,0.00534,-0.01785,-0.02213,-0.01724,-0.02457,-0.03448,-0.02106,-0.00961,-0.04532
9.6335,-0.01892,-0.0293,-0.17548,-0.00443,-0.03479,-0.04456,-0.02563,0.00137,-0.01694,-0.01923,-0.01678,-0.10269,-0.03555,-0.01923,-0.0148,-0.04471
9.634,-0.0148,-0.02716,-0.08652,-0.01266,-0.02609,-0.03906,0.01343,-0.00397,-0.01587,-0.01572,-0.01617,-0.14832,-0.0351,-0.01678,-0.01419,-0.04547
9.6345,-0.00732,-0.03067,0.00214,-0.0087,-0.01923,-0.03586,0.05707,-0.00473,-0.01572,-0.01556,-0.01511,-0.18036,-0.03555,-0.01526,-0.01236,-0.04532
9.635,-0.00076,-0.03998,0.0798,0.00305,-0.01663,-0.03479,0.08041,-0.00229,-0.01587,-0.01709,-0.01373,-0.21271,-0.03677,-0.0148,-0.01007,-0.0441
9.6355,0.00153,-0.04761,0.12817,0.00824,-0.01709,-0.0354,0.06973,-0.00092,-0.01755,-0.01999,-0.01297,-0.22781,-0.03723,-0.01678,-0.01144,-0.04242
9.636,0.00275,-0.04791,0.13199,0.00275,-0.0209,-0.03616,0.03616,-0.00153,-0.01801,-0.0206,-0.01205,-0.1944,-0.03586,-0.01938,-0.01358,-0.03922
9.6365,0.00763,-0.04562,0.10086,-0.00381,-0.02716,-0.03677,0.00702,-0.00244,-0.01816,-0.02121,-0.0116,-0.11246,-0.03342,-0.01968,-0.00748,-0.03677
9.637,0.01541,-0.04684,0.06866,-0.00168,-0.03128,-0.03845,-0.00153,-0.00534,-0.0177,-0.02243,-0.01175,-0.02014,-0.03113,-0.02106,0.01495,-0.0354
9.6375,0.02213,-0.04837,0.05386,0.00534,-0.03189,-0.03967,0.00046,-0.00946,-0.01709,-0.02365,-0.01251,0.03479,-0.03067,-0.02121,0.05386,-0.03372
9.638,0.02625,-0.04852,0.05478,0.0087,-0.02533,-0.0412,0.0,-0.00824,-0.01694,-0.02289,-0.01221,0.03799,-0.03204,-0.02121,0.08484,-0.03494
9.6385,0.02411,-0.04959,0.05936,0.00397,-0.0087,-0.0412,-0.00549,-0.00137,-0.01617,-0.02243,-0.01282,0.00504,-0.03464,-0.02045,0.08484,-0.03632
9.639,0.01587,-0.0502,0.05447,-0.00931,0.01389,-0.04089,-0.01038,0.00412,-0.0148,-0.0206,-0.01328,-0.03006,-0.03754,-0.01984,0.05524,-0.03876
9.6395,0.00397,-0.04868,0.03754,-0.0267,0.03708,-0.03891,-0.01129,0.00229,-0.01404,-0.01816,-0.01389,-0.04486,-0.03998,-0.01953,0.01877,-0.0415
9.64,-0.00626,-0.04456,0.01144,-0.0415,0.04562,-0.03738,-0.01266,-0.00397,-0.01312,-0.0174,-0.0119,-0.03876,-0.04211,-0.01892,0.00046,-0.04349
9.6405,-0.01297,-0.0412,-0.01572,-0.04471,0.03677,-0.03738,-0.01541,-0.00626,-0.01343,-0.01801,-0.01053,-0.03021,-0.04318,-0.0174,0.00015,-0.04395
9.641,-0.01816,-0.03937,-0.03418,-0.03784,0.02243,-0.04028,-0.01602,-0.00107,-0.01419,-0.01801,-0.01099,-0.03464,-0.04501,-0.0177,0.00473,-0.04196
9.6415,-0.02197,-0.03891,-0.04089,-0.03403,0.01358,-0.0441,-0.01617,0.00641,-0.01404,-0.01694,-0.01205,-0.04868,-0.04456,-0.01892,0.00458,-0.04059
9.642,-0.02899,-0.0386,-0.04059,-0.047,0.00107,-0.0473,-0.01572,0.00534,-0.01312,-0.0174,-0.01236,-0.05188,-0.04257,-0.01968,0.00458,-0.04105
9.6425,-0.03799,-0.03784,-0.0383,-0.06836,-0.02533,-0.05127,-0.01587,-0.00504,-0.01129,-0.01831,-0.0119,-0.02762,-0.04257,-0.01877,0.00717,-0.04105
9.643,-0.047,-0.0383,-0.03738,-0.08133,-0.04791,-0.05646,-0.0177,-0.01617,-0.01205,-0.01816,-0.01175,0.02167,-0.04517,-0.01785,0.009,-0.03876
