time,RectFemL,VastusMedL,VastusLatL,TibAntL,HamMedL,HamLatL,GastroMedL,GastroLatL,RectFemR,VastusMedR,VastusLatR,TibAntR,HamMedR,HamLatR,GastroMedR,GastroLatR
7.6,0.01373,-0.04486,-0.0412,-0.16815,-0.02716,-0.07278,-0.03387,-0.00381,0.00046,-0.03723,-0.03128,-0.01129,-0.03525,-0.01724,-0.00504,0.056
7.6005,0.01541,-0.04349,-0.04013,-0.13916,-0.02838,-0.07187,-0.0383,-0.00534,0.0032,-0.05188,-0.02686,-0.00717,-0.03174,-0.01923,-0.03952,0.04166
7.601,0.01541,-0.04349,-0.0383,-0.05585,-0.01633,-0.06821,-0.05173,-0.00824,0.00488,-0.06821,-0.02579,-0.0032,-0.03021,-0.02258,-0.08255,-0.01038
7.6015,0.01175,-0.04852,-0.03708,0.03616,0.00565,-0.06348,-0.06256,-0.0116,0.00549,-0.08057,-0.02411,-0.00259,-0.0322,-0.02579,-0.08102,-0.08286
7.602,0.00748,-0.05676,-0.03601,0.1178,0.02823,-0.05783,-0.06256,-0.01328,0.00641,-0.08911,-0.02106,-0.00427,-0.03296,-0.02548,-0.01495,-0.15915
7.6025,0.00458,-0.06348,-0.03784,0.1918,0.04532,-0.04684,-0.05661,-0.01221,0.00443,-0.09857,-0.01816,-0.00641,-0.03174,-0.02228,0.05814,-0.24063
7.603,0.0058,-0.06287,-0.03555,0.24399,0.05524,-0.03571,-0.05219,-0.00946,0.00107,-0.11093,-0.01587,-0.00458,-0.03143,-0.01968,0.05997,-0.31723
7.6035,0.009,-0.0563,-0.03159,0.24231,0.05569,-0.03372,-0.04944,-0.00854,-0.00412,-0.11948,-0.0177,0.00214,-0.03403,-0.01923,-0.01572,-0.33051
7.604,0.01053,-0.0499,-0.02869,0.18188,0.047,-0.04181,-0.04593,-0.00732,-0.00977,-0.11932,-0.0206,0.01114,-0.03632,-0.02106,-0.08957,-0.23468
7.6045,0.009,-0.04669,-0.0264,0.09674,0.03113,-0.05142,-0.03906,-0.00671,-0.01724,-0.10498,-0.02274,0.01602,-0.03845,-0.02121,-0.10513,-0.10712
7.605,0.00656,-0.04333,-0.01923,0.02609,0.01724,-0.05386,-0.03571,-0.00565,-0.02457,-0.0798,-0.02274,0.01526,-0.04013,-0.01923,-0.08194,-0.10193
7.6055,0.00366,-0.03952,-0.00656,-0.02121,0.01114,-0.05127,-0.0473,-0.00443,-0.03021,-0.04807,-0.0209,0.01282,-0.04105,-0.01633,-0.06653,-0.25299
7.606,-0.00061,-0.03571,0.00488,-0.05768,0.01144,-0.04501,-0.06714,-0.00351,-0.03021,-0.00854,-0.01938,0.01221,-0.04135,-0.01373,-0.06561,-0.39032
7.6065,-0.0058,-0.03265,0.00381,-0.09018,0.00626,-0.03738,-0.06577,-0.0029,-0.02335,0.04272,-0.01953,0.01282,-0.04105,-0.01312,-0.04944,-0.3273
7.607,-0.00946,-0.03021,-0.00595,-0.112,-0.0116,-0.02899,-0.02182,-0.00381,-0.01282,0.1001,-0.01938,0.01221,-0.04074,-0.01358,0.01068,-0.0914
7.6075,-0.01038,-0.02899,-0.01419,-0.11642,-0.03082,-0.02319,0.0293,-0.00656,-0.00519,0.14404,-0.01846,0.01144,-0.03952,-0.01419,0.09491,0.121
7.608,-0.00793,-0.02853,-0.0206,-0.1059,-0.04379,-0.02197,0.03677,-0.00885,-0.00336,0.14999,-0.01831,0.01343,-0.03784,-0.0148,0.14343,0.18448
7.6085,-0.0061,-0.02838,-0.02563,-0.09552,-0.04913,-0.02518,0.0061,-0.00793,-0.00351,0.11398,-0.01923,0.0174,-0.03616,-0.01404,0.12283,0.15472
7.609,-0.00748,-0.03021,-0.02991,-0.09567,-0.05264,-0.03189,-0.01282,-0.00427,-0.00397,0.05981,-0.02228,0.01572,-0.0351,-0.01312,0.06256,0.1207
7.6095,-0.00992,-0.03098,-0.03479,-0.10193,-0.05035,-0.0383,0.00015,0.00015,-0.00412,0.01602,-0.03021,0.00748,-0.03326,-0.01434,0.01862,0.08499
7.61,-0.01038,-0.03387,-0.03845,-0.10178,-0.04868,-0.0415,0.02029,0.00259,-0.00641,-0.0029,-0.04791,-0.00427,-0.03113,-0.01389,0.01709,0.03479
7.6105,-0.00687,-0.03845,-0.0444,-0.09079,-0.07309,-0.04379,0.02731,0.00198,-0.00992,-0.00534,-0.06836,-0.01541,-0.02975,-0.01358,0.01251,0.0148
7.611,-0.00198,-0.04425,-0.04715,-0.07446,-0.13519,-0.04776,0.02533,0.00122,-0.01205,0.00244,-0.07736,-0.0235,-0.03021,-0.01373,-0.01526,0.05478
7.6115,0.00244,-0.04654,-0.04654,-0.05066,-0.20828,-0.05356,0.01984,0.00015,-0.01343,0.01465,-0.06958,-0.02808,-0.03372,-0.0145,-0.01587,0.0882
7.612,0.00702,-0.04562,-0.04456,-0.00076,-0.2562,-0.05997,0.00565,-0.00015,-0.01328,0.02579,-0.05295,-0.02747,-0.03601,-0.01694,0.0444,0.02197
7.6125,0.01083,-0.04349,-0.04684,0.07797,-0.26596,-0.06424,-0.01297,-0.00122,-0.01434,0.02411,-0.03571,-0.02045,-0.03601,-0.01846,0.11658,-0.14862
7.613,0.01038,-0.04395,-0.05005,0.14511,-0.25314,-0.06729,-0.02228,-0.0029,-0.01694,0.0061,-0.0177,-0.01007,-0.03693,-0.01892,0.12405,-0.3244
7.6135,0.00732,-0.04486,-0.05356,0.14557,-0.22308,-0.0679,-0.0177,-0.00397,-0.02197,-0.02014,0.00443,-0.00137,-0.03769,-0.01968,0.06882,-0.40253
7.614,0.00397,-0.04517,-0.0563,0.08224,-0.17944,-0.07034,-0.0119,-0.0058,-0.02609,-0.03891,0.02579,0.00244,-0.03906,-0.01923,0.01022,-0.35416
7.6145,0.00275,-0.04257,-0.056,0.0174,-0.13763,-0.07538,-0.01373,-0.00626,-0.02853,-0.04761,0.03357,0.00504,-0.03845,-0.01923,-0.0116,-0.21164
7.615,0.00351,-0.03784,-0.0502,-0.00244,-0.11536,-0.08286,-0.0177,-0.00641,-0.02838,-0.05234,0.01862,0.00732,-0.0383,-0.01877,-0.01907,-0.03098
7.6155,0.00473,-0.03326,-0.0444,0.01129,-0.09323,-0.08896,-0.01755,-0.00565,-0.02625,-0.0589,-0.00504,0.00809,-0.03815,-0.02014,-0.04456,0.12299
7.616,0.00565,-0.03036,-0.04227,0.02579,-0.0412,-0.09399,-0.01419,-0.00366,-0.0235,-0.06561,-0.01923,0.009,-0.03983,-0.02182,-0.08652,0.19745
7.6165,0.00717,-0.02975,-0.04608,0.02609,0.03128,-0.09415,-0.01373,-0.0029,-0.02121,-0.06866,-0.01694,0.01038,-0.04135,-0.02274,-0.12268,0.1857
7.617,0.00885,-0.03082,-0.0502,0.01801,0.08072,-0.08636,-0.01526,-0.00366,-0.02304,-0.06531,-0.00351,0.01083,-0.0412,-0.02167,-0.1474,0.13092
7.6175,0.01022,-0.03082,-0.05371,0.00931,0.0798,-0.07278,-0.01434,-0.0032,-0.02686,-0.05646,0.00885,0.00824,-0.04044,-0.02106,-0.18219,0.07782
7.618,0.00992,-0.02869,-0.05615,0.00305,0.05142,-0.05417,-0.01175,0.00046,-0.02884,-0.04639,0.0148,0.00259,-0.04013,-0.02045,-0.22156,0.05203
7.6185,0.01038,-0.02518,-0.05554,0.00275,0.03464,-0.03586,-0.01022,0.00412,-0.02686,-0.03693,0.01511,-0.00061,-0.04028,-0.01953,-0.2269,0.05188
7.619,0.01205,-0.02243,-0.05295,0.00702,0.03265,-0.02289,-0.01038,0.00412,-0.02167,-0.02884,0.01297,-0.00137,-0.03983,-0.01923,-0.14465,0.0647
7.6195,0.01419,-0.02304,-0.04822,0.0148,0.02731,-0.02106,-0.01312,0.00107,-0.0145,-0.02289,0.01266,-0.00092,-0.03891,-0.01846,0.00671,0.07309
7.62,0.01541,-0.02777,-0.04517,0.0238,0.00198,-0.03204,-0.01831,0.0,-0.00931,-0.0177,0.01266,-0.00015,-0.03815,-0.01846,0.11505,0.06531
7.6205,0.0145,-0.03677,-0.04242,0.03967,-0.03784,-0.04471,-0.02731,-0.00092,-0.0058,-0.01144,0.01114,-0.00092,-0.03784,-0.01907,0.09644,0.04181
7.621,0.01099,-0.04715,-0.03998,0.07294,-0.06943,-0.04974,-0.0351,-0.00275,-0.00275,-0.00381,0.01068,0.00092,-0.0383,-0.01968,-0.0029,0.00885
7.6215,0.00595,-0.05234,-0.03601,0.121,-0.06577,-0.04654,-0.03754,-0.00397,0.00122,0.00549,0.01099,0.00854,-0.03662,-0.01984,-0.06027,-0.0267
7.622,0.00168,-0.05127,-0.03448,0.1622,-0.0238,-0.04105,-0.03082,-0.00305,0.00534,0.0119,0.01144,0.02121,-0.03433,-0.01862,-0.01801,-0.05585
7.6225,-0.00061,-0.04944,-0.03571,0.17731,0.03616,-0.03281,-0.02014,-0.00122,0.00504,0.00687,0.0087,0.03143,-0.03296,-0.01816,0.09216,-0.07538
7.623,-0.00061,-0.05081,-0.03662,0.16556,0.08133,-0.02029,-0.01373,-0.00183,0.00015,-0.01663,0.00305,0.03433,-0.0322,-0.01862,0.17899,-0.09552
7.6235,0.00198,-0.05661,-0.03601,0.13779,0.09933,-0.01007,-0.01205,-0.00305,-0.00854,-0.0473,-0.00626,0.02777,-0.03296,-0.02075,0.17761,-0.12421
7.624,0.00381,-0.06699,-0.0325,0.09659,0.09277,-0.00229,-0.00824,-0.00198,-0.01434,-0.06607,-0.01877,0.0148,-0.03326,-0.02182,0.09598,-0.15472
7.6245,0.00412,-0.08102,-0.02975,0.04196,0.07172,-0.00229,-0.00015,0.00046,-0.01633,-0.06027,-0.0296,0.00336,-0.0325,-0.02197,0.02335,-0.17303
7.625,0.00488,-0.09033,-0.02563,-0.01144,0.03998,-0.01129,0.00198,0.00229,-0.01495,-0.0386,-0.03296,-0.00244,-0.03143,-0.02075,0.00931,-0.17136
7.6255,0.0061,-0.08545,-0.02274,-0.04242,0.00626,-0.03403,-0.01007,0.00137,-0.01205,-0.01877,-0.03113,0.00092,-0.03159,-0.01968,0.03738,-0.1535
7.626,0.00595,-0.06943,-0.02518,-0.04745,-0.01892,-0.0679,-0.02884,0.00046,-0.00748,-0.00977,-0.02777,0.0087,-0.03204,-0.0209,0.06561,-0.12863
7.6265,0.00244,-0.05386,-0.02655,-0.04196,-0.02777,-0.1001,-0.03998,0.0,-0.00137,-0.00778,-0.02579,0.01724,-0.03143,-0.02396,0.07904,-0.1004
7.627,-0.00229,-0.04227,-0.02838,-0.03998,-0.03036,-0.11307,-0.03952,0.00031,0.00275,-0.0029,-0.02457,0.02487,-0.03189,-0.02533,0.07339,-0.07278
7.6275,-0.00473,-0.03113,-0.02853,-0.04959,-0.04044,-0.09476,-0.03265,0.0,0.0029,0.0061,-0.02335,0.02838,-0.03342,-0.02426,0.05325,-0.05539
7.628,-0.00229,-0.01938,-0.02838,-0.08804,-0.05936,-0.05661,-0.02014,0.00046,-0.00153,0.01648,-0.02319,0.02716,-0.03357,-0.02167,0.02945,-0.06073
7.6285,0.00046,-0.01038,-0.02884,-0.16785,-0.0798,-0.02304,-0.00519,0.0,-0.00671,0.0209,-0.02365,0.02289,-0.03174,-0.02029,0.00977,-0.08759
7.629,0.00137,-0.00656,-0.0267,-0.26001,-0.08881,-0.01129,-0.00153,-0.00061,-0.01022,0.02029,-0.02396,0.01801,-0.03036,-0.01953,-0.00748,-0.1265
7.6295,0.00076,-0.00839,-0.02365,-0.31204,-0.08209,-0.01358,-0.01862,-0.00107,-0.01022,0.01663,-0.02075,0.01434,-0.02899,-0.01816,-0.02792,-0.177
7.63,-0.00168,-0.01266,-0.02274,-0.30396,-0.06393,-0.01724,-0.04517,0.00015,-0.00916,0.01007,-0.01602,0.01114,-0.02823,-0.01724,-0.03845,-0.23621
7.6305,-0.00427,-0.01678,-0.02441,-0.26779,-0.04166,-0.01663,-0.06088,0.00168,-0.00885,-0.00244,-0.01144,0.009,-0.02914,-0.01755,-0.03418,-0.26871
7.631,-0.0058,-0.02029,-0.03021,-0.23727,-0.0238,-0.01587,-0.05844,0.0029,-0.01099,-0.01862,-0.01099,0.00473,-0.03159,-0.01846,-0.00916,-0.215
7.6315,-0.00473,-0.02319,-0.03632,-0.2153,-0.01678,-0.0209,-0.04562,0.00214,-0.01572,-0.03464,-0.01266,-0.00443,-0.03281,-0.01907,0.01572,-0.10269
7.632,-0.00061,-0.02609,-0.04013,-0.19272,-0.02335,-0.02777,-0.03418,0.00122,-0.01968,-0.04135,-0.01221,-0.01556,-0.03265,-0.01846,0.03311,-0.0383
7.6325,0.0,-0.02991,-0.04181,-0.17059,-0.04471,-0.04074,-0.02502,-0.00107,-0.02243,-0.03906,-0.01266,-0.02502,-0.03098,-0.01892,0.04318,-0.08087
7.633,-0.00366,-0.03189,-0.04272,-0.15488,-0.06393,-0.0618,-0.01175,-0.00565,-0.02426,-0.03525,-0.01465,-0.02823,-0.03052,-0.0209,0.047,-0.14862
7.6335,-0.00992,-0.03418,-0.04318,-0.14038,-0.05569,-0.08286,0.01068,-0.01144,-0.02533,-0.03357,-0.01953,-0.02808,-0.03204,-0.02167,0.0325,-0.13474
7.634,-0.01358,-0.03662,-0.04166,-0.11673,-0.00763,-0.08606,0.03387,-0.01541,-0.02426,-0.03387,-0.0235,-0.02838,-0.03479,-0.02304,0.00244,-0.05936
7.6345,-0.01404,-0.03983,-0.03845,-0.08286,0.05188,-0.06332,0.04654,-0.01511,-0.0209,-0.02945,-0.02518,-0.02625,-0.03601,-0.02441,-0.03769,-0.02396
7.635,-0.01205,-0.04181,-0.03586,-0.04883,0.08133,-0.0296,0.04501,-0.0116,-0.01724,-0.01953,-0.02563,-0.01923,-0.03586,-0.02502,-0.08072,-0.06699
7.6355,-0.01068,-0.04501,-0.03204,-0.02655,0.07034,-0.00595,0.03387,-0.0087,-0.01556,-0.00763,-0.02441,-0.00793,-0.03601,-0.02533,-0.12665,-0.12695
7.636,-0.01266,-0.04669,-0.03204,-0.01755,0.0415,-0.0029,0.02075,-0.00809,-0.01724,-0.00214,-0.02258,0.00412,-0.03662,-0.02548,-0.16754,-0.12451
7.6365,-0.01358,-0.0473,-0.03372,-0.01984,0.02029,-0.01114,0.00778,-0.00961,-0.02136,-0.01083,-0.02014,0.01556,-0.03891,-0.02457,-0.18417,-0.03784
7.637,-0.01205,-0.04517,-0.0354,-0.04456,0.01434,-0.03464,-0.00198,-0.00992,-0.02563,-0.0267,-0.01938,0.02518,-0.04105,-0.02335,-0.16571,0.08835
7.6375,-0.00854,-0.04395,-0.03403,-0.1091,0.00717,-0.0705,-0.00809,-0.00809,-0.02762,-0.03586,-0.01877,0.02838,-0.04089,-0.0235,-0.12466,0.1683
7.638,-0.00626,-0.04166,-0.02289,-0.1915,-0.01923,-0.09888,-0.01221,-0.00641,-0.02579,-0.03036,-0.01602,0.02365,-0.04044,-0.02396,-0.08911,0.15594
7.6385,-0.00717,-0.03891,-0.00626,-0.22552,-0.06805,-0.09781,-0.01846,-0.00595,-0.02319,-0.0174,-0.01328,0.01495,-0.0383,-0.02411,-0.06989,0.09918
7.639,-0.01038,-0.03998,0.00656,-0.16541,-0.11581,-0.07828,-0.02625,-0.00702,-0.02121,-0.00549,-0.01968,0.00824,-0.03616,-0.02258,-0.05524,0.08514
7.6395,-0.01495,-0.04395,0.00443,-0.03647,-0.12604,-0.0679,-0.02792,-0.00656,-0.01999,0.00137,-0.03723,0.00626,-0.03418,-0.01816,0.00122,0.12192
7.64,-0.01923,-0.05142,-0.01312,0.09857,-0.07919,-0.07553,-0.01984,-0.00534,-0.0174,0.00183,-0.05463,0.0058,-0.03235,-0.01572,0.13672,0.13901
7.6405,-0.02167,-0.06088,-0.02869,0.20966,0.0061,-0.07217,-0.00732,-0.00458,-0.01328,-0.00183,-0.05585,0.00443,-0.03098,-0.01556,0.31876,0.09201
7.641,-0.02319,-0.0676,-0.03983,0.29449,0.0885,-0.04517,0.00137,-0.00381,-0.00916,-0.00641,-0.03922,0.00351,-0.03021,-0.01602,0.41718,0.0032
7.6415,-0.02243,-0.06531,-0.04639,0.34576,0.13321,-0.00961,0.00275,-0.0032,-0.00717,-0.01205,-0.0206,0.00305,-0.02777,-0.01434,0.35461,-0.07782
7.642,-0.02258,-0.05646,-0.05157,0.34317,0.14297,0.01038,-0.00046,-0.00305,-0.00809,-0.0209,-0.01541,0.00137,-0.02594,-0.01236,0.20813,-0.12939
7.6425,-0.02365,-0.047,-0.05371,0.28778,0.13901,0.01282,-0.00671,-0.00305,-0.00824,-0.02975,-0.01633,-0.00214,-0.0235,-0.01129,0.10956,-0.16205
7.643,-0.02518,-0.04211,-0.05219,0.20935,0.12787,0.00931,-0.02106,-0.00351,-0.00748,-0.03647,-0.00977,-0.00458,-0.02167,-0.01129,0.08987,-0.20538
7.6435,-0.02502,-0.03952,-0.04684,0.14435,0.09186,0.00595,-0.04242,-0.00443,-0.01007,-0.04257,0.00275,-0.00366,-0.02075,-0.01068,0.07996,-0.25772
7.644,-0.02487,-0.03601,-0.04349,0.10574,0.01602,-0.01053,-0.05524,-0.00595,-0.01801,-0.05051,0.01022,0.0,-0.02335,-0.01205,0.04288,-0.2449
7.6445,-0.02609,-0.03265,-0.03967,0.08759,-0.0827,-0.05569,-0.03937,-0.00656,-0.02991,-0.06042,0.00946,0.00549,-0.02792,-0.01541,0.0029,-0.10193
7.645,-0.02686,-0.03189,-0.03708,0.07782,-0.18173,-0.1207,0.00061,-0.00702,-0.03998,-0.06744,0.01053,0.00977,-0.03265,-0.01923,-0.01556,0.11383
7.6455,-0.02579,-0.03311,-0.03647,0.06592,-0.25681,-0.16846,0.02823,-0.00854,-0.04364,-0.06638,0.01785,0.00885,-0.03372,-0.01968,-0.02411,0.2565
7.646,-0.02396,-0.0354,-0.03815,0.04944,-0.29449,-0.16907,0.0235,-0.00778,-0.03967,-0.05722,0.02441,0.00061,-0.03342,-0.01999,-0.03448,0.24475
7.6465,-0.02426,-0.03693,-0.03799,0.02579,-0.28305,-0.12909,0.00534,-0.00351,-0.03159,-0.04578,0.02075,-0.00961,-0.03281,-0.02045,-0.05478,0.14328
7.647,-0.02548,-0.03952,-0.03647,-0.01373,-0.23209,-0.08057,-0.00488,0.00366,-0.02319,-0.03494,0.00641,-0.01678,-0.03387,-0.0209,-0.07294,0.07263
7.6475,-0.02747,-0.04181,-0.03159,-0.06561,-0.17593,-0.04868,-0.00458,0.00778,-0.01511,-0.02518,-0.01495,-0.0174,-0.03555,-0.02182,-0.05646,0.09277
7.648,-0.02884,-0.04227,-0.01572,-0.10956,-0.14633,-0.03754,-0.00565,0.00595,-0.00946,-0.01602,-0.04028,-0.01266,-0.03693,-0.02396,-0.00137,0.168
7.6485,-0.0296,-0.04135,0.02243,-0.12009,-0.13687,-0.03448,-0.01099,0.00092,-0.00641,-0.00809,-0.06393,-0.00641,-0.0386,-0.02563,0.03357,0.21652
7.649,-0.03098,-0.04211,0.07889,-0.09811,-0.11169,-0.03006,-0.0145,-0.00397,-0.00504,-0.00031,-0.07187,-0.00488,-0.03891,-0.02686,-0.00641,0.1622
7.6495,-0.03235,-0.04852,0.1178,-0.05997,-0.06592,-0.02289,-0.01312,-0.00595,-0.00427,0.00778,-0.05814,-0.00595,-0.03769,-0.02609,-0.09872,0.00565
7.65,-0.03311,-0.05737,0.09171,-0.02289,-0.02335,-0.0145,-0.01053,-0.00595,-0.00397,0.00931,-0.0354,-0.0058,-0.03571,-0.02365,-0.16983,-0.17105
7.6505,-0.03143,-0.06363,0.01343,0.00565,-0.00229,-0.01328,-0.00946,-0.00488,-0.00778,-0.00137,-0.01663,-0.00381,-0.03555,-0.0206,-0.16953,-0.26306
7.651,-0.02838,-0.06271,-0.06454,0.02136,0.00519,-0.02228,-0.01144,-0.00336,-0.01526,-0.02274,-0.00839,-0.00214,-0.0351,-0.01633,-0.10544,-0.23422
7.6515,-0.02563,-0.05875,-0.1059,0.0206,0.00732,-0.04349,-0.01282,-0.00259,-0.0238,-0.04425,-0.00687,-0.0032,-0.0354,-0.0116,-0.02579,-0.14664
7.652,-0.02579,-0.05768,-0.11993,0.00793,-0.00656,-0.07996,-0.01511,-0.00381,-0.03159,-0.05661,-0.00412,-0.00717,-0.0351,-0.00839,0.02502,-0.0882
7.6525,-0.02823,-0.05661,-0.1239,0.00565,-0.03906,-0.12009,-0.01511,-0.00565,-0.03754,-0.06195,-0.00046,-0.00885,-0.03479,-0.01022,0.03357,-0.08926
7.653,-0.02899,-0.05264,-0.11826,0.03387,-0.07172,-0.12833,-0.01602,-0.00626,-0.03998,-0.06622,0.00641,-0.00824,-0.03342,-0.01373,0.02579,-0.10742
7.6535,-0.02686,-0.04547,-0.09827,0.08865,-0.07858,-0.09323,-0.01541,-0.00626,-0.03937,-0.06973,0.01465,-0.00671,-0.03235,-0.01648,0.0293,-0.09613
7.654,-0.02243,-0.04013,-0.07584,0.1503,-0.06973,-0.04028,-0.01556,-0.00641,-0.03983,-0.07065,0.02457,-0.00549,-0.03235,-0.01694,0.03952,-0.05951
7.6545,-0.01862,-0.03784,-0.06104,0.20218,-0.07629,-0.01404,-0.01617,-0.00732,-0.04196,-0.06607,0.0325,-0.00488,-0.03311,-0.01709,0.03174,-0.03036
7.655,-0.01602,-0.03784,-0.05615,0.22797,-0.10574,-0.02594,-0.01602,-0.00809,-0.04364,-0.04898,0.03357,-0.00458,-0.03357,-0.01984,0.0145,-0.02075
7.6555,-0.01373,-0.03937,-0.05386,0.20523,-0.12405,-0.04822,-0.01434,-0.00809,-0.04013,-0.01038,0.02487,-0.00427,-0.03403,-0.02121,-0.00076,-0.01633
7.656,-0.01038,-0.03998,-0.05356,0.13016,-0.10269,-0.05676,-0.01236,-0.00717,-0.02762,0.05219,0.00793,-0.00519,-0.0351,-0.01968,-0.00687,0.00137
7.6565,-0.00748,-0.03983,-0.05463,0.03204,-0.06271,-0.05035,-0.01144,-0.00427,-0.01022,0.10925,-0.00626,-0.00885,-0.03601,-0.01587,-0.01114,0.03067
7.657,-0.0058,-0.0412,-0.04791,-0.056,-0.04028,-0.04608,-0.01068,-0.00122,0.00381,0.13046,-0.01205,-0.01129,-0.03708,-0.0148,-0.01678,0.05188
7.6575,-0.00565,-0.05035,-0.03616,-0.13,-0.04837,-0.04974,-0.01221,0.00076,0.00961,0.09964,-0.01526,-0.00931,-0.03647,-0.01694,-0.0174,0.05219
7.658,-0.00458,-0.06775,-0.02975,-0.2037,-0.06378,-0.05875,-0.01709,0.00092,0.0119,0.04211,-0.0209,-0.00305,-0.03418,-0.01999,-0.01266,0.02823
7.6585,-0.00275,-0.08133,-0.03082,-0.26947,-0.07385,-0.06393,-0.02182,0.00214,0.01358,-0.00397,-0.03159,0.0,-0.03204,-0.02136,-0.01022,-0.01236
7.659,0.0,-0.07919,-0.04059,-0.29449,-0.08087,-0.05997,-0.02579,0.00443,0.01663,-0.02075,-0.04486,-0.00458,-0.03159,-0.02136,-0.01236,-0.05661
7.6595,0.00366,-0.06088,-0.0473,-0.26291,-0.07935,-0.05234,-0.02716,0.00641,0.01678,-0.01709,-0.06241,-0.00977,-0.03082,-0.01953,-0.00397,-0.09903
7.66,0.00626,-0.0383,-0.04944,-0.21118,-0.05661,-0.05478,-0.0267,0.00748,0.01373,-0.01175,-0.08362,-0.00946,-0.03082,-0.01709,0.01404,-0.15106
7.6605,0.00534,-0.01984,-0.04822,-0.19287,-0.01999,-0.07492,-0.02563,0.00671,0.00977,-0.01297,-0.09552,-0.00458,-0.02991,-0.0174,0.04257,-0.21347
7.661,0.00351,-0.00549,-0.05142,-0.21194,0.00549,-0.10391,-0.0238,0.00549,0.00519,-0.02029,-0.08881,-0.00214,-0.03006,-0.01877,0.05737,-0.25848
7.6615,0.00259,0.00488,-0.05035,-0.22552,0.01511,-0.11642,-0.02045,0.00534,-0.00015,-0.03174,-0.0705,-0.00412,-0.0325,-0.01999,0.04272,-0.24216
7.662,0.00244,0.00961,-0.05005,-0.19897,0.02289,-0.09842,-0.0177,0.00626,-0.01007,-0.05234,-0.05402,-0.0058,-0.03555,-0.0206,0.00977,-0.17792
7.6625,0.00137,0.00778,-0.04486,-0.12466,0.03952,-0.06104,-0.01495,0.00839,-0.02274,-0.0766,-0.04135,-0.0058,-0.03662,-0.02014,-0.00916,-0.12787
7.663,0.00031,0.00153,-0.03662,-0.00259,0.04944,-0.02884,-0.01389,0.01175,-0.03448,-0.09583,-0.01923,-0.00793,-0.03632,-0.02014,-0.00885,-0.12421
7.6635,0.00046,-0.00519,-0.02899,0.14771,0.03113,-0.01587,-0.01526,0.01495,-0.0444,-0.10269,0.0116,-0.0116,-0.03632,-0.02075,-0.01633,-0.13702
7.664,0.00351,-0.0119,-0.02472,0.23026,-0.00549,-0.01358,-0.01862,0.01602,-0.05264,-0.09888,0.03311,-0.01633,-0.03952,-0.02182,-0.04822,-0.14343
7.6645,0.00595,-0.01984,-0.02335,0.15015,-0.02014,-0.01068,-0.02151,0.01526,-0.05966,-0.08865,0.03494,-0.01617,-0.04303,-0.02365,-0.08789,-0.17868
7.665,0.00519,-0.02731,-0.02838,-0.04852,0.01205,-0.00381,-0.02258,0.01419,-0.06271,-0.07355,0.02518,-0.00961,-0.04578,-0.02396,-0.09796,-0.2681
7.6655,0.00183,-0.03464,-0.03143,-0.18814,0.06729,0.00702,-0.02396,0.01282,-0.05798,-0.05417,0.02319,0.00076,-0.04517,-0.02487,-0.07889,-0.34805
7.666,-0.00092,-0.04517,-0.03342,-0.16403,0.10208,0.01831,-0.02808,0.01129,-0.04272,-0.03036,0.03174,0.009,-0.04364,-0.02533,-0.06226,-0.31525
7.6665,0.0,-0.06454,-0.03067,-0.04944,0.10223,0.02594,-0.03708,0.00961,-0.0209,-0.01068,0.04379,0.01099,-0.04166,-0.02533,-0.06943,-0.16068
7.667,0.00229,-0.08636,-0.02518,0.02899,0.08087,0.0238,-0.04974,0.0061,-0.00031,-0.00107,0.0499,0.00732,-0.03998,-0.02365,-0.06744,0.0267
7.6675,0.00198,-0.09964,-0.02014,0.04181,0.05264,0.01358,-0.06546,0.00198,0.01328,0.00626,0.04089,0.00061,-0.0354,-0.01999,-0.03693,0.16373
7.668,-0.00168,-0.09827,-0.01907,0.03891,0.02472,-0.00259,-0.08163,-0.00153,0.02228,0.02075,0.0209,-0.00473,-0.02991,-0.01495,0.02838,0.21973
7.6685,-0.00595,-0.08224,-0.01984,0.05325,0.00107,-0.01831,-0.0885,-0.0029,0.02563,0.04349,0.00366,-0.00626,-0.02533,-0.00824,0.08804,0.19531
7.669,-0.0087,-0.06027,-0.02304,0.07233,-0.01801,-0.03006,-0.06851,-0.00122,0.0209,0.05768,0.00259,-0.00412,-0.02289,-0.00305,0.11078,0.12589
7.6695,-0.00931,-0.03983,-0.02457,0.08698,-0.04517,-0.04059,-0.01724,-0.00031,0.0061,0.05829,0.01358,0.00061,-0.02029,0.0,0.09048,0.07278
7.67,-0.00885,-0.02502,-0.02319,0.09949,-0.08636,-0.05508,0.03372,-0.00015,-0.01083,0.05112,0.0235,0.00473,-0.0177,-0.00122,0.05875,0.06073
7.6705,-0.00809,-0.01831,-0.02197,0.1152,-0.11993,-0.07065,0.04623,-0.00412,-0.02151,0.05081,0.0238,0.00549,-0.0174,-0.00458,0.05981,0.06042
7.671,-0.00702,-0.01907,-0.02029,0.13657,-0.11551,-0.07935,0.02167,-0.009,-0.02274,0.04868,0.01663,0.00336,-0.01984,-0.009,0.09872,0.04501
7.6715,-0.00534,-0.02441,-0.01984,0.17212,-0.08484,-0.07584,-0.00076,-0.01007,-0.0206,0.03433,0.01038,0.00183,-0.02502,-0.01144,0.13824,0.01419
7.672,-0.00259,-0.02884,-0.01907,0.2121,-0.06058,-0.06271,-0.00092,-0.00595,-0.01923,0.00687,0.01373,0.00305,-0.03128,-0.01389,0.12039,-0.0174
7.6725,-0.00107,-0.0293,-0.01648,0.22415,-0.05554,-0.05264,0.01343,-0.00183,-0.01968,-0.01678,0.01984,0.00732,-0.03555,-0.01541,0.06363,-0.04028
7.673,-0.00305,-0.02655,-0.01251,0.18631,-0.0528,-0.04791,0.02426,-0.00046,-0.01923,-0.02762,0.01328,0.0116,-0.03677,-0.01709,0.01434,-0.04272
7.6735,-0.00824,-0.02426,-0.00305,0.11551,-0.0354,-0.04852,0.02533,-0.00137,-0.01648,-0.02731,-0.01053,0.01328,-0.03326,-0.01816,-0.01144,-0.01511
7.674,-0.01266,-0.02243,0.00534,0.04349,-0.01007,-0.05081,0.01617,-0.0032,-0.01526,-0.02594,-0.03662,0.01038,-0.02792,-0.01892,-0.03189,0.0293
7.6745,-0.01465,-0.02289,0.00671,-0.01572,0.01358,-0.05508,0.00046,-0.00549,-0.01633,-0.02808,-0.0499,0.00565,-0.02441,-0.01892,-0.05554,0.06058
7.675,-0.01404,-0.02319,-0.00427,-0.06302,0.03738,-0.05753,-0.01221,-0.00641,-0.0174,-0.03204,-0.05585,0.00122,-0.02533,-0.0174,-0.05371,0.0647
7.6755,-0.01266,-0.02472,-0.02136,-0.09842,0.06012,-0.05539,-0.01617,-0.0058,-0.01724,-0.03479,-0.06073,0.00031,-0.02777,-0.01617,-0.01572,0.05463
7.676,-0.01236,-0.02686,-0.03479,-0.11703,0.0708,-0.04898,-0.01678,-0.00763,-0.01663,-0.03326,-0.06348,0.00092,-0.02853,-0.01526,0.04028,0.04196
7.6765,-0.01114,-0.02884,-0.04044,-0.11795,0.06348,-0.04471,-0.01999,-0.01587,-0.01587,-0.02686,-0.06104,0.00381,-0.02686,-0.01419,0.07858,0.01251
7.677,-0.00885,-0.03143,-0.04211,-0.10712,0.04379,-0.04166,-0.02716,-0.02472,-0.01389,-0.01816,-0.05478,0.00824,-0.02655,-0.01373,0.08224,-0.0444
7.6775,-0.00656,-0.03647,-0.04242,-0.09125,0.02411,-0.03784,-0.03204,-0.02838,-0.01144,-0.00885,-0.04959,0.01221,-0.02899,-0.01373,0.06821,-0.1001
7.678,-0.00519,-0.04181,-0.04318,-0.07675,0.00687,-0.03555,-0.03113,-0.02655,-0.0087,-0.00153,-0.04272,0.01099,-0.0351,-0.01556,0.0563,-0.09689
7.6785,-0.00671,-0.04654,-0.04623,-0.06866,-0.01526,-0.03708,-0.02991,-0.02243,-0.00565,0.00214,-0.03357,0.00427,-0.04532,-0.0177,0.0444,-0.02136
7.679,-0.00931,-0.04974,-0.04929,-0.0647,-0.047,-0.04623,-0.03143,-0.01968,-0.00351,0.00198,-0.02502,-0.0032,-0.05661,-0.02045,0.02594,0.05295
7.6795,-0.01144,-0.05005,-0.05264,-0.05493,-0.08759,-0.05569,-0.03189,-0.01785,-0.00244,-0.00198,-0.02365,-0.00473,-0.05981,-0.02319,0.0032,0.04181
7.68,-0.01068,-0.04822,-0.05661,-0.03662,-0.12238,-0.05692,-0.03021,-0.01587,-0.00198,-0.00793,-0.03174,0.0,-0.05142,-0.02655,-0.02487,-0.04745
7.6805,-0.00931,-0.04715,-0.05981,-0.01587,-0.12253,-0.0502,-0.02884,-0.0145,-0.0032,-0.0174,-0.03967,0.00565,-0.03998,-0.02747,-0.08041,-0.12344
7.681,-0.00687,-0.047,-0.06104,-0.00183,-0.07095,-0.04227,-0.02792,-0.01572,-0.00565,-0.02548,-0.0412,0.00488,-0.03616,-0.02625,-0.16006,-0.12665
7.6815,-0.00244,-0.04868,-0.05768,0.00305,0.00641,-0.03204,-0.02472,-0.01862,-0.00916,-0.0296,-0.03357,-0.00366,-0.03983,-0.02548,-0.20462,-0.08362
7.682,0.00076,-0.05096,-0.05478,0.00031,0.05905,-0.02441,-0.01785,-0.02045,-0.01129,-0.02991,-0.02579,-0.01495,-0.0444,-0.0267,-0.14923,-0.05081
7.6825,0.00107,-0.05585,-0.05096,-0.01068,0.06393,-0.02106,-0.01328,-0.02167,-0.01251,-0.02731,-0.02167,-0.02502,-0.04471,-0.02792,-0.00015,-0.05157
7.683,0.00031,-0.06592,-0.04715,-0.02884,0.04181,-0.02289,-0.01678,-0.02426,-0.01251,-0.02594,-0.02243,-0.0322,-0.04242,-0.02869,0.16449,-0.07614
7.6835,-0.00015,-0.07355,-0.0412,-0.04639,0.02014,-0.02365,-0.02563,-0.0296,-0.01068,-0.02563,-0.02472,-0.03555,-0.03952,-0.02899,0.25742,-0.10376
7.684,0.00183,-0.0737,-0.03342,-0.05432,0.00229,-0.0174,-0.03296,-0.0351,-0.00839,-0.02502,-0.02548,-0.03387,-0.03754,-0.02701,0.24841,-0.12146
7.6845,0.00488,-0.06516,-0.02792,-0.0499,-0.01953,-0.01144,-0.03372,-0.03479,-0.00854,-0.02304,-0.02335,-0.02563,-0.03479,-0.0235,0.15823,-0.12772
7.685,0.00595,-0.05585,-0.02625,-0.04089,-0.04547,-0.01724,-0.03677,-0.03006,-0.00977,-0.02319,-0.01968,-0.01419,-0.03281,-0.02106,0.04593,-0.13763
7.6855,0.00397,-0.05096,-0.02701,-0.03204,-0.07263,-0.03983,-0.04868,-0.02548,-0.0119,-0.02945,-0.01572,-0.00229,-0.03296,-0.02365,-0.0383,-0.16785
7.686,0.00031,-0.04837,-0.02762,-0.02792,-0.09598,-0.06546,-0.05936,-0.02213,-0.01221,-0.0412,-0.01266,0.00626,-0.0351,-0.0296,-0.07935,-0.18997
7.6865,-0.00259,-0.04379,-0.02792,-0.02869,-0.11383,-0.07828,-0.04974,-0.02029,-0.00992,-0.05692,-0.01251,0.01007,-0.03586,-0.03265,-0.07706,-0.15869
7.687,-0.00473,-0.03632,-0.02777,-0.03632,-0.11917,-0.07904,-0.02136,-0.01877,-0.009,-0.07202,-0.01648,0.00809,-0.03342,-0.03143,-0.04364,-0.08789
7.6875,-0.0061,-0.02945,-0.02609,-0.04654,-0.12375,-0.07553,-0.00153,-0.01678,-0.01221,-0.08102,-0.0238,0.00504,-0.03113,-0.02579,-0.02167,-0.04379
7.688,-0.00717,-0.02579,-0.02426,-0.05051,-0.13916,-0.07523,-0.00549,-0.01282,-0.01724,-0.08194,-0.02731,0.00198,-0.03128,-0.01846,-0.04059,-0.04578
7.6885,-0.00778,-0.02319,-0.01984,-0.04456,-0.15106,-0.07355,-0.01984,-0.00885,-0.01801,-0.07492,-0.0238,-0.00076,-0.03281,-0.01144,-0.07935,-0.03036
7.689,-0.00717,-0.02213,-0.01511,-0.03006,-0.13504,-0.06622,-0.0264,-0.00916,-0.01328,-0.0618,-0.01877,-0.00092,-0.03174,-0.00732,-0.08438,0.04486
7.6895,-0.00488,-0.02167,0.00229,-0.01862,-0.08514,-0.0531,-0.02899,-0.01343,-0.01129,-0.0473,-0.0177,0.00214,-0.02853,-0.00702,-0.05341,0.11551
7.69,-0.00198,-0.02426,0.01846,-0.01343,-0.03311,-0.04135,-0.0383,-0.01694,-0.01816,-0.03586,-0.02548,0.00626,-0.02731,-0.01068,-0.02945,0.08972
7.6905,-0.00031,-0.02823,0.02182,-0.01251,-0.0119,-0.0354,-0.04852,-0.01678,-0.02747,-0.02853,-0.04074,0.00839,-0.02914,-0.01694,-0.02548,-0.0206
7.691,-0.00107,-0.03098,0.00717,-0.01022,-0.02716,-0.0351,-0.04166,-0.01419,-0.02869,-0.02411,-0.05722,0.00793,-0.02975,-0.01999,-0.01724,-0.12131
7.6915,-0.00366,-0.03235,-0.00854,-0.00565,-0.05844,-0.03708,-0.01038,-0.01038,-0.01877,-0.01831,-0.06119,0.00549,-0.02991,-0.01907,0.00977,-0.16083
7.692,-0.00839,-0.03387,-0.01282,-0.00641,-0.07721,-0.03754,0.0325,-0.00061,-0.00977,-0.01205,-0.04379,0.00351,-0.03098,-0.01785,0.05768,-0.13672
7.6925,-0.01205,-0.03693,-0.00717,-0.02655,-0.07904,-0.03464,0.06119,0.0238,-0.00916,-0.0058,-0.01343,0.00153,-0.0322,-0.01938,0.12955,-0.04211
7.693,-0.01114,-0.04013,-0.00824,-0.08575,-0.07248,-0.03036,0.05951,0.0589,-0.01434,-0.00092,0.00793,-0.00031,-0.03174,-0.02167,0.20996,0.09521
7.6935,-0.00748,-0.04257,-0.02289,-0.17776,-0.05508,-0.02899,0.03845,0.08011,-0.01862,0.00015,0.01343,0.00015,-0.02899,-0.02045,0.23926,0.17349
7.694,-0.00595,-0.04456,-0.04929,-0.25085,-0.02045,-0.03052,0.02045,0.07278,-0.0209,-0.00122,0.01282,0.00198,-0.0264,-0.01617,0.18341,0.11429
7.6945,-0.00748,-0.04395,-0.07355,-0.23911,0.02426,-0.03265,0.0174,0.04669,-0.02258,-0.00366,0.01724,0.00458,-0.02579,-0.01251,0.09064,-0.01755
7.695,-0.00885,-0.04211,-0.08545,-0.13779,0.06119,-0.03387,0.01923,0.01373,-0.02518,-0.0061,0.02319,0.00427,-0.02792,-0.0116,0.02365,-0.09445
7.6955,-0.009,-0.04089,-0.08896,-0.00473,0.06973,-0.03662,0.01343,-0.03189,-0.02716,-0.00885,0.02609,0.00259,-0.02991,-0.01129,0.00641,-0.08041
7.696,-0.00931,-0.04013,-0.08713,0.10635,0.06531,-0.04028,-0.00381,-0.08881,-0.02716,-0.00854,0.02899,0.00259,-0.03143,-0.01251,-0.00183,-0.03876
7.6965,-0.01205,-0.03922,-0.07111,0.19211,0.0531,-0.04227,-0.0293,-0.13489,-0.0235,-0.00412,0.03738,0.00534,-0.03281,-0.01297,-0.01312,-0.02457
7.697,-0.01587,-0.03693,-0.02213,0.26428,0.03265,-0.04288,-0.05814,-0.14999,-0.01648,0.00183,0.04593,0.00702,-0.03342,-0.0145,-0.0145,-0.02899
7.6975,-0.01755,-0.03525,0.04852,0.31555,0.00046,-0.04379,-0.0856,-0.14069,-0.00732,0.00275,0.04639,0.00458,-0.03296,-0.01526,-0.00412,-0.02884
7.698,-0.01694,-0.0351,0.08804,0.32532,-0.03311,-0.04532,-0.10193,-0.12085,-0.00092,-0.00626,0.03494,-0.00092,-0.03052,-0.01617,0.00427,-0.0238
7.6985,-0.01434,-0.0383,0.05524,0.28687,-0.05188,-0.04852,-0.09979,-0.09964,-0.00107,-0.01877,0.01663,-0.00595,-0.02899,-0.01755,0.00183,-0.02487
7.699,-0.01205,-0.04181,-0.02716,0.21271,-0.05051,-0.05066,-0.08331,-0.08469,-0.00687,-0.02655,-0.00351,-0.00565,-0.02975,-0.01984,-0.00275,-0.03113
7.6995,-0.0116,-0.04547,-0.1033,0.13824,-0.04105,-0.0499,-0.06393,-0.07706,-0.01282,-0.02441,-0.01999,-0.00122,-0.03143,-0.01999,-0.0087,-0.0354
7.7,-0.01175,-0.04822,-0.14374,0.10986,-0.03387,-0.0444,-0.04608,-0.07156,-0.01755,-0.01251,-0.03128,0.00275,-0.03296,-0.01907,-0.01358,-0.03723
7.7005,-0.01495,-0.04974,-0.15793,0.13657,-0.00778,-0.03525,-0.02441,-0.05814,-0.02197,0.00305,-0.03403,0.00504,-0.03479,-0.01907,-0.01663,-0.04028
7.701,-0.01785,-0.05005,-0.15366,0.15945,0.0563,-0.02899,0.00946,-0.03754,-0.02548,0.01419,-0.02838,0.00534,-0.03616,-0.01892,-0.01785,-0.04166
7.7015,-0.01999,-0.05142,-0.13428,0.11307,0.14404,-0.02914,0.05447,-0.0174,-0.02426,0.0148,-0.01862,0.00488,-0.03433,-0.01846,-0.01434,-0.03677
7.702,-0.01938,-0.05432,-0.10071,-0.00137,0.21927,-0.0293,0.08942,-0.00427,-0.01678,0.00656,-0.01144,0.00534,-0.03128,-0.01495,-0.01144,-0.03036
7.7025,-0.01694,-0.05615,-0.06821,-0.1326,0.26459,-0.02594,0.08987,0.00443,-0.00854,-0.00259,-0.00992,0.00595,-0.0293,-0.01099,-0.01053,-0.03036
7.703,-0.01434,-0.05432,-0.05219,-0.242,0.28549,-0.02121,0.06119,0.01236,-0.00519,-0.00687,-0.01144,0.00763,-0.02975,-0.00793,-0.00885,-0.03586
7.7035,-0.01297,-0.05157,-0.04776,-0.32501,0.27237,-0.02335,0.04517,0.01953,-0.00687,-0.0061,-0.01221,0.00702,-0.03067,-0.00656,-0.00809,-0.04318
7.704,-0.01205,-0.05386,-0.04883,-0.38986,0.20538,-0.03357,0.06134,0.02533,-0.00778,-0.00534,-0.01343,0.00168,-0.03021,-0.00717,-0.00961,-0.05051
7.7045,-0.00839,-0.05905,-0.04593,-0.42618,0.08987,-0.04471,0.07767,0.02823,-0.0058,-0.00824,-0.01678,-0.00656,-0.0293,-0.01053,-0.01389,-0.05661
7.705,-0.00565,-0.06226,-0.03174,-0.392,-0.0441,-0.04944,0.06622,0.02716,-0.00519,-0.01144,-0.02213,-0.01251,-0.03098,-0.0148,-0.01709,-0.06042
7.7055,-0.00427,-0.06088,-0.02045,-0.24811,-0.16907,-0.04959,0.04547,0.02487,-0.00946,-0.01358,-0.02914,-0.01297,-0.03342,-0.01816,-0.01801,-0.05951
7.706,-0.00488,-0.05646,-0.01648,-0.03525,-0.26962,-0.04868,0.04349,0.02625,-0.01953,-0.01999,-0.03891,-0.00916,-0.03403,-0.01892,-0.0174,-0.05737
7.7065,-0.0058,-0.05203,-0.0235,0.12482,-0.33234,-0.05386,0.0502,0.03006,-0.03067,-0.03372,-0.05386,-0.00732,-0.03433,-0.01968,-0.01602,-0.06027
7.707,-0.00656,-0.04852,-0.0322,0.14206,-0.34927,-0.06897,0.03876,0.0325,-0.03967,-0.04745,-0.0737,-0.00534,-0.0351,-0.01984,-0.01877,-0.06454
7.7075,-0.00748,-0.04501,-0.03571,0.04501,-0.32944,-0.09857,0.01282,0.03143,-0.04623,-0.05417,-0.0975,-0.00366,-0.03525,-0.0209,-0.01724,-0.06424
7.708,-0.00717,-0.04211,-0.03296,-0.05402,-0.28778,-0.13733,-0.00488,0.02869,-0.05112,-0.05402,-0.11826,-0.00092,-0.03387,-0.02213,-0.01236,-0.05783
7.7085,-0.00641,-0.04074,-0.02609,-0.08392,-0.22964,-0.168,-0.00656,0.0235,-0.056,-0.05325,-0.12329,0.00031,-0.0325,-0.02335,-0.00916,-0.04974
7.709,-0.00687,-0.04211,-0.02563,-0.05493,-0.16739,-0.17258,-0.00336,0.01785,-0.0592,-0.0528,-0.10818,0.00107,-0.03281,-0.02533,-0.00626,-0.04608
7.7095,-0.00717,-0.04135,-0.02594,-0.0116,-0.121,-0.14725,-0.00504,0.01526,-0.05478,-0.04929,-0.07919,0.00198,-0.03403,-0.02716,-0.00443,-0.04669
7.71,-0.00473,-0.04059,-0.02609,0.02151,-0.10193,-0.10849,-0.00946,0.01785,-0.04242,-0.04288,-0.04501,0.00229,-0.03342,-0.02716,-0.00198,-0.04761
7.7105,-0.00275,-0.03769,-0.02457,0.04791,-0.09995,-0.07462,-0.01144,0.0238,-0.02655,-0.03372,-0.01083,-0.00015,-0.03128,-0.02563,-0.00244,-0.04929
7.711,-0.00229,-0.03479,-0.0206,0.07416,-0.11139,-0.0528,-0.01022,0.02975,-0.01648,-0.02731,0.02136,-0.00214,-0.03082,-0.02411,0.00122,-0.05081
7.7115,-0.0029,-0.03372,-0.02106,0.09216,-0.13214,-0.04181,-0.00916,0.03494,-0.01572,-0.02441,0.04852,-0.00214,-0.03296,-0.02365,0.00137,-0.05249
7.712,-0.00198,-0.03693,-0.02274,0.09079,-0.13992,-0.03738,-0.00824,0.0386,-0.01846,-0.02167,0.07019,-0.00275,-0.03433,-0.0238,-0.00031,-0.05325
7.7125,0.00046,-0.04318,-0.02609,0.07462,-0.12543,-0.0383,-0.00778,0.04074,-0.02228,-0.01709,0.08865,-0.00473,-0.03372,-0.02289,-0.00198,-0.05035
7.713,0.00397,-0.04959,-0.02792,0.05539,-0.10635,-0.04303,-0.00946,0.03937,-0.02365,-0.01434,0.11078,-0.00565,-0.03143,-0.02045,-0.00122,-0.04684
7.7135,0.0058,-0.05661,-0.02869,0.0351,-0.10712,-0.04562,-0.0116,0.03357,-0.0235,-0.01724,0.1297,-0.00504,-0.02914,-0.01907,0.00046,-0.04562
7.714,0.00458,-0.06622,-0.02396,0.01053,-0.12817,-0.03632,-0.0148,0.02853,-0.02258,-0.0238,0.13199,-0.00275,-0.0296,-0.02121,0.00046,-0.04639
7.7145,0.00198,-0.07706,-0.01816,-0.01434,-0.15259,-0.0177,-0.01877,0.02762,-0.01816,-0.03159,0.1149,-0.00275,-0.03143,-0.02365,0.0,-0.04654
7.715,0.00015,-0.08102,-0.01602,-0.03265,-0.15747,-0.00351,-0.02243,0.03067,-0.01312,-0.03754,0.08499,-0.00427,-0.03326,-0.02518,0.00076,-0.04608
7.7155,0.00076,-0.0737,-0.01953,-0.04272,-0.14008,-0.00549,-0.02457,0.03387,-0.01099,-0.04181,0.05569,-0.00687,-0.03494,-0.02365,0.00275,-0.04471
7.716,0.00381,-0.0589,-0.02548,-0.04822,-0.10803,-0.01633,-0.02579,0.03464,-0.01709,-0.04318,0.03616,-0.00763,-0.03448,-0.02167,0.00488,-0.0444
7.7165,0.00549,-0.04196,-0.03082,-0.0502,-0.08087,-0.01907,-0.02579,0.03235,-0.02731,-0.03998,0.02823,-0.00824,-0.03418,-0.0209,0.00549,-0.04517
7.717,0.00427,-0.02808,-0.03418,-0.04837,-0.0618,-0.01831,-0.02731,0.02808,-0.03571,-0.02884,0.02762,-0.009,-0.03418,-0.02167,0.00626,-0.04364
7.7175,0.00214,-0.01846,-0.03708,-0.0444,-0.04395,-0.02762,-0.03952,0.02304,-0.03769,-0.01495,0.01968,-0.01068,-0.03448,-0.02213,0.00702,-0.04227
7.718,0.00198,-0.01511,-0.04028,-0.04349,-0.0206,-0.04623,-0.06653,0.01724,-0.03433,-0.00015,-0.00595,-0.01175,-0.03525,-0.02121,0.00961,-0.04105
7.7185,0.00504,-0.01831,-0.04196,-0.04501,0.00946,-0.06363,-0.10056,0.01251,-0.02914,0.01404,-0.04211,-0.0119,-0.03555,-0.02167,0.00534,-0.03891
7.719,0.0087,-0.03174,-0.0415,-0.03494,0.04623,-0.07446,-0.12222,0.01114,-0.02319,0.02731,-0.07248,-0.01022,-0.03555,-0.02411,0.00351,-0.03601
7.7195,0.01251,-0.05539,-0.04044,0.00015,0.09415,-0.07843,-0.11887,0.0145,-0.01358,0.04135,-0.08972,-0.0058,-0.0351,-0.0267,0.00137,-0.03433
7.72,0.01404,-0.07751,-0.04089,0.05646,0.14008,-0.06302,-0.09689,0.01892,-0.00015,0.05157,-0.09766,-0.00214,-0.03372,-0.02792,-0.00015,-0.0322
7.7205,0.01663,-0.08453,-0.04303,0.1059,0.16678,-0.02609,-0.07111,0.0206,0.01312,0.0502,-0.09735,-0.00244,-0.0322,-0.02594,-0.00076,-0.03067
7.721,0.0209,-0.07248,-0.04425,0.12192,0.17014,0.01617,-0.047,0.01755,0.02365,0.03036,-0.09109,-0.00656,-0.03067,-0.02213,0.00168,-0.02991
7.7215,0.02411,-0.0528,-0.04257,0.10315,0.14618,0.03433,-0.01678,0.01099,0.03159,-0.00214,-0.08286,-0.00992,-0.02899,-0.01877,0.00473,-0.03021
7.722,0.02472,-0.03372,-0.03754,0.06836,0.09888,0.01587,0.02487,0.00626,0.03876,-0.03403,-0.08057,-0.00931,-0.02686,-0.01617,0.00778,-0.03418
7.7225,0.02289,-0.02045,-0.02716,0.03113,0.03464,-0.02625,0.06729,0.00671,0.04471,-0.05219,-0.08347,-0.00565,-0.02548,-0.01633,0.01038,-0.03891
7.723,0.0235,-0.01404,-0.01526,-0.00839,-0.03662,-0.0708,0.08469,0.01236,0.04684,-0.05508,-0.0827,0.0,-0.02441,-0.01831,0.01328,-0.03845
7.7235,0.02594,-0.01236,-0.00763,-0.05295,-0.10559,-0.10437,0.06424,0.01724,0.04395,-0.04822,-0.07065,0.00641,-0.02304,-0.01862,0.01709,-0.0351
7.724,0.02686,-0.00671,-0.00778,-0.09628,-0.16556,-0.12131,0.02396,0.02014,0.03448,-0.0351,-0.05203,0.009,-0.02045,-0.01648,0.02197,-0.03403
7.7245,0.02396,0.00641,-0.01053,-0.12802,-0.19836,-0.11688,-0.00687,0.02167,0.02045,-0.0174,-0.03754,0.00641,-0.01999,-0.01419,0.02335,-0.04089
7.725,0.01923,0.01999,-0.01343,-0.1387,-0.19058,-0.08972,-0.01831,0.02258,0.00198,-0.00183,-0.03174,0.00031,-0.02289,-0.0148,0.02136,-0.05356
7.7255,0.0148,0.02045,-0.01221,-0.13947,-0.15259,-0.05569,-0.02213,0.02243,-0.01816,0.00778,-0.03052,-0.00168,-0.02716,-0.01801,0.01907,-0.06119
7.726,0.01144,0.0029,-0.00488,-0.15884,-0.09872,-0.03723,-0.02472,0.01877,-0.0351,0.01129,-0.02701,0.00259,-0.03082,-0.02014,0.01831,-0.05569
7.7265,0.00854,-0.0209,0.0032,-0.21378,-0.04486,-0.03708,-0.02075,0.01389,-0.0444,0.01312,-0.02075,0.00748,-0.03326,-0.02121,0.02136,-0.0415
7.727,0.00595,-0.0351,0.0032,-0.27985,0.0,-0.04501,-0.01297,0.00595,-0.04684,0.01556,-0.01373,0.00748,-0.03525,-0.02197,0.02243,-0.02762
7.7275,0.00168,-0.03464,-0.00778,-0.30838,0.02884,-0.06241,-0.009,-0.00671,-0.04486,0.01633,-0.00732,0.0029,-0.0383,-0.02289,0.01801,-0.0145
7.728,-0.00488,-0.02625,-0.02258,-0.2774,0.04608,-0.08804,-0.01785,-0.01755,-0.04135,0.01572,-0.00412,-0.00153,-0.04379,-0.02502,0.01022,0.00076
7.7285,-0.0116,-0.01968,-0.03067,-0.20966,0.05966,-0.10727,-0.03769,-0.01968,-0.03662,0.01694,-0.00412,-0.00443,-0.05081,-0.02716,0.00214,0.01801
7.729,-0.01678,-0.01495,-0.02579,-0.13733,0.0679,-0.09445,-0.06104,-0.01328,-0.03174,0.02396,-0.00626,-0.00397,-0.05341,-0.02701,-0.00137,0.02945
7.7295,-0.0209,-0.01129,-0.01205,-0.07584,0.0769,-0.05157,-0.07492,-0.00717,-0.02899,0.03189,-0.00702,-0.00046,-0.04654,-0.02304,0.00107,0.03372
7.73,-0.02579,-0.00824,-0.00168,-0.03403,0.09567,-0.01129,-0.06653,-0.00717,-0.02792,0.03098,-0.0087,0.0029,-0.0351,-0.01755,0.00519,0.03281
7.7305,-0.03021,-0.00916,-0.0061,0.00336,0.12054,-0.00412,-0.04501,-0.01022,-0.02808,0.0209,-0.00931,0.00549,-0.02686,-0.01404,0.01297,0.02518
7.731,-0.03128,-0.01633,-0.0238,0.09445,0.13596,-0.02609,-0.03571,-0.0116,-0.02823,0.00916,-0.00946,0.00549,-0.02136,-0.01144,0.01709,0.00397
7.7315,-0.02701,-0.02533,-0.03891,0.27878,0.12695,-0.05142,-0.04684,-0.01129,-0.03235,0.00366,-0.00931,0.00488,-0.01709,-0.01053,0.01694,-0.03372
7.732,-0.01968,-0.03113,-0.04272,0.46555,0.09811,-0.05722,-0.06165,-0.01129,-0.04227,0.00351,-0.00763,0.00549,-0.01236,-0.01053,0.01114,-0.07858
7.7325,-0.01358,-0.03586,-0.03464,0.49911,0.06683,-0.04211,-0.05081,-0.01144,-0.0531,0.00153,-0.00732,0.00732,-0.00885,-0.00992,0.00214,-0.11169
7.733,-0.00977,-0.04089,-0.02182,0.34515,0.0351,-0.01968,-0.0032,-0.01083,-0.05463,-0.00473,-0.00763,0.00809,-0.00702,-0.01099,-0.00519,-0.12039
7.7335,-0.00565,-0.047,-0.00351,0.14008,-0.00168,-0.00122,0.05005,-0.01419,-0.0441,-0.01175,-0.00793,0.00793,-0.00671,-0.01175,-0.00488,-0.10941
7.734,-0.00229,-0.04608,0.0296,0.02716,-0.04837,0.00473,0.06134,-0.02335,-0.03067,-0.02029,-0.00778,0.00824,-0.00809,-0.01266,-0.00061,-0.10498
7.7345,-0.00061,-0.03998,0.07507,0.01495,-0.09201,-0.0029,0.02625,-0.03128,-0.0235,-0.02975,-0.00793,0.0116,-0.0119,-0.01694,0.00259,-0.13184
7.735,-0.00122,-0.03479,0.11444,0.0267,-0.10818,-0.0206,-0.01587,-0.03235,-0.02228,-0.03952,-0.00717,0.01389,-0.01755,-0.02151,-0.00031,-0.19485
7.7355,-0.00244,-0.0354,0.11581,0.01495,-0.09186,-0.03647,-0.03052,-0.0264,-0.02167,-0.04578,-0.00565,0.01266,-0.02579,-0.02579,-0.00839,-0.26855
7.736,-0.00412,-0.0412,0.08255,-0.00534,-0.0473,-0.03494,-0.02686,-0.01724,-0.01938,-0.04761,-0.0058,0.009,-0.03738,-0.02869,-0.01541,-0.31296
7.7365,-0.00504,-0.04761,0.02899,-0.01129,0.01358,-0.00793,-0.02686,-0.01038,-0.01938,-0.04837,-0.00549,0.00763,-0.0502,-0.03159,-0.01389,-0.30273
7.737,-0.00534,-0.05051,-0.02808,-0.00336,0.07813,0.02151,-0.03052,-0.00488,-0.01877,-0.04974,-0.00656,0.00854,-0.06027,-0.03571,-0.00351,-0.23727
7.7375,-0.00839,-0.05264,-0.08224,0.00412,0.12573,0.01511,-0.03036,-0.00153,-0.01495,-0.05142,-0.01358,0.01114,-0.0618,-0.03952,0.01007,-0.11185
7.738,-0.01419,-0.05646,-0.12848,0.00778,0.13596,-0.04059,-0.02625,0.00015,-0.01053,-0.05524,-0.02975,0.01175,-0.05768,-0.03738,0.01755,0.06973
7.7385,-0.02029,-0.06378,-0.16129,0.01068,0.09796,-0.11536,-0.0264,0.00046,-0.00946,-0.05859,-0.05157,0.01099,-0.05402,-0.0322,0.02045,0.23392
7.739,-0.02106,-0.07599,-0.17929,0.01465,0.01205,-0.16541,-0.03143,0.00031,-0.01343,-0.05951,-0.06073,0.0087,-0.05402,-0.02777,0.01877,0.27084
7.7395,-0.01297,-0.09018,-0.18372,0.01831,-0.10529,-0.17929,-0.03174,-0.00046,-0.01968,-0.05707,-0.04562,0.0061,-0.05356,-0.02655,0.0145,0.16815
7.74,-0.00351,-0.103,-0.18112,0.01984,-0.21698,-0.17578,-0.02045,-0.0029,-0.02502,-0.05508,-0.01587,0.00351,-0.05035,-0.02731,0.01099,0.0412
7.7405,-0.00031,-0.11185,-0.17365,0.01297,-0.27878,-0.17288,-0.00717,-0.00458,-0.0322,-0.05402,0.00336,0.00351,-0.04562,-0.02655,0.00992,-0.00717
7.741,-0.00381,-0.11368,-0.16037,-0.01999,-0.28778,-0.16693,-0.00595,-0.00626,-0.04166,-0.0502,0.00565,0.00427,-0.04211,-0.02548,0.01007,0.01114
7.7415,-0.0061,-0.10941,-0.14069,-0.07599,-0.27069,-0.14984,-0.01678,-0.009,-0.05051,-0.04333,0.00183,0.00488,-0.04059,-0.02441,0.01312,0.02838
7.742,-0.00397,-0.10193,-0.11719,-0.1091,-0.24963,-0.12894,-0.02518,-0.01389,-0.05646,-0.03708,0.00198,0.00244,-0.0412,-0.02289,0.01297,0.01923
7.7425,0.00046,-0.08957,-0.09247,-0.0769,-0.21423,-0.1181,-0.02197,-0.01755,-0.05737,-0.03418,0.00397,0.00031,-0.04181,-0.02213,0.01266,0.00443
7.743,0.00336,-0.07217,-0.06897,0.00076,-0.1593,-0.11169,-0.01511,-0.01678,-0.05646,-0.03006,0.00488,0.00076,-0.04196,-0.02106,0.01266,-0.00336
7.7435,0.00137,-0.05096,-0.04807,0.07156,-0.10132,-0.09048,-0.01587,-0.01236,-0.05402,-0.0235,0.00702,0.00244,-0.04196,-0.02075,0.0148,-0.00946
7.744,-0.00458,-0.02975,-0.03418,0.11322,-0.07248,-0.05219,-0.02579,-0.00671,-0.05066,-0.01709,0.01343,0.0032,-0.04211,-0.02213,0.01709,-0.01862
7.7445,-0.01343,-0.01144,-0.02869,0.1413,-0.06744,-0.01984,-0.03876,-0.00351,-0.04486,-0.01282,0.02213,0.00214,-0.04059,-0.0238,0.01694,-0.02609
7.745,-0.02243,0.00229,-0.02533,0.16663,-0.06073,-0.00916,-0.05035,-0.00061,-0.03906,-0.01389,0.02853,0.00214,-0.03738,-0.02472,0.01419,-0.02823
7.7455,-0.02625,0.01114,-0.01328,0.17776,-0.03693,-0.00763,-0.05569,0.00153,-0.03677,-0.01663,0.02579,0.00275,-0.03281,-0.02274,0.0145,-0.0293
7.746,-0.02487,0.01511,0.01114,0.15793,-0.00275,0.00381,-0.05371,0.00122,-0.03342,-0.01785,0.01129,0.00366,-0.02975,-0.01999,0.01617,-0.03036
7.7465,-0.01938,0.01266,0.03372,0.09659,0.02823,0.02274,-0.04593,-0.00397,-0.02289,-0.01587,-0.00763,0.00381,-0.02701,-0.01663,0.01587,-0.0322
7.747,-0.01328,0.00626,0.02686,-0.00885,0.04715,0.0322,-0.03662,-0.01297,-0.00351,-0.01114,-0.02182,0.00046,-0.02365,-0.01312,0.01389,-0.03403
7.7475,-0.01328,0.00107,-0.00198,-0.13474,0.0531,0.02426,-0.02487,-0.01907,0.0145,-0.00778,-0.02792,-0.00397,-0.0206,-0.0119,0.01282,-0.03738
7.748,-0.01831,-0.00046,-0.03296,-0.22385,0.04761,0.00671,-0.00992,-0.01724,0.02411,-0.00809,-0.02792,-0.00854,-0.01862,-0.01328,0.01282,-0.04227
7.7485,-0.02365,-0.00137,-0.06393,-0.23331,0.03143,-0.00687,0.00427,-0.01236,0.02579,-0.01144,-0.02472,-0.01221,-0.0174,-0.01526,0.01419,-0.04608
7.749,-0.02228,-0.00778,-0.09979,-0.17563,0.01129,-0.01343,0.0119,-0.00916,0.02609,-0.01282,-0.01892,-0.0119,-0.0145,-0.01434,0.01221,-0.04471
7.7495,-0.01282,-0.01953,-0.12573,-0.10559,-0.009,-0.01541,0.01358,-0.00763,0.02853,-0.01297,-0.01266,-0.00793,-0.00916,-0.01022,0.00977,-0.03952
7.75,0.00015,-0.03265,-0.11978,-0.06927,-0.03433,-0.01831,0.0116,-0.0058,0.03296,-0.01434,-0.00977,-0.00397,-0.0032,-0.0058,0.00793,-0.03296
7.7505,0.01129,-0.04181,-0.0885,-0.07172,-0.06622,-0.02228,0.00732,-0.00229,0.03677,-0.01938,-0.009,-0.00137,0.00107,-0.0029,0.00763,-0.02823
7.751,0.01785,-0.04593,-0.05905,-0.09476,-0.08408,-0.02518,-0.00015,0.00153,0.03754,-0.02472,-0.00626,-0.00229,0.00092,-0.00275,0.01251,-0.02777
7.7515,0.02151,-0.04837,-0.04333,-0.11719,-0.065,-0.02563,-0.00778,0.00397,0.03723,-0.02869,-0.0032,-0.00305,-0.00443,-0.0058,0.01938,-0.03357
7.752,0.02274,-0.05264,-0.03754,-0.1265,-0.00687,-0.0209,-0.01022,0.00473,0.03479,-0.03006,-0.00458,-0.00214,-0.01038,-0.01022,0.02457,-0.0415
7.7525,0.02304,-0.06104,-0.03326,-0.121,0.06561,-0.00961,-0.00763,0.00534,0.03189,-0.03082,-0.00931,-0.00015,-0.01328,-0.01282,0.02914,-0.04501
7.753,0.02151,-0.07294,-0.02747,-0.10666,0.12787,0.00046,-0.00366,0.00717,0.02838,-0.03052,-0.01572,-0.00015,-0.01556,-0.0145,0.03143,-0.04639
7.7535,0.0174,-0.08682,-0.01648,-0.09247,0.17624,-0.00153,-0.00244,0.00763,0.02396,-0.02899,-0.01953,-0.00092,-0.02167,-0.01633,0.03036,-0.05524
7.754,0.01205,-0.1004,-0.00153,-0.08453,0.21027,-0.02029,-0.00381,0.00275,0.01923,-0.02579,-0.0206,0.00015,-0.03159,-0.01862,0.02457,-0.07416
7.7545,0.00839,-0.11047,0.01617,-0.07843,0.21805,-0.04578,-0.00534,-0.00793,0.01587,-0.01968,-0.01846,0.00137,-0.03967,-0.02029,0.01999,-0.09079
7.755,0.00641,-0.11032,0.02747,-0.06393,0.18158,-0.06317,-0.00687,-0.01953,0.01495,-0.00809,-0.01541,0.00366,-0.04395,-0.02045,0.0177,-0.09399
7.7555,0.00549,-0.10101,0.02625,-0.03769,0.09079,-0.06317,-0.00702,-0.02487,0.0148,0.00732,-0.01282,0.00473,-0.04578,-0.02136,0.01251,-0.08774
7.756,0.00381,-0.08453,0.01389,-0.00702,-0.03326,-0.05005,-0.0061,-0.0235,0.01373,0.01617,-0.01282,0.00565,-0.04929,-0.02243,0.00305,-0.08087
7.7565,0.00076,-0.07156,-0.00549,0.01556,-0.1532,-0.03479,-0.00397,-0.02075,0.01083,0.01083,-0.01556,0.00565,-0.05219,-0.02411,-0.00656,-0.07782
7.757,-0.00107,-0.06714,-0.02151,0.02594,-0.23956,-0.02243,-0.00305,-0.01999,0.00916,-0.00275,-0.01785,0.00824,-0.05081,-0.02396,-0.01053,-0.07019
7.7575,-0.00198,-0.06958,-0.02869,0.02792,-0.28656,-0.0177,-0.00351,-0.01999,0.00885,-0.01373,-0.01755,0.01099,-0.04547,-0.02167,-0.00397,-0.05707
7.758,-0.00397,-0.06866,-0.0238,0.02533,-0.28839,-0.03067,-0.00412,-0.01678,0.00885,-0.01694,-0.01617,0.01328,-0.0386,-0.01846,0.0032,-0.04501
7.7585,-0.00854,-0.06302,-0.0087,0.02014,-0.23041,-0.06332,-0.00305,-0.00931,0.00793,-0.01678,-0.01465,0.01297,-0.03738,-0.01877,-0.00092,-0.04135
7.759,-0.01511,-0.06271,0.00946,0.00961,-0.12115,-0.09384,-0.00198,-0.00626,0.00443,-0.01923,-0.01526,0.00885,-0.04318,-0.02335,-0.01465,-0.04684
7.7595,-0.02029,-0.07187,0.01862,-0.0061,-0.01831,-0.09369,-0.0032,-0.01343,0.00046,-0.02167,-0.01633,0.00443,-0.05295,-0.02716,-0.02197,-0.05188
7.76,-0.02304,-0.07706,0.01373,-0.02716,0.01389,-0.06424,-0.00504,-0.02945,-0.00259,-0.02228,-0.01785,0.00183,-0.05951,-0.02686,-0.0174,-0.05295
7.7605,-0.02426,-0.0618,0.00061,-0.04349,-0.02899,-0.03113,-0.00351,-0.04059,-0.00595,-0.02029,-0.01785,0.00229,-0.05722,-0.02502,-0.00168,-0.0528
7.761,-0.02304,-0.02655,-0.00748,-0.04715,-0.09598,-0.00854,0.00153,-0.03998,-0.00977,-0.01968,-0.0177,0.00351,-0.04425,-0.02182,0.00839,-0.05417
7.7615,-0.01938,0.01572,-0.00427,-0.03815,-0.13611,0.01312,0.0058,-0.03098,-0.01373,-0.01938,-0.01648,0.00381,-0.02777,-0.01724,0.01129,-0.05569
7.762,-0.01526,0.05219,0.00763,-0.02625,-0.14801,0.0351,0.0029,-0.0177,-0.02045,-0.01785,-0.01526,0.00275,-0.01862,-0.01358,0.01114,-0.05203
7.7625,-0.01297,0.07782,0.01389,-0.02075,-0.15488,0.04623,-0.00763,0.00305,-0.02899,-0.01678,-0.0145,0.00076,-0.02243,-0.01236,0.01022,-0.04608
7.763,-0.01312,0.08713,0.00504,-0.02411,-0.15656,0.03799,-0.02014,0.02686,-0.03387,-0.0174,-0.01526,0.00015,-0.0293,-0.01343,0.00992,-0.04242
7.7635,-0.01434,0.08087,-0.01511,-0.03082,-0.14114,0.01816,-0.02731,0.04028,-0.0325,-0.01816,-0.01801,0.00107,-0.02991,-0.01328,0.00931,-0.04074
7.764,-0.01572,0.06409,-0.03723,-0.03296,-0.11642,-0.00229,-0.02594,0.03998,-0.03036,-0.01846,-0.01984,0.00275,-0.02365,-0.0119,0.01129,-0.03922
7.7645,-0.01495,0.04349,-0.05417,-0.02533,-0.10254,-0.02487,-0.01907,0.03769,-0.03113,-0.01953,-0.01907,0.00351,-0.01892,-0.01175,0.01068,-0.0383
7.765,-0.01328,0.02289,-0.06912,-0.01099,-0.09933,-0.05203,-0.01038,0.04135,-0.0325,-0.02182,-0.01648,0.00122,-0.01953,-0.0145,0.00824,-0.04059
7.7655,-0.009,0.0032,-0.08102,0.00153,-0.09186,-0.0769,-0.00229,0.04166,-0.03113,-0.02487,-0.01541,-0.00092,-0.02106,-0.01602,0.0058,-0.04425
7.766,-0.00107,-0.01587,-0.08453,0.00717,-0.07477,-0.0885,0.00351,0.02853,-0.02701,-0.02716,-0.01511,-0.00122,-0.0206,-0.01572,0.0058,-0.04593
7.7665,0.00885,-0.03036,-0.08057,0.00778,-0.05981,-0.09033,0.00885,0.01007,-0.02258,-0.03036,-0.01511,-0.00107,-0.02045,-0.01434,0.00977,-0.04318
7.767,0.01648,-0.03799,-0.07507,0.00778,-0.04913,-0.09598,0.01495,-0.00015,-0.02045,-0.0351,-0.01556,-0.00168,-0.02335,-0.01328,0.01373,-0.0383
7.7675,0.0177,-0.04303,-0.0705,0.00992,-0.04318,-0.11459,0.02121,0.00137,-0.01984,-0.03891,-0.01587,-0.00275,-0.02762,-0.01419,0.01556,-0.03555
7.768,0.01312,-0.05508,-0.06378,0.01053,-0.04105,-0.13733,0.02472,0.00427,-0.02106,-0.04349,-0.01617,-0.00381,-0.02991,-0.0148,0.01205,-0.03647
7.7685,0.00473,-0.07813,-0.05173,0.00854,-0.04028,-0.14725,0.01999,0.00031,-0.02136,-0.04364,-0.01678,-0.0029,-0.02884,-0.0145,0.00763,-0.03784
7.769,-0.00305,-0.10666,-0.03906,0.0029,-0.03845,-0.13535,0.00198,-0.00671,-0.0209,-0.04181,-0.01572,-0.00229,-0.02609,-0.01404,0.0058,-0.03662
7.7695,-0.01022,-0.12787,-0.02869,-0.00229,-0.02533,-0.11078,-0.02319,-0.00671,-0.01907,-0.04013,-0.01434,-0.00198,-0.02197,-0.01297,0.00534,-0.03265
7.77,-0.01633,-0.13641,-0.02304,-0.00244,0.00061,-0.08728,-0.04349,-0.00183,-0.01724,-0.03738,-0.01205,-0.00076,-0.01968,-0.0119,0.00381,-0.02914
7.7705,-0.02197,-0.13626,-0.01938,0.00275,0.03555,-0.07187,-0.04898,-0.00595,-0.01663,-0.03571,-0.01114,-0.00061,-0.01892,-0.01144,0.00351,-0.02731
7.771,-0.0267,-0.1329,-0.01846,0.01373,0.07034,-0.06058,-0.0412,-0.02502,-0.01724,-0.03372,-0.01175,-0.00214,-0.02075,-0.01129,0.00488,-0.02625
7.7715,-0.03006,-0.12451,-0.01617,0.02563,0.09109,-0.0531,-0.02365,-0.04242,-0.01801,-0.03052,-0.01358,-0.00427,-0.02304,-0.0119,0.00549,-0.02426
7.772,-0.03204,-0.10635,-0.00427,0.03357,0.08835,-0.05264,-0.00412,-0.04227,-0.01846,-0.02686,-0.01495,-0.00565,-0.0267,-0.01373,0.00519,-0.0235
7.7725,-0.03372,-0.07553,0.02136,0.03448,0.06195,-0.05859,0.00656,-0.0267,-0.01831,-0.02014,-0.01328,-0.00656,-0.03311,-0.01526,0.00412,-0.02625
7.773,-0.03632,-0.03586,0.04913,0.0296,0.02258,-0.06653,0.00473,-0.01068,-0.01923,-0.01343,-0.01099,-0.00748,-0.0383,-0.01678,0.00534,-0.03586
7.7735,-0.03616,0.00381,0.05661,0.02457,-0.02441,-0.07202,-0.009,-0.00656,-0.01984,-0.00809,-0.00931,-0.00763,-0.0386,-0.01816,0.01114,-0.05112
7.774,-0.03235,0.03815,0.03006,0.02029,-0.07675,-0.0737,-0.02655,-0.0119,-0.02014,-0.00275,-0.01083,-0.00595,-0.03616,-0.01816,0.01602,-0.06775
7.7745,-0.02792,0.05966,-0.02136,0.01663,-0.121,-0.06912,-0.03754,-0.01862,-0.02029,0.00519,-0.01175,-0.00214,-0.03647,-0.0174,0.01465,-0.08087
7.775,-0.02762,0.06851,-0.07492,0.01434,-0.14221,-0.06256,-0.03662,-0.0209,-0.02014,0.01099,-0.01114,0.00031,-0.03693,-0.01678,0.01236,-0.08224
7.7755,-0.03189,0.06927,-0.10895,0.01083,-0.13046,-0.06134,-0.02609,-0.01892,-0.0206,0.00977,-0.01114,-0.00046,-0.03372,-0.01526,0.01373,-0.06836
7.776,-0.03799,0.06363,-0.11368,0.00778,-0.09613,-0.065,-0.01297,-0.01556,-0.02228,-0.00046,-0.01328,-0.00259,-0.02518,-0.01434,0.02609,-0.04639
7.7765,-0.03983,0.04883,-0.09583,0.00565,-0.06027,-0.06714,-0.00778,-0.01205,-0.0235,-0.00992,-0.01389,-0.00412,-0.01923,-0.01511,0.04089,-0.02945
7.777,-0.0383,0.02243,-0.07187,0.00626,-0.03616,-0.0621,-0.01266,-0.009,-0.02365,-0.01541,-0.01389,-0.00473,-0.01633,-0.01541,0.04684,-0.02655
7.7775,-0.03738,-0.01099,-0.05814,0.00427,-0.00732,-0.05188,-0.02121,-0.00549,-0.02319,-0.01755,-0.01328,-0.00259,-0.01465,-0.01541,0.04135,-0.04288
7.778,-0.03616,-0.04242,-0.06058,-0.00504,0.03693,-0.03693,-0.02396,-0.00137,-0.02258,-0.02151,-0.01312,0.00015,-0.01007,-0.01511,0.02533,-0.06882
7.7785,-0.02823,-0.06699,-0.07568,-0.02441,0.09888,-0.01785,-0.02228,-0.00046,-0.02136,-0.02472,-0.01328,0.00107,-0.00305,-0.01495,-0.00031,-0.09048
7.779,-0.01114,-0.08728,-0.09369,-0.05127,0.15106,0.00427,-0.02075,-0.00137,-0.01999,-0.02686,-0.01328,0.00031,0.00229,-0.01389,-0.03006,-0.08713
7.7795,0.01038,-0.10208,-0.09811,-0.0737,0.16937,0.01953,-0.02029,0.00183,-0.01831,-0.02533,-0.01312,0.00214,0.0,-0.01251,-0.0589,-0.05844
7.78,0.02914,-0.10712,-0.07233,-0.07965,0.14771,0.02136,-0.01968,0.00732,-0.01678,-0.02396,-0.01404,0.00549,-0.01266,-0.01343,-0.08301,-0.02914
7.7805,0.04303,-0.10239,-0.02182,-0.05997,0.09567,0.01083,-0.01816,0.01053,-0.01556,-0.02426,-0.01404,0.009,-0.03418,-0.01984,-0.11658,-0.01877
7.781,0.04852,-0.09155,0.02594,-0.01556,0.02762,-0.00259,-0.01831,0.00946,-0.01465,-0.02396,-0.01343,0.01068,-0.05859,-0.02991,-0.16052,-0.01999
7.7815,0.04318,-0.0795,0.04761,0.03357,-0.04684,-0.0148,-0.01877,0.00565,-0.01373,-0.02274,-0.01266,0.01144,-0.07813,-0.03876,-0.19318,-0.01709
7.782,0.02686,-0.06866,0.04425,0.0592,-0.12177,-0.03067,-0.01907,0.00214,-0.01282,-0.02182,-0.01251,0.01389,-0.09079,-0.04013,-0.16464,-0.00458
7.7825,0.00702,-0.05875,0.03769,0.05188,-0.19058,-0.04822,-0.01801,0.00122,-0.01251,-0.02121,-0.01266,0.01862,-0.09583,-0.03342,-0.04044,0.00549
7.783,-0.00885,-0.04898,0.04196,0.02884,-0.24307,-0.06302,-0.01572,0.00076,-0.01236,-0.02121,-0.01373,0.0267,-0.09232,-0.02426,0.14954,0.00275
7.7835,-0.01862,-0.04059,0.04074,0.0119,-0.25925,-0.06668,-0.01358,-0.00015,-0.01434,-0.02136,-0.0148,0.03326,-0.08347,-0.01938,0.28992,-0.01373
7.784,-0.02487,-0.0351,0.01984,0.00473,-0.2243,-0.06241,-0.01328,-0.00305,-0.01602,-0.02197,-0.01633,0.03174,-0.07401,-0.01968,0.27878,-0.03159
7.7845,-0.03235,-0.02975,-0.01328,0.00153,-0.15778,-0.06134,-0.0145,-0.00534,-0.01572,-0.02426,-0.0174,0.02319,-0.06638,-0.02258,0.1535,-0.04105
7.785,-0.0441,-0.02548,-0.04242,-0.00107,-0.09659,-0.07309,-0.01511,-0.0061,-0.01526,-0.02655,-0.01831,0.01236,-0.05951,-0.02335,0.04669,-0.0386
7.7855,-0.05966,-0.02274,-0.06363,-0.00061,-0.05295,-0.10101,-0.01648,-0.00732,-0.01495,-0.02655,-0.01755,0.00519,-0.05295,-0.02289,0.02625,-0.03616
7.786,-0.0766,-0.02655,-0.08514,0.00549,-0.02243,-0.13535,-0.01862,-0.01205,-0.0148,-0.02472,-0.01495,-0.00061,-0.04669,-0.02136,0.04913,-0.03555
7.7865,-0.09003,-0.03464,-0.11383,0.0209,-0.00046,-0.15564,-0.02136,-0.01694,-0.01526,-0.02213,-0.01282,-0.0061,-0.04211,-0.02045,0.05386,-0.0354
7.787,-0.09811,-0.04196,-0.13992,0.04593,0.01144,-0.14252,-0.02335,-0.01343,-0.01556,-0.0209,-0.01221,-0.01221,-0.03799,-0.01923,0.03754,-0.03387
7.7875,-0.10178,-0.04593,-0.14969,0.07507,0.02563,-0.10422,-0.02197,0.00092,-0.01678,-0.02243,-0.01343,-0.01877,-0.03448,-0.01678,0.02411,-0.03403
7.788,-0.10056,-0.04959,-0.14191,0.09415,0.06119,-0.06882,-0.02075,0.01953,-0.01816,-0.02472,-0.01678,-0.03174,-0.03281,-0.01373,0.01892,-0.03738
7.7885,-0.09491,-0.05508,-0.12726,0.09064,0.11841,-0.0528,-0.02426,0.03036,-0.01923,-0.02625,-0.01724,-0.05249,-0.03372,-0.01465,0.01526,-0.04059
7.789,-0.09003,-0.05997,-0.112,0.06866,0.17441,-0.03998,-0.03143,0.01816,-0.01953,-0.02701,-0.01633,-0.06958,-0.03632,-0.0177,0.01022,-0.04349
7.7895,-0.08698,-0.06012,-0.09811,0.04395,0.20615,-0.00885,-0.03479,-0.03372,-0.01816,-0.02762,-0.0148,-0.06683,-0.03891,-0.01953,0.00748,-0.04501
7.79,-0.08438,-0.056,-0.08316,0.02579,0.20798,0.03174,-0.02945,-0.11383,-0.01648,-0.02914,-0.01389,-0.04288,-0.03922,-0.01953,0.00717,-0.04669
7.7905,-0.0798,-0.05051,-0.07111,0.00443,0.19669,0.05081,-0.02304,-0.1799,-0.01434,-0.03067,-0.01297,-0.02182,-0.03693,-0.01846,0.00565,-0.04852
7.791,-0.07233,-0.04486,-0.06195,-0.02914,0.18311,0.03601,-0.01923,-0.19623,-0.01297,-0.03357,-0.01205,-0.02029,-0.03418,-0.01617,0.00381,-0.04913
7.7915,-0.06622,-0.03998,-0.0528,-0.07004,0.16617,0.00198,-0.01724,-0.15854,-0.01129,-0.03906,-0.01114,-0.02884,-0.03433,-0.01572,0.00458,-0.04837
7.792,-0.0647,-0.03464,-0.04318,-0.1001,0.12802,-0.02289,-0.01282,-0.07751,-0.009,-0.04318,-0.01236,-0.03433,-0.03632,-0.01511,0.00549,-0.04684
7.7925,-0.06851,-0.03021,-0.03357,-0.1088,0.05905,-0.03372,-0.00443,0.03113,-0.00702,-0.04349,-0.0148,-0.03616,-0.03662,-0.01541,0.0058,-0.0441
7.793,-0.07248,-0.0296,-0.03128,-0.09903,-0.03799,-0.03571,0.00427,0.13626,-0.00671,-0.03967,-0.01678,-0.04227,-0.03479,-0.01633,0.00275,-0.04288
7.7935,-0.07278,-0.03311,-0.03723,-0.08362,-0.11429,-0.03571,0.00595,0.20294,-0.01038,-0.03387,-0.01862,-0.04684,-0.03357,-0.01877,0.00046,-0.04318
7.794,-0.07172,-0.03922,-0.05112,-0.0769,-0.12177,-0.03555,-0.00122,0.21347,-0.01373,-0.02899,-0.01907,-0.03601,-0.03815,-0.02167,0.00076,-0.04303
7.7945,-0.06989,-0.04471,-0.06287,-0.08286,-0.07339,-0.03555,-0.0119,0.16953,-0.01617,-0.02472,-0.01862,0.00351,-0.04425,-0.02365,0.00198,-0.04227
7.795,-0.06775,-0.04883,-0.06012,-0.09171,-0.02396,-0.04013,-0.0174,0.0972,-0.0177,-0.02121,-0.0174,0.07172,-0.04593,-0.0238,0.00214,-0.04333
7.7955,-0.06393,-0.05005,-0.04074,-0.0914,-0.0087,-0.04852,-0.01587,0.03525,-0.01938,-0.01831,-0.0174,0.14008,-0.04211,-0.02213,0.00153,-0.04471
7.796,-0.06042,-0.05051,-0.0174,-0.07629,-0.01984,-0.05936,-0.01129,0.00671,-0.02045,-0.01663,-0.01648,0.16251,-0.03769,-0.02106,0.00092,-0.047
7.7965,-0.05951,-0.056,0.00458,-0.05646,-0.03326,-0.06668,-0.00961,-0.00015,-0.01892,-0.01526,-0.0148,0.11719,-0.03601,-0.02075,0.00015,-0.04807
7.797,-0.06378,-0.06561,0.02747,-0.03601,-0.02991,-0.07294,-0.01175,-0.01038,-0.01663,-0.01282,-0.0119,0.0412,-0.03433,-0.0206,0.00092,-0.04898
7.7975,-0.06775,-0.07309,0.04822,-0.00854,-0.01083,-0.07813,-0.01373,-0.03387,-0.01678,-0.0119,-0.01144,-0.00977,-0.03235,-0.0206,0.00168,-0.04822
7.798,-0.06699,-0.07294,0.0592,0.03922,-0.00259,-0.07568,-0.01465,-0.07065,-0.0206,-0.0116,-0.01419,-0.01678,-0.02869,-0.01968,0.00061,-0.05096
7.7985,-0.06088,-0.06699,0.05707,0.10559,-0.03006,-0.06516,-0.01587,-0.11719,-0.02335,-0.01373,-0.01572,-0.00198,-0.02487,-0.01801,0.00092,-0.05035
7.799,-0.05585,-0.06287,0.04837,0.16739,-0.07919,-0.056,-0.01968,-0.1619,-0.02304,-0.01587,-0.01465,0.01068,-0.0209,-0.01541,-0.00031,-0.04898
7.7995,-0.05219,-0.06149,0.04059,0.20035,-0.12161,-0.05188,-0.02411,-0.18204,-0.0209,-0.01541,-0.01297,0.01862,-0.01877,-0.01389,-0.00137,-0.0473
7.8,-0.04486,-0.06393,0.02884,0.19333,-0.15152,-0.05051,-0.02808,-0.1561,-0.01923,-0.01038,-0.01389,0.02258,-0.01694,-0.01297,-0.00061,-0.04547
7.8005,-0.03021,-0.07248,0.01236,0.13855,-0.17349,-0.04593,-0.03021,-0.0853,-0.01938,-0.00198,-0.01663,0.02304,-0.01373,-0.01251,-0.00046,-0.04486
7.801,-0.0119,-0.08194,-0.00275,0.02762,-0.17776,-0.03998,-0.02808,0.0058,-0.01968,0.009,-0.01877,0.01907,-0.01129,-0.01221,0.00046,-0.04486
7.8015,0.00198,-0.08499,-0.00793,-0.11459,-0.16235,-0.03815,-0.02167,0.07553,-0.01862,0.02106,-0.01755,0.01526,-0.01221,-0.01266,0.00153,-0.04608
7.802,0.0032,-0.08118,-0.00366,-0.224,-0.1442,-0.04181,-0.0145,0.09399,-0.0174,0.0296,-0.01434,0.01282,-0.02029,-0.01373,0.00214,-0.04654
7.8025,-0.0029,-0.07584,-0.00137,-0.26489,-0.13885,-0.0473,-0.00977,0.06912,-0.01846,0.02808,-0.01282,0.01175,-0.03036,-0.01526,0.00092,-0.04639
7.803,-0.00793,-0.06821,-0.009,-0.28107,-0.13474,-0.05051,-0.00793,0.03372,-0.01999,0.01755,-0.01419,0.0058,-0.03571,-0.01663,-0.00031,-0.047
7.8035,-0.00793,-0.04791,-0.02228,-0.33844,-0.12054,-0.05035,-0.00595,0.00931,-0.01877,0.00275,-0.01556,-0.01663,-0.03708,-0.01724,-0.00122,-0.04654
7.804,-0.00565,-0.01648,-0.03067,-0.42633,-0.10422,-0.04929,-0.00381,-0.00168,-0.01404,-0.00626,-0.01709,-0.056,-0.03693,-0.01633,-0.00198,-0.0473
7.8045,-0.00473,0.01251,-0.03143,-0.46112,-0.0946,-0.04745,-0.0029,-0.00351,-0.00977,-0.00748,-0.01831,-0.08469,-0.03693,-0.01511,-0.00076,-0.04807
7.805,-0.00809,0.02899,-0.02701,-0.38925,-0.08087,-0.04456,-0.00351,0.00137,-0.00854,-0.00534,-0.01816,-0.07095,-0.03677,-0.0148,0.0,-0.05051
7.8055,-0.01419,0.03464,-0.02335,-0.2356,-0.04868,-0.04089,-0.00381,0.00992,-0.00824,-0.00565,-0.01495,-0.01801,-0.03616,-0.01541,0.00107,-0.0528
7.806,-0.02121,0.03174,-0.01862,-0.06042,0.00397,-0.03952,-0.00183,0.01678,-0.00885,-0.00977,-0.0087,0.03799,-0.03571,-0.01694,0.0032,-0.0531
7.8065,-0.03036,0.02319,-0.01358,0.10635,0.06622,-0.04059,-0.00107,0.02121,-0.00992,-0.01495,-0.00458,0.07446,-0.03632,-0.01862,0.00504,-0.04959
7.807,-0.04227,0.01007,-0.01465,0.24109,0.11932,-0.04059,-0.00244,0.02213,-0.0145,-0.02365,-0.00595,0.09537,-0.03723,-0.02121,0.0061,-0.04364
7.8075,-0.0499,-0.00458,-0.02625,0.28931,0.15488,-0.03738,-0.00366,0.02197,-0.02228,-0.03586,-0.01251,0.10132,-0.0383,-0.02213,0.00763,-0.04288
7.808,-0.04501,-0.01877,-0.04013,0.22278,0.17624,-0.0325,-0.00427,0.01907,-0.02823,-0.04898,-0.01862,0.06897,-0.0386,-0.0209,0.00854,-0.04272
7.8085,-0.0267,-0.03159,-0.05005,0.12054,0.17944,-0.0296,-0.00565,0.01358,-0.02792,-0.05676,-0.02197,-0.01068,-0.03769,-0.01862,0.00656,-0.04181
7.809,-0.00702,-0.04196,-0.05066,0.10727,0.15274,-0.02808,-0.00656,0.00595,-0.02151,-0.05737,-0.0206,-0.10239,-0.03494,-0.01694,-0.00153,-0.04013
7.8095,0.00473,-0.05066,-0.04486,0.20096,0.09171,-0.02213,-0.0058,-0.00076,-0.01526,-0.0531,-0.01724,-0.16174,-0.03326,-0.01663,-0.01526,-0.03784
7.81,0.0087,-0.05966,-0.03845,0.29205,0.01801,-0.01022,-0.00488,-0.00488,-0.01312,-0.05188,-0.01419,-0.18723,-0.03265,-0.01694,-0.02777,-0.03601
7.8105,0.00931,-0.06897,-0.03784,0.29617,-0.04883,-0.00412,-0.00534,-0.00946,-0.01419,-0.05295,-0.01465,-0.21393,-0.03204,-0.01694,-0.03082,-0.03632
7.811,0.0119,-0.07645,-0.04059,0.24963,-0.1004,-0.00977,-0.00656,-0.01465,-0.01633,-0.05386,-0.01816,-0.25482,-0.03098,-0.01648,-0.02289,-0.03769
7.8115,0.01953,-0.07813,-0.04761,0.23865,-0.12543,-0.02304,-0.00671,-0.01663,-0.01678,-0.04761,-0.02136,-0.27557,-0.03067,-0.01633,-0.0058,-0.03784
7.812,0.03082,-0.07706,-0.05936,0.26901,-0.11734,-0.03418,-0.00671,-0.01572,-0.01785,-0.03571,-0.02243,-0.23621,-0.03189,-0.01755,0.01068,-0.03922
7.8125,0.04532,-0.08057,-0.06943,0.2594,-0.08652,-0.04349,-0.00809,-0.01389,-0.01984,-0.02121,-0.01968,-0.13565,-0.03311,-0.01877,0.02365,-0.03967
7.813,0.0618,-0.09216,-0.06989,0.15106,-0.05493,-0.05203,-0.01129,-0.01297,-0.02167,-0.00885,-0.01541,-0.00626,-0.03387,-0.01892,0.03815,-0.04272
7.8135,0.07401,-0.09979,-0.06485,-0.02243,-0.03036,-0.05859,-0.0148,-0.01221,-0.02304,0.00015,-0.01404,0.12894,-0.03357,-0.01801,0.05676,-0.04623
7.814,0.08011,-0.09277,-0.05692,-0.17258,-0.01511,-0.06561,-0.01678,-0.00824,-0.02274,0.00824,-0.01404,0.27649,-0.03448,-0.0177,0.06699,-0.04913
7.8145,0.08041,-0.0766,-0.04761,-0.23743,-0.01831,-0.0798,-0.01694,0.00092,-0.02106,0.01572,-0.01465,0.42755,-0.03784,-0.01968,0.05478,-0.04944
7.815,0.07843,-0.06409,-0.03143,-0.22018,-0.03418,-0.09537,-0.01633,0.01633,-0.01877,0.02243,-0.01495,0.50583,-0.04395,-0.02151,0.02151,-0.04883
7.8155,0.07629,-0.05844,-0.01709,-0.16876,-0.03876,-0.09888,-0.01541,0.03372,-0.01678,0.0264,-0.01419,0.43457,-0.04898,-0.02258,-0.00702,-0.05051
7.816,0.07446,-0.05371,-0.01328,-0.12711,-0.0209,-0.08331,-0.01495,0.04181,-0.01678,0.02731,-0.01083,0.24506,-0.0499,-0.02274,-0.00916,-0.05081
7.8165,0.0737,-0.04349,-0.01953,-0.11093,0.0,-0.06409,-0.01556,0.01984,-0.01724,0.02579,-0.00778,0.06409,-0.04684,-0.02289,0.00687,-0.04974
7.817,0.07385,-0.02945,-0.02884,-0.1091,0.00381,-0.04822,-0.01648,-0.04761,-0.01663,0.0206,-0.00519,-0.02136,-0.04211,-0.02289,0.02167,-0.0473
7.8175,0.07477,-0.01633,-0.03143,-0.11108,-0.00778,-0.02899,-0.01801,-0.14114,-0.01724,0.01129,-0.0061,-0.02609,-0.03876,-0.02243,0.02747,-0.0473
7.818,0.07446,-0.00473,-0.0296,-0.10666,-0.01526,-0.0087,-0.0177,-0.20172,-0.01694,-0.00137,-0.009,-0.00458,-0.03616,-0.02045,0.02853,-0.04898
7.8185,0.07401,0.00458,-0.02213,-0.08972,-0.01038,-0.00168,-0.01495,-0.17868,-0.01328,-0.01343,-0.01205,0.01251,-0.03403,-0.01877,0.03204,-0.04868
7.819,0.07355,0.0087,-0.01038,-0.06821,-0.00122,-0.01221,-0.00977,-0.07797,-0.00565,-0.02197,-0.01328,0.01785,-0.03357,-0.01816,0.03555,-0.047
7.8195,0.07507,0.00748,-0.00183,-0.05554,0.00153,-0.02853,-0.00656,0.06439,0.0032,-0.0264,-0.01099,0.00992,-0.0325,-0.01678,0.02579,-0.04349
7.82,0.0769,0.00229,-0.00397,-0.05585,-0.00534,-0.03387,-0.00671,0.21286,0.00992,-0.02594,-0.0087,-0.01083,-0.03098,-0.01663,-0.0032,-0.0412
7.8205,0.07523,-0.00412,-0.01862,-0.05295,-0.01831,-0.03983,-0.00992,0.32166,0.01251,-0.02487,-0.00732,-0.02197,-0.02975,-0.01678,-0.03387,-0.03754
7.821,0.0708,-0.01129,-0.03662,-0.02899,-0.03143,-0.04898,-0.01358,0.33585,0.0119,-0.02502,-0.00748,0.00839,-0.02899,-0.01877,-0.03586,-0.03433
7.8215,0.06866,-0.01816,-0.05035,0.01297,-0.03693,-0.05493,-0.01709,0.24597,0.00671,-0.02808,-0.00793,0.09354,-0.02975,-0.02045,-0.01007,-0.03265
7.822,0.07187,-0.02502,-0.06042,0.0444,-0.03067,-0.0499,-0.02197,0.11032,-0.00122,-0.03387,-0.00839,0.19501,-0.03189,-0.02121,0.01114,-0.03357
7.8225,0.07614,-0.03143,-0.06607,0.04639,-0.01556,-0.03586,-0.02731,0.00259,-0.00916,-0.03952,-0.01068,0.24429,-0.03342,-0.02136,0.00778,-0.03662
7.823,0.07553,-0.03708,-0.06775,0.02945,-0.00427,-0.02319,-0.02975,-0.05402,-0.01617,-0.04089,-0.01358,0.20767,-0.03372,-0.02136,-0.00748,-0.03815
7.8235,0.07095,-0.04013,-0.06409,0.01511,-0.0032,-0.01587,-0.02686,-0.07919,-0.02045,-0.03876,-0.01556,0.12161,-0.03281,-0.0209,-0.01266,-0.03845
7.824,0.065,-0.03876,-0.06149,0.01328,-0.00763,-0.01526,-0.01984,-0.08972,-0.02274,-0.03342,-0.0145,0.05249,-0.03235,-0.01984,-0.00504,-0.03967
7.8245,0.06088,-0.03372,-0.06714,0.01846,-0.00137,-0.02945,-0.01312,-0.0885,-0.02548,-0.03006,-0.01297,0.01633,-0.03296,-0.01923,0.00214,-0.0415
7.825,0.05234,-0.02655,-0.08011,0.02457,0.02945,-0.05417,-0.00961,-0.08392,-0.0293,-0.02777,-0.0116,-0.01419,-0.0325,-0.01953,0.00275,-0.04272
7.8255,0.03799,-0.02121,-0.09308,0.02899,0.08652,-0.08575,-0.01221,-0.09277,-0.03403,-0.0235,-0.01068,-0.04959,-0.03113,-0.02029,-0.00061,-0.04166
7.826,0.02045,-0.01999,-0.09735,0.03036,0.15259,-0.10864,-0.01785,-0.11032,-0.03906,-0.01999,-0.01144,-0.07111,-0.03067,-0.01999,0.00031,-0.04135
7.8265,0.00519,-0.02335,-0.08942,0.02792,0.19669,-0.10544,-0.02518,-0.11642,-0.04272,-0.01831,-0.01434,-0.07416,-0.03113,-0.01831,0.00183,-0.04089
7.827,-0.00458,-0.0296,-0.06882,0.02182,0.19714,-0.07614,-0.03326,-0.0972,-0.04639,-0.01846,-0.01892,-0.0795,-0.03174,-0.01785,0.00183,-0.03922
7.8275,-0.00778,-0.0354,-0.04456,0.01434,0.1474,-0.04257,-0.04028,-0.06439,-0.047,-0.01663,-0.02274,-0.10559,-0.03128,-0.01724,0.00351,-0.03662
7.828,-0.00504,-0.0383,-0.02457,0.00549,0.04898,-0.02792,-0.04562,-0.03754,-0.04333,-0.0145,-0.0238,-0.14542,-0.03098,-0.01678,0.00336,-0.03387
7.8285,0.00122,-0.04044,-0.01282,-0.00351,-0.07813,-0.03403,-0.05066,-0.02304,-0.03464,-0.01251,-0.02319,-0.17822,-0.02975,-0.0174,0.00305,-0.0351
7.829,0.00626,-0.04349,-0.00717,-0.00671,-0.20416,-0.04776,-0.05768,-0.01984,-0.02563,-0.01266,-0.02121,-0.19165,-0.02869,-0.01724,0.0032,-0.03799
7.8295,0.00839,-0.0473,-0.0058,0.00671,-0.29831,-0.05402,-0.06195,-0.02335,-0.01801,-0.01465,-0.01694,-0.18646,-0.02869,-0.01617,0.00397,-0.04105
7.83,0.00885,-0.05035,-0.00717,0.03876,-0.33951,-0.05676,-0.05554,-0.02747,-0.01373,-0.01587,-0.01389,-0.16129,-0.03006,-0.0148,0.00626,-0.0412
7.8305,0.0087,-0.05249,-0.00671,0.06927,-0.32394,-0.05997,-0.0296,-0.02289,-0.01129,-0.01678,-0.01221,-0.11856,-0.03021,-0.0148,0.00458,-0.03983
7.831,0.01099,-0.05417,-0.00351,0.07187,-0.27527,-0.06271,0.00443,-0.00946,-0.00916,-0.01877,-0.0119,-0.07675,-0.02762,-0.01526,0.00351,-0.0386
7.8315,0.01587,-0.05463,-0.00015,0.03876,-0.22461,-0.06424,0.02396,0.0032,-0.00702,-0.01724,-0.0119,-0.06042,-0.02548,-0.01495,0.00427,-0.03723
7.832,0.02075,-0.05432,0.00183,-0.00717,-0.18265,-0.05951,0.01694,0.01083,-0.00671,-0.01221,-0.01038,-0.07065,-0.02396,-0.01282,0.00671,-0.03662
7.8325,0.02304,-0.05219,-0.00214,-0.04242,-0.14282,-0.05905,0.00015,0.01556,-0.00702,-0.00473,-0.00885,-0.08163,-0.02457,-0.01114,0.00732,-0.03876
7.833,0.02319,-0.05188,-0.00519,-0.06256,-0.10544,-0.05829,-0.00687,0.02136,-0.00671,-0.00076,-0.00778,-0.07721,-0.02487,-0.01175,0.00549,-0.04044
7.8335,0.02411,-0.05432,-0.00916,-0.07965,-0.08301,-0.05692,-0.00397,0.02747,-0.00748,-0.00427,-0.00916,-0.06378,-0.02472,-0.01251,0.0032,-0.0412
7.834,0.0238,-0.0589,-0.01648,-0.09918,-0.08026,-0.05173,-0.0029,0.03159,-0.00961,-0.01129,-0.01068,-0.05814,-0.0235,-0.01328,0.00381,-0.04135
7.8345,0.01953,-0.06592,-0.0267,-0.10788,-0.08347,-0.04486,-0.00702,0.03571,-0.01236,-0.01755,-0.01068,-0.06332,-0.02319,-0.0145,0.00458,-0.0415
7.835,0.01434,-0.07507,-0.03998,-0.09781,-0.08072,-0.03952,-0.01709,0.03998,-0.01282,-0.01999,-0.00885,-0.0676,-0.02441,-0.01511,0.00488,-0.04059
7.8355,0.01266,-0.0824,-0.0502,-0.07538,-0.06958,-0.0386,-0.03143,0.04425,-0.01099,-0.02045,-0.00732,-0.04929,-0.02655,-0.01572,0.00534,-0.03998
7.836,0.01541,-0.08163,-0.05402,-0.05875,-0.05524,-0.03906,-0.04105,0.04761,-0.0087,-0.02121,-0.00824,0.00412,-0.02731,-0.01556,0.00687,-0.03952
7.8365,0.01862,-0.07294,-0.05173,-0.05615,-0.03952,-0.04166,-0.03662,0.0499,-0.00732,-0.02304,-0.01175,0.0766,-0.02731,-0.01495,0.00671,-0.04211
7.837,0.01724,-0.06149,-0.04532,-0.06104,-0.0293,-0.04456,-0.01831,0.05325,-0.00916,-0.02411,-0.01556,0.1149,-0.02808,-0.01526,0.00717,-0.04395
7.8375,0.01312,-0.05478,-0.0415,-0.06027,-0.03052,-0.04471,-0.00214,0.05539,-0.01221,-0.02472,-0.0177,0.07614,-0.03021,-0.01556,0.00641,-0.0444
7.838,0.00916,-0.05295,-0.04395,-0.04852,-0.04318,-0.04501,0.00015,0.04837,-0.0145,-0.02563,-0.01724,-0.01129,-0.03189,-0.01541,0.00519,-0.04379
7.8385,0.00946,-0.05219,-0.04547,-0.03418,-0.05707,-0.04623,-0.00839,0.01785,-0.01678,-0.02609,-0.01648,-0.07889,-0.03174,-0.01602,0.00412,-0.04288
7.839,0.01083,-0.04898,-0.04639,-0.02716,-0.06149,-0.0444,-0.01633,-0.04288,-0.01816,-0.02594,-0.0174,-0.09583,-0.03098,-0.01633,0.00626,-0.04227
7.8395,0.01007,-0.04425,-0.04395,-0.02747,-0.05554,-0.04211,-0.0177,-0.11536,-0.01968,-0.02579,-0.01648,-0.08408,-0.03082,-0.01633,0.00809,-0.04211
7.84,0.00702,-0.03998,-0.04425,-0.02808,-0.04547,-0.03723,-0.01755,-0.16876,-0.02182,-0.02579,-0.01434,-0.065,-0.03098,-0.01495,0.00702,-0.04196
7.8405,0.00549,-0.03571,-0.04562,-0.0264,-0.03281,-0.0351,-0.0238,-0.18585,-0.02335,-0.02441,-0.01328,-0.03738,-0.03067,-0.01495,0.00931,-0.04059
7.841,0.00717,-0.03342,-0.04593,-0.02426,-0.01694,-0.03632,-0.04013,-0.16708,-0.02396,-0.02289,-0.01389,0.00092,-0.02914,-0.01526,0.01068,-0.03738
7.8415,0.009,-0.03098,-0.04669,-0.02304,0.00168,-0.03876,-0.06393,-0.12161,-0.02213,-0.02274,-0.01419,0.03464,-0.02884,-0.01694,0.01053,-0.03555
7.842,0.00809,-0.02884,-0.04547,-0.01923,0.01495,-0.04089,-0.08881,-0.05295,-0.01923,-0.02197,-0.01404,0.04745,-0.03067,-0.01785,0.00946,-0.0354
7.8425,0.00549,-0.02777,-0.04105,-0.00549,0.01923,-0.0412,-0.1004,0.03326,-0.01587,-0.02213,-0.01236,0.03784,-0.0322,-0.02014,0.00931,-0.03738
7.843,0.00412,-0.02747,-0.03342,0.01572,0.01663,-0.04349,-0.07263,0.11673,-0.01434,-0.02075,-0.01205,0.01221,-0.03235,-0.0206,0.00809,-0.0386
7.8435,0.00534,-0.02655,-0.02655,0.02289,0.00473,-0.04807,-0.00397,0.16678,-0.01236,-0.01984,-0.01328,-0.01587,-0.03098,-0.02151,0.00504,-0.03754
7.844,0.00595,-0.02472,-0.01984,-0.02014,-0.01755,-0.05493,0.04715,0.17212,-0.00961,-0.01953,-0.0145,-0.02579,-0.03006,-0.02167,0.00092,-0.03723
7.8445,0.00458,-0.02731,-0.01953,-0.12238,-0.04761,-0.05798,0.03036,0.15076,-0.00854,-0.02045,-0.01511,0.0032,-0.02991,-0.02075,-0.00092,-0.03937
7.845,0.00351,-0.03967,-0.02213,-0.23178,-0.07019,-0.05753,-0.01572,0.12253,-0.00961,-0.02228,-0.01511,0.04974,-0.02975,-0.01938,0.00214,-0.03998
7.8455,0.00427,-0.05768,-0.03418,-0.27298,-0.07858,-0.05386,-0.02396,0.09338,-0.01266,-0.02319,-0.01541,0.04288,-0.02899,-0.01877,0.00565,-0.04105
7.846,0.00458,-0.07339,-0.05905,-0.21545,-0.07431,-0.05249,0.00336,0.07324,-0.01541,-0.02335,-0.01648,-0.05615,-0.03021,-0.0206,0.00671,-0.04135
7.8465,0.00458,-0.07828,-0.08484,-0.08408,-0.06271,-0.05142,0.01312,0.06531,-0.01617,-0.02167,-0.01678,-0.17868,-0.03113,-0.02319,0.00824,-0.04242
7.847,0.00534,-0.07599,-0.09766,0.07385,-0.0502,-0.04974,-0.01205,0.05646,-0.01602,-0.02075,-0.01755,-0.20996,-0.03067,-0.0238,0.00809,-0.04471
7.8475,0.00687,-0.06912,-0.0882,0.19348,-0.03845,-0.04944,-0.03098,0.02808,-0.01404,-0.01984,-0.01831,-0.11108,-0.02869,-0.02289,0.00687,-0.04471
7.848,0.00717,-0.05859,-0.06378,0.22659,-0.02686,-0.04791,-0.01099,-0.01923,-0.01297,-0.02243,-0.01892,0.06165,-0.02701,-0.02289,0.00443,-0.0444
7.8485,0.00244,-0.04578,-0.04028,0.22751,-0.01343,-0.04745,0.03052,-0.06897,-0.01495,-0.02655,-0.01999,0.22247,-0.0267,-0.0238,0.00412,-0.04456
7.849,-0.00656,-0.03372,-0.03952,0.32196,-0.00015,-0.04944,0.05173,-0.10513,-0.02045,-0.03021,-0.02167,0.32043,-0.02701,-0.02502,0.00641,-0.04532
7.8495,-0.01328,-0.02441,-0.06104,0.50079,0.01404,-0.0531,0.04257,-0.12115,-0.02762,-0.0322,-0.02319,0.33432,-0.0267,-0.02441,0.00748,-0.04608
7.85,-0.01297,-0.01801,-0.08148,0.55862,0.03479,-0.05539,0.03647,-0.11581,-0.03265,-0.03265,-0.02396,0.25726,-0.02686,-0.02304,0.0058,-0.04456
7.8505,-0.00702,-0.01175,-0.07416,0.34607,0.0679,-0.05493,0.06577,-0.09537,-0.03357,-0.0325,-0.02258,0.11292,-0.02853,-0.02151,0.00763,-0.04364
7.851,-0.00168,-0.00702,-0.03769,-0.00046,0.09995,-0.05203,0.11856,-0.07233,-0.03082,-0.03281,-0.01877,-0.03143,-0.02899,-0.02121,0.00854,-0.04288
7.8515,0.00107,-0.00168,0.00595,-0.22232,0.10437,-0.04974,0.14206,-0.05386,-0.0267,-0.0325,-0.01556,-0.10361,-0.0293,-0.02228,0.00946,-0.04211
7.852,0.00504,0.0032,0.03891,-0.22476,0.06866,-0.05051,0.10788,-0.0354,-0.02121,-0.03418,-0.01587,-0.07965,-0.02853,-0.02106,0.01266,-0.04105
7.8525,0.0116,0.00534,0.06073,-0.11627,0.0058,-0.05035,0.04623,-0.0148,-0.01633,-0.03311,-0.0177,0.00275,-0.02701,-0.01801,0.01373,-0.04135
7.853,0.01831,0.00504,0.06897,-0.03098,-0.05768,-0.04929,-0.00168,-0.01602,-0.01434,-0.02853,-0.01755,0.07721,-0.02502,-0.01633,0.01373,-0.04211
7.8535,0.02243,0.00381,0.06165,-0.02441,-0.10117,-0.04974,-0.02289,-0.06256,-0.01434,-0.02304,-0.01465,0.09293,-0.02319,-0.01801,0.01114,-0.04303
7.854,0.02151,-0.00046,0.04745,-0.09186,-0.12177,-0.05173,-0.02365,-0.13443,-0.01617,-0.01923,-0.01404,0.04837,-0.02396,-0.02014,-0.00061,-0.04318
7.8545,0.01831,-0.00824,0.03708,-0.18951,-0.11749,-0.05264,-0.01663,-0.17273,-0.01953,-0.01923,-0.01755,-0.01251,-0.02563,-0.02167,-0.02228,-0.04303
7.855,0.01373,-0.01678,0.0354,-0.24399,-0.07187,-0.0499,-0.01282,-0.14191,-0.02197,-0.02213,-0.02182,-0.04318,-0.02762,-0.01953,-0.0444,-0.04272
7.8555,0.00946,-0.02197,0.03052,-0.21637,0.01816,-0.04227,-0.02045,-0.06348,-0.02213,-0.02365,-0.0238,-0.03815,-0.02777,-0.01755,-0.05051,-0.04318
7.856,0.00458,-0.02579,0.01511,-0.14023,0.09308,-0.03693,-0.03448,0.02289,-0.01953,-0.02167,-0.02136,-0.02136,-0.02609,-0.01587,-0.03006,-0.04364
7.8565,0.00122,-0.03387,-0.00854,-0.07584,0.08011,-0.0383,-0.0412,0.0975,-0.01694,-0.01694,-0.01511,-0.00549,-0.02579,-0.01434,-0.00717,-0.0441
7.857,0.00076,-0.04913,-0.03326,-0.04547,-0.01938,-0.04318,-0.03601,0.14297,-0.01526,-0.01328,-0.01007,0.01251,-0.0267,-0.01419,-0.00641,-0.04242
7.8575,0.00259,-0.07324,-0.05066,-0.03448,-0.12161,-0.04196,-0.02686,0.14236,-0.01511,-0.01129,-0.00854,0.03357,-0.02747,-0.01404,-0.01083,-0.04089
7.858,0.00534,-0.09506,-0.06393,-0.03052,-0.16602,-0.03662,-0.02182,0.10452,-0.01419,-0.00992,-0.01236,0.04669,-0.02823,-0.01648,0.02411,-0.03952
7.8585,0.009,-0.10406,-0.07431,-0.03723,-0.16556,-0.03113,-0.02197,0.06058,-0.01312,-0.00732,-0.0177,0.04044,-0.02914,-0.01694,0.0914,-0.03845
7.859,0.01099,-0.09888,-0.08392,-0.06042,-0.15198,-0.03403,-0.02228,0.02975,-0.01068,-0.00427,-0.01999,0.01831,-0.03082,-0.01694,0.13168,-0.03799
7.8595,0.00793,-0.08789,-0.08896,-0.10742,-0.13092,-0.04379,-0.02029,0.01205,-0.009,-0.00153,-0.01755,-0.00198,-0.03113,-0.01709,0.1091,-0.03754
7.86,0.00076,-0.07828,-0.09155,-0.17899,-0.09369,-0.05539,-0.01663,0.00458,-0.00702,-0.00244,-0.0145,-0.00916,-0.03036,-0.01602,0.0502,-0.03815
7.8605,-0.00687,-0.06882,-0.08835,-0.24826,-0.04456,-0.06088,-0.0177,0.00931,-0.00763,-0.00397,-0.01328,-0.00778,-0.03098,-0.01648,-0.00229,-0.03998
7.861,-0.00992,-0.05447,-0.07614,-0.26199,-0.00732,-0.05768,-0.02487,0.02518,-0.00778,-0.00595,-0.01419,-0.00854,-0.03296,-0.01587,-0.03143,-0.04105
7.8615,-0.00778,-0.03769,-0.06119,-0.19211,-0.00412,-0.04501,-0.03464,0.03799,-0.00732,-0.00656,-0.0148,-0.01282,-0.03464,-0.01556,-0.02991,-0.03891
7.862,-0.00488,-0.02396,-0.04944,-0.06882,-0.04181,-0.02975,-0.04196,0.03677,-0.00626,-0.00549,-0.01389,-0.01678,-0.03433,-0.01663,-0.01572,-0.03754
7.8625,-0.00351,-0.01572,-0.04227,0.05753,-0.09583,-0.0206,-0.04547,0.0264,-0.00641,-0.00473,-0.01343,-0.01709,-0.03204,-0.01907,0.00488,-0.03723
7.863,-0.00412,-0.01266,-0.0354,0.16113,-0.14374,-0.02762,-0.04852,0.01556,-0.00809,-0.00351,-0.01144,-0.01831,-0.03052,-0.02075,0.01541,-0.03799
7.8635,-0.00275,-0.01083,-0.03143,0.23941,-0.17624,-0.05569,-0.05203,0.01022,-0.00824,-0.00229,-0.01038,-0.02045,-0.02991,-0.02075,0.01358,-0.03769
7.864,0.00092,-0.00854,-0.02823,0.27679,-0.19028,-0.09109,-0.05051,0.009,-0.00717,-0.00229,-0.01038,-0.02258,-0.03067,-0.01968,0.00122,-0.03815
7.8645,0.00381,-0.00473,-0.03296,0.25452,-0.16571,-0.11368,-0.03723,0.01083,-0.00534,-0.00504,-0.01038,-0.02258,-0.03204,-0.01907,-0.01587,-0.0386
7.865,0.00504,-0.00168,-0.0621,0.18127,-0.08942,-0.11261,-0.01694,0.01556,-0.00641,-0.00931,-0.01022,-0.02274,-0.03204,-0.01953,-0.02945,-0.04028
7.8655,0.00565,0.00015,-0.112,0.10056,0.01114,-0.09766,0.00015,0.02335,-0.00763,-0.01236,-0.01007,-0.02228,-0.03342,-0.02014,-0.03357,-0.04074
7.866,0.0058,-0.00061,-0.16098,0.05203,0.08942,-0.08316,0.00366,0.03128,-0.00671,-0.01343,-0.0119,-0.01968,-0.03601,-0.02151,-0.02457,-0.04074
7.8665,0.00763,-0.00717,-0.17181,0.04288,0.12878,-0.07278,-0.00778,0.04059,-0.0061,-0.01343,-0.01541,-0.01343,-0.03815,-0.02426,-0.01617,-0.04074
7.867,0.01007,-0.01877,-0.12924,0.04883,0.13199,-0.06897,-0.03021,0.05051,-0.00656,-0.01221,-0.01984,0.00214,-0.03937,-0.02502,-0.00992,-0.04044
7.8675,0.01114,-0.03372,-0.05402,0.0499,0.09293,-0.07248,-0.0499,0.0589,-0.01038,-0.01221,-0.02319,0.0264,-0.04028,-0.02548,-0.01099,-0.04044
7.868,0.01114,-0.04761,0.02304,0.0412,0.01419,-0.08026,-0.05066,0.06454,-0.01251,-0.01419,-0.02243,0.04684,-0.04044,-0.02502,0.00748,-0.04135
7.8685,0.01068,-0.05524,0.08087,0.03174,-0.065,-0.08255,-0.02991,0.06744,-0.01282,-0.0148,-0.01999,0.04349,-0.04135,-0.02487,0.03708,-0.04242
7.869,0.00854,-0.06012,0.10864,0.02243,-0.10101,-0.07538,-0.00412,0.06287,-0.01144,-0.01556,-0.01785,0.01633,-0.04181,-0.02609,0.06821,-0.04379
7.8695,0.00519,-0.0621,0.10025,0.01022,-0.0943,-0.06454,0.01144,0.04333,-0.01099,-0.01709,-0.01724,-0.01373,-0.04059,-0.02747,0.07431,-0.04318
7.87,0.00168,-0.06561,0.06866,-0.00412,-0.07309,-0.05661,0.01541,0.01068,-0.01022,-0.0209,-0.01572,-0.03159,-0.03738,-0.02747,0.05035,-0.04257
7.8705,0.00122,-0.07675,0.02975,-0.01862,-0.04837,-0.05356,0.01038,-0.02594,-0.00946,-0.02838,-0.01495,-0.03937,-0.03494,-0.0267,0.01251,-0.04257
7.871,0.0058,-0.10345,0.0032,-0.0293,-0.02304,-0.05188,-0.01495,-0.06531,-0.00793,-0.03326,-0.01694,-0.04333,-0.03387,-0.02625,-0.02045,-0.04196
7.8715,0.01389,-0.14053,-0.01358,-0.0354,-0.00702,-0.04791,-0.06927,-0.11292,-0.00839,-0.03464,-0.01785,-0.04822,-0.03372,-0.02716,-0.03677,-0.04257
7.872,0.02045,-0.16632,-0.03128,-0.03754,-0.00671,-0.04044,-0.13321,-0.16159,-0.01007,-0.03265,-0.01801,-0.05829,-0.03418,-0.02731,-0.01709,-0.04379
7.8725,0.02533,-0.15915,-0.04517,-0.03632,-0.01007,-0.0325,-0.16068,-0.18631,-0.01221,-0.03098,-0.01724,-0.07355,-0.03647,-0.02655,0.03952,-0.04333
7.873,0.02991,-0.12054,-0.05341,-0.03418,-0.009,-0.02609,-0.14114,-0.16556,-0.0148,-0.03021,-0.01816,-0.08713,-0.03891,-0.02594,0.09842,-0.04303
7.8735,0.03433,-0.07324,-0.06226,-0.03571,-0.01022,-0.02228,-0.11261,-0.10498,-0.01709,-0.02884,-0.02106,-0.08942,-0.03876,-0.02518,0.10849,-0.04379
7.874,0.03677,-0.03326,-0.06683,-0.03754,-0.02289,-0.01923,-0.11398,-0.03372,-0.01801,-0.02716,-0.02151,-0.07965,-0.03784,-0.02625,0.07172,-0.04395
7.8745,0.03616,0.0,-0.06485,-0.03479,-0.03555,-0.01724,-0.1355,0.01297,-0.01724,-0.02533,-0.01862,-0.06943,-0.03738,-0.02563,0.01587,-0.04471
7.875,0.0354,0.02319,-0.05707,-0.02594,-0.03281,-0.01633,-0.1355,0.01907,-0.01511,-0.0235,-0.01846,-0.0676,-0.03754,-0.02502,-0.00137,-0.04471
7.8755,0.03464,0.03586,-0.03937,-0.0148,-0.01541,-0.01755,-0.07919,-0.00107,-0.01389,-0.02487,-0.01816,-0.07065,-0.03845,-0.02441,0.01083,-0.04517
7.876,0.0322,0.03693,-0.02243,-0.00732,-0.00305,-0.0238,0.03403,-0.02426,-0.0145,-0.02502,-0.01999,-0.0705,-0.03952,-0.02487,0.02823,-0.04501
7.8765,0.02762,0.03113,-0.00992,-0.00549,-0.0061,-0.03326,0.14877,-0.0383,-0.01663,-0.02426,-0.0206,-0.06134,-0.03876,-0.02609,0.03189,-0.04349
7.877,0.0235,0.0235,-0.00748,-0.00534,-0.00702,-0.0444,0.17548,-0.04501,-0.01724,-0.02289,-0.0209,-0.0415,-0.03754,-0.02716,0.02808,-0.0441
7.8775,0.02289,0.01251,-0.01312,-0.00534,0.01297,-0.0499,0.09003,-0.04608,-0.01541,-0.02228,-0.02182,-0.00961,-0.03616,-0.02808,0.02045,-0.04501
7.878,0.02594,0.00275,-0.02106,-0.00412,0.05325,-0.047,-0.03052,-0.03693,-0.01404,-0.0209,-0.02274,0.03067,-0.0351,-0.0267,0.01038,-0.0441
7.8785,0.03159,-0.00427,-0.02686,-0.00366,0.0972,-0.03952,-0.09155,-0.01968,-0.01282,-0.01831,-0.02319,0.06439,-0.03464,-0.02563,-0.0145,-0.04196
7.879,0.03754,-0.009,-0.02777,-0.00473,0.1297,-0.03189,-0.0705,-0.00092,-0.01144,-0.01434,-0.02121,0.06683,-0.03296,-0.02411,-0.04074,-0.0415
7.8795,0.04059,-0.01678,-0.02609,-0.00626,0.13855,-0.02533,-0.00061,0.01114,-0.009,-0.01007,-0.01785,0.02991,-0.0296,-0.02121,-0.05417,-0.04242
7.88,0.04135,-0.02609,-0.02655,-0.01038,0.11246,-0.02502,0.06119,0.01572,-0.00671,-0.00732,-0.0145,-0.02304,-0.0264,-0.01968,-0.03204,-0.04318
7.8805,0.04105,-0.03555,-0.03174,-0.01999,0.05402,-0.02731,0.06195,0.01648,-0.00549,-0.00824,-0.0116,-0.05005,-0.02579,-0.01923,0.00214,-0.04272
7.881,0.04456,-0.03891,-0.03845,-0.03052,-0.01404,-0.03036,0.00488,0.01862,-0.00595,-0.00977,-0.00977,-0.02747,-0.02808,-0.01923,0.01343,-0.04227
7.8815,0.05035,-0.04166,-0.0415,-0.03128,-0.06943,-0.03143,-0.02975,0.02396,-0.00687,-0.00977,-0.00854,0.02762,-0.03067,-0.01892,0.00824,-0.04211
7.882,0.05081,-0.04593,-0.03708,-0.02289,-0.11032,-0.03311,0.01831,0.02594,-0.00687,-0.00793,-0.00793,0.07126,-0.03021,-0.01907,0.01007,-0.04288
7.8825,0.04425,-0.05417,-0.03067,-0.01801,-0.1416,-0.03906,0.09964,0.02121,-0.00717,-0.00763,-0.00916,0.07843,-0.03067,-0.01831,0.01633,-0.04364
7.883,0.03494,-0.06378,-0.0267,-0.02289,-0.15396,-0.04654,0.13351,0.00885,-0.00824,-0.00992,-0.01053,0.0621,-0.02991,-0.01923,0.0177,-0.04303
7.8835,0.02869,-0.07385,-0.03098,-0.02502,-0.12268,-0.04761,0.11246,-0.00519,-0.00946,-0.01266,-0.01144,0.0473,-0.02899,-0.01999,0.01022,-0.04135
7.884,0.02518,-0.08026,-0.03754,-0.01541,-0.03998,-0.04227,0.07706,-0.01526,-0.00916,-0.01541,-0.0119,0.0412,-0.02747,-0.01862,-0.00305,-0.04105
7.8845,0.0206,-0.08545,-0.04959,-0.00153,0.05341,-0.03616,0.05051,-0.01923,-0.0087,-0.0174,-0.01251,0.03555,-0.02808,-0.01617,-0.01068,-0.04318
7.885,0.01663,-0.08667,-0.05753,0.00381,0.09949,-0.03525,0.03021,-0.01862,-0.0087,-0.01724,-0.01358,0.02945,-0.03128,-0.01495,-0.01266,-0.04562
7.8855,0.01526,-0.07996,-0.05371,0.0,0.07782,-0.04105,0.01434,-0.01648,-0.00885,-0.01663,-0.01282,0.02792,-0.03342,-0.01526,-0.00702,-0.04593
7.886,0.01877,-0.07156,-0.05035,-0.00641,0.02274,-0.0499,0.00443,-0.01541,-0.00946,-0.01495,-0.01083,0.03159,-0.03235,-0.01541,-0.00198,-0.04486
7.8865,0.02396,-0.06607,-0.0415,-0.01526,-0.02396,-0.05768,0.00031,-0.01526,-0.01144,-0.01526,-0.00992,0.03448,-0.03174,-0.01297,0.00992,-0.04364
7.887,0.02518,-0.06744,-0.0415,-0.02838,-0.0502,-0.06104,-0.00061,-0.01404,-0.01328,-0.0148,-0.00931,0.03265,-0.03281,-0.01221,0.00626,-0.04242
7.8875,0.02213,-0.07156,-0.03708,-0.03845,-0.06393,-0.06042,-0.00107,-0.01099,-0.01419,-0.01602,-0.00916,0.02823,-0.03235,-0.01328,0.0058,-0.0415
7.888,0.01968,-0.06546,-0.03662,-0.0351,-0.06317,-0.05905,-0.00351,-0.00885,-0.01282,-0.01877,-0.00961,0.02289,-0.03159,-0.01389,0.00015,-0.0412
7.8885,0.01984,-0.05676,-0.04028,-0.0209,-0.03174,-0.05905,-0.01022,-0.00931,-0.01099,-0.01923,-0.00977,0.01663,-0.03021,-0.01373,-0.00504,-0.04089
7.889,0.02136,-0.04684,-0.05264,-0.00793,0.03128,-0.06241,-0.01663,-0.0087,-0.01068,-0.0177,-0.01068,0.01007,-0.03036,-0.01251,-0.00504,-0.04059
7.8895,0.02258,-0.03098,-0.06866,-0.00916,0.09201,-0.06531,-0.02151,-0.00534,-0.0119,-0.01526,-0.01053,0.00305,-0.03098,-0.01175,-0.00092,-0.04013
7.89,0.02243,-0.01282,-0.07736,-0.02319,0.10391,-0.06409,-0.02243,-0.00229,-0.01358,-0.01266,-0.01083,-0.00549,-0.03143,-0.01251,0.00259,-0.03998
7.8905,0.02106,-0.00076,-0.07248,-0.04242,0.04868,-0.0528,-0.02197,-0.00351,-0.01633,-0.01022,-0.01221,-0.01755,-0.03128,-0.01373,0.00244,-0.03998
7.891,0.0177,-0.00214,-0.05844,-0.05798,-0.0386,-0.03281,-0.02289,-0.00534,-0.01907,-0.01083,-0.01282,-0.02853,-0.03143,-0.01343,0.00397,-0.04028
7.8915,0.01221,-0.0145,-0.04807,-0.06882,-0.13062,-0.01495,-0.02579,-0.00626,-0.01923,-0.01205,-0.01297,-0.02914,-0.03143,-0.01266,0.01007,-0.04028
7.892,0.00595,-0.02625,-0.03723,-0.07813,-0.22141,-0.01831,-0.02899,-0.00763,-0.01755,-0.01236,-0.01511,-0.01678,-0.03128,-0.01205,0.02213,-0.03998
7.8925,-0.00015,-0.0322,-0.03189,-0.08377,-0.29892,-0.03937,-0.03098,-0.01251,-0.01236,-0.01282,-0.01694,-0.00168,-0.03235,-0.01205,0.0296,-0.03983
7.893,-0.00259,-0.03677,-0.02396,-0.08194,-0.32791,-0.06165,-0.0296,-0.01633,-0.00259,-0.01526,-0.01846,0.00412,-0.03372,-0.01328,0.02563,-0.03983
7.8935,0.00107,-0.04303,-0.01923,-0.07034,-0.28442,-0.06393,-0.0267,-0.01358,0.00687,-0.01678,-0.01938,0.00153,-0.03403,-0.01129,0.01648,-0.04074
7.894,0.01175,-0.05234,-0.02304,-0.05295,-0.19531,-0.04608,-0.02441,-0.00397,0.0119,-0.01907,-0.01923,0.00275,-0.03296,-0.01114,0.01251,-0.04166
7.8945,0.02319,-0.05402,-0.03723,-0.0383,-0.11261,-0.02457,-0.02365,0.0061,0.0087,-0.01968,-0.01892,0.01419,-0.03067,-0.01129,0.01373,-0.04166
7.895,0.0267,-0.04715,-0.05371,-0.02975,-0.06317,-0.02502,-0.0238,0.01236,0.00092,-0.01984,-0.01617,0.03189,-0.02945,-0.01175,0.01038,-0.03922
7.8955,0.02045,-0.03937,-0.06531,-0.02609,-0.0412,-0.04837,-0.0235,0.0177,-0.0058,-0.0209,-0.01312,0.04837,-0.02945,-0.0119,0.01068,-0.03784
7.896,0.00839,-0.03616,-0.07034,-0.02716,-0.02701,-0.06516,-0.02792,0.02136,-0.00824,-0.02197,-0.01144,0.05386,-0.03036,-0.01221,0.00809,-0.03754
7.8965,-0.0029,-0.03525,-0.09033,-0.03143,-0.01266,-0.04776,-0.04074,0.02014,-0.00534,-0.01968,-0.01129,0.03281,-0.03082,-0.01312,0.009,-0.03876
7.897,-0.01404,-0.03296,-0.12711,-0.03464,-0.00107,-0.01175,-0.05875,0.01556,-0.00198,-0.01923,-0.01068,-0.01709,-0.03113,-0.01404,0.00656,-0.03891
7.8975,-0.02472,-0.02853,-0.17578,-0.03006,0.00366,0.0058,-0.07584,0.01205,-0.00214,-0.02014,-0.01022,-0.06607,-0.03113,-0.01343,0.00656,-0.03815
7.898,-0.03494,-0.02594,-0.19669,-0.01923,0.0029,-0.01328,-0.08942,0.01312,-0.00565,-0.0209,-0.01144,-0.07904,-0.03113,-0.01251,0.00763,-0.03891
7.8985,-0.03998,-0.03021,-0.15472,-0.00839,0.00031,-0.0444,-0.0972,0.0148,-0.00885,-0.02045,-0.01389,-0.05341,-0.03128,-0.01221,0.01038,-0.04089
7.899,-0.04059,-0.03845,-0.06805,-0.00427,-0.00198,-0.05829,-0.09888,0.01328,-0.01007,-0.02045,-0.01343,-0.01419,-0.03296,-0.01266,0.009,-0.04333
7.8995,-0.0386,-0.04364,0.02655,-0.00153,-0.00153,-0.05112,-0.08804,0.0116,-0.01175,-0.02106,-0.01053,0.02853,-0.03265,-0.01114,0.00565,-0.0444
7.9,-0.03876,-0.04349,0.10559,0.00076,0.00061,-0.04471,-0.06271,0.0148,-0.01434,-0.02045,-0.00626,0.07675,-0.03204,-0.00732,0.01099,-0.0441
7.9005,-0.04257,-0.04166,0.16403,0.00381,0.00534,-0.04944,-0.03586,0.02228,-0.01617,-0.01984,-0.00458,0.10757,-0.03342,-0.00092,0.01022,-0.04364
7.901,-0.04257,-0.04074,0.18829,0.00671,0.01694,-0.0563,-0.02182,0.03067,-0.01541,-0.01846,-0.00656,0.08377,-0.03555,0.00183,0.01053,-0.04501
7.9015,-0.03632,-0.03937,0.1738,0.01053,0.03922,-0.05722,-0.01236,0.03616,-0.01755,-0.01816,-0.00946,0.00015,-0.03754,-0.00061,0.00793,-0.04654
7.902,-0.02792,-0.0383,0.12924,0.0177,0.06424,-0.05295,0.01434,0.03967,-0.02609,-0.01968,-0.01099,-0.08072,-0.03708,-0.00778,0.00656,-0.04761
7.9025,-0.02243,-0.03723,0.07645,0.02594,0.08209,-0.04684,0.04944,0.0415,-0.04135,-0.0206,-0.01099,-0.07767,-0.03616,-0.01495,0.0087,-0.04623
7.903,-0.01999,-0.0386,0.0264,0.03311,0.09201,-0.04135,0.05478,0.04257,-0.0589,-0.02106,-0.01022,0.00458,-0.03677,-0.01663,0.01221,-0.04303
7.9035,-0.01694,-0.03967,-0.0145,0.04242,0.10803,-0.03677,0.0174,0.04562,-0.07645,-0.02243,-0.00977,0.06256,-0.03769,-0.01556,0.01038,-0.04074
7.904,-0.01114,-0.04013,-0.03159,0.05569,0.13947,-0.03204,-0.02274,0.05157,-0.08957,-0.02487,-0.00977,0.02777,-0.0386,-0.01465,0.01114,-0.04044
7.9045,-0.00397,-0.04181,-0.03189,0.06805,0.1651,-0.03189,-0.01877,0.05981,-0.09094,-0.02808,-0.0119,-0.03159,-0.03845,-0.0148,0.00824,-0.04044
7.905,0.00122,-0.04196,-0.02594,0.07156,0.14481,-0.03693,0.02884,0.06165,-0.07629,-0.03143,-0.01312,-0.01175,-0.03708,-0.01358,0.00839,-0.03967
7.9055,0.0029,-0.04578,-0.02548,0.06363,0.06668,-0.04639,0.07553,0.05127,-0.05341,-0.03159,-0.01404,0.08133,-0.0351,-0.01251,0.00839,-0.03952
7.906,0.00137,-0.04684,-0.03799,0.05203,-0.03021,-0.05676,0.07904,0.02869,-0.03418,-0.02975,-0.01373,0.1561,-0.03372,-0.01328,0.0087,-0.03967
7.9065,-0.00458,-0.04669,-0.05402,0.04974,-0.09979,-0.06516,0.0502,0.00443,-0.02777,-0.02777,-0.01312,0.15915,-0.03265,-0.01328,0.00748,-0.04074
7.907,-0.01175,-0.047,-0.06729,0.05707,-0.14709,-0.06912,0.02838,-0.01114,-0.02914,-0.02747,-0.01205,0.11398,-0.03235,-0.01465,0.00748,-0.04257
7.9075,-0.01663,-0.04517,-0.07858,0.05402,-0.19318,-0.06897,0.02533,-0.01663,-0.03098,-0.02792,-0.01251,0.06699,-0.03143,-0.01404,0.00641,-0.04517
7.908,-0.01801,-0.04288,-0.08438,0.02838,-0.22751,-0.06683,0.02167,-0.01755,-0.02838,-0.02747,-0.01343,0.04181,-0.02899,-0.01389,0.00763,-0.04639
7.9085,-0.01755,-0.04089,-0.08301,-0.0058,-0.21011,-0.06683,0.00702,-0.01923,-0.02396,-0.02716,-0.01373,0.03052,-0.02655,-0.0145,0.00671,-0.04623
7.909,-0.01755,-0.03967,-0.07034,-0.02853,-0.12695,-0.0705,-0.0087,-0.02029,-0.02014,-0.02594,-0.01495,0.01617,-0.02548,-0.01556,0.00702,-0.04532
7.9095,-0.01999,-0.03952,-0.05386,-0.03128,-0.01404,-0.07187,-0.01556,-0.01785,-0.01724,-0.02197,-0.01587,-0.00458,-0.02563,-0.01434,0.00565,-0.04501
7.91,-0.02686,-0.03876,-0.04288,-0.02609,0.07401,-0.0705,-0.01862,-0.01526,-0.01282,-0.01801,-0.01526,-0.02274,-0.02625,-0.01511,0.0032,-0.04486
7.9105,-0.03708,-0.03876,-0.04562,-0.02243,0.11185,-0.06561,-0.02289,-0.01389,-0.00916,-0.01465,-0.01511,-0.03036,-0.0267,-0.01465,0.00595,-0.04608
7.911,-0.04623,-0.03998,-0.05707,-0.02197,0.10574,-0.06027,-0.02594,-0.01282,-0.00702,-0.0148,-0.0145,-0.03387,-0.02701,-0.01511,0.00946,-0.04776
7.9115,-0.04898,-0.04288,-0.07431,-0.03021,0.07736,-0.05508,-0.02426,-0.01251,-0.00549,-0.01541,-0.01328,-0.0386,-0.02899,-0.01434,0.00931,-0.04944
7.912,-0.04639,-0.04745,-0.0824,-0.04974,0.03372,-0.05188,-0.02274,-0.01495,-0.00519,-0.01724,-0.01144,-0.04181,-0.03113,-0.01343,0.00824,-0.04883
7.9125,-0.04364,-0.05554,-0.07629,-0.07645,-0.04105,-0.05249,-0.02289,-0.0206,-0.0058,-0.01862,-0.00916,-0.03677,-0.03235,-0.01419,0.00641,-0.04807
7.913,-0.04623,-0.06638,-0.06073,-0.10101,-0.14755,-0.05554,-0.02502,-0.02823,-0.0061,-0.01984,-0.00732,-0.03098,-0.03235,-0.01572,0.00809,-0.04822
7.9135,-0.05386,-0.07813,-0.04669,-0.12146,-0.24017,-0.05783,-0.02777,-0.03723,-0.00687,-0.02045,-0.00702,-0.03525,-0.03235,-0.01755,0.01068,-0.04837
7.914,-0.06165,-0.08331,-0.03586,-0.13062,-0.25757,-0.05539,-0.02914,-0.04639,-0.00732,-0.01984,-0.00717,-0.0528,-0.03265,-0.01877,0.01007,-0.04684
7.9145,-0.06226,-0.08804,-0.03159,-0.1152,-0.20218,-0.04852,-0.02914,-0.04944,-0.00732,-0.0206,-0.00717,-0.0705,-0.03403,-0.01953,0.00809,-0.04578
7.915,-0.05463,-0.09705,-0.03433,-0.07538,-0.1297,-0.03967,-0.02869,-0.04593,-0.00748,-0.02075,-0.00504,-0.08194,-0.03555,-0.01999,0.00885,-0.04517
7.9155,-0.04272,-0.10971,-0.04211,-0.03555,-0.07492,-0.03281,-0.02945,-0.04303,-0.00748,-0.0209,-0.0032,-0.09445,-0.03693,-0.0206,0.00732,-0.04593
7.916,-0.03494,-0.11292,-0.05341,-0.0177,-0.02991,-0.03143,-0.03433,-0.04776,-0.00931,-0.01999,-0.0032,-0.11459,-0.03876,-0.02075,0.00824,-0.04532
7.9165,-0.03174,-0.10239,-0.05829,-0.02045,0.01022,-0.03647,-0.03815,-0.05585,-0.01175,-0.01877,-0.00443,-0.14114,-0.04181,-0.02213,0.00671,-0.04318
7.917,-0.03128,-0.08347,-0.04791,-0.02472,0.03494,-0.04486,-0.03845,-0.05493,-0.01297,-0.0177,-0.00534,-0.16846,-0.04333,-0.02411,0.0061,-0.04211
7.9175,-0.02792,-0.06363,-0.03036,-0.0206,0.03296,-0.04883,-0.03632,-0.04395,-0.01282,-0.01678,-0.00549,-0.18951,-0.04364,-0.02563,0.00839,-0.04318
7.918,-0.02304,-0.04517,-0.01236,-0.01572,0.01938,-0.04532,-0.03418,-0.0325,-0.01282,-0.01663,-0.00656,-0.18982,-0.04257,-0.02655,0.00977,-0.04456
7.9185,-0.01892,-0.02777,-0.00473,-0.01526,0.02121,-0.03296,-0.03342,-0.02716,-0.01236,-0.01785,-0.00824,-0.15579,-0.04135,-0.02716,0.00916,-0.04425
7.919,-0.0177,-0.01221,-0.00458,-0.01648,0.04715,-0.02213,-0.03494,-0.02396,-0.01251,-0.01892,-0.00977,-0.08087,-0.03983,-0.02625,0.00916,-0.04364
7.9195,-0.02274,0.00076,-0.00671,-0.01617,0.06699,-0.01709,-0.03815,-0.01953,-0.0116,-0.02045,-0.00946,0.01587,-0.03769,-0.02502,0.00885,-0.04456
7.92,-0.03662,0.01175,-0.00687,-0.01434,0.0383,-0.01114,-0.03906,-0.01404,-0.01099,-0.01953,-0.00824,0.08972,-0.03662,-0.0235,0.00702,-0.04471
7.9205,-0.05859,0.02228,-0.01282,-0.01144,-0.03876,-0.00366,-0.03143,-0.00977,-0.01038,-0.0206,-0.00778,0.11002,-0.03784,-0.02289,0.00916,-0.04501
7.921,-0.08377,0.03006,-0.01968,-0.00656,-0.12421,-0.00931,-0.0177,-0.00519,-0.01129,-0.02167,-0.00778,0.10269,-0.03937,-0.02441,0.00824,-0.04623
7.9215,-0.10452,0.03204,-0.02975,-0.00092,-0.19196,-0.0325,-0.00656,0.00168,-0.01221,-0.02121,-0.00763,0.11749,-0.03769,-0.02518,0.00427,-0.04837
7.922,-0.11688,0.02899,-0.03876,0.00534,-0.2211,-0.056,-0.00305,0.00916,-0.01328,-0.01923,-0.00732,0.15442,-0.03387,-0.02441,0.00626,-0.05127
7.9225,-0.12268,0.02472,-0.04593,0.01205,-0.19913,-0.0618,-0.00366,0.01526,-0.01419,-0.01678,-0.00961,0.16983,-0.03143,-0.02243,0.0058,-0.05234
7.923,-0.12589,0.02258,-0.04791,0.01755,-0.13855,-0.05356,-0.0058,0.01648,-0.01511,-0.01633,-0.01236,0.14206,-0.03067,-0.0206,0.0058,-0.05203
7.9235,-0.13,0.01678,-0.04883,0.01984,-0.08896,-0.04684,-0.00992,0.01587,-0.01526,-0.01663,-0.01419,0.08911,-0.02991,-0.01892,0.00427,-0.05112
7.924,-0.13458,0.0061,-0.0499,0.01816,-0.07858,-0.05112,-0.01663,0.01648,-0.01511,-0.01663,-0.01389,0.03937,-0.02747,-0.01877,0.00259,-0.05035
7.9245,-0.13718,-0.00824,-0.05173,0.01495,-0.08026,-0.05859,-0.02319,0.01968,-0.01678,-0.01648,-0.01343,0.00885,-0.02548,-0.01831,0.0032,-0.04974
7.925,-0.13519,-0.02197,-0.0502,0.01297,-0.05966,-0.06317,-0.02686,0.02274,-0.01831,-0.01755,-0.01511,-0.00061,-0.02365,-0.01907,0.00534,-0.04822
7.9255,-0.12863,-0.03265,-0.05005,0.01343,-0.02243,-0.06058,-0.02686,0.02243,-0.01892,-0.0177,-0.01572,0.00397,-0.02213,-0.01862,0.00732,-0.04791
7.926,-0.11871,-0.0383,-0.04929,0.01663,0.00015,-0.05676,-0.02655,0.01923,-0.01694,-0.01709,-0.01511,0.0058,-0.02182,-0.01862,0.00748,-0.04593
7.9265,-0.10849,-0.04105,-0.05035,0.0206,-0.00427,-0.05402,-0.02792,0.01495,-0.01495,-0.01572,-0.01602,-0.00519,-0.02319,-0.0209,0.00916,-0.04349
7.927,-0.10178,-0.04684,-0.05127,0.02304,-0.01846,-0.05249,-0.03006,0.0087,-0.01526,-0.01617,-0.01709,-0.01038,-0.02594,-0.02258,0.0087,-0.0415
7.9275,-0.0972,-0.06378,-0.05264,0.02579,-0.0267,-0.05219,-0.03021,0.00595,-0.01648,-0.01724,-0.01816,0.0264,-0.02991,-0.02319,0.00885,-0.04242
7.928,-0.09125,-0.08835,-0.05341,0.0267,-0.02548,-0.05203,-0.0238,0.0116,-0.01709,-0.01801,-0.0174,0.09476,-0.03296,-0.02289,0.00885,-0.0441
7.9285,-0.08652,-0.10498,-0.05157,0.0238,-0.02441,-0.05249,-0.01312,0.02518,-0.0177,-0.0177,-0.01602,0.11154,-0.03403,-0.02289,0.00854,-0.0441
7.929,-0.08636,-0.10269,-0.0473,0.01709,-0.02792,-0.05661,-0.00534,0.0386,-0.01678,-0.0174,-0.01648,0.00137,-0.03189,-0.02274,0.00656,-0.04272
7.9295,-0.09415,-0.08469,-0.03952,0.01328,-0.02686,-0.0621,-0.00381,0.04333,-0.01617,-0.01648,-0.01678,-0.20035,-0.02792,-0.02441,0.00458,-0.04166
7.93,-0.10117,-0.06363,-0.03326,0.01755,-0.01953,-0.06699,-0.00671,0.03616,-0.01495,-0.01633,-0.01617,-0.35568,-0.02457,-0.02808,0.00488,-0.04318
7.9305,-0.09995,-0.04578,-0.0322,0.02472,-0.00977,-0.06973,-0.01389,0.02335,-0.0148,-0.01511,-0.01419,-0.36285,-0.02502,-0.03189,0.00534,-0.04593
7.931,-0.09079,-0.03204,-0.03433,0.02533,0.00229,-0.07217,-0.02853,0.01144,-0.01541,-0.01678,-0.01297,-0.24033,-0.02701,-0.03311,0.0061,-0.047
7.9315,-0.08133,-0.0235,-0.03601,0.01648,0.02457,-0.0737,-0.05478,0.00381,-0.01587,-0.01862,-0.01282,-0.07385,-0.02762,-0.03113,0.00641,-0.04593
7.932,-0.07385,-0.0206,-0.03586,0.00229,0.08041,-0.07034,-0.08591,-0.00122,-0.01587,-0.01877,-0.01343,0.07111,-0.02686,-0.03006,0.00397,-0.04379
7.9325,-0.06622,-0.01724,-0.03372,-0.01282,0.15961,-0.0621,-0.11337,-0.00626,-0.01572,-0.01724,-0.01495,0.16953,-0.02777,-0.03021,0.00214,-0.04211
7.933,-0.05692,-0.01434,-0.03052,-0.02441,0.22232,-0.05264,-0.12985,-0.01205,-0.01389,-0.01587,-0.01572,0.21362,-0.02914,-0.0293,0.0029,-0.04089
7.9335,-0.0502,-0.01236,-0.02823,-0.02823,0.22781,-0.04883,-0.13214,-0.01648,-0.01373,-0.01526,-0.01587,0.19897,-0.03098,-0.02655,0.00504,-0.04013
7.934,-0.04898,-0.01511,-0.0238,-0.02884,0.15991,-0.04959,-0.11322,-0.01862,-0.01343,-0.01587,-0.01556,0.13474,-0.0325,-0.02609,0.00885,-0.04059
7.9345,-0.05051,-0.01953,-0.02045,-0.03082,0.05585,-0.04913,-0.0618,-0.01953,-0.01495,-0.01755,-0.01541,0.05615,-0.03693,-0.02731,0.00885,-0.04074
7.935,-0.04669,-0.02197,-0.01801,-0.03769,-0.05722,-0.04501,0.02289,-0.01846,-0.01663,-0.01923,-0.01633,0.01007,-0.04379,-0.02792,0.00702,-0.0412
7.9355,-0.03372,-0.02457,-0.01892,-0.0441,-0.17731,-0.04501,0.10788,-0.01831,-0.01694,-0.02045,-0.01572,0.00168,-0.04822,-0.02655,0.00763,-0.0415
7.936,-0.01816,-0.02975,-0.02243,-0.04425,-0.30685,-0.05417,0.14603,-0.01923,-0.01724,-0.02075,-0.01572,0.0032,-0.04745,-0.02655,0.01099,-0.04135
7.9365,-0.00443,-0.03937,-0.02716,-0.04288,-0.39612,-0.06958,0.12283,-0.01877,-0.01633,-0.0209,-0.01648,-0.00153,-0.0444,-0.02869,0.01617,-0.04059
7.937,0.00534,-0.05417,-0.03204,-0.04318,-0.36789,-0.07782,0.06912,-0.01419,-0.01465,-0.01984,-0.01709,0.00137,-0.04089,-0.03036,0.01831,-0.03952
7.9375,0.01175,-0.07065,-0.03326,-0.04303,-0.22003,-0.0737,0.02258,-0.00488,-0.0148,-0.01968,-0.01694,0.02243,-0.03799,-0.0293,0.01419,-0.03952
7.938,0.01648,-0.08514,-0.03052,-0.03204,-0.05341,-0.06378,0.00031,0.00336,-0.01526,-0.01892,-0.01785,0.04257,-0.03555,-0.0264,0.01022,-0.03998
7.9385,0.02151,-0.09277,-0.02686,-0.00732,0.03067,-0.05844,-0.00854,0.00641,-0.01648,-0.01892,-0.01862,0.03113,-0.03448,-0.02487,0.01053,-0.04059
7.939,0.02838,-0.09338,-0.02579,0.02029,0.02792,-0.05936,-0.01495,0.00168,-0.01526,-0.01846,-0.01816,-0.0087,-0.0322,-0.02426,0.01099,-0.03983
7.9395,0.03662,-0.09079,-0.0267,0.03311,0.00549,-0.05905,-0.01114,-0.00717,-0.01312,-0.01694,-0.01663,-0.04303,-0.0293,-0.02289,0.0116,-0.0383
7.94,0.04562,-0.08911,-0.0296,0.02502,0.00015,-0.05569,0.00885,-0.01419,-0.01144,-0.01526,-0.01404,-0.05035,-0.02884,-0.02213,0.00961,-0.03754
7.9405,0.05341,-0.08896,-0.0325,0.00656,0.00732,-0.05234,0.02792,-0.01541,-0.01022,-0.01328,-0.01389,-0.03891,-0.0296,-0.02258,0.00565,-0.03952
7.941,0.05951,-0.08484,-0.03326,-0.00931,0.0119,-0.04959,0.03067,-0.01114,-0.01038,-0.0119,-0.01434,-0.02594,-0.02991,-0.02274,0.00397,-0.04089
7.9415,0.06668,-0.0708,-0.03464,-0.01831,0.00519,-0.047,0.0322,-0.00122,-0.01083,-0.01099,-0.01465,-0.01953,-0.02899,-0.02258,0.00214,-0.04013
7.942,0.07584,-0.05051,-0.03433,-0.02228,-0.00763,-0.0444,0.03906,0.00778,-0.01083,-0.01114,-0.01495,-0.0238,-0.02747,-0.02106,0.00153,-0.03906
7.9425,0.08804,-0.03143,-0.03387,-0.02319,-0.01816,-0.04242,0.03082,0.00992,-0.01053,-0.01236,-0.01511,-0.03174,-0.02625,-0.01984,0.0029,-0.03876
7.943,0.09903,-0.01999,-0.03418,-0.01755,-0.02914,-0.04318,-0.00168,0.00458,-0.00977,-0.01556,-0.0145,-0.02914,-0.02625,-0.02029,0.00519,-0.04013
7.9435,0.10468,-0.01251,-0.03693,-0.00793,-0.03525,-0.04227,-0.0293,-0.00061,-0.01007,-0.01862,-0.01343,-0.01129,-0.02777,-0.01984,0.00763,-0.04028
7.944,0.10483,-0.00427,-0.04333,-0.00351,-0.03754,-0.03967,-0.02533,0.00076,-0.00992,-0.0206,-0.01312,0.00275,-0.02975,-0.01907,0.00885,-0.04044
7.9445,0.10162,0.00504,-0.06622,-0.00778,-0.02533,-0.03616,-0.009,0.00702,-0.00854,-0.02136,-0.01282,-0.00229,-0.03082,-0.01678,0.0087,-0.03998
7.945,0.09811,0.01236,-0.11246,-0.01251,0.00763,-0.03403,-0.01648,0.01114,-0.00854,-0.02045,-0.01328,-0.02243,-0.03159,-0.01633,0.00778,-0.03922
7.9455,0.09476,0.01465,-0.17105,-0.01007,0.05585,-0.03342,-0.0386,0.01022,-0.01007,-0.01801,-0.01389,-0.04715,-0.03204,-0.01816,0.00641,-0.03952
7.946,0.09018,0.00977,-0.19836,-0.0029,0.1001,-0.03387,-0.0206,0.0032,-0.01221,-0.0174,-0.0145,-0.07904,-0.03159,-0.02045,0.00504,-0.04044
7.9465,0.08606,-0.00336,-0.16785,-0.00565,0.11154,-0.03418,0.04822,-0.00824,-0.01511,-0.01755,-0.01602,-0.1207,-0.03082,-0.01984,0.00519,-0.04318
7.947,0.08301,-0.0235,-0.09262,-0.02258,0.07797,-0.03677,0.10254,-0.02258,-0.01495,-0.01923,-0.01633,-0.15045,-0.02991,-0.01953,0.0058,-0.04486
7.9475,0.08118,-0.04349,-0.00702,-0.04333,0.00809,-0.04272,0.08698,-0.03586,-0.01328,-0.02075,-0.01541,-0.13733,-0.03159,-0.02075,0.00336,-0.0441
7.948,0.07797,-0.05341,0.06821,-0.0563,-0.07431,-0.05219,0.03143,-0.04303,-0.01129,-0.0209,-0.01266,-0.08469,-0.03632,-0.02228,0.00183,-0.04227
7.9485,0.07263,-0.05402,0.11658,-0.05997,-0.14023,-0.06012,-0.00443,-0.04303,-0.01129,-0.02151,-0.01144,-0.03128,-0.04013,-0.02182,0.00153,-0.0412
7.949,0.06821,-0.05066,0.12955,-0.05264,-0.16647,-0.06226,-0.01205,-0.03876,-0.01297,-0.02167,-0.01083,-0.00717,-0.03952,-0.02029,0.0029,-0.04089
7.9495,0.06836,-0.0502,0.10651,-0.03372,-0.14664,-0.06363,-0.02441,-0.03403,-0.01419,-0.02014,-0.0116,-0.00397,-0.0354,-0.02045,0.00381,-0.04044
7.95,0.07385,-0.05096,0.06989,-0.00809,-0.09476,-0.06592,-0.05646,-0.02945,-0.01358,-0.01755,-0.01114,0.00763,-0.03204,-0.02136,0.00595,-0.03937
7.9505,0.08118,-0.04974,0.0412,0.01328,-0.03143,-0.06607,-0.08774,-0.0264,-0.01205,-0.01617,-0.0116,0.03326,-0.03204,-0.02151,0.0061,-0.03906
7.951,0.08789,-0.04639,0.03006,0.02686,0.02335,-0.06149,-0.0946,-0.02243,-0.01099,-0.01801,-0.01221,0.0531,-0.0325,-0.0209,0.00656,-0.03845
7.9515,0.09232,-0.04364,0.02487,0.03433,0.04776,-0.0528,-0.07202,-0.01755,-0.01129,-0.02014,-0.01251,0.05707,-0.03174,-0.02029,0.00763,-0.03937
7.952,0.09399,-0.04059,0.01755,0.03815,0.03616,-0.04395,-0.03555,-0.01144,-0.01129,-0.02151,-0.01205,0.06531,-0.0296,-0.0209,0.00565,-0.04013
7.9525,0.09354,-0.03845,0.00351,0.03326,0.00137,-0.03983,-0.01511,-0.00488,-0.01266,-0.02243,-0.01175,0.1059,-0.02823,-0.02045,0.00671,-0.03967
7.953,0.08835,-0.03876,-0.01953,0.02121,-0.03799,-0.03922,-0.02655,0.00076,-0.01358,-0.02243,-0.01144,0.17273,-0.0293,-0.01999,0.00748,-0.03754
7.9535,0.07919,-0.04211,-0.0444,0.00992,-0.06775,-0.03983,-0.04776,0.00397,-0.01343,-0.02228,-0.01144,0.21072,-0.03036,-0.0209,0.00809,-0.03754
7.954,0.06897,-0.04715,-0.05951,0.00336,-0.07141,-0.0415,-0.03632,0.00336,-0.01175,-0.02182,-0.01221,0.18021,-0.0293,-0.02213,0.00732,-0.03906
7.9545,0.06332,-0.05157,-0.06226,-0.00122,-0.03723,-0.04242,0.0116,0.00076,-0.01144,-0.02136,-0.0145,0.12192,-0.0267,-0.02167,0.00885,-0.04044
7.955,0.06271,-0.05493,-0.05463,-0.00809,0.01022,-0.04333,0.03845,-0.00137,-0.01205,-0.02121,-0.01572,0.0972,-0.02548,-0.02029,0.01083,-0.0415
7.9555,0.06119,-0.05371,-0.04318,-0.01999,0.03082,-0.04532,-0.009,-0.00366,-0.01389,-0.01984,-0.01511,0.07965,-0.02655,-0.01938,0.01099,-0.04242
7.956,0.05493,-0.04898,-0.03555,-0.03693,0.01511,-0.04898,-0.09567,-0.00748,-0.01465,-0.01892,-0.01328,-0.00031,-0.02792,-0.01923,0.01007,-0.04196
7.9565,0.0473,-0.0441,-0.03632,-0.0528,-0.00916,-0.05127,-0.12573,-0.01251,-0.01343,-0.01831,-0.0116,-0.1207,-0.02853,-0.01892,0.00992,-0.04135
7.957,0.04028,-0.0412,-0.04166,-0.05936,-0.03052,-0.05341,-0.05829,-0.0174,-0.01175,-0.01892,-0.01083,-0.17197,-0.02701,-0.01877,0.01175,-0.03998
7.9575,0.0325,-0.03967,-0.04639,-0.05371,-0.06287,-0.05356,0.02411,-0.02213,-0.01175,-0.01938,-0.01175,-0.09521,-0.02548,-0.01923,0.01205,-0.03845
7.958,0.02228,-0.03891,-0.06378,-0.04379,-0.10895,-0.05432,0.02106,-0.02777,-0.01297,-0.01953,-0.01205,0.04501,-0.02502,-0.0206,0.01068,-0.03876
7.9585,0.01266,-0.04196,-0.10406,-0.03448,-0.13519,-0.05661,-0.04929,-0.03052,-0.0148,-0.01862,-0.01007,0.13504,-0.02609,-0.02167,0.00916,-0.03906
7.959,0.00488,-0.05081,-0.15091,-0.02563,-0.1207,-0.05753,-0.09613,-0.0267,-0.01587,-0.0174,-0.00839,0.12024,-0.02777,-0.02213,0.00702,-0.04089
7.9595,-0.00153,-0.05966,-0.17166,-0.01556,-0.08957,-0.05676,-0.08728,-0.01816,-0.01465,-0.01663,-0.00854,0.0383,-0.02884,-0.02151,0.00717,-0.04196
7.96,-0.00961,-0.05432,-0.15762,-0.00717,-0.0705,-0.05508,-0.06424,-0.00946,-0.01328,-0.01572,-0.01053,-0.04105,-0.03006,-0.02136,0.00656,-0.04288
7.9605,-0.01923,-0.03464,-0.12344,-0.00305,-0.05981,-0.05249,-0.04547,-0.00717,-0.01297,-0.01587,-0.01205,-0.08011,-0.0322,-0.02136,0.00687,-0.0444
7.961,-0.02258,-0.01328,-0.08392,-0.00031,-0.04654,-0.05127,-0.0032,-0.00763,-0.01312,-0.01663,-0.01251,-0.08499,-0.03464,-0.01923,0.00763,-0.04654
7.9615,-0.01923,-0.00015,-0.04288,0.00473,-0.03342,-0.05203,0.07584,-0.00595,-0.01373,-0.0174,-0.0119,-0.0705,-0.03586,-0.01709,0.00916,-0.04761
7.962,-0.01251,0.00366,-0.00275,0.00931,-0.02884,-0.05157,0.15274,-0.00153,-0.01373,-0.0174,-0.01114,-0.04196,-0.03418,-0.01678,0.01068,-0.04852
7.9625,-0.00687,0.0,0.02518,0.00916,-0.02167,-0.0499,0.17502,0.0032,-0.01404,-0.0174,-0.01144,-0.00244,-0.03296,-0.01862,0.01144,-0.047
7.963,-0.00366,-0.01099,0.03845,0.00427,-0.00977,-0.04684,0.13733,0.00595,-0.0148,-0.01831,-0.0116,0.03647,-0.03296,-0.02075,0.01266,-0.0444
7.9635,-0.00214,-0.02548,0.04059,-0.00214,0.01114,-0.04181,0.07309,0.00793,-0.01495,-0.02014,-0.01236,0.06088,-0.03525,-0.01968,0.01419,-0.04196
7.964,-0.00031,-0.04013,0.03586,-0.00732,0.02579,-0.03586,0.01495,0.01053,-0.01495,-0.02151,-0.01205,0.06088,-0.03784,-0.01526,0.0145,-0.04044
7.9645,0.00366,-0.05173,0.02502,-0.01038,0.0322,-0.02747,-0.02686,0.01221,-0.0148,-0.02121,-0.01175,0.03952,-0.03815,-0.00931,0.01404,-0.04013
7.965,0.00961,-0.06012,0.01297,-0.01282,0.02991,-0.01801,-0.05005,0.01022,-0.01526,-0.02014,-0.01297,0.01175,-0.03891,-0.00717,0.01434,-0.04105
7.9655,0.0148,-0.06332,0.00809,-0.01648,0.02106,-0.01144,-0.0528,0.00412,-0.01633,-0.01968,-0.01511,-0.00793,-0.04028,-0.0116,0.01236,-0.04242
7.966,0.01801,-0.06302,0.00946,-0.01831,0.00214,-0.00961,-0.04074,-0.00458,-0.01495,-0.01984,-0.01541,-0.01663,-0.04196,-0.01923,0.01038,-0.04395
7.9665,0.01862,-0.06302,0.01038,-0.01373,-0.03159,-0.01266,-0.02457,-0.01297,-0.0148,-0.01892,-0.0145,-0.01862,-0.04272,-0.02197,0.00687,-0.04379
7.967,0.01572,-0.06622,0.00427,-0.00412,-0.07324,-0.02075,-0.01389,-0.01694,-0.01541,-0.01999,-0.01282,-0.01877,-0.04181,-0.02029,0.00763,-0.04364
7.9675,0.01114,-0.06943,-0.00824,0.00153,-0.09979,-0.02945,-0.0174,-0.0174,-0.01633,-0.01877,-0.01358,-0.02197,-0.04135,-0.01648,0.0116,-0.04272
7.968,0.00793,-0.06821,-0.02426,-0.00259,-0.09109,-0.03418,-0.03922,-0.01343,-0.01617,-0.01938,-0.01389,-0.02991,-0.0412,-0.01709,0.01709,-0.04211
7.9685,0.00671,-0.05905,-0.0383,-0.01129,-0.05798,-0.0354,-0.07187,-0.01007,-0.01556,-0.01999,-0.01312,-0.03845,-0.04211,-0.01801,0.02029,-0.04181
7.969,0.00488,-0.04745,-0.04898,-0.01678,-0.03021,-0.03586,-0.09903,-0.0087,-0.01602,-0.01984,-0.01297,-0.04333,-0.04272,-0.01724,0.01968,-0.04395
7.9695,0.0029,-0.04089,-0.05402,-0.01389,-0.02167,-0.03693,-0.10025,-0.00961,-0.01648,-0.01831,-0.01343,-0.04547,-0.04196,-0.01678,0.01434,-0.04471
7.97,0.00198,-0.04105,-0.05356,-0.00702,-0.0293,-0.03571,-0.07477,-0.01068,-0.01648,-0.01785,-0.01373,-0.04547,-0.0386,-0.01862,0.00931,-0.0441
7.9705,0.0029,-0.04379,-0.05157,-0.00229,-0.04211,-0.03571,-0.05692,-0.00946,-0.01602,-0.01801,-0.01373,-0.04425,-0.03708,-0.01999,0.00198,-0.04379
7.971,0.00351,-0.04379,-0.05051,-0.00427,-0.05066,-0.03662,-0.07248,-0.00427,-0.01587,-0.01724,-0.01297,-0.03906,-0.03815,-0.02197,-0.00336,-0.04349
7.9715,0.00519,-0.04089,-0.05234,-0.00992,-0.04822,-0.04013,-0.08514,0.00061,-0.01678,-0.01755,-0.01251,-0.0264,-0.03998,-0.02167,-0.00351,-0.04395
7.972,0.00565,-0.03754,-0.05386,-0.01526,-0.03738,-0.04166,-0.04684,0.00351,-0.0177,-0.0177,-0.01068,-0.00763,-0.03922,-0.01938,0.00519,-0.04532
7.9725,0.00641,-0.0351,-0.05234,-0.01633,-0.02716,-0.04395,0.01495,0.00443,-0.01892,-0.01633,-0.01007,0.01236,-0.03815,-0.01678,0.01251,-0.04684
7.973,0.00534,-0.03479,-0.04974,-0.0148,-0.02411,-0.04501,0.03067,0.00351,-0.01968,-0.01648,-0.0116,0.0325,-0.03647,-0.01648,0.01053,-0.04761
7.9735,0.00229,-0.0354,-0.04562,-0.01114,-0.02533,-0.04669,-0.01129,-0.00015,-0.0206,-0.01801,-0.01434,0.05234,-0.03601,-0.01709,-0.00458,-0.04745
7.974,-0.00214,-0.03754,-0.04242,-0.00732,-0.0267,-0.04807,-0.05737,-0.00473,-0.02045,-0.01984,-0.01633,0.06104,-0.03342,-0.01816,-0.02716,-0.047
7.9745,-0.00641,-0.04013,-0.03937,-0.00214,-0.02609,-0.05081,-0.06943,-0.00992,-0.01968,-0.02121,-0.01541,0.04684,-0.02991,-0.01846,-0.04303,-0.04684
7.975,-0.00854,-0.04272,-0.03723,0.00717,-0.02472,-0.05417,-0.05096,-0.0119,-0.01877,-0.01923,-0.01343,0.01801,-0.02914,-0.01892,-0.04456,-0.04593
7.9755,-0.00961,-0.0441,-0.03448,0.01831,-0.02121,-0.05524,-0.02609,-0.00961,-0.01953,-0.01755,-0.01175,-0.00137,-0.02808,-0.01801,-0.03464,-0.04562
7.976,-0.00961,-0.04379,-0.03403,0.02457,-0.0058,-0.05417,-0.01221,-0.00656,-0.01968,-0.01724,-0.01099,-0.00229,-0.02533,-0.01572,-0.02457,-0.04501
7.9765,-0.01114,-0.04318,-0.03433,0.01816,0.02365,-0.05341,-0.00946,-0.00519,-0.01984,-0.01785,-0.01221,0.00778,-0.02121,-0.01556,-0.01404,-0.04593
7.977,-0.01633,-0.04349,-0.03662,0.0029,0.05341,-0.05402,-0.00931,-0.00656,-0.01953,-0.01907,-0.01389,0.02258,-0.02167,-0.01831,0.00687,-0.04593
7.9775,-0.02426,-0.0415,-0.0415,-0.01312,0.06226,-0.05402,-0.00778,-0.00824,-0.01984,-0.0177,-0.01419,0.03326,-0.02594,-0.02289,0.05447,-0.04669
7.978,-0.03265,-0.03769,-0.04639,-0.02563,0.04456,-0.05463,0.00137,-0.00824,-0.01953,-0.01633,-0.01328,0.0293,-0.03189,-0.02411,0.12283,-0.04608
7.9785,-0.03998,-0.03479,-0.05035,-0.03601,0.00534,-0.05692,0.02731,-0.00702,-0.01923,-0.01709,-0.01266,0.00961,-0.0354,-0.02106,0.1651,-0.04639
7.979,-0.04379,-0.03571,-0.05096,-0.0444,-0.04013,-0.06241,0.06699,-0.0061,-0.01938,-0.01831,-0.01343,0.00137,-0.03494,-0.01678,0.13718,-0.04303
7.9795,-0.0444,-0.04059,-0.05157,-0.04578,-0.08133,-0.0647,0.08331,-0.00565,-0.01999,-0.01755,-0.01495,0.03586,-0.03174,-0.01404,0.0589,-0.04044
7.98,-0.04013,-0.04639,-0.05142,-0.03967,-0.11292,-0.06088,0.05051,-0.0058,-0.01968,-0.01602,-0.01587,0.10117,-0.02792,-0.0148,-0.00061,-0.03845
7.9805,-0.03342,-0.05295,-0.0502,-0.03006,-0.12878,-0.05447,-0.00153,-0.00488,-0.01923,-0.01419,-0.01572,0.13489,-0.02563,-0.01572,-0.01282,-0.03891
7.981,-0.02701,-0.05875,-0.04532,-0.02289,-0.11963,-0.05005,-0.0145,-0.00305,-0.01846,-0.01556,-0.01724,0.08743,-0.02716,-0.01648,-0.00473,-0.04089
7.9815,-0.02182,-0.06165,-0.0383,-0.02136,-0.08224,-0.04837,0.02838,-0.00198,-0.0174,-0.01907,-0.01785,-0.0206,-0.02945,-0.01495,-0.00671,-0.04364
7.982,-0.01785,-0.05814,-0.03006,-0.0267,-0.03372,-0.04776,0.07874,-0.00198,-0.01801,-0.0206,-0.0174,-0.12436,-0.03052,-0.01434,-0.01694,-0.04547
7.9825,-0.01678,-0.05142,-0.0235,-0.03143,0.00122,-0.0473,0.08224,-0.00305,-0.01938,-0.01953,-0.01556,-0.17181,-0.02991,-0.01541,-0.02182,-0.04562
7.983,-0.01968,-0.04517,-0.01923,-0.02655,0.0148,-0.04913,0.04074,-0.00229,-0.01999,-0.01755,-0.01434,-0.16922,-0.02991,-0.01785,-0.02426,-0.04456
7.9835,-0.02457,-0.03937,-0.02106,-0.00748,0.01511,-0.05417,-0.00214,-0.00122,-0.01892,-0.01801,-0.01572,-0.16022,-0.03021,-0.01892,-0.02853,-0.04395
7.984,-0.02731,-0.03433,-0.0267,0.01266,0.01465,-0.05692,-0.0177,-0.00137,-0.0177,-0.01877,-0.01633,-0.18051,-0.02975,-0.01923,-0.03708,-0.04349
7.9845,-0.02853,-0.02869,-0.0322,0.01984,0.0238,-0.05692,-0.01511,-0.00427,-0.01633,-0.01938,-0.01495,-0.22247,-0.02869,-0.01892,-0.04181,-0.04349
7.985,-0.03265,-0.02487,-0.03174,0.01389,0.04242,-0.0528,-0.01541,-0.00687,-0.01831,-0.01907,-0.0145,-0.23132,-0.02884,-0.02014,-0.02533,-0.04349
7.9855,-0.04089,-0.02518,-0.02777,0.00671,0.05173,-0.05127,-0.02045,-0.0087,-0.01892,-0.01892,-0.01465,-0.13763,-0.0293,-0.02167,0.02609,-0.0415
7.986,-0.05051,-0.02914,-0.02411,0.00381,0.02289,-0.05371,-0.02548,-0.01068,-0.01999,-0.01984,-0.01572,0.06149,-0.03067,-0.02182,0.0946,-0.0386
7.9865,-0.05905,-0.03433,-0.0322,0.00275,-0.0444,-0.05814,-0.02884,-0.01358,-0.02106,-0.01999,-0.01663,0.26154,-0.03174,-0.0206,0.13275,-0.03876
7.987,-0.06317,-0.03799,-0.05081,-0.00061,-0.10834,-0.06042,-0.02884,-0.01373,-0.02136,-0.02014,-0.01831,0.34256,-0.03235,-0.02258,0.1149,-0.04166
7.9875,-0.06088,-0.03952,-0.07553,-0.00427,-0.12726,-0.05875,-0.02411,-0.00961,-0.02121,-0.02106,-0.01968,0.28122,-0.03143,-0.02319,0.06607,-0.04486
7.988,-0.05569,-0.04013,-0.09186,-0.00427,-0.11887,-0.056,-0.01877,-0.0029,-0.0209,-0.02045,-0.01755,0.14694,-0.03052,-0.02274,0.03067,-0.04608
7.9885,-0.0499,-0.03983,-0.08896,-0.00275,-0.12268,-0.05554,-0.01801,0.00092,-0.02045,-0.01877,-0.0145,0.03189,-0.03143,-0.02151,0.02441,-0.04684
7.989,-0.0441,-0.03967,-0.06882,-0.00137,-0.13931,-0.05722,-0.02106,0.00198,-0.01984,-0.01831,-0.01251,-0.01511,-0.03357,-0.02167,0.03067,-0.0473
7.9895,-0.03769,-0.04074,-0.04288,0.0,-0.12833,-0.05508,-0.02365,0.00137,-0.01984,-0.01984,-0.01297,0.00504,-0.03616,-0.02304,0.03204,-0.04791
7.99,-0.03204,-0.04486,-0.02151,0.00046,-0.08392,-0.04822,-0.02365,0.00076,-0.02075,-0.01938,-0.01511,0.05478,-0.03738,-0.02213,0.02304,-0.0441
7.9905,-0.02838,-0.05127,-0.00885,-0.00046,-0.04333,-0.04105,-0.0235,0.00031,-0.0209,-0.01831,-0.01617,0.08774,-0.03769,-0.01938,0.00519,-0.04196
7.991,-0.02563,-0.05585,-0.00015,-0.0032,-0.02731,-0.03723,-0.02457,-0.00275,-0.01938,-0.01587,-0.01556,0.08102,-0.03723,-0.01724,-0.01923,-0.04028
7.9915,-0.02243,-0.05463,0.00885,-0.00763,-0.02319,-0.03571,-0.02167,-0.009,-0.0177,-0.01602,-0.01434,0.04456,-0.0354,-0.0174,-0.04272,-0.04166
7.992,-0.01892,-0.0473,0.01343,-0.01617,-0.01266,-0.03296,-0.01541,-0.01434,-0.01801,-0.01831,-0.0145,0.00443,-0.03296,-0.01816,-0.04822,-0.04105
7.9925,-0.01511,-0.03983,0.00656,-0.02472,0.00107,-0.03159,-0.01266,-0.01465,-0.01938,-0.01923,-0.01541,-0.0177,-0.0325,-0.01923,-0.0267,-0.04318
7.993,-0.01251,-0.03723,-0.009,-0.0322,0.0061,-0.03326,-0.01694,-0.01144,-0.01923,-0.01923,-0.01617,-0.01984,-0.03296,-0.01907,0.00366,-0.04272
7.9935,-0.01175,-0.03906,-0.0238,-0.03876,-0.00458,-0.0383,-0.02731,-0.00854,-0.01816,-0.01663,-0.01755,-0.01175,-0.03357,-0.0177,0.02228,-0.04105
7.994,-0.0119,-0.0412,-0.03021,-0.04303,-0.0209,-0.04318,-0.04379,-0.01175,-0.01755,-0.01556,-0.01923,-0.00809,-0.03296,-0.0177,0.02441,-0.0386
7.9945,-0.01282,-0.03967,-0.03143,-0.04288,-0.02792,-0.04578,-0.05661,-0.01511,-0.01816,-0.01678,-0.01892,-0.01434,-0.0325,-0.01846,0.01892,-0.03967
7.995,-0.01312,-0.03677,-0.03082,-0.03281,-0.0296,-0.047,-0.05447,-0.01251,-0.02045,-0.01755,-0.01923,-0.02701,-0.03098,-0.01755,0.00748,-0.04089
7.9955,-0.01419,-0.03464,-0.0325,-0.01968,-0.0351,-0.04791,-0.03479,-0.00671,-0.02213,-0.01831,-0.01907,-0.04028,-0.03006,-0.01816,-0.01572,-0.04211
7.996,-0.01434,-0.03403,-0.03418,-0.00671,-0.04333,-0.04974,-0.01389,-0.00397,-0.02289,-0.01846,-0.01968,-0.05341,-0.03082,-0.01877,-0.0473,-0.04395
7.9965,-0.01389,-0.03387,-0.03571,0.00381,-0.04425,-0.0499,-0.00854,-0.00641,-0.02289,-0.01831,-0.01923,-0.06241,-0.03311,-0.01938,-0.06226,-0.04623
7.997,-0.01465,-0.03387,-0.03662,0.01358,-0.03571,-0.04959,-0.01373,-0.01083,-0.02213,-0.01801,-0.01846,-0.06104,-0.03479,-0.01953,-0.04471,-0.04684
7.9975,-0.01724,-0.03464,-0.03784,0.01572,-0.02731,-0.04929,-0.02029,-0.01068,-0.02045,-0.01816,-0.0177,-0.04059,-0.03433,-0.01923,-0.01129,-0.04532
7.998,-0.02045,-0.04013,-0.0415,0.00641,-0.0238,-0.04974,-0.02289,-0.00885,-0.01877,-0.01846,-0.0177,-0.00015,-0.03174,-0.01999,0.00824,-0.04211
7.9985,-0.02243,-0.05173,-0.04471,-0.00763,-0.02426,-0.0499,-0.02289,-0.0087,-0.01816,-0.01755,-0.01862,0.04562,-0.03006,-0.02075,0.00885,-0.03983
7.999,-0.02441,-0.06363,-0.04486,-0.01343,-0.02548,-0.05081,-0.02274,-0.009,-0.01862,-0.01892,-0.01877,0.06943,-0.02899,-0.02289,0.00275,-0.04028
7.9995,-0.02808,-0.06989,-0.04303,-0.0058,-0.02472,-0.05005,-0.02167,-0.00671,-0.01785,-0.0209,-0.01877,0.05508,-0.02884,-0.0238,0.0032,-0.04089
8.0,-0.0325,-0.06897,-0.04059,0.00443,-0.02365,-0.04852,-0.02258,-0.00229,-0.01678,-0.02121,-0.01831,0.02136,-0.02991,-0.02655,0.00565,-0.04257
8.0005,-0.03647,-0.06638,-0.03906,0.00565,-0.02228,-0.04761,-0.03647,0.00015,-0.01495,-0.0235,-0.01648,-0.0029,-0.03281,-0.02914,0.00626,-0.04089
8.001,-0.03983,-0.06683,-0.03723,-0.00031,-0.02167,-0.04745,-0.06805,-0.00229,-0.01328,-0.02182,-0.01526,-0.00519,-0.03586,-0.03067,0.0058,-0.0412
8.0015,-0.04211,-0.06622,-0.03387,-0.00381,-0.02274,-0.04715,-0.11154,-0.00504,-0.01205,-0.01938,-0.01556,0.0029,-0.03815,-0.03036,0.00488,-0.04318
8.002,-0.04242,-0.06042,-0.02914,0.0,-0.02411,-0.04669,-0.14755,-0.00595,-0.0119,-0.01862,-0.01801,0.00809,-0.04089,-0.02869,0.00458,-0.04272
8.0025,-0.04013,-0.05173,-0.02518,0.00549,-0.02487,-0.0473,-0.15686,-0.00427,-0.01343,-0.01938,-0.01968,0.00732,-0.04547,-0.02808,0.00305,-0.04333
8.003,-0.03632,-0.04761,-0.02365,0.00626,-0.02548,-0.04807,-0.13657,-0.00214,-0.01511,-0.01907,-0.01953,0.00198,-0.04761,-0.0264,0.00229,-0.04196
8.0035,-0.03052,-0.05402,-0.02411,0.00153,-0.02609,-0.04822,-0.10208,0.00107,-0.01678,-0.01755,-0.0174,-0.00534,-0.04562,-0.02335,0.00366,-0.0412
8.004,-0.02625,-0.07019,-0.02625,-0.00412,-0.02808,-0.04868,-0.07141,0.00336,-0.01602,-0.01648,-0.01633,-0.01251,-0.04272,-0.02106,0.00549,-0.04318
8.0045,-0.02365,-0.08362,-0.03082,-0.009,-0.0296,-0.0473,-0.04715,0.00336,-0.0148,-0.01892,-0.01663,-0.01709,-0.04196,-0.02014,0.00778,-0.04364
8.005,-0.02258,-0.08255,-0.03632,-0.01038,-0.03021,-0.04623,-0.00351,0.00259,-0.01419,-0.02136,-0.01678,-0.02182,-0.04242,-0.01968,0.01038,-0.04349
8.0055,-0.02411,-0.06927,-0.04013,-0.00809,-0.03006,-0.04532,0.08392,0.00198,-0.01495,-0.02243,-0.01434,-0.02823,-0.04166,-0.01801,0.01236,-0.04257
8.006,-0.02838,-0.05249,-0.03967,-0.00488,-0.03082,-0.04623,0.17365,0.00122,-0.01526,-0.02045,-0.01373,-0.03296,-0.03891,-0.01846,0.01465,-0.04135
8.0065,-0.03143,-0.03952,-0.03937,-0.0029,-0.03159,-0.04776,0.17166,-0.00015,-0.01541,-0.01877,-0.0145,-0.03479,-0.03464,-0.01999,0.01465,-0.04227
8.007,-0.03098,-0.02838,-0.04028,-0.00381,-0.03082,-0.04974,0.0618,-0.00107,-0.01495,-0.01633,-0.0145,-0.04501,-0.02914,-0.02075,0.01434,-0.04333
8.0075,-0.02426,-0.01633,-0.04242,-0.00793,-0.03006,-0.05127,-0.04044,-0.00183,-0.01495,-0.01587,-0.01328,-0.07294,-0.02487,-0.02014,0.01022,-0.04379
8.008,-0.01648,-0.00244,-0.0412,-0.01129,-0.02701,-0.05142,-0.02625,-0.00427,-0.0148,-0.01709,-0.01266,-0.10254,-0.0235,-0.01892,0.00107,-0.04211
8.0085,-0.01129,0.01144,-0.03769,-0.01251,-0.02457,-0.05112,0.06378,-0.00671,-0.01389,-0.01633,-0.01419,-0.10178,-0.02396,-0.01877,-0.01282,-0.04013
8.009,-0.01144,0.01968,-0.03372,-0.01205,-0.02518,-0.04929,0.09415,-0.00748,-0.01266,-0.01709,-0.01602,-0.06317,-0.02548,-0.01648,-0.02655,-0.03937
8.0095,-0.01251,0.0174,-0.03235,-0.01343,-0.02716,-0.04623,0.01419,-0.00565,-0.01358,-0.01724,-0.01709,-0.01175,-0.02731,-0.01511,-0.03265,-0.03906
8.01,-0.01144,0.00748,-0.03571,-0.0145,-0.02716,-0.04272,-0.09384,-0.00305,-0.01389,-0.01831,-0.0174,0.02579,-0.02991,-0.0119,-0.03662,-0.0386
8.0105,-0.00977,-0.00458,-0.04074,-0.01328,-0.02777,-0.04181,-0.13947,0.00015,-0.01328,-0.02045,-0.01572,0.04089,-0.0322,-0.01038,-0.03906,-0.03769
8.011,-0.00961,-0.01282,-0.04379,-0.01022,-0.02884,-0.04333,-0.11734,0.00641,-0.01099,-0.01953,-0.01572,0.03036,-0.03342,-0.0116,-0.03967,-0.03616
8.0115,-0.01099,-0.01816,-0.04227,-0.00763,-0.02487,-0.04471,-0.07828,0.0148,-0.01053,-0.01648,-0.01602,-0.00534,-0.03357,-0.01297,-0.02823,-0.03433
8.012,-0.0119,-0.02258,-0.03754,-0.00916,-0.00885,-0.04395,-0.04715,0.02182,-0.01282,-0.01511,-0.01511,-0.0441,-0.03342,-0.01617,0.00717,-0.03479
8.0125,-0.00916,-0.02686,-0.0351,-0.01175,0.02014,-0.04318,-0.00122,0.02579,-0.01495,-0.01602,-0.01297,-0.03876,-0.03479,-0.0174,0.05966,-0.0354
