time,RectFemL,VastusMedL,VastusLatL,TibAntL,HamMedL,HamLatL,GastroMedL,GastroLatL,RectFemR,VastusMedR,VastusLatR,TibAntR,HamMedR,HamLatR,GastroMedR,GastroLatR
9.57,0.01434,-0.03738,-0.02487,-0.10132,-0.03677,-0.12192,-0.00534,-0.00626,-0.00519,-0.01663,-0.04776,0.0145,-0.03738,-0.02441,0.11765,-0.10239
9.5705,0.01282,-0.03998,-0.0209,-0.0946,-0.00839,-0.11337,-0.01221,-0.00778,-0.03098,-0.03113,-0.04669,0.01495,-0.03677,-0.02548,0.09125,-0.02853
9.571,0.00992,-0.04303,-0.02335,-0.0769,-0.00046,-0.0943,-0.0116,-0.00961,-0.05219,-0.047,-0.04807,0.01114,-0.03662,-0.02319,0.03845,0.04272
9.5715,0.00748,-0.04654,-0.02563,-0.05554,0.02304,-0.07217,-0.01129,-0.01129,-0.06622,-0.05493,-0.04501,0.00473,-0.03571,-0.01968,0.01083,0.02945
9.572,0.00671,-0.04761,-0.02884,-0.05035,0.08362,-0.04471,-0.01144,-0.01022,-0.07751,-0.05386,-0.03876,0.00015,-0.03464,-0.01801,0.0087,-0.04837
9.5725,0.00824,-0.04745,-0.03067,-0.06912,0.14282,-0.01358,-0.009,-0.00687,-0.0882,-0.04837,-0.03433,0.00046,-0.03586,-0.01877,0.00839,-0.08148
9.573,0.01099,-0.04593,-0.03372,-0.09033,0.14313,0.01328,-0.00565,-0.0032,-0.09857,-0.03952,-0.03723,0.00504,-0.03922,-0.02151,-0.00137,-0.02731
9.5735,0.01053,-0.0441,-0.03845,-0.09262,0.07019,0.03189,-0.00443,-0.00153,-0.09995,-0.03143,-0.04425,0.00854,-0.04089,-0.02197,-0.01617,0.03464
9.574,0.00641,-0.04395,-0.04364,-0.07614,-0.02808,0.04242,-0.00565,-0.00259,-0.08698,-0.02411,-0.04852,0.00885,-0.03998,-0.02014,-0.0296,0.03891
9.5745,0.00153,-0.04379,-0.047,-0.04852,-0.08423,0.03983,-0.00595,-0.00275,-0.06073,-0.01465,-0.04456,0.00641,-0.03799,-0.01709,-0.03433,0.0238
9.575,-0.00198,-0.04547,-0.04715,-0.01282,-0.07965,0.00809,-0.00565,-0.00183,-0.03342,-0.00381,-0.0322,0.0061,-0.03571,-0.01434,-0.02335,0.05005
9.5755,-0.0061,-0.04745,-0.04181,0.02487,-0.05035,-0.04227,-0.00717,-0.00061,-0.0148,0.00427,-0.01678,0.00824,-0.03525,-0.01175,0.00092,0.10178
9.576,-0.00961,-0.04944,-0.03448,0.03525,-0.04288,-0.07462,-0.00931,0.00046,-0.00961,0.00717,-0.00397,0.01068,-0.0351,-0.01205,0.02014,0.12436
9.5765,-0.01297,-0.05066,-0.02518,-0.01831,-0.07004,-0.07721,-0.01144,0.00122,-0.01205,0.00931,0.00824,0.00854,-0.03464,-0.0148,0.0145,0.1059
9.577,-0.01526,-0.05524,-0.0177,-0.12085,-0.12268,-0.07614,-0.01251,0.00137,-0.01831,0.01282,0.02213,0.00214,-0.0351,-0.01801,-0.00717,0.07904
9.5775,-0.01816,-0.06317,-0.01251,-0.19455,-0.18295,-0.09689,-0.01297,0.00107,-0.02136,0.01633,0.03342,-0.00443,-0.0354,-0.01877,-0.02151,0.0679
9.578,-0.02228,-0.07187,-0.01251,-0.17853,-0.22308,-0.1178,-0.0148,-0.00168,-0.01907,0.01282,0.03311,-0.00687,-0.03555,-0.01755,-0.0177,0.07095
9.5785,-0.0264,-0.07355,-0.01419,-0.09689,-0.21759,-0.09567,-0.01816,-0.00488,-0.01328,-0.00229,0.02213,-0.00366,-0.03464,-0.01617,-0.00641,0.07294
9.579,-0.02884,-0.06653,-0.01602,-0.01419,-0.16312,-0.02762,-0.02182,-0.00732,-0.01144,-0.02304,0.00839,0.00183,-0.03418,-0.01633,0.00107,0.05981
9.5795,-0.02853,-0.05676,-0.01801,0.03189,-0.09415,0.03357,-0.02289,-0.00824,-0.01389,-0.03403,-0.00137,0.00549,-0.03342,-0.01602,0.0032,0.02213
9.58,-0.02533,-0.04898,-0.0206,0.0441,-0.05692,0.04242,-0.02274,-0.00763,-0.01663,-0.03189,-0.01083,0.00549,-0.0325,-0.01556,-0.00031,-0.02747
9.5805,-0.02136,-0.04257,-0.02533,0.03555,-0.06165,0.00916,-0.02396,-0.0061,-0.01572,-0.01816,-0.02548,0.00046,-0.03281,-0.01465,-0.00626,-0.06775
9.581,-0.01968,-0.03723,-0.0325,0.01846,-0.08575,-0.01816,-0.02609,-0.00412,-0.00961,0.0,-0.04501,-0.00549,-0.03342,-0.0145,-0.01785,-0.09613
9.5815,-0.02151,-0.03448,-0.03754,0.00046,-0.10849,-0.01968,-0.02533,-0.00137,-0.00076,0.01907,-0.06912,-0.00732,-0.03357,-0.01495,-0.02411,-0.13229
9.582,-0.0264,-0.03418,-0.03967,-0.01404,-0.1384,-0.01312,-0.01984,0.00076,0.00549,0.03723,-0.09537,-0.0032,-0.03265,-0.01663,-0.02182,-0.19897
9.5825,-0.02853,-0.03448,-0.03983,-0.0296,-0.1828,-0.02197,-0.01373,-0.00061,0.00732,0.04791,-0.11642,0.00229,-0.03159,-0.01801,-0.01572,-0.30441
9.583,-0.02518,-0.03479,-0.04074,-0.047,-0.21469,-0.04257,-0.01022,-0.00336,0.0087,0.05142,-0.12451,0.0061,-0.03067,-0.01862,-0.01022,-0.42358
9.5835,-0.02045,-0.03998,-0.03738,-0.05615,-0.19058,-0.05615,-0.01144,-0.0058,0.01175,0.04669,-0.11337,0.00763,-0.03036,-0.01877,-0.00626,-0.48721
9.584,-0.0177,-0.05676,-0.02396,-0.04578,-0.11093,-0.05829,-0.02045,-0.00595,0.01663,0.03769,-0.09033,0.00641,-0.0296,-0.01755,-0.00275,-0.41702
9.5845,-0.01846,-0.08347,-0.00107,-0.02197,-0.03098,-0.06805,-0.04089,-0.00397,0.01938,0.02472,-0.06073,0.00351,-0.02869,-0.01648,-0.00412,-0.21118
9.585,-0.01923,-0.10239,0.01251,0.00183,0.00961,-0.10513,-0.06516,-0.0029,0.01877,0.01053,-0.03174,0.00153,-0.02777,-0.01572,-0.01358,0.02579
9.5855,-0.01953,-0.09842,0.00671,0.01572,0.02884,-0.14923,-0.07721,-0.00336,0.0174,-0.00275,-0.00824,0.00183,-0.02853,-0.01694,-0.03006,0.18509
9.586,-0.0177,-0.0737,-0.01465,0.02625,0.05875,-0.14648,-0.06683,-0.00488,0.01984,-0.01343,0.00488,0.00397,-0.03036,-0.01923,-0.05096,0.24582
9.5865,-0.01495,-0.04486,-0.03342,0.03799,0.10269,-0.06851,-0.04074,-0.0061,0.02579,-0.02563,0.00305,0.00458,-0.03174,-0.02228,-0.06546,0.25009
9.587,-0.01312,-0.02319,-0.04608,0.04532,0.13641,0.04288,-0.01083,-0.00687,0.03326,-0.04517,-0.00687,0.00366,-0.0322,-0.02472,-0.06577,0.22018
9.5875,-0.0116,-0.00626,-0.05692,0.04547,0.14404,0.10269,0.01266,-0.00656,0.03906,-0.07294,-0.00854,0.00443,-0.03143,-0.02563,-0.05386,0.15945
9.588,-0.00946,0.0087,-0.0676,0.04471,0.13718,0.06912,0.02121,-0.00626,0.04257,-0.10117,0.01038,0.00732,-0.03159,-0.02457,-0.04288,0.08987
9.5885,-0.00763,0.01862,-0.07111,0.04471,0.13474,-0.01846,0.0145,-0.00443,0.04135,-0.12115,0.04532,0.01053,-0.03265,-0.02258,-0.04318,0.04349
9.589,-0.00488,0.01724,-0.06302,0.04059,0.13733,-0.09262,0.00641,-0.00381,0.03265,-0.13138,0.08194,0.01205,-0.03174,-0.02167,-0.04807,0.03052
9.5895,-0.0029,0.00809,-0.0499,0.03265,0.12253,-0.1268,0.0148,-0.00305,0.0174,-0.13275,0.10193,0.01144,-0.03082,-0.0206,-0.04395,0.02792
9.59,-0.00183,-0.0029,-0.04303,0.02869,0.0647,-0.14206,0.03693,-0.0029,0.00137,-0.13367,0.09644,0.00839,-0.02975,-0.02243,-0.02853,0.01648
9.5905,-0.00061,-0.01343,-0.04288,0.03372,-0.03265,-0.15503,0.04578,-0.00183,-0.0116,-0.1329,0.07141,0.00412,-0.02914,-0.02396,0.00931,-0.00549
9.591,-0.00122,-0.02274,-0.0415,0.03815,-0.13123,-0.15884,0.02869,-0.00198,-0.02274,-0.12299,0.04196,-0.00015,-0.02838,-0.0235,0.10086,-0.03281
9.5915,-0.00229,-0.03098,-0.0354,0.03372,-0.18723,-0.14755,0.00198,-0.00275,-0.03616,-0.09491,0.01724,-0.00366,-0.02762,-0.02075,0.233,-0.06226
9.592,-0.00336,-0.0354,-0.03098,0.02121,-0.19302,-0.13214,-0.01129,-0.00397,-0.04944,-0.05203,-0.00961,-0.0061,-0.02762,-0.01846,0.30426,-0.0882
9.5925,-0.0032,-0.03769,-0.0383,0.01175,-0.16556,-0.12268,-0.0119,-0.00366,-0.0589,-0.00397,-0.04501,-0.00916,-0.02808,-0.01938,0.22461,-0.10696
9.593,-0.00397,-0.03769,-0.05524,0.01099,-0.11581,-0.10941,-0.01312,-0.00092,-0.06531,0.04211,-0.07874,-0.0087,-0.02991,-0.02289,0.0531,-0.12527
9.5935,-0.00656,-0.03769,-0.06821,0.01572,-0.05035,-0.08163,-0.02243,0.00183,-0.06821,0.07614,-0.09872,-0.00336,-0.03006,-0.02502,-0.06592,-0.15335
9.594,-0.00839,-0.04105,-0.07355,0.01785,0.00595,-0.04196,-0.03387,0.00092,-0.06653,0.09842,-0.11154,0.00229,-0.03052,-0.02716,-0.07278,-0.18311
9.5945,-0.00824,-0.04807,-0.07233,0.01266,0.03128,-0.00397,-0.03998,-0.00183,-0.05936,0.09964,-0.1297,0.00397,-0.02975,-0.02716,-0.03159,-0.1857
9.595,-0.00793,-0.0592,-0.06821,0.00427,0.03113,0.02151,-0.04166,-0.00351,-0.04791,0.06821,-0.14328,-0.00031,-0.02914,-0.02747,-0.02548,-0.15259
9.5955,-0.01022,-0.0705,-0.06363,-0.00031,0.02823,0.0383,-0.04349,-0.00244,-0.03937,0.01068,-0.11673,-0.00763,-0.02914,-0.02518,-0.06409,-0.1207
9.596,-0.01389,-0.0824,-0.05615,0.00153,0.03204,0.05096,-0.04547,-0.00107,-0.03937,-0.03876,-0.04501,-0.01602,-0.0296,-0.02197,-0.09277,-0.13397
9.5965,-0.01495,-0.09064,-0.04501,-0.00107,0.04059,0.05798,-0.04562,-0.00244,-0.04456,-0.04593,0.03326,-0.02228,-0.02975,-0.01694,-0.07507,-0.17532
9.597,-0.0145,-0.09109,-0.0354,-0.02594,0.04639,0.05051,-0.0415,-0.00488,-0.04822,-0.00656,0.06638,-0.02274,-0.02853,-0.01389,-0.02853,-0.17563
9.5975,-0.01312,-0.08255,-0.02777,-0.09567,0.03372,0.03174,-0.03204,-0.00702,-0.04486,0.05005,0.04822,-0.01526,-0.02762,-0.01129,0.00015,-0.08774
9.598,-0.01266,-0.07095,-0.02289,-0.20859,-0.01434,0.01312,-0.01755,-0.00763,-0.04333,0.08163,0.01877,-0.00397,-0.02716,-0.00977,0.00259,0.0499
9.5985,-0.01373,-0.06226,-0.01953,-0.30762,-0.08148,-0.00198,0.00427,-0.00595,-0.04684,0.06744,0.01312,0.0032,-0.02625,-0.00961,0.00168,0.14267
9.599,-0.0145,-0.0563,-0.02075,-0.31158,-0.12115,-0.02274,0.03098,-0.00397,-0.04837,0.01801,0.02792,0.00641,-0.02548,-0.01373,0.01556,0.13412
9.5995,-0.01663,-0.05157,-0.02686,-0.20035,-0.11124,-0.04852,0.056,-0.00137,-0.03876,-0.03586,0.04044,0.009,-0.02548,-0.01785,0.03876,0.07156
9.6,-0.01907,-0.04486,-0.03143,-0.04242,-0.07904,-0.07263,0.06195,0.00015,-0.02228,-0.06943,0.04303,0.01373,-0.02747,-0.01938,0.06058,0.03937
9.6005,-0.01938,-0.03769,-0.03082,0.08362,-0.06012,-0.09338,0.04349,0.00061,-0.00732,-0.07874,0.04181,0.01099,-0.02884,-0.01801,0.07813,0.05508
9.601,-0.01678,-0.03006,-0.02777,0.16937,-0.047,-0.11261,0.01556,-0.00061,0.00305,-0.07324,0.04471,0.00015,-0.02823,-0.01724,0.08636,0.07233
9.6015,-0.01236,-0.0238,-0.02487,0.25177,-0.00977,-0.11993,-0.00244,-0.00198,0.01266,-0.06271,0.04913,-0.00885,-0.02487,-0.01556,0.08087,0.05966
9.602,-0.0087,-0.01862,-0.02304,0.32608,0.04593,-0.10162,-0.00793,-0.0032,0.0206,-0.06027,0.04669,-0.00595,-0.02441,-0.01373,0.06653,0.02716
9.6025,-0.00763,-0.01358,-0.02274,0.34729,0.07568,-0.06195,-0.01099,-0.00381,0.02457,-0.07111,0.03281,0.00488,-0.02594,-0.01007,0.05798,-0.00107
9.603,-0.00687,-0.00778,-0.02213,0.28763,0.05356,-0.02319,-0.01877,-0.00397,0.02258,-0.08591,0.0087,0.01282,-0.02899,-0.00946,0.06042,-0.01785
9.6035,-0.00412,-0.00351,-0.02243,0.17853,0.0029,-0.00473,-0.02853,-0.00427,0.01755,-0.09018,-0.0177,0.01358,-0.03113,-0.01297,0.06989,-0.02213
9.604,0.00107,-0.0061,-0.02335,0.07751,-0.04608,0.0,-0.03464,-0.00443,0.00732,-0.07782,-0.03845,0.0148,-0.03265,-0.01816,0.07339,-0.02731
9.6045,0.00381,-0.01816,-0.02594,0.02747,-0.09338,0.00458,-0.03265,-0.00641,-0.00885,-0.05661,-0.05112,0.01907,-0.03433,-0.02029,0.05722,-0.05814
9.605,0.00305,-0.03784,-0.02747,0.0238,-0.14542,0.00992,-0.02731,-0.00793,-0.02869,-0.03937,-0.05997,0.0238,-0.03677,-0.01984,0.00961,-0.12466
9.6055,0.00076,-0.05508,-0.02823,0.03845,-0.19043,0.01373,-0.0235,-0.00809,-0.04547,-0.02136,-0.06973,0.02182,-0.03876,-0.02045,-0.05051,-0.20477
9.606,-0.00076,-0.06119,-0.03006,0.05676,-0.20615,0.01221,-0.02182,-0.0058,-0.0563,0.00626,-0.07324,0.01297,-0.03891,-0.02213,-0.0885,-0.27237
9.6065,-0.00427,-0.05539,-0.03418,0.08255,-0.18738,0.00931,-0.02335,-0.0029,-0.06424,0.0415,-0.06332,0.00534,-0.03662,-0.02396,-0.08743,-0.31006
9.607,-0.01022,-0.04364,-0.03784,0.11475,-0.14923,0.00992,-0.02594,-0.00214,-0.07156,0.06424,-0.04501,0.00443,-0.03525,-0.02441,-0.0647,-0.29968
9.6075,-0.01572,-0.03159,-0.03464,0.1474,-0.10239,0.0206,-0.02716,-0.00137,-0.07629,0.06958,-0.03128,0.01007,-0.03525,-0.02472,-0.04913,-0.22659
9.608,-0.01785,-0.01892,-0.02121,0.17334,-0.04959,0.03632,-0.02609,0.0,-0.07309,0.07156,-0.02487,0.01328,-0.03571,-0.02518,-0.04684,-0.11337
9.6085,-0.01678,-0.00839,-0.00595,0.17944,0.01022,0.04166,-0.02548,0.00076,-0.06393,0.07858,-0.0148,0.0119,-0.03494,-0.0238,-0.04501,-0.01678
9.609,-0.01602,-0.00351,-0.00122,0.1503,0.07355,0.0264,-0.02731,0.00092,-0.05173,0.07904,0.0029,0.00839,-0.03281,-0.02106,-0.03204,0.03082
9.6095,-0.01785,-0.00336,-0.01251,0.08804,0.11948,-0.00656,-0.02991,0.00061,-0.03876,0.05905,0.0235,0.00443,-0.03067,-0.0177,-0.01068,0.05722
9.61,-0.0209,-0.00534,-0.02884,0.01434,0.12146,-0.0528,-0.02884,0.00107,-0.02365,0.02167,0.03891,0.00031,-0.02899,-0.01419,0.01663,0.09476
9.6105,-0.02121,-0.00809,-0.0415,-0.05035,0.07492,-0.11993,-0.02335,0.00137,-0.00885,-0.01358,0.04715,-0.00412,-0.02884,-0.0119,0.04822,0.11017
9.611,-0.01587,-0.0116,-0.04639,-0.10025,0.01511,-0.20203,-0.01755,0.00153,0.00259,-0.03387,0.0502,-0.00504,-0.02838,-0.0116,0.06729,0.05386
9.6115,-0.00687,-0.01541,-0.04333,-0.13718,-0.02533,-0.26413,-0.01282,0.00122,0.00992,-0.04791,0.0502,-0.00305,-0.02747,-0.01419,0.05936,-0.05295
9.612,0.00107,-0.01923,-0.02808,-0.16174,-0.04959,-0.26962,-0.01129,0.00092,0.0148,-0.06607,0.047,-0.00076,-0.02853,-0.01572,0.03113,-0.13596
9.6125,0.00275,-0.02411,-0.0029,-0.1767,-0.07645,-0.22247,-0.01282,0.00107,0.01648,-0.08499,0.04166,0.00031,-0.03082,-0.0174,0.0058,-0.15533
9.613,0.00168,-0.02991,0.01923,-0.1825,-0.11185,-0.16068,-0.02151,-0.00092,0.01831,-0.08469,0.03281,-0.00046,-0.03433,-0.01923,-0.00504,-0.12207
9.6135,0.00092,-0.03723,0.02274,-0.18219,-0.15579,-0.12177,-0.03998,-0.0032,0.0206,-0.05783,0.01907,-0.00183,-0.03494,-0.02045,-0.00778,-0.04868
9.614,0.00046,-0.04517,0.0029,-0.17944,-0.20142,-0.11169,-0.05905,-0.00458,0.02197,-0.01572,0.00046,-0.00305,-0.0351,-0.02136,-0.00854,0.05768
9.6145,-0.00198,-0.05402,-0.03021,-0.16922,-0.22461,-0.11322,-0.05722,-0.00473,0.02151,0.02228,-0.01678,-0.00504,-0.03571,-0.02228,-0.0058,0.14877
9.615,-0.00885,-0.06134,-0.05341,-0.14709,-0.19867,-0.11078,-0.02792,-0.00412,0.01892,0.04562,-0.02975,-0.00763,-0.03754,-0.02335,-0.00214,0.15976
9.6155,-0.01602,-0.0647,-0.06287,-0.11963,-0.14236,-0.09888,0.0058,-0.00412,0.01572,0.05066,-0.0354,-0.00946,-0.03769,-0.02396,-0.00092,0.08957
9.616,-0.01846,-0.06805,-0.06058,-0.09583,-0.09628,-0.07919,0.01633,-0.00351,0.01389,0.04852,-0.0354,-0.01007,-0.03662,-0.02289,-0.00153,0.00687
9.6165,-0.0148,-0.07614,-0.05783,-0.07706,-0.06607,-0.05295,0.00427,-0.00229,0.0119,0.047,-0.03174,-0.00839,-0.03632,-0.02014,0.0029,-0.03189
9.617,-0.01221,-0.08636,-0.06226,-0.0589,-0.02258,-0.02686,-0.00961,-0.00214,0.00626,0.04822,-0.03098,-0.00519,-0.03632,-0.01938,0.01389,-0.03983
9.6175,-0.01251,-0.09186,-0.07278,-0.03052,0.04898,-0.01572,-0.01465,-0.00427,-0.00504,0.04623,-0.03464,-0.00244,-0.03555,-0.01953,0.02014,-0.05814
9.618,-0.01236,-0.08591,-0.08194,0.01419,0.13718,-0.02411,-0.01465,-0.00778,-0.01831,0.03174,-0.03967,-0.0029,-0.03601,-0.0209,0.01816,-0.09094
9.6185,-0.00992,-0.07187,-0.0853,0.06104,0.21637,-0.03784,-0.01526,-0.01099,-0.02747,-0.00031,-0.03876,-0.00549,-0.03616,-0.02045,0.01221,-0.10315
9.619,-0.00549,-0.05798,-0.07996,0.0708,0.26321,-0.04425,-0.01373,-0.01114,-0.03296,-0.04547,-0.02075,-0.00732,-0.03601,-0.02045,0.00702,-0.07324
9.6195,-0.00275,-0.04852,-0.06744,0.01968,0.26733,-0.04944,-0.00885,-0.00778,-0.03815,-0.08987,0.01083,-0.00671,-0.0351,-0.02106,0.00168,-0.02548
9.62,-0.00305,-0.04242,-0.05341,-0.06241,0.23132,-0.06256,-0.00458,-0.0029,-0.04059,-0.13077,0.03662,-0.0058,-0.03494,-0.02319,-0.00763,0.00656
9.6205,-0.00488,-0.03906,-0.04791,-0.11047,0.16586,-0.07111,-0.00488,-0.00046,-0.03906,-0.16464,0.03922,-0.00717,-0.03677,-0.02411,-0.02075,0.01175
9.621,-0.00397,-0.03738,-0.04684,-0.11032,0.08377,-0.05249,-0.00839,-0.00107,-0.02991,-0.18723,0.02106,-0.00671,-0.03922,-0.02441,-0.03052,0.00458
9.6215,-0.00168,-0.03632,-0.04486,-0.11978,0.00031,-0.01038,-0.01495,-0.00244,-0.0177,-0.18967,-0.00092,-0.00259,-0.03952,-0.02441,-0.03143,-0.00351
9.622,-0.00214,-0.03632,-0.03906,-0.1886,-0.06912,0.02686,-0.02808,-0.0032,-0.00839,-0.16632,-0.01572,0.00244,-0.03876,-0.02518,-0.02228,-0.01144
9.6225,-0.00717,-0.03586,-0.03494,-0.27679,-0.12634,0.03693,-0.04822,-0.00397,-0.00488,-0.11826,-0.02792,0.00549,-0.03723,-0.02686,-0.0177,-0.02823
9.623,-0.01404,-0.03525,-0.0351,-0.31509,-0.1889,0.02518,-0.06149,-0.00443,-0.00656,-0.05035,-0.0499,0.00534,-0.03479,-0.02716,-0.02792,-0.0528
9.6235,-0.02045,-0.03647,-0.03891,-0.2948,-0.25452,0.00595,-0.04791,-0.00427,-0.01114,0.02762,-0.08942,0.00381,-0.03464,-0.02609,-0.02884,-0.07294
9.624,-0.02274,-0.0383,-0.04074,-0.2507,-0.29251,-0.01556,-0.00381,-0.00214,-0.01648,0.10284,-0.13199,0.00229,-0.03479,-0.02518,0.00641,-0.0798
9.6245,-0.01968,-0.03723,-0.03723,-0.186,-0.29602,-0.03906,0.04288,0.00092,-0.01953,0.16937,-0.14877,-0.00275,-0.0351,-0.02533,0.06241,-0.07965
9.625,-0.01526,-0.0351,-0.03159,-0.08972,-0.2774,-0.05753,0.05463,0.0029,-0.02136,0.20813,-0.12558,-0.00992,-0.03464,-0.0238,0.08682,-0.08606
9.6255,-0.0119,-0.03372,-0.02625,0.00275,-0.2478,-0.06348,0.0293,0.00397,-0.02838,0.20187,-0.08591,-0.01877,-0.03387,-0.02228,0.05844,-0.1004
9.626,-0.01129,-0.03632,-0.02182,0.05127,-0.19775,-0.05966,0.00031,0.00458,-0.04059,0.14603,-0.05722,-0.02274,-0.03479,-0.02182,0.01999,-0.1207
9.6265,-0.01022,-0.04135,-0.01816,0.09216,-0.12543,-0.06287,-0.01022,0.00504,-0.04807,0.0705,-0.03922,-0.0206,-0.03479,-0.02228,0.00565,-0.14801
9.627,-0.00748,-0.04669,-0.01358,0.17258,-0.05341,-0.07874,-0.00717,0.00671,-0.04227,0.01602,-0.01984,-0.01755,-0.03265,-0.02136,0.0119,-0.16464
9.6275,-0.00534,-0.05249,-0.00732,0.23834,0.00305,-0.09155,-0.00565,0.00778,-0.02396,-0.0058,-0.00244,-0.01511,-0.02823,-0.01602,0.02014,-0.1268
9.628,-0.00595,-0.06287,-0.00061,0.19608,0.04578,-0.08011,-0.00916,0.00839,-0.00366,-0.00824,0.00259,-0.01205,-0.02472,-0.01068,0.02243,-0.01801
9.6285,-0.00946,-0.07782,0.00961,0.05829,0.0795,-0.05157,-0.01343,0.00992,0.01038,-0.01511,-0.00305,-0.00641,-0.02258,-0.009,0.02365,0.09277
9.629,-0.01266,-0.08789,0.02487,-0.06119,0.09613,-0.0354,-0.01465,0.01297,0.01678,-0.02579,-0.00732,-0.00107,-0.02319,-0.01129,0.02243,0.11551
9.6295,-0.01328,-0.08621,0.04181,-0.08972,0.09033,-0.04318,-0.01526,0.01556,0.01831,-0.03479,-0.00809,0.00046,-0.0235,-0.01282,0.01907,0.047
9.63,-0.01328,-0.07416,0.04501,-0.06042,0.07187,-0.05859,-0.0174,0.01801,0.01892,-0.03632,-0.01175,0.0,-0.02243,-0.01328,0.01282,-0.03494
9.6305,-0.01572,-0.06088,0.03052,-0.03311,0.05035,-0.06226,-0.01816,0.01984,0.01846,-0.0325,-0.01572,-0.00259,-0.02151,-0.01404,0.01343,-0.07156
9.631,-0.01984,-0.04791,0.00565,-0.01923,0.02472,-0.05478,-0.01801,0.02274,0.01663,-0.02777,-0.01907,-0.00748,-0.0238,-0.01572,0.02441,-0.07858
9.6315,-0.02289,-0.03387,-0.01099,-0.00137,-0.00366,-0.05051,-0.01678,0.02594,0.01221,-0.02853,-0.03281,-0.01389,-0.02808,-0.01709,0.03571,-0.09613
9.632,-0.02365,-0.02045,-0.01419,0.01999,-0.0235,-0.05341,-0.01602,0.02686,0.00351,-0.03708,-0.0621,-0.01617,-0.03067,-0.01846,0.03647,-0.13351
9.6325,-0.02243,-0.01022,-0.01602,0.02747,-0.02609,-0.05585,-0.01572,0.02472,-0.01389,-0.05524,-0.0769,-0.01144,-0.03098,-0.01984,0.0267,-0.1535
9.633,-0.02182,-0.00427,-0.03098,0.01862,-0.01617,-0.05356,-0.01587,0.02121,-0.03494,-0.07584,-0.04807,-0.00183,-0.03052,-0.02167,0.01205,-0.12573
9.6335,-0.02243,-0.00381,-0.05905,0.01068,-0.00259,-0.04745,-0.01724,0.01892,-0.05203,-0.09171,0.00839,0.00366,-0.03036,-0.02457,0.00427,-0.06271
9.634,-0.02197,-0.00885,-0.08728,0.01511,0.01297,-0.0412,-0.01892,0.01694,-0.05829,-0.09659,0.04913,0.00076,-0.03189,-0.02838,0.00458,-0.01129
9.6345,-0.01846,-0.01633,-0.10757,0.02762,0.02762,-0.03647,-0.02151,0.01495,-0.05859,-0.09125,0.05447,-0.00778,-0.03479,-0.03052,0.00626,0.00473
9.635,-0.01434,-0.02319,-0.11795,0.04074,0.02869,-0.03281,-0.0235,0.0148,-0.05661,-0.08224,0.03922,-0.01495,-0.03662,-0.02762,-0.00717,-0.00015
9.6355,-0.01221,-0.02808,-0.11765,0.05035,0.01083,-0.03036,-0.02411,0.01648,-0.05554,-0.07233,0.0267,-0.01602,-0.03433,-0.02045,-0.04425,-0.00595
9.636,-0.01251,-0.03265,-0.10574,0.05798,-0.01556,-0.02808,-0.02457,0.01846,-0.05142,-0.0621,0.02121,-0.01221,-0.03067,-0.01312,-0.07858,-0.01205
9.6365,-0.01358,-0.03662,-0.08118,0.06119,-0.03189,-0.02502,-0.02441,0.0174,-0.04623,-0.056,0.01816,-0.00732,-0.03036,-0.01175,-0.07996,-0.01938
9.637,-0.01434,-0.04013,-0.05371,0.04974,-0.03052,-0.02106,-0.02563,0.01419,-0.03906,-0.05264,0.01358,-0.00519,-0.03403,-0.01587,-0.05249,-0.02518
9.6375,-0.01373,-0.04639,-0.03342,0.00488,-0.0145,-0.02319,-0.02716,0.00992,-0.02792,-0.05203,0.01083,-0.00717,-0.03738,-0.02197,-0.02502,-0.02655
9.638,-0.01205,-0.05981,-0.02808,-0.06363,0.00198,-0.03647,-0.02777,0.00534,-0.01114,-0.05096,0.01038,-0.00687,-0.03845,-0.02426,0.00183,-0.02716
9.6385,-0.01053,-0.0769,-0.03448,-0.09689,-0.00046,-0.05508,-0.02823,0.00015,0.00748,-0.05142,0.00458,-0.00381,-0.0383,-0.01923,0.04868,-0.02975
9.639,-0.0116,-0.08469,-0.04303,-0.03998,-0.04272,-0.06714,-0.0293,-0.00504,0.0235,-0.05035,-0.01282,0.00031,-0.03769,-0.01205,0.10681,-0.03571
9.6395,-0.01282,-0.07309,-0.04501,0.07843,-0.11841,-0.06683,-0.03082,-0.00671,0.03265,-0.04364,-0.03311,0.00198,-0.03799,-0.00793,0.12665,-0.04166
9.64,-0.01343,-0.0502,-0.03922,0.16968,-0.18341,-0.05539,-0.03052,-0.00732,0.03464,-0.03357,-0.04395,-0.00046,-0.03647,-0.00977,0.09003,-0.04807
9.6405,-0.01328,-0.02899,-0.03189,0.19028,-0.18524,-0.03204,-0.03082,-0.00839,0.02991,-0.0264,-0.04364,-0.00549,-0.0351,-0.01511,0.03845,-0.04974
9.641,-0.01404,-0.01678,-0.03082,0.16861,-0.12527,-0.00107,-0.03189,-0.01068,0.01938,-0.02457,-0.04166,-0.009,-0.03418,-0.01862,0.01877,-0.04105
9.6415,-0.01389,-0.00931,-0.03906,0.13428,-0.05646,0.02121,-0.03265,-0.01297,0.00534,-0.02991,-0.04089,-0.00671,-0.03464,-0.02029,0.02411,-0.02365
9.642,-0.01266,-0.00641,-0.0528,0.07629,-0.03143,0.01511,-0.03067,-0.01404,-0.00946,-0.03281,-0.03693,-0.00153,-0.03601,-0.02106,0.02502,-0.00809
9.6425,-0.01266,-0.01129,-0.06271,-0.00488,-0.04532,-0.01373,-0.02716,-0.01755,-0.01877,-0.03036,-0.02548,0.00061,-0.03708,-0.02197,0.01373,-0.00458
9.643,-0.01511,-0.02197,-0.06607,-0.07355,-0.05997,-0.04044,-0.02441,-0.0206,-0.02258,-0.02487,-0.01572,-0.00168,-0.03571,-0.02258,0.00473,-0.00992
9.6435,-0.01831,-0.03204,-0.06165,-0.08621,-0.04517,-0.04501,-0.02274,-0.02289,-0.02228,-0.01862,-0.01312,-0.00641,-0.03418,-0.02441,0.0032,-0.01633
9.644,-0.01984,-0.03754,-0.05371,-0.01907,-0.00488,-0.0325,-0.02121,-0.02518,-0.0209,-0.0148,-0.01389,-0.01083,-0.03418,-0.02731,0.00366,-0.02304
9.6445,-0.02045,-0.0386,-0.04517,0.11398,0.03586,-0.01984,-0.02045,-0.0296,-0.01602,-0.01389,-0.01266,-0.0145,-0.03555,-0.02853,0.00259,-0.03311
9.645,-0.02167,-0.04196,-0.03876,0.24628,0.05112,-0.01465,-0.02106,-0.03677,-0.01007,-0.0148,-0.01007,-0.01556,-0.03677,-0.02655,0.00351,-0.04608
9.6455,-0.0206,-0.0531,-0.03723,0.289,0.0383,-0.01694,-0.02228,-0.0444,-0.00717,-0.01846,-0.009,-0.01328,-0.03769,-0.02213,0.00519,-0.05722
9.646,-0.01709,-0.07202,-0.03937,0.21698,0.01495,-0.02594,-0.02258,-0.05188,-0.00626,-0.01999,-0.01343,-0.01114,-0.03891,-0.01801,0.00534,-0.06546
9.6465,-0.01282,-0.09399,-0.04456,0.10025,-0.00427,-0.03891,-0.02304,-0.05707,-0.00565,-0.01923,-0.02594,-0.01068,-0.04013,-0.01923,0.00092,-0.07004
9.647,-0.009,-0.11307,-0.04807,0.03281,-0.01984,-0.04684,-0.02243,-0.0589,-0.00336,-0.02197,-0.04379,-0.01099,-0.04013,-0.02258,-0.00076,-0.07019
9.6475,-0.00687,-0.1236,-0.04684,0.04395,-0.03998,-0.04868,-0.02045,-0.05859,0.00061,-0.02502,-0.05966,-0.00977,-0.0383,-0.02472,0.0029,-0.06271
9.648,-0.00229,-0.12283,-0.04395,0.09445,-0.0705,-0.04623,-0.01862,-0.05829,0.00351,-0.03128,-0.06363,-0.00824,-0.03616,-0.02197,0.00687,-0.05005
9.6485,0.00412,-0.10574,-0.03906,0.12894,-0.09674,-0.04822,-0.01694,-0.06027,0.00488,-0.03983,-0.0563,-0.01022,-0.03616,-0.0177,0.00656,-0.0444
9.649,0.00854,-0.0766,-0.03296,0.12131,-0.09583,-0.05569,-0.01587,-0.06302,0.00229,-0.04807,-0.04364,-0.01801,-0.03677,-0.01785,0.00336,-0.05478
9.6495,0.00885,-0.04593,-0.02579,0.07858,-0.06516,-0.06302,-0.01572,-0.06287,-0.00107,-0.05219,-0.02914,-0.02472,-0.03601,-0.02197,0.00031,-0.08316
9.65,0.00763,-0.02136,-0.01923,0.02335,-0.03433,-0.06363,-0.01404,-0.06073,-0.00671,-0.05783,-0.01434,-0.02533,-0.03586,-0.02594,0.00107,-0.11536
9.6505,0.0061,-0.00397,-0.01709,-0.02411,-0.03174,-0.05829,-0.01175,-0.05707,-0.01709,-0.06653,-0.00031,-0.01907,-0.03677,-0.0293,0.00381,-0.13657
9.651,0.00534,0.00763,-0.01953,-0.05981,-0.04944,-0.05203,-0.00977,-0.05356,-0.03159,-0.08163,0.01175,-0.01221,-0.03876,-0.03021,0.00626,-0.14328
9.6515,0.00473,0.01221,-0.02228,-0.08728,-0.06119,-0.0473,-0.00916,-0.05127,-0.04639,-0.09369,0.01846,-0.01007,-0.0386,-0.03036,0.00702,-0.12421
9.652,0.00473,0.00992,-0.02426,-0.10452,-0.05585,-0.04257,-0.00992,-0.05081,-0.05768,-0.09384,0.02014,-0.01038,-0.0383,-0.02899,0.00702,-0.05569
9.6525,0.00778,0.00473,-0.02563,-0.10681,-0.03693,-0.03525,-0.01083,-0.05112,-0.06683,-0.08362,0.01938,-0.00854,-0.03662,-0.02411,0.00534,0.06088
9.653,0.01221,-0.00153,-0.02914,-0.09857,-0.01007,-0.02777,-0.01251,-0.05096,-0.07095,-0.06393,0.02045,-0.00244,-0.0354,-0.01968,0.00443,0.15152
9.6535,0.01526,-0.00931,-0.03479,-0.09811,0.01617,-0.02121,-0.01434,-0.05112,-0.06439,-0.03235,0.0264,0.0029,-0.03479,-0.0177,0.00229,0.14023
9.654,0.01785,-0.01694,-0.03922,-0.11627,0.0351,-0.01511,-0.0174,-0.05157,-0.04883,0.01129,0.0351,0.00443,-0.03433,-0.01862,0.00061,0.04974
9.6545,0.01892,-0.0209,-0.03662,-0.14572,0.05371,-0.01373,-0.02136,-0.05432,-0.03265,0.0589,0.03937,0.00305,-0.03387,-0.01892,0.0,-0.02518
9.655,0.01877,-0.02014,-0.02487,-0.16922,0.08682,-0.02502,-0.02533,-0.05692,-0.02396,0.10025,0.03235,0.00366,-0.03189,-0.01587,0.00275,-0.03815
9.6555,0.01801,-0.0206,-0.00778,-0.17471,0.13489,-0.04883,-0.02701,-0.05783,-0.02014,0.12833,0.01617,0.00778,-0.0296,-0.01251,0.00381,-0.02396
9.656,0.01663,-0.02609,0.00549,-0.16083,0.16968,-0.06958,-0.02701,-0.05554,-0.01709,0.14801,-0.00137,0.01022,-0.02777,-0.01129,0.00427,-0.02335
9.6565,0.01541,-0.03342,0.01144,-0.13794,0.16693,-0.07751,-0.02747,-0.05157,-0.01434,0.15121,-0.01236,0.00565,-0.02823,-0.01205,0.00397,-0.03799
9.657,0.01678,-0.03891,0.01099,-0.11841,0.12909,-0.07217,-0.02686,-0.04883,-0.01602,0.12802,-0.01892,-0.00229,-0.02975,-0.01389,0.00229,-0.04868
9.6575,0.02121,-0.03967,0.00671,-0.10803,0.08011,-0.06744,-0.02579,-0.0441,-0.02167,0.08133,-0.02274,-0.00946,-0.03128,-0.01709,0.0,-0.05112
9.658,0.02518,-0.03906,0.00275,-0.10666,0.04227,-0.06516,-0.0235,-0.03998,-0.02945,0.02594,-0.02548,-0.01236,-0.03159,-0.02045,0.00061,-0.05112
9.6585,0.02365,-0.04211,-0.00076,-0.11185,0.02243,-0.0647,-0.02075,-0.03571,-0.03479,-0.03067,-0.02625,-0.00977,-0.03357,-0.02197,0.00259,-0.04822
9.659,0.01938,-0.04822,-0.00458,-0.12009,0.00366,-0.0589,-0.01755,-0.03235,-0.03555,-0.08347,-0.02487,-0.00427,-0.03479,-0.02014,0.00351,-0.04059
9.6595,0.01511,-0.05203,-0.00839,-0.12711,-0.04257,-0.05112,-0.01495,-0.02808,-0.03342,-0.12054,-0.02289,-0.00183,-0.03418,-0.01663,0.00504,-0.03189
9.66,0.01358,-0.05127,-0.01404,-0.13184,-0.11719,-0.04654,-0.01617,-0.02441,-0.03036,-0.14557,-0.02228,-0.00229,-0.03281,-0.01556,0.00565,-0.02853
9.6605,0.01205,-0.0473,-0.02075,-0.13504,-0.16953,-0.04318,-0.0206,-0.02335,-0.03052,-0.15442,-0.02487,-0.0029,-0.03174,-0.0174,0.00565,-0.03387
9.661,0.00931,-0.04547,-0.02823,-0.13779,-0.15869,-0.0351,-0.02655,-0.02457,-0.03403,-0.14862,-0.03311,0.0,-0.03265,-0.01984,0.00687,-0.04059
9.6615,0.00687,-0.04654,-0.03632,-0.12711,-0.10468,-0.01816,-0.0296,-0.02502,-0.03754,-0.11536,-0.04578,0.00336,-0.0354,-0.0206,0.00931,-0.04166
9.662,0.00778,-0.04913,-0.04166,-0.09094,-0.07462,0.00153,-0.0296,-0.02151,-0.03357,-0.05447,-0.06058,0.0029,-0.03723,-0.02029,0.0116,-0.03708
9.6625,0.01221,-0.05341,-0.0441,-0.03052,-0.10056,0.01419,-0.02991,-0.01633,-0.02426,0.01129,-0.06866,0.00061,-0.03754,-0.02029,0.01312,-0.03693
9.663,0.0177,-0.05814,-0.04349,0.03128,-0.15121,0.01587,-0.03067,-0.00977,-0.01297,0.05005,-0.06607,-0.00046,-0.03769,-0.02045,0.01373,-0.04288
9.6635,0.01801,-0.05844,-0.04059,0.0676,-0.168,0.01282,-0.03143,-0.00488,-0.00336,0.05478,-0.05508,0.00031,-0.03738,-0.0206,0.01404,-0.05203
9.664,0.01328,-0.05646,-0.03723,0.06943,-0.12711,0.01221,-0.03098,-0.00244,0.00626,0.04181,-0.04166,0.00259,-0.03799,-0.01984,0.0148,-0.05768
9.6645,0.0087,-0.05569,-0.03555,0.05249,-0.0592,0.01053,-0.03006,0.0,0.01846,0.03754,-0.03098,0.00488,-0.03815,-0.0177,0.01556,-0.05615
9.665,0.00809,-0.06348,-0.03571,0.03418,-0.00778,-0.01373,-0.02899,0.00153,0.03006,0.05325,-0.02075,0.00732,-0.03799,-0.01877,0.01495,-0.05112
9.6655,0.01038,-0.07462,-0.03998,0.02625,0.0145,-0.0737,-0.02777,0.00259,0.0351,0.06897,-0.00916,0.00717,-0.03876,-0.01938,0.01221,-0.04562
9.666,0.01129,-0.07904,-0.04303,0.04105,0.03006,-0.15091,-0.0264,0.00412,0.03113,0.07751,0.00412,0.00671,-0.03891,-0.01938,0.00748,-0.04013
9.6665,0.00763,-0.06943,-0.04242,0.08286,0.0563,-0.19669,-0.02502,0.00549,0.0238,0.06897,0.01648,0.00534,-0.03784,-0.02014,0.00549,-0.03876
9.667,0.00015,-0.05371,-0.03799,0.12558,0.08759,-0.17578,-0.02167,0.00687,0.01968,0.04684,0.02472,0.00473,-0.03647,-0.0209,0.00397,-0.04623
9.6675,-0.00717,-0.0415,-0.02472,0.12741,0.10117,-0.11353,-0.01572,0.00977,0.01709,0.01831,0.02777,0.00366,-0.03448,-0.02121,0.00259,-0.06729
9.668,-0.00992,-0.03525,-0.00397,0.08224,0.08102,-0.06683,-0.009,0.01236,0.01205,-0.00397,0.02594,0.00244,-0.03342,-0.01938,0.00076,-0.09567
9.6685,-0.01144,-0.03326,0.0119,0.02579,0.03143,-0.06134,-0.00336,0.01556,0.00244,-0.0145,0.02289,0.00137,-0.03403,-0.01694,0.00092,-0.11337
9.669,-0.01373,-0.03647,0.00351,-0.00854,-0.03082,-0.0737,-0.00015,0.01877,-0.00839,-0.0145,0.0209,0.00015,-0.0351,-0.01663,0.00351,-0.11002
9.6695,-0.01617,-0.0499,-0.02701,-0.03387,-0.09109,-0.07996,0.00336,0.02258,-0.01816,-0.00946,0.02045,0.00153,-0.03632,-0.01877,0.00931,-0.09277
9.67,-0.01724,-0.06607,-0.05859,-0.07553,-0.13611,-0.07751,0.00839,0.02594,-0.02838,-0.00183,0.01999,0.00458,-0.0354,-0.01907,0.0148,-0.07919
9.6705,-0.01801,-0.07202,-0.07523,-0.13382,-0.14862,-0.06836,0.01266,0.02792,-0.03998,-0.00031,0.01785,0.00595,-0.03311,-0.01785,0.01648,-0.06866
9.671,-0.01831,-0.06607,-0.07111,-0.18311,-0.12543,-0.04501,0.01633,0.02899,-0.05051,-0.00504,0.01495,0.00458,-0.03174,-0.01678,0.01541,-0.04715
9.6715,-0.01541,-0.05875,-0.05188,-0.21805,-0.0795,-0.00717,0.01938,0.02823,-0.05371,-0.02136,0.00824,0.00168,-0.03036,-0.01389,0.01297,-0.01068
9.672,-0.00977,-0.05585,-0.02167,-0.26047,-0.02411,0.02747,0.02151,0.02823,-0.05173,-0.04471,-0.00931,-0.00061,-0.03067,-0.01099,0.009,0.02441
9.6725,-0.00519,-0.05066,0.00748,-0.31433,0.0322,0.04349,0.02151,0.03067,-0.04868,-0.065,-0.03387,-0.0032,-0.03052,-0.01175,0.00473,0.03799
9.673,-0.0029,-0.03906,0.0174,-0.36148,0.07202,0.0415,0.02472,0.03494,-0.04593,-0.07736,-0.05081,-0.00687,-0.03006,-0.01541,0.00214,0.03189
9.6735,-0.00122,-0.02945,0.00046,-0.39368,0.07675,0.03448,0.02914,0.0415,-0.04044,-0.08682,-0.05096,-0.01068,-0.02869,-0.01862,0.00748,0.01923
9.674,0.00122,-0.0267,-0.02502,-0.42389,0.04898,0.02441,0.03265,0.04669,-0.03204,-0.09995,-0.04166,-0.01083,-0.02808,-0.01892,0.01709,0.01556
9.6745,0.00534,-0.02029,-0.03265,-0.45502,0.01099,0.00549,0.03647,0.04639,-0.02518,-0.10864,-0.03632,-0.00687,-0.02762,-0.0177,0.02518,0.02548
9.675,0.00885,-0.00351,-0.02167,-0.47546,-0.00565,-0.02701,0.04013,0.03922,-0.02274,-0.10788,-0.03601,-0.00229,-0.02853,-0.01709,0.02136,0.04303
9.6755,0.01068,0.01068,-0.0145,-0.45166,0.01221,-0.0592,0.04578,0.03113,-0.02106,-0.09293,-0.03357,0.00183,-0.02899,-0.01694,0.01282,0.05005
9.676,0.01175,0.01022,-0.02609,-0.31647,0.06088,-0.0589,0.05417,0.03189,-0.01907,-0.07568,-0.02487,0.00443,-0.02899,-0.01556,0.00732,0.02716
9.6765,0.01236,-0.00275,-0.04745,-0.01389,0.12512,-0.0174,0.0621,0.04501,-0.01678,-0.06119,-0.01297,0.00381,-0.02975,-0.01511,0.0058,-0.03143
9.677,0.01053,-0.0148,-0.06546,0.3862,0.18127,0.03372,0.06699,0.06027,-0.01312,-0.04272,-0.0032,-0.00137,-0.03067,-0.01709,0.00366,-0.10757
9.6775,0.00534,-0.01999,-0.07492,0.67978,0.20309,0.06042,0.06882,0.06638,-0.01038,-0.0148,0.00381,-0.00687,-0.0293,-0.01968,-0.00061,-0.16449
9.678,-0.00122,-0.02304,-0.07599,0.70541,0.168,0.0618,0.06744,0.06302,-0.00595,0.0206,0.00565,-0.00565,-0.02808,-0.0209,-0.00305,-0.17242
9.6785,-0.00702,-0.02686,-0.06897,0.51315,0.06958,0.06134,0.06439,0.05386,0.00031,0.05112,0.00305,0.00275,-0.02716,-0.02014,-0.00046,-0.13763
9.679,-0.01221,-0.02701,-0.05173,0.28809,-0.06439,0.06943,0.06165,0.04181,0.00687,0.06592,-0.00381,0.00748,-0.02701,-0.01923,0.0029,-0.0946
9.6795,-0.01694,-0.02182,-0.02853,0.15167,-0.18768,0.06989,0.06073,0.03006,0.01068,0.06516,-0.009,0.00153,-0.02655,-0.01862,0.0029,-0.06805
9.68,-0.02014,-0.01419,-0.00687,0.09628,-0.26428,0.03906,0.05875,0.02411,0.01038,0.06287,-0.0116,-0.01099,-0.02579,-0.01678,0.00122,-0.05463
9.6805,-0.02075,-0.01007,0.00443,0.07568,-0.28687,-0.03403,0.05356,0.02502,0.00824,0.05936,-0.01419,-0.01938,-0.02487,-0.01465,-0.00061,-0.04288
9.681,-0.01831,-0.01083,0.0,0.07095,-0.2739,-0.1358,0.04837,0.0322,0.00412,0.05875,-0.01709,-0.01816,-0.02411,-0.01343,-0.00305,-0.03525
9.6815,-0.01556,-0.01282,-0.00931,0.09949,-0.24963,-0.22629,0.04333,0.03799,0.00076,0.05432,-0.01587,-0.01129,-0.02365,-0.01495,-0.00427,-0.03906
9.682,-0.01328,-0.01678,-0.00839,0.18539,-0.23392,-0.26428,0.03754,0.04196,-0.00183,0.03601,-0.01007,-0.00336,-0.02274,-0.01678,-0.00031,-0.04974
9.6825,-0.01144,-0.02151,0.00183,0.31052,-0.22949,-0.24811,0.03036,0.04486,-0.00366,0.01373,-0.00504,-0.00031,-0.0238,-0.01877,0.0029,-0.05707
9.683,-0.00931,-0.0293,-0.00107,0.39398,-0.22827,-0.21729,0.02457,0.04883,-0.00519,-0.00381,-0.00534,-0.00168,-0.02579,-0.01968,0.00351,-0.0621
9.6835,-0.00793,-0.03983,-0.02609,0.36789,-0.21866,-0.20554,0.01923,0.04868,-0.00748,-0.00839,-0.00977,-0.00458,-0.02884,-0.02014,0.00275,-0.06485
9.684,-0.01114,-0.04944,-0.06378,0.26062,-0.1976,-0.19989,0.01221,0.04135,-0.01038,-0.01343,-0.01526,-0.00458,-0.03128,-0.02106,0.00092,-0.06546
9.6845,-0.01862,-0.05371,-0.0946,0.16205,-0.16708,-0.17273,0.00122,0.03067,-0.01297,-0.02258,-0.01862,-0.00259,-0.03235,-0.02151,0.00305,-0.05875
9.685,-0.02731,-0.0531,-0.11185,0.11765,-0.13153,-0.13046,-0.01144,0.02213,-0.01282,-0.02975,-0.02136,-0.00092,-0.03174,-0.02151,0.00671,-0.04486
9.6855,-0.0325,-0.05371,-0.11871,0.10529,-0.10162,-0.09933,-0.02243,0.01907,-0.01129,-0.03433,-0.02182,-0.00122,-0.03128,-0.02182,0.00778,-0.03235
9.686,-0.03464,-0.05829,-0.11688,0.09964,-0.08728,-0.09369,-0.03174,0.0177,-0.00961,-0.04684,-0.01801,-0.00244,-0.03082,-0.02182,0.00259,-0.02701
9.6865,-0.03525,-0.06531,-0.10834,0.10391,-0.08499,-0.09827,-0.03967,0.0148,-0.01007,-0.05829,-0.00534,-0.00168,-0.03143,-0.02243,-0.00092,-0.0267
9.687,-0.03738,-0.07019,-0.09674,0.11703,-0.07843,-0.09125,-0.04669,0.01221,-0.00961,-0.06256,0.01602,0.00153,-0.03098,-0.02228,0.00137,-0.02777
9.6875,-0.04181,-0.07248,-0.0853,0.10941,-0.05585,-0.07156,-0.05203,0.01022,-0.00702,-0.05524,0.0351,0.00214,-0.02975,-0.02151,0.00488,-0.02991
9.688,-0.04898,-0.0795,-0.07431,0.06485,-0.01755,-0.05234,-0.05753,0.00931,-0.00443,-0.0502,0.03784,0.00031,-0.02899,-0.01938,0.00061,-0.03418
9.6885,-0.05646,-0.09308,-0.06042,0.00702,0.02304,-0.04532,-0.06332,0.00671,-0.0032,-0.04654,0.0238,-0.00305,-0.03052,-0.0174,-0.00946,-0.03952
9.689,-0.06119,-0.10178,-0.04456,-0.03387,0.0499,-0.04105,-0.06805,0.00198,-0.00259,-0.05386,0.00443,-0.00519,-0.03342,-0.01709,-0.01495,-0.04425
9.6895,-0.05936,-0.09079,-0.02914,-0.07095,0.05478,-0.02197,-0.0705,-0.00214,-0.00275,-0.05707,-0.01541,-0.00549,-0.03571,-0.01953,-0.01007,-0.04807
9.69,-0.0531,-0.06149,-0.01892,-0.14572,0.03555,0.01022,-0.07294,-0.0058,-0.00214,-0.05692,-0.04501,-0.00351,-0.03586,-0.02228,-0.00214,-0.05005
9.6905,-0.04578,-0.02731,-0.01038,-0.26215,0.0058,0.03555,-0.07721,-0.01144,-0.00168,-0.05249,-0.09369,-0.00336,-0.03525,-0.02411,0.00061,-0.05081
9.691,-0.0415,-0.0032,0.00229,-0.36362,-0.02625,0.03738,-0.0824,-0.0209,-0.00381,-0.047,-0.14664,-0.00534,-0.03662,-0.0235,-0.00031,-0.05096
9.6915,-0.04105,0.00824,0.01724,-0.38544,-0.06302,0.02197,-0.08759,-0.03235,-0.00977,-0.03983,-0.1683,-0.00778,-0.03754,-0.0235,0.00092,-0.05341
9.692,-0.04196,0.00916,0.02701,-0.32318,-0.10986,0.00748,-0.09094,-0.03876,-0.01404,-0.03647,-0.14069,-0.0087,-0.03876,-0.02441,0.00885,-0.05478
9.6925,-0.04181,0.00031,0.02243,-0.21774,-0.14923,-0.00931,-0.09354,-0.03754,-0.01343,-0.03204,-0.08835,-0.00854,-0.03952,-0.0264,0.02258,-0.05203
9.693,-0.04333,-0.01511,0.00504,-0.10925,-0.15121,-0.0415,-0.09369,-0.02899,-0.00748,-0.02579,-0.04822,-0.00763,-0.03906,-0.02762,0.03815,-0.04196
9.6935,-0.04868,-0.03403,-0.01801,-0.01266,-0.11734,-0.08209,-0.09445,-0.01556,-0.00015,-0.01801,-0.03342,-0.00351,-0.0383,-0.02853,0.05142,-0.02914
9.694,-0.056,-0.04852,-0.03815,0.05798,-0.07553,-0.10208,-0.09521,-0.00153,0.00153,-0.01251,-0.03113,0.00244,-0.03876,-0.02869,0.05753,-0.01816
9.6945,-0.06104,-0.0563,-0.05249,0.0769,-0.04547,-0.08835,-0.09674,0.00839,-0.00473,-0.01343,-0.02441,0.0058,-0.0412,-0.02884,0.05722,-0.01083
9.695,-0.06592,-0.05905,-0.0592,0.0354,-0.02808,-0.0618,-0.09613,0.00671,-0.01816,-0.0087,-0.00931,0.00519,-0.04181,-0.02991,0.05173,-0.00534
9.6955,-0.06851,-0.06149,-0.0563,-0.03922,-0.01953,-0.05112,-0.09277,-0.00412,-0.03387,-0.00488,0.00198,0.00244,-0.04074,-0.03067,0.0444,-0.00183
9.696,-0.0647,-0.06317,-0.04669,-0.09705,-0.01709,-0.06088,-0.08789,-0.01556,-0.04761,0.00351,0.00504,0.00076,-0.03952,-0.03082,0.03754,-0.00183
9.6965,-0.05417,-0.06149,-0.03784,-0.10971,-0.01602,-0.08179,-0.08423,-0.01953,-0.05569,0.00854,0.00687,0.00122,-0.03815,-0.03021,0.03433,-0.00717
9.697,-0.04257,-0.05676,-0.03311,-0.08881,-0.01251,-0.10651,-0.0798,-0.01877,-0.0563,0.01068,0.01877,0.0032,-0.03494,-0.02594,0.03296,-0.01495
9.6975,-0.03479,-0.05112,-0.03006,-0.06195,-0.00656,-0.12405,-0.07309,-0.01785,-0.05157,0.0145,0.03815,0.00656,-0.02945,-0.01648,0.03159,-0.01511
9.698,-0.03113,-0.0444,-0.02991,-0.03967,-0.00076,-0.12131,-0.06546,-0.01892,-0.04684,0.01541,0.05142,0.00748,-0.02304,-0.00351,0.02716,-0.00427
9.6985,-0.02792,-0.0354,-0.03479,-0.01404,0.00214,-0.09735,-0.0589,-0.01999,-0.0444,0.01602,0.05157,0.00656,-0.0177,0.00763,0.02457,0.00916
9.699,-0.02274,-0.02716,-0.0473,0.0174,0.00565,-0.07187,-0.05295,-0.01907,-0.04303,0.0148,0.0412,0.00641,-0.01678,0.01175,0.02518,0.01114
9.6995,-0.01556,-0.02411,-0.05844,0.04333,0.01221,-0.05951,-0.04578,-0.01511,-0.03891,0.00183,0.02335,0.00885,-0.01953,0.00732,0.0238,-0.00336
9.7,-0.00916,-0.02701,-0.06454,0.04471,0.02151,-0.05585,-0.03555,-0.00793,-0.03159,-0.01724,-0.0029,0.01007,-0.02289,0.0,0.01297,-0.02594
9.7005,-0.00366,-0.0296,-0.06104,0.01785,0.02838,-0.05508,-0.02472,-0.00122,-0.02228,-0.03845,-0.03372,0.00793,-0.02411,-0.00656,-0.00351,-0.04471
9.701,-0.00214,-0.02945,-0.04959,-0.0177,0.03082,-0.05447,-0.01633,0.00107,-0.01495,-0.05493,-0.04868,0.00275,-0.02396,-0.00946,-0.01617,-0.06104
9.7015,-0.00366,-0.02777,-0.03922,-0.03586,0.02914,-0.05325,-0.01099,0.0,-0.01205,-0.06317,-0.03937,-0.00122,-0.02533,-0.01053,-0.01938,-0.07797
9.702,-0.00351,-0.03021,-0.04211,-0.0325,0.02838,-0.05356,-0.00748,-0.00107,-0.01404,-0.06363,-0.01938,-0.00061,-0.02838,-0.01099,-0.0148,-0.09171
9.7025,0.00244,-0.03754,-0.05753,-0.02426,0.02472,-0.05585,-0.0032,-0.00351,-0.01587,-0.05905,-0.00626,0.00381,-0.03036,-0.01221,-0.00946,-0.09766
9.703,0.01205,-0.04883,-0.07385,-0.02686,0.01678,-0.05951,0.00244,-0.00839,-0.01511,-0.04944,-0.0029,0.00824,-0.03067,-0.01373,-0.00778,-0.11246
9.7035,0.02121,-0.05951,-0.07874,-0.03632,0.00473,-0.06119,0.0061,-0.01312,-0.0119,-0.03906,0.00153,0.01175,-0.03006,-0.01404,-0.01419,-0.16144
9.704,0.02762,-0.06287,-0.0708,-0.04242,-0.00961,-0.06027,0.00656,-0.0145,-0.00854,-0.02686,0.01038,0.01297,-0.03006,-0.01266,-0.0235,-0.224
9.7045,0.03448,-0.05814,-0.05508,-0.03998,-0.02533,-0.05966,0.0058,-0.01236,-0.00702,-0.01343,0.01663,0.01221,-0.03159,-0.01251,-0.02457,-0.22339
9.705,0.04211,-0.04959,-0.03647,-0.03006,-0.04288,-0.06134,0.00488,-0.00885,-0.00702,0.00244,0.01831,0.01038,-0.03448,-0.01373,-0.01587,-0.11154
9.7055,0.05066,-0.03983,-0.01419,-0.01678,-0.05341,-0.06226,0.00717,-0.00519,-0.00824,0.01541,0.01846,0.00931,-0.03632,-0.01572,-0.00305,0.04791
9.706,0.05692,-0.03082,0.00198,-0.00381,-0.04471,-0.05844,0.00946,-0.00153,-0.00885,0.02609,0.01785,0.00854,-0.0383,-0.01755,0.00504,0.13519
9.7065,0.05814,-0.02701,0.00046,0.00519,-0.02014,-0.04761,0.0119,0.00198,-0.00839,0.02747,0.01785,0.00992,-0.03998,-0.01801,0.00671,0.10269
9.707,0.05325,-0.03189,-0.0177,0.0061,0.00946,-0.03281,0.01251,0.00565,-0.00626,0.01892,0.0174,0.01328,-0.04044,-0.01923,0.00534,0.01114
9.7075,0.04349,-0.04257,-0.02777,-0.00626,0.0351,-0.02045,0.01144,0.00748,-0.00504,0.00214,0.01678,0.01648,-0.03906,-0.0209,0.00214,-0.0621
9.708,0.03326,-0.05173,-0.00793,-0.03052,0.04944,-0.01617,0.01007,0.00641,-0.0058,-0.0148,0.01495,0.01755,-0.0383,-0.02167,-0.00214,-0.09583
9.7085,0.02823,-0.05814,0.02853,-0.05127,0.05096,-0.01831,0.00961,0.00336,-0.00702,-0.02747,0.00992,0.01541,-0.0386,-0.01999,-0.00412,-0.10254
9.709,0.03128,-0.06943,0.05508,-0.0531,0.04303,-0.02136,0.00748,0.00244,-0.00717,-0.03357,0.00336,0.01114,-0.04013,-0.0177,-0.00031,-0.08987
9.7095,0.03723,-0.08438,0.05539,-0.03571,0.03952,-0.02167,0.00595,0.00519,-0.00748,-0.03479,-0.00259,0.00687,-0.04028,-0.01648,0.00671,-0.06485
9.71,0.04196,-0.09094,0.03143,-0.01495,0.03769,-0.02014,0.00305,0.00992,-0.00885,-0.03281,-0.00809,0.00351,-0.03876,-0.01709,0.00992,-0.04196
9.7105,0.04578,-0.08194,-0.0032,0.00198,0.02167,-0.0177,-0.00061,0.01038,-0.01068,-0.02808,-0.01541,0.00229,-0.03784,-0.01862,0.00488,-0.03372
9.711,0.05051,-0.06516,-0.03586,0.01694,-0.0148,-0.0174,-0.00534,0.00702,-0.01328,-0.02472,-0.02396,0.00412,-0.03723,-0.01877,-0.00198,-0.03799
9.7115,0.05783,-0.05219,-0.04929,0.03403,-0.06363,-0.01999,-0.0087,0.00336,-0.01328,-0.02457,-0.03174,0.00656,-0.03708,-0.01831,-0.00381,-0.04654
9.712,0.06409,-0.04318,-0.04166,0.0528,-0.10193,-0.02655,-0.0119,0.00198,-0.01144,-0.02808,-0.03387,0.00717,-0.03708,-0.01801,-0.00046,-0.05432
9.7125,0.06973,-0.03571,-0.02258,0.06744,-0.10422,-0.03494,-0.01419,0.00092,-0.01038,-0.03372,-0.03159,0.00687,-0.03647,-0.01816,0.00351,-0.0618
9.713,0.07416,-0.03098,-0.01114,0.06912,-0.07233,-0.04181,-0.01572,-0.00046,-0.01129,-0.0354,-0.0296,0.00595,-0.03647,-0.01862,0.00534,-0.06729
9.7135,0.07736,-0.02686,-0.01999,0.05768,-0.03403,-0.04364,-0.01678,0.00061,-0.01495,-0.03693,-0.02869,0.00702,-0.03662,-0.02014,0.00595,-0.065
9.714,0.07889,-0.01938,-0.04623,0.04135,-0.01556,-0.04044,-0.01572,0.00519,-0.01862,-0.03815,-0.02686,0.00748,-0.03876,-0.02075,0.00626,-0.05554
9.7145,0.07828,-0.00748,-0.07339,0.02136,-0.01663,-0.03586,-0.01526,0.00992,-0.01785,-0.04059,-0.02472,0.00732,-0.03983,-0.02014,0.009,-0.047
9.715,0.07889,0.00214,-0.08911,-0.01068,-0.01907,-0.03403,-0.01785,0.00931,-0.01572,-0.04288,-0.02274,0.00671,-0.03845,-0.01846,0.01007,-0.04349
9.7155,0.08286,0.00671,-0.09033,-0.05905,-0.01465,-0.0351,-0.02319,0.00244,-0.01617,-0.04425,-0.02258,0.00687,-0.03677,-0.01678,0.00916,-0.04486
9.716,0.08545,0.00824,-0.08057,-0.10345,0.00046,-0.03708,-0.02579,-0.00534,-0.01923,-0.0441,-0.02289,0.0061,-0.03677,-0.01648,0.00671,-0.04776
9.7165,0.08392,0.01129,-0.06104,-0.11841,0.03357,-0.03723,-0.02502,-0.00854,-0.02106,-0.04181,-0.02441,0.00504,-0.03754,-0.01755,0.00504,-0.04745
9.717,0.07599,0.0119,-0.04044,-0.0946,0.0824,-0.0354,-0.02243,-0.00793,-0.0209,-0.03967,-0.0264,0.00412,-0.03784,-0.01831,0.00473,-0.04166
9.7175,0.06821,0.00671,-0.03098,-0.04669,0.12299,-0.03174,-0.01892,-0.00793,-0.01877,-0.0383,-0.02533,0.00473,-0.03754,-0.01846,0.00656,-0.03418
9.718,0.065,-0.00519,-0.03616,-0.00031,0.12238,-0.02884,-0.01617,-0.01068,-0.01862,-0.03433,-0.02121,0.00549,-0.03601,-0.01694,0.01053,-0.02731
9.7185,0.06546,-0.01816,-0.05005,0.02609,0.07156,-0.02853,-0.01389,-0.01617,-0.01984,-0.02716,-0.01709,0.00504,-0.0351,-0.01511,0.01358,-0.02472
9.719,0.06516,-0.0296,-0.05615,0.0325,-0.00961,-0.03128,-0.01144,-0.01709,-0.02197,-0.01938,-0.01617,0.00351,-0.03555,-0.01373,0.01648,-0.03616
9.7195,0.06149,-0.04044,-0.04608,0.0322,-0.09155,-0.03586,-0.00931,-0.01373,-0.02121,-0.01465,-0.01633,0.00336,-0.03632,-0.01419,0.01724,-0.06866
9.72,0.05539,-0.05234,-0.02914,0.03448,-0.15472,-0.04059,-0.00839,-0.01389,-0.01816,-0.01236,-0.0174,0.00687,-0.03571,-0.0145,0.01953,-0.10559
9.7205,0.04944,-0.06775,-0.01846,0.03494,-0.19333,-0.04761,-0.00824,-0.02365,-0.01343,-0.00412,-0.01892,0.01251,-0.0351,-0.01404,0.02274,-0.12405
9.721,0.04578,-0.08713,-0.01892,0.02411,-0.21729,-0.05478,-0.00793,-0.03983,-0.009,0.0058,-0.02411,0.01663,-0.03586,-0.0119,0.02838,-0.11795
9.7215,0.04593,-0.10818,-0.02274,0.00427,-0.21973,-0.05905,-0.0061,-0.05325,-0.00488,0.00916,-0.02884,0.01694,-0.03677,-0.01129,0.03479,-0.08316
9.722,0.04883,-0.12222,-0.02579,-0.02213,-0.17609,-0.05554,-0.00534,-0.06058,-0.00305,-0.00031,-0.02884,0.01541,-0.03662,-0.01297,0.04135,-0.00397
9.7225,0.0528,-0.121,-0.02548,-0.05875,-0.08575,-0.04517,-0.00565,-0.06409,-0.00702,-0.0148,-0.02457,0.0145,-0.03525,-0.01556,0.04486,0.10101
9.723,0.05402,-0.10651,-0.02625,-0.09918,0.00748,-0.03387,-0.00763,-0.06592,-0.01343,-0.02731,-0.01953,0.01251,-0.03326,-0.01663,0.04333,0.15808
9.7235,0.05112,-0.08835,-0.02899,-0.12344,0.05936,-0.02716,-0.00778,-0.06165,-0.02014,-0.03433,-0.01663,0.00885,-0.03204,-0.01663,0.03296,0.12161
9.724,0.04501,-0.07034,-0.03265,-0.11459,0.06592,-0.02853,-0.00565,-0.05432,-0.02686,-0.04166,-0.01526,0.00427,-0.0296,-0.01602,0.01846,0.04379
9.7245,0.03876,-0.05035,-0.03433,-0.06805,0.04944,-0.03677,-0.00366,-0.04868,-0.03143,-0.04929,-0.01511,0.00153,-0.02792,-0.01617,0.01038,0.00275
9.725,0.03204,-0.02899,-0.03525,0.01526,0.02762,-0.04623,-0.00168,-0.0502,-0.03372,-0.05676,-0.01328,0.00122,-0.0267,-0.01709,0.01358,0.01099
9.7255,0.02808,-0.01038,-0.0386,0.11444,0.0061,-0.05188,0.00107,-0.05478,-0.03342,-0.06195,-0.01038,0.00305,-0.02655,-0.01633,0.0235,0.02411
9.726,0.02502,0.00259,-0.04532,0.17273,-0.00549,-0.05203,0.00412,-0.05646,-0.03265,-0.06592,-0.00931,0.00641,-0.02716,-0.0145,0.02548,0.01129
9.7265,0.02197,0.00992,-0.05707,0.13687,-0.00214,-0.04822,0.0032,-0.05371,-0.03265,-0.0679,-0.00946,0.01038,-0.02792,-0.01358,0.01053,-0.01862
9.727,0.0206,0.01266,-0.06973,0.01266,0.00214,-0.04181,-0.00107,-0.05066,-0.03616,-0.06683,-0.0145,0.0148,-0.02899,-0.01526,-0.01221,-0.04761
9.7275,0.02075,0.00992,-0.07935,-0.12451,-0.01266,-0.03769,-0.00458,-0.05127,-0.04044,-0.06378,-0.02243,0.01785,-0.02975,-0.01755,-0.02197,-0.06882
9.728,0.0209,-0.00107,-0.08362,-0.20554,-0.03189,-0.03998,-0.00473,-0.05127,-0.04211,-0.05569,-0.03082,0.01892,-0.03159,-0.01892,-0.0145,-0.08362
9.7285,0.01785,-0.01617,-0.07782,-0.22263,-0.03265,-0.0441,-0.00259,-0.04669,-0.0383,-0.03784,-0.03372,0.01526,-0.03479,-0.01846,-0.00763,-0.09384
9.729,0.01419,-0.02457,-0.0621,-0.22385,-0.01968,-0.0444,-0.00214,-0.03647,-0.02899,-0.01068,-0.03067,0.00732,-0.03708,-0.01785,-0.02182,-0.10178
9.7295,0.01328,-0.02335,-0.04272,-0.24796,-0.02411,-0.04028,-0.00458,-0.02777,-0.01785,0.01923,-0.02426,0.00107,-0.03662,-0.01678,-0.04395,-0.10315
9.73,0.01328,-0.02121,-0.02777,-0.28748,-0.05646,-0.03662,-0.00717,-0.02396,-0.00992,0.03998,-0.01923,0.0,-0.0322,-0.01633,-0.04547,-0.08896
9.7305,0.00916,-0.02945,-0.02228,-0.30014,-0.09521,-0.03754,-0.00778,-0.02213,-0.00656,0.04761,-0.01526,0.00244,-0.0293,-0.01572,-0.02319,-0.06271
9.731,0.00092,-0.05051,-0.02182,-0.26077,-0.11856,-0.0412,-0.0061,-0.0148,-0.00534,0.04486,-0.01068,0.00534,-0.02777,-0.01434,0.00153,-0.0383
9.7315,-0.00702,-0.07507,-0.02167,-0.19012,-0.12054,-0.04547,-0.00519,-0.00351,-0.00549,0.0441,-0.00732,0.00854,-0.02838,-0.01266,0.01251,-0.02853
9.732,-0.01099,-0.08987,-0.02029,-0.12619,-0.12695,-0.04944,-0.00626,0.00488,-0.00641,0.04211,-0.0061,0.00992,-0.02808,-0.01221,0.0119,-0.0322
9.7325,-0.01312,-0.0856,-0.01633,-0.08591,-0.15274,-0.05402,-0.0058,0.00839,-0.00656,0.03143,-0.0061,0.00778,-0.02792,-0.01236,0.01114,-0.03799
9.733,-0.01678,-0.06454,-0.00961,-0.06134,-0.17303,-0.05905,-0.00351,0.009,-0.00488,0.00977,-0.00702,0.00351,-0.02747,-0.01358,0.01266,-0.03616
9.7335,-0.02548,-0.04135,-0.00229,-0.03082,-0.1416,-0.06287,-0.00031,0.01129,-0.00336,-0.01099,-0.00839,0.00153,-0.02731,-0.01404,0.01053,-0.02502
9.734,-0.03586,-0.02884,0.00229,0.03448,-0.06714,-0.06531,0.00198,0.01282,-0.00443,-0.02029,-0.00916,0.00183,-0.02609,-0.01297,0.0,-0.01144
9.7345,-0.04349,-0.02899,0.00412,0.14786,-0.0174,-0.06989,0.0032,0.01129,-0.00732,-0.02213,-0.009,0.00443,-0.02625,-0.01205,-0.01282,-0.00473
9.735,-0.04898,-0.03464,0.00519,0.27161,-0.02289,-0.07996,0.00427,0.01007,-0.01053,-0.0209,-0.00916,0.00839,-0.02823,-0.0145,-0.02243,-0.00458
9.7355,-0.05615,-0.04395,0.00534,0.33356,-0.04272,-0.08896,0.00443,0.01083,-0.0119,-0.02136,-0.00961,0.01282,-0.03128,-0.01877,-0.02884,-0.00519
9.736,-0.06302,-0.05661,0.00824,0.29755,-0.0325,-0.08575,0.0029,0.01358,-0.01221,-0.02274,-0.00946,0.01572,-0.03357,-0.02014,-0.03387,-0.01038
9.7365,-0.06454,-0.07034,0.00977,0.20309,-0.00687,-0.07156,0.0,0.02319,-0.01099,-0.02335,-0.00931,0.01663,-0.03555,-0.01938,-0.03265,-0.03082
9.737,-0.06271,-0.08179,0.01022,0.12146,0.00549,-0.05447,-0.00351,0.04837,-0.01022,-0.02396,-0.009,0.0148,-0.0351,-0.01907,-0.0174,-0.07309
9.7375,-0.0621,-0.09003,0.00748,0.07431,0.00885,-0.04257,-0.0058,0.08347,-0.01007,-0.02533,-0.01038,0.01144,-0.03464,-0.01938,0.00748,-0.12619
9.738,-0.06531,-0.09399,-0.00046,0.0206,0.01022,-0.03586,-0.00626,0.10254,-0.00977,-0.02533,-0.01053,0.01022,-0.03418,-0.01984,0.02853,-0.16571
9.7385,-0.06927,-0.09262,-0.02014,-0.07065,-0.00793,-0.03281,-0.00595,0.08316,-0.00961,-0.02563,-0.00885,0.0116,-0.03464,-0.01938,0.03632,-0.17288
9.739,-0.07004,-0.08713,-0.04562,-0.15472,-0.05829,-0.03174,-0.00427,0.03616,-0.00946,-0.02594,-0.00824,0.01328,-0.03571,-0.01999,0.03265,-0.15335
9.7395,-0.06775,-0.0795,-0.0708,-0.16357,-0.12161,-0.03845,-0.00351,-0.01022,-0.00885,-0.02716,-0.00946,0.01373,-0.03677,-0.02075,0.0238,-0.12527
9.74,-0.06424,-0.0705,-0.08484,-0.09445,-0.17212,-0.05188,-0.00168,-0.03937,-0.00854,-0.02686,-0.0116,0.01328,-0.03769,-0.02182,0.01587,-0.10056
9.7405,-0.05951,-0.06073,-0.08865,-0.00107,-0.20294,-0.06638,0.00015,-0.05539,-0.00839,-0.02579,-0.01144,0.01221,-0.03662,-0.02304,0.01144,-0.0798
9.741,-0.05402,-0.04532,-0.08835,0.08072,-0.22217,-0.07278,0.00107,-0.06149,-0.00839,-0.02472,-0.01083,0.01068,-0.03479,-0.0235,0.01007,-0.05798
9.7415,-0.04593,-0.02457,-0.0943,0.15213,-0.22125,-0.06927,0.00168,-0.05875,-0.01007,-0.02304,-0.00931,0.00977,-0.03265,-0.02274,0.01129,-0.0354
9.742,-0.03723,-0.00519,-0.10696,0.2182,-0.18082,-0.05676,0.00031,-0.04929,-0.01404,-0.02182,-0.00961,0.01099,-0.03159,-0.02151,0.01175,-0.02304
9.7425,-0.02899,0.00397,-0.11322,0.25482,-0.09674,-0.04196,-0.00183,-0.04013,-0.02029,-0.02121,-0.01129,0.01297,-0.03159,-0.02136,0.01312,-0.02625
9.743,-0.02258,0.00275,-0.10559,0.23254,0.00061,-0.02975,-0.00458,-0.03403,-0.02563,-0.02075,-0.0116,0.01358,-0.03326,-0.02289,0.01404,-0.03983
9.7435,-0.01938,-0.00229,-0.09262,0.15625,0.0618,-0.02274,-0.00656,-0.02869,-0.02625,-0.02213,-0.01007,0.01251,-0.03525,-0.02365,0.01358,-0.05249
9.744,-0.01846,-0.00168,-0.08392,0.06546,0.06348,-0.02121,-0.00824,-0.01862,-0.02258,-0.02487,-0.00641,0.01099,-0.03571,-0.02396,0.0119,-0.05295
9.7445,-0.02029,0.00809,-0.06729,-0.00443,0.02411,-0.02319,-0.00824,-0.00473,-0.01831,-0.02823,-0.00336,0.01175,-0.03494,-0.02304,0.01129,-0.04471
9.745,-0.02594,0.02274,-0.02686,-0.05157,-0.02289,-0.02823,-0.00778,0.00961,-0.01572,-0.02853,-0.00168,0.01358,-0.03479,-0.0209,0.01831,-0.03723
9.7455,-0.03326,0.03281,0.0238,-0.08286,-0.05005,-0.03342,-0.00717,0.01907,-0.01511,-0.0293,-0.00244,0.01434,-0.03571,-0.02075,0.03281,-0.03464
9.746,-0.04135,0.0354,0.06287,-0.09476,-0.04745,-0.03647,-0.00946,0.02472,-0.01556,-0.03143,-0.00458,0.01465,-0.03601,-0.02243,0.04303,-0.0351
9.7465,-0.04761,0.03433,0.08514,-0.08347,-0.02533,-0.03876,-0.01236,0.02579,-0.01617,-0.03403,-0.00854,0.01602,-0.03448,-0.02411,0.03967,-0.03494
9.747,-0.05142,0.03387,0.09857,-0.06271,-0.00336,-0.0415,-0.01266,0.0235,-0.0177,-0.03448,-0.01343,0.01694,-0.03235,-0.02411,0.02609,-0.03433
9.7475,-0.05402,0.03052,0.10071,-0.05005,0.00732,-0.04623,-0.01099,0.02029,-0.01907,-0.03265,-0.01877,0.01617,-0.03113,-0.02319,0.01541,-0.03372
9.748,-0.0563,0.01862,0.07935,-0.04791,0.01373,-0.05081,-0.01114,0.02045,-0.02045,-0.02884,-0.02274,0.01343,-0.03235,-0.02182,0.01419,-0.03357
9.7485,-0.05905,-0.00443,0.03952,-0.04105,0.03326,-0.05432,-0.01221,0.02441,-0.02228,-0.02762,-0.02289,0.00977,-0.03342,-0.02121,0.01602,-0.03372
9.749,-0.06195,-0.0322,0.0,0.00183,0.05859,-0.05615,-0.01343,0.02548,-0.02319,-0.02792,-0.01892,0.00809,-0.03174,-0.02167,0.01541,-0.0322
9.7495,-0.05966,-0.05478,-0.02869,0.10498,0.06989,-0.05676,-0.01251,0.0209,-0.02365,-0.02686,-0.01389,0.00793,-0.02777,-0.02167,0.01419,-0.02838
9.75,-0.05203,-0.0618,-0.04395,0.22781,0.05249,-0.05646,-0.01007,0.01236,-0.0235,-0.02365,-0.01205,0.00946,-0.02487,-0.02121,0.01343,-0.02396
9.7505,-0.04059,-0.05554,-0.05066,0.28061,0.0174,-0.05646,-0.01007,0.00763,-0.02518,-0.02106,-0.0145,0.01129,-0.02472,-0.01938,0.01205,-0.02274
9.751,-0.02991,-0.0473,-0.04852,0.21606,-0.01968,-0.05585,-0.01358,0.01175,-0.02472,-0.01999,-0.0174,0.01251,-0.02365,-0.01801,0.00809,-0.02747
9.7515,-0.0238,-0.04242,-0.04562,0.08865,-0.05127,-0.05539,-0.01892,0.02106,-0.02197,-0.01968,-0.01816,0.01266,-0.02136,-0.01801,0.00397,-0.03143
9.752,-0.02243,-0.04211,-0.05066,-0.00549,-0.07782,-0.05432,-0.02182,0.03067,-0.01892,-0.02151,-0.01587,0.01068,-0.01999,-0.01801,0.00351,-0.03204
9.7525,-0.02304,-0.04318,-0.06683,-0.02213,-0.09521,-0.05157,-0.02289,0.0386,-0.01633,-0.0209,-0.01633,0.00824,-0.01938,-0.01709,0.00473,-0.02853
9.753,-0.02411,-0.0441,-0.08484,0.01373,-0.09369,-0.05035,-0.02289,0.04288,-0.01602,-0.02121,-0.01862,0.00778,-0.01892,-0.01602,0.00092,-0.02655
9.7535,-0.02655,-0.05066,-0.09811,0.05356,-0.06561,-0.04883,-0.02289,0.04272,-0.01556,-0.01953,-0.01907,0.00763,-0.01877,-0.01556,-0.00748,-0.02655
9.754,-0.03143,-0.06485,-0.10483,0.056,-0.02365,-0.04623,-0.02319,0.03769,-0.0148,-0.01694,-0.01663,0.00717,-0.01846,-0.01648,-0.01266,-0.02823
9.7545,-0.03601,-0.07965,-0.10376,-0.00473,0.01205,-0.04105,-0.02228,0.0322,-0.01328,-0.0145,-0.01511,0.00565,-0.01938,-0.01785,-0.01282,-0.02899
9.755,-0.0412,-0.08591,-0.09323,-0.11963,0.0267,-0.03494,-0.02075,0.03067,-0.01221,-0.01266,-0.01541,0.00366,-0.02106,-0.01923,-0.01328,-0.03021
9.7555,-0.04807,-0.08331,-0.07324,-0.22919,0.02747,-0.0267,-0.02045,0.03204,-0.01389,-0.0119,-0.01572,0.00259,-0.02335,-0.02014,-0.01984,-0.03174
9.756,-0.05692,-0.07645,-0.0444,-0.26398,0.02457,-0.01846,-0.02121,0.03418,-0.01556,-0.01205,-0.01587,0.00351,-0.02625,-0.02136,-0.03296,-0.03189
9.7565,-0.06561,-0.06897,-0.01282,-0.21317,0.02289,-0.01694,-0.02106,0.03525,-0.01663,-0.01251,-0.01434,0.00412,-0.02777,-0.0206,-0.04791,-0.03204
9.757,-0.07217,-0.06226,0.00397,-0.1326,0.01923,-0.02289,-0.0206,0.03647,-0.01587,-0.01404,-0.01282,0.0061,-0.03067,-0.01862,-0.05783,-0.03372
9.7575,-0.07385,-0.0589,-0.00046,-0.08041,0.01404,-0.03265,-0.01984,0.03891,-0.01434,-0.0145,-0.01282,0.0058,-0.0351,-0.01801,-0.05081,-0.03723
9.758,-0.06943,-0.05936,-0.01495,-0.0676,0.00916,-0.03998,-0.01907,0.04044,-0.01282,-0.01511,-0.01373,0.00412,-0.03876,-0.01877,-0.009,-0.03891
9.7585,-0.05951,-0.06393,-0.02518,-0.07156,0.00946,-0.04272,-0.01892,0.04074,-0.01251,-0.01343,-0.01495,0.00275,-0.03967,-0.01923,0.0679,-0.03952
9.759,-0.04745,-0.06653,-0.0293,-0.07233,0.01053,-0.04318,-0.0177,0.03815,-0.01175,-0.01389,-0.01572,0.00168,-0.03876,-0.01862,0.13336,-0.03769
9.7595,-0.03448,-0.0647,-0.03464,-0.06622,0.00992,-0.04257,-0.01541,0.02396,-0.0116,-0.01312,-0.01511,0.0029,-0.03723,-0.01755,0.13916,-0.0354
9.76,-0.02167,-0.05783,-0.04379,-0.05981,0.00809,-0.0415,-0.01328,-0.0174,-0.01068,-0.01343,-0.01434,0.00458,-0.03754,-0.01587,0.0943,-0.03326
9.7605,-0.01007,-0.04883,-0.04654,-0.0563,0.00702,-0.04059,-0.01373,-0.07843,-0.00961,-0.01465,-0.01358,0.00504,-0.03845,-0.01572,0.05417,-0.0325
9.761,-0.0032,-0.03723,-0.03876,-0.05295,0.00671,-0.0386,-0.0145,-0.12253,-0.009,-0.01816,-0.01511,0.00519,-0.03784,-0.01648,0.04517,-0.03479
9.7615,-0.00183,-0.02686,-0.03143,-0.04852,0.00565,-0.03906,-0.01236,-0.11414,-0.00839,-0.02518,-0.01709,0.00519,-0.03708,-0.01694,0.04471,-0.03723
9.762,-0.00381,-0.02319,-0.03265,-0.0441,0.00366,-0.04242,-0.00824,-0.06378,-0.0087,-0.03082,-0.01923,0.00504,-0.03632,-0.0174,0.0296,-0.03769
9.7625,-0.00488,-0.02975,-0.03998,-0.04044,0.00015,-0.0473,-0.00519,-0.01038,-0.00946,-0.03235,-0.01923,0.00305,-0.03708,-0.0177,0.01053,-0.03647
9.763,-0.00641,-0.03952,-0.04562,-0.0351,-0.00351,-0.0499,-0.00534,0.02319,-0.01007,-0.03021,-0.01785,0.00122,-0.03708,-0.01694,0.00153,-0.03647
9.7635,-0.00656,-0.04715,-0.04761,-0.02823,-0.0032,-0.04959,-0.00854,0.03876,-0.01007,-0.02609,-0.01862,-0.00046,-0.03616,-0.01572,0.00229,-0.03677
9.764,-0.00732,-0.05112,-0.04822,-0.02197,0.00885,-0.04837,-0.01053,0.04974,-0.00992,-0.0264,-0.01816,-0.00198,-0.0351,-0.0145,0.00381,-0.03632
9.7645,-0.00793,-0.05219,-0.04868,-0.02014,0.03113,-0.04807,-0.01114,0.06256,-0.01083,-0.02472,-0.01617,-0.00336,-0.03494,-0.01434,0.00137,-0.03601
9.765,-0.00809,-0.05402,-0.04807,-0.01907,0.05112,-0.04776,-0.01373,0.07217,-0.01251,-0.02213,-0.0145,-0.00534,-0.03708,-0.01587,0.00046,-0.03677
9.7655,-0.00839,-0.06241,-0.04669,-0.01877,0.04868,-0.04837,-0.02045,0.0708,-0.01541,-0.01678,-0.01328,-0.00656,-0.0386,-0.01755,-0.00015,-0.03967
9.766,-0.00824,-0.0795,-0.04425,-0.01892,0.02365,-0.04822,-0.02991,0.06226,-0.01694,-0.00687,-0.01297,-0.00748,-0.04044,-0.01816,-0.00015,-0.04059
9.7665,-0.00702,-0.09537,-0.04028,-0.02197,-0.00427,-0.04745,-0.03494,0.04822,-0.01709,0.00076,-0.01404,-0.00885,-0.04135,-0.01862,-0.00076,-0.03998
9.767,-0.00656,-0.09674,-0.0351,-0.0235,-0.01816,-0.04669,-0.03403,0.02151,-0.01755,0.00626,-0.01526,-0.01038,-0.0415,-0.01923,-0.00046,-0.04044
9.7675,-0.0087,-0.08194,-0.03143,-0.02182,-0.01846,-0.04745,-0.03143,-0.01526,-0.01877,0.00839,-0.01572,-0.01297,-0.04135,-0.02029,0.00107,-0.04105
9.768,-0.01266,-0.06119,-0.02991,-0.01633,-0.01434,-0.04959,-0.02716,-0.04486,-0.01953,0.00839,-0.0148,-0.01495,-0.0412,-0.01999,0.00214,-0.04166
9.7685,-0.01495,-0.0415,-0.0325,-0.01144,-0.01984,-0.05264,-0.02045,-0.05005,-0.01923,0.00763,-0.01297,-0.01648,-0.03998,-0.01801,0.00244,-0.04181
9.769,-0.0145,-0.0238,-0.03616,-0.00809,-0.03815,-0.05524,-0.01144,-0.03479,-0.01923,0.00702,-0.01251,-0.01541,-0.03845,-0.0177,0.00305,-0.04105
9.7695,-0.01236,-0.00839,-0.03891,-0.00458,-0.0499,-0.05463,-0.0058,-0.01907,-0.01999,0.00443,-0.01328,-0.01236,-0.03754,-0.01816,0.00366,-0.03952
9.77,-0.01114,0.00229,-0.03708,-0.00153,-0.03296,-0.05356,-0.0061,-0.0177,-0.02151,-0.00031,-0.01541,-0.01068,-0.03799,-0.0174,0.0032,-0.0383
9.7705,-0.01053,0.00824,-0.03189,0.00046,-0.00046,-0.05112,-0.01617,-0.02838,-0.02228,-0.00641,-0.01465,-0.01099,-0.03845,-0.01617,0.00275,-0.03799
9.771,-0.01144,0.0119,-0.02518,0.00153,0.01266,-0.0499,-0.03601,-0.03662,-0.02167,-0.01373,-0.01236,-0.01038,-0.03738,-0.01434,0.00229,-0.03845
9.7715,-0.01465,0.00839,-0.01953,0.00137,-0.00595,-0.0528,-0.05371,-0.03784,-0.01999,-0.01907,-0.00824,-0.00839,-0.0351,-0.01358,0.00259,-0.03922
9.772,-0.0209,-0.00946,-0.01938,0.00046,-0.03494,-0.05585,-0.05096,-0.03113,-0.01923,-0.02457,-0.00549,-0.0058,-0.03204,-0.01404,0.00275,-0.03922
9.7725,-0.02899,-0.0386,-0.02472,0.0,-0.04929,-0.05737,-0.02945,-0.01938,-0.01785,-0.02975,-0.00656,-0.00488,-0.03143,-0.01526,0.00122,-0.04044
9.773,-0.03616,-0.06119,-0.03235,0.00061,-0.0531,-0.056,-0.01007,-0.00961,-0.0145,-0.03342,-0.00809,-0.00565,-0.03296,-0.01587,0.00015,-0.04211
9.7735,-0.04242,-0.06454,-0.03677,0.00305,-0.06653,-0.05402,-0.00916,-0.00687,-0.01114,-0.03403,-0.00824,-0.00717,-0.03448,-0.01511,0.00015,-0.04257
9.774,-0.04791,-0.05386,-0.03418,0.00381,-0.10117,-0.05157,-0.01923,-0.00916,-0.009,-0.03433,-0.00793,-0.00732,-0.03281,-0.01389,0.00046,-0.0415
9.7745,-0.05035,-0.04425,-0.02808,0.00046,-0.14435,-0.05005,-0.02335,-0.00931,-0.00854,-0.03006,-0.00854,-0.00671,-0.03113,-0.01282,0.00137,-0.04135
9.775,-0.04837,-0.03967,-0.02411,-0.00565,-0.16174,-0.05035,-0.01938,-0.01053,-0.00961,-0.02594,-0.00839,-0.00595,-0.03159,-0.01312,0.00122,-0.04135
9.7755,-0.04333,-0.03571,-0.02502,-0.00977,-0.13184,-0.05096,-0.01465,-0.02441,-0.01053,-0.02365,-0.009,-0.00656,-0.03342,-0.01465,0.00153,-0.04166
9.776,-0.0386,-0.02945,-0.02716,-0.01022,-0.07675,-0.04974,-0.01602,-0.04639,-0.0119,-0.02213,-0.01068,-0.00656,-0.03479,-0.01633,0.00107,-0.0415
9.7765,-0.03525,-0.02762,-0.02823,-0.00793,-0.03876,-0.04776,-0.01892,-0.06042,-0.01282,-0.01953,-0.01205,-0.00687,-0.03494,-0.01709,0.00107,-0.03952
9.777,-0.03052,-0.03281,-0.02975,-0.00412,-0.03189,-0.04684,-0.01877,-0.05951,-0.01297,-0.01724,-0.01144,-0.00687,-0.03464,-0.01785,0.00092,-0.03891
9.7775,-0.02563,-0.04272,-0.03662,0.00061,-0.03616,-0.0473,-0.01694,-0.05081,-0.01282,-0.01541,-0.00961,-0.00671,-0.0354,-0.01816,0.00183,-0.03983
9.778,-0.02533,-0.0499,-0.04807,0.00366,-0.03479,-0.04669,-0.01785,-0.04395,-0.01282,-0.01526,-0.00992,-0.0061,-0.03601,-0.01877,0.00168,-0.04105
9.7785,-0.02914,-0.05051,-0.05341,0.00397,-0.02838,-0.04471,-0.01968,-0.03937,-0.01434,-0.01358,-0.01236,-0.0058,-0.03708,-0.01923,0.00244,-0.04196
9.779,-0.03082,-0.04562,-0.04837,0.00244,-0.02594,-0.04364,-0.01923,-0.03464,-0.0145,-0.01129,-0.01511,-0.00458,-0.03754,-0.01984,0.0032,-0.0412
9.7795,-0.02777,-0.03983,-0.03723,0.00168,-0.02808,-0.04364,-0.01556,-0.02853,-0.01434,-0.01022,-0.01633,-0.00244,-0.0354,-0.01938,0.00488,-0.04211
9.78,-0.02136,-0.03662,-0.0293,0.00214,-0.02991,-0.04501,-0.01175,-0.02289,-0.01297,-0.01144,-0.01572,-0.00061,-0.03387,-0.01892,0.00656,-0.04318
9.7805,-0.01907,-0.04059,-0.02548,0.00381,-0.03281,-0.04593,-0.00946,-0.01907,-0.01251,-0.01251,-0.01633,-0.00046,-0.03494,-0.01831,0.00732,-0.04471
9.781,-0.02274,-0.05112,-0.02701,0.00473,-0.0351,-0.04654,-0.00565,-0.01358,-0.01312,-0.01373,-0.01541,-0.00015,-0.03571,-0.01816,0.00641,-0.04395
9.7815,-0.02869,-0.06195,-0.03738,0.00488,-0.0351,-0.04547,0.00168,-0.0087,-0.01251,-0.0148,-0.01297,0.00183,-0.0351,-0.01816,0.00702,-0.04227
9.782,-0.03281,-0.06622,-0.06592,0.00443,-0.03052,-0.04486,0.00626,-0.00854,-0.01144,-0.01587,-0.01144,0.0032,-0.03464,-0.01953,0.00778,-0.0415
9.7825,-0.03098,-0.06241,-0.11765,0.00275,-0.0267,-0.04456,0.00198,-0.01114,-0.01114,-0.01648,-0.01282,0.00351,-0.03555,-0.01953,0.009,-0.04318
9.783,-0.02441,-0.05463,-0.16846,-0.00015,-0.02518,-0.04547,-0.01022,-0.00946,-0.01068,-0.01968,-0.01404,0.00214,-0.0351,-0.01846,0.00717,-0.04501
9.7835,-0.01556,-0.04883,-0.177,-0.00336,-0.02701,-0.04639,-0.02243,0.00107,-0.01053,-0.02258,-0.01556,0.00168,-0.03479,-0.01724,0.00748,-0.04547
9.784,-0.00854,-0.04562,-0.12955,-0.0058,-0.02869,-0.04623,-0.0322,0.0119,-0.00992,-0.02319,-0.01617,0.00443,-0.03464,-0.01724,0.00778,-0.04517
9.7845,-0.00183,-0.04288,-0.05096,-0.00763,-0.03006,-0.04608,-0.04135,0.01328,-0.009,-0.02182,-0.01617,0.00839,-0.03464,-0.01785,0.00778,-0.04456
9.785,0.00656,-0.04044,0.02289,-0.009,-0.02975,-0.04593,-0.05249,0.00122,-0.01007,-0.02075,-0.01694,0.0119,-0.03357,-0.01678,0.00778,-0.0441
9.7855,0.01404,-0.04028,0.0737,-0.01205,-0.03082,-0.04608,-0.06332,-0.02197,-0.01114,-0.01862,-0.01602,0.01373,-0.0325,-0.01617,0.00641,-0.04303
9.786,0.01846,-0.04166,0.09018,-0.0145,-0.03586,-0.04623,-0.07172,-0.05035,-0.01282,-0.01724,-0.01572,0.0148,-0.03235,-0.01678,0.00565,-0.04272
9.7865,0.01389,-0.04501,0.07599,-0.01556,-0.04547,-0.047,-0.07843,-0.07034,-0.01389,-0.01724,-0.01755,0.01755,-0.0325,-0.01724,0.00519,-0.04196
9.787,0.00153,-0.04898,0.04501,-0.01495,-0.0528,-0.05051,-0.08179,-0.07446,-0.01434,-0.01953,-0.0177,0.01892,-0.03128,-0.0174,0.00549,-0.04211
9.7875,-0.01862,-0.04868,0.01953,-0.01282,-0.0528,-0.05264,-0.07568,-0.065,-0.01343,-0.01801,-0.01816,0.01511,-0.02975,-0.01755,0.00565,-0.04242
9.788,-0.04089,-0.04471,0.01007,-0.01053,-0.04456,-0.05417,-0.06165,-0.04684,-0.01282,-0.01846,-0.0177,0.00488,-0.0296,-0.01785,0.00565,-0.04318
9.7885,-0.06088,-0.0415,0.01358,-0.00839,-0.03433,-0.05264,-0.0444,-0.01953,-0.01221,-0.01831,-0.01694,-0.00687,-0.03067,-0.01831,0.0061,-0.04379
9.789,-0.07019,-0.04684,0.01862,-0.00763,-0.02853,-0.04959,-0.02869,0.01129,-0.01266,-0.01846,-0.01587,-0.0148,-0.03204,-0.01892,0.00839,-0.04364
9.7895,-0.07004,-0.06683,0.01404,-0.00839,-0.02686,-0.04852,-0.01312,0.03006,-0.01373,-0.01907,-0.01434,-0.02396,-0.03281,-0.01846,0.00992,-0.04349
9.79,-0.06714,-0.09583,0.00015,-0.01083,-0.0264,-0.047,0.00351,0.02853,-0.0148,-0.01755,-0.01465,-0.04135,-0.03357,-0.01816,0.00839,-0.04349
9.7905,-0.06546,-0.1152,-0.0177,-0.01266,-0.02747,-0.04669,0.02716,0.01572,-0.01572,-0.01724,-0.01541,-0.06821,-0.03342,-0.01831,0.00809,-0.04364
9.791,-0.06317,-0.10956,-0.03021,-0.01282,-0.03082,-0.04745,0.05814,0.00717,-0.01709,-0.01801,-0.01556,-0.09735,-0.03281,-0.01938,0.00809,-0.04333
9.7915,-0.05783,-0.08636,-0.03876,-0.00946,-0.0351,-0.04974,0.07019,0.01022,-0.01648,-0.01968,-0.01419,-0.11993,-0.03128,-0.01953,0.00793,-0.04486
9.792,-0.05112,-0.06439,-0.04379,-0.00504,-0.03754,-0.05249,0.03479,0.02029,-0.01617,-0.0209,-0.01343,-0.13077,-0.03067,-0.01923,0.00687,-0.04608
9.7925,-0.04898,-0.05142,-0.04883,-0.00412,-0.03937,-0.05295,-0.03265,0.03006,-0.01648,-0.02167,-0.01541,-0.12634,-0.03235,-0.01846,0.00565,-0.04715
9.793,-0.05203,-0.03922,-0.05035,-0.00702,-0.04211,-0.05173,-0.08316,0.03906,-0.01785,-0.0206,-0.0174,-0.11078,-0.03479,-0.01923,0.00595,-0.04684
9.7935,-0.05539,-0.02365,-0.05096,-0.01099,-0.04715,-0.05157,-0.09155,0.05569,-0.01923,-0.01892,-0.01816,-0.08972,-0.03494,-0.01984,0.0061,-0.04684
9.794,-0.05173,-0.00839,-0.05051,-0.01328,-0.04517,-0.05219,-0.07355,0.08789,-0.01862,-0.01877,-0.01633,-0.0563,-0.03403,-0.01907,0.0058,-0.04654
9.7945,-0.03906,0.00076,-0.05157,-0.01511,-0.03204,-0.05066,-0.04913,0.12314,-0.01785,-0.01907,-0.01419,-0.00076,-0.03296,-0.01907,0.00473,-0.04501
9.795,-0.02121,0.00656,-0.05524,-0.01633,-0.01678,-0.047,-0.01801,0.13016,-0.01755,-0.01892,-0.01541,0.06805,-0.03235,-0.01907,0.00473,-0.04349
9.7955,-0.00595,0.01312,-0.07111,-0.01755,-0.01266,-0.04623,0.02731,0.09018,-0.01816,-0.01831,-0.01572,0.12787,-0.03235,-0.01938,0.00427,-0.04211
9.796,0.0029,0.01846,-0.11169,-0.01465,-0.01923,-0.04761,0.07523,0.02518,-0.01801,-0.0177,-0.01556,0.15945,-0.03174,-0.02075,0.00397,-0.04135
9.7965,0.01297,0.02075,-0.17258,-0.00824,-0.02533,-0.04807,0.10147,-0.03159,-0.01709,-0.01755,-0.0148,0.1564,-0.03296,-0.02106,0.00412,-0.04135
9.797,0.02823,0.01984,-0.21942,-0.00259,-0.02579,-0.047,0.08621,-0.0737,-0.01587,-0.01846,-0.01465,0.11917,-0.03403,-0.0209,0.00412,-0.04318
9.7975,0.04227,0.01755,-0.21179,-0.00015,-0.02426,-0.04456,0.04501,-0.11154,-0.01587,-0.01923,-0.01434,0.06256,-0.03418,-0.0209,0.00397,-0.04456
9.798,0.04623,0.01556,-0.14771,-0.00061,-0.02487,-0.04379,0.01434,-0.13992,-0.01648,-0.0209,-0.01343,0.02197,-0.03326,-0.0209,0.00412,-0.04471
9.7985,0.04532,0.01099,-0.05981,-0.00198,-0.02716,-0.0444,0.00717,-0.14191,-0.01602,-0.02182,-0.01312,0.03265,-0.03235,-0.01923,0.00427,-0.04425
9.799,0.05142,-0.00061,0.01999,-0.00397,-0.02853,-0.04608,0.00366,-0.11581,-0.01389,-0.02136,-0.01434,0.09415,-0.03143,-0.01862,0.00412,-0.04257
9.7995,0.06638,-0.01816,0.08011,-0.00854,-0.02792,-0.04608,-0.01678,-0.08377,-0.01236,-0.01968,-0.01587,0.15366,-0.03143,-0.01938,0.00473,-0.04044
9.8,0.0795,-0.03525,0.11032,-0.01221,-0.02579,-0.04257,-0.05234,-0.06409,-0.01251,-0.01862,-0.01633,0.15198,-0.03113,-0.01907,0.00519,-0.0386
9.8005,0.0827,-0.05005,0.10315,-0.01236,-0.02304,-0.03906,-0.08484,-0.05249,-0.01373,-0.01556,-0.01572,0.08957,-0.02914,-0.0177,0.00641,-0.03815
9.801,0.0795,-0.06622,0.06546,-0.009,-0.01923,-0.03708,-0.09918,-0.03815,-0.01526,-0.01602,-0.01511,0.02243,-0.02869,-0.01755,0.00763,-0.03998
9.8015,0.07874,-0.08698,0.02335,-0.0058,-0.01526,-0.03723,-0.09369,-0.0209,-0.01541,-0.01663,-0.01495,-0.01205,-0.03021,-0.01923,0.00809,-0.04105
9.802,0.08591,-0.10345,-0.00107,-0.00397,-0.01358,-0.03891,-0.07965,-0.0061,-0.01434,-0.01755,-0.01526,-0.02182,-0.0322,-0.02151,0.00702,-0.03998
9.8025,0.09659,-0.10956,-0.00488,-0.00458,-0.01648,-0.04211,-0.06088,0.00412,-0.01419,-0.01709,-0.01556,-0.02228,-0.03296,-0.02274,0.00549,-0.03876
9.803,0.10223,-0.11047,0.00168,-0.00488,-0.02335,-0.04578,-0.03418,0.01221,-0.01511,-0.01526,-0.01556,-0.00809,-0.03433,-0.02151,0.00504,-0.03906
9.8035,0.09506,-0.11337,0.00473,-0.00458,-0.03174,-0.04929,-0.00031,0.01572,-0.01633,-0.01434,-0.01556,0.02121,-0.0351,-0.02029,0.00549,-0.04028
9.804,0.07965,-0.11765,0.00031,-0.00565,-0.03677,-0.05051,0.03448,0.01465,-0.01602,-0.01236,-0.01511,0.0444,-0.0351,-0.02014,0.0061,-0.03937
9.8045,0.0708,-0.12115,-0.009,-0.00809,-0.03815,-0.05234,0.06638,0.01236,-0.01373,-0.01129,-0.01511,0.04105,-0.03601,-0.01984,0.00595,-0.03922
9.805,0.08011,-0.12436,-0.0148,-0.00839,-0.03525,-0.05447,0.08804,0.0116,-0.01175,-0.0116,-0.0145,0.02472,-0.03708,-0.01984,0.00519,-0.04074
9.8055,0.10269,-0.12634,-0.01755,-0.00534,-0.03067,-0.056,0.08942,0.01175,-0.0119,-0.01022,-0.01495,0.02014,-0.03769,-0.01862,0.00381,-0.04333
9.806,0.12482,-0.121,-0.02151,0.00031,-0.02609,-0.05875,0.06561,0.01038,-0.01434,-0.0119,-0.01511,0.02502,-0.03723,-0.01785,0.00381,-0.04303
9.8065,0.13794,-0.10086,-0.02823,0.01053,-0.01999,-0.06393,0.03082,0.00793,-0.01541,-0.01358,-0.01389,0.01785,-0.03708,-0.0177,0.00427,-0.04196
9.807,0.14359,-0.06561,-0.03647,0.02991,-0.01617,-0.0679,0.00275,0.00549,-0.0148,-0.01404,-0.0119,-0.009,-0.03738,-0.01877,0.00443,-0.03967
9.8075,0.14557,-0.0235,-0.03876,0.06256,-0.01694,-0.06088,-0.00977,0.00488,-0.01328,-0.01312,-0.01236,-0.04105,-0.03693,-0.01923,0.00534,-0.0386
9.808,0.14648,0.01373,-0.03845,0.10056,-0.0209,-0.04761,-0.0145,0.00626,-0.01328,-0.01251,-0.01434,-0.06927,-0.03555,-0.01877,0.00443,-0.0386
9.8085,0.14648,0.03891,-0.04211,0.12329,-0.02625,-0.03769,-0.01907,0.00656,-0.01556,-0.01617,-0.01602,-0.09598,-0.03464,-0.0177,0.0032,-0.04028
9.809,0.14557,0.05386,-0.05325,0.11841,-0.03189,-0.03769,-0.0238,0.0058,-0.01648,-0.01648,-0.01678,-0.12451,-0.03464,-0.0177,0.00381,-0.04074
9.8095,0.14587,0.06424,-0.06409,0.09155,-0.0386,-0.04227,-0.02396,0.00671,-0.01663,-0.01801,-0.01633,-0.14496,-0.03479,-0.01831,0.00549,-0.03967
9.81,0.14816,0.06989,-0.06622,0.06088,-0.04761,-0.04547,-0.01984,0.00992,-0.01617,-0.01831,-0.01633,-0.14236,-0.03433,-0.01846,0.0087,-0.03601
9.8105,0.14847,0.0676,-0.06241,0.03265,-0.05432,-0.04715,-0.01465,0.01404,-0.01694,-0.01923,-0.01862,-0.10208,-0.03357,-0.01755,0.01083,-0.03296
9.811,0.14435,0.05905,-0.05615,0.00031,-0.05463,-0.04807,-0.00809,0.01694,-0.01923,-0.02518,-0.02258,-0.01892,-0.03281,-0.01755,0.01129,-0.03143
9.8115,0.13733,0.04868,-0.05035,-0.04089,-0.04883,-0.04807,-0.00183,0.01724,-0.02197,-0.02991,-0.02441,0.08743,-0.03296,-0.01877,0.01114,-0.03281
9.812,0.1326,0.0383,-0.04822,-0.07889,-0.04196,-0.04639,-0.00168,0.01572,-0.02579,-0.03372,-0.02411,0.15945,-0.03372,-0.02014,0.01114,-0.0351
9.8125,0.13733,0.02731,-0.05249,-0.09689,-0.03876,-0.04547,-0.009,0.01282,-0.02747,-0.03326,-0.02258,0.13138,-0.03372,-0.0209,0.01114,-0.03601
9.813,0.15045,0.01282,-0.06073,-0.09491,-0.03769,-0.04547,-0.0174,0.01099,-0.02579,-0.02899,-0.02029,-0.00183,-0.03143,-0.01984,0.00992,-0.03784
9.8135,0.16388,-0.00214,-0.06561,-0.09216,-0.03723,-0.04562,-0.01862,0.01022,-0.02029,-0.0235,-0.01831,-0.16464,-0.03036,-0.01801,0.00854,-0.03983
9.814,0.16586,-0.01495,-0.06104,-0.1033,-0.03937,-0.04425,-0.01144,0.00885,-0.01663,-0.02228,-0.01663,-0.26871,-0.03128,-0.0177,0.00793,-0.04013
9.8145,0.15564,-0.02518,-0.04974,-0.121,-0.04074,-0.04166,-0.00458,0.00641,-0.01602,-0.02258,-0.01541,-0.28198,-0.03281,-0.01846,0.00763,-0.0383
9.815,0.14038,-0.03555,-0.04028,-0.13,-0.03571,-0.04105,-0.00946,0.0032,-0.01633,-0.02411,-0.01434,-0.22888,-0.03281,-0.01846,0.00778,-0.03799
9.8155,0.12817,-0.04608,-0.03708,-0.12177,-0.02167,-0.0441,-0.02808,0.00137,-0.01602,-0.02411,-0.01419,-0.1445,-0.03067,-0.0177,0.00778,-0.03983
9.816,0.12161,-0.0528,-0.03891,-0.10162,-0.00519,-0.04654,-0.04227,0.00122,-0.01404,-0.02274,-0.01434,-0.04517,-0.02991,-0.0174,0.00717,-0.0415
9.8165,0.11887,-0.05325,-0.04227,-0.07813,0.00198,-0.04745,-0.03586,0.00198,-0.0116,-0.02121,-0.0145,0.06088,-0.03098,-0.01709,0.00595,-0.04196
9.817,0.11734,-0.05112,-0.04776,-0.06042,-0.00626,-0.04532,-0.01877,0.00366,-0.01053,-0.01923,-0.01343,0.1503,-0.03174,-0.0177,0.00336,-0.04227
9.8175,0.11719,-0.05142,-0.0528,-0.05173,-0.02304,-0.04166,-0.01007,0.00748,-0.00992,-0.01755,-0.0116,0.19058,-0.03021,-0.01785,0.0029,-0.04395
9.818,0.11749,-0.05676,-0.05585,-0.04669,-0.04013,-0.03998,-0.01236,0.01114,-0.00992,-0.01663,-0.01068,0.16159,-0.02838,-0.0174,0.0032,-0.04562
9.8185,0.11612,-0.06866,-0.05417,-0.03967,-0.05234,-0.04196,-0.01724,0.01114,-0.01114,-0.01663,-0.01007,0.08087,-0.0296,-0.01648,0.00443,-0.04639
9.819,0.10681,-0.0885,-0.04898,-0.03082,-0.05707,-0.04654,-0.01999,0.009,-0.01297,-0.01633,-0.01083,-0.00839,-0.03174,-0.01785,0.00427,-0.04517
9.8195,0.09064,-0.10605,-0.04456,-0.02365,-0.05859,-0.04929,-0.02319,0.00732,-0.01434,-0.01633,-0.00992,-0.05554,-0.03418,-0.02029,0.00519,-0.0441
9.82,0.07248,-0.11169,-0.04303,-0.01892,-0.06454,-0.05051,-0.02609,0.00641,-0.01511,-0.0148,-0.00961,-0.0296,-0.03418,-0.0206,0.00473,-0.0441
9.8205,0.05692,-0.10834,-0.04272,-0.01556,-0.07095,-0.05127,-0.0267,0.00519,-0.0148,-0.01419,-0.01144,0.05325,-0.03403,-0.01923,0.00305,-0.04501
9.821,0.0441,-0.10422,-0.04105,-0.01419,-0.06683,-0.05219,-0.02563,0.00168,-0.01434,-0.01678,-0.0119,0.12344,-0.03418,-0.01694,0.00198,-0.04639
9.8215,0.03281,-0.10025,-0.03662,-0.01175,-0.04868,-0.05127,-0.02472,-0.00183,-0.01511,-0.01801,-0.01022,0.11475,-0.03418,-0.01709,0.00137,-0.04822
9.822,0.02151,-0.09201,-0.02716,-0.00168,-0.03143,-0.0502,-0.0235,-0.0029,-0.01633,-0.01968,-0.00961,0.04715,-0.03159,-0.01785,0.00259,-0.04822
9.8225,0.01053,-0.0769,-0.01541,0.01968,-0.0322,-0.04837,-0.02136,0.00046,-0.0174,-0.02045,-0.01068,-0.00931,-0.03052,-0.01755,0.00381,-0.04776
9.823,0.00046,-0.05997,-0.00641,0.03448,-0.04791,-0.04669,-0.01892,0.0032,-0.01663,-0.01968,-0.01282,-0.02151,-0.03113,-0.01678,0.00488,-0.04654
9.8235,-0.00839,-0.04608,-0.00748,0.01602,-0.06027,-0.04684,-0.01968,0.00305,-0.01663,-0.01816,-0.01373,-0.01495,-0.03204,-0.01633,0.00473,-0.04669
9.824,-0.01572,-0.03693,-0.01907,-0.0325,-0.05768,-0.0473,-0.02258,0.00046,-0.01556,-0.01694,-0.01343,-0.01526,-0.03159,-0.01663,0.00504,-0.04913
9.8245,-0.02121,-0.02869,-0.03479,-0.07233,-0.04669,-0.04776,-0.02335,0.0,-0.01373,-0.01511,-0.01419,-0.01801,-0.0325,-0.01709,0.00488,-0.05066
9.825,-0.02426,-0.01953,-0.04639,-0.07629,-0.03891,-0.04852,-0.02319,0.00168,-0.01312,-0.01572,-0.01602,-0.00961,-0.03433,-0.01648,0.00427,-0.0502
9.8255,-0.02609,-0.01099,-0.05264,-0.04913,-0.03998,-0.04868,-0.02487,0.00183,-0.01404,-0.01572,-0.01694,0.01007,-0.0354,-0.01572,0.00534,-0.04944
9.826,-0.02869,-0.00687,-0.05463,-0.01511,-0.04242,-0.04944,-0.02792,0.00076,-0.01419,-0.01526,-0.01633,0.03494,-0.03647,-0.01572,0.00717,-0.05035
9.8265,-0.03174,-0.00778,-0.05386,0.01785,-0.04196,-0.05051,-0.03082,0.00107,-0.01541,-0.01343,-0.01541,0.0563,-0.03647,-0.01617,0.00854,-0.05035
9.827,-0.03204,-0.01205,-0.05386,0.05554,-0.03876,-0.05112,-0.03098,0.00259,-0.01633,-0.01129,-0.0148,0.06378,-0.03662,-0.01862,0.00641,-0.04944
9.8275,-0.03052,-0.01678,-0.05447,0.09369,-0.03738,-0.05249,-0.03067,0.00122,-0.0177,-0.01144,-0.01602,0.04944,-0.03769,-0.01984,0.00397,-0.04898
9.828,-0.02777,-0.02411,-0.05478,0.1268,-0.03983,-0.05249,-0.02991,-0.00061,-0.01846,-0.01297,-0.01724,0.01907,-0.0383,-0.02014,0.00427,-0.04929
9.8285,-0.02838,-0.0354,-0.05234,0.16663,-0.04196,-0.0528,-0.02975,-0.00351,-0.01755,-0.01495,-0.01709,-0.0177,-0.03784,-0.01831,0.00626,-0.04944
9.829,-0.03159,-0.047,-0.04715,0.21622,-0.04349,-0.05447,-0.03235,-0.00427,-0.01602,-0.01572,-0.01678,-0.04791,-0.03769,-0.0174,0.00824,-0.04822
9.8295,-0.03677,-0.05829,-0.04044,0.24124,-0.04486,-0.05646,-0.03494,-0.00458,-0.01511,-0.01495,-0.01678,-0.06042,-0.03708,-0.01801,0.0087,-0.04639
9.83,-0.04211,-0.07156,-0.03281,0.1944,-0.0441,-0.05707,-0.03479,-0.00427,-0.01434,-0.01556,-0.01511,-0.04745,-0.03647,-0.01953,0.00854,-0.04471
9.8305,-0.04715,-0.0853,-0.02441,0.08392,-0.04074,-0.05585,-0.03143,-0.00214,-0.01556,-0.01587,-0.0148,-0.01694,-0.03571,-0.01938,0.0087,-0.04486
9.831,-0.05188,-0.08957,-0.01984,-0.02686,-0.03433,-0.05371,-0.02716,-0.00183,-0.01541,-0.01617,-0.01511,0.01556,-0.03448,-0.01907,0.00885,-0.04456
9.8315,-0.05554,-0.07751,-0.01801,-0.09201,-0.0267,-0.05142,-0.02563,-0.00458,-0.01434,-0.01617,-0.01602,0.03967,-0.03464,-0.01938,0.01083,-0.04364
9.832,-0.0592,-0.05569,-0.01938,-0.12115,-0.02197,-0.0499,-0.02563,-0.00916,-0.01282,-0.01709,-0.01617,0.04257,-0.03464,-0.01892,0.01114,-0.0412
9.8325,-0.06088,-0.03662,-0.0209,-0.13885,-0.02365,-0.04745,-0.02319,-0.00717,-0.01297,-0.01724,-0.01389,0.01755,-0.03525,-0.0177,0.01083,-0.03876
9.833,-0.06271,-0.0238,-0.01999,-0.14282,-0.03586,-0.04623,-0.01556,0.0029,-0.01297,-0.01785,-0.01175,-0.0238,-0.03464,-0.01648,0.01129,-0.0386
9.8335,-0.065,-0.01755,-0.01785,-0.12787,-0.05035,-0.04578,-0.00519,0.01526,-0.01343,-0.01648,-0.01099,-0.05692,-0.0325,-0.01694,0.01068,-0.03922
9.834,-0.06958,-0.01404,-0.01556,-0.11627,-0.05417,-0.04532,0.00397,0.02167,-0.01312,-0.01572,-0.0116,-0.06622,-0.03128,-0.01831,0.01114,-0.04028
9.8345,-0.07675,-0.01816,-0.01495,-0.13763,-0.04517,-0.04593,0.00427,0.01846,-0.01358,-0.01541,-0.01129,-0.05432,-0.0325,-0.01999,0.01205,-0.03967
9.835,-0.08209,-0.02716,-0.01602,-0.18402,-0.03433,-0.04654,-0.00717,0.00839,-0.01678,-0.01572,-0.00946,-0.02472,-0.03433,-0.01968,0.01251,-0.04013
9.8355,-0.0827,-0.03494,-0.01648,-0.21011,-0.02884,-0.04745,-0.01892,-0.00198,-0.0177,-0.01434,-0.009,0.02136,-0.0351,-0.01785,0.01266,-0.04089
9.836,-0.0798,-0.03784,-0.02213,-0.18555,-0.03143,-0.04745,-0.01892,-0.00854,-0.0174,-0.0145,-0.00992,0.06836,-0.03479,-0.01694,0.01022,-0.04242
9.8365,-0.07553,-0.03754,-0.03204,-0.12711,-0.03281,-0.04654,-0.00641,-0.0087,-0.01602,-0.01526,-0.01236,0.07339,-0.03571,-0.0177,0.00992,-0.04364
9.837,-0.07202,-0.03525,-0.04303,-0.06607,-0.03418,-0.04868,0.00366,-0.00793,-0.01556,-0.01755,-0.01419,0.01312,-0.03586,-0.02045,0.01053,-0.0444
9.8375,-0.07034,-0.03555,-0.04745,-0.01755,-0.03616,-0.05096,0.00046,-0.01251,-0.01617,-0.01678,-0.01526,-0.07675,-0.0351,-0.02167,0.01114,-0.04456
9.838,-0.07019,-0.04044,-0.04089,0.01724,-0.03677,-0.05249,-0.01282,-0.02029,-0.01587,-0.01709,-0.01694,-0.1355,-0.03387,-0.02304,0.01144,-0.0444
9.8385,-0.07141,-0.05005,-0.02701,0.04196,-0.03418,-0.05188,-0.02884,-0.02701,-0.01648,-0.01724,-0.01785,-0.13916,-0.03281,-0.02213,0.00992,-0.04456
9.839,-0.07278,-0.05646,-0.01282,0.06027,-0.03433,-0.05005,-0.04181,-0.02853,-0.01663,-0.01755,-0.01648,-0.10849,-0.03235,-0.01999,0.01144,-0.04501
9.8395,-0.07446,-0.05493,-0.00122,0.0769,-0.03464,-0.04959,-0.04883,-0.02975,-0.01877,-0.01709,-0.01419,-0.05554,-0.0322,-0.0174,0.01205,-0.04532
9.84,-0.07568,-0.04745,0.00534,0.09109,-0.03647,-0.05035,-0.04547,-0.03082,-0.01755,-0.0174,-0.01389,0.02441,-0.03265,-0.01648,0.0116,-0.04639
9.8405,-0.07584,-0.04303,0.00534,0.09628,-0.03952,-0.05005,-0.0354,-0.0325,-0.01587,-0.01877,-0.01541,0.11765,-0.03479,-0.0174,0.01007,-0.0473
9.841,-0.07172,-0.04486,-0.00092,0.07721,-0.03952,-0.05005,-0.0264,-0.03204,-0.0148,-0.01801,-0.01678,0.1683,-0.03555,-0.01877,0.00992,-0.04852
9.8415,-0.06516,-0.04944,-0.00977,0.01038,-0.03799,-0.05005,-0.01999,-0.02686,-0.01434,-0.01801,-0.01755,0.13885,-0.03448,-0.01862,0.00961,-0.04837
9.842,-0.05829,-0.05676,-0.01801,-0.11047,-0.03723,-0.04929,-0.01465,-0.01923,-0.01526,-0.0177,-0.01816,0.06119,-0.03387,-0.01892,0.00946,-0.04776
9.8425,-0.05417,-0.06653,-0.02594,-0.23117,-0.03571,-0.04807,-0.01022,-0.01312,-0.01617,-0.01755,-0.0174,-0.00122,-0.03387,-0.01999,0.00931,-0.04761
9.843,-0.05249,-0.07568,-0.03357,-0.2652,-0.0322,-0.04578,-0.00626,-0.01129,-0.01556,-0.01938,-0.01663,-0.01953,-0.03357,-0.0206,0.00992,-0.04623
9.8435,-0.05188,-0.08163,-0.03937,-0.18341,-0.02731,-0.04532,0.00015,-0.01099,-0.01541,-0.02045,-0.01526,-0.01038,-0.03311,-0.02151,0.01022,-0.04532
9.844,-0.05081,-0.08255,-0.04272,-0.04333,-0.02304,-0.04608,0.00809,-0.00839,-0.0145,-0.0235,-0.01663,-0.00107,-0.03281,-0.02136,0.00885,-0.04547
9.8445,-0.04791,-0.0824,-0.04639,0.08209,-0.02243,-0.04639,0.01297,-0.00473,-0.01343,-0.02228,-0.01678,-0.00122,-0.03281,-0.02197,0.00626,-0.0473
9.845,-0.04593,-0.08072,-0.05112,0.17197,-0.02319,-0.04578,0.01144,-0.00137,-0.0119,-0.0206,-0.0148,-0.00275,-0.03342,-0.02182,0.00412,-0.04913
9.8455,-0.04608,-0.0766,-0.06104,0.23178,-0.02289,-0.04761,-0.00122,0.00122,-0.01114,-0.01877,-0.01434,-0.00412,-0.03387,-0.0209,0.00259,-0.05035
9.846,-0.04745,-0.06821,-0.07401,0.24689,-0.01831,-0.05051,-0.02197,0.00137,-0.01251,-0.02029,-0.01526,-0.00641,-0.03418,-0.02029,0.00229,-0.05096
9.8465,-0.04745,-0.06042,-0.08484,0.2005,-0.01541,-0.05219,-0.0354,-0.00076,-0.01556,-0.02121,-0.01678,-0.01328,-0.03418,-0.02045,0.00381,-0.04959
9.847,-0.04379,-0.05386,-0.08652,0.12985,-0.01877,-0.05264,-0.02487,-0.00153,-0.01633,-0.02304,-0.01785,-0.02106,-0.03387,-0.02151,0.00443,-0.04791
9.8475,-0.04089,-0.05234,-0.07813,0.09369,-0.02716,-0.05371,0.00183,0.00061,-0.0177,-0.02045,-0.01862,-0.02472,-0.0325,-0.02136,0.00565,-0.04623
9.848,-0.04242,-0.05417,-0.06363,0.08942,-0.02686,-0.05341,0.01663,0.00458,-0.01755,-0.01785,-0.01999,-0.02197,-0.03174,-0.0209,0.00702,-0.04456
9.8485,-0.04684,-0.05554,-0.04822,0.04425,-0.00763,-0.0499,0.00687,0.0061,-0.01678,-0.01694,-0.02014,-0.01617,-0.03357,-0.0209,0.00809,-0.04364
9.849,-0.04898,-0.05264,-0.03113,-0.08209,0.0293,-0.04318,-0.01328,0.0032,-0.01663,-0.01816,-0.01923,-0.01144,-0.03616,-0.02167,0.01007,-0.04227
9.8495,-0.04944,-0.04257,-0.01343,-0.23605,0.06256,-0.03662,-0.02563,-0.00092,-0.01602,-0.01999,-0.01755,-0.00854,-0.03723,-0.02213,0.01099,-0.04074
9.85,-0.05173,-0.03067,-0.00046,-0.3299,0.06927,-0.03479,-0.02777,-0.00336,-0.01587,-0.0206,-0.01587,-0.00687,-0.03586,-0.02197,0.01068,-0.03967
9.8505,-0.056,-0.02182,0.00381,-0.33768,0.03937,-0.03998,-0.0296,-0.00565,-0.01709,-0.01923,-0.01465,-0.00366,-0.03571,-0.02258,0.01068,-0.04044
9.851,-0.05814,-0.01587,0.00122,-0.29282,-0.01236,-0.04822,-0.03586,-0.00885,-0.01709,-0.01968,-0.01312,-0.00259,-0.03647,-0.02365,0.00992,-0.04211
9.8515,-0.05539,-0.0087,-0.0061,-0.23682,-0.06332,-0.05447,-0.04822,-0.01129,-0.01648,-0.0209,-0.01282,-0.01678,-0.03738,-0.02533,0.00793,-0.04364
9.852,-0.04959,-0.00153,-0.0148,-0.18127,-0.1004,-0.05661,-0.06424,-0.0116,-0.01633,-0.02167,-0.0148,-0.05234,-0.03754,-0.02548,0.00656,-0.04395
9.8525,-0.04379,0.0029,-0.01907,-0.10437,-0.12833,-0.05814,-0.06744,-0.01022,-0.01724,-0.02213,-0.01678,-0.08835,-0.0386,-0.02441,0.00702,-0.04349
9.853,-0.04059,0.00305,-0.01358,0.02274,-0.14832,-0.05905,-0.03967,-0.00977,-0.01724,-0.02258,-0.01587,-0.09644,-0.04028,-0.02426,0.00946,-0.04257
9.8535,-0.04166,0.0032,-0.00458,0.18341,-0.14679,-0.05753,0.01175,-0.009,-0.01709,-0.02106,-0.01251,-0.07278,-0.03891,-0.02411,0.01114,-0.04318
9.854,-0.04456,0.00427,-0.00473,0.29694,-0.11078,-0.0531,0.04639,-0.00763,-0.01556,-0.01907,-0.01053,-0.03708,-0.03754,-0.02426,0.01205,-0.04471
9.8545,-0.04562,0.00351,-0.0322,0.2916,-0.05997,-0.04684,0.04044,-0.00809,-0.01511,-0.01999,-0.01083,-0.0032,-0.03693,-0.02396,0.01205,-0.04517
9.855,-0.04349,0.00015,-0.08774,0.18814,-0.02655,-0.04257,0.02548,-0.00748,-0.01587,-0.02151,-0.01266,0.03006,-0.03769,-0.02365,0.01129,-0.04486
9.8555,-0.03952,-0.00778,-0.14816,0.08057,-0.02457,-0.0415,0.05417,-0.00168,-0.01617,-0.02167,-0.01434,0.05493,-0.03876,-0.0235,0.00961,-0.04364
9.856,-0.0386,-0.01816,-0.16632,0.03326,-0.03799,-0.04532,0.12726,0.00946,-0.01587,-0.02258,-0.0145,0.06241,-0.03799,-0.02213,0.00931,-0.04135
9.8565,-0.04059,-0.02747,-0.12863,0.03601,-0.04593,-0.0499,0.1799,0.01694,-0.0148,-0.02304,-0.01465,0.04776,-0.0354,-0.02045,0.00946,-0.04044
9.857,-0.04318,-0.03448,-0.06546,0.04639,-0.0444,-0.05264,0.15686,0.01511,-0.01358,-0.02304,-0.01602,0.0148,-0.0325,-0.02045,0.01053,-0.04074
9.8575,-0.04196,-0.03845,-0.00977,0.04745,-0.03769,-0.05096,0.07462,0.00656,-0.01526,-0.0238,-0.01617,-0.0296,-0.03143,-0.02167,0.01099,-0.04074
9.858,-0.03647,-0.03937,0.0264,0.04211,-0.03143,-0.04868,-0.00031,-0.00153,-0.01602,-0.02365,-0.01587,-0.07965,-0.0325,-0.02228,0.01068,-0.0412
9.8585,-0.03021,-0.0383,0.03922,0.03342,-0.02518,-0.04562,-0.02563,-0.00626,-0.01572,-0.02182,-0.01572,-0.11597,-0.03357,-0.02213,0.01068,-0.04196
9.859,-0.02533,-0.03387,0.01083,0.02258,-0.02258,-0.04242,-0.01678,-0.00839,-0.01419,-0.01877,-0.01602,-0.10681,-0.03311,-0.02151,0.01144,-0.0415
9.8595,-0.02228,-0.02808,-0.05447,0.01328,-0.02228,-0.03952,-0.0148,-0.01282,-0.01328,-0.01663,-0.01617,-0.04303,-0.03082,-0.02014,0.01297,-0.03998
9.86,-0.02106,-0.02441,-0.11673,0.01053,-0.02365,-0.03571,-0.0322,-0.02319,-0.01526,-0.01663,-0.01633,0.03174,-0.02808,-0.01953,0.01297,-0.03906
9.8605,-0.02197,-0.02625,-0.13748,0.009,-0.0238,-0.02991,-0.0441,-0.03845,-0.01663,-0.01724,-0.01755,0.06348,-0.02762,-0.01923,0.0119,-0.03891
9.861,-0.02548,-0.02899,-0.11093,0.00626,-0.02213,-0.01968,-0.02228,-0.04974,-0.01633,-0.01831,-0.01862,0.04761,-0.02777,-0.01953,0.01175,-0.04135
9.8615,-0.02762,-0.02975,-0.04791,0.00473,-0.01968,-0.01083,0.0177,-0.04776,-0.01495,-0.01862,-0.01846,0.02365,-0.02747,-0.01953,0.0119,-0.04471
9.862,-0.0267,-0.02853,0.03418,0.00641,-0.01862,-0.01007,0.02762,-0.03281,-0.01465,-0.01694,-0.01755,0.02213,-0.02808,-0.01999,0.00946,-0.04822
9.8625,-0.0238,-0.03082,0.11154,0.01068,-0.01358,-0.01572,-0.01251,-0.01434,-0.01343,-0.01663,-0.01816,0.03403,-0.02991,-0.0209,0.0061,-0.05051
9.863,-0.02243,-0.03906,0.15305,0.01694,0.0,-0.02182,-0.06851,-0.00305,-0.01328,-0.01724,-0.01968,0.02609,-0.03235,-0.0206,0.00336,-0.05127
9.8635,-0.02487,-0.04913,0.14862,0.02335,0.0145,-0.02655,-0.09979,0.00015,-0.01343,-0.01755,-0.01953,-0.01816,-0.03357,-0.02029,0.00259,-0.05112
9.864,-0.02808,-0.05859,0.11627,0.02594,0.01572,-0.03372,-0.09613,0.00122,-0.0148,-0.01953,-0.01907,-0.07492,-0.03235,-0.01999,0.00381,-0.0499
9.8645,-0.02869,-0.06531,0.07965,0.02396,0.00122,-0.0444,-0.07492,0.0029,-0.01495,-0.01831,-0.01907,-0.0856,-0.03143,-0.01984,0.00702,-0.04807
9.865,-0.02823,-0.07202,0.05173,0.02121,-0.01877,-0.05661,-0.04929,0.00565,-0.01358,-0.01678,-0.01877,-0.01923,-0.03128,-0.01877,0.00916,-0.04669
9.8655,-0.02884,-0.07767,0.0293,0.01617,-0.03265,-0.06653,-0.01831,0.00534,-0.01205,-0.01801,-0.01633,0.07477,-0.02975,-0.01907,0.00977,-0.0444
9.866,-0.02945,-0.07813,0.00854,0.00687,-0.03891,-0.0769,0.0235,-0.00076,-0.01236,-0.01907,-0.01328,0.1265,-0.02747,-0.0206,0.00839,-0.0415
9.8665,-0.02563,-0.07034,-0.01495,-0.00549,-0.04181,-0.09216,0.06393,-0.01038,-0.01251,-0.01831,-0.0116,0.12421,-0.02686,-0.02243,0.00854,-0.03967
9.867,-0.01526,-0.05692,-0.04196,-0.0177,-0.04807,-0.10941,0.07248,-0.01694,-0.01328,-0.01862,-0.01297,0.09766,-0.03036,-0.02289,0.00824,-0.03937
9.8675,-0.00366,-0.0473,-0.06683,-0.02701,-0.05524,-0.11444,0.04105,-0.01602,-0.01236,-0.01877,-0.01373,0.05783,-0.03281,-0.02274,0.00793,-0.04044
9.868,0.0058,-0.04974,-0.0827,-0.03555,-0.05295,-0.1033,-0.00488,-0.01022,-0.01175,-0.01862,-0.01373,0.01083,-0.0325,-0.02213,0.0087,-0.0412
9.8685,0.00946,-0.0618,-0.08484,-0.03998,-0.03357,-0.08148,-0.04059,-0.00549,-0.0116,-0.01831,-0.0148,-0.00244,-0.03067,-0.02228,0.009,-0.04074
9.869,0.00885,-0.07935,-0.08087,-0.0383,-0.01282,-0.06393,-0.06775,-0.00443,-0.01282,-0.01801,-0.01587,0.04532,-0.02899,-0.02228,0.00839,-0.04013
9.8695,0.00504,-0.09079,-0.07492,-0.03571,-0.00809,-0.05493,-0.09674,-0.00244,-0.01312,-0.01556,-0.01617,0.1123,-0.02838,-0.02167,0.00717,-0.04074
9.87,0.0,-0.09018,-0.0705,-0.04028,-0.01831,-0.05234,-0.1149,0.00229,-0.01205,-0.01541,-0.01282,0.1265,-0.0267,-0.0206,0.00626,-0.0415
9.8705,-0.00305,-0.07965,-0.06851,-0.05447,-0.02823,-0.05096,-0.10406,0.0061,-0.01038,-0.01587,-0.00977,0.07813,-0.02487,-0.01953,0.00534,-0.04211
9.871,-0.00488,-0.06531,-0.07019,-0.07202,-0.02945,-0.0499,-0.06943,0.00687,-0.01068,-0.01633,-0.01129,0.01755,-0.02396,-0.01831,0.00534,-0.04196
9.8715,-0.00702,-0.05066,-0.07782,-0.08026,-0.02808,-0.04776,-0.04074,0.00687,-0.01068,-0.01602,-0.01663,-0.00946,-0.02411,-0.0174,0.00656,-0.04059
9.872,-0.0116,-0.03693,-0.09048,-0.07126,-0.02914,-0.04547,-0.02426,0.00809,-0.01068,-0.01556,-0.01785,-0.00717,-0.02426,-0.01633,0.00809,-0.03906
9.8725,-0.01465,-0.02686,-0.10056,-0.0502,-0.02975,-0.04471,0.00549,0.00946,-0.01053,-0.01556,-0.01587,-0.0029,-0.02487,-0.01663,0.00839,-0.03906
9.873,-0.0119,-0.02289,-0.10101,-0.03159,-0.02777,-0.04486,0.06348,0.01022,-0.01175,-0.01678,-0.01434,-0.00443,-0.02625,-0.01678,0.00809,-0.03983
9.8735,-0.00198,-0.01968,-0.09003,-0.0238,-0.02518,-0.04501,0.11414,0.01068,-0.01358,-0.01816,-0.0145,-0.00565,-0.02792,-0.0177,0.00763,-0.0412
9.874,0.00778,-0.01099,-0.07263,-0.02441,-0.02502,-0.04318,0.10971,0.01068,-0.01434,-0.01831,-0.01556,-0.00626,-0.03036,-0.01923,0.00626,-0.0415
9.8745,0.01022,0.00015,-0.05432,-0.0267,-0.02701,-0.04135,0.05234,0.01022,-0.01312,-0.01755,-0.01602,-0.00809,-0.03036,-0.01999,0.00549,-0.04105
9.875,0.00458,0.00565,-0.03754,-0.0293,-0.03036,-0.03937,-0.02228,0.01114,-0.0119,-0.01694,-0.01541,-0.00992,-0.02914,-0.01999,0.00443,-0.04028
9.8755,-0.0032,0.00458,-0.02136,-0.02975,-0.03143,-0.03799,-0.08362,0.01266,-0.01099,-0.01709,-0.01526,-0.01175,-0.02884,-0.01984,0.00473,-0.03983
9.876,-0.00854,-0.0029,-0.00763,-0.02991,-0.02792,-0.03799,-0.11276,0.00992,-0.01083,-0.01892,-0.01526,-0.01251,-0.02884,-0.01968,0.00626,-0.03876
9.8765,-0.01266,-0.0177,0.00015,-0.02869,-0.02487,-0.04105,-0.09415,0.00534,-0.01282,-0.01984,-0.01602,-0.01404,-0.03006,-0.02029,0.00671,-0.03799
9.877,-0.01816,-0.04395,0.00031,-0.02701,-0.02289,-0.04547,-0.03769,0.00092,-0.01617,-0.01968,-0.01694,-0.01648,-0.03113,-0.02045,0.0058,-0.03784
9.8775,-0.02563,-0.07599,-0.00443,-0.02274,-0.02426,-0.04837,0.00412,0.00153,-0.01572,-0.01709,-0.01816,-0.01785,-0.03143,-0.0209,0.00381,-0.03693
9.878,-0.0351,-0.09979,-0.00946,-0.01587,-0.02579,-0.04776,-0.0029,0.00381,-0.01434,-0.01648,-0.01862,-0.01816,-0.0322,-0.02106,0.00305,-0.03632
9.8785,-0.04532,-0.10574,-0.01083,-0.00778,-0.02716,-0.04395,-0.03876,0.00061,-0.01343,-0.01678,-0.01648,-0.01587,-0.03265,-0.02075,0.00641,-0.03677
9.879,-0.05157,-0.09613,-0.00992,0.00015,-0.02686,-0.03876,-0.05417,-0.01038,-0.01511,-0.01648,-0.01495,-0.01236,-0.03281,-0.02045,0.00671,-0.03922
9.8795,-0.05295,-0.07736,-0.009,0.00946,-0.02563,-0.03448,-0.03494,-0.02411,-0.01541,-0.01648,-0.01343,-0.0087,-0.03128,-0.02045,0.00656,-0.04044
9.88,-0.05386,-0.05341,-0.01129,0.02045,-0.0238,-0.0325,-0.01312,-0.02655,-0.01465,-0.01587,-0.0119,-0.00595,-0.02853,-0.02014,0.0061,-0.04059
9.8805,-0.05875,-0.02518,-0.01907,0.0296,-0.02304,-0.03265,-0.02441,-0.01297,-0.0145,-0.0145,-0.01144,-0.0061,-0.02792,-0.01877,0.00534,-0.04074
9.881,-0.065,0.00153,-0.03235,0.02838,-0.02167,-0.03387,-0.06165,0.00961,-0.01389,-0.01282,-0.0119,-0.01083,-0.0293,-0.01907,0.00534,-0.04059
9.8815,-0.065,0.02075,-0.04944,0.01801,-0.01938,-0.03464,-0.08148,0.02335,-0.01541,-0.01221,-0.01373,-0.01709,-0.02991,-0.02014,0.00565,-0.03983
9.882,-0.05997,0.02991,-0.06409,0.00534,-0.0148,-0.0354,-0.04822,0.02365,-0.01556,-0.01343,-0.01419,-0.02136,-0.02792,-0.02167,0.00687,-0.0386
9.8825,-0.0589,0.03082,-0.07309,-0.00366,-0.01038,-0.03601,0.01648,0.01663,-0.01526,-0.01572,-0.01343,-0.02167,-0.02579,-0.02182,0.00717,-0.03708
9.883,-0.06332,0.03067,-0.07431,-0.00977,-0.00977,-0.03708,0.05157,0.01282,-0.01526,-0.01785,-0.01358,-0.01938,-0.02487,-0.02182,0.00687,-0.03738
9.8835,-0.07004,0.02899,-0.06836,-0.01572,-0.02014,-0.03769,0.03448,0.00992,-0.01678,-0.01907,-0.01404,-0.01663,-0.0264,-0.02151,0.0061,-0.03815
9.884,-0.07385,0.02563,-0.05905,-0.01923,-0.03433,-0.04013,0.00885,0.00153,-0.01694,-0.01892,-0.01358,-0.01389,-0.02975,-0.02136,0.00671,-0.0386
9.8845,-0.07614,0.01877,-0.05051,-0.02289,-0.03601,-0.04181,0.0119,-0.0145,-0.01694,-0.01801,-0.01297,-0.01099,-0.03448,-0.02213,0.00778,-0.0383
9.885,-0.07828,0.00961,-0.047,-0.02457,-0.01419,-0.04059,0.03036,-0.03113,-0.01572,-0.01862,-0.01343,-0.00931,-0.03601,-0.0235,0.00916,-0.03738
9.8855,-0.07813,-0.00015,-0.05264,-0.02365,0.01373,-0.0354,0.03296,-0.03601,-0.01541,-0.01907,-0.01389,-0.00977,-0.03387,-0.02335,0.00809,-0.0386
9.886,-0.0737,-0.00977,-0.06561,-0.01984,0.02426,-0.02625,0.01678,-0.02686,-0.01633,-0.01892,-0.01343,-0.0119,-0.03082,-0.02258,0.00732,-0.03998
9.8865,-0.06516,-0.02075,-0.07797,-0.0148,0.01801,-0.01526,-0.00107,-0.01297,-0.01663,-0.02014,-0.01266,-0.01495,-0.03036,-0.02228,0.00885,-0.04074
9.887,-0.05417,-0.03296,-0.07935,-0.01419,0.01419,-0.00656,-0.01236,-0.00412,-0.01694,-0.02075,-0.01266,-0.01389,-0.03204,-0.02197,0.00977,-0.04074
9.8875,-0.04395,-0.04425,-0.06958,-0.0177,0.02716,-0.0029,-0.01938,-0.00214,-0.01617,-0.02106,-0.01328,-0.01038,-0.03357,-0.02243,0.00946,-0.04013
9.888,-0.03677,-0.05035,-0.05508,-0.02472,0.04654,-0.00351,-0.02487,-0.00534,-0.01541,-0.02121,-0.01389,-0.00549,-0.03311,-0.02335,0.00778,-0.03983
9.8885,-0.03357,-0.05325,-0.0415,-0.03616,0.0563,-0.00839,-0.0296,-0.01129,-0.01511,-0.0206,-0.01465,-0.00351,-0.03235,-0.02441,0.00687,-0.04013
9.889,-0.03326,-0.05447,-0.03113,-0.05035,0.04501,-0.01602,-0.0322,-0.01694,-0.01495,-0.02014,-0.01572,-0.00397,-0.03159,-0.02411,0.00793,-0.04013
9.8895,-0.03342,-0.05829,-0.0209,-0.06058,0.01541,-0.02457,-0.03265,-0.01694,-0.01511,-0.01923,-0.01343,-0.00458,-0.03067,-0.02167,0.00931,-0.03998
9.89,-0.03052,-0.0621,-0.01404,-0.06409,-0.0177,-0.02914,-0.03174,-0.00916,-0.01465,-0.01862,-0.01083,-0.00214,-0.03143,-0.02014,0.00793,-0.03799
9.8905,-0.03036,-0.06592,-0.01328,-0.06073,-0.05386,-0.02991,-0.03036,0.00107,-0.01434,-0.01923,-0.01022,0.00153,-0.03296,-0.01984,0.00656,-0.03677
9.891,-0.03418,-0.06821,-0.01663,-0.05646,-0.10468,-0.03555,-0.03006,0.00443,-0.01495,-0.01999,-0.01328,0.00519,-0.03326,-0.01923,0.00717,-0.03738
9.8915,-0.03754,-0.06897,-0.01968,-0.05219,-0.16418,-0.05905,-0.03082,-0.00092,-0.01434,-0.0209,-0.01419,0.00687,-0.03265,-0.01953,0.00778,-0.03906
9.892,-0.03799,-0.07065,-0.02197,-0.04852,-0.20248,-0.09872,-0.03098,-0.01053,-0.01358,-0.02121,-0.01343,0.00671,-0.03159,-0.01999,0.0087,-0.04028
9.8925,-0.04028,-0.07431,-0.02533,-0.04059,-0.20721,-0.13214,-0.03052,-0.01572,-0.01236,-0.02151,-0.0119,0.0058,-0.03159,-0.02136,0.00854,-0.03952
9.893,-0.04669,-0.08148,-0.03113,-0.02731,-0.18478,-0.13657,-0.02945,-0.01724,-0.01221,-0.02106,-0.01144,0.00381,-0.03281,-0.02213,0.00885,-0.0386
9.8935,-0.05066,-0.0856,-0.03586,-0.01312,-0.14206,-0.11658,-0.02914,-0.0174,-0.01221,-0.01999,-0.01221,0.00473,-0.03448,-0.02151,0.01068,-0.03937
9.894,-0.04837,-0.08347,-0.03784,-0.00488,-0.08743,-0.09445,-0.03082,-0.01923,-0.01404,-0.01892,-0.01328,0.00778,-0.03494,-0.02045,0.01099,-0.04074
9.8945,-0.04105,-0.07416,-0.03723,-0.00473,-0.04669,-0.07858,-0.0351,-0.02045,-0.01556,-0.01923,-0.01266,0.01221,-0.03342,-0.01892,0.00916,-0.0415
9.895,-0.03601,-0.06561,-0.03799,-0.00137,-0.04166,-0.06256,-0.0383,-0.01892,-0.01663,-0.01999,-0.01282,0.01678,-0.03036,-0.0177,0.00717,-0.04089
9.8955,-0.03342,-0.05981,-0.04181,0.01221,-0.0621,-0.04868,-0.03784,-0.01389,-0.0177,-0.02029,-0.01221,0.02121,-0.02853,-0.0174,0.00763,-0.04028
9.896,-0.03159,-0.05508,-0.04761,0.03326,-0.08026,-0.04578,-0.03464,-0.00763,-0.01938,-0.02121,-0.01129,0.0238,-0.02869,-0.0177,0.00916,-0.03998
9.8965,-0.0293,-0.0473,-0.05173,0.0473,-0.08331,-0.05493,-0.03235,-0.00397,-0.0206,-0.0209,-0.01312,0.0235,-0.02975,-0.01831,0.01083,-0.04089
9.897,-0.02625,-0.03769,-0.05234,0.04288,-0.07843,-0.06332,-0.03265,-0.00229,-0.01968,-0.02106,-0.01328,0.01923,-0.03036,-0.01999,0.00977,-0.04105
9.8975,-0.02472,-0.03098,-0.05066,0.02182,-0.06851,-0.05997,-0.03479,-0.00305,-0.01923,-0.0206,-0.01373,0.01495,-0.03098,-0.02014,0.00824,-0.04074
9.898,-0.02075,-0.02838,-0.04822,-0.00076,-0.05249,-0.04944,-0.03586,-0.00244,-0.01877,-0.0209,-0.01297,0.01251,-0.03204,-0.01923,0.00778,-0.04105
9.8985,-0.01465,-0.02792,-0.04303,-0.01205,-0.03448,-0.0415,-0.03571,-0.00076,-0.01785,-0.02045,-0.0119,0.01343,-0.03403,-0.01801,0.0087,-0.04013
9.899,-0.00839,-0.0293,-0.03738,-0.01266,-0.02884,-0.03998,-0.03433,0.00076,-0.01709,-0.01953,-0.01297,0.01312,-0.03357,-0.01724,0.00946,-0.0386
9.8995,-0.00183,-0.03006,-0.03006,-0.01144,-0.03693,-0.03952,-0.03113,0.00305,-0.01648,-0.01877,-0.01282,0.01007,-0.03143,-0.0177,0.00961,-0.03799
9.9,0.00778,-0.03311,-0.02594,-0.0087,-0.04364,-0.03647,-0.02716,0.00931,-0.01602,-0.01923,-0.01129,0.00519,-0.03006,-0.0177,0.01083,-0.0386
9.9005,0.01846,-0.03632,-0.02838,0.00443,-0.04196,-0.03281,-0.02304,0.01984,-0.01587,-0.02045,-0.00946,0.00061,-0.03006,-0.01587,0.00931,-0.03906
9.901,0.02716,-0.03967,-0.03296,0.02777,-0.03357,-0.03159,-0.01999,0.02945,-0.01648,-0.02121,-0.00809,-0.00275,-0.03204,-0.01617,0.00931,-0.03906
9.9015,0.03174,-0.04105,-0.03723,0.04761,-0.02594,-0.03326,-0.01755,0.03738,-0.0174,-0.01938,-0.00824,-0.00565,-0.03281,-0.01694,0.01099,-0.03983
9.902,0.03448,-0.04318,-0.03754,0.05066,-0.01831,-0.03723,-0.01724,0.04074,-0.0177,-0.01846,-0.00824,-0.00778,-0.03311,-0.01801,0.01114,-0.0412
9.9025,0.0386,-0.04761,-0.03647,0.04181,-0.00549,-0.04227,-0.01709,0.03754,-0.01648,-0.01846,-0.00854,-0.0119,-0.03479,-0.02014,0.01022,-0.04166
9.903,0.04364,-0.05325,-0.03632,0.03769,0.01129,-0.04608,-0.01602,0.03159,-0.01526,-0.01846,-0.00977,-0.01801,-0.03677,-0.02151,0.00778,-0.04074
9.9035,0.04745,-0.06042,-0.03769,0.04501,0.02228,-0.04837,-0.01495,0.02747,-0.01404,-0.01663,-0.01068,-0.0235,-0.0383,-0.02136,0.00732,-0.04044
9.904,0.05112,-0.07355,-0.04074,0.06027,0.02045,-0.04791,-0.01434,0.02609,-0.0148,-0.01602,-0.01144,-0.02731,-0.03632,-0.02014,0.00839,-0.04196
9.9045,0.05554,-0.09277,-0.04532,0.0708,0.01328,-0.04883,-0.0145,0.02319,-0.01678,-0.01694,-0.01175,-0.02838,-0.03464,-0.01755,0.00961,-0.04288
9.905,0.05875,-0.10696,-0.05234,0.06805,0.00854,-0.05463,-0.01251,0.01663,-0.01724,-0.0174,-0.01175,-0.02869,-0.03372,-0.01617,0.01053,-0.04379
9.9055,0.06088,-0.10422,-0.05829,0.05127,0.01236,-0.06332,-0.00839,0.00916,-0.01694,-0.01633,-0.00839,-0.02716,-0.03357,-0.01572,0.01129,-0.0441
9.906,0.0621,-0.08331,-0.06424,0.0267,0.02609,-0.06943,-0.00427,0.00336,-0.01587,-0.01587,-0.00763,-0.02228,-0.03326,-0.01709,0.01236,-0.0444
9.9065,0.06165,-0.0531,-0.06943,0.00031,0.05295,-0.06882,-0.00214,0.00015,-0.01663,-0.01663,-0.00916,-0.01511,-0.0325,-0.01923,0.01282,-0.04379
9.907,0.0621,-0.0264,-0.07507,-0.02441,0.09476,-0.06088,-0.00153,-0.00443,-0.01617,-0.01678,-0.01236,-0.00793,-0.03326,-0.02045,0.0119,-0.04349
9.9075,0.06241,-0.00732,-0.08331,-0.05066,0.13672,-0.05035,-0.00259,-0.01297,-0.01434,-0.0177,-0.01358,-0.0032,-0.03464,-0.02121,0.0119,-0.04272
9.908,0.0647,0.00427,-0.09155,-0.07935,0.15686,-0.04395,-0.00595,-0.02304,-0.01343,-0.01938,-0.01221,-0.00137,-0.03464,-0.02014,0.01114,-0.04181
9.9085,0.06577,0.00977,-0.08133,-0.09995,0.15015,-0.04456,-0.01099,-0.03082,-0.01343,-0.01999,-0.01114,-0.00305,-0.03311,-0.01923,0.01007,-0.04044
9.909,0.06287,0.00732,-0.04181,-0.10178,0.13245,-0.05051,-0.01556,-0.03418,-0.01434,-0.01984,-0.01053,-0.01221,-0.03128,-0.01801,0.01144,-0.03998
9.9095,0.05737,-0.00336,0.0061,-0.08636,0.10147,-0.05676,-0.0177,-0.03189,-0.01511,-0.01816,-0.00977,-0.02747,-0.02899,-0.01694,0.01282,-0.04044
9.91,0.05203,-0.01541,0.02533,-0.0705,0.02594,-0.06073,-0.01877,-0.02747,-0.0145,-0.0174,-0.01007,-0.03983,-0.02808,-0.01572,0.01358,-0.03998
9.9105,0.04852,-0.02335,0.00092,-0.06607,-0.11063,-0.06424,-0.02106,-0.0238,-0.01404,-0.01877,-0.00977,-0.0383,-0.02777,-0.01602,0.01419,-0.03906
9.911,0.04623,-0.02701,-0.03143,-0.07294,-0.25955,-0.06729,-0.02213,-0.02365,-0.01434,-0.02029,-0.01007,-0.02426,-0.02853,-0.01678,0.01282,-0.0383
9.9115,0.04501,-0.03052,-0.02808,-0.08621,-0.33951,-0.0705,-0.02228,-0.02579,-0.01495,-0.0206,-0.00931,-0.0058,-0.02808,-0.01663,0.01144,-0.03815
9.912,0.0473,-0.03952,0.00656,-0.09796,-0.31433,-0.06775,-0.02533,-0.0264,-0.01495,-0.01907,-0.009,0.01022,-0.02747,-0.01556,0.01083,-0.03769
9.9125,0.05051,-0.05157,0.04059,-0.09811,-0.22537,-0.05997,-0.02792,-0.02289,-0.01434,-0.01816,-0.00931,0.01907,-0.02701,-0.01511,0.01099,-0.0383
9.913,0.0531,-0.05966,0.0592,-0.08545,-0.14481,-0.04684,-0.02213,-0.01953,-0.01434,-0.01724,-0.00977,0.01968,-0.02747,-0.01617,0.01068,-0.04044
9.9135,0.05524,-0.06058,0.07202,-0.0705,-0.10635,-0.03754,-0.00198,-0.02121,-0.01266,-0.01587,-0.00824,0.02106,-0.02777,-0.01678,0.00916,-0.04227
9.914,0.05569,-0.05569,0.07889,-0.0621,-0.09308,-0.03174,0.02441,-0.02762,-0.01221,-0.01678,-0.00595,0.0322,-0.02869,-0.01526,0.0087,-0.04272
9.9145,0.05539,-0.05127,0.07065,-0.05661,-0.0853,-0.02914,0.03891,-0.0322,-0.01297,-0.01831,-0.00519,0.04807,-0.03128,-0.01495,0.00946,-0.04257
9.915,0.05325,-0.04974,0.04929,-0.04822,-0.08865,-0.02884,0.02899,-0.03113,-0.01389,-0.01984,-0.00595,0.05386,-0.03296,-0.0174,0.01068,-0.0412
9.9155,0.05173,-0.04898,0.02914,-0.03769,-0.10834,-0.03174,0.00717,-0.02579,-0.01434,-0.02106,-0.00717,0.05051,-0.03387,-0.02045,0.01022,-0.03967
9.916,0.05051,-0.04837,0.0148,-0.02731,-0.11215,-0.03693,-0.00671,-0.01953,-0.01465,-0.02167,-0.00824,0.05615,-0.03372,-0.02274,0.00916,-0.03983
9.9165,0.05112,-0.04761,0.00122,-0.01862,-0.07614,-0.04181,-0.00778,-0.01373,-0.01526,-0.02075,-0.01038,0.07172,-0.03494,-0.02304,0.00961,-0.03998
9.917,0.05127,-0.04761,-0.01343,-0.01312,-0.01892,-0.04318,-0.00412,-0.00992,-0.01511,-0.01968,-0.01083,0.07278,-0.03708,-0.02258,0.01083,-0.03922
9.9175,0.05081,-0.04791,-0.02594,-0.00839,0.02243,-0.04059,-0.00458,-0.00565,-0.01389,-0.01953,-0.00809,0.03967,-0.03769,-0.02228,0.01221,-0.03754
9.918,0.05066,-0.047,-0.03647,-0.00122,0.0351,-0.03601,-0.00717,-0.00107,-0.0145,-0.0209,-0.0058,-0.02106,-0.03845,-0.02167,0.01358,-0.03708
9.9185,0.04944,-0.04669,-0.04562,0.01022,0.02838,-0.03296,-0.00717,0.00534,-0.01495,-0.02197,-0.00641,-0.0885,-0.03937,-0.02121,0.01373,-0.0386
9.919,0.04868,-0.04776,-0.05676,0.02014,0.01053,-0.02945,-0.00443,0.01007,-0.0174,-0.02289,-0.0087,-0.14877,-0.04059,-0.02106,0.01404,-0.03952
9.9195,0.04898,-0.04608,-0.06729,0.02289,-0.01099,-0.02213,-0.00153,0.01236,-0.0174,-0.02304,-0.00885,-0.19379,-0.04013,-0.02106,0.0145,-0.03815
9.92,0.05051,-0.04166,-0.07446,0.01907,-0.02975,-0.0145,0.00015,0.01068,-0.01633,-0.02396,-0.00656,-0.20782,-0.03845,-0.02075,0.0148,-0.03632
9.9205,0.05127,-0.03677,-0.07767,0.0116,-0.05173,-0.01297,-0.00031,0.00977,-0.01541,-0.02441,-0.00656,-0.16129,-0.03799,-0.02014,0.01495,-0.03662
9.921,0.05066,-0.03265,-0.07629,0.00763,-0.08453,-0.01816,-0.00381,0.01068,-0.0145,-0.02243,-0.00992,-0.03677,-0.03983,-0.01999,0.01541,-0.03784
9.9215,0.04791,-0.03128,-0.07019,0.00854,-0.112,-0.02472,-0.00839,0.01312,-0.01404,-0.02014,-0.01175,0.12589,-0.04257,-0.02014,0.01556,-0.03799
9.922,0.04471,-0.03281,-0.06317,0.01099,-0.10132,-0.02991,-0.01022,0.01495,-0.01434,-0.01938,-0.01022,0.23544,-0.04501,-0.02014,0.01511,-0.03708
9.9225,0.04288,-0.03693,-0.0589,0.00992,-0.05081,-0.03494,-0.0058,0.01602,-0.01465,-0.01984,-0.00931,0.22385,-0.04715,-0.01938,0.01358,-0.0383
9.923,0.0412,-0.04044,-0.05661,0.00534,-0.00427,-0.0444,0.0032,0.01755,-0.01404,-0.0209,-0.00946,0.11337,-0.04669,-0.01907,0.01144,-0.04166
9.9235,0.04059,-0.04257,-0.05646,0.00153,0.00763,-0.06027,0.0116,0.01923,-0.01266,-0.0209,-0.01022,-0.01556,-0.04425,-0.01938,0.00961,-0.04395
9.924,0.03876,-0.04242,-0.06241,0.00122,-0.00214,-0.07584,0.01465,0.01923,-0.01266,-0.02075,-0.00977,-0.10529,-0.04196,-0.0209,0.00717,-0.0444
9.9245,0.03571,-0.03952,-0.07507,0.00427,-0.00412,-0.08469,0.00809,0.01907,-0.0148,-0.0209,-0.01038,-0.14679,-0.04028,-0.0206,0.00687,-0.04456
9.925,0.03296,-0.03723,-0.08789,0.00961,0.01358,-0.08682,-0.01099,0.01816,-0.01648,-0.0206,-0.01099,-0.14984,-0.03845,-0.01907,0.00626,-0.04562
9.9255,0.03006,-0.03632,-0.08789,0.01526,0.04395,-0.08698,-0.0473,0.01724,-0.0174,-0.01953,-0.01144,-0.13504,-0.03662,-0.01755,0.00595,-0.0473
9.926,0.02716,-0.0354,-0.0766,0.01877,0.07431,-0.08118,-0.09232,0.01556,-0.01678,-0.01862,-0.00992,-0.1297,-0.03448,-0.01755,0.00519,-0.04883
9.9265,0.02411,-0.03281,-0.06012,0.01831,0.08667,-0.06851,-0.11429,0.01541,-0.0148,-0.01892,-0.00885,-0.13596,-0.03403,-0.01877,0.00443,-0.05127
9.927,0.01953,-0.02991,-0.04074,0.01663,0.07278,-0.05432,-0.09308,0.01678,-0.01404,-0.01968,-0.00916,-0.12756,-0.0325,-0.02014,0.00183,-0.05325
9.9275,0.01144,-0.03052,-0.01907,0.01755,0.03586,-0.04684,-0.04379,0.01831,-0.01541,-0.01907,-0.01038,-0.08469,-0.02991,-0.01968,0.00168,-0.05188
9.928,-0.00015,-0.0322,-0.00168,0.0235,-0.00854,-0.04761,-0.00259,0.01877,-0.01694,-0.01892,-0.01282,-0.02884,-0.02731,-0.01831,0.00336,-0.04974
9.9285,-0.01053,-0.03311,0.00473,0.0322,-0.04761,-0.04959,0.0148,0.02106,-0.0177,-0.0177,-0.01343,0.01022,-0.02716,-0.01801,0.00671,-0.04684
9.929,-0.01526,-0.03265,-0.00015,0.04227,-0.08408,-0.04837,0.02121,0.02441,-0.01755,-0.01633,-0.01328,0.02884,-0.02838,-0.01724,0.00839,-0.04471
9.9295,-0.01068,-0.0325,-0.01083,0.05219,-0.11688,-0.04593,0.03281,0.02762,-0.01755,-0.01556,-0.01282,0.047,-0.02884,-0.01495,0.01099,-0.04227
9.93,-0.00076,-0.03357,-0.02243,0.05814,-0.13626,-0.04257,0.04227,0.02777,-0.01709,-0.01556,-0.01312,0.07797,-0.02655,-0.01297,0.01236,-0.04013
9.9305,0.00488,-0.03616,-0.03281,0.05417,-0.1178,-0.04074,0.03937,0.02411,-0.01678,-0.01633,-0.01358,0.1004,-0.02533,-0.01282,0.01022,-0.03891
9.931,0.00336,-0.03983,-0.04105,0.03937,-0.06485,-0.03799,0.0264,0.01938,-0.01617,-0.01709,-0.01175,0.08011,-0.02487,-0.01434,0.00961,-0.03937
9.9315,-0.00153,-0.04379,-0.0444,0.01617,-0.01495,-0.03464,0.0148,0.01526,-0.01541,-0.01587,-0.01114,0.0267,-0.02594,-0.01678,0.00839,-0.03952
9.932,-0.00427,-0.04639,-0.04318,-0.01144,0.00122,-0.03235,0.00946,0.0061,-0.01404,-0.01663,-0.01266,0.00305,-0.02808,-0.01907,0.00717,-0.04059
9.9325,-0.00275,-0.04669,-0.04196,-0.04288,-0.00763,-0.03311,0.00183,-0.009,-0.01373,-0.01724,-0.01419,0.05875,-0.02838,-0.01907,0.00504,-0.04135
9.933,0.00031,-0.04684,-0.04181,-0.07217,-0.01389,-0.03632,-0.0116,-0.02441,-0.01465,-0.0177,-0.01282,0.16159,-0.02731,-0.01709,0.00397,-0.0415
9.9335,0.0029,-0.04837,-0.04028,-0.08835,-0.01266,-0.03967,-0.0267,-0.03464,-0.01587,-0.01923,-0.01083,0.21454,-0.0267,-0.01633,0.00519,-0.0412
9.934,0.00275,-0.05112,-0.03586,-0.08667,-0.02487,-0.04196,-0.0383,-0.03754,-0.01617,-0.01999,-0.01114,0.16052,-0.02716,-0.01678,0.00702,-0.04135
9.9345,0.00214,-0.05753,-0.03143,-0.07309,-0.06531,-0.04257,-0.04211,-0.03448,-0.01678,-0.01999,-0.01266,0.0589,-0.02853,-0.0177,0.00793,-0.04227
9.935,0.00275,-0.06836,-0.03082,-0.05783,-0.11093,-0.04288,-0.04196,-0.0293,-0.01617,-0.01892,-0.01465,0.02502,-0.02899,-0.01938,0.00824,-0.04303
9.9355,0.00351,-0.07874,-0.0325,-0.04822,-0.11627,-0.04196,-0.04471,-0.02747,-0.01633,-0.01877,-0.01755,0.08987,-0.0296,-0.01923,0.00778,-0.04303
9.936,0.00366,-0.08026,-0.03754,-0.04501,-0.07446,-0.04089,-0.05417,-0.02808,-0.01617,-0.01938,-0.01907,0.15671,-0.03021,-0.01938,0.00702,-0.04318
9.9365,0.00076,-0.07095,-0.04593,-0.04425,-0.02686,-0.04196,-0.06516,-0.0293,-0.01633,-0.01953,-0.01938,0.13428,-0.02991,-0.01999,0.0058,-0.04349
9.937,-0.00458,-0.05798,-0.05524,-0.0386,-0.00839,-0.04364,-0.06638,-0.0267,-0.01648,-0.01831,-0.01846,0.047,-0.03021,-0.02106,0.00214,-0.04471
9.9375,-0.01144,-0.05432,-0.06134,-0.02487,-0.0116,-0.04562,-0.04715,-0.01953,-0.01602,-0.01709,-0.01785,-0.02243,-0.03067,-0.02258,-0.00092,-0.04547
9.938,-0.01862,-0.06348,-0.06012,-0.00397,-0.01526,-0.04654,-0.0032,-0.01129,-0.01572,-0.01709,-0.01877,-0.04791,-0.03098,-0.02289,-0.00336,-0.04456
9.9385,-0.02304,-0.07874,-0.05219,0.01251,-0.01266,-0.04776,0.05127,-0.0058,-0.01663,-0.01755,-0.01938,-0.06577,-0.03067,-0.0209,-0.00366,-0.04288
9.939,-0.02548,-0.08652,-0.04395,0.01282,-0.01617,-0.04761,0.08606,-0.00473,-0.0174,-0.01816,-0.01999,-0.09201,-0.03128,-0.01938,-0.00259,-0.04196
9.9395,-0.02609,-0.08011,-0.03891,-0.00092,-0.02853,-0.04654,0.07645,-0.00641,-0.01617,-0.0174,-0.01938,-0.09384,-0.03098,-0.01877,-0.00031,-0.04227
9.94,-0.02502,-0.06348,-0.03723,-0.01434,-0.04486,-0.04593,0.03647,-0.00687,-0.01495,-0.01724,-0.01862,-0.03174,-0.02899,-0.01862,0.00153,-0.04166
9.9405,-0.02258,-0.04272,-0.03784,-0.01572,-0.05615,-0.04791,0.00473,-0.00626,-0.01434,-0.01724,-0.01892,0.07904,-0.02686,-0.01831,0.00244,-0.0412
9.941,-0.01938,-0.02075,-0.0386,-0.00732,-0.05508,-0.05005,-0.00122,-0.00427,-0.0148,-0.0177,-0.01801,0.16861,-0.02625,-0.01678,0.00259,-0.04242
9.9415,-0.01694,0.0,-0.03952,-0.00061,-0.04776,-0.05081,-0.00229,-0.00244,-0.01495,-0.01816,-0.01831,0.17059,-0.02686,-0.01587,0.0032,-0.04501
9.942,-0.01419,0.01541,-0.03922,-0.00076,-0.03998,-0.05081,-0.01678,-0.00198,-0.0148,-0.01907,-0.01938,0.08423,-0.02853,-0.01785,0.00351,-0.04471
9.9425,-0.00641,0.02487,-0.0386,-0.00488,-0.03723,-0.05005,-0.03464,-0.00351,-0.01465,-0.01984,-0.01984,-0.02289,-0.02914,-0.01984,0.00458,-0.04272
9.943,0.00412,0.03067,-0.03769,-0.01022,-0.03342,-0.04929,-0.03754,-0.00519,-0.01526,-0.01907,-0.02045,-0.0769,-0.02899,-0.01923,0.00641,-0.04059
9.9435,0.00992,0.03403,-0.03677,-0.01541,-0.02228,-0.04959,-0.02991,-0.00473,-0.01526,-0.01877,-0.01968,-0.07111,-0.02975,-0.01892,0.00824,-0.04135
9.944,0.00961,0.03189,-0.03998,-0.01862,-0.00519,-0.04822,-0.0296,-0.00336,-0.01602,-0.01785,-0.01938,-0.06332,-0.03021,-0.01953,0.0087,-0.04196
9.9445,0.00397,0.02151,-0.05096,-0.01694,0.00504,-0.04669,-0.04272,-0.00198,-0.01572,-0.01617,-0.0206,-0.11383,-0.03159,-0.02075,0.00778,-0.04333
9.945,-0.00305,0.00854,-0.06653,-0.00992,0.00198,-0.04639,-0.05356,-0.00214,-0.01587,-0.01678,-0.02289,-0.2272,-0.03159,-0.02151,0.00549,-0.04364
9.9455,-0.00961,-0.00198,-0.07782,-0.00137,-0.00824,-0.04791,-0.05249,-0.00092,-0.0145,-0.01755,-0.02411,-0.34027,-0.03159,-0.01892,0.00397,-0.04272
9.946,-0.01328,-0.0116,-0.07965,0.00443,-0.01328,-0.05081,-0.05035,0.00137,-0.01389,-0.01816,-0.02304,-0.37476,-0.03174,-0.0174,0.00198,-0.04211
9.9465,-0.01129,-0.02304,-0.07584,0.00732,-0.00793,-0.05234,-0.06149,0.00351,-0.01526,-0.01877,-0.0206,-0.31174,-0.03296,-0.01678,0.00153,-0.04272
9.947,-0.00153,-0.03403,-0.06699,0.00641,0.00259,-0.05188,-0.08163,0.00168,-0.0177,-0.01953,-0.01968,-0.18845,-0.03265,-0.0174,0.00381,-0.04395
9.9475,0.00916,-0.03952,-0.0502,0.00244,0.00946,-0.05112,-0.09521,-0.00061,-0.01877,-0.0209,-0.0209,-0.04105,-0.03342,-0.01816,0.00565,-0.0444
9.948,0.01343,-0.04028,-0.02457,-0.00076,0.00732,-0.04959,-0.08926,-0.00229,-0.01724,-0.02014,-0.02243,0.11169,-0.03387,-0.01999,0.00687,-0.04395
9.9485,0.00748,-0.04181,0.0,-0.00153,-0.0058,-0.04929,-0.05829,-0.00198,-0.01572,-0.01862,-0.02457,0.24124,-0.03387,-0.0206,0.00839,-0.04379
9.949,-0.00656,-0.04684,0.0177,0.00031,-0.02487,-0.05096,-0.00046,-0.00015,-0.01495,-0.01877,-0.02396,0.31631,-0.0325,-0.01968,0.01038,-0.04349
9.9495,-0.01999,-0.05173,0.03082,0.00259,-0.04532,-0.05234,0.06729,0.00153,-0.01495,-0.01968,-0.02274,0.32227,-0.03128,-0.01816,0.01175,-0.04227
9.95,-0.03021,-0.05386,0.04181,0.00275,-0.06088,-0.05325,0.10391,0.00305,-0.01556,-0.01892,-0.01953,0.26031,-0.03098,-0.0177,0.0119,-0.03998
9.9505,-0.03845,-0.05661,0.04608,0.00015,-0.06927,-0.05356,0.08987,0.0032,-0.01602,-0.01724,-0.01862,0.14999,-0.03143,-0.0177,0.01007,-0.03952
9.951,-0.04669,-0.06256,0.04196,-0.00427,-0.07172,-0.05203,0.05859,0.00305,-0.01572,-0.01633,-0.01755,0.04303,-0.03235,-0.01816,0.00885,-0.04135
9.9515,-0.05325,-0.06821,0.03143,-0.01007,-0.06851,-0.05066,0.04425,0.00336,-0.01495,-0.01526,-0.01785,-0.01678,-0.03342,-0.01816,0.00778,-0.04349
9.952,-0.05585,-0.07004,0.0206,-0.01572,-0.05783,-0.04974,0.03754,0.00122,-0.01526,-0.01572,-0.01862,-0.03204,-0.03387,-0.01877,0.00641,-0.04456
9.9525,-0.05371,-0.06454,0.01129,-0.02045,-0.04196,-0.04929,0.0148,-0.00046,-0.01694,-0.01556,-0.01862,-0.03403,-0.03494,-0.02014,0.00671,-0.04547
9.953,-0.04837,-0.05661,0.00381,-0.02106,-0.02975,-0.04929,-0.01343,-0.00198,-0.01694,-0.01389,-0.01877,-0.03998,-0.03586,-0.02106,0.00839,-0.04562
9.9535,-0.04196,-0.05096,-0.00412,-0.0174,-0.02884,-0.04944,-0.00763,-0.00122,-0.01602,-0.01343,-0.01785,-0.04807,-0.03662,-0.02106,0.01007,-0.04608
9.954,-0.03937,-0.04913,-0.01587,-0.01297,-0.03448,-0.04959,0.0412,0.00015,-0.01526,-0.01526,-0.01678,-0.05157,-0.03677,-0.01968,0.01007,-0.04669
9.9545,-0.0415,-0.04761,-0.03128,-0.01099,-0.03922,-0.04898,0.07751,0.00076,-0.01724,-0.01587,-0.01724,-0.04639,-0.03525,-0.01801,0.00931,-0.04761
9.955,-0.04471,-0.04456,-0.04745,-0.0116,-0.03601,-0.047,0.04837,-0.00351,-0.01923,-0.01633,-0.01724,-0.02563,-0.03525,-0.01816,0.009,-0.047
9.9555,-0.04242,-0.04272,-0.05829,-0.01343,-0.02731,-0.04547,-0.0177,-0.0119,-0.02045,-0.01648,-0.01709,-0.00031,-0.03601,-0.01801,0.0087,-0.04593
9.956,-0.03372,-0.0444,-0.06149,-0.01495,-0.01862,-0.04501,-0.04913,-0.01938,-0.02014,-0.01648,-0.01694,0.00931,-0.03586,-0.0174,0.00885,-0.04593
9.9565,-0.02213,-0.04944,-0.05569,-0.01556,-0.0116,-0.04562,-0.0351,-0.02213,-0.01877,-0.01511,-0.01968,0.00397,-0.03448,-0.01846,0.00931,-0.04669
9.957,-0.01556,-0.05783,-0.04822,-0.01602,-0.00732,-0.04562,-0.0293,-0.02014,-0.01785,-0.01617,-0.02151,0.009,-0.03479,-0.01968,0.01083,-0.04776
9.9575,-0.01419,-0.06516,-0.04227,-0.01709,-0.00778,-0.04547,-0.05371,-0.01526,-0.01709,-0.01816,-0.02274,0.03174,-0.03647,-0.02075,0.0119,-0.04745
9.958,-0.01389,-0.06775,-0.03983,-0.01892,-0.01358,-0.04639,-0.06714,-0.0119,-0.01724,-0.01999,-0.02136,0.04364,-0.03967,-0.01984,0.0116,-0.04654
9.9585,-0.01343,-0.06409,-0.03922,-0.02014,-0.02136,-0.04822,-0.04257,-0.01205,-0.01862,-0.02014,-0.0209,0.02548,-0.04105,-0.01862,0.00961,-0.04608
9.959,-0.01312,-0.05905,-0.0383,-0.01831,-0.02609,-0.04974,-0.00305,-0.01404,-0.01953,-0.02151,-0.01968,-0.00946,-0.04074,-0.01831,0.00946,-0.04623
9.9595,-0.01343,-0.05447,-0.03754,-0.0145,-0.02548,-0.05051,0.01617,-0.01709,-0.01923,-0.0209,-0.01907,-0.03632,-0.03952,-0.01892,0.01053,-0.04608
9.96,-0.01526,-0.04852,-0.03586,-0.01266,-0.02396,-0.04959,0.0116,-0.01862,-0.01816,-0.02151,-0.01694,-0.04807,-0.03937,-0.01999,0.01053,-0.04562
9.9605,-0.01877,-0.04013,-0.03525,-0.01328,-0.02594,-0.04974,-0.00259,-0.01907,-0.0174,-0.0206,-0.01526,-0.05203,-0.03967,-0.01984,0.00977,-0.04578
9.961,-0.02335,-0.03235,-0.03815,-0.01373,-0.0322,-0.05081,-0.01465,-0.01678,-0.01587,-0.02045,-0.0148,-0.04929,-0.03922,-0.01953,0.00748,-0.0473
9.9615,-0.02625,-0.02747,-0.04272,-0.0116,-0.03815,-0.05249,-0.02609,-0.01038,-0.01404,-0.01968,-0.01663,-0.04211,-0.03891,-0.01953,0.00809,-0.04791
9.962,-0.02533,-0.02701,-0.04868,-0.009,-0.04181,-0.05325,-0.03906,-0.00443,-0.01373,-0.01923,-0.01923,-0.03448,-0.03876,-0.01938,0.00961,-0.04791
9.9625,-0.02167,-0.02853,-0.0531,-0.00626,-0.03723,-0.05234,-0.05585,0.00229,-0.01434,-0.01968,-0.02106,-0.02914,-0.03952,-0.01907,0.01144,-0.04745
9.963,-0.01709,-0.03113,-0.05676,-0.00565,-0.0293,-0.05035,-0.07767,0.00443,-0.01434,-0.02121,-0.02121,-0.02563,-0.03952,-0.01846,0.01053,-0.04776
9.9635,-0.01251,-0.03235,-0.0647,-0.0061,-0.02472,-0.04868,-0.09827,-0.00153,-0.01511,-0.02014,-0.01984,-0.01938,-0.03876,-0.01846,0.00885,-0.04639
9.964,-0.00854,-0.03235,-0.0798,-0.00565,-0.02716,-0.04807,-0.10834,-0.01328,-0.01633,-0.02045,-0.01892,-0.00549,-0.0383,-0.01923,0.00839,-0.04456
9.9645,-0.00595,-0.02899,-0.09781,-0.00366,-0.03128,-0.04791,-0.10132,-0.01846,-0.01694,-0.01938,-0.0148,0.01602,-0.03708,-0.01938,0.00931,-0.04288
9.965,-0.00504,-0.02487,-0.10101,-0.00214,-0.03372,-0.04974,-0.07706,-0.01083,-0.01678,-0.01923,-0.01221,0.04089,-0.03647,-0.01801,0.01099,-0.04257
9.9655,-0.00626,-0.0267,-0.08179,-0.00198,-0.03326,-0.05249,-0.04166,0.00061,-0.01648,-0.01984,-0.01297,0.06271,-0.03677,-0.01587,0.01251,-0.04211
9.966,-0.00732,-0.03296,-0.05188,-0.00519,-0.03479,-0.05356,-0.01633,0.00381,-0.01541,-0.02106,-0.01526,0.07126,-0.03708,-0.01526,0.01312,-0.04242
9.9665,-0.00717,-0.03937,-0.02777,-0.01007,-0.03632,-0.05203,-0.02151,-0.00671,-0.01587,-0.02182,-0.01495,0.05692,-0.03754,-0.01755,0.01236,-0.04105
9.967,-0.00458,-0.04395,-0.01053,-0.01343,-0.03479,-0.04898,-0.05005,-0.0206,-0.01587,-0.02197,-0.01419,0.0267,-0.03708,-0.01938,0.01099,-0.04028
9.9675,-0.0029,-0.04761,0.00534,-0.01495,-0.03296,-0.0473,-0.0647,-0.02808,-0.01648,-0.02182,-0.01556,0.00076,-0.03601,-0.02014,0.00931,-0.03952
9.968,-0.00565,-0.05157,0.0148,-0.01389,-0.03159,-0.04883,-0.03021,-0.0235,-0.01556,-0.02304,-0.01465,-0.00671,-0.03494,-0.01907,0.00961,-0.03952
9.9685,-0.01175,-0.05402,0.00977,-0.01251,-0.03265,-0.05142,0.04166,-0.01572,-0.01434,-0.02319,-0.01389,-0.00015,-0.03326,-0.01801,0.00992,-0.04059
9.969,-0.01755,-0.05508,-0.00732,-0.01434,-0.03433,-0.05356,0.09369,-0.01358,-0.01419,-0.02213,-0.0119,0.00809,-0.03204,-0.01816,0.00946,-0.04105
9.9695,-0.01892,-0.05371,-0.02518,-0.0174,-0.03265,-0.05356,0.09293,-0.01633,-0.0148,-0.02121,-0.01083,0.01343,-0.03052,-0.01678,0.0087,-0.04074
9.97,-0.01556,-0.05203,-0.03387,-0.01968,-0.02823,-0.05005,0.06531,-0.01526,-0.0148,-0.01999,-0.01068,0.01724,-0.02945,-0.01419,0.00961,-0.03952
9.9705,-0.00809,-0.05157,-0.03433,-0.01938,-0.02472,-0.04623,0.04166,-0.00732,-0.01434,-0.01862,-0.01175,0.0177,-0.02914,-0.01328,0.01007,-0.03876
9.971,-0.00198,-0.05386,-0.02823,-0.01801,-0.02441,-0.04395,0.02182,-0.00031,-0.01404,-0.01755,-0.01389,0.01221,-0.02914,-0.01373,0.01083,-0.03906
9.9715,0.00137,-0.05798,-0.02106,-0.01404,-0.02731,-0.04257,-0.00183,0.00259,-0.01495,-0.0174,-0.01541,0.00153,-0.03006,-0.01434,0.01099,-0.03998
9.972,-0.00153,-0.06226,-0.01328,-0.00885,-0.02899,-0.04303,-0.01785,0.00153,-0.01541,-0.01724,-0.0148,-0.01038,-0.03067,-0.01511,0.01129,-0.04028
9.9725,-0.0058,-0.06561,-0.0061,-0.00565,-0.02991,-0.04395,-0.02075,-0.00061,-0.01572,-0.01617,-0.01434,-0.02121,-0.03082,-0.01541,0.01099,-0.03983
9.973,-0.00702,-0.06744,-0.00137,-0.00641,-0.03067,-0.04578,-0.02258,-0.00397,-0.01434,-0.01541,-0.01434,-0.03632,-0.03143,-0.01617,0.01144,-0.03906
9.9735,-0.0032,-0.06546,-0.00336,-0.0087,-0.0322,-0.04807,-0.03296,-0.00641,-0.01419,-0.01755,-0.01572,-0.06409,-0.03159,-0.01709,0.01022,-0.04013
9.974,0.00015,-0.05936,-0.01328,-0.01007,-0.03464,-0.0502,-0.03998,-0.00656,-0.01495,-0.01633,-0.01617,-0.10437,-0.03143,-0.01724,0.00946,-0.04242
9.9745,-0.00153,-0.05096,-0.02502,-0.01038,-0.03616,-0.05142,-0.03265,-0.00381,-0.01556,-0.01801,-0.01633,-0.14252,-0.03189,-0.01801,0.00931,-0.04364
9.975,-0.00626,-0.04364,-0.03616,-0.01007,-0.03738,-0.05127,-0.01663,0.0,-0.01511,-0.01907,-0.01587,-0.16525,-0.03021,-0.01801,0.00946,-0.0441
9.9755,-0.00946,-0.04028,-0.05432,-0.01007,-0.03601,-0.05112,-0.00793,0.00015,-0.01617,-0.01953,-0.01648,-0.15625,-0.02914,-0.01755,0.00992,-0.04395
9.976,-0.00992,-0.03601,-0.0946,-0.01038,-0.03708,-0.05112,-0.01099,-0.00214,-0.0174,-0.01984,-0.01633,-0.09674,-0.02884,-0.01877,0.00977,-0.04562
9.9765,-0.01175,-0.0322,-0.14862,-0.01144,-0.0386,-0.05219,-0.01846,-0.00397,-0.01816,-0.01968,-0.01556,0.01877,-0.02991,-0.01953,0.00916,-0.04517
9.977,-0.01663,-0.0322,-0.17792,-0.01221,-0.03952,-0.05341,-0.02167,-0.00427,-0.01724,-0.02106,-0.01434,0.14679,-0.03143,-0.01923,0.00793,-0.04318
9.9775,-0.02274,-0.03799,-0.15671,-0.01205,-0.04013,-0.0531,-0.02213,-0.00244,-0.01495,-0.02289,-0.01495,0.21042,-0.03174,-0.01846,0.00839,-0.04196
9.978,-0.02487,-0.04639,-0.1033,-0.01389,-0.03906,-0.05173,-0.02197,-0.00183,-0.01297,-0.02228,-0.01709,0.17944,-0.03082,-0.0177,0.01053,-0.04425
9.9785,-0.02289,-0.05142,-0.04959,-0.01617,-0.03937,-0.04929,-0.02243,-0.00336,-0.0119,-0.02151,-0.01923,0.10925,-0.03082,-0.0174,0.0119,-0.04745
9.979,-0.01785,-0.05051,-0.0058,-0.01816,-0.04044,-0.04776,-0.0235,-0.00717,-0.01419,-0.0209,-0.0177,0.06989,-0.0322,-0.01694,0.01007,-0.04837
9.9795,-0.0116,-0.04822,0.03189,-0.01862,-0.03998,-0.04715,-0.02426,-0.01038,-0.01617,-0.01953,-0.0174,0.06927,-0.03235,-0.01648,0.00809,-0.04791
9.98,-0.00443,-0.04852,0.05524,-0.01831,-0.03998,-0.0473,-0.02502,-0.00961,-0.01709,-0.01892,-0.01602,0.06897,-0.03128,-0.01556,0.00809,-0.04837
9.9805,-0.00031,-0.05142,0.05325,-0.01816,-0.03967,-0.04745,-0.02548,-0.00595,-0.01816,-0.01816,-0.01633,0.04578,-0.03143,-0.01602,0.00748,-0.04944
9.981,0.00122,-0.05341,0.0325,-0.01602,-0.03723,-0.04684,-0.02609,-0.00046,-0.01709,-0.02029,-0.0177,0.00931,-0.03311,-0.01694,0.00778,-0.0499
9.9815,0.00061,-0.05234,0.01083,-0.0116,-0.03082,-0.04623,-0.02533,0.00275,-0.01602,-0.0209,-0.01633,-0.01892,-0.03433,-0.01648,0.00778,-0.04852
9.982,-0.00046,-0.04669,-0.00412,-0.0061,-0.0235,-0.04684,-0.02289,0.0032,-0.01404,-0.02151,-0.0145,-0.02701,-0.03525,-0.01678,0.00809,-0.04684
9.9825,-0.00061,-0.04044,-0.01266,-0.00015,-0.02136,-0.04974,-0.02136,0.00214,-0.01419,-0.02167,-0.01465,-0.01999,-0.0354,-0.01785,0.00793,-0.04562
9.983,-0.00015,-0.03448,-0.01877,0.00397,-0.02426,-0.05173,-0.0209,0.00015,-0.0145,-0.01953,-0.01465,-0.01434,-0.03632,-0.01907,0.00748,-0.04593
