time,RectFemL,VastusMedL,VastusLatL,TibAntL,HamMedL,HamLatL,GastroMedL,GastroLatL,RectFemR,VastusMedR,VastusLatR,TibAntR,HamMedR,HamLatR,GastroMedR,GastroLatR
3.03,-0.01328,-0.04059,-0.04074,0.04318,-0.02884,-0.05066,0.14908,0.00168,-0.01434,-0.02274,-0.03815,-0.31097,-0.02914,-0.01465,0.0116,-0.01541
3.0305,-0.01297,-0.03815,-0.06439,0.07294,-0.02838,-0.05051,0.27283,0.00198,-0.01221,-0.01999,-0.04074,-0.2356,-0.02731,-0.01587,0.0145,-0.01144
3.031,-0.01328,-0.03815,-0.07492,0.11719,-0.02869,-0.04898,0.25803,0.00092,-0.00839,-0.01251,-0.03998,-0.10742,-0.02548,-0.0177,0.01465,-0.03403
3.0315,-0.01282,-0.0383,-0.07248,0.14496,-0.02716,-0.04807,0.13779,0.00076,-0.00458,-0.00397,-0.03784,0.02304,-0.02365,-0.01999,0.01175,-0.05905
3.032,-0.0119,-0.03662,-0.06409,0.12863,-0.02563,-0.04654,0.04898,-0.00092,-0.00336,-0.00092,-0.04028,0.08499,-0.02228,-0.02213,0.01099,-0.06165
3.0325,-0.01144,-0.03525,-0.05219,0.07477,-0.02625,-0.04562,0.0415,-0.00488,-0.00641,-0.00351,-0.04471,0.01755,-0.02167,-0.02304,0.01221,-0.04333
3.033,-0.0116,-0.03357,-0.03677,0.0145,-0.02853,-0.04532,0.04272,-0.00839,-0.01144,-0.009,-0.04715,-0.16098,-0.02167,-0.02167,0.0119,-0.02853
3.0335,-0.01419,-0.03387,-0.02274,-0.03464,-0.03067,-0.04562,0.00137,-0.00778,-0.01358,-0.01282,-0.04715,-0.30853,-0.02243,-0.01907,0.01022,-0.02884
3.034,-0.01694,-0.04074,-0.01266,-0.08667,-0.03281,-0.04608,-0.04242,-0.00397,-0.01541,-0.0145,-0.04547,-0.27557,-0.02457,-0.01816,0.00671,-0.03708
3.0345,-0.01877,-0.05753,-0.00778,-0.16159,-0.03281,-0.04669,-0.04547,-0.00031,-0.01877,-0.01526,-0.04227,-0.0563,-0.02609,-0.01984,0.00534,-0.04333
3.035,-0.01862,-0.07782,-0.00595,-0.27069,-0.03113,-0.04669,-0.02075,0.00061,-0.02319,-0.01663,-0.03403,0.23438,-0.02563,-0.02197,0.00656,-0.04425
3.0355,-0.01602,-0.08545,-0.00534,-0.39413,-0.03067,-0.0473,0.00732,0.00076,-0.02487,-0.01968,-0.0206,0.4837,-0.02579,-0.02335,0.00732,-0.04608
3.036,-0.01251,-0.07797,-0.00626,-0.48218,-0.0322,-0.04868,0.02975,0.00229,-0.02502,-0.02228,-0.00839,0.60562,-0.02609,-0.0235,0.00732,-0.04837
3.0365,-0.0087,-0.06973,-0.00549,-0.5011,-0.03403,-0.04944,0.03632,0.0061,-0.02487,-0.02686,-0.00443,0.5249,-0.02731,-0.02258,0.0061,-0.05096
3.037,-0.00763,-0.08392,0.0029,-0.46295,-0.03525,-0.05005,0.01511,0.00992,-0.02594,-0.03845,-0.01099,0.26688,-0.02975,-0.02151,0.00397,-0.05234
3.0375,-0.00839,-0.12802,0.01709,-0.39398,-0.03647,-0.0499,-0.02121,0.01053,-0.02655,-0.0589,-0.02014,-0.0029,-0.03067,-0.0206,0.00412,-0.05295
3.038,-0.01038,-0.1857,0.03357,-0.27802,-0.0383,-0.05005,-0.04257,0.00916,-0.02441,-0.07858,-0.02625,-0.1239,-0.03098,-0.0209,0.00671,-0.05447
3.0385,-0.01205,-0.22705,0.05127,-0.07248,-0.03784,-0.05112,-0.04623,0.00656,-0.02197,-0.08972,-0.02838,-0.1088,-0.03159,-0.02136,0.00839,-0.05722
3.039,-0.01389,-0.23605,0.06699,0.22751,-0.03738,-0.05173,-0.04715,0.00366,-0.0209,-0.08972,-0.03082,-0.09613,-0.03403,-0.02075,0.00809,-0.0592
3.0395,-0.01572,-0.22156,0.06271,0.52963,-0.03616,-0.05142,-0.04074,0.00122,-0.01877,-0.0853,-0.03525,-0.15137,-0.03586,-0.01907,0.00626,-0.06088
3.04,-0.01633,-0.1947,0.03326,0.65689,-0.03433,-0.04974,-0.00458,-0.00198,-0.0145,-0.07904,-0.04181,-0.2179,-0.03448,-0.01617,0.00549,-0.06088
3.0405,-0.01556,-0.1535,-0.01022,0.51453,-0.03281,-0.04929,0.04105,-0.0061,-0.00717,-0.07172,-0.04974,-0.22461,-0.03174,-0.01175,0.00534,-0.05875
3.041,-0.01251,-0.09476,-0.05096,0.23209,-0.03128,-0.0502,0.03891,-0.01205,0.00107,-0.06195,-0.05432,-0.16235,-0.03052,-0.00839,0.00702,-0.05493
3.0415,-0.00641,-0.02975,-0.08057,0.0473,-0.03006,-0.05051,-0.02411,-0.0148,0.00702,-0.04913,-0.05234,-0.0441,-0.03113,-0.00687,0.00839,-0.05249
3.042,0.00153,0.02701,-0.1004,0.04623,-0.02899,-0.04944,-0.09399,-0.01434,0.00961,-0.03464,-0.04517,0.11215,-0.03098,-0.00778,0.00854,-0.05112
3.0425,0.00687,0.07294,-0.11765,0.11078,-0.02823,-0.04745,-0.11292,-0.01251,0.00824,-0.0235,-0.03647,0.23941,-0.02899,-0.00854,0.00931,-0.05127
3.043,0.00885,0.1181,-0.13474,0.11169,-0.02731,-0.04517,-0.07187,-0.00931,0.00488,-0.01724,-0.02869,0.24307,-0.02686,-0.00931,0.0087,-0.0531
3.0435,0.00854,0.1593,-0.15091,0.04211,-0.02701,-0.04593,-0.00351,-0.0029,-0.00031,-0.01572,-0.02258,0.10544,-0.02777,-0.01083,0.00656,-0.05508
3.044,0.00824,0.18219,-0.15884,-0.03113,-0.02655,-0.04807,0.04669,0.00198,-0.00595,-0.01724,-0.01617,-0.07187,-0.03098,-0.01404,0.00427,-0.05707
3.0445,0.00839,0.17349,-0.15427,-0.07309,-0.02777,-0.04868,0.05554,0.00336,-0.01282,-0.01877,-0.00595,-0.16449,-0.03464,-0.01862,0.00397,-0.05905
3.045,0.00885,0.13916,-0.13977,-0.09262,-0.02792,-0.04761,0.03891,0.00031,-0.01724,-0.01541,0.00702,-0.13062,-0.03586,-0.02197,0.00565,-0.05844
3.0455,0.01129,0.09674,-0.11337,-0.10178,-0.02777,-0.04639,0.01404,-0.00412,-0.01968,-0.01068,0.01663,-0.00504,-0.03647,-0.02426,0.00763,-0.05737
3.046,0.01816,0.05661,-0.07324,-0.10452,-0.02777,-0.04684,-0.03159,-0.00732,-0.01984,-0.0119,0.02182,0.13336,-0.03632,-0.02396,0.00839,-0.05569
3.0465,0.02823,0.02075,-0.03555,-0.10132,-0.02686,-0.04715,-0.10452,-0.0087,-0.01968,-0.02426,0.02548,0.19348,-0.03647,-0.0238,0.01007,-0.05386
3.047,0.03632,-0.01205,-0.02502,-0.0946,-0.02686,-0.04578,-0.17273,-0.00931,-0.01862,-0.04593,0.02945,0.14297,-0.03479,-0.02441,0.01144,-0.05142
3.0475,0.03372,-0.04044,-0.04349,-0.08087,-0.02762,-0.04547,-0.20309,-0.00809,-0.01556,-0.06378,0.03433,0.05844,-0.03113,-0.02518,0.01007,-0.05035
3.048,0.00931,-0.06165,-0.06836,-0.05737,-0.02838,-0.04562,-0.19531,-0.0058,-0.01297,-0.06836,0.03891,0.03052,-0.02792,-0.02563,0.00748,-0.05173
3.0485,-0.03952,-0.07553,-0.07858,-0.02884,-0.02884,-0.04639,-0.1236,-0.0029,-0.01312,-0.05829,0.04196,0.05753,-0.02701,-0.02487,0.00641,-0.05447
3.049,-0.09415,-0.07889,-0.07202,-0.00198,-0.02792,-0.04639,0.04639,-0.00137,-0.01648,-0.03677,0.04013,0.07309,-0.0293,-0.02243,0.00763,-0.05554
3.0495,-0.1326,-0.06958,-0.05768,0.01541,-0.02655,-0.04517,0.22324,0.00107,-0.01984,-0.00854,0.03281,0.04745,-0.03235,-0.02014,0.01068,-0.05295
3.05,-0.14709,-0.04517,-0.04089,0.01968,-0.02487,-0.04379,0.22766,0.00427,-0.02075,0.02457,0.02274,0.00473,-0.03693,-0.01984,0.0116,-0.05035
3.0505,-0.15213,-0.01328,-0.02563,0.01221,-0.02472,-0.04318,0.05966,0.00519,-0.02075,0.05661,0.01205,-0.03784,-0.0412,-0.02121,0.01083,-0.04852
3.051,-0.15701,0.0087,-0.01175,-0.00015,-0.02701,-0.04272,-0.06439,0.00397,-0.02213,0.08255,-0.00015,-0.08499,-0.04181,-0.02136,0.0119,-0.04669
3.0515,-0.16251,0.00946,-0.00229,-0.01297,-0.02975,-0.04257,-0.01541,0.0029,-0.02609,0.09583,-0.01419,-0.13184,-0.0383,-0.01938,0.01373,-0.04395
3.052,-0.16403,-0.00626,0.00198,-0.02426,-0.03174,-0.04227,0.08194,0.0032,-0.03113,0.09857,-0.02869,-0.15778,-0.03418,-0.01877,0.01389,-0.04227
3.0525,-0.16174,-0.02258,0.00275,-0.01938,-0.03082,-0.04105,0.0769,0.00488,-0.03387,0.0975,-0.03845,-0.14633,-0.03113,-0.01862,0.01343,-0.04349
3.053,-0.15671,-0.03708,0.00275,0.01617,-0.02899,-0.04105,-0.00061,0.00519,-0.03357,0.09598,-0.04562,-0.10117,-0.02991,-0.01999,0.01434,-0.04501
3.0535,-0.14877,-0.0531,0.00504,0.07233,-0.02731,-0.04166,-0.0325,0.00397,-0.03586,0.09155,-0.05234,-0.05417,-0.02914,-0.02136,0.01526,-0.04578
3.054,-0.14221,-0.06256,0.01083,0.10773,-0.02823,-0.04227,0.0029,0.0029,-0.04272,0.08301,-0.05829,-0.03876,-0.02945,-0.02335,0.01343,-0.04639
3.0545,-0.13916,-0.05341,0.02213,0.08652,-0.02991,-0.04318,0.03845,0.00076,-0.05051,0.07339,-0.05966,-0.0415,-0.03036,-0.02502,0.01007,-0.04486
3.055,-0.13901,-0.03174,0.03525,0.01602,-0.03143,-0.04349,0.02991,-0.00031,-0.05341,0.0618,-0.05768,-0.02548,-0.03296,-0.02655,0.00717,-0.04257
3.0555,-0.13412,-0.01724,0.04333,-0.03922,-0.03281,-0.04547,0.00092,-0.00092,-0.05005,0.04745,-0.05676,0.01114,-0.03845,-0.02686,0.00656,-0.04211
3.056,-0.12451,-0.01755,0.0412,-0.01282,-0.03311,-0.04807,-0.01572,-0.00015,-0.04303,0.02655,-0.05661,0.02151,-0.04623,-0.02548,0.00656,-0.04318
3.0565,-0.11658,-0.02563,0.03021,0.09216,-0.0325,-0.0499,-0.01465,0.00168,-0.03769,-0.00153,-0.05417,-0.02243,-0.04944,-0.02289,0.00534,-0.04471
3.057,-0.11459,-0.03586,0.0209,0.18814,-0.03448,-0.05096,-0.0116,0.00336,-0.03433,-0.03555,-0.047,-0.09613,-0.04608,-0.0206,0.00519,-0.04379
3.0575,-0.11337,-0.04395,0.01663,0.18906,-0.03662,-0.05066,-0.01343,0.00519,-0.03372,-0.07172,-0.03922,-0.15625,-0.04456,-0.01877,0.00763,-0.0415
3.058,-0.10971,-0.04913,0.01266,0.08942,-0.03784,-0.05081,-0.01831,0.00626,-0.03067,-0.09659,-0.0322,-0.1738,-0.04913,-0.01999,0.00992,-0.04105
3.0585,-0.10406,-0.05219,0.00061,-0.05005,-0.03647,-0.05173,-0.02167,0.00549,-0.02457,-0.103,-0.02762,-0.13107,-0.05447,-0.02243,0.00854,-0.04257
3.059,-0.09689,-0.06119,-0.01785,-0.17044,-0.03418,-0.05203,-0.02182,0.00702,-0.0148,-0.09567,-0.02396,-0.04013,-0.05157,-0.02518,0.00626,-0.04532
3.0595,-0.08774,-0.07645,-0.04211,-0.23514,-0.03296,-0.05081,-0.01953,0.01099,-0.00473,-0.08591,-0.02197,0.05341,-0.04318,-0.02502,0.00534,-0.04471
3.06,-0.07523,-0.08621,-0.07065,-0.19958,-0.03235,-0.04898,-0.01663,0.01541,0.00198,-0.08377,-0.0209,0.12085,-0.0383,-0.02411,0.00717,-0.04196
3.0605,-0.05905,-0.08484,-0.10559,-0.056,-0.03311,-0.04807,-0.01602,0.01541,0.00244,-0.08514,-0.02075,0.17303,-0.04105,-0.02243,0.00916,-0.04089
3.061,-0.04303,-0.07599,-0.14069,0.112,-0.0322,-0.04761,-0.01755,0.00961,-0.0029,-0.07996,-0.0235,0.21454,-0.0444,-0.02151,0.009,-0.04303
3.0615,-0.03067,-0.06927,-0.15747,0.18265,-0.0293,-0.04684,-0.02075,0.00244,-0.00839,-0.06668,-0.03067,0.20035,-0.04364,-0.02045,0.0061,-0.04608
3.062,-0.0235,-0.07019,-0.14038,0.121,-0.0293,-0.04745,-0.02533,-0.0061,-0.01068,-0.05157,-0.0383,0.08316,-0.03998,-0.01877,0.00427,-0.04852
3.0625,-0.01648,-0.07889,-0.09109,-0.00305,-0.0293,-0.04868,-0.02975,-0.01633,-0.00916,-0.03784,-0.04166,-0.12009,-0.03876,-0.0177,0.00427,-0.04807
3.063,-0.00778,-0.08575,-0.03296,-0.11093,-0.03006,-0.04898,-0.0322,-0.02747,-0.00702,-0.02594,-0.03815,-0.30396,-0.03998,-0.01816,0.00519,-0.04578
3.0635,0.00626,-0.07782,0.00565,-0.17273,-0.03067,-0.04868,-0.03189,-0.0322,-0.00473,-0.00977,-0.03159,-0.32272,-0.04105,-0.01953,0.00916,-0.04333
3.064,0.02472,-0.05005,0.0087,-0.19196,-0.03098,-0.04913,-0.03082,-0.0267,-0.00214,0.01022,-0.02502,-0.12695,-0.0412,-0.01892,0.01297,-0.04089
3.0645,0.04654,-0.01556,-0.01602,-0.17731,-0.03189,-0.05005,-0.0293,-0.01678,0.00351,0.02457,-0.0206,0.16113,-0.04105,-0.01602,0.01358,-0.03922
3.065,0.06851,0.01129,-0.04593,-0.15198,-0.03235,-0.05066,-0.0267,-0.00931,0.00977,0.02274,-0.01678,0.36087,-0.04196,-0.01434,0.01053,-0.03708
3.0655,0.08804,0.02655,-0.05997,-0.14847,-0.0322,-0.04883,-0.02411,-0.00641,0.01205,0.00351,-0.01083,0.40131,-0.04242,-0.01511,0.00732,-0.03433
3.066,0.10178,0.03128,-0.06012,-0.18021,-0.03159,-0.04761,-0.02136,-0.00504,0.00809,-0.02243,-0.00656,0.32227,-0.04333,-0.0177,0.0061,-0.03326
3.0665,0.11002,0.02625,-0.05508,-0.23361,-0.03189,-0.04807,-0.01923,-0.00366,0.0029,-0.04013,-0.00488,0.18021,-0.04333,-0.02045,0.00793,-0.03235
3.067,0.11276,0.01038,-0.04959,-0.2861,-0.03204,-0.04929,-0.01892,-0.00244,0.0,-0.04471,-0.00427,0.03845,-0.04303,-0.02075,0.00961,-0.03189
3.0675,0.11459,-0.01465,-0.04349,-0.32349,-0.03113,-0.04929,-0.02213,-0.00534,-0.00153,-0.03845,-0.00351,-0.01587,-0.04379,-0.01968,0.01007,-0.03159
3.068,0.1178,-0.04074,-0.03708,-0.3241,-0.03128,-0.04852,-0.02686,-0.00961,-0.00336,-0.02441,-0.00351,0.04822,-0.04456,-0.0177,0.00931,-0.03296
3.0685,0.11948,-0.06302,-0.03235,-0.2623,-0.03311,-0.04837,-0.02777,-0.01282,-0.00244,-0.00092,-0.00351,0.13214,-0.04471,-0.01648,0.00885,-0.03571
3.069,0.11795,-0.08591,-0.03235,-0.12405,-0.03418,-0.04944,-0.02472,-0.01068,0.00336,0.03189,0.0,0.10468,-0.0441,-0.01694,0.00839,-0.03906
3.0695,0.11337,-0.1152,-0.03098,0.06836,-0.03571,-0.05081,-0.01984,-0.00473,0.0116,0.06439,0.00977,-0.03601,-0.04242,-0.01617,0.00916,-0.04227
3.07,0.10864,-0.14343,-0.02747,0.23361,-0.03662,-0.05234,-0.0174,0.00046,0.01755,0.08057,0.02319,-0.15121,-0.04013,-0.01434,0.00824,-0.04486
3.0705,0.10361,-0.15717,-0.02197,0.26779,-0.0383,-0.05447,-0.01846,0.00229,0.01984,0.07767,0.03555,-0.12436,-0.03723,-0.0119,0.00778,-0.04593
3.071,0.0972,-0.14877,-0.0119,0.13809,-0.03922,-0.05493,-0.02045,-0.00015,0.02304,0.06653,0.04211,0.00809,-0.03601,-0.01007,0.00732,-0.04517
3.0715,0.09262,-0.1268,0.00671,-0.05371,-0.04013,-0.05386,-0.02029,-0.00412,0.02792,0.05692,0.04288,0.10315,-0.03464,-0.00763,0.00839,-0.04349
3.072,0.0914,-0.10345,0.02411,-0.16571,-0.03998,-0.05173,-0.01938,-0.00809,0.02991,0.04944,0.0386,0.05417,-0.03021,-0.00595,0.01099,-0.04105
3.0725,0.08835,-0.07935,0.02304,-0.13062,-0.03998,-0.05005,-0.02014,-0.0119,0.02655,0.03967,0.03815,-0.10849,-0.02487,-0.00687,0.01221,-0.0386
3.073,0.08041,-0.04913,0.0032,0.04166,-0.0386,-0.04852,-0.02228,-0.01328,0.0177,0.02502,0.0441,-0.25375,-0.01984,-0.01068,0.01297,-0.03586
3.0735,0.06973,-0.01373,-0.01923,0.29037,-0.03632,-0.04776,-0.02289,-0.01328,0.00687,0.00198,0.04791,-0.28946,-0.0145,-0.0145,0.01068,-0.03677
3.074,0.06042,0.01587,-0.03204,0.49484,-0.03433,-0.04608,-0.02167,-0.01129,-0.00076,-0.02869,0.03922,-0.24902,-0.00992,-0.01724,0.00702,-0.03922
3.0745,0.05463,0.03235,-0.03677,0.55481,-0.03464,-0.04486,-0.01877,-0.00824,-0.00443,-0.06409,0.02151,-0.19897,-0.01068,-0.0174,0.0029,-0.0415
3.075,0.04868,0.03357,-0.0386,0.4895,-0.0351,-0.04471,-0.01694,-0.00412,-0.00473,-0.10376,0.00641,-0.1207,-0.01511,-0.01801,0.00153,-0.04196
3.0755,0.04456,0.01617,-0.04166,0.40161,-0.03494,-0.04715,-0.01633,0.00015,-0.00336,-0.14709,-0.00168,0.01099,-0.01755,-0.01907,0.00259,-0.04166
3.076,0.04349,-0.01953,-0.04395,0.35355,-0.03448,-0.04929,-0.0145,0.00244,-0.00214,-0.18982,-0.00412,0.11948,-0.01373,-0.01953,0.00549,-0.0415
3.0765,0.04379,-0.05981,-0.04486,0.32242,-0.03357,-0.05035,-0.0119,0.00305,-0.00153,-0.22064,-0.00412,0.11429,-0.00839,-0.01862,0.00763,-0.03922
3.077,0.04242,-0.08469,-0.04501,0.27786,-0.03357,-0.04852,-0.00885,0.0032,-0.00381,-0.23682,0.00336,0.03693,-0.00687,-0.01801,0.00839,-0.03586
3.0775,0.03967,-0.0914,-0.04196,0.25131,-0.03372,-0.047,-0.00961,0.00214,-0.01343,-0.23224,0.01816,0.00534,-0.00961,-0.01938,0.00916,-0.03342
3.078,0.03845,-0.09338,-0.03418,0.28091,-0.03403,-0.04791,-0.01205,-0.00015,-0.02762,-0.20187,0.02991,0.06149,-0.01816,-0.02136,0.0087,-0.03296
3.0785,0.03815,-0.09399,-0.02716,0.30411,-0.03586,-0.04913,-0.01328,-0.00168,-0.03967,-0.14175,0.02594,0.1535,-0.03006,-0.02335,0.01053,-0.03433
3.079,0.03738,-0.08286,-0.02167,0.20264,-0.03616,-0.04959,-0.01282,-0.00244,-0.04745,-0.06027,0.01053,0.21118,-0.04227,-0.02548,0.00931,-0.0351
3.0795,0.03876,-0.06241,-0.00504,-0.02716,-0.03525,-0.04791,-0.01328,-0.00336,-0.05432,0.02777,-0.00473,0.19394,-0.04761,-0.02701,0.00702,-0.03586
3.08,0.04456,-0.04898,0.04913,-0.24628,-0.03265,-0.04517,-0.01343,-0.00626,-0.06256,0.10361,-0.01389,0.09644,-0.04654,-0.02609,0.00381,-0.03952
3.0805,0.0502,-0.05096,0.121,-0.35751,-0.0322,-0.0444,-0.01404,-0.00824,-0.06943,0.15274,-0.02029,-0.03189,-0.0415,-0.02411,0.00122,-0.04425
3.081,0.04944,-0.06393,0.14877,-0.41458,-0.03357,-0.04547,-0.01419,-0.00885,-0.06943,0.16953,-0.02975,-0.11017,-0.03876,-0.02167,0.00092,-0.04852
3.0815,0.04074,-0.08148,0.10437,-0.52032,-0.03464,-0.04623,-0.01419,-0.00778,-0.06775,0.15884,-0.04562,-0.10284,-0.03952,-0.02029,0.00183,-0.04913
3.082,0.02991,-0.09811,0.0322,-0.6752,-0.03448,-0.0473,-0.01572,-0.00793,-0.07019,0.12741,-0.07004,-0.05203,-0.03937,-0.02121,0.00366,-0.04807
3.0825,0.02151,-0.10254,-0.01968,-0.77988,-0.0322,-0.04807,-0.01785,-0.00961,-0.07492,0.07904,-0.09598,-0.0058,-0.03693,-0.02304,0.00565,-0.04639
3.083,0.01678,-0.08698,-0.05249,-0.75851,-0.02975,-0.04776,-0.02014,-0.0119,-0.07431,0.02411,-0.1123,0.03036,-0.03021,-0.02243,0.00854,-0.04349
3.0835,0.01511,-0.05463,-0.08591,-0.62683,-0.02991,-0.04639,-0.02213,-0.01404,-0.06546,-0.01968,-0.11261,0.03662,-0.0209,-0.01953,0.01022,-0.04074
3.084,0.01907,-0.02197,-0.11307,-0.45288,-0.02991,-0.04379,-0.02304,-0.01556,-0.05371,-0.04486,-0.10117,-0.01892,-0.00839,-0.01678,0.01022,-0.03891
3.0845,0.0325,0.00061,-0.11581,-0.28107,-0.03006,-0.03815,-0.02396,-0.01694,-0.04395,-0.05783,-0.08453,-0.1091,0.0058,-0.01633,0.00946,-0.03754
3.085,0.0531,0.01129,-0.10391,-0.12665,-0.0296,-0.03128,-0.02258,-0.0148,-0.03571,-0.06836,-0.06882,-0.15869,0.01862,-0.0174,0.00916,-0.03647
3.0855,0.0708,0.01495,-0.10117,-0.01862,-0.02823,-0.02853,-0.02029,-0.0119,-0.0296,-0.07599,-0.05249,-0.14847,0.02533,-0.01724,0.0116,-0.03494
3.086,0.08148,0.01846,-0.11475,0.01556,-0.02838,-0.02914,-0.01938,-0.00946,-0.0267,-0.07126,-0.03967,-0.12207,0.02182,-0.01526,0.01205,-0.03525
3.0865,0.0882,0.03479,-0.13062,-0.00061,-0.03113,-0.03204,-0.0148,-0.00961,-0.02594,-0.05035,-0.03281,-0.10605,0.00839,-0.01465,0.01083,-0.03601
3.087,0.09644,0.06943,-0.1358,-0.01144,-0.03357,-0.03357,0.00153,-0.00992,-0.0267,-0.01694,-0.02945,-0.08423,-0.00931,-0.01602,0.00839,-0.03647
3.0875,0.1033,0.10757,-0.13321,0.00809,-0.03098,-0.03342,0.02579,-0.00824,-0.02945,0.02045,-0.03021,-0.03616,-0.02594,-0.01862,0.00809,-0.03662
3.088,0.103,0.12802,-0.12894,0.03601,-0.02182,-0.03403,0.04257,-0.00549,-0.0351,0.0531,-0.0354,0.03632,-0.03433,-0.01938,0.00885,-0.03525
3.0885,0.09628,0.12436,-0.12207,0.04669,-0.01358,-0.0386,0.03891,-0.00534,-0.03967,0.07446,-0.04456,0.12177,-0.03494,-0.01831,0.01083,-0.03403
3.089,0.08911,0.10468,-0.11322,0.04593,-0.01328,-0.04318,0.01144,-0.00519,-0.03723,0.0795,-0.05386,0.19379,-0.03143,-0.01617,0.01068,-0.03403
3.0895,0.08621,0.08194,-0.10193,0.05127,-0.01831,-0.04684,-0.04044,-0.00458,-0.0238,0.06943,-0.05783,0.20477,-0.02914,-0.01419,0.00961,-0.0351
3.09,0.08636,0.06119,-0.09003,0.06744,-0.02319,-0.0499,-0.09995,-0.00351,-0.00229,0.05157,-0.0563,0.14053,-0.02899,-0.01205,0.00778,-0.03738
3.0905,0.08423,0.04288,-0.08148,0.08499,-0.02625,-0.05386,-0.12436,-0.0029,0.01678,0.03281,-0.05173,0.05981,-0.02899,-0.01099,0.00504,-0.03983
3.091,0.07996,0.02014,-0.07797,0.09796,-0.02914,-0.05875,-0.08438,-0.00397,0.02197,0.01389,-0.04639,0.03418,-0.02777,-0.01053,0.00427,-0.04333
3.0915,0.07553,-0.01343,-0.0769,0.1062,-0.0322,-0.06287,-0.00702,-0.00488,0.01251,-0.00488,-0.03845,0.06226,-0.02655,-0.01038,0.00458,-0.04501
3.092,0.07324,-0.05325,-0.07324,0.11047,-0.03464,-0.06561,0.03891,-0.00549,0.0032,-0.02258,-0.02747,0.08911,-0.02762,-0.01221,0.00641,-0.04547
3.0925,0.07111,-0.08545,-0.06973,0.10666,-0.03586,-0.0676,0.02625,-0.00534,0.0032,-0.03632,-0.01175,0.08743,-0.03082,-0.0148,0.00854,-0.04288
3.093,0.06683,-0.10849,-0.07065,0.08499,-0.03571,-0.06805,-0.00381,-0.00458,0.00443,-0.05646,0.00519,0.06042,-0.03311,-0.01663,0.01236,-0.03723
3.0935,0.06195,-0.12894,-0.07675,0.05081,-0.03433,-0.06607,-0.01221,-0.0032,-0.00366,-0.09064,0.01678,-0.00702,-0.03326,-0.01633,0.01617,-0.03189
3.094,0.05753,-0.14709,-0.08057,0.02991,-0.03326,-0.06302,-0.00778,-0.00183,-0.01404,-0.13565,0.01999,-0.11688,-0.03281,-0.01404,0.01724,-0.03006
3.0945,0.05234,-0.1532,-0.07675,0.04303,-0.03311,-0.06027,-0.01099,-0.00061,-0.01526,-0.177,0.02014,-0.18784,-0.03235,-0.01343,0.01404,-0.03372
3.095,0.04501,-0.15335,-0.06226,0.06638,-0.03403,-0.0589,-0.01572,0.00198,-0.01038,-0.20706,0.02518,-0.11566,-0.03296,-0.0145,0.01038,-0.03891
3.0955,0.03403,-0.16647,-0.04471,0.06119,-0.03494,-0.05722,-0.01007,0.00549,-0.00809,-0.23163,0.03311,0.08163,-0.03387,-0.01526,0.00626,-0.04349
3.096,0.02289,-0.19501,-0.03265,0.02991,-0.03448,-0.05432,-0.00381,0.0058,-0.0116,-0.25375,0.03769,0.25101,-0.03433,-0.01434,0.00412,-0.04486
3.0965,0.01282,-0.21851,-0.02365,0.03204,-0.03433,-0.05051,-0.00549,0.00244,-0.01251,-0.27161,0.03647,0.25452,-0.03403,-0.01251,0.00626,-0.0444
3.097,0.00381,-0.22232,-0.01541,0.09903,-0.03479,-0.04929,-0.01007,0.00107,-0.00992,-0.27954,0.03571,0.06683,-0.03357,-0.0119,0.00854,-0.04257
3.0975,-0.00412,-0.21591,-0.00977,0.16388,-0.03571,-0.05066,-0.00763,0.0032,-0.00854,-0.27267,0.03662,-0.23483,-0.03418,-0.01205,0.00732,-0.04059
3.098,-0.01099,-0.21347,-0.00549,0.12115,-0.03677,-0.05188,0.00122,0.00687,-0.01602,-0.24445,0.03403,-0.4953,-0.0354,-0.01251,0.00458,-0.0383
3.0985,-0.01801,-0.2121,-0.00443,-0.01892,-0.03754,-0.05127,0.00992,0.00824,-0.02518,-0.19073,0.02533,-0.52399,-0.03586,-0.01282,0.00473,-0.03647
3.099,-0.02457,-0.20294,-0.00458,-0.11658,-0.0386,-0.05051,0.01923,0.00748,-0.02884,-0.112,0.01419,-0.23132,-0.03662,-0.01328,0.00763,-0.03525
3.0995,-0.03098,-0.18997,-0.00565,-0.05722,-0.0383,-0.04959,0.03464,0.0061,-0.02411,-0.01816,0.00641,0.23621,-0.03799,-0.01282,0.0116,-0.0325
3.1,-0.03891,-0.17288,-0.00763,0.11688,-0.03815,-0.04898,0.06104,0.00366,-0.01434,0.0766,-0.00122,0.5629,-0.04028,-0.01343,0.01282,-0.03082
3.1005,-0.04807,-0.14526,-0.00961,0.25406,-0.03769,-0.04852,0.0827,-0.00244,-0.00168,0.15778,-0.0116,0.53467,-0.04227,-0.01511,0.00977,-0.03113
3.101,-0.05661,-0.09399,-0.01175,0.25162,-0.03708,-0.04807,0.07095,-0.01083,0.0119,0.21927,-0.02304,0.20599,-0.04272,-0.01785,0.00519,-0.03555
3.1015,-0.06348,-0.01801,-0.0145,0.14282,-0.03815,-0.04807,0.00488,-0.01587,0.02258,0.26093,-0.03052,-0.18265,-0.04227,-0.01999,0.00137,-0.0412
3.102,-0.07126,0.06546,-0.01694,0.02792,-0.03983,-0.04868,-0.10208,-0.01511,0.02274,0.28275,-0.03143,-0.42068,-0.04395,-0.02121,0.00076,-0.04562
3.1025,-0.08072,0.13611,-0.01694,-0.02808,-0.04196,-0.04898,-0.19089,-0.01129,0.00977,0.28473,-0.02655,-0.45898,-0.04562,-0.02274,0.00061,-0.04715
3.103,-0.09445,0.18036,-0.01526,-0.02777,-0.04166,-0.04837,-0.19211,-0.0119,-0.00748,0.26566,-0.01831,-0.383,-0.04517,-0.02441,0.00214,-0.04501
3.1035,-0.11276,0.19531,-0.009,-0.00824,-0.03891,-0.04715,-0.1004,-0.01617,-0.02045,0.22964,-0.00809,-0.29083,-0.04456,-0.02441,0.00458,-0.04196
3.104,-0.13306,0.18967,0.00153,0.00824,-0.03708,-0.04654,0.00626,-0.01862,-0.02441,0.18112,0.00565,-0.19257,-0.04501,-0.02411,0.00916,-0.03952
3.1045,-0.1506,0.17715,0.01602,0.03601,-0.03403,-0.04669,0.04593,-0.01694,-0.02106,0.12375,0.02243,-0.04944,-0.04623,-0.02335,0.01175,-0.03693
3.105,-0.16342,0.16495,0.02731,0.09186,-0.02853,-0.04745,0.0145,-0.01434,-0.01831,0.06363,0.03693,0.08392,-0.04623,-0.02289,0.01144,-0.03464
3.1055,-0.17349,0.15182,0.02792,0.15594,-0.02365,-0.04715,-0.0354,-0.01312,-0.0267,0.00778,0.0444,0.09415,-0.04517,-0.02106,0.00763,-0.03555
3.106,-0.17822,0.13565,0.02457,0.19608,-0.02396,-0.04547,-0.05615,-0.01221,-0.03891,-0.03021,0.04593,-0.009,-0.04532,-0.01968,0.00534,-0.0383
3.1065,-0.17654,0.11566,0.02396,0.2034,-0.02945,-0.04425,-0.03952,-0.00931,-0.03235,-0.04242,0.04883,-0.07675,-0.04501,-0.01953,0.00519,-0.04196
3.107,-0.17456,0.09109,0.02731,0.17822,-0.0354,-0.04349,-0.00168,-0.00595,0.0,-0.03174,0.05661,-0.01862,-0.04272,-0.01953,0.00656,-0.04745
3.1075,-0.18036,0.06241,0.03036,0.10757,-0.0386,-0.04456,0.04349,-0.00458,0.03571,-0.00961,0.06485,0.07858,-0.03998,-0.01938,0.0087,-0.05325
3.108,-0.19226,0.03067,0.03326,-0.01373,-0.03922,-0.04776,0.08087,-0.00488,0.04745,0.01022,0.06622,0.08881,-0.03845,-0.01846,0.01144,-0.05524
3.1085,-0.20172,-0.01312,0.03571,-0.13718,-0.03952,-0.05035,0.08118,-0.00534,0.03601,0.02258,0.05386,-0.00397,-0.03845,-0.01678,0.01419,-0.05066
3.109,-0.20233,-0.07278,0.03784,-0.16388,-0.04074,-0.05173,0.0264,-0.00412,0.01816,0.02991,0.03647,-0.11322,-0.0412,-0.01617,0.01495,-0.04364
3.1095,-0.19516,-0.13168,0.04623,-0.04257,-0.03998,-0.05127,-0.04822,-0.00458,0.00458,0.03418,0.02975,-0.14908,-0.04364,-0.01663,0.01343,-0.03845
3.11,-0.18677,-0.16525,0.06454,0.14069,-0.0351,-0.05005,-0.08102,-0.0058,-0.00626,0.03174,0.0386,-0.05615,-0.04578,-0.01907,0.01266,-0.03769
3.1105,-0.18265,-0.16876,0.08972,0.2182,-0.02975,-0.05005,-0.05844,-0.00748,-0.01389,0.01724,0.05142,0.16953,-0.04669,-0.0209,0.01266,-0.03922
3.111,-0.18875,-0.15717,0.10696,0.09079,-0.02808,-0.05035,-0.02563,-0.009,-0.01251,-0.00595,0.05356,0.43594,-0.04532,-0.02274,0.00809,-0.04135
3.1115,-0.20416,-0.13947,0.10666,-0.18768,-0.02914,-0.05051,-0.01694,-0.00961,0.00122,-0.03052,0.04578,0.6041,-0.04272,-0.02457,0.00412,-0.04272
3.112,-0.22034,-0.11459,0.09674,-0.46906,-0.02975,-0.04913,-0.01312,-0.01007,0.01434,-0.04761,0.03036,0.6012,-0.04211,-0.0293,0.00244,-0.04425
3.1125,-0.23087,-0.08484,0.08469,-0.63095,-0.03067,-0.04807,0.00076,-0.00977,0.01114,-0.06012,0.00687,0.45135,-0.04288,-0.03662,0.00275,-0.04547
3.113,-0.23575,-0.06165,0.0499,-0.63416,-0.03052,-0.04898,0.01266,-0.00778,-0.01236,-0.07416,-0.02487,0.21317,-0.04456,-0.04471,0.0032,-0.04669
3.1135,-0.24185,-0.05112,-0.0238,-0.51086,-0.02975,-0.0502,0.00412,-0.00549,-0.04654,-0.09048,-0.056,-0.03036,-0.04532,-0.04974,0.00168,-0.04807
3.114,-0.25375,-0.05157,-0.11337,-0.32257,-0.02838,-0.05081,-0.01526,-0.00595,-0.07172,-0.10056,-0.07858,-0.15533,-0.04425,-0.04944,0.00198,-0.04822
3.1145,-0.26917,-0.05768,-0.1738,-0.10025,-0.02899,-0.04944,-0.02563,-0.00671,-0.07782,-0.1001,-0.09262,-0.09766,-0.03983,-0.0441,0.00565,-0.04654
3.115,-0.28397,-0.06699,-0.18906,0.16296,-0.03067,-0.04807,-0.02472,-0.00641,-0.06775,-0.09491,-0.09979,0.02197,-0.03387,-0.03693,0.0116,-0.04318
3.1155,-0.29404,-0.0824,-0.17197,0.40665,-0.03113,-0.04822,-0.02151,-0.00458,-0.05325,-0.09415,-0.10056,0.0174,-0.03036,-0.02899,0.01587,-0.03891
3.116,-0.30045,-0.09705,-0.13672,0.47714,-0.02899,-0.04883,-0.01892,-0.00198,-0.03983,-0.10284,-0.09293,-0.12161,-0.02823,-0.0206,0.01648,-0.03479
3.1165,-0.30579,-0.10086,-0.09048,0.31464,-0.02808,-0.04669,-0.01434,0.00046,-0.02411,-0.11154,-0.08316,-0.21072,-0.02625,-0.0148,0.01556,-0.03189
3.117,-0.30685,-0.08987,-0.0473,0.08469,-0.02686,-0.04257,-0.01221,-0.00031,-0.0029,-0.11642,-0.07507,-0.13077,-0.02411,-0.01282,0.01373,-0.03082
3.1175,-0.29922,-0.06546,-0.02487,-0.00717,-0.02548,-0.03952,-0.01831,-0.00168,0.01587,-0.11337,-0.06775,0.03021,-0.02304,-0.01205,0.01251,-0.03311
3.118,-0.28351,-0.02945,-0.02197,0.05997,-0.02472,-0.03952,-0.02625,-0.00259,0.01801,-0.09689,-0.056,0.11719,-0.02426,-0.01007,0.0116,-0.03723
3.1185,-0.26825,0.0116,-0.02655,0.15427,-0.02563,-0.04196,-0.02457,-0.00183,0.00229,-0.06622,-0.04105,0.0502,-0.02518,-0.00763,0.01099,-0.04196
3.119,-0.25803,0.04578,-0.02441,0.16617,-0.02579,-0.04379,-0.01404,-0.00198,-0.01541,-0.02472,-0.02365,-0.13611,-0.02319,-0.00626,0.009,-0.04669
3.1195,-0.25131,0.06363,-0.02075,0.07935,-0.02457,-0.04395,-0.00671,-0.00397,-0.02625,0.0145,-0.00122,-0.30167,-0.02136,-0.00641,0.0061,-0.05005
3.12,-0.24384,0.06317,-0.02457,-0.05356,-0.02197,-0.04288,-0.00748,-0.00778,-0.03235,0.03998,0.02258,-0.2916,-0.02121,-0.00778,0.00519,-0.04974
3.1205,-0.23636,0.047,-0.03586,-0.15869,-0.02106,-0.04135,-0.01129,-0.00992,-0.03387,0.04639,0.03479,-0.10178,-0.02182,-0.00885,0.00534,-0.04745
3.121,-0.233,0.01984,-0.04471,-0.18585,-0.02197,-0.04028,-0.01205,-0.00702,-0.02991,0.03754,0.03128,0.09247,-0.02075,-0.00977,0.00565,-0.04395
3.1215,-0.23407,-0.01328,-0.04837,-0.14511,-0.02243,-0.04166,-0.01114,-0.00137,-0.0238,0.02365,0.01968,0.14542,-0.01877,-0.01053,0.0058,-0.04349
3.122,-0.23651,-0.04059,-0.06821,-0.09903,-0.0209,-0.04288,-0.01022,0.00229,-0.02441,0.01099,0.01328,0.08636,-0.01877,-0.01282,0.00519,-0.04471
3.1225,-0.23499,-0.05676,-0.12314,-0.11108,-0.01862,-0.04395,-0.01007,0.00259,-0.0354,0.0032,0.01251,0.0177,-0.02106,-0.01678,0.00519,-0.04669
3.123,-0.22751,-0.06714,-0.19821,-0.19257,-0.01877,-0.0444,-0.01129,0.00275,-0.04944,-0.00107,0.01144,-0.03235,-0.0235,-0.02045,0.00458,-0.04745
3.1235,-0.21835,-0.07736,-0.25253,-0.29663,-0.01999,-0.0441,-0.01343,0.0029,-0.05753,-0.00717,0.00885,-0.08377,-0.02472,-0.02151,0.00504,-0.04593
3.124,-0.21332,-0.08667,-0.25894,-0.3624,-0.01907,-0.04318,-0.01526,0.00305,-0.05737,-0.01938,0.00519,-0.11536,-0.0264,-0.02075,0.00473,-0.04318
3.1245,-0.21088,-0.08789,-0.23026,-0.35202,-0.0177,-0.04318,-0.01572,0.00122,-0.05081,-0.0354,-0.00198,-0.09247,-0.02914,-0.01953,0.00519,-0.0412
3.125,-0.20325,-0.08133,-0.19531,-0.27222,-0.01709,-0.04272,-0.01831,-0.00046,-0.03632,-0.04562,-0.01495,-0.04059,-0.03235,-0.01862,0.00626,-0.04257
3.1255,-0.18845,-0.07156,-0.17181,-0.15976,-0.01541,-0.04105,-0.01968,-0.00092,-0.01556,-0.05035,-0.03677,-0.01755,-0.03525,-0.01892,0.00687,-0.04593
3.126,-0.1709,-0.06516,-0.15656,-0.03876,-0.01205,-0.03937,-0.01587,-0.00214,0.0029,-0.05432,-0.0647,-0.03769,-0.0386,-0.0206,0.0061,-0.04837
3.1265,-0.15518,-0.0621,-0.14297,0.07065,-0.01022,-0.03769,-0.00458,-0.00412,0.00626,-0.06027,-0.09033,-0.06195,-0.04578,-0.02365,0.0058,-0.04898
3.127,-0.14145,-0.05936,-0.12604,0.11673,-0.01053,-0.03693,0.01083,-0.0058,-0.00351,-0.06653,-0.10559,-0.05646,-0.05615,-0.0264,0.00565,-0.04898
3.1275,-0.13,-0.05539,-0.10544,0.05478,-0.0119,-0.03632,0.01373,-0.00687,-0.01617,-0.07828,-0.11078,-0.01984,-0.06393,-0.02655,0.00671,-0.04807
3.128,-0.12482,-0.05234,-0.07721,-0.07095,-0.01328,-0.03571,-0.01114,-0.00687,-0.02365,-0.09705,-0.11292,0.0296,-0.06302,-0.02426,0.00916,-0.04547
3.1285,-0.12604,-0.05341,-0.04517,-0.15427,-0.0174,-0.03464,-0.04898,-0.00549,-0.02563,-0.12115,-0.11459,0.07965,-0.05234,-0.02151,0.01053,-0.04196
3.129,-0.13031,-0.06683,-0.01358,-0.13931,-0.02655,-0.03464,-0.05981,-0.00366,-0.02106,-0.14374,-0.11536,0.1181,-0.03983,-0.01801,0.01022,-0.04059
3.1295,-0.13046,-0.09094,0.01282,-0.06195,-0.04044,-0.03448,-0.03128,-0.00076,-0.01083,-0.16708,-0.11185,0.1358,-0.0322,-0.01526,0.00885,-0.04089
3.13,-0.1236,-0.11429,0.04211,0.01083,-0.05325,-0.03311,0.00565,0.00107,-0.00275,-0.19455,-0.10162,0.13184,-0.02731,-0.01251,0.00809,-0.0412
3.1305,-0.10956,-0.12665,0.07492,0.05402,-0.05783,-0.0322,0.01465,0.00092,-0.00656,-0.21484,-0.08774,0.12833,-0.02563,-0.01236,0.009,-0.0412
3.131,-0.09354,-0.13168,0.09857,0.08026,-0.05157,-0.0322,-0.00214,-0.00153,-0.02457,-0.21133,-0.07416,0.13702,-0.02487,-0.01434,0.01022,-0.03998
3.1315,-0.08102,-0.13855,0.09781,0.10529,-0.04181,-0.03265,-0.01724,-0.00259,-0.04822,-0.18036,-0.06226,0.14053,-0.02563,-0.0174,0.01068,-0.03891
3.132,-0.07202,-0.15015,0.07797,0.12756,-0.03342,-0.03387,-0.01862,-0.00046,-0.05981,-0.12939,-0.05096,0.10559,-0.02625,-0.01831,0.01083,-0.03845
3.1325,-0.06134,-0.16052,0.05722,0.14145,-0.03098,-0.03571,-0.01312,0.00351,-0.05493,-0.05829,-0.04074,0.02487,-0.02548,-0.01678,0.01114,-0.03693
3.133,-0.04959,-0.16525,0.04776,0.15091,-0.03143,-0.03998,-0.01038,0.00641,-0.04654,0.03403,-0.03082,-0.06439,-0.02487,-0.01389,0.01083,-0.03525
3.1335,-0.04166,-0.16144,0.0444,0.16617,-0.0322,-0.0441,-0.01404,0.00793,-0.0415,0.13596,-0.01892,-0.11688,-0.02548,-0.01236,0.00961,-0.03265
3.134,-0.03983,-0.14359,0.03738,0.18448,-0.03143,-0.04639,-0.02518,0.00626,-0.03021,0.22324,-0.00473,-0.12909,-0.0267,-0.01297,0.00961,-0.03326
3.1345,-0.03754,-0.10696,0.02319,0.18707,-0.02991,-0.04715,-0.04486,0.00595,-0.00671,0.27969,0.00412,-0.13214,-0.02853,-0.0148,0.01083,-0.03479
3.135,-0.03479,-0.05539,0.00488,0.15778,-0.02792,-0.04852,-0.07004,0.00534,0.01785,0.29953,0.0061,-0.12955,-0.02991,-0.01755,0.01038,-0.03601
3.1355,-0.03235,-0.00671,-0.01266,0.08957,-0.02777,-0.04974,-0.09384,0.00504,0.02975,0.28961,0.00854,-0.08911,-0.03067,-0.01816,0.00931,-0.03571
3.136,-0.0267,0.02457,-0.02045,-0.00336,-0.02838,-0.04837,-0.10208,0.00229,0.02594,0.25482,0.01648,-0.0174,-0.02991,-0.01694,0.01083,-0.03494
3.1365,-0.01282,0.03723,-0.0058,-0.09491,-0.02838,-0.0441,-0.06302,-0.00305,0.01266,0.19791,0.02747,0.02197,-0.02869,-0.01572,0.0148,-0.03479
3.137,0.00916,0.03998,0.04471,-0.16022,-0.02945,-0.04181,0.03281,-0.00946,-0.00122,0.12695,0.04044,-0.00809,-0.02853,-0.01511,0.01663,-0.03525
3.1375,0.03036,0.04349,0.112,-0.2002,-0.03082,-0.04196,0.12558,-0.01297,-0.00946,0.0589,0.06012,-0.06119,-0.02991,-0.01495,0.01373,-0.03754
3.138,0.04364,0.05768,0.14801,-0.21408,-0.03235,-0.04242,0.13367,-0.01068,-0.00763,0.00473,0.08606,-0.06805,-0.03021,-0.01465,0.00854,-0.04227
3.1385,0.04761,0.08118,0.11703,-0.16739,-0.03235,-0.04166,0.05997,-0.0058,0.0032,-0.03983,0.10086,-0.02914,-0.02899,-0.01389,0.00381,-0.04669
3.139,0.04868,0.10056,0.0415,-0.0177,-0.03265,-0.04013,-0.00992,-0.00336,0.01556,-0.08194,0.08896,-0.00916,-0.02777,-0.01373,0.00275,-0.04929
3.1395,0.05325,0.10391,-0.02975,0.21286,-0.03311,-0.03845,-0.02075,-0.00137,0.02258,-0.12222,0.05447,-0.05341,-0.0264,-0.01358,0.0058,-0.04715
3.14,0.06134,0.09201,-0.08179,0.41245,-0.03448,-0.03784,-0.00137,0.0032,0.02274,-0.15717,0.01953,-0.13779,-0.02747,-0.01404,0.00717,-0.04242
3.1405,0.07004,0.07111,-0.12939,0.46082,-0.03494,-0.03845,0.00305,0.0119,0.02151,-0.18478,-0.00519,-0.19821,-0.03021,-0.01465,0.00778,-0.04044
3.141,0.07751,0.04593,-0.17029,0.33218,-0.03464,-0.0386,-0.00595,0.01816,0.02396,-0.20569,-0.01801,-0.20874,-0.03143,-0.0148,0.00717,-0.04211
3.1415,0.08682,0.01175,-0.18417,0.13519,-0.03494,-0.03815,-0.00946,0.01678,0.02762,-0.21957,-0.02533,-0.19699,-0.03082,-0.0148,0.00656,-0.04517
3.142,0.10468,-0.03357,-0.16541,0.03983,-0.03555,-0.03723,-0.00473,0.00534,0.02731,-0.22385,-0.0322,-0.18188,-0.03067,-0.01511,0.00626,-0.04608
3.1425,0.13153,-0.08865,-0.1268,0.14984,-0.03479,-0.03738,-0.0032,-0.00778,0.02869,-0.21515,-0.03799,-0.1358,-0.03159,-0.01541,0.00778,-0.0441
3.143,0.15839,-0.14328,-0.08224,0.37689,-0.03387,-0.03647,-0.0061,-0.01389,0.0412,-0.19699,-0.04059,-0.01724,-0.03128,-0.01617,0.01053,-0.03983
3.1435,0.17075,-0.1825,-0.02991,0.47638,-0.0351,-0.03647,-0.00946,-0.0116,0.05646,-0.17014,-0.03906,0.17502,-0.0264,-0.01785,0.01205,-0.03616
3.144,0.16922,-0.20157,0.02594,0.30624,-0.03784,-0.03616,-0.01328,-0.00778,0.05051,-0.13229,-0.03036,0.38208,-0.02075,-0.01999,0.01236,-0.03387
3.1445,0.16922,-0.20233,0.06821,-0.00671,-0.04013,-0.03632,-0.01709,-0.00916,0.01022,-0.07889,-0.01114,0.47012,-0.01755,-0.02197,0.01205,-0.03296
3.145,0.18066,-0.18921,0.07568,-0.23956,-0.04105,-0.03754,-0.02075,-0.01495,-0.05173,-0.01175,0.00732,0.30365,-0.01862,-0.02411,0.00992,-0.03464
3.1455,0.19791,-0.16006,0.05142,-0.34088,-0.0415,-0.03891,-0.02151,-0.02045,-0.10559,0.06348,0.01007,-0.07904,-0.02609,-0.02716,0.00671,-0.0386
3.146,0.21011,-0.11124,0.01968,-0.40375,-0.04288,-0.03891,-0.02792,-0.02167,-0.12253,0.13657,-0.00107,-0.40649,-0.03891,-0.02991,0.00565,-0.0412
3.1465,0.21088,-0.04684,-0.00412,-0.47226,-0.04196,-0.03799,-0.04974,-0.01816,-0.09338,0.19821,-0.01083,-0.42114,-0.05493,-0.03082,0.00626,-0.04318
3.147,0.20218,0.01831,-0.02625,-0.47607,-0.04044,-0.03677,-0.08636,-0.01343,-0.04379,0.24155,-0.01068,-0.1442,-0.0679,-0.03113,0.00961,-0.04227
3.1475,0.19196,0.06866,-0.05539,-0.3392,-0.03647,-0.0354,-0.11169,-0.00961,-0.01663,0.26337,-0.00717,0.17273,-0.07034,-0.03052,0.01404,-0.04028
3.148,0.18997,0.09598,-0.0882,-0.08087,-0.03128,-0.03464,-0.10071,-0.00778,-0.02792,0.26154,-0.00885,0.31799,-0.06027,-0.0296,0.01328,-0.03922
3.1485,0.19913,0.1033,-0.11353,0.16266,-0.02823,-0.03311,-0.06668,-0.00763,-0.05386,0.23911,-0.0148,0.27695,-0.04593,-0.02853,0.01053,-0.04059
3.149,0.21561,0.09598,-0.1297,0.2475,-0.02853,-0.03143,-0.03387,-0.00778,-0.05646,0.19958,-0.01328,0.18753,-0.03784,-0.02655,0.00626,-0.04486
3.1495,0.2356,0.07507,-0.14023,0.16373,-0.03235,-0.02823,0.01144,-0.00732,-0.03052,0.14999,0.00381,0.17029,-0.03571,-0.02243,0.00443,-0.04852
3.15,0.25589,0.04684,-0.14755,0.03174,-0.03479,-0.02609,0.07797,-0.00534,-0.00473,0.09537,0.02609,0.18341,-0.03357,-0.0177,0.00534,-0.04929
3.1505,0.27115,0.02365,-0.14618,-0.04852,-0.03464,-0.02396,0.09201,-0.00397,-0.00549,0.04196,0.03632,0.11093,-0.03036,-0.01312,0.00549,-0.04822
3.151,0.27878,0.01236,-0.13809,-0.08316,-0.03326,-0.02151,-0.00183,-0.0029,-0.02777,-0.0029,0.02594,-0.0383,-0.02747,-0.01114,0.00519,-0.04883
3.1515,0.28,0.0058,-0.13657,-0.10193,-0.03387,-0.01892,-0.10071,-0.00366,-0.05386,-0.03586,0.00488,-0.12268,-0.02777,-0.0116,0.00397,-0.05096
3.152,0.27954,-0.00641,-0.1387,-0.09033,-0.03555,-0.01709,-0.06302,-0.00534,-0.0737,-0.05859,-0.01984,-0.05997,-0.02838,-0.01419,0.00412,-0.05325
3.1525,0.27481,-0.02106,-0.12909,-0.04517,-0.03571,-0.0177,0.07721,-0.00687,-0.08575,-0.07675,-0.04669,0.0708,-0.02609,-0.01617,0.00565,-0.05432
3.153,0.26657,-0.03159,-0.10132,-0.02167,-0.03479,-0.0174,0.15427,-0.00549,-0.08408,-0.09125,-0.07416,0.1297,-0.02457,-0.01633,0.00641,-0.05432
3.1535,0.26321,-0.03769,-0.06531,-0.07095,-0.03372,-0.01663,0.09125,-0.00351,-0.07172,-0.09598,-0.09445,0.06287,-0.0235,-0.01526,0.00366,-0.05478
3.154,0.26993,-0.04135,-0.03113,-0.16846,-0.03342,-0.01526,-0.02548,-0.00259,-0.06073,-0.08514,-0.10208,-0.05859,-0.02396,-0.01434,0.00015,-0.05478
3.1545,0.28,-0.03922,-0.00259,-0.24017,-0.03265,-0.01328,-0.08926,-0.00519,-0.05524,-0.06805,-0.09827,-0.12054,-0.02335,-0.01495,0.0,-0.05356
3.155,0.2861,-0.02441,0.0206,-0.24246,-0.03189,-0.01205,-0.0885,-0.00885,-0.04593,-0.05356,-0.09003,-0.09308,-0.02182,-0.01602,0.00168,-0.05096
3.1555,0.28885,-0.00107,0.03738,-0.19516,-0.03006,-0.01053,-0.07782,-0.01022,-0.02808,-0.04608,-0.08041,-0.05615,-0.02106,-0.01648,0.00305,-0.04791
3.156,0.29617,0.01633,0.04318,-0.14175,-0.02747,-0.01129,-0.09048,-0.00885,-0.00671,-0.04623,-0.06561,-0.07156,-0.02029,-0.01465,0.00366,-0.04517
3.1565,0.3064,0.01678,0.04028,-0.10117,-0.02716,-0.01328,-0.11505,-0.00778,0.01236,-0.05417,-0.04745,-0.09445,-0.01572,-0.01251,0.00351,-0.04471
3.157,0.31052,0.00153,0.03098,-0.06836,-0.02731,-0.01511,-0.10162,-0.00931,0.02319,-0.06821,-0.03052,-0.06256,-0.00977,-0.01221,0.00504,-0.04349
3.1575,0.30365,-0.01968,0.02045,-0.05188,-0.02808,-0.01572,-0.00641,-0.01022,0.01923,-0.08209,-0.01511,0.00427,-0.00702,-0.01434,0.00549,-0.04257
3.158,0.29419,-0.03494,0.01221,-0.07126,-0.02823,-0.01602,0.1329,-0.00839,-0.00046,-0.09155,-0.00092,0.06119,-0.009,-0.0145,0.00504,-0.0415
3.1585,0.29312,-0.04028,0.00595,-0.12527,-0.02838,-0.01694,0.19211,-0.00458,-0.02304,-0.10345,0.01434,0.08652,-0.01312,-0.01343,0.00397,-0.04288
3.159,0.30487,-0.04135,-0.00031,-0.16708,-0.02884,-0.01755,0.11398,-0.00412,-0.03265,-0.11917,0.03433,0.02716,-0.01404,-0.0119,0.00366,-0.04318
3.1595,0.32013,-0.04364,-0.01114,-0.13351,-0.0296,-0.01816,-0.00366,-0.0058,-0.03067,-0.12939,0.05783,-0.1712,-0.01312,-0.01312,0.0032,-0.04456
3.16,0.32623,-0.0499,-0.02472,-0.01526,-0.02991,-0.01999,-0.03387,-0.00793,-0.02655,-0.12436,0.0766,-0.41855,-0.01404,-0.01434,0.00381,-0.04456
3.1605,0.31754,-0.0592,-0.03738,0.11566,-0.02899,-0.02289,0.02075,-0.00946,-0.01709,-0.11063,0.0795,-0.49744,-0.01801,-0.01465,0.00336,-0.0441
3.161,0.29953,-0.06989,-0.04578,0.19501,-0.02914,-0.0264,0.07217,-0.01175,0.00473,-0.10086,0.06577,-0.30777,-0.02213,-0.01404,0.00259,-0.04349
3.1615,0.27908,-0.08469,-0.04944,0.23239,-0.02762,-0.03052,0.07202,-0.0116,0.0293,-0.0972,0.0473,0.0032,-0.02487,-0.01465,0.0032,-0.0415
3.162,0.26215,-0.10437,-0.05463,0.3009,-0.02838,-0.03647,0.02792,-0.00702,0.04257,-0.09323,0.03098,0.18188,-0.02899,-0.01663,0.00366,-0.03967
3.1625,0.25406,-0.12238,-0.05798,0.42465,-0.03021,-0.03845,-0.04608,0.0,0.04578,-0.08347,0.01617,0.1442,-0.03357,-0.0177,0.00656,-0.0386
3.163,0.25406,-0.13199,-0.05875,0.50995,-0.03098,-0.03922,-0.12711,0.00259,0.04761,-0.07446,-0.00137,0.04852,-0.0383,-0.01953,0.00961,-0.03693
3.1635,0.25497,-0.1384,-0.05508,0.4483,-0.03036,-0.04013,-0.16251,-0.00015,0.05478,-0.07553,-0.0209,0.07706,-0.04211,-0.02106,0.01419,-0.03433
3.164,0.25085,-0.15274,-0.04898,0.2739,-0.03067,-0.04166,-0.12268,-0.0032,0.06912,-0.08774,-0.04089,0.20615,-0.04471,-0.02121,0.01633,-0.03174
3.1645,0.24796,-0.16968,-0.04196,0.13535,-0.03159,-0.04456,-0.05035,-0.00565,0.08881,-0.10605,-0.06439,0.27557,-0.04593,-0.02167,0.01541,-0.0325
3.165,0.25436,-0.17532,-0.02975,0.10513,-0.03464,-0.04669,-0.00671,-0.00702,0.10529,-0.12024,-0.08408,0.22522,-0.04791,-0.02243,0.00931,-0.0386
3.1655,0.27115,-0.16647,-0.0029,0.10651,-0.0383,-0.047,0.00198,-0.00763,0.1088,-0.12253,-0.08331,0.14069,-0.05066,-0.02319,0.00046,-0.04593
3.166,0.28732,-0.15564,0.0354,0.05249,-0.04013,-0.04852,-0.00168,-0.00977,0.09933,-0.11307,-0.05173,0.09598,-0.05463,-0.02563,-0.00519,-0.0499
3.1665,0.28946,-0.15015,0.06973,-0.04395,-0.03891,-0.04898,-0.01495,-0.00854,0.08041,-0.0946,-0.00443,0.06989,-0.05676,-0.02808,-0.00641,-0.0502
3.167,0.27176,-0.14984,0.08957,-0.12268,-0.03479,-0.05142,-0.04471,-0.00671,0.05234,-0.06485,0.03479,0.00504,-0.05707,-0.02884,-0.00275,-0.04944
3.1675,0.23438,-0.15411,0.09064,-0.18112,-0.03174,-0.05402,-0.06638,-0.00214,0.01343,-0.01892,0.05875,-0.12115,-0.05539,-0.02869,0.00046,-0.04791
3.168,0.19699,-0.16296,0.07507,-0.28809,-0.03052,-0.05646,-0.04608,0.00214,-0.03479,0.04547,0.07126,-0.25238,-0.05264,-0.02777,0.00443,-0.04425
3.1685,0.17288,-0.16953,0.04974,-0.48798,-0.03174,-0.05875,0.01144,0.00443,-0.08575,0.12192,0.07294,-0.27283,-0.0502,-0.02716,0.00671,-0.03983
3.169,0.16129,-0.159,0.04135,-0.71457,-0.03448,-0.06134,0.05493,0.00534,-0.12054,0.19196,0.05997,-0.11581,-0.04913,-0.02777,0.00916,-0.03799
3.1695,0.15305,-0.11963,0.07248,-0.85434,-0.03616,-0.06348,0.04593,0.00351,-0.1236,0.23865,0.03601,0.13275,-0.04623,-0.02869,0.01083,-0.03738
3.17,0.1416,-0.06149,0.11871,-0.87616,-0.03723,-0.06516,0.00626,0.00076,-0.09781,0.25681,0.01175,0.31479,-0.04196,-0.02747,0.01312,-0.03799
3.1705,0.13245,-0.00351,0.12314,-0.80734,-0.03906,-0.06592,-0.01602,-0.00046,-0.05951,0.25223,-0.00992,0.36057,-0.03967,-0.02441,0.01373,-0.03922
3.171,0.13,0.04303,0.06882,-0.60226,-0.04105,-0.06851,-0.01953,0.0,-0.02701,0.23193,-0.02701,0.2774,-0.03891,-0.02213,0.01175,-0.04135
3.1715,0.13474,0.07538,0.00214,-0.15106,-0.04227,-0.07248,-0.03845,0.00061,-0.0119,0.20325,-0.03448,0.09949,-0.03769,-0.02167,0.01068,-0.04364
3.172,0.14465,0.09277,-0.0267,0.46097,-0.04288,-0.07828,-0.07141,-0.00122,-0.01114,0.16861,-0.02945,-0.06073,-0.03479,-0.02258,0.01175,-0.04517
3.1725,0.15915,0.09842,-0.01678,0.8577,-0.04456,-0.08133,-0.08011,-0.00702,-0.01251,0.12985,-0.0174,-0.04196,-0.03296,-0.02365,0.01251,-0.0444
3.173,0.17242,0.0975,-0.0029,0.75348,-0.0473,-0.08163,-0.05585,-0.01236,-0.00488,0.08194,-0.00702,0.15915,-0.03235,-0.02258,0.01007,-0.04471
3.1735,0.17029,0.09201,-0.009,0.32272,-0.04959,-0.08286,-0.03143,-0.0145,0.01495,0.02167,-0.00122,0.30319,-0.03159,-0.01831,0.00626,-0.04547
3.174,0.14267,0.08011,-0.03159,0.00397,-0.04944,-0.08499,-0.02609,-0.01419,0.03906,-0.04517,-0.00061,0.15259,-0.03052,-0.01358,0.00366,-0.04669
3.1745,0.1033,0.06287,-0.05478,-0.0206,-0.04486,-0.08743,-0.02228,-0.0145,0.05554,-0.10376,-0.00839,-0.23041,-0.0296,-0.01221,0.00473,-0.04608
3.175,0.07645,0.04639,-0.07034,0.08057,-0.04135,-0.08728,-0.01022,-0.01801,0.05417,-0.14069,-0.02457,-0.51773,-0.0296,-0.01312,0.00778,-0.04517
3.1755,0.06744,0.04196,-0.08102,0.11612,-0.04105,-0.08698,-0.00671,-0.02274,0.03372,-0.1564,-0.04089,-0.45395,-0.03098,-0.0148,0.00946,-0.04425
3.176,0.06134,0.05447,-0.09338,0.08148,-0.04349,-0.08652,-0.01938,-0.02426,0.0058,-0.15961,-0.05951,-0.09491,-0.03235,-0.01587,0.00946,-0.04288
3.1765,0.04486,0.08118,-0.11429,0.065,-0.04562,-0.08728,-0.02243,-0.02121,-0.01831,-0.15335,-0.0827,0.26154,-0.03342,-0.01465,0.00961,-0.04227
3.177,0.01984,0.10895,-0.14725,0.09308,-0.04639,-0.08743,-0.00092,-0.01511,-0.0354,-0.13702,-0.10208,0.35812,-0.03281,-0.0119,0.01068,-0.04227
3.1775,-0.00183,0.12421,-0.18738,0.11734,-0.04578,-0.08636,0.01953,-0.01114,-0.04944,-0.11429,-0.10223,0.18509,-0.03098,-0.00961,0.01175,-0.04089
3.178,-0.01251,0.11917,-0.22217,0.10239,-0.0444,-0.08484,0.01038,-0.00748,-0.06531,-0.09293,-0.08743,-0.06668,-0.03082,-0.00977,0.01465,-0.03571
3.1785,-0.01175,0.10391,-0.24475,0.0972,-0.04364,-0.08286,-0.0145,-0.00305,-0.07904,-0.07797,-0.07706,-0.2211,-0.03235,-0.01419,0.01663,-0.03067
3.179,-0.00229,0.0856,-0.24963,0.18082,-0.0412,-0.08194,-0.02396,0.00214,-0.07385,-0.0705,-0.07324,-0.25116,-0.03326,-0.01755,0.0177,-0.02762
3.1795,0.01389,0.06546,-0.23529,0.33768,-0.03983,-0.08118,-0.01602,0.00534,-0.0444,-0.07034,-0.06149,-0.22217,-0.03342,-0.01755,0.01617,-0.02853
3.18,0.03235,0.03937,-0.20523,0.43243,-0.03891,-0.08118,-0.01022,0.00443,-0.0116,-0.07294,-0.03387,-0.18448,-0.03326,-0.01495,0.01373,-0.03159
3.1805,0.04486,0.00763,-0.16937,0.35217,-0.03983,-0.08041,-0.01312,0.00092,-0.0087,-0.07889,0.00259,-0.15396,-0.03433,-0.01236,0.0116,-0.03555
3.181,0.04593,-0.02487,-0.1384,0.13687,-0.0415,-0.08102,-0.01602,0.0,-0.04623,-0.08957,0.03098,-0.13748,-0.03525,-0.01205,0.00885,-0.04013
3.1815,0.03845,-0.05646,-0.11276,-0.08255,-0.04227,-0.08118,-0.01297,0.00244,-0.10529,-0.10422,0.04349,-0.11169,-0.03555,-0.01434,0.00549,-0.04471
3.182,0.0296,-0.08499,-0.09109,-0.2359,-0.04288,-0.08148,-0.00961,0.00504,-0.15152,-0.1152,0.04593,-0.01175,-0.0354,-0.01572,0.00305,-0.04807
3.1825,0.02426,-0.10742,-0.07416,-0.34271,-0.04242,-0.08255,-0.009,0.00656,-0.16006,-0.1123,0.04349,0.2066,-0.03601,-0.01587,0.00198,-0.05173
3.183,0.01862,-0.11963,-0.06561,-0.40741,-0.04242,-0.08392,-0.01007,0.00519,-0.12695,-0.08789,0.03876,0.46463,-0.03754,-0.01587,0.00504,-0.05264
3.1835,0.00717,-0.12604,-0.06302,-0.36255,-0.0412,-0.08682,-0.00824,0.00305,-0.06699,-0.04898,0.03311,0.57068,-0.03754,-0.01877,0.00824,-0.05127
3.184,-0.01343,-0.13214,-0.05875,-0.19791,-0.03967,-0.09003,-0.00565,0.00153,-0.00122,-0.01083,0.03143,0.40527,-0.03754,-0.02197,0.00916,-0.05035
3.1845,-0.03616,-0.1413,-0.04807,-0.03952,-0.03601,-0.09338,-0.00565,0.00015,0.04562,0.0116,0.03418,0.07172,-0.03738,-0.02319,0.00717,-0.05173
3.185,-0.05127,-0.15091,-0.03113,-0.01877,-0.03189,-0.09506,-0.00931,-0.00168,0.06424,0.00687,0.03525,-0.20676,-0.03693,-0.0238,0.00275,-0.0528
3.1855,-0.05783,-0.15976,-0.01389,-0.10437,-0.02945,-0.09613,-0.01541,-0.00458,0.06348,-0.02609,0.03006,-0.30289,-0.03647,-0.02594,0.0,-0.05142
3.186,-0.06012,-0.16449,0.00229,-0.1561,-0.02762,-0.09735,-0.02151,-0.00793,0.0563,-0.06851,0.02029,-0.24734,-0.03647,-0.02792,0.00198,-0.047
3.1865,-0.05981,-0.15839,0.01434,-0.12146,-0.02563,-0.09857,-0.02701,-0.00824,0.05066,-0.09903,0.01144,-0.13702,-0.03586,-0.02716,0.00885,-0.04349
3.187,-0.05661,-0.13397,0.02167,-0.07446,-0.02411,-0.09888,-0.02884,-0.00549,0.0441,-0.10559,0.00641,-0.05447,-0.03418,-0.02472,0.01282,-0.04288
3.1875,-0.05127,-0.09384,0.02563,-0.07385,-0.0238,-0.09995,-0.02655,-0.00366,0.03128,-0.0853,0.00214,-0.04761,-0.03189,-0.02335,0.01312,-0.04517
3.188,-0.05142,-0.0531,0.02701,-0.0824,-0.02655,-0.09964,-0.02213,-0.00366,0.00534,-0.03311,-0.00565,-0.09857,-0.02823,-0.02441,0.00931,-0.04715
3.1885,-0.06027,-0.02838,0.02777,-0.04013,-0.02701,-0.09918,-0.01938,-0.00259,-0.03204,0.04959,-0.02869,-0.13901,-0.0235,-0.02594,0.00534,-0.04852
3.189,-0.06973,-0.02563,0.03128,0.05844,-0.02686,-0.09964,-0.01709,0.00076,-0.06851,0.13962,-0.06851,-0.13702,-0.02106,-0.02716,0.00198,-0.04868
3.1895,-0.06989,-0.03418,0.04669,0.16434,-0.02686,-0.09933,-0.01389,0.00519,-0.08591,0.2034,-0.11185,-0.13702,-0.02213,-0.02731,0.00198,-0.04761
3.19,-0.06134,-0.04028,0.07645,0.20981,-0.02731,-0.09933,-0.01175,0.009,-0.07339,0.22415,-0.13824,-0.15656,-0.02808,-0.02762,0.00626,-0.04608
3.1905,-0.04501,-0.03418,0.10544,0.15106,-0.02838,-0.09949,-0.01282,0.00793,-0.03662,0.2066,-0.13321,-0.13138,-0.03601,-0.0293,0.00992,-0.04425
3.191,-0.02121,-0.01648,0.103,0.02304,-0.02808,-0.09842,-0.01465,0.00504,0.0032,0.168,-0.10345,-0.01831,-0.04166,-0.03052,0.01099,-0.04303
3.1915,0.00244,0.00443,0.05936,-0.08087,-0.0264,-0.09827,-0.01465,0.00336,0.02518,0.11703,-0.07034,0.09354,-0.0441,-0.02869,0.00961,-0.04257
3.192,0.01129,0.02319,0.00809,-0.0972,-0.02609,-0.09735,-0.01205,0.00198,0.02533,0.06226,-0.05188,0.08545,-0.04379,-0.02777,0.0087,-0.04044
3.1925,-0.00168,0.03723,-0.01465,-0.04135,-0.02655,-0.09552,-0.01053,0.00076,0.01785,0.0058,-0.04608,-0.00839,-0.04211,-0.02701,0.01099,-0.03754
3.193,-0.02869,0.03952,-0.00778,0.03265,-0.02594,-0.09262,-0.01083,-0.00092,0.01389,-0.04211,-0.04623,-0.02151,-0.04013,-0.02563,0.01343,-0.03571
3.1935,-0.05173,0.02701,-0.00046,0.08621,-0.02533,-0.08942,-0.01144,-0.0029,0.01434,-0.07767,-0.05371,0.12634,-0.03876,-0.0238,0.01389,-0.0351
3.194,-0.06348,0.00153,-0.0087,0.10284,-0.02579,-0.08759,-0.01205,-0.00366,0.01541,-0.10086,-0.0676,0.31006,-0.04013,-0.02243,0.01328,-0.03647
3.1945,-0.06805,-0.03082,-0.02533,0.07599,-0.02655,-0.08789,-0.01129,-0.00366,0.01114,-0.11551,-0.07568,0.32684,-0.04562,-0.02136,0.01099,-0.0383
3.195,-0.07339,-0.0647,-0.04379,-0.00076,-0.02747,-0.08926,-0.01099,-0.00153,0.0029,-0.12634,-0.06699,0.13,-0.05264,-0.02014,0.0087,-0.04242
3.1955,-0.07996,-0.0972,-0.05615,-0.11063,-0.02716,-0.09109,-0.01236,-0.00015,-0.00351,-0.13443,-0.04776,-0.07202,-0.05676,-0.01846,0.00626,-0.04791
3.196,-0.08377,-0.12192,-0.05554,-0.20859,-0.02625,-0.0914,-0.01389,0.00137,0.0,-0.1329,-0.03326,-0.04364,-0.05829,-0.01587,0.00534,-0.05112
3.1965,-0.08102,-0.13474,-0.04211,-0.25787,-0.02747,-0.08972,-0.01572,0.00214,0.01038,-0.11627,-0.03098,0.18066,-0.05844,-0.01465,0.00534,-0.05035
3.197,-0.07141,-0.13565,-0.02701,-0.26123,-0.02914,-0.08682,-0.01663,0.00229,0.01602,-0.08514,-0.03784,0.35675,-0.05859,-0.01328,0.00641,-0.04837
3.1975,-0.0592,-0.12634,-0.02731,-0.23682,-0.03021,-0.08499,-0.01541,0.00168,0.00595,-0.04807,-0.04074,0.336,-0.05356,-0.0116,0.0087,-0.04608
3.198,-0.05051,-0.10864,-0.04852,-0.19806,-0.02899,-0.08377,-0.01312,-0.00061,-0.01495,-0.0119,-0.03052,0.1712,-0.04333,-0.00854,0.01053,-0.04196
3.1985,-0.04593,-0.08713,-0.08072,-0.15533,-0.0264,-0.08224,-0.0119,-0.00473,-0.03281,0.01709,-0.00916,-0.01694,-0.02975,-0.00763,0.01297,-0.03723
3.199,-0.04272,-0.06744,-0.10712,-0.07828,-0.02304,-0.08011,-0.01251,-0.00717,-0.03845,0.03677,0.01373,-0.15671,-0.01129,-0.00854,0.01373,-0.03571
3.1995,-0.04349,-0.05371,-0.11612,0.09964,-0.01907,-0.07599,-0.01266,-0.00412,-0.03494,0.04456,0.02914,-0.24216,0.01038,-0.00793,0.01282,-0.03647
3.2,-0.05096,-0.04578,-0.10834,0.33218,-0.01648,-0.07294,-0.01007,0.00229,-0.02838,0.04501,0.03693,-0.29205,0.02731,-0.00504,0.01022,-0.03723
3.2005,-0.06973,-0.03952,-0.0943,0.41351,-0.01511,-0.07034,-0.0087,0.00809,-0.01801,0.04318,0.04135,-0.28137,0.03616,-0.00305,0.00824,-0.03738
3.201,-0.09689,-0.03281,-0.07782,0.23773,-0.01419,-0.06775,-0.01099,0.01022,-0.00183,0.03983,0.04517,-0.16861,0.0386,-0.00549,0.00885,-0.0383
3.2015,-0.12177,-0.02625,-0.06546,-0.00473,-0.01266,-0.06332,-0.01587,0.00992,0.01648,0.03204,0.05005,-0.01343,0.03632,-0.01068,0.01099,-0.04059
3.202,-0.13168,-0.02365,-0.05844,-0.0676,-0.01083,-0.0589,-0.01816,0.00763,0.02502,0.02167,0.05478,0.03799,0.03052,-0.01633,0.0119,-0.04074
3.2025,-0.12985,-0.02686,-0.05875,0.01953,-0.01129,-0.05875,-0.01617,0.00305,0.01846,0.00671,0.05844,-0.06287,0.02426,-0.01816,0.00961,-0.03922
3.203,-0.13168,-0.03464,-0.06058,0.04028,-0.01526,-0.06073,-0.01312,-0.0029,0.00916,-0.01038,0.05966,-0.2005,0.0177,-0.0177,0.00717,-0.03876
3.2035,-0.14221,-0.04257,-0.06332,-0.0769,-0.02151,-0.06088,-0.01083,-0.00671,0.0177,-0.02472,0.06195,-0.2298,0.00885,-0.01816,0.00626,-0.03906
3.204,-0.14465,-0.04822,-0.07462,-0.17197,-0.02762,-0.06027,-0.01007,-0.00778,0.03738,-0.03128,0.06821,-0.12054,-0.00214,-0.02029,0.00748,-0.0386
3.2045,-0.1236,-0.05112,-0.09644,-0.07797,-0.03281,-0.0592,-0.01083,-0.00671,0.03464,-0.03311,0.07126,0.02106,-0.01572,-0.02274,0.009,-0.03799
3.205,-0.08713,-0.05295,-0.10956,0.19379,-0.03876,-0.0589,-0.01328,-0.00717,-0.00107,-0.03632,0.06241,0.07294,-0.03067,-0.02472,0.0087,-0.03754
3.2055,-0.05661,-0.05539,-0.09888,0.46524,-0.04547,-0.0592,-0.01572,-0.0087,-0.03967,-0.04105,0.04303,0.05692,-0.05112,-0.02655,0.00778,-0.03784
3.206,-0.0444,-0.05783,-0.07248,0.54626,-0.05096,-0.06012,-0.01587,-0.01022,-0.05875,-0.0412,0.02014,0.08011,-0.07828,-0.02716,0.00748,-0.03891
3.2065,-0.04715,-0.05829,-0.04822,0.40573,-0.05264,-0.05951,-0.0145,-0.00946,-0.0705,-0.03464,0.00107,0.13565,-0.10513,-0.02808,0.00656,-0.03922
3.207,-0.05493,-0.05661,-0.03098,0.19699,-0.05203,-0.0592,-0.00931,-0.00595,-0.09171,-0.02686,-0.01312,0.11307,-0.11993,-0.02823,0.00671,-0.03906
3.2075,-0.06042,-0.05692,-0.01755,0.07278,-0.05249,-0.05936,0.00229,-0.00214,-0.11002,-0.01953,-0.02121,-0.0174,-0.11276,-0.02747,0.00824,-0.03952
3.208,-0.065,-0.06119,-0.009,0.02899,-0.05371,-0.05966,0.02121,-0.00061,-0.11337,-0.01297,-0.02579,-0.15289,-0.08987,-0.02655,0.00885,-0.04059
3.2085,-0.07523,-0.06638,-0.00595,-0.02945,-0.05356,-0.06119,0.03738,-0.00198,-0.1091,-0.00961,-0.03113,-0.18356,-0.0679,-0.02594,0.00717,-0.04196
3.209,-0.08957,-0.06821,-0.00809,-0.1297,-0.05066,-0.0618,0.04669,-0.00519,-0.11093,-0.0119,-0.0386,-0.1001,-0.05615,-0.02609,0.00427,-0.04303
3.2095,-0.1001,-0.06195,-0.00671,-0.21637,-0.04761,-0.06012,0.06104,-0.00671,-0.11566,-0.01938,-0.04745,0.01068,-0.05081,-0.02594,0.00275,-0.0441
3.21,-0.10406,-0.05112,-0.00198,-0.25848,-0.04501,-0.05539,0.07828,-0.00626,-0.10849,-0.03067,-0.05127,0.07721,-0.0473,-0.02502,0.00473,-0.04242
3.2105,-0.11169,-0.04166,0.00412,-0.27649,-0.04181,-0.0502,0.05646,-0.00427,-0.0824,-0.04135,-0.04578,0.1239,-0.04333,-0.02457,0.0087,-0.04135
3.211,-0.12466,-0.03906,0.00702,-0.28168,-0.03754,-0.04532,-0.03082,-0.00198,-0.03769,-0.0441,-0.03357,0.20203,-0.04013,-0.02533,0.01053,-0.03998
3.2115,-0.13046,-0.04517,0.00824,-0.24139,-0.03601,-0.04272,-0.14664,-0.00061,0.02121,-0.0351,-0.01862,0.27298,-0.0383,-0.02686,0.01053,-0.03891
3.212,-0.12177,-0.065,0.01175,-0.12207,-0.03723,-0.04028,-0.20157,-0.00183,0.0737,-0.01831,-0.00778,0.25177,-0.03677,-0.02731,0.009,-0.03769
3.2125,-0.10788,-0.10117,0.02029,0.04181,-0.03845,-0.03754,-0.14984,-0.00549,0.0972,-0.00061,-0.00244,0.13321,-0.03418,-0.02716,0.00732,-0.03662
3.213,-0.09811,-0.14725,0.03708,0.13733,-0.03571,-0.03479,-0.0473,-0.0087,0.08698,0.01389,0.00488,-0.00061,-0.0293,-0.02609,0.00809,-0.03525
3.2135,-0.08682,-0.19089,0.05676,0.08438,-0.03128,-0.03281,0.01312,-0.00931,0.0563,0.02747,0.01602,-0.08057,-0.02335,-0.02335,0.00961,-0.03387
3.214,-0.06592,-0.22049,0.07004,-0.0528,-0.02838,-0.03006,0.00336,-0.00809,0.02441,0.03494,0.02365,-0.11108,-0.01755,-0.0206,0.01007,-0.03387
3.2145,-0.04028,-0.23376,0.08209,-0.12665,-0.02869,-0.02808,-0.02762,-0.00702,-0.00153,0.03693,0.02518,-0.14145,-0.01129,-0.01907,0.00931,-0.03738
3.215,-0.02563,-0.233,0.10818,-0.0856,-0.0293,-0.02747,-0.03555,-0.00763,-0.02228,0.03418,0.02594,-0.19089,-0.00641,-0.02045,0.00717,-0.04181
3.2155,-0.03235,-0.2243,0.14618,-0.00229,-0.02884,-0.02762,-0.02365,-0.00793,-0.02899,0.02731,0.02686,-0.23026,-0.00443,-0.02319,0.00702,-0.04318
3.216,-0.05524,-0.21118,0.1741,0.03815,-0.02808,-0.02808,-0.01633,-0.00778,-0.00702,0.01663,0.01755,-0.22964,-0.00748,-0.0238,0.00519,-0.04272
3.2165,-0.07721,-0.19241,0.17075,-0.01007,-0.02792,-0.02945,-0.01862,-0.00656,0.03006,-0.0029,-0.00961,-0.17548,-0.01434,-0.02243,0.00366,-0.04379
3.217,-0.08179,-0.15671,0.13138,-0.16632,-0.02808,-0.02991,-0.02167,-0.00443,0.04517,-0.02853,-0.04486,-0.05295,-0.02258,-0.02213,0.00137,-0.04715
3.2175,-0.06088,-0.09918,0.06577,-0.37872,-0.02731,-0.03006,-0.01923,-0.00137,0.01694,-0.05264,-0.07355,0.11154,-0.02975,-0.02258,0.00076,-0.0499
3.218,-0.02548,-0.02487,-0.00443,-0.52338,-0.02625,-0.0293,-0.0148,0.00153,-0.04105,-0.07034,-0.08987,0.22461,-0.03418,-0.02213,0.00122,-0.05127
3.2185,0.00656,0.05066,-0.05615,-0.51529,-0.02563,-0.02853,-0.01328,0.00183,-0.10757,-0.08957,-0.10223,0.20599,-0.03662,-0.02182,0.0029,-0.0502
3.219,0.02075,0.10925,-0.08514,-0.38589,-0.02579,-0.02686,-0.01389,0.00015,-0.15503,-0.11108,-0.11292,0.08102,-0.0412,-0.02213,0.00351,-0.04471
3.2195,0.01862,0.14145,-0.1091,-0.19287,-0.02411,-0.02487,-0.01343,-0.00137,-0.15335,-0.12787,-0.11597,-0.03479,-0.04929,-0.02258,0.00793,-0.03799
3.22,0.01038,0.15015,-0.14343,0.06973,-0.02213,-0.02319,-0.01205,-0.00214,-0.10086,-0.13123,-0.10635,-0.05829,-0.05753,-0.02151,0.01373,-0.03281
3.2205,0.00992,0.14526,-0.18051,0.35706,-0.02197,-0.02304,-0.01083,-0.00336,-0.0383,-0.11978,-0.0914,-0.02762,-0.05936,-0.01816,0.01724,-0.0325
3.221,0.02274,0.14114,-0.20218,0.47897,-0.02304,-0.02319,-0.0116,-0.0058,-0.0087,-0.10025,-0.07751,-0.04578,-0.05463,-0.01556,0.01495,-0.03479
3.2215,0.03494,0.14542,-0.20355,0.3157,-0.0235,-0.02075,-0.01266,-0.00793,-0.00992,-0.07767,-0.0676,-0.10559,-0.04883,-0.01633,0.00992,-0.03769
3.222,0.0264,0.15747,-0.19699,0.01892,-0.02075,-0.01892,-0.0145,-0.00992,-0.01404,-0.05478,-0.0528,-0.07446,-0.04501,-0.01877,0.00778,-0.04013
3.2225,0.00107,0.17487,-0.19424,-0.15732,-0.01328,-0.01816,-0.01617,-0.01251,-0.00992,-0.03204,-0.03387,0.10605,-0.04166,-0.01953,0.00809,-0.04059
3.223,-0.01678,0.19119,-0.19104,-0.14709,-0.00381,-0.01862,-0.01801,-0.0116,-0.00565,-0.00778,-0.01892,0.29968,-0.03479,-0.01709,0.00717,-0.04013
3.2235,-0.01297,0.2002,-0.18051,-0.06439,0.00412,-0.01984,-0.01831,-0.00839,-0.00687,0.01556,-0.01328,0.34744,-0.02548,-0.01358,0.00656,-0.04105
3.224,0.00031,0.19424,-0.16235,0.00626,0.009,-0.02045,-0.01709,-0.00626,-0.00809,0.03296,-0.01114,0.26581,-0.01801,-0.0116,0.00656,-0.03998
3.2245,0.00336,0.16953,-0.14893,0.07141,0.01053,-0.02045,-0.01556,-0.00671,-0.00534,0.04257,-0.00488,0.16876,-0.01541,-0.01175,0.00671,-0.03876
3.225,-0.00168,0.13046,-0.14313,0.12527,0.00702,-0.02106,-0.01694,-0.00916,-0.00061,0.0441,0.00641,0.08835,-0.01389,-0.01389,0.0058,-0.03754
3.2255,-0.00168,0.08957,-0.1416,0.12573,0.00259,-0.02121,-0.02121,-0.01221,0.00275,0.04135,0.01663,-0.0206,-0.0119,-0.01709,0.00381,-0.04105
3.226,0.00809,0.05859,-0.1355,0.0769,0.00198,-0.0206,-0.02548,-0.01297,0.00595,0.03754,0.02396,-0.15289,-0.01007,-0.01984,0.00092,-0.04807
3.2265,0.0209,0.03876,-0.11963,0.04913,0.00778,-0.01923,-0.02594,-0.01175,0.00885,0.0322,0.02457,-0.23651,-0.01083,-0.02274,-0.00275,-0.05234
3.227,0.03113,0.01984,-0.1004,0.06927,0.01389,-0.01724,-0.02182,-0.00992,0.00854,0.02548,0.02731,-0.22263,-0.01816,-0.02502,-0.00336,-0.05295
3.2275,0.03784,-0.00351,-0.08286,0.0798,0.0174,-0.01572,-0.01816,-0.00778,0.00504,0.0174,0.04562,-0.13779,-0.03479,-0.02655,-0.00168,-0.04959
3.228,0.04211,-0.03067,-0.06668,0.0351,0.01785,-0.0145,-0.01633,-0.00504,0.00458,0.00763,0.07599,-0.07248,-0.05798,-0.02655,0.00198,-0.04517
3.2285,0.0441,-0.05249,-0.05096,-0.01038,0.01785,-0.01404,-0.01648,-0.00153,0.00931,-0.00397,0.0914,-0.11566,-0.07751,-0.0264,0.00565,-0.0415
3.229,0.04318,-0.0676,-0.03723,0.03647,0.01633,-0.01526,-0.01541,0.00153,0.01221,-0.02014,0.07584,-0.25864,-0.08301,-0.0267,0.00702,-0.03845
3.2295,0.03952,-0.07736,-0.02563,0.18417,0.00931,-0.01678,-0.01312,0.00305,0.0087,-0.03403,0.0441,-0.36942,-0.07736,-0.02777,0.00961,-0.03693
3.23,0.03387,-0.08652,-0.01816,0.35522,-0.01236,-0.0177,-0.01129,0.00412,0.00473,-0.04578,0.02045,-0.31616,-0.06439,-0.02777,0.01297,-0.0354
3.2305,0.02823,-0.09598,-0.01358,0.48569,-0.05066,-0.01984,-0.01068,0.00244,0.01144,-0.05661,0.00977,-0.08728,-0.04898,-0.02609,0.01663,-0.03555
3.231,0.02228,-0.10361,-0.00824,0.5687,-0.0946,-0.02197,-0.01114,-0.00015,0.02975,-0.06638,0.00229,0.23788,-0.03433,-0.02411,0.01648,-0.0383
3.2315,0.01907,-0.10681,-0.00168,0.60089,-0.12344,-0.02365,-0.01053,-0.00183,0.0473,-0.06714,-0.00351,0.54825,-0.02762,-0.02228,0.01282,-0.0412
3.232,0.01816,-0.10391,0.00549,0.54703,-0.1268,-0.02579,-0.00992,-0.00443,0.05325,-0.05341,-0.00748,0.67795,-0.03036,-0.02121,0.00748,-0.04288
3.2325,0.0177,-0.09766,0.01083,0.37506,-0.11307,-0.02747,-0.00885,-0.00534,0.04852,-0.03067,-0.00671,0.48813,-0.04105,-0.01892,0.00458,-0.04196
3.233,0.01785,-0.09369,0.01663,0.10071,-0.09491,-0.0293,-0.00809,-0.00488,0.04135,-0.00549,-0.00549,0.04639,-0.05173,-0.01694,0.00381,-0.04089
3.2335,0.02075,-0.09659,0.02579,-0.21301,-0.07996,-0.02792,-0.00702,-0.00168,0.03891,0.01465,-0.00549,-0.35934,-0.05432,-0.01556,0.00397,-0.04166
3.234,0.02487,-0.1091,0.04196,-0.50613,-0.06622,-0.0264,-0.00641,0.00259,0.03983,0.02869,-0.00641,-0.46661,-0.04913,-0.01526,0.00412,-0.0441
3.2345,0.0267,-0.12756,0.06546,-0.74951,-0.05569,-0.02563,-0.00412,0.00687,0.03571,0.0354,-0.00549,-0.25955,-0.04684,-0.0148,0.00427,-0.04562
3.235,0.0235,-0.14252,0.09918,-0.88623,-0.04929,-0.02686,-0.00214,0.00824,0.02167,0.03372,-0.00351,0.04822,-0.05112,-0.01617,0.00397,-0.04562
3.2355,0.01694,-0.14999,0.14374,-0.82428,-0.04623,-0.02808,-0.00244,0.00641,-0.00153,0.02274,-0.00366,0.22079,-0.05447,-0.01923,0.00259,-0.04562
3.236,0.01022,-0.1535,0.19165,-0.54504,-0.0444,-0.02777,-0.00656,0.00229,-0.03357,0.00992,-0.00244,0.18387,-0.05386,-0.02243,0.00259,-0.04715
3.2365,-0.00046,-0.1619,0.2095,-0.17975,-0.04425,-0.02869,-0.00931,-0.00168,-0.07095,-0.00351,0.0061,0.03891,-0.05142,-0.02396,0.0029,-0.05035
3.237,-0.01678,-0.17899,0.17441,0.06882,-0.04837,-0.02914,-0.00946,-0.00549,-0.09857,-0.01938,0.01862,-0.06332,-0.05081,-0.02502,0.00381,-0.05219
3.2375,-0.03662,-0.19653,0.12115,0.08865,-0.05325,-0.03098,-0.00885,-0.00931,-0.10712,-0.04089,0.02075,-0.05844,-0.05081,-0.0264,0.00534,-0.05142
3.238,-0.05722,-0.20248,0.09232,-0.04059,-0.05188,-0.03281,-0.01312,-0.01373,-0.10132,-0.06302,0.0087,-0.00336,-0.04944,-0.02609,0.00656,-0.04593
3.2385,-0.0795,-0.1915,0.08102,-0.12604,-0.04059,-0.03372,-0.02167,-0.01755,-0.08881,-0.08133,-0.00275,0.00061,-0.04486,-0.02289,0.00839,-0.03922
3.239,-0.10086,-0.16525,0.04257,-0.06195,-0.02472,-0.03296,-0.02899,-0.01709,-0.0676,-0.09705,-0.00488,-0.0528,-0.03601,-0.01923,0.00839,-0.03571
3.2395,-0.11276,-0.12207,-0.03067,0.06088,-0.01175,-0.03143,-0.02914,-0.01205,-0.03433,-0.11185,-0.00763,-0.03113,-0.02548,-0.01709,0.00824,-0.03708
3.24,-0.11185,-0.06546,-0.09811,0.09613,-0.00549,-0.02945,-0.02655,-0.00641,0.00305,-0.12741,-0.02457,0.1445,-0.02014,-0.01846,0.00793,-0.04013
3.2405,-0.10468,-0.01251,-0.12604,0.01297,-0.00595,-0.02838,-0.02762,-0.00305,0.03464,-0.13809,-0.04547,0.31372,-0.02304,-0.02014,0.00809,-0.04257
3.241,-0.10391,0.01297,-0.1207,-0.10025,-0.0119,-0.02899,-0.02808,-0.0032,0.04883,-0.14313,-0.05005,0.24521,-0.02945,-0.01999,0.00717,-0.04196
3.2415,-0.11368,0.00305,-0.10788,-0.16541,-0.02151,-0.0296,-0.01755,-0.00458,0.0383,-0.1384,-0.03922,-0.03281,-0.03342,-0.01709,0.00732,-0.04059
3.242,-0.12207,-0.01953,-0.1004,-0.1857,-0.02792,-0.03082,-0.00809,-0.00702,0.01053,-0.12131,-0.0322,-0.24841,-0.03326,-0.01572,0.00809,-0.03891
3.2425,-0.12299,-0.02609,-0.09491,-0.19882,-0.02945,-0.03143,-0.01602,-0.00839,-0.01801,-0.09689,-0.04242,-0.22598,-0.03326,-0.01617,0.00946,-0.03723
3.243,-0.12039,-0.01251,-0.09003,-0.20737,-0.02991,-0.03174,-0.03342,-0.00916,-0.03952,-0.07523,-0.06561,-0.05066,-0.03464,-0.01663,0.01129,-0.03586
3.2435,-0.12573,0.00763,-0.08591,-0.18036,-0.03143,-0.0322,-0.03281,-0.009,-0.05966,-0.0589,-0.09384,0.08804,-0.03555,-0.01495,0.01099,-0.03479
3.244,-0.13657,0.02594,-0.07813,-0.10803,-0.03403,-0.03189,-0.01022,-0.00839,-0.08072,-0.04318,-0.12177,0.09766,-0.03372,-0.00931,0.00931,-0.03448
3.2445,-0.14023,0.04028,-0.05661,-0.02426,-0.03281,-0.03006,0.01373,-0.00641,-0.09384,-0.02228,-0.14069,0.02182,-0.03067,-0.00336,0.00717,-0.03632
3.245,-0.12894,0.04929,-0.02808,0.01953,-0.03021,-0.02808,0.01923,-0.00488,-0.09003,0.00351,-0.14465,-0.04837,-0.02701,0.0,0.00824,-0.03723
3.2455,-0.10422,0.04974,-0.01022,0.00275,-0.02884,-0.02731,0.00916,-0.00565,-0.07431,0.03036,-0.13596,-0.06073,-0.02502,0.00015,0.00946,-0.03647
3.246,-0.07492,0.04196,-0.01358,-0.03387,-0.02823,-0.0267,-0.00198,-0.00748,-0.05508,0.05508,-0.12726,-0.03372,-0.02182,-0.00015,0.01099,-0.03555
3.2465,-0.05219,0.02777,-0.03189,-0.02853,-0.02655,-0.02731,-0.00763,-0.00778,-0.0386,0.07935,-0.11902,-0.02197,-0.0177,0.00031,0.01022,-0.03647
3.247,-0.04959,0.01282,-0.05829,0.03555,-0.0238,-0.02869,-0.00946,-0.0058,-0.02731,0.09933,-0.10193,-0.05081,-0.01465,0.00153,0.00916,-0.03876
3.2475,-0.06958,0.00351,-0.08621,0.12665,-0.02197,-0.02975,-0.01083,-0.00488,-0.0206,0.11337,-0.07095,-0.09644,-0.01343,0.00122,0.00854,-0.0383
3.248,-0.09323,0.00641,-0.1123,0.21332,-0.02228,-0.02975,-0.01434,-0.00488,-0.01648,0.11856,-0.0386,-0.12665,-0.01343,0.00015,0.00931,-0.03571
3.2485,-0.10437,0.02136,-0.13428,0.27206,-0.0238,-0.02808,-0.0206,-0.00427,-0.01495,0.11322,-0.01923,-0.13153,-0.01297,-0.00168,0.009,-0.03403
3.249,-0.10529,0.0386,-0.15457,0.27863,-0.02533,-0.02853,-0.02396,-0.00275,-0.01541,0.0972,-0.01144,-0.11475,-0.01358,-0.00381,0.00778,-0.03693
3.2495,-0.10696,0.04242,-0.17197,0.22644,-0.0267,-0.03082,-0.02243,0.00046,-0.01511,0.07446,-0.00671,-0.07645,-0.01282,-0.00748,0.00717,-0.04166
3.25,-0.1123,0.02533,-0.18021,0.15167,-0.02762,-0.03128,-0.0177,0.00351,-0.01495,0.04593,0.00046,-0.03372,-0.01068,-0.0116,0.00793,-0.04547
3.2505,-0.11551,-0.00702,-0.17441,0.0975,-0.0293,-0.03006,-0.01511,0.00275,-0.01648,0.0061,0.0032,-0.02502,-0.0087,-0.01465,0.009,-0.047
3.251,-0.11307,-0.04166,-0.15854,0.06729,-0.03021,-0.02945,-0.01572,-0.00092,-0.01892,-0.04547,0.00046,-0.04517,-0.00931,-0.01633,0.00931,-0.04501
3.2515,-0.10818,-0.06638,-0.13977,0.0354,-0.03098,-0.02869,-0.01511,-0.00443,-0.02213,-0.09827,-0.0032,-0.0238,-0.01343,-0.01785,0.01007,-0.04059
3.252,-0.10498,-0.07996,-0.12131,0.01358,-0.03082,-0.03036,-0.01129,-0.00427,-0.02808,-0.1358,-0.0029,0.07797,-0.01953,-0.01968,0.01175,-0.03662
3.2525,-0.10437,-0.09033,-0.10269,0.04211,-0.02991,-0.03159,-0.00748,-0.00061,-0.03586,-0.14694,0.00168,0.19135,-0.02777,-0.02014,0.01114,-0.03433
3.253,-0.10437,-0.10345,-0.0824,0.11917,-0.02869,-0.03159,-0.00504,0.00229,-0.04242,-0.13351,0.00885,0.20828,-0.03571,-0.02228,0.01205,-0.03448
3.2535,-0.10605,-0.1181,-0.06058,0.20096,-0.02838,-0.02975,-0.00458,0.00443,-0.04364,-0.10864,0.01648,0.10483,-0.04181,-0.02335,0.01221,-0.0354
3.254,-0.1091,-0.1268,-0.04272,0.28107,-0.02808,-0.02747,-0.00504,0.00641,-0.03784,-0.07828,0.02411,-0.03525,-0.0415,-0.02075,0.01343,-0.03632
3.2545,-0.11215,-0.12009,-0.02808,0.38422,-0.02747,-0.02701,-0.0061,0.0087,-0.02518,-0.04059,0.03265,-0.11276,-0.03448,-0.01587,0.01144,-0.03769
3.255,-0.11627,-0.09644,-0.01556,0.46509,-0.02563,-0.02716,-0.00641,0.01007,-0.00977,0.01007,0.03967,-0.12329,-0.02258,-0.01312,0.01053,-0.03983
3.2555,-0.12314,-0.06058,-0.00412,0.41809,-0.0235,-0.02792,-0.00534,0.00992,0.00488,0.07217,0.03998,-0.1532,-0.01358,-0.01312,0.01022,-0.04181
3.256,-0.13885,-0.02228,0.00824,0.23865,-0.01968,-0.02747,-0.00519,0.00717,0.02426,0.13153,0.03571,-0.24231,-0.01144,-0.01389,0.01099,-0.04272
3.2565,-0.1593,0.00946,0.01892,0.0592,-0.01724,-0.0264,-0.00854,0.00305,0.04944,0.17563,0.03265,-0.27695,-0.01678,-0.0145,0.01099,-0.04349
3.257,-0.17075,0.02487,0.02731,-0.03448,-0.01663,-0.0264,-0.01297,-0.00305,0.07721,0.19531,0.03784,-0.11017,-0.02563,-0.01511,0.00824,-0.04684
3.2575,-0.16388,0.01633,0.03006,-0.10895,-0.01694,-0.02869,-0.01572,-0.00854,0.0975,0.18921,0.04898,0.2066,-0.03372,-0.01556,0.00412,-0.05081
3.258,-0.14267,-0.01236,0.03036,-0.24429,-0.01877,-0.03296,-0.01648,-0.01068,0.09995,0.16342,0.0618,0.4216,-0.03967,-0.01633,0.00229,-0.05341
3.2585,-0.11642,-0.04639,0.0293,-0.39276,-0.02029,-0.03784,-0.01602,-0.00977,0.07828,0.12833,0.07202,0.36957,-0.04272,-0.01755,0.0029,-0.05173
3.259,-0.08987,-0.06866,0.03189,-0.43976,-0.02441,-0.04135,-0.01678,-0.00854,0.04105,0.09262,0.07675,0.16632,-0.04547,-0.01907,0.0058,-0.04639
3.2595,-0.06683,-0.07782,0.03967,-0.3627,-0.03098,-0.0412,-0.01724,-0.00824,0.009,0.06241,0.07278,0.03891,-0.0499,-0.02029,0.01099,-0.04166
3.26,-0.04929,-0.08636,0.04883,-0.25146,-0.0412,-0.03922,-0.0177,-0.00885,-0.01038,0.03815,0.05753,0.03952,-0.0528,-0.01892,0.01434,-0.03983
3.2605,-0.03967,-0.10223,0.05524,-0.2124,-0.05081,-0.03662,-0.01816,-0.00992,-0.02991,0.01419,0.0354,0.05554,-0.05295,-0.01709,0.01373,-0.03998
3.261,-0.0325,-0.1178,0.0618,-0.2742,-0.05386,-0.03555,-0.01877,-0.00854,-0.06073,-0.01755,0.0174,0.02365,-0.04898,-0.0174,0.01038,-0.04227
3.2615,-0.02365,-0.12146,0.07004,-0.39551,-0.0502,-0.03494,-0.0148,-0.00351,-0.09552,-0.06668,0.00946,-0.01648,-0.04562,-0.02029,0.00732,-0.04623
3.262,-0.01816,-0.11246,0.08087,-0.52567,-0.04517,-0.03433,-0.00992,0.00259,-0.11795,-0.12894,0.00687,-0.03632,-0.04303,-0.02243,0.00504,-0.04837
3.2625,-0.02151,-0.09964,0.08652,-0.63034,-0.04288,-0.03433,-0.00839,0.00626,-0.12085,-0.19165,0.00229,-0.03632,-0.04089,-0.02258,0.00412,-0.04776
3.263,-0.03372,-0.08957,0.08331,-0.66528,-0.04318,-0.03662,-0.01389,0.00626,-0.10803,-0.23254,-0.00519,-0.00092,-0.03738,-0.02243,0.00412,-0.04578
3.2635,-0.04639,-0.08026,0.07355,-0.57053,-0.04349,-0.04028,-0.02609,0.00275,-0.08713,-0.24963,-0.01221,0.0531,-0.03479,-0.02396,0.00641,-0.04379
3.264,-0.05295,-0.07172,0.06027,-0.32745,-0.04242,-0.04318,-0.04135,-0.00046,-0.06516,-0.25436,-0.00946,0.04379,-0.03372,-0.02563,0.00885,-0.04379
3.2645,-0.05127,-0.06409,0.04349,-0.02487,-0.04257,-0.04486,-0.05295,-0.00031,-0.04669,-0.25543,0.00381,-0.06653,-0.03433,-0.02609,0.00992,-0.04349
3.265,-0.0441,-0.05661,0.02045,0.20996,-0.04456,-0.04379,-0.05768,0.00168,-0.03082,-0.24826,0.01862,-0.18723,-0.03464,-0.02457,0.009,-0.04333
3.2655,-0.03342,-0.04517,-0.00641,0.36667,-0.04456,-0.04318,-0.05371,0.00183,-0.01068,-0.22659,0.02441,-0.19485,-0.03296,-0.02258,0.00748,-0.04272
3.266,-0.02014,-0.02991,-0.03616,0.50385,-0.04227,-0.04227,-0.0415,-0.00015,0.0119,-0.18692,0.02197,-0.07874,-0.02975,-0.02197,0.00885,-0.04135
3.2665,-0.00748,-0.01709,-0.06958,0.54718,-0.03799,-0.04242,-0.01556,-0.00229,0.02502,-0.13733,0.01892,0.05341,-0.02762,-0.02289,0.01114,-0.03967
3.267,0.0029,-0.01404,-0.10422,0.38925,-0.03586,-0.04227,0.02594,-0.00153,0.02365,-0.0853,0.01648,0.10132,-0.02884,-0.02502,0.01266,-0.03891
3.2675,0.0087,-0.02426,-0.13229,0.15747,-0.03601,-0.04211,0.0647,0.00259,0.01434,-0.03769,0.00565,0.06271,-0.03052,-0.0264,0.01251,-0.03784
3.268,0.0148,-0.04333,-0.14923,0.11169,-0.03632,-0.0412,0.07813,0.00702,0.01053,0.00473,-0.02182,0.01801,-0.03189,-0.02625,0.00916,-0.03937
3.2685,0.02411,-0.05783,-0.15198,0.25299,-0.03601,-0.0383,0.05615,0.00916,0.01495,0.04105,-0.05966,0.01678,-0.0325,-0.02655,0.00732,-0.04379
3.269,0.03525,-0.05829,-0.14328,0.32516,-0.03586,-0.03601,0.01373,0.00809,0.01984,0.07233,-0.08621,0.01022,-0.03174,-0.02762,0.00671,-0.04654
3.2695,0.0441,-0.0502,-0.12527,0.19363,-0.03799,-0.03448,-0.01999,0.00504,0.0209,0.09842,-0.08835,-0.06134,-0.03098,-0.02609,0.00793,-0.04532
3.27,0.04944,-0.04486,-0.10468,0.0119,-0.03677,-0.03342,-0.02792,-0.00015,0.0174,0.12314,-0.07782,-0.14297,-0.02899,-0.02106,0.00854,-0.04211
3.2705,0.0502,-0.0473,-0.09308,-0.04074,-0.03387,-0.03372,-0.0174,-0.00519,0.01236,0.14282,-0.07797,-0.1268,-0.02731,-0.01526,0.00671,-0.04105
3.271,0.04883,-0.05432,-0.09323,0.00381,-0.03189,-0.03494,-0.00305,-0.00885,0.00946,0.14771,-0.08255,-0.02777,-0.0267,-0.01251,0.00656,-0.04288
3.2715,0.04547,-0.06439,-0.0943,-0.00458,-0.03372,-0.0351,0.00687,-0.0116,0.00946,0.13214,-0.06744,0.03433,-0.02655,-0.01114,0.00702,-0.04684
3.272,0.04013,-0.07828,-0.08255,-0.10788,-0.03616,-0.03494,0.01053,-0.01266,0.01205,0.0946,-0.02914,0.02625,-0.02731,-0.01007,0.00687,-0.05127
3.2725,0.03525,-0.08942,-0.05737,-0.18829,-0.03662,-0.03464,0.00748,-0.01221,0.02243,0.04639,0.00488,0.02167,-0.02701,-0.00824,0.0061,-0.05341
3.273,0.03357,-0.08514,-0.03464,-0.14862,-0.0354,-0.03387,-0.00122,-0.01068,0.04196,-0.00183,0.0087,0.04044,-0.02579,-0.00732,0.00687,-0.05051
3.2735,0.03571,-0.06165,-0.02396,-0.04364,-0.0354,-0.0325,-0.01053,-0.00961,0.05661,-0.04028,-0.01053,0.01099,-0.02548,-0.00961,0.00885,-0.04379
3.274,0.03967,-0.0296,-0.02472,0.00397,-0.03677,-0.03052,-0.01556,-0.009,0.04578,-0.05829,-0.02518,-0.10422,-0.02625,-0.01205,0.00992,-0.03952
3.2745,0.04471,0.00336,-0.03052,-0.04196,-0.03738,-0.03189,-0.01648,-0.00839,-0.00153,-0.04837,-0.02411,-0.24918,-0.02869,-0.01495,0.009,-0.04135
3.275,0.05157,0.03998,-0.04013,-0.11444,-0.03693,-0.0383,-0.01694,-0.00793,-0.07874,-0.01465,-0.01495,-0.33371,-0.03128,-0.01663,0.00656,-0.04608
3.2755,0.06104,0.08148,-0.04501,-0.13031,-0.03555,-0.04639,-0.01724,-0.00763,-0.16022,0.02396,-0.00656,-0.30228,-0.03357,-0.01923,0.00549,-0.04974
3.276,0.06927,0.12192,-0.03952,-0.06866,-0.03723,-0.0528,-0.01999,-0.00687,-0.20721,0.04898,-0.00641,-0.1622,-0.03372,-0.02121,0.00534,-0.04837
3.2765,0.07462,0.15106,-0.0267,0.02274,-0.03891,-0.05798,-0.02335,-0.00763,-0.19989,0.04929,-0.01892,0.02853,-0.03174,-0.02197,0.0058,-0.04471
3.277,0.07782,0.16235,-0.01709,0.08087,-0.03998,-0.06393,-0.02579,-0.01068,-0.15259,0.03036,-0.04761,0.18143,-0.02716,-0.0235,0.00519,-0.04211
3.2775,0.07767,0.14999,-0.01419,0.07813,-0.03891,-0.06744,-0.02655,-0.01404,-0.09109,0.00641,-0.08179,0.23117,-0.02457,-0.02563,0.00519,-0.04135
3.278,0.07339,0.11871,-0.00793,0.04471,-0.03799,-0.06531,-0.02579,-0.01495,-0.03021,-0.01099,-0.10361,0.19424,-0.02487,-0.02655,0.00458,-0.04135
3.2785,0.06592,0.07614,0.00916,0.0325,-0.03845,-0.05859,-0.02411,-0.0145,0.01709,-0.0238,-0.10361,0.15564,-0.02579,-0.0238,0.00412,-0.04227
3.279,0.05966,0.03006,0.02975,0.05341,-0.03906,-0.05356,-0.02151,-0.01343,0.0383,-0.03738,-0.09354,0.17181,-0.02426,-0.01938,0.0032,-0.04349
3.2795,0.05676,-0.01373,0.0383,0.07095,-0.03906,-0.05325,-0.01816,-0.00992,0.02548,-0.05646,-0.08728,0.21835,-0.01999,-0.0145,0.00381,-0.04272
3.28,0.05569,-0.04852,0.02319,0.05142,-0.0386,-0.05539,-0.01587,-0.00549,-0.01877,-0.07477,-0.08606,0.21652,-0.01633,-0.01236,0.00534,-0.04166
3.2805,0.05264,-0.07523,-0.01389,0.00473,-0.03876,-0.05646,-0.0148,-0.0032,-0.08484,-0.08484,-0.0853,0.10544,-0.01709,-0.01358,0.00641,-0.04059
3.281,0.04974,-0.09735,-0.05219,-0.03113,-0.0386,-0.05676,-0.01373,-0.00244,-0.14969,-0.08209,-0.07782,-0.07156,-0.01907,-0.01663,0.00626,-0.03952
3.2815,0.04959,-0.11703,-0.06271,-0.03769,-0.03845,-0.0563,-0.01389,-0.00153,-0.17624,-0.06393,-0.06409,-0.16449,-0.02121,-0.01999,0.00702,-0.0386
3.282,0.05173,-0.13107,-0.03815,-0.03098,-0.03616,-0.056,-0.01602,-0.00183,-0.14679,-0.03494,-0.05127,-0.07721,-0.0238,-0.02075,0.00702,-0.03799
3.2825,0.0528,-0.13641,-0.00046,-0.02716,-0.03433,-0.05432,-0.02075,-0.00183,-0.09491,-0.00244,-0.04395,0.09064,-0.02579,-0.01816,0.00809,-0.03769
3.283,0.0473,-0.1355,0.02472,-0.01343,-0.03326,-0.05234,-0.02365,-0.00275,-0.06271,0.02396,-0.04089,0.14603,-0.02563,-0.01389,0.00961,-0.03723
3.2835,0.03525,-0.13351,0.02869,0.03143,-0.03204,-0.05081,-0.02197,-0.00275,-0.0383,0.0325,-0.03311,0.0528,-0.02243,-0.00839,0.01312,-0.03571
3.284,0.02487,-0.12894,0.01709,0.09811,-0.03036,-0.04913,-0.01831,-0.00214,0.01678,0.02304,-0.0177,-0.02869,-0.0177,-0.00519,0.01602,-0.03433
3.2845,0.02151,-0.11719,0.00107,0.14206,-0.02869,-0.04837,-0.01541,-0.00107,0.09674,0.01511,-0.00046,0.05051,-0.01434,-0.00504,0.01663,-0.03433
3.285,0.02396,-0.09857,-0.01038,0.13565,-0.02899,-0.0473,-0.01511,0.0,0.15045,0.02762,0.01114,0.23407,-0.01373,-0.00702,0.01465,-0.03586
3.2855,0.02808,-0.08041,-0.0206,0.09842,-0.0293,-0.04715,-0.01617,0.0,0.15045,0.05951,0.01801,0.3302,-0.01419,-0.00824,0.01236,-0.03632
3.286,0.0296,-0.07126,-0.03372,0.06836,-0.03189,-0.04654,-0.01724,-0.00046,0.12177,0.08987,0.02533,0.26657,-0.01465,-0.00793,0.01251,-0.03525
3.2865,0.02655,-0.06393,-0.04913,0.06943,-0.03296,-0.04684,-0.01862,-0.00168,0.09964,0.10681,0.04303,0.18036,-0.01511,-0.00793,0.01205,-0.03601
3.287,0.02045,-0.05402,-0.06073,0.11017,-0.0322,-0.04852,-0.01801,-0.00336,0.08972,0.1091,0.07462,0.1825,-0.01724,-0.00961,0.00885,-0.03937
3.2875,0.01434,-0.04364,-0.06439,0.18707,-0.03021,-0.04791,-0.01678,-0.00381,0.06927,0.1001,0.10529,0.18143,-0.02014,-0.01205,0.00473,-0.04349
3.288,0.01556,-0.03876,-0.0676,0.26993,-0.0293,-0.04715,-0.0148,-0.00259,0.02579,0.07675,0.10559,0.07019,-0.02243,-0.01419,0.0032,-0.04547
3.2885,0.02762,-0.04044,-0.07507,0.30991,-0.0293,-0.04501,-0.01373,-0.00046,-0.02884,0.03891,0.06836,-0.07553,-0.02228,-0.01511,0.00336,-0.04639
3.289,0.04135,-0.04333,-0.08591,0.29968,-0.02853,-0.04181,-0.01831,0.00259,-0.0621,-0.00839,0.02258,-0.13687,-0.02106,-0.01526,0.00351,-0.04547
3.2895,0.04562,-0.04593,-0.09521,0.2803,-0.02563,-0.04074,-0.0386,0.00488,-0.05493,-0.05722,0.00168,-0.14984,-0.0206,-0.01511,0.00366,-0.04379
3.29,0.03479,-0.04944,-0.09918,0.2623,-0.0235,-0.04105,-0.06912,0.00595,-0.0235,-0.09872,0.00992,-0.20874,-0.02335,-0.01465,0.00549,-0.04105
3.2905,0.01892,-0.05493,-0.0975,0.19104,-0.02396,-0.0412,-0.08896,0.0061,-0.00198,-0.12878,0.02182,-0.28351,-0.02655,-0.01617,0.00931,-0.03769
3.291,0.00748,-0.06195,-0.08881,0.0267,-0.02533,-0.04288,-0.08347,0.00656,-0.01007,-0.15198,0.02274,-0.27176,-0.03052,-0.01892,0.01144,-0.03616
3.2915,0.00351,-0.06973,-0.07751,-0.18799,-0.02533,-0.04379,-0.06714,0.00763,-0.03845,-0.17471,0.01663,-0.18707,-0.03311,-0.02106,0.01068,-0.03616
3.292,0.00198,-0.07629,-0.06912,-0.40863,-0.02701,-0.04425,-0.05478,0.00793,-0.05936,-0.19775,0.0119,-0.18341,-0.03525,-0.02289,0.00916,-0.03738
3.2925,0.00015,-0.0769,-0.06256,-0.65598,-0.02838,-0.04654,-0.03448,0.00671,-0.05692,-0.21439,0.00671,-0.37201,-0.03754,-0.02502,0.00854,-0.03998
3.293,-0.00351,-0.07202,-0.04745,-0.90759,-0.03052,-0.04684,0.02991,0.00519,-0.0412,-0.21759,-0.00687,-0.68771,-0.03952,-0.0264,0.00977,-0.04196
3.2935,-0.00961,-0.06775,-0.01587,-0.98572,-0.03189,-0.04761,0.12054,0.00366,-0.03082,-0.20416,-0.02731,-0.92407,-0.04059,-0.02609,0.01312,-0.04272
3.294,-0.01602,-0.0705,0.03067,-0.70999,-0.03403,-0.047,0.14984,0.00092,-0.03357,-0.17883,-0.04639,-0.88608,-0.03983,-0.02594,0.01511,-0.04333
3.2945,-0.01526,-0.0737,0.07294,-0.18051,-0.03586,-0.04562,0.06683,-0.00305,-0.047,-0.1413,-0.06302,-0.5011,-0.03754,-0.02609,0.01648,-0.04379
3.295,-0.00626,-0.06821,0.08728,0.27084,-0.03601,-0.04547,-0.04395,-0.00809,-0.06851,-0.08987,-0.08331,0.13901,-0.03494,-0.0267,0.01404,-0.04471
3.2955,0.00732,-0.05478,0.06302,0.43869,-0.03525,-0.04501,-0.06775,-0.009,-0.08713,-0.02853,-0.10422,0.78079,-0.0322,-0.02609,0.01022,-0.04715
3.296,0.01892,-0.04135,0.0145,0.37186,-0.0354,-0.04578,-0.01328,-0.00702,-0.08896,0.03525,-0.11734,1.11389,-0.02945,-0.02258,0.00793,-0.04883
3.2965,0.02335,-0.03189,-0.03006,0.18234,-0.03616,-0.04684,0.01907,-0.00488,-0.07217,0.09521,-0.12344,0.98083,-0.0267,-0.01785,0.00641,-0.04944
3.297,0.01419,-0.02396,-0.05234,-0.04807,-0.03754,-0.04669,-0.00565,-0.00595,-0.04852,0.14267,-0.13245,0.50964,-0.02518,-0.01511,0.00244,-0.05295
3.2975,-0.01068,-0.01465,-0.05432,-0.2092,-0.03693,-0.04669,-0.03433,-0.00824,-0.02686,0.17303,-0.14053,0.00687,-0.0267,-0.01511,-0.00076,-0.05966
3.298,-0.04028,-0.00397,-0.04974,-0.20874,-0.03464,-0.04623,-0.03174,-0.00824,-0.00641,0.18448,-0.13199,-0.27039,-0.02975,-0.01816,-0.00336,-0.06516
3.2985,-0.04837,0.00534,-0.03693,-0.07736,-0.0322,-0.04669,-0.01923,-0.00595,0.01465,0.17792,-0.10361,-0.2504,-0.03296,-0.01892,-0.00214,-0.06439
3.299,-0.02228,0.00931,0.00046,0.0589,-0.03281,-0.04745,-0.02106,-0.00397,0.0325,0.1532,-0.06927,-0.04257,-0.03418,-0.01892,0.00168,-0.05844
3.2995,0.02014,0.00229,0.05569,0.12466,-0.03464,-0.04974,-0.02808,-0.0061,0.04501,0.11948,-0.04074,0.16449,-0.03387,-0.01846,0.00412,-0.0528
3.3,0.04135,-0.0058,0.08804,0.14374,-0.03479,-0.05051,-0.02869,-0.01114,0.05692,0.08362,-0.01389,0.24872,-0.03464,-0.01953,0.00397,-0.05096
3.3005,0.02579,-0.00168,0.06866,0.15121,-0.03433,-0.05035,-0.02502,-0.01526,0.06638,0.04578,0.0145,0.21408,-0.03677,-0.0209,0.00351,-0.05142
3.301,-0.01205,0.0174,0.01862,0.15106,-0.03433,-0.04868,-0.02487,-0.01678,0.06744,0.00168,0.03357,0.1265,-0.03738,-0.02106,0.00443,-0.05127
3.3015,-0.04425,0.0351,-0.01465,0.15579,-0.03479,-0.04715,-0.02457,-0.01434,0.05585,-0.04242,0.03494,0.03479,-0.03662,-0.01999,0.00641,-0.047
3.302,-0.05661,0.03525,-0.00854,0.16327,-0.03403,-0.0473,-0.01907,-0.01022,0.03708,-0.07843,0.02869,-0.04272,-0.03525,-0.01968,0.00656,-0.04379
3.3025,-0.05203,0.01389,0.0235,0.11429,-0.03174,-0.04868,-0.01144,-0.00473,0.02243,-0.10529,0.02975,-0.09232,-0.03281,-0.02029,0.00626,-0.04303
3.303,-0.04486,-0.01877,0.04715,-0.02914,-0.0293,-0.04852,-0.00763,0.00092,0.01801,-0.13184,0.03876,-0.08682,-0.02853,-0.02029,0.00595,-0.0444
3.3035,-0.04898,-0.04959,0.02792,-0.18616,-0.02945,-0.04837,-0.00885,0.00488,0.02197,-0.16495,0.05157,-0.02258,-0.02533,-0.01938,0.00641,-0.04501
3.304,-0.05859,-0.07202,-0.04181,-0.23499,-0.0296,-0.04715,-0.01282,0.00305,0.02945,-0.19745,0.06241,0.04288,-0.02625,-0.01923,0.00763,-0.04303
3.3045,-0.05356,-0.08713,-0.1329,-0.16388,-0.02899,-0.04562,-0.0148,-0.00061,0.03571,-0.21454,0.06653,0.04303,-0.03479,-0.02029,0.00839,-0.03983
3.305,-0.02594,-0.09842,-0.20035,-0.09064,-0.02823,-0.04486,-0.01556,-0.00397,0.03922,-0.20279,0.06653,-0.00549,-0.04593,-0.02213,0.00946,-0.03799
3.3055,0.00519,-0.10422,-0.20844,-0.13,-0.02853,-0.04425,-0.01556,-0.00336,0.0386,-0.16174,0.06683,-0.05234,-0.0563,-0.02258,0.01022,-0.03738
3.306,0.01236,-0.10132,-0.16235,-0.298,-0.03052,-0.04318,-0.01556,0.00046,0.03571,-0.0975,0.06729,-0.10452,-0.0621,-0.0206,0.01129,-0.03448
3.3065,-0.00946,-0.08667,-0.11108,-0.52002,-0.03113,-0.04288,-0.01465,0.00458,0.02838,-0.01984,0.06561,-0.17426,-0.0621,-0.01923,0.01205,-0.03128
3.307,-0.03311,-0.06454,-0.10803,-0.66833,-0.03036,-0.04349,-0.01587,0.00305,0.01266,0.05386,0.05829,-0.17578,-0.05829,-0.01862,0.01419,-0.02869
3.3075,-0.03586,-0.03998,-0.15518,-0.59708,-0.02869,-0.04456,-0.01923,-0.00229,-0.01144,0.10651,0.04837,-0.02121,-0.05386,-0.01862,0.01495,-0.02884
3.308,-0.0238,-0.01663,-0.20279,-0.24338,-0.02579,-0.04578,-0.02197,-0.00595,-0.03342,0.13199,0.03815,0.18311,-0.05142,-0.01968,0.01495,-0.02975
3.3085,-0.01266,0.00504,-0.22079,0.24384,-0.02319,-0.047,-0.02197,-0.00458,-0.04349,0.13809,0.02487,0.21866,-0.05051,-0.02319,0.01694,-0.03067
3.309,-0.00031,0.02029,-0.2211,0.55206,-0.02304,-0.04669,-0.02075,-0.0032,-0.04303,0.1355,0.00916,0.05539,-0.04807,-0.02899,0.01709,-0.03189
3.3095,0.01999,0.02121,-0.21698,0.50034,-0.02396,-0.04395,-0.01892,-0.00381,-0.03677,0.12711,-0.00092,-0.08942,-0.04578,-0.03326,0.01633,-0.03464
3.31,0.04181,0.0058,-0.19257,0.22049,-0.02411,-0.03906,-0.01785,-0.00702,-0.02121,0.11063,-0.00275,-0.06378,-0.04044,-0.03281,0.01617,-0.03738
3.3105,0.05005,-0.01297,-0.13565,-0.0116,-0.02457,-0.03586,-0.01831,-0.00839,0.00854,0.08743,-0.00076,0.02472,-0.03281,-0.02991,0.01434,-0.03952
3.311,0.04318,-0.02716,-0.06653,-0.07858,-0.02502,-0.03586,-0.01801,-0.00519,0.04303,0.05798,0.00137,0.01953,-0.02426,-0.02899,0.01083,-0.0444
3.3115,0.03616,-0.0354,-0.01556,-0.06927,-0.02701,-0.03815,-0.01709,0.00061,0.06805,0.02533,0.00168,-0.05951,-0.01968,-0.03021,0.00473,-0.05173
3.312,0.03723,-0.04608,0.01587,-0.09125,-0.03036,-0.04044,-0.01633,0.00519,0.07599,-0.01068,0.00137,-0.13367,-0.01862,-0.0325,-0.00092,-0.05936
3.3125,0.03372,-0.06302,0.03616,-0.12817,-0.03189,-0.04181,-0.0177,0.00549,0.07492,-0.05066,0.00031,-0.21332,-0.01862,-0.03235,-0.00229,-0.06226
3.313,0.01511,-0.08286,0.04578,-0.11047,-0.03311,-0.04395,-0.02014,0.00122,0.07294,-0.09415,-0.00229,-0.2832,-0.01755,-0.03113,0.00031,-0.05997
3.3135,-0.01236,-0.09766,0.03616,-0.04105,-0.03311,-0.047,-0.01923,-0.00214,0.06943,-0.1355,-0.009,-0.23071,-0.01816,-0.02945,0.00336,-0.05478
3.314,-0.02808,-0.10757,0.01221,0.03616,-0.03311,-0.04944,-0.01465,-0.00214,0.04593,-0.16769,-0.01938,-0.02625,-0.01953,-0.02716,0.00504,-0.04974
3.3145,-0.02899,-0.11765,-0.01083,0.13718,-0.03204,-0.05142,-0.01099,0.00092,-0.00961,-0.18433,-0.03006,0.16663,-0.02014,-0.0235,0.00397,-0.04822
3.315,-0.03326,-0.12939,-0.02136,0.27985,-0.03204,-0.05386,-0.01175,0.00336,-0.08469,-0.18768,-0.03235,0.19775,-0.02121,-0.01999,0.00015,-0.05112
3.3155,-0.05707,-0.14038,-0.02121,0.36072,-0.03265,-0.05554,-0.01495,0.00244,-0.15167,-0.18143,-0.02304,0.12054,-0.02548,-0.01923,-0.00153,-0.05569
3.316,-0.09079,-0.13885,-0.00397,0.2562,-0.03174,-0.05753,-0.01633,0.0,-0.1944,-0.16434,-0.00534,0.06271,-0.03036,-0.01892,0.00031,-0.05676
3.3165,-0.10559,-0.11581,0.03906,0.02136,-0.03082,-0.05997,-0.01465,-0.00214,-0.21683,-0.13397,0.00793,0.03845,-0.03479,-0.01831,0.00351,-0.05417
3.317,-0.08881,-0.07782,0.1004,-0.15839,-0.02899,-0.06271,-0.01297,-0.00259,-0.23117,-0.09171,0.00641,-0.00412,-0.03601,-0.01678,0.00504,-0.05127
3.3175,-0.05508,-0.03967,0.15121,-0.19089,-0.0296,-0.06638,-0.0119,-0.00244,-0.2356,-0.05035,-0.01038,-0.04913,-0.03525,-0.01465,0.00473,-0.04883
3.318,-0.02655,-0.01511,0.18173,-0.13916,-0.03036,-0.06912,-0.01389,-0.00305,-0.21271,-0.01617,-0.02914,-0.04257,-0.03342,-0.01343,0.00595,-0.04669
3.3185,-0.01144,0.00015,0.21683,-0.06439,-0.03159,-0.07126,-0.01495,-0.00443,-0.15228,0.01434,-0.03891,0.01297,-0.03311,-0.01389,0.009,-0.04288
3.319,-0.00702,0.01495,0.26047,0.06073,-0.03143,-0.07141,-0.0145,-0.00519,-0.07751,0.05081,-0.03403,0.0705,-0.03494,-0.01526,0.01282,-0.03952
3.3195,-0.00717,0.02655,0.27283,0.27634,-0.03082,-0.07034,-0.01038,-0.00473,-0.02884,0.09445,-0.01877,0.1059,-0.03555,-0.01633,0.01328,-0.0386
3.32,-0.00519,0.0238,0.22446,0.51361,-0.03082,-0.06882,-0.00732,-0.00336,-0.02304,0.13077,0.00031,0.11414,-0.03464,-0.01755,0.01389,-0.0383
3.3205,0.00168,0.0058,0.14664,0.60196,-0.03021,-0.065,-0.00763,-0.00244,-0.04181,0.14603,0.01617,0.09323,-0.03418,-0.01923,0.01205,-0.0383
3.321,0.00793,-0.01373,0.10727,0.43198,-0.03036,-0.06042,-0.00839,-0.00092,-0.05768,0.13916,0.02808,0.07584,-0.03632,-0.02151,0.01053,-0.04013
3.3215,0.01083,-0.02502,0.14145,0.10605,-0.03128,-0.05707,-0.00885,0.0,-0.06561,0.1181,0.03571,0.10498,-0.03937,-0.02151,0.01068,-0.04135
3.322,0.01419,-0.02914,0.19852,-0.14786,-0.03281,-0.05661,-0.009,-0.00031,-0.08133,0.08881,0.04013,0.14023,-0.04227,-0.0206,0.01221,-0.04105
3.3225,0.02472,-0.0325,0.18555,-0.22369,-0.03281,-0.05692,-0.0116,-0.00336,-0.11261,0.04211,0.04562,0.08362,-0.04364,-0.01907,0.01297,-0.03937
3.323,0.03647,-0.03693,0.06149,-0.24521,-0.03189,-0.05707,-0.0145,-0.0061,-0.13901,-0.02533,0.05341,-0.09033,-0.04105,-0.0177,0.01282,-0.03571
3.3235,0.03571,-0.04257,-0.11932,-0.3714,-0.03143,-0.05539,-0.01312,-0.00793,-0.12894,-0.10239,0.05859,-0.26901,-0.03693,-0.01511,0.01251,-0.03403
3.324,0.01938,-0.05081,-0.2713,-0.5455,-0.03159,-0.0531,-0.01022,-0.00748,-0.07446,-0.16281,0.04562,-0.28351,-0.03265,-0.01434,0.01236,-0.03403
3.3245,-0.00366,-0.06744,-0.35187,-0.52795,-0.03082,-0.05249,-0.00961,-0.00763,-0.00275,-0.1915,0.00336,-0.07553,-0.0293,-0.01328,0.01083,-0.03616
3.325,-0.02777,-0.09949,-0.38513,-0.22812,-0.03067,-0.05371,-0.01236,-0.00839,0.05066,-0.19135,-0.0589,0.20172,-0.02594,-0.01465,0.00809,-0.03922
3.3255,-0.0444,-0.14099,-0.40405,0.09384,-0.03326,-0.056,-0.01419,-0.00931,0.07095,-0.17426,-0.10788,0.30975,-0.0206,-0.01694,0.00412,-0.0412
3.326,-0.04745,-0.16769,-0.42053,0.13321,-0.03448,-0.05783,-0.01312,-0.0087,0.0676,-0.14374,-0.11627,0.16357,-0.01343,-0.01755,0.00244,-0.03967
3.3265,-0.03265,-0.15976,-0.43167,-0.05585,-0.03601,-0.05814,-0.01068,-0.00641,0.05676,-0.10437,-0.08545,-0.10941,-0.00687,-0.01633,0.0032,-0.03616
3.327,-0.00656,-0.11612,-0.4306,-0.17197,-0.03647,-0.05707,-0.00946,-0.00305,0.04562,-0.06409,-0.05005,-0.32608,0.00061,-0.01678,0.0061,-0.03265
3.3275,0.01526,-0.05432,-0.41351,-0.09232,-0.03586,-0.05554,-0.01022,-0.00214,0.03357,-0.03067,-0.03525,-0.40192,0.00656,-0.01694,0.01083,-0.03052
3.328,0.02197,0.00763,-0.37506,0.04181,-0.03433,-0.0528,-0.01068,-0.00183,0.02426,-0.00397,-0.04013,-0.33905,0.00565,-0.0174,0.01404,-0.02686
3.3285,0.01938,0.06058,-0.31845,0.09171,-0.03098,-0.0502,-0.01022,-0.00015,0.02182,0.02197,-0.05188,-0.16083,0.0,-0.01709,0.01709,-0.02121
3.329,0.01816,0.0943,-0.25772,0.0795,-0.02823,-0.04745,-0.00946,0.00458,0.02151,0.04883,-0.06317,0.04959,-0.0058,-0.01556,0.01984,-0.01709
3.3295,0.02243,0.10696,-0.2121,0.08148,-0.02396,-0.04745,-0.00839,0.00778,0.01801,0.07065,-0.07111,0.1442,-0.00626,-0.01282,0.02014,-0.01862
3.33,0.03052,0.10345,-0.18753,0.10941,-0.02029,-0.0473,-0.00793,0.00534,0.01022,0.08224,-0.07401,0.05829,-0.00641,-0.00839,0.01572,-0.02579
3.3305,0.03937,0.0914,-0.17563,0.13077,-0.0177,-0.04715,-0.00931,-0.00061,0.00381,0.0824,-0.07904,-0.06836,-0.01343,-0.0058,0.00946,-0.03571
3.331,0.0473,0.07385,-0.16312,0.14648,-0.01633,-0.04654,-0.01144,-0.00732,0.00244,0.0737,-0.09247,-0.05295,-0.02579,-0.00626,0.00381,-0.0441
3.3315,0.05234,0.04807,-0.13748,0.20554,-0.01816,-0.04608,-0.01236,-0.01053,0.00626,0.06104,-0.11047,0.08942,-0.03632,-0.0087,0.00336,-0.04791
3.332,0.05295,0.0119,-0.09384,0.31601,-0.0206,-0.04745,-0.01205,-0.01007,0.01495,0.05051,-0.12466,0.19974,-0.04257,-0.01114,0.00504,-0.04807
3.3325,0.04669,-0.02975,-0.04501,0.38177,-0.02151,-0.04715,-0.01114,-0.0058,0.03052,0.04562,-0.13107,0.20096,-0.05234,-0.0119,0.00656,-0.0499
3.333,0.03571,-0.06653,0.0,0.29053,-0.02213,-0.04684,-0.00977,0.00214,0.04547,0.04562,-0.12711,0.14938,-0.06927,-0.01205,0.00504,-0.05356
3.3335,0.02518,-0.08804,0.03586,0.07553,-0.02411,-0.04623,-0.0087,0.00839,0.05142,0.04074,-0.11108,0.12344,-0.08591,-0.01236,0.00351,-0.05402
3.334,0.02243,-0.08881,0.06119,-0.09216,-0.02655,-0.04715,-0.00641,0.01083,0.03998,0.02792,-0.07858,0.13611,-0.0885,-0.01175,0.00305,-0.05096
3.3345,0.02808,-0.07309,0.07492,-0.11139,-0.02808,-0.04852,-0.00351,0.01129,0.00977,0.00488,-0.03326,0.15732,-0.07858,-0.01144,0.00412,-0.04608
3.335,0.03677,-0.04944,0.07904,-0.00443,-0.02701,-0.04929,-0.00153,0.00961,-0.02731,-0.01923,0.00671,0.15762,-0.06699,-0.01251,0.00412,-0.04486
3.3355,0.04318,-0.02975,0.08026,0.21515,-0.02716,-0.05127,-0.00259,0.00519,-0.04745,-0.03845,0.02594,0.13336,-0.0592,-0.01343,0.00458,-0.04776
3.336,0.04349,-0.02167,0.08835,0.50446,-0.03021,-0.0531,-0.00732,-0.00198,-0.03418,-0.05951,0.0238,0.10345,-0.05463,-0.0148,0.00412,-0.05035
3.3365,0.03204,-0.02426,0.11429,0.62103,-0.03311,-0.05356,-0.01282,-0.00946,0.00381,-0.09064,0.01328,0.08026,-0.04944,-0.01495,0.00336,-0.05173
3.337,0.01236,-0.03052,0.15015,0.30273,-0.03311,-0.05356,-0.01465,-0.01389,0.04227,-0.13138,0.01022,0.04929,-0.04456,-0.01648,0.00153,-0.05188
3.3375,-0.00397,-0.03174,0.17151,-0.32806,-0.0325,-0.05295,-0.01373,-0.01511,0.0621,-0.16464,0.02548,-0.01144,-0.04135,-0.0174,0.00305,-0.05066
3.338,-0.00671,-0.02747,0.16144,-0.82123,-0.03296,-0.05356,-0.0119,-0.01358,0.06378,-0.17929,0.06332,-0.11917,-0.03937,-0.01877,0.00504,-0.047
3.3385,-0.00046,-0.02441,0.13275,-0.91034,-0.03494,-0.05432,-0.01114,-0.01236,0.05875,-0.17975,0.1062,-0.2652,-0.03906,-0.0206,0.0087,-0.04379
3.339,-0.00473,-0.02945,0.10056,-0.74661,-0.03784,-0.056,-0.01251,-0.0116,0.05737,-0.17578,0.12436,-0.39017,-0.03876,-0.02136,0.01266,-0.0415
3.3395,-0.02274,-0.04593,0.06851,-0.6073,-0.03738,-0.05798,-0.01511,-0.01373,0.06302,-0.16479,0.10635,-0.40985,-0.03784,-0.02167,0.01434,-0.03769
3.34,-0.0383,-0.06729,0.03922,-0.56458,-0.0351,-0.06058,-0.01938,-0.0177,0.07294,-0.13489,0.07813,-0.28503,-0.0351,-0.02228,0.0148,-0.03403
3.3405,-0.0386,-0.08469,0.02106,-0.53848,-0.03372,-0.06195,-0.02396,-0.0209,0.08179,-0.08743,0.0737,-0.04272,-0.03281,-0.02426,0.01358,-0.0325
3.341,-0.03006,-0.09644,0.02136,-0.5101,-0.03448,-0.06226,-0.0264,-0.02258,0.08224,-0.04532,0.1059,0.25314,-0.03204,-0.02563,0.01053,-0.03586
3.3415,-0.02609,-0.10574,0.03555,-0.4715,-0.03967,-0.06027,-0.02502,-0.02197,0.06989,-0.02808,0.15259,0.50003,-0.03113,-0.02533,0.00641,-0.04288
3.342,-0.02609,-0.11993,0.05188,-0.29297,-0.04639,-0.05936,-0.02243,-0.0209,0.04517,-0.03601,0.17426,0.57678,-0.02823,-0.02502,0.00198,-0.04959
3.3425,-0.02075,-0.14496,0.06699,0.09048,-0.0528,-0.05905,-0.02258,-0.02029,0.00519,-0.0499,0.15152,0.4245,-0.02396,-0.02655,-0.00015,-0.05112
3.343,-0.01312,-0.17426,0.08179,0.44189,-0.05783,-0.0592,-0.02472,-0.01953,-0.05081,-0.04929,0.09842,0.13809,-0.02243,-0.02899,-0.00031,-0.04791
3.3435,-0.01617,-0.19012,0.08789,0.47577,-0.05798,-0.0589,-0.02563,-0.01831,-0.10651,-0.02045,0.04761,-0.09964,-0.02487,-0.03159,0.00061,-0.04501
3.344,-0.02975,-0.18158,0.07416,0.26016,-0.05264,-0.05753,-0.02441,-0.01663,-0.13306,0.04349,0.01358,-0.19592,-0.03235,-0.03265,0.00259,-0.04364
3.3445,-0.03799,-0.15778,0.04486,0.10193,-0.04654,-0.05692,-0.02197,-0.01404,-0.12695,0.13382,-0.01358,-0.20645,-0.04089,-0.03265,0.00504,-0.04196
3.345,-0.04013,-0.13092,0.02289,0.12451,-0.04333,-0.05569,-0.01907,-0.01083,-0.11917,0.21927,-0.04822,-0.2095,-0.04822,-0.03128,0.00702,-0.0386
3.3455,-0.05692,-0.10818,0.02182,0.1973,-0.04349,-0.05615,-0.01587,-0.01022,-0.13184,0.27161,-0.08789,-0.20248,-0.05493,-0.03067,0.00687,-0.03525
3.346,-0.09872,-0.09521,0.03296,0.2034,-0.04425,-0.05585,-0.01373,-0.00946,-0.1442,0.28275,-0.11887,-0.16769,-0.06348,-0.02945,0.00778,-0.03494
3.3465,-0.14999,-0.09399,0.0412,0.16907,-0.04471,-0.05615,-0.01251,-0.00839,-0.13107,0.26291,-0.14236,-0.1709,-0.06927,-0.02777,0.00732,-0.03769
3.347,-0.18509,-0.1059,0.03845,0.14954,-0.04242,-0.05615,-0.01236,-0.00641,-0.09537,0.22125,-0.16815,-0.26398,-0.065,-0.02716,0.00839,-0.03937
3.3475,-0.19348,-0.12161,0.0206,0.13962,-0.04089,-0.05569,-0.01282,-0.00504,-0.06149,0.16876,-0.19913,-0.35645,-0.05051,-0.02625,0.00885,-0.03998
3.348,-0.186,-0.12619,-0.00793,0.11887,-0.03937,-0.05371,-0.01404,-0.00504,-0.04089,0.11612,-0.21301,-0.31387,-0.03601,-0.02472,0.01129,-0.03876
3.3485,-0.18188,-0.11673,-0.04028,0.09277,-0.03708,-0.05096,-0.01282,-0.00336,-0.03082,0.06958,-0.19897,-0.18005,-0.03052,-0.02319,0.01312,-0.03723
3.349,-0.18707,-0.10468,-0.06317,0.07492,-0.03464,-0.04868,-0.00977,-0.00061,-0.02853,0.02426,-0.17426,-0.11108,-0.03067,-0.0238,0.01312,-0.03677
3.3495,-0.18311,-0.09583,-0.07111,0.06485,-0.03189,-0.04837,-0.00549,0.00275,-0.03433,-0.02151,-0.16525,-0.08148,-0.03067,-0.02487,0.01129,-0.03479
3.35,-0.14969,-0.07919,-0.06424,0.05936,-0.03052,-0.04807,-0.00336,0.00702,-0.04547,-0.05722,-0.16861,0.08759,-0.02823,-0.02365,0.0119,-0.03113
3.3505,-0.09766,-0.04944,-0.04929,0.07568,-0.03006,-0.04883,-0.0029,0.00916,-0.05844,-0.07584,-0.16571,0.37582,-0.02579,-0.01923,0.01389,-0.02747
3.351,-0.05417,-0.01022,-0.03754,0.13443,-0.03021,-0.05127,-0.00366,0.00809,-0.06531,-0.0856,-0.15289,0.48874,-0.0235,-0.01465,0.01602,-0.02686
3.3515,-0.03433,0.03326,-0.03448,0.22736,-0.02853,-0.0528,-0.00687,0.00427,-0.06134,-0.10117,-0.14618,0.24658,-0.02121,-0.00992,0.01617,-0.02762
3.352,-0.03525,0.07614,-0.03922,0.31311,-0.02747,-0.05325,-0.01007,-0.00015,-0.04196,-0.121,-0.14771,-0.13474,-0.01984,-0.00839,0.01724,-0.02914
3.3525,-0.0441,0.10956,-0.04684,0.34775,-0.02716,-0.05264,-0.01236,-0.00336,-0.01785,-0.13245,-0.14221,-0.30396,-0.02029,-0.00931,0.01816,-0.03067
3.353,-0.04974,0.12512,-0.05615,0.31021,-0.02716,-0.0531,-0.01175,-0.00595,0.00076,-0.12848,-0.11551,-0.18616,-0.02304,-0.01068,0.01663,-0.03433
3.3535,-0.04807,0.12817,-0.06348,0.21423,-0.02792,-0.0531,-0.01007,-0.0061,0.01038,-0.11337,-0.07782,-0.01556,-0.02441,-0.01221,0.01175,-0.04028
3.354,-0.03967,0.12741,-0.06729,0.11017,-0.02686,-0.05249,-0.009,-0.00412,0.01602,-0.09247,-0.04959,0.01114,-0.02625,-0.01389,0.00824,-0.04761
3.3545,-0.02701,0.12253,-0.07416,0.06256,-0.02487,-0.05112,-0.00809,-0.00122,0.01816,-0.06866,-0.03525,-0.01831,-0.02808,-0.01648,0.00778,-0.05249
3.355,-0.01389,0.11337,-0.08759,0.08102,-0.02167,-0.04974,-0.00488,0.00153,0.01465,-0.04517,-0.02289,0.07187,-0.03098,-0.01862,0.00626,-0.05447
3.3555,-0.00427,0.1062,-0.09705,0.0798,-0.01953,-0.04791,-0.00168,0.00488,0.00793,-0.02625,-0.00107,0.2272,-0.03296,-0.01755,0.00214,-0.05524
3.356,0.00137,0.11246,-0.08911,-0.01404,-0.01984,-0.0473,-0.00137,0.00717,0.00641,-0.01175,0.02686,0.21973,-0.03448,-0.01297,-0.00076,-0.05692
3.3565,0.00793,0.12955,-0.07614,-0.13824,-0.01984,-0.04776,-0.00366,0.00595,0.01205,-0.00488,0.0502,-0.00626,-0.03525,-0.00824,-0.00046,-0.05707
3.357,0.01724,0.14542,-0.07782,-0.18173,-0.01938,-0.04791,-0.00671,0.00244,0.01877,-0.00885,0.05905,-0.20172,-0.0351,-0.00763,0.00275,-0.05463
3.3575,0.02563,0.14542,-0.09918,-0.15884,-0.01892,-0.04547,-0.00763,-0.00046,0.02243,-0.02029,0.05173,-0.09598,-0.0351,-0.00977,0.00534,-0.04974
3.358,0.02975,0.12924,-0.12497,-0.17548,-0.01831,-0.0412,-0.0058,0.0,0.02457,-0.0383,0.04196,0.23941,-0.03433,-0.01099,0.00519,-0.04532
3.3585,0.03204,0.10498,-0.14038,-0.26428,-0.01953,-0.0386,-0.0029,0.00366,0.02655,-0.0592,0.04578,0.46432,-0.03433,-0.00961,0.00473,-0.04349
3.359,0.0354,0.07584,-0.14389,-0.37674,-0.02167,-0.0386,-0.0029,0.00549,0.02594,-0.0795,0.06134,0.39337,-0.0351,-0.00763,0.00412,-0.04303
3.3595,0.03387,0.04578,-0.14191,-0.47531,-0.02228,-0.03891,-0.00687,0.00183,0.0235,-0.09323,0.07477,0.18097,-0.03448,-0.00931,0.00336,-0.04318
3.36,0.02625,0.01846,-0.13931,-0.50385,-0.02197,-0.04089,-0.01373,-0.00641,0.02121,-0.09323,0.07935,0.05219,-0.03311,-0.01221,0.00183,-0.04379
3.3605,0.02197,0.00031,-0.13412,-0.37323,-0.02197,-0.04318,-0.01999,-0.01678,0.02121,-0.07996,0.07614,0.0444,-0.03067,-0.01343,0.00107,-0.04532
3.361,0.0293,-0.00488,-0.12314,-0.1207,-0.02289,-0.04486,-0.02319,-0.02502,0.02365,-0.056,0.0705,0.05554,-0.02808,-0.01434,0.00031,-0.04776
3.3615,0.04868,-0.00015,-0.10727,0.0354,-0.02396,-0.04532,-0.0238,-0.02869,0.0264,-0.02472,0.06668,0.0148,-0.02609,-0.01373,0.00122,-0.04883
3.362,0.07553,0.00885,-0.08926,-0.04807,-0.02457,-0.04425,-0.02243,-0.02747,0.02945,0.00534,0.06836,-0.05997,-0.02487,-0.0145,0.00183,-0.04791
3.3625,0.10651,0.01282,-0.07217,-0.25162,-0.0238,-0.04303,-0.01968,-0.02319,0.03571,0.03143,0.07324,-0.11566,-0.0264,-0.01678,0.00229,-0.04379
3.363,0.13931,0.00916,-0.05508,-0.37872,-0.02197,-0.0412,-0.01694,-0.01877,0.04715,0.04684,0.07111,-0.12695,-0.02869,-0.01877,0.00443,-0.04059
3.3635,0.17319,0.00168,-0.04135,-0.3923,-0.0209,-0.04074,-0.01511,-0.0145,0.06073,0.0502,0.05737,-0.09705,-0.0296,-0.01938,0.00717,-0.04013
3.364,0.21011,-0.00656,-0.03281,-0.37048,-0.0209,-0.04135,-0.01389,-0.01068,0.06714,0.04898,0.03586,-0.0296,-0.03036,-0.01953,0.0087,-0.03952
3.3645,0.23911,-0.01755,-0.02625,-0.32166,-0.02258,-0.04395,-0.01282,-0.00534,0.05386,0.04715,0.01434,0.06454,-0.03098,-0.01984,0.00885,-0.03876
3.365,0.24094,-0.03342,-0.01831,-0.15076,-0.02487,-0.04623,-0.01083,0.0,0.0174,0.0441,-0.00198,0.14206,-0.03143,-0.02106,0.00854,-0.03845
3.3655,0.21774,-0.05249,-0.01114,0.17761,-0.02655,-0.04761,-0.00763,0.00519,-0.02121,0.03357,-0.01587,0.13382,-0.03067,-0.02365,0.00885,-0.03754
3.366,0.19775,-0.06943,-0.00824,0.49576,-0.02991,-0.04929,-0.00427,0.00809,-0.03494,0.01266,-0.02609,0.00366,-0.03021,-0.02594,0.00885,-0.03647
3.3665,0.20203,-0.0856,-0.01114,0.55267,-0.03189,-0.05081,-0.00351,0.009,-0.02151,-0.01923,-0.02853,-0.19592,-0.03067,-0.02594,0.01038,-0.03494
3.367,0.21881,-0.10483,-0.00992,0.30716,-0.0322,-0.05219,-0.00595,0.00809,-0.00702,-0.05859,-0.02289,-0.35416,-0.03113,-0.02274,0.01251,-0.03479
3.3675,0.22827,-0.12756,0.00458,0.01968,-0.03128,-0.05203,-0.01022,0.00473,-0.00473,-0.1059,-0.01495,-0.40619,-0.02991,-0.01724,0.01495,-0.03571
3.368,0.22781,-0.15182,0.03159,-0.04288,-0.03265,-0.05096,-0.0145,0.00183,-0.00458,-0.16251,-0.01572,-0.38574,-0.02808,-0.01251,0.02014,-0.03357
3.3685,0.23331,-0.17838,0.07065,0.11368,-0.03433,-0.05249,-0.01694,-0.00168,-0.00107,-0.22522,-0.02579,-0.34012,-0.02655,-0.01175,0.02457,-0.02777
3.369,0.2507,-0.20416,0.12787,0.28793,-0.03662,-0.05478,-0.01953,-0.0029,-0.01038,-0.27832,-0.03616,-0.23743,-0.0264,-0.01328,0.02808,-0.02243
3.3695,0.2713,-0.2211,0.2092,0.3418,-0.03906,-0.05768,-0.02045,-0.00336,-0.04242,-0.31021,-0.03525,-0.01465,-0.02777,-0.01617,0.02716,-0.02228
3.37,0.28,-0.22476,0.27893,0.29129,-0.04074,-0.05844,-0.01892,-0.00092,-0.07736,-0.32181,-0.02167,0.26825,-0.03021,-0.02014,0.02304,-0.02838
3.3705,0.26428,-0.22186,0.29343,0.21378,-0.04089,-0.05737,-0.01495,0.00381,-0.08392,-0.32028,-0.00076,0.43213,-0.03387,-0.02396,0.01663,-0.03845
3.371,0.22217,-0.22491,0.2507,0.15732,-0.04105,-0.05676,-0.01221,0.00931,-0.0563,-0.30716,0.0235,0.37598,-0.03906,-0.02625,0.01068,-0.04898
3.3715,0.17212,-0.24323,0.18631,0.12161,-0.0412,-0.05722,-0.00977,0.01389,-0.01633,-0.27267,0.05081,0.21042,-0.04288,-0.02747,0.00595,-0.05554
3.372,0.13809,-0.27069,0.12177,0.08499,-0.04166,-0.05844,-0.00732,0.01526,0.00534,-0.21011,0.07645,0.1033,-0.04608,-0.02869,0.00153,-0.05753
3.3725,0.12939,-0.29205,0.05936,0.0116,-0.04196,-0.05997,-0.00763,0.01297,-0.00702,-0.11993,0.09277,0.06866,-0.04852,-0.03098,-0.00198,-0.05585
3.373,0.1326,-0.28351,-0.00076,-0.10345,-0.04135,-0.06119,-0.01129,0.0058,-0.0441,-0.01297,0.09506,0.03952,-0.04959,-0.0322,-0.00412,-0.0528
3.3735,0.13016,-0.23193,-0.05127,-0.18829,-0.04074,-0.06149,-0.01694,-0.00381,-0.08347,0.10269,0.08255,0.02228,-0.04852,-0.0325,-0.00305,-0.05096
3.374,0.12268,-0.14542,-0.08591,-0.15503,-0.04196,-0.06027,-0.0209,-0.01144,-0.11734,0.20981,0.06363,0.03891,-0.04654,-0.03174,-0.00031,-0.04959
3.3745,0.11581,-0.05112,-0.09232,-0.03998,-0.04196,-0.0592,-0.02274,-0.01465,-0.15289,0.28625,0.04288,0.00885,-0.04532,-0.03235,0.00244,-0.0502
3.375,0.11093,0.02594,-0.05173,0.01221,-0.04028,-0.05646,-0.02518,-0.01495,-0.19241,0.31342,0.02243,-0.15625,-0.04425,-0.03296,0.00549,-0.0502
3.3755,0.10239,0.07965,0.02594,-0.06378,-0.0386,-0.05524,-0.0264,-0.01343,-0.21652,0.29633,0.00427,-0.38666,-0.0441,-0.03235,0.00824,-0.04745
3.376,0.08865,0.11215,0.09262,-0.17303,-0.03723,-0.05554,-0.02686,-0.01129,-0.20721,0.2562,-0.00458,-0.4863,-0.04303,-0.02991,0.009,-0.04227
3.3765,0.07446,0.12665,0.09537,-0.21912,-0.03677,-0.05646,-0.02502,-0.00946,-0.17349,0.21393,-0.00305,-0.34698,-0.03952,-0.02655,0.00916,-0.03784
3.377,0.06638,0.12299,0.03204,-0.23788,-0.03525,-0.0563,-0.02304,-0.00961,-0.13718,0.18097,-0.00198,-0.06409,-0.03632,-0.02228,0.00809,-0.0354
3.3775,0.0679,0.10818,-0.04944,-0.30914,-0.03372,-0.05569,-0.02243,-0.01221,-0.10559,0.16251,-0.009,0.14053,-0.03433,-0.01801,0.00809,-0.03555
3.378,0.07401,0.08636,-0.09995,-0.40878,-0.03189,-0.05463,-0.02487,-0.01434,-0.07248,0.16006,-0.00946,0.1152,-0.03464,-0.01526,0.00671,-0.03616
3.3785,0.0766,0.06012,-0.11826,-0.43335,-0.0296,-0.05417,-0.02701,-0.01373,-0.04074,0.16678,0.01221,-0.06927,-0.03418,-0.01434,0.00732,-0.03799
3.379,0.07294,0.0296,-0.1387,-0.327,-0.0264,-0.05341,-0.02716,-0.01007,-0.01862,0.17624,0.04868,-0.16083,-0.03265,-0.01312,0.00778,-0.04105
3.3795,0.06561,-0.00336,-0.18967,-0.12177,-0.0235,-0.05173,-0.0235,-0.00702,-0.00458,0.18082,0.06943,0.02869,-0.03006,-0.01144,0.00809,-0.04379
3.38,0.06058,-0.03555,-0.26154,0.10284,-0.02182,-0.05081,-0.02029,-0.00519,0.00992,0.16876,0.05447,0.38132,-0.02731,-0.01114,0.00748,-0.04471
3.3805,0.06134,-0.0647,-0.32578,0.24429,-0.02304,-0.05127,-0.01999,-0.0058,0.02655,0.13046,0.0206,0.54352,-0.02457,-0.0116,0.00732,-0.0441
3.381,0.06454,-0.08682,-0.36087,0.22537,-0.02655,-0.05173,-0.02106,-0.00626,0.03845,0.06989,-0.00366,0.32349,-0.02441,-0.01236,0.00732,-0.04333
3.3815,0.06454,-0.09766,-0.36423,0.08911,-0.02823,-0.0499,-0.02106,-0.00519,0.04105,0.00519,-0.01144,-0.07065,-0.02548,-0.01282,0.00854,-0.04349
3.382,0.05798,-0.09872,-0.34668,-0.01785,-0.02808,-0.04837,-0.01938,-0.00412,0.03693,-0.04807,-0.01831,-0.29694,-0.02792,-0.01434,0.00854,-0.0441
3.3825,0.04608,-0.09323,-0.32364,-0.00717,-0.0267,-0.04868,-0.01831,-0.00397,0.03235,-0.0853,-0.03738,-0.2742,-0.02975,-0.01633,0.00717,-0.04593
3.383,0.03555,-0.08301,-0.29999,0.065,-0.02747,-0.04868,-0.01694,-0.00336,0.03098,-0.11047,-0.06317,-0.1561,-0.03082,-0.01831,0.00534,-0.047
3.3835,0.02884,-0.07202,-0.27328,0.08881,-0.02701,-0.04974,-0.01633,-0.00168,0.03189,-0.12955,-0.08179,-0.06622,-0.03128,-0.01907,0.00565,-0.04578
3.384,0.02228,-0.06531,-0.23972,0.02075,-0.02701,-0.04959,-0.01663,0.00031,0.03296,-0.14526,-0.08743,0.01007,-0.03021,-0.01785,0.01129,-0.03967
3.3845,0.0119,-0.06607,-0.19348,-0.09003,-0.02853,-0.04776,-0.01709,0.00031,0.03555,-0.15549,-0.08453,0.13992,-0.0293,-0.0174,0.01663,-0.03265
3.385,-0.00015,-0.07355,-0.13702,-0.17288,-0.02899,-0.04547,-0.01587,0.00092,0.04135,-0.15533,-0.07904,0.32684,-0.02991,-0.01801,0.0174,-0.03098
3.3855,-0.00885,-0.08865,-0.07843,-0.19073,-0.02869,-0.04379,-0.01205,0.0032,0.05142,-0.14664,-0.06882,0.44464,-0.02991,-0.01938,0.01221,-0.0354
3.386,-0.01526,-0.11078,-0.0264,-0.1239,-0.02655,-0.04242,-0.00854,0.0061,0.06134,-0.13367,-0.05508,0.35095,-0.02869,-0.01984,0.00656,-0.04135
3.3865,-0.03021,-0.13275,0.01389,0.07019,-0.02502,-0.04196,-0.00702,0.00702,0.06546,-0.1207,-0.04013,0.08224,-0.02762,-0.01953,0.00305,-0.04562
3.387,-0.05905,-0.14465,0.04059,0.37735,-0.02579,-0.04196,-0.00763,0.00458,0.06042,-0.10315,-0.03098,-0.14404,-0.02792,-0.01846,0.00107,-0.04883
3.3875,-0.09399,-0.14542,0.05127,0.60486,-0.02563,-0.0412,-0.00824,0.00229,0.04471,-0.07339,-0.03082,-0.15656,-0.02777,-0.01648,0.00031,-0.05249
3.388,-0.11993,-0.13702,0.04684,0.51636,-0.02594,-0.04028,-0.00961,0.00168,0.01846,-0.03296,-0.03738,0.0058,-0.02716,-0.01404,0.00092,-0.05325
3.3885,-0.13214,-0.12299,0.03845,0.14297,-0.02518,-0.03998,-0.01129,0.00107,-0.01114,0.00565,-0.04883,0.15945,-0.02609,-0.01144,0.00275,-0.0502
3.389,-0.13733,-0.10437,0.03616,-0.21454,-0.02533,-0.04074,-0.01266,-0.00092,-0.0235,0.03464,-0.05768,0.1535,-0.02594,-0.01022,0.00412,-0.04425
3.3895,-0.14252,-0.08591,0.0473,-0.34103,-0.02518,-0.04028,-0.01312,-0.00244,0.00244,0.04715,-0.05829,-0.0322,-0.02487,-0.009,0.00351,-0.03967
3.39,-0.15137,-0.07202,0.07843,-0.29205,-0.02563,-0.04059,-0.01404,-0.00244,0.05981,0.0412,-0.05005,-0.28351,-0.02502,-0.00687,0.00595,-0.0386
3.3905,-0.16022,-0.06485,0.15274,-0.19958,-0.0267,-0.04059,-0.01556,-0.00168,0.11139,0.01495,-0.04166,-0.40771,-0.02548,-0.00534,0.01007,-0.03983
3.391,-0.16586,-0.0618,0.27527,-0.06836,-0.02838,-0.04196,-0.01556,-0.00153,0.12589,-0.0293,-0.04333,-0.25558,-0.02625,-0.00641,0.01343,-0.03799
3.3915,-0.168,-0.06393,0.38208,0.16617,-0.03021,-0.0415,-0.01343,-0.00122,0.1004,-0.0882,-0.05081,0.11475,-0.02609,-0.009,0.01511,-0.03448
3.392,-0.16785,-0.06821,0.37888,0.46219,-0.03143,-0.04272,-0.01083,-0.00168,0.04822,-0.15289,-0.05402,0.44952,-0.02594,-0.0119,0.01495,-0.03372
3.3925,-0.16937,-0.06805,0.25253,0.6366,-0.03265,-0.04318,-0.00763,-0.00168,-0.0206,-0.21347,-0.05142,0.51498,-0.02716,-0.01251,0.01602,-0.03708
3.393,-0.1741,-0.0563,0.09979,0.55069,-0.03403,-0.04547,-0.00549,0.0,-0.10178,-0.2626,-0.05081,0.28366,-0.02914,-0.0148,0.0148,-0.04135
3.3935,-0.18158,-0.03815,0.01968,0.29175,-0.03494,-0.04761,-0.00519,0.00183,-0.17059,-0.29495,-0.05585,-0.08636,-0.03174,-0.01877,0.01144,-0.0441
3.394,-0.1889,-0.02167,0.00931,0.0943,-0.03555,-0.05051,-0.00595,0.00259,-0.18661,-0.29877,-0.0592,-0.39352,-0.03342,-0.02121,0.00732,-0.04745
3.3945,-0.19058,-0.00702,-0.00092,0.07034,-0.03647,-0.05325,-0.00671,0.00122,-0.14008,-0.26443,-0.05081,-0.49896,-0.03418,-0.02121,0.00549,-0.05234
3.395,-0.1889,0.00992,-0.047,0.10559,-0.0383,-0.05524,-0.00717,0.00076,-0.07462,-0.19211,-0.0267,-0.3775,-0.03296,-0.02197,0.00504,-0.05447
3.3955,-0.18768,0.02289,-0.10376,0.05905,-0.03891,-0.0563,-0.00824,-0.00046,-0.03632,-0.09872,0.00122,-0.14816,-0.03342,-0.02441,0.00427,-0.0528
3.396,-0.1889,0.01602,-0.13779,-0.05722,-0.04013,-0.05722,-0.00961,-0.00244,-0.02609,-0.00778,0.01541,0.00687,-0.03296,-0.0264,0.0032,-0.04745
3.3965,-0.19394,-0.01617,-0.14893,-0.13412,-0.03937,-0.05783,-0.01007,-0.00381,-0.02075,0.0647,0.01205,0.02365,-0.03265,-0.02579,0.00092,-0.0441
3.397,-0.19775,-0.06104,-0.1564,-0.13046,-0.03876,-0.0592,-0.01007,-0.00366,-0.01266,0.11398,0.00244,-0.01175,-0.03235,-0.02472,0.00107,-0.04395
3.3975,-0.19791,-0.10208,-0.16296,-0.11856,-0.0383,-0.06027,-0.01022,-0.00427,-0.00824,0.14252,-0.00565,-0.02121,-0.03326,-0.02487,0.00275,-0.04532
3.398,-0.19272,-0.13535,-0.15579,-0.19867,-0.03922,-0.06058,-0.0119,-0.00717,-0.00977,0.15686,-0.01419,-0.03052,-0.03372,-0.02625,0.00275,-0.04486
3.3985,-0.18677,-0.15808,-0.12924,-0.38422,-0.03967,-0.06027,-0.01434,-0.01083,-0.00824,0.16586,-0.02151,-0.07492,-0.03204,-0.02548,0.00229,-0.04288
3.399,-0.1828,-0.15488,-0.10239,-0.58609,-0.03906,-0.0592,-0.01648,-0.01251,0.0058,0.17609,-0.01785,-0.12131,-0.02716,-0.0209,0.0029,-0.03906
3.3995,-0.18158,-0.11841,-0.10223,-0.6958,-0.03708,-0.05768,-0.01709,-0.009,0.02579,0.19135,0.00183,-0.13428,-0.02213,-0.0148,0.00656,-0.03555
3.4,-0.17883,-0.06393,-0.13336,-0.66696,-0.03632,-0.05569,-0.01526,-0.00427,0.03372,0.20416,0.0235,-0.13855,-0.01892,-0.01114,0.009,-0.03326
3.4005,-0.17059,-0.01419,-0.17242,-0.50262,-0.03662,-0.05371,-0.01389,-0.00168,0.02075,0.20401,0.03143,-0.16968,-0.01953,-0.01068,0.00946,-0.03281
3.401,-0.15656,0.02411,-0.18997,-0.21683,-0.03601,-0.05035,-0.01526,-0.00244,-0.0029,0.19272,0.02426,-0.21088,-0.02213,-0.01434,0.00763,-0.03281
3.4015,-0.14297,0.05692,-0.17914,0.15381,-0.03357,-0.04745,-0.01938,-0.00488,-0.02258,0.17151,0.01465,-0.23407,-0.02487,-0.01801,0.00931,-0.03174
3.402,-0.13214,0.09079,-0.15244,0.46265,-0.03174,-0.04501,-0.02197,-0.00763,-0.03342,0.14099,0.00412,-0.20508,-0.02609,-0.02106,0.01419,-0.03006
3.4025,-0.12299,0.12543,-0.12527,0.47684,-0.03128,-0.0415,-0.02136,-0.00931,-0.03494,0.0975,-0.0061,-0.0473,-0.0264,-0.02136,0.01953,-0.0264
3.403,-0.1123,0.15778,-0.10193,0.14389,-0.03098,-0.04074,-0.01877,-0.00916,-0.02869,0.04822,-0.00946,0.24536,-0.02594,-0.01999,0.01968,-0.02335
3.4035,-0.09903,0.18417,-0.08347,-0.24002,-0.03021,-0.0412,-0.01892,-0.00824,-0.01648,0.00198,-0.00305,0.49484,-0.02686,-0.01923,0.01678,-0.02335
3.404,-0.08636,0.19485,-0.06699,-0.32333,-0.0293,-0.04272,-0.02014,-0.00565,-0.0032,-0.03967,0.00336,0.52887,-0.02884,-0.01938,0.01251,-0.02792
3.4045,-0.07675,0.18326,-0.05493,-0.11017,-0.02808,-0.04425,-0.0209,-0.0029,0.00534,-0.07431,-0.00626,0.38971,-0.03098,-0.02045,0.00946,-0.03601
3.405,-0.06882,0.15778,-0.047,0.09445,-0.02716,-0.04517,-0.01968,-0.00061,0.009,-0.09964,-0.03372,0.23514,-0.03296,-0.01953,0.00565,-0.0444
3.4055,-0.05783,0.13275,-0.04578,0.08698,-0.02594,-0.04578,-0.0177,0.00015,0.01007,-0.11154,-0.06638,0.13153,-0.03525,-0.01633,0.00336,-0.04974
3.406,-0.04074,0.11429,-0.04532,-0.05432,-0.02441,-0.0444,-0.01587,-0.00122,0.01328,-0.11139,-0.09567,0.0621,-0.03799,-0.01175,0.00275,-0.05035
3.4065,-0.01968,0.09628,-0.03372,-0.1532,-0.02304,-0.04135,-0.01602,-0.00534,0.01907,-0.09903,-0.11719,0.01846,-0.0386,-0.01083,0.00549,-0.04745
3.407,0.00046,0.07507,-0.01358,-0.1445,-0.0235,-0.03876,-0.0174,-0.00809,0.0206,-0.07355,-0.11871,0.00427,-0.03876,-0.01358,0.00885,-0.04364
3.4075,0.01724,0.0589,0.00641,-0.07309,-0.02396,-0.03662,-0.01862,-0.00854,0.01312,-0.03937,-0.0827,0.00427,-0.03906,-0.01862,0.00992,-0.04196
3.408,0.03006,0.05493,0.01862,0.00992,-0.0235,-0.03754,-0.01709,-0.00565,-0.00305,-0.00702,-0.02075,0.01511,-0.04105,-0.02182,0.00809,-0.04395
3.4085,0.04105,0.05341,0.02289,0.08438,-0.02228,-0.03891,-0.01389,-0.00168,-0.02441,0.01297,0.02182,0.0499,-0.04333,-0.02335,0.00656,-0.04868
3.409,0.05112,0.04135,0.03433,0.1387,-0.02151,-0.03983,-0.01053,0.0,-0.04684,0.02029,0.01312,0.09903,-0.04395,-0.02396,0.00488,-0.05264
3.4095,0.05966,0.01404,0.07645,0.15488,-0.02335,-0.03952,-0.00946,0.00061,-0.0618,0.01648,-0.02823,0.11902,-0.0415,-0.02411,0.00244,-0.05447
3.41,0.06332,-0.01877,0.14969,0.12756,-0.02686,-0.03967,-0.01053,0.00137,-0.06393,0.00626,-0.06317,0.09399,-0.0386,-0.02335,0.00153,-0.05234
3.4105,0.06439,-0.04959,0.20386,0.07889,-0.02945,-0.04135,-0.0145,0.00046,-0.0528,-0.00504,-0.07736,0.0528,-0.03738,-0.0206,0.00214,-0.04898
3.411,0.06302,-0.07523,0.19196,0.04822,-0.02914,-0.04517,-0.01709,-0.00336,-0.03036,-0.0174,-0.08194,0.01114,-0.03815,-0.01831,0.0029,-0.04562
3.4115,0.06226,-0.09338,0.12009,0.05432,-0.02899,-0.04898,-0.01892,-0.00824,-0.00275,-0.03525,-0.0798,-0.05615,-0.04135,-0.01694,0.00427,-0.04501
3.412,0.06256,-0.10208,0.04105,0.07568,-0.02991,-0.04898,-0.01953,-0.01083,0.0174,-0.06195,-0.05951,-0.15976,-0.04425,-0.01663,0.00702,-0.04456
3.4125,0.065,-0.10101,-0.00763,0.06897,-0.03098,-0.04852,-0.01953,-0.01068,0.02182,-0.09521,-0.01694,-0.23209,-0.04486,-0.0174,0.01007,-0.04318
3.413,0.06927,-0.09293,-0.03265,0.02518,-0.03113,-0.04883,-0.01923,-0.00824,0.01007,-0.12924,0.03708,-0.16479,-0.04318,-0.01801,0.01129,-0.04135
3.4135,0.07248,-0.08438,-0.05936,-0.02045,-0.03052,-0.0502,-0.0174,-0.00671,-0.01236,-0.14984,0.09048,0.05447,-0.04013,-0.0174,0.01038,-0.0415
3.414,0.07385,-0.07843,-0.09567,-0.03448,-0.03021,-0.05127,-0.01404,-0.00549,-0.02274,-0.15228,0.13596,0.26978,-0.03754,-0.01602,0.00778,-0.04257
3.4145,0.07553,-0.07553,-0.13245,-0.01862,-0.03052,-0.05096,-0.0116,-0.00458,-0.00046,-0.14053,0.16418,0.29602,-0.03525,-0.01572,0.00549,-0.04211
3.415,0.07843,-0.0705,-0.15884,0.00153,-0.0322,-0.05127,-0.01205,-0.00305,0.04501,-0.1265,0.16556,0.11597,-0.03387,-0.01846,0.00473,-0.03998
3.4155,0.08011,-0.05936,-0.17044,0.00671,-0.03479,-0.05188,-0.01389,-0.00046,0.07385,-0.11444,0.14801,-0.11627,-0.03281,-0.02136,0.00504,-0.03815
3.416,0.07813,-0.04868,-0.16785,-0.01038,-0.03601,-0.05219,-0.01358,0.00061,0.05981,-0.09933,0.121,-0.23209,-0.02884,-0.02213,0.00519,-0.03922
3.4165,0.07126,-0.05249,-0.15305,-0.04349,-0.03571,-0.05173,-0.01144,0.00076,0.01907,-0.08072,0.08102,-0.1886,-0.02258,-0.02029,0.00412,-0.04318
3.417,0.06363,-0.0795,-0.13275,-0.07217,-0.03342,-0.05203,-0.00717,0.00061,-0.01892,-0.06989,0.02365,-0.08041,-0.0174,-0.01862,0.00244,-0.04608
3.4175,0.05814,-0.12009,-0.11185,-0.06683,-0.03311,-0.05096,-0.00595,0.00092,-0.04181,-0.07126,-0.03937,-0.03296,-0.01572,-0.01923,0.00397,-0.04623
3.418,0.05524,-0.15717,-0.09308,-0.01068,-0.03372,-0.04913,-0.00763,0.00061,-0.05692,-0.07736,-0.08514,-0.08194,-0.01724,-0.02045,0.00702,-0.04318
3.4185,0.0528,-0.17792,-0.08072,0.09888,-0.03387,-0.04715,-0.01022,0.00046,-0.06912,-0.07675,-0.10269,-0.17197,-0.01984,-0.02075,0.01129,-0.03799
3.419,0.05142,-0.18127,-0.07492,0.22766,-0.03281,-0.04684,-0.01282,-0.00061,-0.07309,-0.07629,-0.10117,-0.22537,-0.0177,-0.01953,0.01602,-0.03189
3.4195,0.05173,-0.17303,-0.05661,0.28183,-0.03189,-0.04745,-0.0145,-0.00046,-0.06149,-0.09445,-0.09842,-0.17365,-0.0116,-0.01953,0.01862,-0.02762
3.42,0.05081,-0.16815,-0.01526,0.18173,-0.03235,-0.0502,-0.01419,0.00137,-0.03799,-0.12665,-0.10132,0.02594,-0.00824,-0.02014,0.01953,-0.02655
3.4205,0.04532,-0.17914,0.03876,-0.00854,-0.03464,-0.05264,-0.01358,0.00259,-0.02228,-0.15411,-0.10742,0.28275,-0.01083,-0.02045,0.01785,-0.02823
3.421,0.03754,-0.20477,0.08484,-0.12192,-0.03525,-0.05356,-0.01556,0.00031,-0.0235,-0.16617,-0.11108,0.32471,-0.01801,-0.02136,0.01373,-0.03098
3.4215,0.02808,-0.22751,0.11307,-0.08728,-0.03525,-0.05417,-0.01938,-0.00275,-0.03479,-0.16464,-0.11093,-0.03403,-0.02579,-0.02289,0.00961,-0.03525
3.422,0.02151,-0.23346,0.12283,0.00122,-0.03418,-0.05539,-0.02121,-0.00488,-0.04456,-0.15686,-0.10773,-0.55817,-0.03296,-0.02533,0.00778,-0.04135
3.4225,0.01602,-0.22522,0.11566,0.03983,-0.03387,-0.0563,-0.01831,-0.00458,-0.0502,-0.1474,-0.09781,-0.76752,-0.03754,-0.02777,0.00763,-0.047
3.423,0.0145,-0.2037,0.10696,0.05783,-0.03418,-0.05676,-0.0145,-0.00229,-0.05417,-0.14084,-0.08087,-0.46158,-0.0412,-0.02853,0.00732,-0.0499
3.4235,0.0177,-0.15991,0.11703,0.14709,-0.0354,-0.05707,-0.01312,-0.00076,-0.06042,-0.13962,-0.06134,0.07965,-0.04562,-0.0296,0.00595,-0.05142
3.424,0.02533,-0.09109,0.13641,0.31616,-0.03662,-0.05768,-0.01495,-0.00031,-0.06775,-0.1355,-0.05112,0.42572,-0.05234,-0.02991,0.00366,-0.05249
3.4245,0.03937,-0.01434,0.13977,0.46021,-0.03754,-0.05661,-0.01801,-0.00061,-0.07431,-0.1088,-0.05371,0.43655,-0.05707,-0.03067,0.00381,-0.05234
3.425,0.05753,0.04959,0.12161,0.46875,-0.03845,-0.05356,-0.01785,-0.00183,-0.08148,-0.04837,-0.05936,0.29236,-0.05829,-0.03159,0.00519,-0.05081
3.4255,0.07446,0.0914,0.09857,0.32684,-0.03769,-0.05096,-0.01541,-0.00259,-0.08606,0.04074,-0.05417,0.2005,-0.05661,-0.03174,0.0058,-0.04974
3.426,0.08377,0.1123,0.07675,0.11749,-0.03677,-0.04959,-0.0119,-0.00168,-0.0853,0.13672,-0.03799,0.17731,-0.05661,-0.03159,0.00366,-0.05051
3.4265,0.08759,0.11505,0.05066,-0.04395,-0.0351,-0.05051,-0.0087,0.00076,-0.07935,0.21484,-0.02365,0.13336,-0.06073,-0.0296,0.00168,-0.05066
3.427,0.08636,0.103,0.01984,-0.08347,-0.03403,-0.05142,-0.00732,0.00275,-0.07278,0.25864,-0.01648,0.0322,-0.06119,-0.02487,0.00336,-0.05066
3.4275,0.08163,0.0824,-0.00916,-0.05905,-0.03418,-0.05219,-0.0087,0.00366,-0.06943,0.2681,-0.0119,-0.07324,-0.05356,-0.01831,0.00839,-0.04807
3.428,0.0769,0.05814,-0.04822,-0.13596,-0.03571,-0.05005,-0.01144,0.00214,-0.06744,0.25116,-0.00031,-0.10117,-0.04089,-0.01175,0.01205,-0.0444
3.4285,0.07629,0.0325,-0.10773,-0.38956,-0.03616,-0.04807,-0.01419,-0.00092,-0.0621,0.2153,0.0177,-0.03494,-0.03159,-0.00854,0.01266,-0.04211
3.429,0.08102,0.00961,-0.17685,-0.68085,-0.03525,-0.04684,-0.01755,-0.00519,-0.0528,0.16937,0.03464,0.03891,-0.02975,-0.0087,0.01099,-0.04211
3.4295,0.08774,-0.01282,-0.22446,-0.83237,-0.03448,-0.04745,-0.01938,-0.01053,-0.04333,0.1265,0.04776,0.03326,-0.03143,-0.00702,0.00778,-0.04349
3.43,0.09171,-0.04318,-0.24429,-0.84076,-0.03326,-0.04974,-0.01938,-0.01465,-0.03632,0.09598,0.06058,-0.02151,-0.03311,-0.00641,0.0061,-0.04425
3.4305,0.09079,-0.08224,-0.25131,-0.81329,-0.03387,-0.05219,-0.01785,-0.01465,-0.03113,0.07828,0.07416,-0.03036,-0.03342,-0.00595,0.00351,-0.04456
3.431,0.08591,-0.11551,-0.26047,-0.78278,-0.03448,-0.05295,-0.01556,-0.01144,-0.0235,0.06927,0.07813,-0.00153,-0.0325,-0.0061,0.00275,-0.04395
3.4315,0.08011,-0.12283,-0.27039,-0.65063,-0.0351,-0.05081,-0.01221,-0.00732,-0.01236,0.06897,0.06012,-0.02411,-0.03067,-0.00641,0.00381,-0.0444
3.432,0.07385,-0.10254,-0.26352,-0.27924,-0.03448,-0.0473,-0.01038,-0.00458,-0.00153,0.08041,0.02029,-0.09506,-0.02823,-0.00473,0.00473,-0.0441
3.4325,0.06592,-0.06424,-0.22888,0.31479,-0.03281,-0.04364,-0.01129,-0.00519,0.00015,0.09827,-0.02121,-0.10147,-0.02899,-0.00275,0.0058,-0.04196
3.433,0.05722,-0.02121,-0.16403,0.80856,-0.03128,-0.04059,-0.01419,-0.00656,-0.00336,0.11642,-0.04303,0.00641,-0.0322,-0.00305,0.00977,-0.03784
3.4335,0.05112,0.01846,-0.08423,0.83389,-0.03098,-0.03723,-0.01617,-0.00854,0.0,0.1326,-0.0412,0.11093,-0.03464,-0.00519,0.01297,-0.03418
3.434,0.047,0.04623,-0.02686,0.42694,-0.03113,-0.03586,-0.01678,-0.01099,0.01938,0.14633,-0.02869,0.07538,-0.03616,-0.00854,0.0148,-0.0325
3.4345,0.04456,0.05814,-0.02014,0.01938,-0.0296,-0.03525,-0.01617,-0.01068,0.04745,0.15503,-0.01526,-0.05936,-0.03632,-0.01144,0.01343,-0.03448
3.435,0.04059,0.06088,-0.05554,-0.08804,-0.02884,-0.03708,-0.01572,-0.0087,0.07309,0.14801,-0.00366,-0.11902,-0.03372,-0.01083,0.01068,-0.03754
3.4355,0.03677,0.05554,-0.09109,-0.00473,-0.03128,-0.03815,-0.01511,-0.00656,0.08438,0.11932,0.01099,-0.03006,-0.02945,-0.01053,0.00885,-0.04089
3.436,0.03311,0.04578,-0.09445,0.03571,-0.03281,-0.03876,-0.01465,-0.0058,0.07751,0.07507,0.02609,0.08987,-0.02457,-0.01266,0.00931,-0.04288
3.4365,0.02792,0.03113,-0.07355,-0.00214,-0.03265,-0.04028,-0.01404,-0.00519,0.05829,0.02121,0.0386,0.11444,-0.0209,-0.01572,0.00977,-0.04501
3.437,0.01999,0.01251,-0.05219,-0.0145,-0.0325,-0.04379,-0.01434,-0.00626,0.0386,-0.04028,0.04959,0.05646,-0.01953,-0.0177,0.00809,-0.04517
3.4375,0.00748,-0.009,-0.0441,0.02884,-0.03296,-0.04745,-0.01419,-0.00473,0.02457,-0.10666,0.06042,0.0061,-0.01984,-0.01526,0.00687,-0.04456
3.438,-0.01007,-0.02655,-0.04425,0.06485,-0.03387,-0.0499,-0.01389,-0.00229,0.01877,-0.16525,0.07095,-0.01221,-0.02243,-0.01266,0.00687,-0.04288
3.4385,-0.03036,-0.03204,-0.04623,0.05417,-0.03479,-0.05112,-0.01389,-0.00092,0.02365,-0.2037,0.07736,-0.05127,-0.02548,-0.01297,0.00519,-0.04181
3.439,-0.04852,-0.02304,-0.04776,0.03616,-0.0351,-0.05173,-0.01526,-0.00015,0.04166,-0.21805,0.0766,-0.15472,-0.02625,-0.01587,0.00443,-0.04379
3.4395,-0.06027,-0.0087,-0.04593,0.05692,-0.03571,-0.05157,-0.0177,0.0,0.06271,-0.21378,0.06577,-0.27847,-0.02365,-0.0174,0.00534,-0.04654
3.44,-0.06516,0.0029,-0.03799,0.09766,-0.03799,-0.0502,-0.01816,0.00198,0.0705,-0.20111,0.04776,-0.30243,-0.02167,-0.01724,0.00641,-0.04807
3.4405,-0.06897,0.00793,-0.02365,0.09811,-0.03891,-0.0499,-0.01831,0.00214,0.06302,-0.18356,0.02625,-0.14038,-0.02304,-0.01694,0.0058,-0.04745
3.441,-0.06882,0.00961,-0.00961,0.05768,-0.03967,-0.05096,-0.01831,0.00031,0.05692,-0.16113,0.00595,0.14999,-0.02762,-0.01724,0.00443,-0.04684
3.4415,-0.06302,0.00458,-0.00092,0.05859,-0.03723,-0.05096,-0.01801,-0.00244,0.06699,-0.13718,-0.00961,0.383,-0.03265,-0.01755,0.00381,-0.04517
3.442,-0.05112,-0.01358,0.01007,0.12985,-0.03448,-0.04898,-0.01694,-0.00397,0.09125,-0.11093,-0.01801,0.4071,-0.03922,-0.01877,0.00519,-0.04288
3.4425,-0.03983,-0.04715,0.02792,0.15625,-0.03128,-0.0444,-0.01526,-0.00214,0.11108,-0.0853,-0.02029,0.23972,-0.0473,-0.02029,0.0087,-0.03952
3.443,-0.03448,-0.0882,0.04852,0.05356,-0.03021,-0.03876,-0.01526,0.00183,0.10986,-0.05127,-0.01999,0.02304,-0.04944,-0.02167,0.00946,-0.03647
3.4435,-0.03555,-0.12604,0.06516,-0.0618,-0.02991,-0.03464,-0.01694,0.00244,0.08072,-0.00015,-0.01923,-0.14465,-0.04395,-0.02426,0.00916,-0.03586
3.444,-0.0383,-0.15274,0.07294,-0.03036,-0.02899,-0.03296,-0.01892,-0.00183,0.0209,0.06149,-0.02609,-0.26093,-0.03326,-0.02777,0.00961,-0.03403
3.4445,-0.03998,-0.16525,0.06516,0.08118,-0.02838,-0.03479,-0.02045,-0.00961,-0.07034,0.11703,-0.04044,-0.30869,-0.02548,-0.03098,0.01358,-0.03067
3.445,-0.04013,-0.16479,0.04578,0.05447,-0.03006,-0.03815,-0.02121,-0.01709,-0.17868,0.15244,-0.0499,-0.21759,-0.0235,-0.03159,0.01862,-0.02579
3.4455,-0.04486,-0.15701,0.0296,-0.15549,-0.03113,-0.04074,-0.02213,-0.02106,-0.27435,0.16663,-0.04135,-0.00595,-0.0238,-0.02975,0.0206,-0.02121
3.446,-0.0592,-0.14633,0.02792,-0.34592,-0.03265,-0.04318,-0.02304,-0.02106,-0.31815,0.16479,-0.0174,0.15152,-0.0264,-0.0267,0.01953,-0.0209
