time,RectFemL,VastusMedL,VastusLatL,TibAntL,HamMedL,HamLatL,GastroMedL,GastroLatL,RectFemR,VastusMedR,VastusLatR,TibAntR,HamMedR,HamLatR,GastroMedR,GastroLatR
6.59,-0.00626,-0.00778,-0.05829,0.03723,0.20828,-0.02914,-0.01663,-0.00305,-0.03113,-0.04425,-0.0589,0.54367,-0.04471,-0.03098,0.01831,0.17883
6.5905,-0.02197,0.00656,-0.03693,0.00839,0.17715,-0.03082,-0.01633,-0.00305,-0.03601,-0.03906,-0.05447,0.60989,-0.04517,-0.03418,0.01968,0.15228
6.591,-0.0383,0.01495,0.00565,-0.05829,0.10361,-0.03357,-0.01404,-0.00351,-0.03647,-0.03662,-0.03891,0.32379,-0.04593,-0.03571,0.01968,0.05966
6.5915,-0.05325,0.01495,0.05112,-0.12604,0.01953,-0.03601,-0.01129,-0.00412,-0.03723,-0.0412,-0.0238,-0.05417,-0.04654,-0.03403,0.01892,-0.01434
6.592,-0.06805,0.01022,0.06424,-0.13855,-0.04669,-0.04074,-0.00992,-0.0032,-0.04272,-0.05142,-0.02502,-0.20065,-0.04639,-0.03113,0.01404,-0.02457
6.5925,-0.08316,0.00397,0.03189,-0.06516,-0.07919,-0.04593,-0.01007,-0.00031,-0.05081,-0.06485,-0.04364,-0.08682,-0.04623,-0.02899,0.00397,-0.00351
6.593,-0.0946,-0.00137,-0.01602,0.05722,-0.09033,-0.05112,-0.01022,0.00397,-0.05661,-0.07843,-0.0618,0.04684,-0.04532,-0.02747,-0.01251,0.00549
6.5935,-0.09735,-0.00748,-0.04822,0.1564,-0.11551,-0.05508,-0.0087,0.00687,-0.05676,-0.09186,-0.05936,0.01923,-0.04242,-0.02502,-0.0296,0.00015
6.594,-0.09506,-0.01801,-0.06195,0.20203,-0.18997,-0.05997,-0.00687,0.00916,-0.05554,-0.10254,-0.03647,-0.09674,-0.03876,-0.02228,-0.03387,-0.00046
6.5945,-0.0975,-0.03616,-0.06699,0.2182,-0.29709,-0.06729,-0.00504,0.01221,-0.05524,-0.10849,-0.00778,-0.1178,-0.03387,-0.01694,-0.02228,0.00946
6.595,-0.11215,-0.05844,-0.06699,0.22522,-0.35309,-0.07492,-0.00504,0.01419,-0.05554,-0.10468,0.00671,-0.00275,-0.02945,-0.01022,-0.01785,0.01999
6.5955,-0.13596,-0.07797,-0.06561,0.2121,-0.30182,-0.08072,-0.00732,0.01297,-0.05219,-0.0882,0.00305,0.12863,-0.02487,-0.00351,-0.03906,0.02213
6.596,-0.16113,-0.08713,-0.07126,0.16388,-0.17548,-0.07996,-0.01038,0.00885,-0.04486,-0.05875,-0.01083,0.17059,-0.0206,0.00168,-0.05661,0.01694
6.5965,-0.18158,-0.08652,-0.08179,0.10269,-0.06989,-0.07614,-0.01007,0.00717,-0.03601,-0.02365,-0.02502,0.13611,-0.01709,0.00305,-0.02197,0.00504
6.597,-0.19409,-0.08026,-0.08057,0.06958,-0.04669,-0.07156,-0.00641,0.01053,-0.02563,0.00534,-0.03967,0.09048,-0.01663,0.00107,0.04852,-0.01663
6.5975,-0.19836,-0.07492,-0.05676,0.06073,-0.06485,-0.06439,-0.00305,0.01678,-0.01343,0.02106,-0.05508,0.0618,-0.01831,-0.00244,0.08194,-0.06256
6.598,-0.19867,-0.06805,-0.02426,0.02274,-0.07538,-0.0531,-0.00259,0.02228,-0.00076,0.02136,-0.0679,0.047,-0.01923,-0.00626,0.05798,-0.13351
6.5985,-0.20065,-0.0589,-0.01038,-0.06836,-0.07431,-0.04196,-0.0058,0.02411,0.009,0.01389,-0.06958,0.03433,-0.01801,-0.00824,0.05051,-0.20737
6.599,-0.20798,-0.05035,-0.01953,-0.17273,-0.07645,-0.03769,-0.01068,0.0235,0.01617,0.00031,-0.05585,0.0177,-0.01419,-0.00809,0.10864,-0.25253
6.5995,-0.21896,-0.0473,-0.03479,-0.23926,-0.07858,-0.03738,-0.01572,0.02045,0.02151,-0.01556,-0.02991,-0.00168,-0.00961,-0.00702,0.16525,-0.2478
6.6,-0.22614,-0.04974,-0.03754,-0.26642,-0.06775,-0.03647,-0.01968,0.0148,0.02609,-0.02686,0.00214,-0.02533,-0.00214,-0.00671,0.1416,-0.18814
6.6005,-0.22827,-0.05295,-0.03311,-0.30319,-0.0386,-0.03586,-0.02274,0.00641,0.02869,-0.02655,0.02975,-0.05737,0.00763,-0.00793,0.07065,-0.08392
6.601,-0.22568,-0.05447,-0.0351,-0.38925,-0.00748,-0.03784,-0.02533,-0.00275,0.02945,-0.01083,0.03616,-0.08499,0.01999,-0.00992,0.02625,0.03555
6.6015,-0.21988,-0.05798,-0.04471,-0.504,0.00397,-0.0415,-0.02701,-0.01022,0.03387,0.01923,0.01419,-0.07629,0.02914,-0.01312,0.01617,0.11658
6.602,-0.21057,-0.06699,-0.05157,-0.58365,0.00687,-0.04242,-0.02579,-0.01419,0.04211,0.05203,-0.02121,-0.01221,0.03189,-0.01633,0.00717,0.11032
6.6025,-0.19943,-0.07782,-0.05219,-0.5899,0.00671,-0.03769,-0.02289,-0.01389,0.05157,0.07523,-0.04547,0.08881,0.02289,-0.01709,-0.00885,0.02258
6.603,-0.19089,-0.0827,-0.05295,-0.53802,0.00473,-0.0325,-0.01923,-0.0116,0.05692,0.08209,-0.05142,0.18326,0.00504,-0.01633,-0.01129,-0.07248
6.6035,-0.18738,-0.07889,-0.05005,-0.45578,0.0,-0.03082,-0.01801,-0.00931,0.05951,0.07751,-0.04715,0.21286,-0.01678,-0.01526,0.00015,-0.10864
6.604,-0.18524,-0.06851,-0.0296,-0.36346,-0.00458,-0.03281,-0.01831,-0.00885,0.06027,0.07156,-0.04074,0.12146,-0.03571,-0.0148,0.00397,-0.09125
6.6045,-0.17868,-0.05905,0.01968,-0.28061,-0.00305,-0.03464,-0.01877,-0.0058,0.0589,0.06622,-0.03403,-0.06485,-0.04944,-0.01419,-0.00961,-0.06958
6.605,-0.17044,-0.05478,0.06943,-0.17944,-0.00153,-0.03662,-0.01816,0.00122,0.05219,0.05295,-0.02945,-0.21317,-0.05997,-0.01251,-0.02975,-0.07126
6.6055,-0.16495,-0.05798,0.07843,0.02182,-0.01312,-0.04028,-0.01678,0.01312,0.03876,0.03021,-0.02518,-0.20859,-0.0708,-0.01236,-0.03876,-0.08148
6.606,-0.16418,-0.06256,0.02426,0.31387,-0.04257,-0.04501,-0.01434,0.02655,0.02136,0.00229,-0.01129,-0.07187,-0.08301,-0.01526,-0.03235,-0.07965
6.6065,-0.16479,-0.06821,-0.06302,0.48386,-0.06317,-0.04944,-0.01404,0.03479,0.00137,-0.01633,0.0116,0.06149,-0.08896,-0.01846,-0.01892,-0.06577
6.607,-0.16693,-0.07584,-0.12634,0.32898,-0.05905,-0.05051,-0.01495,0.03128,-0.01801,-0.02594,0.02777,0.08347,-0.08316,-0.02106,-0.00839,-0.05295
6.6075,-0.17319,-0.08667,-0.14084,-0.04761,-0.05157,-0.05081,-0.01587,0.01434,-0.03677,-0.03326,0.02594,0.0061,-0.07141,-0.02304,-0.00458,-0.04974
6.608,-0.18021,-0.08835,-0.12039,-0.32608,-0.05707,-0.05157,-0.01785,-0.0119,-0.05219,-0.03937,0.01495,-0.09155,-0.06027,-0.02335,-0.0061,-0.05325
6.6085,-0.18463,-0.07294,-0.08972,-0.34973,-0.06577,-0.05524,-0.01877,-0.03815,-0.05966,-0.0441,0.00763,-0.14313,-0.05295,-0.02396,-0.01175,-0.05692
6.609,-0.18677,-0.04501,-0.06516,-0.23788,-0.05569,-0.06165,-0.01678,-0.04852,-0.05844,-0.04807,0.00763,-0.13016,-0.0499,-0.02258,-0.01648,-0.0589
6.6095,-0.18661,-0.01297,-0.05188,-0.1506,-0.02975,-0.06424,-0.01221,-0.02991,-0.04684,-0.0589,0.01129,-0.0882,-0.0473,-0.02029,-0.02106,-0.06012
6.61,-0.17776,0.0174,-0.0502,-0.12405,-0.00885,-0.06104,-0.0087,0.01297,-0.02945,-0.07462,0.01389,-0.07858,-0.04684,-0.01938,-0.02441,-0.06073
6.6105,-0.15732,0.04181,-0.05295,-0.12909,-0.00122,-0.05569,-0.00854,0.05997,-0.01694,-0.09415,0.01984,-0.0972,-0.04974,-0.02396,-0.02014,-0.06058
6.611,-0.13306,0.05676,-0.04898,-0.12955,-0.00549,-0.05219,-0.00992,0.09232,-0.01877,-0.11337,0.04211,-0.05783,-0.05524,-0.02975,-0.00565,-0.0589
6.6115,-0.11612,0.06027,-0.03601,-0.04547,-0.01602,-0.05096,-0.00854,0.09918,-0.03174,-0.1268,0.08698,0.07736,-0.06012,-0.03433,0.0148,-0.05463
6.612,-0.10818,0.05554,-0.02594,0.18387,-0.01572,-0.04944,-0.00504,0.08408,-0.0412,-0.13763,0.13123,0.20905,-0.06256,-0.03464,0.0351,-0.04593
6.6125,-0.09979,0.04333,-0.02747,0.48431,0.0029,-0.0444,-0.00336,0.04929,-0.03815,-0.15045,0.14832,0.21652,-0.06256,-0.03265,0.05203,-0.03479
6.613,-0.08667,0.02548,-0.03876,0.69031,0.04395,-0.0383,-0.00641,0.00519,-0.02716,-0.16815,0.12955,0.12009,-0.06226,-0.03036,0.06363,-0.02609
6.6135,-0.07355,0.00443,-0.05051,0.71106,0.09232,-0.03479,-0.01221,-0.03311,-0.02014,-0.17914,0.07843,0.0322,-0.06195,-0.02975,0.05981,-0.02426
6.614,-0.0618,-0.01389,-0.06119,0.59311,0.121,-0.03555,-0.01816,-0.05417,-0.02045,-0.17288,0.00153,-0.00427,-0.06104,-0.0296,0.0293,-0.0267
6.6145,-0.05066,-0.02762,-0.07141,0.44525,0.11978,-0.03708,-0.0206,-0.05859,-0.02563,-0.14938,-0.07156,-0.03372,-0.05859,-0.03067,-0.02487,-0.02945
6.615,-0.03922,-0.03967,-0.0769,0.34592,0.09857,-0.03769,-0.02167,-0.05249,-0.03265,-0.12604,-0.09415,-0.0795,-0.05371,-0.02762,-0.07111,-0.03387
6.6155,-0.02777,-0.05096,-0.07309,0.30457,0.06409,-0.04028,-0.02274,-0.04364,-0.04242,-0.11993,-0.05981,-0.11108,-0.04715,-0.0238,-0.08011,-0.04105
6.616,-0.01755,-0.05844,-0.0621,0.28351,0.01709,-0.04486,-0.02472,-0.0386,-0.05936,-0.13535,-0.02121,-0.10468,-0.04211,-0.02274,-0.06165,-0.05066
6.6165,-0.00916,-0.06012,-0.04074,0.24734,-0.03433,-0.04929,-0.02594,-0.04028,-0.07965,-0.17258,-0.02396,-0.07751,-0.03983,-0.02335,-0.04471,-0.06424
6.617,-0.00504,-0.0589,-0.00336,0.20676,-0.08057,-0.05325,-0.02502,-0.04547,-0.09476,-0.21896,-0.056,-0.05356,-0.03922,-0.02518,-0.04486,-0.09567
6.6175,-0.00595,-0.05585,0.04303,0.20981,-0.11765,-0.05585,-0.02243,-0.04608,-0.10269,-0.26413,-0.07629,-0.04166,-0.03815,-0.02472,-0.04288,-0.15396
6.618,-0.01205,-0.05219,0.05936,0.27359,-0.13977,-0.05798,-0.02167,-0.03571,-0.10803,-0.28351,-0.06836,-0.03479,-0.03479,-0.02274,-0.01343,-0.21729
6.6185,-0.02151,-0.04608,0.01724,0.34988,-0.13489,-0.05798,-0.02182,-0.0116,-0.11246,-0.25818,-0.05539,-0.02884,-0.03204,-0.01984,0.04517,-0.24734
6.619,-0.03113,-0.04028,-0.05707,0.37735,-0.09216,-0.05432,-0.02335,0.01678,-0.11414,-0.1738,-0.05646,-0.02426,-0.02991,-0.01831,0.10193,-0.23926
6.6195,-0.0415,-0.03555,-0.1091,0.33554,-0.03708,-0.05112,-0.0264,0.02563,-0.11139,-0.03616,-0.06546,-0.02914,-0.03021,-0.01907,0.11673,-0.2269
6.62,-0.04944,-0.03342,-0.11047,0.24048,-0.00519,-0.05112,-0.02975,-0.01022,-0.10696,0.12314,-0.06653,-0.04211,-0.03143,-0.01953,0.09018,-0.20981
6.6205,-0.05569,-0.03235,-0.08209,0.10452,-0.00107,-0.05432,-0.03098,-0.08621,-0.10468,0.26688,-0.05951,-0.05096,-0.03235,-0.01831,0.06012,-0.13367
6.621,-0.05859,-0.02731,-0.05341,-0.06256,-0.00931,-0.05997,-0.03143,-0.15106,-0.10696,0.36316,-0.05707,-0.03998,-0.03113,-0.01556,0.05646,0.02396
6.6215,-0.06149,-0.02365,-0.03448,-0.23407,-0.02411,-0.06485,-0.03098,-0.15076,-0.11383,0.40421,-0.06439,-0.00244,-0.02792,-0.0145,0.06424,0.18677
6.622,-0.06729,-0.03418,-0.01816,-0.3566,-0.0473,-0.06805,-0.02808,-0.07874,-0.11993,0.39658,-0.07721,0.04318,-0.02502,-0.01587,0.05157,0.25543
6.6225,-0.07233,-0.06042,0.00397,-0.39185,-0.07187,-0.0679,-0.02319,0.03296,-0.12009,0.35767,-0.0885,0.05127,-0.02411,-0.01785,0.01572,0.22171
6.623,-0.07248,-0.08987,0.02213,-0.36179,-0.0943,-0.06439,-0.01678,0.15518,-0.1123,0.31403,-0.09399,0.00031,-0.02609,-0.01907,-0.01953,0.15503
6.6235,-0.0676,-0.11047,0.02716,-0.32303,-0.1152,-0.06012,-0.01175,0.25833,-0.09659,0.28046,-0.09415,-0.04883,-0.02655,-0.01678,-0.03204,0.11047
6.624,-0.06516,-0.1207,0.03128,-0.30441,-0.12466,-0.05676,-0.00748,0.28885,-0.07339,0.26459,-0.08972,-0.01556,-0.0235,-0.01297,-0.01968,0.08133
6.6245,-0.06805,-0.12405,0.05524,-0.29999,-0.10559,-0.05173,-0.00214,0.20828,-0.04333,0.25345,-0.08057,0.07126,-0.01831,-0.00885,0.00107,0.04349
6.625,-0.0708,-0.11932,0.08682,-0.30579,-0.0621,-0.04227,0.00183,0.0563,-0.01144,0.24017,-0.06653,0.09766,-0.01282,-0.0058,0.01556,-0.0061
6.6255,-0.06882,-0.1062,0.07904,-0.31799,-0.01663,-0.0325,0.00107,-0.07248,0.01678,0.21866,-0.04959,0.02853,-0.00992,-0.00565,0.01602,-0.05554
6.626,-0.06622,-0.0882,0.00732,-0.31494,0.02228,-0.02762,-0.00885,-0.11795,0.03922,0.1889,-0.03159,-0.0473,-0.00839,-0.00549,0.00717,-0.09033
6.6265,-0.06882,-0.07584,-0.08621,-0.27542,0.05875,-0.02777,-0.02319,-0.0943,0.05524,0.14954,-0.0145,-0.05142,-0.00732,-0.00458,-0.00244,-0.09933
6.627,-0.07446,-0.07858,-0.13977,-0.21042,0.08804,-0.03159,-0.03403,-0.0563,0.0647,0.09094,-0.00076,-0.00534,-0.00671,-0.00458,-0.00839,-0.07584
6.6275,-0.07416,-0.09186,-0.13718,-0.15457,0.09476,-0.03418,-0.0383,-0.04196,0.06943,0.03159,0.00549,0.03006,-0.00687,-0.00595,-0.01007,-0.02106
6.628,-0.0647,-0.09979,-0.11154,-0.11871,0.07446,-0.03387,-0.03632,-0.05112,0.07111,-0.0116,0.00763,0.03677,-0.00809,-0.00885,-0.00916,0.04929
6.6285,-0.0531,-0.09186,-0.09384,-0.09125,0.03815,-0.03281,-0.03235,-0.06561,0.07431,-0.04044,0.00824,0.03021,-0.00961,-0.01099,-0.0058,0.10559
6.629,-0.0473,-0.07172,-0.07736,-0.07385,0.00168,-0.03693,-0.03174,-0.07385,0.08209,-0.05783,0.00519,0.02014,-0.0116,-0.01068,-0.0061,0.11536
6.6295,-0.04578,-0.04562,-0.03784,-0.09323,-0.02106,-0.0441,-0.03387,-0.07187,0.09277,-0.07767,-0.00763,0.00687,-0.01541,-0.01038,-0.00961,0.07797
6.63,-0.04303,-0.01633,0.02075,-0.16525,-0.02808,-0.05249,-0.0354,-0.05905,0.10056,-0.09674,-0.02213,-0.00214,-0.01999,-0.01068,-0.01419,0.02716
6.6305,-0.03555,0.01724,0.07034,-0.24551,-0.03525,-0.05814,-0.02975,-0.03952,0.09995,-0.1059,-0.02136,-0.00214,-0.02365,-0.01282,-0.01465,-0.00488
6.631,-0.02716,0.04501,0.09125,-0.24551,-0.0589,-0.05798,-0.02136,-0.02151,0.09323,-0.09552,-0.00214,0.00366,-0.02563,-0.01434,-0.01022,-0.01648
6.6315,-0.01892,0.06073,0.08743,-0.11688,-0.09232,-0.05524,-0.01968,-0.00702,0.08698,-0.06668,0.0148,0.00763,-0.02716,-0.01572,-0.00381,-0.02365
6.632,-0.01114,0.06577,0.065,0.08255,-0.1123,-0.05371,-0.02136,0.00656,0.08087,-0.02441,0.0174,0.01038,-0.03052,-0.0174,0.00244,-0.03448
6.6325,-0.00351,0.0679,0.03128,0.24628,-0.10193,-0.05508,-0.0174,0.01541,0.06805,0.01602,0.00992,0.01434,-0.03342,-0.01862,0.00549,-0.04257
6.633,0.00244,0.06683,-0.00275,0.31326,-0.07721,-0.05737,-0.00671,0.01144,0.04684,0.04349,0.00412,0.01923,-0.03571,-0.01938,0.00549,-0.04562
6.6335,0.00458,0.05005,-0.02914,0.31601,-0.0705,-0.05722,-0.00046,-0.00641,0.02594,0.05234,0.00458,0.01999,-0.03799,-0.01877,0.00305,-0.04272
6.634,0.00381,0.01358,-0.05295,0.33051,-0.08728,-0.05295,-0.00977,-0.02777,0.00748,0.04318,0.00687,0.01602,-0.03952,-0.01877,-0.00015,-0.04013
6.6345,0.0029,-0.02457,-0.08041,0.36041,-0.09323,-0.04456,-0.02792,-0.04776,-0.0087,0.01587,0.0058,0.01053,-0.03967,-0.02197,-0.00061,-0.03891
6.635,0.00626,-0.03937,-0.10956,0.29083,-0.05768,-0.03616,-0.03677,-0.06561,-0.02441,-0.03265,-0.00381,0.00519,-0.0412,-0.02502,0.0029,-0.04074
6.6355,0.01297,-0.02808,-0.13458,0.04135,0.00046,-0.03052,-0.02533,-0.08072,-0.03525,-0.09232,-0.01556,0.00092,-0.04379,-0.02731,0.00641,-0.04532
6.636,0.01801,-0.01556,-0.1535,-0.26672,0.03632,-0.03052,-0.00183,-0.08606,-0.03799,-0.1416,-0.01663,-0.00275,-0.04471,-0.02716,0.00977,-0.05066
6.6365,0.02472,-0.02121,-0.16037,-0.40314,0.03464,-0.03372,0.02243,-0.0766,-0.03693,-0.16693,-0.00168,-0.00351,-0.04395,-0.02655,0.00977,-0.056
6.637,0.03555,-0.03784,-0.15182,-0.30014,0.01205,-0.04013,0.04929,-0.05798,-0.03967,-0.1767,0.02029,-0.00259,-0.04364,-0.02563,0.0116,-0.0589
6.6375,0.04517,-0.05539,-0.12924,-0.09506,-0.01694,-0.04868,0.07309,-0.04196,-0.04776,-0.18585,0.0325,0.00061,-0.04425,-0.02625,0.01587,-0.05829
6.638,0.05005,-0.07462,-0.10361,0.08331,-0.04486,-0.05829,0.07233,-0.0351,-0.05417,-0.19791,0.02945,0.00641,-0.04456,-0.02701,0.01968,-0.056
6.6385,0.05585,-0.09933,-0.08118,0.22552,-0.0766,-0.06485,0.03922,-0.03647,-0.05249,-0.20401,0.01785,0.01236,-0.04242,-0.02762,0.01999,-0.05432
6.639,0.07172,-0.12817,-0.06592,0.33325,-0.12985,-0.06607,0.00153,-0.03937,-0.0444,-0.19577,0.00275,0.01877,-0.03845,-0.02823,0.0177,-0.05203
6.6395,0.09293,-0.15289,-0.05676,0.32852,-0.20935,-0.06607,-0.0087,-0.03845,-0.03281,-0.17731,-0.0148,0.02243,-0.03525,-0.02808,0.01633,-0.04959
6.64,0.10483,-0.16556,-0.05981,0.12878,-0.26978,-0.06485,0.00275,-0.03403,-0.02228,-0.15762,-0.02869,0.02396,-0.03372,-0.02518,0.01465,-0.05066
6.6405,0.10345,-0.15869,-0.06866,-0.2005,-0.25772,-0.06348,0.00656,-0.02838,-0.01495,-0.13901,-0.02625,0.02319,-0.03281,-0.01923,0.01221,-0.05707
6.641,0.0946,-0.13397,-0.06424,-0.43365,-0.19058,-0.05875,-0.00519,-0.02396,-0.01083,-0.11719,-0.00671,0.01892,-0.0325,-0.01221,0.00977,-0.065
6.6415,0.08484,-0.10376,-0.03342,-0.41061,-0.12772,-0.05127,-0.01907,-0.02579,-0.00809,-0.09552,0.01343,0.01373,-0.03113,-0.00809,0.00946,-0.07065
6.642,0.0737,-0.08163,0.01205,-0.21255,-0.08011,-0.04669,-0.02411,-0.03815,-0.0061,-0.07248,0.01694,0.01068,-0.0296,-0.00717,0.00793,-0.07492
6.6425,0.0618,-0.06729,0.04211,-0.0383,-0.01923,-0.04517,-0.02777,-0.05325,-0.00504,-0.05051,0.01007,0.00854,-0.02762,-0.009,0.00671,-0.07889
6.643,0.04807,-0.04517,0.0383,0.02533,0.04532,-0.04379,-0.03799,-0.05875,-0.00626,-0.03738,0.00946,0.00748,-0.0264,-0.01144,0.00626,-0.07813
6.6435,0.03769,-0.00992,0.00702,0.02167,0.07767,-0.04074,-0.04425,-0.05005,-0.00977,-0.03387,0.01923,0.00702,-0.02502,-0.01358,0.00488,-0.07065
6.644,0.02701,0.03174,-0.02808,0.00717,0.07141,-0.03845,-0.03021,-0.02991,-0.01373,-0.0296,0.02853,0.00687,-0.02487,-0.01587,0.00244,-0.06134
6.6445,0.01404,0.06683,-0.0441,-0.00381,0.05951,-0.0386,-0.00046,-0.00381,-0.01938,-0.01328,0.02777,0.0058,-0.02457,-0.01923,0.00168,-0.05234
6.645,-0.00305,0.08987,-0.03174,-0.01297,0.05722,-0.03952,0.02167,0.01862,-0.0264,0.01221,0.02106,0.00397,-0.02411,-0.02136,0.0087,-0.04715
6.6455,-0.01602,0.10406,-0.00153,-0.03098,0.05081,-0.04074,0.02167,0.01709,-0.03082,0.03082,0.01678,0.00092,-0.0238,-0.0238,0.01648,-0.0473
6.646,-0.01556,0.11063,0.02228,-0.07507,0.02426,-0.04166,0.00854,-0.03281,-0.02991,0.03189,0.01831,0.00092,-0.0235,-0.02396,0.01816,-0.05386
6.6465,-0.00336,0.10101,0.01755,-0.14099,-0.01526,-0.04395,0.0,-0.12344,-0.0238,0.02029,0.02441,0.00229,-0.02136,-0.02213,0.01282,-0.06104
6.647,0.00793,0.07034,-0.01541,-0.18692,-0.0412,-0.04898,0.00031,-0.2002,-0.0174,0.00397,0.0296,0.00336,-0.01633,-0.01831,0.00717,-0.06119
6.6475,0.01099,0.02655,-0.0563,-0.17319,-0.03265,-0.05386,0.0032,-0.20645,-0.01129,-0.00015,0.02747,0.00397,-0.01175,-0.01312,0.00458,-0.05569
6.648,0.0116,-0.01022,-0.08163,-0.09628,-0.00336,-0.05722,0.00153,-0.13382,-0.00595,0.01053,0.01694,0.00534,-0.01129,-0.00793,-0.00015,-0.05142
6.6485,0.01984,-0.03311,-0.08026,0.02365,0.0029,-0.05768,-0.00443,-0.02319,-0.00214,0.01968,0.0032,0.00763,-0.01389,-0.00549,-0.00732,-0.0563
6.649,0.03708,-0.04547,-0.06058,0.16953,-0.03876,-0.05585,-0.01022,0.07599,-0.00229,0.01892,-0.00671,0.0087,-0.01328,-0.00702,-0.01114,-0.07385
6.6495,0.05356,-0.0531,-0.03799,0.30594,-0.10284,-0.05386,-0.01266,0.13763,-0.00366,0.01358,-0.01221,0.01068,-0.00839,-0.01022,-0.00748,-0.10361
6.65,0.06058,-0.05646,-0.02899,0.36591,-0.13519,-0.05157,-0.01495,0.16129,-0.00412,0.01541,-0.01511,0.01465,-0.00198,-0.01373,-0.00229,-0.13138
6.6505,0.06058,-0.05661,-0.03387,0.30197,-0.10468,-0.047,-0.01831,0.16602,-0.00397,0.0238,-0.01663,0.01953,0.00122,-0.01831,-0.0032,-0.13397
6.651,0.05936,-0.05951,-0.04471,0.14908,-0.03494,-0.04135,-0.01953,0.16418,-0.00122,0.02899,-0.01678,0.01968,-0.00061,-0.0209,-0.00641,-0.10513
6.6515,0.05875,-0.06546,-0.04929,0.00336,0.02121,-0.03647,-0.01755,0.15182,0.00626,0.02792,-0.01236,0.0145,-0.00641,-0.02075,-0.0061,-0.06119
6.652,0.05753,-0.0708,-0.0473,-0.06149,0.03616,-0.03159,-0.01678,0.11856,0.02441,0.02457,0.00153,0.00702,-0.01389,-0.01755,-0.00198,-0.02304
6.6525,0.0563,-0.06989,-0.04486,-0.04608,0.02182,-0.02823,-0.02014,0.07721,0.04898,0.01648,0.02365,0.0,-0.02441,-0.01541,0.0029,0.0
6.653,0.05569,-0.06577,-0.04761,-0.00244,0.00259,-0.02594,-0.02518,0.04959,0.06973,-0.0119,0.04379,-0.00641,-0.03983,-0.01587,0.00443,0.00198
6.6535,0.05753,-0.06546,-0.0502,0.0209,-0.00931,-0.02487,-0.02625,0.04425,0.08026,-0.06241,0.05188,-0.00687,-0.05493,-0.0177,0.0032,-0.02289
6.654,0.05951,-0.06836,-0.04333,0.00015,-0.00717,-0.02762,-0.0238,0.04868,0.07797,-0.10818,0.05157,-0.00214,-0.06195,-0.01877,0.00534,-0.05844
6.6545,0.05814,-0.06897,-0.02243,-0.05554,0.00702,-0.03372,-0.02075,0.04959,0.06439,-0.12085,0.0528,0.00214,-0.05997,-0.01892,0.00824,-0.07935
6.655,0.05569,-0.06866,0.00534,-0.11566,0.02243,-0.04074,-0.02167,0.04379,0.04135,-0.09979,0.05112,-0.00107,-0.05737,-0.01953,0.01022,-0.07736
6.6555,0.05493,-0.07324,0.02396,-0.14252,0.03113,-0.04593,-0.02441,0.0351,0.01724,-0.07263,0.03616,-0.00702,-0.05966,-0.02121,0.01007,-0.06638
6.656,0.06027,-0.08469,0.02838,-0.12695,0.03906,-0.04761,-0.02457,0.02594,-0.00366,-0.05753,0.01587,-0.00702,-0.06454,-0.02441,0.00961,-0.06027
6.6565,0.07019,-0.09918,0.0267,-0.09659,0.05341,-0.04868,-0.02335,0.02106,-0.02289,-0.05402,0.00717,0.00214,-0.06714,-0.02625,0.01144,-0.05798
6.657,0.07599,-0.10849,0.02441,-0.0737,0.07294,-0.05066,-0.02396,0.02182,-0.04074,-0.05417,-0.00076,0.01938,-0.06805,-0.02777,0.01495,-0.05692
6.6575,0.07111,-0.10422,0.02441,-0.0209,0.08179,-0.05325,-0.02396,0.02457,-0.06088,-0.05905,-0.0351,0.03662,-0.0705,-0.02884,0.01678,-0.05432
6.658,0.05753,-0.08423,0.02335,0.13428,0.0563,-0.05783,-0.02197,0.02609,-0.08041,-0.06653,-0.09354,0.05203,-0.07339,-0.02838,0.01785,-0.04868
6.6585,0.0412,-0.06058,0.02045,0.37506,-0.01862,-0.06271,-0.01984,0.02502,-0.09491,-0.07446,-0.14221,0.06393,-0.0769,-0.02899,0.01968,-0.04211
6.659,0.02792,-0.04318,0.01465,0.53055,-0.12344,-0.06729,-0.01877,0.02151,-0.10437,-0.08316,-0.16541,0.07034,-0.07874,-0.03021,0.02243,-0.03586
6.6595,0.01648,-0.03189,0.00275,0.40024,-0.20355,-0.06958,-0.01877,0.01709,-0.11276,-0.08835,-0.1709,0.06714,-0.0766,-0.02975,0.02579,-0.02945
6.66,0.00336,-0.02182,-0.02014,-0.01083,-0.22018,-0.06927,-0.01968,0.01205,-0.12253,-0.09171,-0.17303,0.04303,-0.07309,-0.02899,0.02823,-0.02304
6.6605,-0.00977,-0.01617,-0.04974,-0.43976,-0.1944,-0.06836,-0.02014,0.00778,-0.12894,-0.08286,-0.16983,-0.00854,-0.06897,-0.02686,0.02716,-0.0148
6.661,-0.0145,-0.01526,-0.07614,-0.62378,-0.17532,-0.06653,-0.02136,0.00198,-0.12863,-0.05798,-0.15778,-0.07355,-0.06348,-0.02258,0.02747,-0.00595
6.6615,-0.00351,-0.01328,-0.09018,-0.54855,-0.17731,-0.06516,-0.02213,-0.00259,-0.12451,-0.02106,-0.13626,-0.1297,-0.05798,-0.01907,0.03006,0.00168
6.662,0.01648,-0.00854,-0.08789,-0.38254,-0.17105,-0.0618,-0.02213,-0.00427,-0.11627,0.0235,-0.10849,-0.15976,-0.0499,-0.01709,0.03845,0.00214
6.6625,0.03647,-0.00732,-0.07309,-0.2095,-0.12711,-0.05554,-0.02121,-0.00168,-0.10223,0.06882,-0.07553,-0.1506,-0.03891,-0.01511,0.05219,-0.01312
6.663,0.04883,-0.0145,-0.05325,0.04837,-0.0621,-0.04913,-0.01938,0.0029,-0.08331,0.10666,-0.04105,-0.10406,-0.02289,-0.01068,0.06561,-0.04074
6.6635,0.05386,-0.03113,-0.03769,0.41199,-0.01923,-0.0444,-0.01663,0.00534,-0.065,0.12817,-0.01022,-0.04333,-0.00443,-0.00443,0.07568,-0.06393
6.664,0.05325,-0.05569,-0.02502,0.68954,-0.01419,-0.04242,-0.01465,0.00381,-0.05096,0.13718,0.01129,-0.00412,0.01282,0.00076,0.08118,-0.06592
6.6645,0.04837,-0.08713,-0.01266,0.68283,-0.02594,-0.0415,-0.01373,0.00031,-0.03738,0.13657,0.02151,-0.00015,0.02762,0.00443,0.08713,-0.04776
6.665,0.04318,-0.11642,-0.00229,0.439,-0.02975,-0.04196,-0.01617,-0.00656,-0.02228,0.12711,0.02594,-0.01282,0.03555,0.00626,0.09888,-0.0148
6.6655,0.04013,-0.13123,0.00534,0.15091,-0.0238,-0.04242,-0.01816,-0.01389,-0.01129,0.10101,0.02914,-0.01923,0.03433,0.00427,0.11765,0.04105
6.666,0.03647,-0.12955,0.01221,-0.07492,-0.01617,-0.04257,-0.01999,-0.02258,-0.00717,0.06653,0.0325,-0.0119,0.02518,-0.00107,0.11932,0.11368
6.6665,0.03204,-0.12253,0.01373,-0.21622,-0.00381,-0.04028,-0.02197,-0.02914,-0.00702,0.04181,0.02945,-0.00198,0.01923,-0.0058,0.07339,0.15686
6.667,0.02869,-0.11826,0.01083,-0.2565,0.01724,-0.03632,-0.02487,-0.03433,-0.00549,0.0293,0.02121,0.00397,0.02167,-0.01129,-0.01892,0.11414
6.6675,0.02899,-0.12848,0.00458,-0.21057,0.0441,-0.03296,-0.02869,-0.03876,-0.00137,0.01846,0.01251,0.00443,0.02106,-0.02014,-0.10986,0.00214
6.668,0.03265,-0.15823,-0.0029,-0.14374,0.06927,-0.03448,-0.03143,-0.04227,0.00427,-0.00107,0.00427,0.00397,0.00519,-0.03098,-0.15991,-0.0975
6.6685,0.03448,-0.19501,-0.01328,-0.0943,0.08331,-0.03662,-0.03174,-0.04501,0.00763,-0.0174,-0.00076,0.00412,-0.02548,-0.04059,-0.16373,-0.12939
6.669,0.03464,-0.21271,-0.02243,-0.05981,0.07935,-0.03738,-0.03082,-0.04501,0.00946,-0.02548,-0.00534,0.00656,-0.05966,-0.04456,-0.14145,-0.11032
6.6695,0.03067,-0.20126,-0.02579,-0.07141,0.05569,-0.0354,-0.02762,-0.04257,0.00885,-0.02151,-0.01038,0.0116,-0.08743,-0.04517,-0.10986,-0.08987
6.67,0.01083,-0.17075,-0.03342,-0.16403,0.01801,-0.03311,-0.02457,-0.03723,0.00931,-0.01755,-0.01312,0.01755,-0.10284,-0.04074,-0.07828,-0.08804
6.6705,-0.04593,-0.1329,-0.05768,-0.29053,-0.01312,-0.03616,-0.02304,-0.03143,0.00992,-0.02029,-0.00992,0.02426,-0.09979,-0.03113,-0.05112,-0.09827
6.671,-0.13458,-0.0827,-0.08911,-0.35858,-0.02655,-0.04318,-0.02304,-0.02838,0.01099,-0.02579,-0.00748,0.03464,-0.08041,-0.02106,-0.03265,-0.10574
6.6715,-0.21973,-0.02121,-0.10452,-0.34653,-0.03174,-0.04974,-0.02441,-0.02747,0.01083,-0.03082,-0.00702,0.04837,-0.05798,-0.01572,-0.02289,-0.10727
6.672,-0.27374,0.03876,-0.08942,-0.30273,-0.05478,-0.05341,-0.02411,-0.02716,0.01053,-0.03662,-0.00977,0.0563,-0.05157,-0.0174,-0.01785,-0.1033
6.6725,-0.29739,0.07736,-0.05524,-0.25436,-0.09628,-0.05722,-0.02243,-0.02518,0.00854,-0.04089,-0.01099,0.04715,-0.05981,-0.01984,-0.01419,-0.09613
6.673,-0.29892,0.09399,-0.02121,-0.19699,-0.121,-0.06042,-0.02106,-0.0209,0.00687,-0.04562,-0.00717,0.01663,-0.06729,-0.01892,-0.00977,-0.08636
6.6735,-0.28442,0.1001,0.00137,-0.14374,-0.09888,-0.06134,-0.02213,-0.0174,0.00656,-0.04913,-0.00183,-0.03067,-0.0618,-0.01419,-0.00626,-0.07553
6.674,-0.26016,0.10406,0.01205,-0.12299,-0.0473,-0.05798,-0.02411,-0.01648,0.00748,-0.05188,0.0,-0.09109,-0.04608,-0.01022,-0.00458,-0.06607
6.6745,-0.22949,0.10956,0.01923,-0.12314,-0.01236,-0.05005,-0.02594,-0.01709,0.00854,-0.05295,-0.00336,-0.16586,-0.02747,-0.01266,-0.00366,-0.06149
6.675,-0.19623,0.11551,0.02975,-0.08423,-0.0116,-0.04272,-0.02533,-0.01709,0.00687,-0.05249,-0.00534,-0.24094,-0.01373,-0.02014,-0.00137,-0.06027
6.6755,-0.16205,0.11902,0.03525,0.03372,-0.02762,-0.0383,-0.02411,-0.01556,0.0029,-0.05142,-0.00366,-0.26016,-0.0087,-0.02625,0.00092,-0.05692
6.676,-0.12711,0.1123,0.01953,0.19165,-0.03799,-0.03693,-0.0235,-0.01251,-0.00046,-0.05249,0.00183,-0.14954,-0.01297,-0.02655,0.00473,-0.04959
6.6765,-0.09048,0.09064,-0.02045,0.29099,-0.04089,-0.03738,-0.02304,-0.00839,0.00076,-0.05676,0.00519,0.10284,-0.02136,-0.02121,0.0087,-0.03952
6.677,-0.056,0.06393,-0.0705,0.27191,-0.04257,-0.03769,-0.02258,-0.00488,0.00366,-0.06088,0.00412,0.36041,-0.03006,-0.01633,0.01358,-0.03189
6.6775,-0.02563,0.04684,-0.11017,0.17166,-0.04013,-0.0386,-0.02243,-0.00397,0.00595,-0.06088,0.00336,0.42267,-0.03708,-0.01724,0.01617,-0.03006
6.678,-0.00092,0.04089,-0.12955,0.08041,-0.02899,-0.03769,-0.02243,-0.00626,0.00656,-0.05554,0.0058,0.2417,-0.04379,-0.02014,0.02365,-0.0322
6.6785,0.01526,0.03708,-0.13794,0.04852,-0.01205,-0.03815,-0.02304,-0.0087,0.00427,-0.05173,0.00961,-0.00732,-0.04807,-0.02258,0.0386,-0.03815
6.679,0.02136,0.0267,-0.14206,0.0563,-0.00305,-0.03922,-0.02258,-0.009,-0.00183,-0.05219,0.00534,-0.14633,-0.04807,-0.02228,0.05081,-0.04349
6.6795,0.0235,0.01526,-0.14236,0.06195,-0.00397,-0.04135,-0.02167,-0.00732,-0.01068,-0.05905,-0.01312,-0.1799,-0.04745,-0.02121,0.04669,-0.04562
6.68,0.03265,0.00244,-0.13519,0.05188,-0.00565,-0.04227,-0.01923,-0.00351,-0.01709,-0.06943,-0.02899,-0.18677,-0.04883,-0.02167,0.02884,-0.04532
6.6805,0.05615,-0.01205,-0.12268,0.04333,-0.00183,-0.04166,-0.0174,0.0,-0.01968,-0.07492,-0.02487,-0.18066,-0.05127,-0.02411,0.01541,-0.04379
6.681,0.09171,-0.02945,-0.10635,0.06363,0.00427,-0.04135,-0.01556,0.00244,-0.01999,-0.07202,-0.00656,-0.14496,-0.05203,-0.0238,0.01236,-0.04288
6.6815,0.12711,-0.05112,-0.08316,0.1207,0.00641,-0.04272,-0.01419,0.0032,-0.02151,-0.06729,0.00137,-0.09521,-0.05096,-0.02228,0.01694,-0.04211
6.682,0.15198,-0.08179,-0.05173,0.18951,0.00137,-0.04669,-0.01144,0.00443,-0.02487,-0.06485,-0.00977,-0.04379,-0.04852,-0.01999,0.01785,-0.04288
6.6825,0.15976,-0.11932,-0.02014,0.22308,-0.00763,-0.05035,-0.009,0.0058,-0.02563,-0.0647,-0.02747,0.01785,-0.04562,-0.01984,0.01663,-0.04395
6.683,0.15366,-0.1564,-0.00061,0.1973,-0.01144,-0.05112,-0.00793,0.00671,-0.02518,-0.06088,-0.04013,0.07813,-0.04333,-0.01877,0.01541,-0.04395
6.6835,0.14557,-0.19012,0.00015,0.12924,-0.00534,-0.0499,-0.0087,0.00626,-0.02533,-0.05402,-0.04349,0.10788,-0.04105,-0.01709,0.01602,-0.04181
6.684,0.14542,-0.22064,-0.0119,0.05569,0.00504,-0.0499,-0.00992,0.00534,-0.02975,-0.04929,-0.03922,0.12192,-0.0383,-0.01419,0.0145,-0.03891
6.6845,0.15564,-0.23544,-0.02335,-0.00198,0.00519,-0.0531,-0.01144,0.00458,-0.03754,-0.05295,-0.03525,0.15076,-0.03311,-0.01205,0.01648,-0.0383
6.685,0.16342,-0.21851,-0.02533,-0.04868,-0.01373,-0.05951,-0.01099,0.0061,-0.04501,-0.06561,-0.03143,0.16647,-0.02365,-0.00946,0.01266,-0.04196
6.6855,0.1651,-0.17029,-0.01892,-0.11398,-0.04074,-0.06393,-0.00763,0.00916,-0.04913,-0.08743,-0.03159,0.12161,-0.01587,-0.00641,0.01251,-0.04745
6.686,0.16434,-0.10422,-0.01877,-0.23514,-0.04089,-0.06454,-0.00366,0.0119,-0.04684,-0.10727,-0.02975,0.03479,-0.00992,-0.0029,0.00885,-0.05035
6.6865,0.16235,-0.03082,-0.01785,-0.37155,0.01358,-0.06104,-0.00214,0.01129,-0.03998,-0.11337,-0.02625,-0.01953,-0.0029,-0.00015,0.00977,-0.05005
6.687,0.15656,0.0412,-0.01556,-0.39169,0.10559,-0.0563,-0.00244,0.00854,-0.03296,-0.1004,-0.02197,-0.00854,0.00549,0.00107,0.01022,-0.04837
6.6875,0.14313,0.09796,-0.01938,-0.22446,0.17807,-0.05219,-0.00443,0.00549,-0.0264,-0.07492,-0.01846,0.02563,0.01892,-0.00031,0.00793,-0.04791
6.688,0.12741,0.12131,-0.03845,0.0296,0.18463,-0.04929,-0.00595,0.0032,-0.01984,-0.03922,-0.01678,0.0383,0.03464,-0.00305,0.00565,-0.04822
6.6885,0.1181,0.112,-0.07919,0.19882,0.1265,-0.04501,-0.00641,0.00076,-0.01328,-0.00168,-0.01633,0.03082,0.05417,-0.00641,0.00656,-0.04608
6.689,0.11978,0.08698,-0.10422,0.22949,0.0473,-0.03769,-0.00427,-0.00153,-0.00885,0.04547,-0.01755,0.02319,0.07248,-0.00961,0.00946,-0.04166
6.6895,0.1326,0.06531,-0.08514,0.21286,-0.0032,-0.03143,-0.00122,0.00092,-0.00488,0.09521,-0.01755,0.02014,0.08484,-0.01373,0.01221,-0.03601
6.69,0.15259,0.05035,-0.03601,0.23514,-0.00778,-0.03098,0.00122,0.00687,0.00076,0.13992,-0.01511,0.01694,0.0885,-0.01648,0.01144,-0.03128
6.6905,0.16663,0.03845,-0.00107,0.29221,0.00229,-0.0354,0.00229,0.0148,0.00763,0.16586,-0.01083,0.01328,0.07889,-0.01877,0.01526,-0.02991
6.691,0.16724,0.02548,0.00259,0.38498,-0.02075,-0.04257,0.00122,0.01953,0.0116,0.16968,-0.00702,0.01282,0.05508,-0.02213,0.02121,-0.02808
6.6915,0.159,0.00671,-0.00458,0.50995,-0.09262,-0.04776,-0.00107,0.01923,0.01297,0.15289,-0.00443,0.01587,0.02151,-0.02777,0.02792,-0.02487
6.692,0.15839,-0.0238,0.00824,0.53802,-0.17593,-0.04837,-0.00366,0.0145,0.01389,0.1207,-0.0029,0.01709,-0.01068,-0.03128,0.02487,-0.02136
6.6925,0.16998,-0.05676,0.03555,0.3093,-0.2243,-0.04669,-0.0058,0.00687,0.01556,0.08759,-0.00046,0.01419,-0.03006,-0.02716,0.01831,-0.02182
6.693,0.18341,-0.07507,0.06042,-0.08575,-0.22537,-0.04517,-0.00656,0.00305,0.0174,0.05875,0.00046,0.01022,-0.03784,-0.01862,0.01419,-0.0235
6.6935,0.18005,-0.07568,0.05676,-0.35797,-0.19791,-0.04669,-0.00748,0.00351,0.01663,0.03296,0.00076,0.0061,-0.05081,-0.01617,0.01587,-0.02457
6.694,0.15778,-0.06866,0.00351,-0.38879,-0.17044,-0.04959,-0.009,0.0058,0.01236,0.01511,0.00122,0.00183,-0.08041,-0.02213,0.02106,-0.02579
6.6945,0.1326,-0.06531,-0.09232,-0.31479,-0.15259,-0.05356,-0.01083,0.00641,0.00702,-0.00198,0.00275,-0.00137,-0.12024,-0.02975,0.01984,-0.02609
6.695,0.1178,-0.06607,-0.17715,-0.27222,-0.13779,-0.05646,-0.0145,0.00183,0.0032,-0.00946,0.00427,-0.00107,-0.14954,-0.03464,0.01801,-0.02655
6.6955,0.11398,-0.07141,-0.19684,-0.2507,-0.11795,-0.05829,-0.01663,-0.00549,0.00275,-0.01556,0.00778,0.00809,-0.15488,-0.03876,0.01495,-0.02823
6.696,0.11078,-0.08514,-0.14923,-0.22186,-0.09583,-0.05905,-0.01724,-0.01175,0.00595,-0.02029,0.0177,0.02808,-0.14511,-0.04425,0.0145,-0.0293
6.6965,0.10345,-0.10559,-0.07492,-0.20691,-0.0824,-0.05798,-0.01801,-0.0145,0.01022,-0.03067,0.04181,0.04639,-0.13107,-0.04669,0.01968,-0.03006
6.697,0.09293,-0.12482,-0.01953,-0.19043,-0.07797,-0.05768,-0.01877,-0.01419,0.01297,-0.04242,0.07034,0.04425,-0.11856,-0.04044,0.02609,-0.03006
6.6975,0.08209,-0.13657,0.00351,-0.1178,-0.07446,-0.05844,-0.01724,-0.01312,0.01205,-0.05768,0.07645,0.0177,-0.11002,-0.03113,0.02792,-0.02884
6.698,0.07416,-0.14252,0.00122,-0.00412,-0.06348,-0.05814,-0.01678,-0.01312,0.00641,-0.07416,0.02884,-0.01572,-0.10529,-0.02487,0.0235,-0.02869
6.6985,0.065,-0.14328,-0.00961,0.05157,-0.04776,-0.05692,-0.01846,-0.01541,-0.00366,-0.08972,-0.07278,-0.03433,-0.09979,-0.02396,0.01801,-0.02914
6.699,0.05524,-0.1326,-0.01312,0.00153,-0.03281,-0.05341,-0.02151,-0.01953,-0.0148,-0.09811,-0.16647,-0.03616,-0.09033,-0.0235,0.01495,-0.03006
6.6995,0.04776,-0.11017,-0.00168,-0.10651,-0.02258,-0.04852,-0.02243,-0.02213,-0.02396,-0.10025,-0.17059,-0.04105,-0.07813,-0.01862,0.0177,-0.0293
6.7,0.04181,-0.0795,0.01221,-0.2182,-0.01541,-0.04379,-0.0209,-0.02045,-0.03143,-0.09598,-0.0853,-0.056,-0.06683,-0.00946,0.01816,-0.02853
6.7005,0.03738,-0.05112,0.01328,-0.33295,-0.01205,-0.03937,-0.0177,-0.0148,-0.04089,-0.09186,0.00534,-0.04578,-0.05981,-0.00626,0.01602,-0.03021
6.701,0.03036,-0.02991,-0.00504,-0.45898,-0.01038,-0.03677,-0.01556,-0.0061,-0.04959,-0.09033,0.04868,0.01007,-0.05371,-0.01678,0.01419,-0.03281
6.7015,0.02213,-0.01709,-0.03082,-0.57709,-0.00931,-0.0383,-0.01266,0.00275,-0.05493,-0.08942,0.05371,0.06424,-0.04776,-0.03723,0.01312,-0.03281
6.702,0.01312,-0.00916,-0.05234,-0.65292,-0.00916,-0.04074,-0.00961,0.00778,-0.05707,-0.08575,0.05096,0.05341,-0.0444,-0.05051,0.01144,-0.0322
6.7025,0.00519,-0.00198,-0.06119,-0.61966,-0.00946,-0.04379,-0.0087,0.00732,-0.05997,-0.0885,0.04684,-0.02258,-0.04852,-0.04791,0.00824,-0.03159
6.703,-0.00168,0.00076,-0.05432,-0.401,-0.01083,-0.04501,-0.00916,0.00443,-0.06653,-0.08606,0.03464,-0.10452,-0.05524,-0.03738,0.00565,-0.03326
6.7035,-0.01038,-0.009,-0.03738,-0.01709,-0.0116,-0.04639,-0.00885,0.00427,-0.07599,-0.08392,0.01785,-0.14069,-0.05814,-0.03113,0.00702,-0.03647
6.704,-0.02289,-0.03693,-0.02182,0.38467,-0.0119,-0.04883,-0.00656,0.00626,-0.0824,-0.07095,0.0058,-0.10925,-0.05554,-0.02975,0.00885,-0.03845
6.7045,-0.03479,-0.07111,-0.01282,0.64529,-0.01144,-0.05051,-0.00534,0.00854,-0.08118,-0.04822,0.0,-0.03036,-0.05112,-0.02838,0.00992,-0.04105
6.705,-0.04044,-0.09399,-0.01999,0.67703,-0.01282,-0.0499,-0.0061,0.01022,-0.07584,-0.02502,-0.00259,0.04898,-0.0473,-0.02472,0.00977,-0.04639
6.7055,-0.03799,-0.09827,-0.02975,0.48798,-0.01434,-0.04776,-0.00702,0.01007,-0.07248,-0.00702,-0.00504,0.09048,-0.04257,-0.02243,0.00793,-0.05188
6.706,-0.03342,-0.09186,-0.04242,0.20447,-0.01495,-0.04593,-0.0058,0.01068,-0.07111,0.01572,-0.00809,0.08804,-0.03708,-0.02167,0.00961,-0.05356
6.7065,-0.03387,-0.0856,-0.06653,0.01953,-0.01587,-0.04578,-0.00366,0.01312,-0.06607,0.03922,-0.01465,0.04761,-0.03113,-0.02121,0.01144,-0.05219
6.707,-0.04257,-0.0856,-0.10468,0.0386,-0.01648,-0.04562,-0.00443,0.01465,-0.05371,0.06134,-0.02396,-0.01282,-0.02304,-0.01862,0.00748,-0.0502
6.7075,-0.06271,-0.08682,-0.14328,0.20294,-0.01953,-0.04593,-0.01083,0.01038,-0.03555,0.07477,-0.03403,-0.07126,-0.01434,-0.01266,0.00092,-0.04883
6.708,-0.08881,-0.07843,-0.15045,0.38696,-0.02518,-0.04745,-0.0174,0.00336,-0.01862,0.08087,-0.04135,-0.10544,-0.00687,-0.00854,-0.00549,-0.0473
6.7085,-0.11292,-0.056,-0.10834,0.49286,-0.02991,-0.0502,-0.01923,-0.00122,-0.00946,0.08316,-0.04715,-0.11688,-0.00412,-0.00854,-0.00076,-0.04684
6.709,-0.13153,-0.0322,-0.02991,0.45486,-0.0325,-0.05478,-0.01602,-0.0032,-0.00992,0.07767,-0.04822,-0.11353,-0.00336,-0.01099,0.0119,-0.04639
6.7095,-0.14465,-0.01831,0.04883,0.24689,-0.03159,-0.05661,-0.01373,-0.00534,-0.01328,0.07339,-0.04196,-0.09003,-0.00214,-0.0116,0.02655,-0.04684
6.71,-0.15564,-0.00809,0.09674,-0.05798,-0.03052,-0.05707,-0.01526,-0.01038,-0.01312,0.06897,-0.0296,-0.04318,0.00092,-0.00931,0.03479,-0.04593
6.7105,-0.16464,0.00977,0.10269,-0.30197,-0.02823,-0.05585,-0.02014,-0.01678,-0.00641,0.07248,-0.01648,0.00687,0.00488,-0.00702,0.03525,-0.04486
6.711,-0.17166,0.03571,0.08408,-0.3714,-0.0264,-0.05508,-0.02197,-0.02014,0.00397,0.07553,-0.00824,0.0325,0.00717,-0.0061,0.02625,-0.04105
6.7115,-0.17822,0.05646,0.06088,-0.28473,-0.02655,-0.05386,-0.02075,-0.01923,0.01312,0.0705,-0.00305,0.02548,0.00885,-0.00473,0.01022,-0.03448
6.712,-0.18585,0.06531,0.04669,-0.1532,-0.02731,-0.05386,-0.01709,-0.01556,0.01968,0.04807,-0.00122,0.00824,0.0116,-0.00275,-0.01541,-0.02625
6.7125,-0.19272,0.06378,0.04044,-0.0679,-0.02655,-0.05463,-0.01465,-0.00931,0.02258,0.02213,-0.00031,0.00015,0.01526,-0.00168,-0.05005,-0.02029
6.713,-0.19348,0.05859,0.0322,-0.04425,-0.0235,-0.0531,-0.01266,-0.00259,0.02335,-0.00153,0.0,-0.00046,0.01617,-0.00366,-0.0972,-0.01526
6.7135,-0.18646,0.05325,-0.00061,-0.05157,-0.01938,-0.05066,-0.01083,0.0029,0.02106,-0.00778,-0.00214,-0.00107,0.01205,-0.00778,-0.13718,-0.00565
6.714,-0.17288,0.04852,-0.06897,-0.04852,-0.01816,-0.04837,-0.00885,0.00702,0.01602,-0.00259,-0.00595,-0.00168,0.00427,-0.00977,-0.1355,0.00519
6.7145,-0.15778,0.03998,-0.13916,0.00992,-0.01892,-0.047,-0.00885,0.0087,0.01129,-0.00122,-0.01022,0.00015,-0.00107,-0.01068,-0.08331,0.01114
6.715,-0.14664,0.0264,-0.16693,0.14252,-0.02121,-0.04669,-0.01099,0.00778,0.00931,-0.01129,-0.01205,0.00336,-0.00107,-0.01068,-0.01282,0.00137
6.7155,-0.14297,0.01068,-0.12924,0.28854,-0.02167,-0.047,-0.01404,0.00351,0.00809,-0.02792,-0.0119,0.00519,-0.00031,-0.01236,0.03906,-0.03876
6.716,-0.14252,-0.00046,-0.06287,0.33325,-0.02426,-0.04745,-0.01602,-0.00046,0.00626,-0.03922,-0.01343,0.00549,-0.00549,-0.01587,0.07431,-0.11826
6.7165,-0.14282,-0.00885,0.00259,0.233,-0.02686,-0.04776,-0.01755,-0.00336,0.00351,-0.04272,-0.0148,0.00595,-0.01694,-0.01877,0.11398,-0.21881
6.717,-0.14786,-0.02548,0.05386,0.06851,-0.03052,-0.04807,-0.01785,-0.00473,0.00107,-0.04089,-0.01541,0.00809,-0.02609,-0.01877,0.14664,-0.29892
6.7175,-0.16449,-0.06012,0.09109,-0.06393,-0.0322,-0.04944,-0.01587,-0.00305,0.00061,-0.04105,-0.01434,0.009,-0.03159,-0.01709,0.16342,-0.33234
6.718,-0.19363,-0.09521,0.103,-0.15015,-0.03143,-0.05142,-0.01129,0.00122,0.00015,-0.04288,-0.01266,0.009,-0.03555,-0.01617,0.13489,-0.31876
6.7185,-0.22003,-0.09872,0.08514,-0.21271,-0.02884,-0.0531,-0.00732,0.00809,0.0,-0.04425,-0.01129,0.00946,-0.04089,-0.01633,0.04562,-0.242
6.719,-0.22507,-0.06668,0.05371,-0.25146,-0.02594,-0.05203,-0.00488,0.01556,0.00031,-0.04303,-0.00946,0.01022,-0.04349,-0.01633,-0.08575,-0.08606
6.7195,-0.2037,-0.02899,0.02975,-0.26123,-0.02319,-0.05112,-0.00671,0.01953,-0.00031,-0.04105,-0.0087,0.01221,-0.0386,-0.01617,-0.19302,0.10193
6.72,-0.1738,-0.02258,0.01648,-0.25192,-0.02045,-0.0502,-0.01282,0.01617,-0.00397,-0.03754,-0.00717,0.01297,-0.02838,-0.01633,-0.18295,0.2211
6.7205,-0.15549,-0.05127,0.00595,-0.22461,-0.02045,-0.05173,-0.01892,0.00565,-0.00839,-0.03586,-0.00488,0.01434,-0.02106,-0.01724,-0.03983,0.21957
6.721,-0.14816,-0.08377,-0.00549,-0.17838,-0.02167,-0.05493,-0.02136,-0.00214,-0.00977,-0.03799,-0.00229,0.01495,-0.01663,-0.01694,0.12054,0.13794
6.7215,-0.14084,-0.09186,-0.0145,-0.13748,-0.02274,-0.06058,-0.01938,-0.00137,-0.00839,-0.0386,-0.00046,0.01541,-0.01328,-0.01617,0.16479,0.04807
6.722,-0.12711,-0.07965,-0.0209,-0.12421,-0.01984,-0.06485,-0.01678,0.00198,-0.00717,-0.04013,-0.00336,0.01404,-0.01053,-0.01602,0.10437,-0.00504
6.7225,-0.11414,-0.06516,-0.03021,-0.11841,-0.01663,-0.0647,-0.01678,0.00168,-0.00824,-0.0386,-0.00702,0.0116,-0.00961,-0.01678,0.03647,-0.00885
6.723,-0.10727,-0.05768,-0.04639,-0.08606,-0.01999,-0.05951,-0.02121,-0.00473,-0.00992,-0.0383,-0.01175,0.00931,-0.01297,-0.01801,0.01282,0.01587
6.7235,-0.09857,-0.05615,-0.07202,-0.02258,-0.04333,-0.05539,-0.02594,-0.01282,-0.01068,-0.03815,-0.01434,0.00809,-0.01648,-0.01831,0.01099,0.03448
6.724,-0.08102,-0.06744,-0.09308,0.05936,-0.08209,-0.05447,-0.02686,-0.0177,-0.01221,-0.0386,-0.01434,0.00702,-0.01892,-0.01785,0.00137,0.02853
6.7245,-0.0563,-0.10376,-0.10635,0.14465,-0.11124,-0.05234,-0.0238,-0.01785,-0.01358,-0.0383,-0.01312,0.00793,-0.01938,-0.01801,-0.00992,0.01221
6.725,-0.03632,-0.15228,-0.10788,0.19196,-0.10757,-0.04822,-0.02014,-0.01358,-0.01602,-0.03525,-0.01205,0.00854,-0.0206,-0.01953,-0.02014,0.0029
6.7255,-0.02884,-0.18173,-0.10345,0.15778,-0.07721,-0.04242,-0.01923,-0.00885,-0.02029,-0.03525,-0.0148,0.0087,-0.02426,-0.02182,-0.03784,-0.00092
6.726,-0.03403,-0.17822,-0.09842,0.06607,-0.04868,-0.0386,-0.02167,-0.00839,-0.02731,-0.03326,-0.01938,0.00885,-0.02716,-0.02243,-0.05753,-0.00534
6.7265,-0.04623,-0.16129,-0.0943,-0.00137,-0.03754,-0.03662,-0.02426,-0.01144,-0.03098,-0.03464,-0.02151,0.00763,-0.02869,-0.0206,-0.05386,-0.01419
6.727,-0.05951,-0.14267,-0.0885,-0.0058,-0.04028,-0.03448,-0.02502,-0.01373,-0.02975,-0.03693,-0.01923,0.00656,-0.02792,-0.01801,-0.02518,-0.02289
6.7275,-0.07065,-0.10925,-0.09247,-0.00046,-0.04257,-0.0354,-0.02487,-0.01328,-0.02457,-0.03555,-0.01709,0.00748,-0.02502,-0.01694,-0.00107,-0.03021
6.728,-0.07843,-0.05966,-0.10056,-0.04303,-0.0444,-0.03815,-0.02396,-0.01114,-0.01801,-0.03387,-0.0145,0.00946,-0.0238,-0.0174,-0.00061,-0.03342
6.7285,-0.08362,-0.01862,-0.11078,-0.11078,-0.04364,-0.03998,-0.02258,-0.009,-0.01389,-0.03433,-0.01465,0.01022,-0.02472,-0.01923,-0.0061,-0.03418
6.729,-0.0885,-0.00137,-0.12131,-0.1445,-0.04272,-0.04105,-0.01999,-0.00641,-0.01282,-0.03448,-0.01282,0.00885,-0.02792,-0.02121,-0.00397,-0.03418
6.7295,-0.09323,0.01129,-0.12497,-0.13092,-0.04242,-0.04074,-0.0177,-0.00336,-0.01236,-0.03387,-0.01022,0.00717,-0.02731,-0.02197,0.01068,-0.03265
6.73,-0.09186,0.03937,-0.11993,-0.10239,-0.03998,-0.04135,-0.01526,0.00046,-0.01129,-0.03479,-0.009,0.00656,-0.0238,-0.02213,0.01007,-0.02869
6.7305,-0.07858,0.07431,-0.10483,-0.0769,-0.03738,-0.04074,-0.0148,0.00153,-0.01022,-0.03281,-0.01175,0.00549,-0.02197,-0.02258,0.00198,-0.02106
6.731,-0.0499,0.08865,-0.0824,-0.05173,-0.03693,-0.04028,-0.01404,0.00107,-0.0116,-0.03189,-0.0148,0.00076,-0.0267,-0.02426,-0.00397,-0.01175
6.7315,-0.0145,0.06958,-0.06134,-0.03006,-0.03845,-0.04211,-0.01541,-0.00107,-0.01495,-0.03021,-0.01678,-0.00702,-0.03616,-0.02518,-0.00641,0.00061
6.732,0.01358,0.02335,-0.04669,-0.02243,-0.04028,-0.0444,-0.01709,-0.00275,-0.01678,-0.02777,-0.01709,-0.01282,-0.04776,-0.02274,-0.00336,0.01266
6.7325,0.02838,-0.02655,-0.03876,-0.02426,-0.03815,-0.04593,-0.01755,-0.00534,-0.01617,-0.02731,-0.01678,-0.01541,-0.05966,-0.0206,0.00946,0.01724
6.733,0.03571,-0.05905,-0.03967,-0.02029,-0.02426,-0.04547,-0.01602,-0.00748,-0.01419,-0.02777,-0.01663,-0.01556,-0.07141,-0.01968,0.02045,-0.00198
6.7335,0.04364,-0.07019,-0.05325,-0.00366,0.00031,-0.04593,-0.01389,-0.00702,-0.01328,-0.02747,-0.01755,-0.01831,-0.08224,-0.02014,0.01526,-0.04868
6.734,0.04898,-0.07339,-0.07263,0.01663,0.02701,-0.04562,-0.01251,-0.00443,-0.01297,-0.02777,-0.01785,-0.02289,-0.0882,-0.02304,-0.00458,-0.10452
6.7345,0.04242,-0.08209,-0.0882,0.03021,0.04486,-0.0473,-0.01175,-0.00183,-0.01389,-0.02762,-0.01801,-0.02686,-0.08484,-0.02609,-0.02319,-0.14633
6.735,0.02274,-0.09872,-0.09735,0.03342,0.04883,-0.05005,-0.01053,-0.00107,-0.0145,-0.02472,-0.01846,-0.02716,-0.07263,-0.02792,-0.02899,-0.17426
6.7355,-0.00305,-0.11002,-0.11169,0.03296,0.03571,-0.05157,-0.00961,0.0,-0.01373,-0.02335,-0.01785,-0.02472,-0.05707,-0.02853,-0.02975,-0.20447
6.736,-0.0296,-0.09903,-0.11337,0.03174,0.01114,-0.0502,-0.00885,0.00107,-0.01205,-0.02151,-0.01694,-0.02228,-0.04471,-0.02716,-0.02426,-0.22278
6.7365,-0.05798,-0.06866,-0.07751,0.02808,-0.02335,-0.047,-0.01038,0.00183,-0.01144,-0.01999,-0.01678,-0.01694,-0.03494,-0.02563,0.0,-0.17883
6.737,-0.08896,-0.03067,-0.00778,0.02151,-0.06699,-0.04593,-0.0119,0.00214,-0.01358,-0.01892,-0.01831,-0.0087,-0.0267,-0.0238,0.04837,-0.05432
6.7375,-0.12192,0.00473,0.0589,0.01587,-0.11703,-0.04608,-0.01175,0.00275,-0.01663,-0.01877,-0.01907,-0.00046,-0.01923,-0.02167,0.11154,0.08087
6.738,-0.14908,0.03357,0.09109,0.01511,-0.15839,-0.04669,-0.01007,0.00458,-0.01816,-0.01862,-0.01801,0.00336,-0.01297,-0.01923,0.15518,0.12177
6.7385,-0.15106,0.0531,0.09491,0.01923,-0.16815,-0.04837,-0.0087,0.00641,-0.01633,-0.0174,-0.01755,0.00061,-0.00565,-0.01724,0.1564,0.04395
6.739,-0.112,0.06119,0.08957,0.02502,-0.1442,-0.05081,-0.0087,0.00748,-0.01389,-0.01541,-0.01633,-0.00366,-0.00031,-0.01526,0.12848,-0.07019
6.7395,-0.04379,0.06104,0.08011,0.02899,-0.11261,-0.05188,-0.00977,0.00854,-0.0119,-0.01404,-0.01556,-0.00412,-0.00214,-0.01465,0.09018,-0.12619
6.74,0.01984,0.05325,0.06622,0.03006,-0.09247,-0.05219,-0.00854,0.01083,-0.01007,-0.01114,-0.01419,0.00076,-0.01038,-0.01389,0.04517,-0.10925
6.7405,0.05768,0.03128,0.05112,0.02838,-0.07599,-0.05051,-0.00671,0.01266,-0.00687,-0.00839,-0.01053,0.00595,-0.02106,-0.01282,0.0,-0.06882
6.741,0.07843,-0.00565,0.03815,0.02487,-0.05676,-0.04852,-0.00534,0.0145,-0.00137,-0.00778,-0.00839,0.00885,-0.02884,-0.01389,-0.02762,-0.04837
6.7415,0.10147,-0.04608,0.02289,0.02182,-0.03967,-0.0473,-0.00549,0.01511,0.00458,-0.00778,-0.00793,0.00931,-0.03204,-0.01617,-0.02686,-0.05051
6.742,0.12878,-0.07599,0.00504,0.0209,-0.03067,-0.04715,-0.0061,0.01404,0.00763,-0.01297,-0.00854,0.00946,-0.03342,-0.01755,-0.01373,-0.05981
6.7425,0.14343,-0.09811,-0.0177,0.02167,-0.02701,-0.04684,-0.00488,0.01205,0.00565,-0.01892,-0.00671,0.00854,-0.03372,-0.0174,-0.00275,-0.06729
6.743,0.1358,-0.11871,-0.05127,0.01999,-0.01724,-0.04745,-0.00443,0.01068,0.00015,-0.02151,-0.00153,0.00824,-0.03525,-0.0174,0.009,-0.07278
6.7435,0.11887,-0.13306,-0.12497,0.01511,0.01099,-0.04684,-0.00595,0.01022,-0.00626,-0.01923,0.00153,0.00824,-0.03799,-0.01892,0.02136,-0.07675
6.744,0.11856,-0.12878,-0.23315,0.01007,0.05615,-0.04761,-0.00824,0.00885,-0.01373,-0.01404,0.00076,0.00687,-0.04028,-0.02121,0.02106,-0.07629
6.7445,0.1442,-0.09766,-0.32776,0.00809,0.09888,-0.04822,-0.00961,0.00381,-0.02075,-0.01099,-0.00397,0.00473,-0.04272,-0.0235,0.00778,-0.06973
6.745,0.18005,-0.05081,-0.34058,0.00961,0.11185,-0.05112,-0.00977,-0.00214,-0.02716,-0.00824,-0.009,0.00183,-0.04486,-0.02441,-0.00656,-0.06149
6.7455,0.20294,-0.00031,-0.24704,0.01221,0.08896,-0.05478,-0.01038,-0.0058,-0.03143,-0.0058,-0.01205,0.00153,-0.04684,-0.02502,-0.01099,-0.05539
6.746,0.21042,0.03632,-0.0975,0.01511,0.03906,-0.05661,-0.00854,-0.00595,-0.03357,-0.00565,-0.0145,0.00153,-0.04822,-0.02518,-0.00854,-0.05371
6.7465,0.21561,0.05203,0.03342,0.01511,-0.0174,-0.05463,-0.00656,-0.00153,-0.0383,-0.00473,-0.01999,0.00183,-0.04822,-0.02502,-0.00687,-0.05478
6.747,0.23148,0.047,0.11307,0.009,-0.07843,-0.05188,-0.00549,0.0029,-0.04623,-0.00671,-0.02777,0.00229,-0.04898,-0.02426,-0.00748,-0.05325
6.7475,0.25482,0.02777,0.1474,-0.00183,-0.13931,-0.05051,-0.00595,0.00534,-0.05569,-0.0087,-0.03479,0.00259,-0.0499,-0.02579,-0.01114,-0.0499
6.748,0.27481,0.00336,0.1503,-0.01038,-0.18417,-0.05234,-0.00717,0.00473,-0.06424,-0.01068,-0.0415,0.00107,-0.05081,-0.02808,-0.00946,-0.04715
6.7485,0.28381,-0.01968,0.12848,-0.00961,-0.18448,-0.05249,-0.00793,0.00412,-0.06851,-0.01221,-0.04654,-0.00427,-0.05035,-0.0296,-0.00961,-0.04745
6.749,0.28168,-0.03876,0.09277,-0.00061,-0.13245,-0.05203,-0.00824,0.00549,-0.0679,-0.01587,-0.05112,-0.00702,-0.04745,-0.0293,-0.00671,-0.04913
6.7495,0.27023,-0.05066,0.05966,0.01022,-0.06454,-0.05234,-0.00793,0.00824,-0.06302,-0.01999,-0.05371,-0.0061,-0.04425,-0.02625,-0.00198,-0.04883
6.75,0.25146,-0.05295,0.04883,0.01663,-0.02869,-0.05249,-0.00809,0.0119,-0.05737,-0.02533,-0.056,-0.00107,-0.04181,-0.0238,0.00122,-0.04456
6.7505,0.23087,-0.04547,0.05661,0.01633,-0.02106,-0.04959,-0.00885,0.01205,-0.05386,-0.03082,-0.05737,0.00549,-0.04044,-0.02258,-0.00244,-0.03891
6.751,0.21622,-0.03723,0.0618,0.01129,-0.00992,-0.04196,-0.00977,0.01099,-0.04929,-0.03525,-0.05661,0.01022,-0.0386,-0.02014,-0.01373,-0.03281
6.7515,0.21255,-0.04135,0.01907,0.00153,0.01328,-0.0322,-0.00839,0.01129,-0.0386,-0.03983,-0.05157,0.01236,-0.03464,-0.01709,-0.02884,-0.02808
6.752,0.21362,-0.06561,-0.08957,-0.00565,0.03296,-0.02594,-0.00671,0.01511,-0.02304,-0.0441,-0.04288,0.01099,-0.0296,-0.01282,-0.05295,-0.02426
6.7525,0.20859,-0.10117,-0.20355,-0.0032,0.03952,-0.02518,-0.00656,0.02182,-0.00885,-0.04578,-0.03082,0.00595,-0.02441,-0.009,-0.08377,-0.01999
6.753,0.19363,-0.13336,-0.23514,0.00977,0.04349,-0.02869,-0.00702,0.0296,-0.00397,-0.04486,-0.01984,0.00259,-0.0206,-0.00732,-0.11261,-0.01572
6.7535,0.17349,-0.14542,-0.17487,0.02228,0.06165,-0.03326,-0.00549,0.03571,-0.00427,-0.03876,-0.0119,0.00244,-0.01724,-0.00687,-0.12238,-0.01541
6.754,0.15533,-0.13367,-0.09583,0.02197,0.08499,-0.03677,-0.00168,0.0354,-0.00305,-0.03159,-0.009,0.00473,-0.01511,-0.0061,-0.11368,-0.01709
6.7545,0.14084,-0.11368,-0.0676,0.00809,0.10254,-0.03754,-0.00031,0.02716,0.00092,-0.02441,-0.01053,0.00717,-0.01511,-0.00427,-0.09735,-0.01862
6.755,0.12543,-0.10529,-0.08102,-0.01144,0.09933,-0.03311,-0.00305,0.0119,0.00565,-0.01678,-0.01358,0.00687,-0.01556,-0.00443,-0.08606,-0.01526
6.7555,0.10666,-0.11353,-0.07767,-0.02625,0.06485,-0.02396,-0.00778,-0.0032,0.00687,-0.01251,-0.01343,0.00778,-0.01633,-0.00778,-0.07385,-0.0061
6.756,0.08728,-0.13184,-0.0293,-0.03387,0.00687,-0.01587,-0.01007,-0.01205,0.00229,-0.00946,-0.0119,0.00992,-0.01755,-0.01282,-0.05051,0.01022
6.7565,0.07095,-0.14908,0.04974,-0.03342,-0.04639,-0.01694,-0.0087,-0.01389,-0.0032,-0.01068,-0.01053,0.01419,-0.01938,-0.01556,0.0148,0.02975
6.757,0.05569,-0.15259,0.13321,-0.0325,-0.07339,-0.02975,-0.0058,-0.01175,-0.00656,-0.0119,-0.01144,0.01404,-0.02167,-0.01617,0.15732,0.04501
6.7575,0.03876,-0.13184,0.20782,-0.03311,-0.08347,-0.05127,-0.0032,-0.00488,-0.00549,-0.01389,-0.01053,0.00992,-0.02396,-0.01556,0.32547,0.04761
6.758,0.02182,-0.09369,0.25696,-0.03677,-0.10742,-0.07828,-0.00137,0.00153,-0.00137,-0.01419,-0.00702,0.00519,-0.02625,-0.01495,0.37384,0.03723
6.7585,0.00504,-0.05005,0.2597,-0.04471,-0.14954,-0.10071,-0.00061,0.00351,0.00137,-0.01373,-0.00015,0.00275,-0.02899,-0.0148,0.24033,0.01968
6.759,-0.01358,-0.00427,0.20676,-0.056,-0.18234,-0.10773,-0.00107,0.00076,0.00214,-0.01221,0.00427,0.00488,-0.03082,-0.01434,0.05264,-0.00366
6.7595,-0.03494,0.04883,0.12253,-0.06561,-0.18707,-0.09933,-0.00229,-0.00305,0.00275,-0.00885,0.0061,0.00839,-0.0322,-0.01389,-0.03525,-0.03387
6.76,-0.05875,0.10376,0.04745,-0.06363,-0.16937,-0.08438,-0.0032,-0.00381,0.00397,-0.00702,0.00443,0.01129,-0.03281,-0.01328,-0.02472,-0.06912
6.7605,-0.08179,0.13641,0.00336,-0.04745,-0.15106,-0.07126,-0.0032,-0.00229,0.00458,-0.00732,0.00336,0.01175,-0.03265,-0.01328,-0.00153,-0.09933
6.761,-0.09308,0.12466,-0.0209,-0.02533,-0.14114,-0.06393,-0.00351,-0.00229,0.00488,-0.00793,0.00351,0.0119,-0.03189,-0.01419,0.00214,-0.11978
6.7615,-0.07996,0.06805,-0.04715,-0.01068,-0.12375,-0.05814,-0.00244,-0.00473,0.00381,-0.00885,0.00366,0.01175,-0.0296,-0.01511,0.00763,-0.13367
6.762,-0.04745,-0.01175,-0.07584,-0.00885,-0.0914,-0.05096,-0.00076,-0.01068,0.00183,-0.01007,0.00412,0.01144,-0.02609,-0.01694,0.01862,-0.14786
6.7625,-0.01953,-0.08759,-0.1033,-0.01465,-0.05508,-0.04547,0.00092,-0.01602,-0.00092,-0.00748,0.00275,0.01022,-0.02274,-0.01877,0.01923,-0.16052
6.763,-0.00732,-0.14313,-0.13138,-0.02182,-0.03342,-0.04227,0.00031,-0.01953,-0.00427,-0.00214,0.00092,0.009,-0.02014,-0.02014,0.01236,-0.1619
6.7635,-0.0058,-0.17471,-0.16006,-0.02975,-0.02701,-0.03815,-0.0032,-0.02075,-0.00702,-0.00092,-0.00168,0.00717,-0.01816,-0.0206,0.01175,-0.14847
6.764,-0.00061,-0.18906,-0.18631,-0.03555,-0.02563,-0.03525,-0.0061,-0.01907,-0.00854,-0.00656,-0.00229,0.00595,-0.01694,-0.02243,0.01465,-0.1268
6.7645,0.01053,-0.18661,-0.20615,-0.0296,-0.02243,-0.03403,-0.00732,-0.01617,-0.00931,-0.01556,-0.00198,0.00504,-0.01801,-0.02533,0.01312,-0.10864
6.765,0.01968,-0.15442,-0.22308,-0.01144,-0.01755,-0.03586,-0.00702,-0.0119,-0.01068,-0.01877,-0.00137,0.00473,-0.02197,-0.02716,0.00641,-0.09811
6.7655,0.01938,-0.08942,-0.22614,0.01068,-0.01053,-0.0386,-0.00702,-0.00961,-0.01205,-0.01785,-0.00229,0.00443,-0.02945,-0.02838,0.00061,-0.08972
6.766,0.0029,-0.0145,-0.20004,0.03128,0.00153,-0.04074,-0.00763,-0.00946,-0.01236,-0.01663,-0.0029,0.00229,-0.03983,-0.02716,-0.00214,-0.08026
6.7665,-0.02762,0.04654,-0.15259,0.05554,0.01602,-0.04318,-0.00748,-0.00885,-0.01251,-0.01846,-0.00534,0.00046,-0.05081,-0.02655,-0.00351,-0.07065
6.767,-0.05966,0.08698,-0.10834,0.07889,0.02609,-0.04425,-0.00763,-0.00504,-0.01434,-0.02121,-0.00656,0.00076,-0.05753,-0.02487,-0.00381,-0.06287
6.7675,-0.07782,0.11002,-0.08377,0.08209,0.02762,-0.04364,-0.01053,-0.00137,-0.01709,-0.02213,-0.009,0.00229,-0.05569,-0.02228,-0.00397,-0.0563
6.768,-0.08072,0.11642,-0.07263,0.05798,0.02136,-0.04089,-0.01434,-0.00122,-0.01877,-0.02136,-0.01038,0.00275,-0.047,-0.01648,-0.00458,-0.05051
6.7685,-0.0827,0.10773,-0.06042,0.01907,0.0145,-0.03876,-0.0177,-0.00366,-0.01862,-0.02014,-0.0116,0.00153,-0.03891,-0.01266,-0.00519,-0.04608
6.769,-0.09567,0.09476,-0.04883,-0.0209,0.01083,-0.03799,-0.0177,-0.00519,-0.01831,-0.01846,-0.01022,0.00031,-0.03632,-0.01282,-0.01007,-0.04562
6.7695,-0.11566,0.08438,-0.04257,-0.05753,0.0058,-0.03845,-0.01587,-0.00381,-0.01816,-0.01877,-0.0087,-0.00092,-0.03525,-0.01572,-0.01648,-0.04471
6.77,-0.13351,0.07538,-0.03708,-0.08514,-0.00549,-0.04059,-0.01328,-0.00107,-0.01892,-0.01968,-0.00839,-0.00076,-0.0354,-0.01678,-0.02716,-0.04257
6.7705,-0.14343,0.06165,-0.02945,-0.09171,-0.02182,-0.04318,-0.01373,-0.00046,-0.01709,-0.01923,-0.00885,-0.00076,-0.04074,-0.01434,-0.04211,-0.04074
6.771,-0.14465,0.03998,-0.0174,-0.0766,-0.03204,-0.04623,-0.01556,-0.00488,-0.01495,-0.0177,-0.01099,0.00015,-0.05188,-0.0116,-0.05554,-0.03876
6.7715,-0.13794,0.01022,-0.00595,-0.05676,-0.02899,-0.04852,-0.01709,-0.01083,-0.01358,-0.01541,-0.0116,0.00076,-0.0621,-0.00931,-0.05936,-0.03784
6.772,-0.12772,-0.0235,0.00092,-0.04745,-0.01862,-0.04791,-0.01785,-0.01358,-0.01404,-0.01511,-0.009,0.00046,-0.06546,-0.00641,-0.05707,-0.03815
6.7725,-0.12009,-0.05096,0.00259,-0.05066,-0.01312,-0.04562,-0.01785,-0.01312,-0.01572,-0.01617,-0.00626,-0.00015,-0.06104,-0.00549,-0.0502,-0.03891
6.773,-0.11551,-0.06546,0.00153,-0.05737,-0.01221,-0.04211,-0.01572,-0.00824,-0.01556,-0.01617,-0.0061,0.0,-0.05325,-0.00671,-0.04684,-0.03769
6.7735,-0.10986,-0.06561,-0.00061,-0.05997,-0.0119,-0.03845,-0.01221,0.00092,-0.01389,-0.01648,-0.00885,0.0,-0.04593,-0.00946,-0.04532,-0.03525
6.774,-0.10132,-0.06088,-0.00259,-0.05295,-0.00961,-0.03601,-0.00961,0.0119,-0.01175,-0.01694,-0.01129,0.00046,-0.04242,-0.01175,-0.03052,-0.03281
6.7745,-0.09277,-0.0589,-0.01007,-0.03723,-0.00839,-0.03525,-0.00961,0.0174,-0.01099,-0.01755,-0.00931,0.0,-0.04181,-0.01419,0.01724,-0.03052
6.775,-0.08804,-0.06058,-0.02411,-0.01663,-0.01068,-0.03433,-0.01099,0.01282,-0.01114,-0.01785,-0.00595,0.00031,-0.04074,-0.01678,0.10254,-0.02808
6.7755,-0.08514,-0.06638,-0.0415,0.00031,-0.01389,-0.03448,-0.01129,0.00214,-0.01419,-0.01572,-0.00473,0.00015,-0.0383,-0.02136,0.17349,-0.02716
6.776,-0.07736,-0.07233,-0.05402,0.00885,-0.01663,-0.03189,-0.01038,-0.00458,-0.01678,-0.01587,-0.00717,0.00031,-0.03662,-0.02487,0.17288,-0.0264
6.7765,-0.06561,-0.07828,-0.05692,0.00854,-0.01831,-0.02457,-0.00961,-0.00702,-0.01587,-0.01434,-0.00961,-0.00015,-0.03815,-0.02457,0.10529,-0.0267
6.777,-0.05386,-0.08087,-0.05173,0.00412,-0.01846,-0.01328,-0.01434,-0.01373,-0.01404,-0.01465,-0.00977,-0.00031,-0.04379,-0.02319,0.03235,-0.02701
6.7775,-0.04593,-0.07904,-0.0444,0.00137,-0.01724,-0.00412,-0.02335,-0.02808,-0.01251,-0.01572,-0.00931,0.00046,-0.05264,-0.02136,-0.00687,-0.02716
6.778,-0.04044,-0.07629,-0.03845,0.00076,-0.01709,-0.00381,-0.02731,-0.04578,-0.01205,-0.01724,-0.00961,0.00061,-0.05859,-0.02075,-0.03403,-0.02518
6.7785,-0.03815,-0.08026,-0.03296,0.00168,-0.0209,-0.0119,-0.02701,-0.05661,-0.01312,-0.01831,-0.01266,-0.00076,-0.05966,-0.01938,-0.07156,-0.02335
6.779,-0.03769,-0.09964,-0.02853,0.00229,-0.02594,-0.01984,-0.02716,-0.05325,-0.01465,-0.01831,-0.01648,-0.00198,-0.0563,-0.01862,-0.08957,-0.02213
6.7795,-0.03555,-0.13351,-0.02731,0.00443,-0.02747,-0.02609,-0.03174,-0.03754,-0.01511,-0.01785,-0.0177,-0.00092,-0.04898,-0.0177,-0.05508,-0.02182
6.78,-0.0293,-0.16968,-0.02869,0.00656,-0.02548,-0.0351,-0.03448,-0.01923,-0.01556,-0.01678,-0.01724,0.00168,-0.03998,-0.01678,0.00473,-0.02304
6.7805,-0.02304,-0.19333,-0.03326,0.00809,-0.02594,-0.05386,-0.03403,-0.00702,-0.01678,-0.01663,-0.0177,0.0032,-0.02838,-0.01709,0.03433,-0.0238
6.781,-0.02228,-0.19577,-0.03433,0.00763,-0.02777,-0.08011,-0.03464,-0.00031,-0.01755,-0.01694,-0.01862,0.00366,-0.01602,-0.01709,0.02228,-0.02411
6.7815,-0.03586,-0.17319,-0.03006,0.00458,-0.0264,-0.10284,-0.03494,0.00412,-0.01785,-0.01648,-0.01755,0.00458,-0.00656,-0.01633,0.00443,-0.0238
6.782,-0.07156,-0.13702,-0.02228,-0.00092,-0.01114,-0.10178,-0.03036,0.00687,-0.01755,-0.01633,-0.01663,0.00488,-0.00427,-0.01633,0.00137,-0.02411
6.7825,-0.11795,-0.10025,-0.01602,-0.00565,0.01709,-0.07675,-0.02258,0.00397,-0.0177,-0.0177,-0.01709,0.0058,-0.00839,-0.01846,0.0061,-0.02518
6.783,-0.14633,-0.06973,-0.01358,-0.00702,0.04333,-0.05188,-0.02045,-0.00824,-0.0177,-0.01785,-0.01785,0.00687,-0.01465,-0.02075,0.00534,-0.0264
6.7835,-0.14206,-0.04852,-0.01205,-0.00412,0.05234,-0.05142,-0.02701,-0.02457,-0.01785,-0.01755,-0.01953,0.01099,-0.02136,-0.02319,0.00305,-0.02625
6.784,-0.12421,-0.03342,-0.00839,0.00061,0.03952,-0.07141,-0.03555,-0.03799,-0.0177,-0.01724,-0.01999,0.01541,-0.0293,-0.02426,0.00183,-0.02533
6.7845,-0.11261,-0.02136,-0.00397,0.00427,0.01343,-0.08789,-0.03632,-0.04532,-0.0174,-0.0174,-0.01923,0.01556,-0.03891,-0.02548,0.00381,-0.02518
6.785,-0.11246,-0.01053,-0.00305,0.00519,-0.01816,-0.09079,-0.03021,-0.04929,-0.01694,-0.01801,-0.01877,0.00854,-0.04578,-0.02396,0.00626,-0.02518
6.7855,-0.12817,0.00443,-0.00351,0.00732,-0.05142,-0.08652,-0.0235,-0.04852,-0.01617,-0.01862,-0.01862,-0.0032,-0.04623,-0.02014,0.00732,-0.02747
6.786,-0.17197,0.02823,-0.00061,0.01144,-0.08377,-0.08301,-0.01984,-0.04318,-0.01434,-0.01846,-0.01907,-0.01663,-0.04303,-0.01801,0.00824,-0.03098
6.7865,-0.23117,0.05737,0.00015,0.01526,-0.10651,-0.07935,-0.01831,-0.03784,-0.01266,-0.01846,-0.01831,-0.02792,-0.03815,-0.01923,0.00854,-0.03342
6.787,-0.26443,0.08209,-0.00977,0.01465,-0.11581,-0.07507,-0.01709,-0.03601,-0.01038,-0.02014,-0.01663,-0.03494,-0.0325,-0.02136,0.00824,-0.0354
6.7875,-0.25269,0.09415,-0.03448,0.00992,-0.10284,-0.07034,-0.01709,-0.03555,-0.00946,-0.02136,-0.01663,-0.03891,-0.02502,-0.02151,0.009,-0.03479
6.788,-0.22095,0.0853,-0.06271,0.00641,-0.06989,-0.06607,-0.01633,-0.03021,-0.00992,-0.02182,-0.01617,-0.03891,-0.01923,-0.01923,0.01083,-0.03464
6.7885,-0.19852,0.056,-0.0856,0.00732,-0.03693,-0.05981,-0.01511,-0.02258,-0.01007,-0.01984,-0.01541,-0.03677,-0.0174,-0.01923,0.01251,-0.0351
6.789,-0.18311,0.01633,-0.09247,0.00931,-0.02426,-0.05249,-0.01328,-0.01953,-0.0119,-0.01801,-0.01373,-0.03174,-0.01648,-0.02075,0.01266,-0.03601
6.7895,-0.1561,-0.01862,-0.07278,0.00732,-0.03189,-0.04623,-0.01236,-0.02396,-0.01312,-0.0177,-0.01389,-0.01785,-0.0148,-0.02213,0.01251,-0.03571
6.79,-0.1181,-0.04333,-0.03098,-0.00046,-0.0354,-0.04196,-0.01328,-0.0325,-0.01205,-0.01984,-0.01724,0.01312,-0.01541,-0.02243,0.01297,-0.03632
6.7905,-0.08377,-0.06424,0.00885,-0.00946,-0.02396,-0.03708,-0.0145,-0.04074,-0.00793,-0.02151,-0.01877,0.0531,-0.01938,-0.02167,0.01236,-0.03647
6.791,-0.05676,-0.08286,0.02563,-0.01343,-0.00076,-0.03326,-0.01694,-0.04486,-0.00427,-0.02243,-0.01846,0.06561,-0.02487,-0.02228,0.0116,-0.03769
6.7915,-0.02975,-0.09476,0.02136,-0.01389,0.02716,-0.0325,-0.02014,-0.04639,-0.00107,-0.02182,-0.01663,0.03159,-0.0264,-0.02258,0.0116,-0.03784
6.792,0.00366,-0.09598,0.01144,-0.01556,0.05554,-0.03723,-0.02319,-0.04593,0.00015,-0.01999,-0.01556,-0.02197,-0.02396,-0.02319,0.0119,-0.0383
6.7925,0.03983,-0.08759,0.00122,-0.01816,0.07874,-0.04166,-0.0238,-0.04639,0.00107,-0.01938,-0.01572,-0.06256,-0.02106,-0.02335,0.01312,-0.03922
6.793,0.06912,-0.07248,-0.01022,-0.01709,0.0885,-0.03891,-0.02167,-0.04715,0.00244,-0.0177,-0.01572,-0.09705,-0.02151,-0.02258,0.0145,-0.0412
6.7935,0.08942,-0.05249,-0.01709,-0.0145,0.07889,-0.03098,-0.02014,-0.04684,0.00443,-0.01877,-0.01495,-0.14175,-0.0238,-0.02167,0.0119,-0.0444
6.794,0.1033,-0.03342,-0.01724,-0.01495,0.04959,-0.0238,-0.01892,-0.04471,0.00763,-0.0174,-0.01495,-0.17334,-0.02625,-0.02075,0.009,-0.04593
6.7945,0.1178,-0.02563,-0.01862,-0.01831,0.00793,-0.02411,-0.01617,-0.04135,0.01038,-0.01694,-0.01495,-0.15411,-0.02686,-0.02106,0.00809,-0.04547
6.795,0.13626,-0.02838,-0.03433,-0.01801,-0.04059,-0.02823,-0.01297,-0.03632,0.01328,-0.01495,-0.01495,-0.07492,-0.02777,-0.02106,0.00824,-0.04456
6.7955,0.15625,-0.03326,-0.06622,-0.01114,-0.09125,-0.03098,-0.0116,-0.03189,0.0116,-0.01526,-0.0148,0.03891,-0.02914,-0.0206,0.00626,-0.04272
6.796,0.17105,-0.03143,-0.10376,-0.00153,-0.14145,-0.02731,-0.0145,-0.02869,0.00732,-0.01877,-0.01511,0.15564,-0.03036,-0.01923,0.00259,-0.04105
6.7965,0.17715,-0.02548,-0.1265,0.00458,-0.17929,-0.02197,-0.02136,-0.02701,0.00427,-0.02106,-0.0177,0.233,-0.03082,-0.01724,0.00153,-0.03998
6.797,0.1741,-0.02106,-0.12329,0.00732,-0.18219,-0.01877,-0.02563,-0.02548,0.0032,-0.02289,-0.02029,0.23178,-0.03052,-0.01526,0.00275,-0.04105
6.7975,0.16373,-0.02335,-0.10178,0.01236,-0.1384,-0.02182,-0.02411,-0.02213,0.00214,-0.02579,-0.02136,0.15518,-0.03006,-0.01373,0.0058,-0.04166
6.798,0.15015,-0.0293,-0.07477,0.0209,-0.0737,-0.02914,-0.01984,-0.01694,0.00046,-0.02655,-0.02121,0.0798,-0.0296,-0.01343,0.00839,-0.04074
6.7985,0.13809,-0.03662,-0.05234,0.02747,-0.02716,-0.04074,-0.01801,-0.0087,-0.00473,-0.02579,-0.02151,0.08591,-0.03036,-0.01541,0.00839,-0.04028
6.799,0.13092,-0.04456,-0.03326,0.02533,-0.01312,-0.0499,-0.01938,-0.00168,-0.01358,-0.0238,-0.02243,0.15015,-0.03189,-0.01801,0.00778,-0.04059
6.7995,0.12695,-0.05096,-0.01816,0.01266,-0.01831,-0.05371,-0.02335,0.0,-0.02441,-0.02136,-0.02274,0.16235,-0.03235,-0.01923,0.00809,-0.04196
6.8,0.12344,-0.0563,-0.009,-0.00031,-0.02411,-0.05569,-0.02655,-0.00214,-0.03632,-0.02029,-0.02182,0.065,-0.03159,-0.01831,0.00992,-0.04318
6.8005,0.12253,-0.06104,-0.00519,-0.00259,-0.02609,-0.05539,-0.02365,-0.00488,-0.05096,-0.02014,-0.0206,-0.08636,-0.03021,-0.01801,0.00961,-0.04501
6.801,0.12894,-0.0676,-0.00549,0.00443,-0.02502,-0.05142,-0.01648,-0.0058,-0.0679,-0.01831,-0.01999,-0.18799,-0.02975,-0.0177,0.00641,-0.04623
6.8015,0.13901,-0.07965,-0.00702,0.01099,-0.0238,-0.0444,-0.0116,-0.00992,-0.08286,-0.0174,-0.02075,-0.18051,-0.0296,-0.01755,0.00381,-0.04669
6.802,0.14374,-0.10117,-0.00732,0.00885,-0.02487,-0.04349,-0.01358,-0.02151,-0.0914,-0.01846,-0.02151,-0.0798,-0.03098,-0.01846,0.00076,-0.0473
6.8025,0.13519,-0.12665,-0.00427,0.00153,-0.02792,-0.04944,-0.02045,-0.0354,-0.09048,-0.01831,-0.02197,0.05402,-0.03113,-0.01968,-0.0032,-0.04715
6.803,0.09888,-0.14114,0.00137,-0.0061,-0.02716,-0.05447,-0.02563,-0.0412,-0.08102,-0.0174,-0.02014,0.16769,-0.03052,-0.01968,-0.00443,-0.04623
6.8035,0.0058,-0.13123,0.0,-0.01221,-0.02289,-0.05249,-0.02716,-0.0415,-0.06317,-0.01587,-0.01724,0.23132,-0.03082,-0.01617,-0.00107,-0.04456
6.804,-0.14618,-0.09583,-0.01434,-0.01984,-0.01633,-0.04593,-0.02533,-0.04395,-0.04303,-0.01511,-0.01373,0.22461,-0.03204,-0.00946,0.00549,-0.04013
6.8045,-0.29572,-0.04761,-0.03525,-0.02792,-0.01328,-0.04242,-0.02075,-0.04959,-0.02808,-0.01602,-0.01389,0.13733,-0.03357,-0.00305,0.0119,-0.0386
6.805,-0.36682,-0.00549,-0.05371,-0.03555,-0.01556,-0.04364,-0.01556,-0.05051,-0.02121,-0.01678,-0.0174,-0.01358,-0.03281,-0.0029,0.01526,-0.03525
6.8055,-0.35645,0.01404,-0.06165,-0.04303,-0.0206,-0.04456,-0.01312,-0.04242,-0.0209,-0.0174,-0.01923,-0.15091,-0.03021,-0.01068,0.01648,-0.03235
6.806,-0.32608,0.01175,-0.06134,-0.05142,-0.02441,-0.04379,-0.01373,-0.03357,-0.02151,-0.01755,-0.01938,-0.17075,-0.02731,-0.01984,0.01755,-0.02914
6.8065,-0.32288,0.00153,-0.05722,-0.05768,-0.02792,-0.04807,-0.01541,-0.02808,-0.0238,-0.01816,-0.01801,-0.03586,-0.0264,-0.02258,0.01877,-0.02823
6.807,-0.33783,-0.00366,-0.05386,-0.05707,-0.03281,-0.05753,-0.02243,-0.02197,-0.02609,-0.01709,-0.01678,0.15503,-0.02792,-0.01999,0.02167,-0.03204
6.8075,-0.3421,-0.00458,-0.05081,-0.04791,-0.04089,-0.06485,-0.03632,-0.01129,-0.02686,-0.01892,-0.01633,0.23834,-0.02869,-0.0177,0.02411,-0.03342
6.808,-0.32623,-0.00778,-0.04532,-0.03906,-0.0531,-0.06516,-0.047,-0.00351,-0.0206,-0.02014,-0.01755,0.1474,-0.02823,-0.01831,0.02533,-0.03647
6.8085,-0.298,-0.01389,-0.03937,-0.04166,-0.06683,-0.06226,-0.04303,-0.00809,-0.01465,-0.02151,-0.01907,-0.02991,-0.02777,-0.02029,0.02106,-0.03922
6.809,-0.26642,-0.01968,-0.03357,-0.0563,-0.07462,-0.0621,-0.02762,-0.02121,-0.0116,-0.02182,-0.01999,-0.16266,-0.02838,-0.02045,0.01404,-0.04211
6.8095,-0.23178,-0.01968,-0.02655,-0.07065,-0.07034,-0.06149,-0.01617,-0.0322,-0.01099,-0.02182,-0.01862,-0.19455,-0.02792,-0.01999,0.00961,-0.04379
6.81,-0.19333,-0.01083,-0.01785,-0.07355,-0.05554,-0.05875,-0.01755,-0.03326,-0.00931,-0.02121,-0.01572,-0.16083,-0.02762,-0.01999,0.00748,-0.04379
6.8105,-0.1532,-0.00229,-0.00793,-0.06119,-0.04089,-0.056,-0.02365,-0.02716,-0.00946,-0.02075,-0.0148,-0.13474,-0.03113,-0.02243,0.0058,-0.04349
6.811,-0.1178,-0.01114,0.00015,-0.03448,-0.03494,-0.05341,-0.02304,-0.01801,-0.01343,-0.02075,-0.01572,-0.16174,-0.03952,-0.0267,-0.00183,-0.04425
6.8115,-0.09201,-0.04333,-0.00015,-0.00534,-0.03601,-0.05493,-0.01587,-0.00885,-0.0206,-0.02106,-0.01724,-0.19974,-0.04639,-0.02991,-0.01633,-0.04425
6.812,-0.07568,-0.07523,-0.01099,0.01251,-0.0386,-0.0589,-0.0119,-0.00427,-0.02411,-0.02106,-0.01663,-0.16312,-0.04639,-0.02838,-0.03067,-0.0473
6.8125,-0.06317,-0.08194,-0.02716,0.01114,-0.03845,-0.06058,-0.0148,-0.00626,-0.02411,-0.01984,-0.01404,-0.04425,-0.04303,-0.02243,-0.03448,-0.0499
6.813,-0.04623,-0.06561,-0.0354,0.00336,-0.03784,-0.05814,-0.01877,-0.00961,-0.02167,-0.01831,-0.01221,0.06424,-0.04196,-0.01862,-0.03098,-0.05295
6.8135,-0.02441,-0.05081,-0.03296,0.00427,-0.03845,-0.056,-0.01907,-0.00931,-0.01907,-0.01755,-0.01328,0.09445,-0.04395,-0.01923,-0.02396,-0.05356
6.814,-0.00366,-0.04929,-0.03021,0.00809,-0.03952,-0.0563,-0.01709,-0.00641,-0.01602,-0.01923,-0.01556,0.06958,-0.04486,-0.02136,-0.01846,-0.05478
6.8145,0.0087,-0.05264,-0.04456,0.00168,-0.04013,-0.05936,-0.01648,-0.00534,-0.0119,-0.01923,-0.01617,0.03586,-0.04257,-0.02319,-0.01541,-0.05478
6.815,0.01495,-0.05096,-0.0766,-0.01312,-0.03906,-0.05798,-0.01862,-0.00504,-0.01114,-0.01816,-0.01617,0.0029,-0.04059,-0.02441,-0.01175,-0.05493
6.8155,0.01999,-0.04547,-0.11139,-0.02258,-0.0386,-0.04929,-0.02014,-0.00366,-0.01495,-0.01694,-0.01709,-0.02563,-0.03906,-0.02563,0.01022,-0.0531
6.816,0.02869,-0.04272,-0.12894,-0.01907,-0.03738,-0.03693,-0.01953,0.00031,-0.01678,-0.01617,-0.01907,-0.02838,-0.03754,-0.02548,0.05005,-0.05188
6.8165,0.04272,-0.04608,-0.12558,-0.01068,-0.03403,-0.03113,-0.01877,0.00885,-0.01282,-0.01709,-0.02243,0.00076,-0.03494,-0.02502,0.08102,-0.04959
6.817,0.06638,-0.05661,-0.11383,-0.01144,-0.02686,-0.0354,-0.02304,0.01953,-0.00488,-0.01694,-0.0235,0.03052,-0.03174,-0.02243,0.08514,-0.05051
6.8175,0.10559,-0.07431,-0.11673,-0.01862,-0.01816,-0.0473,-0.03677,0.0296,0.00031,-0.01846,-0.02167,0.03326,-0.03006,-0.01663,0.06592,-0.05081
6.818,0.16571,-0.09018,-0.13657,-0.02411,-0.0119,-0.05447,-0.05463,0.03448,-0.00107,-0.01831,-0.01953,0.02136,-0.03067,-0.01144,0.03967,-0.04883
6.8185,0.23621,-0.09537,-0.14755,-0.02243,-0.01053,-0.05249,-0.06638,0.03906,-0.00565,-0.01877,-0.01877,0.01404,-0.03174,-0.01114,0.01678,-0.04684
6.819,0.29129,-0.08698,-0.12253,-0.01984,-0.01266,-0.04791,-0.07111,0.0473,-0.00671,-0.01678,-0.0206,0.01358,-0.03082,-0.01343,0.00381,-0.04578
6.8195,0.31219,-0.07172,-0.06516,-0.01862,-0.01831,-0.04593,-0.07477,0.0618,-0.00504,-0.01495,-0.02319,0.01419,-0.02869,-0.01495,0.00046,-0.04486
6.82,0.31036,-0.0589,-0.00275,-0.01984,-0.02655,-0.04776,-0.08133,0.07843,-0.00397,-0.01434,-0.02396,0.0119,-0.0264,-0.0145,0.00153,-0.04318
6.8205,0.30991,-0.05249,0.04471,-0.02258,-0.03738,-0.04776,-0.08194,0.09109,-0.00595,-0.0145,-0.02167,0.00504,-0.02701,-0.01572,0.00214,-0.04105
6.821,0.3186,-0.04852,0.07919,-0.02243,-0.05203,-0.04654,-0.06897,0.09308,-0.00748,-0.01465,-0.01953,0.00931,-0.02975,-0.01831,0.00168,-0.03983
6.8215,0.32608,-0.0444,0.1004,-0.01785,-0.06882,-0.0444,-0.04227,0.0705,-0.00748,-0.01312,-0.0177,0.04501,-0.03403,-0.02197,0.00046,-0.04135
6.822,0.32654,-0.03616,0.0882,-0.01175,-0.07935,-0.04272,-0.01175,0.01572,-0.00702,-0.0116,-0.01602,0.09918,-0.03708,-0.02335,-0.00534,-0.04257
6.8225,0.32303,-0.02502,0.02518,-0.00793,-0.0737,-0.04089,0.00244,-0.05295,-0.00885,-0.01068,-0.0145,0.12131,-0.03738,-0.02335,-0.02136,-0.04379
6.823,0.31921,-0.01373,-0.0621,-0.00504,-0.05692,-0.04059,-0.01495,-0.10025,-0.01053,-0.009,-0.01251,0.07782,-0.03754,-0.02289,-0.04196,-0.04196
6.8235,0.3125,-0.00534,-0.11459,-0.00122,-0.04074,-0.04288,-0.02686,-0.09857,-0.01022,-0.009,-0.01175,-0.00336,-0.03784,-0.02365,-0.05844,-0.04196
6.824,0.30243,-0.00244,-0.10178,0.00534,-0.03403,-0.04471,0.02563,-0.05676,-0.01099,-0.00946,-0.01114,-0.05127,-0.03967,-0.02426,-0.06134,-0.04395
6.8245,0.29068,-0.00244,-0.04532,0.00931,-0.03418,-0.04562,0.12619,-0.00885,-0.01404,-0.00977,-0.01297,-0.01572,-0.04166,-0.0238,-0.05341,-0.0473
6.825,0.28,-0.00458,0.01343,0.01144,-0.03494,-0.04654,0.16769,0.01907,-0.02029,-0.00946,-0.01312,0.07538,-0.04349,-0.02319,-0.04013,-0.04684
6.8255,0.26657,-0.00992,0.05875,0.01114,-0.03601,-0.04593,0.09293,0.02518,-0.0235,-0.00992,-0.01495,0.12512,-0.04532,-0.02258,-0.02899,-0.04379
6.826,0.25116,-0.02182,0.09155,0.00931,-0.03555,-0.04532,-0.0145,0.02136,-0.02411,-0.01236,-0.01465,0.06561,-0.04578,-0.02319,-0.00534,-0.04288
6.8265,0.233,-0.03799,0.10742,0.00595,-0.03418,-0.0441,-0.04166,0.01602,-0.02029,-0.01633,-0.01266,-0.0621,-0.04547,-0.0238,0.0528,-0.04333
6.827,0.21576,-0.0528,0.0972,0.00183,-0.03113,-0.04318,-0.00076,0.01343,-0.01587,-0.01984,-0.00961,-0.15381,-0.04303,-0.02502,0.13321,-0.04517
6.8275,0.20401,-0.05783,0.07065,-0.00183,-0.02899,-0.04364,0.01862,0.01587,-0.01404,-0.02258,-0.00687,-0.1564,-0.04044,-0.02579,0.1738,-0.04501
6.828,0.19653,-0.05203,0.0412,-0.00412,-0.02945,-0.04395,-0.00488,0.02319,-0.01465,-0.02487,-0.00763,-0.09918,-0.03876,-0.02563,0.1326,-0.04364
6.8285,0.18967,-0.04349,0.01862,-0.00427,-0.03006,-0.04379,-0.01694,0.03235,-0.0174,-0.02457,-0.01007,-0.03616,-0.03723,-0.02579,0.04898,-0.04272
6.829,0.1799,-0.03738,-0.00595,-0.00275,-0.02899,-0.04242,-0.00031,0.03983,-0.01999,-0.02548,-0.01221,0.00687,-0.03693,-0.02548,-0.00458,-0.04166
6.8295,0.16693,-0.03403,-0.05859,-0.00168,-0.02747,-0.04044,0.00366,0.0444,-0.01999,-0.02655,-0.01343,0.02518,-0.03906,-0.0238,-0.00717,-0.0415
6.83,0.15579,-0.03281,-0.15701,-0.00137,-0.02808,-0.03845,-0.0177,0.04684,-0.01999,-0.02823,-0.01465,0.01144,-0.04074,-0.01923,0.00931,-0.04105
6.8305,0.14664,-0.0322,-0.25925,-0.00305,-0.03113,-0.03799,-0.02502,0.04578,-0.0209,-0.02838,-0.01709,-0.0293,-0.04074,-0.0145,0.01816,-0.04227
6.831,0.13824,-0.03113,-0.28275,-0.00717,-0.03387,-0.03998,-0.00107,0.04272,-0.02213,-0.02762,-0.01984,-0.07202,-0.03967,-0.01114,0.02258,-0.04395
6.8315,0.12772,-0.02747,-0.19852,-0.01175,-0.03418,-0.0415,0.01953,0.0412,-0.0238,-0.02686,-0.01968,-0.09155,-0.0412,-0.01083,0.03098,-0.04471
6.832,0.11551,-0.02106,-0.07904,-0.01587,-0.03372,-0.04379,0.00519,0.03967,-0.02441,-0.02548,-0.01663,-0.08423,-0.04227,-0.01312,0.03998,-0.04532
6.8325,0.10391,-0.01404,-0.01785,-0.01373,-0.03372,-0.04501,-0.02747,0.03693,-0.0235,-0.02502,-0.01282,-0.05692,-0.0386,-0.01556,0.03754,-0.04486
6.833,0.0943,-0.00763,-0.02075,-0.00244,-0.03387,-0.04669,-0.04608,0.0322,-0.02411,-0.02441,-0.00885,-0.0177,-0.03372,-0.0177,0.0209,-0.04318
6.8335,0.08591,-0.00763,-0.03326,0.00824,-0.03464,-0.04868,-0.04364,0.02563,-0.02686,-0.02548,-0.00961,0.02243,-0.03189,-0.01892,-0.00687,-0.04044
6.834,0.07568,-0.01556,-0.01266,0.0087,-0.0354,-0.05112,-0.0325,0.01709,-0.02869,-0.02518,-0.0119,0.05066,-0.03494,-0.02014,-0.04242,-0.03922
6.8345,0.0618,-0.02792,0.01999,-0.00214,-0.03265,-0.05341,-0.01816,0.01129,-0.02914,-0.02304,-0.0145,0.0589,-0.0415,-0.01953,-0.08163,-0.04044
6.835,0.04578,-0.03845,0.03418,-0.01373,-0.02731,-0.05554,0.00092,0.00977,-0.02777,-0.02228,-0.01556,0.04822,-0.04791,-0.01831,-0.11566,-0.04166
6.8355,0.03159,-0.04883,0.03372,-0.02045,-0.01877,-0.0563,0.02716,0.01068,-0.02701,-0.0238,-0.01648,0.02838,-0.04852,-0.01831,-0.12955,-0.04013
6.836,0.02274,-0.06165,0.0412,-0.0267,-0.01434,-0.05356,0.04959,0.01251,-0.02838,-0.02563,-0.01495,0.01434,-0.04364,-0.01892,-0.10956,-0.0383
6.8365,0.02136,-0.07843,0.06302,-0.03159,-0.01495,-0.05112,0.05569,0.01129,-0.03113,-0.02548,-0.01328,0.00946,-0.03571,-0.01862,-0.05554,-0.03845
6.837,0.02533,-0.09796,0.08179,-0.03159,-0.0206,-0.04974,0.04272,0.00992,-0.03357,-0.02243,-0.0119,0.00595,-0.02716,-0.01572,0.02243,-0.04013
6.8375,0.02823,-0.12115,0.07599,-0.02548,-0.02701,-0.05203,0.02014,0.01068,-0.03464,-0.01953,-0.01251,-0.00793,-0.02335,-0.01328,0.09964,-0.04074
6.838,0.0264,-0.14175,0.04837,-0.01862,-0.02975,-0.056,0.00198,0.01083,-0.03296,-0.01953,-0.01541,-0.03159,-0.02106,-0.01328,0.14191,-0.03998
6.8385,0.02213,-0.15213,0.01999,-0.02045,-0.0325,-0.05905,-0.00824,0.00931,-0.02869,-0.01907,-0.01755,-0.05478,-0.02228,-0.01404,0.12817,-0.03876
6.839,0.01724,-0.14725,0.00778,-0.03708,-0.0415,-0.05905,-0.01205,0.00656,-0.02441,-0.01923,-0.01816,-0.07278,-0.02594,-0.01602,0.0766,-0.03906
6.8395,0.0116,-0.12238,0.00076,-0.06241,-0.06226,-0.0563,-0.01266,0.00641,-0.02136,-0.01968,-0.01572,-0.09705,-0.02838,-0.01633,0.02243,-0.03998
6.84,0.00336,-0.07919,-0.01755,-0.08209,-0.08179,-0.05203,-0.01221,0.009,-0.02045,-0.01816,-0.01251,-0.13748,-0.02914,-0.01678,-0.00031,-0.03906
6.8405,-0.00793,-0.03143,-0.04868,-0.08255,-0.0827,-0.047,-0.01129,0.01068,-0.02014,-0.01709,-0.00931,-0.17136,-0.02853,-0.01678,0.00198,-0.03815
6.841,-0.0206,0.00671,-0.07477,-0.06531,-0.06073,-0.04135,-0.01205,0.00885,-0.01816,-0.01678,-0.01114,-0.16098,-0.02716,-0.01755,0.00809,-0.03815
6.8415,-0.03464,0.0325,-0.08072,-0.0415,-0.03677,-0.03723,-0.01129,0.00534,-0.01633,-0.01663,-0.01221,-0.09293,-0.0267,-0.01846,0.00458,-0.03906
6.842,-0.04715,0.04868,-0.07126,-0.02029,-0.03311,-0.03845,-0.00916,0.00473,-0.01572,-0.01648,-0.01266,0.01755,-0.02548,-0.01785,-0.00183,-0.03998
6.8425,-0.05463,0.05707,-0.06042,-0.00427,-0.0412,-0.04501,-0.00748,0.00748,-0.01816,-0.01633,-0.01572,0.13611,-0.0267,-0.01846,-0.0032,-0.04211
6.843,-0.05707,0.05722,-0.05478,0.00565,-0.03571,-0.05264,-0.00671,0.01175,-0.01831,-0.01602,-0.01648,0.215,-0.02686,-0.01984,-0.00015,-0.0444
6.8435,-0.05814,0.05081,-0.05463,0.00946,-0.01205,-0.05463,-0.00748,0.01541,-0.0174,-0.01572,-0.01587,0.22064,-0.02609,-0.01938,0.00305,-0.04623
6.844,-0.06012,0.03815,-0.05722,0.01144,0.009,-0.05325,-0.00977,0.01755,-0.01724,-0.01663,-0.01633,0.15198,-0.02518,-0.0174,0.00458,-0.04669
6.8445,-0.06531,0.0174,-0.05981,0.02075,0.00824,-0.05295,-0.0119,0.0177,-0.0177,-0.01602,-0.01633,0.06287,-0.02609,-0.01633,0.00397,-0.04578
6.845,-0.06882,-0.00977,-0.05936,0.03525,-0.0087,-0.05325,-0.01389,0.01465,-0.01862,-0.01617,-0.01541,0.01938,-0.03098,-0.01556,0.00595,-0.04456
6.8455,-0.07233,-0.03952,-0.05844,0.04044,-0.02365,-0.05249,-0.01694,0.01068,-0.01801,-0.01648,-0.0148,0.03082,-0.03876,-0.01602,0.00732,-0.04425
6.846,-0.07645,-0.06073,-0.06165,0.02563,-0.02731,-0.04898,-0.01968,0.00702,-0.01648,-0.0177,-0.01434,0.04486,-0.04456,-0.01678,0.00809,-0.04288
6.8465,-0.08087,-0.06653,-0.07324,-0.00183,-0.02426,-0.04547,-0.0235,0.00565,-0.01694,-0.01831,-0.01633,0.02121,-0.04486,-0.01709,0.0087,-0.0412
6.847,-0.08575,-0.0589,-0.08514,-0.02365,-0.01923,-0.04257,-0.02502,0.00473,-0.01831,-0.01892,-0.01572,-0.00275,-0.04288,-0.01816,0.00854,-0.0415
6.8475,-0.08652,-0.04776,-0.09659,-0.03204,-0.01465,-0.03952,-0.02304,0.00305,-0.01877,-0.0206,-0.01282,0.0293,-0.04074,-0.01923,0.00793,-0.04196
6.848,-0.08392,-0.04364,-0.0975,-0.02899,-0.0145,-0.03525,-0.01663,0.00397,-0.01801,-0.02121,-0.01144,0.10223,-0.04044,-0.01984,0.00717,-0.0415
6.8485,-0.08331,-0.0502,-0.08987,-0.0206,-0.02487,-0.03204,-0.00854,0.00656,-0.01801,-0.0209,-0.01205,0.13687,-0.03952,-0.01999,0.00366,-0.03967
6.849,-0.08652,-0.05997,-0.07706,-0.01099,-0.04181,-0.03281,-0.0029,0.00824,-0.01678,-0.01968,-0.01282,0.09506,-0.0383,-0.01999,-0.00031,-0.03967
6.8495,-0.09018,-0.065,-0.06363,-0.00458,-0.05188,-0.03754,-0.00061,0.00748,-0.01404,-0.0174,-0.01312,0.02136,-0.0354,-0.01999,-0.01312,-0.04074
6.85,-0.09048,-0.06409,-0.04791,-0.00183,-0.04654,-0.04425,-0.00366,0.0061,-0.01144,-0.01694,-0.01129,-0.02045,-0.0322,-0.01968,-0.0238,-0.04227
6.8505,-0.09048,-0.06638,-0.03296,-0.00137,-0.03311,-0.04883,-0.01373,0.00595,-0.01022,-0.01648,-0.00854,-0.02121,-0.03235,-0.01907,-0.03204,-0.04288
6.851,-0.0946,-0.08194,-0.01724,-0.00427,-0.02121,-0.05005,-0.02411,0.00839,-0.01038,-0.01617,-0.00916,-0.01221,-0.03448,-0.01846,-0.03326,-0.04196
6.8515,-0.10193,-0.1123,-0.00183,-0.01877,-0.01541,-0.05081,-0.02243,0.00977,-0.01038,-0.01556,-0.00931,-0.01404,-0.03662,-0.01862,-0.03067,-0.04211
6.852,-0.10544,-0.14954,0.01038,-0.05203,-0.01358,-0.05173,-0.01022,0.01144,-0.00885,-0.01694,-0.00916,-0.02243,-0.03586,-0.01938,-0.02625,-0.04196
6.8525,-0.10117,-0.17944,0.01724,-0.08682,-0.01282,-0.05371,-0.00244,0.01144,-0.00885,-0.01724,-0.00824,-0.03021,-0.03448,-0.02182,-0.01587,-0.04364
6.853,-0.09384,-0.18692,0.01938,-0.0827,-0.00763,-0.05508,-0.01022,0.01038,-0.00946,-0.01724,-0.00839,-0.03799,-0.03281,-0.02228,0.01251,-0.04486
6.8535,-0.08804,-0.16312,0.01526,-0.02213,0.00977,-0.05356,-0.02594,0.00641,-0.00992,-0.01556,-0.00992,-0.04517,-0.03189,-0.0206,0.05814,-0.04593
6.854,-0.08759,-0.112,0.00351,0.06058,0.04333,-0.05142,-0.03769,0.00153,-0.0119,-0.01587,-0.01144,-0.04684,-0.03143,-0.01984,0.08972,-0.04532
6.8545,-0.09323,-0.04868,-0.01221,0.11261,0.07721,-0.04837,-0.03967,-0.0029,-0.01511,-0.01572,-0.01099,-0.04333,-0.03159,-0.01953,0.08011,-0.0441
6.855,-0.10849,0.01053,-0.02625,0.11292,0.08163,-0.04532,-0.03479,-0.00549,-0.01724,-0.01663,-0.01129,-0.03891,-0.03052,-0.02121,0.03433,-0.04288
6.8555,-0.13214,0.05707,-0.03876,0.08591,0.03708,-0.04456,-0.02869,-0.00565,-0.0174,-0.01724,-0.01099,-0.03616,-0.02991,-0.02182,-0.00397,-0.04181
6.856,-0.14877,0.09064,-0.04745,0.05814,-0.0412,-0.04715,-0.02335,-0.00244,-0.01678,-0.01801,-0.00961,-0.03311,-0.03159,-0.02228,-0.0119,-0.04135
6.8565,-0.14038,0.10849,-0.05737,0.04196,-0.10468,-0.0473,-0.02075,0.00107,-0.01572,-0.01862,-0.009,-0.02899,-0.03387,-0.02106,0.00351,-0.04303
6.857,-0.10849,0.11047,-0.0708,0.0473,-0.11978,-0.0444,-0.01999,0.00381,-0.01511,-0.01877,-0.01007,-0.02289,-0.0354,-0.01953,0.01801,-0.04486
6.8575,-0.07965,0.09644,-0.08972,0.07477,-0.10635,-0.03998,-0.01877,0.00397,-0.01495,-0.01953,-0.01343,-0.01801,-0.03647,-0.01999,0.0209,-0.04395
6.858,-0.07217,0.07523,-0.09949,0.09445,-0.10773,-0.04135,-0.01755,0.00458,-0.01465,-0.02075,-0.01709,-0.01282,-0.0383,-0.02167,0.01877,-0.04196
6.8585,-0.07721,0.05829,-0.0972,0.06927,-0.12177,-0.04776,-0.01816,0.00656,-0.01312,-0.02213,-0.01709,-0.00763,-0.04105,-0.02319,0.01923,-0.03998
6.859,-0.07355,0.04807,-0.0766,0.00412,-0.10757,-0.05356,-0.02029,0.00778,-0.01221,-0.02136,-0.01434,-0.00458,-0.04333,-0.02258,0.01831,-0.03876
6.8595,-0.05981,0.03876,-0.04929,-0.05707,-0.0502,-0.05508,-0.02075,0.0032,-0.01312,-0.02045,-0.01251,-0.00244,-0.04181,-0.02167,0.01465,-0.03922
6.86,-0.04944,0.02731,-0.03036,-0.09354,0.01236,-0.05142,-0.01968,-0.00916,-0.01358,-0.01892,-0.01175,-0.00214,-0.03754,-0.02075,0.01007,-0.03891
6.8605,-0.04959,0.01572,-0.02579,-0.11642,0.03708,-0.04578,-0.01862,-0.02213,-0.01282,-0.01831,-0.01328,0.0,-0.03433,-0.02106,0.00519,-0.03906
6.861,-0.056,0.00473,-0.02686,-0.1329,0.01999,-0.04349,-0.01923,-0.02792,-0.01053,-0.01816,-0.01373,0.00244,-0.03235,-0.02045,0.00168,-0.03799
6.8615,-0.05707,-0.00748,-0.02731,-0.13214,-0.01373,-0.0473,-0.01923,-0.02594,-0.0087,-0.01892,-0.01404,0.00504,-0.03082,-0.01999,0.00244,-0.03677
6.862,-0.04913,-0.01862,-0.02686,-0.10971,-0.04227,-0.05432,-0.01892,-0.02167,-0.00824,-0.01953,-0.01389,0.00671,-0.03067,-0.01984,0.00397,-0.03784
6.8625,-0.03693,-0.02609,-0.02853,-0.07767,-0.05905,-0.0589,-0.01755,-0.01892,-0.01007,-0.02014,-0.01373,0.00763,-0.03265,-0.02106,0.00687,-0.04044
6.863,-0.03143,-0.02991,-0.03342,-0.05341,-0.0766,-0.05814,-0.01694,-0.0177,-0.01083,-0.01984,-0.01358,0.00763,-0.03448,-0.02213,0.00824,-0.04211
6.8635,-0.03571,-0.03387,-0.04028,-0.04211,-0.10132,-0.05569,-0.01923,-0.01617,-0.00992,-0.01892,-0.01434,0.00778,-0.03387,-0.02228,0.00748,-0.04044
6.864,-0.04196,-0.03708,-0.04501,-0.03799,-0.11719,-0.05447,-0.02502,-0.01236,-0.00916,-0.0174,-0.01495,0.00702,-0.03174,-0.02136,0.00641,-0.03799
6.8645,-0.0444,-0.03937,-0.0499,-0.03571,-0.09918,-0.05478,-0.03235,-0.00641,-0.00992,-0.01709,-0.0177,0.00595,-0.03204,-0.02075,0.00626,-0.03647
6.865,-0.04288,-0.04242,-0.05508,-0.02823,-0.0563,-0.05371,-0.04044,-0.00107,-0.01114,-0.0177,-0.01831,0.00565,-0.03555,-0.02136,0.00565,-0.03586
6.8655,-0.04395,-0.04791,-0.0592,-0.0174,-0.03098,-0.05432,-0.056,0.00305,-0.01083,-0.01907,-0.01816,0.00473,-0.0383,-0.02075,0.00305,-0.0351
6.866,-0.04745,-0.05646,-0.06119,-0.00671,-0.04181,-0.05768,-0.08667,0.01068,-0.00992,-0.01953,-0.01678,0.0061,-0.03754,-0.01877,0.00259,-0.03525
6.8665,-0.05005,-0.06332,-0.06149,-0.00214,-0.06927,-0.06042,-0.13031,0.02472,-0.009,-0.01755,-0.01678,0.00778,-0.03433,-0.01404,0.00031,-0.03616
6.867,-0.05005,-0.06546,-0.05646,-0.00351,-0.09338,-0.06088,-0.17761,0.03372,-0.00809,-0.01724,-0.01831,0.00824,-0.03159,-0.00977,0.00198,-0.03754
6.8675,-0.04959,-0.06622,-0.04959,-0.0061,-0.10544,-0.05859,-0.22644,0.02792,-0.00824,-0.0174,-0.01938,0.00748,-0.02914,-0.01083,-0.00137,-0.03601
6.868,-0.05142,-0.07263,-0.04272,-0.00687,-0.09872,-0.05493,-0.27206,0.01434,-0.00793,-0.01801,-0.01678,0.0061,-0.02716,-0.01572,0.00076,-0.03464
6.8685,-0.05493,-0.08469,-0.03555,-0.00488,-0.07248,-0.05249,-0.29831,0.00778,-0.00839,-0.01755,-0.0148,0.00458,-0.02426,-0.02075,0.00153,-0.03586
6.869,-0.05478,-0.09033,-0.03113,-0.00214,-0.04166,-0.0531,-0.29282,0.01465,-0.009,-0.01663,-0.01236,0.0032,-0.02457,-0.02228,0.00153,-0.03708
6.8695,-0.04837,-0.08331,-0.0264,0.00259,-0.02426,-0.05524,-0.25696,0.02335,-0.00824,-0.01587,-0.00946,0.00305,-0.02457,-0.02075,0.0032,-0.03738
6.87,-0.03906,-0.06653,-0.02426,0.00656,-0.02304,-0.056,-0.18951,0.02151,-0.00717,-0.01434,-0.00839,0.00259,-0.02396,-0.01846,0.00534,-0.03616
6.8705,-0.03067,-0.04822,-0.02548,0.00824,-0.02335,-0.05371,-0.06393,0.00473,-0.00626,-0.01343,-0.00916,0.00137,-0.02075,-0.01678,0.00656,-0.03555
6.871,-0.02762,-0.03494,-0.03906,0.00809,-0.02106,-0.04974,0.10529,-0.01892,-0.00748,-0.01389,-0.00992,-0.00031,-0.01953,-0.01526,0.00488,-0.03647
6.8715,-0.02838,-0.02869,-0.05554,0.00519,-0.01862,-0.0473,0.23682,-0.03693,-0.00763,-0.01541,-0.01114,-0.00092,-0.0206,-0.01526,0.00336,-0.03784
6.872,-0.03082,-0.03067,-0.0618,0.00198,-0.01862,-0.04715,0.28122,-0.03586,-0.00809,-0.01526,-0.01007,-0.00153,-0.02228,-0.01495,0.00473,-0.03632
6.8725,-0.03571,-0.03601,-0.056,-0.00092,-0.01526,-0.04807,0.30014,-0.02014,-0.00748,-0.0148,-0.00961,-0.0029,-0.02365,-0.01511,0.00702,-0.03342
6.873,-0.04074,-0.03983,-0.04028,0.00183,-0.00381,-0.04745,0.3656,-0.00809,-0.00671,-0.01724,-0.01038,-0.00458,-0.02533,-0.01572,0.01053,-0.0322
6.8735,-0.04395,-0.04196,-0.01953,0.01007,0.01022,-0.04364,0.41916,-0.01755,-0.00732,-0.01785,-0.01175,-0.00519,-0.02731,-0.01678,0.01602,-0.03372
6.874,-0.04257,-0.04456,-0.00381,0.01785,0.01968,-0.03723,0.36682,-0.04044,-0.00839,-0.01846,-0.01053,-0.00458,-0.02716,-0.01801,0.02167,-0.03616
6.8745,-0.03677,-0.04883,0.00641,0.01892,0.01877,-0.03052,0.23468,-0.05463,-0.00916,-0.01999,-0.00931,-0.00381,-0.0267,-0.01831,0.02563,-0.03845
6.875,-0.0296,-0.05234,0.01068,0.01419,0.00992,-0.02472,0.13565,-0.05005,-0.01068,-0.02045,-0.00916,-0.00244,-0.02777,-0.01801,0.03281,-0.03891
6.8755,-0.02167,-0.0528,0.00778,0.01038,-0.00336,-0.02319,0.11932,-0.04028,-0.0116,-0.02258,-0.00916,-0.00076,-0.03128,-0.01816,0.03342,-0.03891
6.876,-0.01404,-0.05325,-0.00885,0.01099,-0.02289,-0.02411,0.1413,-0.04135,-0.01282,-0.0238,-0.01129,0.00015,-0.03296,-0.01617,0.04181,-0.03906
6.8765,-0.00916,-0.05707,-0.05112,0.01465,-0.03876,-0.02731,0.13458,-0.05142,-0.01389,-0.02304,-0.01358,-0.00015,-0.03082,-0.01434,0.03952,-0.03998
6.877,-0.00732,-0.06058,-0.112,0.01724,-0.04471,-0.03235,0.07538,-0.05524,-0.01511,-0.02258,-0.01495,-0.00092,-0.02914,-0.01343,0.01938,-0.04181
6.8775,-0.00641,-0.06058,-0.16785,0.01419,-0.04852,-0.04013,-0.00992,-0.04547,-0.01541,-0.02228,-0.01511,-0.00244,-0.02945,-0.01526,0.00214,-0.04242
6.878,-0.00244,-0.06042,-0.17517,0.00504,-0.05417,-0.04822,-0.07309,-0.02899,-0.01404,-0.02365,-0.01389,-0.0032,-0.03067,-0.01694,-0.00549,-0.04242
6.8785,0.00305,-0.06226,-0.11703,-0.00534,-0.06134,-0.05203,-0.08606,-0.02106,-0.01328,-0.02502,-0.01236,-0.00198,-0.03006,-0.0174,0.00168,-0.04288
6.879,0.00504,-0.06577,-0.02472,-0.0145,-0.05768,-0.05447,-0.05844,-0.02304,-0.01282,-0.02487,-0.01358,0.0,-0.02975,-0.01648,-0.02228,-0.04364
6.8795,0.00381,-0.07172,0.05096,-0.02289,-0.04425,-0.056,-0.0293,-0.02869,-0.0145,-0.02457,-0.0148,0.00305,-0.03052,-0.01541,-0.09308,-0.04181
6.88,0.00443,-0.08286,0.10651,-0.0322,-0.03448,-0.05951,-0.01846,-0.02777,-0.01663,-0.02304,-0.01663,0.00259,-0.03082,-0.01511,-0.14343,-0.03906
6.8805,0.00763,-0.09583,0.15305,-0.03906,-0.03098,-0.06699,-0.00687,-0.02304,-0.01587,-0.02319,-0.01648,0.0,-0.03189,-0.01602,-0.11322,-0.03922
6.881,0.01205,-0.10056,0.18143,-0.03662,-0.02823,-0.07278,0.02106,-0.01724,-0.01343,-0.02426,-0.01495,-0.00305,-0.03204,-0.01663,-0.03128,-0.04227
6.8815,0.0148,-0.09293,0.16739,-0.03036,-0.02197,-0.07355,0.04776,-0.01114,-0.01282,-0.02457,-0.01175,-0.00412,-0.03052,-0.01755,0.02151,-0.04425
6.882,0.01724,-0.07706,0.10773,-0.02594,-0.01434,-0.06577,0.04608,-0.00748,-0.01328,-0.02411,-0.00793,-0.00351,-0.02838,-0.0174,0.01053,-0.04471
6.8825,0.02258,-0.05981,0.01907,-0.0264,-0.00748,-0.05173,0.0174,-0.0058,-0.01343,-0.0238,-0.00595,-0.00412,-0.02808,-0.01801,-0.0145,-0.0441
6.883,0.02975,-0.04379,-0.0795,-0.02594,0.00031,-0.03983,-0.01373,-0.00351,-0.01236,-0.02243,-0.00595,-0.00443,-0.02975,-0.01831,-0.00717,-0.04395
6.8835,0.03494,-0.03235,-0.15137,-0.01968,0.00717,-0.03265,-0.03113,-0.00153,-0.01129,-0.02167,-0.00626,-0.00443,-0.03052,-0.0177,0.01953,-0.04395
6.884,0.03601,-0.02823,-0.16327,-0.00916,0.01083,-0.03204,-0.0383,-0.00549,-0.01205,-0.01953,-0.0061,-0.00336,-0.02792,-0.01694,0.03571,-0.04349
6.8845,0.0325,-0.03265,-0.10651,0.00229,0.01022,-0.03464,-0.04456,-0.01694,-0.01358,-0.01572,-0.00824,-0.00565,-0.02609,-0.01801,0.03479,-0.0444
6.885,0.02747,-0.03983,-0.02914,0.00809,0.00549,-0.03418,-0.05096,-0.02853,-0.01373,-0.01328,-0.01007,-0.0087,-0.02686,-0.01907,0.02106,-0.04608
6.8855,0.02457,-0.04745,0.02808,0.00504,-0.00107,-0.02701,-0.05661,-0.03265,-0.0116,-0.01236,-0.00885,-0.01297,-0.02869,-0.01938,0.01465,-0.04761
6.886,0.02502,-0.05417,0.04501,-0.00244,-0.00626,-0.01495,-0.0589,-0.02655,-0.01007,-0.01389,-0.00656,-0.01495,-0.0293,-0.01938,0.00443,-0.04623
6.8865,0.02594,-0.06104,0.03143,-0.00504,-0.01007,-0.00519,-0.05814,-0.01511,-0.01053,-0.01511,-0.00534,-0.01328,-0.02869,-0.01923,-0.00641,-0.04395
6.887,0.02548,-0.06592,-0.00076,-0.00061,-0.01297,-0.0032,-0.05417,-0.00397,-0.01236,-0.0145,-0.00427,-0.01053,-0.02808,-0.01968,-0.01694,-0.04456
6.8875,0.02701,-0.06622,-0.0383,0.00549,-0.0148,-0.00702,-0.05325,0.00381,-0.01251,-0.01251,-0.00565,-0.00763,-0.02914,-0.02045,-0.02487,-0.04684
6.888,0.03052,-0.06348,-0.06363,0.00443,-0.01938,-0.01389,-0.05707,0.00717,-0.01083,-0.01129,-0.00305,-0.00565,-0.02991,-0.02106,-0.01724,-0.04852
6.8885,0.03281,-0.05936,-0.07065,-0.00427,-0.02579,-0.02213,-0.06516,0.00626,-0.009,-0.00977,-0.00366,-0.00519,-0.03128,-0.02045,0.01175,-0.047
6.889,0.0322,-0.05768,-0.05737,-0.01389,-0.02975,-0.02991,-0.07111,0.00366,-0.009,-0.0087,-0.00381,-0.00671,-0.0322,-0.02045,0.04227,-0.04562
6.8895,0.03036,-0.05951,-0.04883,-0.0206,-0.03006,-0.03769,-0.07339,0.00107,-0.00885,-0.00992,-0.00443,-0.00854,-0.03281,-0.02014,0.06088,-0.04593
6.89,0.03128,-0.06317,-0.04837,-0.0235,-0.02777,-0.0444,-0.07568,-0.00168,-0.00885,-0.01358,-0.00397,-0.00977,-0.03372,-0.02014,0.07416,-0.04898
6.8905,0.03418,-0.06531,-0.05859,-0.02106,-0.02701,-0.04761,-0.08041,-0.00519,-0.00992,-0.01694,-0.00504,-0.00992,-0.03418,-0.02075,0.07416,-0.05173
6.891,0.03601,-0.0647,-0.07019,-0.01205,-0.03052,-0.05142,-0.0827,-0.00702,-0.01083,-0.01755,-0.00732,-0.00977,-0.03311,-0.02121,0.05371,-0.05127
6.8915,0.03448,-0.06363,-0.08057,-0.00305,-0.03693,-0.05997,-0.07339,-0.00595,-0.01007,-0.01724,-0.00946,-0.00961,-0.03265,-0.02045,0.0119,-0.04822
6.892,0.03113,-0.06165,-0.07797,-0.00534,-0.04211,-0.07584,-0.04379,-0.00519,-0.00809,-0.0174,-0.00916,-0.0087,-0.03281,-0.01984,-0.03464,-0.04562
6.8925,0.0296,-0.056,-0.07034,-0.01724,-0.04303,-0.09293,-0.00305,-0.00549,-0.00732,-0.01846,-0.00519,-0.00809,-0.03204,-0.01968,-0.04883,-0.04456
6.893,0.0296,-0.04333,-0.06058,-0.02487,-0.04105,-0.10391,0.02182,-0.00458,-0.00977,-0.01923,-0.00519,-0.00641,-0.03052,-0.02121,-0.03464,-0.04456
6.8935,0.02762,-0.02853,-0.06226,-0.02075,-0.03998,-0.10452,0.01144,0.00305,-0.01312,-0.02106,-0.00595,-0.00687,-0.02945,-0.02243,-0.00656,-0.04532
6.894,0.02304,-0.01953,-0.06363,-0.01144,-0.04028,-0.09811,-0.01801,0.01419,-0.01556,-0.02228,-0.00565,-0.00687,-0.03006,-0.02335,0.00916,-0.04547
6.8945,0.01602,-0.01877,-0.05814,-0.00534,-0.04181,-0.08957,-0.03876,0.02075,-0.01633,-0.02182,-0.00854,-0.00793,-0.0322,-0.02274,0.01175,-0.04715
6.895,0.00885,-0.02441,-0.05066,-0.00275,-0.04791,-0.0795,-0.04501,0.02243,-0.0148,-0.02182,-0.00977,-0.00839,-0.03555,-0.02243,0.01495,-0.05066
6.8955,0.00397,-0.03082,-0.04456,0.00381,-0.05615,-0.06714,-0.04822,0.02304,-0.01465,-0.02197,-0.00961,-0.00793,-0.03647,-0.02243,0.02487,-0.05264
6.896,0.00229,-0.03189,-0.03159,0.0174,-0.05753,-0.05844,-0.05096,0.02731,-0.0145,-0.02182,-0.00732,-0.00809,-0.03525,-0.02319,0.03036,-0.05142
6.8965,0.00351,-0.03021,-0.02121,0.02869,-0.04089,-0.06317,-0.04837,0.02975,-0.01358,-0.02243,-0.00595,-0.009,-0.03403,-0.02304,0.02838,-0.04913
6.897,0.00397,-0.03021,-0.01434,0.02975,-0.01923,-0.07645,-0.03647,0.02579,-0.01343,-0.02106,-0.00748,-0.00916,-0.03174,-0.02121,0.02106,-0.04837
6.8975,-0.00046,-0.03494,-0.0238,0.01999,-0.00824,-0.07797,-0.01511,0.01953,-0.01389,-0.02075,-0.01175,-0.00992,-0.0293,-0.01877,0.01694,-0.04944
6.898,-0.00992,-0.03769,-0.0354,0.0116,-0.00702,-0.0592,0.00641,0.01801,-0.01434,-0.01892,-0.01129,-0.00961,-0.02716,-0.01877,0.01923,-0.04883
6.8985,-0.01877,-0.03235,-0.02609,0.01175,-0.00519,-0.03311,0.01465,0.0206,-0.01343,-0.01724,-0.01282,-0.0119,-0.02609,-0.01968,0.01785,-0.04684
6.899,-0.02045,-0.02228,0.00092,0.01541,0.00351,-0.01633,0.00473,0.02472,-0.01251,-0.01602,-0.01251,-0.01236,-0.02609,-0.01984,0.01114,-0.04547
6.8995,-0.01419,-0.01266,0.01907,0.01617,0.01251,-0.00854,-0.00961,0.02869,-0.01251,-0.01633,-0.00961,-0.01129,-0.02625,-0.01801,0.00427,-0.04578
6.9,-0.00504,-0.00748,0.0174,0.01297,0.01465,-0.0032,-0.01373,0.0322,-0.01297,-0.01724,-0.0116,-0.00793,-0.02777,-0.01648,0.00458,-0.04684
6.9005,0.00137,-0.01114,-0.00946,0.01007,0.00549,-0.00549,-0.009,0.0322,-0.01511,-0.01785,-0.01282,-0.009,-0.02853,-0.01541,0.00458,-0.0473
6.901,0.00473,-0.02686,-0.07233,0.00931,-0.00977,-0.02014,-0.00702,0.02594,-0.01602,-0.01755,-0.01175,-0.01923,-0.02823,-0.01617,0.00488,-0.04654
6.9015,0.00641,-0.04883,-0.17227,0.00671,-0.0174,-0.04044,-0.01465,0.01495,-0.01526,-0.01816,-0.01266,-0.0351,-0.02716,-0.01694,0.00656,-0.04532
6.902,0.00458,-0.0621,-0.25406,-0.00412,-0.00595,-0.0528,-0.0235,0.00458,-0.01511,-0.01923,-0.00977,-0.05035,-0.0264,-0.01709,0.01434,-0.04471
6.9025,-0.00229,-0.05768,-0.24094,-0.02518,0.02533,-0.05188,-0.02182,-0.00229,-0.01633,-0.01923,-0.01282,-0.05386,-0.02777,-0.01678,0.02121,-0.04425
6.903,-0.01282,-0.0441,-0.13214,-0.05188,0.06668,-0.0441,-0.01114,-0.00732,-0.0174,-0.01892,-0.00992,-0.04715,-0.03098,-0.01724,0.02563,-0.04562
6.9035,-0.02258,-0.03494,-0.00931,-0.07996,0.09613,-0.03906,-0.00366,-0.01221,-0.01755,-0.01846,-0.00854,-0.03433,-0.03326,-0.01816,0.02625,-0.0473
6.904,-0.02991,-0.03815,0.0618,-0.09995,0.09262,-0.03845,-0.00961,-0.01968,-0.01755,-0.01892,-0.01068,-0.02243,-0.03342,-0.01862,0.02594,-0.04791
6.9045,-0.03281,-0.04745,0.08408,-0.10254,0.04913,-0.03952,-0.02243,-0.0293,-0.0177,-0.02014,-0.01328,-0.01312,-0.03372,-0.01831,0.02029,-0.04578
6.905,-0.03067,-0.05051,0.09537,-0.08972,-0.01175,-0.04089,-0.03159,-0.04074,-0.01724,-0.01999,-0.01419,-0.00519,-0.03494,-0.01892,0.00931,-0.04257
6.9055,-0.02609,-0.04425,0.10071,-0.08499,-0.0589,-0.04425,-0.03326,-0.05051,-0.01862,-0.01984,-0.01556,0.00595,-0.03571,-0.01984,0.00488,-0.04181
6.906,-0.0235,-0.03372,0.08514,-0.10864,-0.08102,-0.04807,-0.03128,-0.05096,-0.02075,-0.01892,-0.01526,0.02106,-0.03601,-0.02106,0.00977,-0.04395
6.9065,-0.02533,-0.02655,0.05112,-0.13947,-0.103,-0.05127,-0.02869,-0.04166,-0.02182,-0.01923,-0.01556,0.0296,-0.03647,-0.02151,0.01724,-0.04471
6.907,-0.02716,-0.02563,0.01419,-0.12054,-0.14877,-0.05264,-0.02747,-0.02884,-0.02243,-0.01984,-0.01602,0.01724,-0.03738,-0.02182,0.02151,-0.04211
6.9075,-0.02609,-0.02869,-0.01526,-0.03586,-0.19577,-0.04807,-0.02731,-0.01938,-0.02258,-0.02106,-0.01755,-0.01419,-0.03922,-0.02197,0.02029,-0.0386
6.908,-0.02426,-0.03021,-0.02563,0.05768,-0.19638,-0.03464,-0.02853,-0.01465,-0.02243,-0.02151,-0.01801,-0.04517,-0.04028,-0.02167,0.01846,-0.03616
6.9085,-0.02365,-0.02594,-0.02014,0.09933,-0.1503,-0.0209,-0.02792,-0.009,-0.02258,-0.02274,-0.0177,-0.05112,-0.04105,-0.02197,0.01556,-0.03693
6.909,-0.01938,-0.01587,-0.01236,0.09964,-0.1059,-0.01999,-0.02609,-0.00046,-0.0209,-0.02213,-0.01602,-0.02991,-0.04166,-0.02274,0.0032,-0.03723
6.9095,-0.0058,-0.00336,-0.01846,0.10345,-0.09247,-0.03067,-0.02319,0.00946,-0.01892,-0.01968,-0.01556,0.01175,-0.0415,-0.02319,-0.01358,-0.03555
6.91,0.01236,0.00275,-0.03174,0.10117,-0.09125,-0.0412,-0.02243,0.01526,-0.01755,-0.01801,-0.0148,0.06241,-0.03952,-0.02289,-0.02625,-0.03448
6.9105,0.02777,0.00061,-0.04852,0.04761,-0.07935,-0.04517,-0.02365,0.01526,-0.0177,-0.0174,-0.01526,0.10345,-0.03799,-0.02182,-0.02335,-0.03433
6.911,0.04013,-0.00809,-0.0502,-0.05142,-0.0563,-0.0444,-0.0235,0.01099,-0.01892,-0.01953,-0.01495,0.12329,-0.03632,-0.0206,-0.01114,-0.03601
6.9115,0.0528,-0.01846,-0.04456,-0.12939,-0.0322,-0.04257,-0.02014,0.00748,-0.01892,-0.01984,-0.01572,0.12558,-0.03555,-0.01968,0.00092,-0.03571
6.912,0.06271,-0.02945,-0.02945,-0.13977,-0.01205,-0.04379,-0.01633,0.00748,-0.01801,-0.01938,-0.01373,0.12238,-0.0354,-0.01984,0.00992,-0.03296
6.9125,0.06424,-0.03937,-0.01724,-0.08591,0.00168,-0.04898,-0.01663,0.00793,-0.01724,-0.01831,-0.01602,0.11444,-0.03677,-0.02151,0.01709,-0.0325
6.913,0.05859,-0.04623,-0.01099,0.01663,0.0061,-0.05844,-0.02075,0.00275,-0.01694,-0.01907,-0.01297,0.09064,-0.03937,-0.02243,0.03357,-0.03311
6.9135,0.05386,-0.05264,-0.01251,0.1326,0.00641,-0.07034,-0.02625,-0.00763,-0.0174,-0.02045,-0.01541,0.0386,-0.03967,-0.02258,0.05692,-0.03403
6.914,0.05417,-0.05875,-0.01617,0.18707,0.01434,-0.07935,-0.0293,-0.0174,-0.01831,-0.02151,-0.01419,-0.02243,-0.03937,-0.02289,0.06836,-0.03525
6.9145,0.05508,-0.06638,-0.02045,0.12177,0.03143,-0.08133,-0.02945,-0.02228,-0.01892,-0.01984,-0.01419,-0.0502,-0.03693,-0.02289,0.0676,-0.0351
6.915,0.05081,-0.07538,-0.01953,-0.00732,0.04776,-0.07248,-0.02975,-0.02319,-0.01938,-0.01801,-0.01602,-0.02762,-0.03494,-0.02151,0.06531,-0.03433
6.9155,0.04105,-0.08682,-0.01465,-0.07843,0.04456,-0.05783,-0.03067,-0.02441,-0.01938,-0.0177,-0.01648,0.00305,-0.03418,-0.0209,0.0621,-0.0325
6.916,0.02716,-0.09689,-0.0116,-0.04364,0.01389,-0.05081,-0.03265,-0.02457,-0.01907,-0.01816,-0.01526,-0.01556,-0.0354,-0.01968,0.04669,-0.03143
6.9165,0.00961,-0.09644,-0.01312,0.03296,-0.04166,-0.05707,-0.03372,-0.02014,-0.01877,-0.01892,-0.01907,-0.07797,-0.03479,-0.01923,0.02121,-0.03189
6.917,-0.01495,-0.08362,-0.02136,0.07507,-0.11246,-0.07034,-0.03326,-0.00793,-0.01801,-0.01923,-0.02151,-0.13,-0.03174,-0.0177,0.00717,-0.03387
6.9175,-0.04089,-0.06561,-0.02884,0.07385,-0.17029,-0.07782,-0.02838,0.00656,-0.01755,-0.01877,-0.01846,-0.13199,-0.02884,-0.01556,0.00656,-0.03494
6.918,-0.05417,-0.05173,-0.03571,0.05356,-0.18753,-0.07324,-0.02228,0.01633,-0.01694,-0.01907,-0.01678,-0.09476,-0.02869,-0.01511,0.00519,-0.03433
6.9185,-0.04395,-0.04684,-0.04135,0.01282,-0.16449,-0.06332,-0.01816,0.01953,-0.01694,-0.01907,-0.01877,-0.05524,-0.02899,-0.01541,-0.00244,-0.03342
6.919,-0.01846,-0.05234,-0.05081,-0.06378,-0.1358,-0.05707,-0.01907,0.01709,-0.0177,-0.01862,-0.01892,-0.03952,-0.02899,-0.01617,-0.01251,-0.0322
6.9195,0.00153,-0.05997,-0.06348,-0.15305,-0.1207,-0.05615,-0.02045,0.00977,-0.01831,-0.01846,-0.01862,-0.05463,-0.02747,-0.01709,-0.01404,-0.03281
6.92,0.00366,-0.05783,-0.07523,-0.19638,-0.10239,-0.05615,-0.02121,-0.00183,-0.01862,-0.01938,-0.01709,-0.08942,-0.02777,-0.01907,-0.01328,-0.0351
6.9205,-0.00473,-0.04608,-0.07813,-0.16876,-0.06821,-0.05447,-0.02029,-0.01114,-0.01831,-0.0206,-0.01511,-0.12207,-0.02899,-0.01984,-0.01511,-0.0386
6.921,-0.00992,-0.03906,-0.08209,-0.10498,-0.03403,-0.05173,-0.01831,-0.00931,-0.0177,-0.01846,-0.01755,-0.1326,-0.0296,-0.01984,-0.0145,-0.04074
6.9215,-0.00656,-0.03967,-0.09384,-0.0528,-0.01892,-0.05051,-0.01419,0.00397,-0.01724,-0.01602,-0.01694,-0.11444,-0.0296,-0.01862,0.00717,-0.04257
6.922,0.0,-0.03754,-0.10574,-0.02441,-0.01663,-0.04807,-0.009,0.02014,-0.01724,-0.01755,-0.0206,-0.08514,-0.02991,-0.01709,0.05096,-0.04471
6.9225,0.00427,-0.02136,-0.11154,-0.00259,-0.0145,-0.04364,-0.00351,0.03082,-0.01801,-0.01831,-0.02182,-0.06622,-0.03021,-0.01678,0.0856,-0.04684
6.923,0.00885,-0.00168,-0.09903,0.04745,-0.009,-0.03738,-0.00198,0.0354,-0.01923,-0.01755,-0.02182,-0.05157,-0.02914,-0.01648,0.07706,-0.04776
6.9235,0.01587,0.00839,-0.07446,0.16281,-0.00534,-0.03143,-0.00244,0.03784,-0.01907,-0.01923,-0.02014,-0.03143,-0.02731,-0.01663,0.02838,-0.04822
6.924,0.02182,0.01007,-0.04776,0.31357,-0.00397,-0.02701,-0.00534,0.03769,-0.01831,-0.01831,-0.01892,-0.0061,-0.02548,-0.01602,-0.02136,-0.04761
6.9245,0.02457,0.01099,-0.02335,0.37949,-0.00519,-0.02747,-0.00916,0.02975,-0.01816,-0.02014,-0.01831,0.02304,-0.02625,-0.01572,-0.04425,-0.04776
6.925,0.02304,0.01007,-0.00809,0.26459,-0.00778,-0.0322,-0.01434,0.01297,-0.01846,-0.02182,-0.02014,0.05478,-0.02838,-0.01633,-0.04822,-0.04837
6.9255,0.02548,0.00305,-0.0032,0.02167,-0.00809,-0.03662,-0.01999,-0.00916,-0.01709,-0.01709,-0.02106,0.08453,-0.02945,-0.01694,-0.05371,-0.05112
6.926,0.03433,-0.01297,-0.0148,-0.19989,-0.00534,-0.02914,-0.02304,-0.02853,-0.01572,-0.01694,-0.0209,0.09262,-0.02914,-0.01648,-0.06821,-0.05417
6.9265,0.04715,-0.03754,-0.04166,-0.30838,-0.00198,-0.00946,-0.02365,-0.03815,-0.01587,-0.01602,-0.0206,0.07126,-0.02747,-0.01678,-0.07599,-0.05447
6.927,0.05753,-0.06119,-0.09064,-0.3093,-0.00076,0.00748,-0.0238,-0.03723,-0.01694,-0.01831,-0.02106,0.06058,-0.0293,-0.01892,-0.06592,-0.05432
6.9275,0.06256,-0.07019,-0.15884,-0.22766,-0.00122,0.00443,-0.02396,-0.03128,-0.01755,-0.01984,-0.0209,0.0943,-0.0322,-0.01984,-0.02579,-0.0528
6.928,0.0679,-0.05783,-0.22446,-0.07492,-0.00366,-0.01724,-0.02319,-0.0267,-0.01709,-0.01877,-0.01862,0.13489,-0.03357,-0.01923,0.04623,-0.05112
6.9285,0.07355,-0.03906,-0.24734,0.1059,-0.00702,-0.04028,-0.02197,-0.02625,-0.01648,-0.02014,-0.01846,0.1123,-0.03311,-0.0177,0.11749,-0.04898
6.929,0.07401,-0.02396,-0.20538,0.22064,-0.00992,-0.05371,-0.02075,-0.02869,-0.01617,-0.02106,-0.0177,0.0412,-0.03174,-0.0177,0.14374,-0.04761
6.9295,0.06317,-0.01068,-0.11139,0.20157,-0.01251,-0.06088,-0.02121,-0.03113,-0.01495,-0.01999,-0.01617,0.00977,-0.03143,-0.01953,0.13138,-0.04807
6.93,0.04547,0.00839,0.00046,0.08469,-0.01846,-0.0679,-0.02136,-0.03052,-0.01511,-0.01907,-0.01495,0.05524,-0.03281,-0.02045,0.12207,-0.05005
6.9305,0.02975,0.02884,0.09583,-0.03036,-0.02823,-0.07187,-0.02136,-0.02594,-0.01862,-0.01816,-0.01465,0.11719,-0.03433,-0.0206,0.12253,-0.05173
6.931,0.02075,0.03952,0.159,-0.09033,-0.03555,-0.06683,-0.02136,-0.01801,-0.02304,-0.01831,-0.01495,0.11719,-0.03464,-0.01968,0.10193,-0.05188
6.9315,0.01617,0.03769,0.18539,-0.12421,-0.0386,-0.05783,-0.02182,-0.01083,-0.02457,-0.01755,-0.01282,0.04822,-0.03464,-0.01877,0.05524,-0.05081
6.932,0.01114,0.02914,0.17761,-0.16937,-0.03647,-0.05295,-0.02289,-0.00763,-0.02319,-0.01953,-0.01251,-0.03647,-0.03403,-0.01938,0.01343,-0.05142
6.9325,0.00656,0.01816,0.14496,-0.22522,-0.03372,-0.05035,-0.0235,-0.00793,-0.02228,-0.01755,-0.01526,-0.09232,-0.03418,-0.02045,0.00214,-0.05463
6.933,0.00168,0.00183,0.10315,-0.27161,-0.02991,-0.04532,-0.02457,-0.00992,-0.02243,-0.01785,-0.01373,-0.11566,-0.03296,-0.02014,0.01419,-0.05783
6.9335,-0.00305,-0.01846,0.0676,-0.29861,-0.02808,-0.03754,-0.02441,-0.01236,-0.02182,-0.0177,-0.01343,-0.12222,-0.03128,-0.01892,0.02686,-0.0592
6.934,-0.00977,-0.03479,0.04105,-0.29861,-0.02853,-0.02686,-0.02289,-0.01205,-0.02075,-0.01923,-0.01434,-0.11749,-0.0296,-0.01801,0.02853,-0.05814
6.9345,-0.0174,-0.04059,0.0177,-0.24216,-0.02777,-0.01816,-0.02121,-0.00748,-0.01801,-0.01785,-0.01617,-0.08377,-0.03021,-0.01816,0.02319,-0.056
6.935,-0.01923,-0.0412,-0.00793,-0.112,-0.02045,-0.01083,-0.01999,-0.00122,-0.01755,-0.01678,-0.01556,-0.00778,-0.03113,-0.0174,0.0148,-0.05402
6.9355,-0.01282,-0.04547,-0.03357,0.0444,-0.00122,-0.01266,-0.01984,0.0032,-0.01724,-0.01678,-0.01572,0.0943,-0.03174,-0.01755,0.00229,-0.05249
6.936,0.0,-0.05722,-0.05203,0.13382,0.01419,-0.02487,-0.01892,0.00534,-0.01678,-0.01999,-0.01755,0.17624,-0.03143,-0.01892,-0.01617,-0.05081
6.9365,0.0119,-0.07065,-0.05875,0.11353,0.0116,-0.04501,-0.01694,0.00565,-0.01495,-0.01938,-0.01831,0.18524,-0.03113,-0.02045,-0.04395,-0.05035
6.937,0.01785,-0.07828,-0.05402,0.0412,-0.00641,-0.06363,-0.01587,0.00687,-0.01312,-0.02045,-0.01678,0.11917,-0.03082,-0.0209,-0.06882,-0.04959
6.9375,0.01465,-0.07904,-0.04257,0.00549,-0.02228,-0.06943,-0.01495,0.00931,-0.01312,-0.02151,-0.01724,0.03616,-0.03174,-0.02045,-0.07401,-0.0502
6.938,0.00565,-0.07553,-0.03021,0.02701,-0.02472,-0.06088,-0.01419,0.01251,-0.0148,-0.02151,-0.02121,-0.00351,-0.03464,-0.01999,-0.05508,-0.05005
6.9385,-0.00351,-0.07187,-0.02777,0.05798,-0.01968,-0.04532,-0.01328,0.01511,-0.01648,-0.02167,-0.02106,0.0058,-0.03601,-0.01953,-0.02777,-0.04868
6.939,-0.00702,-0.0679,-0.03036,0.06241,-0.01862,-0.0322,-0.01144,0.01755,-0.01617,-0.02197,-0.02045,0.02914,-0.03525,-0.01938,-0.0087,-0.04654
6.9395,-0.0032,-0.06271,-0.03586,0.04715,-0.02258,-0.02426,-0.01007,0.01938,-0.01495,-0.01968,-0.01709,0.04379,-0.03326,-0.01892,-0.00473,-0.04562
6.94,0.00488,-0.05753,-0.0415,0.03464,-0.02808,-0.02167,-0.00793,0.0206,-0.01373,-0.01877,-0.01648,0.05264,-0.03265,-0.01816,-0.0061,-0.04593
6.9405,0.01114,-0.056,-0.05096,0.03128,-0.03387,-0.0267,-0.00702,0.02014,-0.01389,-0.01617,-0.01877,0.05493,-0.03464,-0.0177,-0.00778,-0.04761
6.941,0.01144,-0.05936,-0.06195,0.03189,-0.03754,-0.04227,-0.00793,0.01862,-0.01419,-0.01587,-0.01785,0.04471,-0.03632,-0.01831,-0.00931,-0.04791
6.9415,0.009,-0.06638,-0.07111,0.03235,-0.04089,-0.06775,-0.009,0.01801,-0.01434,-0.01709,-0.0174,0.0238,-0.03632,-0.01846,-0.01129,-0.04761
6.942,0.01007,-0.07294,-0.07385,0.03204,-0.03998,-0.09613,-0.01022,0.01755,-0.01358,-0.01709,-0.0177,0.00519,-0.03571,-0.01862,-0.0145,-0.04745
6.9425,0.01434,-0.07553,-0.07385,0.03326,-0.03952,-0.11276,-0.00961,0.01556,-0.01251,-0.01801,-0.01724,-0.00031,-0.03464,-0.01831,-0.01755,-0.04669
6.943,0.01953,-0.08194,-0.07248,0.03998,-0.04242,-0.1091,-0.00809,0.01556,-0.01266,-0.01785,-0.01694,0.00015,-0.03464,-0.01755,-0.01953,-0.04654
6.9435,0.02136,-0.09979,-0.07156,0.04898,-0.04501,-0.09048,-0.00687,0.0174,-0.01434,-0.01755,-0.01816,-0.00473,-0.03647,-0.0177,-0.01984,-0.04608
6.944,0.02335,-0.12146,-0.07126,0.05142,-0.04486,-0.07172,-0.0061,0.01801,-0.01648,-0.01816,-0.01923,-0.01877,-0.0383,-0.0177,-0.0206,-0.04562
6.9445,0.0267,-0.12619,-0.07156,0.04364,-0.04257,-0.05936,-0.00549,0.01526,-0.01801,-0.01953,-0.01678,-0.03525,-0.03906,-0.01678,-0.02304,-0.04471
6.945,0.03006,-0.10483,-0.0679,0.03006,-0.04074,-0.056,-0.00534,0.00961,-0.01602,-0.01999,-0.01389,-0.04608,-0.03784,-0.01678,-0.02594,-0.04395
6.9455,0.02823,-0.07187,-0.06195,0.02045,-0.04227,-0.05585,-0.00534,0.00534,-0.01373,-0.0206,-0.01312,-0.05203,-0.03525,-0.01755,-0.01999,-0.04227
6.946,0.02045,-0.04364,-0.05722,0.01541,-0.0444,-0.05768,-0.00549,0.00473,-0.0116,-0.01999,-0.01343,-0.06073,-0.03342,-0.01907,-0.00427,-0.04013
6.9465,0.00687,-0.02365,-0.05219,0.01083,-0.04242,-0.05783,-0.00366,0.00763,-0.0116,-0.01984,-0.01389,-0.06638,-0.03281,-0.0206,0.01022,-0.03891
6.947,-0.00595,-0.00549,-0.04745,0.0058,-0.0351,-0.05676,-0.00198,0.009,-0.01205,-0.01907,-0.01312,-0.0531,-0.03311,-0.02121,0.0116,-0.03845
6.9475,-0.01389,0.00946,-0.04303,0.00198,-0.02014,-0.05554,-0.00244,0.00626,-0.0119,-0.01999,-0.01297,-0.01434,-0.03387,-0.02045,0.00015,-0.03876
6.948,-0.0145,0.01648,-0.03922,-0.00183,-0.00107,-0.05417,-0.0061,-0.00137,-0.01266,-0.01877,-0.0145,0.01862,-0.03464,-0.01953,-0.00626,-0.03983
6.9485,-0.00977,0.01419,-0.03876,-0.00443,0.02304,-0.05112,-0.01022,-0.00809,-0.01343,-0.01816,-0.01617,0.01617,-0.03403,-0.01862,0.00626,-0.03967
6.949,-0.0032,0.00793,-0.0415,-0.00351,0.05051,-0.04623,-0.0119,-0.00778,-0.01389,-0.01678,-0.01526,-0.00046,-0.0325,-0.01892,0.02777,-0.03815
6.9495,0.0,0.00122,-0.04822,-0.00092,0.07523,-0.03983,-0.01175,0.00061,-0.01343,-0.01572,-0.01297,0.02274,-0.03082,-0.01801,0.0386,-0.03494
6.95,-0.00229,-0.0029,-0.0589,-0.00015,0.08682,-0.03387,-0.01114,0.01007,-0.01328,-0.01541,-0.01221,0.08408,-0.03006,-0.01678,0.03006,-0.03082
6.9505,-0.00885,-0.00992,-0.07065,-0.00595,0.0769,-0.03021,-0.01083,0.01297,-0.01251,-0.01663,-0.01236,0.11734,-0.03006,-0.01648,0.01724,-0.0293
6.951,-0.01648,-0.02136,-0.07599,-0.01144,0.04333,-0.03098,-0.01007,0.01022,-0.01221,-0.01709,-0.01266,0.08362,-0.02945,-0.01602,0.01389,-0.03052
6.9515,-0.01816,-0.03769,-0.07248,-0.01068,-0.00687,-0.03723,-0.00763,0.00641,-0.01144,-0.01724,-0.01297,0.02518,-0.02762,-0.01602,0.02106,-0.03235
6.952,-0.01221,-0.05188,-0.06027,-0.00443,-0.05722,-0.04639,-0.00443,0.00427,-0.01099,-0.01801,-0.01358,-0.00183,-0.02731,-0.01556,0.02716,-0.03357
6.9525,-0.00259,-0.05783,-0.04669,0.00061,-0.08713,-0.05493,-0.00351,0.00137,-0.01053,-0.01831,-0.01236,0.00626,-0.0293,-0.01587,0.02518,-0.03448
6.953,0.00397,-0.05768,-0.03922,-0.00122,-0.08942,-0.05966,-0.00549,-0.00198,-0.00977,-0.0177,-0.01297,0.01694,-0.03006,-0.01633,0.0174,-0.03555
6.9535,0.0061,-0.05875,-0.03754,-0.00854,-0.07263,-0.06088,-0.00778,-0.00565,-0.01007,-0.01663,-0.01328,0.0174,-0.03098,-0.01602,0.00687,-0.03632
6.954,0.00427,-0.06348,-0.03662,-0.01495,-0.05829,-0.05997,-0.00977,-0.00961,-0.009,-0.01556,-0.01511,0.01541,-0.03189,-0.01556,-0.00122,-0.03723
6.9545,-0.00046,-0.06805,-0.03006,-0.02243,-0.06561,-0.05783,-0.01099,-0.01328,-0.00778,-0.01511,-0.01419,0.01434,-0.0322,-0.0148,-0.00626,-0.03738
6.955,-0.0061,-0.06729,-0.01984,-0.02808,-0.08759,-0.05356,-0.01266,-0.01633,-0.00717,-0.01541,-0.01251,0.00992,-0.03052,-0.01343,-0.00641,-0.03723
6.9555,-0.01297,-0.06271,-0.01129,-0.02884,-0.09827,-0.05325,-0.01282,-0.0174,-0.00793,-0.01602,-0.01297,0.0032,-0.03006,-0.01358,0.00015,-0.03738
6.956,-0.01709,-0.05875,-0.01297,-0.02136,-0.08636,-0.05554,-0.01236,-0.01907,-0.00763,-0.01694,-0.01602,-0.00092,-0.03098,-0.01358,0.01633,-0.03616
6.9565,-0.01862,-0.05844,-0.02625,-0.00885,-0.07858,-0.05997,-0.01358,-0.02274,-0.00732,-0.01953,-0.01602,-0.00229,-0.03281,-0.0148,0.0351,-0.03479
6.957,-0.01938,-0.06378,-0.05081,0.00137,-0.09583,-0.06256,-0.01465,-0.02625,-0.00641,-0.02014,-0.01434,-0.00565,-0.03403,-0.01724,0.05219,-0.03372
6.9575,-0.02365,-0.07263,-0.09048,-0.00046,-0.12344,-0.06012,-0.01389,-0.02716,-0.00671,-0.02014,-0.01419,-0.01328,-0.03464,-0.01892,0.06088,-0.03372
6.958,-0.02884,-0.08057,-0.16037,-0.02136,-0.12955,-0.0528,-0.0119,-0.02335,-0.00854,-0.01984,-0.01434,-0.02686,-0.03586,-0.01846,0.05951,-0.03159
6.9585,-0.03357,-0.0853,-0.25406,-0.05341,-0.11505,-0.04562,-0.00992,-0.01877,-0.00946,-0.0206,-0.01602,-0.04196,-0.03723,-0.0174,0.04852,-0.03143
6.959,-0.03815,-0.08347,-0.32669,-0.0769,-0.10269,-0.04211,-0.01114,-0.02014,-0.00854,-0.0209,-0.01587,-0.05127,-0.0383,-0.01862,0.02151,-0.03204
6.9595,-0.04517,-0.07858,-0.32043,-0.08209,-0.09888,-0.04242,-0.01328,-0.02594,-0.00824,-0.01801,-0.01358,-0.05249,-0.03845,-0.02045,-0.03387,-0.03311
6.96,-0.05264,-0.07248,-0.22263,-0.07233,-0.08957,-0.0441,-0.01389,-0.03021,-0.00885,-0.01816,-0.01129,-0.05173,-0.03815,-0.02075,-0.09521,-0.03235
6.9605,-0.05661,-0.065,-0.08392,-0.05875,-0.07111,-0.04532,-0.01251,-0.02777,-0.00977,-0.0177,-0.01083,-0.04654,-0.03784,-0.02045,-0.10452,-0.03113
6.961,-0.05661,-0.05341,0.03601,-0.04654,-0.05569,-0.04623,-0.01099,-0.02151,-0.00961,-0.02136,-0.0116,-0.03174,-0.0386,-0.02029,-0.04684,-0.03174
6.9615,-0.05524,-0.03632,0.12436,-0.03723,-0.04944,-0.047,-0.00961,-0.01587,-0.00824,-0.02258,-0.0119,-0.00656,-0.03937,-0.01999,0.01724,-0.0325
6.962,-0.05432,-0.01801,0.19302,-0.03616,-0.04654,-0.0473,-0.00946,-0.01266,-0.00946,-0.02213,-0.01175,0.02121,-0.03922,-0.02045,0.03082,-0.0322
6.9625,-0.05447,-0.00366,0.23926,-0.03937,-0.04547,-0.04791,-0.00885,-0.00946,-0.01068,-0.0209,-0.0145,0.04471,-0.03815,-0.01953,0.01022,-0.03128
6.963,-0.056,0.0032,0.24612,-0.03677,-0.0412,-0.05005,-0.00961,-0.00443,-0.01099,-0.0206,-0.01633,0.065,-0.0354,-0.01923,0.00107,-0.03098
6.9635,-0.06119,0.00687,0.21362,-0.02319,-0.03738,-0.05188,-0.01266,-0.00015,-0.01144,-0.01999,-0.01602,0.0769,-0.03448,-0.01755,0.01328,-0.0325
6.964,-0.06638,0.01068,0.16144,-0.00549,-0.03662,-0.05035,-0.01602,0.00122,-0.0119,-0.02029,-0.01572,0.07004,-0.03571,-0.01663,0.01999,-0.03525
6.9645,-0.06775,0.01266,0.11093,0.0061,-0.04074,-0.04578,-0.0177,0.00046,-0.01175,-0.02151,-0.01541,0.04654,-0.03906,-0.01694,0.01495,-0.03693
6.965,-0.06653,0.00793,0.06943,0.009,-0.04333,-0.04105,-0.01862,-0.00076,-0.0119,-0.02228,-0.01419,0.02045,-0.04105,-0.01923,0.01007,-0.03693
6.9655,-0.06683,-0.00336,0.03906,0.00931,-0.04013,-0.0386,-0.01862,-0.00275,-0.0119,-0.02029,-0.01251,0.00443,-0.03998,-0.02151,0.01511,-0.03754
6.966,-0.07004,-0.01587,0.01923,0.01343,-0.03265,-0.03876,-0.01801,-0.00397,-0.01175,-0.02014,-0.00977,-0.0061,-0.03967,-0.02045,0.02243,-0.03922
6.9665,-0.07217,-0.02609,0.00687,0.01999,-0.02579,-0.03998,-0.01709,-0.00427,-0.01175,-0.01892,-0.01053,-0.01953,-0.04044,-0.01923,0.02167,-0.04196
6.967,-0.07034,-0.03387,-0.00168,0.02243,-0.02075,-0.03983,-0.01617,-0.00351,-0.01221,-0.01984,-0.01328,-0.03754,-0.04166,-0.01801,0.01083,-0.04349
6.9675,-0.06271,-0.04272,-0.01114,0.01694,-0.01801,-0.0383,-0.01556,-0.00351,-0.01266,-0.02213,-0.01663,-0.05249,-0.0415,-0.01816,-0.00626,-0.04593
6.968,-0.05493,-0.05341,-0.02304,0.00565,-0.01663,-0.03815,-0.01541,-0.00549,-0.01297,-0.02274,-0.01816,-0.05981,-0.04028,-0.01953,-0.01678,-0.04852
6.9685,-0.04929,-0.06256,-0.03311,-0.00244,-0.01694,-0.04044,-0.01465,-0.00443,-0.01312,-0.02121,-0.01709,-0.05905,-0.03906,-0.01968,-0.01083,-0.0499
6.969,-0.04562,-0.06714,-0.03769,0.00336,-0.01968,-0.0441,-0.01389,-0.00122,-0.01404,-0.01999,-0.01541,-0.05035,-0.0383,-0.01938,0.01419,-0.0473
6.9695,-0.04044,-0.06546,-0.03784,0.02884,-0.02213,-0.04868,-0.01373,0.00473,-0.01495,-0.01907,-0.01312,-0.03265,-0.03632,-0.0177,0.04593,-0.04227
6.97,-0.03448,-0.0618,-0.03723,0.06165,-0.02472,-0.0499,-0.01419,0.01114,-0.01495,-0.0177,-0.01419,-0.00732,-0.03403,-0.01617,0.07019,-0.04044
6.9705,-0.0296,-0.06393,-0.0383,0.07309,-0.0267,-0.04913,-0.01389,0.01572,-0.0145,-0.01801,-0.01526,0.01755,-0.03189,-0.01617,0.07233,-0.04257
6.971,-0.02579,-0.07065,-0.04196,0.04288,-0.02747,-0.04669,-0.0119,0.01984,-0.01389,-0.01663,-0.01633,0.02426,-0.03082,-0.01663,0.04517,-0.04501
6.9715,-0.02396,-0.07416,-0.04852,-0.00824,-0.02518,-0.04532,-0.009,0.02625,-0.01404,-0.0174,-0.01816,0.00595,-0.03143,-0.01755,-0.01312,-0.04333
6.972,-0.02518,-0.06927,-0.06104,-0.03479,-0.01953,-0.04303,-0.00687,0.03387,-0.01434,-0.01678,-0.01694,-0.02106,-0.03296,-0.0174,-0.07904,-0.04028
6.9725,-0.03403,-0.06195,-0.07858,-0.01968,-0.01266,-0.04013,-0.00702,0.03555,-0.01465,-0.01602,-0.01556,-0.02899,-0.03372,-0.01709,-0.10361,-0.03906
6.973,-0.04868,-0.05722,-0.09369,0.00717,-0.0058,-0.03845,-0.00916,0.02319,-0.01419,-0.01785,-0.0148,0.00061,-0.03235,-0.01602,-0.07263,-0.04105
6.9735,-0.06256,-0.06134,-0.09903,0.0145,-0.00214,-0.03906,-0.01221,-0.00046,-0.01495,-0.01694,-0.01495,0.05981,-0.03143,-0.01663,-0.02716,-0.04349
6.974,-0.06882,-0.07584,-0.09445,0.00214,-0.00061,-0.04013,-0.01358,-0.02289,-0.01587,-0.0174,-0.01419,0.11154,-0.03082,-0.01709,-0.01099,-0.04501
6.9745,-0.06989,-0.09537,-0.08545,-0.00946,-0.00031,-0.04211,-0.01373,-0.03174,-0.01724,-0.01587,-0.01389,0.12482,-0.03006,-0.01892,-0.02167,-0.04425
6.975,-0.06836,-0.10437,-0.07629,-0.01007,0.00229,-0.04532,-0.0116,-0.02975,-0.01709,-0.01694,-0.01556,0.10178,-0.02853,-0.01999,-0.02579,-0.04272
6.9755,-0.06561,-0.09033,-0.06851,-0.00198,0.009,-0.04929,-0.01144,-0.02655,-0.01602,-0.01907,-0.01694,0.06516,-0.02731,-0.01892,-0.01617,-0.04318
6.976,-0.05722,-0.05814,-0.06195,0.00656,0.01389,-0.05203,-0.01404,-0.02975,-0.01556,-0.02045,-0.01572,0.03006,-0.02777,-0.01785,0.00122,-0.0444
6.9765,-0.0444,-0.02686,-0.05463,0.00748,0.01434,-0.05325,-0.01801,-0.03571,-0.01617,-0.01923,-0.01312,0.00031,-0.0293,-0.01678,0.03128,-0.04593
6.977,-0.03342,-0.00641,-0.04395,-0.00504,0.00839,-0.05432,-0.02014,-0.03571,-0.01633,-0.01907,-0.01312,-0.02411,-0.03098,-0.01755,0.07202,-0.04807
6.9775,-0.02838,0.00793,-0.03311,-0.02502,0.00107,-0.05569,-0.01953,-0.02731,-0.01572,-0.01923,-0.01572,-0.03922,-0.02991,-0.01862,0.09369,-0.04776
6.978,-0.02945,0.01755,-0.02289,-0.04257,-0.00916,-0.05722,-0.02045,-0.01709,-0.01648,-0.01938,-0.0148,-0.05096,-0.02853,-0.01785,0.07507,-0.04562
6.9785,-0.0325,0.02075,-0.01602,-0.04761,-0.02518,-0.05554,-0.02151,-0.01083,-0.01862,-0.01953,-0.01434,-0.06363,-0.02869,-0.01694,0.03265,-0.04272
6.979,-0.03418,0.01404,-0.0148,-0.04135,-0.05051,-0.05127,-0.02136,-0.00519,-0.02045,-0.02014,-0.01389,-0.07492,-0.0296,-0.01709,0.00641,-0.04227
6.9795,-0.03372,0.00275,-0.01968,-0.03082,-0.07813,-0.04807,-0.01984,0.0029,-0.02121,-0.02106,-0.01602,-0.07523,-0.02899,-0.01831,0.00107,-0.04364
6.98,-0.03342,-0.00381,-0.0267,-0.02548,-0.09323,-0.04822,-0.01587,0.01053,-0.01907,-0.02182,-0.01816,-0.06317,-0.02792,-0.01801,0.00473,-0.04471
6.9805,-0.0351,-0.00351,-0.03174,-0.02731,-0.08499,-0.04944,-0.01236,0.01083,-0.01678,-0.02075,-0.01831,-0.04929,-0.02731,-0.01617,0.00458,-0.04532
6.981,-0.03937,-0.00183,-0.03403,-0.0267,-0.06104,-0.04913,-0.00961,0.00656,-0.01541,-0.01923,-0.01526,-0.04288,-0.02808,-0.01511,-0.00473,-0.04578
6.9815,-0.04395,-0.00824,-0.03616,-0.01465,-0.03799,-0.04684,-0.00732,0.00534,-0.01465,-0.01801,-0.0119,-0.04822,-0.03082,-0.01602,-0.01831,-0.04715
6.982,-0.04868,-0.03052,-0.04211,0.00763,-0.02686,-0.0444,-0.00687,0.00793,-0.01389,-0.01877,-0.00854,-0.05692,-0.03448,-0.0177,-0.02716,-0.04822
6.9825,-0.05051,-0.06622,-0.04944,0.03159,-0.02151,-0.04059,-0.00931,0.00992,-0.01312,-0.01877,-0.01022,-0.05737,-0.03647,-0.01907,-0.03006,-0.04959
6.983,-0.04929,-0.09766,-0.05539,0.04623,-0.0148,-0.0351,-0.01022,0.00412,-0.01328,-0.01755,-0.01144,-0.04456,-0.03662,-0.01968,-0.0296,-0.05096
6.9835,-0.04715,-0.10681,-0.05905,0.04501,-0.00565,-0.03113,-0.00839,-0.00534,-0.01434,-0.01709,-0.01083,-0.02594,-0.03586,-0.01999,-0.03143,-0.05051
6.984,-0.04562,-0.09521,-0.06226,0.02457,-0.00153,-0.03128,-0.0058,-0.01099,-0.0148,-0.01587,-0.00992,-0.00961,-0.03616,-0.0206,-0.03662,-0.04898
6.9845,-0.04349,-0.07751,-0.06561,-0.00687,-0.00427,-0.03616,-0.00458,-0.01358,-0.01465,-0.01694,-0.01038,-0.00122,-0.03738,-0.02167,-0.04059,-0.04745
6.985,-0.03876,-0.06271,-0.06683,-0.03204,-0.01251,-0.0412,-0.00351,-0.01358,-0.01373,-0.01907,-0.01266,0.00031,-0.03967,-0.02319,-0.03586,-0.0473
6.9855,-0.03204,-0.04684,-0.06439,-0.03906,-0.01907,-0.0444,-0.00183,-0.0119,-0.01358,-0.01923,-0.01419,-0.00412,-0.0412,-0.02518,-0.00763,-0.04745
6.986,-0.02487,-0.03021,-0.06042,-0.03555,-0.02411,-0.04654,-0.00229,-0.00992,-0.01312,-0.01999,-0.01328,-0.00504,-0.04013,-0.02502,0.04791,-0.04654
6.9865,-0.01923,-0.01999,-0.05814,-0.03845,-0.02533,-0.04944,-0.00458,-0.00839,-0.01282,-0.01877,-0.01328,0.0061,-0.03891,-0.02411,0.1033,-0.04623
6.987,-0.01572,-0.01724,-0.05676,-0.05356,-0.02686,-0.05096,-0.00763,-0.00793,-0.01312,-0.01984,-0.01328,0.02396,-0.03906,-0.02319,0.11383,-0.04608
6.9875,-0.01404,-0.01663,-0.05737,-0.06607,-0.02853,-0.05112,-0.00946,-0.00793,-0.01404,-0.02075,-0.01328,0.03433,-0.03952,-0.02319,0.06943,-0.04608
6.988,-0.01312,-0.01389,-0.056,-0.06226,-0.0296,-0.04868,-0.01282,-0.00641,-0.01617,-0.0209,-0.01297,0.03189,-0.03876,-0.02289,0.01434,-0.04562
6.9885,-0.01419,-0.0119,-0.05402,-0.04364,-0.02777,-0.0444,-0.01877,-0.00717,-0.01785,-0.01968,-0.01129,0.02457,-0.03601,-0.02228,-0.00275,-0.04532
6.989,-0.01648,-0.01633,-0.0499,-0.02701,-0.02563,-0.04196,-0.02411,-0.00931,-0.01755,-0.01724,-0.01038,0.02029,-0.03464,-0.02228,0.01282,-0.04547
6.9895,-0.02014,-0.02701,-0.04608,-0.02258,-0.02335,-0.04272,-0.02716,-0.00977,-0.01648,-0.01404,-0.01099,0.02167,-0.0325,-0.02213,0.02258,-0.0441
6.99,-0.02365,-0.03967,-0.04272,-0.02594,-0.02121,-0.04486,-0.02548,-0.00763,-0.01572,-0.01373,-0.01083,0.02502,-0.03082,-0.02136,0.01114,-0.04135
6.9905,-0.02731,-0.05234,-0.04059,-0.02396,-0.01846,-0.04837,-0.02182,-0.00351,-0.01526,-0.0145,-0.01251,0.02167,-0.03036,-0.01953,-0.0029,-0.03998
6.991,-0.03174,-0.06561,-0.03922,-0.01007,-0.01816,-0.05249,-0.01755,0.00015,-0.0145,-0.0145,-0.01282,0.00443,-0.03006,-0.01892,-0.00046,-0.03906
6.9915,-0.03662,-0.07858,-0.03632,0.00977,-0.01831,-0.05417,-0.01495,0.00458,-0.0148,-0.01511,-0.0119,-0.02167,-0.0293,-0.01801,0.01617,-0.03891
6.992,-0.03922,-0.08041,-0.03189,0.02136,-0.01785,-0.05356,-0.01587,0.00854,-0.01678,-0.01511,-0.01175,-0.0412,-0.02884,-0.01724,0.03021,-0.03891
6.9925,-0.04059,-0.06943,-0.02701,0.01938,-0.01907,-0.0528,-0.01953,0.00839,-0.01923,-0.01572,-0.01312,-0.03845,-0.02853,-0.01694,0.02838,-0.04013
6.993,-0.04288,-0.05112,-0.02274,0.01068,-0.02182,-0.0528,-0.02289,0.00488,-0.01984,-0.01633,-0.01633,-0.01404,-0.03006,-0.01678,0.01617,-0.0412
6.9935,-0.04807,-0.03342,-0.01862,0.00214,-0.0238,-0.05386,-0.02426,-0.00046,-0.01923,-0.01755,-0.01724,0.01282,-0.0325,-0.0177,0.00854,-0.04318
6.994,-0.05325,-0.01907,-0.01266,-0.00137,-0.02411,-0.05402,-0.02686,-0.0029,-0.01938,-0.01755,-0.01694,0.02121,-0.03433,-0.01892,0.00656,-0.04288
6.9945,-0.05783,-0.00732,-0.00778,0.00092,-0.0238,-0.05341,-0.03403,-0.00259,-0.01938,-0.01892,-0.01633,-0.00427,-0.03372,-0.01984,0.0058,-0.0412
6.995,-0.06119,0.00198,-0.00671,0.00748,-0.02457,-0.05081,-0.03769,0.00137,-0.01938,-0.01831,-0.01602,-0.05417,-0.03281,-0.01984,0.00061,-0.03922
6.9955,-0.0621,0.01007,-0.01114,0.01434,-0.03067,-0.04837,-0.02716,0.00427,-0.01831,-0.01785,-0.01556,-0.07645,-0.03342,-0.01999,-0.00931,-0.03876
6.996,-0.05859,0.01343,-0.01801,0.01587,-0.04242,-0.04593,-0.00519,0.00443,-0.01709,-0.01755,-0.01465,-0.01678,-0.03464,-0.02029,-0.02411,-0.03937
6.9965,-0.04974,0.01282,-0.02655,0.0119,-0.05081,-0.04333,0.00458,0.0029,-0.01587,-0.01694,-0.01511,0.09521,-0.03555,-0.0206,-0.03418,-0.03922
6.997,-0.04105,0.0061,-0.03342,0.00443,-0.04608,-0.04013,-0.02487,0.00259,-0.01556,-0.01755,-0.01633,0.15305,-0.03494,-0.01999,-0.03174,-0.03967
6.9975,-0.03525,-0.00702,-0.04074,-0.00336,-0.02945,-0.03815,-0.09308,0.00366,-0.01511,-0.01923,-0.01648,0.10971,-0.03372,-0.01984,-0.01587,-0.03876
6.998,-0.02686,-0.02411,-0.04456,-0.01068,-0.01678,-0.03952,-0.17349,0.00351,-0.01312,-0.01923,-0.01572,0.02975,-0.03357,-0.01968,0.00427,-0.03922
6.9985,-0.01297,-0.03876,-0.04517,-0.01801,-0.01892,-0.04425,-0.24078,0.00092,-0.01266,-0.01938,-0.01434,-0.009,-0.03357,-0.02014,0.01816,-0.04196
6.999,-0.00046,-0.04547,-0.04684,-0.02335,-0.03082,-0.04791,-0.28885,-0.00229,-0.01373,-0.01877,-0.01465,-0.00809,-0.03342,-0.02121,0.03006,-0.04395
6.9995,0.00259,-0.04578,-0.05493,-0.02411,-0.04074,-0.04852,-0.31387,-0.00397,-0.01419,-0.01877,-0.0145,-0.00778,-0.0322,-0.02167,0.04089,-0.04395
7.0,-0.00565,-0.04486,-0.07767,-0.02151,-0.04089,-0.04822,-0.30807,-0.00305,-0.01389,-0.01724,-0.01434,-0.00961,-0.03098,-0.02151,0.0383,-0.04105
7.0005,-0.01724,-0.04532,-0.11032,-0.0177,-0.03769,-0.04868,-0.27222,-0.00244,-0.01343,-0.01724,-0.01282,0.02228,-0.0325,-0.02106,0.00763,-0.03799
7.001,-0.0264,-0.04425,-0.13336,-0.01389,-0.03906,-0.05096,-0.2179,-0.00183,-0.01495,-0.01709,-0.0116,0.08713,-0.0351,-0.02106,-0.03525,-0.03769
7.0015,-0.03265,-0.04181,-0.12939,-0.01221,-0.04333,-0.05234,-0.14587,0.00107,-0.01663,-0.01892,-0.01114,0.1297,-0.03677,-0.0206,-0.05402,-0.03876
7.002,-0.04074,-0.0415,-0.10193,-0.0116,-0.04486,-0.0502,-0.05569,0.00458,-0.01709,-0.01892,-0.01129,0.10468,-0.0354,-0.02045,-0.03906,-0.04089
7.0025,-0.05035,-0.04364,-0.06561,-0.00992,-0.04349,-0.04578,0.05157,0.00671,-0.01572,-0.01877,-0.01236,0.03983,-0.03464,-0.02045,-0.01801,-0.04272
7.003,-0.0589,-0.04471,-0.03281,-0.00671,-0.0412,-0.04074,0.19577,0.00687,-0.01389,-0.01968,-0.01343,-0.00519,-0.03616,-0.02029,-0.0148,-0.04456
