time,RectFemL,VastusMedL,VastusLatL,TibAntL,HamMedL,HamLatL,GastroMedL,GastroLatL,RectFemR,VastusMedR,VastusLatR,TibAntR,HamMedR,HamLatR,GastroMedR,GastroLatR
6.09,-0.01282,-0.04074,-0.05386,0.11169,-0.01129,-0.04242,-0.01328,0.00183,0.02533,-0.01251,0.01816,0.02045,-0.01862,0.00031,0.00336,0.00137
6.0905,-0.01282,-0.03876,-0.05371,0.103,-0.01755,-0.04425,-0.01419,-0.0029,0.00641,0.0412,0.01282,0.0354,-0.02274,-0.00366,0.00153,-0.03937
6.091,-0.01373,-0.03433,-0.0502,0.10666,-0.02304,-0.04715,-0.01465,-0.00458,-0.00565,0.08438,0.00137,0.03021,-0.02548,-0.00671,0.00198,-0.06424
6.0915,-0.01587,-0.03235,-0.047,0.0827,-0.0325,-0.04669,-0.01404,-0.00244,-0.01114,0.11581,-0.00549,0.00641,-0.02502,-0.00946,0.00214,-0.06607
6.092,-0.01831,-0.03326,-0.04333,0.04181,-0.04761,-0.04257,-0.01083,-0.00107,-0.01526,0.10986,-0.00458,0.00778,-0.02426,-0.01129,0.00198,-0.0592
6.0925,-0.02274,-0.03738,-0.04211,0.01068,-0.05585,-0.03952,-0.00946,-0.00458,-0.02213,0.07706,-0.00122,0.02441,-0.02548,-0.01236,-0.00015,-0.04929
6.093,-0.02762,-0.03952,-0.04105,-0.01038,-0.04196,-0.03784,-0.01007,-0.00961,-0.02792,0.01755,0.00122,-0.00534,-0.02914,-0.01373,-0.00076,-0.03967
6.0935,-0.03189,-0.03891,-0.03937,-0.03494,-0.01266,-0.03662,-0.01389,-0.01282,-0.0296,-0.01877,-0.00122,-0.11383,-0.03204,-0.01526,0.00046,-0.03677
6.094,-0.03448,-0.03525,-0.03464,-0.06134,0.01007,-0.03464,-0.01816,-0.01358,-0.02563,-0.02762,-0.00595,-0.24597,-0.03357,-0.0174,0.00137,-0.03906
6.0945,-0.03647,-0.03311,-0.02274,-0.07019,0.01129,-0.03159,-0.02014,-0.0148,-0.01968,-0.02335,-0.00778,-0.30411,-0.03357,-0.01923,0.00137,-0.04013
6.095,-0.0444,-0.03265,0.0029,-0.05814,0.00198,-0.03296,-0.01923,-0.01389,-0.0145,-0.00885,-0.00778,-0.23788,-0.03326,-0.02014,0.0029,-0.03693
6.0955,-0.06271,-0.03433,0.03967,-0.0441,-0.00076,-0.03891,-0.01709,-0.01205,-0.01297,-0.00214,-0.00534,-0.08362,-0.03296,-0.01953,0.00748,-0.03021
6.096,-0.09201,-0.03708,0.0705,-0.04272,-0.00198,-0.04852,-0.01831,-0.01068,-0.01221,-0.00153,-0.00336,0.08499,-0.03326,-0.01846,0.01114,-0.02731
6.0965,-0.11993,-0.04288,0.07263,-0.05188,-0.03189,-0.05707,-0.02167,-0.00946,-0.01007,0.00458,-0.00366,0.20645,-0.03464,-0.01907,0.01129,-0.02869
6.097,-0.13519,-0.05432,0.04669,-0.06134,-0.11475,-0.06348,-0.0235,-0.00702,-0.00824,0.00397,-0.00214,0.2475,-0.0354,-0.02045,0.01068,-0.03174
6.0975,-0.13474,-0.07446,0.00809,-0.06805,-0.21393,-0.06668,-0.02197,-0.00183,-0.01022,-0.00397,0.01007,0.20905,-0.03448,-0.02197,0.01022,-0.03296
6.098,-0.12772,-0.09521,-0.02716,-0.07416,-0.24872,-0.06653,-0.01648,0.0061,-0.01724,-0.03403,0.03448,0.12802,-0.03281,-0.02121,0.0116,-0.03326
6.0985,-0.12085,-0.10178,-0.05585,-0.08148,-0.17731,-0.06104,-0.01129,0.01373,-0.02777,-0.06699,0.05432,0.05447,-0.03479,-0.01953,0.01083,-0.03418
6.099,-0.1149,-0.08636,-0.0798,-0.08881,-0.04807,-0.05264,-0.00702,0.01907,-0.03799,-0.09659,0.05341,0.04333,-0.03799,-0.01938,0.01007,-0.03647
6.0995,-0.1091,-0.05875,-0.0943,-0.09232,0.04639,-0.04547,-0.00656,0.01862,-0.04669,-0.09964,0.03479,0.12085,-0.04013,-0.02213,0.00916,-0.03769
6.1,-0.10406,-0.03128,-0.09888,-0.07858,0.05829,-0.04242,-0.00824,0.01328,-0.05264,-0.08377,0.01221,0.23331,-0.03876,-0.02426,0.00885,-0.03555
6.1005,-0.10239,-0.00931,-0.09842,-0.0386,0.01251,-0.0412,-0.0087,0.01328,-0.05539,-0.03006,-0.00885,0.27451,-0.03677,-0.02533,0.00885,-0.03082
6.101,-0.09995,0.00687,-0.09247,0.01328,-0.04074,-0.04013,-0.00671,0.0267,-0.05692,0.03204,-0.03632,0.20828,-0.03632,-0.02502,0.009,-0.02686
6.1015,-0.09369,0.0145,-0.08041,0.0412,-0.06683,-0.04196,-0.00549,0.05539,-0.05783,0.07919,-0.07462,0.10513,-0.03815,-0.02502,0.01373,-0.02762
6.102,-0.08469,0.0116,-0.06577,0.02975,-0.056,-0.04532,-0.00702,0.08011,-0.05737,0.08469,-0.11475,0.03204,-0.03906,-0.02594,0.01831,-0.03189
6.1025,-0.07538,-0.00015,-0.05539,0.00244,-0.02319,-0.047,-0.01175,0.0708,-0.056,0.04181,-0.13977,-0.03738,-0.04013,-0.02686,0.01984,-0.03738
6.103,-0.06729,-0.01373,-0.05356,-0.01144,0.00427,-0.04501,-0.0145,0.02472,-0.05295,-0.02274,-0.13901,-0.14938,-0.04074,-0.02686,0.01862,-0.04196
6.1035,-0.05661,-0.0235,-0.0592,-0.01129,0.00153,-0.03983,-0.01389,-0.02533,-0.0473,-0.0766,-0.12726,-0.2594,-0.04135,-0.02655,0.01678,-0.04456
6.104,-0.04318,-0.03159,-0.06851,-0.01419,-0.02762,-0.03662,-0.01266,-0.05112,-0.03632,-0.09735,-0.11246,-0.27557,-0.04166,-0.02594,0.01312,-0.04929
6.1045,-0.02991,-0.03891,-0.07278,-0.02777,-0.06165,-0.03662,-0.0119,-0.05447,-0.02274,-0.10483,-0.08591,-0.17593,-0.04105,-0.02365,0.00931,-0.05295
6.105,-0.01816,-0.04654,-0.07004,-0.04852,-0.08575,-0.03967,-0.01068,-0.04456,-0.0119,-0.10361,-0.0383,-0.04883,-0.03876,-0.01785,0.00732,-0.05447
6.1055,-0.00641,-0.05661,-0.06165,-0.07202,-0.10208,-0.04395,-0.00763,-0.01663,-0.00824,-0.10773,0.00992,-0.01663,-0.03677,-0.01129,0.00778,-0.05524
6.106,0.00397,-0.06805,-0.05447,-0.09689,-0.12009,-0.04471,-0.00488,0.02472,-0.01144,-0.10101,0.02823,-0.11749,-0.03571,-0.01007,0.01053,-0.05768
6.1065,0.01251,-0.07889,-0.05188,-0.11673,-0.14389,-0.04486,-0.00519,0.05157,-0.0174,-0.08011,0.01602,-0.24277,-0.0383,-0.01465,0.01328,-0.05798
6.107,0.01617,-0.08255,-0.05249,-0.12329,-0.15869,-0.04517,-0.00702,0.0386,-0.02396,-0.05325,-0.00061,-0.23361,-0.0412,-0.02106,0.01328,-0.05463
6.1075,0.01678,-0.08087,-0.05188,-0.11292,-0.1387,-0.04639,-0.00595,0.00443,-0.02975,-0.02411,-0.00641,-0.06821,-0.04272,-0.02335,0.01144,-0.05005
6.108,0.01617,-0.07645,-0.04379,-0.09399,-0.07645,-0.04776,0.00076,-0.01755,-0.03418,-0.00198,-0.00732,0.1149,-0.04379,-0.0235,0.00916,-0.05066
6.1085,0.01755,-0.07339,-0.02304,-0.07996,0.00122,-0.04486,0.0058,-0.03586,-0.03632,0.02518,-0.01404,0.19226,-0.04364,-0.02228,0.00854,-0.05386
6.109,0.02274,-0.06912,0.0087,-0.08179,0.05783,-0.04211,-0.00198,-0.07721,-0.03586,0.04364,-0.02045,0.16647,-0.04181,-0.02228,0.00885,-0.05646
6.1095,0.03174,-0.065,0.03281,-0.09644,0.08545,-0.04242,-0.02197,-0.12238,-0.03281,0.05844,-0.0177,0.09933,-0.03967,-0.02457,0.00824,-0.05585
6.11,0.04105,-0.06378,0.03784,-0.1088,0.10147,-0.04593,-0.04013,-0.1239,-0.02914,0.07507,-0.00977,0.01404,-0.0383,-0.0264,0.00641,-0.0531
6.1105,0.04532,-0.06638,0.02579,-0.10178,0.11246,-0.05188,-0.04227,-0.07843,-0.02304,0.08377,-0.00305,-0.0766,-0.03906,-0.02716,0.00549,-0.05173
6.111,0.04562,-0.06958,0.01358,-0.07111,0.10254,-0.05524,-0.03021,-0.02884,-0.01404,0.07813,-0.00229,-0.11581,-0.03876,-0.02487,0.00763,-0.0502
6.1115,0.04791,-0.07126,0.01816,-0.02533,0.06332,-0.05493,-0.0177,-0.00473,-0.00153,0.056,-0.00565,-0.05783,-0.03616,-0.0209,0.00961,-0.04776
6.112,0.05386,-0.07065,0.03754,0.02884,0.01083,-0.05325,-0.00916,0.00153,0.00763,0.02655,-0.00992,0.06577,-0.03357,-0.01816,0.01205,-0.04562
6.1125,0.05798,-0.0647,0.04333,0.09171,-0.03891,-0.05051,-0.00488,0.01404,0.01343,0.00641,-0.01251,0.17273,-0.03067,-0.01678,0.01282,-0.04425
6.113,0.05585,-0.05188,0.00671,0.14893,-0.09583,-0.05112,-0.00809,0.04715,0.01312,-0.00854,-0.0116,0.21225,-0.02808,-0.01617,0.0116,-0.04547
6.1135,0.04898,-0.03464,-0.06302,0.17349,-0.15503,-0.05493,-0.0267,0.08926,0.00748,-0.01724,-0.00504,0.17654,-0.02747,-0.01556,0.00885,-0.04898
6.114,0.04486,-0.02014,-0.12436,0.1503,-0.17242,-0.05661,-0.06088,0.10605,-0.00305,-0.02167,0.0087,0.06882,-0.0293,-0.0145,0.00641,-0.05203
6.1145,0.0444,-0.01038,-0.15091,0.09216,-0.12436,-0.05249,-0.09155,0.07645,-0.01312,-0.01816,0.0174,-0.09262,-0.03113,-0.01343,0.0061,-0.05478
6.115,0.047,-0.00214,-0.14313,0.0267,-0.05386,-0.04425,-0.10529,0.01831,-0.01862,-0.01694,0.00656,-0.23361,-0.03189,-0.01266,0.0058,-0.05569
6.1155,0.05035,0.00488,-0.12222,-0.02625,-0.02075,-0.03754,-0.11093,-0.02747,-0.01923,-0.02365,-0.01816,-0.25238,-0.03098,-0.01343,0.00519,-0.05585
6.116,0.05096,0.00763,-0.09811,-0.06516,-0.0145,-0.03586,-0.11963,-0.03693,-0.01923,-0.02319,-0.04074,-0.14343,-0.02914,-0.0145,0.00488,-0.05508
6.1165,0.04959,0.00214,-0.07599,-0.09842,0.01328,-0.03723,-0.11765,-0.01663,-0.0209,-0.03159,-0.04807,-0.03006,-0.02823,-0.01572,0.0058,-0.05234
6.117,0.04959,-0.01297,-0.05829,-0.1207,0.06729,-0.03876,-0.08713,0.01297,-0.02502,-0.02777,-0.03632,-0.02609,-0.02777,-0.01495,0.00809,-0.04715
6.1175,0.05356,-0.03098,-0.04547,-0.11581,0.10269,-0.04059,-0.04456,0.03021,-0.03403,-0.03372,-0.00946,-0.09766,-0.0296,-0.01541,0.01038,-0.04166
6.118,0.06317,-0.04242,-0.0325,-0.08347,0.08408,-0.04501,-0.03494,0.02274,-0.04654,-0.04089,0.01907,-0.11932,-0.03265,-0.0174,0.01312,-0.03754
6.1185,0.07629,-0.04547,-0.00946,-0.05081,0.0145,-0.04852,-0.06653,-0.009,-0.05814,-0.06302,0.02777,-0.02701,-0.03555,-0.02106,0.0145,-0.03662
6.119,0.08865,-0.04684,0.02625,-0.04395,-0.07889,-0.04974,-0.0853,-0.03632,-0.06256,-0.07431,0.0119,0.1149,-0.03616,-0.02289,0.01404,-0.03769
6.1195,0.10132,-0.04883,0.05707,-0.05981,-0.1474,-0.05096,-0.04089,-0.02014,-0.05783,-0.0766,-0.00595,0.18616,-0.0351,-0.02258,0.01343,-0.03723
6.12,0.11475,-0.04501,0.06027,-0.07706,-0.15366,-0.05295,0.04547,0.04471,-0.05066,-0.06302,0.00015,0.13443,-0.03479,-0.02304,0.01205,-0.03677
6.1205,0.12589,-0.03067,0.02838,-0.07797,-0.10696,-0.05829,0.10925,0.11169,-0.047,-0.04959,0.02563,0.02945,-0.0383,-0.02579,0.01022,-0.03647
6.121,0.13336,-0.01358,-0.0174,-0.05081,-0.06714,-0.06699,0.11749,0.12939,-0.04578,-0.03708,0.04578,-0.00458,-0.04135,-0.02838,0.00793,-0.03891
6.1215,0.13748,-0.00778,-0.05615,-0.00351,-0.06897,-0.07553,0.08713,0.103,-0.0444,-0.02426,0.04074,0.06989,-0.04242,-0.03052,0.00702,-0.0415
6.122,0.14084,-0.01633,-0.07782,0.02823,-0.08362,-0.07965,0.0441,0.08011,-0.03586,-0.00427,0.0148,0.15717,-0.04181,-0.03174,0.00778,-0.04257
6.1225,0.14618,-0.02533,-0.08026,-0.01099,-0.07538,-0.07767,0.01129,0.08209,-0.01694,0.01373,-0.0148,0.15335,-0.0415,-0.03159,0.00946,-0.03967
6.123,0.15198,-0.02228,-0.06958,-0.15411,-0.05951,-0.07217,0.01022,0.09247,0.01053,0.03464,-0.03601,0.08163,-0.04105,-0.02777,0.01068,-0.03708
6.1235,0.15625,-0.00656,-0.06088,-0.36575,-0.07233,-0.06668,0.03983,0.08743,0.03998,0.03967,-0.04196,0.03754,-0.03906,-0.02274,0.01236,-0.03525
6.124,0.15762,0.01007,-0.06256,-0.56702,-0.10895,-0.06348,0.06668,0.0647,0.06271,0.03952,-0.03708,0.03998,-0.03571,-0.01785,0.01343,-0.03815
6.1245,0.15823,0.02014,-0.07172,-0.69763,-0.12024,-0.05981,0.06531,0.03708,0.07019,0.0209,-0.03555,0.00854,-0.03265,-0.0145,0.0116,-0.04303
6.125,0.15701,0.02136,-0.07751,-0.74341,-0.06943,-0.05219,0.05005,0.01556,0.06348,-0.00809,-0.04593,-0.10559,-0.0322,-0.01373,0.00717,-0.04745
6.1255,0.15091,0.01404,-0.0737,-0.70557,0.01617,-0.04074,0.04761,-0.00702,0.05157,-0.03754,-0.06332,-0.22415,-0.03281,-0.01373,0.00412,-0.05173
6.126,0.13824,0.00183,-0.06241,-0.5925,0.07523,-0.0325,0.05417,-0.05249,0.04196,-0.06653,-0.07339,-0.2182,-0.03311,-0.0145,0.00229,-0.05417
6.1265,0.12268,-0.01205,-0.047,-0.40054,0.07645,-0.02914,0.05402,-0.1181,0.03372,-0.0853,-0.065,-0.06348,-0.03204,-0.01495,0.00076,-0.05524
6.127,0.11139,-0.0209,-0.03174,-0.06409,0.04547,-0.03311,0.04562,-0.17395,0.01877,-0.09033,-0.04547,0.1207,-0.03036,-0.01511,0.00076,-0.05478
6.1275,0.11063,-0.02625,-0.0209,0.46494,0.0267,-0.03937,0.03571,-0.1886,-0.00137,-0.08469,-0.03464,0.19394,-0.02853,-0.01511,0.00046,-0.0531
6.128,0.12115,-0.03189,-0.01801,1.01639,0.03891,-0.04471,0.02167,-0.16525,-0.02121,-0.08255,-0.03601,0.13107,-0.02823,-0.01389,0.00366,-0.05142
6.1285,0.13504,-0.04074,-0.0209,1.2468,0.05859,-0.04715,0.00336,-0.12039,-0.03586,-0.07492,-0.03983,0.00198,-0.02899,-0.01312,0.00793,-0.04913
6.129,0.14343,-0.0502,-0.02304,1.01273,0.04852,-0.04623,-0.01572,-0.05692,-0.04257,-0.05859,-0.03372,-0.13626,-0.02991,-0.0148,0.01053,-0.04684
6.1295,0.14542,-0.05234,-0.01999,0.56549,-0.00565,-0.0415,-0.03403,0.01541,-0.04303,-0.04303,-0.01892,-0.26657,-0.02899,-0.01724,0.01083,-0.04318
6.13,0.14709,-0.04852,-0.01678,0.25879,-0.07172,-0.0383,-0.06195,0.05188,-0.04288,-0.02884,-0.0058,-0.3627,-0.02777,-0.01892,0.01007,-0.03967
6.1305,0.15488,-0.04257,-0.01892,0.18494,-0.0972,-0.03799,-0.09384,0.01266,-0.0473,-0.01236,0.00504,-0.37781,-0.02808,-0.01923,0.00824,-0.03952
6.131,0.168,-0.03967,-0.0264,0.18097,-0.05829,-0.03677,-0.103,-0.07233,-0.05768,0.00534,0.01801,-0.28549,-0.03113,-0.01923,0.00717,-0.04028
6.1315,0.18204,-0.03845,-0.03098,0.10117,0.00778,-0.03448,-0.07172,-0.14145,-0.06531,0.02808,0.03052,-0.12192,-0.03464,-0.01724,0.00687,-0.04318
6.132,0.19104,-0.03815,-0.02869,-0.01709,0.03952,-0.03311,-0.01678,-0.16495,-0.06271,0.04471,0.03662,0.01312,-0.03448,-0.01328,0.00687,-0.04425
6.1325,0.19608,-0.03922,-0.02258,-0.03418,0.00732,-0.03342,0.02335,-0.17578,-0.04974,0.04669,0.03525,0.03967,-0.03174,-0.00778,0.00763,-0.04379
6.133,0.20126,-0.04456,-0.01923,0.10498,-0.07477,-0.03448,0.02228,-0.23178,-0.03418,0.03845,0.03113,-0.01144,-0.02869,-0.00488,0.00931,-0.04288
6.1335,0.20721,-0.05341,-0.02151,0.29144,-0.1564,-0.03723,-0.00809,-0.3447,-0.02136,0.01694,0.02792,-0.0264,-0.02701,-0.00626,0.00854,-0.04257
6.134,0.21683,-0.06119,-0.02304,0.35248,-0.17654,-0.04089,-0.04013,-0.43396,-0.01251,0.00259,0.02533,0.05997,-0.02731,-0.01221,0.00839,-0.04364
6.1345,0.22812,-0.06317,-0.01801,0.23254,-0.121,-0.04242,-0.06134,-0.39703,-0.00687,-0.00534,0.02319,0.17197,-0.02869,-0.01755,0.00732,-0.04456
6.135,0.23941,-0.05798,-0.01083,0.04929,-0.04501,-0.04089,-0.06927,-0.22659,-0.00381,-0.00748,0.0206,0.18784,-0.03082,-0.01892,0.00702,-0.04425
6.1355,0.24994,-0.05035,-0.01648,-0.04852,-0.00809,-0.03815,-0.05203,-0.01053,-0.00214,-0.01099,0.01358,0.09216,-0.03204,-0.01877,0.00641,-0.04532
6.136,0.25848,-0.04517,-0.03983,-0.05096,-0.00824,-0.03998,-0.00046,0.14206,-0.00061,-0.01343,0.00015,-0.0412,-0.0325,-0.01999,0.00534,-0.04852
6.1365,0.26413,-0.04425,-0.06454,-0.05157,-0.00275,-0.04517,0.0589,0.17105,-0.00015,-0.01801,-0.01251,-0.13519,-0.0322,-0.02151,0.0032,-0.05157
6.137,0.26611,-0.04639,-0.07004,-0.09933,0.02121,-0.04898,0.07797,0.09445,0.00137,-0.02686,-0.01907,-0.1358,-0.02975,-0.02274,0.00153,-0.0528
6.1375,0.26077,-0.04761,-0.05844,-0.1619,0.04639,-0.05005,0.03891,-0.00031,0.00153,-0.03662,-0.01755,-0.02701,-0.02808,-0.02136,0.00092,-0.05157
6.138,0.24582,-0.04791,-0.04547,-0.20111,0.04837,-0.04898,-0.01358,-0.01999,-0.00031,-0.04364,0.0,0.12985,-0.02792,-0.01923,0.00031,-0.05066
6.1385,0.22552,-0.04791,-0.04059,-0.21759,0.01556,-0.04837,-0.02121,0.05539,-0.00336,-0.04532,0.02792,0.22461,-0.03021,-0.01862,0.00137,-0.05035
6.139,0.2121,-0.05325,-0.04089,-0.21729,-0.03891,-0.04684,0.01984,0.1712,-0.00656,-0.04593,0.04959,0.20874,-0.03036,-0.0174,0.00366,-0.05035
6.1395,0.21515,-0.0647,-0.04318,-0.19714,-0.08484,-0.04684,0.06012,0.25803,-0.00763,-0.04562,0.04822,0.13687,-0.02899,-0.01617,0.00534,-0.04929
6.14,0.22797,-0.08102,-0.04379,-0.17044,-0.10025,-0.04837,0.05905,0.28946,-0.00778,-0.04913,0.0267,0.08789,-0.0264,-0.01495,0.0061,-0.04471
6.1405,0.23621,-0.09689,-0.02716,-0.15793,-0.09979,-0.05356,0.02838,0.27847,-0.00732,-0.04959,0.00107,0.08301,-0.02472,-0.01633,0.00824,-0.04013
6.141,0.23239,-0.10773,0.01526,-0.15701,-0.10681,-0.05798,0.00626,0.22995,-0.00702,-0.04379,-0.01953,0.10254,-0.02563,-0.01938,0.01022,-0.03494
6.1415,0.21805,-0.10788,0.06699,-0.14282,-0.11047,-0.05966,0.00885,0.14008,-0.0058,-0.03479,-0.03586,0.12878,-0.02716,-0.02197,0.01221,-0.03189
6.142,0.19623,-0.10101,0.09247,-0.10071,-0.08179,-0.05859,0.01404,0.03159,-0.00397,-0.02487,-0.05417,0.14648,-0.02838,-0.02136,0.01404,-0.02899
6.1425,0.16907,-0.09384,0.07492,-0.05295,-0.03281,-0.05386,-0.00809,-0.04974,-0.0029,-0.01312,-0.06744,0.11932,-0.02808,-0.01907,0.01511,-0.02609
6.143,0.13931,-0.09018,0.03159,-0.03235,-0.01266,-0.04913,-0.05341,-0.07492,-0.00259,0.0,-0.07645,0.02792,-0.02747,-0.01709,0.01617,-0.02274
6.1435,0.11154,-0.08835,-0.00839,-0.04791,-0.02975,-0.04456,-0.08377,-0.06104,-0.00153,0.01373,-0.07767,-0.08957,-0.02762,-0.01816,0.01724,-0.02167
6.144,0.08652,-0.08209,-0.03418,-0.06744,-0.03555,-0.04059,-0.07828,-0.03204,-0.00015,0.02365,-0.07309,-0.18661,-0.02808,-0.01923,0.01831,-0.02274
6.1445,0.06119,-0.06912,-0.05371,-0.06516,0.0029,-0.03922,-0.06012,0.01022,0.00214,0.02243,-0.06897,-0.26047,-0.03036,-0.02045,0.01587,-0.02441
6.145,0.03174,-0.05234,-0.07614,-0.06165,0.05875,-0.03769,-0.05859,0.06439,0.00488,0.01205,-0.06516,-0.31494,-0.03342,-0.0209,0.01251,-0.02747
6.1455,-0.00198,-0.03738,-0.10101,-0.08865,0.10101,-0.03708,-0.07126,0.10818,0.00931,-0.00534,-0.06027,-0.31708,-0.03616,-0.02258,0.00854,-0.03098
6.146,-0.03159,-0.0264,-0.1207,-0.13031,0.12741,-0.03494,-0.07431,0.10773,0.01312,-0.02533,-0.05325,-0.2449,-0.03754,-0.02319,0.00702,-0.03433
6.1465,-0.04852,-0.0177,-0.12634,-0.14084,0.14313,-0.03189,-0.06699,0.05844,0.0174,-0.04059,-0.04272,-0.13077,-0.03906,-0.02441,0.00778,-0.03616
6.147,-0.0528,-0.00931,-0.11627,-0.11063,0.13733,-0.02991,-0.06226,-0.00839,0.02243,-0.05371,-0.03601,-0.0119,-0.04181,-0.02548,0.00748,-0.03662
6.1475,-0.05157,-0.00519,-0.09872,-0.07339,0.10452,-0.03113,-0.06058,-0.04913,0.03021,-0.065,-0.0322,0.1088,-0.04517,-0.02792,0.00809,-0.03952
6.148,-0.05386,-0.009,-0.08133,-0.05798,0.05646,-0.03769,-0.05661,-0.05997,0.03677,-0.07599,-0.02579,0.1944,-0.0502,-0.03082,0.00687,-0.04318
6.1485,-0.06592,-0.01785,-0.06393,-0.06134,-0.00122,-0.04639,-0.05508,-0.08286,0.03448,-0.0853,-0.01877,0.168,-0.05585,-0.03387,0.00458,-0.04501
6.149,-0.0853,-0.02411,-0.04745,-0.06149,-0.07858,-0.0528,-0.05585,-0.16174,0.02228,-0.10056,-0.01144,0.02731,-0.0592,-0.0351,0.00259,-0.04471
6.1495,-0.10513,-0.0238,-0.0322,-0.0444,-0.17044,-0.05417,-0.04578,-0.27054,0.00504,-0.11902,-0.01007,-0.08041,-0.05692,-0.03281,0.00397,-0.0441
6.15,-0.12009,-0.01923,-0.02136,-0.01068,-0.24384,-0.05371,-0.01785,-0.32822,-0.00793,-0.1297,-0.01068,-0.01221,-0.05127,-0.02945,0.00763,-0.04395
6.1505,-0.13153,-0.01572,-0.0209,0.02823,-0.26886,-0.05463,0.00626,-0.29083,-0.01801,-0.12772,-0.00732,0.18539,-0.04852,-0.02716,0.01099,-0.04532
6.151,-0.14252,-0.01511,-0.02899,0.05737,-0.24277,-0.05844,0.00198,-0.18402,-0.02869,-0.112,0.0,0.32822,-0.04959,-0.02579,0.00931,-0.04944
6.1515,-0.15488,-0.01495,-0.03799,0.06729,-0.18433,-0.06119,-0.02319,-0.05417,-0.03967,-0.09064,0.00504,0.31036,-0.04944,-0.02396,0.00397,-0.05447
6.152,-0.16388,-0.01556,-0.03601,0.05981,-0.11749,-0.05905,-0.03754,0.07263,-0.04913,-0.07492,0.00565,0.17303,-0.04684,-0.02106,0.00092,-0.05997
6.1525,-0.16769,-0.01724,-0.02838,0.05066,-0.06699,-0.05325,-0.02304,0.1709,-0.05432,-0.07568,-0.00656,0.02213,-0.0444,-0.01678,-0.00015,-0.06363
6.153,-0.17181,-0.01953,-0.02182,0.05981,-0.04395,-0.04868,0.01358,0.21255,-0.056,-0.09186,-0.02914,-0.06393,-0.04303,-0.01312,0.00015,-0.06332
6.1535,-0.18097,-0.02457,-0.0235,0.10132,-0.03448,-0.04807,0.05508,0.19608,-0.05478,-0.09857,-0.04898,-0.06027,-0.04196,-0.0119,-0.00061,-0.05997
6.154,-0.19424,-0.02884,-0.03006,0.17548,-0.02441,-0.05051,0.08499,0.15701,-0.05051,-0.07904,-0.05112,0.00259,-0.04059,-0.01404,-0.00198,-0.05646
6.1545,-0.20355,-0.03662,-0.0351,0.27145,-0.01587,-0.0502,0.09308,0.11292,-0.04395,-0.03387,-0.04105,0.05905,-0.04013,-0.01785,-0.00381,-0.05554
6.155,-0.20554,-0.05142,-0.03494,0.36087,-0.01511,-0.04776,0.08255,0.05676,-0.03632,0.01877,-0.02441,0.06134,-0.04028,-0.02014,-0.00443,-0.05554
6.1555,-0.20416,-0.07278,-0.03296,0.41229,-0.01862,-0.04562,0.06119,-0.009,-0.02853,0.06622,-0.01419,0.0148,-0.03998,-0.01968,-0.00336,-0.05463
6.156,-0.20538,-0.08804,-0.03342,0.40344,-0.01678,-0.04684,0.03479,-0.05112,-0.01816,0.10941,-0.00748,-0.04684,-0.03677,-0.02014,-0.00031,-0.05005
6.1565,-0.21133,-0.08743,-0.03448,0.33203,-0.01602,-0.04868,0.00687,-0.05127,-0.00549,0.15167,-0.00122,-0.08972,-0.03021,-0.0206,0.0032,-0.04654
6.157,-0.21973,-0.0824,-0.0322,0.21423,-0.04227,-0.05127,-0.01099,-0.03738,0.00519,0.18356,0.00565,-0.09476,-0.02167,-0.02228,0.00793,-0.04486
6.1575,-0.2272,-0.08438,-0.02655,0.07553,-0.1033,-0.05859,-0.01923,-0.0383,0.00793,0.17944,0.00778,-0.06241,-0.01312,-0.02243,0.01053,-0.04486
6.158,-0.23285,-0.09109,-0.01953,-0.06516,-0.17105,-0.06851,-0.03174,-0.05051,0.00458,0.14008,0.00015,-0.02289,-0.00839,-0.02228,0.01129,-0.04333
6.1585,-0.24216,-0.08896,-0.01068,-0.2092,-0.1828,-0.07736,-0.06195,-0.05173,0.00122,0.09109,-0.01175,-0.00229,-0.00885,-0.02136,0.01144,-0.04105
6.159,-0.25513,-0.07629,0.00015,-0.36102,-0.11505,-0.07706,-0.09933,-0.03448,0.00351,0.05936,-0.01968,0.0116,-0.01205,-0.02075,0.01144,-0.0386
6.1595,-0.26718,-0.06393,0.01099,-0.50812,0.00153,-0.06805,-0.11993,-0.01144,0.01083,0.04929,-0.01678,0.05661,-0.01282,-0.01923,0.01312,-0.03754
6.16,-0.27222,-0.05539,0.01587,-0.6131,0.09918,-0.05905,-0.10864,-0.00214,0.02121,0.05096,-0.01038,0.12894,-0.01038,-0.01648,0.01297,-0.03708
6.1605,-0.27359,-0.03967,0.01694,-0.62119,0.13733,-0.05081,-0.07813,-0.03143,0.02975,0.05142,0.00198,0.16708,-0.00977,-0.0148,0.01236,-0.03815
6.161,-0.27649,-0.01282,0.0177,-0.51178,0.12894,-0.04425,-0.05447,-0.09995,0.02914,0.04471,0.01755,0.1236,-0.01511,-0.01556,0.01221,-0.03784
6.1615,-0.28458,0.0148,0.01953,-0.33249,0.10376,-0.04013,-0.056,-0.16495,0.01541,0.03586,0.03464,0.0293,-0.02838,-0.01999,0.01266,-0.03616
6.162,-0.29343,0.0325,0.02319,-0.15091,0.06287,-0.03891,-0.0795,-0.17578,-0.00412,0.02136,0.05341,-0.04745,-0.04471,-0.0238,0.01556,-0.03357
6.1625,-0.29541,0.03891,0.04089,-0.0058,0.0032,-0.04059,-0.10452,-0.12543,-0.02014,0.00427,0.06592,-0.06561,-0.05783,-0.02319,0.0174,-0.03143
6.163,-0.289,0.03754,0.0737,0.07446,-0.06485,-0.04425,-0.1149,-0.04349,-0.02853,-0.01221,0.0708,-0.03799,-0.06027,-0.01816,0.02029,-0.03052
6.1635,-0.27786,0.03082,0.09354,0.07111,-0.13138,-0.05127,-0.09338,0.03876,-0.0351,-0.02304,0.06104,-0.01862,-0.0531,-0.01129,0.0209,-0.0325
6.164,-0.2652,0.01953,0.05722,0.0563,-0.17166,-0.06073,-0.02945,0.10818,-0.04364,-0.03647,0.0264,-0.05753,-0.0444,-0.00763,0.01953,-0.03601
6.1645,-0.24948,0.00565,-0.01907,0.17273,-0.17807,-0.06607,0.05371,0.15579,-0.05234,-0.06119,-0.03311,-0.14496,-0.04028,-0.00763,0.01633,-0.04028
6.165,-0.22736,-0.00809,-0.06378,0.43655,-0.16968,-0.06409,0.09445,0.16373,-0.05844,-0.09293,-0.08209,-0.21912,-0.04074,-0.01007,0.01175,-0.04364
6.1655,-0.19913,-0.01999,-0.04776,0.63232,-0.19211,-0.05569,0.0589,0.11871,-0.06241,-0.11475,-0.08347,-0.23056,-0.03952,-0.01251,0.00916,-0.04684
6.166,-0.17288,-0.03342,-0.01999,0.55664,-0.23163,-0.04807,-0.01678,0.0412,-0.06348,-0.11322,-0.05081,-0.18478,-0.0383,-0.0148,0.00992,-0.04807
6.1665,-0.15625,-0.05386,-0.04044,0.28702,-0.22156,-0.04211,-0.0708,-0.02533,-0.06073,-0.09354,-0.02121,-0.11673,-0.03738,-0.01755,0.0116,-0.04654
6.167,-0.14969,-0.08362,-0.09933,0.06531,-0.13397,-0.03677,-0.08118,-0.05188,-0.05249,-0.06973,-0.0116,-0.06271,-0.03769,-0.01999,0.01373,-0.04349
6.1675,-0.14816,-0.11353,-0.15289,-0.01343,-0.0264,-0.03159,-0.06927,-0.04288,-0.04227,-0.05081,-0.01053,-0.0528,-0.03769,-0.02121,0.01724,-0.04044
6.168,-0.14633,-0.13763,-0.1712,-0.03448,0.0412,-0.02792,-0.05386,-0.0238,-0.03387,-0.03616,-0.01099,-0.08469,-0.03662,-0.02167,0.0174,-0.03952
6.1685,-0.14404,-0.15656,-0.15625,-0.06302,0.05737,-0.02625,-0.03494,-0.01389,-0.02914,-0.01602,-0.01862,-0.10544,-0.03479,-0.02182,0.01572,-0.03922
6.169,-0.14114,-0.17014,-0.12314,-0.07996,0.05524,-0.02792,-0.00732,-0.00946,-0.02747,0.00351,-0.03204,-0.05554,-0.03418,-0.02335,0.0116,-0.04028
6.1695,-0.13809,-0.16586,-0.07858,-0.06836,0.05402,-0.03021,0.01755,0.00473,-0.02548,0.02304,-0.04288,0.05051,-0.03494,-0.02594,0.00824,-0.04181
6.17,-0.13245,-0.13321,-0.02411,-0.04669,0.04425,-0.02975,0.02319,0.02777,-0.02182,0.0383,-0.04745,0.12466,-0.03448,-0.02762,0.00824,-0.04318
6.1705,-0.12939,-0.0769,0.03448,-0.03235,0.03662,-0.02762,0.01129,0.04395,-0.01587,0.04929,-0.04227,0.11429,-0.03326,-0.0293,0.00778,-0.04242
6.171,-0.13199,-0.01434,0.08469,-0.04364,0.03494,-0.02594,0.0,0.03937,-0.00946,0.05249,-0.03357,0.05707,-0.0293,-0.02716,0.00824,-0.04318
6.1715,-0.13977,0.03784,0.10376,-0.1123,0.0383,-0.02823,-0.00031,0.01968,-0.00305,0.04944,-0.02304,0.02579,-0.02365,-0.02243,0.00671,-0.04471
6.172,-0.14389,0.06638,0.07217,-0.23224,0.03754,-0.03342,0.00381,-0.0029,0.00534,0.04425,-0.00916,0.05356,-0.01846,-0.01663,0.00916,-0.04761
6.1725,-0.14313,0.0621,0.00015,-0.3302,0.0119,-0.04044,0.00351,-0.02045,0.01419,0.04288,0.00061,0.10864,-0.01465,-0.01343,0.01266,-0.04761
6.173,-0.14114,0.02426,-0.0708,-0.336,-0.01678,-0.04425,0.00046,-0.03113,0.01846,0.03876,0.00397,0.12482,-0.01114,-0.01022,0.01572,-0.0441
6.1735,-0.14267,-0.03082,-0.10559,-0.26199,-0.03326,-0.04608,-0.00229,-0.03418,0.01404,0.02121,0.0058,0.06561,-0.00595,-0.00626,0.0145,-0.04135
6.174,-0.14893,-0.07446,-0.11063,-0.1767,-0.01663,-0.0473,-0.00458,-0.02426,0.00656,-0.00687,0.01022,-0.03128,-0.00153,-0.00214,0.0119,-0.04211
6.1745,-0.15884,-0.09003,-0.10986,-0.12665,0.02808,-0.04883,-0.00824,-0.00473,0.00366,-0.0386,0.01129,-0.10315,-0.00015,-0.00183,0.00824,-0.0444
6.175,-0.16708,-0.08469,-0.11673,-0.10773,0.06256,-0.04974,-0.00931,0.02151,0.00534,-0.0618,0.00702,-0.12161,0.00031,-0.00412,0.00702,-0.04639
6.1755,-0.17166,-0.07263,-0.12619,-0.09781,0.06454,-0.04944,-0.0058,0.04395,0.00412,-0.0766,-0.00137,-0.09262,-0.00015,-0.00824,0.0058,-0.04639
6.176,-0.17181,-0.06073,-0.13077,-0.08835,0.03342,-0.04807,0.00275,0.0592,-0.00198,-0.0856,-0.01144,-0.02365,-0.00076,-0.01266,0.00549,-0.04745
6.1765,-0.17044,-0.04913,-0.1239,-0.08087,0.00992,-0.04562,0.01404,0.06714,-0.01266,-0.09018,-0.02441,0.07538,-0.00198,-0.01389,0.0058,-0.04776
6.177,-0.16693,-0.03891,-0.10452,-0.07278,0.02029,-0.04272,0.02472,0.06638,-0.02213,-0.09079,-0.05035,0.16754,-0.00305,-0.01282,0.00763,-0.04608
6.1775,-0.16281,-0.02792,-0.07065,-0.04852,0.05753,-0.04089,0.03113,0.05768,-0.02716,-0.08499,-0.09857,0.19714,-0.00366,-0.01236,0.01068,-0.04211
6.178,-0.1593,-0.01633,-0.03784,-0.00427,0.07019,-0.04272,0.03006,0.04639,-0.02808,-0.07004,-0.16953,0.1442,-0.00427,-0.01221,0.01373,-0.03906
6.1785,-0.15732,-0.00824,-0.03448,0.03632,0.0441,-0.04929,0.02151,0.03433,-0.02792,-0.04868,-0.22522,0.0531,-0.00488,-0.01205,0.01434,-0.03891
6.179,-0.1503,-0.00916,-0.06378,0.04913,-0.02014,-0.056,0.00793,0.02243,-0.02716,-0.02533,-0.20599,-0.00793,-0.00702,-0.0116,0.01129,-0.04044
6.1795,-0.13138,-0.01633,-0.09857,0.04044,-0.07599,-0.05676,-0.0061,0.01007,-0.02396,-0.00916,-0.1004,-0.01373,-0.01312,-0.01404,0.00824,-0.04105
6.18,-0.1062,-0.01862,-0.11368,0.03448,-0.08972,-0.05478,-0.01877,0.00381,-0.01144,-0.00092,0.03021,0.00641,-0.0235,-0.01846,0.0087,-0.04135
6.1805,-0.08636,-0.00824,-0.10651,0.04471,-0.04776,-0.05371,-0.02808,0.0032,0.01221,0.00229,0.11871,0.0087,-0.03555,-0.02136,0.01053,-0.0415
6.181,-0.07614,0.00198,-0.08972,0.06241,0.01862,-0.05341,-0.03433,0.00778,0.03998,0.01053,0.16068,-0.01968,-0.04379,-0.02029,0.009,-0.04242
6.1815,-0.07141,-0.00519,-0.06821,0.07523,0.065,-0.05295,-0.03677,0.01205,0.05615,0.01755,0.18311,-0.05402,-0.05051,-0.01846,0.00732,-0.04349
6.182,-0.06805,-0.0264,-0.04486,0.07767,0.06393,-0.04929,-0.03662,0.00916,0.05371,0.02197,0.18738,-0.05569,-0.05844,-0.01846,0.00458,-0.04349
6.1825,-0.06714,-0.04028,-0.02518,0.0766,0.03281,-0.04471,-0.03479,-0.00641,0.03937,0.01266,0.15213,-0.02686,-0.06683,-0.01999,0.00473,-0.04333
6.183,-0.06989,-0.03906,-0.01068,0.07065,-0.00397,-0.03998,-0.03235,-0.02502,0.02243,-0.01144,0.07187,-0.00854,-0.07248,-0.02258,0.00549,-0.04349
6.1835,-0.07217,-0.03647,-0.00275,0.05554,-0.03372,-0.03632,-0.02548,-0.02655,0.00534,-0.04791,-0.01251,-0.02121,-0.07294,-0.02411,0.00748,-0.04562
6.184,-0.06714,-0.04196,0.00061,0.03342,-0.0679,-0.03387,-0.0148,-0.00549,-0.01434,-0.08377,-0.04349,-0.02304,-0.06943,-0.02411,0.009,-0.047
6.1845,-0.05341,-0.04684,-0.00137,0.01617,-0.09689,-0.03098,-0.00793,0.02289,-0.03738,-0.11185,-0.01129,0.03448,-0.06561,-0.02441,0.00885,-0.04715
6.185,-0.03967,-0.03906,-0.00687,0.01205,-0.10574,-0.02563,-0.01022,0.03571,-0.05936,-0.13184,0.04227,0.12024,-0.06165,-0.0264,0.00992,-0.04517
6.1855,-0.03311,-0.02106,-0.0148,0.01968,-0.08026,-0.01785,-0.01083,0.02808,-0.07828,-0.14069,0.07385,0.14267,-0.0589,-0.02899,0.01358,-0.04211
6.186,-0.03052,-0.00519,-0.02136,0.02609,-0.04028,-0.01389,0.01007,0.0148,-0.09567,-0.1326,0.07385,0.07004,-0.05783,-0.03021,0.0145,-0.0386
6.1865,-0.0177,0.00168,-0.02533,0.01419,-0.02838,-0.01984,0.04852,0.00961,-0.11215,-0.09979,0.04929,-0.02136,-0.056,-0.03067,0.01465,-0.03799
6.187,0.00549,0.00137,-0.02777,-0.01358,-0.04547,-0.03189,0.0679,0.01587,-0.1265,-0.0473,0.01297,-0.04257,-0.05386,-0.03052,0.0119,-0.04135
6.1875,0.02136,-0.00351,-0.02304,-0.02029,-0.04868,-0.04257,0.04944,0.02304,-0.13611,0.00244,-0.02625,-0.00015,-0.05325,-0.03143,0.00763,-0.04517
6.188,0.0174,-0.01129,-0.00336,0.01831,-0.03159,-0.0473,0.02045,0.01999,-0.13855,0.02731,-0.05692,0.04074,-0.05432,-0.03357,0.00519,-0.04837
6.1885,0.00015,-0.01587,0.02716,0.06958,-0.00549,-0.04745,0.0116,0.00137,-0.13214,0.01236,-0.07278,0.04486,-0.05524,-0.03555,0.00351,-0.04868
6.189,-0.01419,-0.01633,0.05905,0.08591,0.01205,-0.04807,0.02045,-0.02533,-0.12085,-0.02808,-0.07645,0.02991,-0.0563,-0.03647,0.00519,-0.04684
6.1895,-0.0235,-0.01373,0.07919,0.06836,0.0354,-0.04761,0.0235,-0.0415,-0.10788,-0.06653,-0.07614,0.01846,-0.05829,-0.03387,0.00931,-0.04425
6.19,-0.03571,-0.01678,0.08484,0.04166,0.07401,-0.04471,0.00793,-0.03769,-0.09491,-0.07935,-0.07614,0.01526,-0.05707,-0.02655,0.01404,-0.04074
6.1905,-0.05173,-0.02563,0.07523,0.00427,0.11353,-0.04318,-0.01999,-0.02182,-0.07538,-0.06302,-0.07965,0.0148,-0.04868,-0.01953,0.01617,-0.03952
6.191,-0.06454,-0.03769,0.05386,-0.06073,0.12177,-0.04532,-0.0444,-0.00534,-0.0473,-0.03128,-0.08072,0.01724,-0.03677,-0.01389,0.01465,-0.04532
6.1915,-0.07568,-0.05173,0.02396,-0.12512,0.07965,-0.05051,-0.05371,0.00443,-0.01434,0.00381,-0.0798,0.01831,-0.02365,-0.01038,0.01129,-0.05829
6.192,-0.09506,-0.06653,-0.00809,-0.11688,-0.00336,-0.05585,-0.04578,0.00961,0.01572,0.03372,-0.07614,0.01251,-0.01221,-0.009,0.00671,-0.07156
6.1925,-0.12512,-0.07645,-0.03799,0.00031,-0.0975,-0.05829,-0.03326,0.01083,0.03326,0.05463,-0.07065,0.0032,-0.00381,-0.00946,0.00565,-0.07278
6.193,-0.14297,-0.07538,-0.06271,0.15366,-0.16739,-0.05814,-0.02701,0.00916,0.03464,0.0621,-0.05951,-0.00137,0.00031,-0.01022,0.00763,-0.05661
6.1935,-0.1268,-0.06943,-0.08011,0.21545,-0.19958,-0.056,-0.02792,0.00687,0.02838,0.05707,-0.0444,0.00015,0.00107,-0.00748,0.01053,-0.03128
6.194,-0.09079,-0.06393,-0.09018,0.12909,-0.20538,-0.05722,-0.03082,0.0061,0.02396,0.04028,-0.03433,0.00092,-0.00107,-0.00214,0.01068,-0.01236
6.1945,-0.06699,-0.05936,-0.0914,-0.0322,-0.19867,-0.06317,-0.03143,0.00534,0.02289,0.01404,-0.03677,-0.00305,-0.00275,0.00275,0.00961,-0.01053
6.195,-0.06302,-0.05463,-0.0824,-0.15259,-0.1828,-0.07034,-0.0322,0.00381,0.01907,-0.02136,-0.04745,-0.0061,-0.00504,0.00183,0.01236,-0.02548
6.1955,-0.06699,-0.04929,-0.07019,-0.2063,-0.15396,-0.07156,-0.03174,0.00473,0.01022,-0.05478,-0.05402,-0.00305,-0.00839,-0.00458,0.01755,-0.06058
6.196,-0.06638,-0.04333,-0.06393,-0.2684,-0.11444,-0.06393,-0.03098,0.00977,0.00031,-0.07126,-0.056,0.00473,-0.01251,-0.01221,0.02182,-0.1207
6.1965,-0.05966,-0.03693,-0.0589,-0.35477,-0.07278,-0.05219,-0.03098,0.01663,-0.00641,-0.06516,-0.06271,0.01068,-0.01938,-0.01541,0.02167,-0.19974
6.197,-0.04745,-0.03128,-0.04379,-0.35614,-0.03464,-0.04074,-0.03143,0.01999,-0.01053,-0.05173,-0.07965,0.01144,-0.02594,-0.01694,0.01831,-0.2713
6.1975,-0.03571,-0.02914,-0.02045,-0.17868,-0.00717,-0.03738,-0.03128,0.01923,-0.01007,-0.04517,-0.09308,0.00931,-0.03067,-0.01816,0.01785,-0.29114
6.198,-0.03479,-0.03174,-0.00824,0.11185,0.00549,-0.04044,-0.03296,0.01633,-0.00702,-0.04745,-0.08469,0.00381,-0.03418,-0.02106,0.01816,-0.22217
6.1985,-0.04852,-0.03479,-0.01648,0.35507,0.00473,-0.04684,-0.03342,0.01404,-0.00549,-0.04471,-0.05661,-0.00473,-0.03693,-0.02457,0.01648,-0.08194
6.199,-0.0676,-0.03799,-0.03494,0.45303,0.00092,-0.05219,-0.03326,0.01373,-0.0087,-0.02853,-0.02579,-0.01251,-0.04074,-0.02609,0.01465,0.06653
6.1995,-0.07858,-0.04532,-0.05127,0.41046,-0.0058,-0.05661,-0.03143,0.01419,-0.01205,-0.00046,-0.00381,-0.01389,-0.0415,-0.02579,0.01862,0.18112
6.2,-0.07935,-0.0679,-0.06042,0.28656,-0.0238,-0.05905,-0.02975,0.01526,-0.01083,0.0267,0.01221,-0.01007,-0.03937,-0.02411,0.02792,0.23621
6.2005,-0.0795,-0.10529,-0.06393,0.1326,-0.05493,-0.06256,-0.0293,0.0145,-0.00168,0.0502,0.02487,-0.00732,-0.03754,-0.02258,0.03799,0.20203
6.201,-0.08194,-0.14084,-0.05829,-0.00519,-0.08713,-0.06546,-0.02914,0.01419,0.00946,0.06638,0.0296,-0.01053,-0.03998,-0.02304,0.04745,0.10269
6.2015,-0.08041,-0.15274,-0.04456,-0.04395,-0.1088,-0.06653,-0.02777,0.01251,0.01389,0.07233,0.0238,-0.01816,-0.04379,-0.02411,0.05005,0.03342
6.202,-0.0705,-0.14099,-0.03372,0.10574,-0.112,-0.06516,-0.02426,0.01328,0.00809,0.06012,0.01511,-0.02228,-0.04837,-0.02716,0.04623,0.03845
6.2025,-0.05463,-0.1236,-0.03403,0.3801,-0.08484,-0.0618,-0.02167,0.01373,-0.00229,0.03738,0.01526,-0.0206,-0.0502,-0.03082,0.03769,0.056
6.203,-0.04028,-0.11169,-0.04318,0.55176,-0.02869,-0.05798,-0.02304,0.01266,-0.00916,0.01099,0.02396,-0.01556,-0.05096,-0.03326,0.03006,0.0296
6.2035,-0.03021,-0.10284,-0.05341,0.46219,0.03021,-0.05386,-0.02548,0.00961,-0.01053,-0.009,0.03708,-0.01038,-0.04944,-0.03174,0.02289,-0.00488
6.204,-0.02121,-0.10208,-0.05875,0.2063,0.05463,-0.04791,-0.02655,0.00549,-0.00824,-0.01862,0.05081,-0.00534,-0.047,-0.02579,0.01556,0.0058
6.2045,-0.01053,-0.11749,-0.05905,-0.01007,0.03204,-0.0441,-0.0264,0.0,-0.00702,-0.02151,0.0592,-0.00061,-0.04425,-0.01816,0.00824,0.03601
6.205,0.00549,-0.1416,-0.05341,-0.11536,-0.01358,-0.04395,-0.02502,-0.00702,-0.00687,-0.02426,0.05661,0.00275,-0.04135,-0.01053,0.00458,0.03693
6.2055,0.02533,-0.14359,-0.04456,-0.18677,-0.04272,-0.04623,-0.02396,-0.0116,-0.00946,-0.03342,0.04166,0.00397,-0.04044,-0.009,0.00763,0.03845
6.206,0.0441,-0.10468,-0.0351,-0.29312,-0.04868,-0.04761,-0.02396,-0.01312,-0.01114,-0.04761,0.02182,0.00534,-0.04211,-0.01266,0.01953,0.10193
6.2065,0.06241,-0.04395,-0.0296,-0.42953,-0.05157,-0.05081,-0.02197,-0.01114,-0.00916,-0.06393,0.00687,0.00381,-0.04532,-0.01572,0.03433,0.19043
6.207,0.08163,0.01129,-0.0267,-0.55405,-0.06729,-0.05402,-0.01968,-0.0087,-0.00443,-0.07614,-0.00198,-0.00046,-0.04761,-0.01587,0.03586,0.19196
6.2075,0.10757,0.05417,-0.02594,-0.616,-0.08636,-0.05692,-0.01709,-0.00809,0.00198,-0.09018,-0.00824,-0.0061,-0.04745,-0.01434,0.00641,0.0676
6.208,0.13626,0.09308,-0.02686,-0.58395,-0.08575,-0.05814,-0.01587,-0.00931,0.0061,-0.10773,-0.01373,-0.00977,-0.04501,-0.01358,-0.0444,-0.10025
6.2085,0.16327,0.12543,-0.02579,-0.46814,-0.05478,-0.05753,-0.0145,-0.01144,0.00671,-0.13123,-0.02106,-0.01038,-0.04272,-0.01434,-0.08514,-0.20508
6.209,0.18585,0.14084,-0.02411,-0.3183,-0.01282,-0.0563,-0.01312,-0.01221,0.0029,-0.15945,-0.03235,-0.00626,-0.04333,-0.01572,-0.09018,-0.21957
6.2095,0.20065,0.12955,-0.02945,-0.21347,0.00046,-0.0563,-0.01083,-0.00946,-0.00305,-0.18616,-0.05676,-0.00137,-0.04562,-0.01801,-0.06317,-0.18143
6.21,0.20309,0.09735,-0.04364,-0.20355,-0.01312,-0.05753,-0.00839,-0.00656,-0.01114,-0.20859,-0.10941,0.00153,-0.04593,-0.02029,-0.0325,-0.13229
6.2105,0.19333,0.0528,-0.05402,-0.23254,-0.02426,-0.05859,-0.00763,-0.00565,-0.01678,-0.23071,-0.17654,0.00198,-0.0412,-0.02167,-0.01663,-0.09476
6.211,0.17456,0.00458,-0.04837,-0.17548,-0.02747,-0.05875,-0.00763,-0.00778,-0.02167,-0.26047,-0.19592,0.00031,-0.03525,-0.02274,-0.01572,-0.08011
6.2115,0.15213,-0.03922,-0.02731,-0.00443,-0.02151,-0.05905,-0.00717,-0.01114,-0.02808,-0.28763,-0.12833,-0.00244,-0.03418,-0.02487,-0.02197,-0.09201
6.212,0.1265,-0.07431,-0.00076,0.15732,-0.01373,-0.06271,-0.00366,-0.01282,-0.03952,-0.28168,-0.01663,-0.00809,-0.03983,-0.02869,-0.02533,-0.11261
6.2125,0.10345,-0.09796,0.01724,0.19989,-0.00854,-0.06638,-0.00092,-0.01236,-0.05524,-0.20523,0.06561,-0.0119,-0.04593,-0.03311,-0.02258,-0.11765
6.213,0.08331,-0.11124,0.02182,0.16418,-0.01389,-0.06866,-0.00092,-0.01144,-0.06989,-0.06409,0.08881,-0.0119,-0.04974,-0.03647,-0.01389,-0.103
6.2135,0.065,-0.1152,0.01877,0.2179,-0.0296,-0.0708,-0.00229,-0.01221,-0.07477,0.1059,0.08072,-0.00946,-0.05096,-0.0386,-0.00351,-0.09079
6.214,0.04791,-0.1062,0.01648,0.45395,-0.05051,-0.07278,-0.00397,-0.0145,-0.07156,0.25986,0.07065,-0.00809,-0.05081,-0.0383,0.00488,-0.08896
6.2145,0.04059,-0.0769,0.01892,0.7019,-0.0621,-0.07248,-0.00366,-0.01373,-0.06683,0.37384,0.06302,-0.00793,-0.05096,-0.03586,0.01053,-0.08255
6.215,0.05493,-0.03235,0.0296,0.63354,-0.06088,-0.0679,-0.00107,-0.01007,-0.06653,0.45013,0.04868,-0.00824,-0.04974,-0.03311,0.01541,-0.0563
6.2155,0.09033,0.01678,0.05341,0.1738,-0.04974,-0.06317,0.00092,-0.00458,-0.06485,0.48935,0.02258,-0.00763,-0.04837,-0.02914,0.02213,-0.01923
6.216,0.13138,0.05692,0.08347,-0.34378,-0.03891,-0.06104,0.00046,-0.00229,-0.05341,0.49118,-0.00092,-0.00687,-0.04745,-0.02579,0.02838,0.00198
6.2165,0.16052,0.07965,0.09308,-0.56351,-0.02899,-0.05966,-0.00244,-0.00626,-0.03387,0.44693,-0.00717,-0.00763,-0.04395,-0.02136,0.03021,-0.01007
6.217,0.17548,0.08072,0.065,-0.46448,-0.02136,-0.05569,-0.00626,-0.01419,-0.01389,0.35675,0.00244,-0.009,-0.0354,-0.01831,0.02518,-0.0441
6.2175,0.18478,0.05875,0.01144,-0.24368,-0.01068,-0.04837,-0.00992,-0.01984,-0.00137,0.23483,0.0119,-0.00931,-0.02594,-0.01572,0.0177,-0.06668
6.218,0.20111,0.01633,-0.04135,-0.02991,-0.00778,-0.04318,-0.01297,-0.02014,0.00671,0.11581,0.00732,-0.01053,-0.02213,-0.01419,0.01434,-0.06592
6.2185,0.2301,-0.03799,-0.08286,0.17365,-0.00748,-0.04105,-0.01251,-0.01877,0.01282,0.0322,-0.00641,-0.01465,-0.02243,-0.01343,0.01526,-0.07446
6.219,0.2655,-0.08682,-0.11673,0.3627,-0.0116,-0.0386,-0.01099,-0.01755,0.01785,-0.00626,-0.01816,-0.02075,-0.02365,-0.01266,0.01495,-0.11902
6.2195,0.29449,-0.12024,-0.13885,0.4599,-0.009,-0.03326,-0.00839,-0.01724,0.02213,-0.01755,-0.02243,-0.02472,-0.02106,-0.00977,0.00961,-0.16296
6.22,0.31143,-0.13901,-0.1358,0.38269,-0.00397,-0.02792,-0.00687,-0.01709,0.02625,-0.02289,-0.02487,-0.02655,-0.01617,-0.00565,-0.00107,-0.12497
6.2205,0.31952,-0.14023,-0.1123,0.15686,0.0032,-0.02304,-0.00671,-0.0174,0.02991,-0.02899,-0.02884,-0.02686,-0.0116,-0.00229,-0.01541,0.02045
6.221,0.32684,-0.11963,-0.08713,-0.08698,0.0058,-0.02121,-0.00946,-0.01801,0.03143,-0.03387,-0.03372,-0.02655,-0.00778,-0.00076,-0.02274,0.16953
6.2215,0.33478,-0.08331,-0.07568,-0.23819,0.00641,-0.02197,-0.01343,-0.02075,0.02762,-0.03387,-0.0351,-0.02487,-0.00473,-0.00183,-0.00549,0.18707
6.222,0.33997,-0.04517,-0.07828,-0.28564,0.00748,-0.02518,-0.01617,-0.02197,0.01968,-0.02975,-0.03403,-0.02213,-0.00412,-0.00473,0.03906,0.06989
6.2225,0.33813,-0.01526,-0.08682,-0.26978,0.00809,-0.02853,-0.01617,-0.01968,0.01144,-0.02625,-0.03281,-0.01968,-0.00504,-0.00671,0.08072,-0.0531
6.223,0.33081,-0.00046,-0.09186,-0.2063,0.01358,-0.02975,-0.01358,-0.01633,0.00595,-0.02655,-0.03296,-0.01923,-0.00656,-0.00778,0.08362,-0.0856
6.2235,0.32257,-0.00427,-0.08972,-0.10178,0.01587,-0.03021,-0.01083,-0.01266,0.00366,-0.03204,-0.03708,-0.01831,-0.00748,-0.00992,0.05417,-0.05508
6.224,0.31586,-0.02426,-0.07874,0.00244,0.01297,-0.03265,-0.00931,-0.01144,0.00061,-0.04532,-0.04456,-0.01328,-0.00992,-0.01465,0.02243,-0.047
6.2245,0.30884,-0.0441,-0.0618,0.05661,0.0032,-0.03571,-0.01205,-0.01175,-0.00351,-0.06302,-0.05386,-0.00168,-0.01312,-0.02213,0.00137,-0.10239
6.225,0.30228,-0.05341,-0.04623,0.04364,-0.00809,-0.03693,-0.01694,-0.01373,-0.00641,-0.07828,-0.05936,0.01129,-0.01572,-0.03021,-0.02228,-0.18906
6.2255,0.29907,-0.06287,-0.04364,-0.01694,-0.00412,-0.03922,-0.02106,-0.0174,-0.00961,-0.08682,-0.05554,0.01999,-0.02182,-0.03693,-0.05615,-0.24796
6.226,0.29968,-0.08667,-0.06287,-0.09048,0.00107,-0.04349,-0.02274,-0.02167,-0.01129,-0.08957,-0.04272,0.02075,-0.03464,-0.03876,-0.06943,-0.24963
6.2265,0.30579,-0.11856,-0.09155,-0.14511,0.00122,-0.04517,-0.02365,-0.02472,-0.0119,-0.08972,-0.02838,0.01663,-0.05035,-0.03555,-0.03525,-0.2182
6.227,0.31738,-0.13748,-0.10178,-0.16174,-0.01312,-0.04532,-0.02289,-0.02396,-0.00809,-0.08926,-0.01923,0.01221,-0.05753,-0.02899,0.02411,-0.1973
6.2275,0.33035,-0.1326,-0.08255,-0.14481,-0.03143,-0.04318,-0.02121,-0.02029,-0.00381,-0.08835,-0.01511,0.00916,-0.05112,-0.0238,0.04883,-0.19897
6.228,0.33524,-0.11017,-0.04837,-0.12848,-0.05402,-0.04303,-0.01938,-0.01556,-0.00183,-0.08453,-0.01419,0.009,-0.03891,-0.02029,0.02304,-0.19089
6.2285,0.32776,-0.0853,-0.01328,-0.14069,-0.07858,-0.04578,-0.0174,-0.01144,-0.00229,-0.08011,-0.01373,0.00977,-0.02609,-0.01724,-0.01648,-0.13718
6.229,0.31158,-0.06714,0.01434,-0.16312,-0.09979,-0.0502,-0.01556,-0.00854,-0.00214,-0.08011,-0.01328,0.01022,-0.01358,-0.01511,-0.03342,-0.05402
6.2295,0.29221,-0.05951,0.03448,-0.14648,-0.09979,-0.05508,-0.01266,-0.00641,-0.00122,-0.08011,-0.01328,0.00931,0.00076,-0.01465,-0.02548,-0.00305
6.23,0.27115,-0.06012,0.04333,-0.07813,-0.06363,-0.05615,-0.00992,-0.00443,0.00015,-0.08026,-0.01236,0.00748,0.01358,-0.01663,-0.01144,-0.02106
6.2305,0.24689,-0.06149,0.03723,-0.00473,-0.01038,-0.05463,-0.01007,-0.00427,-0.00122,-0.08057,-0.01068,0.00595,0.02197,-0.01953,-0.00153,-0.07584
6.231,0.21973,-0.05341,0.02014,0.0296,0.04318,-0.05112,-0.00961,-0.00473,-0.00412,-0.08026,-0.00885,0.00458,0.0264,-0.02014,0.00122,-0.11078
6.2315,0.19073,-0.0383,-0.00336,0.03525,0.0589,-0.05081,-0.00763,-0.00534,-0.00671,-0.07782,-0.00854,0.00427,0.02853,-0.01968,-0.00336,-0.10712
6.232,0.16296,-0.02731,-0.03082,0.03983,0.05447,-0.05127,-0.00549,-0.00534,-0.00885,-0.0766,-0.01007,0.00351,0.02655,-0.02075,-0.01144,-0.08331
6.2325,0.14465,-0.02594,-0.04776,0.04669,0.02502,-0.05219,-0.00549,-0.00641,-0.00946,-0.07553,-0.01266,0.00244,0.01633,-0.0235,-0.01678,-0.06226
6.233,0.14175,-0.02579,-0.0415,0.04013,-0.00717,-0.05142,-0.00763,-0.00626,-0.01007,-0.07568,-0.01312,0.00168,-0.00259,-0.02655,-0.01709,-0.04868
6.2335,0.14877,-0.02167,-0.02258,0.02213,-0.04242,-0.04898,-0.00732,-0.00671,-0.0087,-0.07507,-0.01343,0.00092,-0.02945,-0.0264,-0.0116,-0.04074
6.234,0.15274,-0.02289,-0.01846,0.00992,-0.08072,-0.04639,-0.00534,-0.00763,-0.00916,-0.07355,-0.01434,0.00107,-0.05905,-0.02335,-0.00458,-0.03555
6.2345,0.1413,-0.03723,-0.04532,0.01114,-0.11795,-0.04669,-0.00443,-0.00748,-0.00961,-0.07126,-0.01358,0.00046,-0.08362,-0.01831,0.00153,-0.03052
6.235,0.11459,-0.05829,-0.0827,0.01953,-0.13306,-0.05005,-0.0058,-0.00534,-0.01175,-0.06897,-0.01205,0.0,-0.09583,-0.01434,0.00656,-0.02533
6.2355,0.08514,-0.07339,-0.09949,0.02747,-0.1207,-0.05264,-0.00977,-0.00504,-0.01358,-0.0676,-0.01038,0.00076,-0.09293,-0.01328,0.00885,-0.02029
6.236,0.06409,-0.07828,-0.08102,0.03235,-0.09384,-0.0531,-0.01205,-0.00656,-0.01389,-0.06653,-0.00992,0.00168,-0.08041,-0.01495,0.01205,-0.01617
6.2365,0.04807,-0.07904,-0.03036,0.03632,-0.07187,-0.05356,-0.01251,-0.00854,-0.01251,-0.06607,-0.01022,0.00229,-0.07217,-0.01846,0.0145,-0.01236
6.237,0.02716,-0.07492,0.03296,0.0386,-0.06607,-0.05585,-0.01144,-0.00839,-0.01144,-0.06516,-0.01144,0.00198,-0.07233,-0.02167,0.0145,-0.00824
6.2375,-0.00046,-0.05524,0.07858,0.0412,-0.05783,-0.056,-0.00946,-0.00717,-0.01205,-0.06454,-0.0119,0.00137,-0.07324,-0.02228,0.01251,-0.00198
6.238,-0.0325,-0.01984,0.09048,0.04547,-0.04135,-0.05219,-0.00809,-0.00443,-0.01389,-0.06516,-0.0119,0.00122,-0.06714,-0.02289,0.01175,0.00412
6.2385,-0.07019,0.01755,0.07431,0.04883,-0.03204,-0.05051,-0.00458,-0.00183,-0.01511,-0.065,-0.01144,0.00183,-0.056,-0.02563,0.01053,0.00504
6.239,-0.11429,0.04868,0.05035,0.04883,-0.03021,-0.05219,-0.00153,0.00092,-0.0145,-0.06317,-0.00916,0.00168,-0.04456,-0.02884,0.0119,0.00137
6.2395,-0.1535,0.07431,0.02991,0.04471,-0.03296,-0.05447,-0.00107,0.00122,-0.01373,-0.06012,-0.00763,0.00198,-0.03632,-0.02762,0.01205,-0.00168
6.24,-0.17181,0.09506,0.00244,0.03815,-0.03143,-0.05661,-0.0032,-0.00153,-0.01251,-0.05661,-0.00671,0.0032,-0.03357,-0.02228,0.01251,-0.00168
6.2405,-0.16617,0.09399,-0.04288,0.03082,-0.02136,-0.05234,-0.00549,-0.00534,-0.01099,-0.05157,-0.00549,0.00488,-0.03799,-0.01694,0.01328,-0.00031
6.241,-0.15137,0.05569,-0.09964,0.02701,-0.02121,-0.04578,-0.00519,-0.00656,-0.01053,-0.0473,-0.00412,0.00671,-0.04288,-0.01251,0.01266,0.0
6.2415,-0.14252,-0.00824,-0.15625,0.02625,-0.02747,-0.04074,-0.00443,-0.00427,-0.01129,-0.04227,-0.00351,0.00778,-0.04501,-0.00839,0.01419,-0.00031
6.242,-0.14633,-0.0621,-0.20477,0.02655,-0.03265,-0.03799,-0.00305,-0.00275,-0.0119,-0.03922,-0.00336,0.00809,-0.0473,-0.00702,0.01709,0.00153
6.2425,-0.15961,-0.08087,-0.23315,0.02441,-0.03159,-0.03708,-0.00259,-0.0029,-0.01282,-0.03647,-0.00259,0.00793,-0.05447,-0.00885,0.02197,0.00519
6.243,-0.17593,-0.07263,-0.22278,0.01968,-0.02533,-0.03723,-0.0032,-0.00229,-0.01266,-0.03464,-0.00137,0.00717,-0.06241,-0.00946,0.02594,0.00717
6.2435,-0.18814,-0.05997,-0.1712,0.01404,-0.02594,-0.0383,-0.00397,0.00061,-0.01114,-0.03281,-0.00168,0.00519,-0.06332,-0.00702,0.0264,0.00244
6.244,-0.19409,-0.04929,-0.1001,0.01099,-0.02731,-0.04227,-0.00412,0.00458,-0.00931,-0.03067,-0.00275,0.00381,-0.05356,-0.00183,0.02457,-0.01083
6.2445,-0.19806,-0.03479,-0.03326,0.0116,-0.02274,-0.04501,-0.00305,0.00565,-0.00763,-0.02731,-0.00397,0.00412,-0.03433,0.0029,0.02106,-0.03571
6.245,-0.20432,-0.01083,0.01236,0.01465,-0.01678,-0.04807,-0.00397,0.00458,-0.00626,-0.02365,-0.00412,0.00824,-0.01175,0.00717,0.01724,-0.07736
6.2455,-0.21347,0.01434,0.01724,0.01556,-0.00656,-0.04639,-0.00504,0.00168,-0.00427,-0.01862,-0.00275,0.01389,0.00992,0.00946,0.00717,-0.13626
6.246,-0.22324,0.02213,-0.03983,0.01251,0.00809,-0.04486,-0.0061,-0.00214,-0.00275,-0.01724,-0.00092,0.01602,0.02396,0.00885,-0.01038,-0.19516
6.2465,-0.23315,0.00107,-0.14313,0.0058,0.01572,-0.04471,-0.00717,-0.00443,-0.00244,-0.01495,0.0,0.01053,0.0296,0.0061,-0.03571,-0.21469
6.247,-0.24582,-0.03113,-0.23132,0.0,0.01068,-0.04395,-0.00732,-0.0058,-0.00198,-0.0148,-0.00107,0.00092,0.03052,0.0029,-0.05569,-0.16266
6.2475,-0.26474,-0.04822,-0.23026,-0.00366,0.00061,-0.04593,-0.00687,-0.00626,-0.00107,-0.01495,-0.00366,-0.00305,0.03357,0.00153,-0.056,-0.06271
6.248,-0.28931,-0.0415,-0.12207,-0.00534,-0.0148,-0.05051,-0.00854,-0.00626,-0.00137,-0.01404,-0.00549,0.00107,0.04089,-0.00198,-0.02762,0.02975
6.2485,-0.31662,-0.02151,0.02975,-0.00519,-0.03326,-0.05356,-0.00931,-0.00458,-0.00046,-0.01373,-0.00458,0.01068,0.04822,-0.00809,0.01373,0.08896
6.249,-0.33936,0.00153,0.14526,-0.00336,-0.05157,-0.05295,-0.009,-0.00183,-0.00076,-0.01343,-0.00381,0.01801,0.04822,-0.01556,0.04395,0.12558
6.2495,-0.35355,0.02945,0.186,0.0,-0.07462,-0.0473,-0.00717,-0.00031,-0.00031,-0.01144,-0.00259,0.01923,0.03479,-0.02121,0.05478,0.14069
6.25,-0.35767,0.05753,0.17044,0.00153,-0.09247,-0.04501,-0.00519,0.00153,-0.00015,-0.00931,-0.00031,0.01602,0.00854,-0.02579,0.06241,0.11658
6.2505,-0.35583,0.06866,0.12985,0.00122,-0.09201,-0.04211,-0.00443,0.00092,0.00046,-0.00702,-0.00015,0.00992,-0.02213,-0.03143,0.07828,0.06683
6.251,-0.35019,0.0528,0.09247,-0.00015,-0.07034,-0.04333,-0.00473,-0.00122,0.00076,-0.00656,-0.00137,0.00427,-0.04501,-0.03708,0.09064,0.04364
6.2515,-0.34439,0.0145,0.07294,-0.00229,-0.03937,-0.04578,-0.00534,-0.0058,0.00046,-0.00717,-0.00381,0.00107,-0.0502,-0.03952,0.07553,0.06653
6.252,-0.3421,-0.02609,0.06973,-0.00687,-0.02533,-0.04745,-0.00824,-0.00916,-0.00076,-0.00916,-0.00549,0.00198,-0.04288,-0.03738,0.0296,0.09277
6.2525,-0.33981,-0.05539,0.07202,-0.01099,-0.01663,-0.04593,-0.01144,-0.009,-0.00137,-0.01068,-0.00534,0.0058,-0.04181,-0.03265,-0.0174,0.07462
6.253,-0.33279,-0.06699,0.07126,-0.01343,-0.01114,-0.04425,-0.0145,-0.00656,-0.00153,-0.01099,-0.0032,0.00961,-0.05585,-0.02747,-0.03525,0.01785
6.2535,-0.3212,-0.0737,0.06546,-0.01389,-0.00839,-0.04395,-0.01526,-0.00427,-0.00076,-0.00916,-0.00259,0.01297,-0.07263,-0.02228,-0.01602,-0.03891
6.254,-0.31296,-0.09247,0.04517,-0.0116,-0.00031,-0.04608,-0.01419,-0.0029,-0.00061,-0.00854,-0.00137,0.01511,-0.07538,-0.01816,0.01831,-0.07324
6.2545,-0.31265,-0.13168,0.01282,-0.00717,-0.00214,-0.04776,-0.01251,-0.00076,0.0,-0.00671,-0.00015,0.01511,-0.06073,-0.01312,0.03601,-0.07965
6.255,-0.31921,-0.17487,-0.02228,-0.00259,-0.00992,-0.04883,-0.01129,0.00183,0.00046,-0.00824,-0.00153,0.01175,-0.04013,-0.00977,0.02502,-0.06149
6.2555,-0.32852,-0.19379,-0.06012,-0.00061,-0.01129,-0.04852,-0.01312,0.0032,0.00122,-0.00992,-0.00259,0.00732,-0.03052,-0.01068,0.00473,-0.02975
6.256,-0.33768,-0.17929,-0.10788,-0.00122,-0.01373,-0.04868,-0.01434,0.0029,0.0,-0.0119,-0.00397,0.00488,-0.03647,-0.0177,-0.0029,-0.009
6.2565,-0.34424,-0.14969,-0.15274,-0.00443,-0.01678,-0.05051,-0.01572,0.00168,-0.00107,-0.01495,-0.00244,0.00504,-0.0531,-0.02594,0.00732,-0.01266
6.257,-0.34637,-0.12451,-0.16113,-0.00931,-0.01511,-0.05264,-0.01831,-0.00061,-0.00244,-0.01694,-0.00092,0.00549,-0.0705,-0.03021,0.02014,-0.03036
6.2575,-0.34225,-0.09888,-0.12421,-0.01389,-0.01465,-0.05508,-0.02075,-0.00397,-0.00229,-0.0174,-0.00092,0.0058,-0.08301,-0.03098,0.01938,-0.0441
6.258,-0.33569,-0.06653,-0.06638,-0.0174,-0.01068,-0.05508,-0.02274,-0.0058,-0.00031,-0.01816,-0.00137,0.00336,-0.08804,-0.02975,0.00351,-0.04593
6.2585,-0.33203,-0.0354,-0.0148,-0.01984,-0.00153,-0.05432,-0.02151,-0.0058,0.00168,-0.0174,-0.00122,-0.00183,-0.08728,-0.02808,-0.01419,-0.04425
6.259,-0.33661,-0.0235,0.02304,-0.02228,0.01175,-0.05142,-0.02014,-0.00504,0.00183,-0.01572,0.00031,-0.00626,-0.08286,-0.02426,-0.02243,-0.04181
6.2595,-0.34805,-0.03372,0.04364,-0.02319,0.01495,-0.04807,-0.02289,-0.00427,0.00092,-0.01495,0.00031,-0.00671,-0.07797,-0.01923,-0.02274,-0.04013
6.26,-0.36011,-0.04883,0.04089,-0.01999,-0.00443,-0.04501,-0.02747,-0.00259,0.0,-0.01648,-0.00092,-0.00305,-0.07431,-0.01465,-0.01572,-0.04196
6.2605,-0.36652,-0.05508,0.01663,-0.0119,-0.03403,-0.04318,-0.02869,0.00137,0.00015,-0.01694,-0.00397,0.00061,-0.07309,-0.01419,0.00122,-0.04761
6.261,-0.36438,-0.05783,-0.01694,-0.00824,-0.04562,-0.04059,-0.02487,0.00504,0.00122,-0.01678,-0.00473,0.00397,-0.07507,-0.01572,0.03326,-0.05569
6.2615,-0.35492,-0.07309,-0.04593,-0.01968,-0.02808,-0.03906,-0.02075,0.00641,-0.00015,-0.01465,-0.00458,0.00549,-0.07263,-0.01572,0.06058,-0.06699
6.262,-0.33966,-0.1001,-0.06989,-0.03723,-0.00305,-0.04059,-0.02045,0.00565,-0.00092,-0.01495,-0.00488,0.00534,-0.06119,-0.01251,0.06332,-0.08606
6.2625,-0.32104,-0.12421,-0.09888,-0.04364,0.01358,-0.04425,-0.02243,0.00397,-0.00305,-0.01572,-0.0058,0.00336,-0.047,-0.00931,0.04486,-0.11261
6.263,-0.30869,-0.13855,-0.13962,-0.0441,0.01099,-0.05005,-0.02457,0.00565,-0.00427,-0.01648,-0.00641,0.00198,-0.04196,-0.01007,0.0238,-0.13809
6.2635,-0.30807,-0.14435,-0.17197,-0.06683,-0.01038,-0.05417,-0.02518,0.00809,-0.00366,-0.01556,-0.00763,0.00916,-0.04639,-0.01328,0.01022,-0.15579
6.264,-0.31937,-0.13504,-0.16403,-0.11139,-0.04196,-0.05829,-0.02518,0.01175,-0.00336,-0.01663,-0.0087,0.02533,-0.0502,-0.01419,0.00046,-0.16144
6.2645,-0.33752,-0.09766,-0.11459,-0.13168,-0.06821,-0.05539,-0.02411,0.01389,-0.00229,-0.01877,-0.00748,0.04242,-0.04868,-0.01282,-0.00885,-0.14725
6.265,-0.35324,-0.03708,-0.05371,-0.0531,-0.0798,-0.05005,-0.02213,0.01617,-0.00366,-0.01999,-0.0058,0.05264,-0.04456,-0.01022,-0.01129,-0.09689
6.2655,-0.35614,0.02502,-0.01328,0.15961,-0.07721,-0.04517,-0.01831,0.02014,-0.00397,-0.02014,-0.00336,0.05585,-0.03983,-0.00809,-0.00137,-0.0174
6.266,-0.33676,0.06958,0.00061,0.3978,-0.06882,-0.03967,-0.01709,0.02396,-0.00519,-0.01907,-0.00473,0.05142,-0.02975,-0.00641,0.01312,0.03937
6.2665,-0.3038,0.09491,0.0,0.45105,-0.05447,-0.03708,-0.01648,0.02472,-0.00641,-0.01907,-0.0058,0.03342,-0.01526,-0.00458,0.01846,0.02762
6.267,-0.27679,0.10651,-0.00534,0.26398,-0.01755,-0.03418,-0.01678,0.02243,-0.00763,-0.0209,-0.00687,-0.0029,-0.00061,-0.00412,0.0116,-0.02502
6.2675,-0.27237,0.10315,-0.0087,0.03098,0.05127,-0.03052,-0.01617,0.01755,-0.0087,-0.02167,-0.00763,-0.05051,0.00839,-0.00427,0.00107,-0.04074
6.268,-0.29373,0.08087,-0.01251,-0.06195,0.14572,-0.02716,-0.01617,0.01297,-0.00641,-0.02106,-0.00732,-0.09445,0.01328,-0.00366,-0.00397,0.01495
6.2685,-0.32715,0.0441,-0.01633,-0.09216,0.21362,-0.02396,-0.01434,0.0116,-0.0061,-0.0174,-0.00778,-0.11963,0.01694,-0.00153,-0.00244,0.08301
6.269,-0.35019,0.00229,-0.0145,-0.24628,0.22064,-0.02594,-0.01251,0.01282,-0.00702,-0.01343,-0.00778,-0.112,0.01984,0.00168,0.00061,0.08102
6.2695,-0.33997,-0.04074,0.00198,-0.50522,0.16342,-0.02945,-0.01068,0.01556,-0.00824,-0.00946,-0.00931,-0.06943,0.02029,0.00198,0.00168,0.00549
6.27,-0.2951,-0.09155,0.0267,-0.64499,0.06775,-0.03464,-0.00916,0.0177,-0.00885,-0.00519,-0.00732,-0.01419,0.01556,-0.00122,0.00458,-0.07202
6.2705,-0.23102,-0.13809,0.02579,-0.52505,-0.04349,-0.03876,-0.01022,0.01862,-0.01007,-0.00153,-0.00626,0.02441,0.01022,-0.00748,0.0116,-0.1091
6.271,-0.16129,-0.15839,-0.02899,-0.23392,-0.14526,-0.04044,-0.01266,0.01648,-0.01129,0.00366,-0.00534,0.03418,0.0087,-0.01099,0.01572,-0.13916
6.2715,-0.08224,-0.15152,-0.11429,0.06271,-0.20264,-0.04379,-0.01511,0.01465,-0.0119,0.00763,-0.00519,0.0235,0.00992,-0.00931,0.01358,-0.18784
6.272,0.01114,-0.12802,-0.17197,0.28473,-0.2034,-0.04898,-0.01511,0.01205,-0.01328,0.00946,-0.00443,0.009,0.00641,-0.00641,0.00565,-0.20554
6.2725,0.11261,-0.08728,-0.16693,0.42847,-0.18356,-0.0528,-0.01297,0.01144,-0.01389,0.01083,-0.00488,0.00168,-0.00137,-0.00748,0.00351,-0.14542
6.273,0.20203,-0.02777,-0.12085,0.47989,-0.17685,-0.05585,-0.01129,0.01221,-0.01495,0.01038,-0.0058,0.00443,-0.00412,-0.01129,0.00885,-0.03967
6.2735,0.27267,0.03372,-0.07507,0.42709,-0.16769,-0.05722,-0.01083,0.01312,-0.01511,0.00778,-0.00687,0.01175,0.00412,-0.01419,0.01419,0.03464
6.274,0.33539,0.07217,-0.04349,0.31479,-0.12482,-0.05493,-0.01083,0.01389,-0.01755,0.00458,-0.00793,0.01389,0.01495,-0.0148,0.00565,0.03418
6.2745,0.40009,0.08286,-0.02502,0.21561,-0.07629,-0.05264,-0.00946,0.01328,-0.01938,0.0029,-0.00854,0.00961,0.0174,-0.0174,-0.01678,-0.02731
6.275,0.46402,0.07538,-0.02075,0.1355,-0.07538,-0.05722,-0.00763,0.01282,-0.0206,0.00244,-0.00778,0.00488,0.00717,-0.02274,-0.04761,-0.10559
6.2755,0.51422,0.05722,-0.0351,0.03128,-0.14328,-0.07126,-0.00687,0.01053,-0.0209,0.00015,-0.00656,0.00336,-0.00565,-0.02716,-0.07416,-0.15335
6.276,0.54382,0.02853,-0.05051,-0.08942,-0.23254,-0.08743,-0.00916,0.00641,-0.02029,-0.00244,-0.00519,0.00336,-0.01678,-0.02686,-0.08392,-0.15305
6.2765,0.55908,-0.01175,-0.04196,-0.17212,-0.28458,-0.09537,-0.01282,0.00076,-0.01923,-0.00595,-0.0058,0.00122,-0.02274,-0.02197,-0.07477,-0.10544
6.277,0.57037,-0.05508,-0.00931,-0.20416,-0.2829,-0.09048,-0.01648,-0.00488,-0.01923,-0.00626,-0.00717,-0.0029,-0.02411,-0.01709,-0.05829,-0.01114
6.2775,0.58304,-0.08652,0.0267,-0.22125,-0.2504,-0.07507,-0.01587,-0.00778,-0.01953,-0.00778,-0.00687,-0.00641,-0.02319,-0.01617,-0.03937,0.09628
6.278,0.59753,-0.10056,0.04654,-0.24536,-0.20966,-0.05905,-0.01328,-0.00671,-0.02197,-0.00916,-0.00641,-0.00885,-0.02441,-0.01831,0.00717,0.12482
6.2785,0.60928,-0.10345,0.04562,-0.27893,-0.16953,-0.04562,-0.01083,-0.00565,-0.02289,-0.01236,-0.00626,-0.0087,-0.03006,-0.01816,0.10025,0.02014
6.279,0.61615,-0.10239,0.03372,-0.33325,-0.11566,-0.03922,-0.0087,-0.00336,-0.02304,-0.01389,-0.00748,-0.00656,-0.03708,-0.01709,0.18661,-0.13474
6.2795,0.62057,-0.09567,0.02258,-0.3949,-0.04593,-0.0325,-0.00656,-0.00198,-0.02289,-0.01419,-0.00717,-0.00473,-0.03967,-0.01892,0.1683,-0.18112
6.28,0.62851,-0.0827,0.01495,-0.39459,0.02518,-0.0267,-0.00595,-0.00122,-0.0235,-0.01404,-0.00671,-0.00458,-0.03738,-0.02243,0.03616,-0.07736
6.2805,0.63919,-0.06668,0.00259,-0.26779,0.0827,-0.02151,-0.00641,-0.00183,-0.02457,-0.0148,-0.00778,-0.00336,-0.03281,-0.02441,-0.08789,0.05753
6.281,0.63995,-0.04807,-0.01785,-0.047,0.11719,-0.02121,-0.00732,-0.0029,-0.02457,-0.01831,-0.00961,-0.00229,-0.02853,-0.02243,-0.08286,0.09872
6.2815,0.61874,-0.02762,-0.0415,0.14618,0.12375,-0.02686,-0.00534,-0.00229,-0.02472,-0.01923,-0.01053,-0.00229,-0.02487,-0.02075,0.00931,0.05051
6.282,0.57907,-0.00839,-0.05692,0.20782,0.09308,-0.03433,-0.00366,-0.00137,-0.02411,-0.01938,-0.01007,-0.00427,-0.02441,-0.02304,0.04028,-0.00671
6.2825,0.53726,0.00031,-0.06058,0.13321,0.0325,-0.0415,-0.00366,-0.00015,-0.02365,-0.01923,-0.00931,-0.00351,-0.02579,-0.0267,-0.03769,-0.02655
6.283,0.50186,-0.00961,-0.05692,0.01968,-0.04456,-0.04654,-0.00366,0.00061,-0.02365,-0.02029,-0.01022,-0.00275,-0.02853,-0.02853,-0.11749,-0.01556
6.2835,0.46417,-0.03708,-0.05386,-0.02457,-0.13062,-0.05157,-0.00336,0.00031,-0.02365,-0.02182,-0.01114,-0.00061,-0.03189,-0.02762,-0.10208,0.01755
6.284,0.41595,-0.06805,-0.05356,0.01877,-0.21179,-0.0589,-0.00412,0.00031,-0.02472,-0.02213,-0.01205,0.00153,-0.03387,-0.02548,-0.02869,0.06195
6.2845,0.36377,-0.08286,-0.0563,0.06317,-0.24918,-0.06531,-0.00534,0.0,-0.02594,-0.02243,-0.01129,0.00427,-0.0322,-0.02594,0.01617,0.08911
6.285,0.33112,-0.07462,-0.06531,0.01648,-0.20416,-0.06607,-0.00763,-0.00214,-0.02609,-0.02197,-0.01053,0.0061,-0.02884,-0.02701,0.01999,0.07309
6.2855,0.36118,-0.05707,-0.07828,-0.10498,-0.10178,-0.06088,-0.00931,-0.00443,-0.02411,-0.02167,-0.00931,0.00793,-0.0296,-0.02838,0.02411,0.0267
6.286,0.47531,-0.0444,-0.08698,-0.19104,-0.02136,-0.0531,-0.01053,-0.0058,-0.02258,-0.02197,-0.00961,0.00854,-0.03448,-0.02838,0.04028,-0.01297
6.2865,0.62469,-0.03418,-0.08865,-0.16846,-0.01251,-0.04745,-0.01114,-0.00366,-0.02396,-0.02274,-0.01068,0.00763,-0.0383,-0.02838,0.04791,-0.03021
6.287,0.71625,-0.01923,-0.08667,-0.07599,-0.03937,-0.0444,-0.01205,-0.00122,-0.02747,-0.02365,-0.01114,0.0058,-0.03998,-0.02884,0.0441,-0.03799
6.2875,0.71793,-0.00336,-0.08194,0.00122,-0.04059,-0.04059,-0.01236,-0.00061,-0.02975,-0.02502,-0.01083,0.00519,-0.03998,-0.0296,0.04807,-0.04623
6.288,0.67825,0.00336,-0.07156,0.02899,0.00031,-0.03525,-0.01251,-0.00351,-0.0296,-0.02548,-0.01038,0.00244,-0.03967,-0.03052,0.05951,-0.05478
6.2885,0.65277,0.00092,-0.06027,0.02869,0.0444,-0.03082,-0.01373,-0.00732,-0.02655,-0.02487,-0.009,-0.01007,-0.0383,-0.03036,0.05981,-0.05905
6.289,0.64133,-0.00244,-0.05539,0.02716,0.07294,-0.02792,-0.01541,-0.00977,-0.02487,-0.02365,-0.00885,-0.03204,-0.03494,-0.03021,0.04562,-0.06287
6.2895,0.61554,-0.00305,-0.05981,0.02777,0.09308,-0.03052,-0.01572,-0.01236,-0.02548,-0.02289,-0.01083,-0.04929,-0.03204,-0.0293,0.03433,-0.06714
6.29,0.57205,-0.00244,-0.07004,0.0267,0.11032,-0.04074,-0.01404,-0.01343,-0.02579,-0.02136,-0.01221,-0.04395,-0.02991,-0.0293,0.03403,-0.06882
6.2905,0.52811,-0.00244,-0.07568,0.02411,0.11627,-0.05676,-0.01175,-0.01465,-0.02518,-0.01862,-0.01358,-0.01495,-0.02853,-0.0293,0.03494,-0.06729
6.291,0.49484,-0.00305,-0.07278,0.02228,0.10559,-0.07065,-0.00931,-0.01419,-0.02548,-0.01663,-0.01297,0.02213,-0.0293,-0.02991,0.02792,-0.06592
6.2915,0.46555,-0.00687,-0.06271,0.02213,0.09079,-0.07782,-0.00961,-0.01266,-0.02625,-0.01587,-0.01251,0.05493,-0.03052,-0.03006,0.01968,-0.06821
6.292,0.42877,-0.01953,-0.05325,0.02274,0.07492,-0.07858,-0.00992,-0.01083,-0.02777,-0.0145,-0.01312,0.07095,-0.03082,-0.02914,0.01801,-0.07263
6.2925,0.38513,-0.03937,-0.04608,0.02548,0.05203,-0.07538,-0.00916,-0.00748,-0.03143,-0.01312,-0.01404,0.05844,-0.03036,-0.02686,0.02213,-0.07462
6.293,0.33875,-0.05707,-0.04196,0.03052,0.01343,-0.07294,-0.00931,-0.00427,-0.03342,-0.0119,-0.01541,0.01801,-0.0293,-0.02625,0.02441,-0.07477
6.2935,0.29068,-0.065,-0.03647,0.03693,-0.03891,-0.07004,-0.01129,-0.00244,-0.03326,-0.01175,-0.01633,-0.02228,-0.02853,-0.02747,0.02045,-0.07553
6.294,0.24475,-0.06378,-0.02548,0.04242,-0.09171,-0.05966,-0.01282,-0.00381,-0.03296,-0.01511,-0.01862,-0.02548,-0.02686,-0.02884,0.01358,-0.07599
6.2945,0.20279,-0.05951,-0.01175,0.0444,-0.12451,-0.0444,-0.01282,-0.00702,-0.03128,-0.01801,-0.02197,0.01862,-0.02487,-0.02808,0.00977,-0.07584
6.295,0.16373,-0.05737,-0.00519,0.0412,-0.12421,-0.02792,-0.01114,-0.00748,-0.0293,-0.02151,-0.02411,0.07217,-0.02319,-0.02594,0.00961,-0.07492
6.2955,0.12527,-0.06088,-0.00809,0.03616,-0.10117,-0.0177,-0.01175,-0.00473,-0.02762,-0.02411,-0.02319,0.08652,-0.02258,-0.02426,0.00946,-0.07507
6.296,0.08575,-0.07492,-0.01465,0.03159,-0.07416,-0.01556,-0.01358,-0.00107,-0.0264,-0.02579,-0.02121,0.05646,-0.02228,-0.02335,0.00977,-0.07431
6.2965,0.0444,-0.10422,-0.02228,0.03036,-0.05753,-0.01617,-0.01541,0.00107,-0.02548,-0.02731,-0.02045,0.02136,-0.02243,-0.02365,0.00778,-0.07263
6.297,0.00168,-0.13779,-0.04181,0.03143,-0.03937,-0.01587,-0.01633,0.00061,-0.02487,-0.02747,-0.01968,0.01038,-0.02365,-0.0235,0.00519,-0.06989
6.2975,-0.03738,-0.15533,-0.07492,0.03036,-0.01144,-0.01343,-0.01801,-0.00275,-0.02472,-0.02991,-0.02029,0.01282,-0.02579,-0.02319,0.00107,-0.06821
6.298,-0.06989,-0.14221,-0.09598,0.02441,0.0174,-0.01099,-0.01953,-0.00824,-0.02472,-0.03448,-0.01999,0.01114,-0.02655,-0.02411,-0.00122,-0.06744
6.2985,-0.09796,-0.10681,-0.08484,0.0145,0.03174,-0.0145,-0.02045,-0.01495,-0.0267,-0.04044,-0.02167,0.00519,-0.02609,-0.02396,-0.00443,-0.06134
6.299,-0.12405,-0.06699,-0.04532,0.00671,0.03662,-0.02029,-0.01953,-0.02167,-0.03036,-0.04486,-0.02472,0.00305,-0.02777,-0.0235,-0.00519,-0.05127
6.2995,-0.14816,-0.03098,-0.00305,0.00763,0.0473,-0.02594,-0.01816,-0.02609,-0.03281,-0.04776,-0.02731,0.00259,-0.03006,-0.02182,-0.00275,-0.04318
6.3,-0.16998,0.00168,0.02686,0.01907,0.06058,-0.02304,-0.01816,-0.02731,-0.0322,-0.04608,-0.02899,0.00198,-0.0322,-0.01999,0.00122,-0.0386
6.3005,-0.19348,0.02655,0.04227,0.03662,0.05753,-0.01663,-0.01877,-0.0267,-0.02975,-0.04196,-0.02914,0.00031,-0.0322,-0.01923,0.00366,-0.03647
6.301,-0.22018,0.03418,0.04562,0.04929,0.03555,-0.01419,-0.01953,-0.03021,-0.02823,-0.03387,-0.02838,0.00015,-0.03067,-0.02075,0.00397,-0.03082
6.3015,-0.24933,0.02701,0.03922,0.04639,0.01251,-0.01511,-0.01862,-0.04044,-0.02808,-0.0238,-0.03036,0.0,-0.03082,-0.02289,0.00427,-0.02121
6.302,-0.27512,0.00854,0.03265,0.02762,0.00275,-0.01358,-0.01755,-0.05341,-0.03159,-0.01709,-0.03448,-0.00351,-0.03342,-0.02365,0.01053,-0.01053
6.3025,-0.29633,-0.02274,0.03662,0.0029,-0.00763,-0.00946,-0.01892,-0.06073,-0.03555,-0.01602,-0.0386,-0.00809,-0.03586,-0.02289,0.02258,-0.00809
6.303,-0.31418,-0.05737,0.05203,-0.0145,-0.03479,-0.00809,-0.02319,-0.0592,-0.03571,-0.01999,-0.03845,-0.01022,-0.03632,-0.02121,0.03265,-0.0267
6.3035,-0.32852,-0.07614,0.06332,-0.01678,-0.06897,-0.01541,-0.02563,-0.05295,-0.03418,-0.02029,-0.03403,-0.00854,-0.03616,-0.02136,0.03677,-0.06836
6.304,-0.33798,-0.06989,0.05295,-0.00961,-0.08575,-0.02975,-0.02579,-0.0499,-0.03387,-0.0174,-0.02945,-0.00595,-0.03571,-0.02258,0.03784,-0.11276
6.3045,-0.34058,-0.05157,0.02136,-0.00534,-0.07889,-0.04288,-0.02701,-0.05219,-0.03387,-0.01236,-0.02747,-0.00336,-0.0351,-0.02335,0.03967,-0.13901
6.305,-0.33661,-0.03708,-0.01923,-0.01007,-0.05646,-0.05417,-0.02792,-0.0531,-0.03265,-0.01068,-0.02884,-0.00275,-0.03555,-0.02182,0.03937,-0.14954
6.3055,-0.33096,-0.03723,-0.056,-0.01724,-0.02472,-0.06165,-0.02869,-0.04898,-0.03128,-0.01266,-0.03098,-0.00458,-0.0354,-0.01938,0.02975,-0.16403
6.306,-0.32898,-0.04883,-0.08026,-0.01755,0.00137,-0.07309,-0.02899,-0.04166,-0.03052,-0.01495,-0.03143,-0.00595,-0.0354,-0.01892,0.00412,-0.1799
6.3065,-0.33264,-0.05676,-0.09186,-0.01358,-0.0032,-0.08667,-0.02808,-0.03418,-0.03052,-0.01236,-0.02792,-0.00458,-0.03448,-0.01999,-0.03296,-0.17731
6.307,-0.33508,-0.05508,-0.09521,-0.01678,-0.047,-0.09903,-0.02716,-0.0296,-0.02914,-0.00565,-0.02472,-0.00229,-0.03387,-0.01999,-0.05844,-0.15076
6.3075,-0.3302,-0.05096,-0.09293,-0.0325,-0.10437,-0.10971,-0.02884,-0.03128,-0.02594,0.00031,-0.02441,-0.00061,-0.03418,-0.01785,-0.05768,-0.12009
6.308,-0.32272,-0.05219,-0.08652,-0.0499,-0.14008,-0.11414,-0.03281,-0.04044,-0.02213,0.00839,-0.02563,-0.00122,-0.03479,-0.01648,-0.03204,-0.09293
6.3085,-0.31906,-0.05386,-0.07217,-0.05585,-0.15152,-0.11429,-0.03693,-0.05081,-0.0209,0.01892,-0.02609,-0.0029,-0.03586,-0.0174,-0.00443,-0.05386
6.309,-0.32196,-0.04883,-0.05325,-0.047,-0.14542,-0.10483,-0.03647,-0.05508,-0.01999,0.02945,-0.02518,-0.00519,-0.03708,-0.01907,0.0087,-0.01053
6.3095,-0.32684,-0.04089,-0.03647,-0.03021,-0.11673,-0.0856,-0.03098,-0.04944,-0.01892,0.03815,-0.02472,-0.00717,-0.03723,-0.01846,0.00717,-0.00641
6.31,-0.32867,-0.03769,-0.02853,-0.01465,-0.06317,-0.06668,-0.02258,-0.03372,-0.0174,0.04105,-0.02396,-0.00732,-0.03662,-0.01587,0.00046,-0.06058
6.3105,-0.32944,-0.04944,-0.03372,-0.0061,-0.0119,-0.05661,-0.01984,-0.00961,-0.0145,0.03326,-0.0235,-0.00671,-0.03601,-0.01556,-0.00183,-0.12009
6.311,-0.33081,-0.0769,-0.0592,-0.0058,0.01251,-0.05478,-0.02228,0.02335,-0.01175,0.02731,-0.02319,-0.0061,-0.03647,-0.01709,-0.00122,-0.10132
6.3115,-0.33249,-0.10834,-0.10132,-0.00977,0.01709,-0.05234,-0.02594,0.05569,-0.00992,0.02014,-0.02289,-0.00549,-0.03723,-0.01862,0.00183,0.00763
6.312,-0.33356,-0.12894,-0.13504,-0.01312,0.02274,-0.04547,-0.02472,0.05753,-0.00992,0.01541,-0.02365,-0.00443,-0.03876,-0.02014,0.00153,0.12009
6.3125,-0.33081,-0.13397,-0.12726,-0.01007,0.03113,-0.03922,-0.01831,0.01572,-0.01266,0.009,-0.02426,-0.00259,-0.03891,-0.02167,0.0,0.13794
6.313,-0.32166,-0.12451,-0.07172,0.00122,0.03326,-0.03769,-0.0119,-0.03952,-0.01602,-0.00198,-0.02609,-0.00366,-0.03952,-0.02228,-0.0029,0.06866
6.3135,-0.30746,-0.09857,0.0058,0.01556,0.03021,-0.03952,-0.01038,-0.06561,-0.01877,-0.01587,-0.02914,-0.0058,-0.03922,-0.02197,-0.00397,-0.00061
6.314,-0.29144,-0.05814,0.07416,0.02533,0.03067,-0.03891,-0.0148,-0.05157,-0.02029,-0.02991,-0.03098,-0.00763,-0.03922,-0.02045,-0.00137,-0.01694
6.3145,-0.27542,-0.01389,0.11017,0.02686,0.02792,-0.03876,-0.0177,-0.01633,-0.02274,-0.03769,-0.0325,-0.00809,-0.03983,-0.02014,0.00168,-0.00595
6.315,-0.26627,0.02167,0.10696,0.02747,0.01526,-0.03769,-0.01862,0.01999,-0.02502,-0.04349,-0.0325,-0.00824,-0.04059,-0.0209,0.0029,-0.00488
6.3155,-0.26611,0.04044,0.0766,0.02975,-0.00824,-0.0354,-0.02182,0.04089,-0.02548,-0.04608,-0.03265,-0.00854,-0.04196,-0.02121,0.00198,-0.01511
6.316,-0.27267,0.04242,0.03632,0.03387,-0.02472,-0.03174,-0.03036,0.0145,-0.02533,-0.04501,-0.03189,-0.00732,-0.04288,-0.02167,0.00031,-0.01953
6.3165,-0.28183,0.03174,0.00366,0.03372,-0.01801,-0.02991,-0.03998,-0.07538,-0.02609,-0.04211,-0.0293,-0.00595,-0.04349,-0.02243,0.00076,-0.01831
6.317,-0.30807,0.01633,-0.01678,0.03113,0.01175,-0.03067,-0.0415,-0.1973,-0.02594,-0.03983,-0.02716,-0.0029,-0.04364,-0.02213,0.00168,-0.0209
6.3175,-0.38895,0.00229,-0.02396,0.02579,0.03693,-0.03403,-0.0354,-0.27695,-0.02731,-0.03983,-0.02502,0.00381,-0.04333,-0.02243,0.00351,-0.02731
6.318,-0.52597,-0.01266,-0.01724,0.01862,0.03418,-0.03876,-0.02823,-0.25803,-0.03204,-0.04303,-0.02396,0.01816,-0.04272,-0.02304,0.00443,-0.03189
6.3185,-0.65094,-0.02686,-0.00519,0.01175,0.00183,-0.04272,-0.02396,-0.13519,-0.0386,-0.04318,-0.02579,0.03326,-0.04288,-0.02365,0.0032,-0.03159
6.319,-0.69427,-0.0351,-0.00412,0.00641,-0.04211,-0.04395,-0.02243,0.03983,-0.04349,-0.0383,-0.02853,0.03922,-0.04333,-0.02365,0.00137,-0.03113
6.3195,-0.66788,-0.03281,-0.02319,0.00458,-0.0824,-0.04379,-0.02167,0.18539,-0.04349,-0.03174,-0.03174,0.03616,-0.0444,-0.02289,0.00107,-0.0325
6.32,-0.63766,-0.02823,-0.05829,0.00504,-0.1091,-0.04532,-0.02029,0.23682,-0.04013,-0.02548,-0.03342,0.02762,-0.0444,-0.02228,0.0,-0.03525
6.3205,-0.63736,-0.03281,-0.09293,0.00397,-0.10635,-0.04852,-0.01953,0.18784,-0.03632,-0.02167,-0.03372,0.02075,-0.04547,-0.02274,-0.00031,-0.03677
6.321,-0.64636,-0.04837,-0.11078,0.00092,-0.07065,-0.04929,-0.02151,0.09888,-0.03525,-0.01907,-0.03204,0.01587,-0.0473,-0.02487,-0.00183,-0.03723
6.3215,-0.64285,-0.06271,-0.10635,-0.00336,-0.03204,-0.04669,-0.02533,0.03448,-0.03479,-0.01785,-0.02945,0.01328,-0.04745,-0.02502,-0.00504,-0.0383
6.322,-0.64026,-0.0705,-0.08392,-0.0087,-0.02579,-0.04547,-0.02762,0.01831,-0.03357,-0.01724,-0.02701,0.00809,-0.04623,-0.02304,-0.00916,-0.03891
6.3225,-0.67322,-0.07629,-0.0592,-0.01221,-0.04959,-0.04684,-0.02823,0.0293,-0.03204,-0.01511,-0.02548,-0.00443,-0.04456,-0.02182,-0.01328,-0.04135
6.323,-0.76218,-0.09125,-0.04257,-0.0119,-0.07721,-0.04898,-0.02686,0.04547,-0.02914,-0.01572,-0.02594,-0.02777,-0.04349,-0.02136,-0.0177,-0.04333
6.3235,-0.88303,-0.12161,-0.03479,-0.00656,-0.09125,-0.04883,-0.02289,0.06393,-0.02518,-0.01801,-0.0264,-0.05005,-0.04166,-0.02197,-0.02075,-0.04349
6.324,-0.97336,-0.15213,-0.0322,-0.00046,-0.09537,-0.04745,-0.01678,0.08133,-0.0209,-0.02304,-0.02594,-0.05661,-0.03937,-0.02121,-0.02121,-0.04227
6.3245,-0.98465,-0.16052,-0.03418,-0.00122,-0.08453,-0.04639,-0.01083,0.08636,-0.01724,-0.03067,-0.02518,-0.04608,-0.03799,-0.01968,-0.01099,-0.04257
6.325,-0.93369,-0.13657,-0.03769,-0.01099,-0.04532,-0.04639,-0.00992,0.06485,-0.0145,-0.03952,-0.02655,-0.03403,-0.0386,-0.01862,0.02182,-0.04349
6.3255,-0.89935,-0.09415,-0.04456,-0.02884,0.01755,-0.04471,-0.01312,0.02853,-0.01343,-0.04623,-0.0296,-0.03525,-0.03891,-0.0177,0.06729,-0.04364
6.326,-0.94238,-0.05402,-0.05951,-0.05035,0.06973,-0.04059,-0.01556,-0.00488,-0.01419,-0.04913,-0.03143,-0.04562,-0.0383,-0.01678,0.09384,-0.04242
6.3265,-1.03119,-0.02731,-0.08896,-0.07126,0.08255,-0.03845,-0.01724,-0.02792,-0.01587,-0.04425,-0.02914,-0.05356,-0.03708,-0.01633,0.08316,-0.04181
6.327,-1.07605,-0.01648,-0.11536,-0.08179,0.06149,-0.04196,-0.01648,-0.03235,-0.01709,-0.0354,-0.02411,-0.05417,-0.03723,-0.01678,0.0499,-0.04211
6.3275,-1.04095,-0.01633,-0.11032,-0.07507,0.02884,-0.04654,-0.0148,-0.00351,-0.01877,-0.01999,-0.01877,-0.04913,-0.03876,-0.01617,0.02274,-0.04349
6.328,-0.96878,-0.01694,-0.07492,-0.05554,-0.009,-0.04929,-0.01175,0.05173,-0.01907,-0.00443,-0.01541,-0.04105,-0.03998,-0.0148,0.01282,-0.04471
6.3285,-0.91003,-0.01144,-0.04349,-0.03632,-0.06104,-0.04913,-0.00946,0.09888,-0.01999,0.00641,-0.01343,-0.03708,-0.04074,-0.01404,0.01251,-0.0441
6.329,-0.86838,-0.00244,-0.05356,-0.0264,-0.12421,-0.04807,-0.00519,0.09949,-0.01907,0.01297,-0.0116,-0.04517,-0.03983,-0.0145,0.01144,-0.04227
6.3295,-0.81741,0.00061,-0.09232,-0.02151,-0.168,-0.04623,-0.00122,0.05737,-0.01526,0.01328,-0.00916,-0.06012,-0.03845,-0.01434,0.01144,-0.0412
6.33,-0.74631,-0.00366,-0.1059,-0.01328,-0.15991,-0.04684,0.00061,0.01266,-0.01175,0.01312,-0.00824,-0.07065,-0.03616,-0.01266,0.01205,-0.04227
6.3305,-0.66422,-0.0087,-0.05936,-0.00168,-0.10818,-0.05035,-0.00168,-0.0032,-0.01068,0.01266,-0.00946,-0.06973,-0.03555,-0.01129,0.01221,-0.04349
6.331,-0.58044,-0.00916,0.02045,0.00549,-0.06256,-0.05722,-0.00946,0.00046,-0.01236,0.00977,-0.01312,-0.05035,-0.03601,-0.01205,0.01175,-0.04501
6.3315,-0.49622,-0.00854,0.08102,0.00549,-0.06149,-0.06577,-0.01984,-0.00351,-0.01434,0.00504,-0.01633,-0.00229,-0.03632,-0.01282,0.01099,-0.04623
6.332,-0.41306,-0.01358,0.10208,0.00122,-0.09888,-0.07278,-0.02655,-0.02579,-0.01373,-0.00153,-0.01816,0.07645,-0.03647,-0.01236,0.01022,-0.04623
6.3325,-0.33295,-0.02014,0.10284,-0.00214,-0.12741,-0.07431,-0.02716,-0.05096,-0.01328,-0.00809,-0.01968,0.16815,-0.03708,-0.01251,0.01083,-0.04532
6.333,-0.25803,-0.02182,0.09537,-0.0058,-0.11734,-0.06958,-0.02548,-0.06256,-0.01495,-0.01282,-0.02075,0.23087,-0.03784,-0.01312,0.01068,-0.04364
6.3335,-0.18707,-0.01724,0.07767,-0.0148,-0.0769,-0.0589,-0.02914,-0.06195,-0.01511,-0.01617,-0.01984,0.21271,-0.03876,-0.01404,0.00931,-0.04288
6.334,-0.12054,-0.01221,0.0502,-0.0296,-0.03799,-0.05066,-0.03799,-0.06241,-0.01389,-0.0148,-0.01785,0.09094,-0.0386,-0.01343,0.0087,-0.04318
6.3345,-0.0589,-0.01312,0.02228,-0.04623,-0.01404,-0.04425,-0.04349,-0.0618,-0.01373,-0.01541,-0.01862,-0.0827,-0.03937,-0.01373,0.00946,-0.04517
6.335,0.00015,-0.01556,0.0032,-0.05539,0.00732,-0.0386,-0.03479,-0.04822,-0.01312,-0.01541,-0.02396,-0.20691,-0.04044,-0.01511,0.01205,-0.04562
6.3355,0.05814,-0.01572,-0.00885,-0.05402,0.03387,-0.03067,-0.01587,-0.01923,-0.00732,-0.01663,-0.0322,-0.22476,-0.04181,-0.01724,0.01251,-0.04456
6.336,0.11658,-0.01129,-0.0174,-0.04623,0.05386,-0.0238,-0.00061,0.00687,0.00229,-0.01755,-0.03891,-0.16663,-0.04242,-0.01938,0.01205,-0.04349
6.3365,0.17288,-0.00671,-0.02762,-0.03876,0.05386,-0.02274,0.00305,0.0174,0.01144,-0.01877,-0.04181,-0.10178,-0.04303,-0.01892,0.0116,-0.04288
6.337,0.22263,-0.00854,-0.04257,-0.03372,0.03723,-0.02609,-0.00153,0.01572,0.01236,-0.02197,-0.03998,-0.05295,-0.04349,-0.01785,0.01144,-0.04272
6.3375,0.26154,-0.01633,-0.06073,-0.02838,0.01541,-0.03281,-0.01221,0.00732,0.00809,-0.01923,-0.03571,0.01633,-0.04227,-0.0177,0.00916,-0.04318
6.338,0.29373,-0.02396,-0.07355,-0.02167,-0.00427,-0.03769,-0.02655,-0.00992,0.00458,-0.01923,-0.03036,0.11353,-0.04089,-0.01709,0.0061,-0.04227
6.3385,0.33005,-0.0296,-0.07614,-0.01465,-0.02335,-0.04227,-0.03036,-0.04776,0.00183,-0.02365,-0.02563,0.15823,-0.04089,-0.01801,0.00519,-0.04074
6.339,0.37384,-0.0354,-0.07309,-0.01038,-0.04333,-0.04929,-0.01831,-0.10071,-0.00305,-0.02457,-0.02197,0.10254,-0.04272,-0.01846,0.00824,-0.04028
6.3395,0.41397,-0.04272,-0.06882,-0.01099,-0.05722,-0.05447,0.00015,-0.14923,-0.01205,-0.02533,-0.01785,0.02945,-0.04379,-0.0177,0.01007,-0.03952
6.34,0.44678,-0.04807,-0.06317,-0.01694,-0.0592,-0.05539,0.00763,-0.16678,-0.02289,-0.0235,-0.01282,0.03708,-0.04425,-0.0177,0.00885,-0.03845
6.3405,0.47775,-0.05051,-0.05493,-0.02579,-0.05249,-0.0528,0.00107,-0.1355,-0.03494,-0.02304,-0.00702,0.07843,-0.04364,-0.01816,0.00641,-0.03952
6.341,0.5127,-0.05402,-0.04562,-0.03342,-0.04822,-0.05096,-0.00854,-0.06027,-0.04364,-0.02335,-0.00046,0.04227,-0.04349,-0.01831,0.00534,-0.04272
6.3415,0.54901,-0.05875,-0.03754,-0.03754,-0.05127,-0.05203,-0.01144,0.0209,-0.04898,-0.02625,0.00412,-0.08209,-0.04333,-0.01831,0.00473,-0.04471
6.342,0.58014,-0.06317,-0.03433,-0.03922,-0.05661,-0.05432,-0.01175,0.0618,-0.05051,-0.02686,0.0061,-0.21957,-0.04379,-0.01999,0.00214,-0.04471
6.3425,0.60394,-0.06363,-0.03464,-0.03937,-0.05508,-0.05447,-0.01526,0.0563,-0.04959,-0.0296,0.00427,-0.30914,-0.04608,-0.02167,-0.00031,-0.04532
6.343,0.62332,-0.06149,-0.04333,-0.03571,-0.0473,-0.05432,-0.02441,0.03204,-0.04959,-0.03479,0.00046,-0.32074,-0.04822,-0.02197,-0.00092,-0.04623
6.3435,0.63583,-0.05768,-0.07568,-0.02777,-0.03998,-0.05325,-0.0296,0.01129,-0.04974,-0.03479,-0.00259,-0.22598,-0.04852,-0.02197,-0.00122,-0.04776
6.344,0.64194,-0.05585,-0.13519,-0.01587,-0.03937,-0.05356,-0.02197,-0.01083,-0.04852,-0.03464,-0.00519,-0.01587,-0.04807,-0.02136,0.00015,-0.04868
6.3445,0.64713,-0.05371,-0.18311,-0.00671,-0.04105,-0.05066,0.00366,-0.03616,-0.04379,-0.03784,-0.00854,0.26672,-0.047,-0.0206,0.00153,-0.04852
6.345,0.65277,-0.05325,-0.16617,-0.00702,-0.04196,-0.05127,0.03265,-0.05127,-0.03723,-0.03326,-0.01022,0.5217,-0.04639,-0.02045,0.0029,-0.04684
6.3455,0.65781,-0.05386,-0.08286,-0.01282,-0.03967,-0.05203,0.03754,-0.04562,-0.03143,-0.0351,-0.01297,0.63354,-0.04654,-0.01984,0.00534,-0.04349
6.346,0.65582,-0.0531,0.00809,-0.01938,-0.03723,-0.05371,0.0119,-0.02548,-0.02838,-0.03693,-0.01419,0.54153,-0.04639,-0.01953,0.00809,-0.04013
6.3465,0.64896,-0.04944,0.05646,-0.02258,-0.03601,-0.056,-0.01877,-0.00137,-0.02731,-0.03433,-0.01495,0.30518,-0.0444,-0.01816,0.01007,-0.03891
6.347,0.63965,-0.04562,0.06287,-0.02075,-0.03662,-0.05737,-0.02289,0.01785,-0.02426,-0.03281,-0.01617,0.07401,-0.04257,-0.01694,0.01068,-0.03784
6.3475,0.63065,-0.04593,0.05402,-0.01648,-0.03723,-0.0589,0.0,0.03159,-0.01984,-0.03159,-0.01801,-0.03784,-0.04227,-0.01511,0.01022,-0.03693
6.348,0.62149,-0.05188,0.03922,-0.01129,-0.03891,-0.0618,0.01785,0.03693,-0.01678,-0.03418,-0.02335,-0.04333,-0.04227,-0.01373,0.01007,-0.03662
6.3485,0.61615,-0.05966,0.01663,-0.01022,-0.04074,-0.06516,0.01038,0.03403,-0.01465,-0.02655,-0.0296,-0.04181,-0.0412,-0.01373,0.00885,-0.03845
6.349,0.61478,-0.06561,-0.01221,-0.01312,-0.03967,-0.06393,-0.00626,0.02396,-0.01251,-0.02518,-0.03372,-0.10315,-0.03922,-0.01511,0.00656,-0.04166
6.3495,0.61508,-0.06699,-0.03693,-0.01724,-0.03922,-0.06271,-0.01175,0.01221,-0.01236,-0.02457,-0.0322,-0.20432,-0.03815,-0.01572,0.00381,-0.04623
6.35,0.61356,-0.06577,-0.05341,-0.0177,-0.03922,-0.06027,-0.00748,0.00244,-0.01251,-0.02655,-0.0267,-0.27115,-0.03891,-0.0148,0.00443,-0.0499
6.3505,0.61096,-0.06577,-0.0592,-0.01083,-0.03784,-0.05753,-0.00153,-0.00504,-0.01266,-0.02228,-0.02243,-0.27344,-0.04044,-0.01282,0.00626,-0.05142
6.351,0.61081,-0.06714,-0.0531,-0.00107,-0.03311,-0.05341,0.00305,-0.00992,-0.01221,-0.01953,-0.02228,-0.2475,-0.04227,-0.01419,0.00824,-0.04852
6.3515,0.61462,-0.06454,-0.04105,0.00504,-0.02609,-0.04684,0.00961,-0.00427,-0.01251,-0.01694,-0.0235,-0.23254,-0.04303,-0.01816,0.00961,-0.04456
6.352,0.61768,-0.056,-0.03586,0.00351,-0.01816,-0.03983,0.01724,0.02197,-0.01282,-0.01678,-0.02411,-0.22095,-0.04517,-0.02274,0.00824,-0.04272
6.3525,0.61432,-0.04562,-0.04211,-0.00366,-0.01358,-0.03601,0.0206,0.06393,-0.01114,-0.01678,-0.02274,-0.18097,-0.04669,-0.02457,0.00793,-0.04395
6.353,0.60303,-0.0386,-0.0502,-0.01053,-0.00916,-0.0354,0.01617,0.10162,-0.00916,-0.01541,-0.0209,-0.09735,-0.04623,-0.02457,0.00961,-0.04349
6.3535,0.5835,-0.03448,-0.05569,-0.01282,-0.00504,-0.03998,-0.00443,0.12009,-0.00763,-0.01434,-0.01892,0.02228,-0.0441,-0.02457,0.0119,-0.04105
6.354,0.55908,-0.0325,-0.06073,-0.01236,-0.00153,-0.04425,-0.03616,0.10986,-0.00763,-0.01602,-0.01785,0.15137,-0.04318,-0.02518,0.01266,-0.04044
6.3545,0.53467,-0.03143,-0.06699,-0.01038,-0.00259,-0.04639,-0.05295,0.06714,-0.00961,-0.01816,-0.01602,0.23712,-0.04547,-0.02548,0.00992,-0.04196
6.355,0.51285,-0.03235,-0.07126,-0.00793,-0.00732,-0.047,-0.03235,0.00839,-0.01297,-0.01541,-0.01434,0.22858,-0.04715,-0.02365,0.00732,-0.04395
6.3555,0.49332,-0.03357,-0.0679,-0.0032,-0.01236,-0.04822,-0.00076,-0.03143,-0.01495,-0.01678,-0.01251,0.13992,-0.04395,-0.01984,0.00595,-0.04608
6.356,0.47653,-0.03448,-0.06165,0.00397,-0.01862,-0.04837,-0.00259,-0.03601,-0.01556,-0.01465,-0.01144,0.04242,-0.04044,-0.01648,0.0061,-0.04761
6.3565,0.46143,-0.03586,-0.056,0.01038,-0.02731,-0.04913,-0.03464,-0.01831,-0.01541,-0.01312,-0.01038,-0.01343,-0.03738,-0.01465,0.00458,-0.05081
6.357,0.44922,-0.03784,-0.05173,0.01328,-0.04272,-0.04745,-0.05646,0.0174,-0.01526,-0.01373,-0.01022,-0.02777,-0.03586,-0.0148,0.00351,-0.05264
6.3575,0.43823,-0.03906,-0.04837,0.01007,-0.06165,-0.04807,-0.05814,0.07202,-0.01495,-0.0148,-0.01114,-0.02304,-0.03418,-0.0148,0.00214,-0.04898
6.358,0.42938,-0.03754,-0.04669,0.00381,-0.07294,-0.05051,-0.06317,0.11185,-0.01251,-0.01495,-0.01221,-0.01373,-0.03433,-0.01358,0.00351,-0.04974
6.3585,0.42313,-0.0354,-0.04578,-0.00046,-0.06912,-0.05173,-0.08163,0.08652,-0.01099,-0.01648,-0.01328,-0.0116,-0.03525,-0.01373,0.0061,-0.04868
6.359,0.41626,-0.03418,-0.0441,-0.00092,-0.04791,-0.05066,-0.0972,-0.00473,-0.01068,-0.01526,-0.01312,-0.02426,-0.03464,-0.01511,0.00519,-0.04654
6.3595,0.40558,-0.0322,-0.03983,0.00092,-0.02274,-0.04669,-0.09369,-0.10788,-0.00946,-0.01541,-0.01236,-0.04349,-0.03281,-0.01648,0.00519,-0.04593
6.36,0.39017,-0.02731,-0.03616,0.00107,-0.00473,-0.04532,-0.06348,-0.16846,-0.0061,-0.01495,-0.0119,-0.05081,-0.03052,-0.01587,0.00641,-0.0412
6.3605,0.37491,-0.02258,-0.03754,-0.00168,0.00076,-0.04501,-0.00229,-0.168,-0.00214,-0.01633,-0.0116,-0.04318,-0.0296,-0.01572,0.009,-0.03952
6.361,0.36148,-0.02197,-0.04929,-0.00595,-0.00198,-0.04776,0.07568,-0.11963,0.00061,-0.01556,-0.01053,-0.03296,-0.02975,-0.0177,0.00916,-0.03906
6.3615,0.34744,-0.02396,-0.06989,-0.00992,-0.00748,-0.04654,0.13306,-0.05554,0.00137,-0.01816,-0.01038,-0.02533,-0.03128,-0.02182,0.00778,-0.03632
6.362,0.33096,-0.0264,-0.08835,-0.00671,-0.01373,-0.04654,0.13214,-0.01709,0.00137,-0.01953,-0.01144,-0.01465,-0.03342,-0.02457,0.00671,-0.03708
6.3625,0.31296,-0.02716,-0.08667,0.0116,-0.01678,-0.04562,0.06714,-0.02518,0.00153,-0.01953,-0.01144,0.00641,-0.03464,-0.0235,0.00687,-0.03723
6.363,0.29831,-0.02747,-0.06165,0.04578,-0.02045,-0.04562,-0.02335,-0.06653,0.00137,-0.01801,-0.01038,0.03403,-0.03235,-0.02151,0.0061,-0.03998
6.3635,0.28595,-0.02777,-0.02777,0.07858,-0.02396,-0.04471,-0.0856,-0.09689,-0.00198,-0.01663,-0.00824,0.04837,-0.02731,-0.01709,0.00565,-0.04257
6.364,0.27435,-0.02991,-0.00259,0.08682,-0.02731,-0.0444,-0.10345,-0.07813,-0.00946,-0.01633,-0.0058,0.04227,-0.02365,-0.01404,0.00504,-0.0412
6.3645,0.26062,-0.03265,0.01236,0.06348,-0.0293,-0.04532,-0.11322,-0.01022,-0.0206,-0.01587,-0.00366,0.03418,-0.02502,-0.01068,0.00565,-0.04089
6.365,0.24628,-0.03418,0.01755,0.02853,-0.03372,-0.04608,-0.14175,0.07401,-0.02945,-0.0174,-0.00229,0.03906,-0.0296,-0.01068,0.00519,-0.0383
6.3655,0.23209,-0.03296,0.01358,0.0058,-0.03723,-0.04776,-0.16373,0.14328,-0.03265,-0.01694,-0.00046,0.03357,-0.03296,-0.01297,0.00458,-0.03952
6.366,0.21973,-0.03204,0.0058,0.00671,-0.03754,-0.04852,-0.13763,0.18738,-0.03082,-0.01526,0.00046,-0.00885,-0.03418,-0.01511,0.00595,-0.03876
6.3665,0.21057,-0.03281,-0.00076,0.0264,-0.03128,-0.05081,-0.06012,0.20157,-0.02701,-0.01617,0.00031,-0.06805,-0.03342,-0.01663,0.00931,-0.03983
6.367,0.20279,-0.03448,-0.00397,0.04364,-0.02045,-0.05234,0.02106,0.16769,-0.02396,-0.01648,-0.00122,-0.09781,-0.03342,-0.0177,0.0116,-0.04135
6.3675,0.19363,-0.03967,-0.0061,0.01785,-0.01297,-0.05325,0.05493,0.08011,-0.01999,-0.01541,-0.0029,-0.09628,-0.03418,-0.01755,0.01266,-0.04288
6.368,0.18265,-0.05234,-0.00961,-0.0766,-0.0119,-0.05325,0.04379,-0.03189,-0.01648,-0.0145,-0.00336,-0.12192,-0.03525,-0.01755,0.0116,-0.04013
6.3685,0.16953,-0.06866,-0.01266,-0.21057,-0.0145,-0.05325,0.04211,-0.12115,-0.01404,-0.01434,-0.00488,-0.20035,-0.03586,-0.01755,0.01099,-0.03952
6.369,0.15793,-0.07675,-0.01358,-0.30075,-0.01785,-0.05539,0.10513,-0.16937,-0.01312,-0.01465,-0.00732,-0.26184,-0.03403,-0.01724,0.00916,-0.03967
6.3695,0.14908,-0.07141,-0.01236,-0.30014,-0.02304,-0.05569,0.21042,-0.18768,-0.01099,-0.01526,-0.00992,-0.2243,-0.03143,-0.01633,0.00702,-0.03906
6.37,0.14221,-0.05661,-0.00809,-0.24872,-0.03632,-0.05508,0.27725,-0.18784,-0.00961,-0.01556,-0.01175,-0.09933,-0.03052,-0.0148,0.00687,-0.03937
6.3705,0.13489,-0.03998,-0.00595,-0.21393,-0.05524,-0.05325,0.25314,-0.15518,-0.00809,-0.01587,-0.01205,0.0383,-0.03159,-0.01373,0.00732,-0.03708
6.371,0.12238,-0.02289,-0.01846,-0.20462,-0.06714,-0.05203,0.16312,-0.06821,-0.00748,-0.01678,-0.01373,0.13275,-0.03403,-0.01465,0.00977,-0.03647
6.3715,0.10651,-0.00504,-0.05402,-0.15686,-0.05844,-0.04852,0.07355,0.06149,-0.00549,-0.01785,-0.01434,0.14832,-0.03418,-0.01495,0.01328,-0.03616
6.372,0.09064,0.01175,-0.10162,0.00198,-0.03799,-0.04181,0.01938,0.16266,-0.0061,-0.01892,-0.01389,0.06195,-0.03235,-0.01465,0.0148,-0.03754
6.3725,0.07614,0.0264,-0.1239,0.23819,-0.02319,-0.04028,-0.00839,0.16281,-0.01038,-0.01846,-0.0116,-0.08072,-0.02914,-0.0145,0.01328,-0.03799
6.373,0.06027,0.03357,-0.10147,0.3653,-0.02243,-0.04303,-0.02304,0.0737,-0.01572,-0.01755,-0.01251,-0.14893,-0.02731,-0.0174,0.01205,-0.03876
6.3735,0.04089,0.02625,-0.05066,0.24368,-0.02838,-0.04669,-0.02274,-0.02289,-0.01648,-0.01907,-0.01602,-0.04761,-0.02792,-0.02045,0.01022,-0.03922
6.374,0.01892,0.00122,-0.00275,-0.00061,-0.02823,-0.04822,-0.01419,-0.06058,-0.01266,-0.02121,-0.01923,0.13962,-0.02884,-0.02136,0.01022,-0.03769
6.3745,-0.00275,-0.03052,0.02472,-0.11414,-0.02625,-0.04868,-0.01038,-0.03998,-0.01022,-0.02335,-0.01816,0.24994,-0.02823,-0.02106,0.0116,-0.03983
6.375,-0.0177,-0.05646,0.03296,-0.02502,-0.02487,-0.0473,-0.01846,0.00519,-0.00992,-0.02457,-0.01465,0.24307,-0.02686,-0.02014,0.0119,-0.04135
6.3755,-0.02396,-0.07156,0.02686,0.15442,-0.02609,-0.0473,-0.02655,0.04791,-0.01114,-0.02502,-0.01236,0.20142,-0.02609,-0.01984,0.01038,-0.04196
6.376,-0.02335,-0.08209,0.01389,0.34363,-0.02777,-0.04761,-0.02792,0.07751,-0.01144,-0.02655,-0.0116,0.16556,-0.02655,-0.01938,0.00854,-0.04272
6.3765,-0.02182,-0.09155,0.00076,0.53513,-0.02777,-0.0499,-0.0267,0.09628,-0.01175,-0.02625,-0.01144,0.10864,-0.02731,-0.01846,0.00641,-0.04578
6.377,-0.02075,-0.09567,-0.01038,0.65872,-0.02655,-0.04944,-0.02731,0.11093,-0.01312,-0.02609,-0.01205,0.03983,-0.02777,-0.01831,0.00549,-0.04669
6.3775,-0.02014,-0.08911,-0.01816,0.59723,-0.02457,-0.05051,-0.02869,0.11887,-0.01495,-0.02487,-0.01038,0.00504,-0.02716,-0.01846,0.00366,-0.04913
6.378,-0.02167,-0.07278,-0.0206,0.34943,-0.02106,-0.04898,-0.02853,0.11124,-0.01526,-0.02548,-0.00885,0.00854,-0.02686,-0.01846,0.00229,-0.04654
6.3785,-0.02747,-0.05417,-0.02228,0.04776,-0.01862,-0.04684,-0.02869,0.0827,-0.01572,-0.02457,-0.00839,0.01068,-0.02563,-0.01694,0.00168,-0.04608
6.379,-0.03342,-0.03998,-0.03067,-0.17899,-0.0177,-0.04364,-0.03082,0.04166,-0.01648,-0.02258,-0.00809,-0.00687,-0.02411,-0.01648,0.00259,-0.04456
6.3795,-0.03357,-0.03204,-0.04852,-0.30319,-0.01801,-0.04059,-0.03601,0.00122,-0.01694,-0.0209,-0.00732,-0.02518,-0.02258,-0.01587,0.00534,-0.04059
6.38,-0.02823,-0.02975,-0.06912,-0.36057,-0.01953,-0.04074,-0.04395,-0.02792,-0.01602,-0.01938,-0.00687,-0.02991,-0.02075,-0.01633,0.00778,-0.04166
6.3805,-0.02335,-0.0264,-0.08026,-0.38437,-0.01968,-0.04181,-0.0531,-0.05051,-0.01389,-0.0177,-0.00778,-0.02686,-0.02151,-0.01678,0.00916,-0.04227
6.381,-0.02151,-0.0209,-0.07858,-0.37903,-0.0206,-0.0441,-0.06027,-0.0708,-0.01129,-0.01709,-0.00732,-0.02396,-0.02167,-0.01678,0.01099,-0.04074
6.3815,-0.02075,-0.02319,-0.07019,-0.34775,-0.0235,-0.04501,-0.06302,-0.08667,-0.01053,-0.01678,-0.00565,-0.01968,-0.02197,-0.01572,0.01022,-0.03723
6.382,-0.01923,-0.03983,-0.0621,-0.30457,-0.02579,-0.0441,-0.06073,-0.09277,-0.01099,-0.01724,-0.00412,-0.01236,-0.02121,-0.01465,0.00977,-0.03326
6.3825,-0.02197,-0.05905,-0.05341,-0.26749,-0.02762,-0.04532,-0.05676,-0.08606,-0.01312,-0.0174,-0.00412,-0.00534,-0.02014,-0.01541,0.00977,-0.03601
6.383,-0.03052,-0.06271,-0.04288,-0.2449,-0.02899,-0.04654,-0.05371,-0.07477,-0.01526,-0.01602,-0.00427,-0.00519,-0.01907,-0.01572,0.00946,-0.04349
6.3835,-0.03983,-0.04959,-0.03265,-0.22736,-0.02808,-0.04837,-0.05051,-0.06714,-0.01541,-0.01526,-0.00412,-0.00946,-0.01755,-0.01465,0.01022,-0.05402
6.384,-0.04562,-0.0351,-0.0296,-0.19913,-0.02884,-0.04822,-0.04639,-0.05859,-0.0148,-0.01511,-0.00351,-0.01251,-0.01633,-0.01297,0.00961,-0.06042
6.3845,-0.04929,-0.03128,-0.03235,-0.15839,-0.03143,-0.04929,-0.04608,-0.04425,-0.01526,-0.01511,-0.00397,-0.01038,-0.01602,-0.01251,0.00885,-0.05814
6.385,-0.05493,-0.03464,-0.0386,-0.11932,-0.03296,-0.05051,-0.04929,-0.02777,-0.01556,-0.01465,-0.00412,-0.00473,-0.01923,-0.01419,0.0087,-0.04333
6.3855,-0.06195,-0.03586,-0.04578,-0.09537,-0.03296,-0.05203,-0.0502,-0.01541,-0.01572,-0.01312,-0.00595,0.00061,-0.02335,-0.01678,0.00839,-0.02029
6.386,-0.06699,-0.03189,-0.05295,-0.08408,-0.03296,-0.05203,-0.04395,-0.00977,-0.01434,-0.01541,-0.00839,0.0029,-0.02518,-0.01831,0.0087,0.00015
6.3865,-0.06989,-0.02518,-0.05692,-0.07553,-0.03418,-0.0528,-0.03952,-0.00778,-0.0116,-0.01587,-0.01068,0.00366,-0.02502,-0.02014,0.0119,0.02182
6.387,-0.07187,-0.0177,-0.05692,-0.06104,-0.03464,-0.05142,-0.0441,-0.00717,-0.00977,-0.01663,-0.01114,0.00504,-0.02411,-0.02136,0.01511,0.0296
6.3875,-0.07202,-0.01022,-0.05249,-0.03891,-0.03281,-0.05081,-0.05478,-0.00687,-0.00732,-0.01541,-0.01053,0.00763,-0.02487,-0.02167,0.01587,0.00809
6.388,-0.07202,-0.01007,-0.04959,-0.01266,-0.02823,-0.05081,-0.065,-0.00565,-0.00519,-0.01465,-0.009,0.01144,-0.02731,-0.02243,0.01389,-0.02655
6.3885,-0.07248,-0.0177,-0.06821,0.01266,-0.02487,-0.04578,-0.0679,-0.00336,-0.00366,-0.01556,-0.00854,0.01495,-0.02777,-0.02197,0.01068,-0.03342
6.389,-0.07614,-0.02686,-0.12146,0.03265,-0.02457,-0.04562,-0.06729,-0.00092,-0.00305,-0.01724,-0.00961,0.01694,-0.02792,-0.02121,0.009,-0.01312
6.3895,-0.0798,-0.02777,-0.19653,0.0528,-0.02716,-0.0473,-0.06271,0.00031,-0.00336,-0.01709,-0.0087,0.01801,-0.02945,-0.02136,0.00702,0.00305
6.39,-0.08087,-0.02045,-0.25543,0.08469,-0.02808,-0.04929,-0.05051,-0.00076,-0.00275,-0.01785,-0.00443,0.01923,-0.03433,-0.01907,0.00687,-0.0209
6.3905,-0.08026,-0.01419,-0.26108,0.1265,-0.02838,-0.04944,-0.02731,-0.00305,-0.0032,-0.01816,-0.00046,0.01999,-0.04089,-0.01877,0.00977,-0.09232
6.391,-0.07889,-0.01617,-0.2034,0.15884,-0.02777,-0.04608,-0.0032,-0.00458,-0.00412,-0.01892,0.00031,0.01816,-0.04684,-0.01877,0.01419,-0.18066
6.3915,-0.07858,-0.02289,-0.10071,0.15869,-0.02701,-0.04501,0.00137,-0.00473,-0.00504,-0.01923,-0.00305,0.01465,-0.04669,-0.01892,0.01755,-0.26245
6.392,-0.0795,-0.02747,0.01312,0.12512,-0.0264,-0.04272,-0.01694,-0.0029,-0.00702,-0.01938,-0.00565,0.00946,-0.04196,-0.01968,0.01785,-0.29022
6.3925,-0.08209,-0.02747,0.10986,0.07828,-0.0267,-0.04257,-0.04639,-0.0032,-0.00793,-0.02014,-0.00443,0.00626,-0.03738,-0.02136,0.01602,-0.24597
6.393,-0.08575,-0.02319,0.17487,0.03342,-0.02777,-0.04318,-0.06393,-0.00885,-0.009,-0.02136,-0.00275,0.00565,-0.03677,-0.02258,0.01343,-0.14618
6.3935,-0.09018,-0.01801,0.20844,-0.00793,-0.03113,-0.04501,-0.05737,-0.01907,-0.01099,-0.02213,-0.00381,0.00824,-0.03876,-0.02197,0.01007,-0.03494
6.394,-0.09445,-0.01617,0.20981,-0.04211,-0.03357,-0.04761,-0.03464,-0.02777,-0.01328,-0.02167,-0.00641,0.01175,-0.04059,-0.02182,0.00839,0.04471
6.3945,-0.09918,-0.01877,0.18356,-0.06073,-0.03601,-0.04959,-0.01007,-0.02975,-0.01328,-0.02151,-0.0087,0.01312,-0.0412,-0.02106,0.00626,0.05264
6.395,-0.10193,-0.02518,0.14221,-0.05524,-0.03677,-0.04974,0.00519,-0.02563,-0.00946,-0.02213,-0.00931,0.01022,-0.03998,-0.02182,0.00336,-0.00793
6.3955,-0.09995,-0.03082,0.10162,-0.03448,-0.03784,-0.04715,0.00702,-0.01984,-0.00565,-0.02304,-0.00809,0.00641,-0.03876,-0.02121,-0.00198,-0.07462
6.396,-0.09109,-0.0351,0.06927,-0.01953,-0.03754,-0.04501,0.00107,-0.01328,-0.00381,-0.0238,-0.00778,0.00214,-0.03769,-0.02045,-0.00809,-0.09277
6.3965,-0.0824,-0.04227,0.04562,-0.02747,-0.03693,-0.04501,-0.00092,-0.00717,-0.00519,-0.02304,-0.00809,0.00092,-0.03647,-0.01923,-0.0087,-0.08026
6.397,-0.07706,-0.0528,0.03128,-0.05722,-0.03555,-0.04547,0.00931,-0.00076,-0.00549,-0.02335,-0.00809,0.00351,-0.0354,-0.01831,-0.00137,-0.07507
6.3975,-0.07141,-0.06256,0.02075,-0.09293,-0.03464,-0.04425,0.02106,0.0032,-0.00443,-0.02289,-0.00748,0.00946,-0.03586,-0.01816,0.00763,-0.06012
6.398,-0.06165,-0.06409,0.00183,-0.12527,-0.03433,-0.04333,0.01297,0.00458,-0.00275,-0.02151,-0.00778,0.01282,-0.03555,-0.01892,0.01114,-0.01633
6.3985,-0.0502,-0.06012,-0.02686,-0.15472,-0.03571,-0.04196,-0.01022,0.00366,-0.00198,-0.01923,-0.00824,0.01312,-0.03372,-0.01984,0.00977,0.03006
6.399,-0.04089,-0.06027,-0.05463,-0.17609,-0.03906,-0.04288,-0.02777,0.00198,-0.00458,-0.01678,-0.00702,0.01205,-0.03082,-0.02075,0.00702,0.05341
6.3995,-0.03616,-0.07095,-0.06836,-0.16235,-0.04349,-0.04395,-0.02197,0.00107,-0.00839,-0.01617,-0.00534,0.01221,-0.02945,-0.01999,0.00595,0.07416
6.4,-0.03693,-0.08224,-0.07187,-0.07904,-0.04715,-0.04379,-0.00748,0.00198,-0.01129,-0.01694,-0.00534,0.01205,-0.02853,-0.01831,0.00549,0.12894
6.4005,-0.04364,-0.08224,-0.0766,0.08087,-0.047,-0.04715,-0.00275,0.00351,-0.01114,-0.01755,-0.00748,0.01144,-0.02701,-0.01633,0.00458,0.17441
6.401,-0.05402,-0.06866,-0.0885,0.25467,-0.04349,-0.04868,-0.00381,0.00488,-0.0087,-0.01678,-0.01007,0.01053,-0.02579,-0.01617,0.00351,0.15366
6.4015,-0.06256,-0.05051,-0.09903,0.32623,-0.03815,-0.04776,-0.00473,0.00656,-0.0061,-0.01602,-0.01175,0.00885,-0.02396,-0.01572,0.00214,0.08286
6.402,-0.06454,-0.0386,-0.09995,0.22308,-0.0325,-0.04684,-0.00443,0.00687,-0.00565,-0.01617,-0.0119,0.00671,-0.02396,-0.01785,-0.00031,0.02594
6.4025,-0.06332,-0.0383,-0.08987,0.009,-0.02396,-0.04517,-0.009,0.00565,-0.0058,-0.01785,-0.01007,0.00473,-0.02472,-0.01801,-0.00031,0.01495
6.403,-0.06287,-0.05051,-0.07202,-0.1593,-0.00549,-0.0441,-0.01328,0.00366,-0.0061,-0.01923,-0.00839,0.0032,-0.02563,-0.01816,0.00092,0.01984
6.4035,-0.06577,-0.0679,-0.05905,-0.20706,0.02396,-0.0412,-0.01556,0.00275,-0.00504,-0.01877,-0.00931,0.00244,-0.0267,-0.01877,0.00214,0.01724
6.404,-0.06882,-0.0827,-0.05737,-0.19257,0.05875,-0.04074,-0.01266,0.00305,-0.00519,-0.01953,-0.01205,0.00229,-0.02563,-0.01907,0.00076,-0.00381
6.4045,-0.07172,-0.08957,-0.06302,-0.17471,0.08316,-0.03952,-0.00885,0.00351,-0.00656,-0.01862,-0.01221,0.00305,-0.02319,-0.01846,0.00153,-0.03525
6.405,-0.07782,-0.09323,-0.06699,-0.12878,0.08469,-0.04105,-0.00778,0.00473,-0.00671,-0.01785,-0.01099,0.0029,-0.02274,-0.01724,0.00519,-0.07202
6.4055,-0.08865,-0.09735,-0.06851,-0.03662,0.06058,-0.04669,-0.01266,0.00732,-0.00641,-0.01785,-0.00946,0.00168,-0.02441,-0.01602,0.0116,-0.10178
6.406,-0.09888,-0.09933,-0.06973,0.04303,0.02426,-0.05142,-0.02106,0.00916,-0.00702,-0.01862,-0.00977,-0.00031,-0.02625,-0.01541,0.01419,-0.10864
6.4065,-0.10315,-0.0943,-0.07141,0.04196,-0.01297,-0.05432,-0.0296,0.00961,-0.00732,-0.01923,-0.00992,-0.00275,-0.02731,-0.01587,0.0116,-0.10483
6.407,-0.10284,-0.08118,-0.06561,-0.01617,-0.05325,-0.05371,-0.03448,0.00931,-0.00732,-0.0206,-0.01007,-0.00351,-0.02731,-0.01785,0.00763,-0.10422
6.4075,-0.1004,-0.06393,-0.05478,0.01556,-0.103,-0.05661,-0.03586,0.01022,-0.00626,-0.01892,-0.00977,-0.0032,-0.02594,-0.01968,0.00687,-0.09079
6.408,-0.0975,-0.04898,-0.04929,0.23773,-0.15594,-0.05783,-0.03113,0.01266,-0.00488,-0.01892,-0.00977,-0.00259,-0.02502,-0.02045,0.00931,-0.03189
6.4085,-0.09613,-0.03784,-0.05798,0.50003,-0.18875,-0.05585,-0.02655,0.01343,-0.00595,-0.01953,-0.00916,-0.00153,-0.02625,-0.02014,0.00946,0.05295
6.409,-0.1001,-0.02853,-0.08011,0.51163,-0.17853,-0.05554,-0.02274,0.01129,-0.00702,-0.02121,-0.00854,-0.00107,-0.02777,-0.0206,0.0058,0.08408
6.4095,-0.11444,-0.01984,-0.10361,0.22415,-0.13199,-0.05005,-0.02029,0.00671,-0.00549,-0.0206,-0.00748,-0.00046,-0.02777,-0.01953,0.00122,0.03418
6.41,-0.13626,-0.01419,-0.11292,-0.07584,-0.08545,-0.04623,-0.01373,0.00046,-0.00458,-0.01907,-0.00793,-0.00198,-0.02899,-0.01785,-0.00153,-0.04074
6.4105,-0.15198,-0.01328,-0.10345,-0.13077,-0.06592,-0.0444,-0.00366,-0.00641,-0.00229,-0.01785,-0.00824,-0.00351,-0.03265,-0.01755,-0.00031,-0.0798
6.411,-0.15167,-0.01389,-0.08041,0.00214,-0.06195,-0.04501,0.00687,-0.01099,-0.00244,-0.01831,-0.00839,-0.00351,-0.03647,-0.01801,0.00168,-0.08408
6.4115,-0.13611,-0.01587,-0.05157,0.11856,-0.04684,-0.04639,0.01358,-0.01175,-0.00305,-0.0177,-0.00748,-0.00336,-0.03876,-0.0174,0.00198,-0.08286
6.412,-0.11887,-0.02014,-0.02502,0.12863,-0.01678,-0.04562,0.01175,-0.0116,-0.00366,-0.01862,-0.00717,-0.00534,-0.03906,-0.01694,0.00061,-0.08331
6.4125,-0.11078,-0.02686,-0.0087,0.08301,0.00534,-0.04318,0.00168,-0.01511,-0.00381,-0.01984,-0.00702,-0.00778,-0.0383,-0.01892,-0.00168,-0.08224
6.413,-0.10895,-0.03448,-0.00259,0.0386,-0.00443,-0.04379,-0.01022,-0.01709,-0.00458,-0.01907,-0.00809,-0.00809,-0.03601,-0.02167,-0.00244,-0.07706
6.4135,-0.10529,-0.03876,-0.0029,0.01251,-0.05341,-0.04654,-0.01251,-0.01144,-0.0058,-0.0177,-0.01022,-0.00748,-0.03387,-0.02304,-0.00183,-0.0708
6.414,-0.10132,-0.03967,-0.00565,0.00122,-0.11765,-0.04959,-0.00397,0.00443,-0.00778,-0.01892,-0.0116,-0.00839,-0.03235,-0.02304,0.00092,-0.06683
6.4145,-0.09933,-0.04166,-0.01221,0.00488,-0.14862,-0.05035,0.00366,0.02075,-0.009,-0.02106,-0.01083,-0.00992,-0.03174,-0.02335,0.00412,-0.06516
6.415,-0.09964,-0.04425,-0.02396,0.01648,-0.12192,-0.04883,-0.00046,0.02533,-0.00824,-0.02182,-0.009,-0.00992,-0.03189,-0.02365,0.00244,-0.06851
6.4155,-0.10056,-0.04562,-0.03357,0.02167,-0.06821,-0.04745,-0.01236,0.01892,-0.00717,-0.02121,-0.00656,-0.00519,-0.03082,-0.02304,0.00107,-0.06897
6.416,-0.09949,-0.04364,-0.03799,0.01434,-0.03845,-0.04684,-0.01694,0.01144,-0.00763,-0.02075,-0.00641,0.0029,-0.02838,-0.02045,0.00137,-0.07095
6.4165,-0.09644,-0.03906,-0.04837,0.00031,-0.04196,-0.04684,-0.00931,0.00793,-0.00793,-0.02182,-0.00717,0.00977,-0.02686,-0.01724,0.00183,-0.07156
6.417,-0.09399,-0.03265,-0.0676,-0.01068,-0.05188,-0.04761,-0.00565,0.00687,-0.00854,-0.02289,-0.00809,0.01083,-0.02716,-0.01297,0.00366,-0.06989
6.4175,-0.09369,-0.02579,-0.08102,-0.01724,-0.04791,-0.04822,-0.02151,0.00565,-0.00946,-0.02151,-0.00809,0.00793,-0.02869,-0.01038,0.00397,-0.06958
6.418,-0.09705,-0.02136,-0.07263,-0.02151,-0.03769,-0.04761,-0.05295,0.00366,-0.01038,-0.02029,-0.00748,0.00275,-0.02747,-0.01038,0.00458,-0.07233
6.4185,-0.10284,-0.02075,-0.04471,-0.02457,-0.03082,-0.04929,-0.08331,0.00183,-0.01099,-0.01938,-0.00931,-0.00031,-0.02014,-0.01312,0.00473,-0.07309
6.419,-0.10956,-0.02304,-0.01556,-0.02441,-0.02823,-0.05035,-0.1059,0.00061,-0.01068,-0.01923,-0.01053,-0.00092,-0.00992,-0.01404,0.00641,-0.07523
6.4195,-0.11261,-0.02533,0.00381,-0.02365,-0.02533,-0.05127,-0.12146,0.00168,-0.009,-0.01801,-0.01053,0.00153,-0.00473,-0.01312,0.00763,-0.07553
6.42,-0.11047,-0.0293,0.01541,-0.02441,-0.02579,-0.05173,-0.12619,0.00504,-0.00732,-0.01556,-0.0087,0.01404,-0.00931,-0.01266,0.00931,-0.07477
6.4205,-0.10757,-0.04044,0.02579,-0.02716,-0.03235,-0.05157,-0.121,0.00702,-0.00717,-0.01602,-0.00732,0.03723,-0.02213,-0.01343,0.00931,-0.07324
6.421,-0.10483,-0.06546,0.03403,-0.03113,-0.04028,-0.05493,-0.12573,0.00214,-0.00885,-0.01587,-0.00793,0.05707,-0.03265,-0.01434,0.00839,-0.07217
6.4215,-0.103,-0.10712,0.03906,-0.03647,-0.04486,-0.05341,-0.15244,-0.00854,-0.0087,-0.01633,-0.00885,0.05829,-0.03433,-0.01419,0.00778,-0.07095
6.422,-0.1001,-0.14862,0.0386,-0.04089,-0.04044,-0.04898,-0.17242,-0.01877,-0.00854,-0.01572,-0.00824,0.03983,-0.03021,-0.01434,0.00717,-0.06973
6.4225,-0.0975,-0.16174,0.02853,-0.03967,-0.03006,-0.04532,-0.15045,-0.02304,-0.00748,-0.01419,-0.00793,0.01678,-0.02792,-0.01465,0.00656,-0.07004
6.423,-0.0972,-0.13397,-0.00854,-0.02533,-0.01862,-0.04364,-0.07629,-0.02533,-0.00793,-0.01389,-0.0087,-0.00198,-0.02884,-0.01541,0.00732,-0.06927
6.4235,-0.09827,-0.08133,-0.08041,0.00717,-0.01419,-0.04242,0.0412,-0.02823,-0.00885,-0.01465,-0.01022,-0.01617,-0.03128,-0.01633,0.00793,-0.06714
6.424,-0.10071,-0.02747,-0.14877,0.04974,-0.01541,-0.04242,0.17624,-0.03036,-0.00992,-0.01541,-0.01007,-0.02808,-0.03174,-0.01678,0.00778,-0.06744
6.4245,-0.10101,0.01663,-0.14877,0.07446,-0.01846,-0.04318,0.26215,-0.02701,-0.01053,-0.01556,-0.00824,-0.03601,-0.03098,-0.01678,0.00671,-0.06577
6.425,-0.1004,0.04791,-0.06927,0.06378,-0.0206,-0.04456,0.24765,-0.01907,-0.01007,-0.01495,-0.00839,-0.04028,-0.03067,-0.01633,0.00519,-0.06882
6.4255,-0.10239,0.06409,0.02228,0.03235,-0.0177,-0.04684,0.16159,-0.01251,-0.00885,-0.0148,-0.01053,-0.04028,-0.0296,-0.0177,0.00427,-0.06912
6.426,-0.10666,0.065,0.06149,0.01587,-0.00763,-0.04807,0.09247,-0.0087,-0.009,-0.01511,-0.01068,-0.03357,-0.02884,-0.01923,0.00488,-0.06805
6.4265,-0.11169,0.05478,0.05081,0.01999,0.01434,-0.05051,0.08835,-0.0058,-0.00977,-0.01572,-0.01053,-0.01892,-0.02747,-0.01892,0.00488,-0.06042
6.427,-0.11307,0.0383,0.02945,0.01007,0.05432,-0.04807,0.11917,-0.00076,-0.01068,-0.01694,-0.01022,-0.00015,-0.02853,-0.01877,0.00687,-0.0528
6.4275,-0.10727,0.01831,0.01297,-0.04547,0.10513,-0.0441,0.12787,0.00626,-0.00992,-0.01907,-0.01007,0.01373,-0.03006,-0.01831,0.00763,-0.04608
6.428,-0.09628,-0.0032,-0.0087,-0.13184,0.14267,-0.03937,0.10162,0.01251,-0.01038,-0.01953,-0.009,0.0145,-0.03143,-0.01785,0.00717,-0.04379
6.4285,-0.08331,-0.0238,-0.03326,-0.19867,0.14633,-0.0386,0.06348,0.01663,-0.01038,-0.01923,-0.00793,-0.00061,-0.03098,-0.01724,0.00504,-0.04471
6.429,-0.07065,-0.04669,-0.04517,-0.21164,0.11276,-0.04379,0.03815,0.01953,-0.00931,-0.01907,-0.00793,-0.02548,-0.03006,-0.01831,0.00443,-0.0473
6.4295,-0.05768,-0.07355,-0.03632,-0.17944,0.06378,-0.05127,0.02701,0.02106,-0.0087,-0.01862,-0.01068,-0.04868,-0.02899,-0.02029,0.00748,-0.05859
6.43,-0.04196,-0.09277,-0.01495,-0.14084,0.01968,-0.05554,0.02182,0.02029,-0.0087,-0.01831,-0.0116,-0.06516,-0.02823,-0.02213,0.00977,-0.07828
6.4305,-0.02563,-0.09064,0.0058,-0.1329,-0.02579,-0.05646,0.0148,0.01541,-0.01007,-0.01892,-0.01068,-0.07828,-0.02808,-0.02335,0.00885,-0.09552
6.431,-0.01373,-0.06683,0.0116,-0.16754,-0.08484,-0.05585,0.00488,0.01022,-0.0116,-0.01984,-0.0087,-0.0853,-0.02823,-0.02411,0.00717,-0.09293
6.4315,-0.01343,-0.03769,-0.00732,-0.22446,-0.13336,-0.05325,-0.00366,0.00641,-0.0116,-0.0206,-0.00763,-0.07446,-0.02777,-0.02518,0.00702,-0.06683
6.432,-0.02228,-0.01816,-0.04379,-0.25497,-0.1297,-0.04913,-0.00778,0.00641,-0.01144,-0.02075,-0.00839,-0.04135,-0.02716,-0.02579,0.00839,-0.02731
6.4325,-0.03372,-0.01465,-0.07782,-0.21835,-0.08362,-0.04486,-0.0087,0.00397,-0.01236,-0.01984,-0.00793,0.00259,-0.02762,-0.02518,0.01022,0.01236
6.433,-0.04196,-0.02625,-0.09613,-0.12878,-0.06012,-0.04257,-0.01144,-0.00244,-0.0145,-0.01892,-0.00748,0.03021,-0.03021,-0.02411,0.01221,0.03464
6.4335,-0.04776,-0.04501,-0.10056,-0.056,-0.09689,-0.04364,-0.01999,-0.01419,-0.01526,-0.01953,-0.00839,0.02518,-0.03342,-0.0238,0.01495,0.02075
6.434,-0.05035,-0.0589,-0.0943,-0.05173,-0.16296,-0.04608,-0.03036,-0.02792,-0.01556,-0.02014,-0.01022,-0.00214,-0.03662,-0.02365,0.01755,-0.02289
6.4345,-0.05051,-0.06195,-0.08148,-0.0853,-0.19333,-0.04486,-0.03708,-0.03662,-0.01526,-0.02136,-0.0116,-0.02823,-0.03906,-0.02274,0.01785,-0.07004
6.435,-0.05142,-0.06012,-0.06622,-0.06073,-0.15778,-0.04532,-0.03967,-0.03967,-0.01389,-0.02213,-0.01251,-0.0383,-0.04105,-0.02228,0.01694,-0.0856
6.4355,-0.05463,-0.06241,-0.05341,0.07294,-0.08438,-0.04639,-0.0412,-0.03723,-0.01297,-0.02304,-0.01221,-0.03799,-0.04272,-0.02258,0.01602,-0.07492
6.436,-0.05966,-0.07233,-0.04761,0.24551,-0.02365,-0.0528,-0.04395,-0.03342,-0.01373,-0.02182,-0.01175,-0.04013,-0.04211,-0.02243,0.01541,-0.05966
6.4365,-0.06332,-0.09048,-0.04349,0.32501,-0.00305,-0.05966,-0.04761,-0.03006,-0.0148,-0.0209,-0.01236,-0.04761,-0.04074,-0.02289,0.01678,-0.04745
6.437,-0.06485,-0.11551,-0.03586,0.25375,-0.01465,-0.06058,-0.0499,-0.02777,-0.0148,-0.01984,-0.01297,-0.05035,-0.03738,-0.02243,0.01709,-0.02792
6.4375,-0.06195,-0.14023,-0.02853,0.10178,-0.03326,-0.05997,-0.04974,-0.02411,-0.0148,-0.01923,-0.01343,-0.04288,-0.03342,-0.02197,0.01755,-0.00366
6.438,-0.05524,-0.15305,-0.03281,-0.01129,-0.04684,-0.05814,-0.04837,-0.02014,-0.01297,-0.01923,-0.01373,-0.03036,-0.03098,-0.02228,0.01663,0.00305
6.4385,-0.0444,-0.14633,-0.05966,-0.03098,-0.06882,-0.05783,-0.04593,-0.01617,-0.01373,-0.01877,-0.01312,-0.02365,-0.02945,-0.02213,0.0148,-0.01328
6.439,-0.03021,-0.12024,-0.11505,0.00061,-0.10864,-0.06058,-0.04318,-0.01312,-0.01343,-0.01907,-0.01328,-0.02594,-0.02914,-0.02182,0.01434,-0.03632
6.4395,-0.01129,-0.08499,-0.18463,0.02121,-0.15579,-0.06058,-0.04166,-0.00992,-0.01358,-0.01877,-0.0145,-0.03021,-0.02869,-0.01953,0.01328,-0.04349
6.44,0.01022,-0.05096,-0.22812,0.01038,-0.18265,-0.06058,-0.04074,-0.01038,-0.01343,-0.01907,-0.01602,-0.02975,-0.02899,-0.01801,0.01282,-0.03448
6.4405,0.02579,-0.02182,-0.21484,-0.01434,-0.17609,-0.05829,-0.04135,-0.0119,-0.0119,-0.01846,-0.01724,-0.02502,-0.02869,-0.0177,0.01297,-0.02594
6.441,0.0296,0.00534,-0.15121,-0.03189,-0.14221,-0.05386,-0.04227,-0.01007,-0.01144,-0.01816,-0.01694,-0.02731,-0.02747,-0.01877,0.01343,-0.0267
6.4415,0.02472,0.03189,-0.06866,-0.0354,-0.10086,-0.04898,-0.0415,-0.00504,-0.01236,-0.01785,-0.0177,-0.04608,-0.02609,-0.01953,0.01434,-0.03143
6.442,0.01663,0.05508,0.01266,-0.02777,-0.07019,-0.04349,-0.03754,-0.00046,-0.01312,-0.01801,-0.01694,-0.06699,-0.02533,-0.01938,0.01556,-0.03342
6.4425,0.00916,0.06699,0.08682,-0.01572,-0.05539,-0.03922,-0.03311,0.00153,-0.01328,-0.01877,-0.0174,-0.06485,-0.02502,-0.01801,0.01694,-0.03098
6.443,0.00168,0.06821,0.1413,-0.00427,-0.04974,-0.03693,-0.02991,0.00137,-0.01266,-0.01785,-0.01709,-0.03021,-0.02472,-0.01694,0.01801,-0.03006
6.4435,-0.00381,0.06241,0.15747,0.00229,-0.04303,-0.03464,-0.02792,-0.00061,-0.01282,-0.01556,-0.01663,0.01343,-0.02563,-0.01755,0.01648,-0.0322
6.444,-0.00519,0.0563,0.13153,0.00366,-0.03159,-0.03525,-0.02762,-0.00336,-0.01251,-0.01678,-0.01541,0.03036,-0.0267,-0.01816,0.01312,-0.03296
6.4445,-0.00397,0.05112,0.07721,0.00397,-0.02457,-0.03662,-0.02991,-0.00458,-0.01312,-0.01862,-0.01465,0.00031,-0.02731,-0.01938,0.01007,-0.03693
6.445,0.00092,0.04333,0.00778,0.00519,-0.02182,-0.03845,-0.03143,-0.00122,-0.0148,-0.02121,-0.01389,-0.05661,-0.02716,-0.01968,0.00946,-0.04181
6.4455,0.01266,0.03036,-0.05264,0.00687,-0.01984,-0.04211,-0.03174,0.00443,-0.01434,-0.02045,-0.01404,-0.09323,-0.02747,-0.02045,0.00992,-0.04364
6.446,0.03006,0.00977,-0.07858,0.00732,-0.01495,-0.0441,-0.03174,0.00931,-0.01389,-0.02014,-0.01511,-0.07645,-0.02838,-0.0209,0.01038,-0.04211
6.4465,0.0441,-0.01556,-0.06149,0.00671,-0.00839,-0.0441,-0.03067,0.01556,-0.01419,-0.01938,-0.01709,-0.01724,-0.02838,-0.01984,0.01068,-0.04089
6.447,0.04593,-0.03922,-0.02899,0.00427,-0.00351,-0.04333,-0.02869,0.02136,-0.01541,-0.01907,-0.01892,0.03601,-0.02899,-0.01755,0.01205,-0.03799
6.4475,0.03983,-0.05386,-0.01144,0.00107,-0.00534,-0.04242,-0.02563,0.02487,-0.01663,-0.01862,-0.01923,0.04562,-0.0296,-0.01724,0.01373,-0.0383
6.448,0.03632,-0.0621,-0.00809,-0.00183,-0.01068,-0.04364,-0.02365,0.02319,-0.01602,-0.01831,-0.01831,0.01984,-0.03021,-0.01862,0.01389,-0.04013
6.4485,0.03937,-0.06805,-0.0032,0.0,-0.01343,-0.04578,-0.02182,0.0174,-0.01556,-0.01709,-0.01785,-0.00244,-0.02991,-0.02075,0.01373,-0.04333
6.449,0.04486,-0.07095,0.00732,0.00916,-0.01038,-0.04654,-0.01999,0.01083,-0.01587,-0.01617,-0.0177,-0.00153,-0.02899,-0.02167,0.01495,-0.04471
6.4495,0.04715,-0.06912,0.01282,0.01724,-0.00397,-0.04578,-0.01907,0.00534,-0.01663,-0.01617,-0.01694,0.01068,-0.02884,-0.02121,0.01801,-0.04257
6.45,0.04333,-0.06424,0.00824,0.01511,0.00107,-0.04471,-0.01923,-0.00092,-0.01465,-0.01663,-0.01617,0.01694,-0.02975,-0.02045,0.01953,-0.04013
6.4505,0.03189,-0.06241,-0.00153,-0.00168,0.00092,-0.04379,-0.02106,-0.009,-0.01373,-0.0177,-0.01617,0.0209,-0.03098,-0.01984,0.01984,-0.03983
6.451,0.01328,-0.06378,-0.00473,-0.02426,0.0,-0.04379,-0.02228,-0.01465,-0.01434,-0.01755,-0.0174,0.02487,-0.03021,-0.01999,0.01862,-0.04364
6.4515,-0.00671,-0.06485,-0.00076,-0.03754,0.00061,-0.04333,-0.0206,-0.01251,-0.01709,-0.01617,-0.01755,0.02136,-0.02975,-0.01984,0.01724,-0.04501
6.452,-0.02228,-0.06699,0.0029,-0.03998,0.00305,-0.04059,-0.01801,-0.00458,-0.01907,-0.01404,-0.0177,0.00397,-0.03098,-0.01999,0.0148,-0.04257
6.4525,-0.02487,-0.07233,0.00183,-0.03845,0.0061,-0.03677,-0.01694,0.00198,-0.01892,-0.01312,-0.01709,-0.00793,-0.03174,-0.01968,0.01297,-0.04211
6.453,-0.01129,-0.07919,-0.0032,-0.03494,0.00916,-0.03632,-0.01785,0.00504,-0.01877,-0.01373,-0.01709,-0.00168,-0.03265,-0.02014,0.01205,-0.04318
6.4535,0.01175,-0.08209,-0.01083,-0.02823,0.01144,-0.03769,-0.01831,0.00641,-0.01755,-0.01419,-0.01556,0.00259,-0.03387,-0.02014,0.01419,-0.04242
6.454,0.0322,-0.07828,-0.0206,-0.01862,0.01617,-0.03891,-0.0174,0.0087,-0.0174,-0.01511,-0.0148,-0.0238,-0.0354,-0.02029,0.01617,-0.04395
6.4545,0.0441,-0.06943,-0.03372,-0.01297,0.02853,-0.03815,-0.01404,0.00992,-0.01755,-0.01572,-0.01419,-0.0708,-0.03525,-0.02075,0.01663,-0.0444
6.455,0.04745,-0.05783,-0.04532,-0.00992,0.04929,-0.0351,-0.01068,0.00931,-0.01816,-0.01617,-0.01556,-0.09064,-0.03525,-0.02106,0.01663,-0.04272
6.4555,0.04837,-0.04364,-0.05417,-0.00397,0.06409,-0.0322,-0.00946,0.00839,-0.01923,-0.01587,-0.01724,-0.04639,-0.03555,-0.01999,0.01556,-0.04227
6.456,0.05035,-0.02853,-0.06332,0.00961,0.06516,-0.03235,-0.0087,0.00839,-0.01968,-0.01648,-0.0174,0.0473,-0.03586,-0.01801,0.01648,-0.04272
6.4565,0.05234,-0.01907,-0.07813,0.02213,0.04898,-0.03494,-0.00732,0.00977,-0.01816,-0.0174,-0.01587,0.15274,-0.03555,-0.0174,0.01663,-0.04288
6.457,0.05219,-0.01877,-0.1123,0.01938,0.02426,-0.03616,-0.00458,0.01083,-0.01816,-0.01877,-0.01541,0.23758,-0.03632,-0.01907,0.01755,-0.04318
6.4575,0.04959,-0.02457,-0.16876,-0.00229,0.00015,-0.03952,-0.00381,0.01083,-0.01984,-0.01923,-0.01465,0.26367,-0.03815,-0.02014,0.01877,-0.04349
6.458,0.04425,-0.03052,-0.21713,-0.02335,-0.02502,-0.04288,-0.00702,0.00702,-0.02075,-0.01877,-0.01434,0.19913,-0.03906,-0.02045,0.01846,-0.04562
6.4585,0.04059,-0.0351,-0.2153,-0.02396,-0.05646,-0.04547,-0.0116,0.00305,-0.02014,-0.01907,-0.01434,0.07721,-0.04013,-0.01953,0.01587,-0.04593
6.459,0.03922,-0.04181,-0.15671,-0.00443,-0.07919,-0.04745,-0.01404,0.00275,-0.01907,-0.01923,-0.01556,-0.00931,-0.03983,-0.01892,0.01266,-0.04593
6.4595,0.0386,-0.04898,-0.07858,0.01282,-0.06378,-0.04944,-0.01343,0.00641,-0.01968,-0.01907,-0.01678,-0.00656,-0.03906,-0.01953,0.00961,-0.04517
6.46,0.03952,-0.05417,-0.01205,0.01587,-0.01205,-0.05142,-0.01114,0.01129,-0.01968,-0.01755,-0.01663,0.05356,-0.03876,-0.01923,0.00809,-0.047
6.4605,0.03922,-0.05569,0.03586,0.01007,0.03448,-0.05463,-0.00961,0.01556,-0.01953,-0.0174,-0.01587,0.10574,-0.03937,-0.01862,0.00824,-0.04944
6.461,0.03784,-0.05676,0.07095,0.0145,0.04852,-0.06058,-0.0058,0.02014,-0.01938,-0.01831,-0.01556,0.11536,-0.03967,-0.0177,0.00656,-0.04959
6.4615,0.03662,-0.06149,0.08652,0.03204,0.04013,-0.06943,-0.00229,0.02518,-0.01862,-0.01923,-0.01617,0.08621,-0.03815,-0.0174,0.0029,-0.04715
6.462,0.03708,-0.07019,0.07584,0.04547,0.02518,-0.07843,-0.00198,0.02609,-0.01724,-0.01953,-0.01709,0.03784,-0.03662,-0.01709,0.00046,-0.04593
6.4625,0.04074,-0.07797,0.03845,0.03891,0.00504,-0.08087,-0.00412,0.02121,-0.01602,-0.01938,-0.01801,-0.00977,-0.03677,-0.01724,0.00702,-0.04562
6.463,0.04623,-0.08026,-0.01511,0.01511,-0.02411,-0.07492,-0.00534,0.0148,-0.01556,-0.01968,-0.01816,-0.04211,-0.03738,-0.01846,0.01923,-0.04654
6.4635,0.04913,-0.08301,-0.05661,-0.01007,-0.05264,-0.06622,-0.00534,0.009,-0.01572,-0.01953,-0.0174,-0.05737,-0.03723,-0.01999,0.02609,-0.04761
6.464,0.04501,-0.09201,-0.05829,-0.02548,-0.06851,-0.05875,-0.0061,0.00366,-0.01633,-0.02045,-0.01709,-0.07248,-0.03723,-0.02075,0.02213,-0.05188
6.4645,0.03464,-0.10315,-0.01907,-0.03326,-0.0647,-0.05157,-0.00793,-0.00504,-0.01648,-0.02167,-0.01785,-0.09521,-0.03738,-0.02075,0.01114,-0.0528
6.465,0.02304,-0.10681,0.02274,-0.04013,-0.04959,-0.04456,-0.00977,-0.01877,-0.01511,-0.0238,-0.01755,-0.11841,-0.03784,-0.02045,0.00168,-0.0499
6.4655,0.0148,-0.10269,0.03586,-0.04547,-0.03494,-0.03784,-0.01129,-0.03296,-0.01328,-0.02319,-0.0177,-0.11963,-0.03784,-0.02029,-0.00534,-0.04761
6.466,0.01251,-0.10345,0.0238,-0.0441,-0.02762,-0.03845,-0.01389,-0.04166,-0.0148,-0.02151,-0.01877,-0.08057,-0.03632,-0.01938,-0.01205,-0.04715
6.4665,0.0145,-0.11734,0.01099,-0.04395,-0.03357,-0.04425,-0.01572,-0.04303,-0.01617,-0.02106,-0.01984,-0.01205,-0.03586,-0.01984,-0.01663,-0.04837
6.467,0.01755,-0.13596,0.00702,-0.05295,-0.04868,-0.04929,-0.01587,-0.04028,-0.01633,-0.02151,-0.02075,0.04272,-0.03647,-0.0209,-0.01846,-0.04639
6.4675,0.01892,-0.13702,-0.00046,-0.06973,-0.05554,-0.05081,-0.01617,-0.03708,-0.01602,-0.02258,-0.02136,0.04623,-0.03738,-0.02167,-0.02075,-0.04456
6.468,0.01923,-0.112,-0.02228,-0.08591,-0.0473,-0.04898,-0.01587,-0.03571,-0.01633,-0.02197,-0.02151,0.00381,-0.03616,-0.02106,-0.0238,-0.04532
6.4685,0.02121,-0.07202,-0.056,-0.09018,-0.03113,-0.04776,-0.01389,-0.03281,-0.01465,-0.01999,-0.02274,-0.04272,-0.03448,-0.01953,-0.0177,-0.04745
6.469,0.02609,-0.03265,-0.08347,-0.08041,-0.01755,-0.04959,-0.00992,-0.02579,-0.01236,-0.01892,-0.02197,-0.06439,-0.0351,-0.01862,0.00931,-0.04807
6.4695,0.03494,-0.00153,-0.09018,-0.06012,-0.00412,-0.05112,-0.0061,-0.01587,-0.01221,-0.01846,-0.0209,-0.06439,-0.0354,-0.01816,0.05417,-0.047
6.47,0.04745,0.02319,-0.08087,-0.03586,0.01022,-0.05081,-0.00381,-0.00702,-0.01328,-0.01877,-0.02045,-0.05585,-0.03433,-0.01755,0.08789,-0.0441
6.4705,0.05783,0.04318,-0.07126,-0.01892,0.01709,-0.05188,-0.00595,-0.00366,-0.01328,-0.01984,-0.02136,-0.04639,-0.03372,-0.01663,0.08636,-0.04318
6.471,0.06302,0.05783,-0.06973,-0.01755,0.00641,-0.0531,-0.00946,-0.00763,-0.01343,-0.01923,-0.02182,-0.04639,-0.03372,-0.01663,0.05142,-0.04257
6.4715,0.06653,0.06516,-0.06973,-0.03189,-0.01389,-0.05264,-0.01053,-0.01328,-0.01251,-0.01831,-0.02121,-0.07065,-0.03387,-0.0174,0.00778,-0.04318
6.472,0.07355,0.06531,-0.06393,-0.05447,-0.03204,-0.04974,-0.00961,-0.01709,-0.01511,-0.01801,-0.02029,-0.11093,-0.03525,-0.01755,-0.02151,-0.04257
6.4725,0.08209,0.05997,-0.0618,-0.07019,-0.04776,-0.04776,-0.00732,-0.01755,-0.01724,-0.01862,-0.0209,-0.13733,-0.03616,-0.01831,-0.02899,-0.04288
6.473,0.08377,0.05112,-0.0737,-0.07126,-0.06821,-0.04684,-0.00717,-0.01755,-0.01785,-0.01892,-0.02243,-0.13306,-0.03723,-0.01801,-0.02243,-0.04257
6.4735,0.07675,0.04089,-0.09583,-0.06073,-0.09552,-0.04562,-0.01038,-0.01678,-0.01968,-0.01877,-0.02365,-0.1181,-0.03784,-0.0177,-0.0119,-0.04135
6.474,0.06638,0.02991,-0.10315,-0.04623,-0.11108,-0.04303,-0.01389,-0.01755,-0.01938,-0.01846,-0.02258,-0.10422,-0.03586,-0.01862,-0.00351,-0.03906
6.4745,0.05981,0.02243,-0.08026,-0.03174,-0.10269,-0.04028,-0.01572,-0.01801,-0.02121,-0.01892,-0.02121,-0.07233,-0.03418,-0.01846,0.00015,-0.03815
6.475,0.05783,0.01801,-0.03906,-0.01801,-0.08163,-0.04227,-0.01572,-0.01526,-0.02151,-0.02029,-0.02182,-0.0148,-0.03387,-0.01923,0.00076,-0.03723
6.4755,0.05676,0.01053,-0.00153,-0.00244,-0.06744,-0.04593,-0.01495,-0.00977,-0.02167,-0.02075,-0.02335,0.02777,-0.0351,-0.01877,0.00519,-0.0354
6.476,0.05539,-0.00443,0.0206,0.01144,-0.06653,-0.05005,-0.01404,-0.00214,-0.02213,-0.0206,-0.02335,0.01877,-0.03677,-0.01953,0.03067,-0.03464
6.4765,0.05737,-0.02319,0.03082,0.01923,-0.07126,-0.05203,-0.01221,0.00259,-0.02213,-0.0206,-0.02228,-0.00626,-0.03738,-0.02121,0.07492,-0.03387
6.477,0.06241,-0.04471,0.03677,0.02502,-0.06714,-0.05035,-0.01129,0.00366,-0.02136,-0.01953,-0.02029,0.02396,-0.03632,-0.02213,0.09644,-0.03265
6.4775,0.06363,-0.06851,0.04044,0.04456,-0.05676,-0.04715,-0.01129,0.00504,-0.02029,-0.0206,-0.01846,0.09903,-0.03647,-0.02151,0.0618,-0.03387
6.478,0.05432,-0.08926,0.03784,0.08209,-0.0473,-0.04669,-0.01129,0.00839,-0.02029,-0.02182,-0.01846,0.1387,-0.03647,-0.01953,0.0029,-0.03586
6.4785,0.03281,-0.09552,0.02502,0.11871,-0.04105,-0.04807,-0.01099,0.01129,-0.02167,-0.02228,-0.0209,0.12787,-0.03616,-0.02029,-0.02853,-0.03708
6.479,0.01022,-0.08728,0.00671,0.12543,-0.03265,-0.05264,-0.009,0.01205,-0.02075,-0.02167,-0.02228,0.13611,-0.0351,-0.02136,-0.01907,-0.03601
6.4795,-0.00534,-0.07111,-0.00931,0.09888,-0.0235,-0.0528,-0.00641,0.01099,-0.01923,-0.01953,-0.0206,0.17929,-0.03403,-0.02182,0.00488,-0.03403
6.48,-0.01526,-0.05539,-0.01923,0.06088,-0.01709,-0.04898,-0.00488,0.01175,-0.01968,-0.01801,-0.01724,0.18188,-0.03296,-0.01923,0.0206,-0.03311
6.4805,-0.02563,-0.04242,-0.02243,0.01251,-0.01465,-0.047,-0.00565,0.01221,-0.01953,-0.01831,-0.01572,0.10513,-0.03189,-0.01709,0.0267,-0.03448
6.481,-0.03952,-0.03357,-0.02304,-0.07416,-0.01114,-0.04517,-0.00824,0.01068,-0.01892,-0.01755,-0.01724,0.01602,-0.03113,-0.01724,0.02487,-0.03601
6.4815,-0.05493,-0.02884,-0.02197,-0.20737,-0.0058,-0.04333,-0.01099,0.00732,-0.01846,-0.01801,-0.02029,-0.01144,-0.03082,-0.01892,0.01495,-0.03754
6.482,-0.0676,-0.02686,-0.02365,-0.32837,0.00031,-0.04135,-0.01282,0.00488,-0.01831,-0.01724,-0.02106,0.00961,-0.03143,-0.0206,0.00168,-0.03845
6.4825,-0.07858,-0.0264,-0.03143,-0.36682,0.0058,-0.03967,-0.01236,0.00519,-0.01953,-0.01694,-0.02045,0.02563,-0.03281,-0.02106,-0.00717,-0.03784
6.483,-0.08636,-0.02441,-0.04471,-0.31357,0.00748,-0.04105,-0.01175,0.00748,-0.01984,-0.0174,-0.01968,0.02136,-0.03403,-0.01984,-0.00977,-0.03754
6.4835,-0.08591,-0.02029,-0.06042,-0.20798,0.0061,-0.03891,-0.01205,0.01007,-0.01968,-0.01831,-0.01968,0.0174,-0.03448,-0.01785,-0.00946,-0.03754
6.484,-0.0766,-0.0145,-0.07217,-0.07507,0.00778,-0.0386,-0.01312,0.01083,-0.01907,-0.01846,-0.01923,0.01709,-0.03357,-0.01724,-0.01144,-0.03799
6.4845,-0.06256,-0.01053,-0.07568,0.06378,0.01617,-0.03693,-0.01404,0.00885,-0.01755,-0.01862,-0.01846,0.00992,-0.03296,-0.0177,-0.0145,-0.0383
6.485,-0.05203,-0.0119,-0.07614,0.17105,0.02518,-0.03616,-0.01434,0.00534,-0.01709,-0.01938,-0.01907,-0.00397,-0.03204,-0.01846,-0.01419,-0.03891
6.4855,-0.04822,-0.02136,-0.08026,0.21454,0.02304,-0.0383,-0.01419,0.00153,-0.01801,-0.01923,-0.02075,-0.01312,-0.03143,-0.01892,-0.00992,-0.03876
6.486,-0.04517,-0.03494,-0.08987,0.19867,0.00488,-0.04105,-0.01465,0.00153,-0.01801,-0.01892,-0.02121,-0.01144,-0.03113,-0.01877,-0.00504,-0.03799
6.4865,-0.03815,-0.04684,-0.09964,0.15106,-0.02365,-0.04425,-0.0148,0.00427,-0.01816,-0.01862,-0.0209,-0.00427,-0.03082,-0.01953,-0.00153,-0.03693
6.487,-0.03067,-0.05585,-0.10071,0.09491,-0.04456,-0.04639,-0.0145,0.01129,-0.01907,-0.01755,-0.01999,0.00259,-0.03128,-0.0206,-0.00183,-0.03616
6.4875,-0.02762,-0.06195,-0.09186,0.05203,-0.05447,-0.04501,-0.01373,0.02625,-0.01724,-0.01755,-0.02106,0.00763,-0.03204,-0.0209,-0.00183,-0.0351
6.488,-0.02823,-0.06683,-0.07797,0.0325,-0.0679,-0.04471,-0.01282,0.05051,-0.0174,-0.01862,-0.02197,0.01236,-0.03265,-0.02014,-0.00107,-0.03418
6.4885,-0.0267,-0.07065,-0.06409,0.03494,-0.08957,-0.0499,-0.01282,0.07339,-0.01678,-0.01953,-0.02197,0.01617,-0.03265,-0.0206,-0.00046,-0.03479
6.489,-0.02228,-0.07538,-0.05249,0.04593,-0.09796,-0.05478,-0.01419,0.07736,-0.01587,-0.01892,-0.02213,0.0174,-0.03387,-0.02106,-0.00336,-0.0354
6.4895,-0.01678,-0.08896,-0.03952,0.04959,-0.07935,-0.05692,-0.01572,0.05951,-0.01709,-0.0177,-0.0209,0.01648,-0.0351,-0.02182,-0.00595,-0.03555
6.49,-0.0148,-0.11353,-0.02808,0.04196,-0.04974,-0.05493,-0.01648,0.03159,-0.01785,-0.01648,-0.01831,0.01434,-0.03464,-0.02167,-0.00702,-0.0351
6.4905,-0.01678,-0.13763,-0.02396,0.02457,-0.03326,-0.05615,-0.01572,0.00641,-0.0177,-0.01602,-0.0177,0.01129,-0.03357,-0.01923,-0.00458,-0.03494
6.491,-0.02182,-0.14343,-0.02533,0.00793,-0.03342,-0.05447,-0.01419,-0.01328,-0.01831,-0.01663,-0.01785,0.00931,-0.03326,-0.01724,0.00244,-0.03433
6.4915,-0.02838,-0.13519,-0.02762,-0.00183,-0.0351,-0.05463,-0.01328,-0.02808,-0.01831,-0.01724,-0.01831,0.00854,-0.03418,-0.01617,0.01205,-0.0325
6.492,-0.03677,-0.12573,-0.02609,-0.0029,-0.03159,-0.05554,-0.0145,-0.03418,-0.01892,-0.01678,-0.01938,0.00885,-0.03586,-0.01602,0.01984,-0.03159
6.4925,-0.04364,-0.112,-0.02533,-0.00122,-0.02472,-0.05386,-0.01511,-0.03693,-0.01953,-0.01694,-0.01984,0.00275,-0.03616,-0.01617,0.01953,-0.03036
6.493,-0.04547,-0.07736,-0.03586,-0.00137,-0.02136,-0.05051,-0.01556,-0.04471,-0.01816,-0.01724,-0.01877,-0.01709,-0.03448,-0.01709,0.01236,-0.03098
6.4935,-0.04028,-0.02411,-0.05829,-0.00595,-0.02045,-0.04974,-0.01617,-0.05768,-0.01846,-0.0174,-0.01801,-0.04852,-0.03281,-0.01709,0.00656,-0.03372
6.494,-0.03052,0.02289,-0.0827,-0.01038,-0.01923,-0.04944,-0.0174,-0.06409,-0.01724,-0.01846,-0.01831,-0.07645,-0.03204,-0.0177,0.00412,-0.03799
6.4945,-0.02121,0.04883,-0.09445,-0.01328,-0.0174,-0.05005,-0.01678,-0.05325,-0.01801,-0.01831,-0.02014,-0.0824,-0.0325,-0.0177,-0.00641,-0.03983
6.495,-0.01343,0.05966,-0.08911,-0.01495,-0.01572,-0.0473,-0.01419,-0.02533,-0.0177,-0.01846,-0.02029,-0.06317,-0.03235,-0.01831,-0.03937,-0.03815
6.4955,-0.00992,0.06088,-0.07294,-0.01846,-0.0145,-0.04547,-0.01083,0.00824,-0.01801,-0.01877,-0.0177,-0.02869,-0.03143,-0.01846,-0.08484,-0.03464
6.496,-0.01099,0.0528,-0.05173,-0.02151,-0.01526,-0.04395,-0.009,0.03372,-0.01801,-0.01984,-0.01572,0.01129,-0.03113,-0.01816,-0.09827,-0.03082
6.4965,-0.01511,0.03204,-0.03006,-0.02121,-0.0148,-0.04288,-0.00946,0.04044,-0.01755,-0.01877,-0.01678,0.04242,-0.03159,-0.01862,-0.05692,-0.03036
6.497,-0.01877,0.00641,-0.01266,-0.01968,-0.01221,-0.04242,-0.01175,0.02579,-0.0177,-0.0177,-0.01892,0.05692,-0.03128,-0.01877,0.00305,-0.02914
6.4975,-0.02151,-0.01999,-0.00214,-0.01709,-0.01007,-0.04379,-0.01556,0.00366,-0.01755,-0.01678,-0.02014,0.05478,-0.03143,-0.01923,0.02869,-0.0267
6.498,-0.02396,-0.04684,0.00488,-0.01648,-0.0119,-0.04532,-0.02014,-0.01434,-0.01755,-0.01602,-0.01907,0.04745,-0.03113,-0.01923,0.0148,-0.02182
6.4985,-0.02625,-0.0708,0.01022,-0.01816,-0.01953,-0.04639,-0.02502,-0.01907,-0.01785,-0.01755,-0.01724,0.04486,-0.03296,-0.01831,-0.00137,-0.01556
6.499,-0.02808,-0.08133,0.01282,-0.02167,-0.03113,-0.04532,-0.02975,-0.01068,-0.01846,-0.01816,-0.01694,0.05096,-0.0325,-0.01694,-0.00214,-0.00992
6.4995,-0.0322,-0.07248,0.01129,-0.0235,-0.04593,-0.04654,-0.03418,0.00259,-0.01877,-0.01785,-0.0177,0.06302,-0.03113,-0.01556,0.00305,-0.00687
6.5,-0.04089,-0.05676,0.00885,-0.01953,-0.06485,-0.04532,-0.03723,0.01205,-0.01892,-0.01678,-0.01862,0.06195,-0.03021,-0.01556,0.00366,-0.00717
6.5005,-0.0528,-0.04974,0.00504,-0.01266,-0.0795,-0.04608,-0.03799,0.01816,-0.01846,-0.01541,-0.01846,0.03647,-0.03235,-0.01663,0.00366,-0.01266
6.501,-0.06149,-0.05203,0.00061,-0.00793,-0.07858,-0.04654,-0.03616,0.0235,-0.01801,-0.01556,-0.01648,-0.00275,-0.03448,-0.0177,0.00732,-0.02426
6.5015,-0.05981,-0.0499,-0.00443,-0.00885,-0.0589,-0.04913,-0.03281,0.01144,-0.01831,-0.01678,-0.01434,-0.0296,-0.03525,-0.01694,0.00992,-0.04333
6.502,-0.04852,-0.04028,-0.00992,-0.01495,-0.03464,-0.05005,-0.0296,-0.03586,-0.01923,-0.01755,-0.01236,-0.02884,-0.03418,-0.01816,0.00946,-0.06744
6.5025,-0.03464,-0.0354,-0.01465,-0.01877,-0.02014,-0.05096,-0.02899,-0.11261,-0.01907,-0.0174,-0.01114,-0.01175,-0.03342,-0.01953,0.00626,-0.08438
6.503,-0.02609,-0.04242,-0.02197,-0.01709,-0.01648,-0.0502,-0.02747,-0.18372,-0.01816,-0.01678,-0.01175,0.00275,-0.0325,-0.02045,0.00519,-0.08408
6.5035,-0.02731,-0.05341,-0.0322,-0.01236,-0.01526,-0.04837,-0.01862,-0.21194,-0.01892,-0.01694,-0.0148,0.00595,-0.0322,-0.02045,0.00488,-0.07233
