time,RectFemL,VastusMedL,VastusLatL,TibAntL,HamMedL,HamLatL,GastroMedL,GastroLatL,RectFemR,VastusMedR,VastusLatR,TibAntR,HamMedR,HamLatR,GastroMedR,GastroLatR
9.25,0.03296,-0.02304,-0.04501,-0.11978,-0.03555,-0.0119,-0.02426,0.02899,-0.04227,-0.1329,-0.02777,-0.00488,-0.03998,-0.03204,0.04944,0.01862
9.2505,0.03128,-0.02457,-0.06516,-0.11414,-0.047,-0.01755,-0.02716,0.01862,-0.03128,-0.13138,-0.03174,-0.01038,-0.03922,-0.03235,0.01282,0.01892
9.251,0.03204,-0.02747,-0.08163,-0.09872,-0.05554,-0.0267,-0.02625,0.02228,-0.02594,-0.12848,-0.03754,-0.01282,-0.0386,-0.0322,-0.00427,0.01801
9.2515,0.03372,-0.03021,-0.0914,-0.09979,-0.04501,-0.03586,-0.02731,0.04715,-0.02609,-0.11887,-0.03845,-0.01648,-0.03815,-0.03021,-0.00961,0.01785
9.252,0.0322,-0.03281,-0.09567,-0.14847,-0.02762,-0.04013,-0.02838,0.0679,-0.02701,-0.09796,-0.03448,-0.02167,-0.03723,-0.02731,-0.01541,0.0238
9.2525,0.02823,-0.03464,-0.08682,-0.22873,-0.0235,-0.04456,-0.0296,0.04883,-0.02426,-0.06027,-0.02747,-0.02304,-0.03586,-0.02625,-0.03189,0.03647
9.253,0.02518,-0.03571,-0.06226,-0.26627,-0.0264,-0.04745,-0.02838,0.0,-0.01862,-0.00732,-0.0238,-0.01801,-0.03433,-0.02563,-0.05768,0.05096
9.2535,0.02243,-0.03723,-0.03128,-0.20889,-0.00885,-0.04868,-0.02487,-0.03799,-0.01495,0.05066,-0.02609,-0.0119,-0.0322,-0.02136,-0.07492,0.05951
9.254,0.01968,-0.04059,-0.01144,-0.08469,0.03265,-0.04639,-0.02197,-0.05096,-0.01602,0.09415,-0.02853,-0.01343,-0.02914,-0.01297,-0.07141,0.05219
9.2545,0.02045,-0.04593,-0.01083,0.03967,0.06729,-0.04654,-0.02182,-0.05661,-0.01724,0.10498,-0.02441,-0.0177,-0.02625,-0.00473,-0.04028,0.01434
9.255,0.02304,-0.04974,-0.02121,0.13443,0.06668,-0.05035,-0.02319,-0.0647,-0.01678,0.09094,-0.01373,-0.01511,-0.02747,-0.00031,0.00626,-0.06149
9.2555,0.02563,-0.05142,-0.02777,0.20782,0.03876,-0.05905,-0.02533,-0.06714,-0.0148,0.07339,-0.00443,-0.00626,-0.03204,-0.00107,0.03433,-0.15778
9.256,0.02594,-0.05127,-0.02869,0.25879,0.0029,-0.06531,-0.03433,-0.05966,-0.01282,0.0676,-0.00153,0.00015,-0.03571,-0.00366,0.01312,-0.24094
9.2565,0.02594,-0.05096,-0.03098,0.26505,-0.03143,-0.06653,-0.05203,-0.05356,-0.01282,0.06348,-0.00397,-0.00168,-0.03555,-0.00443,-0.04318,-0.29678
9.257,0.02762,-0.05035,-0.03937,0.21286,-0.06027,-0.06027,-0.06943,-0.05356,-0.01419,0.05386,-0.00793,-0.01083,-0.03159,-0.0058,-0.08911,-0.34348
9.2575,0.02945,-0.04807,-0.04974,0.1236,-0.07767,-0.05234,-0.0679,-0.04822,-0.01816,0.04303,-0.01297,-0.01923,-0.02823,-0.00839,-0.09933,-0.39169
9.258,0.0325,-0.04654,-0.05936,0.04013,-0.07675,-0.04669,-0.04364,-0.0293,-0.02167,0.04044,-0.01755,-0.0238,-0.02792,-0.00946,-0.08484,-0.41107
9.2585,0.03525,-0.04852,-0.06393,-0.00946,-0.06332,-0.04364,-0.01877,-0.00519,-0.02289,0.04898,-0.02029,-0.02487,-0.03021,-0.01114,-0.06927,-0.35141
9.259,0.03754,-0.05676,-0.06241,-0.02625,-0.03906,-0.04059,-0.01465,0.00458,-0.02136,0.05371,-0.01663,-0.02258,-0.03143,-0.01328,-0.06454,-0.20248
9.2595,0.03784,-0.06775,-0.05783,-0.01831,-0.00748,-0.03662,-0.02762,-0.0029,-0.01785,0.04364,-0.01175,-0.01404,-0.02914,-0.01495,-0.05981,-0.02319
9.26,0.03708,-0.07751,-0.05341,0.00595,0.03296,-0.0351,-0.03708,-0.01526,-0.0148,0.02182,-0.00961,0.00046,-0.02563,-0.01389,-0.03815,0.09888
9.2605,0.03555,-0.08362,-0.04883,0.03235,0.07477,-0.03372,-0.0325,-0.0174,-0.01266,-0.00229,-0.01236,0.01602,-0.02441,-0.01114,0.0116,0.11765
9.261,0.03357,-0.09064,-0.03708,0.03784,0.09857,-0.03067,-0.02136,-0.00809,-0.01205,-0.01953,-0.01816,0.0235,-0.0267,-0.01144,0.07401,0.06836
9.2615,0.03265,-0.10193,-0.00122,0.02426,0.08835,-0.02594,-0.0177,0.00595,-0.01007,-0.02762,-0.02167,0.01968,-0.02991,-0.01434,0.10803,0.02579
9.262,0.03311,-0.10849,0.06104,0.03372,0.04974,-0.02121,-0.02319,0.02319,-0.00854,-0.02075,-0.02106,0.00916,-0.03204,-0.01709,0.09186,0.01587
9.2625,0.03326,-0.10071,0.11215,0.09995,0.00244,-0.01984,-0.0325,0.04333,-0.00717,-0.00122,-0.01709,-0.00046,-0.03326,-0.01556,0.056,0.01266
9.263,0.03204,-0.08224,0.10193,0.17853,-0.02853,-0.01785,-0.03662,0.06729,-0.00656,0.0238,-0.0145,-0.00504,-0.03448,-0.01236,0.03723,-0.00778
9.2635,0.03082,-0.06317,0.03204,0.18356,-0.03372,-0.0145,-0.03586,0.09018,-0.00702,0.03754,-0.01465,-0.00458,-0.03708,-0.01114,0.03174,-0.04654
9.264,0.03036,-0.0444,-0.04608,0.09827,-0.01724,-0.01297,-0.03281,0.10071,-0.00717,0.03922,-0.01648,-0.00137,-0.04089,-0.0148,0.01785,-0.08881
9.2645,0.03189,-0.02625,-0.09552,-0.00732,0.00687,-0.01343,-0.03265,0.08865,-0.0061,0.03326,-0.01785,0.00412,-0.04456,-0.02075,-0.00244,-0.09827
9.265,0.03464,-0.00992,-0.11856,-0.07919,0.02228,-0.01648,-0.03571,0.0528,-0.00595,0.02502,-0.01999,0.01129,-0.04517,-0.02457,-0.01831,-0.03113
9.2655,0.03601,0.0,-0.12741,-0.1358,0.02197,-0.01633,-0.03983,0.00656,-0.00687,0.01083,-0.02533,0.0174,-0.04196,-0.02502,-0.03479,0.11581
9.266,0.03464,0.00229,-0.12299,-0.19791,0.00916,-0.01328,-0.04471,-0.03357,-0.00748,-0.00763,-0.03372,0.02106,-0.03876,-0.02228,-0.06638,0.27481
9.2665,0.0322,-0.00183,-0.10101,-0.23087,-0.0061,-0.01343,-0.04669,-0.06073,-0.00702,-0.02625,-0.03876,0.02045,-0.0354,-0.01968,-0.1059,0.36118
9.267,0.02823,-0.00961,-0.07339,-0.18707,-0.01678,-0.02029,-0.04349,-0.07797,-0.00519,-0.03616,-0.03876,0.01648,-0.03296,-0.01892,-0.13077,0.35172
9.2675,0.02396,-0.01602,-0.05569,-0.07401,-0.02686,-0.03006,-0.03403,-0.08606,-0.0032,-0.03983,-0.03937,0.01373,-0.0325,-0.01938,-0.12482,0.28824
9.268,0.02045,-0.01556,-0.05157,0.06378,-0.05386,-0.04013,-0.02274,-0.08163,-0.00214,-0.04166,-0.05005,0.01419,-0.03189,-0.01968,-0.08392,0.21866
9.2685,0.01892,-0.00946,-0.05112,0.18066,-0.11505,-0.05173,-0.01511,-0.06561,-0.00244,-0.04272,-0.07324,0.01617,-0.03143,-0.02045,-0.02182,0.15884
9.269,0.01755,-0.00595,-0.04944,0.24506,-0.20615,-0.06424,-0.01495,-0.04486,-0.00412,-0.04318,-0.10208,0.01648,-0.0325,-0.02136,0.02884,0.09735
9.2695,0.01724,-0.0087,-0.0444,0.24658,-0.28595,-0.08011,-0.01831,-0.02991,-0.00656,-0.04379,-0.11993,0.01434,-0.03296,-0.02228,0.03845,0.01663
9.27,0.01617,-0.01633,-0.03357,0.20477,-0.31616,-0.09369,-0.01877,-0.02502,-0.00992,-0.04593,-0.11215,0.00824,-0.03281,-0.02151,0.01022,-0.08224
9.2705,0.0148,-0.0235,-0.0174,0.15274,-0.29404,-0.10345,-0.01755,-0.02594,-0.01328,-0.04898,-0.08072,0.00076,-0.03235,-0.01999,-0.0119,-0.16449
9.271,0.01389,-0.02869,-0.0058,0.10147,-0.24399,-0.11261,-0.01434,-0.02197,-0.01434,-0.05035,-0.03723,-0.00381,-0.03159,-0.01816,0.02274,-0.18906
9.2715,0.01511,-0.03296,-0.00595,0.04074,-0.18021,-0.11688,-0.01328,-0.01297,-0.01038,-0.05005,0.00458,-0.0032,-0.03159,-0.01572,0.11887,-0.1593
9.272,0.01709,-0.03555,-0.01419,-0.03799,-0.11093,-0.11124,-0.01251,-0.00244,-0.00519,-0.05081,0.04089,-0.00061,-0.03281,-0.0145,0.2121,-0.11948
9.2725,0.01999,-0.03571,-0.02136,-0.12115,-0.05142,-0.09338,-0.01053,0.00839,-0.00214,-0.05661,0.07217,-0.00183,-0.03693,-0.01465,0.22934,-0.09613
9.273,0.0238,-0.03464,-0.0238,-0.17883,-0.01678,-0.07492,-0.00488,0.02197,-0.00412,-0.0705,0.09674,-0.00336,-0.04318,-0.01709,0.16953,-0.07599
9.2735,0.02655,-0.03311,-0.02518,-0.19424,-0.00168,-0.07416,-0.00198,0.03784,-0.0061,-0.09155,0.11017,-0.00305,-0.04959,-0.02045,0.09842,-0.04883
9.274,0.02869,-0.03159,-0.02716,-0.1767,0.00961,-0.09369,-0.00366,0.04578,-0.00778,-0.11337,0.11322,-0.00076,-0.05325,-0.02289,0.05951,-0.03311
9.2745,0.02945,-0.02838,-0.03159,-0.16266,0.03159,-0.12024,-0.00839,0.04028,-0.01129,-0.1329,0.11093,0.00427,-0.05142,-0.02396,0.04837,-0.04669
9.275,0.02762,-0.02365,-0.03586,-0.19577,0.06577,-0.13062,-0.01221,0.02563,-0.01816,-0.15045,0.10727,0.01648,-0.04822,-0.0235,0.03983,-0.07996
9.2755,0.02411,-0.01953,-0.03723,-0.28793,0.0975,-0.11337,-0.01266,0.01129,-0.02869,-0.1651,0.103,0.03632,-0.04684,-0.02289,0.02274,-0.11566
9.276,0.0209,-0.01923,-0.03708,-0.38971,0.10956,-0.07782,-0.01068,0.0029,-0.04272,-0.17136,0.09872,0.05554,-0.04776,-0.02243,-0.00443,-0.13626
9.2765,0.02014,-0.02151,-0.03464,-0.42648,0.08133,-0.04593,-0.00977,-0.00534,-0.05692,-0.16235,0.08804,0.06226,-0.04837,-0.02151,-0.0386,-0.12421
9.277,0.0209,-0.02426,-0.03067,-0.37064,0.01007,-0.0325,-0.01297,-0.01389,-0.06577,-0.13519,0.06134,0.05554,-0.04639,-0.02182,-0.06332,-0.07294
9.2775,0.0206,-0.02747,-0.02625,-0.27542,-0.08286,-0.03891,-0.01907,-0.01678,-0.06454,-0.09033,0.01892,0.04395,-0.04501,-0.02411,-0.07217,-0.01236
9.278,0.01663,-0.03403,-0.01968,-0.22125,-0.14648,-0.06058,-0.02304,-0.0116,-0.05585,-0.02777,-0.02533,0.03113,-0.04532,-0.02747,-0.07278,0.00534
9.2785,0.01114,-0.04578,-0.01175,-0.24017,-0.14267,-0.08652,-0.02731,-0.00519,-0.04364,0.04333,-0.05676,0.00992,-0.04517,-0.03021,-0.08102,-0.03708
9.279,0.00519,-0.05814,-0.0058,-0.28778,-0.08789,-0.10071,-0.03479,-0.00305,-0.02991,0.10071,-0.07401,-0.02502,-0.04318,-0.03021,-0.0946,-0.09476
9.2795,-0.00061,-0.06805,-0.00443,-0.29327,-0.04044,-0.09018,-0.04166,-0.00458,-0.01572,0.11322,-0.0798,-0.06348,-0.03922,-0.02533,-0.10513,-0.11978
9.28,-0.0058,-0.07187,-0.00732,-0.22156,-0.04395,-0.05951,-0.04059,-0.00671,-0.00412,0.06317,-0.07599,-0.09216,-0.03632,-0.01953,-0.11047,-0.11475
9.2805,-0.00916,-0.07355,-0.01175,-0.09781,-0.09201,-0.0296,-0.03113,-0.00656,0.00092,-0.01923,-0.06683,-0.10529,-0.0351,-0.01526,-0.12238,-0.10605
9.281,-0.01144,-0.07339,-0.01312,0.03769,-0.1413,-0.01495,-0.0238,-0.00443,-0.00122,-0.07645,-0.05814,-0.09888,-0.03601,-0.01312,-0.14404,-0.09186
9.2815,-0.01312,-0.07172,-0.01083,0.16129,-0.15381,-0.0116,-0.02045,-0.00275,-0.00702,-0.07538,-0.05524,-0.0737,-0.03693,-0.01389,-0.15793,-0.03067
9.282,-0.01511,-0.06836,-0.00778,0.2623,-0.1207,-0.00534,-0.01175,-0.00275,-0.01434,-0.02838,-0.05447,-0.04074,-0.03937,-0.01694,-0.14175,0.0946
9.2825,-0.01709,-0.06271,-0.00748,0.32303,-0.06454,0.00793,0.00671,-0.00336,-0.02167,0.03082,-0.05661,-0.01419,-0.04227,-0.0209,-0.07095,0.22919
9.283,-0.01831,-0.05356,-0.00885,0.3212,-0.02411,0.01953,0.02197,-0.00504,-0.02731,0.08499,-0.06775,0.00168,-0.0444,-0.02258,0.06119,0.28183
9.2835,-0.01816,-0.04501,-0.01266,0.25696,-0.01526,0.0148,0.01648,-0.00687,-0.02975,0.12558,-0.08301,0.0116,-0.04349,-0.02167,0.23224,0.21713
9.284,-0.01801,-0.03906,-0.02014,0.16769,-0.01694,-0.02029,-0.00748,-0.00809,-0.02731,0.14191,-0.08209,0.01434,-0.03738,-0.01816,0.38132,0.07416
9.2845,-0.01877,-0.03845,-0.02945,0.10284,-0.00366,-0.08957,-0.02792,-0.00793,-0.02426,0.12115,-0.05264,0.009,-0.02655,-0.01419,0.43045,-0.09293
9.285,-0.01999,-0.03967,-0.03708,0.09064,0.02274,-0.16388,-0.03098,-0.00488,-0.02243,0.07339,-0.01465,-0.00137,-0.01602,-0.0119,0.34897,-0.23621
9.2855,-0.01892,-0.03876,-0.0415,0.12878,0.03159,-0.19562,-0.02121,-0.00046,-0.02258,0.02731,0.00473,-0.00351,-0.01083,-0.00916,0.20401,-0.31433
9.286,-0.0145,-0.03525,-0.04318,0.19165,0.00443,-0.16296,-0.01083,0.00229,-0.02289,0.00412,0.00214,0.00687,-0.00946,-0.00671,0.08972,-0.31128
9.2865,-0.00992,-0.0354,-0.04517,0.24231,-0.03922,-0.09445,0.00107,0.00153,-0.02228,0.00076,-0.00397,0.02075,-0.01068,-0.00519,0.01511,-0.25894
9.287,-0.009,-0.04593,-0.047,0.25513,-0.05798,-0.04349,0.01358,-0.00137,-0.02014,0.00595,-0.00092,0.0267,-0.01373,-0.00549,-0.06149,-0.19531
9.2875,-0.01083,-0.06348,-0.04639,0.23422,-0.02701,-0.02396,0.02563,-0.00488,-0.01495,0.01572,0.01007,0.0238,-0.01816,-0.00885,-0.11032,-0.11673
9.288,-0.01251,-0.07492,-0.03967,0.18448,0.03494,-0.01022,0.03067,-0.009,-0.00702,0.03189,0.01709,0.02014,-0.02228,-0.01038,-0.06882,-0.01572
9.2885,-0.0119,-0.06897,-0.02792,0.10483,0.08087,0.01892,0.02274,-0.01083,-0.00046,0.04318,0.02182,0.01953,-0.02441,-0.0119,0.02747,0.04868
9.289,-0.01266,-0.05295,-0.01724,0.00549,0.08545,0.04486,0.00137,-0.01099,0.00198,0.03937,0.02579,0.02197,-0.02625,-0.01389,0.06653,-0.00015
9.2895,-0.0148,-0.0386,-0.01541,-0.08286,0.06897,0.02869,-0.02289,-0.0087,0.00107,0.01968,0.03006,0.02426,-0.02716,-0.01694,0.01755,-0.15213
9.29,-0.01572,-0.03143,-0.02243,-0.14481,0.05615,-0.03281,-0.03479,-0.00717,0.00092,-0.00244,0.02808,0.02472,-0.02838,-0.02029,-0.0563,-0.30045
9.2905,-0.01434,-0.02609,-0.03235,-0.18707,0.04791,-0.09354,-0.02808,-0.00656,0.00046,-0.01587,0.01785,0.02213,-0.03098,-0.02335,-0.12085,-0.35629
9.291,-0.01389,-0.02045,-0.03845,-0.21515,0.03906,-0.10391,-0.01282,-0.00656,0.00015,-0.02182,0.00275,0.01923,-0.0351,-0.0267,-0.17746,-0.31937
9.2915,-0.0174,-0.01617,-0.03326,-0.21561,0.03876,-0.0647,-0.00229,-0.00473,-0.00153,-0.02777,-0.01053,0.01816,-0.04044,-0.02792,-0.19257,-0.24872
9.292,-0.02136,-0.01816,-0.01251,-0.16251,0.04852,-0.01282,0.00122,-0.00244,-0.00305,-0.03372,-0.02182,0.01938,-0.04227,-0.02731,-0.13397,-0.18707
9.2925,-0.02304,-0.02716,0.01755,-0.02777,0.04333,0.01816,0.00214,-0.00076,-0.00488,-0.03815,-0.02884,0.02029,-0.03998,-0.02548,-0.03296,-0.13275
9.293,-0.02213,-0.03693,0.03357,0.17365,-0.00229,0.02533,0.00381,0.00137,-0.00687,-0.04044,-0.02884,0.01938,-0.03647,-0.02426,0.05707,-0.05905
9.2935,-0.02197,-0.04486,0.01404,0.35095,-0.06439,0.02411,0.0032,0.00336,-0.00839,-0.04196,-0.02411,0.02014,-0.03433,-0.02304,0.11353,0.03189
9.294,-0.02563,-0.04959,-0.02716,0.40466,-0.08286,0.0264,-0.00366,0.00412,-0.00916,-0.04395,-0.02213,0.01801,-0.03281,-0.02121,0.12772,0.09186
9.2945,-0.02991,-0.05127,-0.06516,0.32333,-0.03677,0.03052,-0.01465,0.00198,-0.00824,-0.04532,-0.02243,0.00778,-0.03052,-0.02014,0.10208,0.07935
9.295,-0.0325,-0.05035,-0.0885,0.17303,0.02274,0.02731,-0.02777,-0.00214,-0.00443,-0.04639,-0.02502,-0.00977,-0.02579,-0.01892,0.05783,0.01862
9.2955,-0.03326,-0.04913,-0.10269,0.02441,0.04456,0.00366,-0.03876,-0.00717,-0.00015,-0.04761,-0.02533,-0.02213,-0.02075,-0.0174,0.02853,-0.03189
9.296,-0.03387,-0.04944,-0.11078,-0.09781,0.0267,-0.03723,-0.04456,-0.0087,0.00259,-0.04898,-0.02441,-0.02106,-0.01938,-0.01587,0.02457,-0.04456
9.2965,-0.03281,-0.05753,-0.10635,-0.19379,-0.00931,-0.08102,-0.04242,-0.00687,0.00458,-0.04944,-0.02335,-0.01205,-0.02197,-0.01678,0.02686,-0.03372
9.297,-0.0293,-0.07431,-0.0946,-0.26352,-0.06683,-0.10254,-0.03174,-0.00305,0.00443,-0.05096,-0.02411,-0.00504,-0.02747,-0.01816,0.02167,-0.02762
9.2975,-0.02502,-0.09155,-0.08392,-0.29358,-0.13901,-0.08911,-0.01495,0.0,0.00351,-0.0499,-0.02808,-0.0032,-0.03159,-0.01923,0.0235,-0.04456
9.298,-0.0238,-0.09384,-0.07629,-0.27893,-0.18234,-0.05508,0.00412,0.00229,0.00336,-0.04929,-0.03265,-0.00214,-0.03571,-0.0206,0.04364,-0.09201
9.2985,-0.02594,-0.07935,-0.06912,-0.24216,-0.16464,-0.03479,0.01648,0.00183,0.00214,-0.0499,-0.03571,-0.00107,-0.04013,-0.02213,0.06241,-0.15488
9.299,-0.03052,-0.06271,-0.05081,-0.22812,-0.10666,-0.04745,0.01907,-0.00015,-0.00198,-0.05478,-0.03708,0.00031,-0.04425,-0.02319,0.05707,-0.1799
9.2995,-0.03281,-0.05066,-0.01846,-0.26093,-0.06378,-0.0882,0.01556,-0.00214,-0.009,-0.065,-0.03754,0.00183,-0.04715,-0.02487,0.03265,-0.12283
9.3,-0.03632,-0.03723,0.01923,-0.29861,-0.0531,-0.14709,0.01266,-0.0029,-0.01862,-0.08041,-0.03632,0.00015,-0.04868,-0.02655,0.00946,-0.0177
9.3005,-0.03784,-0.01831,0.04822,-0.25314,-0.05157,-0.19958,0.01297,-0.00473,-0.02731,-0.10101,-0.0325,-0.00946,-0.04822,-0.02579,-0.00031,0.04715
9.301,-0.03708,-0.00229,0.05814,-0.08133,-0.04196,-0.20844,0.01114,-0.00641,-0.03448,-0.12482,-0.0293,-0.02762,-0.0499,-0.02396,0.00046,0.04562
9.3015,-0.03342,0.00366,0.0499,0.12344,-0.0293,-0.15991,0.00687,-0.00702,-0.04013,-0.14114,-0.02762,-0.04257,-0.05249,-0.02304,0.00732,0.04593
9.302,-0.03021,0.00244,0.03082,0.20111,-0.02594,-0.08728,0.00366,-0.00687,-0.04425,-0.14084,-0.02762,-0.04517,-0.0531,-0.02304,0.01083,0.0975
9.3025,-0.02777,0.00305,0.00443,0.1091,-0.03555,-0.03632,0.00031,-0.00732,-0.04257,-0.12466,-0.02533,-0.03754,-0.05081,-0.02274,0.00961,0.14374
9.303,-0.02487,0.00565,-0.03052,-0.04028,-0.04822,-0.0206,-0.00381,-0.00885,-0.03357,-0.10239,-0.02136,-0.02731,-0.04639,-0.02213,0.00641,0.10818
9.3035,-0.02228,0.00473,-0.07309,-0.12573,-0.05005,-0.01572,-0.01144,-0.00916,-0.01999,-0.08255,-0.0174,-0.01984,-0.04135,-0.02228,0.00641,0.00916
9.304,-0.02228,-0.00214,-0.11459,-0.13367,-0.03235,-0.00275,-0.01938,-0.0087,-0.00443,-0.06332,-0.01389,-0.01694,-0.03693,-0.02136,0.00259,-0.06744
9.3045,-0.02533,-0.01373,-0.14618,-0.12222,-0.00443,0.01282,-0.0293,-0.00671,0.00854,-0.03891,-0.00839,-0.01907,-0.03326,-0.01923,-0.01144,-0.07278
9.305,-0.02914,-0.03021,-0.16068,-0.13901,0.01312,0.01572,-0.04089,-0.00458,0.01511,-0.00687,-0.00259,-0.02182,-0.03601,-0.01862,-0.03815,-0.03967
9.3055,-0.03052,-0.05112,-0.15884,-0.1683,0.01099,0.0061,-0.04166,-0.00366,0.01221,0.0267,-0.00244,-0.01968,-0.0441,-0.02197,-0.06989,-0.01816
9.306,-0.02808,-0.07156,-0.14496,-0.11414,0.00031,-0.00275,-0.01846,-0.00336,0.00153,0.0531,-0.00778,-0.00687,-0.04929,-0.02655,-0.0946,-0.01663
9.3065,-0.02243,-0.08728,-0.12527,0.11353,-0.00763,0.00137,0.01816,-0.00427,-0.01205,0.06607,-0.01236,0.01419,-0.04639,-0.02594,-0.11047,-0.01602
9.307,-0.01785,-0.09689,-0.10559,0.43152,-0.01038,0.01389,0.03784,-0.00488,-0.02579,0.06363,-0.01129,0.03784,-0.0386,-0.01907,-0.1239,-0.01236
9.3075,-0.01694,-0.09872,-0.0853,0.59036,-0.01068,0.02472,0.02365,-0.0032,-0.04013,0.04669,-0.00473,0.05905,-0.03296,-0.00793,-0.13016,-0.02441
9.308,-0.01801,-0.09018,-0.05814,0.43442,-0.00549,0.02701,-0.00244,-0.00015,-0.05829,0.01572,0.00412,0.06897,-0.03235,0.00122,-0.10513,-0.06271
9.3085,-0.01862,-0.07339,-0.02472,0.0824,-0.00031,0.01923,-0.01312,0.00076,-0.07843,-0.01907,0.01709,0.0647,-0.03448,0.0029,-0.04547,-0.1149
9.309,-0.01755,-0.05402,0.00153,-0.20584,-0.00122,-0.00565,-0.009,0.00046,-0.09308,-0.03952,0.03098,0.04944,-0.03693,-0.00381,0.01709,-0.14938
9.3095,-0.01694,-0.03616,0.00946,-0.29068,-0.00931,-0.0502,-0.00595,0.00046,-0.09628,-0.02365,0.04089,0.03098,-0.03708,-0.01205,0.06149,-0.14297
9.31,-0.01755,-0.02289,-0.00153,-0.22095,-0.0174,-0.10208,-0.00977,0.00397,-0.09064,0.03067,0.03906,0.01617,-0.03342,-0.01587,0.09964,-0.1004
9.3105,-0.01816,-0.01465,-0.01785,-0.10834,-0.02045,-0.14359,-0.01373,0.0061,-0.08194,0.0972,0.02579,0.00839,-0.02686,-0.01633,0.13245,-0.05829
9.311,-0.01877,-0.0116,-0.03036,-0.00778,-0.01862,-0.1651,-0.0148,0.00778,-0.07156,0.13992,0.01205,0.00504,-0.01999,-0.01572,0.13016,-0.05966
9.3115,-0.01984,-0.01114,-0.03632,0.08484,-0.01968,-0.16006,-0.01389,0.00778,-0.05554,0.14145,0.00168,0.00351,-0.01404,-0.01511,0.08362,-0.10468
9.312,-0.02151,-0.01099,-0.03265,0.1857,-0.02106,-0.12253,-0.01495,0.01022,-0.03098,0.11154,-0.00671,0.00473,-0.01221,-0.01312,0.02319,-0.13855
9.3125,-0.0235,-0.01175,-0.00443,0.28732,-0.02167,-0.06241,-0.01541,0.01251,-0.00488,0.06821,-0.01511,0.00763,-0.01602,-0.01129,-0.01343,-0.08881
9.313,-0.02533,-0.01282,0.04883,0.35263,-0.01434,-0.01785,-0.01389,0.01495,0.01572,0.03235,-0.02304,0.00854,-0.02167,-0.01099,-0.01648,0.056
9.3135,-0.02777,-0.01556,0.09033,0.336,0.00839,-0.01633,-0.01205,0.01801,0.0267,0.00839,-0.02991,0.00549,-0.02426,-0.01099,-0.00168,0.21149
9.314,-0.02975,-0.01801,0.07339,0.23163,0.05508,-0.04852,-0.01358,0.02228,0.03082,-0.00351,-0.03891,0.00214,-0.02365,-0.01038,0.00229,0.26703
9.3145,-0.02853,-0.01968,0.00473,0.10574,0.11688,-0.07782,-0.0177,0.02319,0.0325,-0.00854,-0.05859,-0.00092,-0.0235,-0.01053,-0.00946,0.19714
9.315,-0.02625,-0.02213,-0.06592,0.03937,0.16388,-0.08835,-0.0209,0.02167,0.0322,-0.01114,-0.09598,-0.00351,-0.02396,-0.01083,-0.01602,0.08224
9.3155,-0.0238,-0.02426,-0.10178,0.05402,0.17197,-0.09338,-0.02304,0.0174,0.03052,-0.00931,-0.1442,-0.00427,-0.02472,-0.01205,-0.00137,0.01205
9.316,-0.02243,-0.02655,-0.10681,0.10101,0.13962,-0.09506,-0.02609,0.01389,0.0267,-0.00824,-0.17105,-0.0029,-0.02441,-0.01465,0.01999,-0.00122
9.3165,-0.02029,-0.0296,-0.09857,0.11887,0.0795,-0.07339,-0.03372,0.01297,0.02121,-0.0116,-0.14893,-0.00137,-0.02502,-0.01678,0.02594,-0.00214
9.317,-0.01694,-0.03479,-0.08347,0.07675,0.01389,-0.02716,-0.04089,0.01251,0.01282,-0.02213,-0.08896,-0.00305,-0.02914,-0.0177,0.01434,-0.02396
9.3175,-0.01389,-0.03998,-0.06149,-0.01556,-0.03723,0.02014,-0.04272,0.01282,0.00122,-0.03448,-0.03006,-0.00702,-0.03479,-0.01923,0.00076,-0.05875
9.318,-0.01358,-0.04318,-0.03952,-0.11459,-0.06058,0.03937,-0.04242,0.01419,-0.00824,-0.04395,0.00641,-0.00977,-0.0383,-0.0209,-0.00717,-0.08636
9.3185,-0.01404,-0.04501,-0.02747,-0.16769,-0.0679,0.03006,-0.04242,0.01541,-0.01404,-0.04898,0.02625,-0.00977,-0.03983,-0.02472,-0.01556,-0.09598
9.319,-0.01434,-0.04715,-0.02762,-0.15167,-0.08331,0.01266,-0.04456,0.01724,-0.01816,-0.0502,0.03952,-0.00961,-0.03998,-0.02777,-0.02731,-0.08682
9.3195,-0.01526,-0.04822,-0.03036,-0.08163,-0.11551,-0.00046,-0.04669,0.02014,-0.0206,-0.04791,0.04944,-0.01068,-0.03952,-0.02792,-0.03555,-0.06622
9.32,-0.01846,-0.05295,-0.02808,0.0145,-0.14038,-0.00977,-0.04639,0.02365,-0.02167,-0.04532,0.05798,-0.01358,-0.03525,-0.02594,-0.03571,-0.04211
9.3205,-0.02274,-0.06073,-0.01907,0.12741,-0.12283,-0.01282,-0.03632,0.02426,-0.02243,-0.04532,0.06531,-0.01663,-0.02747,-0.02228,-0.03128,-0.02457
9.321,-0.02365,-0.06973,-0.00793,0.26215,-0.06927,-0.01648,-0.01495,0.02106,-0.0209,-0.04974,0.06714,-0.01846,-0.01968,-0.02151,-0.02548,-0.02502
9.3215,-0.02121,-0.07477,-0.00015,0.40039,-0.02655,-0.0322,0.01053,0.01495,-0.01526,-0.06256,0.05508,-0.01678,-0.0145,-0.02121,-0.02304,-0.05112
9.322,-0.01999,-0.07584,0.00076,0.48096,-0.03387,-0.05875,0.02426,0.00916,-0.00778,-0.08011,0.02838,-0.01282,-0.01236,-0.02197,-0.01526,-0.08957
9.3225,-0.02106,-0.07416,-0.00244,0.43365,-0.0795,-0.07675,0.01709,0.00534,-0.00122,-0.08987,-0.00122,-0.00641,-0.01114,-0.02365,0.00565,-0.10986
9.323,-0.02243,-0.06989,-0.00671,0.23026,-0.1329,-0.06439,-0.00015,0.00336,0.00031,-0.08209,-0.01785,-0.00015,-0.0116,-0.02502,0.04181,-0.09232
9.3235,-0.02243,-0.06104,-0.00977,-0.08362,-0.17593,-0.02609,-0.01144,0.00015,-0.00229,-0.06271,-0.01831,0.00107,-0.01282,-0.02548,0.0795,-0.05386
9.324,-0.02121,-0.04745,-0.01419,-0.41962,-0.19867,0.00473,-0.01511,-0.0032,-0.009,-0.04639,-0.00931,-0.00198,-0.01541,-0.02472,0.09567,-0.02365
9.3245,-0.01923,-0.03387,-0.02335,-0.68054,-0.18707,0.009,-0.01495,-0.00778,-0.01755,-0.04211,-0.00198,-0.0061,-0.02213,-0.0235,0.07339,-0.00168
9.325,-0.01801,-0.02365,-0.03357,-0.79285,-0.13885,-0.00381,-0.01465,-0.01221,-0.02686,-0.0444,-0.00702,-0.00671,-0.0322,-0.02472,0.02533,0.01968
9.3255,-0.01923,-0.01709,-0.03967,-0.75165,-0.08896,-0.01511,-0.01434,-0.01724,-0.03571,-0.0441,-0.02762,-0.00641,-0.04364,-0.02792,-0.01404,0.03311
9.326,-0.02548,-0.01724,-0.03952,-0.62592,-0.06516,-0.03021,-0.01663,-0.02167,-0.04257,-0.04349,-0.04913,-0.00931,-0.05493,-0.0322,-0.02747,0.04272
9.3265,-0.03174,-0.02411,-0.03464,-0.50323,-0.05737,-0.06027,-0.02045,-0.02533,-0.04791,-0.04349,-0.05341,-0.01282,-0.06485,-0.0351,-0.0235,0.08316
9.327,-0.03159,-0.03296,-0.03067,-0.43427,-0.03906,-0.10208,-0.02716,-0.02945,-0.05295,-0.04456,-0.03555,-0.0119,-0.06989,-0.03372,-0.02106,0.16251
9.3275,-0.02472,-0.03784,-0.0293,-0.38895,-0.00076,-0.13763,-0.03143,-0.03296,-0.06073,-0.04669,-0.00763,-0.00595,-0.06821,-0.03006,-0.02594,0.20035
9.328,-0.01648,-0.0386,-0.03128,-0.25452,0.0473,-0.14359,-0.03433,-0.03387,-0.06729,-0.04639,0.01678,-0.00137,-0.05875,-0.02823,-0.03311,0.11337
9.3285,-0.01343,-0.04105,-0.03342,0.04303,0.08087,-0.11688,-0.03342,-0.03189,-0.06424,-0.0412,0.03113,0.00092,-0.04547,-0.02625,-0.03723,-0.07538
9.329,-0.01465,-0.04669,-0.03387,0.35965,0.08499,-0.07996,-0.03143,-0.03036,-0.047,-0.03098,0.03708,-0.00015,-0.03387,-0.02365,-0.03159,-0.2475
9.3295,-0.01602,-0.05295,-0.03143,0.44434,0.06073,-0.05646,-0.03021,-0.03128,-0.02121,-0.01923,0.03815,-0.00366,-0.02609,-0.01984,0.00122,-0.32135
9.33,-0.01556,-0.05615,-0.02655,0.25436,0.02792,-0.0499,-0.03143,-0.03418,0.0,-0.0087,0.03372,-0.00854,-0.02106,-0.01663,0.05707,-0.30457
9.3305,-0.01511,-0.05569,-0.02289,0.01541,0.00519,-0.05112,-0.0322,-0.03784,0.01068,0.00061,0.02136,-0.01282,-0.01877,-0.01709,0.0975,-0.2475
9.331,-0.01617,-0.06042,-0.02243,-0.07126,-0.00504,-0.05676,-0.03036,-0.03967,0.01511,0.01297,0.00595,-0.01251,-0.0174,-0.01907,0.08255,-0.17441
9.3315,-0.01862,-0.07538,-0.02533,-0.02548,-0.01709,-0.06577,-0.02701,-0.03906,0.01999,0.03067,-0.00793,-0.01022,-0.01785,-0.01984,0.02518,-0.07492
9.332,-0.02106,-0.09216,-0.02747,0.03448,-0.04028,-0.06775,-0.02686,-0.03708,0.02441,0.05249,-0.0296,-0.00839,-0.01892,-0.01663,-0.02762,0.04745
9.3325,-0.02502,-0.09613,-0.02914,0.04745,-0.08636,-0.05585,-0.03372,-0.03159,0.02365,0.06683,-0.07065,-0.00549,-0.02045,-0.01236,-0.04532,0.13657
9.333,-0.02777,-0.08606,-0.0264,0.02243,-0.1413,-0.03937,-0.04303,-0.0235,0.01846,0.06683,-0.11978,0.00458,-0.02243,-0.01068,-0.03311,0.13199
9.3335,-0.02777,-0.07706,-0.01862,-0.01907,-0.16632,-0.03738,-0.04639,-0.01373,0.0119,0.05173,-0.14008,0.01953,-0.02808,-0.01312,-0.01251,0.04349
9.334,-0.02701,-0.0766,-0.0058,-0.06393,-0.13428,-0.056,-0.03922,-0.00702,0.00687,0.03174,-0.11444,0.02747,-0.03723,-0.01877,0.01389,-0.05142
9.3345,-0.02655,-0.07599,0.01328,-0.10773,-0.07751,-0.08499,-0.02655,-0.00732,0.0032,0.01495,-0.06134,0.02014,-0.04456,-0.02411,0.04364,-0.09674
9.335,-0.02716,-0.05646,0.03326,-0.15228,-0.05234,-0.10788,-0.01541,-0.01541,-0.00076,-0.00092,-0.01801,0.00214,-0.04654,-0.02716,0.05768,-0.09796
9.3355,-0.02731,-0.02151,0.04639,-0.16388,-0.07599,-0.10941,-0.00702,-0.02853,-0.00549,-0.01572,0.00107,-0.01495,-0.04593,-0.02869,0.03021,-0.08606
9.336,-0.02625,0.01266,0.04486,-0.07935,-0.11475,-0.0853,-0.00107,-0.03799,-0.01022,-0.02411,0.00641,-0.02213,-0.047,-0.02853,-0.02731,-0.07935
9.3365,-0.02518,0.03403,0.03067,0.09186,-0.12848,-0.04623,0.00397,-0.03983,-0.01755,-0.0264,0.01358,-0.01892,-0.04944,-0.02747,-0.06912,-0.0798
9.337,-0.02472,0.04425,0.00916,0.21484,-0.10254,-0.00977,0.00549,-0.03754,-0.03159,-0.02701,0.02899,-0.00778,-0.04974,-0.02747,-0.07614,-0.08804
9.3375,-0.02487,0.04623,-0.01404,0.17853,-0.05005,0.00778,-0.00015,-0.03601,-0.04776,-0.03479,0.04456,0.00565,-0.04745,-0.03006,-0.07736,-0.09201
9.338,-0.02701,0.03983,-0.03677,0.04196,0.00366,0.00397,-0.01511,-0.03693,-0.05798,-0.04791,0.05569,0.01282,-0.04578,-0.03357,-0.09857,-0.07874
9.3385,-0.02991,0.02457,-0.05981,-0.04471,0.03922,-0.01221,-0.03464,-0.03601,-0.05951,-0.05829,0.05966,0.0119,-0.04501,-0.03296,-0.11398,-0.04761
9.339,-0.03204,0.00443,-0.08041,-0.03174,0.05096,-0.0238,-0.05173,-0.03204,-0.05554,-0.05951,0.05203,0.00732,-0.04364,-0.0293,-0.06638,-0.01465
9.3395,-0.03296,-0.01511,-0.09735,0.01572,0.04654,-0.02075,-0.06317,-0.02792,-0.04913,-0.05219,0.03281,0.00687,-0.04074,-0.02548,0.07751,0.0029
9.34,-0.03174,-0.0322,-0.10452,0.03067,0.02975,-0.0061,-0.0647,-0.02487,-0.04059,-0.0386,0.01038,0.00992,-0.03723,-0.02441,0.25879,0.00122
9.3405,-0.02869,-0.04608,-0.10223,0.00946,0.00488,0.00778,-0.04578,-0.02625,-0.02975,-0.02029,-0.00687,0.0119,-0.0354,-0.02335,0.34164,-0.01343
9.341,-0.02075,-0.05447,-0.09323,-0.02289,-0.00977,0.01648,-0.00092,-0.02945,-0.01968,-0.00443,-0.01892,0.01053,-0.03281,-0.02029,0.24826,-0.03036
9.3415,-0.00931,-0.05615,-0.08499,-0.0441,-0.00076,0.02182,0.05585,-0.0322,-0.01358,0.00107,-0.03006,0.00778,-0.02884,-0.01801,0.06393,-0.03967
9.342,0.00336,-0.05524,-0.07797,-0.04562,0.02258,0.02045,0.0885,-0.0296,-0.01251,-0.00443,-0.03967,0.00366,-0.02625,-0.0177,-0.06561,-0.04211
9.3425,0.01404,-0.05493,-0.07111,-0.03448,0.03021,0.0029,0.07843,-0.02411,-0.01434,-0.0058,-0.04272,-0.00137,-0.02426,-0.01892,-0.09445,-0.05417
9.343,0.02075,-0.0589,-0.06302,-0.02716,-0.00229,-0.03326,0.03876,-0.02029,-0.01678,0.00961,-0.0386,-0.00549,-0.02197,-0.02014,-0.07736,-0.08926
9.3435,0.02243,-0.06897,-0.05142,-0.02228,-0.05951,-0.07904,0.00198,-0.01907,-0.0174,0.03159,-0.03067,-0.00595,-0.0206,-0.02045,-0.05798,-0.13107
9.344,0.01999,-0.07919,-0.03586,-0.00366,-0.09995,-0.10971,-0.01495,-0.0177,-0.01511,0.04089,-0.02258,-0.00549,-0.02197,-0.01953,-0.03647,-0.14328
9.3445,0.01465,-0.0798,-0.02197,0.03738,-0.09506,-0.11581,-0.02502,-0.01526,-0.01144,0.03265,-0.01389,-0.00732,-0.02533,-0.01755,-0.00854,-0.1152
9.345,0.00961,-0.06912,-0.01816,0.09186,-0.05753,-0.11307,-0.04456,-0.01297,-0.01144,0.01617,-0.00763,-0.00916,-0.02884,-0.01526,0.02777,-0.07462
9.3455,0.0058,-0.05417,-0.01953,0.14664,-0.03723,-0.11642,-0.06317,-0.01602,-0.01328,0.00443,-0.01068,-0.00366,-0.02991,-0.01419,0.09232,-0.05203
9.346,0.0029,-0.04272,-0.01144,0.18326,-0.07111,-0.12161,-0.05661,-0.02289,-0.01236,-0.00076,-0.02548,0.00381,-0.03052,-0.01434,0.1828,-0.05112
9.3465,0.00061,-0.03387,0.0061,0.17471,-0.14236,-0.11017,-0.02594,-0.02594,-0.00824,-0.00549,-0.04227,0.00168,-0.03113,-0.01556,0.23834,-0.05676
9.347,-0.00061,-0.02472,0.01511,0.12177,-0.18677,-0.08102,-0.0029,-0.0206,-0.00732,-0.00992,-0.04868,-0.00824,-0.03342,-0.01678,0.19943,-0.06454
9.3475,-0.00015,-0.01633,0.00717,0.05981,-0.16556,-0.04959,-0.00214,-0.01007,-0.01068,-0.01236,-0.04333,-0.01694,-0.03845,-0.01923,0.09903,-0.07614
9.348,0.00122,-0.01587,-0.01099,0.01785,-0.10651,-0.03036,-0.0116,-0.00397,-0.0145,-0.01236,-0.03586,-0.01862,-0.04532,-0.02197,0.02335,-0.09415
9.3485,0.0,-0.02686,-0.02869,-0.01343,-0.06332,-0.02121,-0.01678,-0.0032,-0.01266,-0.009,-0.03098,-0.0177,-0.0473,-0.02228,0.00946,-0.10666
9.349,-0.00137,-0.04181,-0.04272,-0.05371,-0.05295,-0.01785,-0.01816,-0.00351,-0.01068,-0.0061,-0.02838,-0.01633,-0.04196,-0.01953,0.02136,-0.10056
9.3495,-0.00168,-0.05249,-0.0563,-0.09537,-0.05692,-0.01663,-0.02258,-0.00046,-0.01038,-0.009,-0.02563,-0.01114,-0.03311,-0.01602,0.01816,-0.07843
9.35,-0.00031,-0.05707,-0.06546,-0.10925,-0.06378,-0.01526,-0.02869,0.0032,-0.01221,-0.02136,-0.02457,-0.00092,-0.02594,-0.01434,0.00229,-0.05722
9.3505,0.0,-0.05951,-0.06317,-0.06454,-0.07217,-0.01572,-0.02869,0.00412,-0.01266,-0.0412,-0.02731,0.00626,-0.02243,-0.01541,-0.009,-0.05142
9.351,-0.00198,-0.06256,-0.04547,0.05035,-0.07462,-0.01877,-0.02518,0.00351,-0.01068,-0.05966,-0.03082,0.00626,-0.02121,-0.01755,-0.01129,-0.05676
9.3515,-0.00519,-0.06516,-0.02136,0.21378,-0.05539,-0.01999,-0.02289,0.00397,-0.00809,-0.06943,-0.03311,0.00122,-0.02213,-0.01953,-0.01373,-0.05829
9.352,-0.00702,-0.065,-0.01175,0.35629,-0.02136,-0.02136,-0.0293,0.00565,-0.00504,-0.07111,-0.03296,-0.00397,-0.02533,-0.02151,-0.01831,-0.05341
9.3525,-0.00793,-0.06348,-0.02457,0.39368,0.00351,-0.02396,-0.04547,0.00641,-0.00275,-0.06668,-0.02914,-0.00549,-0.02884,-0.02365,-0.02197,-0.04517
9.353,-0.00656,-0.06226,-0.03555,0.29663,0.009,-0.02625,-0.06546,0.00504,-0.00305,-0.06012,-0.01953,-0.00443,-0.03036,-0.02426,-0.02411,-0.03922
9.3535,-0.00458,-0.06485,-0.01495,0.11551,0.00717,-0.02182,-0.07187,0.00198,-0.00793,-0.05493,-0.0061,-0.00214,-0.02975,-0.0235,-0.02472,-0.03464
9.354,-0.00214,-0.07294,0.02747,-0.06226,0.01099,-0.01495,-0.05188,-0.00153,-0.01297,-0.05081,0.00336,0.0,-0.02594,-0.02106,-0.02533,-0.02747
9.3545,0.00031,-0.0798,0.04105,-0.1915,0.01648,-0.01236,-0.01373,-0.00046,-0.01663,-0.04791,0.00229,0.00107,-0.02136,-0.01831,-0.02396,-0.02029
9.355,0.0029,-0.07614,-0.00351,-0.28473,0.01633,-0.01907,0.01862,0.0058,-0.01984,-0.04272,-0.00977,0.00137,-0.01724,-0.01541,-0.02304,-0.0174
9.3555,0.00595,-0.06287,-0.0795,-0.37827,0.01556,-0.02975,0.04333,0.01541,-0.02258,-0.0354,-0.0238,0.00137,-0.01633,-0.01434,-0.02182,-0.02365
9.356,0.00763,-0.05127,-0.13947,-0.48508,0.01755,-0.04364,0.06271,0.02243,-0.02213,-0.0238,-0.03265,-0.00076,-0.01968,-0.01495,-0.0209,-0.03464
9.3565,0.00732,-0.0473,-0.16266,-0.55084,0.0209,-0.06287,0.06989,0.02548,-0.01984,-0.0058,-0.03525,-0.00519,-0.02335,-0.01511,-0.02106,-0.04196
9.357,0.00397,-0.04715,-0.15656,-0.42984,0.01907,-0.0853,0.05783,0.02777,-0.02014,0.01648,-0.03387,-0.00931,-0.02441,-0.01419,-0.02243,-0.04257
9.3575,-0.00015,-0.04578,-0.13687,-0.01953,0.01434,-0.09796,0.03006,0.02899,-0.02579,0.03525,-0.03281,-0.01389,-0.0238,-0.01343,-0.02533,-0.03723
9.358,-0.00107,-0.04074,-0.10818,0.49011,0.009,-0.09048,0.00854,0.02716,-0.03403,0.04211,-0.03067,-0.01877,-0.02594,-0.01556,-0.02853,-0.03281
9.3585,0.00153,-0.03067,-0.0795,0.69351,0.0058,-0.06714,0.00534,0.01862,-0.04135,0.04089,-0.02609,-0.01968,-0.03052,-0.01831,-0.02808,-0.03021
9.359,0.00534,-0.01801,-0.05081,0.42465,0.00381,-0.04166,0.01236,0.00443,-0.0441,0.04456,-0.01984,-0.0148,-0.03632,-0.02029,-0.02396,-0.02853
9.3595,0.00748,-0.00687,-0.02502,-0.02335,0.00137,-0.02686,0.01602,-0.00732,-0.04257,0.05066,-0.01572,-0.00854,-0.04074,-0.01984,-0.02045,-0.02731
9.36,0.00824,-0.00244,-0.00061,-0.26474,-0.00275,-0.02197,0.01724,-0.00824,-0.03571,0.0444,-0.0145,-0.00488,-0.0415,-0.02045,-0.0174,-0.02457
9.3605,0.0087,-0.00427,0.01938,-0.25116,-0.00931,-0.01968,0.01938,0.00275,-0.02579,0.01511,-0.01404,-0.00519,-0.03983,-0.02167,-0.01709,-0.02045
9.361,0.00946,-0.00992,0.03006,-0.18738,-0.01678,-0.01556,0.01816,0.02502,-0.01572,-0.01923,-0.01312,-0.00793,-0.03647,-0.02243,-0.0174,-0.01709
9.3615,0.00961,-0.02075,0.03159,-0.20142,-0.02045,-0.01266,0.00122,0.05081,-0.00702,-0.03754,-0.0087,-0.00961,-0.03204,-0.02014,-0.01633,-0.01526
9.362,0.00854,-0.03876,0.02823,-0.24323,-0.01892,-0.01846,-0.01465,0.05798,-0.00214,-0.03906,-0.00198,-0.01144,-0.02777,-0.01648,-0.01526,-0.01633
9.3625,0.00671,-0.05951,0.0238,-0.23392,-0.01709,-0.04166,0.00107,0.03311,-0.00076,-0.03525,0.00351,-0.01266,-0.0267,-0.01556,-0.01495,-0.01801
9.363,0.00656,-0.07248,0.01907,-0.17075,-0.02136,-0.08179,0.04272,-0.00717,-0.00229,-0.03235,0.00748,-0.01373,-0.02945,-0.01892,-0.01343,-0.01709
9.3635,0.00626,-0.07507,0.00656,-0.09872,-0.03128,-0.12466,0.05966,-0.03464,-0.00336,-0.03082,0.01114,-0.01495,-0.03281,-0.02167,-0.01099,-0.01602
9.364,0.00305,-0.07339,-0.02014,-0.05615,-0.03876,-0.14923,0.03143,-0.04089,-0.00229,-0.03006,0.01526,-0.01434,-0.03311,-0.02075,-0.00534,-0.01648
9.3645,-0.00641,-0.07141,-0.05432,-0.04669,-0.03799,-0.14175,-0.00595,-0.03662,-0.00351,-0.02975,0.02075,-0.01221,-0.03052,-0.0174,0.00031,-0.01877
9.365,-0.01907,-0.06622,-0.08011,-0.05051,-0.03113,-0.112,-0.01556,-0.02991,-0.00748,-0.03143,0.02853,-0.01038,-0.03036,-0.01648,0.00381,-0.0235
9.3655,-0.02609,-0.05569,-0.09125,-0.05722,-0.02411,-0.08209,-0.009,-0.0209,-0.01144,-0.04105,0.03357,-0.01312,-0.03494,-0.01984,0.00275,-0.02975
9.366,-0.02197,-0.0444,-0.09399,-0.07217,-0.02228,-0.06027,-0.0116,-0.00839,-0.01297,-0.05814,0.02701,-0.01999,-0.0412,-0.02472,-0.00198,-0.03769
9.3665,-0.0116,-0.03708,-0.08957,-0.08133,-0.0238,-0.03784,-0.02182,0.00366,-0.0119,-0.07507,0.00076,-0.02411,-0.04639,-0.0267,-0.00549,-0.04425
9.367,-0.00198,-0.03494,-0.07645,-0.04776,-0.02243,-0.0119,-0.02197,0.0116,-0.01205,-0.08133,-0.04562,-0.01831,-0.04837,-0.02487,-0.00565,-0.04395
9.3675,0.00351,-0.03418,-0.05905,0.03052,-0.01404,0.00748,-0.01266,0.01633,-0.01236,-0.07568,-0.09781,-0.00702,-0.04913,-0.02243,-0.00275,-0.0415
9.368,0.00793,-0.03006,-0.04364,0.08163,-0.00534,0.01373,-0.00763,0.02106,-0.01251,-0.06699,-0.13,0.00244,-0.0499,-0.02121,-0.00015,-0.04318
9.3685,0.01404,-0.02136,-0.03769,0.04257,-0.00122,0.00656,-0.01678,0.02472,-0.01251,-0.05844,-0.13016,0.00458,-0.05249,-0.02441,0.00046,-0.0499
9.369,0.02167,-0.01266,-0.03632,-0.06256,-0.00336,-0.00824,-0.03357,0.02396,-0.01038,-0.0473,-0.11078,0.00122,-0.05249,-0.02945,0.00076,-0.05508
9.3695,0.02914,-0.00717,-0.03815,-0.14801,-0.01419,-0.02548,-0.047,0.0174,-0.00641,-0.03113,-0.09003,-0.00412,-0.04562,-0.03036,0.00366,-0.05157
9.37,0.03296,-0.00549,-0.04379,-0.15671,-0.0325,-0.03723,-0.0499,0.00977,-0.00137,-0.01389,-0.07019,-0.00824,-0.03403,-0.02563,0.00778,-0.04272
9.3705,0.0322,-0.0061,-0.04883,-0.09842,-0.05035,-0.04242,-0.04623,0.00473,0.00076,-0.00488,-0.04608,-0.00916,-0.02579,-0.02029,0.01129,-0.03632
9.371,0.0293,-0.00839,-0.04913,-0.02045,-0.05447,-0.04242,-0.03967,0.00198,0.00107,-0.0029,-0.0174,-0.00504,-0.02472,-0.01953,0.01251,-0.03342
9.3715,0.02792,-0.0116,-0.04318,0.03601,-0.04486,-0.03723,-0.03342,-0.00214,0.00076,-0.00458,0.0116,0.00015,-0.02777,-0.02228,0.01114,-0.03204
9.372,0.0267,-0.01648,-0.03662,0.05814,-0.03754,-0.02411,-0.02823,-0.00565,0.00015,-0.00427,0.03845,0.00336,-0.03052,-0.02457,0.01129,-0.03128
9.3725,0.0235,-0.02289,-0.03128,0.06271,-0.03754,-0.00366,-0.02441,-0.00137,-0.00153,-0.00412,0.06119,0.00626,-0.0322,-0.02457,0.01068,-0.0322
9.373,0.01938,-0.03189,-0.02533,0.06485,-0.04181,0.01007,-0.02197,0.01175,-0.00351,-0.01236,0.07736,0.009,-0.03555,-0.02335,0.01251,-0.03296
9.3735,0.01648,-0.03952,-0.0206,0.06714,-0.04272,0.01053,-0.02029,0.02426,-0.00519,-0.02823,0.08652,0.01389,-0.04089,-0.0235,0.01221,-0.03342
9.374,0.01358,-0.04349,-0.01999,0.05096,-0.04288,0.00229,-0.02151,0.02365,-0.00961,-0.04578,0.09583,0.01755,-0.04562,-0.02213,0.01083,-0.03387
9.3745,0.01038,-0.04364,-0.02548,-0.00412,-0.0473,-0.00763,-0.02899,0.01129,-0.01663,-0.05341,0.10742,0.01709,-0.04791,-0.01968,0.01038,-0.0351
9.375,0.01007,-0.04257,-0.03113,-0.08926,-0.05493,-0.01434,-0.04044,-0.00092,-0.02563,-0.05051,0.11368,0.01144,-0.04684,-0.01648,0.01114,-0.03586
9.3755,0.01511,-0.04166,-0.03265,-0.15732,-0.06012,-0.02319,-0.04929,-0.00275,-0.03326,-0.0441,0.10223,0.00397,-0.04425,-0.01556,0.01389,-0.03448
9.376,0.02594,-0.04166,-0.03006,-0.15686,-0.06363,-0.03586,-0.0499,0.00397,-0.03967,-0.03464,0.07019,-0.00076,-0.03937,-0.01801,0.01587,-0.0325
9.3765,0.03433,-0.04211,-0.02441,-0.08652,-0.06973,-0.05249,-0.04395,0.00931,-0.04654,-0.01526,0.03204,-0.00336,-0.03586,-0.02228,0.01678,-0.03067
9.377,0.03525,-0.04501,-0.02075,0.01617,-0.08194,-0.0708,-0.03586,0.00916,-0.05066,0.01144,-0.00229,-0.00977,-0.03479,-0.02594,0.01785,-0.02975
9.3775,0.02884,-0.04639,-0.02014,0.12299,-0.09506,-0.09323,-0.03265,0.00992,-0.05112,0.04044,-0.03098,-0.02121,-0.03662,-0.02701,0.01938,-0.0293
9.378,0.02197,-0.04669,-0.01984,0.22507,-0.10208,-0.1181,-0.03342,0.01877,-0.04684,0.06516,-0.05325,-0.03311,-0.03876,-0.0264,0.01968,-0.03082
9.3785,0.01785,-0.04684,-0.01694,0.30563,-0.10315,-0.14236,-0.03372,0.03036,-0.04089,0.08652,-0.06638,-0.03845,-0.03922,-0.02533,0.01862,-0.03296
9.379,0.01617,-0.04944,-0.01205,0.32013,-0.10101,-0.15839,-0.03036,0.03387,-0.03693,0.09949,-0.07172,-0.03815,-0.03769,-0.0238,0.01556,-0.03708
9.3795,0.01495,-0.0589,-0.00748,0.23605,-0.09735,-0.15915,-0.02274,0.01877,-0.03433,0.09048,-0.07141,-0.03357,-0.03586,-0.02136,0.01404,-0.04379
9.38,0.01465,-0.07294,-0.00656,0.07706,-0.08743,-0.1416,-0.01556,-0.01236,-0.02899,0.05859,-0.06943,-0.02914,-0.03647,-0.0206,0.01312,-0.04791
9.3805,0.01526,-0.08759,-0.00793,-0.07172,-0.06775,-0.11322,-0.01373,-0.05066,-0.02075,0.01755,-0.06592,-0.02457,-0.03845,-0.02258,0.0119,-0.04913
9.381,0.0177,-0.09689,-0.0119,-0.13733,-0.04669,-0.08453,-0.01572,-0.08026,-0.01266,-0.00961,-0.06012,-0.0145,-0.0383,-0.02563,0.01236,-0.04776
9.3815,0.01968,-0.09827,-0.01556,-0.11887,-0.03922,-0.06119,-0.01907,-0.08926,-0.00488,-0.01923,-0.05188,0.00061,-0.03448,-0.02625,0.01328,-0.04547
9.382,0.02106,-0.09384,-0.01923,-0.05768,-0.04883,-0.04395,-0.01892,-0.07614,0.00031,-0.02045,-0.04059,0.0174,-0.02853,-0.02365,0.01266,-0.04425
9.3825,0.02274,-0.08713,-0.02075,0.02304,-0.06592,-0.03479,-0.01724,-0.04669,0.00748,-0.0238,-0.03387,0.02792,-0.02426,-0.01907,0.01297,-0.04486
9.383,0.0264,-0.08209,-0.02151,0.10895,-0.07172,-0.0325,-0.01434,-0.00702,0.01923,-0.02609,-0.04379,0.02808,-0.02167,-0.01633,0.01129,-0.04745
9.3835,0.03052,-0.08377,-0.02274,0.17044,-0.06195,-0.03937,-0.01343,0.0383,0.03418,-0.0267,-0.06912,0.02228,-0.02151,-0.01572,0.01175,-0.04898
9.384,0.02792,-0.09171,-0.0238,0.19333,-0.05127,-0.05859,-0.01373,0.07782,0.04837,-0.02411,-0.08545,0.01663,-0.02121,-0.01694,0.01266,-0.04776
9.3845,0.01816,-0.1001,-0.02396,0.20447,-0.05478,-0.08698,-0.01328,0.0972,0.05875,-0.02304,-0.06989,0.01419,-0.0206,-0.01663,0.01419,-0.04608
9.385,0.00565,-0.09949,-0.02335,0.25177,-0.06653,-0.11108,-0.01328,0.08972,0.0679,-0.02213,-0.03296,0.0145,-0.01984,-0.01602,0.01328,-0.04349
9.3855,-0.00183,-0.08286,-0.02167,0.37338,-0.06607,-0.11307,-0.01923,0.06317,0.07187,-0.02365,-0.0032,0.01541,-0.02197,-0.01587,0.0116,-0.04135
9.386,-0.00381,-0.05142,-0.01511,0.52765,-0.04776,-0.09125,-0.03433,0.01938,0.06714,-0.02777,0.00626,0.01495,-0.02853,-0.01633,0.01083,-0.04044
9.3865,-0.00427,-0.01236,0.00015,0.55695,-0.0293,-0.06393,-0.05371,-0.04623,0.05249,-0.03403,0.00351,0.0145,-0.0383,-0.01862,0.00992,-0.04059
9.387,-0.00961,0.02182,0.02579,0.33707,-0.02213,-0.04761,-0.05997,-0.12543,0.03036,-0.03998,0.00275,0.01495,-0.04745,-0.01999,0.01129,-0.03952
9.3875,-0.01953,0.04089,0.0592,-0.03357,-0.01999,-0.04379,-0.0351,-0.17273,0.00473,-0.04364,0.00534,0.01663,-0.05142,-0.01968,0.0119,-0.03845
9.388,-0.03021,0.047,0.09445,-0.30533,-0.01663,-0.04303,0.01083,-0.14923,-0.01953,-0.04745,0.009,0.01877,-0.04807,-0.01633,0.01419,-0.03708
9.3885,-0.03677,0.04913,0.1123,-0.34012,-0.01175,-0.03922,0.03204,-0.05829,-0.04044,-0.05219,0.01251,0.02121,-0.0412,-0.01312,0.01633,-0.03677
9.389,-0.03632,0.05295,0.09949,-0.22644,-0.01053,-0.03448,0.00015,0.05142,-0.05768,-0.05432,0.01892,0.02304,-0.0383,-0.01282,0.01602,-0.03784
9.3895,-0.02869,0.05081,0.06134,-0.15167,-0.01068,-0.03204,-0.0531,0.13351,-0.07217,-0.05142,0.02777,0.02441,-0.04013,-0.01648,0.01389,-0.03845
9.39,-0.01938,0.03082,0.01633,-0.21408,-0.00931,-0.03281,-0.08774,0.17014,-0.08438,-0.04257,0.03418,0.02335,-0.04257,-0.0206,0.01251,-0.03922
9.3905,-0.01297,0.00122,-0.02625,-0.36041,-0.00656,-0.04105,-0.09933,0.17197,-0.09003,-0.02838,0.03693,0.0209,-0.0441,-0.0235,0.01389,-0.03922
9.391,-0.0116,-0.01968,-0.06851,-0.46982,-0.00366,-0.05219,-0.11108,0.15198,-0.08774,-0.01068,0.03357,0.01907,-0.04395,-0.02548,0.01419,-0.03845
9.3915,-0.0148,-0.01999,-0.1088,-0.47516,0.0,-0.0563,-0.12283,0.10605,-0.08072,0.00793,0.02396,0.01846,-0.0444,-0.02548,0.01328,-0.03799
9.392,-0.0206,-0.00854,-0.13779,-0.392,0.00763,-0.04868,-0.10849,0.03372,-0.07614,0.01419,0.01038,0.01648,-0.04379,-0.02518,0.01266,-0.03983
9.3925,-0.02487,-0.00458,-0.15274,-0.25528,0.02426,-0.03815,-0.05707,-0.04486,-0.07614,0.00549,-0.00305,0.0119,-0.0415,-0.02457,0.01205,-0.04074
9.393,-0.02457,-0.0148,-0.1532,-0.07355,0.05859,-0.03082,0.0177,-0.09964,-0.07751,-0.0148,-0.01312,0.00885,-0.03952,-0.02365,0.01205,-0.04166
9.3935,-0.02213,-0.03433,-0.14145,0.13214,0.10468,-0.02106,0.09125,-0.12054,-0.07721,-0.03265,-0.0206,0.00809,-0.03754,-0.02304,0.01282,-0.04181
9.394,-0.02075,-0.05447,-0.11795,0.28992,0.14328,-0.01358,0.13214,-0.1178,-0.07172,-0.04074,-0.02792,0.00793,-0.03464,-0.02106,0.01205,-0.04074
9.3945,-0.02304,-0.06622,-0.09033,0.31891,0.15411,-0.01556,0.11948,-0.10254,-0.05966,-0.03998,-0.03433,0.0061,-0.02975,-0.0177,0.0119,-0.03937
9.395,-0.02823,-0.0647,-0.07462,0.21591,0.13443,-0.03036,0.06882,-0.07492,-0.04242,-0.03906,-0.03616,0.0029,-0.02518,-0.01312,0.01114,-0.03967
9.3955,-0.02975,-0.05463,-0.07996,0.06577,0.10132,-0.04303,0.02075,-0.03494,-0.02716,-0.04181,-0.03036,-0.00092,-0.02197,-0.00961,0.01221,-0.04135
9.396,-0.02243,-0.04364,-0.09125,-0.03647,0.06287,-0.04074,-0.00198,0.00534,-0.01801,-0.04669,-0.02319,-0.00473,-0.02182,-0.00977,0.01144,-0.04242
9.3965,-0.00916,-0.03784,-0.08743,-0.06607,0.0148,-0.03052,-0.00854,0.02426,-0.01495,-0.05051,-0.02518,-0.0087,-0.02487,-0.01282,0.01144,-0.04288
9.397,0.00259,-0.03754,-0.0705,-0.05524,-0.04562,-0.02609,-0.01373,0.01022,-0.01312,-0.04761,-0.03922,-0.01373,-0.02899,-0.01648,0.01083,-0.04288
9.3975,0.00717,-0.0383,-0.05798,-0.04639,-0.10559,-0.02991,-0.01617,-0.0177,-0.00732,-0.03876,-0.05753,-0.01984,-0.03098,-0.01785,0.01129,-0.04425
9.398,0.00519,-0.0383,-0.05524,-0.05295,-0.14908,-0.0325,-0.01343,-0.03235,-0.00031,-0.02548,-0.07309,-0.02396,-0.03174,-0.01648,0.01053,-0.04501
9.3985,0.00153,-0.03647,-0.05402,-0.07874,-0.16571,-0.0325,-0.00854,-0.02869,0.00565,-0.01251,-0.08591,-0.02289,-0.03326,-0.01572,0.00885,-0.04562
9.399,0.00092,-0.02975,-0.04715,-0.12787,-0.16113,-0.03494,-0.00977,-0.02136,0.00702,-0.00366,-0.09811,-0.01816,-0.03448,-0.01495,0.00793,-0.04639
9.3995,0.00122,-0.01755,-0.03647,-0.18585,-0.1474,-0.04196,-0.0206,-0.01831,0.00854,-0.00244,-0.10117,-0.01099,-0.0351,-0.01297,0.009,-0.04639
9.4,-0.00061,-0.00595,-0.02243,-0.20737,-0.13123,-0.04562,-0.03693,-0.01526,0.01144,-0.01053,-0.08194,-0.00565,-0.03311,-0.01175,0.00977,-0.04562
9.4005,-0.00458,-0.00366,-0.00305,-0.15915,-0.11246,-0.0412,-0.04639,-0.009,0.01495,-0.02457,-0.04379,-0.00427,-0.03052,-0.01266,0.00977,-0.0441
9.401,-0.00702,-0.00916,0.01968,-0.0592,-0.07797,-0.03403,-0.03723,-0.00504,0.01465,-0.03433,-0.00412,-0.00626,-0.02899,-0.01511,0.00671,-0.04425
9.4015,-0.00626,-0.01556,0.03754,0.05676,-0.03098,-0.03189,-0.01236,-0.009,0.01175,-0.03265,0.0209,-0.0061,-0.0293,-0.01556,0.00458,-0.04501
9.402,-0.00366,-0.01846,0.03525,0.18143,0.0032,-0.03586,0.00732,-0.01465,0.0061,-0.02045,0.0325,-0.00046,-0.02991,-0.01602,0.00427,-0.04562
9.4025,-0.00244,-0.01892,0.00565,0.31967,0.0087,-0.04257,0.0087,-0.01282,0.00137,-0.00687,0.03586,0.00732,-0.03082,-0.01541,0.00595,-0.04379
9.403,-0.00275,-0.02136,-0.04349,0.43198,-0.00107,-0.04761,-0.00122,-0.0058,-0.00153,0.00687,0.0354,0.01266,-0.03036,-0.01465,0.00732,-0.04105
9.4035,-0.00549,-0.02869,-0.09033,0.44525,-0.00732,-0.04852,-0.01404,-0.00229,-0.00153,0.01755,0.03403,0.01221,-0.03006,-0.01312,0.00916,-0.03983
9.404,-0.00946,-0.03799,-0.11627,0.3299,-0.00275,-0.04364,-0.02396,-0.00381,-0.00168,0.0264,0.03525,0.009,-0.0296,-0.01221,0.00839,-0.04074
9.4045,-0.0148,-0.04639,-0.1181,0.12878,0.00519,-0.03006,-0.02991,-0.00641,-0.00366,0.02899,0.03647,0.00778,-0.02762,-0.0116,0.00641,-0.04166
9.405,-0.01968,-0.05066,-0.10468,-0.09201,0.01862,-0.0116,-0.02792,-0.00595,-0.00656,0.02289,0.02975,0.00778,-0.02457,-0.0119,0.00809,-0.04074
9.4055,-0.02151,-0.05219,-0.08545,-0.27924,0.03922,0.00732,-0.01892,-0.00153,-0.00778,0.01007,0.01923,0.01007,-0.02136,-0.0119,0.009,-0.0386
9.406,-0.01862,-0.05737,-0.06927,-0.39108,0.05554,0.02014,-0.01129,0.00351,-0.00656,-0.00092,0.01114,0.0116,-0.01968,-0.01129,0.00946,-0.03906
9.4065,-0.01373,-0.07004,-0.05859,-0.40466,0.05325,0.02106,-0.00809,0.00702,-0.00305,-0.00473,0.00931,0.00977,-0.02014,-0.0116,0.00916,-0.03998
9.407,-0.01099,-0.08987,-0.05081,-0.32715,0.03342,0.01144,-0.00687,0.00702,0.0,-0.0032,0.01007,0.00504,-0.02075,-0.01099,0.00961,-0.04013
9.4075,-0.01022,-0.10986,-0.04242,-0.17303,0.00992,-0.00153,-0.00656,0.00443,0.00153,-0.00031,0.0087,0.00198,-0.0206,-0.00992,0.00992,-0.03891
9.408,-0.00931,-0.1207,-0.0296,0.00885,-0.00778,-0.01022,-0.00702,0.00153,0.0029,-0.00122,0.0061,0.00122,-0.0206,-0.01007,0.01007,-0.03784
9.4085,-0.00687,-0.11963,-0.0148,0.09003,-0.02121,-0.0145,-0.00717,-0.00107,0.0032,-0.0061,0.00137,0.00031,-0.02228,-0.01114,0.00793,-0.03738
9.409,-0.00397,-0.11475,-0.00671,-0.02808,-0.03815,-0.0206,-0.00885,-0.00443,0.0032,-0.01328,-0.00656,-0.00168,-0.02472,-0.01465,0.00626,-0.03738
9.4095,-0.00473,-0.1152,-0.01083,-0.24612,-0.05371,-0.03708,-0.00961,-0.00504,0.00381,-0.02045,-0.01724,-0.0029,-0.02747,-0.0177,0.00534,-0.03738
9.41,-0.01221,-0.11749,-0.02487,-0.34622,-0.0502,-0.06866,-0.01099,-0.00061,0.00351,-0.02518,-0.0267,-0.00076,-0.02975,-0.01846,0.00565,-0.03784
9.4105,-0.02182,-0.10986,-0.03876,-0.25589,-0.02731,-0.11139,-0.01404,0.00534,0.00229,-0.0296,-0.03159,0.00214,-0.03372,-0.01801,0.00702,-0.0386
9.411,-0.02975,-0.08698,-0.04395,-0.10162,-0.00854,-0.15533,-0.01541,0.00504,0.00031,-0.03052,-0.02884,0.00198,-0.0412,-0.01816,0.00778,-0.03922
9.4115,-0.03403,-0.05585,-0.04166,-0.01663,-0.01282,-0.19043,-0.01495,-0.00671,-0.00046,-0.02823,-0.0238,-0.00015,-0.04776,-0.02014,0.00885,-0.03891
9.412,-0.03647,-0.02777,-0.03952,-0.00671,-0.02747,-0.21164,-0.01389,-0.02335,-0.00061,-0.0238,-0.01923,-0.00229,-0.04883,-0.02045,0.009,-0.0386
9.4125,-0.03754,-0.00397,-0.03632,-0.00488,-0.03235,-0.20981,-0.01526,-0.03479,-0.00183,-0.02106,-0.01801,-0.00107,-0.04364,-0.01968,0.00809,-0.03876
9.413,-0.03769,0.01694,-0.02411,0.03738,-0.01633,-0.18326,-0.01724,-0.0354,-0.00381,-0.02319,-0.01785,0.00122,-0.03784,-0.01816,0.00687,-0.03937
9.4135,-0.03586,0.03204,-0.00153,0.10391,0.01205,-0.13947,-0.01846,-0.02182,-0.00671,-0.02869,-0.01755,0.00351,-0.0351,-0.01648,0.00565,-0.03937
9.414,-0.03281,0.03799,0.02136,0.13443,0.04395,-0.09796,-0.01617,0.00031,-0.01175,-0.03387,-0.01617,0.00473,-0.03647,-0.01511,0.00656,-0.03815
9.4145,-0.03052,0.03143,0.03281,0.10162,0.06561,-0.07202,-0.01205,0.02045,-0.01999,-0.03769,-0.01602,0.00381,-0.03708,-0.01389,0.00626,-0.03723
9.415,-0.03113,0.01831,0.03052,0.04959,0.06363,-0.05997,-0.00824,0.02319,-0.02838,-0.04059,-0.01785,0.00336,-0.03494,-0.01495,0.00626,-0.03967
9.4155,-0.03418,0.00458,0.0238,0.03494,0.0354,-0.05478,-0.01251,0.01038,-0.03113,-0.04425,-0.01923,0.00168,-0.0322,-0.01694,0.00656,-0.04242
9.416,-0.03967,-0.00641,0.01907,0.04822,-0.01251,-0.0499,-0.02869,-0.00183,-0.02914,-0.04852,-0.0177,0.00198,-0.03174,-0.01755,0.00763,-0.0444
9.4165,-0.04227,-0.01953,0.01602,0.02975,-0.065,-0.04166,-0.05646,0.00046,-0.02777,-0.05005,-0.01465,0.00519,-0.03342,-0.01709,0.00702,-0.04288
9.417,-0.03555,-0.03784,0.00549,-0.04349,-0.10452,-0.02655,-0.09155,0.01221,-0.0322,-0.05081,-0.01251,0.00793,-0.03448,-0.01831,0.00702,-0.04074
9.4175,-0.01907,-0.06042,-0.01266,-0.12848,-0.1239,-0.00961,-0.12558,0.01892,-0.03891,-0.05142,-0.01205,0.00916,-0.0351,-0.02182,0.00717,-0.03937
9.418,-0.00153,-0.07813,-0.03204,-0.17883,-0.13489,0.00153,-0.14908,0.0174,-0.04364,-0.05478,-0.01205,0.00656,-0.03738,-0.02487,0.00778,-0.04074
9.4185,0.00763,-0.08499,-0.04639,-0.19867,-0.15427,0.00122,-0.15015,0.01556,-0.04303,-0.0592,-0.01038,0.0029,-0.03998,-0.02487,0.00641,-0.04272
9.419,0.00641,-0.08377,-0.05615,-0.21271,-0.17044,-0.01099,-0.12451,0.01801,-0.03845,-0.06348,-0.0058,0.00137,-0.04044,-0.02197,0.00504,-0.0441
9.4195,-0.00183,-0.08057,-0.06119,-0.21912,-0.14496,-0.0296,-0.06683,0.01801,-0.03204,-0.06592,-0.00015,0.0029,-0.03586,-0.0174,0.00519,-0.04333
9.42,-0.01053,-0.07462,-0.06393,-0.20477,-0.06271,-0.0441,0.02625,0.00702,-0.0235,-0.06668,0.00137,0.00504,-0.03006,-0.01419,0.00687,-0.04272
9.4205,-0.01831,-0.06409,-0.06317,-0.16479,0.0412,-0.04837,0.1416,-0.01404,-0.01602,-0.06668,-0.00107,0.00534,-0.02487,-0.01358,0.00732,-0.04196
9.421,-0.0235,-0.05066,-0.06073,-0.09354,0.11093,-0.047,0.22827,-0.03143,-0.00992,-0.06744,-0.00351,0.00412,-0.02243,-0.01434,0.00732,-0.04211
9.4215,-0.02701,-0.03998,-0.06165,-0.00305,0.12131,-0.05341,0.24124,-0.03708,-0.00641,-0.06531,-0.00534,0.00214,-0.02274,-0.01526,0.00671,-0.04257
9.422,-0.03281,-0.03448,-0.06592,0.05249,0.0914,-0.06927,0.1918,-0.03662,-0.0061,-0.05814,-0.0087,0.00168,-0.02228,-0.01495,0.0061,-0.04272
9.4225,-0.04517,-0.03204,-0.06775,0.03159,0.04898,-0.0827,0.12939,-0.04272,-0.0087,-0.04196,-0.01358,0.0032,-0.02151,-0.01312,0.00565,-0.04333
9.423,-0.06027,-0.02975,-0.06332,-0.04745,0.00687,-0.08301,0.08347,-0.05737,-0.01328,-0.0206,-0.01755,0.00519,-0.02106,-0.01205,0.00473,-0.04257
9.4235,-0.06958,-0.02701,-0.05554,-0.14221,-0.03189,-0.07172,0.05051,-0.0769,-0.0174,0.00198,-0.02182,0.00641,-0.02258,-0.01434,0.00519,-0.04364
9.424,-0.0705,-0.02625,-0.04898,-0.23376,-0.06439,-0.05386,0.02548,-0.09094,-0.02121,0.01938,-0.02579,0.00504,-0.02533,-0.0174,0.00595,-0.04517
9.4245,-0.06561,-0.03265,-0.04562,-0.28549,-0.09247,-0.03647,0.01297,-0.08957,-0.02518,0.02335,-0.02731,0.00137,-0.02686,-0.01938,0.0058,-0.04639
9.425,-0.06104,-0.05005,-0.04227,-0.20203,-0.12177,-0.02258,0.01144,-0.07004,-0.02838,0.01358,-0.02716,-0.00137,-0.02594,-0.01801,0.00412,-0.04745
9.4255,-0.05936,-0.07935,-0.03494,0.10925,-0.15198,-0.01205,0.01053,-0.03632,-0.03006,-0.00565,-0.03174,-0.00168,-0.02228,-0.01312,0.00305,-0.04776
9.426,-0.05966,-0.11429,-0.02396,0.60913,-0.17288,0.00122,0.00687,0.00443,-0.02792,-0.02151,-0.04288,0.00061,-0.01877,-0.009,0.00351,-0.04807
9.4265,-0.05844,-0.14404,-0.01404,1.05072,-0.18234,0.01678,0.00046,0.04501,-0.0235,-0.02884,-0.056,0.00381,-0.01755,-0.00656,0.00351,-0.04837
9.427,-0.05402,-0.1564,-0.00687,1.1145,-0.1796,0.02823,-0.00595,0.07141,-0.02075,-0.0296,-0.06241,0.00397,-0.01724,-0.00824,0.0032,-0.04822
9.4275,-0.04684,-0.14771,-0.00687,0.76355,-0.13962,0.02777,-0.01083,0.07233,-0.02014,-0.03021,-0.06134,0.00351,-0.01663,-0.01068,0.00336,-0.04776
9.428,-0.04166,-0.12115,-0.01328,0.3363,-0.047,0.01877,-0.01297,0.05325,-0.02182,-0.03021,-0.05402,0.00336,-0.01633,-0.01221,0.00443,-0.04715
9.4285,-0.04028,-0.08865,-0.01755,0.1564,0.05798,0.01221,-0.01434,0.02914,-0.02228,-0.0238,-0.04074,0.00183,-0.01663,-0.01144,0.00549,-0.04669
9.429,-0.04242,-0.05768,-0.01938,0.20538,0.10895,0.00595,-0.01663,0.01083,-0.02045,-0.0087,-0.02548,0.00076,-0.01877,-0.00977,0.00549,-0.04623
9.4295,-0.04501,-0.03006,-0.02029,0.27496,0.08347,-0.0148,-0.0206,0.0,-0.01648,0.00763,-0.01297,0.00122,-0.02014,-0.01053,0.00519,-0.04623
9.43,-0.047,-0.00351,-0.02274,0.24475,0.01846,-0.05585,-0.02548,-0.00595,-0.01114,0.01755,-0.00549,0.00351,-0.01953,-0.01297,0.00488,-0.04822
9.4305,-0.04898,0.0209,-0.02869,0.12894,-0.04471,-0.09689,-0.02762,-0.0061,-0.009,0.02487,-0.00107,0.00626,-0.01846,-0.01526,0.00443,-0.04929
9.431,-0.04807,0.03723,-0.03433,-0.00732,-0.09293,-0.10956,-0.02701,-0.00122,-0.00931,0.03769,0.00305,0.00778,-0.01907,-0.01602,0.00473,-0.04761
9.4315,-0.04227,0.04425,-0.04074,-0.10773,-0.12634,-0.0914,-0.02533,0.00504,-0.01038,0.05554,0.00549,0.00824,-0.0206,-0.01495,0.00626,-0.04501
9.432,-0.03128,0.04715,-0.05157,-0.15656,-0.15366,-0.06927,-0.02747,0.00809,-0.01038,0.06897,0.00244,0.00656,-0.02365,-0.01602,0.00778,-0.04272
9.4325,-0.02106,0.05096,-0.06561,-0.18387,-0.16754,-0.06485,-0.03098,0.00687,-0.00946,0.07431,-0.00137,0.00473,-0.02808,-0.01862,0.00671,-0.0412
9.433,-0.01038,0.05325,-0.07645,-0.21561,-0.16037,-0.07278,-0.03525,0.00381,-0.00992,0.07431,-0.00534,0.00366,-0.03433,-0.0206,0.00687,-0.04074
9.4335,0.00473,0.05035,-0.08087,-0.22507,-0.12619,-0.08057,-0.03876,0.0,-0.01236,0.06882,-0.00534,0.00412,-0.03647,-0.02136,0.00763,-0.04074
9.434,0.0235,0.0412,-0.07309,-0.18127,-0.0769,-0.07874,-0.0415,-0.00336,-0.01434,0.05356,-0.00443,0.00626,-0.03403,-0.02121,0.00977,-0.04059
9.4345,0.0412,0.02808,-0.05219,-0.13321,-0.03571,-0.06882,-0.04227,-0.00488,-0.01678,0.02792,-0.00519,0.00809,-0.02914,-0.02182,0.00992,-0.04044
9.435,0.05157,0.01083,-0.02594,-0.17151,-0.01877,-0.05753,-0.03998,-0.00427,-0.01816,0.00336,-0.00656,0.01053,-0.02579,-0.02365,0.00839,-0.04044
9.4355,0.05234,-0.01404,-0.00687,-0.29373,-0.03204,-0.05707,-0.03799,-0.00244,-0.01907,-0.0148,-0.00885,0.01328,-0.0235,-0.02426,0.00717,-0.04089
9.436,0.0441,-0.04547,0.0061,-0.40268,-0.04745,-0.06165,-0.03769,-0.00153,-0.01831,-0.02457,-0.01144,0.01266,-0.02136,-0.02136,0.00595,-0.04074
9.4365,0.03113,-0.07126,0.0206,-0.44312,-0.04349,-0.05386,-0.0386,-0.00122,-0.01724,-0.03036,-0.01373,0.01099,-0.02136,-0.0177,0.00504,-0.04013
9.437,0.01923,-0.07843,0.03647,-0.44144,-0.02487,-0.02975,-0.03769,-0.00122,-0.01663,-0.03464,-0.0148,0.00778,-0.02335,-0.01556,0.00381,-0.03906
9.4375,0.01175,-0.07019,0.0441,-0.41626,-0.01114,-0.00198,-0.03632,-0.00198,-0.01816,-0.03754,-0.01373,0.00595,-0.02655,-0.01801,0.00275,-0.03815
9.438,0.00595,-0.05753,0.03525,-0.35278,-0.01633,0.00732,-0.03448,-0.00214,-0.01892,-0.03906,-0.01266,0.00656,-0.02655,-0.02045,0.00229,-0.03799
9.4385,0.00046,-0.04257,0.01282,-0.25482,-0.02975,-0.00534,-0.03479,-0.00305,-0.01907,-0.03906,-0.0116,0.00946,-0.02441,-0.01999,0.00183,-0.03922
9.439,-0.00504,-0.03235,-0.01724,-0.15503,-0.03525,-0.0293,-0.03342,-0.00122,-0.01923,-0.0383,-0.0116,0.01114,-0.02136,-0.01831,0.00183,-0.04105
9.4395,-0.00504,-0.03082,-0.04593,-0.08148,-0.03815,-0.04929,-0.03113,0.00748,-0.01923,-0.0386,-0.0116,0.01068,-0.02197,-0.01648,0.00412,-0.04059
9.44,0.00076,-0.04059,-0.06241,-0.03479,-0.04776,-0.05661,-0.02716,0.03403,-0.01877,-0.03952,-0.01266,0.00839,-0.02411,-0.01648,0.00763,-0.03906
9.4405,0.00793,-0.05432,-0.05463,0.04532,-0.06165,-0.05112,-0.02243,0.07858,-0.0174,-0.03998,-0.01343,0.00656,-0.02579,-0.01694,0.00809,-0.03799
9.441,0.01175,-0.06042,-0.02899,0.23788,-0.06622,-0.03937,-0.01968,0.1091,-0.01724,-0.03922,-0.01389,0.00702,-0.02426,-0.01694,0.00824,-0.03754
9.4415,0.01205,-0.05493,-0.02197,0.46112,-0.05219,-0.02914,-0.02029,0.08789,-0.0174,-0.03937,-0.01312,0.00732,-0.02243,-0.0177,0.00732,-0.03952
9.442,0.01297,-0.04501,-0.06485,0.44708,-0.0325,-0.03082,-0.02319,0.02167,-0.01785,-0.04135,-0.01282,0.00748,-0.02319,-0.01862,0.00656,-0.04257
9.4425,0.0148,-0.03754,-0.1442,0.08911,-0.0235,-0.04257,-0.02686,-0.05081,-0.0177,-0.04272,-0.01328,0.00748,-0.02655,-0.01953,0.00656,-0.04318
9.443,0.01663,-0.0351,-0.2034,-0.31006,-0.02228,-0.05005,-0.03052,-0.10178,-0.01724,-0.04333,-0.01373,0.00793,-0.02899,-0.02075,0.00595,-0.04242
9.4435,0.01953,-0.0383,-0.19867,-0.38208,-0.02075,-0.0499,-0.03525,-0.12375,-0.01648,-0.04333,-0.01511,0.01053,-0.03006,-0.02228,0.00412,-0.04211
9.444,0.02838,-0.04929,-0.13397,-0.14832,-0.01526,-0.0592,-0.04028,-0.1091,-0.01572,-0.04272,-0.01602,0.01389,-0.03067,-0.02365,0.00412,-0.04288
9.4445,0.04089,-0.06577,-0.05142,0.07919,-0.0087,-0.0824,-0.04227,-0.05707,-0.01663,-0.04272,-0.01465,0.01526,-0.03098,-0.02441,0.00671,-0.04318
9.445,0.04288,-0.07828,0.0058,0.12314,-0.00229,-0.09293,-0.04028,0.00076,-0.01785,-0.04379,-0.01358,0.01556,-0.03235,-0.0235,0.00931,-0.04303
9.4455,0.02975,-0.08408,0.01892,0.0563,0.00854,-0.07202,-0.03235,0.03784,-0.0177,-0.04593,-0.01266,0.01328,-0.03433,-0.02457,0.00961,-0.0415
9.446,0.01236,-0.08774,0.00198,-0.00671,0.03235,-0.0386,-0.02167,0.05844,-0.0174,-0.04639,-0.01236,0.01175,-0.03693,-0.02533,0.00839,-0.04257
9.4465,0.00488,-0.09033,-0.01984,-0.02823,0.07126,-0.01877,-0.01038,0.06561,-0.01816,-0.04593,-0.01266,0.01053,-0.0383,-0.02441,0.00793,-0.04395
9.447,0.01266,-0.0885,-0.03326,-0.01053,0.11932,-0.01907,-0.00015,0.0473,-0.02075,-0.04501,-0.01251,0.01083,-0.03754,-0.02243,0.00916,-0.04486
9.4475,0.02914,-0.07736,-0.03311,0.0264,0.16617,-0.01953,0.00778,-0.00244,-0.02228,-0.04517,-0.01343,0.01328,-0.03494,-0.01923,0.00992,-0.0444
9.448,0.04608,-0.05829,-0.00916,0.02121,0.19653,-0.01282,0.01144,-0.05493,-0.02243,-0.04684,-0.01465,0.0177,-0.03326,-0.01801,0.00946,-0.04425
9.4485,0.05981,-0.0386,0.0351,-0.065,0.19318,-0.00565,0.00595,-0.08347,-0.02335,-0.04684,-0.0148,0.02106,-0.03296,-0.01846,0.009,-0.04501
9.449,0.06577,-0.02518,0.0766,-0.17639,0.1442,-0.0058,-0.00793,-0.08408,-0.02472,-0.04486,-0.01495,0.02151,-0.03296,-0.01846,0.00916,-0.04578
9.4495,0.06409,-0.02045,0.08423,-0.2211,0.05661,-0.01068,-0.02014,-0.07339,-0.02457,-0.03983,-0.01373,0.01938,-0.03189,-0.01709,0.00916,-0.04593
9.45,0.05783,-0.01831,0.04959,-0.18585,-0.04669,-0.0148,-0.02716,-0.05951,-0.02365,-0.03403,-0.0148,0.01953,-0.03098,-0.01541,0.00977,-0.04471
9.4505,0.05371,-0.01266,-0.00656,-0.12741,-0.14389,-0.01694,-0.03418,-0.03967,-0.02319,-0.02975,-0.01907,0.01923,-0.0322,-0.01511,0.00961,-0.0444
9.451,0.05478,-0.00412,-0.05005,-0.07294,-0.21439,-0.01785,-0.03983,-0.01999,-0.02335,-0.02701,-0.02518,0.01617,-0.03479,-0.01633,0.00885,-0.04547
9.4515,0.05646,-0.00122,-0.06485,0.00748,-0.23972,-0.01678,-0.03586,-0.00626,-0.02411,-0.02213,-0.02945,0.01083,-0.03662,-0.01846,0.009,-0.04593
9.452,0.05295,-0.00656,-0.05829,0.13977,-0.2121,-0.01724,-0.01938,0.00244,-0.02197,-0.01633,-0.02869,0.00458,-0.03586,-0.02029,0.00946,-0.04517
9.4525,0.04501,-0.01602,-0.04852,0.2951,-0.14664,-0.0174,-0.0032,0.01007,-0.01862,-0.01282,-0.02396,0.00107,-0.0354,-0.01923,0.00854,-0.0441
9.453,0.03586,-0.02716,-0.04318,0.39398,-0.07614,-0.01099,-0.00046,0.01617,-0.01526,-0.01083,-0.01907,-0.00168,-0.03632,-0.01648,0.00763,-0.04379
9.4535,0.02487,-0.03967,-0.0415,0.3598,-0.03784,-0.00122,-0.00748,0.01602,-0.01526,-0.0087,-0.01709,-0.00946,-0.03693,-0.01495,0.0087,-0.04379
9.454,0.01434,-0.05417,-0.04089,0.20767,-0.03357,0.00198,-0.01266,0.01175,-0.01617,-0.00931,-0.01648,-0.02548,-0.03662,-0.01709,0.00946,-0.04349
9.4545,0.00763,-0.06378,-0.04211,0.06546,-0.04715,-0.01602,-0.01221,0.00793,-0.01785,-0.01236,-0.01678,-0.04044,-0.03525,-0.01923,0.01114,-0.04257
9.455,0.00534,-0.065,-0.04135,0.04578,-0.05859,-0.04913,-0.01221,0.0061,-0.01862,-0.01755,-0.01724,-0.04028,-0.03494,-0.02045,0.0087,-0.04272
9.4555,0.00488,-0.06027,-0.03555,0.12741,-0.06317,-0.07568,-0.01465,0.00504,-0.0177,-0.02319,-0.01724,-0.02258,-0.03662,-0.01968,0.00778,-0.04486
9.456,0.00259,-0.05554,-0.02869,0.20584,-0.06744,-0.08102,-0.01892,0.00259,-0.01572,-0.02792,-0.01617,-0.00565,-0.03754,-0.01968,0.00717,-0.04593
9.4565,-0.00153,-0.05371,-0.02823,0.22018,-0.07523,-0.07019,-0.02228,0.00076,-0.01511,-0.0322,-0.0145,-0.00458,-0.03662,-0.01938,0.00931,-0.04532
9.457,-0.00397,-0.05234,-0.03494,0.18219,-0.08072,-0.05737,-0.02533,-0.00031,-0.01587,-0.03632,-0.01389,-0.01129,-0.03448,-0.01938,0.01114,-0.04257
9.4575,-0.00168,-0.05173,-0.04257,0.12344,-0.07355,-0.05463,-0.02594,-0.00107,-0.01587,-0.03662,-0.01389,-0.01236,-0.03464,-0.01953,0.01053,-0.0415
9.458,0.00504,-0.05173,-0.04501,0.06363,-0.06271,-0.06348,-0.02365,-0.00122,-0.01282,-0.03433,-0.0145,-0.00824,-0.03433,-0.01923,0.00885,-0.04303
9.4585,0.00977,-0.05066,-0.04303,0.02548,-0.05997,-0.07919,-0.02106,-0.00183,-0.01083,-0.03143,-0.01511,-0.00473,-0.03387,-0.01862,0.00839,-0.04425
9.459,0.00671,-0.04776,-0.04257,0.02274,-0.07095,-0.09781,-0.01831,0.0,-0.01205,-0.02777,-0.01617,-0.00198,-0.03525,-0.01801,0.00778,-0.04547
9.4595,-0.00381,-0.04425,-0.04776,0.04959,-0.08118,-0.10941,-0.01266,0.00519,-0.01434,-0.02502,-0.01663,0.00275,-0.03662,-0.01709,0.00763,-0.04501
9.46,-0.01709,-0.04318,-0.05981,0.07172,-0.08026,-0.10452,-0.00412,0.01221,-0.01495,-0.02106,-0.01724,0.00793,-0.03708,-0.01678,0.00717,-0.0441
9.4605,-0.02838,-0.04608,-0.07294,0.05478,-0.07599,-0.08713,0.00031,0.01846,-0.0148,-0.01938,-0.01862,0.01053,-0.03693,-0.01755,0.00671,-0.04272
9.461,-0.03387,-0.0502,-0.0795,-0.00336,-0.07233,-0.07477,-0.0032,0.01968,-0.01541,-0.01694,-0.01923,0.01282,-0.03555,-0.01801,0.00687,-0.04135
9.4615,-0.03433,-0.05203,-0.07553,-0.07675,-0.06912,-0.07797,-0.00885,0.01801,-0.01495,-0.01587,-0.01877,0.00916,-0.03326,-0.01831,0.00839,-0.03967
9.462,-0.03326,-0.0499,-0.06088,-0.13519,-0.06271,-0.09064,-0.00992,0.01404,-0.01434,-0.01358,-0.01709,-0.01633,-0.03326,-0.01785,0.00885,-0.03815
9.4625,-0.0322,-0.04639,-0.04395,-0.1767,-0.05615,-0.09201,-0.00656,0.00778,-0.01236,-0.01328,-0.01587,-0.06943,-0.03494,-0.01724,0.00916,-0.03616
9.463,-0.03296,-0.04456,-0.03036,-0.21393,-0.05081,-0.07278,-0.00412,0.00137,-0.01068,-0.01587,-0.01511,-0.11871,-0.03662,-0.01724,0.00763,-0.03571
9.4635,-0.03769,-0.04501,-0.02335,-0.25894,-0.04807,-0.04227,-0.00336,-0.00854,-0.01007,-0.0177,-0.01556,-0.12192,-0.03769,-0.01816,0.00626,-0.03754
9.464,-0.04425,-0.05051,-0.02258,-0.30777,-0.04562,-0.01953,-0.00473,-0.02213,-0.00992,-0.01923,-0.01572,-0.07446,-0.03784,-0.01846,0.00702,-0.04074
9.4645,-0.05112,-0.06012,-0.02731,-0.3392,-0.04318,-0.01373,-0.01175,-0.03113,-0.01083,-0.01877,-0.0148,-0.01068,-0.03708,-0.01801,0.009,-0.0412
9.465,-0.0563,-0.06805,-0.03647,-0.33646,-0.04028,-0.02274,-0.02457,-0.02823,-0.01053,-0.01923,-0.01404,0.03937,-0.03632,-0.01755,0.01129,-0.03876
9.4655,-0.05997,-0.06546,-0.04761,-0.32364,-0.03906,-0.03922,-0.03891,-0.01572,-0.01007,-0.02045,-0.01526,0.04333,-0.03616,-0.0174,0.01328,-0.03647
9.466,-0.06348,-0.05463,-0.05356,-0.35294,-0.03906,-0.05081,-0.04745,0.00076,-0.01068,-0.02029,-0.01724,-0.03952,-0.03799,-0.0174,0.01312,-0.03662
9.4665,-0.06744,-0.04272,-0.04669,-0.42953,-0.03769,-0.05417,-0.04822,0.01877,-0.01129,-0.02029,-0.01785,-0.2002,-0.04166,-0.01709,0.01465,-0.04044
9.467,-0.07187,-0.0322,-0.03098,-0.49286,-0.03372,-0.05508,-0.04196,0.04074,-0.01205,-0.01907,-0.01572,-0.34576,-0.04562,-0.01862,0.01526,-0.04074
9.4675,-0.07614,-0.02167,-0.02014,-0.50537,-0.02701,-0.06302,-0.03159,0.07065,-0.01297,-0.01831,-0.01297,-0.39047,-0.04745,-0.01953,0.0148,-0.04013
9.468,-0.08163,-0.01129,-0.01511,-0.513,-0.01465,-0.07736,-0.01495,0.10498,-0.01389,-0.01816,-0.01114,-0.32806,-0.04623,-0.01968,0.0148,-0.0383
9.4685,-0.08881,-0.00504,-0.00916,-0.57571,0.00046,-0.09125,0.0116,0.12527,-0.01572,-0.01785,-0.01053,-0.18127,-0.04471,-0.01984,0.01511,-0.0386
9.469,-0.09537,-0.01205,-0.00092,-0.64011,0.01465,-0.10223,0.03326,0.11002,-0.01312,-0.02167,-0.0119,0.04684,-0.04471,-0.02045,0.01465,-0.04074
9.4695,-0.09964,-0.03571,0.00381,-0.52277,0.02533,-0.11368,0.01724,0.05966,-0.00458,-0.02594,-0.01205,0.31876,-0.04471,-0.0206,0.01419,-0.04181
9.47,-0.09872,-0.06744,0.00092,-0.07034,0.03067,-0.11963,-0.04578,-0.00229,0.0061,-0.02975,-0.01266,0.51331,-0.04379,-0.02014,0.01419,-0.04089
9.4705,-0.09567,-0.09094,-0.00824,0.60074,0.0322,-0.11078,-0.10162,-0.05478,0.01068,-0.03052,-0.01541,0.51086,-0.04395,-0.01984,0.01373,-0.03754
9.471,-0.09613,-0.09781,-0.02335,1.10992,0.02777,-0.08194,-0.09323,-0.0885,0.00641,-0.02838,-0.01785,0.32928,-0.04501,-0.02029,0.01251,-0.03693
9.4715,-0.10025,-0.09476,-0.04059,1.15677,0.0235,-0.04395,-0.0444,-0.10803,-0.0029,-0.0235,-0.01907,0.13855,-0.04608,-0.02075,0.01068,-0.03922
9.472,-0.10452,-0.08774,-0.04868,0.81497,0.01816,-0.01648,-0.0206,-0.11719,-0.01175,-0.01968,-0.02014,0.10468,-0.04547,-0.02075,0.01007,-0.04333
9.4725,-0.10864,-0.08026,-0.0383,0.41733,0.00305,-0.01053,-0.0238,-0.11597,-0.01877,-0.0174,-0.02289,0.21576,-0.04501,-0.02014,0.00687,-0.04669
9.473,-0.11444,-0.07278,-0.01755,0.18555,-0.01541,-0.02014,0.00015,-0.10178,-0.02457,-0.01663,-0.02518,0.31067,-0.0441,-0.02045,0.00351,-0.04761
9.4735,-0.121,-0.065,-0.00259,0.1004,-0.01999,-0.02945,0.05188,-0.07492,-0.02686,-0.01709,-0.02274,0.27618,-0.04211,-0.02228,0.00153,-0.04883
9.474,-0.1239,-0.05386,-0.0061,0.05371,-0.00198,-0.03265,0.07492,-0.04425,-0.0267,-0.01572,-0.01724,0.16403,-0.04044,-0.02365,0.00061,-0.05157
9.4745,-0.1178,-0.04044,-0.01831,-0.0032,0.01862,-0.03433,0.04745,-0.02121,-0.02762,-0.01419,-0.01205,0.08453,-0.03967,-0.02365,0.00076,-0.05447
9.475,-0.10223,-0.03159,-0.02686,-0.05417,0.00854,-0.03677,0.00671,-0.00824,-0.03082,-0.01541,-0.00977,0.07034,-0.0415,-0.0238,-0.00137,-0.05615
9.4755,-0.08286,-0.03448,-0.03174,-0.0563,-0.03937,-0.03952,-0.01404,-0.00031,-0.03616,-0.01907,-0.00885,0.07675,-0.04272,-0.02335,-0.00351,-0.05478
9.476,-0.06378,-0.04456,-0.03906,0.04425,-0.09064,-0.03906,-0.02106,0.0061,-0.03967,-0.02411,-0.00763,0.06165,-0.04166,-0.0235,-0.00488,-0.05371
9.4765,-0.04654,-0.04745,-0.04959,0.2562,-0.10513,-0.0351,-0.03082,0.00885,-0.04349,-0.02701,-0.00656,0.01801,-0.03815,-0.02258,-0.00412,-0.0528
9.477,-0.03342,-0.03601,-0.056,0.46707,-0.08682,-0.03174,-0.04395,0.0058,-0.0473,-0.02869,-0.00961,-0.03647,-0.03494,-0.02182,-0.00275,-0.05188
9.4775,-0.02792,-0.0174,-0.05447,0.49576,-0.06943,-0.03036,-0.04883,0.00153,-0.04684,-0.02731,-0.01266,-0.08148,-0.03464,-0.0209,-0.00153,-0.0499
9.478,-0.02991,-0.00015,-0.05035,0.29648,-0.07065,-0.02884,-0.02686,0.00122,-0.04028,-0.02487,-0.01343,-0.10193,-0.03525,-0.0206,-0.00015,-0.04791
9.4785,-0.03571,0.0116,-0.0499,0.04776,-0.05569,-0.02472,0.02502,0.0032,-0.03143,-0.02228,-0.01205,-0.0856,-0.03571,-0.01984,0.00229,-0.04654
9.479,-0.03998,0.0174,-0.05234,-0.04578,-0.0058,-0.01556,0.07599,0.00366,-0.02365,-0.02243,-0.00992,-0.0351,-0.03464,-0.01831,0.00519,-0.04608
9.4795,-0.03891,0.01801,-0.05249,0.0148,0.05157,-0.00763,0.08133,0.00305,-0.01633,-0.02258,-0.009,0.0209,-0.0325,-0.0177,0.00732,-0.04608
9.48,-0.03418,0.01633,-0.04974,0.06851,0.07309,-0.00778,0.04288,0.00351,-0.00824,-0.02365,-0.00946,0.03387,-0.03113,-0.01785,0.00885,-0.04562
9.4805,-0.02655,0.01465,-0.04822,0.02029,0.05615,-0.01968,0.00198,0.00534,-0.00259,-0.0235,-0.01144,-0.01434,-0.03098,-0.0177,0.00824,-0.04486
9.481,-0.01785,0.01266,-0.05051,-0.08865,0.02686,-0.03754,-0.01205,0.00427,-0.00168,-0.02289,-0.01556,-0.08453,-0.03067,-0.01755,0.00748,-0.04395
9.4815,-0.00992,0.00656,-0.05783,-0.17868,0.00061,-0.05066,-0.01053,0.00076,-0.00275,-0.01953,-0.01755,-0.11765,-0.03036,-0.01801,0.00656,-0.04333
9.482,-0.00275,-0.0029,-0.06668,-0.2037,-0.03098,-0.05737,-0.00977,-0.00336,-0.00351,-0.0145,-0.01541,-0.09995,-0.02899,-0.01907,0.00671,-0.04257
9.4825,0.00229,-0.01419,-0.07462,-0.15457,-0.07416,-0.06332,-0.01266,-0.00397,-0.00366,-0.0116,-0.01144,-0.06165,-0.02716,-0.01953,0.00656,-0.04044
9.483,0.00656,-0.02411,-0.07767,-0.07339,-0.10803,-0.06775,-0.01404,-0.00122,-0.00473,-0.01099,-0.009,-0.03006,-0.02441,-0.01984,0.00671,-0.0383
9.4835,0.00946,-0.03143,-0.07217,-0.01785,-0.09735,-0.06851,-0.01694,0.00168,-0.00626,-0.00961,-0.009,-0.0116,-0.02365,-0.01877,0.00778,-0.03738
9.484,0.01251,-0.0354,-0.05966,0.01144,-0.04654,-0.06317,-0.02457,0.00122,-0.00626,-0.00854,-0.01007,-0.00443,-0.02304,-0.01831,0.01053,-0.03769
9.4845,0.01862,-0.0386,-0.04456,0.05798,0.00412,-0.056,-0.03159,0.00015,-0.00504,-0.00778,-0.01038,-0.01343,-0.02197,-0.01892,0.01358,-0.03754
9.485,0.02777,-0.04242,-0.03525,0.11703,0.01831,-0.05325,-0.0325,0.00122,-0.00427,-0.00885,-0.01053,-0.04013,-0.01999,-0.01968,0.01495,-0.03693
9.4855,0.03601,-0.04684,-0.03784,0.13153,0.00473,-0.05249,-0.02731,0.00519,-0.00397,-0.01221,-0.01083,-0.0705,-0.01938,-0.01984,0.01572,-0.03815
9.486,0.04044,-0.05051,-0.04654,0.05859,-0.00671,-0.04959,-0.02228,0.01083,-0.00427,-0.01511,-0.01175,-0.08835,-0.02106,-0.01999,0.01907,-0.04135
9.4865,0.04288,-0.05341,-0.04715,-0.08331,0.0,-0.0412,-0.02411,0.0148,-0.00458,-0.01694,-0.01328,-0.08972,-0.02426,-0.02167,0.0235,-0.0444
9.487,0.05035,-0.05356,-0.0322,-0.21942,0.01694,-0.02518,-0.02777,0.01648,-0.00427,-0.01404,-0.01511,-0.08469,-0.02899,-0.02472,0.02487,-0.04486
9.4875,0.06195,-0.05173,-0.01068,-0.27451,0.02945,-0.00809,-0.02869,0.01617,-0.00412,-0.00885,-0.01465,-0.08148,-0.03372,-0.02686,0.0235,-0.04471
9.488,0.06989,-0.05051,0.00443,-0.24017,0.03357,-0.00153,-0.0264,0.01358,-0.00458,-0.00198,-0.01236,-0.07721,-0.0386,-0.02701,0.02151,-0.04547
9.4885,0.07019,-0.05249,0.01022,-0.17334,0.03326,-0.00793,-0.02121,0.01022,-0.00549,0.00671,-0.00946,-0.06943,-0.04364,-0.02701,0.01617,-0.04623
9.489,0.06775,-0.05478,0.01099,-0.11963,0.0296,-0.02319,-0.01419,0.00626,-0.0061,0.01328,-0.00977,-0.05646,-0.0473,-0.02823,0.00031,-0.04593
9.4895,0.06866,-0.0589,0.00931,-0.07355,0.01846,-0.03555,-0.0087,0.00534,-0.00641,0.01312,-0.0119,-0.04425,-0.04761,-0.02792,-0.02396,-0.04318
9.49,0.07629,-0.07278,0.00595,-0.01358,-0.00473,-0.03601,-0.01282,0.009,-0.00793,0.00458,-0.01373,-0.03952,-0.04517,-0.02594,-0.03998,-0.03967
9.4905,0.08667,-0.10361,0.00183,0.04669,-0.03662,-0.01816,-0.03601,0.01144,-0.00931,-0.00748,-0.01389,-0.04364,-0.04379,-0.02563,-0.02899,-0.03799
9.491,0.09583,-0.13718,-0.00153,0.06683,-0.06424,0.00687,-0.07767,0.0087,-0.00916,-0.01617,-0.01358,-0.04852,-0.04608,-0.02625,-0.00229,-0.03845
9.4915,0.10208,-0.14847,-0.00565,0.02014,-0.07233,0.02274,-0.11749,0.00153,-0.00824,-0.01816,-0.01358,-0.03937,-0.04761,-0.0264,0.01617,-0.03998
9.492,0.10559,-0.12634,-0.0116,-0.08484,-0.06256,0.02533,-0.13397,-0.00488,-0.00763,-0.01816,-0.01358,-0.01373,-0.04486,-0.02411,0.01617,-0.04089
9.4925,0.10559,-0.08591,-0.02258,-0.2037,-0.04669,0.01968,-0.1268,-0.00992,-0.00809,-0.01953,-0.01312,0.00992,-0.0383,-0.02075,0.00793,-0.04074
9.493,0.10468,-0.05066,-0.03159,-0.28122,-0.03601,-0.00015,-0.11688,-0.01144,-0.00946,-0.02045,-0.01343,0.0148,-0.03281,-0.01846,0.0058,-0.03937
9.4935,0.10712,-0.02792,-0.03647,-0.29419,-0.02563,-0.05356,-0.1178,-0.00961,-0.01099,-0.01923,-0.01495,0.01312,-0.02991,-0.01923,0.00839,-0.0386
9.494,0.11169,-0.01297,-0.03937,-0.26947,-0.01358,-0.12787,-0.10712,-0.00473,-0.01282,-0.01831,-0.01572,0.02579,-0.02899,-0.02182,0.01007,-0.03983
9.4945,0.11353,-0.00137,-0.04684,-0.26062,-0.00122,-0.18234,-0.05524,0.00092,-0.01297,-0.0177,-0.01556,0.04349,-0.02945,-0.02411,0.00824,-0.04028
9.495,0.1091,0.00443,-0.05508,-0.2681,0.00992,-0.18082,0.02167,0.00671,-0.01205,-0.0174,-0.01495,0.0415,-0.03265,-0.02563,0.0058,-0.04135
9.4955,0.10162,0.00397,-0.05783,-0.18723,0.02792,-0.1355,0.06073,0.01038,-0.01129,-0.01678,-0.01526,0.01877,-0.03525,-0.02472,0.00504,-0.0412
9.496,0.09827,0.00198,-0.05188,0.06332,0.05905,-0.0766,0.0238,0.01007,-0.01221,-0.0177,-0.01678,-0.00366,-0.03632,-0.02228,0.00565,-0.04074
9.4965,0.10132,0.00259,-0.04166,0.327,0.09506,-0.03143,-0.04379,0.0058,-0.01511,-0.0177,-0.01801,-0.01556,-0.03632,-0.02106,0.00793,-0.04089
9.497,0.10696,0.00488,-0.03326,0.31708,0.11993,-0.01022,-0.06012,-0.00015,-0.0174,-0.01877,-0.01816,-0.02762,-0.03586,-0.02167,0.01114,-0.04089
9.4975,0.10727,0.00412,-0.0322,-0.00626,0.1297,-0.00732,0.01495,-0.00641,-0.01724,-0.01999,-0.01801,-0.04608,-0.03525,-0.02243,0.01266,-0.04044
9.498,0.10193,-0.00168,-0.04013,-0.35004,0.1326,-0.01419,0.13824,-0.01068,-0.01511,-0.02151,-0.01755,-0.05676,-0.03586,-0.02274,0.01282,-0.03845
9.4985,0.09644,-0.01205,-0.05081,-0.43961,0.13046,-0.02045,0.22537,-0.0116,-0.01221,-0.02335,-0.01816,-0.03448,-0.03799,-0.02258,0.01083,-0.03693
9.499,0.09689,-0.01984,-0.05814,-0.30029,0.10391,-0.02243,0.233,-0.00839,-0.01007,-0.02548,-0.01968,0.01648,-0.03922,-0.02243,0.00992,-0.03677
9.4995,0.10239,-0.02243,-0.05844,-0.16068,0.0351,-0.02167,0.18341,-0.00229,-0.00931,-0.02716,-0.02029,0.05249,-0.03876,-0.0209,0.01068,-0.03738
9.5,0.10773,-0.02213,-0.05463,-0.15228,-0.06226,-0.02121,0.11688,0.00229,-0.01022,-0.02899,-0.01831,0.03342,-0.03769,-0.01801,0.01251,-0.03738
9.5005,0.10956,-0.02686,-0.05173,-0.17227,-0.15381,-0.02335,0.05997,0.00351,-0.0119,-0.03479,-0.01694,-0.02319,-0.0383,-0.01633,0.01205,-0.03799
9.501,0.10757,-0.03723,-0.0592,-0.06531,-0.20645,-0.02823,0.02594,-0.00061,-0.01419,-0.04303,-0.01724,-0.06927,-0.03922,-0.01617,0.01099,-0.03876
9.5015,0.10254,-0.04562,-0.08713,0.15121,-0.21744,-0.02884,0.01099,-0.00595,-0.01617,-0.05157,-0.01831,-0.08408,-0.03799,-0.01617,0.01053,-0.03952
9.502,0.0972,-0.05264,-0.1268,0.32089,-0.21454,-0.02716,-0.00015,-0.0061,-0.0174,-0.05692,-0.01755,-0.08286,-0.03647,-0.01556,0.01038,-0.03906
9.5025,0.09277,-0.0592,-0.14877,0.34531,-0.22339,-0.03082,-0.01785,-0.00275,-0.01755,-0.05768,-0.0148,-0.09033,-0.03494,-0.01404,0.01022,-0.03784
9.503,0.08743,-0.06348,-0.13077,0.24506,-0.22583,-0.05478,-0.03372,0.00015,-0.01541,-0.056,-0.01236,-0.11566,-0.03372,-0.01129,0.00961,-0.03677
9.5035,0.07965,-0.06165,-0.08224,0.09338,-0.18219,-0.10056,-0.03769,-0.00061,-0.01282,-0.05219,-0.01099,-0.14511,-0.0325,-0.00961,0.01083,-0.03738
9.504,0.07004,-0.05524,-0.02716,-0.02029,-0.103,-0.1532,-0.03204,-0.00336,-0.01114,-0.04486,-0.00992,-0.15533,-0.03143,-0.009,0.01221,-0.0383
9.5045,0.06271,-0.0531,0.02457,-0.01297,-0.047,-0.18967,-0.02594,-0.00336,-0.01312,-0.0354,-0.009,-0.13321,-0.03113,-0.009,0.01144,-0.03922
9.505,0.05768,-0.05646,0.06683,0.13748,-0.04059,-0.19028,-0.02335,-0.0029,-0.01663,-0.02304,-0.00854,-0.08469,-0.03082,-0.01099,0.00961,-0.0386
9.5055,0.05569,-0.05524,0.08713,0.33859,-0.05203,-0.1593,-0.02335,-0.00305,-0.0206,-0.01129,-0.00748,-0.02945,-0.03021,-0.01175,0.00732,-0.03815
9.506,0.05386,-0.0444,0.07889,0.4158,-0.05478,-0.12054,-0.02808,-0.00366,-0.02304,-0.00015,-0.00732,0.02441,-0.0293,-0.01205,0.00793,-0.03967
9.5065,0.05051,-0.02823,0.05508,0.29617,-0.05341,-0.0943,-0.03769,-0.00458,-0.02319,0.00839,-0.00809,0.08133,-0.02853,-0.01266,0.009,-0.04257
9.507,0.04349,-0.01862,0.03281,0.13306,-0.06073,-0.0798,-0.04807,-0.00626,-0.02197,0.0145,-0.01068,0.13702,-0.02792,-0.01343,0.01022,-0.04425
9.5075,0.03265,-0.02213,0.01846,0.10315,-0.07263,-0.06958,-0.05188,-0.00931,-0.0209,0.01709,-0.01205,0.17166,-0.0296,-0.01434,0.01053,-0.04288
9.508,0.02106,-0.03387,0.00671,0.14893,-0.08835,-0.06516,-0.04974,-0.01312,-0.01999,0.01831,-0.01175,0.16418,-0.03128,-0.01434,0.01053,-0.03998
9.5085,0.01205,-0.04578,-0.00092,0.09186,-0.10651,-0.07339,-0.04501,-0.01434,-0.01846,0.01877,-0.01175,0.10895,-0.03113,-0.01465,0.00977,-0.03922
9.509,0.00732,-0.05463,-0.00717,-0.07721,-0.11612,-0.08896,-0.03815,-0.01373,-0.01602,0.01785,-0.01297,0.02838,-0.02975,-0.01343,0.00763,-0.03906
9.5095,0.00443,-0.05981,-0.01724,-0.21011,-0.10147,-0.09766,-0.03006,-0.01083,-0.01251,0.01266,-0.01236,-0.01831,-0.02899,-0.0116,0.00671,-0.03754
9.51,0.00092,-0.06119,-0.03952,-0.22034,-0.0676,-0.0914,-0.02335,-0.00885,-0.0116,0.00381,-0.01038,0.04288,-0.02884,-0.00992,0.00702,-0.03464
9.5105,-0.00153,-0.05814,-0.06973,-0.14709,-0.03448,-0.07584,-0.02319,-0.00885,-0.0116,-0.00488,-0.01022,0.19226,-0.02914,-0.01083,0.00992,-0.0325
9.511,0.00244,-0.05524,-0.09506,-0.05692,-0.01373,-0.06042,-0.03418,-0.00839,-0.01083,-0.00931,-0.01312,0.26154,-0.0296,-0.01282,0.01083,-0.03281
9.5115,0.01556,-0.05493,-0.10468,0.00687,-0.00305,-0.04715,-0.04715,-0.00641,-0.0087,-0.0087,-0.01526,0.11185,-0.03082,-0.01404,0.01007,-0.03525
9.512,0.0296,-0.0528,-0.09506,-0.00061,0.00473,-0.03311,-0.04822,-0.00549,-0.00732,-0.0058,-0.01434,-0.14648,-0.03204,-0.01419,0.00916,-0.03799
9.5125,0.03326,-0.04593,-0.07172,-0.08331,0.00443,-0.02533,-0.03433,-0.00763,-0.00702,-0.00244,-0.01251,-0.26825,-0.0325,-0.01358,0.00748,-0.0386
9.513,0.02579,-0.03708,-0.04379,-0.15594,-0.00748,-0.02319,-0.01755,-0.01022,-0.00763,-0.00168,-0.01175,-0.1799,-0.03159,-0.01419,0.00687,-0.03922
9.5135,0.01602,-0.03082,-0.01984,-0.13947,-0.0267,-0.02335,-0.01282,-0.01038,-0.00854,-0.00397,-0.01358,-0.02213,-0.0322,-0.01373,0.00488,-0.04059
9.514,0.01358,-0.02975,-0.00854,-0.04364,-0.04135,-0.0206,-0.0209,-0.00732,-0.01022,-0.00992,-0.01602,0.08835,-0.03494,-0.01434,0.00366,-0.04242
9.5145,0.01938,-0.02884,-0.01144,0.07263,-0.04868,-0.01358,-0.03006,-0.00656,-0.01144,-0.01648,-0.01755,0.16663,-0.03937,-0.01648,0.00458,-0.04349
9.515,0.02655,-0.02808,-0.01678,0.17029,-0.05447,0.00504,-0.03326,-0.00671,-0.01266,-0.02029,-0.0177,0.24689,-0.04333,-0.01801,0.00458,-0.04364
9.5155,0.0293,-0.02853,-0.01923,0.22156,-0.06302,0.03082,-0.03052,-0.00656,-0.0145,-0.02121,-0.01648,0.29449,-0.04456,-0.0174,0.00366,-0.04318
9.516,0.02625,-0.03082,-0.0209,0.21988,-0.06943,0.04715,-0.02747,-0.00534,-0.01526,-0.02121,-0.01556,0.25864,-0.04456,-0.01633,0.00519,-0.04364
9.5165,0.02197,-0.03326,-0.02411,0.21454,-0.07355,0.03616,-0.02533,-0.00214,-0.01511,-0.02213,-0.01602,0.1561,-0.04532,-0.01572,0.00549,-0.04471
9.517,0.01785,-0.03479,-0.02533,0.26077,-0.07095,0.00092,-0.02396,0.0,-0.0148,-0.02121,-0.01633,0.056,-0.04578,-0.0174,0.0058,-0.0444
9.5175,0.01495,-0.03906,-0.02106,0.31525,-0.06226,-0.03082,-0.01785,0.00153,-0.01465,-0.02136,-0.01648,0.00443,-0.04578,-0.01831,0.00519,-0.04318
9.518,0.0087,-0.04669,-0.01419,0.26855,-0.05096,-0.03006,-0.00443,0.00397,-0.01495,-0.02167,-0.01587,-0.00931,-0.04288,-0.01831,0.00504,-0.0412
9.5185,-0.00122,-0.05341,-0.00977,0.10117,-0.04257,-0.00992,0.00931,0.00732,-0.0145,-0.02197,-0.0148,-0.01801,-0.03876,-0.01846,0.00656,-0.04059
9.519,-0.01144,-0.05508,-0.00992,-0.08667,-0.0386,-0.00244,0.01419,0.00885,-0.01419,-0.02136,-0.01312,-0.03754,-0.0351,-0.01862,0.00793,-0.04135
9.5195,-0.01785,-0.05157,-0.01419,-0.20691,-0.03403,-0.02029,0.00443,0.00687,-0.0148,-0.01999,-0.01221,-0.06165,-0.03311,-0.01785,0.00702,-0.04166
9.52,-0.01923,-0.04608,-0.02121,-0.26581,-0.02823,-0.04288,-0.00732,0.00366,-0.01541,-0.01877,-0.01236,-0.08118,-0.03098,-0.01526,0.00443,-0.0412
9.5205,-0.01831,-0.0441,-0.02869,-0.2951,-0.02548,-0.05493,-0.01236,0.00244,-0.01572,-0.01755,-0.0119,-0.09109,-0.02945,-0.00839,0.00305,-0.04089
9.521,-0.01556,-0.05249,-0.03662,-0.28992,-0.03036,-0.05997,-0.01175,0.00259,-0.01511,-0.01816,-0.01205,-0.09308,-0.02899,-0.00214,0.00488,-0.04257
9.5215,-0.00961,-0.07599,-0.04272,-0.23331,-0.03403,-0.06317,-0.01205,0.00061,-0.01526,-0.01816,-0.01297,-0.0943,-0.0296,-0.00214,0.00687,-0.04288
9.522,-0.00488,-0.10406,-0.04898,-0.15732,-0.02487,-0.06378,-0.01221,-0.0029,-0.01465,-0.01907,-0.01556,-0.09842,-0.03128,-0.01038,0.00565,-0.04227
9.5225,-0.00473,-0.11749,-0.05356,-0.14328,-0.00305,-0.05524,-0.01236,-0.00702,-0.01358,-0.01938,-0.01709,-0.09903,-0.03113,-0.01953,0.00305,-0.04044
9.523,-0.00824,-0.10269,-0.05661,-0.22934,0.0235,-0.03952,-0.01373,-0.00977,-0.01312,-0.01816,-0.01785,-0.08347,-0.02991,-0.02243,0.00305,-0.03967
9.5235,-0.01266,-0.06882,-0.06119,-0.33539,0.04288,-0.02182,-0.01801,-0.01144,-0.01419,-0.01678,-0.0177,-0.04807,-0.0293,-0.01984,0.00702,-0.0415
9.524,-0.01495,-0.03357,-0.06927,-0.34439,0.04578,-0.00336,-0.02121,-0.01038,-0.01587,-0.01694,-0.01785,-0.00809,-0.02869,-0.01785,0.00946,-0.04227
9.5245,-0.00992,-0.00534,-0.07935,-0.23636,0.03693,0.01038,-0.01953,-0.00748,-0.01602,-0.01892,-0.01801,0.01282,-0.02884,-0.01816,0.00961,-0.04196
9.525,0.00427,0.01541,-0.09323,-0.10391,0.02548,0.01816,-0.01801,-0.00443,-0.01419,-0.02151,-0.01801,0.00702,-0.02869,-0.01846,0.00763,-0.04166
9.5255,0.02319,0.03128,-0.10788,-0.02655,0.02045,0.01602,-0.0177,-0.00183,-0.01343,-0.02258,-0.0177,-0.00809,-0.02853,-0.01846,0.00595,-0.04364
9.526,0.03571,0.03815,-0.12558,0.00122,0.00977,0.00381,-0.01907,0.00122,-0.01465,-0.02136,-0.01755,-0.009,-0.0293,-0.01801,0.00717,-0.04562
9.5265,0.03418,0.03433,-0.15106,0.0322,-0.0174,-0.01541,-0.02167,0.00458,-0.01617,-0.01923,-0.01724,0.0116,-0.0296,-0.01846,0.01282,-0.04578
9.527,0.02182,0.01846,-0.16785,0.08636,-0.06516,-0.0412,-0.02274,0.00488,-0.01663,-0.01953,-0.01694,0.03616,-0.02991,-0.01846,0.01968,-0.0444
9.5275,0.00763,-0.00626,-0.15228,0.13489,-0.11749,-0.07324,-0.02136,0.00076,-0.01724,-0.01984,-0.01587,0.04303,-0.02991,-0.01831,0.0206,-0.04425
9.528,-0.0029,-0.03174,-0.09781,0.14282,-0.14297,-0.10361,-0.01923,-0.0029,-0.01907,-0.0206,-0.01312,0.02518,-0.03098,-0.01892,0.01663,-0.04501
9.5285,-0.01007,-0.04684,-0.02319,0.11185,-0.13306,-0.12207,-0.01511,-0.00443,-0.01968,-0.02151,-0.01038,-0.00305,-0.03098,-0.01907,0.01022,-0.04623
9.529,-0.01892,-0.04944,0.0502,0.06775,-0.10742,-0.12497,-0.0145,-0.00656,-0.01968,-0.02213,-0.01053,-0.02289,-0.03036,-0.01877,0.00641,-0.04562
9.5295,-0.03021,-0.04517,0.11124,0.02777,-0.09155,-0.12238,-0.01465,-0.01175,-0.01938,-0.02182,-0.01251,-0.03311,-0.02747,-0.01892,0.00565,-0.04395
9.53,-0.04044,-0.04349,0.14862,-0.0116,-0.08789,-0.12253,-0.01312,-0.01694,-0.02045,-0.02151,-0.01358,-0.0441,-0.02609,-0.01816,0.00595,-0.04379
9.5305,-0.04791,-0.04578,0.14572,-0.04959,-0.0737,-0.11902,-0.00824,-0.01709,-0.02106,-0.02197,-0.01373,-0.05966,-0.02655,-0.0174,0.00641,-0.04471
9.531,-0.05478,-0.04959,0.10559,-0.07126,-0.03204,-0.10635,-0.00763,-0.01328,-0.02014,-0.02274,-0.01312,-0.06851,-0.02792,-0.01572,0.00778,-0.04593
9.5315,-0.06195,-0.04639,0.04593,-0.06409,0.02182,-0.09079,-0.00961,-0.01053,-0.01907,-0.02304,-0.01312,-0.05676,-0.02869,-0.01404,0.00885,-0.04532
9.532,-0.06744,-0.03448,-0.01907,-0.03098,0.05325,-0.07935,-0.01312,-0.00854,-0.01831,-0.02319,-0.01328,-0.02487,-0.02945,-0.01389,0.00763,-0.04364
9.5325,-0.06943,-0.02014,-0.06973,0.01633,0.04913,-0.07309,-0.01526,-0.00534,-0.01816,-0.02197,-0.01328,0.01862,-0.02884,-0.01572,0.00534,-0.04181
9.533,-0.06897,-0.00977,-0.08408,0.0621,0.02289,-0.07172,-0.01648,-0.00092,-0.0177,-0.02106,-0.01251,0.06119,-0.02792,-0.0177,0.00519,-0.04105
9.5335,-0.06699,-0.0032,-0.05585,0.08591,-0.00397,-0.06943,-0.01923,-0.00244,-0.01602,-0.02014,-0.0119,0.08575,-0.0264,-0.01831,0.00687,-0.04105
9.534,-0.06073,-0.00137,-0.00885,0.08133,-0.02396,-0.06927,-0.0238,-0.01404,-0.01343,-0.01892,-0.01144,0.07996,-0.02625,-0.01785,0.00763,-0.0412
9.5345,-0.05035,-0.00656,0.02838,0.06256,-0.03372,-0.07111,-0.02991,-0.02884,-0.01236,-0.01816,-0.01114,0.05325,-0.02762,-0.01724,0.00763,-0.04089
9.535,-0.04196,-0.01938,0.04791,0.04257,-0.03036,-0.07309,-0.03448,-0.03403,-0.01373,-0.01968,-0.01221,0.03067,-0.02808,-0.01709,0.00885,-0.04181
9.5355,-0.04211,-0.03616,0.05402,0.01266,-0.01617,-0.07065,-0.03357,-0.02487,-0.01511,-0.02075,-0.01358,0.02151,-0.02747,-0.01953,0.00961,-0.04333
9.536,-0.0473,-0.0502,0.04562,-0.03586,-0.00549,-0.0621,-0.02686,-0.00854,-0.01556,-0.02243,-0.01373,0.00931,-0.02808,-0.02106,0.00778,-0.0441
9.5365,-0.05112,-0.05966,0.02304,-0.08362,-0.00854,-0.0531,-0.02029,0.00183,-0.01511,-0.02151,-0.01328,-0.0116,-0.02991,-0.02197,0.00641,-0.04379
9.537,-0.04929,-0.06607,-0.00107,-0.09933,-0.01419,-0.0473,-0.01816,0.00549,-0.01495,-0.02106,-0.01389,-0.0148,-0.03357,-0.0209,0.00702,-0.04288
9.5375,-0.04532,-0.06973,-0.0177,-0.0824,-0.01877,-0.04471,-0.01923,0.00458,-0.01541,-0.02182,-0.01633,0.01175,-0.03571,-0.01923,0.00854,-0.04364
9.538,-0.03983,-0.0737,-0.02792,-0.06119,-0.03204,-0.04181,-0.01999,0.00397,-0.01556,-0.02243,-0.01724,0.03418,-0.03662,-0.01862,0.00687,-0.04501
9.5385,-0.02777,-0.08179,-0.04135,-0.05463,-0.05981,-0.03647,-0.01144,0.0032,-0.01587,-0.02274,-0.01526,0.01907,-0.03586,-0.01984,0.00351,-0.04562
9.539,-0.01266,-0.08667,-0.0621,-0.05386,-0.0914,-0.02838,0.00488,0.00397,-0.01495,-0.02121,-0.01328,-0.02121,-0.03387,-0.02319,0.00183,-0.04395
9.5395,-0.00229,-0.08286,-0.0946,-0.04623,-0.10529,-0.01007,0.0209,0.00626,-0.0145,-0.01999,-0.01205,-0.0441,-0.03387,-0.02487,0.00168,-0.04196
9.54,-0.00061,-0.07721,-0.14404,-0.03204,-0.08621,0.01297,0.02701,0.00916,-0.01526,-0.01877,-0.01205,-0.03799,-0.03479,-0.02304,0.00275,-0.04166
9.5405,-0.00107,-0.08179,-0.19653,-0.01709,-0.03128,0.03281,0.02487,0.00961,-0.01526,-0.01923,-0.01221,-0.01831,-0.03479,-0.02136,0.00305,-0.04379
9.541,0.00504,-0.09567,-0.21637,-0.01038,0.02762,0.04318,0.01938,0.00748,-0.01434,-0.01999,-0.01205,0.00122,-0.03311,-0.02182,0.00305,-0.04501
9.5415,0.01617,-0.10178,-0.18463,-0.02457,0.0531,0.04501,-0.00122,0.00595,-0.01205,-0.0209,-0.01282,0.01877,-0.03174,-0.02228,0.00366,-0.04501
9.542,0.02243,-0.09003,-0.12177,-0.05524,0.03189,0.03922,-0.03952,0.00626,-0.01129,-0.02136,-0.01434,0.02716,-0.03006,-0.02243,0.00519,-0.04501
9.5425,0.01877,-0.06989,-0.06363,-0.08911,-0.00763,0.02853,-0.06424,0.00488,-0.01328,-0.02029,-0.01633,0.02228,-0.02792,-0.02304,0.00641,-0.04517
9.543,0.00839,-0.05783,-0.02182,-0.12817,-0.03769,0.01282,-0.04272,0.00153,-0.01511,-0.0174,-0.01816,0.00946,-0.02594,-0.02289,0.00748,-0.04562
9.5435,-0.00504,-0.05661,0.01205,-0.17715,-0.05676,-0.00214,0.0,0.00031,-0.01556,-0.01511,-0.01785,0.00153,-0.02533,-0.02365,0.009,-0.04578
9.544,-0.01923,-0.05722,0.04074,-0.19653,-0.07996,-0.0148,0.01678,0.00122,-0.01495,-0.0145,-0.01602,0.0032,-0.02563,-0.02319,0.00793,-0.04532
9.5445,-0.03189,-0.0502,0.05463,-0.13901,-0.10895,-0.03448,-0.00015,-0.00275,-0.01495,-0.01373,-0.0148,0.00687,-0.02731,-0.02365,0.00778,-0.04501
9.545,-0.04532,-0.03586,0.05005,-0.01282,-0.12695,-0.06851,-0.01129,-0.01572,-0.01572,-0.01328,-0.01633,0.00519,-0.02914,-0.02243,0.00824,-0.04639
9.5455,-0.05981,-0.02029,0.03571,0.14084,-0.12115,-0.10742,0.00061,-0.03098,-0.01678,-0.01419,-0.01633,-0.00107,-0.03098,-0.02121,0.0087,-0.04791
9.546,-0.0705,-0.00763,0.0209,0.2861,-0.09506,-0.13657,0.01541,-0.03693,-0.01678,-0.01419,-0.01572,-0.00732,-0.03235,-0.02075,0.00809,-0.04761
9.5465,-0.07217,0.00061,0.00656,0.37064,-0.06744,-0.14496,0.01419,-0.03113,-0.01602,-0.01556,-0.01434,-0.00931,-0.03418,-0.02045,0.00687,-0.04517
9.547,-0.06378,0.00412,-0.00732,0.34119,-0.05447,-0.13214,-0.00214,-0.02167,-0.01511,-0.01648,-0.01419,-0.00977,-0.03754,-0.0209,0.00671,-0.04379
9.5475,-0.05264,0.00168,-0.01221,0.21301,-0.0473,-0.10056,-0.02197,-0.01282,-0.01511,-0.01816,-0.01541,-0.01221,-0.0412,-0.02151,0.00763,-0.04593
9.548,-0.04898,-0.00412,-0.00839,0.06744,-0.03418,-0.06592,-0.04272,-0.00702,-0.01419,-0.01923,-0.01602,-0.01663,-0.04318,-0.02197,0.01053,-0.04654
9.5485,-0.05432,-0.01144,-0.00549,-0.04303,-0.01251,-0.0444,-0.06363,-0.00275,-0.01266,-0.01801,-0.01694,-0.0177,-0.04196,-0.02274,0.01175,-0.04562
9.549,-0.06363,-0.01648,-0.01556,-0.12543,0.01175,-0.04211,-0.0795,-0.00076,-0.0119,-0.01831,-0.01694,-0.01648,-0.03891,-0.02228,0.01022,-0.04227
9.5495,-0.06927,-0.01892,-0.0354,-0.177,0.02625,-0.04944,-0.08881,0.00092,-0.01068,-0.01816,-0.01587,-0.01526,-0.03571,-0.02213,0.00961,-0.04044
9.55,-0.06485,-0.02029,-0.05417,-0.16785,0.02853,-0.05173,-0.08987,0.00671,-0.01068,-0.01831,-0.0148,-0.01465,-0.03342,-0.02136,0.01007,-0.03983
9.5505,-0.05249,-0.02396,-0.06805,-0.09552,0.0206,-0.05035,-0.07828,0.01373,-0.01038,-0.01846,-0.01419,-0.01556,-0.03342,-0.02151,0.01205,-0.04044
9.551,-0.03891,-0.0296,-0.07538,0.0032,0.00763,-0.04654,-0.04883,0.01694,-0.01038,-0.01862,-0.01419,-0.01556,-0.03342,-0.02197,0.01129,-0.04227
9.5515,-0.03204,-0.03494,-0.0769,0.09903,-0.00504,-0.04807,0.0,0.00977,-0.01099,-0.02029,-0.01328,-0.01404,-0.03357,-0.02213,0.00854,-0.04318
9.552,-0.0322,-0.03815,-0.07324,0.18021,-0.01633,-0.04898,0.05356,-0.00275,-0.01251,-0.02151,-0.01205,-0.01266,-0.03479,-0.02121,0.00793,-0.04364
9.5525,-0.03204,-0.03754,-0.06668,0.22232,-0.02045,-0.04608,0.09171,-0.0116,-0.01373,-0.02319,-0.01175,-0.01236,-0.03647,-0.02075,0.00961,-0.0444
9.553,-0.02304,-0.03601,-0.05981,0.1944,-0.01877,-0.03433,0.09491,-0.0116,-0.01282,-0.02182,-0.01251,-0.0119,-0.03571,-0.02075,0.01022,-0.04517
9.5535,-0.00778,-0.03754,-0.05127,0.10849,-0.01526,-0.01434,0.05875,-0.00732,-0.01129,-0.01938,-0.01419,-0.01297,-0.03281,-0.01999,0.00977,-0.0444
9.554,0.00275,-0.04639,-0.04395,0.0267,-0.01434,0.0,0.01373,-0.00748,-0.01007,-0.01968,-0.01556,-0.0148,-0.03082,-0.01953,0.00885,-0.04379
9.5545,0.00244,-0.05829,-0.03998,0.00854,-0.01846,-0.00854,-0.01343,-0.01343,-0.01114,-0.0206,-0.0145,-0.01694,-0.03174,-0.01892,0.00824,-0.04318
9.555,-0.00595,-0.06653,-0.04532,0.05203,-0.02243,-0.03708,-0.01816,-0.01816,-0.01144,-0.02029,-0.0119,-0.01678,-0.03342,-0.0206,0.00702,-0.04196
9.5555,-0.01144,-0.07126,-0.05585,0.1004,-0.02594,-0.05936,-0.01892,-0.01511,-0.01053,-0.01953,-0.01068,-0.01404,-0.03479,-0.0206,0.0058,-0.0412
9.556,-0.0116,-0.07843,-0.06149,0.10681,-0.02182,-0.0618,-0.02136,-0.00809,-0.00977,-0.01877,-0.00946,-0.00977,-0.03296,-0.01984,0.00565,-0.04105
9.5565,-0.01083,-0.09094,-0.056,0.08118,-0.01251,-0.04913,-0.02182,-0.00351,-0.009,-0.01907,-0.00977,-0.00641,-0.03128,-0.01846,0.00519,-0.04211
9.557,-0.01389,-0.09933,-0.04593,0.0589,-0.00244,-0.04272,-0.01282,-0.00458,-0.01007,-0.01907,-0.01022,-0.00671,-0.03036,-0.0177,0.00458,-0.04211
9.5575,-0.02045,-0.09598,-0.03296,0.02441,-0.00107,-0.04791,-0.00351,-0.00626,-0.01083,-0.01816,-0.01251,-0.00824,-0.03128,-0.01831,0.00473,-0.04211
9.558,-0.02594,-0.0885,-0.01785,-0.09247,-0.00488,-0.05707,0.00153,-0.00427,-0.0116,-0.01724,-0.01358,-0.01038,-0.03174,-0.01877,0.00412,-0.04196
9.5585,-0.02777,-0.0885,0.00015,-0.30792,-0.00809,-0.05981,-0.00336,0.00137,-0.01328,-0.01846,-0.01282,-0.01129,-0.03265,-0.01923,0.00488,-0.04074
9.559,-0.02594,-0.09064,0.01007,-0.51376,-0.00656,-0.056,-0.01007,0.0058,-0.01495,-0.01984,-0.01221,-0.01129,-0.03143,-0.01953,0.00458,-0.04074
9.5595,-0.0238,-0.07599,0.00427,-0.57571,-0.00259,-0.04898,-0.01572,0.00458,-0.01526,-0.02106,-0.0119,-0.0116,-0.02899,-0.01999,0.00488,-0.04074
9.56,-0.02518,-0.03906,-0.01434,-0.48172,-0.00626,-0.04471,-0.01709,0.00137,-0.01434,-0.02151,-0.01266,-0.01297,-0.02777,-0.02045,0.00519,-0.04074
9.5605,-0.03021,0.00244,-0.03342,-0.33295,-0.01114,-0.04288,-0.01526,0.00107,-0.01465,-0.02197,-0.01373,-0.01404,-0.02762,-0.02121,0.00641,-0.0412
9.561,-0.03159,0.0293,-0.0441,-0.17212,-0.00916,-0.04242,-0.01129,0.00549,-0.01602,-0.02121,-0.01526,-0.01312,-0.02686,-0.02167,0.00687,-0.04196
9.5615,-0.02335,0.03738,-0.04913,0.09933,0.00473,-0.04028,-0.00641,0.01022,-0.0177,-0.01968,-0.01709,-0.01114,-0.02548,-0.02136,0.00717,-0.04257
9.562,-0.01038,0.03708,-0.05219,0.57388,0.02365,-0.03616,-0.00412,0.01144,-0.01801,-0.01984,-0.01678,-0.00961,-0.02426,-0.02106,0.00732,-0.04257
9.5625,-0.00229,0.03387,-0.05585,1.11206,0.03632,-0.03586,-0.00473,0.01068,-0.0177,-0.0206,-0.01495,-0.01022,-0.02411,-0.01999,0.00748,-0.04211
9.563,-0.0029,0.02487,-0.05997,1.34918,0.03632,-0.03738,-0.00595,0.01129,-0.01846,-0.02045,-0.0145,-0.01129,-0.02472,-0.01892,0.00809,-0.04318
9.5635,-0.009,0.01236,-0.06607,1.06461,0.02731,-0.04089,-0.0061,0.01282,-0.01923,-0.01877,-0.0148,-0.01068,-0.02625,-0.01907,0.0087,-0.04532
9.564,-0.01358,0.00275,-0.0708,0.47409,0.01358,-0.04379,-0.00626,0.01297,-0.01877,-0.01816,-0.01572,-0.00748,-0.02563,-0.01938,0.00885,-0.04578
9.5645,-0.01312,-0.00061,-0.07111,-0.01724,-0.00031,-0.04532,-0.00641,0.01297,-0.0177,-0.01846,-0.01419,0.00092,-0.02502,-0.01923,0.00809,-0.04425
9.565,-0.0061,-0.0032,-0.06409,-0.25757,-0.01556,-0.04669,-0.00702,0.01328,-0.01572,-0.01938,-0.01251,0.01099,-0.02472,-0.01953,0.00748,-0.04227
9.5655,0.00381,-0.00946,-0.04944,-0.36972,-0.03876,-0.04852,-0.00717,0.01312,-0.01511,-0.02136,-0.00977,0.01633,-0.02487,-0.02121,0.00687,-0.04044
9.566,0.01236,-0.01953,-0.03296,-0.4541,-0.06851,-0.05051,-0.01144,0.00946,-0.01511,-0.0206,-0.00824,0.01556,-0.02502,-0.02213,0.00687,-0.04074
9.5665,0.01541,-0.03265,-0.02106,-0.50583,-0.09659,-0.05402,-0.01648,0.00168,-0.01602,-0.01923,-0.00732,0.01205,-0.02579,-0.02213,0.00534,-0.04074
9.567,0.01495,-0.04929,-0.01877,-0.52734,-0.103,-0.05676,-0.02274,-0.00854,-0.01709,-0.01755,-0.00748,0.01068,-0.02762,-0.02151,0.00534,-0.04135
9.5675,0.01266,-0.0621,-0.02563,-0.54077,-0.08652,-0.05722,-0.02914,-0.01892,-0.0177,-0.01572,-0.00809,0.00885,-0.02777,-0.01984,0.00549,-0.04257
9.568,0.00626,-0.065,-0.03983,-0.52765,-0.06195,-0.05127,-0.03433,-0.02701,-0.01801,-0.01541,-0.00916,0.00397,-0.02686,-0.01831,0.00671,-0.04364
9.5685,-0.00473,-0.06134,-0.05798,-0.45364,-0.04791,-0.04272,-0.03586,-0.03143,-0.01663,-0.01495,-0.00916,-0.00153,-0.02686,-0.01892,0.00854,-0.04471
9.569,-0.01724,-0.0621,-0.06912,-0.33539,-0.04669,-0.03326,-0.03387,-0.03159,-0.01526,-0.01678,-0.00931,-0.0032,-0.02823,-0.02045,0.00916,-0.0444
9.5695,-0.02289,-0.06989,-0.06729,-0.23697,-0.0473,-0.02274,-0.0296,-0.0267,-0.01495,-0.01694,-0.00916,-0.00565,-0.02869,-0.02213,0.00946,-0.04349
9.57,-0.02136,-0.07614,-0.05646,-0.19897,-0.04303,-0.01144,-0.02396,-0.01862,-0.01541,-0.01663,-0.00946,-0.01785,-0.02731,-0.02213,0.01099,-0.04211
9.5705,-0.01984,-0.07614,-0.04425,-0.20493,-0.03922,-0.00839,-0.02151,-0.00916,-0.01724,-0.01511,-0.00916,-0.04364,-0.02625,-0.02075,0.01099,-0.04303
9.571,-0.02121,-0.07324,-0.03342,-0.20325,-0.03738,-0.01312,-0.02228,-0.00259,-0.01892,-0.01434,-0.00687,-0.06454,-0.02777,-0.02029,0.00992,-0.0444
9.5715,-0.02365,-0.07172,-0.0177,-0.15549,-0.03647,-0.01907,-0.02411,0.00336,-0.01968,-0.01495,-0.00488,-0.06287,-0.02975,-0.02151,0.00885,-0.04562
9.572,-0.02563,-0.07126,0.00259,-0.07675,-0.03296,-0.02075,-0.02563,0.00916,-0.01831,-0.01511,-0.00519,-0.04333,-0.03036,-0.02335,0.00824,-0.04501
9.5725,-0.02655,-0.0705,0.02045,-0.01434,-0.02731,-0.02243,-0.02274,0.01389,-0.01572,-0.01587,-0.00854,-0.02731,-0.03128,-0.02289,0.009,-0.04333
9.573,-0.02884,-0.07126,0.03006,0.00931,-0.02319,-0.03433,-0.01816,0.01541,-0.01465,-0.01678,-0.0119,-0.02365,-0.0325,-0.02258,0.00824,-0.04257
9.5735,-0.03265,-0.0766,0.03067,0.01068,-0.02197,-0.06836,-0.01541,0.01144,-0.01617,-0.01953,-0.01236,-0.0238,-0.03494,-0.02396,0.00717,-0.0444
9.574,-0.03571,-0.08392,0.02213,0.00565,-0.02792,-0.12512,-0.01877,-0.00076,-0.01801,-0.0206,-0.01129,-0.02258,-0.03632,-0.02655,0.00732,-0.04593
9.5745,-0.03586,-0.08743,0.00214,-0.02213,-0.03616,-0.18768,-0.02762,-0.01709,-0.01846,-0.02045,-0.01068,-0.02579,-0.03632,-0.02701,0.00793,-0.04578
9.575,-0.03311,-0.08408,-0.02457,-0.09354,-0.03952,-0.21164,-0.03403,-0.03052,-0.01755,-0.02045,-0.009,-0.03906,-0.03525,-0.02579,0.00824,-0.0444
9.5755,-0.02853,-0.08209,-0.04929,-0.17593,-0.03983,-0.15686,-0.03067,-0.03662,-0.0177,-0.02151,-0.009,-0.05661,-0.03586,-0.0235,0.00702,-0.04486
9.576,-0.02228,-0.08392,-0.06165,-0.19302,-0.04944,-0.05753,-0.02594,-0.0386,-0.01923,-0.02167,-0.01038,-0.05554,-0.03723,-0.02197,0.00702,-0.04654
9.5765,-0.01617,-0.08102,-0.0592,-0.11414,-0.06836,0.00946,-0.02533,-0.03723,-0.02014,-0.01953,-0.01175,-0.02213,-0.03754,-0.02243,0.00809,-0.04807
9.577,-0.01419,-0.06332,-0.05249,0.00977,-0.07462,0.00687,-0.03372,-0.02914,-0.02045,-0.01785,-0.01312,0.02396,-0.03586,-0.02319,0.00824,-0.04807
9.5775,-0.01602,-0.03448,-0.04562,0.10818,-0.05646,-0.02777,-0.03952,-0.01587,-0.01968,-0.01846,-0.01297,0.04547,-0.03403,-0.0235,0.00732,-0.0473
9.578,-0.01724,-0.01129,-0.04379,0.1683,-0.02197,-0.04288,-0.03128,-0.00336,-0.01785,-0.02014,-0.01236,0.03632,-0.03326,-0.02228,0.00717,-0.047
9.5785,-0.01785,-0.00427,-0.05035,0.21027,0.01465,-0.04059,-0.01083,0.00092,-0.01633,-0.02106,-0.01083,0.02609,-0.03296,-0.02182,0.00732,-0.04654
9.579,-0.01877,-0.01129,-0.06683,0.22385,0.03693,-0.04471,0.01068,-0.00046,-0.01541,-0.01984,-0.00931,0.03525,-0.0322,-0.02182,0.00961,-0.04623
9.5795,-0.02411,-0.01831,-0.0827,0.1828,0.03677,-0.0563,0.01587,-0.00092,-0.0148,-0.01801,-0.00992,0.05463,-0.03052,-0.02106,0.00977,-0.04562
9.58,-0.02838,-0.01587,-0.07935,0.11276,0.0148,-0.0618,0.00595,0.00061,-0.01312,-0.01663,-0.01053,0.06287,-0.03006,-0.02121,0.00961,-0.04471
9.5805,-0.02899,-0.00702,-0.04974,0.09827,-0.01297,-0.05646,-0.00458,0.00214,-0.01236,-0.01709,-0.01083,0.05295,-0.03113,-0.02106,0.00763,-0.04578
9.581,-0.02319,0.00031,-0.01511,0.19516,-0.04074,-0.05386,-0.00763,0.00198,-0.01282,-0.01801,-0.01007,0.0322,-0.03357,-0.02014,0.00641,-0.04684
9.5815,-0.00977,0.00275,0.00153,0.36041,-0.07034,-0.05203,-0.00687,0.00137,-0.01465,-0.01831,-0.00916,0.00946,-0.03448,-0.01831,0.00656,-0.04684
9.582,0.00595,-0.00153,0.00183,0.47562,-0.10712,-0.05447,-0.00641,0.00275,-0.01617,-0.01755,-0.00916,-0.00504,-0.03281,-0.01801,0.00763,-0.04395
9.5825,0.01816,-0.01556,-0.00015,0.44128,-0.13474,-0.05493,-0.00549,0.00458,-0.01633,-0.01648,-0.00961,-0.00595,-0.03159,-0.01938,0.00793,-0.04105
9.583,0.02335,-0.03632,-0.00137,0.26062,-0.13062,-0.0502,-0.00641,0.00427,-0.01617,-0.01678,-0.00946,0.00427,-0.03098,-0.02045,0.00656,-0.04028
9.5835,0.02075,-0.0531,-0.00931,0.03418,-0.09232,-0.04166,-0.00702,0.0032,-0.01678,-0.0177,-0.00778,0.01602,-0.03067,-0.02045,0.0029,-0.04242
9.584,0.01114,-0.05524,-0.02487,-0.12939,-0.04776,-0.03326,-0.00824,0.00336,-0.0174,-0.01846,-0.00656,0.01724,-0.03082,-0.01953,-0.00137,-0.04562
9.5845,0.00092,-0.04715,-0.03616,-0.19394,-0.02167,-0.0293,-0.00931,0.00458,-0.01678,-0.01923,-0.00641,0.01007,-0.03128,-0.01907,-0.00488,-0.04745
9.585,-0.00519,-0.03738,-0.03876,-0.18112,-0.01556,-0.02975,-0.00946,0.00534,-0.01648,-0.02075,-0.00916,0.009,-0.03235,-0.02029,-0.00748,-0.04761
9.5855,-0.00717,-0.03006,-0.03632,-0.12054,-0.01984,-0.03128,-0.01266,0.00488,-0.01816,-0.0209,-0.01297,0.01892,-0.03448,-0.02213,-0.00992,-0.04669
9.586,-0.00702,-0.02304,-0.03845,-0.05096,-0.02579,-0.03311,-0.01572,0.00183,-0.01938,-0.01999,-0.01526,0.03159,-0.03662,-0.02274,-0.00763,-0.04486
9.5865,-0.00824,-0.01617,-0.04089,-0.02563,-0.03067,-0.03311,-0.01907,-0.00305,-0.01953,-0.01984,-0.01465,0.03128,-0.03815,-0.02319,0.00015,-0.0441
9.587,-0.01038,-0.01694,-0.04028,-0.06683,-0.03006,-0.03616,-0.02075,-0.0087,-0.01953,-0.0209,-0.01343,0.01678,-0.03891,-0.02457,0.01114,-0.04227
9.5875,-0.01114,-0.03021,-0.03387,-0.12802,-0.03006,-0.03815,-0.02151,-0.01236,-0.01938,-0.02304,-0.01343,0.00046,-0.03952,-0.02655,0.02472,-0.03967
9.588,-0.01038,-0.04898,-0.03006,-0.14679,-0.02975,-0.03647,-0.02136,-0.0119,-0.02075,-0.02365,-0.01373,-0.00488,-0.04166,-0.02762,0.0354,-0.03891
9.5885,-0.00809,-0.05905,-0.03769,-0.11185,-0.02945,-0.02655,-0.02151,-0.009,-0.02182,-0.02396,-0.01404,-0.00137,-0.04318,-0.02762,0.04135,-0.04044
9.589,-0.00412,-0.05524,-0.05844,-0.04974,-0.02914,-0.01633,-0.0206,-0.00671,-0.02136,-0.02365,-0.01328,0.0032,-0.04257,-0.02747,0.0412,-0.0415
9.5895,-0.0029,-0.04562,-0.07629,0.02304,-0.02945,-0.0119,-0.01923,-0.00534,-0.01984,-0.02243,-0.0145,0.00458,-0.0412,-0.02701,0.03677,-0.04196
9.59,-0.00839,-0.03693,-0.07828,0.09262,-0.03143,-0.01343,-0.0174,-0.0029,-0.01892,-0.02167,-0.01801,0.00305,-0.04135,-0.02533,0.03174,-0.04318
9.5905,-0.01984,-0.02914,-0.06073,0.09979,-0.03372,-0.01755,-0.01419,0.00046,-0.01831,-0.02106,-0.01923,-0.00046,-0.04257,-0.02396,0.02533,-0.04333
9.591,-0.03021,-0.02121,-0.0322,-0.01907,-0.03464,-0.02228,-0.01266,0.00214,-0.01785,-0.02213,-0.01724,-0.00412,-0.04272,-0.02213,0.01938,-0.04318
9.5915,-0.03418,-0.01358,-0.00168,-0.22415,-0.03464,-0.02258,-0.01266,0.00244,-0.0177,-0.02274,-0.01556,-0.009,-0.0412,-0.02121,0.0148,-0.04349
9.592,-0.03296,-0.00931,0.02151,-0.37033,-0.0322,-0.01968,-0.01419,0.00275,-0.01862,-0.02136,-0.01556,-0.01404,-0.03922,-0.02136,0.01328,-0.0444
9.5925,-0.03296,-0.00793,0.03265,-0.37262,-0.02899,-0.01328,-0.01404,0.0032,-0.01846,-0.02045,-0.01678,-0.02045,-0.03937,-0.02274,0.01282,-0.04486
9.593,-0.03937,-0.01038,0.03143,-0.28809,-0.02686,-0.01205,-0.01175,0.00519,-0.01785,-0.02045,-0.01633,-0.02792,-0.03952,-0.0235,0.01266,-0.04486
9.5935,-0.05005,-0.01785,0.02228,-0.21729,-0.02762,-0.02625,-0.01083,0.00732,-0.01663,-0.02121,-0.01694,-0.03784,-0.0383,-0.02258,0.01205,-0.04486
9.594,-0.05829,-0.02914,0.00854,-0.16907,-0.02914,-0.06348,-0.01144,0.00656,-0.01556,-0.02151,-0.01907,-0.04669,-0.03616,-0.02075,0.01099,-0.04669
9.5945,-0.0592,-0.03708,-0.00793,-0.04486,-0.02884,-0.12146,-0.01495,0.00259,-0.01495,-0.02121,-0.02228,-0.04883,-0.03464,-0.0206,0.00946,-0.04761
9.595,-0.05646,-0.0415,-0.02335,0.22247,-0.02838,-0.16907,-0.01938,-0.00198,-0.01511,-0.01984,-0.02182,-0.04272,-0.03464,-0.02075,0.00839,-0.0473
9.5955,-0.05127,-0.04761,-0.03403,0.49774,-0.02792,-0.17868,-0.0206,-0.00595,-0.01495,-0.01831,-0.01877,-0.03021,-0.03433,-0.01984,0.00961,-0.04639
9.596,-0.04425,-0.06165,-0.04089,0.53528,-0.02945,-0.13794,-0.01984,-0.01038,-0.0145,-0.01709,-0.01633,-0.01602,-0.03326,-0.01877,0.01266,-0.04517
9.5965,-0.03677,-0.08102,-0.04593,0.30533,-0.03204,-0.0824,-0.0174,-0.01282,-0.0145,-0.01648,-0.01678,-0.00717,-0.03174,-0.01724,0.01404,-0.0441
9.597,-0.03174,-0.09186,-0.04883,0.05936,-0.03281,-0.05386,-0.01633,-0.0119,-0.01434,-0.01678,-0.01831,-0.00336,-0.0296,-0.01572,0.01328,-0.04288
9.5975,-0.02884,-0.08011,-0.05508,0.00046,-0.03159,-0.05432,-0.01572,-0.00992,-0.01434,-0.01831,-0.01816,-0.00046,-0.02594,-0.01495,0.01114,-0.04196
9.598,-0.02274,-0.04868,-0.08255,0.06836,-0.02838,-0.06363,-0.01389,-0.00702,-0.01526,-0.01801,-0.01709,-0.00931,-0.02411,-0.0148,0.00931,-0.04272
9.5985,-0.01404,-0.01663,-0.13397,0.10635,-0.02335,-0.06119,-0.01144,-0.00488,-0.01465,-0.01862,-0.01663,-0.04227,-0.02426,-0.01526,0.00854,-0.04456
9.599,-0.00946,-0.00107,-0.18097,0.08286,-0.02136,-0.05417,-0.00992,-0.00397,-0.01404,-0.01816,-0.01648,-0.08469,-0.02563,-0.01678,0.00824,-0.04517
9.5995,-0.01144,-0.00153,-0.18677,0.05325,-0.02304,-0.05157,-0.01282,-0.00305,-0.01236,-0.01755,-0.01633,-0.10971,-0.02502,-0.01633,0.00702,-0.04456
9.6,-0.01266,-0.00961,-0.1506,0.03555,-0.02701,-0.05249,-0.02197,-0.00076,-0.0116,-0.01678,-0.01663,-0.11688,-0.02365,-0.01434,0.00534,-0.0441
9.6005,-0.00946,-0.01984,-0.09888,0.0087,-0.03082,-0.05386,-0.03616,0.00275,-0.01129,-0.01511,-0.01633,-0.13306,-0.0235,-0.01419,0.00519,-0.04425
9.601,-0.00015,-0.03296,-0.05035,-0.02335,-0.03189,-0.05341,-0.04501,0.00504,-0.01068,-0.01511,-0.01602,-0.16037,-0.02441,-0.01602,0.00473,-0.0441
9.6015,0.01007,-0.04547,-0.0058,-0.03555,-0.03159,-0.05096,-0.04608,0.00473,-0.01129,-0.01602,-0.01495,-0.15381,-0.02594,-0.01831,0.00626,-0.04227
9.602,0.01663,-0.05585,0.02945,-0.02808,-0.0322,-0.04623,-0.0383,-0.00015,-0.0116,-0.01663,-0.01419,-0.08255,-0.02625,-0.01877,0.00565,-0.04074
9.6025,0.01633,-0.06073,0.04242,-0.01373,-0.03418,-0.03571,-0.02838,-0.00626,-0.01175,-0.01755,-0.01587,0.01984,-0.02548,-0.01846,0.00732,-0.04135
9.603,0.01312,-0.06393,0.03113,0.00763,-0.04105,-0.02243,-0.02045,-0.00977,-0.01175,-0.01755,-0.01801,0.09537,-0.02609,-0.01831,0.00854,-0.0415
9.6035,0.01114,-0.06592,0.00656,0.02914,-0.05096,-0.01266,-0.01801,-0.0058,-0.01129,-0.01709,-0.01877,0.14389,-0.02655,-0.01999,0.00839,-0.04181
9.604,0.01282,-0.06943,-0.01373,0.02441,-0.05875,-0.01038,-0.01877,0.00305,-0.01205,-0.01587,-0.0177,0.21774,-0.02762,-0.02014,0.00732,-0.0412
9.6045,0.01587,-0.07446,-0.02213,0.00275,-0.05783,-0.01389,-0.01312,0.01083,-0.01175,-0.01617,-0.01648,0.32349,-0.02792,-0.01968,0.00534,-0.04135
9.605,0.01892,-0.07584,-0.01953,0.02502,-0.04898,-0.0264,0.00351,0.01465,-0.01129,-0.01694,-0.01587,0.37918,-0.02731,-0.01846,0.00397,-0.04105
9.6055,0.02213,-0.06958,-0.01266,0.12543,-0.03876,-0.04471,0.02029,0.0119,-0.01129,-0.01724,-0.01694,0.31799,-0.02625,-0.01831,0.00336,-0.04013
9.606,0.03021,-0.05951,-0.00504,0.24292,-0.03494,-0.05859,0.01251,0.00504,-0.01297,-0.01587,-0.01801,0.19089,-0.02533,-0.01892,0.00443,-0.03952
9.6065,0.03906,-0.05219,-0.00443,0.27405,-0.03601,-0.05249,-0.01968,-0.00183,-0.01511,-0.01389,-0.01816,0.10239,-0.02487,-0.01938,0.00534,-0.03967
9.607,0.0415,-0.05096,-0.02579,0.18402,-0.03876,-0.0238,-0.05737,-0.00687,-0.01678,-0.01221,-0.01755,0.0766,-0.02563,-0.02045,0.00565,-0.04105
9.6075,0.03403,-0.05844,-0.08545,0.03952,-0.03937,0.00305,-0.07919,-0.01144,-0.01663,-0.01175,-0.01633,0.06165,-0.02472,-0.01984,0.00519,-0.0415
9.608,0.02228,-0.07355,-0.16663,-0.07492,-0.03937,-0.00107,-0.08057,-0.01709,-0.01587,-0.01282,-0.01556,0.01968,-0.02426,-0.01892,0.00504,-0.04196
9.6085,0.01389,-0.09125,-0.21652,-0.14328,-0.04013,-0.03922,-0.05493,-0.01877,-0.01556,-0.01373,-0.0145,-0.02487,-0.02472,-0.01816,0.00641,-0.04135
9.609,0.00839,-0.09872,-0.19531,-0.20187,-0.04166,-0.08194,0.00824,-0.01266,-0.01495,-0.01556,-0.01434,-0.02808,-0.02747,-0.02014,0.00549,-0.04074
9.6095,0.00336,-0.08804,-0.11642,-0.26718,-0.04303,-0.10162,0.08606,-0.00198,-0.01495,-0.01541,-0.01343,0.0174,-0.02945,-0.02213,0.00626,-0.03922
9.61,-0.00473,-0.06516,-0.02304,-0.31265,-0.04379,-0.09674,0.12497,0.00656,-0.01541,-0.0148,-0.01312,0.07294,-0.02808,-0.02167,0.00595,-0.0386
9.6105,-0.01465,-0.04181,0.05402,-0.31219,-0.04242,-0.09369,0.10727,0.01053,-0.01556,-0.01404,-0.01373,0.08316,-0.02716,-0.02136,0.00702,-0.03998
9.611,-0.02945,-0.02625,0.10834,-0.27206,-0.03738,-0.10468,0.07538,0.01053,-0.01419,-0.01373,-0.01572,0.0267,-0.02731,-0.02213,0.0061,-0.04166
9.6115,-0.04822,-0.01785,0.13519,-0.22675,-0.03082,-0.10849,0.0621,0.00885,-0.01404,-0.01419,-0.01709,-0.05829,-0.02808,-0.02151,0.00519,-0.04181
9.612,-0.06561,-0.01526,0.13046,-0.21835,-0.02533,-0.07965,0.04654,0.00229,-0.01511,-0.01541,-0.01755,-0.10956,-0.0293,-0.02045,0.0061,-0.0412
9.6125,-0.07324,-0.0174,0.10361,-0.26474,-0.02197,-0.03372,-0.00565,-0.00732,-0.01587,-0.0177,-0.01724,-0.10101,-0.03021,-0.01968,0.00732,-0.04074
9.613,-0.06897,-0.02426,0.07401,-0.34714,-0.01801,-0.00244,-0.07095,-0.01678,-0.01389,-0.01877,-0.01801,-0.06027,-0.0325,-0.02075,0.00763,-0.04105
9.6135,-0.0592,-0.03235,0.05569,-0.42038,-0.01251,-0.00229,-0.09018,-0.02258,-0.01129,-0.01709,-0.01923,-0.02609,-0.03357,-0.02121,0.00717,-0.04074
9.614,-0.04517,-0.0354,0.04822,-0.43289,-0.00839,-0.01404,-0.04868,-0.02441,-0.01022,-0.01602,-0.01938,-0.01678,-0.03387,-0.02213,0.00549,-0.04105
9.6145,-0.02838,-0.0322,0.03754,-0.3569,-0.00656,-0.01419,-0.00137,-0.0209,-0.01099,-0.01602,-0.01953,-0.02899,-0.03265,-0.02182,0.00473,-0.03983
9.615,-0.00916,-0.02991,0.01083,-0.20905,-0.0087,-0.00702,0.00183,-0.01312,-0.0119,-0.01633,-0.01953,-0.05127,-0.03311,-0.02182,0.0029,-0.03906
9.6155,0.00641,-0.03174,-0.02411,-0.02792,-0.01144,-0.00549,-0.02426,-0.00336,-0.01343,-0.01526,-0.01938,-0.06821,-0.03433,-0.02136,0.00137,-0.03952
9.616,0.01358,-0.03586,-0.05219,0.186,-0.0145,-0.0119,-0.03815,0.00229,-0.01404,-0.01663,-0.01938,-0.06775,-0.03662,-0.02106,0.00031,-0.04013
9.6165,0.01343,-0.0383,-0.06393,0.45639,-0.01724,-0.01968,-0.02655,0.00244,-0.01434,-0.01663,-0.01968,-0.05188,-0.0383,-0.01999,0.00107,-0.04211
9.617,0.01358,-0.0412,-0.06546,0.72983,-0.02014,-0.02502,-0.0119,-0.00061,-0.01373,-0.01785,-0.01892,-0.03296,-0.03891,-0.01938,0.00366,-0.04425
9.6175,0.0145,-0.04623,-0.06393,0.84427,-0.02182,-0.03113,-0.01038,-0.00198,-0.01343,-0.01923,-0.01907,-0.01663,-0.03922,-0.01923,0.00717,-0.04364
9.618,0.01312,-0.05112,-0.06546,0.68604,-0.02762,-0.03784,-0.01495,-0.00153,-0.01541,-0.01984,-0.01938,-0.00534,-0.03799,-0.01984,0.00992,-0.0415
9.6185,0.00793,-0.05005,-0.0708,0.35583,-0.02991,-0.03998,-0.01495,0.00061,-0.01724,-0.01984,-0.01999,0.00061,-0.03555,-0.02045,0.01083,-0.04028
9.619,0.00183,-0.04318,-0.08316,0.07339,-0.03265,-0.03998,-0.01312,0.00214,-0.0174,-0.01892,-0.0206,-0.00443,-0.03357,-0.01999,0.00946,-0.04059
9.6195,-0.00122,-0.03799,-0.10162,-0.08133,-0.0351,-0.04044,-0.01343,0.00351,-0.01587,-0.01846,-0.01999,-0.03723,-0.03372,-0.01877,0.00732,-0.03937
9.62,0.00168,-0.03845,-0.11642,-0.23285,-0.03723,-0.04059,-0.01617,0.00275,-0.01434,-0.01709,-0.02045,-0.1091,-0.03571,-0.01831,0.00671,-0.03738
9.6205,0.01114,-0.04395,-0.11948,-0.4924,-0.03632,-0.04288,-0.01831,-0.00244,-0.01495,-0.01648,-0.02136,-0.18539,-0.03799,-0.01831,0.00763,-0.0351
9.621,0.02136,-0.05493,-0.10742,-0.74982,-0.0354,-0.04425,-0.01999,-0.01053,-0.01526,-0.0174,-0.02274,-0.20218,-0.03891,-0.0177,0.00565,-0.0354
9.6215,0.02563,-0.07095,-0.08316,-0.78842,-0.03845,-0.04715,-0.02289,-0.0145,-0.01556,-0.01877,-0.02304,-0.12772,-0.03845,-0.01846,0.00443,-0.0383
9.622,0.02533,-0.08575,-0.05478,-0.57251,-0.04135,-0.05325,-0.02258,-0.01282,-0.01587,-0.01968,-0.02182,0.00244,-0.03616,-0.01984,0.00458,-0.04089
9.6225,0.02594,-0.09796,-0.03189,-0.29877,-0.04456,-0.05707,-0.0206,-0.00702,-0.01663,-0.01984,-0.02029,0.12909,-0.03555,-0.02106,0.00793,-0.04257
9.623,0.03189,-0.11017,-0.0148,-0.14923,-0.04456,-0.06119,-0.01816,-0.00092,-0.01816,-0.01907,-0.01984,0.20615,-0.03586,-0.02136,0.01526,-0.04196
9.6235,0.04044,-0.11902,-0.00107,-0.09766,-0.04227,-0.06302,-0.01511,0.00473,-0.01892,-0.01907,-0.02121,0.21454,-0.03708,-0.01984,0.02213,-0.04105
9.624,0.04669,-0.11749,0.00671,-0.00641,-0.03845,-0.06439,-0.01434,0.00916,-0.0177,-0.01984,-0.02319,0.15564,-0.03723,-0.01907,0.02792,-0.03998
9.6245,0.04517,-0.10391,0.00717,0.17014,-0.03586,-0.06287,-0.01434,0.009,-0.01694,-0.01999,-0.02457,0.05325,-0.03632,-0.01801,0.03006,-0.0386
9.625,0.04013,-0.08713,0.00519,0.32486,-0.0322,-0.05264,-0.0174,0.00488,-0.01663,-0.01877,-0.02304,-0.04395,-0.03693,-0.01816,0.03311,-0.03815
9.6255,0.03845,-0.06775,0.00092,0.33951,-0.03189,-0.03922,-0.02182,-0.00214,-0.01709,-0.01801,-0.02121,-0.08972,-0.03891,-0.01862,0.03326,-0.03815
9.626,0.04272,-0.04105,-0.00687,0.22003,-0.03433,-0.03067,-0.02426,-0.0087,-0.01678,-0.01846,-0.01999,-0.08301,-0.04013,-0.01968,0.02365,-0.04044
9.6265,0.04623,-0.0087,-0.01587,0.09003,-0.03571,-0.02945,-0.02441,-0.01389,-0.0174,-0.01999,-0.01907,-0.0621,-0.03967,-0.01999,-0.00153,-0.04349
9.627,0.04349,0.01968,-0.02319,0.05463,-0.03601,-0.03296,-0.02319,-0.01816,-0.01785,-0.01999,-0.01892,-0.0563,-0.03632,-0.01938,-0.03357,-0.04562
9.6275,0.03754,0.03967,-0.02945,0.09598,-0.03601,-0.03494,-0.02106,-0.02121,-0.01846,-0.01984,-0.01984,-0.06058,-0.03372,-0.01755,-0.047,-0.04639
9.628,0.03372,0.05569,-0.03738,0.13855,-0.03693,-0.0383,-0.01816,-0.01709,-0.01831,-0.01953,-0.02014,-0.0563,-0.03281,-0.01724,-0.0322,-0.04608
9.6285,0.03311,0.06851,-0.04761,0.14954,-0.03738,-0.04425,-0.01694,-0.00687,-0.0174,-0.01862,-0.01968,-0.03342,-0.03464,-0.01816,-0.00275,-0.04608
9.629,0.03113,0.07599,-0.05234,0.14877,-0.03876,-0.05585,-0.01892,0.00473,-0.01602,-0.01862,-0.01816,0.01266,-0.03647,-0.01923,0.01236,-0.04593
9.6295,0.02502,0.07599,-0.05142,0.15259,-0.03708,-0.0705,-0.02487,0.01221,-0.0148,-0.01907,-0.01694,0.06531,-0.03723,-0.01984,0.01038,-0.04562
9.63,0.01892,0.06821,-0.04532,0.15106,-0.03387,-0.07782,-0.03296,0.01541,-0.0145,-0.01984,-0.01709,0.08652,-0.03693,-0.0206,0.00519,-0.0444
9.6305,0.01678,0.05188,-0.04257,0.13092,-0.03143,-0.07187,-0.04333,0.01862,-0.01541,-0.02029,-0.0174,0.05997,-0.03708,-0.02075,0.00519,-0.04288
9.631,0.01816,0.0296,-0.04501,0.09689,-0.03082,-0.05753,-0.05814,0.02457,-0.01678,-0.01984,-0.01785,0.01816,-0.03815,-0.02029,0.0087,-0.04181
9.6315,0.02045,0.00397,-0.0499,0.05859,-0.03143,-0.04715,-0.07187,0.02838,-0.01785,-0.01831,-0.01724,0.0029,-0.03937,-0.01892,0.01038,-0.04196
9.632,0.02014,-0.01709,-0.05264,0.01648,-0.03189,-0.05753,-0.07339,0.02136,-0.01816,-0.01633,-0.01678,0.01465,-0.03983,-0.0177,0.01007,-0.04196
9.6325,0.01877,-0.03021,-0.05066,-0.0383,-0.03143,-0.08316,-0.05844,-0.00107,-0.01816,-0.01572,-0.01816,0.02594,-0.03983,-0.01816,0.01007,-0.04242
9.633,0.01831,-0.03464,-0.04562,-0.12497,-0.03143,-0.10529,-0.03799,-0.02899,-0.0174,-0.01556,-0.01663,0.02029,-0.03891,-0.01831,0.01007,-0.04288
9.6335,0.01892,-0.03464,-0.04028,-0.24017,-0.03067,-0.10513,-0.03082,-0.04456,-0.01617,-0.01572,-0.01404,0.00824,-0.03799,-0.01801,0.01007,-0.04257
9.634,0.01938,-0.03708,-0.03891,-0.32867,-0.03036,-0.08408,-0.04211,-0.03845,-0.01526,-0.01541,-0.01251,-0.00244,-0.03891,-0.01694,0.00931,-0.0415
9.6345,0.01419,-0.0412,-0.04074,-0.33279,-0.03036,-0.06073,-0.05371,-0.02213,-0.01389,-0.01617,-0.01404,-0.01099,-0.04059,-0.01678,0.0087,-0.04044
9.635,0.00549,-0.04532,-0.04272,-0.26291,-0.03403,-0.04318,-0.03891,-0.01022,-0.01434,-0.01724,-0.01434,-0.01511,-0.0412,-0.0174,0.0087,-0.04044
9.6355,-0.00137,-0.04501,-0.04272,-0.16968,-0.03662,-0.02731,0.01175,-0.01099,-0.01587,-0.01831,-0.01312,-0.01129,-0.04105,-0.01709,0.00854,-0.04211
9.636,-0.00214,-0.04425,-0.03891,-0.04593,-0.03723,-0.01663,0.07095,-0.02121,-0.01709,-0.01877,-0.01099,-0.0029,-0.03983,-0.01587,0.00961,-0.04318
9.6365,0.00183,-0.04669,-0.03418,0.19592,-0.03647,-0.01511,0.08423,-0.03235,-0.0177,-0.01801,-0.01053,-0.00824,-0.03845,-0.01648,0.00977,-0.04303
9.637,0.00717,-0.05096,-0.03159,0.58044,-0.03571,-0.02823,0.02792,-0.03708,-0.01801,-0.01755,-0.01083,-0.0351,-0.0383,-0.01892,0.01022,-0.04196
9.6375,0.01099,-0.05493,-0.03067,0.90454,-0.0354,-0.0441,-0.04349,-0.03342,-0.01877,-0.01816,-0.01022,-0.05997,-0.03891,-0.02151,0.0116,-0.0412
9.638,0.01343,-0.0589,-0.03006,0.90057,-0.03494,-0.04837,-0.06012,-0.02502,-0.01938,-0.01862,-0.01144,-0.0502,-0.03937,-0.0206,0.01236,-0.04059
9.6385,0.01312,-0.06317,-0.0293,0.55939,-0.03265,-0.04486,-0.03372,-0.01663,-0.01877,-0.01999,-0.01282,-0.0061,-0.03983,-0.01984,0.01282,-0.04013
9.639,0.01175,-0.06546,-0.02853,0.15594,-0.03189,-0.04013,-0.02472,-0.00946,-0.01831,-0.02106,-0.01434,0.03769,-0.04166,-0.01984,0.01266,-0.03906
9.6395,0.00992,-0.0647,-0.02991,-0.07996,-0.0322,-0.03983,-0.04364,-0.00412,-0.01877,-0.01999,-0.01526,0.05112,-0.04395,-0.01999,0.01205,-0.03891
9.64,0.00885,-0.06241,-0.0322,-0.16556,-0.03159,-0.04379,-0.0528,-0.00046,-0.01984,-0.01953,-0.01343,0.02655,-0.04501,-0.01953,0.01068,-0.03937
9.6405,0.00854,-0.06058,-0.0354,-0.20874,-0.03342,-0.04623,-0.04379,0.00076,-0.0209,-0.01923,-0.01144,-0.02182,-0.04501,-0.02014,0.00992,-0.03967
9.641,0.00824,-0.06073,-0.0412,-0.22629,-0.03525,-0.04761,-0.04898,0.00046,-0.02167,-0.01923,-0.01083,-0.06393,-0.04288,-0.02167,0.01129,-0.04028
9.6415,0.00626,-0.06348,-0.04929,-0.19684,-0.03555,-0.04562,-0.07431,-0.00031,-0.0206,-0.0209,-0.01144,-0.07141,-0.04044,-0.02151,0.01251,-0.04028
9.642,0.00366,-0.06683,-0.05554,-0.17715,-0.03464,-0.04364,-0.07782,-0.00229,-0.01877,-0.02258,-0.01266,-0.04272,-0.03738,-0.02045,0.01282,-0.03876
9.6425,0.00214,-0.0679,-0.05463,-0.24841,-0.03265,-0.04333,-0.02106,-0.00519,-0.01648,-0.0235,-0.01251,-0.00122,-0.03464,-0.01862,0.01099,-0.03662
9.643,0.00244,-0.0647,-0.04745,-0.3833,-0.03265,-0.04379,0.06439,-0.00656,-0.01602,-0.02258,-0.01099,0.02609,-0.03204,-0.0174,0.01114,-0.03708
9.6435,0.0032,-0.05966,-0.03922,-0.45746,-0.03448,-0.04578,0.10101,-0.00854,-0.01663,-0.02121,-0.01083,0.02884,-0.03082,-0.01556,0.01129,-0.0383
9.644,0.00397,-0.05661,-0.03281,-0.3949,-0.03448,-0.04883,0.06454,-0.0119,-0.01831,-0.01999,-0.01144,0.00839,-0.02991,-0.0119,0.01114,-0.03937
9.6445,0.00549,-0.05447,-0.02548,-0.24338,-0.03433,-0.05035,0.00076,-0.01678,-0.01907,-0.01953,-0.01266,-0.02396,-0.0296,-0.00641,0.01022,-0.03952
9.645,0.00702,-0.05341,-0.01648,-0.0914,-0.03403,-0.05356,-0.05432,-0.01846,-0.01831,-0.01953,-0.01129,-0.05554,-0.02991,-0.00595,0.0087,-0.03937
9.6455,0.0087,-0.056,-0.009,0.03204,-0.03342,-0.05478,-0.10223,-0.01236,-0.01816,-0.01999,-0.00931,-0.06866,-0.03021,-0.0119,0.00702,-0.03922
9.646,0.00809,-0.06226,-0.0058,0.14679,-0.03281,-0.05478,-0.12558,0.00229,-0.01831,-0.02014,-0.009,-0.047,-0.02975,-0.01892,0.00687,-0.03799
9.6465,0.0058,-0.06729,-0.0087,0.23697,-0.0325,-0.05219,-0.08636,0.01862,-0.0177,-0.02045,-0.00961,0.00687,-0.03036,-0.02213,0.00656,-0.03784
9.647,0.00168,-0.06561,-0.01541,0.24033,-0.03174,-0.05005,-0.00305,0.02777,-0.01709,-0.0206,-0.00992,0.05875,-0.03128,-0.02151,0.00626,-0.03738
9.6475,-0.00092,-0.0589,-0.02609,0.14023,-0.0296,-0.05051,0.04898,0.02762,-0.0174,-0.0209,-0.01007,0.0679,-0.03265,-0.02014,0.00641,-0.03799
9.648,0.0,-0.05371,-0.04745,0.02274,-0.02533,-0.05127,0.02243,0.02258,-0.01801,-0.0209,-0.0087,0.03021,-0.0325,-0.01907,0.0058,-0.03967
9.6485,0.00168,-0.05005,-0.07889,-0.00671,-0.02045,-0.0531,-0.03693,0.01129,-0.01785,-0.01892,-0.009,-0.01282,-0.03311,-0.01953,0.00519,-0.04059
9.649,0.00183,-0.04395,-0.10376,0.0502,-0.0148,-0.05539,-0.03922,-0.00778,-0.01678,-0.01678,-0.00992,-0.01114,-0.03418,-0.02075,0.00504,-0.04105
9.6495,0.00046,-0.03616,-0.10208,0.10651,-0.01266,-0.05585,0.04715,-0.02991,-0.01541,-0.01617,-0.01022,0.04089,-0.03479,-0.02136,0.00687,-0.04089
9.65,-0.00168,-0.03098,-0.07477,0.09918,-0.01663,-0.06134,0.15671,-0.04181,-0.01495,-0.0145,-0.0119,0.09201,-0.03586,-0.0209,0.00992,-0.04089
9.6505,-0.00351,-0.0325,-0.04089,0.04242,-0.02182,-0.06454,0.20416,-0.04105,-0.01526,-0.01617,-0.01389,0.0946,-0.03647,-0.01938,0.01129,-0.04242
9.651,-0.00458,-0.03616,-0.0148,-0.02594,-0.02686,-0.06638,0.17731,-0.03784,-0.01709,-0.01663,-0.01648,0.04715,-0.03677,-0.01862,0.00977,-0.04257
9.6515,-0.00549,-0.03754,0.00275,-0.07431,-0.02655,-0.06332,0.12543,-0.0386,-0.01801,-0.01663,-0.01572,-0.01678,-0.03708,-0.01831,0.00763,-0.04257
9.652,-0.00839,-0.03616,0.01526,-0.08026,-0.02579,-0.0676,0.08087,-0.03815,-0.01816,-0.0174,-0.0145,-0.0676,-0.03723,-0.01938,0.00671,-0.04211
9.6525,-0.01434,-0.03647,0.02075,-0.0441,-0.03082,-0.07797,0.04807,-0.02792,-0.01724,-0.01968,-0.01389,-0.09262,-0.03815,-0.02075,0.00656,-0.04089
9.653,-0.02167,-0.03662,0.01465,-0.00626,-0.03998,-0.08347,0.03204,-0.00931,-0.01617,-0.02182,-0.01465,-0.08926,-0.0386,-0.02136,0.00565,-0.03967
9.6535,-0.02502,-0.03754,0.00412,-0.00931,-0.05142,-0.06805,0.04349,0.01068,-0.01526,-0.02136,-0.01556,-0.06653,-0.03799,-0.01984,0.00458,-0.03891
9.654,-0.02365,-0.0412,-0.00427,-0.06134,-0.06104,-0.03906,0.06821,0.02289,-0.01541,-0.01907,-0.01541,-0.03662,-0.03616,-0.01907,0.00427,-0.03906
9.6545,-0.02045,-0.04974,-0.0145,-0.12085,-0.06378,-0.01862,0.07355,0.02182,-0.01526,-0.01724,-0.0148,-0.00595,-0.03418,-0.01801,0.00519,-0.03983
9.655,-0.01846,-0.05905,-0.04181,-0.12924,-0.05707,-0.01892,0.04333,0.00885,-0.01572,-0.01755,-0.01465,0.02502,-0.0351,-0.01877,0.00534,-0.04013
9.6555,-0.01862,-0.06393,-0.09232,-0.05234,-0.04608,-0.02029,-0.00061,-0.00458,-0.01526,-0.01892,-0.01328,0.0531,-0.03662,-0.01968,0.00381,-0.03967
9.656,-0.01785,-0.06744,-0.13718,0.07431,-0.03693,-0.00122,-0.02823,-0.00839,-0.01404,-0.01923,-0.01266,0.07309,-0.03601,-0.01999,0.00259,-0.03922
9.6565,-0.01755,-0.07538,-0.13687,0.14725,-0.03204,0.01831,-0.03204,-0.00137,-0.01358,-0.01907,-0.01236,0.08377,-0.03525,-0.01923,0.00336,-0.03937
9.657,-0.0209,-0.08362,-0.09033,0.09369,-0.02991,0.01099,-0.03128,0.00717,-0.0145,-0.01755,-0.01312,0.08682,-0.0351,-0.01877,0.00488,-0.03952
9.6575,-0.0267,-0.08499,-0.03128,-0.04089,-0.03174,-0.0235,-0.04852,0.01175,-0.0148,-0.0174,-0.01328,0.08224,-0.03418,-0.01907,0.00534,-0.0386
9.658,-0.03006,-0.07858,0.01404,-0.15076,-0.03525,-0.04593,-0.09003,0.01404,-0.01343,-0.01755,-0.01343,0.07507,-0.03326,-0.01831,0.00519,-0.03922
9.6585,-0.02747,-0.06973,0.04349,-0.19104,-0.03891,-0.03143,-0.14465,0.01587,-0.01282,-0.0174,-0.01389,0.07004,-0.03159,-0.0177,0.00519,-0.04028
9.659,-0.02167,-0.05981,0.05829,-0.19424,-0.03937,-0.00092,-0.18234,0.01816,-0.01343,-0.01678,-0.01434,0.06622,-0.02991,-0.01694,0.00778,-0.0412
9.6595,-0.01633,-0.04715,0.05035,-0.19897,-0.03403,0.01251,-0.17975,0.01755,-0.0145,-0.01602,-0.01358,0.05859,-0.02777,-0.01755,0.00977,-0.04013
9.66,-0.01404,-0.0322,0.0235,-0.21057,-0.02731,-0.01266,-0.13336,0.01266,-0.0145,-0.01694,-0.0119,0.04364,-0.0267,-0.01663,0.01022,-0.04044
9.6605,-0.01358,-0.01907,-0.00671,-0.22141,-0.02243,-0.06393,-0.06073,0.00763,-0.01358,-0.0177,-0.0119,0.02747,-0.02808,-0.01587,0.00748,-0.04181
9.661,-0.01129,-0.01129,-0.02808,-0.21622,-0.02228,-0.11017,0.01801,0.00626,-0.01282,-0.01785,-0.01328,0.01648,-0.03067,-0.01587,0.00458,-0.04318
9.6615,-0.00748,-0.00565,-0.03738,-0.18066,-0.02258,-0.12833,0.07843,0.00717,-0.01266,-0.0177,-0.01526,0.01053,-0.03143,-0.01648,0.0058,-0.04242
9.662,-0.00381,-0.00031,-0.03876,-0.11688,-0.02151,-0.11551,0.09384,0.00351,-0.01251,-0.0177,-0.01602,0.00732,-0.03082,-0.01709,0.00885,-0.04074
9.6625,0.00046,0.00488,-0.03647,-0.04547,-0.01923,-0.0824,0.06149,-0.00961,-0.01282,-0.01785,-0.01511,0.00427,-0.02747,-0.01755,0.00992,-0.0412
9.663,0.00534,0.00885,-0.03433,0.00519,-0.01221,-0.04517,0.02853,-0.02716,-0.01282,-0.01755,-0.01358,0.00107,-0.02579,-0.01678,0.01007,-0.04105
