time,RectFemL,VastusMedL,VastusLatL,TibAntL,HamMedL,HamLatL,GastroMedL,GastroLatL,RectFemR,VastusMedR,VastusLatR,TibAntR,HamMedR,HamLatR,GastroMedR,GastroLatR
4.9,-0.07645,0.13474,-0.10193,-0.19852,-0.03098,-0.04242,-0.0177,-0.01068,-0.01877,0.03387,0.04196,0.07553,-0.0235,-0.02258,0.01282,-0.03464
4.9005,-0.0824,0.12451,-0.12451,-0.21317,-0.02838,-0.03983,-0.01831,-0.00839,-0.0351,0.07034,0.02792,0.03815,-0.02197,-0.02106,0.01205,-0.03677
4.901,-0.08087,0.1059,-0.13153,-0.1857,-0.02701,-0.03967,-0.01938,-0.00641,-0.04166,0.10284,0.0209,-0.11719,-0.02304,-0.01923,0.01175,-0.03906
4.9015,-0.07263,0.08316,-0.12543,-0.12985,-0.02762,-0.04059,-0.0209,-0.00519,-0.03433,0.11993,0.00732,-0.21317,-0.02502,-0.01831,0.01144,-0.04089
4.902,-0.06317,0.05554,-0.10925,-0.07751,-0.02777,-0.03952,-0.02045,-0.00458,-0.02136,0.11948,-0.02197,-0.16373,-0.02472,-0.01877,0.01144,-0.04074
4.9025,-0.05386,0.02365,-0.09262,-0.03845,-0.02731,-0.0383,-0.02014,-0.00397,-0.01801,0.10849,-0.06439,-0.06897,-0.02197,-0.01724,0.01175,-0.04013
4.903,-0.0412,-0.00824,-0.08148,0.00153,-0.02655,-0.03891,-0.01755,-0.00488,-0.02319,0.09552,-0.10376,-0.01923,-0.01984,-0.0116,0.01022,-0.0415
4.9035,-0.02274,-0.02899,-0.0769,0.05692,-0.02686,-0.03952,-0.0145,-0.00473,-0.02426,0.08316,-0.12604,0.01495,-0.0177,-0.00458,0.01022,-0.04456
4.904,-0.00183,-0.03738,-0.07568,0.1239,-0.02747,-0.04028,-0.01328,-0.00458,-0.01678,0.06912,-0.13077,0.0827,-0.0177,0.00244,0.00992,-0.0473
4.9045,0.01419,-0.04501,-0.07401,0.18646,-0.02747,-0.0386,-0.01419,-0.00443,-0.00885,0.05066,-0.12299,0.14801,-0.01801,0.00656,0.00992,-0.04639
4.905,0.01724,-0.06577,-0.06958,0.22385,-0.02731,-0.03845,-0.01663,-0.00534,-0.00443,0.02716,-0.10696,0.13748,-0.01877,0.0061,0.00656,-0.04349
4.9055,0.00793,-0.09384,-0.06348,0.21149,-0.02777,-0.03937,-0.01801,-0.00641,0.00336,-0.00183,-0.08453,0.03372,-0.01907,0.00305,0.0029,-0.04013
4.906,-0.00488,-0.1152,-0.05814,0.13397,-0.02823,-0.0386,-0.0177,-0.00565,0.01511,-0.03326,-0.05829,-0.08881,-0.01984,0.00168,0.00137,-0.03891
4.9065,-0.01694,-0.12115,-0.05707,0.01526,-0.02762,-0.03632,-0.01663,-0.00305,0.02228,-0.0589,-0.03265,-0.13474,-0.02075,0.00244,0.00122,-0.03937
4.907,-0.0235,-0.1178,-0.06149,-0.09827,-0.02701,-0.03418,-0.01389,-0.00137,0.0206,-0.06927,-0.009,-0.09201,-0.02029,0.00229,0.00381,-0.04044
4.9075,-0.02487,-0.11047,-0.06668,-0.1828,-0.02808,-0.03632,-0.01144,-0.00107,0.01877,-0.06912,0.0119,-0.03464,-0.0206,-0.00061,0.00641,-0.04181
4.908,-0.02853,-0.09979,-0.06943,-0.2356,-0.02899,-0.03983,-0.01175,-0.00137,0.02106,-0.0676,0.02808,-0.01923,-0.02289,-0.00549,0.0061,-0.04349
4.9085,-0.04517,-0.0853,-0.06851,-0.25101,-0.03128,-0.04211,-0.01434,-0.00244,0.02228,-0.07004,0.03769,-0.02396,-0.02716,-0.0087,0.00488,-0.04395
4.909,-0.06805,-0.06912,-0.06042,-0.215,-0.03265,-0.04303,-0.01678,-0.0029,0.0116,-0.07523,0.04501,-0.01266,-0.03082,-0.00885,0.00427,-0.04318
4.9095,-0.07492,-0.05463,-0.0444,-0.14023,-0.03067,-0.04395,-0.01633,-0.00214,-0.01358,-0.0769,0.05356,0.01022,-0.03189,-0.00763,0.00534,-0.04089
4.91,-0.05692,-0.04181,-0.01602,-0.0798,-0.03113,-0.04486,-0.01343,0.00076,-0.03571,-0.0737,0.06287,0.01572,-0.03265,-0.0061,0.00519,-0.03906
4.9105,-0.02441,-0.03189,0.02289,-0.07935,-0.03403,-0.04517,-0.01099,0.00412,-0.03128,-0.07065,0.06348,0.00061,-0.03387,-0.00778,0.00549,-0.03906
4.911,0.00427,-0.02655,0.05386,-0.11749,-0.03586,-0.04623,-0.00961,0.00488,-0.00046,-0.07141,0.05173,-0.01785,-0.03464,-0.01221,0.0058,-0.03937
4.9115,0.02106,-0.03067,0.05264,-0.1181,-0.03555,-0.04517,-0.00916,0.00198,0.03571,-0.07675,0.03479,-0.02823,-0.03433,-0.01617,0.00595,-0.03983
4.912,0.02045,-0.04242,0.01663,-0.04547,-0.03372,-0.04547,-0.00977,-0.00214,0.06241,-0.08392,0.02335,-0.03082,-0.03525,-0.01831,0.00656,-0.04013
4.9125,0.00702,-0.05905,-0.02945,0.04456,-0.03357,-0.0441,-0.01038,-0.00626,0.07477,-0.0882,0.02121,-0.02731,-0.03677,-0.02075,0.00824,-0.03952
4.913,-0.00443,-0.07843,-0.0531,0.0766,-0.03342,-0.04318,-0.01175,-0.00854,0.06805,-0.08545,0.01724,-0.01755,-0.0386,-0.02411,0.00992,-0.03922
4.9135,0.00229,-0.09903,-0.0209,0.04059,-0.0325,-0.0441,-0.01297,-0.00977,0.04364,-0.08057,-0.00366,-0.00824,-0.03876,-0.02609,0.00885,-0.04074
4.914,0.02029,-0.11978,0.07721,-0.00458,-0.03052,-0.04517,-0.01556,-0.0116,0.01556,-0.0798,-0.03601,-0.00717,-0.03677,-0.02655,0.00916,-0.04379
4.9145,0.02686,-0.13351,0.20142,-0.00351,-0.03052,-0.04639,-0.01785,-0.01266,-0.00153,-0.08438,-0.05844,-0.01953,-0.03632,-0.02655,0.00839,-0.04395
4.915,0.01022,-0.13748,0.27145,0.05325,-0.03204,-0.04745,-0.01694,-0.0116,-0.00656,-0.08835,-0.05478,-0.04898,-0.03754,-0.02686,0.00809,-0.04074
4.9155,-0.01862,-0.13641,0.23804,0.15259,-0.03448,-0.0473,-0.01221,-0.00656,-0.01465,-0.0856,-0.03372,-0.09979,-0.03998,-0.02762,0.0087,-0.03784
4.916,-0.0383,-0.14221,0.13824,0.2742,-0.03464,-0.04822,-0.00977,-0.00092,-0.03632,-0.07446,-0.01785,-0.1503,-0.04257,-0.0293,0.00946,-0.03784
4.9165,-0.03967,-0.16815,0.05203,0.354,-0.03433,-0.04929,-0.01129,-0.00046,-0.05508,-0.05981,-0.0148,-0.14191,-0.04593,-0.03159,0.00977,-0.03922
4.917,-0.0264,-0.21088,0.01801,0.28793,-0.03296,-0.05096,-0.01343,-0.00366,-0.05112,-0.04883,-0.01801,-0.03357,-0.04868,-0.03433,0.00854,-0.03967
4.9175,-0.00641,-0.24597,0.00504,0.07324,-0.0322,-0.05219,-0.01251,-0.00656,-0.02716,-0.04623,-0.01953,0.11505,-0.05035,-0.03494,0.00671,-0.0386
4.918,0.01099,-0.24368,-0.03021,-0.12894,-0.03189,-0.05356,-0.00931,-0.00778,-0.00397,-0.05295,-0.01984,0.18448,-0.0502,-0.03357,0.00595,-0.0383
4.9185,0.0177,-0.20248,-0.09476,-0.16266,-0.03433,-0.05493,-0.00717,-0.00641,0.00534,-0.06302,-0.02182,0.15747,-0.04929,-0.03281,0.00656,-0.03967
4.919,0.01068,-0.14816,-0.16968,-0.04364,-0.03632,-0.05554,-0.00839,-0.00565,0.00839,-0.0705,-0.02075,0.13824,-0.04715,-0.03372,0.00793,-0.04135
4.9195,-0.00351,-0.0972,-0.23483,0.08286,-0.03647,-0.05493,-0.01022,-0.00519,0.01709,-0.07172,-0.01221,0.16342,-0.0441,-0.03326,0.00977,-0.04318
4.92,-0.01801,-0.0444,-0.27924,0.10803,-0.03601,-0.05386,-0.01022,-0.00412,0.02838,-0.05966,-0.00259,0.13916,-0.04166,-0.03036,0.01083,-0.04395
4.9205,-0.0296,0.00916,-0.29465,0.03342,-0.0351,-0.05356,-0.01007,-0.00366,0.0296,-0.03479,-0.00122,0.03952,-0.04013,-0.02655,0.0119,-0.04471
4.921,-0.03876,0.04639,-0.27969,-0.08041,-0.03494,-0.05447,-0.01114,-0.00504,0.01633,-0.00366,-0.00946,0.009,-0.0386,-0.0238,0.0119,-0.04257
4.9215,-0.04318,0.05966,-0.24216,-0.18097,-0.03464,-0.05554,-0.01251,-0.00824,-0.00259,0.0209,-0.01862,0.1535,-0.03754,-0.02274,0.01205,-0.03967
4.922,-0.04333,0.06516,-0.19287,-0.25574,-0.03372,-0.056,-0.01312,-0.00946,-0.01907,0.03769,-0.02411,0.32379,-0.03723,-0.02167,0.0116,-0.03815
4.9225,-0.03998,0.07919,-0.1387,-0.31021,-0.03387,-0.05661,-0.01266,-0.00793,-0.0322,0.05264,-0.03036,0.27466,-0.03708,-0.01938,0.01099,-0.03876
4.923,-0.03632,0.09705,-0.08926,-0.35522,-0.03494,-0.05585,-0.01083,-0.00504,-0.0412,0.06775,-0.03662,0.00275,-0.03464,-0.01678,0.00946,-0.04044
4.9235,-0.03403,0.10849,-0.04913,-0.38132,-0.0351,-0.05402,-0.00992,-0.00336,-0.04425,0.07919,-0.03662,-0.23788,-0.03067,-0.01373,0.00885,-0.04166
4.924,-0.03204,0.10925,-0.01938,-0.34119,-0.03281,-0.0528,-0.0116,-0.00412,-0.0383,0.07767,-0.02502,-0.27191,-0.02777,-0.01144,0.009,-0.04059
4.9245,-0.02243,0.10254,0.00809,-0.16724,-0.03098,-0.05142,-0.01541,-0.00366,-0.02945,0.05554,-0.0058,-0.18005,-0.02701,-0.01129,0.00732,-0.04074
4.925,-0.00458,0.08667,0.03937,0.16159,-0.03036,-0.05035,-0.01724,-0.00153,-0.02121,0.01114,0.01053,-0.12543,-0.02853,-0.01068,0.00565,-0.04196
4.9255,0.01114,0.065,0.07156,0.49667,-0.03082,-0.04898,-0.01511,0.00153,-0.01968,-0.03922,0.01923,-0.15015,-0.0293,-0.00977,0.00366,-0.04333
4.926,0.01465,0.04333,0.09766,0.55374,-0.03052,-0.04868,-0.01129,0.00427,-0.02243,-0.07523,0.02151,-0.18997,-0.02914,-0.009,0.00336,-0.04349
4.9265,0.01389,0.02823,0.10391,0.24338,-0.03067,-0.04807,-0.00977,0.00656,-0.0238,-0.08682,0.02838,-0.19089,-0.02747,-0.00854,0.00336,-0.04486
4.927,0.0235,0.0174,0.07278,-0.14816,-0.03098,-0.04745,-0.0116,0.00427,-0.01907,-0.07889,0.04242,-0.15533,-0.0267,-0.00946,0.00534,-0.04517
4.9275,0.03784,0.00397,0.00702,-0.27954,-0.03143,-0.04486,-0.01572,-0.00275,-0.01831,-0.05951,0.05173,-0.09201,-0.02716,-0.01053,0.00854,-0.04379
4.928,0.03448,-0.0145,-0.05737,-0.15747,-0.03159,-0.04196,-0.02121,-0.01114,-0.03387,-0.03128,0.0412,0.01114,-0.0293,-0.01175,0.01175,-0.04089
4.9285,0.00702,-0.0325,-0.08911,-0.03937,-0.03265,-0.04013,-0.02548,-0.01572,-0.05905,0.00473,0.009,0.14984,-0.03098,-0.01266,0.01434,-0.03906
4.929,-0.02914,-0.04364,-0.09201,-0.06866,-0.03281,-0.04028,-0.02563,-0.01404,-0.07095,0.04059,-0.02441,0.25452,-0.03021,-0.01434,0.01465,-0.0412
4.9295,-0.05157,-0.04623,-0.10529,-0.16785,-0.03281,-0.04044,-0.02243,-0.00961,-0.06165,0.06378,-0.04013,0.25116,-0.02869,-0.01556,0.01251,-0.04364
4.93,-0.0531,-0.04562,-0.14786,-0.21271,-0.03311,-0.03983,-0.01816,-0.00534,-0.04578,0.07111,-0.04089,0.15503,-0.02792,-0.01694,0.00854,-0.04654
4.9305,-0.03967,-0.04715,-0.19989,-0.17792,-0.03418,-0.03937,-0.01587,-0.00488,-0.03601,0.06454,-0.0386,0.05936,-0.02853,-0.01923,0.00656,-0.04883
4.931,-0.01602,-0.05127,-0.22797,-0.09888,-0.03571,-0.03967,-0.01572,-0.00595,-0.02884,0.05447,-0.03876,0.01984,-0.03036,-0.02029,0.00778,-0.0502
4.9315,0.01175,-0.0531,-0.22095,0.01816,-0.03677,-0.03937,-0.0148,-0.00595,-0.01297,0.05112,-0.04242,0.01175,-0.03143,-0.01984,0.01068,-0.0502
4.932,0.03616,-0.0528,-0.18585,0.1857,-0.03555,-0.03815,-0.01297,-0.00397,0.00519,0.05905,-0.05127,0.00443,-0.03189,-0.02029,0.01404,-0.04898
4.9325,0.04837,-0.05295,-0.13672,0.34592,-0.03586,-0.03799,-0.01144,-0.00061,0.01312,0.07599,-0.06302,0.00443,-0.03235,-0.02167,0.01373,-0.04608
4.933,0.04547,-0.05768,-0.08698,0.36743,-0.0351,-0.03922,-0.01099,0.00122,0.00641,0.09583,-0.06393,0.02747,-0.03281,-0.02335,0.01083,-0.04333
4.9335,0.0351,-0.06989,-0.04303,0.21942,-0.03494,-0.04028,-0.0119,0.0032,-0.00854,0.11444,-0.04715,0.07568,-0.03342,-0.02457,0.00839,-0.04211
4.934,0.02518,-0.08759,-0.00687,0.03677,-0.03525,-0.04044,-0.01404,0.00381,-0.01816,0.12573,-0.02365,0.13962,-0.0351,-0.02518,0.00504,-0.04211
4.9345,0.01709,-0.10345,0.0119,-0.05859,-0.03555,-0.0412,-0.01678,0.00336,-0.01511,0.12222,-0.01297,0.17746,-0.03647,-0.02518,0.0029,-0.04257
4.935,0.009,-0.10818,0.0029,-0.09399,-0.03479,-0.04318,-0.01755,0.00229,-0.00488,0.10849,-0.01755,0.12772,-0.03738,-0.02487,-0.00076,-0.04288
4.9355,0.00153,-0.10086,-0.02625,-0.11597,-0.03342,-0.04578,-0.01831,0.00168,0.00336,0.09506,-0.02487,0.00183,-0.03708,-0.02304,-0.00687,-0.04395
4.936,0.00076,-0.08942,-0.05066,-0.06805,-0.03311,-0.04929,-0.01862,0.00229,0.00656,0.08392,-0.02975,-0.10025,-0.0383,-0.02121,-0.01358,-0.04471
4.9365,0.00595,-0.08194,-0.05493,0.11841,-0.03311,-0.05112,-0.01968,0.00214,0.00916,0.0705,-0.03128,-0.10712,-0.03967,-0.01938,-0.02014,-0.04395
4.937,0.0119,-0.07935,-0.04288,0.36621,-0.0325,-0.05325,-0.01923,-0.00015,0.01099,0.05234,-0.0325,-0.06638,-0.04059,-0.01831,-0.02441,-0.04196
4.9375,0.01404,-0.07751,-0.02716,0.48309,-0.03143,-0.05585,-0.01694,-0.00153,0.00946,0.03479,-0.03281,-0.05783,-0.03952,-0.01953,-0.02838,-0.03998
4.938,0.01434,-0.07416,-0.01434,0.37003,-0.03174,-0.05798,-0.01556,-0.00107,-0.00137,0.02045,-0.03189,-0.08331,-0.03799,-0.0209,-0.03128,-0.04166
4.9385,0.01602,-0.0705,-0.00565,0.14099,-0.03448,-0.0592,-0.01755,-0.00168,-0.02457,0.00305,-0.02731,-0.08942,-0.03632,-0.0206,-0.03296,-0.04715
4.939,0.01709,-0.06744,0.00107,-0.01633,-0.03616,-0.06088,-0.02197,-0.00565,-0.05676,-0.02075,-0.01312,-0.05829,-0.03586,-0.01831,-0.02151,-0.05051
4.9395,0.01923,-0.06409,0.00748,-0.05875,-0.03662,-0.06287,-0.02457,-0.01068,-0.08789,-0.04486,0.00916,-0.02548,-0.03418,-0.01556,0.0119,-0.04837
4.94,0.0235,-0.06226,0.01541,-0.0737,-0.03494,-0.06378,-0.02258,-0.01144,-0.09827,-0.05829,0.02975,-0.0206,-0.03204,-0.01495,0.06165,-0.04272
4.9405,0.02121,-0.065,0.02396,-0.11719,-0.03372,-0.06256,-0.01648,-0.00931,-0.06516,-0.06042,0.03479,-0.02289,-0.03067,-0.01694,0.09811,-0.03891
4.941,0.00504,-0.07385,0.03143,-0.14893,-0.03403,-0.0592,-0.01251,-0.00549,0.00458,-0.05829,0.02289,0.00641,-0.03006,-0.01892,0.0943,-0.03693
4.9415,-0.01526,-0.08728,0.03876,-0.12634,-0.03525,-0.05539,-0.01266,-0.00183,0.06897,-0.0589,0.00885,0.04501,-0.02991,-0.01907,0.05661,-0.03586
4.942,-0.02472,-0.10086,0.05783,-0.08255,-0.03647,-0.0531,-0.0145,0.00015,0.08514,-0.06058,0.00626,0.02151,-0.0296,-0.01923,0.01602,-0.03586
4.9425,-0.01862,-0.11337,0.09781,-0.07782,-0.03815,-0.05234,-0.01389,-0.00015,0.0528,-0.06226,0.01221,-0.05737,-0.0293,-0.02182,-0.00031,-0.03632
4.943,-0.00824,-0.12772,0.14557,-0.11719,-0.03891,-0.05249,-0.01251,-0.00168,0.00198,-0.06821,0.01129,-0.06439,-0.03006,-0.02472,0.00198,-0.03616
4.9435,-0.00885,-0.14404,0.1712,-0.15305,-0.03723,-0.05325,-0.01266,-0.00168,-0.03693,-0.0856,-0.00305,0.0647,-0.03082,-0.02625,0.00732,-0.03647
4.944,-0.02747,-0.15869,0.15915,-0.15045,-0.03403,-0.05264,-0.01358,0.00046,-0.04364,-0.11154,-0.01556,0.20538,-0.03326,-0.02441,0.00763,-0.03952
4.9445,-0.05569,-0.16937,0.1207,-0.12192,-0.03098,-0.05157,-0.01343,0.00275,-0.01892,-0.13901,-0.00839,0.20508,-0.03494,-0.02396,0.00687,-0.04395
4.945,-0.08423,-0.17838,0.0798,-0.09964,-0.0293,-0.05081,-0.01236,0.00229,0.00427,-0.16205,0.01663,0.07507,-0.03616,-0.02502,0.00687,-0.04562
4.9455,-0.10544,-0.186,0.06119,-0.10452,-0.02823,-0.05219,-0.01282,-0.00061,-0.00168,-0.19058,0.0386,-0.06195,-0.03738,-0.02609,0.00824,-0.04456
4.946,-0.11856,-0.18753,0.07675,-0.1297,-0.02762,-0.05585,-0.01389,-0.00336,-0.03113,-0.22736,0.0415,-0.11917,-0.03799,-0.02457,0.00839,-0.04105
4.9465,-0.12482,-0.1767,0.11292,-0.14511,-0.0267,-0.05722,-0.01404,-0.00412,-0.05463,-0.27023,0.03036,-0.09079,-0.03677,-0.02167,0.00702,-0.03632
4.947,-0.12726,-0.15717,0.13321,-0.1207,-0.02533,-0.05661,-0.01266,-0.00366,-0.0592,-0.31113,0.01343,-0.02411,-0.03677,-0.01999,0.00748,-0.03098
4.9475,-0.12543,-0.13763,0.11307,-0.08316,-0.02609,-0.05508,-0.00961,-0.00366,-0.05173,-0.34088,-0.00977,0.01328,-0.03723,-0.02151,0.00809,-0.02884
4.948,-0.11841,-0.11627,0.05508,-0.08484,-0.03082,-0.05508,-0.00732,-0.00549,-0.0444,-0.35355,-0.04486,-0.01343,-0.0383,-0.0235,0.00763,-0.02991
4.9485,-0.1091,-0.08698,-0.01816,-0.12314,-0.03799,-0.05615,-0.00809,-0.0058,-0.0441,-0.34515,-0.08133,-0.06699,-0.03967,-0.02396,0.00443,-0.03235
4.949,-0.09552,-0.05066,-0.08789,-0.13367,-0.0444,-0.056,-0.00916,-0.0058,-0.04852,-0.31845,-0.10178,-0.0853,-0.04074,-0.0235,0.00336,-0.03403
4.9495,-0.07095,-0.01266,-0.13687,-0.07797,-0.04944,-0.05539,-0.0087,-0.00443,-0.0502,-0.28412,-0.09857,-0.06866,-0.04013,-0.02228,0.00488,-0.03525
4.95,-0.03571,0.02594,-0.15686,0.02121,-0.04959,-0.05386,-0.00702,-0.00397,-0.04929,-0.24857,-0.08194,-0.06989,-0.03845,-0.02167,0.00763,-0.03799
4.9505,-0.00595,0.07095,-0.15625,0.11978,-0.04608,-0.05203,-0.00702,-0.00305,-0.04761,-0.215,-0.06012,-0.10712,-0.03723,-0.02106,0.00778,-0.0412
4.951,0.00015,0.12039,-0.14862,0.17685,-0.03998,-0.05051,-0.00916,-0.00336,-0.05127,-0.17944,-0.02991,-0.13748,-0.0386,-0.01999,0.00763,-0.04517
4.9515,-0.01251,0.16113,-0.14252,0.168,-0.03296,-0.04868,-0.01144,-0.00504,-0.06348,-0.13504,0.00168,-0.11368,-0.04166,-0.01984,0.00671,-0.05051
4.952,-0.02426,0.17105,-0.13626,0.10452,-0.02853,-0.04776,-0.01373,-0.00763,-0.08545,-0.07477,0.01297,-0.04272,-0.04272,-0.02029,0.00534,-0.05783
4.9525,-0.02533,0.14252,-0.13016,0.03387,-0.02701,-0.04822,-0.01633,-0.00916,-0.11063,0.00412,-0.00702,0.04379,-0.04089,-0.02014,0.00381,-0.0621
4.953,-0.0206,0.0914,-0.12482,0.00031,-0.02853,-0.0473,-0.01526,-0.00885,-0.12421,0.09872,-0.04395,0.13092,-0.03677,-0.01984,0.00366,-0.06058
4.9535,-0.01495,0.04242,-0.12207,0.00168,-0.02655,-0.04425,-0.01266,-0.00702,-0.11154,0.20081,-0.07294,0.18997,-0.03235,-0.01984,0.00458,-0.05417
4.954,-0.00381,0.01221,-0.11795,0.00977,-0.02243,-0.04074,-0.01038,-0.00519,-0.07111,0.29831,-0.08575,0.168,-0.02869,-0.01984,0.00473,-0.04791
4.9545,0.01587,0.00412,-0.10651,0.0174,-0.01892,-0.03876,-0.01083,-0.00153,-0.02426,0.37506,-0.08469,0.08377,-0.02396,-0.01938,0.00168,-0.04547
4.955,0.03815,0.01114,-0.08209,0.05661,-0.01724,-0.03754,-0.01205,0.00229,0.00534,0.41779,-0.07614,0.03616,-0.01923,-0.01877,-0.00427,-0.04608
4.9555,0.05112,0.0206,-0.04456,0.15335,-0.01663,-0.03693,-0.01221,0.00534,0.02075,0.42725,-0.06363,0.06897,-0.01617,-0.01694,-0.00854,-0.047
4.956,0.04608,0.02548,-0.00336,0.2742,-0.01541,-0.03632,-0.01175,0.00671,0.03723,0.40802,-0.05585,0.11368,-0.01587,-0.01465,-0.00916,-0.04669
4.9565,0.02396,0.02777,0.03189,0.33981,-0.01495,-0.03616,-0.01038,0.00687,0.05432,0.37766,-0.05722,0.10864,-0.01801,-0.01282,-0.00397,-0.04547
4.957,-0.00809,0.03479,0.056,0.30441,-0.01709,-0.03601,-0.01007,0.00748,0.05844,0.34393,-0.06409,0.07797,-0.01923,-0.01236,0.00244,-0.04333
4.9575,-0.03571,0.05157,0.06897,0.20889,-0.01923,-0.03555,-0.00824,0.00702,0.05264,0.30899,-0.06409,0.06149,-0.01892,-0.01389,0.00916,-0.04013
4.958,-0.0444,0.07935,0.07751,0.10895,-0.02151,-0.03418,-0.00854,0.00519,0.05341,0.26901,-0.04898,0.04547,-0.01938,-0.01404,0.01709,-0.03586
4.9585,-0.03204,0.1088,0.08362,-0.01953,-0.02319,-0.03265,-0.01175,0.0029,0.06744,0.22247,-0.02182,0.00137,-0.0209,-0.01114,0.0235,-0.03418
4.959,-0.00992,0.12787,0.08255,-0.20447,-0.02426,-0.03357,-0.01495,0.00061,0.08774,0.1683,0.00885,-0.06683,-0.02136,-0.00702,0.02258,-0.03571
4.9595,0.01144,0.13351,0.06256,-0.37109,-0.02457,-0.03433,-0.01587,-0.00137,0.10513,0.10864,0.03525,-0.13855,-0.01968,-0.00641,0.0148,-0.04135
4.96,0.02945,0.12711,0.01389,-0.41336,-0.02472,-0.03433,-0.01434,-0.0061,0.11078,0.05142,0.05478,-0.19653,-0.01877,-0.00839,0.00656,-0.04761
4.9605,0.04303,0.112,-0.0592,-0.34546,-0.02686,-0.03464,-0.0148,-0.01297,0.09079,0.00412,0.06836,-0.22507,-0.0206,-0.01099,0.0029,-0.04898
4.961,0.04868,0.08987,-0.14374,-0.27283,-0.02853,-0.03738,-0.01648,-0.01724,0.04379,-0.03433,0.07828,-0.20142,-0.02289,-0.01343,0.00427,-0.04349
4.9615,0.04807,0.06622,-0.22034,-0.24643,-0.02914,-0.03922,-0.01816,-0.01694,-0.01144,-0.06424,0.08179,-0.11169,-0.02609,-0.0148,0.0058,-0.03571
4.962,0.04929,0.04288,-0.2742,-0.22003,-0.02914,-0.04044,-0.01862,-0.0145,-0.04684,-0.08118,0.07401,0.01923,-0.02823,-0.01511,0.00687,-0.03296
4.9625,0.05447,0.01602,-0.29648,-0.13763,-0.0296,-0.04013,-0.01999,-0.01221,-0.04333,-0.0856,0.056,0.11429,-0.03082,-0.0145,0.00702,-0.03555
4.963,0.05676,-0.01389,-0.29022,-0.02655,-0.03067,-0.03891,-0.02029,-0.01007,-0.00687,-0.08591,0.03784,0.0827,-0.03235,-0.01602,0.00687,-0.04013
4.9635,0.04929,-0.04501,-0.26947,0.03601,-0.03006,-0.0386,-0.01938,-0.00793,0.02808,-0.09689,0.02518,-0.09277,-0.03525,-0.02045,0.00549,-0.04318
4.964,0.03815,-0.07065,-0.24155,0.02762,-0.02869,-0.03967,-0.01801,-0.00549,0.0322,-0.11505,0.01556,-0.29358,-0.03876,-0.02533,0.00336,-0.04379
4.9645,0.02991,-0.09247,-0.20889,-0.00168,-0.02945,-0.04074,-0.01526,-0.00458,0.01602,-0.12543,0.00778,-0.35385,-0.04135,-0.02792,0.00244,-0.04211
4.965,0.02518,-0.11459,-0.16983,-0.03174,-0.03036,-0.0412,-0.01373,-0.00504,0.0116,-0.1181,-0.00168,-0.25085,-0.04333,-0.02792,0.00259,-0.03876
4.9655,0.01633,-0.13733,-0.12772,-0.09323,-0.03098,-0.0412,-0.01282,-0.00519,0.02823,-0.10406,-0.01266,-0.13199,-0.04807,-0.02686,0.0058,-0.03586
4.966,-0.00015,-0.15518,-0.09079,-0.18677,-0.03113,-0.04089,-0.01266,-0.00351,0.04761,-0.09598,-0.02319,-0.10345,-0.05341,-0.02609,0.00977,-0.03677
4.9665,-0.0174,-0.16357,-0.06088,-0.23468,-0.03052,-0.04135,-0.01373,-0.00137,0.05249,-0.09399,-0.02609,-0.06958,-0.05447,-0.02533,0.01297,-0.03876
4.967,-0.02518,-0.16663,-0.03525,-0.13168,-0.03021,-0.04395,-0.0148,0.00076,0.04562,-0.08865,-0.02319,0.08713,-0.05188,-0.02609,0.01602,-0.03891
4.9675,-0.01617,-0.17288,-0.0061,0.14084,-0.02975,-0.04791,-0.01572,0.00061,0.04242,-0.08011,-0.02472,0.24582,-0.04807,-0.02762,0.01694,-0.03723
4.968,0.00656,-0.18585,0.03876,0.40207,-0.03036,-0.04974,-0.01801,-0.00061,0.05402,-0.07538,-0.03357,0.18509,-0.04547,-0.02823,0.01633,-0.03693
4.9685,0.03372,-0.2005,0.09949,0.40009,-0.03159,-0.05051,-0.01968,-0.00259,0.07324,-0.08087,-0.03891,-0.03601,-0.04425,-0.02838,0.01205,-0.04044
4.969,0.05539,-0.20828,0.15121,0.12482,-0.03357,-0.05081,-0.01999,-0.0058,0.07782,-0.09048,-0.03647,-0.0827,-0.0444,-0.02899,0.00717,-0.04669
4.9695,0.06866,-0.20462,0.16617,-0.14938,-0.03387,-0.05188,-0.01755,-0.00946,0.05203,-0.09781,-0.02899,0.19821,-0.04471,-0.03082,0.00443,-0.0499
4.97,0.07538,-0.18829,0.15274,-0.20508,-0.03357,-0.05264,-0.01556,-0.0119,0.01297,-0.10254,-0.0209,0.54688,-0.04379,-0.03113,0.00336,-0.05127
4.9705,0.07614,-0.16312,0.14389,-0.08865,-0.0325,-0.05249,-0.01541,-0.01144,-0.01251,-0.1091,-0.0061,0.61646,-0.04105,-0.02747,0.00244,-0.05081
4.971,0.06775,-0.13474,0.1442,0.03906,-0.0325,-0.05219,-0.01801,-0.00977,-0.02502,-0.12161,0.0177,0.37338,-0.03677,-0.02029,0.00336,-0.0502
4.9715,0.04562,-0.10834,0.12451,0.0975,-0.0322,-0.0528,-0.02136,-0.00885,-0.0528,-0.14603,0.04929,0.08347,-0.03296,-0.0116,0.00687,-0.04929
4.972,0.01862,-0.08591,0.06851,0.10574,-0.03159,-0.05234,-0.02274,-0.00702,-0.11017,-0.17532,0.07828,-0.03464,-0.03159,-0.0061,0.01129,-0.04761
4.9725,0.00778,-0.05981,0.00229,0.10635,-0.0322,-0.05203,-0.02045,-0.00305,-0.17624,-0.19867,0.08774,-0.01724,-0.03098,-0.00702,0.01297,-0.047
4.973,0.02151,-0.02396,-0.04517,0.12726,-0.03479,-0.05219,-0.01724,0.00107,-0.22827,-0.21133,0.07446,-0.02563,-0.03021,-0.01373,0.01114,-0.04639
4.9735,0.04227,0.01556,-0.06287,0.14679,-0.0354,-0.05325,-0.01587,0.00275,-0.26031,-0.21454,0.04807,-0.12421,-0.02991,-0.01892,0.00778,-0.04623
4.974,0.04395,0.03448,-0.06378,0.1059,-0.0351,-0.05371,-0.01572,0.00259,-0.27222,-0.21439,0.01862,-0.24918,-0.02945,-0.01953,0.00488,-0.04517
4.9745,0.01953,0.01099,-0.06287,-0.00397,-0.03662,-0.05493,-0.01434,0.00229,-0.25726,-0.21072,-0.01389,-0.31693,-0.02914,-0.01633,0.00458,-0.04349
4.975,-0.01633,-0.04669,-0.06714,-0.08575,-0.03922,-0.05615,-0.01266,0.00351,-0.21179,-0.20325,-0.04471,-0.29755,-0.02975,-0.01282,0.0061,-0.04196
4.9755,-0.047,-0.09338,-0.06973,-0.03128,-0.04013,-0.05798,-0.01221,0.00381,-0.14984,-0.18707,-0.06577,-0.22369,-0.02975,-0.01328,0.0087,-0.04288
4.976,-0.06119,-0.09827,-0.06378,0.14465,-0.03738,-0.05814,-0.01358,0.00259,-0.10422,-0.15976,-0.07675,-0.14008,-0.0322,-0.01572,0.01007,-0.04501
4.9765,-0.05569,-0.06882,-0.05569,0.29037,-0.03677,-0.05737,-0.01419,0.00107,-0.10025,-0.1239,-0.08789,-0.03204,-0.03693,-0.01923,0.00824,-0.04501
4.977,-0.03998,-0.03098,-0.0589,0.24368,-0.03693,-0.05661,-0.01511,-0.00031,-0.12009,-0.08087,-0.10605,0.13916,-0.0412,-0.02228,0.00595,-0.04456
4.9775,-0.02731,0.0029,-0.06226,-0.00534,-0.03723,-0.05402,-0.0148,-0.0029,-0.1181,-0.02991,-0.12283,0.31357,-0.03906,-0.02426,0.00427,-0.04303
4.978,-0.02075,0.0293,-0.03189,-0.26321,-0.03616,-0.05203,-0.0148,-0.00595,-0.07385,0.03952,-0.12756,0.37323,-0.03067,-0.02441,0.00275,-0.04349
4.9785,-0.01556,0.04166,0.03784,-0.27954,-0.03372,-0.05005,-0.01572,-0.00732,-0.01709,0.12589,-0.12177,0.31052,-0.02106,-0.02136,0.00168,-0.0441
4.979,-0.00534,0.03281,0.09903,0.00549,-0.03052,-0.04715,-0.01572,-0.00565,0.01923,0.20706,-0.11276,0.21591,-0.01816,-0.01602,0.00092,-0.04684
4.9795,0.01053,0.0061,0.09506,0.35095,-0.02548,-0.04547,-0.01602,-0.0029,0.03189,0.26108,-0.10468,0.14313,-0.02075,-0.01068,0.00305,-0.04791
4.98,0.03098,-0.01816,0.02029,0.43274,-0.0238,-0.04288,-0.01633,-0.00168,0.03693,0.28595,-0.09537,0.10193,-0.02243,-0.00824,0.00519,-0.04623
4.9805,0.0528,-0.02045,-0.0766,0.186,-0.02457,-0.04242,-0.01831,-0.00183,0.04837,0.29129,-0.08224,0.09811,-0.02121,-0.00854,0.00488,-0.04257
4.981,0.06729,0.00153,-0.14404,-0.14801,-0.02716,-0.0441,-0.01953,-0.00381,0.06393,0.28778,-0.06546,0.08621,-0.02167,-0.00946,0.00549,-0.04089
4.9815,0.0679,0.03342,-0.168,-0.3186,-0.02777,-0.04639,-0.02014,-0.00656,0.07614,0.27939,-0.04593,0.00381,-0.02777,-0.01114,0.00519,-0.04059
4.982,0.0563,0.06058,-0.17441,-0.31906,-0.02991,-0.04791,-0.01999,-0.00977,0.07813,0.26443,-0.02792,-0.1123,-0.03479,-0.01038,0.00504,-0.04166
4.9825,0.04471,0.07782,-0.19012,-0.29282,-0.03189,-0.04807,-0.01923,-0.01404,0.06958,0.2417,-0.01556,-0.15335,-0.03403,-0.00946,0.00565,-0.04257
4.983,0.03845,0.08377,-0.21439,-0.30579,-0.03357,-0.04761,-0.01907,-0.01678,0.05539,0.20905,-0.00885,-0.09552,-0.02731,-0.00931,0.00671,-0.04333
4.9835,0.03143,0.07828,-0.22812,-0.3125,-0.03433,-0.04898,-0.01892,-0.01907,0.04028,0.16571,-0.00488,-0.03448,-0.02136,-0.01099,0.00748,-0.04272
4.984,0.01846,0.06348,-0.21851,-0.26459,-0.03326,-0.05051,-0.01907,-0.01801,0.02533,0.11368,-0.00061,-0.03525,-0.02182,-0.01312,0.00931,-0.04105
4.9845,0.00549,0.04456,-0.19272,-0.17731,-0.03204,-0.05173,-0.01968,-0.01556,0.01144,0.05753,0.00793,-0.05615,-0.02548,-0.01434,0.00885,-0.03906
4.985,0.00092,0.02533,-0.16205,-0.09033,-0.0325,-0.05188,-0.01984,-0.01068,0.00534,0.00031,0.02518,-0.0412,-0.02884,-0.01404,0.00809,-0.0383
4.9855,0.00244,0.00565,-0.13046,-0.02869,-0.03326,-0.05234,-0.01862,-0.00763,0.00992,-0.05417,0.04929,0.01114,-0.03098,-0.01419,0.00763,-0.03799
4.986,-0.00244,-0.0174,-0.09552,0.01236,-0.03372,-0.05325,-0.01541,-0.00717,0.01846,-0.10452,0.06744,0.07095,-0.03235,-0.01526,0.00748,-0.03815
4.9865,-0.02243,-0.04623,-0.05386,0.04944,-0.03387,-0.05356,-0.01297,-0.00809,0.02182,-0.1503,0.06943,0.10834,-0.03357,-0.01801,0.00809,-0.03998
4.987,-0.0444,-0.07675,-0.00687,0.08102,-0.03571,-0.0531,-0.0119,-0.00778,0.01648,-0.18753,0.06348,0.09399,-0.0351,-0.02121,0.00809,-0.04028
4.9875,-0.04883,-0.09888,0.03311,0.08163,-0.03677,-0.05157,-0.01053,-0.00626,0.00824,-0.2066,0.06439,0.02243,-0.03647,-0.02365,0.00809,-0.03906
4.988,-0.03067,-0.10834,0.04822,0.04822,-0.03784,-0.05081,-0.00809,-0.00412,0.00778,-0.2005,0.07294,-0.05737,-0.03723,-0.02457,0.00839,-0.03784
4.9885,0.0,-0.10361,0.03235,0.01114,-0.03815,-0.05112,-0.00763,-0.0029,0.02731,-0.17044,0.07568,-0.08652,-0.03815,-0.02594,0.00992,-0.03616
4.989,0.02945,-0.09369,0.00793,-0.00702,-0.03769,-0.0499,-0.00748,-0.00229,0.06454,-0.12665,0.06119,-0.07233,-0.04013,-0.02686,0.01251,-0.03433
4.9895,0.05157,-0.08514,0.00198,-0.01328,-0.03632,-0.04669,-0.00778,-0.00015,0.09186,-0.08194,0.03769,-0.04745,-0.04105,-0.02808,0.01541,-0.03143
4.99,0.0647,-0.08469,0.01984,-0.00717,-0.03448,-0.0441,-0.00793,0.00092,0.08072,-0.0412,0.02029,-0.00839,-0.04044,-0.02777,0.01663,-0.02869
4.9905,0.07065,-0.09445,0.03769,0.01266,-0.0325,-0.04349,-0.00854,0.00031,0.03311,-0.01175,0.01877,0.03662,-0.03937,-0.02716,0.01541,-0.02914
4.991,0.07355,-0.11032,0.03647,0.0174,-0.03281,-0.0444,-0.01007,0.00031,-0.01831,-0.0058,0.02441,0.04425,-0.03845,-0.02686,0.01419,-0.03296
4.9915,0.07004,-0.12451,0.03067,-0.01404,-0.03403,-0.04379,-0.0119,0.00076,-0.04684,-0.02319,0.01602,0.01205,-0.03784,-0.02655,0.01328,-0.03616
4.992,0.05508,-0.1329,0.04608,-0.03464,-0.0351,-0.04303,-0.01312,0.00183,-0.04852,-0.04959,-0.01785,-0.0177,-0.0383,-0.02563,0.01312,-0.03662
4.9925,0.04227,-0.1355,0.07996,0.01495,-0.03525,-0.04349,-0.01282,0.00122,-0.03159,-0.06393,-0.05707,-0.03616,-0.03738,-0.02563,0.01266,-0.03784
4.993,0.05676,-0.13412,0.09689,0.10681,-0.03448,-0.04333,-0.01251,0.0,-0.00061,-0.06287,-0.07095,-0.09186,-0.03586,-0.02548,0.01251,-0.03922
4.9935,0.1004,-0.12604,0.08682,0.14511,-0.03418,-0.04242,-0.01328,-0.00244,0.03021,-0.06287,-0.04883,-0.22827,-0.03433,-0.02472,0.01144,-0.04074
4.994,0.14145,-0.11398,0.07813,0.0943,-0.03387,-0.04166,-0.01251,-0.00351,0.03235,-0.07782,-0.00305,-0.40604,-0.03464,-0.0238,0.01022,-0.04166
4.9945,0.14618,-0.10254,0.0972,0.04135,-0.03326,-0.04257,-0.01129,-0.0029,0.00031,-0.10605,0.05066,-0.4921,-0.03403,-0.02304,0.00977,-0.04135
4.995,0.10406,-0.09125,0.14145,0.10422,-0.03433,-0.04486,-0.01022,-0.00168,-0.03296,-0.14297,0.1001,-0.41306,-0.03235,-0.02136,0.00778,-0.04181
4.9955,0.03708,-0.07309,0.18845,0.26474,-0.03479,-0.04593,-0.0116,-0.00168,-0.03723,-0.18967,0.12115,-0.26581,-0.02914,-0.01907,0.00732,-0.04318
4.996,-0.02213,-0.04639,0.20615,0.336,-0.03372,-0.04608,-0.01526,-0.00244,-0.02182,-0.24292,0.09491,-0.17334,-0.02625,-0.01694,0.00656,-0.0444
4.9965,-0.05783,-0.02075,0.17822,0.177,-0.03281,-0.04654,-0.01953,-0.00473,-0.01358,-0.28595,0.03143,-0.10193,-0.02579,-0.01709,0.00504,-0.04578
4.997,-0.08347,-0.00702,0.11703,-0.09415,-0.03143,-0.04868,-0.02075,-0.00519,-0.02045,-0.30182,-0.03067,0.0563,-0.02563,-0.01816,0.00397,-0.04547
4.9975,-0.10818,-0.00763,0.05188,-0.2359,-0.03082,-0.05127,-0.01648,-0.00137,-0.03418,-0.27969,-0.06439,0.28,-0.02594,-0.0177,0.00473,-0.04349
4.998,-0.11826,-0.0235,-0.00595,-0.19257,-0.03204,-0.05325,-0.009,0.0058,-0.04929,-0.21881,-0.07111,0.40787,-0.02609,-0.01617,0.00793,-0.04105
4.9985,-0.10254,-0.05539,-0.06729,-0.11215,-0.03372,-0.05402,-0.00595,0.01144,-0.06516,-0.12268,-0.06287,0.32501,-0.02655,-0.01541,0.01068,-0.03967
4.999,-0.08026,-0.09598,-0.14572,-0.10468,-0.0354,-0.05402,-0.00687,0.0119,-0.07904,-0.0029,-0.04303,0.0943,-0.02869,-0.01617,0.00931,-0.04059
4.9995,-0.07553,-0.13275,-0.23575,-0.10773,-0.0351,-0.05417,-0.00992,0.00763,-0.08545,0.12009,-0.01312,-0.11185,-0.03113,-0.0177,0.00656,-0.04349
5.0,-0.08484,-0.16403,-0.30838,-0.01251,-0.03632,-0.05402,-0.01282,0.00031,-0.0827,0.2269,0.01373,-0.19409,-0.03311,-0.01755,0.00458,-0.04623
5.0005,-0.08774,-0.19531,-0.3334,0.11887,-0.03708,-0.05295,-0.01434,-0.00549,-0.07523,0.3006,0.02274,-0.17166,-0.03372,-0.01541,0.00641,-0.047
5.001,-0.07217,-0.22171,-0.3067,0.09048,-0.03723,-0.05249,-0.01556,-0.00992,-0.06882,0.33203,0.00824,-0.09293,-0.03448,-0.01266,0.00916,-0.04745
5.0015,-0.04929,-0.23392,-0.24902,-0.12207,-0.03571,-0.05402,-0.01373,-0.01114,-0.06729,0.31921,-0.02396,0.02686,-0.03723,-0.01175,0.0087,-0.04715
5.002,-0.03113,-0.22766,-0.18845,-0.26886,-0.03448,-0.05585,-0.01266,-0.01114,-0.06805,0.26917,-0.06393,0.14954,-0.04028,-0.01389,0.00977,-0.04623
5.0025,-0.02197,-0.20401,-0.13977,-0.1651,-0.03311,-0.056,-0.0119,-0.01007,-0.06546,0.20264,-0.09628,0.1825,-0.0444,-0.01923,0.01129,-0.04547
5.003,-0.01633,-0.15884,-0.10742,0.0589,-0.03128,-0.05264,-0.01343,-0.00809,-0.05844,0.13809,-0.11185,0.07355,-0.04791,-0.02335,0.01251,-0.04837
5.0035,-0.00916,-0.08621,-0.08926,0.16541,-0.02991,-0.04745,-0.01389,-0.00549,-0.05081,0.0827,-0.12207,-0.07919,-0.04913,-0.02487,0.01068,-0.05783
5.004,-0.00534,0.00198,-0.07858,0.11322,-0.02884,-0.04227,-0.01419,-0.00412,-0.04562,0.03677,-0.14023,-0.10056,-0.04822,-0.02548,0.0061,-0.07034
5.0045,-0.00443,0.08209,-0.06561,0.02274,-0.02762,-0.0386,-0.01358,-0.00412,-0.04181,-0.00015,-0.15961,0.05219,-0.0444,-0.02502,0.00168,-0.07828
5.005,-0.00076,0.13458,-0.04669,-0.03601,-0.02563,-0.0383,-0.01251,-0.00397,-0.03662,-0.02625,-0.15762,0.22888,-0.03738,-0.0238,0.00046,-0.07614
5.0055,0.01053,0.15778,-0.02838,-0.07294,-0.02396,-0.04028,-0.00916,-0.00366,-0.02701,-0.03769,-0.1329,0.25833,-0.02899,-0.02029,0.00137,-0.06592
5.006,0.02838,0.15991,-0.01709,-0.08301,-0.02335,-0.04318,-0.00565,-0.0032,-0.01083,-0.03403,-0.10452,0.13428,-0.0206,-0.01587,0.00458,-0.05112
5.0065,0.04318,0.1561,-0.0145,-0.0528,-0.02502,-0.04593,-0.00565,-0.00519,0.00839,-0.01999,-0.08545,-0.01297,-0.01617,-0.01251,0.00641,-0.03479
5.007,0.04654,0.15549,-0.01221,-0.01709,-0.02838,-0.04669,-0.00854,-0.00671,0.02777,-0.00183,-0.07217,-0.07813,-0.01801,-0.01099,0.00824,-0.0206
5.0075,0.0412,0.15839,-0.00519,-0.02945,-0.03036,-0.04669,-0.01205,-0.00641,0.04303,0.01724,-0.05585,-0.06516,-0.02487,-0.01221,0.009,-0.01266
5.008,0.03555,0.15808,0.00275,-0.09384,-0.03021,-0.04684,-0.01373,-0.00458,0.05264,0.03235,-0.0354,-0.02197,-0.03357,-0.01587,0.00916,-0.01678
5.0085,0.03159,0.14709,0.00702,-0.15442,-0.02975,-0.04776,-0.01419,-0.0032,0.04944,0.04074,-0.01434,0.02533,-0.04059,-0.02014,0.00748,-0.03113
5.009,0.02914,0.12314,0.00534,-0.15366,-0.03006,-0.04974,-0.01526,-0.0032,0.03006,0.04013,0.00198,0.05753,-0.04364,-0.02289,0.0058,-0.04395
5.0095,0.02869,0.09109,0.00076,-0.07965,-0.03052,-0.05112,-0.01572,-0.00443,0.00458,0.03403,0.01114,0.06241,-0.04288,-0.02228,0.0058,-0.04654
5.01,0.02838,0.05798,-0.00061,0.02228,-0.03265,-0.05005,-0.01556,-0.00565,-0.01556,0.02853,0.01022,0.05646,-0.04044,-0.01831,0.00641,-0.04074
5.0105,0.02335,0.02792,0.00153,0.0853,-0.03494,-0.04959,-0.01389,-0.00793,-0.02563,0.02411,0.00687,0.07156,-0.03891,-0.01648,0.00336,-0.03525
5.011,0.00931,0.00122,0.00458,0.07919,-0.03662,-0.05051,-0.0119,-0.00793,-0.02716,0.01328,0.00702,0.1088,-0.03845,-0.01694,0.00229,-0.03479
5.0115,-0.00336,-0.02106,0.00244,0.03616,-0.03693,-0.0502,-0.01083,-0.00458,-0.02029,-0.00534,0.00748,0.13351,-0.03845,-0.01801,0.00275,-0.0383
5.012,0.00015,-0.04135,-0.00275,0.00534,-0.03693,-0.04944,-0.01099,-0.00122,-0.01068,-0.02686,0.00397,0.12054,-0.03952,-0.01831,0.00732,-0.04074
5.0125,0.02457,-0.0621,-0.00824,-0.00748,-0.03586,-0.04761,-0.0119,0.00031,-0.01144,-0.04501,-0.00626,0.07553,-0.03983,-0.0174,0.01053,-0.04044
5.013,0.05829,-0.08286,-0.00244,-0.02945,-0.03586,-0.04654,-0.01343,-0.00061,-0.0235,-0.05722,-0.01266,0.01907,-0.03998,-0.01678,0.01068,-0.03784
5.0135,0.0853,-0.09811,0.01617,-0.07431,-0.03479,-0.04684,-0.01526,-0.00092,-0.03159,-0.06729,-0.01205,-0.04272,-0.03845,-0.01862,0.00977,-0.03479
5.014,0.10056,-0.10361,0.04395,-0.12863,-0.0351,-0.04684,-0.01526,-0.00031,-0.02518,-0.07858,-0.00732,-0.1123,-0.03586,-0.02136,0.00702,-0.03387
5.0145,0.10834,-0.10025,0.0647,-0.18158,-0.0354,-0.04593,-0.01572,0.00076,-0.00427,-0.0946,-0.00641,-0.17334,-0.03357,-0.02335,0.00351,-0.03571
5.015,0.11246,-0.09384,0.06683,-0.24811,-0.03616,-0.04562,-0.01633,-0.00015,0.02182,-0.11383,-0.01755,-0.18509,-0.03296,-0.02365,0.00153,-0.03891
5.0155,0.11459,-0.08896,0.06088,-0.32272,-0.03723,-0.04578,-0.01617,-0.00046,0.04333,-0.13336,-0.03159,-0.13321,-0.03464,-0.02426,0.00168,-0.0415
5.016,0.11169,-0.08636,0.06012,-0.34637,-0.03754,-0.04791,-0.01511,-0.00092,0.0531,-0.15396,-0.03479,-0.06485,-0.03525,-0.02533,0.00168,-0.04135
5.0165,0.10132,-0.08484,0.06683,-0.23972,-0.03876,-0.04974,-0.01266,0.00015,0.04517,-0.17365,-0.01877,-0.0502,-0.03479,-0.02655,0.00336,-0.04044
5.017,0.08728,-0.08835,0.06622,0.01907,-0.03891,-0.04974,-0.0119,0.00153,0.02594,-0.18372,0.01175,-0.08728,-0.03357,-0.02655,0.00702,-0.03906
5.0175,0.07645,-0.10101,0.04898,0.32806,-0.0386,-0.04852,-0.01205,0.00305,0.00793,-0.17899,0.04471,-0.08667,-0.03281,-0.02548,0.01129,-0.03784
5.018,0.06805,-0.12253,0.0296,0.49683,-0.03754,-0.04745,-0.01251,0.0032,-0.00031,-0.16449,0.06378,0.00153,-0.03204,-0.0238,0.01328,-0.03769
5.0185,0.05463,-0.1445,0.02396,0.41931,-0.03601,-0.04807,-0.01389,0.00198,-0.00427,-0.15335,0.06531,0.10971,-0.03082,-0.02243,0.01236,-0.03799
5.019,0.03372,-0.15625,0.02914,0.20325,-0.03479,-0.05203,-0.01556,-0.00092,-0.009,-0.14938,0.05615,0.14343,-0.02975,-0.01984,0.00977,-0.03876
5.0195,0.00839,-0.15167,0.02014,0.06012,-0.03418,-0.05417,-0.01755,-0.00351,-0.01556,-0.15488,0.05219,0.09949,-0.03082,-0.01862,0.00732,-0.03937
5.02,-0.01862,-0.13489,-0.01358,0.05386,-0.03265,-0.05478,-0.01602,-0.0032,-0.0238,-0.17242,0.05554,0.03159,-0.03113,-0.01755,0.00626,-0.0415
5.0205,-0.0444,-0.11856,-0.05783,0.06836,-0.03387,-0.05447,-0.01526,-0.00244,-0.0325,-0.19547,0.05829,-0.01068,-0.02975,-0.01755,0.00565,-0.0444
5.021,-0.05737,-0.11017,-0.09369,0.00748,-0.03571,-0.05478,-0.01633,-0.00168,-0.03723,-0.2121,0.05402,0.0058,-0.02792,-0.01694,0.00443,-0.04578
5.0215,-0.04868,-0.11414,-0.11719,-0.09323,-0.03418,-0.05524,-0.01724,-0.00015,-0.03998,-0.21179,0.04562,0.07095,-0.02762,-0.01587,0.00504,-0.0444
5.022,-0.02304,-0.12573,-0.12833,-0.16159,-0.03174,-0.05447,-0.01617,0.0029,-0.04593,-0.20218,0.03937,0.09781,-0.02991,-0.01617,0.00732,-0.04196
5.0225,-0.00336,-0.13168,-0.12054,-0.16968,-0.03128,-0.05371,-0.01312,0.0058,-0.0563,-0.18524,0.0325,0.00488,-0.03204,-0.01877,0.01114,-0.04013
5.023,-0.0058,-0.11765,-0.103,-0.1004,-0.03281,-0.05371,-0.01053,0.00748,-0.06241,-0.14923,0.01572,-0.15121,-0.03342,-0.0235,0.01205,-0.04059
5.0235,-0.02625,-0.0827,-0.09155,0.04059,-0.03342,-0.05493,-0.00931,0.00641,-0.05157,-0.07965,-0.01465,-0.21942,-0.03357,-0.02625,0.01144,-0.04303
5.024,-0.04456,-0.03738,-0.09247,0.18875,-0.03372,-0.05295,-0.00885,0.00458,-0.01953,0.01282,-0.05432,-0.14648,-0.0325,-0.02502,0.01038,-0.04395
5.0245,-0.047,0.01053,-0.09537,0.2832,-0.03281,-0.05005,-0.01007,0.00031,0.01465,0.0975,-0.08591,-0.02762,-0.03082,-0.02228,0.01053,-0.04349
5.025,-0.03815,0.0589,-0.08591,0.31982,-0.03143,-0.04852,-0.01312,-0.00351,0.02655,0.15244,-0.09109,0.05859,-0.0293,-0.01999,0.01358,-0.03998
5.0255,-0.02899,0.10452,-0.06927,0.28427,-0.02823,-0.04715,-0.01587,-0.00595,0.00946,0.17502,-0.06866,0.12512,-0.02762,-0.01953,0.01541,-0.03662
5.026,-0.02518,0.13397,-0.05264,0.16937,-0.02594,-0.04532,-0.01709,-0.0061,-0.01877,0.1738,-0.03372,0.14984,-0.02487,-0.01999,0.01358,-0.03616
5.0265,-0.02289,0.14069,-0.04135,0.06912,-0.02441,-0.04318,-0.01801,-0.00626,-0.03571,0.16556,0.00092,0.05539,-0.02045,-0.01907,0.00671,-0.0386
5.027,-0.01465,0.12466,-0.03464,0.07004,-0.02365,-0.04272,-0.01877,-0.0061,-0.0296,0.16312,0.03708,-0.13351,-0.01678,-0.0177,0.00076,-0.04196
5.0275,-0.00351,0.09567,-0.03387,0.07828,-0.02213,-0.04303,-0.01816,-0.00473,-0.00412,0.17395,0.07339,-0.25421,-0.01678,-0.01694,-0.00031,-0.04578
5.028,-0.00015,0.0589,-0.03891,-0.03662,-0.02029,-0.04242,-0.01663,-0.0029,0.02594,0.1973,0.09964,-0.1828,-0.01953,-0.01617,0.00275,-0.04913
5.0285,-0.01144,0.01312,-0.05219,-0.21011,-0.01999,-0.04166,-0.01617,-0.00275,0.0444,0.22186,0.11032,0.03647,-0.02335,-0.01511,0.00534,-0.05081
5.029,-0.03189,-0.0412,-0.0705,-0.28702,-0.0206,-0.04105,-0.01587,-0.00336,0.04868,0.23666,0.10956,0.23041,-0.02548,-0.01389,0.00687,-0.04852
5.0295,-0.04303,-0.09232,-0.08606,-0.26978,-0.0206,-0.04044,-0.01465,-0.00198,0.04471,0.23758,0.10132,0.25665,-0.02548,-0.01312,0.00626,-0.04578
5.03,-0.03448,-0.12497,-0.09537,-0.27069,-0.0206,-0.03906,-0.01343,-0.00046,0.02884,0.22354,0.08652,0.13199,-0.02472,-0.01358,0.00671,-0.04272
5.0305,-0.01343,-0.13641,-0.09628,-0.30502,-0.02274,-0.03815,-0.01465,-0.0032,-0.0058,0.1973,0.05798,-0.0029,-0.02579,-0.01511,0.00809,-0.0412
5.031,0.0061,-0.13397,-0.0827,-0.27924,-0.02411,-0.03906,-0.01801,-0.00854,-0.05386,0.16373,0.02197,-0.05066,-0.02548,-0.01633,0.00793,-0.04089
5.0315,0.01999,-0.11871,-0.05661,-0.13962,-0.02441,-0.04013,-0.01892,-0.0116,-0.0946,0.12955,-0.0119,-0.04578,-0.02594,-0.01663,0.0061,-0.04044
5.032,0.03113,-0.08316,-0.02991,0.05356,-0.02487,-0.04013,-0.01648,-0.00732,-0.10849,0.09918,-0.04181,-0.05585,-0.02731,-0.01617,0.00595,-0.03876
5.0325,0.04196,-0.0296,-0.01541,0.17471,-0.02563,-0.03967,-0.01312,0.00076,-0.09048,0.07309,-0.06973,-0.05798,-0.02991,-0.01709,0.00961,-0.03662
5.033,0.05157,0.02716,-0.01709,0.14832,-0.0264,-0.03845,-0.0119,0.00427,-0.05402,0.04959,-0.09476,0.02655,-0.03296,-0.01801,0.01465,-0.03433
5.0335,0.06027,0.065,-0.0264,0.02426,-0.02609,-0.03769,-0.01373,-0.00122,-0.01526,0.02304,-0.11597,0.16876,-0.0386,-0.01846,0.01633,-0.03311
5.034,0.06897,0.07629,-0.03677,-0.08057,-0.02808,-0.0383,-0.01694,-0.01114,0.02274,-0.01053,-0.13107,0.21622,-0.04471,-0.01907,0.01602,-0.03616
5.0345,0.0708,0.06851,-0.04349,-0.11017,-0.03052,-0.03998,-0.01663,-0.01801,0.06134,-0.05356,-0.13489,0.09552,-0.04776,-0.01816,0.01419,-0.04105
5.035,0.0589,0.05127,-0.04547,-0.10559,-0.0322,-0.04196,-0.0145,-0.01846,0.0882,-0.09933,-0.12543,-0.06866,-0.04547,-0.01587,0.01221,-0.04623
5.0355,0.03616,0.02899,-0.04349,-0.1181,-0.03265,-0.04242,-0.0119,-0.01587,0.0882,-0.1413,-0.10742,-0.12436,-0.04211,-0.01312,0.01053,-0.05173
5.036,0.01541,0.00259,-0.03983,-0.13977,-0.03296,-0.04257,-0.00992,-0.01343,0.06546,-0.1712,-0.08865,-0.07736,-0.03967,-0.01007,0.00977,-0.05737
5.0365,0.00244,-0.02228,-0.03708,-0.13931,-0.03403,-0.0444,-0.01068,-0.01266,0.03738,-0.18692,-0.06821,-0.03143,-0.03723,-0.00732,0.00885,-0.06073
5.037,-0.0058,-0.04227,-0.03113,-0.10513,-0.03448,-0.04684,-0.01221,-0.01312,0.00397,-0.18097,-0.04059,-0.03387,-0.03403,-0.00793,0.00641,-0.0589
5.0375,-0.01556,-0.06073,-0.01663,-0.04883,-0.03479,-0.04837,-0.01465,-0.01251,-0.05386,-0.15091,-0.00656,-0.05234,-0.03235,-0.01221,0.00259,-0.05295
5.038,-0.02579,-0.08224,0.01923,0.00443,-0.03601,-0.04822,-0.01587,-0.00916,-0.13458,-0.10208,0.0206,-0.06134,-0.03387,-0.01846,-0.00092,-0.04684
5.0385,-0.03189,-0.10422,0.07462,0.03174,-0.03708,-0.04791,-0.01617,-0.00504,-0.19211,-0.05432,0.02762,-0.07828,-0.0383,-0.02304,-0.00336,-0.04257
5.039,-0.03418,-0.11276,0.12024,0.02991,-0.03876,-0.05005,-0.01465,-0.0029,-0.17807,-0.02274,0.01297,-0.12451,-0.04044,-0.02472,-0.00305,-0.03998
5.0395,-0.03311,-0.09613,0.10773,0.01831,-0.03769,-0.05066,-0.01129,-0.00198,-0.10376,-0.01007,-0.01236,-0.14908,-0.03891,-0.02426,-0.00122,-0.03891
5.04,-0.03403,-0.06042,0.02731,0.01434,-0.03647,-0.05096,-0.00793,-0.00168,-0.03571,-0.01633,-0.03311,-0.03113,-0.03647,-0.02426,0.00183,-0.03738
5.0405,-0.03616,-0.02808,-0.07263,0.01526,-0.03632,-0.0499,-0.00671,-0.00214,-0.01587,-0.04242,-0.0444,0.26993,-0.03448,-0.02457,0.0058,-0.03525
5.041,-0.03555,-0.01572,-0.13153,0.0116,-0.03708,-0.04913,-0.00778,-0.00031,-0.02243,-0.08392,-0.05478,0.58563,-0.03418,-0.02426,0.01022,-0.03296
5.0415,-0.03464,-0.02274,-0.13321,0.00885,-0.03754,-0.04791,-0.00946,0.00153,-0.01801,-0.12909,-0.06973,0.63583,-0.03342,-0.02213,0.01572,-0.02975
5.042,-0.03876,-0.03601,-0.10513,0.01083,-0.03799,-0.04761,-0.01114,0.00168,0.00015,-0.15961,-0.08057,0.32455,-0.03357,-0.01968,0.01816,-0.02548
5.0425,-0.04868,-0.04303,-0.08072,-0.00275,-0.03845,-0.04761,-0.01114,-0.00046,0.01541,-0.16403,-0.07706,-0.11551,-0.0351,-0.01831,0.01999,-0.02472
5.043,-0.05417,-0.04364,-0.06866,-0.05981,-0.03876,-0.04745,-0.01007,-0.00336,0.02625,-0.14252,-0.06149,-0.37399,-0.03448,-0.01831,0.02045,-0.02518
5.0435,-0.04883,-0.04333,-0.06195,-0.14023,-0.03845,-0.04852,-0.01038,-0.00366,0.03738,-0.1059,-0.04654,-0.3891,-0.03281,-0.02014,0.02014,-0.02716
5.044,-0.03799,-0.05066,-0.05386,-0.1738,-0.03845,-0.04837,-0.01022,-0.00168,0.04028,-0.0679,-0.03647,-0.29861,-0.03174,-0.02274,0.01846,-0.02991
5.0445,-0.02899,-0.07553,-0.04532,-0.09476,-0.03754,-0.04883,-0.009,0.00061,0.01938,-0.03403,-0.02487,-0.20187,-0.0322,-0.02396,0.01526,-0.0354
5.045,-0.02029,-0.11459,-0.04074,0.12833,-0.03632,-0.04761,-0.00778,0.00046,-0.0148,-0.01038,-0.00931,-0.11169,-0.03326,-0.02258,0.01083,-0.04242
5.0455,-0.01389,-0.15656,-0.03815,0.42145,-0.03616,-0.04684,-0.00793,-0.00092,-0.03799,0.00015,0.00549,-0.01907,-0.03265,-0.01999,0.00687,-0.0473
5.046,-0.02045,-0.19073,-0.01755,0.56458,-0.03418,-0.04852,-0.00885,-0.00183,-0.03952,-0.00656,0.0145,0.09949,-0.03159,-0.01923,0.00671,-0.04929
5.0465,-0.03769,-0.21545,0.047,0.39093,-0.0325,-0.05051,-0.01022,-0.00168,-0.0322,-0.02472,0.01755,0.22537,-0.03082,-0.01907,0.01083,-0.04974
5.047,-0.05371,-0.23376,0.14359,0.05341,-0.03021,-0.05203,-0.01129,-0.00061,-0.0264,-0.03769,0.0177,0.23193,-0.03021,-0.01862,0.01373,-0.05005
5.0475,-0.06393,-0.2533,0.21194,-0.11948,-0.0293,-0.05234,-0.01251,-0.00092,-0.0174,-0.03036,0.01663,0.03693,-0.02853,-0.01526,0.01221,-0.05096
5.048,-0.07538,-0.27908,0.21149,-0.03769,-0.02823,-0.05402,-0.01266,-0.00351,-0.01007,-0.01053,0.01053,-0.22324,-0.02533,-0.01053,0.00824,-0.05142
5.0485,-0.09247,-0.29907,0.16312,0.09079,-0.02777,-0.05478,-0.01343,-0.00641,-0.02075,-0.0029,0.00031,-0.33356,-0.02335,-0.00687,0.00534,-0.05035
5.049,-0.103,-0.29266,0.11002,0.0943,-0.02548,-0.05524,-0.01495,-0.01038,-0.05371,-0.0177,-0.00763,-0.24521,-0.02243,-0.00702,0.00656,-0.04852
5.0495,-0.09018,-0.24445,0.07446,0.02731,-0.02197,-0.05463,-0.01663,-0.01266,-0.0827,-0.04105,-0.00961,-0.05936,-0.02243,-0.00824,0.0087,-0.047
5.05,-0.05661,-0.15839,0.04822,-0.00778,-0.02167,-0.05508,-0.01755,-0.01328,-0.08896,-0.05295,-0.01068,0.1236,-0.02319,-0.00809,0.01007,-0.04776
5.0505,-0.0264,-0.04822,0.01572,-0.0264,-0.02792,-0.05569,-0.01526,-0.0116,-0.08499,-0.04837,-0.00961,0.22903,-0.02609,-0.00732,0.00885,-0.05081
5.051,-0.01724,0.06638,-0.03113,-0.08392,-0.03738,-0.05569,-0.01221,-0.009,-0.08408,-0.03342,0.00168,0.18188,-0.02884,-0.00793,0.00778,-0.05402
5.0515,-0.02365,0.16129,-0.09079,-0.1503,-0.0441,-0.05264,-0.01099,-0.00748,-0.07568,-0.01678,0.02731,-0.01953,-0.03128,-0.00839,0.00702,-0.05402
5.052,-0.02884,0.21759,-0.15549,-0.16113,-0.04639,-0.04852,-0.01297,-0.00687,-0.04684,-0.00412,0.04623,-0.2446,-0.03235,-0.00916,0.00702,-0.05142
5.0525,-0.02548,0.23712,-0.21606,-0.11398,-0.04517,-0.04456,-0.01419,-0.00534,-0.01053,0.00153,0.03708,-0.33112,-0.03403,-0.00977,0.00748,-0.04913
5.053,-0.01999,0.23575,-0.27161,-0.0621,-0.04059,-0.04395,-0.01282,-0.00336,0.01007,0.00275,0.00626,-0.22141,-0.03647,-0.01144,0.00641,-0.04807
5.0535,-0.02533,0.22003,-0.31799,-0.03586,-0.03479,-0.04471,-0.0119,-0.00412,0.01541,0.00519,-0.02426,0.00534,-0.03815,-0.01587,0.00443,-0.04684
5.054,-0.04318,0.19424,-0.34515,-0.02197,-0.03006,-0.0441,-0.01328,-0.00793,0.01938,0.01099,-0.03555,0.2005,-0.03937,-0.0209,0.00305,-0.04532
5.0545,-0.05859,0.16098,-0.34515,-0.01205,-0.02884,-0.04227,-0.01541,-0.01129,0.02625,0.02045,-0.02518,0.24765,-0.03998,-0.02441,0.00397,-0.04379
5.055,-0.05722,0.12299,-0.32059,-0.02426,-0.02899,-0.04044,-0.01663,-0.01144,0.0267,0.0296,-0.00198,0.15305,-0.04059,-0.02487,0.00687,-0.04333
5.0555,-0.03906,0.08148,-0.28854,-0.0705,-0.02792,-0.03998,-0.0148,-0.00854,0.01419,0.03494,0.02594,0.03372,-0.04227,-0.02472,0.00793,-0.04333
5.056,-0.01984,0.04425,-0.26703,-0.12939,-0.02518,-0.04089,-0.01282,-0.00839,-0.00702,0.04013,0.05051,-0.00626,-0.04227,-0.02609,0.00748,-0.04318
5.0565,-0.01282,0.02426,-0.25482,-0.16052,-0.02304,-0.04257,-0.01343,-0.00885,-0.03021,0.04395,0.06439,0.02747,-0.0412,-0.02823,0.00702,-0.04379
5.057,-0.01465,0.02197,-0.23743,-0.14862,-0.02487,-0.04303,-0.01572,-0.00854,-0.04471,0.04166,0.05936,0.0708,-0.03769,-0.02884,0.00656,-0.04425
5.0575,-0.0145,0.02502,-0.20203,-0.11887,-0.02716,-0.04379,-0.0174,-0.00626,-0.04059,0.02808,0.03693,0.09705,-0.03479,-0.02792,0.00702,-0.04562
5.058,-0.00656,0.02563,-0.15137,-0.10239,-0.02869,-0.0441,-0.01938,-0.00549,-0.01495,0.00214,0.00595,0.11307,-0.03235,-0.02686,0.00473,-0.047
5.0585,0.00519,0.02487,-0.09949,-0.10208,-0.02884,-0.04684,-0.0209,-0.0058,0.0177,-0.03525,-0.02197,0.09995,-0.02975,-0.02518,0.00351,-0.04578
5.059,0.01526,0.02457,-0.0621,-0.09384,-0.02808,-0.04684,-0.02136,-0.00656,0.03113,-0.08209,-0.04715,0.02899,-0.02838,-0.02487,0.00412,-0.04456
5.0595,0.0206,0.02167,-0.04028,-0.05356,-0.02777,-0.04654,-0.01846,-0.0058,0.01556,-0.13092,-0.06668,-0.06378,-0.02899,-0.02792,0.00595,-0.0441
5.06,0.01663,0.00916,-0.02914,0.02487,-0.02731,-0.04593,-0.01526,-0.0029,-0.00275,-0.17532,-0.07309,-0.10132,-0.03235,-0.03113,0.00778,-0.04333
5.0605,0.00565,-0.01144,-0.0206,0.11734,-0.02777,-0.04593,-0.01495,-0.00168,0.00259,-0.20157,-0.06332,-0.06363,-0.03723,-0.0325,0.00793,-0.04211
5.061,-0.00427,-0.03418,-0.01526,0.17242,-0.02823,-0.04501,-0.01495,-0.00244,0.01831,-0.2037,-0.04974,-0.01709,-0.04181,-0.03189,0.00824,-0.04013
5.0615,-0.0061,-0.05112,-0.01434,0.16113,-0.02945,-0.04517,-0.01389,-0.00427,0.0119,-0.17624,-0.05234,-0.01114,-0.0444,-0.02914,0.009,-0.03769
5.062,0.00153,-0.05844,-0.01358,0.1059,-0.02838,-0.04562,-0.01419,-0.00549,-0.01816,-0.12787,-0.0708,-0.02487,-0.04532,-0.02579,0.01083,-0.03708
5.0625,0.01007,-0.05798,-0.00946,0.0589,-0.0296,-0.04593,-0.01709,-0.00443,-0.0386,-0.0676,-0.0972,-0.02121,-0.04669,-0.02243,0.01144,-0.03647
5.063,0.01404,-0.05768,-0.00229,0.0531,-0.03189,-0.04486,-0.01877,-0.00214,-0.02975,-0.00275,-0.12268,-0.00534,-0.04791,-0.02426,0.01083,-0.03632
5.0635,0.01404,-0.06073,0.00824,0.07324,-0.03296,-0.04364,-0.01724,-0.00168,-0.00916,0.06302,-0.13718,0.00183,-0.04639,-0.02762,0.00992,-0.03616
5.064,0.01114,-0.06927,0.01877,0.08118,-0.03281,-0.04303,-0.01663,-0.00259,-0.00702,0.12039,-0.13138,-0.00031,-0.04471,-0.02991,0.00885,-0.03738
5.0645,0.00732,-0.08224,0.03021,0.05219,-0.03204,-0.04471,-0.01923,-0.0058,-0.02243,0.15717,-0.10712,0.00153,-0.04303,-0.02991,0.00854,-0.03845
5.065,0.00397,-0.10132,0.03998,0.00275,-0.03036,-0.04761,-0.02365,-0.00656,-0.02686,0.16281,-0.07492,0.00534,-0.04257,-0.02716,0.00809,-0.04013
5.0655,0.00031,-0.12741,0.04715,-0.0531,-0.0296,-0.0502,-0.02396,-0.00458,-0.0058,0.14755,-0.04639,0.00366,-0.04242,-0.02594,0.00641,-0.04272
5.066,-0.00412,-0.15747,0.05203,-0.13977,-0.0296,-0.05249,-0.02014,-0.00183,0.03036,0.1265,-0.02319,-0.00061,-0.04303,-0.02487,0.00565,-0.04654
5.0665,-0.00961,-0.17761,0.05707,-0.26505,-0.02945,-0.05325,-0.01556,-0.00031,0.06531,0.11032,-0.00092,-0.00031,-0.04318,-0.0235,0.0058,-0.05035
5.067,-0.01312,-0.17654,0.06531,-0.35736,-0.03021,-0.05478,-0.01572,-0.00137,0.08835,0.09933,0.03174,0.00122,-0.04105,-0.02213,0.00793,-0.05096
5.0675,-0.01282,-0.16129,0.07217,-0.31158,-0.03235,-0.05585,-0.01785,-0.00305,0.08987,0.0914,0.06882,-0.00107,-0.0383,-0.02106,0.00916,-0.0499
5.068,-0.00992,-0.1445,0.07187,-0.08713,-0.0322,-0.05646,-0.01938,-0.00305,0.05966,0.08972,0.08331,-0.00977,-0.03601,-0.02075,0.00916,-0.04669
5.0685,-0.00946,-0.13458,0.06195,0.2269,-0.0325,-0.05569,-0.01831,-0.00198,0.0029,0.09506,0.05737,-0.01587,-0.0351,-0.02045,0.00824,-0.04379
5.069,-0.01495,-0.12833,0.05463,0.45135,-0.03189,-0.05341,-0.01602,-0.00244,-0.05737,0.10437,0.01053,-0.00763,-0.03372,-0.01892,0.00854,-0.04166
5.0695,-0.02014,-0.11551,0.0589,0.46188,-0.03052,-0.05112,-0.01617,-0.00244,-0.09979,0.10986,-0.02243,0.01236,-0.03113,-0.01755,0.01099,-0.03967
5.07,-0.02151,-0.09552,0.07141,0.31158,-0.03067,-0.04974,-0.01846,-0.0032,-0.1236,0.11093,-0.02853,0.01312,-0.02914,-0.01663,0.01221,-0.03799
5.0705,-0.02396,-0.07675,0.0853,0.15823,-0.03036,-0.04929,-0.0206,-0.00519,-0.13031,0.10406,-0.02365,-0.02533,-0.02808,-0.01617,0.01007,-0.0351
5.071,-0.03922,-0.0737,0.09491,0.08194,-0.03067,-0.04974,-0.02121,-0.00504,-0.11398,0.0824,-0.01663,-0.08087,-0.02686,-0.01633,0.00763,-0.03479
5.0715,-0.07217,-0.08835,0.09933,0.02762,-0.03082,-0.05096,-0.01953,-0.00214,-0.06989,0.0351,-0.00519,-0.11078,-0.02548,-0.01495,0.00702,-0.03494
5.072,-0.11047,-0.11078,0.10406,-0.07339,-0.03098,-0.05096,-0.01801,0.00153,-0.01648,-0.03708,0.00961,-0.10361,-0.02396,-0.01251,0.00916,-0.0354
5.0725,-0.13123,-0.1239,0.10742,-0.1918,-0.0325,-0.05112,-0.01434,0.00427,0.01282,-0.1265,0.01495,-0.07202,-0.02365,-0.0116,0.0116,-0.03433
5.073,-0.12283,-0.11917,0.10483,-0.22858,-0.03494,-0.05188,-0.01068,0.00626,0.01068,-0.21759,0.00183,-0.02426,-0.02441,-0.01419,0.01328,-0.03311
5.0735,-0.0946,-0.10101,0.0882,-0.11887,-0.03601,-0.05127,-0.01022,0.00626,0.00793,-0.3006,-0.0206,0.02563,-0.02533,-0.01938,0.01266,-0.03387
5.074,-0.0621,-0.07767,0.06531,0.05341,-0.03662,-0.05157,-0.01343,0.00351,0.03128,-0.3746,-0.04166,0.06699,-0.02655,-0.02411,0.00992,-0.03647
5.0745,-0.03418,-0.05264,0.0531,0.08804,-0.03769,-0.05127,-0.01724,-0.00153,0.06439,-0.439,-0.05722,0.0972,-0.02716,-0.02533,0.00732,-0.03845
5.075,-0.01511,-0.02716,0.05615,-0.08835,-0.03876,-0.05188,-0.01907,-0.0058,0.07065,-0.48264,-0.06561,0.0946,-0.02869,-0.02319,0.00641,-0.04013
5.0755,-0.00351,0.00015,0.06424,-0.29053,-0.0383,-0.05356,-0.01953,-0.00656,0.03891,-0.48813,-0.06897,0.01785,-0.03006,-0.01938,0.00717,-0.04272
5.076,0.00351,0.02823,0.07477,-0.31342,-0.03555,-0.05432,-0.01938,-0.00244,-0.01007,-0.43427,-0.07385,-0.10727,-0.02975,-0.01678,0.00641,-0.04608
5.0765,0.01358,0.05585,0.08728,-0.19608,-0.03372,-0.05386,-0.01968,-0.00046,-0.05692,-0.31784,-0.08224,-0.18906,-0.02792,-0.01572,0.00443,-0.04913
5.077,0.02472,0.07401,0.07919,-0.11276,-0.03342,-0.05249,-0.02167,-0.00366,-0.09705,-0.15701,-0.08316,-0.20142,-0.02563,-0.01724,0.00183,-0.04898
5.0775,0.02594,0.08133,0.01755,-0.11856,-0.0322,-0.05188,-0.02396,-0.01022,-0.1236,0.0209,-0.06241,-0.19058,-0.02548,-0.0174,0.00229,-0.04593
5.078,0.00793,0.07904,-0.08911,-0.13428,-0.03143,-0.0528,-0.02396,-0.01495,-0.11673,0.19485,-0.02182,-0.13977,-0.02686,-0.01556,0.00381,-0.04364
5.0785,-0.02365,0.07019,-0.17487,-0.11276,-0.02991,-0.05219,-0.02365,-0.01709,-0.07065,0.34668,0.01617,0.02548,-0.02716,-0.01114,0.0061,-0.04242
5.079,-0.0502,0.05829,-0.18951,-0.09262,-0.02869,-0.05081,-0.02213,-0.0174,-0.01602,0.45456,0.0354,0.28305,-0.02563,-0.00626,0.00824,-0.0415
5.0795,-0.05432,0.04517,-0.1442,-0.10864,-0.02838,-0.04837,-0.02029,-0.01465,0.0119,0.50339,0.03616,0.46753,-0.02426,-0.00397,0.00946,-0.03906
5.08,-0.03937,0.03052,-0.08636,-0.1355,-0.02701,-0.04684,-0.01892,-0.01053,0.0119,0.49332,0.02731,0.42557,-0.02319,-0.00519,0.01068,-0.03616
5.0805,-0.02533,0.01282,-0.05142,-0.11658,-0.02731,-0.04807,-0.01816,-0.00763,0.00626,0.44205,0.01617,0.18295,-0.02243,-0.00717,0.01007,-0.03494
5.081,-0.02533,-0.01038,-0.04562,-0.00641,-0.02808,-0.05005,-0.01633,-0.00488,0.009,0.36301,0.00748,-0.08148,-0.02228,-0.00824,0.00931,-0.03708
5.0815,-0.03128,-0.03891,-0.06424,0.18127,-0.02945,-0.05051,-0.01343,-0.00092,0.01694,0.26657,0.00885,-0.20905,-0.02182,-0.00778,0.00946,-0.0412
5.082,-0.03693,-0.06851,-0.09995,0.32974,-0.02991,-0.0499,-0.01053,0.00366,0.02121,0.1683,0.02228,-0.18036,-0.02182,-0.00916,0.00977,-0.04684
5.0825,-0.03769,-0.09216,-0.13763,0.30701,-0.03006,-0.04807,-0.01053,0.00549,0.0174,0.08652,0.04089,-0.08652,-0.02121,-0.01251,0.01007,-0.04929
5.083,-0.03296,-0.10681,-0.16403,0.13733,-0.03036,-0.04684,-0.01282,0.00275,0.01007,0.03174,0.05554,-0.0177,-0.02075,-0.01434,0.00854,-0.04852
5.0835,-0.0264,-0.1178,-0.17426,-0.01328,-0.0322,-0.04623,-0.01556,-0.00305,0.00473,-0.00595,0.06668,0.01846,-0.01999,-0.01236,0.00595,-0.04501
5.084,-0.03189,-0.13,-0.17807,-0.04974,-0.03448,-0.04623,-0.01755,-0.00763,0.00122,-0.03616,0.08316,0.06912,-0.01724,-0.00854,0.00534,-0.04135
5.0845,-0.05737,-0.14023,-0.1857,-0.03281,-0.03632,-0.04486,-0.01831,-0.0087,-0.00214,-0.06134,0.09903,0.12329,-0.01587,-0.00549,0.00458,-0.03922
5.085,-0.09399,-0.13794,-0.19775,-0.04227,-0.03738,-0.04547,-0.01846,-0.00687,0.00046,-0.08102,0.10529,0.11139,-0.01678,-0.00671,0.0058,-0.03769
5.0855,-0.11353,-0.11902,-0.20309,-0.06195,-0.03876,-0.04593,-0.01923,-0.0058,0.01068,-0.10132,0.10147,0.02518,-0.02121,-0.00931,0.00656,-0.03647
5.086,-0.10452,-0.08957,-0.18707,-0.04608,-0.03876,-0.04608,-0.0177,-0.00473,0.01923,-0.12848,0.10071,-0.04868,-0.02594,-0.01144,0.00641,-0.03418
5.0865,-0.08041,-0.06287,-0.14343,-0.00092,-0.03769,-0.04639,-0.01526,-0.00381,0.01801,-0.15656,0.10468,-0.05478,-0.03036,-0.01328,0.00839,-0.03403
5.087,-0.06073,-0.04639,-0.08575,0.03021,-0.03616,-0.04745,-0.01221,-0.00244,0.01648,-0.17441,0.09277,-0.05341,-0.03494,-0.01709,0.00931,-0.03616
5.0875,-0.05081,-0.0386,-0.04425,0.02792,-0.03433,-0.04654,-0.00931,-0.00092,0.02853,-0.18509,0.05005,-0.10681,-0.03983,-0.02136,0.00885,-0.03998
5.088,-0.04272,-0.03418,-0.03525,0.01129,-0.03387,-0.04486,-0.00702,0.00046,0.04745,-0.20035,-0.00992,-0.14801,-0.04196,-0.02579,0.00687,-0.04257
5.0885,-0.03113,-0.03021,-0.04501,0.00885,-0.03342,-0.04257,-0.0061,0.00046,0.04578,-0.22369,-0.05905,-0.0766,-0.04135,-0.02731,0.00458,-0.04196
5.089,-0.01709,-0.02853,-0.04669,0.02701,-0.03128,-0.04181,-0.00824,-0.00153,0.01282,-0.24887,-0.07996,0.05142,-0.04181,-0.02991,0.00244,-0.04074
5.0895,-0.00473,-0.03006,-0.03128,0.04868,-0.0296,-0.04059,-0.01221,-0.00473,-0.03021,-0.26718,-0.07767,0.09888,-0.0415,-0.03189,0.00336,-0.04074
5.09,0.00916,-0.03372,-0.01038,0.05539,-0.02869,-0.03937,-0.01495,-0.00748,-0.06317,-0.27206,-0.06561,0.0795,-0.04196,-0.0322,0.00641,-0.0412
5.0905,0.02594,-0.03738,0.00504,0.04517,-0.02975,-0.03952,-0.01587,-0.00946,-0.09415,-0.26474,-0.05478,0.12756,-0.04105,-0.0322,0.00763,-0.04166
5.091,0.03906,-0.03983,0.01678,0.0322,-0.03128,-0.04166,-0.01541,-0.00961,-0.13535,-0.24597,-0.0473,0.24597,-0.03906,-0.03113,0.00641,-0.04227
5.0915,0.0415,-0.0386,0.02808,0.02411,-0.03204,-0.04379,-0.0148,-0.00824,-0.17395,-0.21332,-0.04303,0.28793,-0.03632,-0.02975,0.00397,-0.04242
5.092,0.03448,-0.03632,0.03815,0.01251,-0.03159,-0.04547,-0.01465,-0.00732,-0.18036,-0.16006,-0.04425,0.1976,-0.03387,-0.02502,0.00336,-0.04272
5.0925,0.02762,-0.03647,0.0412,-0.00748,-0.03021,-0.04501,-0.01404,-0.00687,-0.15182,-0.08438,-0.05508,0.08301,-0.03296,-0.01984,0.00534,-0.04211
5.093,0.0264,-0.03799,0.03571,-0.02823,-0.03006,-0.04501,-0.01236,-0.00687,-0.11627,0.00229,-0.07126,0.03967,-0.03174,-0.01556,0.00626,-0.0412
5.0935,0.02625,-0.03784,0.0296,-0.03143,-0.03143,-0.04517,-0.01007,-0.00717,-0.10178,0.08041,-0.08224,0.04669,-0.03098,-0.01175,0.00595,-0.04166
5.094,0.01846,-0.03082,0.03616,-0.01022,-0.03281,-0.04654,-0.01038,-0.00626,-0.103,0.13763,-0.07813,0.05234,-0.03128,-0.01221,0.00519,-0.0415
5.0945,0.00107,-0.0206,0.05875,0.01526,-0.0351,-0.04868,-0.01343,-0.00519,-0.09567,0.17059,-0.06149,0.04013,-0.03235,-0.0174,0.0058,-0.04166
5.095,-0.02029,-0.01404,0.08545,0.02472,-0.03479,-0.0502,-0.01587,-0.00412,-0.06973,0.18143,-0.04211,-0.00031,-0.03372,-0.02274,0.00778,-0.04089
5.0955,-0.03876,-0.01373,0.10513,0.02274,-0.03403,-0.05081,-0.01541,-0.0032,-0.03799,0.17166,-0.02792,-0.07919,-0.03296,-0.02182,0.00641,-0.03845
5.096,-0.05066,-0.01678,0.11765,0.0383,-0.03311,-0.05051,-0.01404,-0.00229,-0.01343,0.14969,-0.01968,-0.16663,-0.03128,-0.01511,-0.00183,-0.03693
5.0965,-0.05356,-0.02151,0.12634,0.0824,-0.03204,-0.05081,-0.0145,-0.00229,0.00366,0.12222,-0.01205,-0.20706,-0.03036,-0.00702,-0.01312,-0.03784
5.097,-0.04959,-0.02701,0.12314,0.13336,-0.03174,-0.04959,-0.01602,-0.00214,0.02457,0.09537,-0.00198,-0.18219,-0.03052,-0.00275,-0.01968,-0.04089
5.0975,-0.04486,-0.03601,0.09766,0.16479,-0.03174,-0.04913,-0.01755,-0.00214,0.05035,0.06821,0.01205,-0.12817,-0.02991,-0.00061,-0.02136,-0.04196
5.098,-0.04196,-0.04883,0.05142,0.159,-0.03174,-0.04929,-0.01572,-0.00168,0.06897,0.04135,0.02945,-0.10284,-0.02914,-0.00092,-0.02106,-0.04227
5.0985,-0.04242,-0.06317,0.00015,0.09705,-0.03067,-0.04929,-0.01343,0.00061,0.07141,0.01068,0.04471,-0.13977,-0.02838,-0.0029,-0.02228,-0.04303
5.099,-0.04654,-0.0737,-0.04074,-0.02975,-0.02945,-0.04761,-0.01312,0.00259,0.06668,-0.02808,0.04944,-0.21774,-0.02914,-0.00778,-0.02243,-0.0444
5.0995,-0.05814,-0.07782,-0.06104,-0.18356,-0.02747,-0.04456,-0.01312,0.00259,0.06409,-0.07523,0.04044,-0.26154,-0.03189,-0.01419,-0.01266,-0.0444
5.1,-0.08011,-0.07446,-0.06241,-0.29556,-0.02609,-0.0415,-0.0119,-0.00015,0.05737,-0.12161,0.02823,-0.19852,-0.03494,-0.01846,0.01846,-0.04059
5.1005,-0.10345,-0.06836,-0.06042,-0.31158,-0.02579,-0.04074,-0.01007,-0.00183,0.03723,-0.15579,0.0206,-0.03891,-0.03571,-0.01984,0.06271,-0.03799
5.101,-0.11276,-0.06149,-0.06821,-0.19226,-0.02563,-0.04059,-0.00977,-0.00015,0.01587,-0.17899,0.01633,0.11566,-0.0351,-0.02014,0.09308,-0.03769
5.1015,-0.10254,-0.05692,-0.0856,0.04761,-0.02579,-0.0412,-0.0116,0.00259,0.01846,-0.19424,0.00504,0.15961,-0.03418,-0.02167,0.08636,-0.03937
5.102,-0.07858,-0.05371,-0.09613,0.24063,-0.02609,-0.04227,-0.01358,0.00305,0.04395,-0.20447,-0.01556,0.08163,-0.03525,-0.02472,0.05142,-0.04135
5.1025,-0.05249,-0.04929,-0.08392,0.19257,-0.02838,-0.04364,-0.01282,0.00076,0.06241,-0.19608,-0.03952,-0.03418,-0.03754,-0.02731,0.01724,-0.04364
5.103,-0.0322,-0.04425,-0.05249,-0.04639,-0.03036,-0.04501,-0.01038,-0.00244,0.05219,-0.15961,-0.05432,-0.10193,-0.03891,-0.02747,0.0029,-0.04684
5.1035,-0.01877,-0.04623,-0.03418,-0.21637,-0.03098,-0.04623,-0.00885,-0.00473,0.02365,-0.10284,-0.05707,-0.10239,-0.03815,-0.02655,0.0032,-0.04837
5.104,-0.00854,-0.05585,-0.05157,-0.1918,-0.03021,-0.04578,-0.00916,-0.00626,-0.00626,-0.04578,-0.05112,-0.0621,-0.03937,-0.02808,0.0087,-0.04669
5.1045,0.00153,-0.06256,-0.09323,-0.08392,-0.02914,-0.0444,-0.01038,-0.00687,-0.0383,-0.01099,-0.04395,-0.00198,-0.04227,-0.03128,0.01297,-0.04272
5.105,0.00931,-0.05646,-0.12909,-0.01831,-0.02853,-0.04532,-0.00992,-0.00488,-0.07278,-0.00504,-0.03601,0.06622,-0.04532,-0.03174,0.01495,-0.03937
5.1055,0.00977,-0.03525,-0.14374,0.02792,-0.0293,-0.04578,-0.00854,-0.00122,-0.09918,-0.02045,-0.01862,0.13123,-0.04486,-0.0296,0.01495,-0.03876
5.106,0.0061,-0.00229,-0.14343,0.12939,-0.03036,-0.047,-0.00641,0.00336,-0.11047,-0.04135,0.00992,0.18005,-0.04257,-0.0267,0.01373,-0.03998
5.1065,0.00626,0.03616,-0.13794,0.27328,-0.03159,-0.04654,-0.00488,0.00458,-0.10651,-0.05737,0.03723,0.18845,-0.0412,-0.02518,0.0116,-0.04211
5.107,0.01373,0.06378,-0.12756,0.35919,-0.03403,-0.04822,-0.00519,0.00397,-0.08209,-0.0647,0.05402,0.121,-0.04196,-0.02487,0.00778,-0.04349
5.1075,0.02396,0.07019,-0.10803,0.29739,-0.03616,-0.0502,-0.0061,0.00275,-0.0267,-0.05814,0.05829,-0.01877,-0.04379,-0.02563,0.00565,-0.04623
5.108,0.02945,0.05829,-0.08072,0.09125,-0.03693,-0.05127,-0.00732,-0.00046,0.04089,-0.0351,0.05234,-0.15167,-0.0441,-0.02487,0.00626,-0.04913
5.1085,0.03067,0.04181,-0.05173,-0.15213,-0.03693,-0.0502,-0.00824,-0.0029,0.07462,0.00046,0.03403,-0.19485,-0.04364,-0.02502,0.00519,-0.05051
5.109,0.02838,0.03021,-0.03113,-0.30365,-0.0383,-0.04898,-0.00717,-0.00381,0.05066,0.03937,0.00214,-0.12985,-0.04257,-0.0238,0.00549,-0.04791
5.1095,0.02701,0.02625,-0.03189,-0.31219,-0.04013,-0.04837,-0.00595,-0.00443,0.00351,0.08316,-0.0383,-0.00671,-0.04257,-0.01984,0.00641,-0.04318
5.11,0.02991,0.02747,-0.05219,-0.242,-0.04013,-0.04883,-0.0061,-0.0058,-0.01846,0.13031,-0.07446,0.09155,-0.04257,-0.01373,0.00671,-0.0383
5.1105,0.03525,0.02365,-0.07172,-0.19699,-0.03983,-0.05081,-0.01022,-0.00809,-0.01114,0.17532,-0.09598,0.09125,-0.04196,-0.01175,0.00717,-0.0354
5.111,0.03983,0.0116,-0.07172,-0.2092,-0.03967,-0.05402,-0.0148,-0.01038,0.00259,0.20874,-0.10056,-0.00641,-0.03967,-0.01389,0.00717,-0.03433
5.1115,0.04318,-0.00732,-0.05417,-0.21805,-0.04135,-0.05478,-0.01678,-0.01068,0.0116,0.22629,-0.09552,-0.10788,-0.03616,-0.01694,0.0061,-0.03479
5.112,0.04608,-0.02777,-0.03326,-0.16769,-0.04379,-0.05432,-0.01694,-0.00946,0.01923,0.23315,-0.08896,-0.12543,-0.03342,-0.0177,0.00565,-0.03677
5.1125,0.04654,-0.04745,-0.02045,-0.07507,-0.047,-0.05585,-0.01816,-0.00763,0.01541,0.233,-0.08011,-0.07187,-0.03281,-0.01846,0.00702,-0.04044
5.113,0.04318,-0.06744,-0.01968,0.00198,-0.05051,-0.05661,-0.01953,-0.00427,-0.00687,0.2272,-0.07278,-0.01968,-0.03464,-0.02121,0.00946,-0.04349
5.1135,0.03891,-0.09003,-0.02975,0.01495,-0.05112,-0.05539,-0.01938,-0.00244,-0.03525,0.21347,-0.0708,-0.00641,-0.03525,-0.02457,0.00977,-0.04272
5.114,0.03616,-0.11108,-0.04181,-0.06897,-0.04852,-0.05295,-0.01663,-0.00168,-0.04883,0.18784,-0.07248,-0.00916,-0.03418,-0.02411,0.00458,-0.0412
5.1145,0.03387,-0.12146,-0.04089,-0.23514,-0.04501,-0.05203,-0.01465,-0.00244,-0.04288,0.14908,-0.06546,-0.00748,-0.03265,-0.0206,-0.00153,-0.0386
5.115,0.03174,-0.11673,-0.0206,-0.37933,-0.04318,-0.05341,-0.01633,-0.0032,-0.03021,0.10315,-0.0473,-0.00534,-0.03235,-0.01709,-0.00488,-0.03845
5.1155,0.03082,-0.103,0.00366,-0.36026,-0.04074,-0.05386,-0.0177,-0.0032,-0.0174,0.05661,-0.03403,-0.01221,-0.03174,-0.01724,-0.00305,-0.04227
5.116,0.03128,-0.09155,0.01205,-0.13641,-0.03723,-0.0528,-0.01785,-0.00031,-0.0058,0.01053,-0.0351,-0.02655,-0.03036,-0.01862,-0.00031,-0.04929
5.1165,0.02853,-0.09079,0.00626,0.18585,-0.03555,-0.05096,-0.01663,0.00412,0.00412,-0.03708,-0.04654,-0.01755,-0.02914,-0.01953,0.00397,-0.05432
5.117,0.0209,-0.10162,0.00397,0.40894,-0.03555,-0.05051,-0.01633,0.00687,0.00961,-0.08148,-0.0531,0.06104,-0.02823,-0.01984,0.00595,-0.05356
5.1175,0.0116,-0.11826,0.01419,0.38055,-0.03571,-0.0499,-0.01831,0.00336,0.00885,-0.11307,-0.04745,0.21088,-0.02747,-0.02106,0.0058,-0.04761
5.118,0.00488,-0.13,0.02304,0.13367,-0.03555,-0.05066,-0.01938,-0.00259,0.00107,-0.12543,-0.03677,0.34607,-0.02701,-0.02228,0.00656,-0.04242
5.1185,0.00275,-0.12665,0.0206,-0.11322,-0.03571,-0.05219,-0.01831,-0.00717,-0.01129,-0.12115,-0.03448,0.35553,-0.03036,-0.02335,0.00763,-0.04059
5.119,0.00214,-0.10864,0.00717,-0.17151,-0.03555,-0.05325,-0.01602,-0.00748,-0.02136,-0.10681,-0.04379,0.21225,-0.03769,-0.02426,0.00717,-0.03891
5.1195,0.00031,-0.08301,-0.01297,-0.06577,-0.03464,-0.05219,-0.01526,-0.00504,-0.01892,-0.08453,-0.05478,0.00687,-0.04745,-0.02563,0.00656,-0.03769
5.12,-0.00198,-0.06271,-0.03815,0.04837,-0.0325,-0.04898,-0.01556,-0.00336,0.00107,-0.05798,-0.05356,-0.13229,-0.05554,-0.0267,0.00473,-0.0383
5.1205,-0.00748,-0.05203,-0.06653,0.06927,-0.03098,-0.04547,-0.01602,-0.00229,0.04578,-0.03464,-0.03998,-0.15427,-0.05936,-0.02625,0.00244,-0.0412
5.121,-0.0148,-0.04288,-0.09277,0.01465,-0.02838,-0.0441,-0.01556,-0.00259,0.11536,-0.02228,-0.02731,-0.10513,-0.05661,-0.02472,0.00092,-0.04211
5.1215,-0.02106,-0.02716,-0.11047,-0.04395,-0.02777,-0.04501,-0.01541,-0.00458,0.18234,-0.02304,-0.02472,-0.04913,-0.04974,-0.02289,0.00198,-0.04059
5.122,-0.02289,-0.00854,-0.11597,-0.0441,-0.02701,-0.04578,-0.01694,-0.00549,0.19623,-0.03036,-0.02609,-0.00824,-0.04349,-0.02121,0.00488,-0.04089
5.1225,-0.02289,0.00107,-0.11581,0.03372,-0.0267,-0.04593,-0.01831,-0.00549,0.13641,-0.03906,-0.01953,0.02335,-0.03922,-0.01862,0.00763,-0.0444
5.123,-0.02411,-0.00519,-0.11871,0.14175,-0.02609,-0.04532,-0.0174,-0.00473,0.02655,-0.0415,-0.00351,0.04486,-0.03555,-0.01648,0.00778,-0.04822
5.1235,-0.02579,-0.02029,-0.12848,0.20584,-0.02533,-0.04547,-0.01312,-0.00397,-0.10086,-0.04089,0.01358,0.04166,-0.03098,-0.01678,0.00748,-0.04929
5.124,-0.02426,-0.03021,-0.14038,0.19104,-0.02594,-0.04745,-0.01038,-0.00336,-0.22263,-0.04593,0.02487,0.00549,-0.02777,-0.01938,0.0061,-0.04959
5.1245,-0.01694,-0.03357,-0.1355,0.12222,-0.02594,-0.04623,-0.00992,-0.00198,-0.30487,-0.06546,0.0322,-0.05432,-0.02701,-0.02136,0.00549,-0.04745
5.125,-0.00534,-0.0325,-0.09933,0.04501,-0.02426,-0.04532,-0.01007,-0.00092,-0.30182,-0.09766,0.0383,-0.11765,-0.02808,-0.02136,0.00549,-0.04608
5.1255,0.00381,-0.02792,-0.04684,-0.00275,-0.02411,-0.04395,-0.01083,-0.00031,-0.21332,-0.12985,0.04105,-0.15869,-0.02777,-0.02075,0.0058,-0.04623
5.126,0.00671,-0.01526,-0.00732,-0.00412,-0.02563,-0.0441,-0.01266,-0.00046,-0.10208,-0.14755,0.04379,-0.16449,-0.0264,-0.01877,0.00549,-0.04593
5.1265,0.00519,0.00458,0.01694,0.01923,-0.0264,-0.04501,-0.01617,-0.00076,-0.03235,-0.14069,0.05768,-0.1387,-0.02335,-0.01846,0.00671,-0.04364
5.127,0.00275,0.02274,0.04181,0.02487,-0.02563,-0.04547,-0.01938,-0.00031,-0.0116,-0.10834,0.08255,-0.07187,-0.0206,-0.01877,0.00778,-0.04013
5.1275,0.00275,0.0296,0.06332,-0.00443,-0.02487,-0.04547,-0.01755,0.00107,-0.00626,-0.0592,0.10101,0.0444,-0.01968,-0.01892,0.00977,-0.03937
5.128,0.00244,0.02594,0.06607,-0.0441,-0.02563,-0.04654,-0.01389,0.00198,0.00565,-0.01205,0.09888,0.13092,-0.02182,-0.01984,0.00961,-0.04166
5.1285,0.00336,0.01465,0.04532,-0.06912,-0.02716,-0.0473,-0.01205,0.00153,0.01785,0.01892,0.08606,0.07797,-0.02777,-0.02121,0.00809,-0.04547
5.129,0.00656,-0.00153,0.01678,-0.07828,-0.02853,-0.04745,-0.01251,-0.00092,0.01907,0.02731,0.07675,-0.07401,-0.03418,-0.02426,0.00656,-0.04639
5.1295,0.01205,-0.01862,-0.0029,-0.08362,-0.02884,-0.04761,-0.01434,-0.00381,0.01007,0.01694,0.06729,-0.15244,-0.03723,-0.02548,0.00473,-0.04501
5.13,0.01495,-0.02975,-0.01404,-0.08224,-0.02914,-0.04852,-0.01587,-0.00458,-0.00275,-0.00595,0.04395,-0.09857,-0.0354,-0.02441,0.00397,-0.0444
5.1305,0.01251,-0.03571,-0.02426,-0.05035,-0.02838,-0.04944,-0.01801,-0.00549,-0.00931,-0.03708,0.00854,-0.01007,-0.03113,-0.02319,0.00412,-0.04471
5.131,0.00626,-0.04715,-0.04135,0.01312,-0.02792,-0.04868,-0.01785,-0.00656,-0.00092,-0.07141,-0.02029,0.05783,-0.02945,-0.02228,0.00519,-0.04379
5.1315,0.00244,-0.07477,-0.06271,0.05936,-0.02899,-0.04562,-0.01556,-0.00671,0.02396,-0.09872,-0.02823,0.14542,-0.0325,-0.02167,0.00702,-0.04166
5.132,0.00565,-0.11047,-0.08041,0.03769,-0.02808,-0.04303,-0.01343,-0.00519,0.05127,-0.11444,-0.02502,0.24734,-0.03632,-0.02029,0.0087,-0.04074
5.1325,0.01312,-0.13443,-0.08377,-0.03006,-0.02625,-0.0415,-0.01434,-0.00336,0.05966,-0.11826,-0.02716,0.29053,-0.03876,-0.01709,0.00961,-0.04135
5.133,0.01846,-0.13397,-0.07751,-0.07202,-0.02426,-0.0412,-0.01617,-0.00351,0.04211,-0.1149,-0.03952,0.22873,-0.03647,-0.01221,0.00977,-0.0412
5.1335,0.01923,-0.11597,-0.06241,-0.05905,-0.02625,-0.04196,-0.01556,-0.00534,0.01007,-0.11093,-0.05722,0.07462,-0.03159,-0.00732,0.00992,-0.03967
5.134,0.01984,-0.09567,-0.02808,-0.02716,-0.0296,-0.04456,-0.01328,-0.00626,-0.0177,-0.10452,-0.07675,-0.1149,-0.02625,-0.00397,0.01144,-0.03769
5.1345,0.02258,-0.07568,0.0267,-0.01648,-0.03128,-0.04608,-0.01068,-0.00534,-0.03891,-0.08881,-0.09872,-0.23926,-0.02228,-0.00427,0.01221,-0.0383
5.135,0.02716,-0.05142,0.06805,-0.0264,-0.03159,-0.04684,-0.00931,-0.00412,-0.05737,-0.06821,-0.11383,-0.20447,-0.02151,-0.00641,0.01221,-0.04105
5.1355,0.03036,-0.02304,0.06378,-0.04272,-0.03143,-0.04639,-0.00916,-0.00504,-0.06989,-0.0502,-0.10788,-0.00854,-0.02365,-0.00854,0.01175,-0.04593
5.136,0.03235,-0.0061,0.0235,-0.06378,-0.03036,-0.047,-0.01251,-0.00626,-0.06805,-0.03891,-0.07874,0.21927,-0.02533,-0.01144,0.01205,-0.0499
5.1365,0.03204,-0.0119,-0.01541,-0.09201,-0.02823,-0.04623,-0.01602,-0.00763,-0.05646,-0.03113,-0.04486,0.31631,-0.02548,-0.01495,0.01266,-0.05157
5.137,0.0296,-0.0322,-0.03708,-0.11597,-0.02747,-0.04532,-0.01678,-0.00885,-0.04486,-0.02548,-0.02792,0.23392,-0.02457,-0.0174,0.01038,-0.05112
5.1375,0.02472,-0.05051,-0.04898,-0.09674,-0.02731,-0.04562,-0.01419,-0.00992,-0.03479,-0.02213,-0.02945,0.07385,-0.02487,-0.0174,0.0058,-0.04852
5.138,0.02029,-0.0563,-0.05692,-0.00519,-0.02731,-0.04669,-0.00946,-0.01007,-0.01999,-0.02411,-0.03265,-0.0412,-0.0264,-0.01526,0.00397,-0.04639
5.1385,0.01572,-0.05875,-0.0592,0.11322,-0.02747,-0.04745,-0.00671,-0.0087,-0.00076,-0.03174,-0.02701,-0.08209,-0.02823,-0.01465,0.00534,-0.04593
5.139,0.01022,-0.06302,-0.06348,0.1561,-0.02808,-0.04822,-0.0058,-0.00565,0.01465,-0.0473,-0.01785,-0.08484,-0.0293,-0.01709,0.00458,-0.047
5.1395,0.00366,-0.06882,-0.07401,0.09232,-0.03021,-0.0499,-0.0061,-0.00381,0.01938,-0.07111,-0.01877,-0.06943,-0.02975,-0.01877,0.00229,-0.04684
5.14,-0.0032,-0.07568,-0.08713,0.00336,-0.03036,-0.05157,-0.00748,-0.0029,0.01587,-0.10162,-0.03448,-0.03784,-0.02945,-0.0177,0.00076,-0.04532
5.1405,-0.01022,-0.08698,-0.09476,-0.02243,-0.03006,-0.05173,-0.00931,-0.00427,0.00885,-0.1355,-0.05798,-0.00351,-0.0296,-0.01648,-0.00031,-0.0441
5.141,-0.01556,-0.10315,-0.09857,0.01007,-0.02899,-0.05234,-0.01236,-0.00656,0.00336,-0.16754,-0.08057,0.01129,-0.02975,-0.0174,0.00061,-0.04272
5.1415,-0.01877,-0.12085,-0.10574,0.03128,-0.02884,-0.05234,-0.01434,-0.00717,0.00412,-0.19745,-0.09506,0.00229,-0.0296,-0.01923,0.00244,-0.04074
5.142,-0.01694,-0.13275,-0.10849,-0.00916,-0.03006,-0.05264,-0.01587,-0.00504,0.01053,-0.22003,-0.09277,-0.0145,-0.02762,-0.01999,0.00488,-0.03922
5.1425,-0.01419,-0.13321,-0.09659,-0.09872,-0.03036,-0.05173,-0.01663,-0.00275,0.01938,-0.22324,-0.06561,-0.02609,-0.02457,-0.01907,0.00778,-0.0383
5.143,-0.01587,-0.1178,-0.06973,-0.17517,-0.0296,-0.0499,-0.01587,-0.00153,0.02472,-0.19394,-0.01572,-0.03326,-0.02289,-0.0174,0.01205,-0.03662
5.1435,-0.02243,-0.08179,-0.03998,-0.186,-0.02777,-0.04807,-0.01419,-0.00061,0.02502,-0.13214,0.04135,-0.04074,-0.02151,-0.01541,0.01709,-0.03479
5.144,-0.02945,-0.03342,-0.01434,-0.11383,-0.02808,-0.04684,-0.01236,-0.00046,0.01694,-0.05447,0.08347,-0.04608,-0.0206,-0.0145,0.02029,-0.03265
5.1445,-0.03235,0.01007,0.01419,0.04288,-0.0293,-0.04807,-0.01282,-0.00046,-0.00412,0.0119,0.0946,-0.04395,-0.02045,-0.01587,0.02045,-0.03281
5.145,-0.0293,0.03647,0.05402,0.23026,-0.03021,-0.04837,-0.01358,0.00061,-0.03754,0.05646,0.07843,-0.03235,-0.02151,-0.01999,0.01801,-0.03479
5.1455,-0.02457,0.04868,0.09964,0.31815,-0.03113,-0.04776,-0.01511,-0.00046,-0.07523,0.08484,0.056,-0.01358,-0.02518,-0.02396,0.01465,-0.03738
5.146,-0.01862,0.05661,0.13138,0.21988,-0.03113,-0.04623,-0.01678,-0.00305,-0.10132,0.11444,0.04272,0.0116,-0.02991,-0.02686,0.01389,-0.03815
5.1465,-0.01266,0.0647,0.11154,0.02213,-0.03174,-0.04456,-0.01968,-0.00717,-0.10544,0.15274,0.03769,0.04013,-0.03357,-0.02838,0.01541,-0.03693
5.147,-0.00748,0.06821,0.02487,-0.10818,-0.03143,-0.04349,-0.02182,-0.00824,-0.08606,0.19501,0.03738,0.0528,-0.0354,-0.02884,0.01587,-0.03586
5.1475,-0.00366,0.06348,-0.09125,-0.11612,-0.03098,-0.04288,-0.02167,-0.00641,-0.05692,0.22705,0.04608,0.02747,-0.03586,-0.02747,0.01373,-0.03708
5.148,-0.00229,0.05386,-0.17242,-0.0737,-0.03021,-0.04349,-0.02014,-0.00336,-0.0293,0.23666,0.06058,-0.0322,-0.03479,-0.02335,0.01007,-0.03906
5.1485,-0.00458,0.04639,-0.19302,-0.03998,-0.02914,-0.04425,-0.01755,-0.00168,-0.00946,0.22644,0.06577,-0.08698,-0.03189,-0.01663,0.00717,-0.04288
5.149,-0.009,0.0441,-0.17868,-0.00595,-0.02838,-0.04379,-0.01526,-0.00214,0.00031,0.20538,0.05173,-0.10056,-0.02945,-0.01083,0.00793,-0.04669
5.1495,-0.01144,0.04807,-0.16174,0.03311,-0.02838,-0.04089,-0.01312,-0.0032,0.0,0.18356,0.02579,-0.06866,-0.02899,-0.00824,0.0119,-0.04837
5.15,-0.01038,0.05325,-0.14923,0.05005,-0.0296,-0.0383,-0.0119,-0.00427,-0.00885,0.16357,-0.00046,-0.0119,-0.02884,-0.00931,0.01633,-0.047
5.1505,-0.00977,0.0531,-0.13321,0.03952,-0.03036,-0.03784,-0.01175,-0.00443,-0.02014,0.14313,-0.02029,0.03647,-0.02823,-0.0116,0.01602,-0.04227
5.151,-0.01205,0.04669,-0.11017,0.03098,-0.0293,-0.03769,-0.01205,-0.00305,-0.02502,0.11581,-0.02899,0.02579,-0.02686,-0.01373,0.01236,-0.03876
5.1515,-0.01541,0.03571,-0.08698,0.04059,-0.02792,-0.03616,-0.0119,-0.00107,-0.02213,0.07706,-0.02838,-0.065,-0.02701,-0.01282,0.00778,-0.03876
5.152,-0.01663,0.02258,-0.06256,0.03845,-0.02853,-0.03647,-0.01022,-0.00092,-0.01587,0.02792,-0.02747,-0.17517,-0.02853,-0.01175,0.00519,-0.04044
5.1525,-0.01526,0.00809,-0.03082,0.00549,-0.03128,-0.03906,-0.01038,-0.00153,-0.01282,-0.01877,-0.03754,-0.18753,-0.02884,-0.0119,0.0058,-0.03876
5.153,-0.01404,-0.0058,0.0029,-0.03372,-0.03265,-0.04318,-0.01282,-0.00259,-0.0174,-0.05524,-0.05463,-0.05722,-0.02853,-0.01221,0.00854,-0.03403
5.1535,-0.01266,-0.01938,0.02182,-0.04456,-0.03403,-0.04578,-0.01404,-0.00229,-0.02762,-0.08453,-0.06592,0.10254,-0.02777,-0.00961,0.01083,-0.0293
5.154,-0.01144,-0.03586,0.01343,-0.0351,-0.03555,-0.04654,-0.01343,-0.00031,-0.03998,-0.11185,-0.0676,0.13962,-0.02777,-0.00687,0.0116,-0.0296
5.1545,-0.00946,-0.05417,-0.01282,-0.0441,-0.03769,-0.04761,-0.01221,0.00168,-0.05035,-0.13565,-0.06516,0.05997,-0.02899,-0.00641,0.00809,-0.03433
5.155,-0.00748,-0.07141,-0.03601,-0.07431,-0.03845,-0.04959,-0.0119,0.00244,-0.05173,-0.15076,-0.06409,0.00793,-0.03113,-0.01083,0.00244,-0.04166
5.1555,-0.00595,-0.08301,-0.04105,-0.08545,-0.03891,-0.05157,-0.01266,0.0032,-0.03845,-0.15289,-0.06424,0.0589,-0.03342,-0.01556,-0.00153,-0.04974
5.156,-0.00641,-0.09003,-0.0354,-0.05173,-0.03937,-0.0528,-0.01312,0.0032,-0.01511,-0.14694,-0.06012,0.12283,-0.03479,-0.01709,-0.00214,-0.056
5.1565,-0.00504,-0.09766,-0.03326,-0.00961,-0.03967,-0.05386,-0.01404,0.0032,0.00702,-0.13275,-0.0441,0.08575,-0.03586,-0.01617,0.0,-0.05737
5.157,-0.0029,-0.10773,-0.04196,-0.02029,-0.03983,-0.05569,-0.01434,0.00214,0.01617,-0.11047,-0.01099,-0.03647,-0.03616,-0.01526,0.00153,-0.05386
5.1575,-0.00031,-0.11627,-0.05142,-0.10162,-0.03967,-0.05554,-0.01648,0.00092,0.01083,-0.07614,0.03448,-0.12466,-0.03891,-0.01633,0.00336,-0.04929
5.158,0.00153,-0.12024,-0.04776,-0.21362,-0.04105,-0.05371,-0.01755,0.00015,-0.00168,-0.0386,0.06866,-0.10712,-0.04318,-0.0177,0.00275,-0.0473
5.1585,0.00534,-0.12375,-0.0267,-0.28687,-0.04135,-0.05173,-0.01755,-0.00076,-0.01541,-0.01389,0.07095,-0.02518,-0.04669,-0.01831,0.00076,-0.04791
5.159,0.00748,-0.13077,0.00443,-0.26016,-0.04044,-0.05081,-0.01633,-0.0029,-0.02747,-0.01266,0.04959,0.03052,-0.04807,-0.01984,-0.00214,-0.05066
5.1595,0.00702,-0.13855,0.0386,-0.0943,-0.03784,-0.05051,-0.01617,-0.00397,-0.03647,-0.0351,0.03098,0.01328,-0.04623,-0.02274,-0.00183,-0.05295
5.16,0.00412,-0.14435,0.06958,0.20081,-0.03479,-0.04974,-0.01709,-0.0029,-0.0383,-0.07538,0.02365,-0.05371,-0.04456,-0.0264,0.00031,-0.05203
5.1605,0.00122,-0.14908,0.0885,0.49942,-0.0351,-0.04898,-0.01801,-0.00183,-0.03189,-0.12802,0.02029,-0.11597,-0.04532,-0.02975,0.00275,-0.047
5.161,-0.00183,-0.15396,0.0914,0.58945,-0.03738,-0.05035,-0.01953,-0.00427,-0.02304,-0.17853,0.01312,-0.14114,-0.04623,-0.03189,0.00488,-0.04364
5.1615,-0.00534,-0.15533,0.08484,0.40298,-0.03876,-0.05203,-0.02106,-0.00854,-0.01678,-0.20691,0.00534,-0.1265,-0.04608,-0.03006,0.00702,-0.04318
5.162,-0.00687,-0.14893,0.08041,0.14114,-0.03815,-0.05219,-0.02304,-0.01266,-0.01709,-0.20569,0.00137,-0.07446,-0.04608,-0.02747,0.00717,-0.04349
5.1625,-0.00443,-0.13229,0.08926,0.02686,-0.0383,-0.0502,-0.02396,-0.0148,-0.02045,-0.18311,-0.00061,0.02563,-0.0473,-0.0267,0.00259,-0.04181
5.163,-0.00015,-0.10834,0.09979,0.03113,-0.0386,-0.05005,-0.02258,-0.01297,-0.01587,-0.15701,-0.00168,0.16388,-0.04776,-0.02731,-0.00412,-0.0386
5.1635,0.00031,-0.09186,0.08667,-0.01434,-0.03952,-0.05096,-0.01968,-0.00793,0.0032,-0.13275,-0.00122,0.25955,-0.04532,-0.02823,-0.00717,-0.03677
5.164,-0.00702,-0.09674,0.04166,-0.13809,-0.03983,-0.0528,-0.01678,-0.00336,0.0293,-0.10193,-0.00595,0.22034,-0.04318,-0.02884,-0.00198,-0.03586
5.1645,-0.02075,-0.11948,-0.00488,-0.22064,-0.03769,-0.0528,-0.01572,-0.00137,0.03891,-0.05798,-0.01907,0.06485,-0.04227,-0.02762,0.01129,-0.03616
5.165,-0.03479,-0.13306,-0.01999,-0.19852,-0.03601,-0.05295,-0.01694,-0.00061,0.02319,0.0029,-0.04379,-0.07324,-0.0441,-0.02792,0.02731,-0.03769
5.1655,-0.04517,-0.11948,-0.00305,-0.13016,-0.03357,-0.0531,-0.01755,-0.00183,-0.00198,0.08469,-0.07935,-0.09796,-0.04471,-0.02838,0.03586,-0.03998
5.166,-0.05249,-0.08316,0.01434,-0.07874,-0.03235,-0.05371,-0.01648,-0.00412,-0.0177,0.18784,-0.12009,-0.0386,-0.04166,-0.02792,0.04211,-0.04013
5.1665,-0.05875,-0.03998,0.00732,-0.04196,-0.03098,-0.05463,-0.01541,-0.00671,-0.02533,0.29282,-0.15442,0.02609,-0.03723,-0.02533,0.05005,-0.03983
5.167,-0.06165,0.00153,-0.01923,-0.00198,-0.02975,-0.05493,-0.01419,-0.00702,-0.03326,0.3714,-0.17517,0.05859,-0.03464,-0.02151,0.05203,-0.03983
5.1675,-0.06104,0.03937,-0.04562,0.03159,-0.02792,-0.05402,-0.01389,-0.00626,-0.03937,0.40787,-0.18311,0.06592,-0.03311,-0.01892,0.03189,-0.04059
5.168,-0.05661,0.06531,-0.05966,0.04745,-0.02762,-0.05264,-0.01358,-0.00504,-0.04028,0.40878,-0.18326,0.0441,-0.02991,-0.0174,-0.00412,-0.04135
5.1685,-0.05112,0.0737,-0.06409,0.05753,-0.02975,-0.05142,-0.01312,-0.00458,-0.03464,0.38864,-0.17593,-0.02457,-0.02655,-0.01465,-0.02716,-0.03952
5.169,-0.04639,0.06851,-0.06866,0.06622,-0.03067,-0.0499,-0.01129,-0.00214,-0.02747,0.34836,-0.15945,-0.12787,-0.02502,-0.01083,-0.01709,-0.03647
5.1695,-0.03967,0.06454,-0.07751,0.05661,-0.02777,-0.04669,-0.00809,0.00153,-0.02228,0.29129,-0.13336,-0.1915,-0.02625,-0.00961,0.00595,-0.03357
5.17,-0.03174,0.07004,-0.08774,0.01724,-0.02472,-0.04333,-0.00778,0.0032,-0.02029,0.22263,-0.09933,-0.1239,-0.02808,-0.01099,0.01663,-0.03357
5.1705,-0.02563,0.08591,-0.09232,-0.03159,-0.02548,-0.0415,-0.01022,0.0,-0.02029,0.15549,-0.06363,0.08041,-0.02838,-0.01266,0.01129,-0.0354
5.171,-0.01907,0.10468,-0.08469,-0.07462,-0.02701,-0.04074,-0.01236,-0.00397,-0.01678,0.09705,-0.02945,0.29663,-0.02716,-0.01266,0.00366,-0.03769
5.1715,-0.0119,0.11765,-0.05203,-0.11597,-0.02808,-0.04105,-0.01221,-0.00412,-0.00931,0.04959,0.0029,0.354,-0.02594,-0.01129,-0.00031,-0.03876
5.172,-0.00732,0.1207,0.0119,-0.15152,-0.02747,-0.04135,-0.01129,-0.00229,-0.00198,0.00809,0.03159,0.1886,-0.02441,-0.01175,-0.0032,-0.03799
5.1725,-0.00793,0.11673,0.08087,-0.16205,-0.02655,-0.04196,-0.01022,-0.00183,0.00198,-0.03189,0.05142,-0.09293,-0.02365,-0.01297,-0.00549,-0.03754
5.173,-0.01373,0.10651,0.09903,-0.1506,-0.02731,-0.04227,-0.01144,-0.00305,0.00351,-0.07202,0.05585,-0.29465,-0.02274,-0.01389,-0.00336,-0.03693
5.1735,-0.02121,0.08224,0.04456,-0.14618,-0.02792,-0.04257,-0.01251,-0.00214,0.00443,-0.10178,0.04776,-0.3244,-0.02274,-0.01465,0.00137,-0.03723
5.174,-0.02533,0.04181,-0.03448,-0.16068,-0.02914,-0.04425,-0.01358,0.00015,0.00443,-0.12115,0.04242,-0.27039,-0.02213,-0.01694,0.00702,-0.03983
5.1745,-0.02335,-0.0032,-0.07401,-0.16525,-0.02914,-0.04456,-0.01373,0.00061,0.00214,-0.13382,0.04913,-0.22659,-0.02243,-0.02151,0.00854,-0.04272
5.175,-0.01602,-0.03815,-0.06485,-0.12955,-0.02716,-0.04486,-0.01236,-0.00061,-0.00259,-0.14786,0.06119,-0.12207,-0.02502,-0.02518,0.0087,-0.04456
5.1755,-0.00839,-0.0528,-0.04562,-0.06775,-0.02548,-0.04395,-0.01038,-0.00244,-0.00717,-0.16357,0.06546,0.1091,-0.02701,-0.02792,0.00961,-0.04532
5.176,-0.00397,-0.0502,-0.04623,-0.02121,-0.02594,-0.04349,-0.00931,-0.00214,-0.0061,-0.18356,0.05798,0.29922,-0.02747,-0.03021,0.0119,-0.04501
5.1765,-0.00381,-0.04272,-0.05905,-0.01404,-0.02762,-0.04349,-0.00931,-0.00168,0.00473,-0.20767,0.04684,0.23254,-0.02731,-0.03189,0.01282,-0.04562
5.177,-0.00702,-0.04059,-0.06729,-0.03021,-0.02853,-0.04456,-0.00931,-0.00092,0.02136,-0.22858,0.03464,-0.01709,-0.02884,-0.03311,0.01068,-0.04578
5.1775,-0.0116,-0.04883,-0.06897,-0.03738,-0.02777,-0.04669,-0.01068,-0.00229,0.0354,-0.23605,0.02396,-0.16449,-0.03326,-0.03204,0.00916,-0.04425
5.178,-0.01511,-0.06317,-0.07858,-0.02609,-0.02914,-0.04837,-0.01404,-0.00488,0.03983,-0.22141,0.01434,-0.0946,-0.03906,-0.03036,0.009,-0.04166
5.1785,-0.01633,-0.07721,-0.10391,-0.01404,-0.03036,-0.04898,-0.01633,-0.00854,0.03571,-0.18204,0.00671,0.04547,-0.04379,-0.02731,0.00992,-0.04074
5.179,-0.01404,-0.08881,-0.14343,-0.01709,-0.03113,-0.05051,-0.01724,-0.01083,0.02625,-0.12085,0.00336,0.09644,-0.04669,-0.02502,0.00992,-0.0415
5.1795,-0.0119,-0.10056,-0.1825,-0.0293,-0.03128,-0.05051,-0.01587,-0.01221,0.01266,-0.04761,0.00549,0.06546,-0.04578,-0.0238,0.01007,-0.0415
5.18,-0.01282,-0.112,-0.20584,-0.03601,-0.03006,-0.04959,-0.01541,-0.01175,-0.00183,0.02075,0.00656,0.0473,-0.0415,-0.02258,0.00916,-0.04089
5.1805,-0.01694,-0.11703,-0.2034,-0.03067,-0.02747,-0.0502,-0.01556,-0.00946,-0.01556,0.07339,0.00168,0.07813,-0.03723,-0.02243,0.00824,-0.04013
5.181,-0.01953,-0.11124,-0.17395,-0.01541,-0.02533,-0.05066,-0.01465,-0.00595,-0.02487,0.10544,-0.00916,0.11795,-0.03571,-0.02289,0.00748,-0.03891
5.1815,-0.01648,-0.10162,-0.12405,-0.00031,-0.02213,-0.05051,-0.01343,-0.00198,-0.02808,0.11429,-0.0206,0.11612,-0.0354,-0.02335,0.0061,-0.03708
5.182,-0.00946,-0.09598,-0.06912,0.00809,-0.01968,-0.04974,-0.01297,0.00137,-0.02945,0.09964,-0.0293,0.06683,-0.03525,-0.02319,0.00427,-0.03448
5.1825,-0.00275,-0.09613,-0.02853,0.01083,-0.01923,-0.04913,-0.01312,0.0032,-0.03433,0.06332,-0.03952,0.0087,-0.03342,-0.02243,0.00443,-0.03464
5.183,0.0032,-0.09872,-0.01083,0.01282,-0.02029,-0.04807,-0.01328,0.00214,-0.04059,0.0145,-0.04959,-0.01633,-0.03159,-0.02213,0.00458,-0.03586
5.1835,0.01053,-0.09796,-0.00687,0.0148,-0.02243,-0.04669,-0.01419,-0.00076,-0.04318,-0.03555,-0.0502,-0.00687,-0.03067,-0.02228,0.00595,-0.03983
5.184,0.01465,-0.09354,-0.00427,0.01724,-0.02609,-0.04471,-0.01404,-0.00366,-0.04395,-0.08057,-0.03128,0.0119,-0.03006,-0.02151,0.00793,-0.04257
5.1845,0.01495,-0.08453,0.00183,0.01907,-0.03494,-0.04547,-0.01312,-0.00412,-0.04776,-0.11246,0.00153,0.01816,-0.02777,-0.01862,0.00992,-0.04227
5.185,0.01389,-0.07141,0.0032,0.02701,-0.04623,-0.04623,-0.0119,-0.00305,-0.05356,-0.13016,0.03174,0.01328,-0.02548,-0.01419,0.01221,-0.0386
5.1855,0.01297,-0.05951,-0.00565,0.04272,-0.05569,-0.04532,-0.01236,-0.00305,-0.05905,-0.13412,0.04837,0.0061,-0.02563,-0.01114,0.01282,-0.0351
5.186,0.00961,-0.05173,-0.02548,0.05859,-0.05722,-0.04425,-0.01343,-0.00412,-0.06683,-0.12833,0.05142,0.00229,-0.02747,-0.00946,0.0119,-0.03342
5.1865,0.00519,-0.04776,-0.04929,0.06302,-0.05417,-0.04318,-0.01251,-0.00443,-0.07751,-0.11627,0.04745,0.00214,-0.02914,-0.00793,0.00946,-0.0322
5.187,0.00061,-0.04807,-0.07187,0.05249,-0.04868,-0.04425,-0.01053,-0.00427,-0.08148,-0.10513,0.0412,0.00351,-0.03128,-0.00687,0.00641,-0.03189
5.1875,-0.00214,-0.04959,-0.08759,0.03387,-0.04517,-0.04547,-0.00961,-0.00488,-0.07202,-0.09476,0.03128,0.00427,-0.03418,-0.00748,0.00443,-0.03342
5.188,-0.00549,-0.05051,-0.08972,0.01709,-0.04135,-0.04578,-0.01083,-0.00427,-0.05295,-0.07584,0.01617,0.00244,-0.03799,-0.00977,0.00626,-0.03647
5.1885,-0.0087,-0.05127,-0.08118,0.00702,-0.03922,-0.04684,-0.01129,-0.00259,-0.02151,-0.04623,-0.00198,0.00168,-0.04074,-0.01358,0.00931,-0.03845
5.189,-0.01099,-0.05402,-0.06836,0.00595,-0.03952,-0.04837,-0.00946,-0.00092,0.02808,-0.01541,-0.01587,0.00595,-0.03967,-0.01556,0.01144,-0.04074
5.1895,-0.00854,-0.05707,-0.05966,0.00778,-0.03967,-0.04761,-0.00626,-0.00107,0.08133,0.00366,-0.01907,0.01099,-0.03494,-0.01602,0.01221,-0.04471
5.19,-0.00031,-0.05859,-0.05478,-0.0238,-0.03754,-0.04578,-0.00443,-0.00168,0.10544,0.009,-0.01358,0.00946,-0.0296,-0.01465,0.01343,-0.05127
5.1905,0.01129,-0.0592,-0.04837,-0.11871,-0.03479,-0.04532,-0.0061,-0.00275,0.08469,0.00473,-0.01022,-0.00046,-0.02609,-0.01236,0.01511,-0.05783
5.191,0.01953,-0.06226,-0.03586,-0.2359,-0.03204,-0.04669,-0.00854,-0.00412,0.03632,-0.0032,-0.01984,-0.01114,-0.02563,-0.01099,0.01862,-0.05783
5.1915,0.01465,-0.07019,-0.02258,-0.26917,-0.03265,-0.04807,-0.01038,-0.00412,-0.01694,-0.01282,-0.04013,-0.01846,-0.02701,-0.01038,0.01953,-0.05188
5.192,-0.00336,-0.08514,-0.01312,-0.14221,-0.03418,-0.04868,-0.01053,-0.00366,-0.06424,-0.02258,-0.05585,-0.03143,-0.02823,-0.01129,0.01953,-0.04593
5.1925,-0.02136,-0.103,-0.01144,0.11642,-0.03433,-0.04837,-0.01099,-0.00229,-0.10544,-0.0351,-0.05371,-0.05798,-0.02991,-0.01434,0.0145,-0.04547
5.193,-0.02609,-0.11093,-0.02106,0.37247,-0.03235,-0.04868,-0.01221,-0.00198,-0.13077,-0.05234,-0.03845,-0.08926,-0.03143,-0.01846,0.00534,-0.05356
5.1935,-0.01694,-0.09933,-0.03983,0.45883,-0.03098,-0.04974,-0.01419,-0.00488,-0.12665,-0.08118,-0.02502,-0.10895,-0.03342,-0.01999,-0.00443,-0.06226
5.194,-0.00092,-0.07416,-0.05127,0.32013,-0.03128,-0.05051,-0.01648,-0.00824,-0.0943,-0.11856,-0.02151,-0.11749,-0.03418,-0.0206,-0.01419,-0.06226
5.1945,0.01495,-0.04944,-0.03571,0.08072,-0.03204,-0.0502,-0.01709,-0.00946,-0.05157,-0.15762,-0.02243,-0.11871,-0.03372,-0.02121,-0.0206,-0.05112
5.195,0.02457,-0.03494,0.00641,-0.09109,-0.0322,-0.05051,-0.01831,-0.009,-0.01297,-0.18112,-0.02106,-0.0882,-0.03357,-0.02197,-0.02457,-0.03525
5.1955,0.0235,-0.0293,0.056,-0.14252,-0.03159,-0.05066,-0.01938,-0.00793,0.01221,-0.17578,-0.01724,0.01053,-0.03494,-0.02289,-0.02869,-0.02167
5.196,0.01114,-0.02914,0.0946,-0.12787,-0.03189,-0.05219,-0.0209,-0.00793,0.02197,-0.13794,-0.01144,0.14923,-0.03632,-0.0238,-0.02991,-0.01175
5.1965,-0.00732,-0.03311,0.11169,-0.08377,-0.03204,-0.05203,-0.02243,-0.00778,0.01968,-0.07294,-0.00107,0.22949,-0.03494,-0.02411,-0.02411,-0.00656
5.197,-0.02426,-0.03998,0.10559,-0.00595,-0.03326,-0.05234,-0.02319,-0.00732,0.01648,-0.00031,0.01602,0.18936,-0.0325,-0.02335,-0.00443,-0.01373
5.1975,-0.03403,-0.04578,0.08514,0.08072,-0.03342,-0.05127,-0.02151,-0.00626,0.02045,0.05798,0.03418,0.06546,-0.03082,-0.0206,0.0322,-0.03372
5.198,-0.03387,-0.04883,0.0589,0.11627,-0.03403,-0.05096,-0.01862,-0.0029,0.02579,0.08682,0.04745,-0.05768,-0.02975,-0.01892,0.07217,-0.05524
5.1985,-0.02396,-0.04852,0.0293,0.08224,-0.03387,-0.05112,-0.01587,0.0,0.02197,0.08728,0.04913,-0.12146,-0.02869,-0.01831,0.08759,-0.0647
5.199,-0.01266,-0.04227,-0.00183,0.01984,-0.03342,-0.05051,-0.01495,0.0,0.01144,0.06729,0.03387,-0.10925,-0.02701,-0.01877,0.06485,-0.0621
5.1995,-0.0058,-0.02655,-0.03098,-0.02625,-0.03296,-0.05081,-0.01617,-0.00381,0.00458,0.03418,0.00473,-0.02701,-0.02548,-0.01694,0.02686,-0.05508
5.2,-0.00626,-0.00641,-0.04135,-0.04501,-0.03235,-0.04929,-0.01907,-0.00748,0.00946,-0.00961,-0.02991,0.08789,-0.02487,-0.0145,0.00412,-0.04974
5.2005,-0.0087,0.00824,-0.01511,-0.04761,-0.03113,-0.04852,-0.02014,-0.00854,0.02243,-0.05737,-0.05737,0.16083,-0.02533,-0.01297,0.00259,-0.04684
5.201,-0.00931,0.01129,0.03769,-0.04791,-0.02884,-0.04745,-0.01938,-0.009,0.0351,-0.09613,-0.06989,0.13351,-0.02563,-0.01251,0.00763,-0.04425
5.2015,-0.00916,0.00198,0.0679,-0.05997,-0.02609,-0.04562,-0.01709,-0.00946,0.03784,-0.11612,-0.07019,0.03143,-0.0267,-0.01205,0.00961,-0.04379
5.202,-0.0087,-0.01389,0.04074,-0.08301,-0.02548,-0.04349,-0.01694,-0.01083,0.02792,-0.11307,-0.07187,-0.05753,-0.02731,-0.01205,0.00763,-0.04486
5.2025,-0.00351,-0.0267,-0.01999,-0.09995,-0.02457,-0.0441,-0.01862,-0.01175,0.00977,-0.09338,-0.08163,-0.08377,-0.02899,-0.01495,0.00931,-0.04517
5.203,0.00473,-0.03281,-0.06729,-0.09354,-0.02502,-0.04562,-0.01907,-0.01022,-0.00839,-0.06226,-0.09018,-0.06424,-0.0296,-0.01846,0.01205,-0.04501
5.2035,0.0116,-0.03265,-0.08377,-0.06683,-0.02609,-0.04654,-0.01694,-0.00748,-0.02029,-0.02197,-0.08652,-0.03342,-0.02991,-0.01923,0.01236,-0.04379
5.204,0.01205,-0.02884,-0.08301,-0.0412,-0.0264,-0.04623,-0.01495,-0.00519,-0.02289,0.01801,-0.06927,-0.01007,-0.03036,-0.01617,0.01053,-0.04242
5.2045,0.0119,-0.02136,-0.08179,-0.03693,-0.02579,-0.04517,-0.01373,-0.00458,-0.0177,0.04776,-0.04486,-0.01205,-0.03006,-0.0119,0.00534,-0.04059
5.205,0.01526,-0.0177,-0.08255,-0.04578,-0.02518,-0.04471,-0.01541,-0.00473,-0.00961,0.06241,-0.01831,-0.04227,-0.03006,-0.00977,0.00061,-0.04471
5.2055,0.02182,-0.01801,-0.07935,-0.04318,-0.02472,-0.04517,-0.01694,-0.0058,-0.00381,0.06241,0.00809,-0.06134,-0.03036,-0.01038,-0.00031,-0.05432
5.206,0.02991,-0.01785,-0.06454,-0.02975,-0.02563,-0.04501,-0.01892,-0.00748,-0.0058,0.05814,0.03128,-0.03036,-0.03159,-0.01358,0.00153,-0.06119
5.2065,0.03571,-0.01343,-0.03723,-0.0325,-0.02686,-0.04349,-0.02106,-0.00824,-0.01678,0.05859,0.04501,0.02853,-0.03387,-0.0177,0.00259,-0.05951
5.207,0.03876,-0.01541,-0.02197,-0.06348,-0.02853,-0.04349,-0.02197,-0.00885,-0.03006,0.06317,0.05157,0.04684,-0.03784,-0.02197,0.00153,-0.05234
5.2075,0.03769,-0.03555,-0.04639,-0.10025,-0.02853,-0.04395,-0.0209,-0.00885,-0.03693,0.06638,0.05447,-0.00351,-0.04318,-0.02441,-0.00305,-0.04547
5.208,0.03204,-0.07263,-0.103,-0.10849,-0.02747,-0.04562,-0.01877,-0.0087,-0.03769,0.06012,0.05508,-0.06699,-0.04807,-0.02548,-0.00702,-0.04211
5.2085,0.02518,-0.10681,-0.15793,-0.07584,-0.02686,-0.04639,-0.01694,-0.00748,-0.03693,0.03922,0.05081,-0.07294,-0.05203,-0.0267,-0.00824,-0.03967
5.209,0.02441,-0.11993,-0.18433,-0.00931,-0.02792,-0.04684,-0.01556,-0.00504,-0.03632,0.00565,0.04379,-0.02594,-0.05478,-0.02792,-0.00305,-0.03738
5.2095,0.03082,-0.10818,-0.17593,0.06165,-0.02869,-0.04745,-0.01419,-0.00183,-0.03372,-0.03647,0.03967,0.01144,-0.05524,-0.02869,0.00763,-0.03662
5.21,0.03952,-0.07904,-0.13275,0.09888,-0.02762,-0.04593,-0.01266,-0.00076,-0.03082,-0.0853,0.03891,0.00244,-0.0528,-0.02731,0.01541,-0.0383
5.2105,0.04562,-0.04913,-0.07019,0.08133,-0.02609,-0.0444,-0.01328,-0.00092,-0.02945,-0.13718,0.03525,-0.02411,-0.04715,-0.02563,0.01541,-0.04089
5.211,0.04654,-0.03479,-0.02182,0.02762,-0.0267,-0.04364,-0.01511,-0.00122,-0.02823,-0.18433,0.02655,-0.02441,-0.04166,-0.02609,0.01236,-0.04166
5.2115,0.04288,-0.04364,-0.01678,-0.01617,-0.02975,-0.04623,-0.01572,-0.00061,-0.02472,-0.21866,0.01587,0.00763,-0.03952,-0.02747,0.01022,-0.04044
5.212,0.0383,-0.06393,-0.0383,-0.02197,-0.03265,-0.04807,-0.01373,0.00092,-0.01907,-0.23422,0.00259,0.03708,-0.03998,-0.02655,0.00916,-0.03906
5.2125,0.03372,-0.07492,-0.05615,0.00275,-0.03372,-0.04776,-0.01129,0.00153,-0.01846,-0.23041,-0.01343,0.03571,-0.04059,-0.0235,0.00671,-0.0383
5.213,0.02975,-0.06714,-0.05829,0.03326,-0.03357,-0.04837,-0.01022,0.00153,-0.02716,-0.20508,-0.03189,0.0087,-0.03906,-0.02106,0.00244,-0.03937
5.2135,0.03052,-0.05295,-0.05142,0.05096,-0.03387,-0.05081,-0.01129,-0.00031,-0.04166,-0.15289,-0.04623,-0.01968,-0.03571,-0.02151,-0.00137,-0.04013
5.214,0.03372,-0.04028,-0.04761,0.056,-0.03387,-0.05264,-0.0145,-0.00305,-0.0563,-0.07309,-0.05722,-0.03204,-0.03448,-0.02151,-0.00305,-0.04242
5.2145,0.03586,-0.02457,-0.04471,0.05585,-0.03403,-0.05188,-0.01755,-0.00534,-0.06699,0.02045,-0.06699,-0.02731,-0.03464,-0.01999,-0.00107,-0.04776
5.215,0.03357,-0.00107,-0.03799,0.0531,-0.03372,-0.05051,-0.01877,-0.00366,-0.06531,0.10574,-0.0798,-0.01312,-0.03342,-0.01709,0.00092,-0.05356
5.2155,0.0296,0.02853,-0.03052,0.04623,-0.03326,-0.0502,-0.01678,-0.00015,-0.04211,0.16571,-0.09201,0.00031,-0.02991,-0.01434,0.00198,-0.05676
5.216,0.0267,0.05096,-0.0238,0.04486,-0.03265,-0.04959,-0.01312,0.00381,-0.00992,0.19928,-0.09308,0.00809,-0.02762,-0.01328,0.00229,-0.05615
5.2165,0.02335,0.05554,-0.02243,0.07019,-0.03204,-0.04944,-0.0119,0.00595,0.00916,0.21896,-0.07996,0.00809,-0.02899,-0.01358,0.00229,-0.05402
5.217,0.01648,0.04288,-0.0235,0.12848,-0.03174,-0.04898,-0.0119,0.00565,0.00977,0.23666,-0.05997,0.009,-0.03281,-0.01572,0.00214,-0.05142
5.2175,0.00732,0.02762,-0.02441,0.17609,-0.0322,-0.04883,-0.01022,0.00427,0.00626,0.2536,-0.04608,0.0238,-0.03555,-0.01678,0.0032,-0.04791
5.218,0.00214,0.01892,-0.0267,0.14938,-0.0325,-0.04883,-0.00885,0.00214,0.0,0.26245,-0.04669,0.05402,-0.03601,-0.01831,0.00351,-0.04395
5.2185,0.0029,0.01907,-0.02975,0.02747,-0.03189,-0.04807,-0.00854,-0.00153,-0.01923,0.24887,-0.05524,0.06668,-0.03433,-0.01816,0.0061,-0.04227
5.219,0.00885,0.02258,-0.02792,-0.12512,-0.03113,-0.04654,-0.00961,-0.00381,-0.04379,0.21149,-0.05463,0.02731,-0.03128,-0.01755,0.00992,-0.04349
5.2195,0.01587,0.02472,-0.02304,-0.19455,-0.02991,-0.04456,-0.00916,-0.00458,-0.04944,0.16556,-0.03098,-0.04868,-0.03021,-0.01694,0.01465,-0.04333
5.22,0.0209,0.02228,-0.01709,-0.12527,-0.03021,-0.0441,-0.00671,-0.00259,-0.02945,0.12604,0.01236,-0.11002,-0.03067,-0.01831,0.01526,-0.04044
5.2205,0.02243,0.01465,-0.01419,-0.00366,-0.03082,-0.04517,-0.00626,-0.00168,-0.00168,0.09079,0.06119,-0.12756,-0.03082,-0.02029,0.01236,-0.03723
5.221,0.02182,0.00397,-0.0119,0.02975,-0.03159,-0.04623,-0.00641,-0.00336,0.0177,0.05127,0.09506,-0.10544,-0.0293,-0.02106,0.00854,-0.03677
5.2215,0.02075,-0.00809,-0.01129,-0.03922,-0.03098,-0.0473,-0.00885,-0.00595,0.02884,0.00519,0.09857,-0.03952,-0.02853,-0.02121,0.0058,-0.03784
5.222,0.01892,-0.02151,-0.02182,-0.09186,-0.03311,-0.04791,-0.01266,-0.00687,0.0322,-0.03571,0.07401,0.07492,-0.0293,-0.02121,0.00427,-0.03906
5.2225,0.01495,-0.04028,-0.04684,-0.06073,-0.03586,-0.0502,-0.01389,-0.00412,0.02579,-0.06638,0.03769,0.18677,-0.03113,-0.02182,0.00519,-0.03677
5.223,0.00549,-0.07019,-0.06058,-0.00381,-0.03708,-0.05081,-0.01251,0.0,0.00992,-0.09171,0.00824,0.20706,-0.03098,-0.02182,0.01038,-0.03387
5.2235,-0.00717,-0.11307,-0.02304,0.00824,-0.03738,-0.05112,-0.01068,-0.00031,-0.00458,-0.11642,-0.00076,0.112,-0.03067,-0.02121,0.01556,-0.03326
5.224,-0.01877,-0.16129,0.07477,-0.01083,-0.03738,-0.05112,-0.01144,-0.00473,-0.00977,-0.13428,0.01572,-0.01877,-0.03082,-0.02136,0.01923,-0.03433
5.2245,-0.02533,-0.20004,0.18799,-0.01343,-0.03799,-0.05142,-0.0148,-0.009,-0.01114,-0.13504,0.04425,-0.08102,-0.03296,-0.02197,0.01801,-0.03571
5.225,-0.02808,-0.21942,0.24658,0.00015,-0.04059,-0.0528,-0.01755,-0.01129,-0.01755,-0.12131,0.0528,-0.07065,-0.03403,-0.02411,0.01755,-0.03784
5.2255,-0.0296,-0.21912,0.21179,-0.02441,-0.04211,-0.05356,-0.01801,-0.01083,-0.03204,-0.103,0.02167,-0.07462,-0.03281,-0.0264,0.01389,-0.04227
5.226,-0.0293,-0.20569,0.11154,-0.12314,-0.04364,-0.05356,-0.01556,-0.00946,-0.04593,-0.08911,-0.03448,-0.14343,-0.02991,-0.02625,0.00961,-0.04547
5.2265,-0.02869,-0.18753,0.01221,-0.24612,-0.04272,-0.05371,-0.01221,-0.00763,-0.05142,-0.07965,-0.08789,-0.19775,-0.0267,-0.02502,0.00656,-0.04456
5.227,-0.0293,-0.16861,-0.04944,-0.30075,-0.04135,-0.05203,-0.00854,-0.0058,-0.04807,-0.07126,-0.12436,-0.12253,-0.02472,-0.02411,0.00565,-0.04166
5.2275,-0.03052,-0.14206,-0.08987,-0.25269,-0.03784,-0.05005,-0.00671,-0.00702,-0.04257,-0.05951,-0.14694,0.05981,-0.02441,-0.02197,0.00656,-0.03952
5.228,-0.0322,-0.10025,-0.13931,-0.12314,-0.03464,-0.04807,-0.00748,-0.0087,-0.03754,-0.04257,-0.15518,0.19867,-0.02655,-0.02029,0.00885,-0.04028
5.2285,-0.03342,-0.04272,-0.19394,0.04822,-0.0325,-0.04761,-0.01068,-0.01007,-0.03128,-0.02319,-0.14328,0.21942,-0.02884,-0.01923,0.01099,-0.04028
5.229,-0.03647,0.02106,-0.22736,0.18188,-0.03128,-0.04807,-0.01343,-0.00885,-0.02319,-0.00717,-0.10742,0.19821,-0.03052,-0.01694,0.01251,-0.0383
5.2295,-0.04272,0.08179,-0.22934,0.18219,-0.03128,-0.04852,-0.01526,-0.00626,-0.01602,0.0,-0.056,0.19608,-0.03143,-0.0145,0.01114,-0.03647
5.23,-0.05524,0.12894,-0.21271,0.05981,-0.03082,-0.04791,-0.01633,-0.00397,-0.01236,-0.00336,-0.00656,0.15839,-0.03067,-0.01358,0.00717,-0.03769
5.2305,-0.06927,0.14984,-0.18219,-0.04562,-0.03067,-0.04822,-0.01801,-0.00397,-0.01282,-0.01266,0.02014,0.03632,-0.03067,-0.01465,0.0032,-0.04211
5.231,-0.07767,0.13794,-0.13138,-0.0296,-0.03006,-0.04883,-0.01953,-0.00488,-0.01633,-0.02594,0.02075,-0.09979,-0.0322,-0.01541,0.00244,-0.04776
5.2315,-0.07401,0.10788,-0.07202,0.06546,-0.0296,-0.04913,-0.01816,-0.0061,-0.01984,-0.04517,0.01495,-0.14542,-0.03403,-0.01526,0.00412,-0.04791
5.232,-0.06363,0.08087,-0.03754,0.13077,-0.02869,-0.04883,-0.01556,-0.00595,-0.02121,-0.07187,0.0206,-0.09399,-0.03647,-0.01648,0.0058,-0.0444
5.2325,-0.05081,0.06424,-0.03708,0.12497,-0.02731,-0.04852,-0.01404,-0.00473,-0.01938,-0.0972,0.03418,-0.02655,-0.03738,-0.01892,0.00687,-0.04089
5.233,-0.03601,0.0473,-0.02991,0.07889,-0.02472,-0.0473,-0.01511,-0.0032,-0.0174,-0.11276,0.03983,-0.00473,-0.03784,-0.0206,0.00748,-0.03998
5.2335,-0.02136,0.02121,0.00778,0.03265,-0.02274,-0.0441,-0.0145,-0.0029,-0.01892,-0.11429,0.03235,-0.03052,-0.03662,-0.02121,0.00824,-0.04074
5.234,-0.00854,-0.00793,0.04471,-0.00259,-0.02136,-0.04074,-0.01282,-0.00229,-0.02151,-0.10956,0.02151,-0.07294,-0.03586,-0.02197,0.00885,-0.04028
5.2345,0.00061,-0.03189,0.03845,-0.03159,-0.02121,-0.03738,-0.01312,-0.00153,-0.02106,-0.10315,0.01053,-0.08667,-0.03708,-0.02426,0.00916,-0.03952
5.235,0.00885,-0.05035,-0.00824,-0.06073,-0.02029,-0.03601,-0.01419,-0.00198,-0.02045,-0.09796,-0.00717,-0.03021,-0.03952,-0.02594,0.00885,-0.03922
5.2355,0.01816,-0.0679,-0.05508,-0.09247,-0.02151,-0.03677,-0.01648,-0.00473,-0.02609,-0.09247,-0.03693,0.06958,-0.04196,-0.02731,0.00793,-0.04044
5.236,0.02792,-0.08759,-0.08072,-0.12329,-0.02335,-0.03799,-0.01755,-0.00702,-0.04257,-0.08545,-0.0708,0.11307,-0.04303,-0.02747,0.00717,-0.04272
5.2365,0.03632,-0.1033,-0.08759,-0.14618,-0.02365,-0.04028,-0.0177,-0.00748,-0.0618,-0.07538,-0.09506,0.06012,-0.04257,-0.02533,0.00824,-0.04425
5.237,0.04044,-0.1033,-0.08743,-0.14999,-0.02426,-0.04074,-0.0177,-0.00565,-0.06866,-0.06073,-0.1033,0.00183,-0.04166,-0.02228,0.00977,-0.04486
5.2375,0.04105,-0.08194,-0.0827,-0.1236,-0.02502,-0.04028,-0.01755,-0.00351,-0.05661,-0.03983,-0.0972,0.02335,-0.03906,-0.0209,0.00992,-0.04379
5.238,0.03983,-0.04715,-0.07324,-0.06424,-0.02502,-0.0412,-0.01755,-0.00214,-0.03067,-0.01572,-0.08392,0.06638,-0.03647,-0.02106,0.01022,-0.04242
5.2385,0.0383,-0.01541,-0.0618,0.01007,-0.02609,-0.04364,-0.01755,-0.00137,-0.00809,0.00717,-0.06699,0.01373,-0.03403,-0.02151,0.009,-0.03983
5.239,0.03677,-0.00198,-0.05341,0.06607,-0.02869,-0.04654,-0.01694,-0.00275,0.0029,0.01816,-0.04807,-0.13412,-0.03143,-0.01953,0.009,-0.03754
5.2395,0.03784,-0.0087,-0.04852,0.08575,-0.02975,-0.04791,-0.01648,-0.00381,0.00946,0.01862,-0.02502,-0.24139,-0.02884,-0.01633,0.01038,-0.03647
5.24,0.04272,-0.02869,-0.04272,0.07446,-0.03067,-0.04669,-0.0148,-0.00214,0.0206,0.01663,0.00259,-0.20523,-0.02731,-0.0145,0.00992,-0.03494
5.2405,0.04745,-0.04868,-0.03418,0.04791,-0.03128,-0.04684,-0.01328,0.00137,0.03464,0.02548,0.03098,-0.06546,-0.02731,-0.01434,0.00885,-0.03616
5.241,0.05035,-0.06577,-0.02228,0.01862,-0.03342,-0.04791,-0.01266,0.00427,0.04303,0.05081,0.0528,0.05569,-0.02579,-0.01312,0.00748,-0.03937
5.2415,0.05508,-0.08148,-0.01022,-0.00061,-0.03479,-0.04913,-0.01175,0.00336,0.04105,0.09018,0.06012,0.07477,-0.02335,-0.01205,0.00504,-0.04349
5.242,0.0618,-0.09705,-0.00259,-0.00092,-0.0354,-0.04929,-0.01022,0.00198,0.0351,0.12482,0.056,-0.00656,-0.02213,-0.01068,0.00412,-0.04684
5.2425,0.06989,-0.1088,-0.00717,0.0058,-0.03525,-0.04959,-0.00977,-0.00015,0.03342,0.13672,0.04654,-0.1236,-0.02441,-0.00992,0.00397,-0.04623
5.243,0.08041,-0.11139,-0.02151,-0.00336,-0.0354,-0.05066,-0.01083,-0.00229,0.04364,0.11963,0.03113,-0.18005,-0.02823,-0.01022,0.0029,-0.04395
5.2435,0.08865,-0.10788,-0.04181,-0.03937,-0.03586,-0.05173,-0.01297,-0.0029,0.0647,0.0827,0.00992,-0.09659,-0.03006,-0.01144,0.00336,-0.04257
5.244,0.08881,-0.10727,-0.05981,-0.0827,-0.03647,-0.05112,-0.0145,-0.00244,0.0827,0.03799,-0.01099,0.0882,-0.02991,-0.01297,0.00519,-0.04013
5.2445,0.07767,-0.1123,-0.07034,-0.10574,-0.03906,-0.05188,-0.01434,-0.00168,0.07782,-0.00656,-0.02441,0.20752,-0.0293,-0.01236,0.00809,-0.03723
5.245,0.06195,-0.12451,-0.06485,-0.08926,-0.04196,-0.05264,-0.0119,-0.00137,0.04654,-0.04959,-0.03128,0.14175,-0.02945,-0.01221,0.0119,-0.03586
5.2455,0.05127,-0.14771,-0.04654,-0.03815,-0.04364,-0.05417,-0.00885,0.00046,0.00656,-0.08575,-0.0415,-0.02594,-0.03204,-0.01419,0.01266,-0.03754
5.246,0.04578,-0.17731,-0.02228,0.01984,-0.04333,-0.05447,-0.00702,0.00427,-0.0235,-0.10941,-0.0618,-0.1088,-0.03372,-0.01877,0.01007,-0.04074
5.2465,0.04608,-0.19333,-0.00031,0.05859,-0.04074,-0.0531,-0.0087,0.00549,-0.04425,-0.11826,-0.08011,-0.03937,-0.03296,-0.02228,0.00534,-0.04272
5.247,0.0502,-0.17288,0.01312,0.07523,-0.03693,-0.05173,-0.01175,0.0032,-0.06042,-0.11444,-0.0827,0.08163,-0.0296,-0.02258,0.00244,-0.04318
5.2475,0.056,-0.12177,0.01648,0.07843,-0.03525,-0.05142,-0.01389,-0.00031,-0.07141,-0.09888,-0.07034,0.13016,-0.02731,-0.0209,0.00229,-0.04242
5.248,0.06012,-0.06073,0.01175,0.0647,-0.03418,-0.05112,-0.01343,-0.00214,-0.0769,-0.06958,-0.05493,0.09613,-0.02731,-0.01877,0.00504,-0.04272
5.2485,0.05905,-0.0061,0.00687,0.03357,-0.03433,-0.05173,-0.01282,-0.00366,-0.07843,-0.03189,-0.04242,0.04715,-0.02869,-0.01862,0.00809,-0.04501
5.249,0.05127,0.0322,0.00488,-0.00641,-0.03326,-0.05142,-0.01328,-0.00549,-0.07248,-0.00259,-0.02747,0.02716,-0.02975,-0.02075,0.00854,-0.04684
5.2495,0.03845,0.04761,0.00305,-0.04318,-0.03265,-0.05142,-0.01358,-0.00671,-0.05386,0.00732,-0.00778,0.02487,-0.02991,-0.02182,0.00671,-0.04776
5.25,0.02548,0.04211,-0.00305,-0.07278,-0.03342,-0.05112,-0.01389,-0.00671,-0.0235,-0.00229,0.01114,0.02258,-0.03021,-0.0209,0.00565,-0.04639
5.2505,0.01495,0.03036,-0.01343,-0.09155,-0.03479,-0.05234,-0.01282,-0.00656,0.00565,-0.01785,0.02289,0.01984,-0.03052,-0.01877,0.00702,-0.04379
5.251,0.00977,0.02594,-0.02457,-0.09384,-0.03525,-0.05219,-0.01068,-0.00519,0.02274,-0.02441,0.03067,0.01129,-0.02975,-0.01694,0.00977,-0.04135
5.2515,0.00732,0.02838,-0.03845,-0.08072,-0.03418,-0.05157,-0.00809,-0.00427,0.02335,-0.01205,0.04074,-0.02396,-0.03036,-0.01602,0.0116,-0.03876
5.252,0.00488,0.03082,-0.04974,-0.06149,-0.03311,-0.05188,-0.00778,-0.0032,0.009,0.01892,0.0502,-0.09491,-0.03113,-0.01495,0.01236,-0.0386
5.2525,0.00259,0.02991,-0.05585,-0.0502,-0.03326,-0.05142,-0.00977,-0.00305,-0.01266,0.05463,0.05386,-0.15839,-0.03128,-0.01221,0.0119,-0.03876
5.253,0.00351,0.0264,-0.05066,-0.05676,-0.03403,-0.05264,-0.01221,-0.00473,-0.03403,0.08026,0.04639,-0.14679,-0.03036,-0.00961,0.01007,-0.03937
5.2535,0.009,0.02319,-0.04105,-0.06882,-0.0351,-0.0528,-0.01144,-0.00656,-0.04791,0.08606,0.03098,-0.05585,-0.02838,-0.00839,0.00717,-0.03891
5.254,0.01373,0.01968,-0.03296,-0.06714,-0.03448,-0.05432,-0.00778,-0.00626,-0.05157,0.07248,0.01419,0.03403,-0.02548,-0.00702,0.00412,-0.0383
5.2545,0.01358,0.01434,-0.02884,-0.04852,-0.03433,-0.05432,-0.00519,-0.00534,-0.04623,0.05203,0.00244,0.06683,-0.02335,-0.00473,0.00259,-0.03876
5.255,0.0116,0.00412,-0.02594,-0.02518,-0.03372,-0.05234,-0.00671,-0.0032,-0.03418,0.02945,-0.00305,0.07446,-0.02182,-0.00275,0.00397,-0.03967
5.2555,0.01221,-0.00931,-0.02426,0.00397,-0.03235,-0.04959,-0.01022,-0.00031,-0.01938,0.00626,-0.0058,0.10025,-0.01999,-0.00473,0.00595,-0.03952
5.256,0.01373,-0.02258,-0.02274,0.0351,-0.03082,-0.04791,-0.01328,0.00031,-0.00702,-0.01633,-0.00793,0.11963,-0.01724,-0.01068,0.00732,-0.04074
5.2565,0.01389,-0.03464,-0.02136,0.04456,-0.03036,-0.04501,-0.01541,-0.00061,0.0,-0.03403,-0.0058,0.09552,-0.01648,-0.01648,0.00656,-0.04257
5.257,0.01343,-0.04547,-0.0209,0.01541,-0.02991,-0.04456,-0.01648,-0.00229,-0.00061,-0.04669,0.00244,0.05127,-0.01862,-0.01755,0.00565,-0.04288
5.2575,0.01205,-0.05356,-0.02258,-0.02716,-0.02991,-0.0444,-0.01617,-0.00168,-0.01602,-0.05951,0.01114,0.02686,-0.02228,-0.01648,0.00565,-0.04166
5.258,0.01251,-0.05646,-0.02563,-0.04852,-0.02991,-0.04486,-0.01587,-0.00092,-0.04578,-0.07965,0.0145,0.01663,-0.02579,-0.01724,0.00702,-0.04074
5.2585,0.01648,-0.05127,-0.03036,-0.04456,-0.03052,-0.04593,-0.01495,-0.00137,-0.07431,-0.10544,0.01236,-0.00946,-0.0293,-0.02014,0.00778,-0.0412
5.259,0.02701,-0.03876,-0.03632,-0.03494,-0.03082,-0.04776,-0.01495,-0.00244,-0.08057,-0.13275,0.0119,-0.05219,-0.03143,-0.02197,0.00717,-0.0444
5.2595,0.03586,-0.0267,-0.04242,-0.02548,-0.03067,-0.04807,-0.01511,-0.00244,-0.05768,-0.15457,0.01434,-0.0798,-0.03571,-0.02167,0.00519,-0.04684
5.26,0.03311,-0.02457,-0.04532,-0.01007,-0.03113,-0.04852,-0.01617,-0.00076,-0.0209,-0.16846,0.01572,-0.07721,-0.03967,-0.02136,0.00595,-0.04715
5.2605,0.02029,-0.03555,-0.03922,0.00946,-0.03143,-0.047,-0.01892,-0.00046,0.00687,-0.1738,0.01358,-0.06638,-0.04288,-0.02121,0.00961,-0.04654
5.261,0.009,-0.05081,-0.02365,0.0235,-0.03174,-0.04715,-0.02106,-0.00336,0.01694,-0.17227,0.01068,-0.06836,-0.04639,-0.02228,0.0148,-0.04349
5.2615,0.00244,-0.06012,-0.00259,0.03311,-0.03189,-0.04654,-0.02228,-0.00687,0.01633,-0.16052,0.01175,-0.06638,-0.04959,-0.02426,0.01755,-0.04074
5.262,-0.00183,-0.06149,0.00992,0.05188,-0.03159,-0.04608,-0.02151,-0.01022,0.01419,-0.13428,0.01419,-0.01022,-0.05157,-0.02579,0.01755,-0.03937
5.2625,-0.00916,-0.05997,0.00397,0.07965,-0.03174,-0.04684,-0.02121,-0.01175,0.01511,-0.09293,0.01663,0.11307,-0.05356,-0.02686,0.01785,-0.03769
5.263,-0.0174,-0.06271,-0.00748,0.0972,-0.03067,-0.04715,-0.02289,-0.01099,0.01587,-0.04852,0.01892,0.23071,-0.05234,-0.02777,0.0177,-0.03738
5.2635,-0.0238,-0.07202,-0.00229,0.08667,-0.0293,-0.04639,-0.02396,-0.00916,0.009,-0.01587,0.02029,0.24185,-0.047,-0.02808,0.0145,-0.03693
5.264,-0.02762,-0.08301,0.02502,0.05524,-0.03113,-0.04654,-0.02243,-0.00671,-0.00946,-0.00229,0.01892,0.13031,-0.04166,-0.02884,0.00931,-0.03876
5.2645,-0.0296,-0.08865,0.056,0.01755,-0.03159,-0.04654,-0.01923,-0.00366,-0.02884,0.00031,0.01251,-0.00885,-0.03906,-0.03036,0.00549,-0.0412
5.265,-0.03006,-0.08713,0.07141,-0.01938,-0.03204,-0.04852,-0.01602,0.00061,-0.03464,0.00381,0.00122,-0.06821,-0.03937,-0.03052,0.00397,-0.04135
5.2655,-0.03494,-0.08423,0.07034,-0.05875,-0.03235,-0.05051,-0.01434,0.0032,-0.02594,0.01984,-0.0145,-0.04059,-0.04013,-0.0296,0.00198,-0.04135
5.266,-0.04593,-0.08621,0.05936,-0.10818,-0.0322,-0.05157,-0.01251,0.00244,-0.01419,0.04578,-0.02899,-0.0145,-0.04059,-0.02838,-0.00153,-0.04196
5.2665,-0.05905,-0.09247,0.03708,-0.16846,-0.03159,-0.05157,-0.0116,-0.00107,-0.00305,0.06729,-0.0351,-0.06973,-0.0415,-0.02762,-0.00458,-0.04471
5.267,-0.06775,-0.09811,-0.00381,-0.22232,-0.0322,-0.05005,-0.01099,-0.00534,0.01068,0.07355,-0.03677,-0.17258,-0.04211,-0.02808,-0.00687,-0.05234
5.2675,-0.07187,-0.10162,-0.05798,-0.24002,-0.03143,-0.04883,-0.01205,-0.00839,0.02335,0.05524,-0.04562,-0.19241,-0.04242,-0.02808,-0.01053,-0.06424
5.268,-0.07614,-0.10208,-0.10559,-0.1825,-0.03159,-0.04959,-0.01099,-0.00854,0.02274,0.01663,-0.06683,-0.0415,-0.04181,-0.02716,-0.01968,-0.07568
5.2685,-0.08148,-0.10284,-0.12894,0.00031,-0.03281,-0.05142,-0.00916,-0.00717,0.0029,-0.02472,-0.08835,0.20935,-0.04028,-0.02625,-0.03143,-0.07874
5.269,-0.08118,-0.10635,-0.12482,0.26825,-0.03387,-0.05234,-0.009,-0.00473,-0.02762,-0.04578,-0.09293,0.3775,-0.04028,-0.02579,-0.03799,-0.06943
5.2695,-0.06897,-0.10376,-0.10864,0.41,-0.03387,-0.05127,-0.01068,-0.00336,-0.05508,-0.03891,-0.08118,0.33707,-0.03876,-0.02411,-0.03113,-0.05234
5.27,-0.04486,-0.08041,-0.08972,0.26566,-0.03265,-0.04883,-0.01236,-0.0032,-0.06851,-0.01617,-0.06851,0.12299,-0.03586,-0.02182,-0.0145,-0.03662
5.2705,-0.02045,-0.02945,-0.07263,-0.01251,-0.03113,-0.0473,-0.01297,-0.00458,-0.065,0.00946,-0.06622,-0.11322,-0.03403,-0.02045,0.0029,-0.02716
5.271,-0.00214,0.03357,-0.05646,-0.13885,-0.0322,-0.04776,-0.0119,-0.00626,-0.04715,0.03326,-0.07324,-0.24246,-0.03342,-0.02014,0.02213,-0.03036
5.2715,0.00885,0.08438,-0.04364,-0.06622,-0.03326,-0.04807,-0.01038,-0.009,-0.03052,0.0563,-0.07813,-0.24872,-0.03326,-0.01953,0.05157,-0.04639
5.272,0.01404,0.1062,-0.03723,0.02075,-0.03311,-0.04807,-0.01038,-0.00992,-0.0235,0.07492,-0.0737,-0.18127,-0.03189,-0.01678,0.09186,-0.06241
5.2725,0.01282,0.103,-0.04013,0.01144,-0.03189,-0.04761,-0.00992,-0.00961,-0.02258,0.08896,-0.05844,-0.08865,-0.02884,-0.01419,0.11551,-0.06195
5.273,0.00641,0.08698,-0.04959,-0.0296,-0.03113,-0.04562,-0.00854,-0.00763,-0.01892,0.09689,-0.03555,-0.00946,-0.02625,-0.0119,0.09171,-0.04608
5.2735,-0.00168,0.07004,-0.05783,-0.0235,-0.02975,-0.04379,-0.00534,-0.0058,-0.01434,0.09674,-0.00702,0.03723,-0.02441,-0.01129,0.03403,-0.03525
5.274,-0.00854,0.05188,-0.05737,0.00977,-0.02991,-0.04227,-0.0029,-0.00458,-0.01389,0.0882,0.02136,0.07614,-0.0235,-0.01282,-0.00504,-0.04364
5.2745,-0.01923,0.02594,-0.04944,0.0177,-0.03098,-0.04333,-0.0032,-0.00336,-0.0174,0.07095,0.04684,0.11353,-0.02274,-0.0119,-0.00015,-0.06516
5.275,-0.0325,-0.00565,-0.0441,-0.00458,-0.03189,-0.04425,-0.00473,-0.00305,-0.02167,0.04684,0.06393,0.09766,-0.02289,-0.009,0.02243,-0.07935
5.2755,-0.04425,-0.02914,-0.04486,-0.05356,-0.03159,-0.0441,-0.00504,-0.00198,-0.02258,0.01709,0.06744,0.00702,-0.02365,-0.00687,0.02716,-0.06027
5.276,-0.05219,-0.03754,-0.04822,-0.13977,-0.03235,-0.04501,-0.00565,-0.00183,-0.01892,-0.01465,0.06271,-0.0885,-0.02472,-0.00732,0.01297,-0.01175
5.2765,-0.05493,-0.03616,-0.04425,-0.23483,-0.03174,-0.04669,-0.00717,-0.00275,-0.01205,-0.04486,0.05524,-0.11078,-0.02625,-0.00824,0.00031,0.02762
5.277,-0.05692,-0.03403,-0.02502,-0.26382,-0.03189,-0.04776,-0.0087,-0.00336,-0.0058,-0.06866,0.05249,-0.06699,-0.02853,-0.00809,-0.00092,0.02441
5.2775,-0.06149,-0.03479,-0.00305,-0.17273,-0.03235,-0.04837,-0.00992,-0.00229,-0.0032,-0.07904,0.05371,-0.01831,-0.03204,-0.01007,0.00244,-0.00931
5.278,-0.06805,-0.03586,-0.00488,0.01801,-0.03159,-0.04959,-0.01083,-0.00046,-0.00519,-0.06927,0.05493,0.0029,-0.03525,-0.01266,0.00488,-0.0354
5.2785,-0.07202,-0.03906,-0.04593,0.22079,-0.03128,-0.05051,-0.01083,-0.00076,-0.01587,-0.04074,0.05371,0.00122,-0.03769,-0.01602,0.00595,-0.03952
5.279,-0.07263,-0.04501,-0.10696,0.31219,-0.02945,-0.04929,-0.00961,-0.00275,-0.03235,0.0,0.04669,-0.00458,-0.04028,-0.01968,0.00397,-0.03418
5.2795,-0.06882,-0.05463,-0.14084,0.22888,-0.02716,-0.04562,-0.00885,-0.0032,-0.04364,0.03555,0.03357,-0.00412,-0.04028,-0.02441,-0.00183,-0.03464
5.28,-0.06241,-0.06927,-0.11658,0.05722,-0.02472,-0.04196,-0.00916,-0.00183,-0.04456,0.04303,0.01755,0.0032,-0.03815,-0.02808,-0.01068,-0.03983
5.2805,-0.05371,-0.0882,-0.05005,-0.05768,-0.0238,-0.03922,-0.01144,-0.00168,-0.04257,0.01617,0.00275,0.01343,-0.03586,-0.0296,-0.01602,-0.04364
5.281,-0.04456,-0.10727,0.00946,-0.06653,-0.02411,-0.03784,-0.01434,-0.00381,-0.04608,-0.02701,-0.01236,0.01694,-0.03601,-0.02853,-0.01266,-0.04425
5.2815,-0.03342,-0.11932,0.02792,-0.02884,-0.02563,-0.03738,-0.01389,-0.00687,-0.05325,-0.06058,-0.03265,0.01221,-0.03769,-0.02686,-0.00549,-0.04272
5.282,-0.02335,-0.11871,0.00381,-0.00198,-0.02609,-0.03738,-0.01205,-0.009,-0.05966,-0.07095,-0.05676,0.00656,-0.03845,-0.02625,-0.00061,-0.0412
5.2825,-0.01831,-0.10681,-0.03937,0.01465,-0.02747,-0.03967,-0.00992,-0.01022,-0.06195,-0.06821,-0.07324,0.00793,-0.03845,-0.0267,0.00153,-0.03983
5.283,-0.02167,-0.09003,-0.08072,0.02991,-0.0293,-0.04227,-0.01068,-0.01114,-0.06012,-0.06073,-0.08118,0.0177,-0.03891,-0.0267,0.00351,-0.03998
5.2835,-0.03082,-0.07187,-0.10712,0.03922,-0.03052,-0.04395,-0.01328,-0.00977,-0.05539,-0.04868,-0.08865,0.0264,-0.03998,-0.02563,0.00656,-0.04074
5.284,-0.03662,-0.05524,-0.11414,0.03998,-0.03235,-0.04486,-0.01556,-0.00656,-0.04852,-0.02441,-0.10178,0.02625,-0.04044,-0.02563,0.00702,-0.04272
5.2845,-0.03586,-0.04318,-0.10696,0.03708,-0.0325,-0.04608,-0.0148,-0.00305,-0.03998,0.00824,-0.11154,0.01602,-0.0386,-0.02701,0.00671,-0.0441
5.285,-0.03296,-0.04028,-0.09552,0.02441,-0.03174,-0.04776,-0.01343,-0.00137,-0.03098,0.0415,-0.11353,0.00397,-0.03632,-0.02899,0.00565,-0.04456
5.2855,-0.03174,-0.04578,-0.0853,-0.00137,-0.03128,-0.04776,-0.01389,-0.00275,-0.02289,0.06348,-0.112,-0.00336,-0.03601,-0.02853,0.00824,-0.04608
5.286,-0.03204,-0.05127,-0.07614,-0.02258,-0.03128,-0.04822,-0.01633,-0.00595,-0.01373,0.06927,-0.11017,-0.01251,-0.03616,-0.02701,0.00946,-0.04791
5.2865,-0.0296,-0.05219,-0.06561,-0.01129,-0.03189,-0.04868,-0.01938,-0.00885,-0.00198,0.06241,-0.10437,-0.03265,-0.03525,-0.02487,0.00809,-0.04669
5.287,-0.02197,-0.04852,-0.05417,0.04028,-0.03311,-0.04898,-0.0209,-0.00961,0.01312,0.04883,-0.08957,-0.05737,-0.03174,-0.02136,0.00473,-0.04349
5.2875,-0.00107,-0.04593,-0.04333,0.11887,-0.03464,-0.04791,-0.02075,-0.00717,0.02472,0.03647,-0.07263,-0.06592,-0.02884,-0.01495,0.00259,-0.03815
5.288,0.04913,-0.047,-0.0351,0.19394,-0.0354,-0.04822,-0.0209,-0.00427,0.03006,0.02594,-0.06332,-0.05035,-0.02731,-0.00763,0.00137,-0.03448
5.2885,0.12497,-0.04486,-0.02853,0.22049,-0.03525,-0.04929,-0.02106,-0.00275,0.03204,0.01328,-0.06454,-0.03265,-0.02777,-0.00458,0.00122,-0.03525
5.289,0.18661,-0.0386,-0.02136,0.16968,-0.03403,-0.04959,-0.02197,-0.00168,0.03326,-0.00076,-0.06699,-0.03922,-0.02914,-0.00732,0.00183,-0.04028
5.2895,0.19897,-0.03586,-0.0145,0.06012,-0.03204,-0.04791,-0.02289,0.00092,0.03433,-0.0148,-0.05936,-0.06241,-0.03036,-0.01358,0.00305,-0.04623
5.29,0.17227,-0.0412,-0.00793,-0.05295,-0.0322,-0.04532,-0.02289,0.00458,0.03052,-0.02991,-0.04196,-0.06943,-0.03143,-0.01846,0.00488,-0.04929
5.2905,0.14954,-0.05249,-0.00259,-0.12604,-0.03326,-0.04562,-0.02197,0.00641,0.02335,-0.04898,-0.0235,-0.04745,-0.03265,-0.02136,0.00595,-0.04929
5.291,0.15488,-0.06027,0.00412,-0.15488,-0.03464,-0.04776,-0.02014,0.00565,0.01801,-0.07477,-0.01022,-0.01389,-0.03296,-0.02167,0.00717,-0.04623
5.2915,0.17441,-0.06012,0.00977,-0.14877,-0.03448,-0.04852,-0.01938,0.00427,0.01862,-0.10239,-0.00153,0.01007,-0.03281,-0.02182,0.01007,-0.04272
5.292,0.18723,-0.05676,0.01236,-0.11917,-0.03433,-0.04791,-0.0206,0.00366,0.02075,-0.1265,0.00305,0.01984,-0.03357,-0.02228,0.01266,-0.03952
5.2925,0.18631,-0.05463,0.00931,-0.08636,-0.03494,-0.0473,-0.02258,0.00351,0.02243,-0.14633,0.00275,0.02136,-0.03098,-0.02167,0.01343,-0.03693
5.293,0.17715,-0.05264,0.00626,-0.06821,-0.03418,-0.0473,-0.02319,0.00214,0.01999,-0.16708,-0.00015,0.02106,-0.02655,-0.01999,0.01175,-0.03632
5.2935,0.16602,-0.04654,0.01083,-0.05951,-0.03357,-0.04639,-0.02243,-0.00076,0.01251,-0.1886,-0.00015,0.01724,-0.02167,-0.01801,0.01114,-0.03845
5.294,0.15762,-0.0354,0.02853,-0.04684,-0.03342,-0.04547,-0.02151,-0.00275,0.00351,-0.20523,0.01465,0.01144,-0.01892,-0.01602,0.01221,-0.04181
5.2945,0.15167,-0.02518,0.05157,-0.03403,-0.03296,-0.04486,-0.02121,-0.00534,-0.00214,-0.2066,0.04181,0.00778,-0.01816,-0.01389,0.01541,-0.04349
5.295,0.14404,-0.02136,0.06393,-0.03647,-0.03265,-0.04425,-0.02136,-0.00793,-0.00244,-0.18585,0.07202,0.01129,-0.01862,-0.01221,0.01556,-0.04333
5.2955,0.13153,-0.01984,0.05646,-0.06042,-0.03311,-0.0444,-0.02182,-0.01129,-0.00259,-0.13916,0.09048,0.0145,-0.02121,-0.01236,0.01129,-0.0415
5.296,0.11612,-0.01785,0.03693,-0.09033,-0.03494,-0.04471,-0.02243,-0.0119,-0.00809,-0.07477,0.09048,0.00519,-0.02365,-0.01312,0.00519,-0.0386
5.2965,0.10239,-0.01968,0.00809,-0.1059,-0.03448,-0.04501,-0.02243,-0.00793,-0.01816,-0.01114,0.07477,-0.0145,-0.02411,-0.01221,0.00092,-0.03662
5.297,0.08926,-0.03876,-0.02838,-0.09476,-0.03387,-0.04578,-0.02167,-0.00244,-0.02823,0.03387,0.04959,-0.02686,-0.02335,-0.01312,0.00168,-0.03784
5.2975,0.07523,-0.08087,-0.06882,-0.06348,-0.03311,-0.04776,-0.02289,0.00198,-0.03586,0.05264,0.02304,-0.01602,-0.02289,-0.01587,0.00717,-0.04059
5.298,0.06027,-0.12985,-0.0972,-0.02487,-0.03372,-0.04944,-0.02426,0.00473,-0.03952,0.04639,-0.00046,0.01175,-0.02472,-0.01831,0.01358,-0.0415
5.2985,0.04379,-0.15732,-0.10101,0.00275,-0.03342,-0.05142,-0.02457,0.00458,-0.0383,0.01846,-0.02167,0.04044,-0.0267,-0.01724,0.0148,-0.04242
5.299,0.02426,-0.1442,-0.0798,0.01022,-0.03281,-0.05325,-0.02289,0.00229,-0.03708,-0.01984,-0.03784,0.06088,-0.0267,-0.01358,0.01053,-0.04379
5.2995,0.00153,-0.10147,-0.03967,0.0029,-0.03311,-0.05325,-0.0209,-0.00122,-0.03601,-0.05356,-0.04486,0.05646,-0.02594,-0.009,0.00351,-0.04776
5.3,-0.01953,-0.0592,0.00214,-0.00351,-0.03311,-0.05081,-0.01907,-0.00305,-0.03784,-0.07889,-0.04593,0.00961,-0.02625,-0.00549,-0.00198,-0.05356
5.3005,-0.03494,-0.03342,0.01984,-0.00458,-0.03311,-0.04807,-0.0174,-0.00107,-0.04013,-0.10651,-0.04974,-0.06805,-0.02762,-0.00183,-0.0032,-0.05493
5.301,-0.04257,-0.02274,-0.00412,-0.00443,-0.03296,-0.04684,-0.01755,0.00259,-0.04181,-0.13977,-0.05997,-0.12177,-0.02777,0.00015,-0.00122,-0.0502
5.3015,-0.04837,-0.01831,-0.05569,-0.00412,-0.03265,-0.04761,-0.01709,0.0032,-0.04364,-0.1767,-0.07172,-0.10422,-0.02823,0.00015,0.00122,-0.04425
5.302,-0.05844,-0.01465,-0.10239,-0.00427,-0.03357,-0.04883,-0.0177,-0.00168,-0.04395,-0.21027,-0.0795,-0.03983,-0.03006,-0.00275,0.00351,-0.03906
5.3025,-0.07462,-0.00595,-0.12482,-0.01801,-0.03448,-0.05142,-0.01801,-0.00854,-0.04044,-0.23209,-0.08057,-0.00015,-0.03204,-0.00702,0.00549,-0.03708
5.303,-0.09354,0.01526,-0.12512,-0.05646,-0.03525,-0.0531,-0.01617,-0.01282,-0.03464,-0.22705,-0.07614,-0.01053,-0.03326,-0.01129,0.00732,-0.03387
5.3035,-0.10849,0.04486,-0.11383,-0.10208,-0.03586,-0.05402,-0.01312,-0.01511,-0.02777,-0.18463,-0.06714,-0.02899,-0.03494,-0.01556,0.0119,-0.0293
5.304,-0.11932,0.06622,-0.09857,-0.11551,-0.03571,-0.0531,-0.01205,-0.01602,-0.02228,-0.10529,-0.05524,-0.01175,-0.03723,-0.02014,0.01816,-0.02701
5.3045,-0.12665,0.06424,-0.08423,-0.07233,-0.03494,-0.05127,-0.01556,-0.01724,-0.01572,0.00351,-0.04257,0.02686,-0.04044,-0.02228,0.02014,-0.02899
5.305,-0.13397,0.04013,-0.07614,0.00702,-0.03586,-0.04959,-0.01938,-0.01648,-0.00748,0.12405,-0.03128,0.04578,-0.04181,-0.02197,0.0177,-0.03433
5.3055,-0.13809,0.01068,-0.07645,0.07202,-0.03555,-0.04822,-0.02045,-0.0148,-0.00061,0.23727,-0.01816,0.02853,-0.04242,-0.0209,0.0145,-0.03983
5.306,-0.13885,-0.00931,-0.07828,0.08362,-0.03448,-0.04608,-0.01816,-0.01266,0.00214,0.32578,-0.00381,0.00946,-0.04181,-0.02228,0.01312,-0.04395
5.3065,-0.14038,-0.01343,-0.07462,0.04135,-0.03387,-0.04486,-0.01495,-0.0087,0.00229,0.37949,0.00916,0.04089,-0.04105,-0.02365,0.01236,-0.04761
5.307,-0.14206,-0.00122,-0.06439,-0.02319,-0.03372,-0.04456,-0.01114,-0.00275,0.00183,0.38956,0.01694,0.11932,-0.04105,-0.02518,0.00931,-0.05371
5.3075,-0.14175,0.01892,-0.04959,-0.08118,-0.03326,-0.04395,-0.00824,0.00214,0.0032,0.35248,0.02029,0.16571,-0.04211,-0.0264,0.00305,-0.06104
5.308,-0.13748,0.03296,-0.03052,-0.12192,-0.03189,-0.0415,-0.00702,0.00275,0.00473,0.28183,0.02258,0.13031,-0.04318,-0.02747,-0.00473,-0.0676
5.3085,-0.13306,0.02991,-0.01251,-0.12909,-0.03006,-0.03876,-0.00824,-0.00015,0.00366,0.20309,0.0264,0.06073,-0.04364,-0.02914,-0.00885,-0.06714
5.309,-0.13351,0.009,-0.0032,-0.07355,-0.02869,-0.0383,-0.01129,-0.00229,-0.00031,0.13412,0.03204,0.03204,-0.04425,-0.03021,-0.00595,-0.05936
5.3095,-0.13779,-0.02197,-0.0058,0.03601,-0.02899,-0.03983,-0.01297,-0.00229,-0.00076,0.07645,0.03845,0.04944,-0.04517,-0.03006,-0.00153,-0.05081
5.31,-0.14236,-0.05249,-0.01144,0.12085,-0.02975,-0.04166,-0.01404,-0.00305,0.00488,0.02716,0.0386,0.06683,-0.04578,-0.02991,0.0029,-0.04532
5.3105,-0.14465,-0.07172,-0.0119,0.1152,-0.02975,-0.04227,-0.01389,-0.00366,0.01434,-0.01617,0.03433,0.05661,-0.04517,-0.02884,0.00519,-0.04364
5.311,-0.14389,-0.0737,-0.00244,0.04852,-0.03021,-0.04333,-0.01221,-0.00458,0.02136,-0.05173,0.02838,0.02411,-0.04303,-0.02777,0.00671,-0.04135
5.3115,-0.13992,-0.05981,0.02533,0.00275,-0.03113,-0.0444,-0.01053,-0.00366,0.02258,-0.07111,0.02701,-0.01617,-0.04105,-0.02609,0.01007,-0.03647
5.312,-0.13428,-0.03662,0.08072,0.00504,-0.03311,-0.04684,-0.01068,-0.0029,0.01755,-0.07126,0.03021,-0.04456,-0.04059,-0.02533,0.01297,-0.0351
5.3125,-0.12817,-0.0148,0.12985,0.01495,-0.03448,-0.0499,-0.01205,-0.00397,0.00824,-0.05981,0.03403,-0.03754,-0.04257,-0.02548,0.01251,-0.03677
5.313,-0.12253,-0.00366,0.10788,0.0,-0.0354,-0.05035,-0.01266,-0.0061,-0.00458,-0.04929,0.03555,0.00656,-0.04395,-0.02563,0.01144,-0.04135
5.3135,-0.11597,-0.00687,-0.00076,-0.02625,-0.03571,-0.05035,-0.01175,-0.00732,-0.01785,-0.04669,0.03128,0.05035,-0.04333,-0.02426,0.01129,-0.04578
5.314,-0.10818,-0.01938,-0.12177,-0.03677,-0.03418,-0.0499,-0.01129,-0.00778,-0.02792,-0.04745,0.02502,0.05249,-0.04059,-0.02258,0.01175,-0.0499
5.3145,-0.10117,-0.03754,-0.16907,-0.03235,-0.03357,-0.0502,-0.01129,-0.00656,-0.03326,-0.04593,0.01968,0.01175,-0.03876,-0.02243,0.01144,-0.05127
