time,RectFemL,VastusMedL,VastusLatL,TibAntL,HamMedL,HamLatL,GastroMedL,GastroLatL,RectFemR,VastusMedR,VastusLatR,TibAntR,HamMedR,HamLatR,GastroMedR,GastroLatR
6.63,-0.05951,-0.01617,-0.02853,-0.02396,-0.03082,-0.04639,-0.03235,0.00702,-0.02136,-0.09018,0.04425,-0.01526,-0.03494,-0.0177,0.01709,-0.03006
6.6305,-0.0444,-0.02579,-0.02853,-0.02518,-0.03128,-0.04288,0.01633,0.02441,-0.01389,-0.06638,0.05249,-0.02655,-0.03296,-0.01862,0.01495,-0.03189
6.631,-0.03555,-0.03769,-0.01602,-0.02457,-0.03143,-0.03876,0.03891,0.02502,-0.01572,-0.03723,0.06454,-0.02014,-0.03098,-0.02014,0.01404,-0.03372
6.6315,-0.03067,-0.04669,-0.0119,-0.02213,-0.02975,-0.03632,0.04272,0.00198,-0.01968,-0.00412,0.06485,-0.00244,-0.02686,-0.02167,0.0148,-0.0322
6.632,-0.02487,-0.04898,-0.01587,-0.01877,-0.02777,-0.03525,0.07538,-0.04318,-0.01862,0.02777,0.04944,0.01587,-0.02472,-0.01923,0.01572,-0.02945
6.6325,-0.01755,-0.04379,-0.02365,-0.01526,-0.02762,-0.0383,0.11108,-0.08011,-0.01328,0.05142,0.03067,0.02533,-0.02502,-0.01724,0.01343,-0.02304
6.633,-0.01572,-0.03815,-0.03128,-0.01266,-0.02838,-0.04135,0.07645,-0.07324,-0.00641,0.05875,0.0206,0.02182,-0.02502,-0.01633,0.00931,-0.0177
6.6335,-0.01877,-0.03647,-0.04074,-0.01266,-0.02792,-0.04288,0.00397,-0.02975,0.0,0.05951,0.01755,0.00992,-0.02274,-0.01572,0.00076,-0.01663
6.634,-0.02136,-0.04074,-0.05402,-0.01724,-0.02655,-0.04257,0.00031,0.00885,0.00656,0.05676,0.01251,0.00031,-0.02121,-0.01434,-0.00946,-0.02335
6.6345,-0.01526,-0.04684,-0.06607,-0.02335,-0.02518,-0.0415,0.06195,0.01724,0.01175,0.03845,0.00046,-0.00214,-0.02335,-0.01358,-0.01602,-0.03296
6.635,-0.00427,-0.05188,-0.07645,-0.0264,-0.02472,-0.03983,0.08209,0.00641,0.01373,0.01984,-0.01572,-0.00336,-0.02747,-0.01434,-0.01495,-0.04044
6.6355,0.0087,-0.05325,-0.08667,-0.02365,-0.02548,-0.04013,0.03296,-0.00641,0.01083,-0.00031,-0.0293,-0.00565,-0.03021,-0.01678,-0.01144,-0.04517
6.636,0.02182,-0.05264,-0.10223,-0.01801,-0.02731,-0.04242,-0.00046,-0.01785,0.00534,-0.01633,-0.03357,-0.00443,-0.03174,-0.02121,-0.00854,-0.05051
6.6365,0.03601,-0.05051,-0.10864,-0.01266,-0.03021,-0.04501,0.02731,-0.03342,-0.00015,-0.02884,-0.02686,0.00168,-0.03571,-0.02579,-0.00397,-0.05783
6.637,0.04791,-0.04898,-0.09552,-0.01038,-0.03326,-0.04517,0.06271,-0.04517,-0.00427,-0.03693,-0.01572,0.00778,-0.04211,-0.02823,-0.00183,-0.06485
6.6375,0.05325,-0.05188,-0.06287,-0.01007,-0.0354,-0.04608,0.04379,-0.04395,-0.00763,-0.04211,-0.00992,0.00885,-0.04715,-0.02762,0.0032,-0.06439
6.638,0.05417,-0.06012,-0.01938,-0.0087,-0.03662,-0.04807,-0.00732,-0.0322,-0.0119,-0.04715,-0.00809,0.009,-0.04913,-0.02579,0.01022,-0.05798
6.6385,0.05447,-0.06653,0.01617,-0.00015,-0.03799,-0.04959,-0.0058,-0.02075,-0.01694,-0.05737,0.00107,0.01953,-0.04807,-0.02441,0.00671,-0.05219
6.639,0.05219,-0.06531,0.03006,0.02594,-0.03845,-0.05051,0.08789,-0.01617,-0.02213,-0.07477,0.02396,0.04166,-0.04471,-0.0235,0.00839,-0.05264
6.6395,0.04578,-0.06241,0.01892,0.07263,-0.03677,-0.05096,0.18097,-0.01663,-0.02625,-0.09613,0.04974,0.06012,-0.04089,-0.02258,0.01083,-0.0589
6.64,0.03372,-0.06668,-0.00946,0.12527,-0.03601,-0.05188,0.15594,-0.0145,-0.02808,-0.12527,0.0621,0.05676,-0.04059,-0.02136,0.00534,-0.06836
6.6405,0.02182,-0.07446,-0.0383,0.15717,-0.03708,-0.05463,0.04517,-0.01099,-0.02777,-0.15778,0.05356,0.03052,-0.04364,-0.02228,0.00671,-0.07751
6.641,0.01495,-0.07248,-0.05463,0.15732,-0.0386,-0.05539,-0.00992,-0.01083,-0.02609,-0.18768,0.03098,-0.00397,-0.04654,-0.02304,0.00473,-0.08057
6.6415,0.0116,-0.05737,-0.05707,0.13031,-0.03723,-0.05463,0.03067,-0.0148,-0.02472,-0.2092,0.00046,-0.02991,-0.04684,-0.02213,0.00351,-0.07339
6.642,0.0058,-0.03845,-0.05539,0.08575,-0.03387,-0.05371,0.07294,-0.01892,-0.02289,-0.21652,-0.0296,-0.04044,-0.04333,-0.02045,0.0029,-0.06104
6.6425,-0.00504,-0.02731,-0.056,0.03784,-0.0325,-0.05234,0.0415,-0.02167,-0.02029,-0.20325,-0.05615,-0.04532,-0.03952,-0.01892,0.00565,-0.05035
6.643,-0.01617,-0.02426,-0.05936,0.00381,-0.03448,-0.0528,-0.03403,-0.02289,-0.01984,-0.1741,-0.07629,-0.0679,-0.03693,-0.01938,0.00702,-0.0441
6.6435,-0.01892,-0.02518,-0.05585,-0.00549,-0.03754,-0.05402,-0.08392,-0.02121,-0.02411,-0.13214,-0.0882,-0.11688,-0.03632,-0.02014,0.00763,-0.04166
6.644,-0.00931,-0.02762,-0.04166,-0.00275,-0.03677,-0.05478,-0.06836,-0.01297,-0.03067,-0.08804,-0.09338,-0.15717,-0.03616,-0.02136,0.00717,-0.04196
6.6445,0.00565,-0.02884,-0.02121,-0.01358,-0.03387,-0.0528,0.00046,0.00198,-0.0351,-0.05127,-0.09277,-0.13199,-0.03464,-0.0209,0.00793,-0.04364
6.645,0.0177,-0.02441,-0.00809,-0.04639,-0.02884,-0.04837,0.07156,0.01617,-0.03448,-0.02304,-0.08179,-0.02243,-0.03143,-0.01923,0.01007,-0.04562
6.6455,0.02197,-0.01343,-0.00961,-0.08514,-0.02426,-0.04288,0.09033,0.02792,-0.03098,0.00198,-0.06989,0.10757,-0.02762,-0.01816,0.01083,-0.04532
6.646,0.02365,-0.00458,-0.01785,-0.10956,-0.01923,-0.03845,0.04929,0.03632,-0.02884,0.03601,-0.05692,0.15427,-0.02563,-0.01831,0.01038,-0.04211
6.6465,0.0267,-0.00412,-0.03494,-0.12375,-0.01663,-0.03571,-0.01495,0.03784,-0.02655,0.07568,-0.04623,0.08667,-0.02655,-0.01801,0.00931,-0.03906
6.647,0.03311,-0.01205,-0.04623,-0.13443,-0.01816,-0.03616,-0.06256,0.02838,-0.02121,0.11032,-0.03632,-0.01083,-0.02808,-0.01923,0.00946,-0.03983
6.6475,0.04105,-0.0209,-0.05005,-0.13611,-0.01984,-0.03815,-0.07431,0.01358,-0.0145,0.1297,-0.0264,-0.04044,-0.0296,-0.02167,0.01007,-0.04364
6.648,0.04669,-0.02808,-0.04639,-0.11841,-0.01984,-0.03922,-0.05859,0.01053,-0.00961,0.13214,-0.01389,-0.00259,-0.03189,-0.02563,0.01007,-0.04776
6.6485,0.04654,-0.03357,-0.0412,-0.0769,-0.01984,-0.04089,-0.03738,0.02319,-0.00458,0.12054,-0.0029,0.03021,-0.03403,-0.02838,0.01038,-0.04807
6.649,0.04105,-0.0386,-0.03891,-0.01251,-0.02045,-0.04059,-0.02548,0.0351,0.00473,0.10681,0.00397,0.02243,-0.03326,-0.02869,0.01129,-0.04623
6.6495,0.03525,-0.04211,-0.03845,0.05096,-0.02121,-0.04074,-0.02747,0.03387,0.01617,0.08621,0.01053,0.00427,-0.03082,-0.02655,0.01144,-0.04562
6.65,0.03036,-0.04486,-0.03616,0.05753,-0.02182,-0.04196,-0.04105,0.0235,0.02243,0.06699,0.01953,0.00763,-0.03143,-0.02472,0.01068,-0.04639
6.6505,0.02655,-0.0473,-0.0322,-0.02518,-0.02319,-0.04517,-0.0563,0.01022,0.02136,0.03922,0.02945,0.01831,-0.03601,-0.0209,0.00931,-0.05051
6.651,0.02151,-0.04822,-0.02869,-0.15121,-0.02563,-0.04837,-0.06821,-0.00946,0.01678,0.02106,0.03479,0.00061,-0.03998,-0.01511,0.00824,-0.05432
6.6515,0.01556,-0.04837,-0.02869,-0.23621,-0.0267,-0.05051,-0.08011,-0.03708,0.0145,0.0148,0.03311,-0.05463,-0.04059,-0.01053,0.0058,-0.05493
6.652,0.00732,-0.04761,-0.03159,-0.2446,-0.02731,-0.05188,-0.08835,-0.05615,0.01297,0.01663,0.03204,-0.10788,-0.03845,-0.00931,0.00458,-0.05051
6.6525,-0.00626,-0.0473,-0.03403,-0.2063,-0.02884,-0.05219,-0.09262,-0.05035,0.00854,0.02213,0.04105,-0.09705,-0.03693,-0.01297,0.00381,-0.04227
6.653,-0.0235,-0.04852,-0.03555,-0.16006,-0.03021,-0.05234,-0.11276,-0.02655,0.00137,0.02319,0.0563,-0.00259,-0.03372,-0.01587,0.00351,-0.03403
6.6535,-0.03799,-0.0502,-0.03418,-0.12024,-0.03098,-0.05264,-0.15625,-0.00137,-0.00717,0.02258,0.06317,0.1033,-0.0264,-0.01587,0.00336,-0.02975
6.654,-0.04807,-0.05356,-0.02899,-0.08331,-0.03052,-0.0531,-0.17395,0.01801,-0.01678,0.01312,0.05493,0.12238,-0.01755,-0.01205,0.00641,-0.02914
6.6545,-0.05661,-0.05737,-0.02594,-0.05295,-0.03113,-0.0531,-0.11032,0.03159,-0.02777,-0.00748,0.03906,0.05051,-0.01221,-0.00854,0.00839,-0.02975
6.655,-0.06668,-0.05997,-0.02472,-0.03281,-0.03204,-0.05447,0.0119,0.0325,-0.03876,-0.03494,0.02838,-0.01816,-0.0119,-0.00839,0.00717,-0.02899
6.6555,-0.0766,-0.06165,-0.02563,-0.02136,-0.03311,-0.0563,0.08743,0.01434,-0.05066,-0.07217,0.02396,-0.01984,-0.01495,-0.01129,0.00778,-0.02792
6.656,-0.08774,-0.07172,-0.02884,-0.01282,-0.03403,-0.06058,0.03662,-0.00931,-0.06226,-0.10376,0.01968,0.01358,-0.01877,-0.01602,0.00992,-0.02899
6.6565,-0.10056,-0.09796,-0.04211,-0.00305,-0.0354,-0.0647,-0.11261,-0.01709,-0.07553,-0.12878,0.00824,0.02823,-0.02304,-0.01907,0.00824,-0.03143
6.657,-0.1123,-0.13214,-0.06561,0.00778,-0.0351,-0.06332,-0.25055,-0.01053,-0.08469,-0.13626,-0.0058,0.0174,-0.02792,-0.01938,0.00916,-0.03479
6.6575,-0.11963,-0.15198,-0.08255,0.01587,-0.03448,-0.05692,-0.29083,-0.00946,-0.08545,-0.12131,-0.01617,0.00412,-0.03159,-0.01968,0.00656,-0.03784
6.658,-0.12405,-0.14832,-0.07568,0.0119,-0.03265,-0.05157,-0.23605,-0.02121,-0.07919,-0.0975,-0.02167,-0.00137,-0.03174,-0.02167,0.00549,-0.03952
6.6585,-0.12848,-0.13596,-0.04318,-0.00717,-0.03326,-0.05157,-0.14664,-0.03479,-0.07141,-0.07645,-0.02304,-0.00443,-0.02777,-0.02411,0.00549,-0.04028
6.659,-0.13657,-0.12756,-0.00275,-0.02518,-0.03586,-0.05432,-0.0592,-0.0386,-0.065,-0.06149,-0.01984,-0.00488,-0.02365,-0.02533,0.01038,-0.04074
6.6595,-0.14603,-0.11398,0.02365,-0.01831,-0.03784,-0.05569,0.03876,-0.02579,-0.06058,-0.05371,-0.01694,-0.00076,-0.02365,-0.02487,0.01266,-0.03799
6.66,-0.15244,-0.08347,0.01389,0.01587,-0.03876,-0.05402,0.13336,-0.00122,-0.05615,-0.04288,-0.0238,0.00336,-0.02441,-0.02243,0.01328,-0.03357
6.6605,-0.15549,-0.04486,-0.02197,0.05585,-0.03738,-0.04974,0.1564,0.01907,-0.04944,-0.02457,-0.04044,0.00427,-0.02289,-0.01892,0.01236,-0.03143
6.661,-0.15839,-0.01419,-0.04883,0.0795,-0.03464,-0.04318,0.10117,0.0235,-0.04105,-0.00046,-0.05478,0.00214,-0.01984,-0.01556,0.01175,-0.03326
6.6615,-0.16022,0.00443,-0.05585,0.08331,-0.03326,-0.0383,0.047,0.01999,-0.02884,0.02197,-0.05768,0.00015,-0.02075,-0.01526,0.01221,-0.03845
6.662,-0.15961,0.0209,-0.04318,0.0766,-0.03265,-0.03647,0.01846,0.02029,-0.01556,0.0386,-0.05035,-0.00168,-0.02716,-0.0177,0.01434,-0.04364
6.6625,-0.15793,0.03937,-0.0322,0.06714,-0.03448,-0.03937,-0.06012,0.01678,-0.00565,0.04822,-0.03937,-0.0058,-0.03494,-0.02136,0.01511,-0.04944
6.663,-0.15472,0.05066,-0.02808,0.06271,-0.03845,-0.0441,-0.19455,-0.00015,0.00076,0.04364,-0.02594,-0.01251,-0.03937,-0.02502,0.01389,-0.05478
6.6635,-0.14801,0.0499,-0.02991,0.07553,-0.04227,-0.04883,-0.26337,-0.0235,0.00473,0.03418,-0.00687,-0.0206,-0.03784,-0.02655,0.01205,-0.05661
6.664,-0.13641,0.04013,-0.02289,0.11581,-0.0441,-0.05615,-0.18234,-0.03769,0.00519,0.01877,0.0145,-0.03143,-0.03098,-0.02563,0.01099,-0.05402
6.6645,-0.11948,0.02762,-0.00229,0.16693,-0.0441,-0.06546,-0.01785,-0.03708,0.00198,0.01938,0.03738,-0.04593,-0.02167,-0.02197,0.01099,-0.04807
6.665,-0.10025,0.01678,0.02365,0.20096,-0.04257,-0.07339,0.11368,-0.02716,-0.00305,0.02289,0.05875,-0.07416,-0.01587,-0.01907,0.01297,-0.04318
6.6655,-0.08301,0.00854,0.05051,0.19623,-0.0412,-0.07294,0.18082,-0.01175,-0.00565,0.02457,0.08026,-0.12222,-0.01724,-0.01923,0.01144,-0.04196
6.666,-0.06622,0.00366,0.0737,0.16281,-0.03769,-0.0679,0.20889,0.00488,-0.00473,0.02762,0.1004,-0.159,-0.02441,-0.02228,0.00885,-0.04242
6.6665,-0.05005,0.00458,0.08926,0.12207,-0.0351,-0.06393,0.19241,0.01801,-0.00214,0.01801,0.11353,-0.11765,-0.03464,-0.02502,0.00748,-0.04257
6.667,-0.03616,0.01282,0.08255,0.08347,-0.03464,-0.06241,0.12207,0.02502,0.00153,0.00427,0.11292,0.01816,-0.0473,-0.02548,0.00717,-0.0412
6.6675,-0.02655,0.02151,0.05539,0.04669,-0.03433,-0.06058,0.05081,0.02563,0.009,-0.01007,0.09842,0.16953,-0.05814,-0.02396,0.00793,-0.03983
6.668,-0.0209,0.02197,0.02472,0.00824,-0.03311,-0.0531,0.03799,0.01617,0.01968,-0.0235,0.07614,0.23315,-0.06546,-0.02228,0.00702,-0.03891
6.6685,-0.01862,0.01144,0.00076,-0.03174,-0.02869,-0.04272,0.05936,0.0,0.02731,-0.02655,0.04562,0.18143,-0.07111,-0.02136,0.00504,-0.03754
6.669,-0.01709,-0.0058,-0.02441,-0.07141,-0.02579,-0.03601,0.0412,-0.00961,0.0264,-0.02289,-0.00092,0.06958,-0.08163,-0.02167,0.00565,-0.03571
6.6695,-0.01831,-0.02594,-0.05371,-0.10223,-0.02655,-0.03448,-0.0264,-0.00214,0.01968,-0.02274,-0.05814,-0.02426,-0.09338,-0.02228,0.00671,-0.03479
6.67,-0.02411,-0.05157,-0.0795,-0.11719,-0.03082,-0.03647,-0.0769,0.01312,0.01205,-0.03754,-0.1123,-0.05875,-0.09338,-0.01999,0.00809,-0.03586
6.6705,-0.03479,-0.07477,-0.09506,-0.12085,-0.03479,-0.03998,-0.05981,0.01999,0.00656,-0.06104,-0.15152,-0.0444,-0.07553,-0.01587,0.00824,-0.03708
6.671,-0.0444,-0.08408,-0.10162,-0.12283,-0.03601,-0.04532,-0.01068,0.01236,0.00046,-0.08652,-0.17258,-0.02106,-0.05035,-0.01328,0.0087,-0.03845
6.6715,-0.03891,-0.07629,-0.10147,-0.12909,-0.03632,-0.05096,-0.00031,-0.00381,-0.00641,-0.10956,-0.17578,-0.0119,-0.03372,-0.01236,0.00946,-0.04013
6.672,-0.01022,-0.06149,-0.09048,-0.13382,-0.03632,-0.05386,-0.04898,-0.01984,-0.01114,-0.13504,-0.16296,-0.01175,-0.02838,-0.01175,0.01068,-0.04333
6.6725,0.03372,-0.04761,-0.07355,-0.12878,-0.03754,-0.05173,-0.13184,-0.02869,-0.01068,-0.15854,-0.13641,-0.0087,-0.02838,-0.01236,0.00885,-0.04608
6.673,0.06973,-0.0325,-0.06042,-0.11642,-0.03952,-0.04974,-0.23849,-0.02853,-0.009,-0.18295,-0.10788,-0.00214,-0.02792,-0.01328,0.00839,-0.04715
6.6735,0.08316,-0.01511,-0.05569,-0.10498,-0.04227,-0.05249,-0.3511,-0.02289,-0.00946,-0.20691,-0.08102,0.00229,-0.02655,-0.01465,0.00702,-0.04745
6.674,0.07736,-0.00366,-0.05341,-0.10422,-0.04547,-0.06226,-0.39185,-0.01968,-0.01236,-0.21973,-0.05081,0.00427,-0.02594,-0.01434,0.00656,-0.05035
6.6745,0.06546,-0.00275,-0.04669,-0.12085,-0.04807,-0.07141,-0.28397,-0.02106,-0.01434,-0.20813,-0.0058,0.00885,-0.02655,-0.01404,0.0087,-0.05478
6.675,0.05722,-0.00885,-0.0441,-0.14542,-0.04608,-0.07141,-0.05096,-0.02502,-0.00931,-0.159,0.04745,0.01602,-0.02594,-0.01419,0.00854,-0.05814
6.6755,0.0592,-0.01587,-0.05447,-0.14908,-0.04135,-0.06714,0.17624,-0.02609,0.00168,-0.07111,0.08926,0.02289,-0.0209,-0.01373,0.00702,-0.05661
6.676,0.07309,-0.02396,-0.07416,-0.11368,-0.03601,-0.07187,0.27573,-0.02289,0.01114,0.03708,0.10788,0.02762,-0.01114,-0.01343,0.0058,-0.05463
6.6765,0.0946,-0.03967,-0.09201,-0.0528,-0.03525,-0.08362,0.25345,-0.0116,0.01419,0.13931,0.11215,0.0267,-0.00198,-0.01282,0.00687,-0.05157
6.677,0.11322,-0.06973,-0.09781,0.00656,-0.03662,-0.08514,0.21332,0.01053,0.01022,0.2095,0.11536,0.02213,0.00275,-0.01114,0.00702,-0.04929
6.6775,0.12756,-0.10941,-0.0943,0.05569,-0.03571,-0.0679,0.21591,0.03937,0.00351,0.22186,0.1123,0.01541,0.00427,-0.00824,0.00671,-0.04654
6.678,0.13763,-0.13855,-0.08545,0.10239,-0.0325,-0.04044,0.22034,0.06256,-0.00061,0.20096,0.0972,0.0087,0.00549,-0.00534,0.00504,-0.04898
6.6785,0.14572,-0.14465,-0.07126,0.14954,-0.02884,-0.01846,0.17624,0.06607,-0.00015,0.16449,0.07217,0.00427,0.00534,-0.00443,0.00488,-0.06546
6.679,0.14816,-0.13992,-0.04913,0.186,-0.02594,-0.00488,0.0946,0.05173,0.00259,0.1326,0.04456,0.00641,0.00244,-0.00626,0.00473,-0.09644
6.6795,0.14542,-0.14267,-0.02899,0.20447,-0.02563,0.00183,0.01709,0.0296,0.00305,0.1004,0.01938,0.02319,-0.00275,-0.00809,0.0058,-0.12787
6.68,0.1387,-0.15106,-0.02014,0.20981,-0.02716,-0.00122,-0.04013,0.00229,-0.00137,0.07126,-0.0032,0.0499,-0.00854,-0.00931,0.00458,-0.14435
6.6805,0.13519,-0.15823,-0.02899,0.21057,-0.02991,-0.01282,-0.09399,-0.03052,-0.00809,0.03494,-0.02548,0.0589,-0.01602,-0.00946,0.00885,-0.1413
6.681,0.13977,-0.15793,-0.04639,0.19531,-0.03159,-0.02274,-0.15457,-0.06058,-0.0119,-0.01175,-0.04517,0.02289,-0.02609,-0.00977,0.0087,-0.11673
6.6815,0.14984,-0.14328,-0.0589,0.14191,-0.03006,-0.02274,-0.20203,-0.07645,-0.01602,-0.05981,-0.05875,-0.04364,-0.04074,-0.01175,0.00824,-0.06973
6.682,0.15778,-0.10941,-0.05646,0.03281,-0.0293,-0.01633,-0.21347,-0.06927,-0.01953,-0.09979,-0.06622,-0.09293,-0.05707,-0.01678,0.00717,-0.00778
6.6825,0.15884,-0.06699,-0.03906,-0.12726,-0.02869,-0.01434,-0.19196,-0.03647,-0.02182,-0.11978,-0.07019,-0.09262,-0.07217,-0.02441,0.00702,0.04929
6.683,0.15427,-0.02747,-0.01221,-0.29556,-0.02686,-0.0206,-0.15381,0.00809,-0.02167,-0.11765,-0.07401,-0.05188,-0.07736,-0.02777,0.00793,0.0827
6.6835,0.15335,0.00809,0.01389,-0.40787,-0.02502,-0.0264,-0.09766,0.03494,-0.01648,-0.09064,-0.06943,-0.00229,-0.06805,-0.02472,0.00824,0.07828
6.684,0.16342,0.04715,0.03052,-0.43167,-0.02396,-0.0235,-0.01602,0.02701,-0.00549,-0.0499,-0.04486,0.02106,-0.04807,-0.01663,0.00931,0.04349
6.6845,0.18097,0.08575,0.03571,-0.40024,-0.02182,-0.01068,0.04944,0.00076,0.00793,-0.00763,0.00046,-0.01709,-0.02975,-0.01175,0.00885,0.00427
6.685,0.19638,0.10635,0.02426,-0.37094,-0.01984,0.00275,0.01633,-0.01831,0.01801,0.02441,0.04868,-0.10696,-0.02365,-0.01297,0.00977,-0.01801
6.6855,0.20264,0.09277,-0.00275,-0.3653,-0.01984,0.0087,-0.10742,-0.02045,0.02106,0.0441,0.0795,-0.14053,-0.03067,-0.01862,0.00992,-0.02213
6.686,0.20187,0.04684,-0.03372,-0.36911,-0.02121,0.00183,-0.16891,-0.01541,0.01801,0.05295,0.07965,-0.03159,-0.0415,-0.02411,0.00687,-0.02167
6.6865,0.19791,-0.00732,-0.06104,-0.37735,-0.02365,-0.01663,-0.04791,-0.01373,0.01312,0.05875,0.05219,0.11322,-0.05005,-0.02731,0.00641,-0.02563
6.687,0.19226,-0.04578,-0.09567,-0.38651,-0.02502,-0.047,0.15137,-0.01907,0.00763,0.06516,0.01083,0.10651,-0.05432,-0.02838,0.00671,-0.03052
6.6875,0.18799,-0.06241,-0.14008,-0.34851,-0.02731,-0.08392,0.21866,-0.02396,-0.00183,0.06729,-0.02487,-0.03525,-0.05585,-0.02716,0.00626,-0.03296
6.688,0.18799,-0.06668,-0.168,-0.17105,-0.02899,-0.11597,0.11276,-0.0145,-0.01602,0.06393,-0.04639,-0.11673,-0.05539,-0.02609,0.00626,-0.03571
6.6885,0.19257,-0.06744,-0.14954,0.18051,-0.02945,-0.12665,-0.00061,0.01266,-0.0325,0.047,-0.05432,-0.06943,-0.05417,-0.0267,0.0061,-0.04196
6.689,0.20401,-0.06424,-0.09048,0.58945,-0.02777,-0.11276,-0.009,0.03754,-0.04669,0.02914,-0.04715,-0.02838,-0.05554,-0.02823,0.00778,-0.0473
6.6895,0.215,-0.05142,-0.01862,0.84732,-0.02533,-0.0882,-0.01816,0.0351,-0.05676,0.01785,-0.01938,-0.07507,-0.05829,-0.03082,0.00992,-0.04929
6.69,0.21439,-0.03235,0.04089,0.82184,-0.02396,-0.07111,-0.177,0.00473,-0.06485,0.01572,0.01801,-0.09323,-0.06134,-0.03357,0.01083,-0.04532
6.6905,0.20218,-0.01144,0.07385,0.57831,-0.02502,-0.06454,-0.40039,-0.02594,-0.07309,0.01053,0.03632,0.04349,-0.0621,-0.0351,0.01114,-0.04288
6.691,0.19958,0.01007,0.07324,0.30548,-0.02594,-0.0589,-0.45288,-0.03098,-0.08057,0.00198,0.02304,0.26871,-0.05783,-0.0351,0.00885,-0.04196
6.6915,0.22552,0.03067,0.04715,0.13962,-0.02579,-0.04974,-0.28625,-0.01022,-0.08682,-0.01434,-0.01572,0.39398,-0.0502,-0.0322,0.00671,-0.04364
6.692,0.27283,0.04059,0.0148,0.08575,-0.02548,-0.04456,-0.0882,0.00717,-0.09216,-0.03448,-0.06393,0.32471,-0.04364,-0.03082,0.0061,-0.04623
6.6925,0.31418,0.03784,0.00061,0.07843,-0.02563,-0.05142,0.01785,-0.00244,-0.09735,-0.05661,-0.11002,0.15182,-0.04166,-0.03113,0.00687,-0.04822
6.693,0.33661,0.02472,0.00778,0.07538,-0.02884,-0.06042,0.1088,-0.03769,-0.09827,-0.07355,-0.14313,0.02884,-0.03906,-0.03189,0.00641,-0.04959
6.6935,0.35049,0.00336,0.02319,0.07217,-0.03067,-0.06134,0.24658,-0.06744,-0.09491,-0.08682,-0.1564,0.00702,-0.03601,-0.03143,0.00763,-0.05173
6.694,0.36758,-0.02609,0.02777,0.07324,-0.03387,-0.05539,0.33081,-0.0621,-0.08606,-0.09018,-0.1535,0.02838,-0.03296,-0.03189,0.0087,-0.05203
6.6945,0.38422,-0.05325,0.01541,0.07355,-0.03586,-0.05112,0.25406,-0.02563,-0.07202,-0.0885,-0.15121,0.03372,-0.03387,-0.03265,0.01053,-0.05035
6.695,0.38757,-0.06683,-0.01312,0.06531,-0.03738,-0.04837,0.10071,0.01358,-0.05524,-0.07309,-0.15778,0.02243,-0.03922,-0.03357,0.01038,-0.04791
6.6955,0.37659,-0.06866,-0.047,0.05066,-0.03754,-0.04059,0.03433,0.03098,-0.03815,-0.05539,-0.16266,0.01419,-0.04578,-0.03204,0.00931,-0.04745
6.696,0.3598,-0.06638,-0.07385,0.03586,-0.03754,-0.02686,0.07706,0.02594,-0.02335,-0.03723,-0.15442,0.00641,-0.0499,-0.0296,0.00977,-0.0499
6.6965,0.34256,-0.0647,-0.08438,0.02441,-0.04044,-0.01373,0.13092,0.00931,-0.01282,-0.02243,-0.13184,-0.01053,-0.05096,-0.02808,0.01129,-0.05188
6.697,0.32074,-0.05875,-0.07828,0.01526,-0.04379,-0.01419,0.14038,-0.00793,-0.00702,-0.00717,-0.10727,-0.02533,-0.0502,-0.02884,0.0116,-0.05112
6.6975,0.29221,-0.04929,-0.06805,0.00641,-0.04562,-0.03647,0.11124,-0.0145,-0.0029,0.00183,-0.0972,-0.0296,-0.05203,-0.03052,0.01175,-0.04822
6.698,0.26154,-0.04135,-0.06317,-0.0029,-0.04547,-0.07523,0.06561,-0.00259,0.00336,-0.00244,-0.10635,-0.03464,-0.05569,-0.0293,0.01068,-0.04715
6.6985,0.23193,-0.04562,-0.07828,-0.01022,-0.04532,-0.1152,0.03723,0.01709,0.01083,-0.01755,-0.12421,-0.05341,-0.0531,-0.0235,0.00931,-0.0499
6.699,0.20203,-0.06943,-0.11032,-0.01343,-0.04242,-0.13306,0.04593,0.02731,0.01816,-0.02975,-0.13535,-0.07431,-0.03815,-0.0145,0.00885,-0.05188
6.6995,0.1709,-0.10406,-0.14069,-0.01556,-0.03662,-0.11124,0.06546,0.01907,0.02548,-0.03479,-0.13107,-0.07645,-0.01663,-0.00702,0.01022,-0.04974
6.7,0.14343,-0.12665,-0.13931,-0.01999,-0.02762,-0.05585,0.04532,0.00061,0.03342,-0.03708,-0.11444,-0.06027,0.00046,-0.00336,0.01312,-0.04532
6.7005,0.12497,-0.12222,-0.09537,-0.02548,-0.02136,0.0,-0.0322,-0.01816,0.04089,-0.04456,-0.09933,-0.03967,0.01114,-0.00229,0.01419,-0.04272
6.701,0.11276,-0.09964,-0.02975,-0.02655,-0.02121,0.02228,-0.14252,-0.03235,0.04242,-0.05829,-0.08926,-0.01785,0.01785,-0.00336,0.01373,-0.04349
6.7015,0.09811,-0.07645,0.02884,-0.02182,-0.02548,-0.00183,-0.24231,-0.03677,0.03677,-0.07736,-0.07446,0.00275,0.02197,-0.00549,0.01373,-0.04471
6.702,0.07874,-0.06088,0.06668,-0.01709,-0.0293,-0.0499,-0.28,-0.02762,0.02563,-0.09796,-0.05203,0.01175,0.01724,-0.00824,0.01526,-0.04288
6.7025,0.06088,-0.05707,0.0795,-0.0177,-0.02975,-0.08072,-0.21835,-0.01053,0.01434,-0.11032,-0.02472,0.00107,-0.00061,-0.00977,0.01511,-0.03998
6.703,0.04974,-0.0679,0.07263,-0.02258,-0.02777,-0.06577,-0.08331,-0.00397,0.00626,-0.1181,0.00092,-0.01968,-0.02548,-0.01053,0.01419,-0.03952
6.7035,0.04211,-0.08179,0.04807,-0.02884,-0.02655,-0.02167,0.05142,-0.0116,0.00198,-0.10498,0.01892,-0.02945,-0.04379,-0.01221,0.01282,-0.04105
6.704,0.03052,-0.08301,0.01343,-0.0354,-0.0267,0.0148,0.14832,-0.01785,-0.00244,-0.07523,0.02274,-0.02502,-0.04425,-0.01511,0.01129,-0.04196
6.7045,0.01205,-0.06561,-0.02335,-0.03815,-0.02792,0.02533,0.21408,-0.00488,-0.00778,-0.02945,0.01724,-0.01755,-0.03387,-0.01633,0.00931,-0.03967
6.705,-0.00961,-0.04486,-0.05142,-0.03326,-0.02884,0.01907,0.24139,0.01907,-0.01251,0.02213,0.00778,-0.01678,-0.02533,-0.01678,0.00839,-0.03784
6.7055,-0.02991,-0.03601,-0.06744,-0.02243,-0.03174,0.01572,0.21027,0.0325,-0.01724,0.07339,-0.00275,-0.02045,-0.02594,-0.01617,0.00961,-0.0386
6.706,-0.04501,-0.0351,-0.07675,-0.01389,-0.03769,0.02472,0.13489,0.02579,-0.02319,0.11063,-0.01648,-0.02289,-0.02808,-0.0145,0.00977,-0.04059
6.7065,-0.05707,-0.02869,-0.08392,-0.01541,-0.04272,0.03799,0.0679,0.01022,-0.02975,0.12497,-0.03464,-0.02853,-0.02701,-0.01282,0.00946,-0.04257
6.707,-0.06882,-0.00809,-0.08896,-0.02487,-0.04623,0.0267,0.03525,0.00168,-0.0354,0.12558,-0.0499,-0.0412,-0.02548,-0.01343,0.00778,-0.04501
6.7075,-0.08102,0.0174,-0.09048,-0.03433,-0.04608,-0.02609,-0.00259,0.00214,-0.03647,0.11765,-0.05737,-0.04929,-0.0238,-0.01373,0.00717,-0.04608
6.708,-0.08881,0.03448,-0.08987,-0.0386,-0.04318,-0.09338,-0.08072,0.00351,-0.03036,0.10696,-0.06287,-0.03677,-0.02243,-0.01328,0.00824,-0.04654
6.7085,-0.09125,0.04013,-0.08759,-0.04013,-0.04196,-0.12253,-0.1413,0.00122,-0.02167,0.08621,-0.06912,-0.00595,-0.01846,-0.01251,0.00992,-0.04715
6.709,-0.09476,0.04089,-0.08835,-0.04684,-0.04349,-0.1033,-0.08636,-0.0029,-0.01617,0.05875,-0.07172,0.01907,-0.01511,-0.01297,0.00854,-0.04684
6.7095,-0.10498,0.03815,-0.09125,-0.06699,-0.04532,-0.07843,0.08301,-0.00793,-0.01419,0.03052,-0.06424,0.02502,-0.01312,-0.0148,0.00717,-0.04501
6.71,-0.12131,0.02228,-0.08972,-0.09552,-0.0444,-0.08011,0.24139,-0.01511,-0.01312,0.00534,-0.04578,0.02365,-0.0116,-0.0174,0.00748,-0.04135
6.7105,-0.1413,-0.01495,-0.06805,-0.11902,-0.04211,-0.09857,0.26337,-0.02548,-0.0116,-0.01343,-0.02502,0.03494,-0.01038,-0.02045,0.01022,-0.03876
6.711,-0.16083,-0.05356,-0.02029,-0.12299,-0.03952,-0.10742,0.16754,-0.03342,-0.00961,-0.01862,-0.0087,0.05615,-0.01419,-0.02335,0.01221,-0.03937
6.7115,-0.17609,-0.06653,0.03036,-0.112,-0.0386,-0.10147,0.07263,-0.02991,-0.00809,-0.02396,0.00427,0.06302,-0.02136,-0.02472,0.01114,-0.04089
6.712,-0.18723,-0.04807,0.05264,-0.09979,-0.03769,-0.09262,0.03159,-0.0119,-0.0061,-0.02716,0.01541,0.04272,-0.02762,-0.02304,0.00961,-0.04105
6.7125,-0.19745,-0.02106,0.03906,-0.09125,-0.0354,-0.08499,0.00488,0.009,-0.00443,-0.03311,0.02319,0.01236,-0.02884,-0.01984,0.00854,-0.03922
6.713,-0.21103,-0.00519,0.01297,-0.08286,-0.02945,-0.06714,-0.03952,0.02029,-0.00504,-0.04532,0.02823,0.00275,-0.02823,-0.01862,0.00687,-0.03616
6.7135,-0.22827,-0.00336,-0.00336,-0.07111,-0.02548,-0.03571,-0.0827,0.02213,-0.00961,-0.05447,0.02823,0.01389,-0.03067,-0.01831,0.00519,-0.03525
6.714,-0.24796,-0.01678,-0.00504,-0.05783,-0.02731,-0.009,-0.11124,0.0209,-0.01419,-0.06317,0.02319,0.01862,-0.03571,-0.01862,0.00427,-0.03738
6.7145,-0.2681,-0.05646,-0.00336,-0.04501,-0.03342,-0.00946,-0.13229,0.01755,-0.0174,-0.06729,0.01602,0.00244,-0.04105,-0.01801,0.00488,-0.03967
6.715,-0.28824,-0.11658,0.0,-0.0238,-0.0386,-0.03326,-0.13336,0.00778,-0.01816,-0.07126,0.0087,-0.03052,-0.04242,-0.01556,0.00519,-0.03937
6.7155,-0.3093,-0.16739,0.00275,0.01999,-0.04272,-0.05463,-0.09781,-0.00259,-0.02014,-0.06989,0.00351,-0.06927,-0.04135,-0.01282,0.00534,-0.03723
6.716,-0.327,-0.18188,-0.00748,0.08881,-0.04501,-0.05722,-0.0473,-0.00488,-0.02197,-0.06302,0.00031,-0.10757,-0.04166,-0.0119,0.00534,-0.03494
6.7165,-0.33356,-0.16281,-0.05524,0.14984,-0.04517,-0.04684,-0.03311,0.00137,-0.02441,-0.05707,0.00046,-0.13245,-0.04364,-0.01389,0.00397,-0.0351
6.717,-0.32532,-0.1265,-0.14359,0.15274,-0.04272,-0.0383,-0.07874,0.00519,-0.02655,-0.04837,0.00473,-0.12253,-0.04196,-0.01709,0.00275,-0.03494
6.7175,-0.30533,-0.08347,-0.22308,0.08911,-0.03937,-0.0354,-0.14496,0.0,-0.02792,-0.04257,0.009,-0.07629,-0.03342,-0.01587,0.00275,-0.0354
6.718,-0.28519,-0.03387,-0.23117,0.0061,-0.03662,-0.02563,-0.14877,-0.00916,-0.02609,-0.04013,0.00809,-0.02182,-0.02121,-0.01175,0.00427,-0.0354
6.7185,-0.27191,0.01633,-0.16479,-0.047,-0.03448,-0.009,-0.05341,-0.00961,-0.02228,-0.03967,0.00076,0.0116,-0.01312,-0.00809,0.00443,-0.03616
6.719,-0.27115,0.05112,-0.07935,-0.0647,-0.03525,-0.00366,0.06668,0.00229,-0.01892,-0.03906,-0.00626,0.02106,-0.01205,-0.00916,0.0032,-0.03723
6.7195,-0.28183,0.05341,-0.02472,-0.06912,-0.03738,-0.02731,0.10071,0.02075,-0.0148,-0.03815,-0.01221,0.0267,-0.01266,-0.01266,0.0029,-0.03723
6.72,-0.29648,0.02136,-0.00763,-0.07004,-0.03952,-0.06989,0.0354,0.0386,-0.00961,-0.04013,-0.01495,0.04105,-0.01175,-0.01633,0.0029,-0.03662
6.7205,-0.30228,-0.02228,-0.00244,-0.06409,-0.03998,-0.10574,-0.0499,0.05264,-0.00504,-0.04364,-0.01389,0.0528,-0.01007,-0.01663,0.00229,-0.03662
6.721,-0.28976,-0.05127,0.00763,-0.04913,-0.03708,-0.12192,-0.08957,0.05905,-0.00427,-0.04669,-0.00427,0.04166,-0.01022,-0.01816,0.00183,-0.03937
6.7215,-0.26733,-0.05997,0.00809,-0.02655,-0.03159,-0.12115,-0.08545,0.0528,-0.0058,-0.04532,0.00839,-0.00275,-0.01694,-0.02228,0.00305,-0.04181
6.722,-0.2478,-0.05737,-0.01831,-0.00137,-0.02838,-0.10086,-0.06989,0.03113,-0.00885,-0.04379,0.01953,-0.05981,-0.0296,-0.02731,0.00504,-0.04303
6.7225,-0.23743,-0.04745,-0.04623,0.01755,-0.02716,-0.06073,-0.05859,-0.0029,-0.00931,-0.04333,0.02487,-0.08728,-0.0444,-0.02731,0.0058,-0.04074
6.723,-0.23026,-0.03326,-0.04608,0.02167,-0.02686,-0.02304,-0.0499,-0.03311,-0.00717,-0.04318,0.02945,-0.06577,-0.05341,-0.02045,0.00473,-0.03891
6.7235,-0.21896,-0.01724,-0.03281,0.00671,-0.02533,-0.0119,-0.04715,-0.03708,-0.0061,-0.04028,0.03693,-0.01999,-0.05524,-0.01343,0.00443,-0.0383
6.724,-0.20386,-0.00214,-0.04608,-0.00977,-0.02472,-0.02289,-0.05692,-0.00763,-0.00458,-0.03815,0.04456,0.01007,-0.05493,-0.01129,0.00275,-0.03769
6.7245,-0.19409,0.00809,-0.07538,-0.01129,-0.02533,-0.02975,-0.07629,0.0351,-0.00183,-0.03616,0.04608,0.01328,-0.05478,-0.01297,0.00259,-0.03586
6.725,-0.19547,0.00732,-0.07568,-0.00809,-0.02701,-0.02518,-0.09903,0.06134,0.00443,-0.03403,0.04028,0.00702,-0.05157,-0.01617,0.00381,-0.03357
6.7255,-0.20203,-0.01038,-0.03265,-0.02853,-0.02777,-0.02914,-0.11734,0.0647,0.01266,-0.03403,0.03342,0.00565,-0.04501,-0.01892,0.00488,-0.03265
6.726,-0.20645,-0.03113,0.03204,-0.07568,-0.02747,-0.04913,-0.11993,0.0563,0.01617,-0.03525,0.02533,0.00702,-0.03799,-0.01984,0.00351,-0.03464
6.7265,-0.20905,-0.03799,0.09705,-0.12329,-0.02731,-0.06699,-0.10849,0.04547,0.01389,-0.03448,0.01511,0.00458,-0.03265,-0.02014,0.00198,-0.03723
6.727,-0.21667,-0.03143,0.14679,-0.13718,-0.02777,-0.06058,-0.10941,0.02625,0.00793,-0.03616,0.00229,0.00015,-0.03036,-0.01938,0.00183,-0.03815
6.7275,-0.22766,-0.02655,0.15869,-0.10437,-0.0293,-0.03952,-0.14435,-0.00885,0.00076,-0.03967,-0.00778,-0.00427,-0.02899,-0.01877,0.0029,-0.03708
6.728,-0.23239,-0.03311,0.12558,-0.04395,-0.03265,-0.03983,-0.19714,-0.05173,-0.00565,-0.04227,-0.01022,-0.00687,-0.02792,-0.01831,0.00397,-0.03815
6.7285,-0.22675,-0.04562,0.07645,-0.00031,-0.03387,-0.0766,-0.2356,-0.07904,-0.01144,-0.0444,-0.00687,-0.00488,-0.02731,-0.0177,0.00458,-0.04013
6.729,-0.21973,-0.056,0.04562,-0.01572,-0.0325,-0.12421,-0.2475,-0.07385,-0.01755,-0.04227,-0.00214,0.00214,-0.02533,-0.01663,0.0061,-0.0415
6.7295,-0.21988,-0.05737,0.02457,-0.0882,-0.02899,-0.14999,-0.23499,-0.04654,-0.02365,-0.03586,0.00015,0.00702,-0.02151,-0.01678,0.00656,-0.0412
6.73,-0.22034,-0.05569,-0.01114,-0.16785,-0.02838,-0.15869,-0.18219,-0.01877,-0.03098,-0.02747,0.00107,0.00595,-0.01953,-0.01862,0.00702,-0.03983
6.7305,-0.21027,-0.07599,-0.05066,-0.20264,-0.03204,-0.17242,-0.07324,-0.00717,-0.03784,-0.01938,0.00137,0.00015,-0.0209,-0.02136,0.00626,-0.03967
6.731,-0.19287,-0.14191,-0.06012,-0.17822,-0.03616,-0.18616,0.04501,-0.00519,-0.04318,-0.01205,0.00351,-0.00259,-0.02396,-0.02396,0.00595,-0.03967
6.7315,-0.18478,-0.24399,-0.04272,-0.12192,-0.03723,-0.17395,0.05524,-0.00153,-0.04654,-0.0058,0.00473,-0.00168,-0.02625,-0.02548,0.00549,-0.03937
6.732,-0.19348,-0.33737,-0.03113,-0.07187,-0.03616,-0.12741,-0.09232,0.00763,-0.04654,-0.00397,0.00488,0.00412,-0.02655,-0.02686,0.00458,-0.03784
6.7325,-0.20737,-0.37674,-0.0386,-0.04257,-0.03479,-0.0708,-0.25513,0.01663,-0.04242,-0.00702,0.00122,0.01175,-0.02533,-0.0264,0.00381,-0.03647
6.733,-0.21179,-0.34332,-0.05173,-0.02838,-0.03479,-0.03113,-0.25543,0.01846,-0.0354,-0.02151,-0.00275,0.01831,-0.02548,-0.02548,0.00381,-0.03616
6.7335,-0.20218,-0.25192,-0.0563,-0.01709,-0.03555,-0.01541,-0.14023,0.01099,-0.0296,-0.04044,-0.00641,0.0209,-0.02533,-0.02548,0.00504,-0.03586
6.734,-0.18204,-0.13519,-0.05447,-0.00244,-0.03525,-0.0145,-0.08774,-0.00702,-0.02991,-0.06088,-0.0116,0.02029,-0.02533,-0.02487,0.00595,-0.03647
6.7345,-0.15732,-0.01953,-0.05188,0.00549,-0.03555,-0.01175,-0.08896,-0.0322,-0.0351,-0.07538,-0.02075,0.0177,-0.02625,-0.02487,0.00641,-0.03571
6.735,-0.14099,0.08575,-0.05249,-0.01801,-0.03723,0.00885,0.00717,-0.05402,-0.04288,-0.08865,-0.03555,0.01404,-0.03052,-0.02533,0.00519,-0.03586
6.7355,-0.13962,0.17242,-0.0618,-0.08286,-0.03693,0.04822,0.1886,-0.05951,-0.04898,-0.10498,-0.05081,0.00946,-0.03418,-0.02838,0.00443,-0.0386
6.736,-0.14938,0.22736,-0.07523,-0.14755,-0.03494,0.08011,0.29205,-0.04761,-0.05371,-0.11169,-0.05981,0.00519,-0.03571,-0.02975,0.00427,-0.04028
6.7365,-0.15945,0.24124,-0.07874,-0.14954,-0.03296,0.07599,0.26276,-0.02884,-0.05554,-0.09979,-0.05646,0.00275,-0.03403,-0.02869,0.0058,-0.03967
6.737,-0.16312,0.22644,-0.06409,-0.0676,-0.03128,0.03647,0.20096,-0.01404,-0.05295,-0.07187,-0.04303,0.00122,-0.03342,-0.02502,0.00748,-0.03922
6.7375,-0.16113,0.20264,-0.04028,0.05112,-0.02899,-0.00259,0.18875,-0.00671,-0.0441,-0.03006,-0.03281,0.0,-0.03342,-0.02014,0.00732,-0.04044
6.738,-0.15167,0.1799,-0.02182,0.15579,-0.02457,-0.01617,0.20279,-0.00412,-0.03174,0.01251,-0.02701,0.00336,-0.03357,-0.0177,0.00824,-0.04135
6.7385,-0.13321,0.15686,-0.01984,0.23956,-0.02045,-0.0148,0.18234,-0.00366,-0.01968,0.04761,-0.02213,0.01266,-0.03754,-0.01678,0.00839,-0.04044
6.739,-0.11032,0.12787,-0.03143,0.3241,-0.01892,-0.02426,0.12009,-0.00931,-0.01007,0.07355,-0.01907,0.02777,-0.05005,-0.01633,0.0087,-0.03708
6.7395,-0.09232,0.08972,-0.04822,0.40009,-0.01923,-0.05112,0.05783,-0.0235,-0.00275,0.0856,-0.02228,0.04593,-0.06332,-0.01572,0.00931,-0.03525
6.74,-0.08453,0.03647,-0.0589,0.42603,-0.01877,-0.07416,0.01968,-0.0441,0.00244,0.09125,-0.0322,0.05844,-0.06348,-0.01373,0.01068,-0.03403
6.7405,-0.08286,-0.02747,-0.06119,0.37628,-0.01633,-0.06958,-0.00061,-0.06134,0.00427,0.08591,-0.04486,0.05966,-0.04929,-0.01373,0.01083,-0.03601
6.741,-0.08438,-0.07858,-0.05646,0.27313,-0.01434,-0.04272,-0.00412,-0.06332,0.00504,0.07629,-0.05447,0.04517,-0.03693,-0.0148,0.00992,-0.03784
6.7415,-0.09262,-0.09247,-0.05142,0.1535,-0.01556,-0.01801,0.02182,-0.04807,0.00305,0.06195,-0.05707,0.01465,-0.03464,-0.01694,0.00885,-0.0383
6.742,-0.1152,-0.07446,-0.0473,0.04623,-0.01907,-0.01358,0.06424,-0.02731,-0.00092,0.03937,-0.05356,-0.03601,-0.03586,-0.01846,0.00885,-0.03677
6.7425,-0.14526,-0.04807,-0.04242,-0.03357,-0.02411,-0.02396,0.09094,-0.0148,-0.00656,0.01373,-0.04959,-0.09232,-0.03281,-0.01709,0.00916,-0.03616
6.743,-0.16647,-0.02808,-0.03769,-0.07996,-0.02731,-0.03403,0.09262,-0.01266,-0.0119,-0.00946,-0.04852,-0.10178,-0.02716,-0.01587,0.00992,-0.03662
6.7435,-0.17044,-0.01602,-0.03693,-0.11032,-0.03113,-0.0383,0.08408,-0.01266,-0.0145,-0.02258,-0.05157,-0.01785,-0.02411,-0.01541,0.00992,-0.03799
6.744,-0.16876,-0.01266,-0.03998,-0.15137,-0.0351,-0.03952,0.06668,-0.00977,-0.01678,-0.02258,-0.05524,0.12253,-0.02548,-0.0177,0.00961,-0.03906
6.7445,-0.17334,-0.02228,-0.0412,-0.21667,-0.03952,-0.0415,0.03555,-0.0058,-0.02121,-0.02213,-0.0592,0.21149,-0.02625,-0.02014,0.00916,-0.04074
6.745,-0.1828,-0.0444,-0.03586,-0.28992,-0.0441,-0.04257,0.01007,-0.0029,-0.02716,-0.01968,-0.06439,0.17822,-0.02548,-0.02182,0.00977,-0.04257
6.7455,-0.18066,-0.06744,-0.03265,-0.34363,-0.04501,-0.04318,0.00702,-0.00046,-0.02869,-0.01373,-0.06897,0.05447,-0.02167,-0.02121,0.00931,-0.0441
6.746,-0.15793,-0.08163,-0.04333,-0.36713,-0.04379,-0.04501,0.01617,0.00351,-0.02472,-0.00137,-0.06592,-0.06607,-0.01572,-0.01999,0.00961,-0.04425
6.7465,-0.12756,-0.08942,-0.07126,-0.37384,-0.04669,-0.03998,0.01419,0.00763,-0.01892,0.01007,-0.05081,-0.121,-0.01099,-0.01938,0.00916,-0.0444
6.747,-0.11444,-0.09628,-0.09857,-0.37796,-0.05203,-0.02167,-0.00015,0.00854,-0.0145,0.01984,-0.0296,-0.11032,-0.0087,-0.01892,0.00778,-0.04517
6.7475,-0.12924,-0.09995,-0.10895,-0.36987,-0.056,-0.01038,-0.01404,0.00397,-0.01236,0.02441,-0.01373,-0.07355,-0.00748,-0.01907,0.00534,-0.04578
6.748,-0.16006,-0.09644,-0.10132,-0.31433,-0.05356,-0.04196,-0.02167,-0.00107,-0.00992,0.02335,-0.00809,-0.0473,-0.00656,-0.01862,0.00458,-0.04684
6.7485,-0.18723,-0.08987,-0.08591,-0.18311,-0.04593,-0.10513,-0.02686,-0.00427,-0.00717,0.01923,-0.00549,-0.03616,-0.00687,-0.01907,0.00626,-0.04684
6.749,-0.20233,-0.08881,-0.07004,0.01846,-0.0383,-0.1506,-0.03265,-0.00443,-0.00443,0.01205,-0.00107,-0.02502,-0.01068,-0.01846,0.00702,-0.04684
6.7495,-0.20508,-0.09125,-0.05341,0.23712,-0.03006,-0.1445,-0.0354,-0.00244,-0.00259,0.00595,0.00504,-0.00671,-0.02075,-0.0174,0.00687,-0.04684
6.75,-0.19714,-0.08911,-0.03922,0.3891,-0.02548,-0.11169,-0.03571,0.00076,-0.00183,-0.0032,0.00473,0.01007,-0.03708,-0.01801,0.00595,-0.04517
6.7505,-0.18402,-0.07919,-0.03265,0.40726,-0.02502,-0.09613,-0.03662,0.00244,-0.00275,-0.01022,-0.00443,0.01587,-0.05478,-0.01999,0.00778,-0.04257
6.751,-0.17609,-0.06775,-0.03769,0.289,-0.02655,-0.10132,-0.0383,0.00214,-0.00412,-0.01007,-0.01617,0.01251,-0.06699,-0.02213,0.00977,-0.0415
6.7515,-0.18051,-0.06195,-0.04868,0.1152,-0.02487,-0.10544,-0.03876,0.00259,-0.00519,-0.01541,-0.02014,0.00671,-0.06775,-0.0206,0.01022,-0.0415
6.752,-0.18707,-0.06088,-0.05371,-0.01907,-0.02213,-0.09857,-0.03876,0.00336,-0.00366,-0.01541,-0.01358,0.00153,-0.06012,-0.01678,0.01007,-0.04242
6.7525,-0.17944,-0.05951,-0.0499,-0.07843,-0.02106,-0.08698,-0.04059,0.00092,-0.00061,-0.01755,-0.00122,-0.00381,-0.05219,-0.01373,0.00961,-0.04349
6.753,-0.15335,-0.05508,-0.0415,-0.08743,-0.02335,-0.07568,-0.04379,-0.00458,0.00244,-0.02182,0.0087,-0.00839,-0.04608,-0.01404,0.01114,-0.04562
6.7535,-0.11841,-0.04974,-0.04639,-0.08026,-0.02594,-0.0621,-0.04639,-0.00992,0.00259,-0.03265,0.01648,-0.01129,-0.04364,-0.01602,0.01312,-0.04776
6.754,-0.08652,-0.04868,-0.07721,-0.06989,-0.02686,-0.04898,-0.04807,-0.01129,0.00076,-0.04578,0.02808,-0.01114,-0.04059,-0.01816,0.01389,-0.04822
6.7545,-0.06561,-0.05127,-0.12634,-0.05142,-0.02792,-0.04333,-0.04944,-0.01144,0.00076,-0.05737,0.04135,-0.01068,-0.03525,-0.01801,0.01297,-0.04837
6.755,-0.06805,-0.05539,-0.1564,-0.02441,-0.02823,-0.04608,-0.04913,-0.01205,0.00153,-0.06165,0.05081,-0.01022,-0.02823,-0.01617,0.01266,-0.04547
6.7555,-0.09613,-0.06256,-0.13428,-0.00229,-0.02823,-0.05005,-0.04684,-0.01266,0.00092,-0.06058,0.05737,-0.00885,-0.02518,-0.01648,0.01175,-0.0444
6.756,-0.14069,-0.08301,-0.06897,-0.00336,-0.02914,-0.04761,-0.04501,-0.0119,-0.00427,-0.05844,0.06378,-0.00687,-0.02762,-0.0174,0.01022,-0.04349
6.7565,-0.19577,-0.12466,0.00626,-0.03265,-0.03159,-0.03189,-0.04395,-0.00809,-0.00793,-0.056,0.06531,-0.00488,-0.03036,-0.01801,0.00809,-0.04532
6.757,-0.2829,-0.17715,0.06851,-0.07904,-0.03464,0.00626,-0.04547,-0.00595,-0.00885,-0.05066,0.05722,-0.00275,-0.02899,-0.01648,0.00641,-0.04684
6.7575,-0.4155,-0.21423,0.10315,-0.12009,-0.03677,0.0621,-0.04654,-0.00427,-0.00885,-0.04593,0.04166,-0.00153,-0.02548,-0.01465,0.0061,-0.04578
6.758,-0.54474,-0.21622,0.09048,-0.13367,-0.03799,0.10147,-0.04517,-0.00183,-0.00885,-0.03998,0.03265,-0.00061,-0.02411,-0.0145,0.00504,-0.04532
6.7585,-0.59387,-0.186,0.02396,-0.12024,-0.03693,0.09064,-0.04456,0.00259,-0.01099,-0.0383,0.02777,-0.00061,-0.02563,-0.01694,0.00488,-0.04486
6.759,-0.54932,-0.13596,-0.05493,-0.10071,-0.03433,0.04166,-0.0499,0.00885,-0.0145,-0.04242,0.02716,-0.00198,-0.02884,-0.01968,0.00488,-0.04532
6.7595,-0.47592,-0.0827,-0.08087,-0.09415,-0.03067,0.00198,-0.05905,0.01678,-0.01892,-0.04486,0.02777,-0.00275,-0.0296,-0.0209,0.00763,-0.0441
6.76,-0.42679,-0.03815,-0.04135,-0.09689,-0.02838,-0.00092,-0.06348,0.02563,-0.02319,-0.03876,0.03082,-0.00183,-0.03036,-0.01938,0.00916,-0.04181
6.7605,-0.39017,-0.00381,0.01511,-0.0708,-0.02914,0.01526,-0.05478,0.03143,-0.02518,-0.02457,0.03632,-0.00092,-0.03265,-0.01801,0.00702,-0.04105
6.761,-0.32959,0.0267,0.04181,0.06256,-0.03098,0.02716,-0.03448,0.03418,-0.02655,-0.00977,0.0441,-0.00168,-0.03571,-0.01907,0.00641,-0.04318
6.7615,-0.24521,0.05493,0.03922,0.34882,-0.03021,0.03052,-0.00854,0.03708,-0.02975,0.00687,0.05173,-0.00336,-0.03662,-0.02121,0.00809,-0.047
6.762,-0.16647,0.07385,0.03128,0.6662,-0.02625,0.03265,0.01892,0.03937,-0.03494,0.01862,0.05417,-0.00229,-0.03632,-0.0235,0.01053,-0.04791
6.7625,-0.10651,0.07553,0.02579,0.76874,-0.02274,0.03235,0.04333,0.03738,-0.04059,0.02869,0.04974,0.00229,-0.03662,-0.02502,0.01068,-0.04547
6.763,-0.0589,0.06241,0.00793,0.56213,-0.02228,0.0209,0.05127,0.02853,-0.04471,0.03006,0.04074,0.00641,-0.03799,-0.0238,0.00961,-0.04105
6.7635,-0.0177,0.04227,-0.04105,0.25375,-0.02548,-0.00351,0.03403,0.01648,-0.04242,0.02304,0.02838,0.00839,-0.03708,-0.02213,0.009,-0.0412
6.764,0.01587,0.02502,-0.09872,0.10452,-0.02808,-0.03647,0.0119,0.00809,-0.03616,0.00992,0.01907,0.00717,-0.03433,-0.02014,0.01007,-0.04532
6.7645,0.04501,0.00793,-0.1123,0.12772,-0.02792,-0.06943,0.00565,0.00458,-0.02609,-0.00153,0.01923,0.00687,-0.03098,-0.01846,0.01053,-0.05005
6.765,0.07187,-0.01465,-0.06317,0.15335,-0.02426,-0.09521,0.00809,0.00183,-0.01816,-0.01495,0.02426,0.0087,-0.03021,-0.01648,0.01068,-0.05371
6.7655,0.09781,-0.04089,0.00397,0.09628,-0.02075,-0.10941,0.00244,-0.00381,-0.01312,-0.02487,0.02396,0.01129,-0.03235,-0.01556,0.00992,-0.05569
6.766,0.12894,-0.06058,0.03174,0.02808,-0.02029,-0.11002,-0.00885,-0.01205,-0.00931,-0.03448,0.00839,0.0119,-0.03586,-0.01434,0.00992,-0.05432
6.7665,0.16602,-0.06714,0.01373,0.01938,-0.02136,-0.09567,-0.01328,-0.01877,-0.00534,-0.0444,-0.01663,0.0116,-0.03891,-0.01251,0.0119,-0.0502
6.767,0.19302,-0.06531,-0.01328,0.03647,-0.02243,-0.07645,-0.01312,-0.02411,-0.00366,-0.05173,-0.04333,0.00916,-0.03906,-0.01068,0.0145,-0.04395
6.7675,0.18417,-0.06058,-0.02533,0.00778,-0.02472,-0.06149,-0.01495,-0.02853,-0.00458,-0.05814,-0.06653,0.00656,-0.03845,-0.01068,0.01663,-0.03891
6.768,0.13535,-0.0502,-0.03021,-0.07248,-0.02686,-0.05249,-0.01907,-0.03067,-0.00641,-0.06592,-0.08774,0.0032,-0.03815,-0.01297,0.01572,-0.03677
6.7685,0.07416,-0.03708,-0.04028,-0.14587,-0.02716,-0.04425,-0.02014,-0.02975,-0.009,-0.07248,-0.10727,-0.00259,-0.03876,-0.01617,0.01236,-0.03738
6.769,0.03738,-0.02991,-0.05035,-0.16266,-0.0264,-0.03723,-0.0177,-0.02655,-0.01175,-0.06866,-0.11703,-0.009,-0.03983,-0.01755,0.01007,-0.03738
6.7695,0.03845,-0.03433,-0.0473,-0.12772,-0.02869,-0.03067,-0.01587,-0.02151,-0.01373,-0.05157,-0.11215,-0.01175,-0.04074,-0.01602,0.00778,-0.03708
6.77,0.06119,-0.0415,-0.0293,-0.07751,-0.03387,-0.02747,-0.01526,-0.01846,-0.01587,-0.02625,-0.09399,-0.01007,-0.04135,-0.01633,0.00244,-0.03418
6.7705,0.08362,-0.04471,-0.00183,-0.02808,-0.04028,-0.03052,-0.01526,-0.0177,-0.02029,-0.00275,-0.07294,-0.00549,-0.03998,-0.0177,-0.00092,-0.03265
6.771,0.10193,-0.04623,0.01755,0.0238,-0.04318,-0.04395,-0.01633,-0.0177,-0.0238,0.00916,-0.05737,-0.00046,-0.03937,-0.02151,-0.00183,-0.03326
6.7715,0.12268,-0.05554,0.00946,0.05508,-0.04135,-0.06058,-0.0174,-0.01556,-0.02563,0.01083,-0.04974,0.00397,-0.04105,-0.02228,-0.00076,-0.03372
6.772,0.14725,-0.07568,-0.02289,0.00793,-0.03754,-0.06317,-0.01907,-0.01236,-0.02411,0.00244,-0.04868,0.00687,-0.04227,-0.02426,0.00427,-0.03494
6.7725,0.17471,-0.1059,-0.05432,-0.13367,-0.03448,-0.0412,-0.02014,-0.00931,-0.02106,-0.00656,-0.0502,0.00763,-0.04196,-0.02487,0.00961,-0.03815
6.773,0.2066,-0.13763,-0.05997,-0.30746,-0.0296,-0.00549,-0.01984,-0.00717,-0.01801,-0.00854,-0.05249,0.00626,-0.04013,-0.02487,0.01389,-0.04456
6.7735,0.2449,-0.16296,-0.04349,-0.41962,-0.02441,0.02441,-0.01877,-0.00488,-0.01465,-0.00366,-0.05371,0.00366,-0.0386,-0.02167,0.01572,-0.05554
6.774,0.28595,-0.17075,-0.02823,-0.43274,-0.02106,0.04059,-0.02014,-0.0061,-0.01129,0.00229,-0.05219,0.0032,-0.03967,-0.01831,0.01724,-0.065
6.7745,0.31967,-0.15076,-0.02747,-0.38116,-0.02106,0.0415,-0.02274,-0.01022,-0.00717,0.00626,-0.04822,0.00427,-0.04135,-0.01572,0.01999,-0.06836
6.775,0.34088,-0.10345,-0.03738,-0.30716,-0.02396,0.03036,-0.02563,-0.01266,-0.00397,0.0032,-0.04349,0.00458,-0.04288,-0.01587,0.02106,-0.06393
6.7755,0.34744,-0.04425,-0.04578,-0.22949,-0.02625,0.0148,-0.03265,-0.01236,-0.00061,-0.00336,-0.03723,0.00153,-0.04379,-0.01724,0.02136,-0.0563
6.776,0.33325,0.01114,-0.04715,-0.16418,-0.02686,0.0029,-0.04471,-0.01343,0.00275,-0.0087,-0.02975,-0.00366,-0.04501,-0.0177,0.02243,-0.05127
6.7765,0.27954,0.05295,-0.04379,-0.12909,-0.02762,-0.00305,-0.05737,-0.0174,0.00198,-0.01266,-0.02304,-0.00824,-0.04623,-0.01816,0.02228,-0.05051
6.777,0.18433,0.07507,-0.0415,-0.11536,-0.03006,-0.00229,-0.06149,-0.01953,-0.00031,-0.01602,-0.01801,-0.01007,-0.0444,-0.01846,0.02151,-0.05219
6.7775,0.09064,0.07385,-0.04242,-0.09766,-0.03326,0.0032,-0.05722,-0.0177,-0.00458,-0.01785,-0.01511,-0.00717,-0.03952,-0.01907,0.01801,-0.0499
6.778,0.0531,0.04517,-0.04135,-0.06851,-0.03555,0.009,-0.05081,-0.01328,-0.00885,-0.01877,-0.01266,-0.00183,-0.03296,-0.01938,0.01373,-0.04288
6.7785,0.06714,-0.00656,-0.03632,-0.04578,-0.03754,0.00381,-0.04669,-0.00809,-0.01144,-0.01724,-0.01068,0.00183,-0.02808,-0.01801,0.00732,-0.03586
6.779,0.08728,-0.05447,-0.02991,-0.03937,-0.04013,-0.03555,-0.04364,-0.00381,-0.01297,-0.01617,-0.00992,0.00076,-0.02869,-0.01633,-0.00092,-0.0383
6.7795,0.08881,-0.07111,-0.03296,-0.03815,-0.04532,-0.11673,-0.04196,-0.00122,-0.01175,-0.01434,-0.00961,-0.00519,-0.03326,-0.01785,-0.00885,-0.04761
6.78,0.09384,-0.06317,-0.04349,-0.03052,-0.05051,-0.21042,-0.04089,-0.00061,-0.00977,-0.01419,-0.00809,-0.01038,-0.0386,-0.01846,-0.01801,-0.05661
6.7805,0.12497,-0.0705,-0.06317,-0.01892,-0.05478,-0.26703,-0.04242,0.00137,-0.00748,-0.01587,-0.00702,-0.01007,-0.03998,-0.01846,-0.02625,-0.05936
6.781,0.17242,-0.11444,-0.10742,-0.0058,-0.05615,-0.2803,-0.04837,0.00549,-0.0061,-0.01694,-0.00641,-0.00351,-0.03586,-0.01526,-0.02899,-0.0592
6.7815,0.21286,-0.16205,-0.17761,0.01099,-0.0531,-0.28122,-0.0618,0.01099,-0.00793,-0.01953,-0.0061,0.0032,-0.02869,-0.01129,-0.02533,-0.05966
6.782,0.23758,-0.168,-0.23453,0.03296,-0.04807,-0.28351,-0.07904,0.0148,-0.00763,-0.02106,-0.00458,0.0029,-0.02197,-0.00793,-0.01862,-0.06042
6.7825,0.24933,-0.12924,-0.22369,0.05508,-0.0444,-0.26428,-0.09094,0.01617,-0.00717,-0.0209,-0.00259,-0.00458,-0.01755,-0.00656,-0.01312,-0.05875
6.783,0.25558,-0.07446,-0.14572,0.07034,-0.04211,-0.21286,-0.09232,0.01648,-0.00916,-0.02182,0.00076,-0.01266,-0.01617,-0.00885,-0.00854,-0.05539
6.7835,0.25925,-0.01648,-0.06012,0.07523,-0.0412,-0.15579,-0.08957,0.01877,-0.01251,-0.0238,0.00336,-0.01434,-0.01602,-0.01282,-0.00259,-0.05142
6.784,0.26566,0.04471,-0.00427,0.06973,-0.0412,-0.12222,-0.09033,0.02121,-0.01648,-0.02441,0.0032,-0.0087,-0.01404,-0.01602,0.00275,-0.04593
6.7845,0.27985,0.09949,0.02563,0.05707,-0.0412,-0.112,-0.07675,0.02304,-0.01831,-0.02441,0.00061,-0.00168,-0.00977,-0.01877,0.00778,-0.03723
6.785,0.30121,0.13748,0.02975,0.03967,-0.0383,-0.11108,-0.009,0.02411,-0.01648,-0.0238,-0.00046,0.00015,-0.00702,-0.02136,0.01144,-0.03021
6.7855,0.32333,0.15686,0.00198,0.02304,-0.03235,-0.11978,0.10345,0.02594,-0.01389,-0.02319,-0.00137,0.0,-0.00732,-0.02487,0.01373,-0.0325
6.786,0.34653,0.16068,-0.03937,0.00885,-0.02762,-0.13901,0.1738,0.02563,-0.01343,-0.02304,-0.00259,-0.00015,-0.01175,-0.02869,0.01297,-0.04593
6.7865,0.37338,0.1503,-0.05447,0.00107,-0.02731,-0.14908,0.13611,0.02029,-0.01419,-0.02319,-0.00534,-0.00061,-0.01862,-0.03235,0.01175,-0.06271
6.787,0.40527,0.12787,-0.03128,0.00992,-0.0296,-0.13138,0.04333,0.00916,-0.01526,-0.02274,-0.0058,-0.00214,-0.02563,-0.03525,0.00931,-0.07294
6.7875,0.43304,0.08987,0.00305,0.04471,-0.03098,-0.09933,-0.00748,-0.00076,-0.01419,-0.02014,-0.00305,-0.00427,-0.03067,-0.03494,0.00885,-0.06882
6.788,0.44876,0.03052,0.01877,0.08713,-0.03082,-0.08102,0.00153,-0.0087,-0.0119,-0.02396,-0.00061,-0.00656,-0.03754,-0.03204,0.00778,-0.04776
6.7885,0.45074,-0.03998,0.01312,0.10117,-0.0293,-0.0795,0.01755,-0.01358,-0.01007,-0.02121,-0.00046,-0.00748,-0.04791,-0.02853,0.00885,-0.01892
6.789,0.44647,-0.09018,0.00198,0.07294,-0.02731,-0.07706,0.00946,-0.01862,-0.0116,-0.02151,-0.00214,-0.00748,-0.06439,-0.02472,0.01144,0.00626
6.7895,0.4425,-0.10254,0.00778,0.02411,-0.02426,-0.05966,-0.00839,-0.02197,-0.01373,-0.02396,-0.00214,-0.00595,-0.07813,-0.02075,0.01389,0.01114
6.79,0.4393,-0.09277,0.0293,-0.0148,-0.02243,-0.03448,-0.01877,-0.0209,-0.01724,-0.02274,-0.00092,-0.00366,-0.08301,-0.01526,0.01877,-0.01129
6.7905,0.43381,-0.08362,0.04776,-0.03662,-0.02228,-0.0119,-0.01328,-0.01663,-0.02075,-0.02289,0.00092,-0.0029,-0.07751,-0.00977,0.02121,-0.05051
6.791,0.42389,-0.08026,0.05508,-0.04227,-0.02426,0.01572,0.00824,-0.01297,-0.02487,-0.02289,-0.00015,-0.00259,-0.06943,-0.00854,0.02197,-0.09094
6.7915,0.40924,-0.06989,0.06195,-0.03235,-0.02655,0.0531,0.02914,-0.01221,-0.02975,-0.02075,0.0,-0.00305,-0.06409,-0.0116,0.02182,-0.1178
6.792,0.39688,-0.03998,0.07416,-0.01129,-0.0264,0.08087,0.03052,-0.01221,-0.0351,-0.02075,0.00076,-0.00305,-0.06149,-0.01633,0.02136,-0.13107
6.7925,0.39078,0.00793,0.07599,0.01038,-0.0238,0.07477,0.01587,-0.00839,-0.03845,-0.02167,0.00351,-0.00275,-0.05554,-0.01938,0.02274,-0.14374
6.793,0.38452,0.05447,0.04761,0.02274,-0.02228,0.04623,0.00626,-0.00214,-0.03998,-0.02258,0.00565,0.0,-0.04807,-0.02182,0.02747,-0.16251
6.7935,0.37048,0.07828,-0.00168,0.02365,-0.02243,0.02884,0.00809,0.00244,-0.04105,-0.02167,0.00595,0.00488,-0.0473,-0.02411,0.02838,-0.14908
6.794,0.34683,0.07721,-0.05035,0.02228,-0.02487,0.03326,0.01404,0.00519,-0.03998,-0.02014,0.0061,0.00824,-0.05814,-0.02686,0.02258,-0.05905
6.7945,0.31998,0.06287,-0.08026,0.02274,-0.02762,0.03448,0.01541,0.00732,-0.03632,-0.01831,0.00748,0.00854,-0.07462,-0.02777,0.00931,0.0676
6.795,0.29373,0.04837,-0.08469,0.02426,-0.02884,0.01297,0.01144,0.00854,-0.03113,-0.0209,0.00778,0.00946,-0.08286,-0.02777,-0.00427,0.11917
6.7955,0.26749,0.03494,-0.06622,0.02411,-0.0293,-0.02426,-0.00366,0.00992,-0.02579,-0.01999,0.00748,0.00961,-0.07889,-0.0267,-0.00778,0.04578
6.796,0.24124,0.01541,-0.03708,0.02121,-0.02792,-0.06058,-0.03632,0.01175,-0.02289,-0.0235,0.00626,0.009,-0.06531,-0.02274,-0.00153,-0.08057
6.7965,0.22095,-0.01663,-0.00671,0.01755,-0.02594,-0.0914,-0.07202,0.01373,-0.02136,-0.0209,0.00626,0.00732,-0.0531,-0.01755,0.0061,-0.14679
6.797,0.21225,-0.06302,0.0177,0.01511,-0.02182,-0.11871,-0.0882,0.01663,-0.01984,-0.02075,0.00778,0.00641,-0.04822,-0.01312,0.01083,-0.09735
6.7975,0.21378,-0.11856,0.03403,0.01526,-0.01709,-0.13611,-0.0795,0.01923,-0.01724,-0.01999,0.00809,0.0061,-0.04913,-0.01205,0.01358,0.0351
6.798,0.21957,-0.16281,0.03387,0.01709,-0.01144,-0.12985,-0.06317,0.0209,-0.0174,-0.01999,0.00717,0.00381,-0.04974,-0.01358,0.01587,0.14786
6.7985,0.2211,-0.17532,0.0148,0.01999,-0.00885,-0.09995,-0.04776,0.02213,-0.01984,-0.01923,0.0061,-0.00015,-0.04593,-0.01404,0.01541,0.15549
6.799,0.21622,-0.15808,-0.01846,0.02426,-0.01068,-0.06775,-0.02182,0.0238,-0.02243,-0.02121,0.00702,-0.0029,-0.04105,-0.01465,0.00916,0.08789
6.7995,0.20935,-0.13321,-0.04639,0.0267,-0.01312,-0.05402,0.03494,0.02625,-0.02365,-0.02197,0.00885,-0.00183,-0.03708,-0.01434,-0.00183,0.03113
6.8,0.20889,-0.11597,-0.05981,0.02502,-0.01602,-0.05005,0.1149,0.02884,-0.02213,-0.02075,0.01083,0.00198,-0.03464,-0.01465,-0.01129,0.00076
6.8005,0.21652,-0.10117,-0.06546,0.0177,-0.01892,-0.03342,0.17288,0.02808,-0.02167,-0.01938,0.01144,0.00336,-0.03296,-0.01526,-0.01312,-0.04486
6.801,0.22354,-0.0795,-0.06912,0.00992,-0.02441,0.00046,0.16006,0.02396,-0.02136,-0.01617,0.01053,-0.00107,-0.03296,-0.01709,-0.00565,-0.1001
6.8015,0.22278,-0.05478,-0.0737,0.00412,-0.02914,0.02869,0.08911,0.02258,-0.02228,-0.01587,0.01129,-0.00992,-0.03311,-0.01801,0.00229,-0.11124
6.802,0.21957,-0.04242,-0.07843,-0.00168,-0.03128,0.03723,0.02884,0.02533,-0.02533,-0.01633,0.01297,-0.01785,-0.03189,-0.01923,0.00946,-0.05737
6.8025,0.22659,-0.04517,-0.08453,-0.01038,-0.03174,0.03036,0.02197,0.02777,-0.02686,-0.01923,0.01404,-0.02029,-0.02975,-0.02029,0.00961,0.00534
6.803,0.24872,-0.05386,-0.08606,-0.01877,-0.03128,0.02563,0.04395,0.02487,-0.02716,-0.02014,0.01297,-0.01602,-0.02808,-0.02167,0.00824,0.01984
6.8035,0.27466,-0.05585,-0.08392,-0.02304,-0.0354,0.03342,0.04837,0.01923,-0.02441,-0.02045,0.01221,-0.01175,-0.02823,-0.02365,0.0061,-0.01038
6.804,0.29037,-0.04974,-0.08316,-0.02304,-0.04044,0.05249,0.0264,0.01053,-0.02258,-0.01984,0.01144,-0.00854,-0.02762,-0.02548,0.00397,-0.0502
6.8045,0.29694,-0.04288,-0.08652,-0.02136,-0.04456,0.06042,0.00305,0.00046,-0.02228,-0.02106,0.01312,-0.00854,-0.02457,-0.02457,0.00381,-0.07782
6.805,0.30319,-0.04028,-0.09583,-0.02075,-0.04501,0.03143,-0.00687,-0.00946,-0.02411,-0.02228,0.0148,-0.01022,-0.02182,-0.02075,0.00565,-0.09262
6.8055,0.31219,-0.04562,-0.09979,-0.01938,-0.0441,-0.02716,-0.0177,-0.0145,-0.02487,-0.02197,0.01617,-0.01373,-0.02426,-0.0177,0.00824,-0.09476
6.806,0.32379,-0.06668,-0.09369,-0.01587,-0.0441,-0.07889,-0.04166,-0.01205,-0.02197,-0.02213,0.01526,-0.01556,-0.03311,-0.01755,0.01236,-0.08865
6.8065,0.33966,-0.10345,-0.08118,-0.0116,-0.04395,-0.08957,-0.0705,-0.00336,-0.01846,-0.02106,0.01251,-0.01389,-0.04349,-0.01831,0.01495,-0.08621
6.807,0.35446,-0.14343,-0.06622,-0.00931,-0.04288,-0.06592,-0.08469,0.00671,-0.01328,-0.0206,0.01053,-0.00961,-0.04807,-0.01846,0.01541,-0.09521
6.8075,0.35797,-0.16891,-0.05508,-0.01114,-0.04166,-0.04684,-0.08194,0.0148,-0.01053,-0.02274,0.009,-0.00595,-0.04669,-0.01648,0.01266,-0.09872
6.808,0.35141,-0.1709,-0.06485,-0.01343,-0.04059,-0.05875,-0.08286,0.01968,-0.009,-0.02411,0.00717,-0.00397,-0.04166,-0.01648,0.00809,-0.07172
6.8085,0.35309,-0.15564,-0.11551,-0.01663,-0.03876,-0.0856,-0.11078,0.02167,-0.01114,-0.02335,0.00534,-0.00168,-0.03525,-0.01846,0.00275,-0.01297
6.809,0.37384,-0.13428,-0.20142,-0.01617,-0.03845,-0.0885,-0.16098,0.02228,-0.01312,-0.02335,0.0061,0.00137,-0.02823,-0.02014,0.00153,0.04349
6.8095,0.40298,-0.1152,-0.26794,-0.01556,-0.03677,-0.05585,-0.18463,0.02197,-0.01419,-0.02167,0.00763,0.00702,-0.02197,-0.01877,0.00656,0.05142
6.81,0.4187,-0.09232,-0.2562,-0.01343,-0.03403,-0.01633,-0.15121,0.02151,-0.01312,-0.02121,0.00931,0.01236,-0.01801,-0.01648,0.01236,0.00824
6.8105,0.40619,-0.06134,-0.16022,-0.00977,-0.03082,-0.00641,-0.09018,0.01907,-0.01114,-0.01984,0.00809,0.0148,-0.01526,-0.01617,0.01511,-0.03494
6.811,0.36987,-0.02396,-0.03265,-0.0061,-0.02884,-0.02457,-0.05127,0.01373,-0.01114,-0.01907,0.00458,0.0145,-0.01434,-0.0174,0.00992,-0.03204
6.8115,0.3273,0.01129,0.06088,-0.00565,-0.02869,-0.05066,-0.03021,0.00961,-0.01175,-0.01877,0.00122,0.01312,-0.01526,-0.01724,0.00366,-0.00046
6.812,0.29205,0.03998,0.10208,-0.009,-0.03006,-0.06088,0.01541,0.0119,-0.01144,-0.01923,-0.00061,0.01175,-0.01633,-0.01709,0.00397,0.0119
6.8125,0.26016,0.05829,0.1123,-0.01389,-0.02884,-0.05814,0.09537,0.01724,-0.00977,-0.01785,-0.00031,0.01144,-0.01617,-0.0177,0.01007,-0.01022
6.813,0.22812,0.0528,0.10986,-0.01862,-0.02701,-0.05112,0.15152,0.02029,-0.00839,-0.01633,0.00473,0.01022,-0.01678,-0.01953,0.01343,-0.03967
6.8135,0.19699,0.01831,0.09842,-0.02609,-0.02396,-0.047,0.13718,0.01694,-0.01205,-0.01556,0.00992,0.00763,-0.01678,-0.01862,0.01633,-0.05005
6.814,0.16647,-0.03784,0.07462,-0.03723,-0.02258,-0.04303,0.08118,0.01129,-0.02197,-0.01724,0.01312,0.00565,-0.01648,-0.01724,0.01663,-0.03891
6.8145,0.13107,-0.09171,0.04303,-0.04776,-0.02213,-0.04105,0.02533,0.00626,-0.02808,-0.0174,0.00931,0.00443,-0.01434,-0.01434,0.01755,-0.02335
6.815,0.09598,-0.12573,0.0177,-0.0499,-0.02151,-0.04379,-0.02289,-0.00092,-0.02823,-0.01419,0.00275,0.00305,-0.01312,-0.01343,0.01831,-0.0177
6.8155,0.07507,-0.1384,0.00824,-0.04288,-0.02197,-0.05386,-0.03922,-0.00961,-0.0264,-0.01083,-0.00565,0.00122,-0.01251,-0.01358,0.0177,-0.01175
6.816,0.07706,-0.13779,0.01587,-0.03555,-0.0206,-0.06378,0.02396,-0.01846,-0.0293,-0.01114,-0.01297,0.00076,-0.01312,-0.01282,0.01709,0.0029
6.8165,0.08606,-0.12817,0.02945,-0.03433,-0.01923,-0.06821,0.13596,-0.0264,-0.03662,-0.01144,-0.01907,0.00259,-0.0145,-0.01251,0.0177,0.01373
6.817,0.07156,-0.11215,0.03204,-0.03662,-0.0177,-0.06332,0.18585,-0.03708,-0.03998,-0.01114,-0.02243,0.00488,-0.01572,-0.01419,0.01862,0.00458
6.8175,0.02289,-0.09811,0.01633,-0.03555,-0.01801,-0.05112,0.13397,-0.05219,-0.03693,-0.01205,-0.02365,0.0058,-0.0174,-0.01648,0.02029,-0.02579
6.818,-0.03342,-0.08957,-0.00793,-0.02609,-0.01999,-0.0351,0.0589,-0.06226,-0.03189,-0.01099,-0.02487,0.0058,-0.01846,-0.01785,0.02045,-0.0621
6.8185,-0.07187,-0.08301,-0.03052,-0.01175,-0.02289,-0.01877,0.03632,-0.05814,-0.03296,-0.01007,-0.02762,0.00641,-0.01923,-0.01892,0.01816,-0.09018
6.819,-0.09476,-0.0708,-0.04623,0.00015,-0.0264,-0.00931,0.04303,-0.03952,-0.04044,-0.01251,-0.02914,0.0087,-0.01968,-0.01923,0.01663,-0.11154
6.8195,-0.11566,-0.0531,-0.05661,0.00854,-0.03235,-0.00656,0.03265,-0.0174,-0.04486,-0.01556,-0.02731,0.01114,-0.01923,-0.01923,0.01923,-0.12299
6.82,-0.13626,-0.03586,-0.05951,0.01541,-0.03891,-0.00351,0.01007,-0.00259,-0.03723,-0.01938,-0.02335,0.01389,-0.01938,-0.01862,0.02274,-0.11459
6.8205,-0.14893,-0.01617,-0.05219,0.02228,-0.04196,0.01114,0.00748,0.00046,-0.01953,-0.01923,-0.02167,0.01312,-0.01984,-0.01846,0.02594,-0.07767
6.821,-0.15396,0.01144,-0.02792,0.02655,-0.04105,0.03006,0.01923,-0.00244,-0.00031,-0.01831,-0.02182,0.01205,-0.01968,-0.01938,0.02136,-0.0238
6.8215,-0.15518,0.05081,0.0029,0.02411,-0.03967,0.0322,0.01862,-0.00839,0.00992,-0.0177,-0.01892,0.00992,-0.01862,-0.02197,0.01358,0.02029
6.822,-0.1593,0.0943,0.01083,0.01495,-0.03784,0.01266,0.00046,-0.01358,0.00717,-0.01617,-0.01358,0.009,-0.01678,-0.02289,0.01083,0.03204
6.8225,-0.16937,0.12726,-0.03357,0.0029,-0.03632,-0.00732,-0.01724,-0.01434,-0.00153,-0.01434,-0.00809,0.0061,-0.01724,-0.02365,0.01663,0.00122
6.823,-0.18814,0.13519,-0.12085,-0.00305,-0.03494,-0.0145,-0.02289,-0.00931,-0.0061,-0.01251,-0.00381,0.00259,-0.01877,-0.02426,0.02563,-0.07248
6.8235,-0.2095,0.11063,-0.20782,-0.00092,-0.03494,-0.02411,-0.02167,-0.00168,-0.00397,-0.01328,-0.00198,0.0,-0.02014,-0.02579,0.02991,-0.16678
6.824,-0.2211,0.05478,-0.27527,0.00458,-0.03448,-0.05646,-0.02609,0.00595,-0.00031,-0.01251,0.00046,0.00031,-0.02106,-0.02625,0.02975,-0.23575
6.8245,-0.21988,-0.0177,-0.35736,0.00702,-0.03143,-0.09338,-0.03647,0.00427,-0.00244,-0.01038,0.00183,0.00031,-0.02213,-0.02457,0.0351,-0.24506
6.825,-0.21576,-0.08255,-0.45471,0.00885,-0.02777,-0.10101,-0.04852,-0.01068,-0.00656,-0.00961,0.00046,-0.00046,-0.02243,-0.02182,0.04715,-0.21652
6.8255,-0.22034,-0.12115,-0.49591,0.01862,-0.02655,-0.0737,-0.05692,-0.03448,-0.01175,-0.00946,-0.00366,-0.00214,-0.02274,-0.02106,0.05615,-0.20126
6.826,-0.22949,-0.12756,-0.4303,0.03693,-0.0264,-0.03876,-0.0589,-0.05508,-0.01556,-0.01251,-0.009,-0.00183,-0.02319,-0.02121,0.04974,-0.21545
6.8265,-0.21729,-0.103,-0.28854,0.05661,-0.02838,-0.02319,-0.05707,-0.06531,-0.01694,-0.00854,-0.01358,0.00153,-0.0235,-0.0209,0.03387,-0.22446
6.827,-0.16083,-0.05417,-0.11932,0.07278,-0.02823,-0.03052,-0.05737,-0.06836,-0.01556,-0.0061,-0.01831,0.00565,-0.02426,-0.01953,0.01495,-0.18982
6.8275,-0.06912,-0.00671,0.06378,0.08728,-0.02899,-0.0473,-0.06027,-0.06821,-0.0119,-0.00656,-0.0238,0.00671,-0.02579,-0.01907,0.00168,-0.1062
6.828,0.02075,0.0116,0.24261,0.09033,-0.03067,-0.05661,-0.06073,-0.06714,-0.01328,-0.01068,-0.02991,0.00366,-0.02655,-0.01923,-0.00488,-0.00931
6.8285,0.08911,-0.00031,0.36896,0.06668,-0.03189,-0.05951,-0.05829,-0.06302,-0.02106,-0.02106,-0.03448,-0.00076,-0.02655,-0.02029,-0.00839,0.07156
6.829,0.14435,-0.01541,0.41489,0.02121,-0.0293,-0.06241,-0.05615,-0.05676,-0.0322,-0.03021,-0.03967,-0.00366,-0.02548,-0.02121,-0.01556,0.15579
6.8295,0.20294,-0.01068,0.40176,-0.02625,-0.02518,-0.06393,-0.056,-0.05081,-0.0383,-0.03738,-0.04486,-0.00275,-0.02441,-0.02045,-0.03067,0.25894
6.83,0.26993,0.01205,0.37338,-0.06836,-0.02243,-0.06058,-0.05768,-0.047,-0.03845,-0.0386,-0.04929,0.00031,-0.02487,-0.01953,-0.04837,0.31998
6.8305,0.3392,0.04166,0.34103,-0.11703,-0.0235,-0.04684,-0.05768,-0.04211,-0.03479,-0.03693,-0.05447,0.00458,-0.02487,-0.01968,-0.05981,0.25818
6.831,0.40787,0.06821,0.298,-0.18097,-0.02441,-0.02472,-0.05539,-0.03952,-0.0322,-0.03525,-0.05875,0.00839,-0.02396,-0.0206,-0.06195,0.09888
6.8315,0.47028,0.08408,0.24277,-0.24445,-0.02167,-0.00381,-0.05264,-0.03998,-0.03403,-0.03525,-0.06088,0.01205,-0.02197,-0.01968,-0.05371,-0.04181
6.832,0.52017,0.08667,0.18143,-0.28763,-0.0206,0.00961,-0.05157,-0.04089,-0.03876,-0.03647,-0.06027,0.01633,-0.02014,-0.01846,-0.04181,-0.09644
6.8325,0.55145,0.07446,0.11475,-0.31189,-0.0206,0.01648,-0.05096,-0.03967,-0.04303,-0.03586,-0.05905,0.01984,-0.02029,-0.01831,-0.03204,-0.09613
6.833,0.56641,0.05142,0.0444,-0.32211,-0.02274,0.02441,-0.04929,-0.03723,-0.0386,-0.03235,-0.05661,0.02106,-0.0209,-0.02045,-0.02716,-0.09872
6.8335,0.57114,0.02213,-0.01816,-0.29541,-0.02487,0.02502,-0.04852,-0.03754,-0.02747,-0.02625,-0.05341,0.01862,-0.02182,-0.02121,-0.02182,-0.10849
6.834,0.57266,-0.00626,-0.06012,-0.17746,-0.0267,0.00061,-0.04807,-0.04074,-0.01801,-0.0235,-0.04807,0.01282,-0.02213,-0.01968,-0.01144,-0.10254
6.8345,0.57541,-0.02365,-0.0769,0.03326,-0.03143,-0.0528,-0.04623,-0.04486,-0.01251,-0.02258,-0.04089,0.00793,-0.02243,-0.0177,0.00198,-0.07446
6.835,0.578,-0.02869,-0.08057,0.2356,-0.03693,-0.10986,-0.04364,-0.04944,-0.00687,-0.01938,-0.03525,0.0061,-0.02258,-0.0174,0.01297,-0.04501
6.8355,0.57251,-0.02808,-0.08301,0.30212,-0.03922,-0.13519,-0.04272,-0.05188,0.00031,-0.01785,-0.03204,0.00809,-0.02563,-0.01907,0.01694,-0.0293
6.836,0.55328,-0.03448,-0.09003,0.21332,-0.0354,-0.11703,-0.0444,-0.04944,0.00443,-0.01984,-0.03342,0.01114,-0.02792,-0.01999,0.01877,-0.02731
6.8365,0.52643,-0.04929,-0.09872,0.07797,-0.02945,-0.07553,-0.04745,-0.04471,0.00198,-0.02228,-0.03586,0.01205,-0.03036,-0.02014,0.02045,-0.03159
6.837,0.49988,-0.06607,-0.10345,0.00122,-0.02869,-0.0354,-0.04929,-0.04272,-0.00427,-0.02548,-0.03738,0.00931,-0.03098,-0.02045,0.02197,-0.03586
6.8375,0.48141,-0.08133,-0.10483,-0.01633,-0.0351,-0.01038,-0.0499,-0.04608,-0.00748,-0.02823,-0.03632,0.00595,-0.03098,-0.02182,0.02411,-0.03632
6.838,0.46875,-0.09659,-0.10239,-0.04547,-0.0441,0.00259,-0.0502,-0.04852,-0.00504,-0.03006,-0.03616,0.00458,-0.03174,-0.02197,0.02792,-0.03098
6.8385,0.45502,-0.10803,-0.09415,-0.12268,-0.05157,0.01572,-0.04974,-0.04456,-0.00076,-0.02792,-0.03799,0.00809,-0.03387,-0.02213,0.03235,-0.02548
6.839,0.43304,-0.11124,-0.07782,-0.19623,-0.05447,0.01404,-0.04898,-0.03677,0.00092,-0.0267,-0.03677,0.0119,-0.03586,-0.02258,0.03555,-0.0264
6.8395,0.40207,-0.10971,-0.05463,-0.17578,-0.05219,-0.03784,-0.04639,-0.03006,0.00076,-0.02594,-0.03281,0.01266,-0.0354,-0.02228,0.03357,-0.03647
6.84,0.36377,-0.11108,-0.02975,-0.05127,-0.04761,-0.14862,-0.04364,-0.02716,0.00198,-0.02792,-0.02594,0.00916,-0.03326,-0.02167,0.03418,-0.04959
6.8405,0.32074,-0.11658,-0.0087,0.07263,-0.04333,-0.26093,-0.0415,-0.0267,0.00519,-0.02884,-0.01984,0.00397,-0.03281,-0.02075,0.03616,-0.05722
6.841,0.27481,-0.11688,0.00626,0.11078,-0.04211,-0.29465,-0.03906,-0.02655,0.00763,-0.02792,-0.0148,0.0,-0.03265,-0.01953,0.04074,-0.05539
6.8415,0.22842,-0.10971,0.00839,0.10651,-0.04379,-0.22949,-0.03815,-0.03052,0.00641,-0.02579,-0.01083,-0.00198,-0.0322,-0.01831,0.04211,-0.0499
6.842,0.18417,-0.10223,-0.00366,0.159,-0.04593,-0.12909,-0.03723,-0.03708,0.00214,-0.0235,-0.00946,-0.00229,-0.03098,-0.01846,0.04425,-0.04807
6.8425,0.14511,-0.1004,-0.02563,0.29175,-0.04883,-0.06607,-0.03769,-0.04074,-0.00275,-0.02151,-0.00595,-0.00336,-0.0322,-0.01984,0.04395,-0.05463
6.843,0.10864,-0.09674,-0.04807,0.4306,-0.05112,-0.05676,-0.03799,-0.03632,-0.00519,-0.01831,-0.00412,-0.00763,-0.03342,-0.02045,0.03937,-0.06821
6.8435,0.07019,-0.08606,-0.06638,0.48523,-0.05188,-0.07462,-0.03479,-0.02594,-0.00259,-0.01617,-0.00183,-0.01343,-0.03479,-0.01862,0.02975,-0.07828
6.844,0.02762,-0.07294,-0.09583,0.41718,-0.05325,-0.09842,-0.02899,-0.01633,0.00092,-0.01572,0.00061,-0.01556,-0.03494,-0.01648,0.01999,-0.07431
6.8445,-0.01877,-0.06592,-0.15244,0.2713,-0.05371,-0.11566,-0.02319,-0.01083,0.00366,-0.01572,0.00366,-0.01251,-0.03479,-0.01587,0.01404,-0.05539
6.845,-0.06378,-0.06622,-0.21515,0.13535,-0.05402,-0.12192,-0.02029,-0.00671,0.00275,-0.01511,0.00549,-0.00717,-0.03616,-0.0174,0.00931,-0.03754
6.8455,-0.1059,-0.06943,-0.22842,0.05798,-0.05264,-0.12482,-0.02029,-0.00397,-0.00168,-0.01404,0.00351,-0.00107,-0.03769,-0.01877,0.00366,-0.03494
6.846,-0.14297,-0.06607,-0.16464,0.00916,-0.05157,-0.13687,-0.02151,-0.00015,-0.00732,-0.01129,0.00015,0.00763,-0.03815,-0.01923,0.00015,-0.04807
6.8465,-0.17532,-0.05463,-0.06561,-0.05844,-0.04868,-0.14771,-0.0209,0.00427,-0.01099,-0.01389,-0.00015,0.01785,-0.03784,-0.01923,-0.00031,-0.06546
6.847,-0.20477,-0.03586,0.00778,-0.14297,-0.04684,-0.13474,-0.01831,0.01038,-0.01099,-0.01114,0.00244,0.0235,-0.03693,-0.01968,-0.00366,-0.08484
6.8475,-0.23422,-0.01877,0.04349,-0.20554,-0.04608,-0.0975,-0.01617,0.01541,-0.00671,-0.009,0.00671,0.02106,-0.03601,-0.02167,-0.00671,-0.10605
6.848,-0.26016,-0.0177,0.06287,-0.23331,-0.04868,-0.0621,-0.01663,0.0177,-0.00443,-0.00519,0.01083,0.01556,-0.0351,-0.02289,-0.00946,-0.12878
6.8485,-0.27679,-0.03967,0.07675,-0.24841,-0.0473,-0.05051,-0.0177,0.01404,-0.00565,-0.00595,0.01556,0.01328,-0.03418,-0.02228,-0.00885,-0.14206
6.849,-0.28214,-0.06836,0.06958,-0.26794,-0.04227,-0.05585,-0.01953,0.00824,-0.00809,-0.00931,0.02045,0.01617,-0.03418,-0.02197,-0.0087,-0.13535
6.8495,-0.28198,-0.08118,0.03616,-0.29007,-0.03433,-0.05707,-0.02151,0.00305,-0.00748,-0.0119,0.02228,0.0206,-0.03479,-0.02136,-0.01053,-0.11566
6.85,-0.28412,-0.07233,-0.01144,-0.30396,-0.03006,-0.04776,-0.02304,0.00046,-0.00381,-0.01129,0.02197,0.01907,-0.0351,-0.02151,-0.0116,-0.09552
6.8505,-0.28854,-0.05783,-0.05844,-0.2951,-0.03067,-0.03586,-0.02319,-0.00168,-0.00092,-0.01221,0.02121,0.01114,-0.0351,-0.02136,-0.01007,-0.08484
6.851,-0.29175,-0.05325,-0.10544,-0.25055,-0.03265,-0.02838,-0.0238,-0.00183,0.00153,-0.01587,0.02777,0.00336,-0.03403,-0.02136,-0.00839,-0.08316
6.8515,-0.30624,-0.05829,-0.15091,-0.17685,-0.03433,-0.0238,-0.02319,0.0,0.00168,-0.01999,0.04501,0.00061,-0.03387,-0.02029,-0.00809,-0.0856
6.852,-0.37766,-0.05966,-0.17471,-0.10315,-0.03311,-0.02029,-0.02258,0.0029,-0.00183,-0.01968,0.06683,0.00183,-0.03555,-0.02029,-0.00336,-0.08163
6.8525,-0.5249,-0.05035,-0.15579,-0.05692,-0.02869,-0.01404,-0.01999,0.00549,-0.00946,-0.01816,0.07355,0.00259,-0.03616,-0.02029,0.0087,-0.06561
6.853,-0.62454,-0.03815,-0.09842,-0.03891,-0.02396,-0.00534,-0.01724,0.00702,-0.02121,-0.0148,0.05615,0.00336,-0.0351,-0.01984,0.02014,-0.03693
6.8535,-0.52765,-0.03128,-0.03677,-0.02716,-0.02151,0.00046,-0.01511,0.00824,-0.02884,-0.01419,0.0267,0.00595,-0.0322,-0.01984,0.02029,-0.00687
6.854,-0.32608,-0.02777,0.00885,0.00168,-0.02151,-0.00046,-0.01434,0.01007,-0.0293,-0.01526,0.00519,0.00977,-0.02991,-0.01984,0.00977,0.00946
6.8545,-0.26184,-0.02396,0.0415,0.05295,-0.02213,-0.00839,-0.01297,0.01266,-0.02533,-0.01633,-0.00397,0.01251,-0.02899,-0.01999,-0.00412,0.00687
6.855,-0.38712,-0.01923,0.07187,0.1001,-0.02274,-0.0177,-0.01114,0.01556,-0.02197,-0.01724,-0.00992,0.01251,-0.02853,-0.01999,-0.02045,-0.01495
6.8555,-0.54779,-0.01495,0.09308,0.09766,-0.02197,-0.02518,-0.00824,0.01892,-0.0235,-0.01648,-0.01678,0.01083,-0.02762,-0.01999,-0.04578,-0.05783
6.856,-0.65155,-0.01099,0.09674,0.0322,-0.02075,-0.03021,-0.00656,0.02029,-0.02731,-0.01801,-0.02274,0.01144,-0.02625,-0.02106,-0.08667,-0.12451
6.8565,-0.75851,-0.01251,0.08179,-0.04486,-0.02045,-0.03494,-0.00504,0.0206,-0.03265,-0.0209,-0.02686,0.0119,-0.02731,-0.02365,-0.11658,-0.19409
6.857,-0.9314,-0.02701,0.05722,-0.07935,-0.01923,-0.0386,-0.0032,0.02106,-0.04044,-0.02426,-0.02792,0.00809,-0.03021,-0.02625,-0.09094,-0.22018
6.8575,-1.11252,-0.05539,0.03265,-0.07675,-0.01556,-0.0386,-0.00168,0.02335,-0.04608,-0.02777,-0.02686,0.00076,-0.03235,-0.02472,-0.01724,-0.16449
6.858,-1.18576,-0.08347,0.01266,-0.08331,-0.01205,-0.03601,-0.00198,0.02563,-0.04715,-0.03036,-0.02197,-0.00412,-0.0322,-0.02136,0.04181,-0.05341
6.8585,-1.13068,-0.08698,-0.00336,-0.11154,-0.00961,-0.03647,-0.00366,0.0264,-0.04333,-0.03052,-0.01572,-0.00412,-0.03113,-0.01923,0.04669,0.03006
6.859,-1.03958,-0.06104,-0.01709,-0.12787,-0.01221,-0.04196,-0.00595,0.02579,-0.03616,-0.02701,-0.01022,-0.00275,-0.03143,-0.01892,0.02151,0.03693
6.8595,-0.99792,-0.02838,-0.02808,-0.11261,-0.01572,-0.04974,-0.00687,0.02533,-0.0296,-0.02457,-0.00748,-0.00397,-0.03235,-0.01816,0.0087,0.00153
6.86,-1.01761,-0.01297,-0.03784,-0.08789,-0.01968,-0.05539,-0.00717,0.02441,-0.02502,-0.02518,-0.00595,-0.00702,-0.03296,-0.01816,0.01236,-0.01633
6.8605,-1.05637,-0.01434,-0.04822,-0.07263,-0.02213,-0.05463,-0.00778,0.02213,-0.02426,-0.0264,-0.00259,-0.01022,-0.03204,-0.01877,0.01434,-0.00549
6.861,-1.07742,-0.01999,-0.06607,-0.04044,-0.02319,-0.04562,-0.00839,0.01938,-0.02441,-0.03113,0.00031,-0.01297,-0.03113,-0.01999,0.00992,0.00778
6.8615,-1.07559,-0.02151,-0.09094,0.05173,-0.02502,-0.02502,-0.00824,0.01602,-0.02243,-0.0354,0.00092,-0.01312,-0.03052,-0.02029,0.00992,0.00732
6.862,-1.06613,-0.02106,-0.11063,0.18616,-0.02625,0.00488,-0.00671,0.01373,-0.01801,-0.03738,-0.00137,-0.01373,-0.0293,-0.01877,0.01617,0.00427
6.8625,-1.05728,-0.02365,-0.11871,0.27374,-0.02838,0.03403,-0.00687,0.01419,-0.01083,-0.03784,-0.00107,-0.01343,-0.02594,-0.01846,0.02304,0.00626
6.863,-1.04401,-0.03006,-0.11536,0.25436,-0.03174,0.04532,-0.00824,0.01602,-0.00397,-0.03326,0.00076,-0.01236,-0.02319,-0.01572,0.0264,0.01083
6.8635,-1.03409,-0.03677,-0.10696,0.16891,-0.03448,0.03143,-0.00778,0.02014,0.00122,-0.03571,0.00076,-0.0119,-0.02197,-0.01419,0.02548,0.00977
6.864,-1.02753,-0.03906,-0.09918,0.1059,-0.03494,0.00458,-0.00549,0.02701,0.00366,-0.03571,-0.00366,-0.01144,-0.02319,-0.01419,0.0238,0.00381
6.8645,-0.98999,-0.03845,-0.09277,0.09293,-0.03357,-0.01373,-0.00366,0.03342,0.00595,-0.02991,-0.01205,-0.01129,-0.02548,-0.01526,0.02411,-0.00336
6.865,-0.89401,-0.03754,-0.0853,0.08911,-0.0325,-0.01862,-0.00458,0.03693,0.00809,-0.02808,-0.02151,-0.01099,-0.0293,-0.01648,0.02563,-0.00763
6.8655,-0.77057,-0.04028,-0.07614,0.05157,-0.03098,-0.02243,-0.0058,0.03738,0.01038,-0.02899,-0.02823,-0.0119,-0.03311,-0.01755,0.02457,-0.00839
6.866,-0.68069,-0.04913,-0.06607,-0.02167,-0.02869,-0.03433,-0.00488,0.03571,0.01022,-0.02533,-0.03082,-0.0119,-0.0351,-0.01678,0.01801,-0.00565
6.8665,-0.63965,-0.06119,-0.05661,-0.1001,-0.02533,-0.05234,-0.00259,0.03418,0.00961,-0.02213,-0.03006,-0.01175,-0.03403,-0.01389,0.0116,-0.00061
6.867,-0.61646,-0.07294,-0.04822,-0.13535,-0.02487,-0.06592,0.00015,0.03403,0.00931,-0.01816,-0.02975,-0.01099,-0.0322,-0.01266,0.00992,0.00443
6.8675,-0.58853,-0.09064,-0.04105,-0.09796,-0.02975,-0.06699,0.00259,0.03479,0.00732,-0.01144,-0.03159,-0.0119,-0.03098,-0.01282,0.01175,0.00687
6.868,-0.55893,-0.1268,-0.03586,-0.01068,-0.03494,-0.05783,0.00381,0.0354,0.00656,-0.01312,-0.03571,-0.01312,-0.03128,-0.01404,0.01083,0.00336
6.8685,-0.52475,-0.17822,-0.03311,0.0827,-0.03677,-0.05249,0.00443,0.03418,0.00519,-0.00854,-0.0386,-0.01343,-0.03235,-0.01617,0.0058,-0.00565
6.869,-0.47424,-0.20584,-0.03281,0.15991,-0.03601,-0.07156,0.00641,0.0293,0.00259,-0.00626,-0.03708,-0.00854,-0.03342,-0.0177,0.00031,-0.01907
6.8695,-0.41046,-0.17792,-0.03708,0.21072,-0.03555,-0.10742,0.00687,0.02045,0.00031,-0.00381,-0.03372,-0.00168,-0.03387,-0.01663,-0.00183,-0.03067
6.87,-0.35736,-0.10727,-0.04135,0.20493,-0.03662,-0.11795,0.0058,0.0116,-0.00137,-0.00031,-0.03265,0.00351,-0.03311,-0.0145,-0.00168,-0.03616
6.8705,-0.33005,-0.03418,-0.04303,0.13016,-0.03815,-0.07187,0.00259,0.00656,-0.00153,0.00458,-0.03281,0.00244,-0.03235,-0.01221,0.00336,-0.03601
6.871,-0.31509,0.01862,-0.04288,0.03006,-0.0415,0.00488,0.00137,0.00793,-0.00107,0.0058,-0.03342,-0.00214,-0.0325,-0.01205,0.01007,-0.02884
6.8715,-0.29373,0.05295,-0.05356,-0.03189,-0.04562,0.05798,0.00076,0.01312,0.00076,0.00549,-0.0325,-0.00336,-0.03311,-0.01404,0.01923,-0.0148
6.872,-0.26001,0.06943,-0.08606,-0.03479,-0.05112,0.065,0.0,0.01678,-0.00031,-0.00275,-0.02914,-0.00076,-0.03555,-0.01556,0.02991,0.00092
6.8725,-0.21973,0.06454,-0.12848,-0.01038,-0.05646,0.04684,-0.00336,0.01968,-0.00381,-0.0061,-0.02518,0.00153,-0.0383,-0.01709,0.03433,0.00809
6.873,-0.17746,0.04196,-0.15457,0.0,-0.06256,0.02777,-0.00656,0.02121,-0.00488,-0.00961,-0.0206,0.00229,-0.04089,-0.01663,0.02121,-0.00656
6.8735,-0.13641,0.01633,-0.1503,-0.02747,-0.06668,0.01205,-0.00763,0.02258,-0.00381,-0.00931,-0.01526,0.00122,-0.04135,-0.0174,-0.00656,-0.04242
6.874,-0.09659,0.0,-0.12802,-0.10849,-0.06363,-0.01297,-0.0061,0.02258,-0.00275,-0.0087,-0.00809,0.00107,-0.04059,-0.01877,-0.03052,-0.08163
6.8745,-0.05768,-0.00961,-0.10681,-0.24628,-0.05463,-0.05341,-0.00534,0.02045,-0.00351,-0.00824,0.00046,0.00076,-0.03891,-0.01923,-0.03326,-0.0975
6.875,-0.02289,-0.01831,-0.08926,-0.39703,-0.04684,-0.09003,-0.00656,0.01282,-0.00534,-0.01007,0.00717,0.00061,-0.03937,-0.01953,-0.01816,-0.08408
6.8755,0.00229,-0.02792,-0.06607,-0.48416,-0.04288,-0.1004,-0.009,0.00275,-0.00687,-0.00458,0.00854,0.00107,-0.04181,-0.01892,-0.0029,-0.06027
6.876,0.02014,-0.03952,-0.03418,-0.47501,-0.04211,-0.08835,-0.01083,-0.00427,-0.00763,-0.0061,0.00702,0.0029,-0.04333,-0.01862,-0.00031,-0.04593
6.8765,0.03983,-0.05356,-0.00427,-0.40421,-0.04181,-0.07919,-0.01236,-0.00519,-0.00977,0.00076,0.00549,0.00427,-0.04303,-0.01938,-0.00214,-0.0444
6.877,0.0705,-0.06851,0.01083,-0.31113,-0.0444,-0.08316,-0.01099,-0.00031,-0.01251,0.0058,0.00412,0.00519,-0.04318,-0.02075,-0.00198,-0.04562
6.8775,0.10483,-0.07675,0.00977,-0.18021,-0.04852,-0.08865,-0.00824,0.00687,-0.01633,0.00519,0.00275,0.00519,-0.04379,-0.02274,0.0,-0.04639
6.878,0.12848,-0.08423,0.00137,0.04486,-0.05066,-0.08545,-0.00351,0.01053,-0.01877,0.00458,0.00046,0.00488,-0.04623,-0.02502,-0.00076,-0.04639
6.8785,0.13992,-0.10132,-0.0061,0.32791,-0.04974,-0.07065,-0.00107,0.00641,-0.0206,0.00336,-0.00427,0.0058,-0.04898,-0.02823,-0.00198,-0.04562
6.879,0.15274,-0.12085,-0.01389,0.48584,-0.04425,-0.04761,-0.00153,-0.00275,-0.02411,0.00122,-0.01022,0.00778,-0.05219,-0.02991,-0.00107,-0.04349
6.8795,0.177,-0.12344,-0.01831,0.37231,-0.03799,-0.0235,-0.00305,-0.00977,-0.02869,-0.00137,-0.01297,0.00946,-0.05219,-0.02838,0.00031,-0.04059
6.88,0.20828,-0.10056,-0.01984,0.09415,-0.03433,-0.01144,-0.00534,-0.01144,-0.03174,-0.00305,-0.01343,0.01007,-0.04959,-0.0264,0.00153,-0.03708
6.8805,0.23529,-0.06348,-0.0235,-0.09552,-0.03265,-0.01892,-0.00732,-0.00946,-0.03281,-0.00504,-0.01328,0.00931,-0.04593,-0.02655,0.00107,-0.03372
6.881,0.24231,-0.02411,-0.03342,-0.09506,-0.03235,-0.04395,-0.01022,-0.00702,-0.03235,-0.009,-0.01648,0.00885,-0.04456,-0.02747,0.00198,-0.02838
6.8815,0.22049,0.00671,-0.04166,-0.01526,-0.03357,-0.0676,-0.01297,-0.00595,-0.03082,-0.00885,-0.02213,0.00763,-0.04395,-0.0267,0.00412,-0.02335
6.882,0.18738,0.02197,-0.04578,0.02136,-0.03403,-0.07355,-0.01511,-0.00565,-0.02823,-0.01266,-0.02533,0.00793,-0.04074,-0.02228,0.00458,-0.01938
6.8825,0.16525,0.0206,-0.047,0.00977,-0.03311,-0.0589,-0.01617,-0.00717,-0.02518,-0.01297,-0.02686,0.01221,-0.03464,-0.01724,0.00748,-0.01511
6.883,0.15518,0.01022,-0.05219,-0.00305,-0.03143,-0.03967,-0.01556,-0.00824,-0.02106,-0.01205,-0.02777,0.02029,-0.02808,-0.01373,0.01068,-0.01144
6.8835,0.13794,-0.00168,-0.05966,-0.00183,-0.02914,-0.03342,-0.01434,-0.00732,-0.01846,-0.01541,-0.02975,0.02945,-0.02579,-0.0116,0.01297,-0.00961
6.884,0.11063,-0.01175,-0.065,0.00427,-0.0293,-0.04028,-0.01312,-0.00229,-0.01755,-0.01724,-0.03067,0.03357,-0.02579,-0.01007,0.01297,-0.01068
6.8845,0.09247,-0.01938,-0.06622,0.01221,-0.03128,-0.05234,-0.01175,0.00488,-0.01877,-0.02121,-0.03189,0.02869,-0.02609,-0.00839,0.01129,-0.01495
6.885,0.0946,-0.02243,-0.06516,0.02151,-0.03189,-0.06592,-0.00854,0.01038,-0.01877,-0.02625,-0.03464,0.01816,-0.02838,-0.00656,0.00977,-0.01968
6.8855,0.10635,-0.02213,-0.06073,0.02914,-0.03067,-0.08255,-0.00656,0.01144,-0.02121,-0.02747,-0.03891,0.00778,-0.03342,-0.0058,0.00824,-0.02502
6.886,0.10742,-0.01999,-0.05646,0.03113,-0.02533,-0.09476,-0.00641,0.01038,-0.02426,-0.0293,-0.04227,0.00015,-0.03525,-0.00626,0.00778,-0.03098
6.8865,0.09003,-0.02106,-0.05676,0.03006,-0.02167,-0.09201,-0.0087,0.01099,-0.0267,-0.02899,-0.04364,-0.00961,-0.03311,-0.00732,0.00748,-0.03601
6.887,0.06042,-0.02823,-0.05707,0.02975,-0.02045,-0.07416,-0.00992,0.01236,-0.02792,-0.03159,-0.04303,-0.0235,-0.03159,-0.00763,0.00931,-0.03891
6.8875,0.03143,-0.0415,-0.05432,0.02899,-0.02151,-0.05264,-0.00793,0.01205,-0.02625,-0.03067,-0.03983,-0.03967,-0.03326,-0.00732,0.01007,-0.03983
6.888,0.01038,-0.05844,-0.04929,0.02792,-0.02228,-0.03998,-0.00397,0.01144,-0.02411,-0.02945,-0.03601,-0.05417,-0.03754,-0.00824,0.00809,-0.04059
6.8885,-0.00046,-0.07553,-0.04395,0.02747,-0.02304,-0.03677,-0.00229,0.01083,-0.02304,-0.02777,-0.03281,-0.0679,-0.04013,-0.01129,0.00443,-0.04379
6.889,-0.01205,-0.08713,-0.03372,0.0267,-0.02411,-0.03159,-0.0058,0.00961,-0.02594,-0.02548,-0.02975,-0.07904,-0.04013,-0.01328,0.0029,-0.04593
6.8895,-0.03632,-0.08545,-0.02167,0.02396,-0.0264,-0.02197,-0.01282,0.0087,-0.02655,-0.02228,-0.02625,-0.07416,-0.03876,-0.01343,0.0032,-0.04333
6.89,-0.07248,-0.0708,-0.01892,0.01953,-0.02731,-0.01953,-0.01923,0.00839,-0.02411,-0.02136,-0.02365,-0.04883,-0.03525,-0.01144,0.00565,-0.03799
6.8905,-0.10239,-0.05264,-0.0383,0.01617,-0.02823,-0.03159,-0.02213,0.00824,-0.01984,-0.0177,-0.02365,-0.01633,-0.03036,-0.01114,0.00793,-0.0351
6.891,-0.11459,-0.03967,-0.08179,0.01434,-0.02716,-0.05096,-0.01678,0.00824,-0.01709,-0.01343,-0.02762,0.00717,-0.02594,-0.0116,0.0087,-0.03403
6.8915,-0.11993,-0.03357,-0.12421,0.01205,-0.02518,-0.06027,-0.0058,0.00763,-0.01831,-0.01205,-0.03143,0.01526,-0.0235,-0.01297,0.00931,-0.03387
6.892,-0.13306,-0.02975,-0.13885,0.009,-0.0235,-0.05585,0.00336,0.0061,-0.01953,-0.01358,-0.03342,0.00748,-0.02258,-0.01404,0.01038,-0.03082
6.8925,-0.15305,-0.0296,-0.12207,0.0061,-0.02304,-0.04745,-0.00214,0.0061,-0.01892,-0.01251,-0.03387,-0.0209,-0.02197,-0.01633,0.01175,-0.02899
6.893,-0.17029,-0.04105,-0.08774,0.0029,-0.02396,-0.04501,-0.0293,0.00671,-0.01617,-0.01251,-0.03601,-0.06439,-0.02197,-0.02075,0.01251,-0.03036
6.8935,-0.17883,-0.06058,-0.04333,0.00015,-0.02533,-0.04776,-0.07233,0.00702,-0.01419,-0.01129,-0.03952,-0.09491,-0.02472,-0.02563,0.01328,-0.03128
6.894,-0.17929,-0.06897,0.01007,-0.00015,-0.02701,-0.0499,-0.11398,0.00565,-0.01419,-0.01404,-0.04211,-0.08469,-0.02884,-0.03006,0.01556,-0.03128
6.8945,-0.17578,-0.05402,0.06653,0.00015,-0.02563,-0.05234,-0.13321,0.00244,-0.0119,-0.01633,-0.04242,-0.04196,-0.03586,-0.03418,0.01663,-0.0322
6.895,-0.17929,-0.02274,0.10712,0.0,-0.02396,-0.05569,-0.1268,0.00061,-0.00854,-0.01709,-0.0412,-0.00534,-0.04379,-0.03738,0.01495,-0.03387
6.8955,-0.20172,0.00595,0.12527,0.0,-0.02121,-0.06149,-0.11063,0.00031,-0.00793,-0.0209,-0.03952,0.00397,-0.04868,-0.04028,0.01205,-0.03708
6.896,-0.23972,0.01907,0.12482,0.00397,-0.01968,-0.0676,-0.10117,-0.00076,-0.01404,-0.0209,-0.03815,-0.00519,-0.04669,-0.04135,0.00977,-0.04074
6.8965,-0.27679,0.0177,0.10269,0.01251,-0.01907,-0.07095,-0.0975,-0.00473,-0.02319,-0.02304,-0.03784,-0.0235,-0.04013,-0.0412,0.00885,-0.04486
6.897,-0.30334,0.00549,0.04181,0.02777,-0.01862,-0.06912,-0.07553,-0.00916,-0.03036,-0.02518,-0.03784,-0.04608,-0.03571,-0.04196,0.0087,-0.04837
6.8975,-0.32242,-0.01251,-0.0528,0.04669,-0.01999,-0.06729,-0.00778,-0.0087,-0.03082,-0.02396,-0.03677,-0.04974,-0.03555,-0.04166,0.0087,-0.04883
6.898,-0.33813,-0.02594,-0.11536,0.04974,-0.02136,-0.06622,0.09232,-0.00504,-0.02548,-0.02151,-0.03372,-0.00366,-0.03555,-0.03952,0.01129,-0.047
6.8985,-0.34851,-0.02777,-0.09781,0.01114,-0.02335,-0.06042,0.16388,-0.00153,-0.0206,-0.02274,-0.02991,0.06607,-0.03281,-0.03555,0.01389,-0.04639
6.899,-0.35507,-0.02762,-0.04028,-0.06485,-0.02304,-0.04196,0.16479,-0.00153,-0.02258,-0.02426,-0.02701,0.08179,-0.03082,-0.03128,0.01495,-0.04578
6.8995,-0.36148,-0.03708,-0.0293,-0.15442,-0.02319,-0.01312,0.12955,-0.00351,-0.03113,-0.02319,-0.02487,0.02274,-0.03143,-0.0267,0.01434,-0.04349
6.9,-0.36621,-0.05478,-0.07736,-0.24872,-0.02319,0.00916,0.1123,-0.00198,-0.03723,-0.02228,-0.02487,-0.03479,-0.03387,-0.02197,0.01343,-0.0412
6.9005,-0.36835,-0.06943,-0.11139,-0.33417,-0.02563,0.01099,0.10391,0.0032,-0.0325,-0.02075,-0.02594,-0.00717,-0.03403,-0.01923,0.0119,-0.04089
6.901,-0.37338,-0.08087,-0.08011,-0.33752,-0.02838,0.00214,0.06958,0.00992,-0.01846,-0.02289,-0.02472,0.11368,-0.03357,-0.01617,0.01297,-0.04333
6.9015,-0.3894,-0.09903,-0.01511,-0.17075,-0.03098,-0.00031,0.02472,0.01556,-0.00534,-0.02487,-0.01999,0.25513,-0.03342,-0.01389,0.01495,-0.04532
6.902,-0.41382,-0.11826,0.02594,0.13779,-0.03281,0.00275,0.00916,0.01907,-0.00153,-0.02518,-0.01511,0.32303,-0.03479,-0.01328,0.01419,-0.04684
6.9025,-0.43533,-0.12009,0.03082,0.39749,-0.03128,-0.0029,0.01434,0.02014,-0.00641,-0.02411,-0.01389,0.27481,-0.03555,-0.01343,0.01266,-0.04745
6.903,-0.44464,-0.08774,0.01389,0.42557,-0.02853,-0.00931,0.01343,0.01984,-0.01328,-0.02518,-0.0177,0.1413,-0.03418,-0.01465,0.01144,-0.04837
6.9035,-0.44998,-0.03189,-0.01389,0.24155,-0.02625,0.00473,0.00443,0.01694,-0.01602,-0.03052,-0.02319,-0.01907,-0.03311,-0.01556,0.0119,-0.04745
6.904,-0.46051,0.02213,-0.03799,0.0679,-0.02731,0.04105,0.00153,0.00977,-0.01221,-0.03799,-0.02533,-0.15152,-0.03494,-0.01572,0.01282,-0.04684
6.9045,-0.46951,0.05997,-0.03784,0.08636,-0.0293,0.05951,0.00244,0.00076,-0.00702,-0.04486,-0.02487,-0.19577,-0.03738,-0.01465,0.01175,-0.04745
6.905,-0.46234,0.08224,-0.0058,0.22888,-0.03067,0.0235,-0.00198,-0.00717,-0.00381,-0.04791,-0.02762,-0.11948,-0.03708,-0.01419,0.01205,-0.04959
6.9055,-0.43106,0.0914,0.03555,0.29266,-0.03128,-0.05371,-0.0119,-0.01358,-0.00214,-0.04745,-0.03769,0.0174,-0.03586,-0.01556,0.00946,-0.05051
6.906,-0.38239,0.08621,0.07202,0.21774,-0.03265,-0.11826,-0.01938,-0.02167,-0.00015,-0.04517,-0.0502,0.10315,-0.03494,-0.01678,0.01068,-0.0502
6.9065,-0.32745,0.06622,0.103,0.11108,-0.03372,-0.15091,-0.02441,-0.03067,0.00061,-0.04501,-0.05905,0.10376,-0.03677,-0.01724,0.01038,-0.05081
6.907,-0.27451,0.03937,0.12772,0.04913,-0.03479,-0.16815,-0.0296,-0.03983,0.00244,-0.04578,-0.05936,0.0795,-0.03738,-0.01572,0.00916,-0.05005
6.9075,-0.22293,0.0145,0.12756,0.00015,-0.03372,-0.17685,-0.0354,-0.04654,0.00122,-0.04471,-0.05768,0.07935,-0.03738,-0.01343,0.01007,-0.04929
6.908,-0.16937,-0.00305,0.09262,-0.06241,-0.03403,-0.16281,-0.03769,-0.04929,-0.00488,-0.0415,-0.05539,0.08362,-0.03632,-0.01221,0.01205,-0.04944
6.9085,-0.11398,-0.01801,0.04318,-0.09628,-0.03616,-0.12878,-0.03784,-0.04639,-0.01709,-0.03311,-0.05508,0.06104,-0.03586,-0.0119,0.01282,-0.05096
6.909,-0.06042,-0.03387,0.01114,-0.08331,-0.03754,-0.09491,-0.03769,-0.03662,-0.03006,-0.02167,-0.05539,0.01511,-0.03479,-0.0119,0.01114,-0.05112
6.9095,-0.01221,-0.04669,-0.00244,-0.0737,-0.03677,-0.07065,-0.03769,-0.02426,-0.03876,-0.0087,-0.05386,-0.02899,-0.03296,-0.01221,0.01099,-0.05096
6.91,0.02975,-0.04959,-0.01877,-0.11047,-0.03418,-0.05234,-0.03693,-0.01404,-0.04532,0.00443,-0.05386,-0.05951,-0.03235,-0.01282,0.0116,-0.04883
6.9105,0.06317,-0.04456,-0.05371,-0.17502,-0.03464,-0.03448,-0.03769,-0.00931,-0.05264,0.01434,-0.05692,-0.0769,-0.03342,-0.01175,0.01221,-0.0473
6.911,0.0885,-0.04105,-0.09109,-0.21744,-0.03571,-0.01953,-0.03845,-0.00885,-0.06287,0.02045,-0.0621,-0.08408,-0.03311,-0.01038,0.01221,-0.04837
6.9115,0.11093,-0.04257,-0.11688,-0.21423,-0.0351,-0.01343,-0.03876,-0.01175,-0.07019,0.02213,-0.06622,-0.0856,-0.03265,-0.01083,0.01129,-0.04868
6.912,0.13062,-0.04562,-0.13214,-0.18143,-0.03174,-0.02686,-0.03845,-0.0174,-0.07065,0.0177,-0.0676,-0.08377,-0.03281,-0.01312,0.01175,-0.04868
6.9125,0.14603,-0.04471,-0.14648,-0.15045,-0.03021,-0.06012,-0.03983,-0.02487,-0.06607,0.01175,-0.06699,-0.07858,-0.03372,-0.01343,0.0116,-0.0473
6.913,0.15549,-0.04333,-0.1535,-0.13855,-0.03021,-0.08438,-0.04105,-0.03143,-0.05783,0.00748,-0.06622,-0.06882,-0.03418,-0.01205,0.01266,-0.04578
6.9135,0.16281,-0.04578,-0.13947,-0.13779,-0.03006,-0.07065,-0.04013,-0.03403,-0.04669,0.00137,-0.06607,-0.05295,-0.03311,-0.0119,0.0148,-0.04425
6.914,0.17334,-0.05341,-0.11597,-0.13031,-0.02823,-0.02502,-0.03891,-0.0354,-0.03632,-0.00748,-0.0647,-0.04135,-0.03265,-0.01404,0.01617,-0.03952
6.9145,0.18631,-0.06409,-0.11383,-0.10925,-0.02808,0.01541,-0.03906,-0.03967,-0.02625,-0.01282,-0.06149,-0.04364,-0.03235,-0.01617,0.01434,-0.03098
6.915,0.2002,-0.07935,-0.14069,-0.08163,-0.0322,0.02762,-0.04013,-0.04776,-0.0174,-0.01694,-0.05722,-0.05203,-0.03265,-0.01648,0.01587,-0.02014
6.9155,0.21317,-0.10559,-0.1564,-0.05524,-0.04059,0.02121,-0.03891,-0.05447,-0.0061,-0.01785,-0.05417,-0.03769,-0.0325,-0.01556,0.01572,-0.01205
6.916,0.2269,-0.1442,-0.11948,-0.02213,-0.04654,0.01266,-0.03738,-0.0592,0.00443,-0.01694,-0.05341,0.01053,-0.03296,-0.01541,0.01572,-0.009
6.9165,0.24445,-0.17746,-0.04318,0.03464,-0.04578,-0.0087,-0.03754,-0.06119,0.01099,-0.01892,-0.05325,0.065,-0.03311,-0.01648,0.01663,-0.01205
6.917,0.26443,-0.18372,0.02106,0.11215,-0.03998,-0.05646,-0.03922,-0.05859,0.01068,-0.02258,-0.05371,0.07523,-0.0325,-0.01678,0.01556,-0.01984
6.9175,0.28259,-0.1532,0.0563,0.18616,-0.03387,-0.11765,-0.03876,-0.04913,0.00702,-0.02426,-0.05524,0.02792,-0.02975,-0.01648,0.01617,-0.03174
6.918,0.29373,-0.10178,0.07278,0.23865,-0.02975,-0.15671,-0.03677,-0.0354,0.00107,-0.02518,-0.05676,-0.0444,-0.02701,-0.01694,0.01587,-0.0473
6.9185,0.3006,-0.05508,0.08698,0.26703,-0.02731,-0.16144,-0.03235,-0.02258,-0.00076,-0.02548,-0.05463,-0.10452,-0.02472,-0.01785,0.01511,-0.06638
6.919,0.30838,-0.02182,0.09247,0.25665,-0.02808,-0.15274,-0.0296,-0.01495,-0.00076,-0.02518,-0.05005,-0.13657,-0.02441,-0.01755,0.01358,-0.08789
6.9195,0.3183,0.00381,0.08209,0.18829,-0.02914,-0.15747,-0.02853,-0.01007,0.00046,-0.02487,-0.04471,-0.13474,-0.02518,-0.01602,0.01175,-0.10178
6.92,0.32745,0.02243,0.05981,0.08621,-0.02701,-0.1651,-0.02731,-0.00488,0.00153,-0.02365,-0.04166,-0.08652,-0.02563,-0.01495,0.01404,-0.1004
6.9205,0.33524,0.02075,0.03922,0.02029,-0.02289,-0.14236,-0.02289,0.00198,0.00305,-0.02228,-0.04028,0.01526,-0.02563,-0.01404,0.01434,-0.08591
6.921,0.34225,-0.00931,0.0322,0.03494,-0.01816,-0.08591,-0.01831,0.00977,0.00549,-0.02304,-0.03754,0.14297,-0.02701,-0.01419,0.01389,-0.06714
6.9215,0.34882,-0.05081,0.03754,0.07324,-0.01556,-0.03021,-0.01434,0.01587,0.00687,-0.02274,-0.03372,0.21896,-0.02808,-0.0145,0.01389,-0.0502
6.922,0.35446,-0.07797,0.04089,0.03967,-0.01755,-0.00504,-0.0145,0.01907,0.00763,-0.02289,-0.03159,0.18402,-0.02914,-0.01373,0.01358,-0.03723
6.9225,0.36453,-0.07935,0.02518,-0.06683,-0.02243,-0.00229,-0.01678,0.01785,0.00839,-0.02365,-0.02975,0.06683,-0.02914,-0.01389,0.01343,-0.0293
6.923,0.383,-0.07156,-0.00931,-0.17151,-0.02808,0.00107,-0.01709,0.01373,0.00931,-0.0235,-0.02655,-0.04181,-0.03098,-0.01511,0.01007,-0.02579
6.9235,0.40634,-0.0769,-0.04837,-0.26093,-0.0293,0.0119,-0.01572,0.00595,0.00778,-0.02411,-0.02289,-0.09186,-0.03464,-0.01572,0.00809,-0.02853
6.924,0.43198,-0.09369,-0.08194,-0.39642,-0.02884,0.02045,-0.01602,-0.00198,0.00305,-0.0235,-0.0206,-0.09827,-0.03723,-0.01663,0.00809,-0.03586
6.9245,0.45792,-0.10101,-0.12192,-0.57739,-0.02777,0.01923,-0.0174,-0.00977,-0.00031,-0.02289,-0.01953,-0.08774,-0.03769,-0.01633,0.00793,-0.04684
6.925,0.48157,-0.08652,-0.18311,-0.70419,-0.02625,0.00732,-0.01801,-0.01526,-0.00381,-0.02243,-0.01938,-0.06424,-0.0351,-0.01541,0.00732,-0.05707
6.9255,0.49805,-0.06454,-0.24353,-0.70175,-0.02396,-0.01068,-0.0174,-0.01907,-0.00641,-0.02243,-0.01953,-0.02655,-0.03326,-0.01465,0.00687,-0.06714
6.926,0.50476,-0.06165,-0.24521,-0.59708,-0.02182,-0.03113,-0.01801,-0.02289,-0.00854,-0.02274,-0.01938,0.00885,-0.03281,-0.01404,0.00671,-0.08041
6.9265,0.50705,-0.07843,-0.16525,-0.42221,-0.02335,-0.05478,-0.01968,-0.02472,-0.01129,-0.02182,-0.0177,0.02563,-0.03387,-0.01373,0.00748,-0.09384
6.927,0.51392,-0.09613,-0.05722,-0.13031,-0.02701,-0.08286,-0.0206,-0.02319,-0.01572,-0.02151,-0.01434,0.02533,-0.03342,-0.01434,0.00854,-0.09735
6.9275,0.52826,-0.0943,0.01266,0.29633,-0.02731,-0.10712,-0.01694,-0.01633,-0.02045,-0.02029,-0.01175,0.01968,-0.03189,-0.01602,0.00946,-0.08591
6.928,0.54871,-0.07446,0.03815,0.68741,-0.02487,-0.10422,-0.0116,-0.00549,-0.02625,-0.0174,-0.0119,0.01556,-0.03128,-0.01709,0.01114,-0.06866
6.9285,0.57144,-0.04623,0.04837,0.76309,-0.02197,-0.06668,-0.01007,0.00458,-0.03113,-0.01572,-0.01419,0.01404,-0.03036,-0.01709,0.0119,-0.05844
6.929,0.5925,-0.01877,0.05554,0.45456,-0.01984,-0.01648,-0.01007,0.00916,-0.03326,-0.01511,-0.01663,0.0145,-0.02808,-0.01678,0.01205,-0.06271
6.9295,0.60303,0.00366,0.04578,0.04623,-0.01968,0.01663,-0.01053,0.00839,-0.02975,-0.01602,-0.01663,0.01404,-0.02625,-0.01663,0.01175,-0.07187
6.93,0.59875,0.01877,0.01419,-0.12863,-0.02213,0.02365,-0.01038,0.00885,-0.0209,-0.01678,-0.01526,0.009,-0.0238,-0.01755,0.00977,-0.07538
6.9305,0.58426,0.0264,-0.02716,-0.04517,-0.02625,0.01312,-0.009,0.00763,-0.0116,-0.01678,-0.01312,0.0029,-0.0235,-0.01709,0.00854,-0.06729
6.931,0.56854,0.02838,-0.06149,0.08728,-0.02731,-0.01526,-0.00854,0.00778,-0.00504,-0.01541,-0.0119,-0.00198,-0.02396,-0.01724,0.00793,-0.05112
6.9315,0.55603,0.02548,-0.07614,0.12558,-0.02823,-0.06363,-0.009,0.00748,-0.00229,-0.01495,-0.00931,-0.0032,-0.02518,-0.01846,0.00839,-0.03357
6.932,0.54047,0.01831,-0.07645,0.07965,-0.03128,-0.11124,-0.00931,0.00931,-0.00122,-0.01526,-0.00687,0.00031,-0.02792,-0.0206,0.01007,-0.0174
6.9325,0.52597,0.01022,-0.07034,-0.00793,-0.03693,-0.12314,-0.00885,0.01068,0.0,-0.0174,-0.00458,0.00671,-0.03159,-0.02228,0.01053,-0.00916
6.933,0.52048,0.00687,-0.06607,-0.10818,-0.04349,-0.10345,-0.00671,0.009,-0.00031,-0.01755,-0.0029,0.0087,-0.03387,-0.02274,0.01007,-0.01816
6.9335,0.52505,0.00854,-0.05951,-0.16068,-0.0473,-0.09277,-0.00565,0.00671,-0.00427,-0.01663,-0.0032,0.0,-0.03479,-0.02182,0.00885,-0.03876
6.934,0.52719,0.00748,-0.04959,-0.10925,-0.04837,-0.10971,-0.00626,0.0058,-0.00916,-0.01678,-0.00412,-0.01923,-0.03387,-0.02014,0.00854,-0.04807
6.9345,0.51636,-0.00046,-0.03998,0.01297,-0.04761,-0.12558,-0.00839,0.00076,-0.01312,-0.01846,-0.00519,-0.04242,-0.03387,-0.01938,0.00824,-0.03967
6.935,0.49652,-0.01373,-0.03967,0.11078,-0.04639,-0.10941,-0.01114,-0.0061,-0.02029,-0.0206,-0.00748,-0.05829,-0.03464,-0.01862,0.00992,-0.03845
6.9355,0.47729,-0.02121,-0.04623,0.12466,-0.04349,-0.0708,-0.01373,-0.01221,-0.03067,-0.02075,-0.01083,-0.05783,-0.0351,-0.02029,0.00854,-0.07401
6.936,0.46051,-0.02197,-0.04959,0.0647,-0.03769,-0.03357,-0.01511,-0.01328,-0.04242,-0.02167,-0.01297,-0.047,-0.03525,-0.0209,0.00885,-0.14633
6.9365,0.44418,-0.02563,-0.04608,-0.04532,-0.03265,-0.00854,-0.01343,-0.00702,-0.04868,-0.02243,-0.01297,-0.03937,-0.03387,-0.02228,0.00916,-0.22583
6.937,0.42801,-0.04028,-0.04272,-0.1889,-0.02777,-0.00305,-0.00977,0.00183,-0.0499,-0.02365,-0.01022,-0.04471,-0.03372,-0.02304,0.01083,-0.28366
6.9375,0.4129,-0.06561,-0.04227,-0.33493,-0.02502,-0.0267,-0.00534,0.00793,-0.0444,-0.02457,-0.01007,-0.05341,-0.03555,-0.02411,0.01343,-0.29846
6.938,0.39352,-0.08743,-0.04425,-0.42862,-0.0235,-0.06836,-0.00214,0.00809,-0.0351,-0.02533,-0.0116,-0.05402,-0.03677,-0.02472,0.01572,-0.22919
6.9385,0.36636,-0.09369,-0.04181,-0.40619,-0.02319,-0.10025,-0.00137,0.00504,-0.02487,-0.02579,-0.01373,-0.04623,-0.03555,-0.02441,0.01678,-0.04517
6.939,0.336,-0.08316,-0.03967,-0.24963,-0.02502,-0.10452,-0.00153,-0.00031,-0.01526,-0.02518,-0.01541,-0.03906,-0.03418,-0.0238,0.01541,0.1741
6.9395,0.31036,-0.06699,-0.0386,-0.03922,-0.02686,-0.08774,-0.0029,-0.00168,-0.00839,-0.02457,-0.0148,-0.02853,-0.03357,-0.02289,0.01282,0.26581
6.94,0.29022,-0.05203,-0.03754,0.09857,-0.02563,-0.07187,-0.00565,-0.00275,-0.00641,-0.0235,-0.01175,0.00427,-0.03281,-0.02243,0.009,0.17181
6.9405,0.27039,-0.04349,-0.03677,0.13855,-0.02518,-0.06454,-0.009,-0.00153,-0.00778,-0.02167,-0.009,0.06378,-0.03036,-0.02167,0.00229,0.03845
6.941,0.24857,-0.04608,-0.03143,0.16785,-0.02533,-0.05569,-0.01129,0.00198,-0.01236,-0.01984,-0.00656,0.12024,-0.02792,-0.02029,-0.00458,0.03479
6.9415,0.2272,-0.06561,-0.02167,0.21774,-0.02502,-0.03235,-0.0116,0.00534,-0.0177,-0.01953,-0.00412,0.13489,-0.02487,-0.01984,-0.00778,0.14145
6.942,0.2095,-0.09155,-0.01266,0.20676,-0.02258,0.0029,-0.01099,0.00534,-0.02106,-0.01968,-0.00153,0.1062,-0.02518,-0.01923,-0.00641,0.20844
6.9425,0.19669,-0.09705,-0.01068,0.09186,-0.01938,0.0325,-0.01068,0.00076,-0.02106,-0.01923,0.00031,0.06332,-0.02747,-0.01999,-0.00458,0.16617
6.943,0.18448,-0.07111,-0.01541,-0.04211,-0.01816,0.04288,-0.0119,-0.00198,-0.01938,-0.01877,0.0029,0.03128,-0.02975,-0.02075,-0.00244,0.08484
6.9435,0.16891,-0.03113,-0.02319,-0.08835,-0.02167,0.04074,-0.01221,-0.00122,-0.01999,-0.01785,0.00702,0.01694,-0.02975,-0.0206,-0.00092,0.03647
6.944,0.15152,0.00259,-0.02808,-0.03662,-0.02579,0.0383,-0.01419,0.00168,-0.0209,-0.01816,0.01114,0.01831,-0.02899,-0.02045,-0.00137,0.00595
6.9445,0.13733,0.02457,-0.0325,0.04639,-0.02563,0.04257,-0.01617,0.00198,-0.02197,-0.01892,0.01144,0.02975,-0.0296,-0.01862,-0.0032,-0.05219
6.945,0.12726,0.03723,-0.03723,0.10437,-0.02228,0.04715,-0.01846,-0.00244,-0.02335,-0.01678,0.00931,0.04745,-0.03113,-0.01648,-0.00107,-0.13977
6.9455,0.1178,0.03296,-0.04166,0.12817,-0.02075,0.04303,-0.0209,-0.00854,-0.0238,-0.01572,0.00732,0.06485,-0.03235,-0.01526,0.01053,-0.21973
6.946,0.10422,0.00488,-0.04715,0.13565,-0.02655,0.02258,-0.02243,-0.01373,-0.02396,-0.01511,0.00641,0.07355,-0.03326,-0.01556,0.02274,-0.24796
6.9465,0.08682,-0.03571,-0.05386,0.13519,-0.03448,-0.01404,-0.02167,-0.0145,-0.02243,-0.01495,0.00748,0.0676,-0.03372,-0.01633,0.02655,-0.19272
6.947,0.06927,-0.0647,-0.06241,0.12634,-0.04196,-0.05478,-0.01877,-0.00961,-0.01892,-0.01511,0.00916,0.04837,-0.03342,-0.01633,0.02151,-0.05997
6.9475,0.05371,-0.07446,-0.07065,0.11139,-0.04501,-0.08301,-0.01572,0.00031,-0.01526,-0.01617,0.01114,0.02609,-0.03433,-0.01556,0.01389,0.07568
6.948,0.03937,-0.07263,-0.07843,0.0972,-0.04898,-0.0885,-0.01205,0.00931,-0.0116,-0.01633,0.01419,0.00839,-0.03525,-0.01617,0.00763,0.12115
6.9485,0.02686,-0.06775,-0.08438,0.08575,-0.05417,-0.08026,-0.00946,0.0148,-0.01038,-0.01648,0.01373,-0.00366,-0.03555,-0.0177,0.0032,0.07034
6.949,0.0177,-0.05676,-0.08224,0.07751,-0.05829,-0.07156,-0.00916,0.01648,-0.01251,-0.01709,0.00961,-0.00946,-0.03738,-0.01862,0.00107,0.00885
6.9495,0.00916,-0.0386,-0.07065,0.07294,-0.05737,-0.06348,-0.01007,0.0174,-0.01587,-0.01694,0.00671,-0.00977,-0.04059,-0.01984,0.00168,0.0058
6.95,0.0,-0.02228,-0.05707,0.06744,-0.05219,-0.0499,-0.00977,0.0209,-0.01678,-0.01617,0.00641,-0.009,-0.04181,-0.02106,0.00397,0.03693
6.9505,-0.01022,-0.01373,-0.04913,0.05325,-0.04669,-0.0325,-0.00916,0.02396,-0.01404,-0.0174,0.00732,-0.01923,-0.04211,-0.02182,0.00443,0.04593
6.951,-0.02121,-0.01312,-0.04776,0.02808,-0.0441,-0.02075,-0.00916,0.02289,-0.01099,-0.01816,0.00717,-0.04044,-0.04166,-0.02151,0.00305,0.01556
6.9515,-0.0325,-0.01328,-0.04074,-0.00015,-0.04379,-0.01724,-0.00946,0.0174,-0.01358,-0.01892,0.00549,-0.05463,-0.04059,-0.02213,0.00381,-0.02853
6.952,-0.04288,-0.01236,-0.02609,-0.01892,-0.04333,-0.01694,-0.00961,0.0119,-0.01892,-0.01953,0.00412,-0.05096,-0.04044,-0.02151,0.00626,-0.05753
6.9525,-0.05249,-0.01419,-0.00763,-0.02426,-0.04303,-0.01617,-0.01099,0.00946,-0.01999,-0.0209,0.00275,-0.03998,-0.04044,-0.0209,0.00809,-0.0679
6.953,-0.0589,-0.02014,0.00809,-0.0174,-0.04242,-0.01801,-0.01266,0.00824,-0.01541,-0.02106,0.00198,-0.04105,-0.03998,-0.02197,0.00885,-0.07217
6.9535,-0.06088,-0.02792,0.0206,-0.00366,-0.04227,-0.02914,-0.01266,0.00443,-0.01129,-0.02121,0.00198,-0.0528,-0.03891,-0.02487,0.00778,-0.07324
6.954,-0.06012,-0.03296,0.02975,0.00763,-0.04288,-0.05569,-0.01083,0.00183,-0.00992,-0.0209,0.00214,-0.06378,-0.03845,-0.02747,0.0058,-0.06912
6.9545,-0.06058,-0.03342,0.03632,0.00885,-0.04517,-0.09247,-0.00961,0.00183,-0.01236,-0.0206,0.00275,-0.07614,-0.03693,-0.0264,0.0029,-0.05966
6.955,-0.06454,-0.03174,0.04211,0.00092,-0.04791,-0.11597,-0.00961,0.00504,-0.01541,-0.02014,0.00275,-0.10544,-0.03433,-0.02258,-0.00061,-0.05356
6.9555,-0.07156,-0.03281,0.04654,-0.01205,-0.047,-0.10986,-0.01083,0.00748,-0.01678,-0.01984,0.00244,-0.14587,-0.0322,-0.01892,-0.0032,-0.05585
6.956,-0.07629,-0.03998,0.0444,-0.02441,-0.04242,-0.08469,-0.01434,0.00351,-0.01709,-0.01938,0.00122,-0.17014,-0.03082,-0.01678,-0.00305,-0.06165
6.9565,-0.0795,-0.05783,0.0145,-0.03143,-0.03632,-0.06332,-0.01785,-0.00458,-0.01709,-0.01846,0.00259,-0.15671,-0.03021,-0.01419,-0.00031,-0.06439
6.957,-0.08331,-0.08911,-0.0563,-0.02991,-0.03418,-0.05875,-0.01816,-0.01282,-0.01709,-0.01678,0.00427,-0.11383,-0.02853,-0.01251,0.00229,-0.06378
6.9575,-0.08713,-0.1265,-0.14542,-0.02182,-0.0351,-0.06256,-0.01495,-0.01389,-0.01755,-0.01633,0.00565,-0.06149,-0.02747,-0.01282,0.00412,-0.06332
6.958,-0.09048,-0.15167,-0.19623,-0.01205,-0.03494,-0.06485,-0.01175,-0.01007,-0.01801,-0.01755,0.00336,-0.0116,-0.02823,-0.01404,0.00488,-0.06424
6.9585,-0.09567,-0.15045,-0.18158,-0.00687,-0.03448,-0.06363,-0.01038,-0.00671,-0.01877,-0.01831,0.00076,0.02701,-0.03098,-0.01694,0.00549,-0.06622
6.959,-0.10391,-0.12787,-0.13153,-0.00488,-0.03479,-0.06256,-0.01083,-0.00671,-0.01846,-0.01877,-0.00107,0.03403,-0.03464,-0.01801,0.00641,-0.06683
6.9595,-0.11337,-0.09842,-0.09079,-0.00381,-0.03464,-0.06271,-0.01205,-0.00793,-0.0177,-0.01846,-0.00183,-0.00122,-0.03754,-0.01923,0.00656,-0.06393
6.96,-0.11795,-0.07065,-0.06393,-0.00122,-0.03296,-0.06363,-0.01236,-0.00656,-0.01846,-0.01831,-0.00183,-0.03357,-0.04074,-0.01999,0.00839,-0.06027
6.9605,-0.11612,-0.05325,-0.03326,-0.00137,-0.03189,-0.06454,-0.01129,-0.00427,-0.02045,-0.01938,-0.0029,0.02197,-0.04303,-0.02182,0.01007,-0.0589
6.961,-0.10574,-0.04379,0.00809,-0.01007,-0.03082,-0.06393,-0.01068,-0.00519,-0.02106,-0.01923,-0.00305,0.1741,-0.0444,-0.02365,0.01068,-0.06058
6.9615,-0.09033,-0.03281,0.04379,-0.03098,-0.03098,-0.0621,-0.01175,-0.01221,-0.0209,-0.01801,-0.00259,0.29404,-0.04288,-0.02411,0.01114,-0.06393
6.962,-0.07614,-0.01419,0.06119,-0.05447,-0.02975,-0.05951,-0.01556,-0.02274,-0.01877,-0.01801,-0.00046,0.25238,-0.03952,-0.02472,0.009,-0.06775
6.9625,-0.06973,0.00275,0.06149,-0.065,-0.02777,-0.05676,-0.01953,-0.02731,-0.01556,-0.01907,0.00153,0.09079,-0.03799,-0.02457,0.00565,-0.07019
6.963,-0.06729,0.00427,0.05539,-0.05844,-0.02625,-0.0528,-0.02045,-0.02197,-0.01358,-0.01938,0.00336,-0.0351,-0.03799,-0.02441,0.00504,-0.06897
6.9635,-0.06485,-0.00656,0.05066,-0.04623,-0.0264,-0.04852,-0.01755,-0.01205,-0.01099,-0.01724,0.00443,-0.04929,-0.03784,-0.02396,0.00504,-0.06287
6.964,-0.06042,-0.01434,0.04822,-0.03815,-0.02731,-0.04059,-0.01373,-0.00778,-0.00885,-0.01648,0.00397,-0.00076,-0.03662,-0.02167,0.00702,-0.05814
6.9645,-0.05646,-0.01236,0.04654,-0.0354,-0.02777,-0.03082,-0.01282,-0.00992,-0.00778,-0.0174,0.00092,0.03952,-0.03433,-0.01923,0.00778,-0.05997
6.965,-0.05051,-0.00336,0.03632,-0.03632,-0.02609,-0.01724,-0.01587,-0.01724,-0.00824,-0.01907,-0.00519,0.0531,-0.03464,-0.01801,0.00732,-0.06409
6.9655,-0.03784,0.00595,0.01511,-0.03754,-0.02167,-0.00641,-0.02151,-0.02258,-0.009,-0.02029,-0.01404,0.04791,-0.03601,-0.01968,0.00641,-0.06531
6.966,-0.02625,0.00854,-0.01266,-0.03021,-0.01663,-0.00534,-0.02335,-0.02106,-0.00763,-0.02228,-0.02518,0.02777,-0.03647,-0.02151,0.00687,-0.06271
6.9665,-0.02701,0.00153,-0.0351,-0.01297,-0.01434,-0.01328,-0.02045,-0.01297,-0.00534,-0.02121,-0.03555,0.00458,-0.03555,-0.01999,0.0087,-0.05951
6.967,-0.04501,-0.01266,-0.04715,0.00687,-0.01465,-0.02243,-0.0145,-0.00214,-0.00305,-0.01953,-0.04105,-0.01236,-0.03494,-0.01663,0.0116,-0.05524
6.9675,-0.07034,-0.02686,-0.04868,0.01724,-0.01617,-0.02792,-0.01114,0.00351,-0.00168,-0.01907,-0.03983,-0.02884,-0.03418,-0.01221,0.01312,-0.04837
6.968,-0.08713,-0.03616,-0.04608,0.00641,-0.0177,-0.0296,-0.01221,0.00427,-0.00198,-0.01846,-0.03571,-0.06027,-0.03265,-0.00992,0.01434,-0.03891
6.9685,-0.08392,-0.04166,-0.04654,-0.02228,-0.02029,-0.03296,-0.01419,-0.00198,-0.00488,-0.01816,-0.03265,-0.09583,-0.03128,-0.01129,0.01556,-0.03189
6.969,-0.065,-0.04761,-0.05371,-0.0531,-0.02335,-0.03784,-0.01633,-0.00839,-0.00946,-0.01801,-0.03098,-0.10925,-0.02884,-0.0145,0.01419,-0.03021
6.9695,-0.04578,-0.05417,-0.0618,-0.06439,-0.0267,-0.04456,-0.01633,-0.01175,-0.01556,-0.01724,-0.02853,-0.09003,-0.02945,-0.01678,0.01221,-0.03296
6.97,-0.0386,-0.05585,-0.06653,-0.05173,-0.02884,-0.05264,-0.01389,-0.01099,-0.01953,-0.01541,-0.02731,-0.04837,-0.03098,-0.01907,0.00748,-0.03525
6.9705,-0.04639,-0.04837,-0.06531,-0.02808,-0.03113,-0.06424,-0.01007,-0.00595,-0.01877,-0.01465,-0.02625,0.00107,-0.03464,-0.02197,0.00015,-0.03372
6.971,-0.05814,-0.04013,-0.05737,-0.01205,-0.03387,-0.07751,-0.01022,0.0,-0.01434,-0.0145,-0.02274,0.05219,-0.03632,-0.02365,-0.00549,-0.03159
6.9715,-0.06485,-0.04379,-0.04654,-0.00763,-0.03525,-0.08652,-0.01282,0.00443,-0.01114,-0.01434,-0.01663,0.09125,-0.0354,-0.02243,-0.00519,-0.03662
6.972,-0.06378,-0.06195,-0.03769,-0.00885,-0.03616,-0.08347,-0.01587,0.00443,-0.01266,-0.01434,-0.01144,0.09674,-0.03326,-0.02029,-0.00046,-0.04471
6.9725,-0.05829,-0.08377,-0.03326,-0.01099,-0.03586,-0.07156,-0.01633,0.00336,-0.01495,-0.01465,-0.00992,0.06317,-0.03006,-0.01999,0.00473,-0.03265
6.973,-0.05524,-0.09232,-0.03494,-0.01297,-0.03723,-0.05737,-0.01526,0.00168,-0.01465,-0.01495,-0.00961,0.0145,-0.02869,-0.01999,0.00839,0.01205
6.9735,-0.05463,-0.08148,-0.0412,-0.0119,-0.03983,-0.04761,-0.01587,0.00061,-0.01343,-0.01526,-0.00839,-0.01511,-0.02991,-0.02045,0.01022,0.0589
6.974,-0.0528,-0.05707,-0.04837,-0.00275,-0.04349,-0.04135,-0.01785,0.00015,-0.01236,-0.01556,-0.00732,-0.0061,-0.03174,-0.02151,0.00977,0.0592
6.9745,-0.04517,-0.03342,-0.05325,0.00565,-0.04532,-0.03525,-0.01678,0.00031,-0.01312,-0.01633,-0.00702,0.03174,-0.02991,-0.02258,0.00641,0.00504
6.975,-0.03403,-0.01923,-0.0589,0.00153,-0.04471,-0.0296,-0.01282,0.00031,-0.01358,-0.01633,-0.00565,0.05768,-0.02808,-0.02243,0.00107,-0.06165
6.9755,-0.02411,-0.01755,-0.065,-0.01495,-0.04318,-0.02808,-0.00885,-0.00214,-0.01328,-0.01862,-0.00412,0.03967,-0.02762,-0.02167,-0.00031,-0.11475
6.976,-0.01801,-0.02518,-0.06836,-0.03342,-0.04257,-0.02731,-0.00778,-0.00687,-0.01419,-0.01816,-0.00381,-0.00397,-0.0296,-0.02014,0.0032,-0.16098
6.9765,-0.01495,-0.03967,-0.06531,-0.04395,-0.04196,-0.0145,-0.00916,-0.01266,-0.0174,-0.01709,-0.0029,-0.02914,-0.02853,-0.0174,0.00824,-0.19379
6.977,-0.01053,-0.0618,-0.0618,-0.04913,-0.04257,0.01541,-0.01236,-0.01587,-0.02045,-0.0174,-0.00153,-0.02151,-0.02518,-0.01343,0.00992,-0.18845
6.9775,-0.00763,-0.08713,-0.07477,-0.05203,-0.04333,0.0441,-0.01312,-0.01404,-0.0206,-0.01709,-0.00198,-0.00397,-0.02335,-0.0119,0.00839,-0.15778
6.978,-0.00854,-0.10071,-0.11505,-0.04959,-0.04135,0.05173,-0.01312,-0.00885,-0.0177,-0.01785,-0.00259,0.00748,-0.02487,-0.01312,0.0061,-0.14816
6.9785,-0.01389,-0.09552,-0.17105,-0.04135,-0.03708,0.02777,-0.0148,-0.00534,-0.01419,-0.01755,-0.0032,0.01785,-0.03036,-0.01511,0.00793,-0.15701
6.979,-0.0177,-0.08453,-0.20905,-0.02838,-0.03433,-0.03464,-0.01816,-0.00183,-0.01144,-0.01694,-0.00137,0.03113,-0.03281,-0.01465,0.01251,-0.12756
6.9795,-0.01831,-0.08224,-0.20508,-0.01144,-0.03372,-0.12253,-0.02106,-0.00061,-0.00885,-0.01587,0.00198,0.04074,-0.03128,-0.01114,0.01648,-0.05356
6.98,-0.01587,-0.08392,-0.16129,0.00702,-0.03418,-0.186,-0.0235,-0.00061,-0.00702,-0.01541,0.00519,0.0444,-0.02777,-0.00946,0.01572,-0.00183
6.9805,-0.01526,-0.0737,-0.09232,0.01999,-0.0322,-0.1857,-0.02396,-0.00229,-0.00595,-0.01526,0.00671,0.047,-0.0264,-0.01114,0.01053,-0.00671
6.981,-0.01465,-0.05234,-0.0145,0.0206,-0.02655,-0.13901,-0.0235,-0.00381,-0.00397,-0.01648,0.0061,0.04593,-0.02563,-0.01266,0.0061,-0.02518
6.9815,-0.0148,-0.03281,0.05402,0.01251,-0.02045,-0.09842,-0.02289,-0.00229,-0.0032,-0.01755,0.00595,0.0322,-0.0264,-0.0119,0.00549,-0.00931
6.982,-0.01541,-0.02106,0.08423,0.0029,-0.01678,-0.0827,-0.02441,-0.00046,-0.00443,-0.01755,0.00763,0.00916,-0.02792,-0.01068,0.00732,0.02747
6.9825,-0.01831,-0.01022,0.05615,-0.00366,-0.0174,-0.07584,-0.02563,-0.00015,-0.009,-0.01816,0.00809,-0.0119,-0.02899,-0.01266,0.00961,0.04288
6.983,-0.02533,0.00305,-0.00412,-0.00961,-0.01862,-0.06653,-0.02579,-0.00198,-0.01648,-0.01724,0.00656,-0.02609,-0.02991,-0.01648,0.01114,0.01434
6.9835,-0.03693,0.0174,-0.03769,-0.01495,-0.02258,-0.0589,-0.02548,-0.00443,-0.02335,-0.01709,0.00412,-0.03632,-0.03128,-0.0206,0.0119,-0.03754
6.984,-0.04868,0.02823,-0.0145,-0.01907,-0.02502,-0.05768,-0.02731,-0.0058,-0.02808,-0.01663,0.0032,-0.0441,-0.03174,-0.02396,0.01053,-0.06378
6.9845,-0.05737,0.03479,0.03372,-0.02106,-0.02625,-0.05737,-0.03464,-0.00626,-0.02808,-0.01648,0.00671,-0.056,-0.0322,-0.02533,0.009,-0.04669
6.985,-0.06424,0.03708,0.06332,-0.02365,-0.0267,-0.04944,-0.04578,-0.00916,-0.02335,-0.01724,0.01053,-0.06851,-0.03403,-0.02518,0.00977,-0.01297
6.9855,-0.06912,0.02548,0.06073,-0.02914,-0.02899,-0.03784,-0.05661,-0.01266,-0.01297,-0.01785,0.01144,-0.0705,-0.03586,-0.02426,0.01328,0.00717
6.986,-0.07065,-0.00412,0.03006,-0.0354,-0.0325,-0.03128,-0.05615,-0.01358,-0.00214,-0.01816,0.00977,-0.0415,-0.03662,-0.0235,0.01541,0.01236
6.9865,-0.06897,-0.04318,-0.01572,-0.03845,-0.03433,-0.02975,-0.03876,-0.0119,0.00595,-0.0177,0.00854,0.02365,-0.03677,-0.02365,0.01266,0.01266
6.987,-0.0676,-0.06866,-0.05829,-0.0351,-0.03632,-0.02441,-0.00763,-0.00717,0.01022,-0.01862,0.00992,0.09293,-0.03647,-0.02502,0.00656,0.00641
6.9875,-0.06943,-0.07187,-0.07339,-0.02838,-0.03677,-0.01068,0.02609,-0.00351,0.01221,-0.01862,0.01083,0.12482,-0.03647,-0.02579,-0.00046,-0.00717
6.988,-0.07248,-0.06256,-0.05798,-0.0238,-0.03647,0.00397,0.05081,-0.00229,0.01358,-0.01984,0.00763,0.10956,-0.03601,-0.02533,-0.00687,-0.00946
6.9885,-0.07263,-0.05112,-0.02609,-0.02228,-0.03494,0.00183,0.06012,-0.00168,0.01343,-0.0206,0.00351,0.0737,-0.03571,-0.02441,-0.00946,0.01694
6.989,-0.06805,-0.03601,0.0087,-0.01984,-0.03296,-0.01862,0.05234,-0.00122,0.01099,-0.02029,-0.00092,0.047,-0.03555,-0.0238,-0.00656,0.06378
6.9895,-0.06104,-0.01663,0.04028,-0.01434,-0.03082,-0.03723,0.0296,-0.00015,0.0061,-0.01801,-0.00229,0.03159,-0.03464,-0.0238,0.00046,0.09888
6.99,-0.05493,-0.00031,0.06332,-0.00824,-0.0293,-0.03342,-0.00305,0.00046,0.00122,-0.01801,-0.00229,0.02258,-0.03387,-0.02289,0.00641,0.09598
6.9905,-0.04852,0.00626,0.06851,-0.00412,-0.0296,-0.01633,-0.03967,0.00183,-0.00504,-0.01846,-0.00107,0.01511,-0.03479,-0.01953,0.01022,0.04944
6.991,-0.03922,0.00565,0.05249,-0.00336,-0.02991,-0.01297,-0.06577,0.00305,-0.01282,-0.02045,-0.00076,0.01221,-0.03525,-0.01465,0.01678,-0.04044
6.9915,-0.02945,0.00107,0.02243,-0.00443,-0.02869,-0.03479,-0.06439,0.00336,-0.01877,-0.02213,-0.00137,0.01038,-0.03448,-0.01114,0.02609,-0.15839
6.992,-0.02426,-0.0061,-0.0087,-0.00397,-0.03082,-0.06577,-0.03464,0.00183,-0.02213,-0.02411,-0.0029,0.00748,-0.03326,-0.01129,0.02869,-0.2504
6.9925,-0.02808,-0.01541,-0.03189,-0.00183,-0.03204,-0.08621,-0.00595,0.00137,-0.02319,-0.02716,-0.00214,0.00259,-0.0325,-0.01358,0.0206,-0.25833
6.993,-0.03387,-0.0235,-0.04868,0.00366,-0.03311,-0.09277,-0.00687,0.00107,-0.02319,-0.03067,-0.00015,-0.00168,-0.0322,-0.01541,0.00839,-0.18433
6.9935,-0.03601,-0.02991,-0.0563,0.0087,-0.03113,-0.09262,-0.03326,0.0,-0.0235,-0.03265,-0.00046,-0.00244,-0.03204,-0.01602,0.00137,-0.09644
6.994,-0.03082,-0.03403,-0.04959,0.00809,-0.02731,-0.0885,-0.05768,-0.00336,-0.02335,-0.03082,-0.00458,-0.00214,-0.03174,-0.01633,0.00046,-0.05325
6.9945,-0.02457,-0.03967,-0.02792,-0.00046,-0.02518,-0.07721,-0.06134,-0.00626,-0.02243,-0.02899,-0.00687,-0.00504,-0.03098,-0.01709,0.00168,-0.05447
6.995,-0.02396,-0.05997,-0.00015,-0.01099,-0.02686,-0.06317,-0.04013,-0.00534,-0.02121,-0.0264,-0.00458,-0.01038,-0.03052,-0.0177,0.00443,-0.06714
6.9955,-0.02792,-0.10391,0.02136,-0.01831,-0.02899,-0.05173,-0.00122,-0.00092,-0.02167,-0.02487,-0.00122,-0.01526,-0.03067,-0.01938,0.0061,-0.05478
6.996,-0.03311,-0.15579,0.02884,-0.02609,-0.03082,-0.04822,0.03357,0.00381,-0.02335,-0.02487,-0.00122,-0.01678,-0.03052,-0.02182,0.00656,-0.00641
6.9965,-0.03693,-0.18066,0.02396,-0.03738,-0.03174,-0.05127,0.04395,0.00534,-0.02487,-0.02441,-0.00443,-0.01526,-0.0296,-0.0235,0.00519,0.04288
6.997,-0.0412,-0.15671,0.00458,-0.04227,-0.03296,-0.05356,0.03723,0.00198,-0.02518,-0.02411,-0.00793,-0.01205,-0.02853,-0.02518,0.00427,0.03448
6.9975,-0.04883,-0.10147,-0.03937,-0.02228,-0.03723,-0.05035,0.03448,0.00061,-0.02518,-0.02228,-0.01053,-0.01114,-0.0267,-0.02579,0.00549,-0.05112
6.998,-0.05661,-0.04745,-0.12024,0.02579,-0.04242,-0.05081,0.0412,0.0032,-0.02563,-0.02045,-0.01099,-0.0119,-0.02487,-0.02411,0.00565,-0.14786
6.9985,-0.06119,-0.00916,-0.22278,0.08255,-0.04562,-0.0737,0.03738,0.00656,-0.02579,-0.01816,-0.00717,-0.01022,-0.0235,-0.02075,0.00656,-0.1503
6.999,-0.06516,0.01495,-0.28488,0.12589,-0.04486,-0.12039,0.01617,0.00687,-0.02502,-0.01633,-0.00397,-0.00687,-0.02274,-0.01709,0.00687,-0.02579
6.9995,-0.07416,0.02625,-0.25223,0.14984,-0.04135,-0.15533,-0.00458,0.0058,-0.02319,-0.01526,-0.00046,-0.00397,-0.02228,-0.0148,0.01022,0.11551
7.0,-0.08804,0.02289,-0.14938,0.15793,-0.0383,-0.14435,-0.00946,0.00778,-0.02182,-0.01572,0.00137,-0.00244,-0.02335,-0.0145,0.0148,0.12634
7.0005,-0.1004,0.01099,-0.06241,0.14282,-0.03784,-0.09399,-0.00259,0.01099,-0.02151,-0.01694,0.00198,-0.00412,-0.02518,-0.0148,0.01511,0.00809
7.001,-0.10727,-0.0029,-0.05081,0.09415,-0.03708,-0.03632,0.00214,0.01099,-0.02182,-0.01953,0.00183,-0.00702,-0.02777,-0.0148,0.01129,-0.09872
7.0015,-0.11078,-0.01831,-0.09186,0.02106,-0.0383,0.01099,0.00031,0.00427,-0.02075,-0.02106,-0.00046,-0.00946,-0.0322,-0.01511,0.00717,-0.11032
7.002,-0.11139,-0.04059,-0.1088,-0.04044,-0.03677,0.04959,-0.00854,-0.00793,-0.01892,-0.0209,-0.00092,-0.01251,-0.0383,-0.01465,0.00534,-0.06546
7.0025,-0.10345,-0.06668,-0.05524,-0.05188,-0.03189,0.0827,-0.02609,-0.01938,-0.01541,-0.02121,-0.00031,-0.01556,-0.04318,-0.01282,0.00854,-0.02228
7.003,-0.08179,-0.08377,0.03479,-0.02579,-0.02655,0.10178,-0.05005,-0.0238,-0.01526,-0.02075,0.0,-0.01678,-0.04272,-0.00885,0.0116,0.0116
7.0035,-0.05676,-0.08087,0.10147,-0.01526,-0.02548,0.09689,-0.06836,-0.02075,-0.0177,-0.02106,-0.00168,-0.01678,-0.03708,-0.0058,0.01205,0.03891
7.004,-0.04089,-0.06134,0.12253,-0.0415,-0.02731,0.06439,-0.0737,-0.01556,-0.01892,-0.02197,-0.00626,-0.01541,-0.03098,-0.00519,0.01083,0.03601
7.0045,-0.03799,-0.04227,0.12024,-0.0737,-0.02808,0.01175,-0.06989,-0.01572,-0.01923,-0.02213,-0.01038,-0.01495,-0.03113,-0.00687,0.00961,0.00107
7.005,-0.03952,-0.03204,0.11383,-0.09842,-0.02548,-0.03693,-0.06516,-0.02258,-0.01694,-0.0206,-0.01282,-0.01526,-0.0354,-0.01144,0.00931,-0.02762
7.0055,-0.0383,-0.03189,0.09659,-0.14542,-0.02258,-0.05478,-0.06042,-0.02975,-0.01495,-0.01907,-0.0116,-0.01434,-0.04059,-0.01572,0.00885,-0.01831
7.006,-0.03403,-0.04715,0.06271,-0.21698,-0.02167,-0.04181,-0.0499,-0.03235,-0.01419,-0.01846,-0.00793,-0.01297,-0.04318,-0.01755,0.0087,0.00946
7.0065,-0.0354,-0.07935,0.0238,-0.26306,-0.02441,-0.02975,-0.0293,-0.02777,-0.01373,-0.02045,-0.00717,-0.01205,-0.0415,-0.0174,0.00946,0.02304
7.007,-0.04242,-0.1091,-0.0058,-0.26718,-0.02563,-0.04471,0.00366,-0.01938,-0.01389,-0.02213,-0.00885,-0.01175,-0.04089,-0.01633,0.00977,0.00977
7.0075,-0.04654,-0.10956,-0.02457,-0.27206,-0.02533,-0.08621,0.03754,-0.00885,-0.01434,-0.02228,-0.01038,-0.01175,-0.0415,-0.01526,0.01053,-0.02029
7.008,-0.04059,-0.07568,-0.03769,-0.26825,-0.02274,-0.13107,0.05112,-0.00214,-0.01511,-0.02029,-0.00961,-0.01083,-0.04196,-0.01694,0.01114,-0.06317
7.0085,-0.02884,-0.03159,-0.04959,-0.15167,-0.02029,-0.15366,0.04105,-0.00168,-0.01511,-0.01846,-0.00809,-0.009,-0.04105,-0.02014,0.01022,-0.11765
7.009,-0.0177,0.00183,-0.0589,0.1004,-0.02045,-0.14557,0.02594,-0.0087,-0.01419,-0.0177,-0.00839,-0.00763,-0.04211,-0.02457,0.00916,-0.1535
7.0095,-0.01297,0.02335,-0.06104,0.29846,-0.02197,-0.12146,0.01663,-0.01678,-0.01404,-0.01816,-0.00961,-0.00656,-0.04333,-0.02747,0.00961,-0.13687
7.01,-0.01221,0.03494,-0.05966,0.24307,-0.02487,-0.10406,0.00732,-0.02136,-0.01373,-0.0177,-0.00977,-0.00488,-0.04333,-0.02777,0.01175,-0.08072
7.0105,-0.01419,0.02838,-0.05905,0.00259,-0.02625,-0.10468,-0.00778,-0.0235,-0.01617,-0.0174,-0.00595,-0.00275,-0.04181,-0.02716,0.01358,-0.0412
7.011,-0.01663,0.00183,-0.05905,-0.16235,-0.02655,-0.11383,-0.02243,-0.0235,-0.01968,-0.01694,-0.00275,-0.0029,-0.04028,-0.02777,0.01114,-0.0621
7.0115,-0.01801,-0.02991,-0.05753,-0.13046,-0.0267,-0.11475,-0.02747,-0.02136,-0.01968,-0.01633,-0.00122,-0.00259,-0.0412,-0.02991,0.00687,-0.1239
7.012,-0.01785,-0.04929,-0.05371,-0.0177,-0.02716,-0.09735,-0.02411,-0.01465,-0.02014,-0.01709,-0.00259,-0.00351,-0.04105,-0.03082,0.00351,-0.18127
7.0125,-0.01205,-0.05325,-0.05127,0.04105,-0.03174,-0.07141,-0.02075,-0.01129,-0.0206,-0.0174,-0.00549,-0.00412,-0.03891,-0.02945,0.00443,-0.20081
7.013,-0.00198,-0.05203,-0.05478,0.04288,-0.03738,-0.05737,-0.02075,-0.009,-0.02106,-0.01663,-0.00763,-0.00351,-0.03265,-0.02701,0.00534,-0.18509
7.0135,0.00793,-0.04944,-0.06378,0.04288,-0.04303,-0.05463,-0.02197,-0.00687,-0.02029,-0.01572,-0.00702,-0.00244,-0.02731,-0.02411,0.00763,-0.15854
7.014,0.01053,-0.04486,-0.07248,0.04974,-0.04501,-0.04074,-0.0235,-0.00565,-0.01984,-0.01434,-0.00351,-0.00122,-0.02289,-0.02182,0.00748,-0.13702
7.0145,0.00504,-0.04059,-0.07309,0.04517,-0.04364,-0.0029,-0.02365,-0.00381,-0.01785,-0.01389,0.00015,-0.00031,-0.02106,-0.02029,0.00671,-0.09125
7.015,-0.00244,-0.04471,-0.06775,0.03494,-0.03891,0.0386,-0.02365,-0.00305,-0.01587,-0.01465,0.00504,0.00076,-0.02121,-0.01968,0.00702,0.01724
7.0155,-0.00717,-0.05173,-0.06119,0.04227,-0.03311,0.05341,-0.02167,-0.00458,-0.01617,-0.01404,0.01404,0.00046,-0.02335,-0.01999,0.00687,0.15076
7.016,-0.01053,-0.05005,-0.05844,0.07172,-0.03204,0.03738,-0.01923,-0.00443,-0.0174,-0.01617,0.0238,0.0,-0.02518,-0.01968,0.0058,0.20355
7.0165,-0.01434,-0.04074,-0.05814,0.10605,-0.0322,0.0145,-0.01846,-0.00595,-0.02014,-0.01633,0.02762,-0.00061,-0.02686,-0.01984,0.00351,0.13351
7.017,-0.01877,-0.03769,-0.06012,0.11749,-0.03525,0.0058,-0.01892,-0.00458,-0.02121,-0.01617,0.02472,0.00061,-0.02716,-0.01938,0.00397,0.02151
7.0175,-0.02151,-0.04944,-0.06439,0.09308,-0.03799,0.009,-0.01968,-0.00381,-0.02197,-0.01617,0.02014,0.0029,-0.02701,-0.01907,0.00565,-0.03357
7.018,-0.02335,-0.06531,-0.06882,0.04745,-0.04135,0.0116,-0.01892,-0.00229,-0.02151,-0.0174,0.01694,0.00443,-0.02548,-0.0177,0.00793,-0.02609
7.0185,-0.02899,-0.07385,-0.06973,0.00671,-0.04364,0.00778,-0.01968,0.00046,-0.02029,-0.01663,0.01465,0.00381,-0.02472,-0.01755,0.00763,-0.01434
7.019,-0.03754,-0.07599,-0.0621,-0.0177,-0.04379,0.00565,-0.01999,0.00168,-0.01846,-0.01633,0.01373,0.0032,-0.02548,-0.0177,0.00671,-0.02579
7.0195,-0.04395,-0.0795,-0.05051,-0.0296,-0.04074,0.01343,-0.01938,0.00275,-0.01678,-0.01709,0.01328,0.00381,-0.02853,-0.01831,0.0058,-0.04211
7.02,-0.04547,-0.0856,-0.04349,-0.03845,-0.0351,0.02716,-0.0174,0.00244,-0.01526,-0.01785,0.01099,0.00671,-0.03021,-0.01953,0.0087,-0.04288
7.0205,-0.0444,-0.08606,-0.04089,-0.04288,-0.03403,0.0264,-0.01801,0.00595,-0.01373,-0.01831,0.0058,0.00992,-0.03067,-0.02014,0.01022,-0.03662
7.021,-0.04517,-0.07782,-0.04013,-0.04318,-0.03662,-0.00854,-0.01938,0.01282,-0.01419,-0.01678,0.00092,0.01251,-0.02808,-0.01938,0.00885,-0.04105
7.0215,-0.04639,-0.06271,-0.04196,-0.04135,-0.03922,-0.06744,-0.01923,0.01663,-0.01541,-0.01602,-0.00137,0.01343,-0.02533,-0.01862,0.00626,-0.06073
7.022,-0.04654,-0.04623,-0.0415,-0.04089,-0.04013,-0.12329,-0.01862,0.01831,-0.01678,-0.01541,-0.00168,0.01221,-0.02518,-0.0177,0.00351,-0.08118
7.0225,-0.04486,-0.03098,-0.0412,-0.03784,-0.03799,-0.16541,-0.01877,0.0145,-0.01678,-0.01755,-0.0032,0.01053,-0.02548,-0.01617,0.00504,-0.08804
7.023,-0.04364,-0.01694,-0.03525,-0.0264,-0.03876,-0.18753,-0.02106,0.00854,-0.01602,-0.0177,-0.00641,0.009,-0.02533,-0.01602,0.00946,-0.0798
7.0235,-0.04486,-0.00748,-0.02441,-0.01404,-0.03906,-0.17563,-0.02396,0.00549,-0.01572,-0.01755,-0.00824,0.00946,-0.02655,-0.01678,0.01266,-0.06638
7.024,-0.05112,-0.00595,-0.01373,-0.01617,-0.0386,-0.13123,-0.02548,0.00488,-0.01572,-0.01694,-0.00931,0.01007,-0.02914,-0.01862,0.01251,-0.04715
7.0245,-0.05981,-0.01297,-0.00793,-0.04166,-0.03601,-0.08316,-0.02396,0.00488,-0.01541,-0.01633,-0.009,0.01022,-0.02975,-0.01953,0.01007,-0.00854
7.025,-0.06851,-0.02335,-0.0087,-0.07492,-0.0351,-0.05768,-0.02213,0.00229,-0.01511,-0.01678,-0.00961,0.00977,-0.02731,-0.01938,0.00626,0.03098
7.0255,-0.07126,-0.03372,-0.01602,-0.08865,-0.03616,-0.05341,-0.02014,0.00046,-0.01541,-0.01724,-0.01114,0.00931,-0.02518,-0.01877,0.00458,0.009
7.026,-0.06836,-0.04486,-0.02441,-0.06088,-0.0354,-0.05447,-0.01587,0.00275,-0.01572,-0.01709,-0.01358,0.01053,-0.02609,-0.01877,0.0061,-0.09338
7.0265,-0.065,-0.06104,-0.03128,-0.00031,-0.0322,-0.05478,-0.0058,0.00641,-0.01663,-0.01694,-0.01541,0.01373,-0.02747,-0.01984,0.01144,-0.17349
7.027,-0.06439,-0.08118,-0.03311,0.04883,-0.03052,-0.05478,0.00137,0.0032,-0.01633,-0.01694,-0.01694,0.01678,-0.0296,-0.02228,0.01572,-0.11597
7.0275,-0.06592,-0.0946,-0.0296,0.04333,-0.02945,-0.05142,-0.00061,-0.00656,-0.01587,-0.0174,-0.0174,0.01785,-0.03113,-0.02563,0.01526,0.02975
7.028,-0.06744,-0.09644,-0.02274,-0.00488,-0.02838,-0.04318,-0.009,-0.01587,-0.0148,-0.01755,-0.01785,0.01511,-0.03159,-0.02792,0.01266,0.10468
7.0285,-0.06516,-0.09125,-0.01816,-0.03815,-0.02396,-0.03174,-0.0148,-0.01709,-0.01511,-0.0174,-0.01617,0.01022,-0.03113,-0.02747,0.00809,0.04837
7.029,-0.0563,-0.08575,-0.02151,-0.03006,-0.01938,-0.02167,-0.01465,-0.01266,-0.01617,-0.01663,-0.0145,0.00656,-0.03143,-0.02502,0.00397,-0.04196
7.0295,-0.04242,-0.07919,-0.0293,-0.02197,-0.01694,-0.01648,-0.01343,-0.00626,-0.01526,-0.01602,-0.01495,0.00656,-0.03159,-0.0209,0.00046,-0.06927
7.03,-0.02975,-0.06622,-0.03799,-0.06104,-0.01923,-0.01129,-0.0145,-0.00092,-0.01282,-0.01617,-0.01755,0.00885,-0.03006,-0.01816,-0.00137,-0.04608
7.0305,-0.02487,-0.04807,-0.04318,-0.13535,-0.02335,-0.00107,-0.01419,0.00366,-0.01114,-0.01633,-0.0209,0.0087,-0.02853,-0.01694,-0.00351,-0.02808
7.031,-0.02563,-0.02686,-0.04532,-0.19394,-0.02716,0.01694,-0.01068,0.00626,-0.01068,-0.01694,-0.02335,0.0087,-0.02823,-0.01587,-0.00214,-0.03403
7.0315,-0.03052,-0.00748,-0.04303,-0.21408,-0.03052,0.03906,-0.00671,0.00595,-0.0119,-0.01602,-0.02396,0.00885,-0.02869,-0.01495,0.00397,-0.05341
7.032,-0.03464,0.00916,-0.0383,-0.20111,-0.03448,0.05051,-0.00656,0.00244,-0.01114,-0.01587,-0.02487,0.00381,-0.02686,-0.01465,0.01266,-0.07858
7.0325,-0.03677,0.02151,-0.03418,-0.13382,-0.03891,0.02777,-0.00946,-0.0032,-0.01053,-0.01602,-0.02853,-0.00839,-0.02533,-0.01526,0.01846,-0.09857
7.033,-0.03738,0.03006,-0.03494,0.02457,-0.04135,-0.04532,-0.0116,-0.00488,-0.01236,-0.01663,-0.0325,-0.0209,-0.02838,-0.01709,0.01694,-0.1001
7.0335,-0.03952,0.03403,-0.0386,0.23941,-0.04074,-0.13748,-0.01099,-0.00519,-0.01663,-0.01801,-0.0354,-0.02457,-0.03555,-0.01846,0.01175,-0.08118
7.034,-0.04044,0.03204,-0.04303,0.38574,-0.0383,-0.18143,-0.00931,-0.00809,-0.01892,-0.01785,-0.03433,-0.01709,-0.03906,-0.01862,0.00412,-0.06287
7.0345,-0.03662,0.02411,-0.04486,0.37735,-0.03418,-0.14481,-0.00809,-0.01251,-0.01831,-0.01755,-0.03281,-0.00732,-0.03525,-0.0174,-0.0029,-0.06042
7.035,-0.02701,0.01297,-0.047,0.27466,-0.03052,-0.08102,-0.00916,-0.01389,-0.01831,-0.01678,-0.03372,0.00031,-0.02838,-0.01678,-0.00595,-0.07172
7.0355,-0.01465,0.00092,-0.04974,0.19821,-0.02747,-0.05463,-0.00916,-0.00702,-0.01877,-0.01678,-0.03647,0.00839,-0.02457,-0.01709,-0.00366,-0.08499
7.036,-0.0032,-0.01205,-0.05341,0.18661,-0.02655,-0.07339,-0.00854,-0.00015,-0.01923,-0.01709,-0.03769,0.01999,-0.02518,-0.0174,0.00214,-0.09109
7.0365,0.00381,-0.02869,-0.0563,0.18997,-0.02609,-0.09308,-0.00641,0.00168,-0.01892,-0.01877,-0.03708,0.0322,-0.02625,-0.0174,0.00854,-0.09369
7.037,0.00626,-0.047,-0.05661,0.16205,-0.02502,-0.0885,-0.00443,0.00259,-0.01678,-0.01923,-0.03799,0.04044,-0.02502,-0.01663,0.0119,-0.09811
7.0375,0.00687,-0.05997,-0.05417,0.09903,-0.02533,-0.07065,-0.00641,0.00519,-0.01495,-0.01923,-0.03922,0.04532,-0.0209,-0.01633,0.01389,-0.10406
7.038,0.00778,-0.06866,-0.04807,0.0238,-0.02777,-0.05737,-0.01785,0.01022,-0.01358,-0.01999,-0.03876,0.04532,-0.01755,-0.01755,0.01419,-0.10452
7.0385,0.00717,-0.07568,-0.04135,-0.04074,-0.03098,-0.05325,-0.03754,0.01038,-0.01358,-0.02014,-0.03815,0.03723,-0.01556,-0.01785,0.01251,-0.09399
7.039,0.00031,-0.07523,-0.04349,-0.08011,-0.03128,-0.05219,-0.05859,0.00259,-0.01495,-0.01953,-0.03906,0.01495,-0.01938,-0.01785,0.01068,-0.06973
7.0395,-0.01297,-0.05951,-0.06882,-0.09811,-0.03082,-0.05035,-0.07278,-0.00763,-0.01541,-0.01907,-0.03967,-0.01175,-0.03525,-0.01755,0.01099,-0.0264
7.04,-0.02609,-0.03326,-0.12405,-0.11261,-0.02884,-0.04852,-0.07706,-0.01511,-0.0148,-0.01862,-0.0386,-0.02533,-0.05524,-0.0174,0.0119,0.03677
7.0405,-0.03799,-0.01007,-0.17624,-0.13779,-0.02823,-0.047,-0.0737,-0.01724,-0.01328,-0.01801,-0.03693,-0.02167,-0.06363,-0.01816,0.01251,0.08057
7.041,-0.05188,0.00031,-0.17853,-0.17075,-0.02838,-0.04501,-0.05951,-0.01495,-0.01236,-0.01617,-0.03815,-0.01022,-0.05371,-0.01862,0.01328,0.02594
7.0415,-0.0676,0.00153,-0.12543,-0.19958,-0.02975,-0.04333,-0.02625,-0.01266,-0.01007,-0.01617,-0.0386,-0.00031,-0.0386,-0.01877,0.01282,-0.13565
7.042,-0.08194,-0.00336,-0.05356,-0.21362,-0.03174,-0.04333,0.01419,-0.01343,-0.00946,-0.01709,-0.03891,0.00519,-0.03113,-0.02014,0.00961,-0.26291
7.0425,-0.0856,-0.01221,0.00015,-0.20706,-0.03403,-0.04456,0.01846,-0.01587,-0.00824,-0.01877,-0.03891,0.00534,-0.03036,-0.0235,0.00717,-0.20065
7.043,-0.07294,-0.0235,0.03265,-0.17822,-0.03571,-0.047,-0.01251,-0.01724,-0.01053,-0.01892,-0.04013,0.00214,-0.0296,-0.02563,0.00488,0.00732
7.0435,-0.04974,-0.03616,0.05295,-0.13504,-0.03601,-0.04929,-0.01358,-0.0145,-0.0119,-0.01984,-0.04333,-0.00336,-0.02731,-0.02579,0.00595,0.15808
7.044,-0.03265,-0.04883,0.05615,-0.0914,-0.03632,-0.04959,0.03799,-0.00916,-0.01511,-0.0209,-0.04883,-0.009,-0.02808,-0.02365,0.00778,0.14618
7.0445,-0.02869,-0.06439,0.03738,-0.05905,-0.03662,-0.04639,0.07751,-0.0032,-0.01709,-0.02228,-0.05295,-0.01205,-0.03571,-0.02045,0.00885,0.05157
7.045,-0.02853,-0.0853,0.00641,-0.04181,-0.03525,-0.04272,0.05829,-0.00412,-0.01755,-0.02106,-0.05493,-0.01373,-0.0473,-0.0174,0.00824,-0.01083
