time,RectFemL,VastusMedL,VastusLatL,TibAntL,HamMedL,HamLatL,GastroMedL,GastroLatL,RectFemR,VastusMedR,VastusLatR,TibAntR,HamMedR,HamLatR,GastroMedR,GastroLatR
7.78,-0.01617,0.00031,-0.03448,-0.01846,-0.03372,-0.05066,-0.01816,0.00183,-0.00366,-0.08148,-0.03571,0.01266,-0.0383,-0.0238,-0.0174,-0.33752
7.7805,-0.01572,-0.00229,-0.03067,0.0383,-0.00031,-0.11261,-0.0145,0.00214,-0.00519,-0.08163,-0.03265,0.0061,-0.03769,-0.02411,-0.07645,-0.33829
7.781,-0.01511,-0.0058,-0.01816,0.05142,0.02441,-0.18341,-0.00717,0.0,-0.01114,-0.08087,-0.0296,-0.00061,-0.0383,-0.02533,-0.03952,-0.33661
7.7815,-0.01663,-0.00992,-0.00076,0.0032,0.0238,-0.22827,-0.0032,-0.00168,-0.01892,-0.07965,-0.02686,-0.00351,-0.03769,-0.02518,0.08484,-0.36942
7.782,-0.01938,-0.01404,0.00565,-0.08392,0.00031,-0.23041,-0.0032,-0.00183,-0.02625,-0.0798,-0.02441,-0.00305,-0.03601,-0.02411,0.20981,-0.38422
7.7825,-0.02197,-0.02014,-0.00534,-0.15335,-0.0238,-0.20737,-0.00458,-0.00076,-0.03159,-0.07813,-0.02487,-0.00168,-0.03448,-0.02167,0.2243,-0.27084
7.783,-0.0209,-0.02762,-0.02579,-0.1593,-0.03372,-0.16922,-0.00534,-0.00122,-0.03418,-0.07141,-0.03021,0.00107,-0.03418,-0.01984,0.10742,-0.00687
7.7835,-0.01968,-0.0351,-0.04227,-0.1091,-0.03326,-0.12222,-0.00992,-0.00244,-0.03403,-0.04791,-0.04288,0.00153,-0.03387,-0.01923,-0.04303,0.27832
7.784,-0.02258,-0.04089,-0.04929,-0.05539,-0.03525,-0.07553,-0.02472,-0.00534,-0.03113,-0.00687,-0.05783,-0.00305,-0.0325,-0.01694,-0.11444,0.44128
7.7845,-0.03159,-0.04425,-0.04837,-0.05203,-0.04822,-0.047,-0.04639,-0.00778,-0.02792,0.03555,-0.06943,-0.01114,-0.03006,-0.01556,-0.08743,0.45746
7.785,-0.04272,-0.04654,-0.04364,-0.11658,-0.07446,-0.04974,-0.05554,-0.00809,-0.02579,0.05264,-0.06561,-0.01129,-0.02823,-0.01526,-0.01953,0.38269
7.7855,-0.04868,-0.04852,-0.03586,-0.2095,-0.1033,-0.07584,-0.03891,-0.00824,-0.02533,0.03647,-0.04898,-0.00214,-0.02792,-0.01541,0.04471,0.27054
7.786,-0.047,-0.0502,-0.02914,-0.2655,-0.10727,-0.11368,-0.01114,-0.00885,-0.02487,0.01205,-0.03036,0.00671,-0.02914,-0.01617,0.09415,0.15244
7.7865,-0.0444,-0.05081,-0.02396,-0.25482,-0.06195,-0.14496,-0.00076,-0.01038,-0.02457,0.00778,-0.0148,0.00534,-0.03021,-0.01801,0.1091,0.0499
7.787,-0.04471,-0.05112,-0.02182,-0.20493,0.02106,-0.15213,-0.01266,-0.01068,-0.02182,0.03632,0.00229,-0.00366,-0.03098,-0.01953,0.07324,-0.03525
7.7875,-0.04745,-0.0502,-0.0209,-0.15167,0.08911,-0.14801,-0.02686,-0.009,-0.01343,0.08408,0.02609,-0.00839,-0.0296,-0.01862,0.01816,-0.11398
7.788,-0.04929,-0.04898,-0.02213,-0.10742,0.10529,-0.15091,-0.02899,-0.00717,0.00183,0.13306,0.05249,-0.00504,-0.0264,-0.0145,-0.00168,-0.16373
7.7885,-0.05005,-0.04883,-0.02594,-0.06531,0.08133,-0.15762,-0.02365,-0.00717,0.0209,0.16495,0.07202,0.00183,-0.0235,-0.01038,0.01831,-0.13199
7.789,-0.05173,-0.04807,-0.03204,-0.02975,0.05188,-0.14252,-0.01862,-0.00702,0.0351,0.16251,0.08224,0.00214,-0.02197,-0.00916,0.0383,-0.01266
7.7895,-0.05295,-0.0502,-0.03784,-0.00519,0.04395,-0.10178,-0.01648,-0.00549,0.04089,0.12573,0.08499,-0.0058,-0.02487,-0.01175,0.03311,0.1062
7.79,-0.05371,-0.0563,-0.03922,0.01465,0.05569,-0.05356,-0.01511,-0.00275,0.04059,0.07675,0.08453,-0.01526,-0.02914,-0.01556,0.01694,0.12909
7.7905,-0.05325,-0.06577,-0.03845,0.04089,0.07263,-0.02762,-0.01617,-0.00107,0.03815,0.04471,0.08041,-0.01816,-0.03235,-0.0174,0.00122,0.06592
7.791,-0.05219,-0.07324,-0.03723,0.07278,0.07248,-0.02853,-0.0209,0.0,0.03525,0.03235,0.0708,-0.01419,-0.03235,-0.01572,-0.01297,0.01022
7.7915,-0.05173,-0.07431,-0.03845,0.09491,0.03494,-0.0386,-0.02655,0.00076,0.02747,0.01541,0.05402,-0.00702,-0.03174,-0.01526,-0.0264,0.01266
7.792,-0.05417,-0.06989,-0.04242,0.09277,-0.04745,-0.03967,-0.02991,0.00107,0.01022,-0.02304,0.03235,0.00092,-0.03098,-0.01617,-0.03235,0.04181
7.7925,-0.05707,-0.06561,-0.04807,0.07904,-0.14984,-0.02808,-0.03372,0.00168,-0.01526,-0.07339,0.009,0.01221,-0.03021,-0.0174,-0.0267,0.04959
7.793,-0.05844,-0.06165,-0.05249,0.07843,-0.21515,-0.01572,-0.03632,0.00351,-0.03983,-0.1088,-0.01312,0.0264,-0.03159,-0.01862,-0.01892,0.02747
7.7935,-0.05676,-0.056,-0.05203,0.09933,-0.19806,-0.01205,-0.03433,0.00595,-0.06027,-0.11948,-0.02747,0.03754,-0.03403,-0.01801,-0.01572,-0.00229
7.794,-0.05371,-0.05035,-0.04868,0.12711,-0.1149,-0.01297,-0.02487,0.00534,-0.07462,-0.11581,-0.03235,0.04028,-0.03601,-0.01724,-0.01724,-0.02548
7.7945,-0.05005,-0.04547,-0.04654,0.14618,-0.03265,-0.01343,-0.00946,0.00046,-0.08255,-0.10925,-0.03494,0.03082,-0.03601,-0.01724,-0.01816,-0.0412
7.795,-0.0444,-0.04471,-0.04425,0.15198,-0.01068,-0.0087,0.00977,-0.00305,-0.08118,-0.10498,-0.04456,0.01358,-0.03662,-0.01877,-0.01968,-0.04959
7.7955,-0.04257,-0.04959,-0.04257,0.14526,-0.06058,-0.00214,0.02762,-0.00366,-0.06927,-0.0972,-0.05478,-0.00336,-0.03769,-0.02121,-0.01999,-0.05005
7.796,-0.04501,-0.06165,-0.04211,0.12451,-0.14618,0.00046,0.03311,-0.00259,-0.05066,-0.08255,-0.0592,-0.01343,-0.0386,-0.02228,-0.01526,-0.05188
7.7965,-0.04822,-0.08362,-0.04272,0.08911,-0.20676,0.0029,0.02518,-0.00366,-0.03342,-0.0618,-0.0592,-0.01297,-0.03906,-0.02396,-0.0058,-0.07034
7.797,-0.04791,-0.112,-0.04105,0.03464,-0.19775,0.01389,0.01083,-0.00549,-0.02121,-0.03891,-0.06607,-0.01007,-0.03952,-0.02579,-0.00214,-0.11307
7.7975,-0.04532,-0.13351,-0.03586,-0.0354,-0.12955,0.03128,-0.00183,-0.00778,-0.0116,-0.0119,-0.08804,-0.00992,-0.03952,-0.02823,-0.00656,-0.17761
7.798,-0.04456,-0.13138,-0.02731,-0.1062,-0.05386,0.03067,-0.00977,-0.00763,0.00015,0.02716,-0.11322,-0.00885,-0.04196,-0.02838,-0.01144,-0.23743
7.7985,-0.04684,-0.10376,-0.00549,-0.14893,-0.01251,0.00061,-0.01328,-0.00793,0.01389,0.0769,-0.11627,0.00229,-0.04318,-0.02274,-0.00763,-0.25146
7.799,-0.0499,-0.06821,0.04639,-0.14801,-0.00076,-0.04471,-0.01144,-0.00732,0.02518,0.12039,-0.08667,0.02121,-0.04135,-0.01343,0.00031,-0.20859
7.7995,-0.05142,-0.03662,0.12253,-0.11902,0.01099,-0.07294,-0.00763,-0.00595,0.02701,0.12741,-0.04303,0.0325,-0.03769,-0.00885,-0.00198,-0.16068
7.8,-0.05341,-0.01144,0.17105,-0.09094,0.03784,-0.06653,-0.00198,-0.00488,0.01633,0.08484,-0.0148,0.02472,-0.03494,-0.00946,-0.02106,-0.16663
7.8005,-0.05524,0.01007,0.14709,-0.07446,0.07187,-0.03693,0.00626,-0.00458,-0.00031,0.01541,-0.01022,0.0032,-0.03418,-0.01297,-0.04013,-0.21194
7.801,-0.05707,0.02319,0.07217,-0.05737,0.10483,-0.00519,0.01602,-0.00427,-0.0174,-0.03601,-0.01404,-0.0174,-0.03372,-0.01343,-0.03815,-0.22568
7.8015,-0.05966,0.02518,0.00946,-0.02625,0.12894,0.01297,0.02274,-0.00412,-0.03128,-0.04654,-0.00824,-0.02594,-0.03342,-0.01038,-0.01862,-0.16846
7.802,-0.06256,0.01831,-0.02182,0.01236,0.13199,0.01816,0.02075,-0.00458,-0.04135,-0.03128,0.00488,-0.02106,-0.03189,-0.00854,0.00244,-0.08377
7.8025,-0.0647,0.01144,-0.04959,0.03906,0.10941,0.0116,0.009,-0.0058,-0.0441,-0.02121,0.01511,-0.00656,-0.03052,-0.01022,0.0116,-0.04974
7.803,-0.06332,0.00885,-0.08743,0.03876,0.06668,-0.00031,-0.00763,-0.00519,-0.03754,-0.02274,0.01999,0.00793,-0.0293,-0.01221,0.00793,-0.08942
7.8035,-0.06012,0.00839,-0.11703,0.01907,0.01526,-0.01709,-0.02197,-0.00351,-0.0264,-0.02777,0.02396,0.01175,-0.0293,-0.01251,-0.01129,-0.13229
7.804,-0.05676,0.00931,-0.12665,0.00031,-0.03281,-0.03677,-0.03311,-0.00259,-0.01816,-0.0293,0.03082,0.00519,-0.02792,-0.01144,-0.047,-0.10483
7.8045,-0.05447,0.00992,-0.12848,-0.0029,-0.06317,-0.06271,-0.03967,-0.0032,-0.01587,-0.02991,0.03677,-0.00229,-0.02701,-0.0119,-0.10117,-0.03952
7.805,-0.05356,0.00961,-0.13596,0.009,-0.0769,-0.09766,-0.04089,-0.00366,-0.01678,-0.03159,0.03418,-0.00275,-0.0267,-0.01282,-0.17426,-0.03036
7.8055,-0.05295,0.0061,-0.14481,0.02563,-0.09216,-0.12375,-0.03708,-0.0029,-0.01694,-0.03357,0.02121,0.00137,-0.02991,-0.01373,-0.25894,-0.10498
7.806,-0.05356,-0.00214,-0.14282,0.03845,-0.12421,-0.12268,-0.03052,-0.00198,-0.01617,-0.0354,0.00336,0.00565,-0.03448,-0.01373,-0.33661,-0.18219
7.8065,-0.05356,-0.01984,-0.12863,0.04349,-0.15793,-0.0943,-0.02594,-0.00351,-0.01678,-0.03342,-0.01236,0.0116,-0.03784,-0.01434,-0.38681,-0.1741
7.807,-0.05371,-0.04288,-0.10696,0.04227,-0.16159,-0.06561,-0.02731,-0.00534,-0.01816,-0.03342,-0.02319,0.01678,-0.03998,-0.01617,-0.38055,-0.07797
7.8075,-0.05371,-0.0592,-0.08286,0.03754,-0.11932,-0.05722,-0.03204,-0.00763,-0.01831,-0.03677,-0.02731,0.01633,-0.0412,-0.01877,-0.28824,0.04105
7.808,-0.05188,-0.06134,-0.06363,0.03204,-0.05783,-0.05676,-0.03479,-0.00809,-0.01572,-0.04318,-0.02579,0.01205,-0.04013,-0.01999,-0.13763,0.13443
7.8085,-0.04913,-0.05539,-0.05234,0.01862,-0.01083,-0.04913,-0.03799,-0.00549,-0.01389,-0.04761,-0.02121,0.0116,-0.03799,-0.0209,-0.01526,0.20187
7.809,-0.04837,-0.04959,-0.04684,-0.01862,0.00793,-0.03189,-0.04623,0.00031,-0.01465,-0.05188,-0.01831,0.01724,-0.03677,-0.02045,0.04654,0.22659
7.8095,-0.04944,-0.04822,-0.04288,-0.09308,0.00473,-0.01724,-0.03937,0.00748,-0.0177,-0.05478,-0.0174,0.0238,-0.03738,-0.02075,0.11749,0.1651
7.81,-0.05112,-0.04883,-0.0415,-0.17609,-0.00412,-0.01617,0.00275,0.01129,-0.02182,-0.06195,-0.01419,0.02136,-0.03815,-0.02014,0.23453,0.03311
7.8105,-0.05005,-0.04974,-0.04044,-0.20462,-0.0119,-0.01938,0.05157,0.009,-0.02411,-0.0769,-0.00793,0.01175,-0.03906,-0.01938,0.3154,-0.0853
7.811,-0.04715,-0.04944,-0.03647,-0.14206,-0.01175,-0.02228,0.05692,0.00351,-0.02487,-0.09628,-0.00793,0.00427,-0.0386,-0.01953,0.29297,-0.14236
7.8115,-0.04379,-0.04562,-0.03067,-0.01541,0.00107,-0.02319,0.02182,-0.00092,-0.02411,-0.11108,-0.02365,0.00214,-0.03754,-0.01923,0.21881,-0.16815
7.812,-0.04181,-0.04028,-0.02655,0.11917,0.01984,-0.0238,-0.00214,-0.0029,-0.02304,-0.11444,-0.0528,0.00381,-0.03571,-0.02029,0.18219,-0.17838
7.8125,-0.04211,-0.03601,-0.02472,0.22324,0.03372,-0.03082,0.0087,-0.00473,-0.01984,-0.10773,-0.08118,0.0032,-0.03311,-0.02243,0.19257,-0.14145
7.813,-0.04395,-0.03418,-0.0238,0.28793,0.0386,-0.03342,0.02563,-0.00763,-0.01633,-0.09064,-0.09247,-0.00015,-0.02975,-0.02304,0.19531,-0.07141
7.8135,-0.047,-0.03479,-0.0238,0.31464,0.0412,-0.02747,0.02365,-0.01083,-0.01465,-0.06622,-0.08575,-0.00244,-0.0267,-0.02136,0.16373,-0.05295
7.814,-0.04913,-0.03723,-0.02548,0.29526,0.05219,-0.01373,0.00809,-0.01114,-0.0148,-0.03906,-0.0679,-0.00229,-0.02548,-0.01892,0.12344,-0.09048
7.8145,-0.05188,-0.0412,-0.02792,0.22049,0.06332,-0.00381,-0.00732,-0.00885,-0.01328,-0.01099,-0.04791,-0.00168,-0.02609,-0.01968,0.11917,-0.05692
7.815,-0.0528,-0.04456,-0.03113,0.10452,0.06531,-0.00229,-0.02029,-0.00565,-0.00992,0.01892,-0.02975,-0.0032,-0.02808,-0.02106,0.15335,0.10788
7.8155,-0.05173,-0.04807,-0.03143,-0.01129,0.04257,-0.00732,-0.03113,-0.0032,-0.00671,0.05005,-0.01205,-0.00473,-0.03006,-0.0209,0.17624,0.27466
7.816,-0.04761,-0.05371,-0.0293,-0.08209,-0.00458,-0.01602,-0.03845,-0.00259,-0.00488,0.07889,0.00458,-0.00153,-0.0296,-0.01938,0.14969,0.29404
7.8165,-0.04333,-0.05798,-0.02945,-0.09888,-0.05737,-0.02289,-0.04379,-0.00229,-0.00259,0.09506,0.0209,0.00397,-0.0296,-0.01999,0.10223,0.19272
7.817,-0.04013,-0.05997,-0.03113,-0.0827,-0.09079,-0.02029,-0.05081,-0.00183,-0.00244,0.09323,0.03677,0.00595,-0.02899,-0.02319,0.08255,0.11017
7.8175,-0.03754,-0.05859,-0.03357,-0.05371,-0.08942,-0.00763,-0.05875,-0.00168,-0.00427,0.07553,0.04639,0.00427,-0.02869,-0.02655,0.08423,0.09659
7.818,-0.03494,-0.056,-0.03265,-0.02426,-0.06454,-0.00793,-0.06332,-0.00015,-0.00763,0.04745,0.0444,0.00168,-0.02731,-0.02502,0.06714,0.08896
7.8185,-0.03128,-0.05432,-0.03281,-0.00107,-0.0412,-0.05844,-0.06271,0.00107,-0.00977,0.01404,0.03479,0.00061,-0.02441,-0.01785,0.03479,0.03937
7.819,-0.02914,-0.05295,-0.03418,0.0174,-0.05112,-0.16113,-0.05875,0.00259,-0.00839,-0.01358,0.02686,-0.00031,-0.02335,-0.00702,0.0267,-0.02594
7.8195,-0.02823,-0.05081,-0.03357,0.03799,-0.08026,-0.25879,-0.05127,0.00397,-0.0029,-0.03128,0.02396,-0.0029,-0.02258,0.00153,0.04639,-0.07095
7.82,-0.02884,-0.04807,-0.02869,0.03998,-0.08392,-0.28244,-0.03464,0.00443,0.00549,-0.03738,0.02274,-0.00671,-0.02335,0.00092,0.05798,-0.10941
7.8205,-0.02823,-0.04639,-0.01968,-0.00671,-0.04913,-0.21317,-0.00641,0.00549,0.01602,-0.03647,0.01648,-0.01022,-0.02502,-0.00595,0.04044,-0.17105
7.821,-0.0267,-0.04974,-0.00885,-0.08591,-0.00214,-0.10223,0.02686,0.00763,0.02426,-0.03265,0.00565,-0.01053,-0.02777,-0.01404,0.01007,-0.24185
7.8215,-0.02609,-0.05981,-0.00168,-0.14099,0.00351,-0.01511,0.05219,0.009,0.02777,-0.0267,-0.0061,-0.00732,-0.03021,-0.01755,-0.01129,-0.26733
7.822,-0.02731,-0.07355,-0.00626,-0.14389,-0.0322,0.0235,0.05508,0.01053,0.02426,-0.01816,-0.01633,-0.00427,-0.03159,-0.01923,-0.02808,-0.20828
7.8225,-0.02975,-0.08636,-0.01877,-0.12344,-0.08087,0.02335,0.02914,0.01175,0.01373,-0.01007,-0.02304,-0.00488,-0.03265,-0.02121,-0.04868,-0.06577
7.823,-0.03159,-0.09033,-0.03174,-0.10468,-0.12772,0.00748,-0.0029,0.0119,-0.00153,-0.00443,-0.02563,-0.00854,-0.0351,-0.02213,-0.07187,0.11215
7.8235,-0.03159,-0.08408,-0.0351,-0.07217,-0.16434,-0.01617,-0.00153,0.00885,-0.02029,-0.00443,-0.02518,-0.0116,-0.03876,-0.02167,-0.08804,0.24216
7.824,-0.02975,-0.07156,-0.03189,-0.01068,-0.18585,-0.03784,0.03326,0.00214,-0.03876,-0.01129,-0.02441,-0.01266,-0.03983,-0.02014,-0.09384,0.2713
7.8245,-0.02426,-0.06012,-0.02716,0.06256,-0.18326,-0.04974,0.0444,-0.00504,-0.05157,-0.0209,-0.02228,-0.01022,-0.03937,-0.0209,-0.08896,0.2092
7.825,-0.01694,-0.05219,-0.02594,0.12527,-0.16327,-0.05219,-0.00854,-0.01038,-0.05753,-0.02945,-0.01907,-0.00656,-0.03738,-0.0206,-0.07416,0.10284
7.8255,-0.01114,-0.04669,-0.02808,0.16983,-0.11749,-0.04776,-0.08591,-0.01282,-0.05951,-0.0351,-0.01755,-0.00366,-0.0351,-0.01968,-0.0531,-0.00946
7.826,-0.00839,-0.04272,-0.03174,0.17944,-0.03418,-0.03738,-0.11215,-0.01297,-0.06409,-0.03891,-0.01816,-0.00137,-0.03265,-0.01923,-0.03754,-0.10101
7.8265,-0.00732,-0.03876,-0.0325,0.12115,0.07645,-0.02396,-0.07126,-0.01129,-0.06927,-0.04211,-0.01984,-0.00061,-0.03174,-0.01938,-0.04196,-0.15488
7.827,-0.00656,-0.03311,-0.03021,-0.00946,0.16754,-0.01297,-0.01678,-0.01114,-0.06912,-0.04532,-0.02319,0.00031,-0.03098,-0.02014,-0.06088,-0.18311
7.8275,-0.00641,-0.02594,-0.02426,-0.15015,0.19211,-0.00748,0.00397,-0.01236,-0.05859,-0.04807,-0.02487,-0.00015,-0.03098,-0.02151,-0.06439,-0.22095
7.828,-0.00687,-0.01923,-0.01938,-0.22141,0.14465,-0.00717,-0.00168,-0.01419,-0.04166,-0.05051,-0.02518,-0.00122,-0.03082,-0.02213,-0.02197,-0.28671
7.8285,-0.00473,-0.0177,-0.01709,-0.19928,0.06088,-0.0087,-0.00153,-0.01602,-0.02518,-0.05188,-0.02441,-0.00015,-0.03006,-0.02289,0.03647,-0.3627
7.829,-0.00107,-0.02151,-0.0177,-0.11932,-0.02029,-0.01144,0.009,-0.01694,-0.01328,-0.05112,-0.02243,0.00198,-0.02975,-0.02274,0.04364,-0.40344
7.8295,0.00168,-0.0293,-0.01938,-0.02335,-0.07965,-0.01602,0.01465,-0.01633,-0.00977,-0.04608,-0.02029,0.00275,-0.02808,-0.02121,-0.02228,-0.36575
7.83,0.00122,-0.03937,-0.0177,0.08255,-0.11917,-0.0235,0.00656,-0.01465,-0.00839,-0.04074,-0.01846,0.0032,-0.02563,-0.0209,-0.08545,-0.24887
7.8305,-0.00015,-0.04608,-0.01129,0.18921,-0.14053,-0.02945,-0.00458,-0.01343,-0.0058,-0.03586,-0.01648,0.0032,-0.02411,-0.02213,-0.05478,-0.11002
7.831,-0.00046,-0.04639,0.00275,0.23453,-0.14236,-0.03815,-0.00961,-0.01389,-0.00015,-0.02823,-0.01602,0.00366,-0.02426,-0.02365,0.05707,-0.01053
7.8315,-0.00046,-0.04166,0.01572,0.1622,-0.12466,-0.04517,-0.00916,-0.01587,0.00687,-0.01724,-0.0145,0.00595,-0.02579,-0.02228,0.13641,0.03357
7.832,-0.00168,-0.0354,0.01663,-0.00092,-0.09338,-0.05234,-0.01053,-0.01877,0.01175,-0.0087,-0.0145,0.00824,-0.02762,-0.02136,0.11414,0.03632
7.8325,-0.00427,-0.02869,0.00641,-0.16418,-0.06744,-0.05737,-0.01541,-0.02029,0.01389,-0.00916,-0.01694,0.00763,-0.03021,-0.02167,0.04684,0.01785
7.833,-0.00473,-0.0209,-0.00427,-0.25085,-0.06149,-0.06165,-0.02487,-0.01846,0.01389,-0.01846,-0.01953,0.00381,-0.03265,-0.0238,0.02365,0.01663
7.8335,-0.00351,-0.01495,-0.01389,-0.24094,-0.06119,-0.06989,-0.03754,-0.01526,0.01404,-0.03113,-0.02213,-0.00031,-0.03448,-0.02487,0.05585,0.06607
7.834,-0.00198,-0.01251,-0.02502,-0.17105,-0.06165,-0.08362,-0.04898,-0.01205,0.0148,-0.03433,-0.02411,-0.00046,-0.03601,-0.02533,0.10193,0.13382
7.8345,-0.00305,-0.0145,-0.04074,-0.1091,-0.07187,-0.10086,-0.05219,-0.00916,0.01572,-0.02792,-0.02747,0.00153,-0.03815,-0.02747,0.12711,0.14557
7.835,-0.00473,-0.01907,-0.05569,-0.09857,-0.09171,-0.11353,-0.04044,-0.00641,0.01465,-0.01816,-0.03326,0.00122,-0.03906,-0.02838,0.11124,0.07339
7.8355,-0.00366,-0.02411,-0.06592,-0.12711,-0.10574,-0.11429,-0.01938,-0.00275,0.00885,-0.01663,-0.03525,-0.00381,-0.03937,-0.02838,0.05768,-0.02792
7.836,-0.00046,-0.02853,-0.07156,-0.16129,-0.11002,-0.09766,-0.00183,0.00214,-0.00153,-0.02167,-0.03235,-0.0119,-0.03876,-0.02594,0.00137,-0.09018
7.8365,0.00076,-0.02914,-0.07492,-0.18829,-0.12878,-0.07309,0.00488,0.00549,-0.01358,-0.02502,-0.02731,-0.01663,-0.03891,-0.02457,-0.02823,-0.0975
7.837,0.00046,-0.02625,-0.0769,-0.21332,-0.159,-0.05417,0.00229,0.00946,-0.02472,-0.02197,-0.02411,-0.01755,-0.03983,-0.02441,-0.04013,-0.07507
7.8375,0.00092,-0.0238,-0.07706,-0.22797,-0.1593,-0.04623,-0.0058,0.01175,-0.03433,-0.01846,-0.02335,-0.01587,-0.03967,-0.02411,-0.05325,-0.05341
7.838,-0.00031,-0.02457,-0.07797,-0.21103,-0.11124,-0.04227,-0.01633,0.01038,-0.04288,-0.01968,-0.02136,-0.01343,-0.04013,-0.02319,-0.06302,-0.04456
7.8385,-0.00336,-0.02655,-0.08194,-0.16647,-0.05127,-0.03082,-0.01953,0.00656,-0.05051,-0.01907,-0.01785,-0.00916,-0.04089,-0.02258,-0.05676,-0.0502
7.839,-0.0061,-0.02945,-0.08392,-0.13412,-0.02594,-0.01541,-0.00793,0.0032,-0.05508,-0.00793,-0.01465,-0.00504,-0.04074,-0.02258,-0.03769,-0.06851
7.8395,-0.00488,-0.03326,-0.07965,-0.14877,-0.03143,-0.01022,0.00931,0.00198,-0.05447,0.00916,-0.01587,-0.00214,-0.03952,-0.02319,-0.02167,-0.09048
7.84,-0.00015,-0.0383,-0.06836,-0.19699,-0.04028,-0.0264,0.0148,0.0032,-0.05035,0.02319,-0.01785,-0.00336,-0.03799,-0.02365,-0.01404,-0.09995
7.8405,0.00549,-0.04196,-0.0563,-0.233,-0.03342,-0.04959,0.00534,0.0058,-0.04669,0.02792,-0.01511,-0.00641,-0.0354,-0.0238,-0.01083,-0.08499
7.841,0.00946,-0.04333,-0.04837,-0.22797,-0.02228,-0.06195,-0.00641,0.00748,-0.04547,0.02808,-0.00427,-0.01022,-0.03372,-0.02228,-0.00641,-0.05325
7.8415,0.01373,-0.04333,-0.04181,-0.17487,-0.02014,-0.05371,-0.01144,0.00839,-0.04456,0.02548,0.01099,-0.01007,-0.03174,-0.02106,-0.00122,-0.01877
7.842,0.01801,-0.04333,-0.03723,-0.07111,-0.01678,-0.04211,-0.01373,0.00824,-0.04211,0.01892,0.01877,-0.00412,-0.0296,-0.01923,0.00351,0.00397
7.8425,0.02106,-0.04456,-0.0351,0.06119,0.00717,-0.03525,-0.01709,0.00778,-0.03601,0.00626,0.01205,0.00412,-0.02869,-0.01785,0.00412,0.00809
7.843,0.02075,-0.04852,-0.03464,0.15564,0.07477,-0.03342,-0.02136,0.00687,-0.02594,-0.00763,-0.00076,0.01007,-0.02869,-0.01801,-0.00107,-0.01175
7.8435,0.02029,-0.05692,-0.03387,0.14938,0.16083,-0.03189,-0.02365,0.0061,-0.01434,-0.01511,-0.00717,0.00916,-0.02869,-0.01831,-0.00946,-0.04776
7.844,0.0209,-0.0676,-0.02914,0.05127,0.20782,-0.03601,-0.02335,0.00504,-0.00641,-0.01297,-0.00076,0.00534,-0.02838,-0.01846,-0.0148,-0.08881
7.8445,0.01968,-0.07324,-0.02197,-0.05707,0.19272,-0.04868,-0.0235,0.00381,-0.0061,-0.00488,0.00458,0.00015,-0.02792,-0.01633,-0.01343,-0.13016
7.845,0.01633,-0.07065,-0.01663,-0.07828,0.13824,-0.06775,-0.02472,0.00092,-0.01129,0.0032,-0.00931,-0.00443,-0.02731,-0.01358,-0.00687,-0.1622
7.8455,0.01236,-0.06516,-0.01434,0.0238,0.07706,-0.08362,-0.02579,-0.00183,-0.01801,0.009,-0.04059,-0.00534,-0.02625,-0.01343,0.00046,-0.1712
7.846,0.01022,-0.06393,-0.01419,0.19516,0.01801,-0.0914,-0.02579,-0.0029,-0.02319,0.00412,-0.06729,-0.00351,-0.02808,-0.01755,0.00397,-0.14099
7.8465,0.00824,-0.06653,-0.01541,0.33005,-0.0444,-0.10086,-0.02533,-0.00366,-0.02533,-0.00809,-0.07111,0.00092,-0.03265,-0.02243,0.00183,-0.06821
7.847,0.00504,-0.06516,-0.01511,0.34546,-0.10956,-0.11673,-0.02502,-0.00122,-0.02411,-0.02518,-0.05844,0.00595,-0.03616,-0.0238,-0.00076,0.01984
7.8475,0.0032,-0.05569,-0.01297,0.24155,-0.16678,-0.12924,-0.02396,0.00153,-0.01892,-0.0383,-0.04684,0.0087,-0.03708,-0.02075,-0.00107,0.07736
7.848,0.0029,-0.0444,-0.00809,0.11993,-0.19791,-0.12253,-0.02182,0.00427,-0.0119,-0.04684,-0.04547,0.0058,-0.03326,-0.01877,0.00137,0.07263
7.8485,0.00168,-0.0383,0.00351,0.14053,-0.19257,-0.09567,-0.02045,0.00473,-0.00595,-0.05173,-0.04257,-0.00122,-0.02914,-0.01907,-0.00031,0.00687
7.849,-0.00397,-0.03784,0.02182,0.3714,-0.15671,-0.06531,-0.01877,0.00336,-0.00076,-0.05463,-0.02991,-0.0058,-0.02686,-0.02014,-0.01099,-0.0798
7.8495,-0.01266,-0.04303,0.04074,0.63919,-0.10803,-0.04364,-0.01938,0.00244,0.00732,-0.056,-0.01022,-0.0032,-0.02823,-0.02045,-0.02975,-0.13992
7.85,-0.01831,-0.05646,0.06195,0.65842,-0.04715,-0.0296,-0.02106,0.00214,0.01877,-0.05585,0.00717,0.0032,-0.03311,-0.01984,-0.04776,-0.15015
7.8505,-0.01801,-0.07446,0.09598,0.37064,0.01205,-0.02197,-0.02304,0.00092,0.02686,-0.05661,0.02548,0.00732,-0.04074,-0.0209,-0.0618,-0.09842
7.851,-0.01297,-0.08072,0.13336,0.03113,0.04425,-0.01907,-0.02411,-0.00168,0.02838,-0.05356,0.04883,0.00809,-0.04684,-0.02319,-0.07797,0.00687
7.8515,-0.00793,-0.0679,0.12894,-0.11368,0.0412,-0.01877,-0.02625,-0.00488,0.02396,-0.04547,0.06668,0.00748,-0.04852,-0.02487,-0.10529,0.11292
7.852,-0.00519,-0.04242,0.05325,-0.08179,0.02319,-0.02045,-0.02808,-0.00961,0.01495,-0.0322,0.06943,0.00443,-0.04776,-0.02518,-0.14191,0.14954
7.8525,-0.00458,-0.01801,-0.05997,-0.0354,0.01266,-0.01862,-0.02991,-0.01678,0.00595,-0.01816,0.05966,0.00107,-0.04684,-0.02487,-0.16937,0.08133
7.853,-0.00549,0.00031,-0.14954,-0.04425,0.01266,-0.01755,-0.0322,-0.02563,0.00046,-0.00061,0.04562,-0.00168,-0.04776,-0.02701,-0.17517,-0.06622
7.8535,-0.00519,0.01312,-0.18921,-0.06454,0.01541,-0.01831,-0.03479,-0.03265,0.00015,0.0177,0.02655,-0.00351,-0.05005,-0.02991,-0.1564,-0.20309
7.854,-0.00259,0.01907,-0.19348,-0.05722,0.00381,-0.02197,-0.03586,-0.03387,0.00092,0.03418,0.00259,-0.00473,-0.04974,-0.03159,-0.09109,-0.21561
7.8545,0.00259,0.01434,-0.17944,-0.03723,-0.01389,-0.02869,-0.03632,-0.03143,0.0,0.04272,-0.01633,-0.00534,-0.04257,-0.02838,0.04501,-0.07385
7.855,0.0087,0.00244,-0.15091,-0.02548,-0.02426,-0.03403,-0.03601,-0.02838,-0.00275,0.03464,-0.02319,-0.00549,-0.03174,-0.02441,0.20279,0.11108
7.8555,0.01129,-0.0119,-0.11826,-0.0209,-0.01999,-0.0386,-0.03632,-0.02579,-0.0032,0.01038,-0.01999,-0.00443,-0.0238,-0.02411,0.26077,0.19424
7.856,0.00946,-0.0238,-0.09537,-0.01541,-0.00366,-0.04166,-0.03586,-0.02441,-0.00229,-0.01266,-0.01678,-0.00351,-0.01968,-0.02655,0.17838,0.14145
7.8565,0.00687,-0.03128,-0.08713,-0.00839,0.01053,-0.04425,-0.03464,-0.02533,0.00046,-0.02396,-0.01862,-0.00397,-0.01816,-0.02716,0.06302,0.03189
7.857,0.00687,-0.03525,-0.08621,-0.00641,0.01099,-0.0444,-0.03204,-0.03113,0.00793,-0.02304,-0.01923,-0.00458,-0.01541,-0.02487,0.03372,-0.04807
7.8575,0.01129,-0.04044,-0.08148,-0.01404,0.00107,-0.04089,-0.02838,-0.03647,0.01709,-0.02029,-0.01434,-0.00473,-0.01389,-0.02289,0.0885,-0.07996
7.858,0.01556,-0.0502,-0.07004,-0.03952,-0.01373,-0.03799,-0.02747,-0.03494,0.02151,-0.02365,-0.01083,-0.00366,-0.01572,-0.02167,0.14221,-0.08804
7.8585,0.01709,-0.06424,-0.05371,-0.07919,-0.02701,-0.03754,-0.02823,-0.02777,0.0174,-0.03754,-0.02243,-0.00031,-0.02243,-0.02151,0.14664,-0.09262
7.859,0.0174,-0.0766,-0.0386,-0.10986,-0.0296,-0.03876,-0.02853,-0.02167,0.00687,-0.06424,-0.04776,0.00305,-0.02899,-0.01984,0.11627,-0.08804
7.8595,0.01862,-0.08423,-0.02655,-0.10315,-0.02441,-0.03769,-0.02579,-0.02045,-0.00366,-0.10025,-0.07004,0.0032,-0.03342,-0.01755,0.0824,-0.06393
7.86,0.02106,-0.08728,-0.02106,-0.05554,-0.02548,-0.03372,-0.02136,-0.0209,-0.01251,-0.13474,-0.07111,-0.00076,-0.03723,-0.01801,0.05814,-0.02411
7.8605,0.02075,-0.0824,-0.02075,0.00916,-0.04272,-0.02823,-0.01785,-0.02029,-0.02228,-0.15884,-0.05096,-0.00793,-0.04272,-0.02151,0.04379,0.01144
7.861,0.01801,-0.06943,-0.02319,0.05859,-0.07492,-0.02518,-0.01663,-0.0177,-0.03387,-0.1651,-0.02777,-0.01266,-0.04944,-0.02502,0.03799,0.02045
7.8615,0.01297,-0.0499,-0.02533,0.07217,-0.10269,-0.02243,-0.01755,-0.01602,-0.04745,-0.15472,-0.01755,-0.01465,-0.05402,-0.02609,0.03387,0.00427
7.862,0.00977,-0.03128,-0.02838,0.05005,-0.10971,-0.02151,-0.01633,-0.01465,-0.06378,-0.13123,-0.02167,-0.01572,-0.05432,-0.02594,0.02747,-0.01678
7.8625,0.00839,-0.0145,-0.03067,0.0145,-0.08102,-0.02716,-0.01511,-0.01389,-0.0795,-0.10071,-0.0325,-0.01678,-0.0499,-0.02563,0.01907,-0.02731
7.863,0.00977,-0.00168,-0.03006,-0.00259,-0.03174,-0.03983,-0.01434,-0.01343,-0.09201,-0.06378,-0.04257,-0.01526,-0.04639,-0.02655,0.01511,-0.03036
7.8635,0.01007,0.00397,-0.02594,0.00824,0.01221,-0.05005,-0.01572,-0.01282,-0.09918,-0.02106,-0.04929,-0.00961,-0.04395,-0.02747,0.01434,-0.0325
7.864,0.00778,0.00183,-0.0206,0.01114,0.04501,-0.05325,-0.01617,-0.0119,-0.09613,0.02518,-0.05157,-0.00153,-0.04135,-0.02655,0.01404,-0.03571
7.8645,0.0058,-0.00488,-0.01846,-0.02411,0.07248,-0.05081,-0.01587,-0.01175,-0.07828,0.07034,-0.04715,0.00168,-0.03571,-0.02411,0.0119,-0.04196
7.865,0.0061,-0.01144,-0.02045,-0.04807,0.09491,-0.04837,-0.01572,-0.01572,-0.04761,0.10376,-0.03525,0.0,-0.02975,-0.02121,0.0087,-0.05188
7.8655,0.00671,-0.01846,-0.0267,0.02777,0.1149,-0.04425,-0.01312,-0.02472,-0.01358,0.11963,-0.0177,-0.00275,-0.02777,-0.02151,0.00702,-0.06729
7.866,0.00626,-0.02457,-0.03418,0.17776,0.14206,-0.03601,-0.00946,-0.03357,0.00671,0.11398,-0.00412,0.00015,-0.03311,-0.02502,0.00763,-0.08759
7.8665,0.00565,-0.02823,-0.03906,0.25238,0.17288,-0.02487,-0.00626,-0.03479,0.00824,0.09598,0.00183,0.00565,-0.03677,-0.02655,0.00809,-0.11581
7.867,0.0087,-0.03036,-0.03723,0.14969,0.18646,-0.01678,-0.00488,-0.02655,0.00107,0.08636,-0.00336,0.00824,-0.03494,-0.02243,0.00626,-0.14221
7.8675,0.01373,-0.03479,-0.03174,-0.06317,0.15839,-0.01465,-0.00565,-0.01602,-0.00046,0.09445,-0.01862,0.0061,-0.02777,-0.01556,0.00473,-0.14023
7.868,0.01846,-0.04654,-0.0264,-0.23697,0.10315,-0.01938,-0.00809,-0.01068,0.00793,0.1033,-0.03555,0.00137,-0.02258,-0.00961,0.00519,-0.07629
7.8685,0.02045,-0.06943,-0.02121,-0.2916,0.04791,-0.02426,-0.01038,-0.00977,0.01724,0.09262,-0.04486,-0.00183,-0.02319,-0.0087,0.00946,0.04181
7.869,0.02213,-0.09506,-0.00793,-0.26016,0.01114,-0.02502,-0.01129,-0.01022,0.01938,0.06485,-0.03998,-0.00122,-0.02609,-0.01129,0.01282,0.14374
7.8695,0.02289,-0.10803,0.02075,-0.21149,-0.01114,-0.02731,-0.01022,-0.01175,0.0148,0.04288,-0.02548,0.00336,-0.02838,-0.01465,0.0145,0.16205
7.87,0.02228,-0.10345,0.05188,-0.18173,-0.03616,-0.03494,-0.00961,-0.0148,0.00702,0.03342,-0.00992,0.00778,-0.02869,-0.01587,0.01404,0.10788
7.8705,0.0209,-0.09003,0.0621,-0.17227,-0.06805,-0.04807,-0.01068,-0.0177,-0.00092,0.02441,-0.00076,0.00778,-0.02914,-0.01541,0.01511,0.04944
7.871,0.01892,-0.07629,0.04593,-0.18066,-0.09735,-0.06104,-0.01144,-0.01633,-0.00809,0.00809,0.00153,0.00366,-0.03036,-0.01541,0.01755,0.01999
7.8715,0.0177,-0.06042,0.01984,-0.19867,-0.10834,-0.06821,-0.01114,-0.01068,-0.01343,-0.009,-0.00061,-0.00076,-0.03006,-0.0177,0.01907,-0.00275
7.872,0.0177,-0.04288,0.00031,-0.20111,-0.09064,-0.06882,-0.00992,-0.0029,-0.01633,-0.01724,-0.00778,-0.00351,-0.02853,-0.02014,0.01862,-0.04211
7.8725,0.01663,-0.02869,-0.01587,-0.16693,-0.06088,-0.06851,-0.00778,0.00702,-0.01663,-0.01785,-0.0238,-0.00687,-0.02899,-0.02029,0.01221,-0.08423
7.873,0.01541,-0.01953,-0.03311,-0.11368,-0.05478,-0.07126,-0.0061,0.01633,-0.01587,-0.01938,-0.04181,-0.01251,-0.03098,-0.01877,-0.00198,-0.10498
7.8735,0.01343,-0.01236,-0.04883,-0.07751,-0.09277,-0.07858,-0.00534,0.02121,-0.01434,-0.02411,-0.04837,-0.01633,-0.03281,-0.0177,-0.02655,-0.10284
7.874,0.00961,-0.0061,-0.05447,-0.06821,-0.13687,-0.08774,-0.00458,0.01648,-0.01312,-0.02991,-0.03647,-0.01373,-0.03342,-0.01831,-0.05341,-0.08881
7.8745,0.00702,-0.00519,-0.04974,-0.06592,-0.12253,-0.09201,-0.00336,0.00504,-0.01251,-0.03296,-0.0148,-0.00443,-0.03418,-0.01923,-0.07263,-0.07141
7.875,0.00732,-0.00961,-0.04425,-0.05875,-0.04059,-0.08698,-0.0029,-0.00427,-0.01419,-0.03525,0.00153,0.00427,-0.03601,-0.01984,-0.08011,-0.05951
7.8755,0.00824,-0.01617,-0.0499,-0.05295,0.05035,-0.07401,-0.00397,-0.0087,-0.01572,-0.03693,0.00854,0.00656,-0.0386,-0.01968,-0.07919,-0.05875
7.876,0.01022,-0.02121,-0.06729,-0.05447,0.09216,-0.06012,-0.00397,-0.00977,-0.01648,-0.04105,0.01297,0.00641,-0.04059,-0.01907,-0.07645,-0.07324
7.8765,0.00946,-0.0264,-0.08484,-0.05966,0.08026,-0.05295,-0.00183,-0.01007,-0.01678,-0.04456,0.01785,0.009,-0.04181,-0.01877,-0.07263,-0.09293
7.877,0.00641,-0.0322,-0.09171,-0.06958,0.05219,-0.04532,0.0,-0.01114,-0.01648,-0.0499,0.02457,0.01358,-0.04333,-0.01877,-0.06821,-0.11078
7.8775,0.00351,-0.04059,-0.08789,-0.0975,0.03036,-0.03494,0.00015,-0.0116,-0.01556,-0.05371,0.03067,0.01404,-0.04349,-0.01923,-0.05798,-0.12085
7.878,0.00351,-0.04852,-0.07736,-0.13992,-0.00015,-0.02426,-0.00046,-0.01083,-0.01343,-0.05447,0.03387,0.01068,-0.04272,-0.01862,-0.03342,-0.13062
7.8785,0.00809,-0.05219,-0.06592,-0.16205,-0.06287,-0.01999,-0.00153,-0.01144,-0.00961,-0.05402,0.03113,0.00717,-0.03998,-0.01892,0.01022,-0.14847
7.879,0.01312,-0.0528,-0.06012,-0.13519,-0.15137,-0.0264,0.00031,-0.01556,-0.00671,-0.05859,0.02518,0.00793,-0.03738,-0.01923,0.06149,-0.16708
7.8795,0.01617,-0.05554,-0.05997,-0.07782,-0.23056,-0.03586,0.00427,-0.02319,-0.00412,-0.07034,0.01984,0.00946,-0.03418,-0.01923,0.09674,-0.17014
7.88,0.01587,-0.06638,-0.06149,-0.02762,-0.27496,-0.04181,0.00427,-0.03265,-0.00046,-0.07996,0.01602,0.01068,-0.03174,-0.01877,0.09766,-0.14709
7.8805,0.0116,-0.08316,-0.05905,-0.00076,-0.289,-0.04562,0.00046,-0.03708,0.00275,-0.08179,0.01343,0.01099,-0.02762,-0.01755,0.0737,-0.10513
7.881,0.00565,-0.09308,-0.05249,0.01709,-0.28671,-0.0502,-0.00244,-0.0322,0.00351,-0.07629,0.00977,0.0087,-0.02319,-0.01724,0.05219,-0.06638
7.8815,0.00336,-0.08942,-0.04562,0.03586,-0.25253,-0.05539,-0.00076,-0.01923,0.00366,-0.07095,0.00626,0.00519,-0.01892,-0.01694,0.04349,-0.04807
7.882,0.00259,-0.07645,-0.04242,0.04623,-0.17212,-0.05829,0.00351,-0.00092,0.0032,-0.06836,0.0,0.00336,-0.01694,-0.01633,0.03922,-0.04623
7.8825,0.00412,-0.06424,-0.04044,0.04135,-0.0737,-0.05722,0.00763,0.02243,0.00641,-0.06348,-0.01083,0.00488,-0.01633,-0.01526,0.03174,-0.04913
7.883,0.00656,-0.05569,-0.03784,0.03387,-0.02136,-0.05615,0.00946,0.04669,0.01175,-0.05478,-0.01968,0.00854,-0.0174,-0.01434,0.02472,-0.04791
7.8835,0.00809,-0.04761,-0.0322,0.04242,-0.03098,-0.05844,0.00946,0.06195,0.01389,-0.0441,-0.01862,0.00916,-0.01801,-0.01328,0.02121,-0.03922
7.884,0.00931,-0.03952,-0.02365,0.06027,-0.05112,-0.06042,0.0116,0.0592,0.00732,-0.03464,-0.00229,0.00885,-0.02014,-0.0148,0.02045,-0.0322
7.8845,0.00641,-0.03448,-0.01144,0.06287,-0.03387,-0.05707,0.01297,0.04196,-0.00549,-0.03006,0.02136,0.00778,-0.02243,-0.01648,0.01816,-0.03906
7.885,0.00198,-0.03433,0.0087,0.04074,0.01724,-0.04578,0.01297,0.02609,-0.01816,-0.02991,0.03357,0.00687,-0.02502,-0.01663,0.01526,-0.06119
7.8855,-0.00259,-0.03494,0.03372,0.00626,0.07095,-0.02975,0.01068,0.02029,-0.02686,-0.03525,0.02472,0.00488,-0.02716,-0.01617,0.01297,-0.0824
7.886,-0.00473,-0.0325,0.04959,-0.03555,0.10803,-0.01312,0.0061,0.0209,-0.03464,-0.04181,0.00366,0.00244,-0.02884,-0.01678,0.01099,-0.08438
7.8865,-0.00443,-0.02869,0.04684,-0.10468,0.11856,0.00061,0.00381,0.0206,-0.04532,-0.04883,-0.01297,-0.00122,-0.03128,-0.01801,0.01068,-0.065
7.887,-0.00229,-0.02655,0.02945,-0.19592,0.09308,0.00397,0.0029,0.01816,-0.05966,-0.0502,-0.0238,-0.00687,-0.0325,-0.0177,0.01175,-0.03876
7.8875,0.00076,-0.0293,0.009,-0.25436,0.03983,-0.00275,0.00214,0.0174,-0.07599,-0.04257,-0.03311,-0.01251,-0.03296,-0.01694,0.0116,-0.01907
7.888,0.00366,-0.03601,-0.00946,-0.23636,-0.01526,-0.00931,0.00122,0.02014,-0.09033,-0.02731,-0.04578,-0.01404,-0.03326,-0.01892,0.01083,-0.01022
7.8885,0.00351,-0.04318,-0.02838,-0.1683,-0.05432,-0.01282,0.00015,0.02319,-0.09979,-0.01343,-0.05402,-0.01266,-0.03235,-0.02441,0.0087,-0.00885
7.889,0.00275,-0.04837,-0.05005,-0.12024,-0.08255,-0.01709,0.00092,0.0235,-0.09872,0.00183,-0.05295,-0.01083,-0.03128,-0.02838,0.00641,-0.01053
7.8895,0.00107,-0.04913,-0.06989,-0.13,-0.11169,-0.02335,0.00397,0.02289,-0.09109,0.02472,-0.04913,-0.01053,-0.03159,-0.02762,0.00595,-0.01343
7.89,-0.00076,-0.04791,-0.08209,-0.1442,-0.14557,-0.02609,0.00717,0.02228,-0.08286,0.05157,-0.05051,-0.01144,-0.03067,-0.0238,0.00732,-0.01312
7.8905,-0.00122,-0.04822,-0.08377,-0.03479,-0.168,-0.02151,0.00748,0.02182,-0.07538,0.06134,-0.05447,-0.0116,-0.02731,-0.01801,0.00916,-0.00488
7.891,-0.00076,-0.04974,-0.07858,0.2655,-0.15762,-0.01678,0.00519,0.01892,-0.06393,0.03632,-0.05264,-0.01083,-0.02228,-0.01038,0.01083,0.00748
7.8915,-0.00107,-0.05203,-0.07263,0.61829,-0.1088,-0.02762,0.00183,0.01312,-0.0444,-0.01358,-0.04349,-0.00931,-0.01724,-0.00015,0.01038,0.01984
7.892,-0.00183,-0.056,-0.07019,0.76263,-0.0444,-0.056,-0.00183,0.00473,-0.02136,-0.05707,-0.0383,-0.00626,-0.01266,0.00793,0.00778,0.03372
7.8925,-0.00214,-0.06287,-0.06668,0.60165,-0.00305,-0.07874,-0.00549,-0.00046,-0.00473,-0.0737,-0.0415,-0.00092,-0.00824,0.01175,0.00671,0.05173
7.893,0.00137,-0.07156,-0.05905,0.31769,0.0058,-0.07538,-0.00809,-0.00015,0.00015,-0.06439,-0.04593,0.0032,-0.0029,0.01282,0.00702,0.06165
7.8935,0.00412,-0.07553,-0.04776,0.13702,0.00519,-0.05356,-0.00977,0.00351,-0.00214,-0.03464,-0.04074,0.00259,0.00183,0.01221,0.00763,0.04257
7.894,0.0029,-0.07233,-0.0386,0.07446,0.02548,-0.03143,-0.01114,0.00504,-0.00565,0.01663,-0.02563,-0.00275,0.00427,0.01053,0.00458,-0.01999
7.8945,-0.00092,-0.06332,-0.03357,0.00214,0.06836,-0.01175,-0.01297,0.0029,-0.0058,0.07828,-0.01083,-0.00702,0.00412,0.00595,-0.00153,-0.11642
7.895,-0.00198,-0.05417,-0.02029,-0.12283,0.10498,0.00534,-0.01144,0.00046,-0.00137,0.12512,-0.00214,-0.009,0.00229,0.00183,-0.0087,-0.22232
7.8955,-0.00046,-0.04517,0.00427,-0.22156,0.11505,0.00992,-0.00687,-0.00015,0.00519,0.12985,-0.00107,-0.00992,-0.00244,-0.00198,-0.01114,-0.3035
7.896,0.00275,-0.0354,0.03113,-0.22705,0.09567,-0.01175,-0.00244,-0.00153,0.01038,0.09399,-0.0032,-0.01175,-0.01053,-0.0058,-0.01282,-0.30533
7.8965,0.00626,-0.02274,0.03693,-0.14816,0.05768,-0.05249,-0.00168,-0.00412,0.01129,0.04425,-0.00656,-0.01343,-0.02289,-0.01312,-0.01556,-0.19333
7.897,0.00778,-0.01114,0.01663,-0.01221,0.00565,-0.0856,-0.0058,-0.00702,0.01022,0.0087,-0.00992,-0.0145,-0.03922,-0.02167,-0.01648,-0.02228
7.8975,0.00641,-0.00656,-0.01602,0.14786,-0.0502,-0.10101,-0.01526,-0.00916,0.00992,-0.0061,-0.01175,-0.01373,-0.05432,-0.02869,-0.01404,0.09171
7.898,0.00473,-0.01083,-0.04517,0.26917,-0.10208,-0.10223,-0.03265,-0.01068,0.01099,-0.00885,-0.01175,-0.00992,-0.06287,-0.03296,-0.01312,0.10086
7.8985,0.00519,-0.01923,-0.06409,0.28519,-0.14145,-0.10178,-0.056,-0.00854,0.01312,-0.01129,-0.01144,-0.00397,-0.06577,-0.03296,-0.01801,0.05646
7.899,0.00732,-0.0267,-0.07339,0.20096,-0.16617,-0.10208,-0.06958,-0.00244,0.01312,-0.0145,-0.01663,0.00122,-0.06714,-0.03052,-0.02655,0.02487
7.8995,0.00824,-0.03036,-0.07141,0.0914,-0.17609,-0.10178,-0.05783,0.0032,0.01236,-0.01724,-0.0325,0.0061,-0.06973,-0.02914,-0.02213,0.01465
7.9,0.00748,-0.03281,-0.06088,0.0116,-0.16403,-0.10101,-0.03128,0.00534,0.00946,-0.01907,-0.05432,0.01053,-0.07278,-0.0296,0.00961,0.0116
7.9005,0.00595,-0.03647,-0.04822,-0.04623,-0.12772,-0.1033,-0.01419,0.00412,0.00153,-0.02136,-0.05875,0.01358,-0.07187,-0.03052,0.05798,0.02182
7.901,0.00137,-0.04623,-0.03143,-0.1001,-0.08255,-0.10696,-0.01907,0.00229,-0.01022,-0.02731,-0.0267,0.01389,-0.06378,-0.02899,0.09705,0.04776
7.9015,-0.00336,-0.0618,-0.00549,-0.14221,-0.05325,-0.10529,-0.03128,0.00198,-0.01938,-0.0351,0.02686,0.01404,-0.05173,-0.02533,0.10803,0.06592
7.902,-0.0087,-0.07401,0.03601,-0.1622,-0.04761,-0.09445,-0.03586,0.00275,-0.0209,-0.04272,0.06195,0.0145,-0.04242,-0.02335,0.08881,0.05249
7.9025,-0.00977,-0.07339,0.08392,-0.168,-0.047,-0.08026,-0.03357,0.00519,-0.01572,-0.05112,0.05646,0.01419,-0.03754,-0.0235,0.04562,0.01892
7.903,-0.00687,-0.05798,0.11032,-0.1683,-0.0293,-0.06866,-0.03174,0.00702,-0.01205,-0.0592,0.02975,0.01221,-0.03494,-0.02396,-0.00443,-0.00702
7.9035,-0.00488,-0.03616,0.08072,-0.16205,0.00931,-0.06271,-0.03265,0.00656,-0.01068,-0.06714,0.01053,0.009,-0.03326,-0.02563,-0.03891,-0.01678
7.904,-0.00519,-0.01617,-0.00076,-0.14709,0.04593,-0.05844,-0.03433,0.00504,-0.01068,-0.07782,0.00137,0.00671,-0.03311,-0.02747,-0.04608,-0.02045
7.9045,-0.00366,-0.00198,-0.0885,-0.10361,0.06134,-0.05142,-0.03296,0.00412,-0.01129,-0.09384,-0.00977,0.00565,-0.03479,-0.03036,-0.03662,-0.02502
7.905,0.00031,0.00412,-0.14389,-0.00565,0.0531,-0.04272,-0.03098,0.00443,-0.01678,-0.11581,-0.02441,0.00458,-0.03677,-0.03082,-0.02258,-0.02823
7.9055,0.00656,-0.00137,-0.16449,0.1149,0.03387,-0.03403,-0.02945,0.00656,-0.02625,-0.13275,-0.03326,0.00305,-0.03845,-0.02991,-0.00885,-0.03418
7.906,0.00946,-0.01862,-0.16281,0.17395,0.01633,-0.02686,-0.02884,0.00778,-0.03281,-0.13901,-0.03372,0.00153,-0.04074,-0.02945,0.00198,-0.05203
7.9065,0.00885,-0.04608,-0.14648,0.13229,0.00671,-0.02289,-0.02625,0.00809,-0.03006,-0.13336,-0.0351,0.00153,-0.04242,-0.02853,0.00397,-0.08194
7.907,0.00549,-0.07294,-0.11765,0.04623,-0.00183,-0.02228,-0.02411,0.00366,-0.02045,-0.12177,-0.03891,0.00214,-0.0415,-0.02625,-0.00275,-0.11642
7.9075,0.0,-0.08698,-0.08774,-0.00793,-0.01068,-0.02594,-0.02365,-0.00626,-0.00885,-0.10742,-0.03525,0.00122,-0.03799,-0.02243,-0.01068,-0.14404
7.908,-0.0061,-0.0853,-0.0679,-0.01343,-0.02167,-0.02533,-0.02365,-0.01404,-0.00061,-0.09003,-0.0174,-0.00229,-0.03387,-0.01953,-0.01373,-0.15915
7.9085,-0.00977,-0.07431,-0.06058,0.00168,-0.0235,-0.02075,-0.0238,-0.01404,0.00336,-0.06638,-0.00183,-0.00305,-0.03189,-0.01923,-0.0148,-0.14923
7.909,-0.0087,-0.06119,-0.05554,0.01434,-0.009,-0.01541,-0.02151,-0.00763,0.00153,-0.03525,-0.00702,-0.00244,-0.03265,-0.01984,-0.01846,-0.09079
7.9095,-0.00381,-0.04898,-0.03815,0.01587,0.01648,-0.01587,-0.01938,-0.00259,-0.00641,-0.00565,-0.0235,0.0,-0.03372,-0.02197,-0.02396,0.01465
7.91,-0.00015,-0.03784,-0.00824,-0.00381,0.04059,-0.02472,-0.01938,-0.00168,-0.01999,0.01205,-0.03479,0.00259,-0.03311,-0.02289,-0.02472,0.09048
7.9105,0.00259,-0.03128,0.0174,-0.04517,0.0499,-0.03418,-0.01968,-0.0032,-0.0296,0.01984,-0.03479,0.0058,-0.03098,-0.02289,-0.01633,0.05646
7.911,0.00153,-0.02579,0.01663,-0.08224,0.03525,-0.04242,-0.01999,-0.00397,-0.02914,0.03082,-0.02777,0.00717,-0.02853,-0.02213,0.00351,-0.04974
7.9115,-0.00153,-0.01663,-0.01083,-0.08667,0.00061,-0.05844,-0.01831,-0.00107,-0.01984,0.05722,-0.01343,0.00244,-0.02823,-0.01999,0.02716,-0.09552
7.912,-0.00626,-0.00626,-0.04471,-0.06821,-0.0386,-0.08636,-0.01694,0.00229,-0.00748,0.08728,0.01099,-0.00793,-0.02792,-0.0174,0.04486,-0.01114
7.9125,-0.01083,-0.00153,-0.06439,-0.0563,-0.05829,-0.11642,-0.0174,0.00412,0.00488,0.09415,0.03204,-0.0174,-0.02594,-0.01495,0.05661,0.12009
7.913,-0.01358,-0.0058,-0.06699,-0.06165,-0.04837,-0.13321,-0.01923,0.00198,0.01633,0.07065,0.03326,-0.01816,-0.02396,-0.01465,0.06393,0.17181
7.9135,-0.01404,-0.01328,-0.06378,-0.07095,-0.02289,-0.13565,-0.0209,-0.00244,0.02167,0.03906,0.01541,-0.01251,-0.02426,-0.01678,0.07034,0.11688
7.914,-0.01251,-0.01892,-0.05737,-0.07492,-0.00839,-0.13168,-0.02136,-0.00519,0.02151,0.0267,-0.00046,-0.00931,-0.02487,-0.01923,0.07599,0.02884
7.9145,-0.00839,-0.0206,-0.04715,-0.06561,-0.02258,-0.12421,-0.02075,-0.0029,0.01892,0.04089,-0.00427,-0.01175,-0.02533,-0.0209,0.08835,-0.02045
7.915,-0.00305,-0.02045,-0.0351,-0.02441,-0.06454,-0.11002,-0.01984,0.00122,0.01465,0.06317,0.00046,-0.01694,-0.02594,-0.0209,0.10681,-0.02884
7.9155,0.00092,-0.02167,-0.02777,0.05737,-0.11353,-0.0914,-0.01831,0.00336,0.00687,0.07263,0.00168,-0.0209,-0.0267,-0.01999,0.11932,-0.03723
7.916,0.00305,-0.02518,-0.02716,0.1445,-0.15472,-0.07553,-0.0174,0.00153,-0.00687,0.06912,-0.00031,-0.02243,-0.02777,-0.01984,0.10986,-0.07477
7.9165,0.00473,-0.03098,-0.02853,0.16998,-0.1767,-0.06882,-0.01831,-0.0029,-0.02167,0.06409,-0.00244,-0.02258,-0.02777,-0.02029,0.07477,-0.11292
7.917,0.00748,-0.0351,-0.0293,0.11658,-0.17776,-0.06958,-0.02274,-0.00671,-0.03021,0.06134,-0.00458,-0.01892,-0.02792,-0.02167,0.03662,-0.09445
7.9175,0.01144,-0.03632,-0.02991,0.03952,-0.15213,-0.07126,-0.02655,-0.00717,-0.03113,0.05814,-0.00732,-0.01129,-0.02731,-0.02228,0.01541,0.00015
7.918,0.01541,-0.03418,-0.02823,0.00031,-0.10529,-0.06912,-0.02792,-0.00458,-0.03006,0.05554,-0.0116,-0.00748,-0.02686,-0.02243,0.00076,0.11139
7.9185,0.01663,-0.0325,-0.02487,-0.00397,-0.0499,-0.06454,-0.02747,-0.00153,-0.0322,0.05539,-0.01785,-0.01129,-0.02579,-0.02167,-0.0267,0.14084
7.919,0.01495,-0.0351,-0.02121,-0.01099,-0.009,-0.06027,-0.02777,-0.00275,-0.03784,0.05646,-0.02426,-0.01755,-0.02579,-0.02258,-0.06821,0.06546
7.9195,0.01297,-0.04471,-0.0209,-0.03845,0.00366,-0.05508,-0.02731,-0.00488,-0.04166,0.05615,-0.02853,-0.01755,-0.02594,-0.02441,-0.10284,-0.02747
7.92,0.01328,-0.06119,-0.02441,-0.07324,-0.00717,-0.04852,-0.02655,-0.00565,-0.03967,0.04852,-0.02747,-0.00916,-0.02747,-0.02487,-0.10757,-0.06058
7.9205,0.01495,-0.08011,-0.0293,-0.10056,-0.01633,-0.0412,-0.02518,-0.00412,-0.03098,0.0325,-0.0206,0.0032,-0.02884,-0.02533,-0.07996,-0.065
7.921,0.01831,-0.08987,-0.03357,-0.1091,-0.01526,-0.0383,-0.02502,-0.00427,-0.0206,0.00702,-0.01419,0.0145,-0.02975,-0.02563,-0.03632,-0.10834
7.9215,0.02136,-0.08896,-0.03586,-0.08514,-0.00931,-0.03891,-0.02441,-0.0061,-0.01343,-0.01892,-0.01022,0.01984,-0.0296,-0.02625,-0.00275,-0.17685
7.922,0.02151,-0.08362,-0.03708,-0.02396,-0.01144,-0.04257,-0.02319,-0.00793,-0.0119,-0.03647,-0.01007,0.0177,-0.03052,-0.02457,0.00916,-0.20676
7.9225,0.01907,-0.07721,-0.03601,0.04562,-0.02258,-0.04501,-0.02136,-0.00763,-0.01526,-0.04318,-0.01068,0.01068,-0.0322,-0.02136,0.0119,-0.18845
7.923,0.01938,-0.06592,-0.0322,0.07553,-0.02792,-0.04349,-0.01953,-0.00504,-0.01678,-0.04059,-0.01129,0.00504,-0.03311,-0.01831,0.01129,-0.17227
7.9235,0.02258,-0.04913,-0.02777,0.05295,-0.01556,-0.03891,-0.01709,-0.00397,-0.01556,-0.03708,-0.0116,0.00275,-0.0351,-0.01678,-0.02228,-0.19608
7.924,0.0264,-0.03632,-0.02274,0.01007,0.00748,-0.03265,-0.0145,-0.00412,-0.01358,-0.03937,-0.01175,0.00259,-0.03677,-0.01801,-0.08453,-0.24963
7.9245,0.02686,-0.03403,-0.01923,-0.01907,0.01343,-0.02823,-0.01343,-0.00488,-0.01465,-0.04654,-0.00931,0.00046,-0.03799,-0.0206,-0.11017,-0.3006
7.925,0.02319,-0.03357,-0.01602,-0.03448,-0.00717,-0.02899,-0.01404,-0.00488,-0.01862,-0.05447,-0.0032,-0.00275,-0.03769,-0.02151,-0.05646,-0.33005
7.9255,0.02121,-0.02869,-0.01526,-0.05386,-0.03174,-0.03372,-0.01389,-0.00259,-0.02197,-0.0563,-0.00122,-0.00443,-0.03647,-0.02167,0.01892,-0.33768
7.926,0.0235,-0.02197,-0.01633,-0.08102,-0.02777,-0.03586,-0.01358,0.00092,-0.0209,-0.0531,-0.00916,-0.00366,-0.03708,-0.0209,0.04272,-0.29907
7.9265,0.02747,-0.01785,-0.01556,-0.10193,0.01236,-0.03387,-0.01373,0.00717,-0.01541,-0.05112,-0.0293,-0.00366,-0.0386,-0.02106,0.01907,-0.17868
7.927,0.02869,-0.01587,-0.01358,-0.10864,0.08194,-0.03342,-0.01526,0.02411,-0.01053,-0.05142,-0.04791,-0.00427,-0.04013,-0.02197,0.00183,-0.00626
7.9275,0.02853,-0.01068,-0.01205,-0.10681,0.15915,-0.03769,-0.01862,0.05768,-0.00717,-0.05402,-0.04959,-0.0058,-0.04044,-0.02167,0.00839,0.11475
7.928,0.02808,-0.00137,-0.0119,-0.10971,0.21286,-0.04318,-0.02167,0.09491,-0.00305,-0.0589,-0.03586,-0.00763,-0.03952,-0.02121,0.01648,0.12497
7.9285,0.0238,0.00809,-0.0119,-0.12085,0.20554,-0.04761,-0.02335,0.10468,0.00443,-0.06531,-0.02411,-0.00854,-0.03998,-0.0209,0.01068,0.07919
7.929,0.01373,0.01419,-0.00732,-0.13306,0.1149,-0.05463,-0.0238,0.07156,0.01343,-0.07065,-0.02731,-0.00931,-0.04089,-0.02167,0.00046,0.05539
7.9295,0.00244,0.01358,-0.00107,-0.13916,-0.03601,-0.06699,-0.02151,0.01572,0.01617,-0.07233,-0.0386,-0.00931,-0.04135,-0.02197,-0.00183,0.05936
7.93,-0.00504,0.00168,-0.00565,-0.13733,-0.2037,-0.07767,-0.01724,-0.0354,0.00748,-0.06973,-0.05081,-0.01038,-0.04135,-0.02243,0.0032,0.05341
7.9305,-0.00763,-0.01999,-0.02884,-0.1268,-0.32959,-0.07797,-0.01526,-0.07202,-0.01144,-0.06485,-0.05936,-0.01129,-0.04196,-0.02472,0.0087,0.03326
7.931,-0.00946,-0.04227,-0.05783,-0.10925,-0.37582,-0.06699,-0.01602,-0.09628,-0.03082,-0.06073,-0.06287,-0.01221,-0.04242,-0.02686,0.0119,0.01785
7.9315,-0.00946,-0.05402,-0.06897,-0.08698,-0.36469,-0.05493,-0.01938,-0.10712,-0.04486,-0.05783,-0.05173,-0.01205,-0.04166,-0.02625,0.01205,0.01419
7.932,-0.00473,-0.0528,-0.05386,-0.06165,-0.34637,-0.04929,-0.02472,-0.09964,-0.05295,-0.05417,-0.02899,-0.01221,-0.03983,-0.02243,0.00992,0.01129
7.9325,0.00061,-0.04532,-0.02838,-0.03647,-0.32684,-0.04303,-0.02945,-0.08026,-0.05569,-0.05081,-0.00702,-0.01328,-0.03815,-0.01678,0.00885,0.00626
7.933,0.00519,-0.03937,-0.00931,-0.01526,-0.26016,-0.03342,-0.03281,-0.06027,-0.05249,-0.04807,0.0058,-0.01404,-0.03616,-0.01312,0.01282,0.00366
7.9335,0.00793,-0.0351,-0.00366,-0.00137,-0.13885,-0.01923,-0.03159,-0.04486,-0.04761,-0.04318,0.01144,-0.01328,-0.03403,-0.01297,0.01724,-0.00015
7.934,0.00671,-0.03311,-0.00671,0.00473,-0.0354,-0.00763,-0.02762,-0.03006,-0.04623,-0.03555,0.01541,-0.01221,-0.0325,-0.01556,0.01938,-0.0177
7.9345,0.00092,-0.03418,-0.01465,0.00671,-0.01465,0.00137,-0.02548,-0.00595,-0.0473,-0.02762,0.01999,-0.01007,-0.03067,-0.01694,0.01877,-0.04608
7.935,-0.00763,-0.03464,-0.02197,0.00992,-0.05951,0.00656,-0.03067,0.02121,-0.04211,-0.02869,0.01938,-0.00946,-0.0267,-0.01343,0.01892,-0.06958
7.9355,-0.01266,-0.02869,-0.02609,0.01587,-0.11093,0.00687,-0.03998,0.02579,-0.02975,-0.04089,0.00946,-0.00961,-0.02228,-0.00885,0.02274,-0.0766
7.936,-0.01221,-0.01785,-0.02335,0.02655,-0.13062,0.00351,-0.04822,-0.00259,-0.02106,-0.06256,-0.00641,-0.00839,-0.02213,-0.00656,0.02945,-0.07141
7.9365,-0.01099,-0.01114,-0.01587,0.03754,-0.12253,-0.00504,-0.0441,-0.04456,-0.02304,-0.08484,-0.0174,-0.00656,-0.02579,-0.00839,0.03784,-0.05737
7.937,-0.01465,-0.01556,-0.0116,0.04227,-0.10345,-0.01663,-0.01297,-0.0676,-0.02914,-0.10712,-0.01556,-0.00702,-0.03036,-0.01282,0.04196,-0.03204
7.9375,-0.02258,-0.02808,-0.01572,0.03799,-0.07935,-0.02701,0.0441,-0.06973,-0.0296,-0.12665,-0.00717,-0.01114,-0.03342,-0.01419,0.0412,0.00809
7.938,-0.02899,-0.03754,-0.03311,0.02884,-0.05096,-0.03174,0.08942,-0.06302,-0.02304,-0.1384,-0.00351,-0.01526,-0.03403,-0.0145,0.03754,0.05692
7.9385,-0.02899,-0.04105,-0.05783,0.02213,-0.0174,-0.0322,0.0885,-0.04959,-0.01526,-0.1358,-0.00778,-0.01831,-0.03448,-0.01526,0.02838,0.0946
7.939,-0.02213,-0.04013,-0.07751,0.02228,0.01007,-0.03067,0.05585,-0.02426,-0.01114,-0.11948,-0.01404,-0.02121,-0.03387,-0.01541,0.01236,0.11475
7.9395,-0.01251,-0.03769,-0.08224,0.02808,0.02289,-0.03357,0.03265,0.00183,-0.01175,-0.08789,-0.01755,-0.02167,-0.03387,-0.01419,-0.00809,0.1268
7.94,-0.00259,-0.03952,-0.07477,0.03448,0.01587,-0.04089,0.02914,0.01099,-0.0145,-0.04211,-0.01785,-0.01862,-0.03372,-0.01404,-0.02533,0.12909
7.9405,0.00656,-0.05051,-0.06699,0.0386,0.00565,-0.04776,0.02594,0.00534,-0.01678,0.0148,-0.01663,-0.01175,-0.03296,-0.0148,-0.03265,0.09338
7.941,0.01221,-0.06805,-0.06165,0.03769,0.00626,-0.04913,0.01389,0.01053,-0.01526,0.07538,-0.01541,-0.00565,-0.03143,-0.01663,-0.02579,0.01129
7.9415,0.01526,-0.08087,-0.05478,0.02869,0.01648,-0.04486,0.00244,0.0383,-0.00992,0.13123,-0.01282,-0.00214,-0.03021,-0.01678,-0.01419,-0.08728
7.942,0.01877,-0.07797,-0.04486,0.01328,0.04242,-0.03845,-0.00443,0.06882,-0.00427,0.16205,-0.01175,-0.00198,-0.03021,-0.01572,-0.01114,-0.16602
7.9425,0.02274,-0.06226,-0.03479,-0.00214,0.0853,-0.03174,-0.01266,0.07629,-0.00046,0.15076,-0.01099,-0.00229,-0.03174,-0.01404,-0.02228,-0.20477
7.943,0.02579,-0.04211,-0.02914,-0.0119,0.1506,-0.02792,-0.02472,0.05981,0.00092,0.09857,-0.01007,-0.00381,-0.03113,-0.01404,-0.03342,-0.19455
7.9435,0.02472,-0.02411,-0.02777,-0.01862,0.21484,-0.03098,-0.03265,0.03311,0.00031,0.03723,-0.01022,-0.00717,-0.03036,-0.01465,-0.02899,-0.14771
7.944,0.01755,-0.01221,-0.03006,-0.02548,0.2475,-0.04562,-0.02563,0.01053,-0.00168,0.00183,-0.01038,-0.00839,-0.03067,-0.0145,0.00488,-0.10956
7.9445,0.00931,-0.00656,-0.0322,-0.02869,0.22614,-0.07034,-0.00778,-0.00366,-0.00336,-0.00732,-0.01221,-0.00244,-0.03128,-0.01343,0.0737,-0.12421
7.945,0.00244,-0.00809,-0.03311,-0.02289,0.14862,-0.09323,0.00549,-0.01022,-0.00397,-0.00366,-0.01404,0.00687,-0.03311,-0.01373,0.1474,-0.19104
7.9455,-0.00031,-0.01526,-0.03571,-0.01556,0.03525,-0.10132,0.00748,-0.00824,-0.00366,0.00198,-0.01587,0.01328,-0.03448,-0.01465,0.17029,-0.2565
7.946,-0.00366,-0.02243,-0.03922,-0.01007,-0.0824,-0.09048,0.00183,0.00015,-0.00381,0.00854,-0.01633,0.01511,-0.03494,-0.01572,0.12436,-0.26291
7.9465,-0.01022,-0.02808,-0.04303,-0.00763,-0.17853,-0.06989,-0.00366,0.01266,-0.00473,0.01129,-0.01617,0.01694,-0.03448,-0.01617,0.05646,-0.1976
7.947,-0.01785,-0.03235,-0.04471,-0.00473,-0.23727,-0.05005,-0.00656,0.02167,-0.00702,0.00305,-0.01663,0.01862,-0.03464,-0.01587,0.0206,-0.08987
7.9475,-0.0235,-0.03952,-0.04242,-0.00397,-0.26489,-0.03647,-0.01083,0.01923,-0.00992,-0.01221,-0.01587,0.01556,-0.03372,-0.01633,0.01907,0.01068
7.948,-0.02426,-0.04898,-0.04028,-0.01114,-0.26169,-0.02884,-0.01572,0.00259,-0.01221,-0.02304,-0.01663,0.00717,-0.03326,-0.01663,0.01938,0.05768
7.9485,-0.02106,-0.05783,-0.03769,-0.02533,-0.21652,-0.02792,-0.01709,-0.01801,-0.01373,-0.02609,-0.01724,-0.00015,-0.03387,-0.01709,0.00137,0.04318
7.949,-0.01831,-0.06866,-0.03616,-0.03448,-0.12939,-0.03036,-0.01572,-0.03311,-0.01587,-0.02838,-0.01694,-0.00183,-0.03647,-0.0174,-0.02594,0.0116
7.9495,-0.01968,-0.08148,-0.03311,-0.02869,-0.03738,-0.03159,-0.01419,-0.03967,-0.01678,-0.03159,-0.01572,0.00015,-0.03799,-0.01755,-0.04166,0.00183
7.95,-0.02396,-0.08789,-0.02899,-0.01007,0.01587,-0.02747,-0.01572,-0.03723,-0.01526,-0.03387,-0.0145,0.00183,-0.03708,-0.01572,-0.03799,0.00885
7.9505,-0.0293,-0.07996,-0.02792,0.01251,0.0145,-0.02274,-0.01846,-0.02716,-0.01297,-0.03311,-0.01389,0.00259,-0.03479,-0.01465,-0.02747,0.00671
7.951,-0.03342,-0.06058,-0.02792,0.03189,-0.0058,-0.02533,-0.02106,-0.01358,-0.01038,-0.03143,-0.01434,0.00443,-0.03403,-0.01465,-0.02335,-0.01053
7.9515,-0.03586,-0.04318,-0.03098,0.04501,-0.01114,-0.03235,-0.02045,-0.00183,-0.00809,-0.0296,-0.01556,0.00763,-0.03464,-0.01541,-0.02686,-0.02823
7.952,-0.0354,-0.03586,-0.03326,0.05035,-0.00137,-0.04013,-0.01923,0.00916,-0.00702,-0.02884,-0.01633,0.0087,-0.03586,-0.01526,-0.0322,-0.03555
7.9525,-0.03403,-0.03799,-0.02609,0.05203,0.01144,-0.04547,-0.01556,0.01846,-0.00671,-0.02777,-0.01724,0.00793,-0.0354,-0.01511,-0.03494,-0.0354
7.953,-0.03494,-0.04211,-0.00778,0.05295,0.0145,-0.05325,-0.01297,0.01984,-0.00732,-0.02716,-0.01694,0.00809,-0.03464,-0.01526,-0.04028,-0.0354
7.9535,-0.04166,-0.04456,0.00961,0.04807,0.01373,-0.06256,-0.01221,0.01221,-0.00824,-0.0267,-0.01572,0.01038,-0.03296,-0.01617,-0.04745,-0.03708
7.954,-0.05142,-0.04562,0.01389,0.03036,0.01221,-0.0679,-0.01251,0.00275,-0.01083,-0.0264,-0.01389,0.01465,-0.03174,-0.01633,-0.04715,-0.03693
7.9545,-0.05798,-0.04807,0.00061,0.00122,0.01587,-0.06378,-0.01328,0.00076,-0.01312,-0.02594,-0.01282,0.01785,-0.03113,-0.01617,-0.03235,-0.03143
7.955,-0.06073,-0.05234,-0.01999,-0.0267,0.02609,-0.05417,-0.01694,0.00488,-0.01587,-0.02625,-0.01312,0.01953,-0.03204,-0.01785,-0.01862,-0.02472
7.9555,-0.05966,-0.05432,-0.03876,-0.03937,0.04425,-0.04425,-0.02426,0.00839,-0.01968,-0.02716,-0.01343,0.01968,-0.03357,-0.01892,-0.01724,-0.01968
7.956,-0.0592,-0.05249,-0.05295,-0.03265,0.06775,-0.03815,-0.03326,0.00839,-0.02533,-0.02716,-0.01328,0.01862,-0.03448,-0.01862,-0.009,-0.01663
7.9565,-0.06058,-0.04959,-0.06454,-0.01709,0.08362,-0.03662,-0.04059,0.00519,-0.03113,-0.02823,-0.01297,0.02029,-0.03387,-0.01816,0.02914,-0.01328
7.957,-0.06287,-0.04959,-0.07324,-0.00763,0.07706,-0.03906,-0.04456,0.00214,-0.03372,-0.03098,-0.01389,0.0264,-0.03342,-0.01846,0.07599,-0.00916
7.9575,-0.06531,-0.05386,-0.07919,-0.00931,0.05463,-0.04333,-0.04578,-0.00092,-0.03052,-0.03571,-0.01495,0.03036,-0.03296,-0.01968,0.09232,-0.00793
7.958,-0.06714,-0.06042,-0.08087,-0.01282,0.02853,-0.04807,-0.04547,-0.00168,-0.02426,-0.03967,-0.01419,0.02457,-0.0322,-0.01984,0.07645,-0.00961
7.9585,-0.06638,-0.06744,-0.08301,-0.01297,0.01114,-0.05295,-0.04181,-0.00153,-0.02045,-0.04364,-0.01572,0.01068,-0.03067,-0.01877,0.06271,-0.01617
7.959,-0.06699,-0.07797,-0.09094,-0.01022,0.00381,-0.05753,-0.03052,0.00015,-0.02045,-0.04639,-0.01572,-0.00244,-0.03098,-0.01755,0.06058,-0.02472
7.9595,-0.06927,-0.09232,-0.09796,-0.00412,-0.0032,-0.06119,-0.0116,0.00244,-0.02136,-0.04578,-0.01465,-0.00778,-0.03204,-0.01648,0.0563,-0.03189
7.96,-0.07141,-0.10544,-0.09506,0.00732,-0.02014,-0.06973,0.00992,0.00443,-0.02228,-0.0415,-0.01266,-0.00778,-0.03387,-0.01633,0.04196,-0.03525
7.9605,-0.07233,-0.10986,-0.09171,0.01938,-0.03433,-0.08835,0.02487,0.00671,-0.02136,-0.03616,-0.0119,-0.00534,-0.0354,-0.01633,0.03006,-0.03296
7.961,-0.07004,-0.10132,-0.09964,0.02487,-0.02914,-0.11307,0.02838,0.00977,-0.01968,-0.03326,-0.01144,-0.00229,-0.03662,-0.01572,0.02884,-0.02487
7.9615,-0.06638,-0.07874,-0.10345,0.01999,0.00519,-0.12451,0.02274,0.01068,-0.01831,-0.03098,-0.01114,0.00061,-0.03784,-0.0145,0.03098,-0.02121
7.962,-0.06302,-0.04669,-0.07813,0.00854,0.04822,-0.1088,0.01297,0.01114,-0.0177,-0.02701,-0.01083,0.00275,-0.03845,-0.01373,0.02457,-0.03494
7.9625,-0.06226,-0.01694,-0.02319,-0.00305,0.08133,-0.07095,0.00153,0.00839,-0.01755,-0.02014,-0.01022,0.00427,-0.03891,-0.01419,0.00778,-0.06119
7.963,-0.06241,0.0032,0.0383,-0.00961,0.09766,-0.0325,-0.00824,0.00259,-0.01755,-0.01297,-0.00946,0.00809,-0.03906,-0.0145,-0.01297,-0.08041
7.9635,-0.06409,0.01541,0.08789,-0.01236,0.09903,-0.00885,-0.0145,-0.00168,-0.01648,-0.00961,-0.009,0.01404,-0.03922,-0.0145,-0.03174,-0.08728
7.964,-0.06683,0.02808,0.12222,-0.01465,0.09018,-0.00168,-0.01984,-0.00305,-0.01678,-0.00916,-0.00946,0.01907,-0.03922,-0.01465,-0.04807,-0.1033
7.9645,-0.07141,0.03891,0.13626,-0.02121,0.06973,-0.00061,-0.02991,-0.00305,-0.0177,-0.0119,-0.01053,0.0209,-0.03937,-0.01495,-0.06638,-0.1355
7.965,-0.07721,0.04059,0.12283,-0.02945,0.05341,-0.00229,-0.04471,-0.00473,-0.01892,-0.01617,-0.01221,0.01984,-0.04013,-0.01663,-0.09552,-0.14435
7.9655,-0.08255,0.03006,0.08041,-0.0351,0.03662,0.00244,-0.05493,-0.00687,-0.01999,-0.0209,-0.01358,0.01709,-0.04242,-0.01968,-0.14252,-0.08347
7.966,-0.08698,0.01434,0.02365,-0.03372,-0.00717,0.01328,-0.0528,-0.00732,-0.01846,-0.02396,-0.01297,0.01526,-0.04318,-0.0206,-0.19745,0.02151
7.9665,-0.08911,-0.00061,-0.02594,-0.02747,-0.08484,0.02533,-0.04242,-0.00687,-0.01511,-0.02502,-0.01373,0.01358,-0.04074,-0.01709,-0.2298,0.08331
7.967,-0.08575,-0.01312,-0.05753,-0.02319,-0.16251,0.0325,-0.03265,-0.00702,-0.01251,-0.0267,-0.01236,0.01465,-0.03448,-0.01266,-0.20828,0.05539
7.9675,-0.07477,-0.02304,-0.06851,-0.02365,-0.19547,0.02945,-0.02411,-0.00671,-0.01175,-0.02777,-0.01083,0.01633,-0.02884,-0.00931,-0.11642,-0.01328
7.968,-0.05829,-0.03387,-0.06577,-0.02792,-0.1825,0.01862,-0.01129,-0.0032,-0.01236,-0.02716,-0.00931,0.01724,-0.02609,-0.00977,0.05066,-0.05798
7.9685,-0.04242,-0.05356,-0.06302,-0.03006,-0.15793,-0.00351,0.00641,0.00092,-0.01373,-0.02579,-0.01007,0.01602,-0.02579,-0.01144,0.24612,-0.07339
7.969,-0.03403,-0.08667,-0.07462,-0.02625,-0.14099,-0.04105,0.02533,0.00275,-0.01572,-0.02533,-0.01236,0.01434,-0.02731,-0.01221,0.35431,-0.08453
7.9695,-0.03311,-0.12558,-0.10025,-0.01755,-0.11688,-0.08957,0.03998,0.00214,-0.01587,-0.02518,-0.01205,0.01312,-0.02731,-0.01205,0.29572,-0.09674
7.97,-0.03494,-0.15549,-0.12253,-0.00885,-0.07187,-0.12192,0.04105,-0.00015,-0.01511,-0.02518,-0.01114,0.01282,-0.02655,-0.0116,0.13214,-0.09735
7.9705,-0.03525,-0.16693,-0.12527,-0.00107,-0.02045,-0.11993,0.02228,0.00015,-0.01404,-0.02441,-0.00992,0.01144,-0.02518,-0.01221,0.00717,-0.08804
7.971,-0.03616,-0.16312,-0.10727,0.00748,0.01373,-0.09155,-0.00397,0.00275,-0.01373,-0.02335,-0.01129,0.01099,-0.02365,-0.01312,-0.00153,-0.07477
7.9715,-0.03922,-0.14893,-0.08255,0.0235,0.02106,-0.05707,-0.01999,0.00198,-0.01389,-0.02167,-0.01358,0.01099,-0.02213,-0.01495,0.06058,-0.05875
7.972,-0.04654,-0.12573,-0.06653,0.05325,0.0087,-0.03372,-0.0209,-0.00488,-0.0145,-0.02106,-0.01648,0.01205,-0.02472,-0.01572,0.10117,-0.04196
7.9725,-0.05371,-0.09659,-0.06134,0.08759,-0.00473,-0.01938,-0.01633,-0.01694,-0.01556,-0.02136,-0.01648,0.01175,-0.02991,-0.01587,0.0769,-0.02945
7.973,-0.05844,-0.06516,-0.05905,0.10498,-0.00153,-0.00977,-0.01755,-0.02533,-0.01678,-0.02197,-0.01419,0.00992,-0.03403,-0.01709,0.01907,-0.02594
7.9735,-0.06027,-0.03464,-0.05661,0.09109,0.0267,-0.00351,-0.02426,-0.02792,-0.01724,-0.02274,-0.01373,0.00656,-0.03403,-0.01724,-0.0174,-0.02792
7.974,-0.06119,-0.00885,-0.06058,0.05173,0.06256,-0.00931,-0.0325,-0.02899,-0.01678,-0.0235,-0.01251,0.00427,-0.03189,-0.01663,-0.0148,-0.02975
7.9745,-0.06409,0.00732,-0.07095,0.00351,0.07843,-0.03342,-0.03555,-0.03143,-0.01724,-0.0235,-0.01282,0.00275,-0.03128,-0.01678,0.00275,-0.03311
7.975,-0.06851,0.01266,-0.07813,-0.04593,0.06638,-0.07187,-0.03098,-0.0322,-0.01816,-0.0235,-0.01389,0.00244,-0.03311,-0.01648,0.01022,-0.04288
7.9755,-0.06958,0.00931,-0.07111,-0.09415,0.04913,-0.10345,-0.02121,-0.02747,-0.01846,-0.02441,-0.01617,0.00214,-0.03433,-0.01709,0.00565,-0.05249
7.976,-0.06454,0.00397,-0.04913,-0.13428,0.04379,-0.10468,-0.01099,-0.02106,-0.0177,-0.0267,-0.01633,0.00198,-0.03403,-0.01724,-0.00092,-0.05051
7.9765,-0.05096,-0.00031,-0.02304,-0.15427,0.03052,-0.07248,-0.00275,-0.01877,-0.01663,-0.02762,-0.0148,0.00183,-0.03174,-0.01678,-0.00198,-0.04105
7.977,-0.03403,-0.00519,-0.00351,-0.13504,-0.02472,-0.03738,0.0029,-0.02075,-0.01556,-0.02548,-0.01221,0.00137,-0.03036,-0.01617,0.00015,-0.03494
7.9775,-0.0174,-0.01205,0.00504,-0.08087,-0.11551,-0.02457,0.00519,-0.02228,-0.01434,-0.02365,-0.01083,0.00046,-0.0293,-0.01602,0.00275,-0.03723
7.978,-0.00519,-0.01801,0.0058,-0.02701,-0.20279,-0.03555,-0.00244,-0.02045,-0.01404,-0.02243,-0.0116,0.00092,-0.02762,-0.01602,0.00214,-0.0415
7.9785,0.00153,-0.01404,0.00336,-0.00992,-0.25711,-0.04471,-0.02563,-0.01709,-0.01404,-0.0209,-0.01266,0.00183,-0.02579,-0.01617,-0.00076,-0.04196
7.979,0.00366,-0.00092,-0.00076,-0.02716,-0.2739,-0.04547,-0.05707,-0.01511,-0.01404,-0.02045,-0.01297,0.0032,-0.02472,-0.01572,-0.0032,-0.04013
7.9795,0.00595,0.01205,-0.00671,-0.04532,-0.24689,-0.04791,-0.07813,-0.01419,-0.01389,-0.01907,-0.01328,0.00351,-0.02365,-0.01495,-0.00168,-0.0386
7.98,0.01083,0.01877,-0.0145,-0.04211,-0.17105,-0.05478,-0.07065,-0.01419,-0.01251,-0.01831,-0.01373,0.00412,-0.02121,-0.01419,0.00198,-0.03738
7.9805,0.01587,0.01663,-0.02533,-0.02411,-0.07278,-0.05981,-0.04791,-0.01587,-0.01144,-0.0174,-0.01419,0.00397,-0.0174,-0.01419,0.00137,-0.03555
7.981,0.01541,0.00992,-0.03937,-0.0061,0.00046,-0.05692,-0.02991,-0.01648,-0.01099,-0.01678,-0.01663,0.00366,-0.01572,-0.01587,-0.00092,-0.03235
7.9815,0.01022,0.00214,-0.0499,0.00061,0.02487,-0.05341,-0.02441,-0.01526,-0.01053,-0.01678,-0.01755,0.00351,-0.01678,-0.01892,-0.00229,-0.02884
7.982,0.00381,-0.00336,-0.04959,-0.0058,0.02151,-0.05295,-0.01831,-0.01389,-0.01022,-0.01694,-0.01785,0.00473,-0.01846,-0.02274,-0.00229,-0.02533
7.9825,0.00031,-0.00748,-0.0383,-0.02075,0.01602,-0.056,-0.0029,-0.01312,-0.01007,-0.01724,-0.01663,0.00626,-0.01938,-0.02487,-0.00198,-0.0209
7.983,0.00122,-0.0177,-0.02686,-0.03632,0.01175,-0.0592,0.00854,-0.0119,-0.01038,-0.01678,-0.01541,0.00702,-0.01785,-0.02441,-0.0029,-0.01236
7.9835,0.00412,-0.03967,-0.02274,-0.04288,-0.00641,-0.06424,0.00687,-0.00885,-0.01022,-0.01541,-0.01541,0.0058,-0.01572,-0.02121,-0.00275,-0.00732
7.984,0.00778,-0.06561,-0.02289,-0.0383,-0.0441,-0.06805,-0.00534,-0.00534,-0.01038,-0.01465,-0.01617,0.00504,-0.01495,-0.01907,-0.00214,-0.00839
7.9845,0.00854,-0.08575,-0.02258,-0.02808,-0.09064,-0.07233,-0.01328,-0.00549,-0.01022,-0.0145,-0.0174,0.00443,-0.01709,-0.01724,-0.00244,-0.01541
7.985,0.0058,-0.09323,-0.0235,-0.01785,-0.13336,-0.07782,-0.00854,-0.00885,-0.01068,-0.01419,-0.01755,0.00336,-0.02213,-0.01572,-0.00259,-0.02197
7.9855,0.00366,-0.09109,-0.0293,-0.01205,-0.14435,-0.08621,0.00519,-0.01114,-0.0119,-0.01541,-0.01785,0.00397,-0.03113,-0.01526,-0.00137,-0.03006
7.986,0.00336,-0.08392,-0.0386,-0.01251,-0.09949,-0.08865,0.01511,-0.01068,-0.01282,-0.01694,-0.01724,0.00473,-0.04013,-0.01434,-0.00168,-0.04318
7.9865,0.00443,-0.07507,-0.04517,-0.0209,-0.01617,-0.08255,0.01678,-0.00992,-0.01251,-0.0174,-0.01541,0.00458,-0.04669,-0.01556,-0.00168,-0.05875
7.987,0.00763,-0.06516,-0.04532,-0.05188,0.04395,-0.06638,0.00702,-0.01129,-0.01282,-0.01633,-0.0145,0.00381,-0.05127,-0.0174,-0.00244,-0.06927
7.9875,0.01358,-0.05814,-0.04242,-0.12054,0.03586,-0.04822,-0.01587,-0.01648,-0.01404,-0.01587,-0.01572,0.00488,-0.05692,-0.02106,-0.0029,-0.06866
7.988,0.02289,-0.05997,-0.03738,-0.20935,-0.03128,-0.0383,-0.04578,-0.02228,-0.01434,-0.01617,-0.01587,0.00671,-0.06317,-0.02502,-0.0029,-0.06104
7.9885,0.03159,-0.07034,-0.03296,-0.2594,-0.11703,-0.03952,-0.06531,-0.02472,-0.01495,-0.01617,-0.01663,0.00809,-0.06912,-0.02762,-0.0029,-0.05356
7.989,0.03723,-0.07645,-0.02884,-0.224,-0.18387,-0.04623,-0.06409,-0.02228,-0.01617,-0.01724,-0.01678,0.00885,-0.07263,-0.02777,-0.00229,-0.047
7.9895,0.04028,-0.06363,-0.0293,-0.11948,-0.21072,-0.05081,-0.0499,-0.0174,-0.01785,-0.01709,-0.01709,0.00885,-0.07126,-0.0267,-0.00107,-0.0415
7.99,0.04227,-0.03586,-0.03464,-0.00092,-0.19043,-0.04028,-0.03876,-0.01465,-0.01846,-0.01892,-0.01602,0.00961,-0.0618,-0.02396,0.00168,-0.03662
7.9905,0.0412,-0.01205,-0.04196,0.10071,-0.1297,-0.01999,-0.03784,-0.01358,-0.01801,-0.02151,-0.0148,0.01328,-0.04684,-0.02151,0.00366,-0.03525
7.991,0.03662,-0.00366,-0.04105,0.18768,-0.04807,0.00229,-0.03342,-0.01129,-0.01724,-0.02213,-0.01343,0.01862,-0.03418,-0.01877,0.00626,-0.03616
7.9915,0.03159,-0.00443,-0.02975,0.25909,0.02731,0.0061,-0.01495,-0.00641,-0.01709,-0.02029,-0.01465,0.02136,-0.02823,-0.01678,0.00763,-0.03586
7.992,0.0293,-0.0058,-0.01572,0.28671,0.06943,-0.01312,0.00473,-0.00305,-0.01785,-0.01984,-0.01556,0.00748,-0.02945,-0.01663,0.00763,-0.03448
7.9925,0.02777,-0.00977,-0.00641,0.24689,0.07355,-0.03387,0.01007,-0.00336,-0.01892,-0.0209,-0.01465,-0.03006,-0.03235,-0.01968,0.00534,-0.0325
7.993,0.02701,-0.0177,-0.00549,0.15579,0.05554,-0.02945,0.00198,-0.00809,-0.01877,-0.02258,-0.01266,-0.07706,-0.0325,-0.02304,0.00397,-0.0322
7.9935,0.02579,-0.02655,-0.00916,0.06683,0.0325,-0.00595,-0.01251,-0.0145,-0.01816,-0.02304,-0.00961,-0.0972,-0.03174,-0.02365,0.00412,-0.03265
7.994,0.02609,-0.03189,-0.01343,0.02808,0.01053,-0.00031,-0.02274,-0.01633,-0.01724,-0.02182,-0.00946,-0.07278,-0.03082,-0.02182,0.00549,-0.03372
7.9945,0.0293,-0.03616,-0.01801,0.04578,-0.01434,-0.03433,-0.03204,-0.01343,-0.01678,-0.0206,-0.01053,-0.02304,-0.03006,-0.01892,0.00656,-0.03357
7.995,0.03525,-0.04227,-0.02045,0.09094,-0.04517,-0.08163,-0.0383,-0.00854,-0.01755,-0.02029,-0.01328,0.01862,-0.03189,-0.01862,0.0058,-0.0351
7.9955,0.04303,-0.05249,-0.02014,0.13321,-0.08148,-0.103,-0.04517,-0.0061,-0.01831,-0.01984,-0.01358,0.02945,-0.03586,-0.01968,0.00549,-0.03586
7.996,0.04807,-0.06653,-0.01968,0.15091,-0.10513,-0.0914,-0.05615,-0.00656,-0.01846,-0.01907,-0.01358,-0.00977,-0.03876,-0.01892,0.00748,-0.03586
7.9965,0.04196,-0.08148,-0.02731,0.13016,-0.09293,-0.06927,-0.07187,-0.00656,-0.01923,-0.01816,-0.01312,-0.10025,-0.03815,-0.01678,0.00854,-0.03403
7.997,0.02487,-0.09796,-0.04425,0.07965,-0.04196,-0.05417,-0.08621,-0.0061,-0.01846,-0.01801,-0.01328,-0.18753,-0.03616,-0.01648,0.00748,-0.03265
7.9975,0.00412,-0.11307,-0.05661,0.03342,0.01907,-0.04684,-0.08789,-0.00519,-0.01678,-0.01694,-0.01343,-0.21332,-0.03586,-0.01846,0.00565,-0.03311
7.998,-0.01129,-0.11551,-0.05295,0.02075,0.0618,-0.04562,-0.06439,-0.00443,-0.0145,-0.01648,-0.01511,-0.17746,-0.03845,-0.02121,0.00534,-0.0351
7.9985,-0.02121,-0.09583,-0.03525,0.04349,0.08682,-0.04562,-0.00916,-0.00336,-0.01297,-0.01495,-0.01526,-0.11383,-0.04196,-0.02289,0.00626,-0.03616
7.999,-0.02762,-0.05859,-0.0177,0.07721,0.10498,-0.04578,0.06775,-0.00107,-0.0119,-0.01389,-0.01389,-0.03403,-0.04135,-0.02289,0.009,-0.03677
7.9995,-0.03357,-0.02289,-0.00504,0.09735,0.11414,-0.04501,0.11871,0.00122,-0.01129,-0.01358,-0.01144,0.07248,-0.03479,-0.02197,0.0119,-0.03555
8.0,-0.0412,-0.00122,0.00092,0.09598,0.10025,-0.04486,0.09827,0.00244,-0.01129,-0.01297,-0.01022,0.19196,-0.02731,-0.01999,0.01358,-0.03296
8.0005,-0.05066,0.0087,-0.00351,0.07187,0.05371,-0.04547,0.03006,0.00198,-0.0119,-0.01297,-0.01205,0.27435,-0.02594,-0.01907,0.01373,-0.03204
8.001,-0.05981,0.01144,-0.01404,0.02396,-0.0119,-0.04623,-0.00549,-0.00107,-0.01205,-0.01266,-0.01297,0.27725,-0.02792,-0.0177,0.01373,-0.03372
8.0015,-0.0621,0.00793,-0.02075,-0.0441,-0.08148,-0.04791,0.02167,-0.00473,-0.01312,-0.01282,-0.01114,0.23193,-0.03143,-0.01709,0.01343,-0.03693
8.002,-0.05615,-0.00214,-0.02121,-0.11475,-0.13962,-0.05295,0.05432,-0.00366,-0.01343,-0.01328,-0.00992,0.22263,-0.03403,-0.01572,0.01358,-0.03845
8.0025,-0.04471,-0.01663,-0.01923,-0.16541,-0.17563,-0.05508,0.03967,0.00397,-0.01373,-0.01434,-0.01175,0.27451,-0.03967,-0.01602,0.01282,-0.03693
8.003,-0.03494,-0.03113,-0.02029,-0.1915,-0.18814,-0.06012,-0.00092,0.01328,-0.01251,-0.01511,-0.01221,0.30548,-0.04837,-0.01617,0.01266,-0.03586
8.0035,-0.02869,-0.04471,-0.01801,-0.2063,-0.18021,-0.05981,-0.01999,0.02258,-0.01144,-0.01495,-0.01221,0.22949,-0.05157,-0.01419,0.01175,-0.03677
8.004,-0.02548,-0.05814,-0.00687,-0.21255,-0.14481,-0.05356,-0.01801,0.0354,-0.01022,-0.01465,-0.01221,0.07095,-0.0444,-0.00946,0.01053,-0.03845
8.0045,-0.02426,-0.07385,-0.00397,-0.19058,-0.0827,-0.0473,-0.02197,0.05157,-0.00916,-0.01434,-0.01434,-0.05524,-0.02869,-0.0058,0.00839,-0.03998
8.005,-0.02472,-0.09003,-0.02563,-0.12863,-0.02319,-0.04364,-0.03708,0.0618,-0.00946,-0.01328,-0.01724,-0.05829,-0.01312,-0.00504,0.00717,-0.04196
8.0055,-0.02701,-0.09811,-0.06226,-0.06744,0.00214,-0.04318,-0.04791,0.06561,-0.01083,-0.01434,-0.01846,0.05859,-0.00351,-0.00824,0.00549,-0.04242
8.006,-0.03265,-0.09232,-0.08331,-0.07065,-0.00275,-0.0444,-0.04745,0.07507,-0.01343,-0.01633,-0.0177,0.19989,-0.00031,-0.01266,0.0061,-0.04318
8.0065,-0.04395,-0.07813,-0.07248,-0.1413,-0.00778,-0.04623,-0.03876,0.09628,-0.01373,-0.0177,-0.01602,0.24872,-0.00137,-0.01785,0.0061,-0.04349
8.007,-0.06088,-0.06348,-0.04944,-0.21362,0.00259,-0.04349,-0.01755,0.11307,-0.01266,-0.01801,-0.01434,0.16205,-0.00412,-0.02228,0.0058,-0.04425
8.0075,-0.07782,-0.04868,-0.03815,-0.22659,0.01801,-0.04303,0.0177,0.09949,-0.0116,-0.01694,-0.01495,-0.00916,-0.00793,-0.02655,0.00565,-0.04379
8.008,-0.08591,-0.03326,-0.03876,-0.18951,0.02762,-0.04013,0.05112,0.04883,-0.01175,-0.01648,-0.01572,-0.17471,-0.01251,-0.02975,0.0061,-0.04349
8.0085,-0.08408,-0.02182,-0.03571,-0.16113,0.02838,-0.03967,0.06134,-0.01877,-0.01266,-0.0177,-0.01709,-0.28625,-0.01968,-0.03265,0.00717,-0.04379
8.009,-0.07843,-0.01831,-0.02151,-0.17471,0.02075,-0.04074,0.04974,-0.07706,-0.01282,-0.01877,-0.01678,-0.34515,-0.0322,-0.03494,0.00854,-0.04303
8.0095,-0.07477,-0.01755,-0.00244,-0.20126,0.01144,-0.03983,0.02563,-0.11627,-0.01251,-0.01755,-0.01602,-0.35294,-0.0499,-0.0351,0.00946,-0.04105
8.01,-0.06927,-0.01343,0.00992,-0.17532,-0.00107,-0.03738,0.0029,-0.14435,-0.0116,-0.0148,-0.01526,-0.30518,-0.0705,-0.03311,0.01114,-0.03983
8.0105,-0.05569,-0.00671,0.00885,-0.05692,-0.01328,-0.0325,-0.01038,-0.16769,-0.0119,-0.01419,-0.01419,-0.23956,-0.08789,-0.03098,0.01221,-0.03952
8.011,-0.0351,-0.00504,-0.0087,0.09857,-0.02396,-0.03159,-0.01083,-0.17914,-0.01205,-0.01389,-0.0116,-0.22293,-0.09552,-0.02594,0.01205,-0.03845
8.0115,-0.01511,-0.00778,-0.0351,0.15991,-0.03418,-0.03006,-0.00488,-0.16907,-0.01175,-0.01541,-0.00885,-0.25604,-0.08865,-0.01938,0.01297,-0.03647
8.012,-0.00229,-0.0116,-0.06042,0.05386,-0.04547,-0.02975,-0.00488,-0.13809,-0.01083,-0.01572,-0.00763,-0.23499,-0.07126,-0.01312,0.01419,-0.03616
8.0125,0.00656,-0.01389,-0.0795,-0.13214,-0.04852,-0.02975,-0.01205,-0.09216,-0.01129,-0.01617,-0.00809,-0.06714,-0.05325,-0.01022,0.01587,-0.03891
8.013,0.01282,-0.01831,-0.09277,-0.23254,-0.03784,-0.03128,-0.01877,-0.04013,-0.01144,-0.01541,-0.00809,0.18539,-0.04196,-0.01099,0.01816,-0.0412
8.0135,0.01572,-0.02533,-0.09644,-0.18066,-0.0206,-0.03494,-0.01968,0.0061,-0.01236,-0.01526,-0.00809,0.34897,-0.03769,-0.0116,0.01938,-0.04135
8.014,0.01511,-0.03616,-0.0885,-0.04837,-0.00946,-0.04074,-0.01907,0.03479,-0.01373,-0.01556,-0.009,0.33005,-0.03708,-0.01236,0.01953,-0.04166
8.0145,0.01328,-0.04791,-0.07523,0.04425,-0.01297,-0.04547,-0.02121,0.04318,-0.01465,-0.01678,-0.01099,0.19928,-0.03571,-0.01205,0.01663,-0.04364
8.015,0.01144,-0.05539,-0.06592,0.03174,-0.02335,-0.04929,-0.02411,0.03952,-0.01404,-0.01602,-0.01266,0.08041,-0.03403,-0.01129,0.01129,-0.04791
8.0155,0.00854,-0.05676,-0.06271,-0.04517,-0.03189,-0.04822,-0.02823,0.03174,-0.01389,-0.01587,-0.01175,0.02411,-0.0325,-0.01343,0.00748,-0.05157
8.016,0.00351,-0.05646,-0.06195,-0.05386,-0.0322,-0.04761,-0.03021,0.02457,-0.01465,-0.01678,-0.01099,-0.00473,-0.03006,-0.01724,0.0061,-0.05219
8.0165,-0.00214,-0.0563,-0.05875,0.0882,-0.02258,-0.0473,-0.03189,0.02075,-0.01572,-0.01801,-0.01144,-0.06882,-0.02686,-0.01953,0.00626,-0.05142
8.017,-0.00534,-0.05539,-0.05463,0.25955,-0.01144,-0.04257,-0.03281,0.01953,-0.01602,-0.01938,-0.01297,-0.18616,-0.0238,-0.0206,0.00656,-0.05096
8.0175,-0.00275,-0.05173,-0.05112,0.26215,0.00076,-0.04425,-0.03342,0.02014,-0.01587,-0.02075,-0.0145,-0.29007,-0.02228,-0.0206,0.00641,-0.05035
8.018,0.00565,-0.04868,-0.0473,0.10025,0.01755,-0.04456,-0.03174,0.02014,-0.01648,-0.02136,-0.0148,-0.29404,-0.02533,-0.02014,0.00778,-0.04715
8.0185,0.01526,-0.04974,-0.03998,-0.01114,0.04059,-0.04532,-0.02731,0.01968,-0.0177,-0.02197,-0.01526,-0.19714,-0.03006,-0.01907,0.01038,-0.04272
8.019,0.01923,-0.056,-0.03281,0.06454,0.06165,-0.04318,-0.02014,0.01175,-0.01785,-0.02029,-0.01587,-0.0972,-0.0322,-0.01923,0.01266,-0.04013
8.0195,0.01694,-0.06653,-0.02762,0.23682,0.07553,-0.04242,-0.01495,-0.0177,-0.01663,-0.01724,-0.01678,-0.07965,-0.03128,-0.0206,0.01282,-0.04257
8.02,0.0145,-0.07965,-0.02548,0.36377,0.07645,-0.04715,-0.01831,-0.07217,-0.01511,-0.01526,-0.01709,-0.12115,-0.02838,-0.0209,0.01068,-0.04868
8.0205,0.0148,-0.0885,-0.02731,0.40436,0.06042,-0.05219,-0.02655,-0.11932,-0.01419,-0.01541,-0.01541,-0.11551,-0.02823,-0.01892,0.00854,-0.05417
8.021,0.0174,-0.08621,-0.02945,0.38605,0.02106,-0.05569,-0.0325,-0.12146,-0.01404,-0.01678,-0.01434,0.02686,-0.0293,-0.0174,0.0087,-0.05463
8.0215,0.01907,-0.0766,-0.02625,0.30853,-0.03906,-0.05997,-0.03082,-0.06851,-0.01419,-0.01678,-0.01312,0.27328,-0.03052,-0.01831,0.0119,-0.05081
8.022,0.0209,-0.06943,-0.01984,0.17303,-0.10254,-0.05966,-0.02502,0.0148,-0.01511,-0.01556,-0.01282,0.46982,-0.03098,-0.01923,0.01266,-0.04715
8.0225,0.02747,-0.06714,-0.0145,0.02502,-0.15335,-0.06271,-0.0206,0.09445,-0.01556,-0.01541,-0.01221,0.49713,-0.03082,-0.01953,0.01266,-0.04669
8.023,0.04013,-0.06409,-0.0116,-0.07431,-0.18936,-0.06561,-0.01846,0.14862,-0.01617,-0.01572,-0.01251,0.39352,-0.03006,-0.01968,0.01144,-0.04791
8.0235,0.05508,-0.05478,-0.01434,-0.09644,-0.20935,-0.07034,-0.0174,0.16815,-0.01663,-0.01785,-0.01297,0.271,-0.02975,-0.01892,0.00977,-0.04959
8.024,0.065,-0.04166,-0.01801,-0.07248,-0.19333,-0.07111,-0.01862,0.15457,-0.01801,-0.0174,-0.01266,0.16159,-0.03128,-0.0177,0.00702,-0.05234
8.0245,0.06622,-0.03021,-0.02197,-0.06577,-0.13474,-0.06454,-0.02045,0.11185,-0.01816,-0.01785,-0.01129,0.03448,-0.03265,-0.01724,0.00244,-0.05646
8.025,0.06302,-0.01999,-0.02731,-0.08118,-0.06577,-0.05463,-0.02487,0.06195,-0.0177,-0.01938,-0.01129,-0.08484,-0.03372,-0.01663,-0.00092,-0.05997
8.0255,0.06149,-0.01144,-0.0354,-0.03571,-0.03052,-0.04974,-0.03159,0.03128,-0.01755,-0.01999,-0.01373,-0.12161,-0.03235,-0.01648,-0.00107,-0.06012
8.026,0.06165,-0.00916,-0.04379,0.12726,-0.03784,-0.04944,-0.03708,0.02838,-0.01724,-0.01999,-0.01511,-0.06454,-0.0296,-0.01465,0.00061,-0.05692
8.0265,0.06042,-0.02151,-0.05249,0.31265,-0.05447,-0.0528,-0.03922,0.04211,-0.01556,-0.01953,-0.01389,-0.01312,-0.02762,-0.01251,0.00244,-0.05188
8.027,0.06165,-0.04623,-0.05676,0.34912,-0.05768,-0.05539,-0.03784,0.05295,-0.01312,-0.02014,-0.0119,-0.06622,-0.02655,-0.01328,0.00427,-0.04761
8.0275,0.06866,-0.06699,-0.05173,0.18417,-0.0502,-0.05615,-0.03616,0.04791,-0.01236,-0.02182,-0.01038,-0.19409,-0.02472,-0.01633,0.0061,-0.04486
8.028,0.07599,-0.06592,-0.03983,-0.05447,-0.04684,-0.056,-0.03326,0.02319,-0.01404,-0.02151,-0.01068,-0.27176,-0.02182,-0.01984,0.00687,-0.0441
8.0285,0.07477,-0.0473,-0.03021,-0.20767,-0.04883,-0.05417,-0.02899,-0.00854,-0.01541,-0.02121,-0.01205,-0.2327,-0.02151,-0.02228,0.0061,-0.04349
8.029,0.0647,-0.02792,-0.0293,-0.23895,-0.04883,-0.05386,-0.02518,-0.0264,-0.01541,-0.0209,-0.01343,-0.1207,-0.02472,-0.0238,0.00641,-0.04211
8.0295,0.05386,-0.01633,-0.04379,-0.21469,-0.04608,-0.04883,-0.0238,-0.01724,-0.01511,-0.0206,-0.01419,-0.00443,-0.0296,-0.02396,0.00793,-0.03952
8.03,0.05264,-0.01175,-0.07278,-0.20187,-0.04135,-0.04272,-0.02396,0.01175,-0.01587,-0.01907,-0.01587,0.10544,-0.03204,-0.0238,0.00946,-0.03815
8.0305,0.0618,-0.00793,-0.103,-0.21881,-0.03479,-0.04105,-0.02197,0.04898,-0.01633,-0.01694,-0.0174,0.22903,-0.03448,-0.02472,0.01007,-0.03738
8.031,0.07462,-0.00214,-0.11017,-0.25391,-0.02579,-0.04105,-0.0206,0.08453,-0.01678,-0.01495,-0.01663,0.34378,-0.03708,-0.02655,0.01053,-0.03632
8.0315,0.08331,0.00259,-0.08179,-0.28717,-0.01862,-0.04578,-0.02029,0.10483,-0.01587,-0.01556,-0.0145,0.38284,-0.0412,-0.02747,0.00961,-0.03647
8.032,0.08438,0.00504,-0.02609,-0.29678,-0.01724,-0.04883,-0.01984,0.09827,-0.01465,-0.01648,-0.01495,0.31021,-0.04349,-0.02426,0.00946,-0.0383
8.0325,0.08072,0.00351,0.03571,-0.28854,-0.02121,-0.05051,-0.01648,0.06439,-0.01236,-0.01511,-0.01556,0.17899,-0.04257,-0.02121,0.00931,-0.04227
8.033,0.07416,-0.00137,0.08148,-0.30228,-0.02869,-0.05585,-0.01053,0.02228,-0.01053,-0.01343,-0.0174,0.08301,-0.03906,-0.02029,0.00778,-0.04562
8.0335,0.06775,-0.01175,0.09247,-0.36469,-0.0351,-0.05661,-0.00778,-0.01236,-0.00961,-0.01114,-0.01831,0.04852,-0.03647,-0.0206,0.00443,-0.04852
8.034,0.06317,-0.02441,0.07095,-0.42938,-0.04135,-0.05783,-0.01022,-0.03174,-0.00839,-0.00992,-0.01663,0.01648,-0.03525,-0.01938,0.00046,-0.0499
8.0345,0.06363,-0.03677,0.03418,-0.42816,-0.04761,-0.05463,-0.01511,-0.03891,-0.00671,-0.00946,-0.01343,-0.0531,-0.03571,-0.01633,-0.00336,-0.0502
8.035,0.06744,-0.0473,-0.00107,-0.35172,-0.05447,-0.05661,-0.02075,-0.0354,-0.00763,-0.01099,-0.01266,-0.11063,-0.03464,-0.01465,-0.00366,-0.0499
8.0355,0.07263,-0.05371,-0.02563,-0.25024,-0.06256,-0.05905,-0.02914,-0.03113,-0.00824,-0.01236,-0.01526,-0.10376,-0.03235,-0.01587,-0.0029,-0.04974
8.036,0.0769,-0.05554,-0.0383,-0.1619,-0.06348,-0.05997,-0.04135,-0.03738,-0.00748,-0.01434,-0.01877,-0.06104,-0.03036,-0.01816,-0.00076,-0.05005
8.0365,0.08087,-0.05615,-0.04028,-0.08728,-0.05325,-0.05783,-0.0528,-0.0528,-0.00427,-0.01923,-0.02197,-0.04608,-0.03067,-0.01968,0.00137,-0.04791
8.037,0.08286,-0.05859,-0.03555,0.01175,-0.03571,-0.05585,-0.05249,-0.06577,-0.00214,-0.02609,-0.02243,-0.06226,-0.03342,-0.01968,0.00473,-0.04501
8.0375,0.08484,-0.0563,-0.03128,0.19821,-0.02258,-0.05371,-0.03754,-0.06683,-0.00275,-0.03082,-0.02182,-0.06622,-0.03647,-0.01938,0.00854,-0.0412
8.038,0.08713,-0.0473,-0.03433,0.46158,-0.02075,-0.05127,-0.02045,-0.05615,-0.00565,-0.03403,-0.02045,-0.04578,-0.0386,-0.01892,0.01099,-0.03922
8.0385,0.08926,-0.03708,-0.04578,0.6398,-0.02655,-0.04898,-0.01678,-0.04028,-0.00824,-0.03571,-0.01877,-0.03693,-0.03784,-0.01785,0.01022,-0.0386
8.039,0.0885,-0.03525,-0.0589,0.57266,-0.03082,-0.04852,-0.03342,-0.02899,-0.01282,-0.03815,-0.01663,-0.06622,-0.03662,-0.0177,0.00931,-0.03876
8.0395,0.08575,-0.04044,-0.06622,0.31815,-0.03113,-0.04883,-0.0563,-0.02579,-0.02197,-0.04196,-0.01328,-0.12421,-0.0351,-0.01694,0.00778,-0.03967
8.04,0.0827,-0.04501,-0.06363,0.08667,-0.03235,-0.05249,-0.07141,-0.02411,-0.03387,-0.05005,-0.01373,-0.19409,-0.03418,-0.01587,0.00656,-0.04028
8.0405,0.08118,-0.04456,-0.05096,-0.01816,-0.03403,-0.05508,-0.0766,-0.02197,-0.04257,-0.05661,-0.01694,-0.25299,-0.03296,-0.01541,0.00641,-0.03983
8.041,0.08148,-0.0415,-0.03357,-0.06104,-0.03601,-0.05859,-0.07187,-0.02121,-0.0441,-0.05844,-0.02228,-0.27222,-0.03189,-0.01663,0.00626,-0.04059
8.0415,0.08194,-0.03998,-0.01984,-0.09033,-0.03784,-0.06058,-0.05493,-0.02365,-0.03983,-0.05402,-0.02411,-0.24078,-0.03113,-0.01801,0.00534,-0.0415
8.042,0.08026,-0.0415,-0.01419,-0.07477,-0.03922,-0.06378,-0.03082,-0.02472,-0.03571,-0.04822,-0.02228,-0.17975,-0.0325,-0.01907,0.00427,-0.04089
8.0425,0.0766,-0.04349,-0.01755,-0.01801,-0.03754,-0.06714,-0.00854,-0.02014,-0.03357,-0.04349,-0.01953,-0.10757,-0.0354,-0.01938,0.00427,-0.03708
8.043,0.07446,-0.04517,-0.02441,0.00702,-0.03159,-0.0679,0.00732,-0.01266,-0.0325,-0.03555,-0.01862,-0.02502,-0.03693,-0.01862,0.00504,-0.03372
8.0435,0.07614,-0.04349,-0.03143,-0.02136,-0.0238,-0.06592,0.03036,-0.00778,-0.03082,-0.02457,-0.01984,0.04471,-0.03632,-0.01724,0.00549,-0.03326
8.044,0.07904,-0.03891,-0.03403,-0.03052,-0.0174,-0.06027,0.07721,-0.0087,-0.03006,-0.01328,-0.02243,0.05264,-0.03418,-0.01572,0.00443,-0.0354
8.0445,0.08163,-0.03479,-0.03372,0.04593,-0.01907,-0.05661,0.13382,-0.01266,-0.03128,-0.00015,-0.02243,-0.01495,-0.03326,-0.01465,0.00229,-0.03784
8.045,0.08179,-0.03235,-0.03296,0.17242,-0.02243,-0.05432,0.15671,-0.01602,-0.03464,0.01266,-0.02151,-0.0946,-0.03296,-0.01434,0.00122,-0.03754
8.0455,0.07996,-0.03296,-0.03387,0.23224,-0.02472,-0.05371,0.12589,-0.01923,-0.03677,0.0235,-0.02045,-0.09613,-0.03265,-0.0145,0.00031,-0.03708
8.046,0.0769,-0.03296,-0.03296,0.16479,-0.02487,-0.05478,0.06729,-0.02274,-0.03372,0.02686,-0.01907,-0.0061,-0.03159,-0.01495,0.00183,-0.03708
8.0465,0.07416,-0.03403,-0.03067,0.02975,-0.02655,-0.05157,0.02274,-0.02396,-0.02701,0.02243,-0.01862,0.08377,-0.02853,-0.01541,0.00244,-0.03738
8.047,0.07507,-0.0415,-0.02853,-0.06195,-0.0325,-0.0499,0.00381,-0.02289,-0.02045,0.01602,-0.01877,0.08728,-0.0264,-0.01495,0.00076,-0.0386
8.0475,0.07874,-0.05753,-0.03036,-0.07309,-0.03937,-0.04852,-0.009,-0.02045,-0.01556,0.01266,-0.0177,0.02106,-0.02594,-0.01404,0.00244,-0.03952
8.048,0.08148,-0.08026,-0.03815,-0.0412,-0.04364,-0.04486,-0.03372,-0.01892,-0.01221,0.0119,-0.01404,-0.02808,-0.02594,-0.01297,0.00366,-0.03876
8.0485,0.08667,-0.10284,-0.05417,-0.01175,-0.03906,-0.0383,-0.06317,-0.01816,-0.009,0.01266,-0.0116,-0.02167,-0.02579,-0.01266,0.00427,-0.03754
8.049,0.09399,-0.11856,-0.08743,0.00214,-0.02686,-0.03357,-0.08209,-0.01755,-0.00595,0.01251,-0.01205,0.00977,-0.02487,-0.01282,0.00351,-0.03876
8.0495,0.09781,-0.12161,-0.12939,0.0087,-0.01068,-0.03098,-0.08453,-0.01663,-0.00366,0.01144,-0.01297,0.03021,-0.02365,-0.01282,0.0029,-0.03998
8.05,0.09369,-0.1123,-0.14999,0.01373,0.00732,-0.02884,-0.08041,-0.01495,-0.00122,0.01007,-0.01175,0.0354,-0.0235,-0.01236,0.0029,-0.0383
8.0505,0.08484,-0.09506,-0.13168,0.01831,0.02731,-0.02899,-0.07477,-0.01266,0.00076,0.00763,-0.01114,0.03235,-0.02411,-0.01251,0.00275,-0.03555
8.051,0.0795,-0.07309,-0.08713,0.01907,0.04196,-0.03006,-0.06058,-0.01083,0.00107,0.00534,-0.00977,0.02563,-0.0264,-0.01358,0.0032,-0.03403
8.0515,0.08087,-0.04868,-0.04257,0.01495,0.04547,-0.03204,-0.02762,-0.0116,-0.00107,0.00214,-0.00931,0.0174,-0.0293,-0.0145,0.0058,-0.03464
8.052,0.08377,-0.02777,-0.01022,0.00793,0.03693,-0.03311,0.02045,-0.01251,-0.00504,-0.00076,-0.00961,0.01175,-0.03143,-0.01495,0.00687,-0.03632
8.0525,0.08255,-0.01755,0.01007,-0.00046,0.02594,-0.03372,0.05722,-0.01114,-0.01114,-0.00366,-0.0116,0.01007,-0.03265,-0.01434,0.00565,-0.03632
8.053,0.07904,-0.01617,0.0209,-0.01266,0.01419,-0.03403,0.05692,-0.00626,-0.01617,-0.00565,-0.01282,0.00839,-0.03372,-0.01465,0.0061,-0.03769
8.0535,0.07553,-0.00656,0.01663,-0.0235,-0.00946,-0.03571,0.03098,-0.00229,-0.0174,-0.00519,-0.01312,0.00397,-0.03281,-0.0148,0.00824,-0.03845
8.054,0.07767,0.0206,0.00275,-0.02792,-0.05173,-0.03891,0.02106,-0.00381,-0.01633,-0.00473,-0.01175,-0.00153,-0.03204,-0.01572,0.00885,-0.03922
8.0545,0.08652,0.05814,-0.00793,-0.01877,-0.09171,-0.04303,0.03754,-0.00931,-0.01419,-0.00534,-0.01144,-0.0058,-0.03235,-0.01602,0.00916,-0.03891
8.055,0.09552,0.08865,-0.01022,0.00946,-0.08194,-0.04501,0.05402,-0.01175,-0.01114,-0.009,-0.01343,-0.01007,-0.03281,-0.01633,0.00687,-0.03891
8.0555,0.09567,0.10315,-0.00458,0.05142,-0.00931,-0.04959,0.04944,-0.00702,-0.00824,-0.01282,-0.01617,-0.01312,-0.03433,-0.01663,0.00641,-0.03815
8.056,0.08438,0.10162,0.00351,0.08987,0.0885,-0.06195,0.03464,-0.00061,-0.00656,-0.01648,-0.01648,-0.01007,-0.03555,-0.01694,0.00717,-0.03738
8.0565,0.06851,0.08575,0.01312,0.10086,0.1561,-0.07263,0.02594,0.00092,-0.00595,-0.01785,-0.01511,-0.00504,-0.03586,-0.01785,0.0087,-0.03754
8.057,0.05249,0.0589,0.0235,0.0824,0.16144,-0.07141,0.02548,-0.00092,-0.00549,-0.01984,-0.01434,-0.00168,-0.03601,-0.01923,0.01007,-0.0386
8.0575,0.03586,0.02808,0.0235,0.04776,0.10483,-0.05722,0.02106,-0.00153,-0.00534,-0.02213,-0.01434,-0.00397,-0.03571,-0.01968,0.01099,-0.03998
8.058,0.01663,-0.00168,0.01373,0.00549,0.02075,-0.04044,0.01022,0.0,-0.00656,-0.02457,-0.01495,-0.00671,-0.03555,-0.01923,0.00961,-0.04196
8.0585,-0.00076,-0.02625,-0.00122,-0.04578,-0.05646,-0.03159,-0.00046,0.00183,-0.01038,-0.02655,-0.01755,-0.00549,-0.03494,-0.01877,0.00748,-0.04395
8.059,-0.01373,-0.04822,-0.0145,-0.09842,-0.12161,-0.02884,-0.00824,0.0029,-0.01282,-0.02991,-0.02029,-0.00076,-0.03464,-0.01877,0.00595,-0.04303
8.0595,-0.02472,-0.07309,-0.03265,-0.12299,-0.18982,-0.02853,-0.01404,0.00443,-0.01297,-0.03113,-0.02274,0.00412,-0.03265,-0.01816,0.00732,-0.03983
8.06,-0.03662,-0.10284,-0.05951,-0.0856,-0.2652,-0.02777,-0.01862,0.00351,-0.01236,-0.03113,-0.02121,0.00595,-0.03098,-0.01862,0.00931,-0.0386
8.0605,-0.05051,-0.12619,-0.08377,0.0032,-0.31677,-0.03021,-0.02213,0.0,-0.01083,-0.03006,-0.01831,0.00397,-0.03174,-0.01923,0.00839,-0.04013
8.061,-0.06516,-0.13474,-0.08453,0.08408,-0.30426,-0.03586,-0.02365,-0.00595,-0.01007,-0.0293,-0.01541,0.00275,-0.03342,-0.01907,0.0061,-0.04349
8.0615,-0.07889,-0.12924,-0.06561,0.09552,-0.22018,-0.03998,-0.02472,-0.01068,-0.00931,-0.02823,-0.01419,0.00504,-0.03174,-0.01923,0.00458,-0.04364
8.062,-0.09003,-0.12009,-0.04791,0.03983,-0.11078,-0.04028,-0.02701,-0.01144,-0.00931,-0.02716,-0.0145,0.00885,-0.02975,-0.01862,0.00534,-0.04257
8.0625,-0.09827,-0.10849,-0.04288,-0.02731,-0.03876,-0.03983,-0.02914,-0.00839,-0.01022,-0.02609,-0.0148,0.0116,-0.0296,-0.01816,0.00641,-0.04196
8.063,-0.09903,-0.09537,-0.03952,-0.07217,-0.0238,-0.04318,-0.03052,-0.00427,-0.01099,-0.02472,-0.01617,0.01221,-0.0325,-0.01846,0.00549,-0.04349
8.0635,-0.09018,-0.08148,-0.0296,-0.10681,-0.03677,-0.05112,-0.03021,-0.00305,-0.01221,-0.02441,-0.01755,0.01221,-0.03326,-0.01923,0.0061,-0.04349
8.064,-0.07202,-0.06622,-0.02258,-0.14359,-0.04608,-0.05753,-0.02853,-0.0029,-0.01144,-0.02457,-0.01984,0.0119,-0.03265,-0.01984,0.00671,-0.04318
8.0645,-0.0528,-0.04944,-0.02609,-0.16708,-0.04532,-0.06027,-0.02609,-0.00183,-0.01007,-0.02518,-0.02167,0.0116,-0.03204,-0.0206,0.00687,-0.04242
8.065,-0.03784,-0.03479,-0.03525,-0.16281,-0.04074,-0.06073,-0.02441,0.00076,-0.01053,-0.02533,-0.02319,0.01114,-0.03296,-0.02045,0.00763,-0.04242
8.0655,-0.0267,-0.02518,-0.04333,-0.12711,-0.03876,-0.05707,-0.02441,0.00275,-0.01541,-0.02487,-0.02502,0.01038,-0.03448,-0.01968,0.00702,-0.04425
8.066,-0.01877,-0.0206,-0.05127,-0.06439,-0.03815,-0.056,-0.02457,0.00244,-0.02258,-0.02502,-0.02625,0.00931,-0.03525,-0.01968,0.00641,-0.04623
8.0665,-0.01465,-0.01907,-0.05875,0.00977,-0.03784,-0.05585,-0.0267,-0.00015,-0.02777,-0.02838,-0.02731,0.00885,-0.03601,-0.02213,0.00534,-0.0473
8.067,-0.01587,-0.02213,-0.06378,0.06775,-0.03555,-0.05081,-0.03159,-0.00366,-0.02853,-0.03265,-0.02914,0.009,-0.03738,-0.02396,0.00595,-0.04562
8.0675,-0.01984,-0.02899,-0.06638,0.08072,-0.03006,-0.04593,-0.03647,-0.00809,-0.02579,-0.03693,-0.02945,0.01083,-0.03784,-0.02274,0.00671,-0.04288
8.068,-0.02304,-0.03601,-0.06683,0.02914,-0.02335,-0.03983,-0.03464,-0.01175,-0.02289,-0.03754,-0.02762,0.01297,-0.03632,-0.0206,0.00641,-0.04211
8.0685,-0.0238,-0.0383,-0.06577,-0.08591,-0.01846,-0.0383,-0.02563,-0.01282,-0.0209,-0.03723,-0.02548,0.01373,-0.03479,-0.01892,0.0058,-0.04349
8.069,-0.02228,-0.03937,-0.06042,-0.23224,-0.01907,-0.03845,-0.01617,-0.01328,-0.01953,-0.0354,-0.02335,0.01251,-0.03433,-0.01907,0.00504,-0.04456
8.0695,-0.01816,-0.04257,-0.0563,-0.34912,-0.01434,-0.0415,-0.01129,-0.01114,-0.01755,-0.03174,-0.02182,0.01236,-0.03479,-0.01938,0.00717,-0.04471
8.07,-0.01343,-0.04807,-0.05814,-0.39444,0.00076,-0.04196,-0.01236,-0.00626,-0.01648,-0.03128,-0.01999,0.01312,-0.03418,-0.01923,0.0087,-0.04364
8.0705,-0.01389,-0.05005,-0.0679,-0.39276,0.02426,-0.04425,-0.02258,-0.00397,-0.01663,-0.02853,-0.01907,0.01343,-0.03403,-0.01709,0.009,-0.04364
8.071,-0.02014,-0.04776,-0.07111,-0.3981,0.04105,-0.047,-0.0383,-0.00473,-0.01724,-0.02594,-0.01907,0.01099,-0.03357,-0.01556,0.00763,-0.04288
8.0715,-0.02899,-0.04456,-0.05936,-0.43213,0.03784,-0.04959,-0.04822,-0.0058,-0.01678,-0.02289,-0.01785,0.00885,-0.03189,-0.0148,0.00626,-0.04349
8.072,-0.03754,-0.04562,-0.03891,-0.44266,0.01968,-0.05157,-0.0412,-0.00473,-0.01724,-0.01907,-0.01526,0.00732,-0.02975,-0.01526,0.00626,-0.04379
8.0725,-0.04562,-0.04837,-0.02045,-0.33157,-0.00153,-0.056,-0.01999,-0.00259,-0.01846,-0.01694,-0.01495,0.00641,-0.02884,-0.01633,0.00702,-0.0441
8.073,-0.05325,-0.05096,-0.0087,-0.04944,-0.01846,-0.05905,-0.00473,-0.00168,-0.02045,-0.01511,-0.01663,0.00275,-0.03113,-0.0177,0.00793,-0.04349
8.0735,-0.05966,-0.05295,-0.00015,0.27954,-0.0322,-0.06134,-0.00717,-0.00351,-0.02121,-0.01419,-0.01907,-0.0029,-0.03281,-0.01816,0.00763,-0.04288
8.074,-0.06561,-0.05783,0.00565,0.44067,-0.05463,-0.06165,-0.01678,-0.00748,-0.0209,-0.01587,-0.01907,-0.00687,-0.03235,-0.01862,0.00671,-0.0412
8.0745,-0.07172,-0.06439,0.00748,0.38193,-0.08179,-0.0618,-0.02151,-0.01282,-0.01938,-0.01785,-0.01724,-0.00824,-0.03036,-0.01801,0.00656,-0.04028
8.075,-0.07767,-0.0705,0.00198,0.26367,-0.09247,-0.06058,-0.01999,-0.01862,-0.01785,-0.01801,-0.01572,-0.00916,-0.03006,-0.0174,0.00793,-0.04013
8.0755,-0.08331,-0.06943,-0.00854,0.22095,-0.06638,-0.05539,-0.01968,-0.02014,-0.01556,-0.01663,-0.01511,-0.01251,-0.03143,-0.01602,0.0087,-0.04166
8.076,-0.08957,-0.06256,-0.01923,0.21561,-0.02045,-0.04791,-0.02197,-0.01816,-0.01419,-0.01602,-0.01526,-0.01678,-0.03326,-0.01511,0.00824,-0.04425
8.0765,-0.09537,-0.05264,-0.02655,0.17166,0.01053,-0.03998,-0.02396,-0.0145,-0.01465,-0.01755,-0.01465,-0.01923,-0.03342,-0.01572,0.00732,-0.04501
8.077,-0.09506,-0.04486,-0.0296,0.11154,0.01007,-0.03555,-0.02258,-0.01282,-0.01434,-0.01831,-0.01419,-0.01862,-0.03357,-0.01541,0.00717,-0.04364
8.0775,-0.08728,-0.03906,-0.02884,0.08987,-0.00641,-0.03693,-0.02121,-0.01221,-0.01389,-0.01877,-0.01434,-0.01205,-0.03357,-0.01511,0.00763,-0.0415
8.078,-0.07614,-0.03464,-0.02655,0.103,-0.02457,-0.0441,-0.0209,-0.01099,-0.01419,-0.01785,-0.01465,0.00366,-0.03525,-0.01511,0.00809,-0.04028
8.0785,-0.06866,-0.02914,-0.02625,0.11871,-0.04227,-0.0531,-0.02106,-0.00931,-0.01465,-0.01923,-0.01663,0.02609,-0.03815,-0.01755,0.00824,-0.04013
8.079,-0.06561,-0.02548,-0.02975,0.13687,-0.05676,-0.05798,-0.02136,-0.00854,-0.01419,-0.0206,-0.0174,0.04532,-0.0412,-0.01907,0.00916,-0.03998
8.0795,-0.06073,-0.02563,-0.0351,0.16052,-0.06256,-0.06073,-0.01999,-0.00778,-0.01282,-0.02182,-0.01724,0.047,-0.04059,-0.01877,0.01007,-0.03906
8.08,-0.0499,-0.03006,-0.03906,0.14557,-0.05096,-0.05997,-0.01709,-0.00565,-0.01175,-0.02121,-0.01617,0.02823,-0.03906,-0.0174,0.00931,-0.03799
8.0805,-0.03876,-0.03143,-0.04044,0.03662,-0.02411,-0.05661,-0.01419,-0.00458,-0.01175,-0.0206,-0.01556,0.00504,-0.03906,-0.01877,0.00824,-0.03738
8.081,-0.03616,-0.0322,-0.04181,-0.14084,0.00809,-0.05295,-0.01251,-0.00381,-0.01266,-0.02014,-0.01556,-0.00473,-0.03952,-0.02029,0.00824,-0.03708
8.0815,-0.04196,-0.0412,-0.04211,-0.28107,0.03723,-0.04684,-0.01236,-0.00183,-0.01251,-0.01953,-0.01663,-0.00107,-0.04074,-0.02106,0.00839,-0.03784
8.082,-0.04974,-0.06287,-0.03952,-0.31113,0.04944,-0.04028,-0.01221,0.00122,-0.01175,-0.01923,-0.0177,0.00565,-0.04196,-0.02106,0.00824,-0.0386
8.0825,-0.05371,-0.08148,-0.03525,-0.25299,0.03952,-0.03708,-0.01175,0.00427,-0.01068,-0.01968,-0.0174,0.00961,-0.04333,-0.02045,0.00931,-0.0383
8.083,-0.0528,-0.08408,-0.02975,-0.16693,0.01755,-0.0386,-0.01099,0.00534,-0.01083,-0.0209,-0.01617,0.01221,-0.04379,-0.01984,0.01114,-0.03738
8.0835,-0.05142,-0.07584,-0.0293,-0.07614,-0.01068,-0.04211,-0.0119,0.00397,-0.01205,-0.0206,-0.0145,0.01633,-0.04364,-0.01877,0.01129,-0.03738
8.084,-0.05096,-0.07278,-0.04059,0.01495,-0.0383,-0.04517,-0.0119,0.00397,-0.01236,-0.01984,-0.01221,0.01999,-0.04303,-0.01846,0.01068,-0.04059
8.0845,-0.0528,-0.07629,-0.06439,0.07813,-0.05585,-0.04684,-0.01175,0.00504,-0.01236,-0.01862,-0.01175,0.02396,-0.0415,-0.01755,0.01038,-0.04333
8.085,-0.05417,-0.07599,-0.08728,0.09033,-0.05264,-0.04929,-0.01129,0.00656,-0.01373,-0.01984,-0.01312,0.02884,-0.03906,-0.01755,0.01022,-0.04486
8.0855,-0.05219,-0.06729,-0.09521,0.09399,-0.03555,-0.05203,-0.0119,0.00504,-0.01495,-0.02228,-0.01495,0.0354,-0.03738,-0.01511,0.00992,-0.0441
8.086,-0.04486,-0.05417,-0.08286,0.17319,-0.01953,-0.0531,-0.01434,0.00061,-0.01572,-0.02502,-0.01694,0.04303,-0.03662,-0.00931,0.00961,-0.04318
8.0865,-0.03113,-0.03983,-0.06287,0.32379,-0.01083,-0.05386,-0.01495,-0.00473,-0.01541,-0.02457,-0.01709,0.0499,-0.03738,-0.00168,0.00946,-0.04333
8.087,-0.01389,-0.02411,-0.04471,0.41428,-0.00778,-0.05463,-0.01221,-0.00671,-0.01526,-0.02243,-0.01724,0.05463,-0.03723,-0.00046,0.00977,-0.04349
8.0875,0.00076,-0.01007,-0.03433,0.33783,-0.01068,-0.05524,-0.00885,-0.00641,-0.01404,-0.02045,-0.01724,0.05875,-0.03662,-0.00671,0.00916,-0.04486
8.088,0.00793,-0.00473,-0.02747,0.15839,-0.02106,-0.05264,-0.00931,-0.00549,-0.01175,-0.02106,-0.01694,0.06104,-0.03632,-0.01526,0.01022,-0.04425
8.0885,0.00839,-0.01099,-0.02274,0.02792,-0.03937,-0.05188,-0.01495,-0.00595,-0.01114,-0.02197,-0.01633,0.06027,-0.03586,-0.01892,0.01144,-0.04303
8.089,0.00565,-0.01953,-0.01801,0.00549,-0.05768,-0.04929,-0.01678,-0.00671,-0.01114,-0.02167,-0.01572,0.05768,-0.03342,-0.01923,0.01221,-0.04318
8.0895,0.00488,-0.01816,-0.01694,0.0293,-0.06516,-0.04593,-0.01236,-0.00595,-0.01099,-0.01953,-0.01511,0.05814,-0.03082,-0.01877,0.01343,-0.04288
8.09,0.0032,-0.00809,-0.01953,0.02777,-0.06119,-0.03708,-0.00366,-0.00168,-0.00916,-0.01785,-0.01297,0.06454,-0.0296,-0.01816,0.01465,-0.04211
8.0905,-0.00229,0.00092,-0.03464,-0.00168,-0.05539,-0.03204,0.00244,0.00214,-0.00702,-0.0177,-0.01251,0.07324,-0.03082,-0.01755,0.01526,-0.04135
8.091,-0.00778,0.00122,-0.07401,-0.02899,-0.05585,-0.0293,0.00488,0.00519,-0.00641,-0.01953,-0.01266,0.07751,-0.03113,-0.01617,0.0148,-0.04105
8.0915,-0.01129,-0.00626,-0.13351,-0.04349,-0.05966,-0.03418,0.00122,0.00687,-0.00809,-0.01953,-0.01312,0.07263,-0.02899,-0.01572,0.01404,-0.0412
8.092,-0.0119,-0.01434,-0.17365,-0.05142,-0.06363,-0.03967,-0.01663,0.00732,-0.00885,-0.01907,-0.01419,0.0647,-0.02533,-0.01572,0.01404,-0.0412
8.0925,-0.0116,-0.01831,-0.16052,-0.05295,-0.06805,-0.04425,-0.05936,0.00885,-0.00824,-0.01724,-0.01541,0.05936,-0.0238,-0.01556,0.01434,-0.04166
8.093,-0.01038,-0.01709,-0.09811,-0.04501,-0.06927,-0.04639,-0.12314,0.01251,-0.00641,-0.01602,-0.01694,0.05554,-0.02502,-0.01648,0.01465,-0.04059
8.0935,-0.00717,-0.01495,-0.02182,-0.03281,-0.06592,-0.0502,-0.17883,0.01862,-0.00687,-0.01572,-0.0177,0.04898,-0.02579,-0.01709,0.01236,-0.04028
8.094,-0.00076,-0.01648,0.04471,-0.02457,-0.05524,-0.0531,-0.19653,0.02136,-0.00778,-0.01724,-0.01663,0.03723,-0.02426,-0.0177,0.01038,-0.03983
8.0945,0.0058,-0.02701,0.09262,-0.0238,-0.03235,-0.05234,-0.17517,0.01907,-0.00992,-0.01663,-0.01633,0.01968,-0.0209,-0.0177,0.00992,-0.04074
8.095,0.01266,-0.04395,0.11124,-0.02716,-0.00351,-0.05234,-0.14313,0.01282,-0.01312,-0.01602,-0.01678,-0.00427,-0.01999,-0.01709,0.0119,-0.04333
8.0955,0.01511,-0.05661,0.07935,-0.03067,0.02014,-0.05219,-0.10971,0.00549,-0.01602,-0.01617,-0.01846,-0.03418,-0.02121,-0.01648,0.01282,-0.04501
8.096,0.01236,-0.05356,-0.0061,-0.03052,0.0238,-0.05341,-0.047,-0.00229,-0.01648,-0.0177,-0.01953,-0.06104,-0.02258,-0.01724,0.01282,-0.04623
8.0965,0.00549,-0.03464,-0.09338,-0.02869,0.00519,-0.05341,0.07095,-0.01343,-0.01328,-0.01999,-0.01648,-0.07187,-0.02151,-0.01831,0.01251,-0.04547
8.097,-0.00214,-0.01205,-0.11917,-0.02975,-0.03204,-0.05035,0.20523,-0.02594,-0.01022,-0.01999,-0.01053,-0.05768,-0.01984,-0.01877,0.01297,-0.04562
8.0975,-0.00824,0.00076,-0.07553,-0.03525,-0.07553,-0.04852,0.26077,-0.03693,-0.00992,-0.01907,-0.00778,-0.03006,-0.01877,-0.01846,0.01389,-0.04669
8.098,-0.01404,-0.00214,-0.00931,-0.04288,-0.11322,-0.05173,0.18768,-0.04059,-0.01068,-0.01938,-0.00549,-0.00885,-0.01892,-0.01831,0.01419,-0.04761
8.0985,-0.01663,-0.02472,0.03525,-0.04578,-0.13016,-0.05173,0.04074,-0.0354,-0.01129,-0.01877,-0.00717,-0.00122,-0.01892,-0.01846,0.01312,-0.04761
8.099,-0.01816,-0.06744,0.05478,-0.04303,-0.12039,-0.05081,-0.07477,-0.02609,-0.01099,-0.01862,-0.00778,0.00473,-0.01953,-0.01892,0.01175,-0.0473
8.0995,-0.02106,-0.11612,0.06378,-0.03555,-0.08194,-0.04974,-0.09232,-0.01923,-0.01022,-0.01846,-0.01144,0.01678,-0.01968,-0.01953,0.01236,-0.04791
8.1,-0.02655,-0.14587,0.06378,-0.02457,-0.01572,-0.0444,-0.0267,-0.01755,-0.01099,-0.01846,-0.01328,0.03189,-0.01907,-0.0206,0.01343,-0.04837
8.1005,-0.03311,-0.14572,0.05157,-0.00366,0.07309,-0.03815,0.0531,-0.01755,-0.01312,-0.01785,-0.01312,0.04211,-0.01907,-0.02136,0.01328,-0.04791
8.101,-0.03647,-0.12558,0.02701,0.0293,0.17227,-0.03189,0.09094,-0.01328,-0.0148,-0.01511,-0.01053,0.04044,-0.01846,-0.0206,0.0119,-0.0473
8.1015,-0.0383,-0.10025,-0.00031,0.05814,0.25345,-0.02792,0.08301,-0.0058,-0.01511,-0.01343,-0.01007,0.02289,-0.0174,-0.01877,0.01083,-0.04639
8.102,-0.03952,-0.07675,-0.02609,0.06012,0.27924,-0.02914,0.05829,-0.00046,-0.0145,-0.01328,-0.01022,-0.00351,-0.0174,-0.01801,0.01083,-0.04562
8.1025,-0.0383,-0.05615,-0.0441,0.03571,0.23071,-0.03098,0.03693,0.00076,-0.01343,-0.01389,-0.0087,-0.02533,-0.01678,-0.01923,0.01175,-0.04639
8.103,-0.03067,-0.04074,-0.05264,0.00626,0.12466,-0.03189,0.02014,0.0029,-0.01328,-0.01373,-0.00687,-0.03387,-0.01709,-0.02045,0.0119,-0.04822
8.1035,-0.01907,-0.03098,-0.04883,-0.01694,-0.009,-0.0322,0.00549,0.00931,-0.01373,-0.01221,-0.0061,-0.03082,-0.01587,-0.02197,0.01205,-0.04898
8.104,-0.01175,-0.02502,-0.04013,-0.04486,-0.15167,-0.03754,-0.00351,0.01678,-0.01434,-0.01144,-0.00641,-0.02396,-0.0148,-0.02243,0.01251,-0.04883
8.1045,-0.01648,-0.0206,-0.0351,-0.08438,-0.28336,-0.04639,-0.00732,0.01953,-0.0148,-0.01266,-0.00854,-0.01755,-0.01404,-0.02197,0.01144,-0.04929
8.105,-0.03113,-0.01663,-0.04059,-0.11948,-0.3656,-0.05936,-0.00854,0.01648,-0.01434,-0.01511,-0.01053,-0.01068,-0.01328,-0.02045,0.01022,-0.05066
8.1055,-0.0441,-0.01129,-0.05219,-0.13184,-0.36041,-0.06989,-0.01205,0.01205,-0.01328,-0.01556,-0.00946,-0.00839,-0.0116,-0.02014,0.01053,-0.04959
8.106,-0.05035,-0.00534,-0.06271,-0.12711,-0.27252,-0.07553,-0.01862,0.00778,-0.01373,-0.01587,-0.00992,-0.01297,-0.01114,-0.02228,0.01175,-0.04776
8.1065,-0.05005,-0.00549,-0.06912,-0.12131,-0.16373,-0.07141,-0.02457,0.0032,-0.01617,-0.01526,-0.009,-0.02014,-0.01266,-0.02472,0.01205,-0.04669
8.107,-0.04349,-0.01999,-0.07736,-0.12131,-0.0943,-0.06149,-0.02792,-0.00214,-0.01938,-0.01556,-0.00854,-0.02426,-0.01312,-0.02426,0.01282,-0.04639
8.1075,-0.0322,-0.04486,-0.09384,-0.12039,-0.08133,-0.05096,-0.02853,-0.00549,-0.02121,-0.01602,-0.00748,-0.02563,-0.01221,-0.02319,0.01404,-0.04745
8.108,-0.01801,-0.06241,-0.10742,-0.11093,-0.09842,-0.04517,-0.02716,-0.00305,-0.02106,-0.01678,-0.00626,-0.02502,-0.01053,-0.02258,0.01343,-0.04929
8.1085,-0.00732,-0.06393,-0.10025,-0.09293,-0.112,-0.04684,-0.02563,0.00168,-0.02182,-0.0174,-0.00626,-0.02518,-0.009,-0.0238,0.01297,-0.05142
8.109,-0.00046,-0.05722,-0.07202,-0.07355,-0.10834,-0.05051,-0.02518,0.00488,-0.02213,-0.01633,-0.0061,-0.02625,-0.00778,-0.02502,0.0119,-0.05051
8.1095,0.00214,-0.05081,-0.0351,-0.06027,-0.08591,-0.05295,-0.02609,0.00305,-0.02182,-0.01617,-0.0061,-0.03052,-0.00793,-0.02579,0.01175,-0.0473
8.11,0.00137,-0.04211,0.00122,-0.05508,-0.05585,-0.05447,-0.02869,-0.00122,-0.02029,-0.01602,-0.00458,-0.04074,-0.00854,-0.02701,0.01205,-0.04501
8.1105,-0.00229,-0.02838,0.03601,-0.05432,-0.03235,-0.05463,-0.03128,-0.00473,-0.01999,-0.01526,-0.00366,-0.0563,-0.00992,-0.02655,0.01083,-0.04501
8.111,-0.0058,-0.01419,0.06317,-0.05325,-0.02182,-0.05447,-0.03281,-0.00641,-0.02121,-0.01434,-0.00122,-0.07172,-0.01251,-0.02579,0.00809,-0.04547
8.1115,-0.00656,-0.00534,0.07019,-0.05066,-0.0267,-0.05325,-0.03326,-0.00732,-0.02151,-0.01541,-0.00015,-0.08026,-0.01572,-0.02548,0.00473,-0.0444
8.112,-0.00671,-0.00015,0.05692,-0.05173,-0.02975,-0.04974,-0.03143,-0.01068,-0.02075,-0.01633,-0.00107,-0.08698,-0.01862,-0.02625,0.0029,-0.04227
8.1125,-0.01068,0.00122,0.03799,-0.05722,-0.02228,-0.04837,-0.02991,-0.0148,-0.01984,-0.01785,-0.00366,-0.09979,-0.02014,-0.0267,0.00229,-0.0415
8.113,-0.02045,-0.00748,0.02075,-0.05905,-0.00809,-0.04913,-0.02991,-0.01572,-0.01953,-0.01923,-0.00519,-0.10437,-0.02106,-0.02701,0.00412,-0.0415
8.1135,-0.03204,-0.02518,0.00427,-0.04745,0.00305,-0.0499,-0.02975,-0.01099,-0.01953,-0.01877,-0.00534,-0.08774,-0.02197,-0.02792,0.00519,-0.04135
8.114,-0.03738,-0.0415,-0.01785,-0.02518,0.00305,-0.04807,-0.02899,-0.00412,-0.01953,-0.0174,-0.0029,-0.06256,-0.02441,-0.02975,0.00656,-0.04028
8.1145,-0.03418,-0.04761,-0.04395,-0.00717,-0.00076,-0.04684,-0.02838,-0.00107,-0.02045,-0.01541,-0.00076,-0.04944,-0.02716,-0.03082,0.00626,-0.03967
8.115,-0.02411,-0.04868,-0.06393,0.00076,-0.00366,-0.04791,-0.02853,-0.00153,-0.02182,-0.01495,0.00046,-0.04547,-0.03098,-0.03052,0.00519,-0.03998
8.1155,-0.01175,-0.05173,-0.07416,0.00473,-0.00458,-0.04898,-0.02869,-0.00214,-0.02106,-0.01617,0.00061,-0.03265,-0.03357,-0.03067,0.00565,-0.03998
8.116,-0.00336,-0.05676,-0.07797,0.01266,-0.00504,-0.04791,-0.02792,0.00031,-0.01999,-0.01755,-0.00031,0.0032,-0.03571,-0.03265,0.00717,-0.04105
8.1165,-0.00229,-0.06012,-0.07782,0.02533,-0.00549,-0.04669,-0.02853,0.00397,-0.01953,-0.01801,-0.0032,0.05707,-0.03815,-0.03387,0.0087,-0.04257
8.117,-0.00748,-0.0618,-0.0766,0.04013,-0.00458,-0.04501,-0.02808,0.00732,-0.02136,-0.0174,-0.00381,0.10635,-0.04059,-0.03342,0.00809,-0.04379
8.1175,-0.01266,-0.06805,-0.07431,0.04929,-0.00107,-0.04425,-0.0267,0.00916,-0.02319,-0.01816,-0.00488,0.12054,-0.04227,-0.0322,0.00702,-0.04318
8.118,-0.01328,-0.07645,-0.07324,0.04654,0.00214,-0.04288,-0.02426,0.00931,-0.02335,-0.01877,-0.00458,0.08743,-0.04288,-0.03174,0.00732,-0.04272
8.1185,-0.01083,-0.07446,-0.07187,0.0293,0.00626,-0.04364,-0.02167,0.00671,-0.02274,-0.01968,-0.00534,0.03632,-0.04211,-0.03311,0.0058,-0.04211
8.119,-0.00946,-0.0563,-0.07401,0.00854,0.0087,-0.04547,-0.0206,0.0029,-0.02319,-0.01968,-0.00595,0.00793,-0.03967,-0.03403,0.00443,-0.04288
8.1195,-0.01007,-0.03189,-0.0853,-0.00015,0.01175,-0.04456,-0.02106,0.00168,-0.02289,-0.01984,-0.00427,0.00854,-0.03555,-0.03342,0.00305,-0.04349
8.12,-0.01236,-0.01556,-0.10117,0.00778,0.01434,-0.04257,-0.02197,0.00397,-0.02289,-0.01862,-0.00229,0.00854,-0.03098,-0.03021,0.00473,-0.04379
8.1205,-0.01419,-0.01038,-0.11047,0.02289,0.01556,-0.0412,-0.02167,0.00534,-0.02151,-0.01862,-0.00198,-0.00854,-0.02945,-0.02655,0.00626,-0.04425
8.121,-0.0177,-0.01083,-0.10574,0.03448,0.01465,-0.04089,-0.02014,0.00565,-0.02045,-0.01816,-0.00427,-0.02777,-0.03189,-0.02625,0.00656,-0.04639
8.1215,-0.0235,-0.01266,-0.09216,0.04089,0.0116,-0.04181,-0.01877,0.00671,-0.01984,-0.01831,-0.00381,-0.0293,-0.03586,-0.02823,0.00504,-0.04822
8.122,-0.02747,-0.01495,-0.07706,0.04395,0.00946,-0.04272,-0.01923,0.00977,-0.02014,-0.01892,-0.00381,-0.0174,-0.0386,-0.02975,0.0061,-0.04684
8.1225,-0.02686,-0.02075,-0.05737,0.04074,0.00549,-0.04349,-0.02045,0.01373,-0.01953,-0.01999,-0.00534,-0.00687,-0.03983,-0.03036,0.00748,-0.0441
8.123,-0.02319,-0.03036,-0.03189,0.03204,0.00183,-0.04227,-0.02106,0.01678,-0.01923,-0.01938,-0.0087,-0.00519,-0.03937,-0.03113,0.00809,-0.04272
8.1235,-0.01984,-0.04318,-0.00595,0.02167,-0.00122,-0.04227,-0.02045,0.01724,-0.01892,-0.01953,-0.00885,-0.01053,-0.04135,-0.03143,0.00793,-0.04257
8.124,-0.0174,-0.05722,0.01251,0.01266,-0.00092,-0.03876,-0.01709,0.01633,-0.01877,-0.01846,-0.00824,-0.01785,-0.04425,-0.03082,0.0087,-0.04227
8.1245,-0.01221,-0.06973,0.02335,0.00717,0.00168,-0.02975,-0.01373,0.0145,-0.01785,-0.01862,-0.00732,-0.02472,-0.04669,-0.02869,0.00931,-0.04089
8.125,-0.00473,-0.07507,0.02762,0.009,0.00397,-0.01953,-0.01251,0.01022,-0.0177,-0.01801,-0.00687,-0.02731,-0.04715,-0.02655,0.00763,-0.03937
8.1255,0.00397,-0.07294,0.02792,0.01755,0.00458,-0.00992,-0.01602,0.00519,-0.0174,-0.01709,-0.00824,-0.02731,-0.04562,-0.02686,0.00687,-0.03891
8.126,0.01205,-0.06592,0.01999,0.0238,0.00076,-0.00168,-0.01923,-0.00031,-0.0177,-0.01678,-0.00977,-0.02655,-0.04425,-0.02899,0.00565,-0.03937
8.1265,0.01846,-0.05844,0.00763,0.02121,-0.00107,0.00244,-0.01801,-0.00626,-0.01801,-0.01816,-0.00916,-0.02686,-0.04349,-0.03052,0.00381,-0.0386
8.127,0.02228,-0.05173,-0.0061,0.01038,-0.00168,0.0,-0.01251,-0.01099,-0.01755,-0.01938,-0.00809,-0.02563,-0.04257,-0.03006,0.00214,-0.03784
8.1275,0.02045,-0.04211,-0.02136,-0.00519,-0.00015,-0.00656,-0.00809,-0.01266,-0.01755,-0.01984,-0.00809,-0.02609,-0.04211,-0.02838,0.00183,-0.03815
8.128,0.01175,-0.03204,-0.03372,-0.02396,-0.00488,-0.01541,-0.00809,-0.01236,-0.01755,-0.01907,-0.00717,-0.02914,-0.04196,-0.02716,0.00259,-0.03952
8.1285,-0.00031,-0.02594,-0.03769,-0.03677,-0.01068,-0.02563,-0.00916,-0.01068,-0.01724,-0.01923,-0.00549,-0.03021,-0.04059,-0.02686,0.00153,-0.04074
8.129,-0.01205,-0.02548,-0.03189,-0.03723,-0.02274,-0.0386,-0.00916,-0.00916,-0.01801,-0.01892,-0.00412,-0.01694,-0.03922,-0.02686,0.00198,-0.04059
8.1295,-0.01999,-0.02762,-0.02579,-0.02914,-0.0293,-0.05203,-0.01007,-0.00732,-0.0177,-0.01831,-0.00534,0.0116,-0.03922,-0.02792,0.00381,-0.03906
8.13,-0.02396,-0.02747,-0.02502,-0.02823,-0.03708,-0.06989,-0.01205,-0.00641,-0.01709,-0.01694,-0.00732,0.03754,-0.04044,-0.02747,0.00671,-0.03693
8.1305,-0.02502,-0.02625,-0.02991,-0.04166,-0.04044,-0.09232,-0.01434,-0.00763,-0.01678,-0.01755,-0.0087,0.03708,-0.04227,-0.02792,0.00809,-0.03494
8.131,-0.02502,-0.02991,-0.03433,-0.05524,-0.04105,-0.10971,-0.01511,-0.00977,-0.01572,-0.0177,-0.00778,0.01266,-0.04227,-0.02701,0.00778,-0.03662
8.1315,-0.0264,-0.03754,-0.03662,-0.05737,-0.04379,-0.11368,-0.01694,-0.01236,-0.01404,-0.01785,-0.00793,-0.0116,-0.04135,-0.02579,0.00534,-0.03891
8.132,-0.03113,-0.04227,-0.03906,-0.0499,-0.04608,-0.10681,-0.01999,-0.01099,-0.01175,-0.01724,-0.00931,-0.01862,-0.04013,-0.02411,0.00458,-0.04044
8.1325,-0.03799,-0.04166,-0.04318,-0.03784,-0.04486,-0.09674,-0.0206,-0.0032,-0.01053,-0.01663,-0.01083,-0.00961,-0.04074,-0.02319,0.00366,-0.03983
8.133,-0.04425,-0.04105,-0.04898,-0.02441,-0.03815,-0.08377,-0.01709,0.00793,-0.00992,-0.01617,-0.01297,0.00198,-0.04181,-0.02365,0.00412,-0.03906
8.1335,-0.04913,-0.04669,-0.05493,-0.01434,-0.02533,-0.06866,-0.01221,0.01587,-0.01007,-0.01633,-0.01343,-0.00305,-0.04196,-0.02319,0.00412,-0.04013
8.134,-0.056,-0.05356,-0.05905,-0.01434,-0.00641,-0.05981,-0.00839,0.01465,-0.01083,-0.01602,-0.01312,-0.03769,-0.03937,-0.02289,0.00458,-0.04044
8.1345,-0.06439,-0.05264,-0.0621,-0.02319,0.01221,-0.05798,-0.00793,0.00549,-0.0116,-0.01495,-0.01266,-0.09018,-0.03723,-0.02213,0.00565,-0.04105
8.135,-0.06744,-0.04242,-0.06317,-0.03281,0.0325,-0.0618,-0.00961,-0.00687,-0.01175,-0.01358,-0.01236,-0.13138,-0.03662,-0.02243,0.00687,-0.03983
8.1355,-0.05707,-0.02838,-0.06302,-0.02899,0.04593,-0.0647,-0.0116,-0.01617,-0.01282,-0.01434,-0.01556,-0.13794,-0.03571,-0.02167,0.00732,-0.0383
8.136,-0.03906,-0.01755,-0.06592,-0.00885,0.05402,-0.06302,-0.01114,-0.01862,-0.01373,-0.01495,-0.01694,-0.10696,-0.03418,-0.01907,0.00809,-0.03769
8.1365,-0.02274,-0.01495,-0.07401,0.0177,0.04532,-0.06027,-0.00977,-0.01755,-0.01648,-0.01419,-0.01602,-0.05142,-0.03326,-0.01694,0.00854,-0.03754
8.137,-0.0148,-0.01801,-0.07843,0.03799,0.02243,-0.05676,-0.00854,-0.01633,-0.01877,-0.01251,-0.0148,0.00763,-0.03311,-0.0174,0.00717,-0.03784
8.1375,-0.01053,-0.02533,-0.07095,0.04395,-0.00458,-0.05096,-0.00732,-0.01572,-0.01862,-0.01114,-0.01495,0.05203,-0.03387,-0.01831,0.00473,-0.03922
8.138,-0.00793,-0.03906,-0.05417,0.03616,-0.03448,-0.04883,-0.00534,-0.01587,-0.01892,-0.00992,-0.01587,0.07797,-0.03448,-0.01678,0.00381,-0.04211
8.1385,-0.009,-0.05646,-0.03983,0.01953,-0.06821,-0.05066,-0.00488,-0.01785,-0.01923,-0.01083,-0.01755,0.09598,-0.03525,-0.01541,0.00427,-0.04532
8.139,-0.01755,-0.065,-0.03662,0.00748,-0.10818,-0.05447,-0.00854,-0.01923,-0.01953,-0.01266,-0.01709,0.10468,-0.03555,-0.01541,0.00595,-0.04578
8.1395,-0.03281,-0.05783,-0.05432,0.00946,-0.14084,-0.05356,-0.01251,-0.01801,-0.01816,-0.01282,-0.01572,0.07965,-0.03525,-0.01587,0.00793,-0.04532
8.14,-0.04929,-0.04471,-0.09735,0.01831,-0.14221,-0.04379,-0.01312,-0.01282,-0.01633,-0.01282,-0.0148,0.01144,-0.03494,-0.01511,0.00992,-0.04272
8.1405,-0.05981,-0.03571,-0.14893,0.01251,-0.11978,-0.02899,-0.00946,-0.00839,-0.01511,-0.01389,-0.0148,-0.07462,-0.03525,-0.0145,0.01022,-0.04074
8.141,-0.0621,-0.03067,-0.16846,-0.01648,-0.1123,-0.01923,-0.00671,-0.00732,-0.01465,-0.01511,-0.01648,-0.13672,-0.03632,-0.01495,0.00946,-0.03983
8.1415,-0.06088,-0.0264,-0.13412,-0.05341,-0.13702,-0.01984,-0.00656,-0.00961,-0.01511,-0.01541,-0.01816,-0.15259,-0.03677,-0.01633,0.00671,-0.0415
8.142,-0.06195,-0.02563,-0.07034,-0.0766,-0.16327,-0.02731,-0.00992,-0.01236,-0.01511,-0.01526,-0.01862,-0.11963,-0.03723,-0.0174,0.00595,-0.04349
8.1425,-0.06622,-0.03204,-0.00992,-0.08209,-0.14328,-0.03372,-0.01556,-0.01572,-0.01495,-0.01526,-0.01785,-0.05005,-0.03845,-0.01801,0.00763,-0.04318
8.143,-0.0708,-0.04303,0.03662,-0.07645,-0.08163,-0.03632,-0.01984,-0.01923,-0.01434,-0.01465,-0.01587,0.01404,-0.03983,-0.01923,0.00946,-0.0415
8.1435,-0.07538,-0.05127,0.07294,-0.06851,-0.03494,-0.03662,-0.01892,-0.02014,-0.01495,-0.01526,-0.01511,0.02319,-0.04059,-0.02045,0.01114,-0.0412
8.144,-0.0798,-0.05554,0.09247,-0.06317,-0.02121,-0.0386,-0.01312,-0.01816,-0.0145,-0.01602,-0.01526,-0.01099,-0.0386,-0.02151,0.01099,-0.04013
8.1445,-0.08087,-0.06058,0.08575,-0.06271,-0.02396,-0.0412,-0.00565,-0.01434,-0.01266,-0.01678,-0.01617,-0.02655,-0.03708,-0.02258,0.00961,-0.03906
8.145,-0.07751,-0.06607,0.05905,-0.06409,-0.01724,-0.04242,-0.00061,-0.0087,-0.01144,-0.01633,-0.01801,0.00458,-0.03677,-0.02426,0.00763,-0.03983
8.1455,-0.06989,-0.07034,0.03113,-0.0589,-0.00397,-0.04288,-0.00092,-0.0029,-0.0119,-0.01617,-0.01953,0.04425,-0.03876,-0.02747,0.00595,-0.04089
8.146,-0.05966,-0.07172,0.01083,-0.04517,0.00351,-0.04532,-0.00748,0.00183,-0.01282,-0.01816,-0.01953,0.06546,-0.03906,-0.0296,0.00549,-0.04318
8.1465,-0.05112,-0.07309,-0.00198,-0.02914,-0.00549,-0.05295,-0.01633,0.00565,-0.01251,-0.0177,-0.01831,0.07935,-0.03799,-0.02777,0.00641,-0.04532
8.147,-0.0441,-0.07294,-0.01068,-0.01495,-0.0174,-0.06729,-0.02167,0.00839,-0.01297,-0.01923,-0.01633,0.08224,-0.03738,-0.02121,0.00748,-0.04639
8.1475,-0.03677,-0.07004,-0.01587,-0.00305,-0.02106,-0.08179,-0.0177,0.01129,-0.01312,-0.01877,-0.01602,0.03723,-0.03784,-0.01343,0.00916,-0.04684
8.148,-0.02655,-0.06104,-0.01816,0.00595,-0.00931,-0.08377,-0.00809,0.01297,-0.01266,-0.01831,-0.0174,-0.05127,-0.0383,-0.0119,0.00946,-0.04593
8.1485,-0.01343,-0.05081,-0.02197,0.01099,0.00488,-0.07278,-0.00397,0.0116,-0.0119,-0.01938,-0.01831,-0.09949,-0.03738,-0.01755,0.00916,-0.04562
8.149,0.00381,-0.04517,-0.02869,0.01099,0.00381,-0.05859,-0.00824,0.00732,-0.0116,-0.01984,-0.01862,-0.03998,-0.03555,-0.02548,0.00748,-0.04517
8.1495,0.02258,-0.04456,-0.03723,0.00534,-0.0087,-0.05005,-0.0116,0.00381,-0.01236,-0.01968,-0.01633,0.07187,-0.03479,-0.02777,0.00793,-0.0441
8.15,0.03326,-0.04486,-0.04456,-0.00122,-0.01251,-0.04303,-0.0116,0.0029,-0.01236,-0.0209,-0.0148,0.12054,-0.03647,-0.02472,0.00946,-0.04242
8.1505,0.02991,-0.04486,-0.04837,-0.0029,0.00916,-0.03754,-0.01038,0.00488,-0.01205,-0.02289,-0.0148,0.07233,-0.03784,-0.02151,0.01068,-0.04196
8.151,0.01831,-0.04303,-0.04776,0.00122,0.03357,-0.03342,-0.0116,0.00732,-0.01083,-0.02441,-0.01663,-0.00305,-0.0383,-0.02045,0.01083,-0.04242
8.1515,0.00916,-0.04181,-0.04562,0.00916,0.03693,-0.03189,-0.01236,0.00732,-0.01022,-0.02365,-0.01785,-0.05478,-0.03708,-0.02106,0.00748,-0.04318
8.152,0.00763,-0.04105,-0.04501,0.01419,0.01678,-0.03265,-0.01144,0.00824,-0.01022,-0.02289,-0.01938,-0.11017,-0.03571,-0.01923,0.0061,-0.04425
8.1525,0.00977,-0.04074,-0.04852,0.01175,-0.01984,-0.03448,-0.01022,0.0087,-0.01129,-0.02365,-0.01984,-0.20767,-0.03403,-0.01724,0.00671,-0.0444
8.153,0.01175,-0.04089,-0.05417,0.00275,-0.06088,-0.03525,-0.01099,0.00732,-0.01312,-0.02502,-0.0206,-0.30045,-0.03265,-0.01572,0.00839,-0.04272
8.1535,0.01068,-0.04074,-0.05463,-0.0058,-0.10773,-0.03632,-0.01221,0.0058,-0.01465,-0.02579,-0.0206,-0.28549,-0.03296,-0.0145,0.00854,-0.04166
8.154,0.0058,-0.04044,-0.04944,-0.00824,-0.15045,-0.03799,-0.01404,0.00443,-0.01434,-0.02579,-0.02045,-0.13367,-0.03311,-0.01358,0.01022,-0.04059
8.1545,-0.00061,-0.03983,-0.04074,-0.00793,-0.16541,-0.04303,-0.01511,0.00122,-0.01266,-0.02487,-0.01999,0.06927,-0.0322,-0.01205,0.01205,-0.04105
8.155,-0.00793,-0.0383,-0.03403,-0.00809,-0.14557,-0.04623,-0.01343,-0.0032,-0.01129,-0.02472,-0.02045,0.22293,-0.02991,-0.01083,0.01511,-0.04211
8.1555,-0.01434,-0.0351,-0.03128,-0.0116,-0.1059,-0.0499,-0.00946,-0.00626,-0.01175,-0.0235,-0.02213,0.30136,-0.02853,-0.00946,0.01953,-0.04211
8.156,-0.01633,-0.03265,-0.02792,-0.01389,-0.0705,-0.05737,-0.00229,-0.00519,-0.01251,-0.02243,-0.02213,0.32166,-0.03006,-0.00824,0.02319,-0.04166
8.1565,-0.01099,-0.03281,-0.02243,-0.01236,-0.05478,-0.06714,0.00626,-0.00122,-0.01434,-0.02106,-0.02075,0.2832,-0.03174,-0.0087,0.02289,-0.0412
8.157,-0.00183,-0.03616,-0.01556,-0.00885,-0.05295,-0.07278,0.0145,0.00214,-0.01434,-0.02289,-0.01923,0.18234,-0.0325,-0.00961,0.01419,-0.04135
8.1575,0.00656,-0.04105,-0.01038,-0.00702,-0.04868,-0.06775,0.02151,0.00488,-0.01328,-0.0238,-0.0209,0.05997,-0.03235,-0.01007,-0.00717,-0.0412
8.158,0.01251,-0.04517,-0.00778,-0.0061,-0.0354,-0.05661,0.02396,0.00854,-0.01328,-0.02457,-0.02289,-0.01694,-0.03113,-0.01007,-0.03098,-0.04059
8.1585,0.01816,-0.04944,-0.00687,-0.00305,-0.0206,-0.04791,0.01709,0.01266,-0.01495,-0.02533,-0.02396,-0.02823,-0.03098,-0.01068,-0.03601,-0.03906
8.159,0.02289,-0.05524,-0.00778,0.00015,-0.00809,-0.04639,-0.00137,0.01541,-0.01633,-0.02563,-0.02441,-0.01251,-0.03021,-0.01129,-0.01205,-0.03998
8.1595,0.02701,-0.06073,-0.00977,0.00137,0.00244,-0.04791,-0.03036,0.01648,-0.01617,-0.02457,-0.02319,-0.01251,-0.03006,-0.01221,0.02014,-0.04257
8.16,0.03082,-0.05981,-0.01389,0.00137,0.0148,-0.04791,-0.07248,0.01678,-0.01541,-0.02335,-0.02167,-0.02609,-0.03021,-0.01312,0.03311,-0.04486
8.1605,0.03326,-0.0531,-0.02213,0.00122,0.01968,-0.04654,-0.13443,0.0174,-0.01526,-0.02243,-0.01923,-0.03326,-0.03098,-0.01419,0.02625,-0.0444
8.161,0.03494,-0.04593,-0.03586,0.00061,0.01083,-0.04456,-0.21255,0.0145,-0.01602,-0.02274,-0.0177,-0.02838,-0.0322,-0.01495,0.01663,-0.04181
8.1615,0.03693,-0.04272,-0.05295,0.00076,-0.00732,-0.04364,-0.28641,0.00763,-0.01648,-0.02304,-0.01694,-0.02472,-0.03281,-0.01434,0.01358,-0.04105
8.162,0.03906,-0.04135,-0.06653,0.00061,-0.02899,-0.04578,-0.32257,-0.00229,-0.01648,-0.02319,-0.01724,-0.02808,-0.03296,-0.01266,0.01328,-0.04166
8.1625,0.0415,-0.04333,-0.07217,0.00153,-0.04608,-0.04868,-0.3006,-0.00809,-0.01587,-0.02182,-0.01755,-0.03021,-0.03281,-0.01205,0.01236,-0.04135
8.163,0.04181,-0.05188,-0.06943,0.00198,-0.06439,-0.05096,-0.21378,-0.00458,-0.01511,-0.02045,-0.01816,-0.02487,-0.03174,-0.01266,0.01251,-0.04059
8.1635,0.04211,-0.06714,-0.06348,0.00137,-0.07248,-0.05081,-0.08408,0.00183,-0.01495,-0.01999,-0.01755,-0.0145,-0.03098,-0.01465,0.01282,-0.04044
8.164,0.04227,-0.07751,-0.05737,0.00107,-0.06485,-0.04608,0.03876,0.00137,-0.01526,-0.02167,-0.01709,-0.00351,-0.03143,-0.01602,0.01144,-0.04135
8.1645,0.047,-0.07446,-0.05051,0.00168,-0.04547,-0.0412,0.11642,-0.00641,-0.0145,-0.02258,-0.0174,0.00626,-0.03235,-0.01663,0.00977,-0.0412
8.165,0.05417,-0.06882,-0.04074,0.00366,-0.03006,-0.04044,0.15335,-0.01404,-0.01404,-0.02396,-0.0174,0.00946,-0.03235,-0.01587,0.00916,-0.04013
8.1655,0.05768,-0.07568,-0.03174,0.00336,-0.02701,-0.04425,0.16464,-0.01831,-0.01465,-0.02441,-0.01709,-0.00275,-0.03372,-0.01556,0.00916,-0.0383
8.166,0.05524,-0.08865,-0.03021,0.00107,-0.02625,-0.04822,0.13794,-0.02441,-0.01572,-0.02426,-0.01602,-0.02808,-0.03586,-0.01663,0.00885,-0.03906
8.1665,0.04761,-0.09094,-0.03876,-0.00122,-0.02548,-0.04807,0.06287,-0.03464,-0.01724,-0.02686,-0.01633,-0.05096,-0.03784,-0.01678,0.00702,-0.04105
8.167,0.04105,-0.0798,-0.05219,-0.00305,-0.0206,-0.04486,-0.02991,-0.04456,-0.0177,-0.0267,-0.01938,-0.05234,-0.0383,-0.01602,0.00549,-0.04227
8.1675,0.03952,-0.06531,-0.06042,-0.00443,-0.01755,-0.04242,-0.0914,-0.04333,-0.01633,-0.02502,-0.02121,-0.03372,-0.03815,-0.01404,0.00351,-0.04227
8.168,0.03952,-0.05173,-0.05524,-0.00458,-0.01541,-0.04105,-0.09369,-0.03174,-0.01495,-0.02579,-0.02151,-0.00946,-0.03769,-0.01389,0.00244,-0.04196
8.1685,0.04013,-0.03433,-0.0415,-0.00412,-0.01007,-0.03983,-0.04318,-0.01801,-0.01389,-0.02792,-0.01999,0.00946,-0.03662,-0.01541,0.00305,-0.04288
8.169,0.04044,-0.01373,-0.02533,-0.00565,-0.00885,-0.03937,0.0444,-0.01007,-0.01373,-0.02548,-0.01846,0.01678,-0.03647,-0.01831,0.0029,-0.04303
8.1695,0.03937,0.0061,-0.01236,-0.00717,-0.00839,-0.03845,0.14511,-0.00687,-0.01328,-0.0235,-0.0177,0.01068,-0.03693,-0.01831,0.00381,-0.04257
8.17,0.0351,0.02258,-0.00549,-0.00748,-0.01099,-0.03952,0.21637,-0.0032,-0.01205,-0.02594,-0.01694,0.00015,-0.0386,-0.01617,0.00443,-0.04257
8.1705,0.02869,0.03479,-0.00534,-0.00824,-0.01419,-0.0412,0.23666,0.00366,-0.01175,-0.02655,-0.0177,-0.00244,-0.03967,-0.01389,0.00549,-0.04349
8.171,0.02136,0.04105,-0.00885,-0.00854,-0.01297,-0.04181,0.22446,0.0087,-0.01205,-0.02457,-0.01999,0.01038,-0.04135,-0.01373,0.00656,-0.04333
8.1715,0.01495,0.03723,-0.0119,-0.00916,-0.00137,-0.04181,0.19836,0.00565,-0.01343,-0.0238,-0.0209,0.03479,-0.0415,-0.01434,0.00778,-0.04257
8.172,0.01114,0.02716,-0.01251,-0.01022,0.00809,-0.04059,0.15793,-0.00259,-0.01404,-0.0235,-0.01938,0.05905,-0.04135,-0.01511,0.00885,-0.04181
8.1725,0.01373,0.02151,-0.01373,-0.01266,-0.00137,-0.03906,0.10437,-0.00931,-0.01373,-0.02228,-0.01709,0.0679,-0.04059,-0.01465,0.00916,-0.03937
8.173,0.02487,0.02518,-0.01831,-0.01663,-0.03036,-0.03647,0.05508,-0.009,-0.01312,-0.02182,-0.01724,0.05142,-0.03937,-0.01587,0.00809,-0.03723
8.1735,0.03952,0.02792,-0.02274,-0.01968,-0.05615,-0.03296,0.02106,-0.00366,-0.01266,-0.02213,-0.01968,0.01389,-0.03845,-0.01724,0.00763,-0.03601
8.174,0.05005,0.01785,-0.02411,-0.01816,-0.04807,-0.03113,0.00565,0.00031,-0.01343,-0.0209,-0.01968,-0.02426,-0.03906,-0.01846,0.0087,-0.03616
8.1745,0.05356,-0.00214,-0.0235,-0.01343,-0.03128,-0.03189,0.00488,0.0,-0.01404,-0.02411,-0.01938,-0.04028,-0.04059,-0.0174,0.01083,-0.03662
8.175,0.05371,-0.01999,-0.02533,-0.01144,-0.02136,-0.0351,0.00961,-0.00122,-0.01404,-0.0235,-0.0174,-0.02487,-0.03998,-0.0177,0.01175,-0.03571
8.1755,0.05127,-0.02914,-0.03555,-0.01526,-0.02136,-0.03784,0.00778,0.00061,-0.01434,-0.02289,-0.01709,0.00275,-0.03738,-0.01862,0.00977,-0.03555
8.176,0.04822,-0.03433,-0.0618,-0.01877,-0.01663,-0.04074,0.00214,0.00763,-0.01556,-0.02136,-0.01923,0.01495,-0.03311,-0.01968,0.00916,-0.03754
8.1765,0.0441,-0.03937,-0.09583,-0.01846,-0.00702,-0.04272,0.00992,0.01907,-0.01602,-0.02243,-0.02045,0.00534,-0.03159,-0.01938,0.01114,-0.04044
8.177,0.04013,-0.04501,-0.11612,-0.0148,-0.00748,-0.04517,0.02274,0.02914,-0.01556,-0.02106,-0.02014,-0.01114,-0.03281,-0.01831,0.01373,-0.04257
8.1775,0.03738,-0.04974,-0.10681,-0.01144,-0.03128,-0.0473,0.00671,0.02914,-0.01495,-0.02121,-0.01755,-0.02289,-0.03403,-0.01846,0.01373,-0.04471
8.178,0.03555,-0.05127,-0.07477,-0.00977,-0.05997,-0.04883,-0.03784,0.01556,-0.01389,-0.02197,-0.01663,-0.02853,-0.03433,-0.01907,0.00992,-0.04608
8.1785,0.03479,-0.05051,-0.04059,-0.01007,-0.06348,-0.04929,-0.06836,-0.0087,-0.01419,-0.02167,-0.01678,-0.02823,-0.03372,-0.01907,0.0061,-0.04715
8.179,0.03433,-0.05096,-0.01282,-0.01175,-0.03815,-0.0499,-0.05905,-0.03342,-0.01495,-0.01938,-0.01633,-0.0235,-0.03479,-0.01953,0.00336,-0.04868
8.1795,0.03372,-0.05417,0.00854,-0.01129,-0.00473,-0.04944,-0.03067,-0.04028,-0.01572,-0.02014,-0.0145,-0.02213,-0.03586,-0.01953,0.00214,-0.04959
8.18,0.0325,-0.05936,0.02304,-0.01022,0.0087,-0.04822,-0.009,-0.0235,-0.01541,-0.01968,-0.01404,-0.03326,-0.03677,-0.01923,0.00046,-0.04913
8.1805,0.02869,-0.06332,0.02472,-0.01068,0.00244,-0.04715,0.0032,0.00397,-0.01511,-0.01953,-0.0145,-0.05646,-0.03738,-0.01801,-0.00031,-0.04684
8.181,0.02304,-0.06302,0.01434,-0.01404,-0.01099,-0.04684,0.00183,0.02213,-0.01572,-0.01984,-0.01495,-0.0827,-0.03754,-0.01648,0.00061,-0.04272
8.1815,0.01221,-0.05875,0.00046,-0.01678,-0.02686,-0.04898,-0.02151,0.0293,-0.01602,-0.01953,-0.01526,-0.08972,-0.03708,-0.01678,0.00305,-0.03952
8.182,-0.00275,-0.05554,-0.00977,-0.01312,-0.0441,-0.05264,-0.05829,0.03738,-0.01633,-0.01877,-0.01495,-0.05341,-0.03769,-0.0177,0.00519,-0.03983
8.1825,-0.01862,-0.05554,-0.0174,-0.00381,-0.06119,-0.05539,-0.08347,0.04547,-0.01465,-0.01999,-0.01434,0.02228,-0.0383,-0.01602,0.00687,-0.04166
8.183,-0.02945,-0.05707,-0.02487,0.00565,-0.07416,-0.05661,-0.08224,0.03876,-0.01343,-0.01968,-0.0145,0.09338,-0.03876,-0.01389,0.00931,-0.04379
8.1835,-0.03387,-0.05768,-0.03128,0.00748,-0.08255,-0.05814,-0.07126,0.01572,-0.01297,-0.01785,-0.01434,0.10681,-0.03799,-0.0145,0.01526,-0.04471
8.184,-0.0386,-0.05646,-0.03372,0.00259,-0.08408,-0.06012,-0.0708,-0.00488,-0.01434,-0.0174,-0.01343,0.05936,-0.03677,-0.01709,0.02335,-0.04486
8.1845,-0.05096,-0.056,-0.03418,-0.00381,-0.07599,-0.06073,-0.07996,-0.00366,-0.01526,-0.01877,-0.01221,0.00137,-0.03555,-0.01785,0.03006,-0.04501
8.185,-0.07278,-0.05539,-0.03433,-0.00793,-0.05814,-0.05966,-0.0856,0.0174,-0.01602,-0.01785,-0.01175,-0.02762,-0.0354,-0.0174,0.02777,-0.04654
8.1855,-0.09872,-0.05295,-0.03647,-0.01083,-0.0412,-0.05585,-0.07294,0.0267,-0.01602,-0.01831,-0.01373,-0.04089,-0.03647,-0.01724,0.01465,-0.04822
8.186,-0.11902,-0.04883,-0.04135,-0.01328,-0.03052,-0.05219,-0.02411,0.00198,-0.01556,-0.01877,-0.01526,-0.06012,-0.03769,-0.01801,0.00366,-0.04822
8.1865,-0.12756,-0.04471,-0.04852,-0.01404,-0.03128,-0.05157,0.04547,-0.04242,-0.01587,-0.01831,-0.01541,-0.06866,-0.0383,-0.01862,0.00076,-0.04776
8.187,-0.12863,-0.04379,-0.05676,-0.01358,-0.03067,-0.05402,0.07599,-0.07629,-0.0177,-0.01755,-0.01373,-0.0325,-0.03845,-0.01709,0.00549,-0.04608
8.1875,-0.12863,-0.04471,-0.06531,-0.01297,-0.03448,-0.05722,0.03448,-0.09201,-0.01862,-0.0174,-0.01144,0.04974,-0.0383,-0.01556,0.01022,-0.04471
8.188,-0.13,-0.04684,-0.0705,-0.01389,-0.0383,-0.05814,-0.03708,-0.10208,-0.01724,-0.01724,-0.01053,0.12619,-0.03769,-0.01511,0.01038,-0.04379
8.1885,-0.12985,-0.04791,-0.06851,-0.01373,-0.03647,-0.05737,-0.0766,-0.11261,-0.01526,-0.01801,-0.01114,0.14481,-0.03586,-0.01526,0.0087,-0.0441
8.189,-0.1268,-0.04807,-0.06027,-0.01282,-0.02686,-0.05508,-0.0824,-0.10925,-0.0148,-0.01785,-0.01205,0.10651,-0.03403,-0.01572,0.00732,-0.04486
8.1895,-0.12115,-0.04791,-0.04807,-0.01099,-0.00702,-0.05157,-0.09277,-0.08453,-0.01541,-0.01602,-0.01373,0.06226,-0.03265,-0.01526,0.00702,-0.04349
8.19,-0.1149,-0.04776,-0.03555,-0.01022,0.00626,-0.04852,-0.12238,-0.0528,-0.01587,-0.01389,-0.01419,0.0528,-0.03113,-0.01358,0.00809,-0.04089
8.1905,-0.10651,-0.0473,-0.02609,-0.01144,0.01236,-0.04791,-0.14374,-0.03632,-0.01572,-0.01343,-0.01343,0.07217,-0.0293,-0.01282,0.00885,-0.03967
8.191,-0.09964,-0.04822,-0.01877,-0.01266,0.00229,-0.05066,-0.13443,-0.04105,-0.01617,-0.01358,-0.01175,0.08789,-0.02884,-0.01312,0.00763,-0.04013
8.1915,-0.0946,-0.05005,-0.0145,-0.01389,-0.01389,-0.05264,-0.10925,-0.04852,-0.01694,-0.01495,-0.01022,0.08179,-0.02899,-0.01358,0.00656,-0.04181
8.192,-0.08881,-0.05249,-0.0116,-0.0148,-0.03296,-0.05356,-0.09537,-0.04211,-0.01801,-0.0148,-0.00961,0.06393,-0.0293,-0.01358,0.0058,-0.04288
8.1925,-0.08148,-0.05386,-0.00961,-0.01602,-0.04196,-0.05173,-0.09171,-0.02228,-0.01877,-0.01556,-0.01129,0.05051,-0.02945,-0.0145,0.00641,-0.04364
8.193,-0.07187,-0.05463,-0.00854,-0.01648,-0.04822,-0.05005,-0.08133,-0.00092,-0.01831,-0.01572,-0.0145,0.04715,-0.02655,-0.01663,0.00748,-0.04288
