time,RectFemL,VastusMedL,VastusLatL,TibAntL,HamMedL,HamLatL,GastroMedL,GastroLatL,RectFemR,VastusMedR,VastusLatR,TibAntR,HamMedR,HamLatR,GastroMedR,GastroLatR
2.7,0.09888,-0.05829,-0.08911,-0.01755,-0.03189,-0.04593,-0.01633,-0.00031,0.01083,0.07309,0.00229,-0.2713,-0.03326,-0.01068,0.00168,-0.04959
2.7005,0.10452,-0.05768,-0.07034,-0.01678,-0.02975,-0.04562,-0.01953,-0.00137,0.01907,0.06531,-0.01389,-0.23651,-0.0354,-0.01236,0.00305,-0.05051
2.701,0.11017,-0.05707,-0.03876,-0.01205,-0.02853,-0.04639,-0.01846,-0.00137,0.02716,0.04272,-0.02594,-0.09399,-0.03632,-0.01572,0.00458,-0.05356
2.7015,0.11475,-0.0563,-0.00687,-0.00992,-0.02777,-0.047,-0.01465,-0.00092,0.0296,0.01862,-0.02838,0.04608,-0.03479,-0.01907,0.00656,-0.05722
2.702,0.1178,-0.05875,0.01999,-0.01678,-0.02792,-0.04684,-0.01236,-0.00153,0.02289,-0.0032,-0.02029,0.07538,-0.03372,-0.01984,0.00641,-0.0563
2.7025,0.12054,-0.06714,0.04318,-0.03296,-0.02762,-0.04745,-0.0116,-0.00168,0.009,-0.02396,-0.00854,-0.00153,-0.03418,-0.01816,0.00885,-0.05051
2.703,0.11948,-0.08743,0.05707,-0.03845,-0.02701,-0.04837,-0.00519,-0.00275,-0.00443,-0.03967,0.00488,-0.07431,-0.03632,-0.01663,0.01282,-0.04242
2.7035,0.11353,-0.11688,0.05539,-0.01099,-0.02869,-0.04868,0.00443,-0.00168,-0.01312,-0.04196,0.0206,-0.01526,-0.03571,-0.01694,0.01556,-0.03738
2.704,0.10406,-0.13885,0.03799,0.0412,-0.03021,-0.0499,0.00443,-0.00061,-0.01846,-0.02945,0.03448,0.19043,-0.03387,-0.01938,0.01541,-0.03662
2.7045,0.09644,-0.13397,0.01297,0.07523,-0.03098,-0.04929,-0.00916,-0.00015,-0.02075,-0.00961,0.04105,0.37918,-0.0322,-0.02228,0.0116,-0.03769
2.705,0.09064,-0.10223,-0.01511,0.0618,-0.02975,-0.04852,-0.02197,-0.00076,-0.02289,0.00748,0.04196,0.35385,-0.03281,-0.02487,0.00626,-0.03891
2.7055,0.08377,-0.05875,-0.04745,0.01923,-0.03052,-0.04822,-0.02045,-0.00198,-0.02777,0.02151,0.03738,0.14084,-0.03494,-0.02457,0.00427,-0.04089
2.706,0.07507,-0.02106,-0.08438,-0.01511,-0.03265,-0.04929,-0.0119,-0.00214,-0.0354,0.03815,0.02213,-0.01129,-0.03662,-0.02426,0.00488,-0.04196
2.7065,0.06332,0.01038,-0.11673,-0.02197,-0.03357,-0.05051,-0.00748,-0.00229,-0.04257,0.05005,-0.00809,0.04883,-0.0383,-0.02441,0.00504,-0.04181
2.707,0.05035,0.03479,-0.13138,-0.00656,-0.03265,-0.05173,-0.00824,-0.00214,-0.04822,0.04486,-0.04272,0.19745,-0.03891,-0.02762,0.00473,-0.03922
2.7075,0.03693,0.0502,-0.12634,0.02274,-0.03143,-0.05203,-0.00977,-0.00259,-0.05402,0.01816,-0.0679,0.22461,-0.03952,-0.03082,0.00473,-0.03876
2.708,0.02747,0.05463,-0.1149,0.05569,-0.03021,-0.05188,-0.01175,-0.0029,-0.0592,-0.01846,-0.08209,0.09399,-0.03922,-0.0322,0.00504,-0.04028
2.7085,0.0235,0.04852,-0.10193,0.0737,-0.0296,-0.05127,-0.0148,-0.00336,-0.06256,-0.04837,-0.09232,-0.05219,-0.03723,-0.03006,0.00641,-0.04181
2.709,0.02151,0.03464,-0.08698,0.06042,-0.02792,-0.04944,-0.01816,-0.00473,-0.06134,-0.06638,-0.10025,-0.08881,-0.03616,-0.02655,0.00656,-0.04105
2.7095,0.01709,0.01816,-0.06836,0.02029,-0.02579,-0.04715,-0.01984,-0.00519,-0.05829,-0.07431,-0.10269,-0.0502,-0.03632,-0.02289,0.00687,-0.03754
2.71,0.00732,0.00275,-0.05371,-0.02029,-0.02563,-0.04501,-0.01877,-0.00534,-0.05722,-0.07675,-0.09872,-0.06027,-0.03891,-0.02045,0.00748,-0.03342
2.7105,-0.00549,-0.009,-0.04791,-0.04761,-0.02579,-0.04501,-0.01663,-0.00626,-0.05859,-0.06973,-0.0882,-0.17181,-0.04196,-0.02014,0.01022,-0.03143
2.711,-0.01755,-0.01953,-0.05264,-0.06287,-0.02686,-0.04547,-0.01434,-0.0058,-0.06088,-0.04852,-0.07339,-0.30518,-0.04303,-0.0206,0.01053,-0.02975
2.7115,-0.0267,-0.03021,-0.06027,-0.07477,-0.02701,-0.04486,-0.01297,-0.00366,-0.06378,-0.01495,-0.05585,-0.35202,-0.04242,-0.02045,0.01053,-0.02869
2.712,-0.03693,-0.04013,-0.07019,-0.08316,-0.02579,-0.04272,-0.01358,-0.00229,-0.06561,0.01892,-0.04272,-0.29083,-0.04059,-0.01984,0.01007,-0.02853
2.7125,-0.04929,-0.04684,-0.07553,-0.08469,-0.02411,-0.04196,-0.01434,-0.00061,-0.06363,0.04517,-0.03586,-0.17456,-0.03983,-0.02014,0.01007,-0.02975
2.713,-0.06348,-0.05203,-0.06821,-0.08041,-0.02441,-0.04318,-0.01419,0.00015,-0.05844,0.06287,-0.03235,-0.06775,-0.04135,-0.02258,0.00992,-0.03326
2.7135,-0.07523,-0.05814,-0.04532,-0.07614,-0.02472,-0.0444,-0.01266,0.00092,-0.05356,0.0737,-0.02853,-0.01831,-0.04349,-0.02518,0.00885,-0.03815
2.714,-0.08469,-0.07263,-0.01877,-0.06638,-0.02426,-0.04486,-0.0119,0.0,-0.0499,0.07782,-0.02502,-0.03525,-0.04318,-0.02655,0.00931,-0.04272
2.7145,-0.09216,-0.10178,0.0029,-0.04562,-0.02304,-0.04395,-0.01266,-0.00259,-0.04196,0.07584,-0.02457,-0.07614,-0.04227,-0.02518,0.01007,-0.04379
2.715,-0.09995,-0.14114,0.01541,-0.02777,-0.02274,-0.04349,-0.01358,-0.00641,-0.02838,0.06653,-0.02991,-0.09354,-0.0412,-0.02319,0.01068,-0.04318
2.7155,-0.10742,-0.17548,0.01999,-0.04639,-0.02609,-0.04471,-0.01465,-0.01114,-0.01205,0.04974,-0.03952,-0.08591,-0.03998,-0.02106,0.01022,-0.04059
2.716,-0.11536,-0.19272,0.0206,-0.10941,-0.0296,-0.04471,-0.01434,-0.01556,0.00214,0.02441,-0.05051,-0.07339,-0.03845,-0.01892,0.00763,-0.03906
2.7165,-0.12344,-0.19104,0.02228,-0.19806,-0.03067,-0.04349,-0.01328,-0.01633,0.01144,-0.01068,-0.0647,-0.05157,-0.04013,-0.01724,0.00458,-0.03952
2.717,-0.1329,-0.17685,0.02304,-0.30899,-0.03036,-0.04135,-0.01251,-0.01083,0.0145,-0.04791,-0.07996,-0.00748,-0.04013,-0.01678,0.00275,-0.04028
2.7175,-0.14252,-0.15671,0.0177,-0.44708,-0.02991,-0.04135,-0.0119,-0.00275,0.01602,-0.08392,-0.09521,0.04959,-0.03738,-0.0174,0.00397,-0.04044
2.718,-0.15182,-0.13611,0.00458,-0.56717,-0.02991,-0.04196,-0.01114,0.00397,0.02136,-0.12329,-0.10544,0.09995,-0.03372,-0.01923,0.00458,-0.03952
2.7185,-0.16037,-0.11108,-0.01236,-0.58746,-0.03006,-0.04349,-0.01099,0.00565,0.02914,-0.1709,-0.10437,0.12054,-0.03281,-0.01968,0.00519,-0.04013
2.719,-0.1683,-0.07538,-0.02945,-0.46051,-0.02899,-0.04471,-0.01175,0.00397,0.03174,-0.21957,-0.09521,0.08331,-0.03525,-0.01953,0.00687,-0.04242
2.7195,-0.1741,-0.02975,-0.04318,-0.21423,-0.03082,-0.04486,-0.01236,0.00198,0.02747,-0.25208,-0.08224,-0.02594,-0.03723,-0.01953,0.00809,-0.04288
2.72,-0.1796,0.01678,-0.05585,0.04364,-0.03235,-0.04547,-0.01389,0.00092,0.02167,-0.2504,-0.06622,-0.1384,-0.03738,-0.01968,0.01068,-0.04105
2.7205,-0.186,0.05768,-0.06973,0.1857,-0.03357,-0.04684,-0.01465,-0.00122,0.02457,-0.20813,-0.0473,-0.12817,-0.03601,-0.0209,0.01099,-0.03784
2.721,-0.19409,0.0943,-0.08469,0.19348,-0.03403,-0.04791,-0.01404,-0.00366,0.04059,-0.13748,-0.02853,0.04501,-0.03387,-0.02182,0.01038,-0.03342
2.7215,-0.20325,0.11795,-0.09888,0.17044,-0.0325,-0.04822,-0.01389,-0.00626,0.05814,-0.05692,-0.01205,0.26718,-0.03326,-0.02319,0.01144,-0.03113
2.722,-0.2124,0.11215,-0.10895,0.1709,-0.03342,-0.04807,-0.01511,-0.00717,0.0563,0.01511,0.00443,0.38437,-0.03464,-0.02396,0.01205,-0.0325
2.7225,-0.21973,0.07477,-0.11215,0.12802,-0.03571,-0.04898,-0.01724,-0.00702,0.03418,0.06546,0.02319,0.34225,-0.03647,-0.02335,0.0116,-0.03571
2.723,-0.22034,0.03021,-0.10834,0.0235,-0.03693,-0.05035,-0.01831,-0.00793,0.0119,0.08377,0.03937,0.21469,-0.03845,-0.02228,0.00854,-0.03815
2.7235,-0.21362,0.0032,-0.1001,0.00076,-0.03754,-0.0528,-0.01831,-0.00961,0.00397,0.06668,0.04837,0.12207,-0.03937,-0.01968,0.00656,-0.03967
2.724,-0.20081,-0.01266,-0.08896,0.20538,-0.03769,-0.05402,-0.01816,-0.01007,0.00397,0.02792,0.04929,0.11398,-0.03983,-0.01785,0.00641,-0.04105
2.7245,-0.18448,-0.04105,-0.07568,0.55756,-0.03937,-0.05463,-0.01678,-0.00854,0.0,-0.01587,0.05081,0.13153,-0.03906,-0.01801,0.00702,-0.04074
2.725,-0.16983,-0.08789,-0.05997,0.78766,-0.03983,-0.05447,-0.01343,-0.00488,-0.01022,-0.05646,0.06119,0.09827,-0.03891,-0.01953,0.00534,-0.03998
2.7255,-0.15701,-0.13367,-0.03632,0.70023,-0.04028,-0.05325,-0.01068,-0.00229,-0.01831,-0.08743,0.07477,0.00717,-0.03952,-0.02136,0.0032,-0.04013
2.726,-0.14282,-0.16037,-0.00412,0.39505,-0.03967,-0.05264,-0.01114,-0.00229,-0.01907,-0.09521,0.07767,-0.08591,-0.04089,-0.02197,0.00412,-0.04074
2.7265,-0.12054,-0.16281,0.02701,0.15045,-0.0386,-0.05234,-0.0148,-0.00412,-0.00992,-0.07965,0.07019,-0.12268,-0.04089,-0.02228,0.00641,-0.04105
2.727,-0.09201,-0.14725,0.03937,0.11719,-0.03708,-0.05127,-0.01801,-0.00778,0.00168,-0.04715,0.06149,-0.08652,-0.03998,-0.02213,0.009,-0.03952
2.7275,-0.0647,-0.12085,0.03128,0.21423,-0.03876,-0.0499,-0.01816,-0.01175,0.00656,-0.01114,0.06302,-0.02136,-0.03693,-0.02167,0.009,-0.03677
2.728,-0.04578,-0.09247,0.01923,0.30609,-0.03647,-0.04761,-0.01602,-0.01465,0.00244,0.02029,0.06927,-0.00229,-0.03464,-0.02045,0.01068,-0.03586
2.7285,-0.03723,-0.06821,0.0145,0.35416,-0.03189,-0.04532,-0.01236,-0.01495,-0.00443,0.04684,0.06821,-0.06805,-0.03433,-0.01831,0.01297,-0.03601
2.729,-0.03036,-0.04761,0.01434,0.36804,-0.02869,-0.04318,-0.01114,-0.01251,-0.00931,0.07477,0.05737,-0.1886,-0.0351,-0.01755,0.0145,-0.03677
2.7295,-0.0174,-0.02548,0.01053,0.3331,-0.02594,-0.04227,-0.0119,-0.00885,-0.01526,0.10361,0.04196,-0.29388,-0.03571,-0.01709,0.01358,-0.03723
2.73,-0.00168,0.009,-0.00412,0.23605,-0.02426,-0.04288,-0.0119,-0.00656,-0.03082,0.13168,0.02731,-0.33005,-0.03357,-0.01602,0.01007,-0.03815
2.7305,0.00656,0.05493,-0.03067,0.10712,-0.02365,-0.04257,-0.01083,-0.00366,-0.05432,0.15854,0.01251,-0.28824,-0.02975,-0.01511,0.00748,-0.03952
2.731,0.00427,0.10178,-0.05981,-0.00366,-0.02533,-0.04196,-0.01205,-0.00031,-0.07126,0.18097,-0.00366,-0.21606,-0.02518,-0.01465,0.00687,-0.03922
2.7315,-0.00275,0.1384,-0.06836,-0.07263,-0.02792,-0.04105,-0.01755,0.00259,-0.07431,0.19745,-0.02167,-0.17181,-0.02304,-0.01373,0.00778,-0.04028
2.732,-0.00885,0.15884,-0.04471,-0.11444,-0.02869,-0.04257,-0.02243,0.00381,-0.07126,0.20187,-0.04044,-0.13565,-0.02396,-0.01266,0.00763,-0.04257
2.7325,-0.01373,0.16113,-0.01312,-0.15121,-0.02884,-0.04349,-0.02121,0.00305,-0.0705,0.19073,-0.05997,-0.03265,-0.0235,-0.01175,0.00732,-0.04532
2.733,-0.01816,0.14587,-0.00595,-0.18646,-0.02838,-0.0444,-0.01587,0.00214,-0.07004,0.16037,-0.08102,0.11826,-0.02167,-0.01007,0.00671,-0.04791
2.7335,-0.02121,0.12161,-0.02686,-0.2121,-0.0296,-0.04578,-0.00992,0.00275,-0.06409,0.11017,-0.10056,0.20905,-0.01907,-0.00839,0.00626,-0.05066
2.734,-0.02182,0.09705,-0.04913,-0.22598,-0.03143,-0.04715,-0.00854,0.00427,-0.05783,0.0473,-0.11307,0.20935,-0.01938,-0.00793,0.00458,-0.05264
2.7345,-0.01953,0.07614,-0.05524,-0.23926,-0.0322,-0.04669,-0.00946,0.00534,-0.05508,-0.01511,-0.11337,0.2095,-0.02029,-0.00946,0.00381,-0.05295
2.735,-0.01755,0.06042,-0.04822,-0.26245,-0.03372,-0.04608,-0.01068,0.00458,-0.05661,-0.06256,-0.10132,0.25833,-0.02014,-0.01328,0.00412,-0.05127
2.7355,-0.01541,0.04776,-0.03998,-0.28839,-0.03326,-0.04623,-0.01144,0.00244,-0.06058,-0.09384,-0.08041,0.28793,-0.01846,-0.01587,0.00397,-0.05127
2.736,-0.01144,0.03738,-0.03296,-0.29816,-0.03311,-0.04654,-0.01129,0.00046,-0.06912,-0.1149,-0.0528,0.23407,-0.02014,-0.01526,0.00244,-0.0528
2.7365,-0.00717,0.02747,-0.02304,-0.28625,-0.03265,-0.04822,-0.01175,-0.00137,-0.08759,-0.13,-0.02167,0.13016,-0.02289,-0.0148,-0.00061,-0.05463
2.737,-0.00473,0.0177,-0.01099,-0.2655,-0.03265,-0.04929,-0.01389,-0.0032,-0.11017,-0.13885,0.00671,0.05737,-0.02472,-0.0148,0.00046,-0.05417
2.7375,-0.00092,0.00717,0.00015,-0.25131,-0.03067,-0.04974,-0.01541,-0.00488,-0.12131,-0.13641,0.02396,0.047,-0.02625,-0.01541,0.00122,-0.05051
2.738,0.00412,-0.00519,0.00885,-0.24323,-0.03067,-0.04791,-0.01556,-0.00595,-0.11002,-0.11856,0.02975,0.06744,-0.02945,-0.01251,0.00336,-0.04532
2.7385,0.01053,-0.02121,0.01038,-0.23117,-0.03082,-0.04593,-0.01495,-0.00809,-0.08347,-0.08881,0.0296,0.08469,-0.03632,-0.01099,0.0058,-0.04242
2.739,0.01938,-0.04272,-0.00122,-0.21057,-0.03128,-0.04562,-0.01526,-0.00961,-0.05493,-0.05219,0.02884,0.07782,-0.04288,-0.01221,0.00671,-0.04166
2.7395,0.03342,-0.0676,-0.0264,-0.18448,-0.03113,-0.04562,-0.01617,-0.00977,-0.02197,-0.02289,0.02701,0.0058,-0.04532,-0.01465,0.00885,-0.04181
2.74,0.05325,-0.08972,-0.05508,-0.15076,-0.02975,-0.04578,-0.01724,-0.00916,0.02319,-0.01007,0.02441,-0.17899,-0.04135,-0.01556,0.01068,-0.04074
2.7405,0.07431,-0.10605,-0.07538,-0.10254,-0.02975,-0.04547,-0.01801,-0.00946,0.07278,-0.01755,0.02548,-0.44037,-0.03479,-0.01434,0.01297,-0.0386
2.741,0.09018,-0.11688,-0.08209,-0.047,-0.02991,-0.04623,-0.01694,-0.01007,0.09857,-0.04074,0.03113,-0.63812,-0.03067,-0.01328,0.01328,-0.03677
2.7415,0.09964,-0.12314,-0.07843,-0.0235,-0.0293,-0.04684,-0.01495,-0.01068,0.08743,-0.06943,0.04379,-0.63141,-0.03098,-0.01221,0.0145,-0.03464
2.742,0.10788,-0.12619,-0.0708,-0.07492,-0.02945,-0.04654,-0.01511,-0.00961,0.06302,-0.09308,0.05768,-0.40024,-0.03265,-0.01022,0.0148,-0.03342
2.7425,0.1149,-0.1265,-0.06226,-0.18707,-0.03067,-0.04593,-0.01556,-0.0087,0.05402,-0.10284,0.06302,-0.06104,-0.03174,-0.00931,0.0145,-0.03311
2.743,0.12009,-0.12604,-0.04547,-0.25818,-0.0322,-0.04654,-0.01495,-0.00732,0.05737,-0.10178,0.05173,0.19897,-0.02945,-0.01099,0.01328,-0.0351
2.7435,0.12497,-0.12604,-0.00824,-0.20493,-0.03265,-0.04791,-0.01251,-0.0061,0.05447,-0.10239,0.02838,0.24612,-0.02792,-0.01389,0.01068,-0.03891
2.744,0.13474,-0.12253,0.04517,-0.07172,-0.03311,-0.04929,-0.00885,-0.00305,0.04089,-0.11612,0.00519,0.09705,-0.02899,-0.01572,0.00809,-0.04364
2.7445,0.1561,-0.11581,0.08286,0.0238,-0.03387,-0.0499,-0.00687,0.00153,0.0296,-0.14786,-0.01099,-0.08316,-0.03113,-0.01694,0.00717,-0.0473
2.745,0.1973,-0.10849,0.06866,0.05539,-0.03204,-0.05081,-0.00534,0.0058,0.02747,-0.19089,-0.02029,-0.11322,-0.03326,-0.01678,0.00641,-0.04791
2.7455,0.2652,-0.1004,0.00809,0.13321,-0.03143,-0.05081,-0.00488,0.00839,0.02579,-0.23712,-0.0238,0.03311,-0.03494,-0.01617,0.00641,-0.04654
2.746,0.34821,-0.09201,-0.05386,0.35767,-0.03143,-0.05096,-0.00732,0.009,0.01175,-0.27466,-0.02533,0.21042,-0.03403,-0.01602,0.00778,-0.04517
2.7465,0.42099,-0.08377,-0.08484,0.65674,-0.03326,-0.05173,-0.01022,0.00687,-0.01465,-0.29785,-0.02853,0.27512,-0.03342,-0.01678,0.00961,-0.0444
2.747,0.46326,-0.0798,-0.09247,0.78613,-0.03372,-0.05142,-0.01266,0.00366,-0.03998,-0.30136,-0.03174,0.2446,-0.03296,-0.01816,0.01022,-0.04364
2.7475,0.48004,-0.08636,-0.09628,0.58258,-0.03448,-0.05188,-0.01144,0.00092,-0.05569,-0.27924,-0.02777,0.23819,-0.03174,-0.0177,0.00916,-0.04333
2.748,0.49088,-0.10468,-0.1062,0.1918,-0.03418,-0.05173,-0.00946,-0.00076,-0.06668,-0.2359,-0.01541,0.30457,-0.02823,-0.01694,0.00717,-0.04318
2.7485,0.50339,-0.12451,-0.12054,-0.08072,-0.03479,-0.05356,-0.00946,-0.00351,-0.07584,-0.18036,0.00031,0.36423,-0.02213,-0.01923,0.00549,-0.04349
2.749,0.51025,-0.13077,-0.12955,-0.12604,-0.03525,-0.05508,-0.01297,-0.00641,-0.07751,-0.12329,0.00854,0.32104,-0.01282,-0.02182,0.00519,-0.04318
2.7495,0.50797,-0.12283,-0.13107,-0.09308,-0.03571,-0.05646,-0.01694,-0.00992,-0.07187,-0.0647,-0.00046,0.15656,-0.00351,-0.02289,0.00748,-0.04257
2.75,0.50049,-0.11093,-0.12314,-0.13962,-0.03525,-0.05539,-0.02075,-0.01236,-0.0708,0.00366,-0.0206,-0.06424,0.00183,-0.02136,0.00931,-0.0415
2.7505,0.49606,-0.10315,-0.10742,-0.26199,-0.03555,-0.05325,-0.02213,-0.01404,-0.07339,0.08362,-0.04089,-0.24994,-0.0029,-0.02029,0.00916,-0.0412
2.751,0.49347,-0.09445,-0.08789,-0.37689,-0.03693,-0.05203,-0.02167,-0.01328,-0.06302,0.1619,-0.04898,-0.33401,-0.01663,-0.01846,0.00992,-0.04333
2.7515,0.4892,-0.08057,-0.07141,-0.44022,-0.03677,-0.05234,-0.02075,-0.00946,-0.03296,0.22461,-0.04593,-0.29968,-0.03036,-0.0174,0.01022,-0.04623
2.752,0.48309,-0.06409,-0.05524,-0.45059,-0.03525,-0.05157,-0.01785,-0.0061,0.00229,0.2684,-0.04074,-0.17029,-0.03479,-0.01709,0.01083,-0.0473
2.7525,0.47729,-0.05325,-0.03571,-0.41672,-0.03494,-0.05051,-0.01556,-0.00397,0.03006,0.30228,-0.0386,0.01266,-0.03296,-0.01663,0.01053,-0.04532
2.753,0.46722,-0.05264,-0.01511,-0.34271,-0.03601,-0.05035,-0.01404,-0.00244,0.04547,0.33676,-0.04044,0.17456,-0.03204,-0.0174,0.01144,-0.04257
2.7535,0.44907,-0.06668,0.00427,-0.20218,-0.03815,-0.05081,-0.01221,-0.00031,0.04822,0.36697,-0.03998,0.23499,-0.03372,-0.01785,0.01175,-0.04166
2.754,0.42114,-0.10773,0.02075,0.01846,-0.0386,-0.05081,-0.01099,0.00153,0.03708,0.37933,-0.03555,0.1889,-0.03616,-0.0209,0.01221,-0.04028
2.7545,0.38513,-0.17944,0.03281,0.23926,-0.0386,-0.05096,-0.01129,0.00137,0.01648,0.36102,-0.02975,0.10361,-0.03723,-0.0235,0.01099,-0.04044
2.755,0.34744,-0.2507,0.04044,0.32867,-0.03799,-0.05081,-0.01343,0.00244,-0.00549,0.31158,-0.0296,0.02136,-0.0383,-0.02533,0.00824,-0.04227
2.7555,0.31403,-0.27985,0.04471,0.26001,-0.0383,-0.05051,-0.01648,0.00183,-0.02319,0.24872,-0.03555,-0.06073,-0.03937,-0.02533,0.00473,-0.04639
2.756,0.28305,-0.25864,0.04684,0.15015,-0.03845,-0.05005,-0.01846,0.00015,-0.03098,0.18707,-0.04135,-0.13107,-0.0412,-0.02487,0.00214,-0.05051
2.7565,0.2562,-0.21744,0.04761,0.12497,-0.03952,-0.04791,-0.01846,-0.00244,-0.02487,0.1265,-0.03937,-0.17685,-0.04242,-0.02426,0.00168,-0.05112
2.757,0.23834,-0.18188,0.04517,0.18372,-0.03891,-0.04761,-0.01556,-0.00397,-0.0119,0.06668,-0.03281,-0.21393,-0.04166,-0.02258,0.00366,-0.04974
2.7575,0.23651,-0.14984,0.04318,0.21896,-0.03937,-0.04852,-0.0116,-0.00336,-0.00549,0.01236,-0.02823,-0.233,-0.03983,-0.02182,0.00473,-0.0473
2.758,0.23987,-0.10925,0.04364,0.14252,-0.03906,-0.04852,-0.00977,-0.0032,-0.00809,-0.03342,-0.02045,-0.1683,-0.04044,-0.02136,0.00565,-0.04791
2.7585,0.23102,-0.06561,0.04837,-0.00107,-0.03952,-0.04822,-0.00931,-0.00198,-0.01007,-0.07324,-0.0032,0.00351,-0.04181,-0.02182,0.00381,-0.04929
2.759,0.20569,-0.02625,0.04944,-0.07782,-0.03998,-0.04868,-0.00885,-0.00092,-0.00748,-0.11154,0.01678,0.17029,-0.04242,-0.02289,0.00305,-0.05341
2.7595,0.17334,0.01465,0.03754,-0.02823,-0.04074,-0.0499,-0.00793,0.00061,-0.00793,-0.14374,0.02533,0.18845,-0.04135,-0.02289,0.0032,-0.05554
2.76,0.14236,0.07401,0.01404,0.05646,-0.03952,-0.05157,-0.00961,-0.00015,-0.01785,-0.16144,0.01648,0.06882,-0.03952,-0.02182,0.00473,-0.05386
2.7605,0.10773,0.14587,-0.00809,0.06439,-0.03952,-0.0528,-0.01328,-0.00427,-0.03067,-0.16098,-0.00061,-0.03143,-0.03799,-0.02045,0.00778,-0.04913
2.761,0.06638,0.20676,-0.01831,0.00183,-0.04028,-0.05371,-0.01663,-0.01038,-0.0325,-0.14526,-0.0206,-0.00519,-0.03708,-0.02045,0.00961,-0.04471
2.7615,0.02411,0.23148,-0.02182,-0.05585,-0.04044,-0.05539,-0.01648,-0.01205,-0.02472,-0.11383,-0.04044,0.07996,-0.03784,-0.02136,0.00885,-0.04379
2.762,-0.01266,0.21271,-0.02792,-0.0824,-0.0386,-0.05783,-0.01343,-0.00961,-0.01968,-0.06653,-0.06027,0.09323,-0.04059,-0.02151,0.00748,-0.04562
2.7625,-0.04471,0.1561,-0.03906,-0.10132,-0.0351,-0.05768,-0.01068,-0.00519,-0.02502,-0.00748,-0.07736,0.00626,-0.04364,-0.02304,0.00671,-0.04715
2.763,-0.0737,0.08347,-0.04181,-0.1149,-0.03265,-0.05615,-0.00992,-0.00458,-0.02945,0.04471,-0.09201,-0.09583,-0.04639,-0.0238,0.00809,-0.04745
2.7635,-0.10117,0.02518,-0.03067,-0.10422,-0.03082,-0.05447,-0.01083,-0.00671,-0.02228,0.07126,-0.1001,-0.13748,-0.04669,-0.02411,0.00854,-0.04578
2.764,-0.1297,0.0,-0.01678,-0.07385,-0.03128,-0.05295,-0.01373,-0.01083,-0.01328,0.06195,-0.09018,-0.12131,-0.04562,-0.02457,0.00824,-0.04486
2.7645,-0.16037,0.00519,-0.01511,-0.04944,-0.03143,-0.05173,-0.01862,-0.01495,-0.01648,0.02213,-0.06439,-0.08163,-0.04486,-0.0235,0.00885,-0.04593
2.765,-0.18875,0.03281,-0.02899,-0.0412,-0.03006,-0.05081,-0.02472,-0.01602,-0.02823,-0.03311,-0.04196,-0.03769,-0.04456,-0.02151,0.00992,-0.047
2.7655,-0.2121,0.07462,-0.04974,-0.03937,-0.02884,-0.04913,-0.02838,-0.01358,-0.02991,-0.08698,-0.0415,0.00397,-0.04349,-0.01999,0.01007,-0.04623
2.766,-0.23026,0.12421,-0.0708,-0.04623,-0.0264,-0.04684,-0.02899,-0.01205,-0.0174,-0.13397,-0.05997,0.04135,-0.04105,-0.01923,0.01038,-0.04517
2.7665,-0.24521,0.16647,-0.08575,-0.07431,-0.02548,-0.04501,-0.0264,-0.01068,-0.00458,-0.17014,-0.07706,0.06897,-0.03799,-0.01877,0.00961,-0.04486
2.767,-0.26001,0.18417,-0.09705,-0.121,-0.02533,-0.04333,-0.02167,-0.0116,-0.00168,-0.19409,-0.07996,0.07706,-0.03494,-0.01755,0.01022,-0.04532
2.7675,-0.27695,0.16479,-0.11398,-0.16266,-0.02533,-0.04288,-0.01709,-0.01205,-0.00732,-0.2002,-0.0676,0.06607,-0.03326,-0.01495,0.01175,-0.04562
2.768,-0.29861,0.11032,-0.14099,-0.16724,-0.02609,-0.04379,-0.01434,-0.01083,-0.01648,-0.18417,-0.05142,0.05249,-0.03036,-0.01251,0.01129,-0.04425
2.7685,-0.32303,0.0383,-0.17303,-0.1181,-0.02518,-0.04532,-0.01495,-0.01007,-0.03204,-0.15152,-0.0386,0.04181,-0.02777,-0.0119,0.01114,-0.04166
2.769,-0.34515,-0.02563,-0.19501,-0.03479,-0.02426,-0.04623,-0.01602,-0.01068,-0.05005,-0.10529,-0.02838,0.02228,-0.02716,-0.01221,0.00916,-0.04105
2.7695,-0.35934,-0.06821,-0.19943,0.03006,-0.02213,-0.04486,-0.01663,-0.01328,-0.05447,-0.04883,-0.01572,0.00336,-0.02625,-0.01266,0.00824,-0.04074
2.77,-0.36377,-0.08804,-0.18921,0.03189,-0.02151,-0.04196,-0.01526,-0.01419,-0.03281,0.01144,0.0,0.01205,-0.02686,-0.01312,0.00977,-0.04135
2.7705,-0.36469,-0.09277,-0.17593,-0.02274,-0.02075,-0.03937,-0.01465,-0.01312,0.00351,0.06577,0.01404,0.04059,-0.0293,-0.0145,0.00916,-0.04318
2.771,-0.36789,-0.09491,-0.16205,-0.08133,-0.0209,-0.03784,-0.01572,-0.01022,0.03067,0.10223,0.02365,0.0415,-0.03296,-0.01724,0.00595,-0.04486
2.7715,-0.37491,-0.10178,-0.13916,-0.10651,-0.0209,-0.03784,-0.01633,-0.00778,0.03998,0.11581,0.03296,-0.00854,-0.03387,-0.01892,0.00061,-0.04501
2.772,-0.38254,-0.11322,-0.10666,-0.11444,-0.0206,-0.03815,-0.01556,-0.00595,0.04547,0.11078,0.04852,-0.07309,-0.03204,-0.01984,-0.00137,-0.04227
2.7725,-0.38605,-0.11902,-0.07141,-0.15289,-0.01938,-0.03723,-0.0148,-0.00351,0.05585,0.0946,0.07248,-0.08331,-0.03036,-0.02075,0.00198,-0.03754
2.773,-0.38528,-0.1149,-0.03265,-0.23727,-0.01816,-0.0354,-0.01404,-0.00214,0.0618,0.07477,0.09979,-0.01236,-0.03159,-0.02151,0.00824,-0.03464
2.7735,-0.38391,-0.10223,0.0116,-0.31555,-0.01724,-0.03418,-0.01434,-0.00229,0.04913,0.05142,0.12146,0.0856,-0.03403,-0.02289,0.01175,-0.03464
2.774,-0.38528,-0.09018,0.04349,-0.31708,-0.01831,-0.03387,-0.01526,-0.00259,0.02136,0.02686,0.12726,0.10529,-0.0354,-0.02335,0.01129,-0.03525
2.7745,-0.38635,-0.07813,0.04105,-0.22247,-0.01938,-0.03418,-0.01617,-0.00168,-0.00122,0.00214,0.11276,0.00931,-0.0354,-0.0238,0.00778,-0.03571
2.775,-0.38528,-0.065,0.01205,-0.0708,-0.02121,-0.03418,-0.01556,-0.00153,-0.01175,-0.02365,0.08636,-0.10437,-0.03525,-0.02411,0.00641,-0.03708
2.7755,-0.38651,-0.05905,-0.00504,0.10345,-0.02167,-0.03403,-0.0119,-0.00153,-0.02182,-0.05035,0.05966,-0.11917,-0.03769,-0.02274,0.00534,-0.03952
2.776,-0.39764,-0.07401,0.00961,0.31479,-0.02289,-0.03494,-0.00565,-0.00198,-0.04242,-0.07492,0.03815,-0.06287,-0.04028,-0.0209,0.00519,-0.04013
2.7765,-0.4155,-0.10391,0.03235,0.55267,-0.02411,-0.03784,-0.00122,0.0,-0.05966,-0.09598,0.01968,-0.05676,-0.04089,-0.0209,0.00504,-0.0386
2.777,-0.4245,-0.12848,0.03265,0.67581,-0.0267,-0.04318,-0.00061,0.00351,-0.05493,-0.11505,0.0032,-0.13947,-0.03891,-0.02304,0.0061,-0.03738
2.7775,-0.41336,-0.14008,0.00519,0.52811,-0.02853,-0.04852,-0.00381,0.00702,-0.03296,-0.14053,-0.00824,-0.23712,-0.03647,-0.02472,0.00702,-0.03891
2.778,-0.38742,-0.14908,-0.02426,0.18707,-0.03098,-0.05325,-0.00824,0.00732,-0.00977,-0.17868,-0.01801,-0.28168,-0.03418,-0.02441,0.0087,-0.03967
2.7785,-0.36041,-0.159,-0.03296,-0.07263,-0.03464,-0.05661,-0.01251,0.00381,0.00397,-0.22018,-0.02899,-0.25482,-0.03296,-0.02365,0.01053,-0.04013
2.779,-0.3421,-0.16129,-0.02167,-0.09415,-0.03769,-0.05768,-0.01495,0.00015,0.00565,-0.25269,-0.03662,-0.13977,-0.03204,-0.02457,0.01114,-0.03967
2.7795,-0.33676,-0.14786,-0.00946,0.0209,-0.03922,-0.05646,-0.01495,-0.00305,-0.00229,-0.26825,-0.03662,0.06134,-0.03036,-0.02548,0.01266,-0.03967
2.78,-0.34149,-0.12329,-0.00595,0.10391,-0.03799,-0.056,-0.01297,-0.00504,-0.01877,-0.27222,-0.03311,0.289,-0.02747,-0.02441,0.01251,-0.03998
2.7805,-0.34927,-0.09628,-0.00854,0.11307,-0.03738,-0.05692,-0.01038,-0.0058,-0.03464,-0.26276,-0.03967,0.45868,-0.02686,-0.0238,0.01282,-0.03983
2.781,-0.35614,-0.06973,-0.01465,0.10239,-0.03723,-0.05753,-0.009,-0.00427,-0.03891,-0.2356,-0.05432,0.51315,-0.02838,-0.02457,0.01358,-0.03845
2.7815,-0.35965,-0.04425,-0.02502,0.10315,-0.03799,-0.05676,-0.00885,-0.00168,-0.02914,-0.18326,-0.06485,0.42999,-0.03204,-0.02655,0.01343,-0.0354
2.782,-0.35828,-0.02304,-0.03906,0.11246,-0.03723,-0.05432,-0.00793,0.00031,-0.01282,-0.10895,-0.06012,0.22446,-0.03601,-0.02792,0.01083,-0.0351
2.7825,-0.35278,-0.00992,-0.04562,0.12115,-0.03616,-0.05157,-0.00763,0.00092,0.00168,-0.0238,-0.04654,-0.02579,-0.03708,-0.02838,0.00717,-0.03738
2.783,-0.34668,-0.00259,-0.02197,0.11871,-0.03586,-0.04944,-0.00809,0.00229,0.01236,0.05905,-0.03967,-0.19928,-0.03525,-0.02823,0.00336,-0.04135
2.7835,-0.34363,0.00412,0.03601,0.09155,-0.03754,-0.04776,-0.00961,0.00488,0.01373,0.12955,-0.04318,-0.21774,-0.03204,-0.02747,0.00092,-0.0444
2.784,-0.33768,0.01465,0.09415,0.03372,-0.03952,-0.04608,-0.01022,0.00488,-0.00061,0.18723,-0.04517,-0.12009,-0.02991,-0.02609,0.00046,-0.04532
2.7845,-0.32394,0.02625,0.13046,-0.05829,-0.04044,-0.04456,-0.01038,0.00168,-0.02655,0.22156,-0.03799,-0.03342,-0.03067,-0.0238,0.00198,-0.04379
2.785,-0.30243,0.03296,0.1619,-0.17639,-0.03906,-0.04379,-0.01266,-0.00336,-0.04669,0.22522,-0.02823,-0.04898,-0.0351,-0.02182,0.00427,-0.04562
2.7855,-0.27847,0.03464,0.19882,-0.27176,-0.03693,-0.04318,-0.01633,-0.00702,-0.04471,0.19913,-0.02289,-0.14297,-0.04272,-0.01999,0.00381,-0.05051
2.786,-0.25681,0.03448,0.2066,-0.28046,-0.03555,-0.04242,-0.01862,-0.00763,-0.0235,0.16006,-0.01694,-0.22385,-0.05142,-0.01831,0.00336,-0.05356
2.7865,-0.23911,0.03387,0.15778,-0.19592,-0.0351,-0.0415,-0.01923,-0.00626,0.00565,0.11993,-0.00443,-0.23041,-0.05661,-0.01709,0.00412,-0.05157
2.787,-0.22339,0.03098,0.07675,-0.09338,-0.03677,-0.03952,-0.02197,-0.00473,0.03754,0.08102,0.00534,-0.15091,-0.05569,-0.01495,0.00809,-0.04684
2.7875,-0.20584,0.02365,0.00549,-0.05753,-0.03586,-0.03769,-0.0264,-0.00336,0.06653,0.04593,0.01205,-0.00885,-0.04822,-0.01358,0.01114,-0.04013
2.788,-0.18723,0.01526,-0.05219,-0.12253,-0.03586,-0.03967,-0.0296,-0.0029,0.0766,0.02045,0.01892,0.12665,-0.03967,-0.01129,0.01389,-0.0383
2.7885,-0.16953,0.00626,-0.11261,-0.24841,-0.03433,-0.04242,-0.02777,-0.00366,0.06317,0.0058,0.03418,0.16327,-0.03174,-0.01083,0.01541,-0.03815
2.789,-0.1535,-0.00458,-0.16907,-0.34042,-0.03098,-0.04364,-0.02304,-0.00366,0.04257,-0.00946,0.04883,0.10239,-0.02579,-0.0119,0.01434,-0.03891
2.7895,-0.13596,-0.01862,-0.19867,-0.31174,-0.02792,-0.04227,-0.01968,-0.00305,0.03616,-0.03555,0.04898,0.06439,-0.02274,-0.01328,0.01038,-0.04089
2.79,-0.11703,-0.03342,-0.19867,-0.15503,-0.02716,-0.03922,-0.01526,0.00076,0.04456,-0.06683,0.03189,0.11703,-0.02274,-0.01373,0.01038,-0.04181
2.7905,-0.09949,-0.0473,-0.19043,0.05844,-0.02762,-0.03967,-0.00854,0.00641,0.04822,-0.08789,0.00641,0.159,-0.02487,-0.01526,0.01068,-0.04135
2.791,-0.08591,-0.06287,-0.18097,0.23529,-0.02853,-0.04211,0.00092,0.0116,0.0351,-0.09354,-0.01465,0.0737,-0.02792,-0.01755,0.01022,-0.04013
2.7915,-0.07629,-0.07721,-0.15717,0.32074,-0.02823,-0.04303,0.00778,0.01358,0.00809,-0.09521,-0.02258,-0.07477,-0.02853,-0.01877,0.00702,-0.04318
2.792,-0.06683,-0.08591,-0.12177,0.30838,-0.02777,-0.04425,0.00534,0.01251,-0.01434,-0.09903,-0.01938,-0.13763,-0.02853,-0.01907,0.00412,-0.04852
2.7925,-0.05554,-0.08957,-0.09354,0.22934,-0.02533,-0.04501,-0.00427,0.00793,-0.01968,-0.10452,-0.0145,-0.08438,-0.02884,-0.01953,0.00092,-0.05432
2.793,-0.04044,-0.09613,-0.09277,0.11795,-0.02533,-0.04532,-0.01389,0.00153,-0.01907,-0.10818,-0.02045,-0.01587,-0.02945,-0.02045,0.00168,-0.05661
2.7935,-0.02228,-0.1091,-0.10941,-0.01648,-0.02396,-0.0444,-0.01877,-0.00488,-0.03967,-0.10208,-0.03479,-0.01434,-0.02945,-0.02121,0.00336,-0.05493
2.794,-0.00717,-0.12512,-0.12405,-0.15732,-0.02243,-0.04547,-0.02075,-0.00885,-0.08942,-0.08347,-0.0441,-0.0676,-0.02869,-0.02304,0.00488,-0.05005
2.7945,0.00198,-0.13885,-0.13229,-0.24231,-0.02396,-0.04807,-0.02182,-0.01007,-0.14252,-0.05173,-0.04364,-0.11703,-0.02869,-0.02563,0.00702,-0.04837
2.795,0.00946,-0.15091,-0.12924,-0.20798,-0.02716,-0.04837,-0.02258,-0.01007,-0.16785,-0.0148,-0.04593,-0.11047,-0.02914,-0.02731,0.00931,-0.047
2.7955,0.02029,-0.16586,-0.09888,-0.0499,-0.02655,-0.04822,-0.02411,-0.0116,-0.16235,0.01709,-0.05402,-0.03723,-0.0296,-0.02747,0.01099,-0.04486
2.796,0.03586,-0.18356,-0.02609,0.14481,-0.0264,-0.04776,-0.02533,-0.01556,-0.14511,0.04089,-0.05707,0.06226,-0.02731,-0.0267,0.00961,-0.04333
2.7965,0.05081,-0.19302,0.06821,0.2774,-0.0267,-0.04868,-0.02487,-0.01556,-0.13489,0.05081,-0.05508,0.13565,-0.02518,-0.02533,0.00854,-0.04318
2.797,0.0618,-0.17731,0.13184,0.31754,-0.02808,-0.0499,-0.02243,-0.01114,-0.13153,0.04364,-0.05707,0.16418,-0.02365,-0.02426,0.00732,-0.04593
2.7975,0.0679,-0.13245,0.12695,0.30884,-0.0293,-0.0499,-0.01984,-0.0058,-0.11826,0.02396,-0.05981,0.15594,-0.02441,-0.0238,0.0061,-0.04684
2.798,0.07111,-0.06393,0.07187,0.28885,-0.03021,-0.04868,-0.01892,-0.00214,-0.08331,-0.00214,-0.04974,0.11444,-0.02533,-0.02533,0.00671,-0.04562
2.7985,0.0766,0.00946,0.01495,0.24811,-0.03113,-0.04761,-0.01877,0.00092,-0.03143,-0.03143,-0.02808,0.05356,-0.02533,-0.02625,0.00854,-0.04395
2.799,0.08743,0.07187,-0.01907,0.17258,-0.03189,-0.047,-0.01801,0.00458,0.02365,-0.06042,-0.009,0.01343,-0.02548,-0.02502,0.01068,-0.04303
2.7995,0.10406,0.11368,-0.03723,0.08514,-0.03128,-0.04578,-0.0177,0.00763,0.06348,-0.08957,0.00305,0.01434,-0.02518,-0.0235,0.01068,-0.04379
2.8,0.12314,0.13611,-0.05814,0.01694,-0.03189,-0.04456,-0.01816,0.00763,0.07843,-0.11169,0.01343,0.01129,-0.02533,-0.02151,0.00793,-0.04471
2.8005,0.13809,0.14069,-0.08896,-0.02731,-0.03204,-0.04486,-0.02045,0.00687,0.06989,-0.12085,0.02563,-0.04669,-0.02609,-0.02075,0.00519,-0.04562
2.801,0.1445,0.12543,-0.12344,-0.05798,-0.03418,-0.04684,-0.0209,0.00565,0.04959,-0.11169,0.03281,-0.11459,-0.02731,-0.01999,0.00381,-0.04684
2.8015,0.14557,0.09476,-0.14877,-0.09201,-0.03525,-0.04883,-0.01968,0.00397,0.02335,-0.08728,0.03632,-0.11337,-0.02762,-0.01968,0.00336,-0.04608
2.802,0.14526,0.06119,-0.15076,-0.14572,-0.03662,-0.04868,-0.01801,0.00275,-0.00748,-0.05035,0.04166,-0.04623,-0.0267,-0.01892,0.00534,-0.0444
2.8025,0.14694,0.03052,-0.12848,-0.21591,-0.03677,-0.04745,-0.01709,0.00137,-0.03922,-0.00793,0.05173,0.00519,-0.02457,-0.01724,0.00717,-0.04211
2.803,0.14938,0.00214,-0.0946,-0.26398,-0.03586,-0.04517,-0.01831,0.00076,-0.06012,0.02716,0.05173,0.00534,-0.02197,-0.01602,0.00778,-0.04074
2.8035,0.15106,-0.02426,-0.06516,-0.25314,-0.03357,-0.04547,-0.01923,0.00031,-0.06592,0.04257,0.03403,-0.01923,-0.02121,-0.01587,0.00641,-0.04074
2.804,0.15244,-0.04425,-0.04196,-0.19028,-0.0325,-0.04623,-0.01862,-0.00351,-0.06134,0.03647,0.00473,-0.05356,-0.02106,-0.01617,0.00549,-0.0412
2.8045,0.15503,-0.05219,-0.02747,-0.11841,-0.03204,-0.04807,-0.01831,-0.00931,-0.05249,0.01404,-0.02243,-0.11047,-0.02258,-0.01663,0.00443,-0.04227
2.805,0.15808,-0.05295,-0.02365,-0.07523,-0.03265,-0.04898,-0.01816,-0.01648,-0.04257,-0.01709,-0.04242,-0.16159,-0.02365,-0.01663,0.00519,-0.04135
2.8055,0.15701,-0.05264,-0.03311,-0.06592,-0.03387,-0.05035,-0.01968,-0.0209,-0.03693,-0.04852,-0.06317,-0.13123,-0.02426,-0.01526,0.00656,-0.03967
2.806,0.1506,-0.05356,-0.05051,-0.07904,-0.03281,-0.05325,-0.01938,-0.02106,-0.03677,-0.06836,-0.08499,0.00076,-0.0238,-0.0116,0.00717,-0.03922
2.8065,0.14114,-0.05203,-0.06729,-0.09949,-0.03357,-0.05707,-0.01678,-0.0177,-0.04105,-0.06027,-0.09933,0.13306,-0.02319,-0.00626,0.00656,-0.03876
2.807,0.13626,-0.0473,-0.08362,-0.1088,-0.03479,-0.05981,-0.01389,-0.01221,-0.04562,-0.02487,-0.10117,0.15869,-0.02304,-0.00153,0.00687,-0.04013
2.8075,0.1358,-0.04288,-0.10254,-0.09323,-0.03479,-0.05936,-0.01343,-0.00671,-0.04944,0.01938,-0.09338,0.09323,-0.02335,-0.00046,0.00717,-0.04166
2.808,0.13947,-0.04303,-0.11826,-0.05753,-0.03357,-0.0621,-0.01373,-0.00275,-0.05066,0.05386,-0.08163,0.03113,-0.02365,-0.00259,0.00717,-0.04272
2.8085,0.14404,-0.04669,-0.12695,-0.0209,-0.03418,-0.06302,-0.01205,-0.00168,-0.04654,0.07187,-0.06836,0.02136,-0.02365,-0.00595,0.00748,-0.04227
2.809,0.14923,-0.0528,-0.12558,-0.00046,-0.0351,-0.06302,-0.01038,-0.00214,-0.03601,0.07385,-0.05295,0.04562,-0.02502,-0.00656,0.0087,-0.04181
2.8095,0.15259,-0.05768,-0.11673,0.00092,-0.0354,-0.06195,-0.009,-0.0029,-0.02228,0.06165,-0.03326,0.07431,-0.02655,-0.00458,0.01038,-0.0415
2.81,0.15579,-0.0589,-0.1004,-0.00824,-0.03433,-0.06195,-0.00931,-0.00336,-0.0087,0.03998,-0.00717,0.08545,-0.02808,-0.0029,0.0119,-0.04059
2.8105,0.15961,-0.0618,-0.08072,-0.02136,-0.03418,-0.06149,-0.00931,-0.00244,0.00076,0.01251,0.02289,0.05386,-0.02991,-0.00214,0.0119,-0.04044
2.811,0.16327,-0.07492,-0.05936,-0.03113,-0.03448,-0.0592,-0.00946,-0.00214,0.0116,-0.01938,0.047,-0.01541,-0.03265,-0.00427,0.0116,-0.0383
2.8115,0.16815,-0.10361,-0.03754,-0.02274,-0.03326,-0.05585,-0.01022,-0.00412,0.02823,-0.05249,0.05768,-0.09216,-0.03754,-0.00717,0.0087,-0.03784
2.812,0.17212,-0.14038,-0.01846,0.02594,-0.03281,-0.05386,-0.01068,-0.00839,0.04959,-0.0798,0.05661,-0.14893,-0.04471,-0.0119,0.0058,-0.03967
2.8125,0.17365,-0.17868,-0.00458,0.13824,-0.03296,-0.05035,-0.00961,-0.01099,0.06699,-0.09018,0.05371,-0.17838,-0.05203,-0.01678,0.00702,-0.04105
2.813,0.1741,-0.21149,0.0119,0.29785,-0.03372,-0.04913,-0.00504,-0.00854,0.07233,-0.0769,0.0563,-0.16693,-0.05463,-0.01999,0.00916,-0.0412
2.8135,0.17426,-0.22659,0.03403,0.42908,-0.03143,-0.04852,-0.00122,-0.0032,0.06195,-0.04578,0.06439,-0.07919,-0.05157,-0.02151,0.00946,-0.04013
2.814,0.1741,-0.21286,0.06226,0.44144,-0.02823,-0.04745,-0.00153,0.00183,0.03998,-0.00961,0.07141,0.10254,-0.04578,-0.0235,0.00916,-0.03952
2.8145,0.17151,-0.17914,0.08514,0.3009,-0.02853,-0.04425,-0.00549,0.00397,0.01404,0.02563,0.06912,0.31677,-0.04013,-0.02533,0.00824,-0.03952
2.815,0.16632,-0.14587,0.0972,0.05249,-0.0296,-0.04333,-0.01038,0.00381,-0.01068,0.05447,0.05081,0.4335,-0.03738,-0.02701,0.00992,-0.04105
2.8155,0.16068,-0.11993,0.10376,-0.20004,-0.03052,-0.04318,-0.01633,0.00214,-0.02884,0.07217,0.01938,0.36255,-0.0386,-0.02686,0.00931,-0.0444
2.816,0.15579,-0.08575,0.11185,-0.35522,-0.03143,-0.04395,-0.02228,-0.00214,-0.0325,0.07431,-0.01511,0.15884,-0.04257,-0.02686,0.00702,-0.04623
2.8165,0.15427,-0.02686,0.1236,-0.36072,-0.03143,-0.04562,-0.02533,-0.00732,-0.01694,0.05936,-0.03967,-0.02792,-0.04593,-0.02701,0.00397,-0.04623
2.817,0.15747,0.05096,0.13016,-0.21851,-0.03372,-0.04639,-0.02121,-0.00992,0.01404,0.03906,-0.05341,-0.1149,-0.04425,-0.02731,0.00366,-0.04486
2.8175,0.16418,0.12329,0.12634,0.04181,-0.03357,-0.04761,-0.0119,-0.00992,0.04257,0.01694,-0.06378,-0.14191,-0.04059,-0.02914,0.00488,-0.04379
2.818,0.16617,0.17227,0.10696,0.32898,-0.03479,-0.04868,-0.00549,-0.00778,0.05264,-0.00809,-0.07446,-0.17014,-0.03754,-0.02991,0.00671,-0.04211
2.8185,0.15686,0.18814,0.06729,0.44556,-0.03662,-0.05066,-0.00534,-0.00793,0.0444,-0.03723,-0.08698,-0.1976,-0.0351,-0.02899,0.00656,-0.04074
2.819,0.13901,0.17059,0.00671,0.2504,-0.03799,-0.05417,-0.009,-0.01022,0.03601,-0.06851,-0.10437,-0.20386,-0.0322,-0.02548,0.00931,-0.03967
2.8195,0.12009,0.1297,-0.06149,-0.12161,-0.03693,-0.05569,-0.0116,-0.0119,0.0412,-0.09476,-0.12039,-0.19714,-0.03006,-0.02213,0.01175,-0.03784
2.82,0.09918,0.08041,-0.1149,-0.36591,-0.03555,-0.05585,-0.01221,-0.0119,0.05508,-0.11368,-0.11993,-0.19638,-0.02899,-0.01831,0.01358,-0.0351
2.8205,0.07034,0.0351,-0.13733,-0.3595,-0.03403,-0.05585,-0.01312,-0.01358,0.06088,-0.12451,-0.10132,-0.19928,-0.02899,-0.0148,0.01266,-0.03189
2.821,0.03586,-0.00168,-0.12756,-0.23285,-0.03281,-0.05554,-0.01572,-0.01724,0.05798,-0.12726,-0.07385,-0.18311,-0.02823,-0.01328,0.01221,-0.03174
2.8215,0.01007,-0.03235,-0.09949,-0.14084,-0.03098,-0.05432,-0.01953,-0.02075,0.06287,-0.11627,-0.05112,-0.13916,-0.02975,-0.01404,0.01236,-0.03342
2.822,0.00763,-0.06058,-0.06927,-0.10986,-0.03113,-0.05341,-0.02396,-0.02243,0.08636,-0.09079,-0.03189,-0.11642,-0.03372,-0.01801,0.01236,-0.03647
2.8225,0.03265,-0.08881,-0.04517,-0.11398,-0.03113,-0.05188,-0.02731,-0.02167,0.11322,-0.05554,-0.01373,-0.17395,-0.03784,-0.02213,0.0116,-0.03799
2.823,0.07446,-0.12329,-0.0293,-0.14618,-0.03052,-0.05081,-0.0296,-0.01892,0.12177,-0.02136,-0.00259,-0.27023,-0.03998,-0.02365,0.00977,-0.03876
2.8235,0.12024,-0.16052,-0.0177,-0.19531,-0.02853,-0.0499,-0.02838,-0.0145,0.10727,0.00595,-0.00214,-0.26611,-0.03952,-0.02396,0.00809,-0.04059
2.824,0.16388,-0.19409,-0.00656,-0.22522,-0.02823,-0.04822,-0.02274,-0.01068,0.07156,0.03006,-0.01007,-0.0824,-0.03616,-0.02518,0.0058,-0.04379
2.8245,0.2066,-0.21545,0.00366,-0.21774,-0.0267,-0.04654,-0.01572,-0.00748,-0.00076,0.05188,-0.01709,0.1915,-0.0296,-0.0267,0.00519,-0.04669
2.825,0.24429,-0.22095,0.00885,-0.1886,-0.02487,-0.0441,-0.01007,-0.00656,-0.1181,0.06912,-0.0174,0.39322,-0.02014,-0.02701,0.00549,-0.04913
2.8255,0.26474,-0.20584,0.00473,-0.14801,-0.0238,-0.04105,-0.00366,-0.00595,-0.2359,0.07965,-0.00534,0.45929,-0.01129,-0.02502,0.00458,-0.05157
2.826,0.26001,-0.16968,-0.01221,-0.07095,-0.02258,-0.03906,0.00397,-0.00519,-0.27954,0.08652,0.02121,0.43533,-0.0087,-0.0238,0.0029,-0.05127
2.8265,0.23468,-0.12344,-0.03769,0.05264,-0.02243,-0.03998,0.00656,-0.00305,-0.22675,0.08865,0.05737,0.37872,-0.01495,-0.02228,0.00107,-0.04959
2.827,0.20615,-0.08408,-0.05463,0.15747,-0.02197,-0.04196,0.00137,-0.0029,-0.14297,0.08301,0.09399,0.31433,-0.02686,-0.01923,0.00198,-0.04684
2.8275,0.18723,-0.05905,-0.05173,0.14374,-0.02274,-0.04288,-0.00931,-0.00427,-0.10178,0.07004,0.12619,0.2417,-0.03754,-0.01495,0.00412,-0.04517
2.828,0.17319,-0.04013,-0.0354,0.00595,-0.02319,-0.04257,-0.01633,-0.00702,-0.10117,0.06195,0.14572,0.13611,-0.04227,-0.0119,0.00519,-0.04532
2.8285,0.15152,-0.01648,-0.01801,-0.13092,-0.02274,-0.04196,-0.01678,-0.01022,-0.09232,0.06714,0.1358,-0.00732,-0.03769,-0.01114,0.00565,-0.04593
2.829,0.12115,0.00885,0.00153,-0.16525,-0.02182,-0.04257,-0.01434,-0.0116,-0.0592,0.08377,0.09033,-0.11002,-0.02884,-0.01266,0.00488,-0.04639
2.8295,0.0914,0.03098,0.02777,-0.13824,-0.02029,-0.04318,-0.01251,-0.00946,-0.02899,0.09949,0.02594,-0.09842,-0.02243,-0.01389,0.00519,-0.04562
2.83,0.07294,0.04547,0.05402,-0.15472,-0.01877,-0.04333,-0.01175,-0.00366,-0.01617,0.09857,-0.02701,-0.03204,-0.02274,-0.01495,0.0058,-0.0441
2.8305,0.06287,0.05157,0.06332,-0.22858,-0.01968,-0.04318,-0.00916,0.00031,-0.00961,0.07095,-0.04456,-0.03342,-0.02792,-0.0177,0.00656,-0.04303
2.831,0.05569,0.0473,0.04715,-0.27374,-0.01984,-0.04471,-0.00549,0.0,0.00015,0.01984,-0.03098,-0.12024,-0.03418,-0.02136,0.0058,-0.04379
2.8315,0.04776,0.03281,0.01328,-0.23758,-0.01999,-0.04486,-0.00336,0.00031,0.00626,-0.04684,-0.00916,-0.19745,-0.03937,-0.02502,0.00366,-0.04669
2.832,0.03738,0.00977,-0.01801,-0.16266,-0.01892,-0.04562,-0.00229,0.0032,-0.00092,-0.12421,-0.0029,-0.19058,-0.04364,-0.02853,0.00183,-0.04959
2.8325,0.02533,-0.01923,-0.03143,-0.09232,-0.01801,-0.04532,-0.00183,0.00687,-0.01602,-0.20859,-0.01221,-0.1059,-0.04654,-0.02792,0.00168,-0.05234
2.833,0.01465,-0.05341,-0.02686,0.01419,-0.0174,-0.04501,-0.00198,0.00793,-0.02029,-0.28992,-0.02716,0.00336,-0.04776,-0.02502,0.00412,-0.05249
2.8335,0.00519,-0.09003,-0.01511,0.16235,-0.01617,-0.04669,-0.00366,0.00534,-0.01877,-0.35049,-0.0473,0.07965,-0.04578,-0.02335,0.00626,-0.04898
2.834,-0.00107,-0.12024,-0.00366,0.23102,-0.01617,-0.05066,-0.00763,0.00076,-0.03342,-0.37003,-0.07553,0.10117,-0.04105,-0.02472,0.00763,-0.0444
2.8345,-0.00443,-0.13718,-0.0087,0.13077,-0.01724,-0.05432,-0.01205,-0.00336,-0.06241,-0.34332,-0.1091,0.10025,-0.03677,-0.0267,0.00534,-0.04059
2.835,-0.00351,-0.13733,-0.04456,-0.03906,-0.01785,-0.05539,-0.01495,-0.00534,-0.07599,-0.27206,-0.1329,0.12222,-0.03632,-0.02869,0.00549,-0.03845
2.8355,0.00015,-0.1239,-0.10132,-0.1152,-0.01999,-0.05295,-0.01755,-0.00473,-0.05768,-0.16022,-0.1384,0.16403,-0.03876,-0.02884,0.00854,-0.03708
2.836,0.00534,-0.10223,-0.14801,-0.06271,-0.02441,-0.05157,-0.02197,-0.00397,-0.02808,-0.0209,-0.12909,0.17822,-0.0415,-0.02884,0.01175,-0.03647
2.8365,0.01282,-0.0737,-0.16098,0.0502,-0.03479,-0.05203,-0.03021,-0.00473,-0.00916,0.1207,-0.11734,0.13565,-0.04349,-0.02838,0.01205,-0.03647
2.837,0.02365,-0.03189,-0.14801,0.18524,-0.05203,-0.05341,-0.03723,-0.00687,-0.00198,0.23849,-0.10834,0.05615,-0.0441,-0.02594,0.00931,-0.03891
2.8375,0.03403,0.02853,-0.13336,0.32837,-0.06699,-0.05447,-0.03769,-0.00732,0.00336,0.31647,-0.10056,-0.02792,-0.04486,-0.02228,0.00809,-0.04196
2.838,0.03906,0.09995,-0.12573,0.40939,-0.07401,-0.05493,-0.03143,-0.00595,0.01068,0.34393,-0.09079,-0.10529,-0.04578,-0.01816,0.00854,-0.04257
2.8385,0.03708,0.16388,-0.12177,0.3598,-0.07034,-0.05417,-0.0235,-0.00458,0.01144,0.32074,-0.07614,-0.16357,-0.04456,-0.01511,0.00809,-0.04105
2.839,0.03433,0.20706,-0.11719,0.23239,-0.06058,-0.05219,-0.02045,-0.00305,0.00443,0.25513,-0.05981,-0.17349,-0.04166,-0.01297,0.00626,-0.0386
2.8395,0.03632,0.22614,-0.11185,0.15991,-0.05035,-0.04929,-0.02075,-0.0029,-0.00427,0.16464,-0.04791,-0.12817,-0.03769,-0.0116,0.00519,-0.03677
2.84,0.03662,0.22659,-0.10696,0.18967,-0.04211,-0.04715,-0.01816,-0.00275,-0.00885,0.07416,-0.04272,-0.07248,-0.03403,-0.00977,0.00549,-0.03601
2.8405,0.02502,0.21423,-0.09842,0.24628,-0.03891,-0.04578,-0.00702,-0.0032,-0.00961,0.00519,-0.04028,-0.04883,-0.0322,-0.00809,0.00732,-0.0354
2.841,0.00107,0.19333,-0.08621,0.24872,-0.03906,-0.0441,0.00427,-0.00061,-0.00839,-0.03296,-0.03464,-0.03784,-0.02975,-0.00824,0.00702,-0.03616
2.8415,-0.02319,0.17014,-0.0766,0.19394,-0.0386,-0.04318,0.00198,0.0029,-0.00275,-0.04654,-0.02029,0.00046,-0.0293,-0.00916,0.00504,-0.03799
2.842,-0.03738,0.14313,-0.07278,0.11978,-0.0383,-0.04166,-0.01328,0.00366,0.00656,-0.04395,-0.00351,0.06119,-0.03052,-0.01099,0.00259,-0.03967
2.8425,-0.04089,0.10651,-0.0708,0.04684,-0.03677,-0.04059,-0.0238,0.00183,0.01724,-0.02716,0.00854,0.09705,-0.02991,-0.0119,0.00137,-0.03952
2.843,-0.03586,0.05844,-0.06226,-0.01465,-0.03464,-0.03967,-0.02182,0.0,0.02335,0.00443,0.01099,0.07782,-0.02853,-0.01328,0.00275,-0.03876
2.8435,-0.02533,0.00717,-0.04318,-0.04593,-0.0325,-0.0383,-0.01511,0.00015,0.02014,0.04974,0.00595,0.01678,-0.02716,-0.01465,0.00397,-0.03922
2.844,-0.01053,-0.03738,-0.01678,-0.0351,-0.03052,-0.0386,-0.01236,-0.00031,0.01068,0.09552,0.00076,-0.06058,-0.02838,-0.01709,0.00534,-0.04135
2.8445,0.00381,-0.0708,0.00809,-0.00305,-0.02945,-0.04013,-0.01221,-0.00122,0.01114,0.1297,-0.00107,-0.14297,-0.0296,-0.01999,0.0061,-0.04501
2.845,0.01282,-0.09338,0.01984,0.01938,-0.02975,-0.04196,-0.01114,-0.00168,0.02853,0.13779,-0.00092,-0.21942,-0.03204,-0.0209,0.00763,-0.04807
2.8455,0.01572,-0.10681,0.00931,0.02518,-0.03098,-0.04333,-0.01083,-0.00046,0.04715,0.12009,0.00137,-0.25299,-0.03403,-0.01923,0.009,-0.0502
2.846,0.01083,-0.11093,-0.01556,0.01923,-0.03082,-0.04486,-0.01205,0.00076,0.04868,0.0885,0.00854,-0.21881,-0.03265,-0.01648,0.00931,-0.04959
2.8465,-0.00305,-0.10574,-0.03006,-0.00946,-0.03113,-0.04608,-0.0145,0.00275,0.03601,0.05417,0.01938,-0.15533,-0.03204,-0.01556,0.01099,-0.04532
2.847,-0.02243,-0.09583,-0.02518,-0.06302,-0.03189,-0.0473,-0.01556,0.00244,0.02045,0.02106,0.02991,-0.11658,-0.03174,-0.01678,0.01312,-0.03937
2.8475,-0.03601,-0.08789,-0.01053,-0.0943,-0.03281,-0.04837,-0.01511,0.00259,0.01099,-0.01205,0.03937,-0.08163,-0.03204,-0.0177,0.01266,-0.0354
2.848,-0.04074,-0.08759,-0.00336,-0.056,-0.03372,-0.04913,-0.01297,0.00214,0.01175,-0.04593,0.04639,0.0116,-0.03281,-0.01663,0.01068,-0.03708
2.8485,-0.03952,-0.09293,-0.00931,0.02579,-0.03403,-0.05035,-0.0119,0.00305,0.0264,-0.07889,0.04761,0.11841,-0.03372,-0.01587,0.00763,-0.04074
2.849,-0.03723,-0.09628,-0.02487,0.07202,-0.03372,-0.05005,-0.0119,0.00275,0.03998,-0.11078,0.04196,0.09842,-0.03677,-0.01724,0.00641,-0.04333
2.8495,-0.0351,-0.09918,-0.04501,0.05066,-0.03342,-0.04883,-0.01343,0.00107,0.03174,-0.1384,0.03326,-0.05005,-0.04288,-0.02014,0.00824,-0.04196
2.85,-0.03006,-0.1033,-0.065,-0.0061,-0.03311,-0.04791,-0.01389,-0.00076,-0.00031,-0.15549,0.02548,-0.13123,-0.04944,-0.02274,0.01068,-0.04074
2.8505,-0.02518,-0.10818,-0.07828,-0.06454,-0.03372,-0.04791,-0.01297,-0.00183,-0.03189,-0.15778,0.01999,-0.0119,-0.0499,-0.02243,0.009,-0.04272
2.851,-0.02487,-0.11108,-0.08194,-0.12497,-0.03265,-0.04852,-0.01129,-0.00214,-0.04105,-0.14908,0.01099,0.19287,-0.04517,-0.02045,0.0058,-0.04562
2.8515,-0.03204,-0.11047,-0.07614,-0.19318,-0.03265,-0.04883,-0.01007,-0.0029,-0.04059,-0.13474,-0.00381,0.27756,-0.03967,-0.01938,0.00427,-0.04608
2.852,-0.04059,-0.11276,-0.0647,-0.23682,-0.0322,-0.04868,-0.01099,-0.00351,-0.05035,-0.11917,-0.02243,0.18082,-0.03815,-0.01953,0.00427,-0.04425
2.8525,-0.04684,-0.12238,-0.05035,-0.21652,-0.03235,-0.04929,-0.01221,-0.00168,-0.06332,-0.10208,-0.03189,0.01068,-0.03922,-0.0206,0.00565,-0.04059
2.853,-0.05127,-0.14297,-0.0415,-0.14603,-0.03342,-0.0499,-0.01389,0.00107,-0.05753,-0.08453,-0.02548,-0.09048,-0.03891,-0.02014,0.009,-0.0383
2.8535,-0.05432,-0.16953,-0.04059,-0.08484,-0.03265,-0.05005,-0.0145,0.00305,-0.03571,-0.07111,-0.00763,-0.0766,-0.0383,-0.01968,0.01251,-0.03738
2.854,-0.05554,-0.18951,-0.03937,-0.06012,-0.03265,-0.05051,-0.01404,0.00244,-0.02197,-0.0621,0.00809,-0.01434,-0.03723,-0.01938,0.01114,-0.03693
2.8545,-0.05325,-0.19531,-0.02426,-0.03067,-0.0322,-0.05035,-0.01389,0.00168,-0.02579,-0.06119,0.01266,0.01816,-0.03677,-0.01877,0.00931,-0.03601
2.855,-0.04852,-0.19028,0.00381,0.04333,-0.03082,-0.05081,-0.01221,0.00214,-0.03601,-0.06653,0.0087,0.03555,-0.03738,-0.01831,0.00977,-0.03525
2.8555,-0.04547,-0.18402,0.03845,0.12497,-0.02914,-0.05127,-0.01114,0.00458,-0.0415,-0.07401,0.00275,0.09644,-0.03723,-0.01785,0.01297,-0.0354
2.856,-0.04562,-0.18112,0.07874,0.14542,-0.02838,-0.05157,-0.01053,0.00565,-0.047,-0.08636,-0.00198,0.17822,-0.03662,-0.01694,0.01373,-0.03693
2.8565,-0.04883,-0.17868,0.13016,0.0853,-0.02808,-0.05142,-0.01099,0.00458,-0.05768,-0.10284,-0.00534,0.17212,-0.0351,-0.01709,0.01038,-0.04089
2.857,-0.05508,-0.16891,0.17532,-0.02838,-0.02792,-0.05203,-0.01205,0.0032,-0.06699,-0.11673,-0.00351,0.03601,-0.03403,-0.0177,0.00687,-0.04593
2.8575,-0.05936,-0.14389,0.17441,-0.18066,-0.02716,-0.05295,-0.01297,0.00214,-0.065,-0.11963,0.00488,-0.09857,-0.03311,-0.02029,0.00488,-0.04715
2.858,-0.05981,-0.1059,0.11383,-0.36057,-0.02823,-0.05402,-0.01343,0.00122,-0.05142,-0.11063,0.01862,-0.05081,-0.03006,-0.02228,0.00473,-0.04578
2.8585,-0.0589,-0.06851,0.02167,-0.52094,-0.03143,-0.05493,-0.01587,-0.00122,-0.03036,-0.09857,0.03555,0.17075,-0.02487,-0.02197,0.00458,-0.04395
2.859,-0.06439,-0.04608,-0.06378,-0.59525,-0.03326,-0.05493,-0.0177,-0.00595,-0.00656,-0.08865,0.05188,0.32852,-0.01831,-0.0206,0.00717,-0.04257
2.8595,-0.07843,-0.04196,-0.12787,-0.53406,-0.03113,-0.05402,-0.01755,-0.01007,0.01373,-0.08133,0.06439,0.233,-0.01129,-0.01923,0.00946,-0.0412
2.86,-0.0943,-0.05081,-0.16281,-0.31174,-0.02762,-0.05249,-0.01602,-0.01236,0.02853,-0.07431,0.06805,-0.0267,-0.00656,-0.01877,0.01068,-0.03922
2.8605,-0.10635,-0.06592,-0.16602,0.03891,-0.02563,-0.05127,-0.01556,-0.01297,0.03708,-0.06439,0.05997,-0.21286,-0.0058,-0.01755,0.00977,-0.03693
2.861,-0.11154,-0.07751,-0.14175,0.34668,-0.02701,-0.05157,-0.01785,-0.01343,0.03693,-0.05157,0.04486,-0.23148,-0.00824,-0.01633,0.00885,-0.03616
2.8615,-0.11368,-0.0769,-0.09552,0.39505,-0.02884,-0.05112,-0.01999,-0.0148,0.0264,-0.0386,0.03098,-0.18066,-0.01251,-0.01587,0.0087,-0.03693
2.862,-0.1178,-0.05905,-0.03632,0.18753,-0.02777,-0.05096,-0.01984,-0.01343,0.01175,-0.02838,0.02151,-0.14954,-0.0177,-0.01587,0.00793,-0.03876
2.8625,-0.12238,-0.02686,0.02808,-0.01709,-0.02731,-0.0502,-0.0174,-0.01068,0.00107,-0.01999,0.01236,-0.10925,-0.02136,-0.01556,0.00778,-0.04013
2.863,-0.1236,0.0116,0.09933,-0.0296,-0.02975,-0.05112,-0.01541,-0.00717,-0.00504,-0.01099,0.00549,-0.02472,-0.02228,-0.01587,0.0087,-0.04135
2.8635,-0.11581,0.04883,0.16968,0.06927,-0.03387,-0.05295,-0.01556,-0.00626,-0.01587,-0.00107,0.00168,0.0415,-0.02228,-0.0177,0.00839,-0.04227
2.864,-0.10345,0.07721,0.20493,0.11429,-0.03891,-0.05432,-0.01678,-0.0061,-0.03113,0.00107,0.00092,0.03189,-0.02609,-0.02075,0.0087,-0.04211
2.8645,-0.09583,0.09399,0.17517,0.07904,-0.04196,-0.05402,-0.01663,-0.00595,-0.03967,-0.01144,0.00122,-0.00626,-0.03494,-0.02213,0.0087,-0.04166
2.865,-0.09552,0.1001,0.09964,0.03906,-0.0415,-0.05341,-0.01389,-0.00626,-0.0354,-0.03784,-0.00031,-0.01678,-0.04822,-0.02258,0.00961,-0.04044
2.8655,-0.09537,0.10162,0.02563,0.03021,-0.03769,-0.05249,-0.01129,-0.00641,-0.02594,-0.06973,-0.00732,-0.0322,-0.06104,-0.02121,0.01175,-0.04028
2.866,-0.09094,0.10101,-0.02808,0.03342,-0.0325,-0.05142,-0.01007,-0.00778,-0.02426,-0.09674,-0.02731,-0.09338,-0.06592,-0.01984,0.01266,-0.04028
2.8665,-0.08453,0.09598,-0.08026,0.04715,-0.03052,-0.05066,-0.01114,-0.00717,-0.03113,-0.11597,-0.05676,-0.16251,-0.06073,-0.01831,0.0119,-0.04135
2.867,-0.0795,0.08316,-0.14099,0.09201,-0.03128,-0.05051,-0.01236,-0.00626,-0.03464,-0.12589,-0.08377,-0.15823,-0.05096,-0.01633,0.01007,-0.04318
2.8675,-0.07645,0.06256,-0.19913,0.15762,-0.0322,-0.04883,-0.01175,-0.00473,-0.02884,-0.12329,-0.09766,-0.0351,-0.04456,-0.0145,0.00839,-0.04425
2.868,-0.07248,0.0412,-0.24292,0.20035,-0.03067,-0.04791,-0.01068,-0.00366,-0.02472,-0.10956,-0.09384,0.17166,-0.04349,-0.01297,0.00626,-0.04593
2.8685,-0.06622,0.02304,-0.27359,0.20233,-0.02945,-0.04654,-0.0116,-0.00092,-0.03433,-0.0914,-0.08408,0.336,-0.04364,-0.0148,0.00397,-0.04684
2.869,-0.05722,0.00473,-0.28839,0.18433,-0.02792,-0.04547,-0.01541,0.00244,-0.05951,-0.07187,-0.07614,0.33386,-0.04028,-0.02014,0.00092,-0.04593
2.8695,-0.047,-0.02289,-0.2861,0.15518,-0.02731,-0.04395,-0.01953,0.0061,-0.08362,-0.047,-0.06912,0.17151,-0.03372,-0.02609,0.00122,-0.04639
2.87,-0.04028,-0.05905,-0.27039,0.09842,-0.02792,-0.04181,-0.02304,0.00565,-0.08881,-0.00763,-0.06226,-0.00137,-0.02808,-0.03006,0.00443,-0.04776
2.8705,-0.03906,-0.08865,-0.24963,0.01663,-0.02991,-0.04242,-0.02289,0.00336,-0.07416,0.04456,-0.06516,-0.05783,-0.02533,-0.03143,0.00763,-0.05142
2.871,-0.03967,-0.09644,-0.22369,-0.04257,-0.03326,-0.0444,-0.0206,0.0,-0.05905,0.09796,-0.08484,-0.02563,-0.02289,-0.03098,0.00626,-0.05219
2.8715,-0.03525,-0.08408,-0.18982,-0.04562,-0.0351,-0.04715,-0.01846,-0.00458,-0.0531,0.14023,-0.10483,-0.01114,-0.02121,-0.02991,0.0032,-0.04837
2.872,-0.0267,-0.06836,-0.1506,-0.01846,-0.03555,-0.04837,-0.01694,-0.009,-0.0473,0.17044,-0.10376,-0.05249,-0.0209,-0.02686,0.00229,-0.04181
2.8725,-0.01694,-0.05783,-0.11703,-0.01343,-0.0354,-0.04745,-0.01633,-0.01266,-0.03326,0.18814,-0.08255,-0.08545,-0.0209,-0.02304,0.00641,-0.03601
2.873,-0.00992,-0.05173,-0.09262,-0.04501,-0.03464,-0.04715,-0.01694,-0.01221,-0.01434,0.19241,-0.06088,-0.03601,-0.01724,-0.0177,0.01068,-0.03433
2.8735,-0.00565,-0.04807,-0.07278,-0.08224,-0.03448,-0.04852,-0.01892,-0.00946,0.00275,0.18204,-0.05173,0.07629,-0.00824,-0.01282,0.0116,-0.0354
2.874,-0.00229,-0.0499,-0.05157,-0.10223,-0.03555,-0.05051,-0.0209,-0.00626,0.02106,0.15488,-0.04547,0.13458,0.0,-0.00916,0.01175,-0.03708
2.8745,0.00092,-0.05753,-0.0293,-0.11749,-0.03586,-0.05081,-0.01968,-0.00412,0.04364,0.11459,-0.03265,0.05402,0.00183,-0.00626,0.0116,-0.03845
2.875,0.00549,-0.06592,-0.01022,-0.14603,-0.03693,-0.04898,-0.01541,-0.00214,0.06454,0.06744,-0.01678,-0.10269,-0.00412,-0.00565,0.00839,-0.03876
2.8755,0.01083,-0.07141,0.00534,-0.18402,-0.03738,-0.04776,-0.01022,-0.00107,0.07202,0.02319,-0.00885,-0.18951,-0.01785,-0.00778,0.00458,-0.03983
2.876,0.01648,-0.07645,0.02014,-0.20798,-0.03738,-0.04868,-0.0061,-0.0029,0.06149,-0.00671,-0.00732,-0.14679,-0.03418,-0.01038,0.00198,-0.04074
2.8765,0.01999,-0.0853,0.03357,-0.19714,-0.03922,-0.04822,-0.00763,-0.00763,0.04791,-0.0209,-0.00107,-0.05066,-0.04593,-0.01266,0.00092,-0.04456
2.877,0.0209,-0.09735,0.04425,-0.15381,-0.04211,-0.04822,-0.01022,-0.01099,0.04669,-0.02655,0.00778,0.00809,-0.05157,-0.01328,0.00107,-0.0499
2.8775,0.02121,-0.10849,0.05157,-0.09628,-0.04425,-0.04837,-0.01266,-0.01068,0.05859,-0.02899,0.00732,0.00015,-0.05463,-0.01465,0.00259,-0.05524
2.878,0.02106,-0.11597,0.05493,-0.04791,-0.04532,-0.04913,-0.01297,-0.00916,0.06927,-0.02884,-0.01144,-0.06866,-0.06058,-0.01678,0.0032,-0.05814
2.8785,0.01846,-0.12177,0.05463,-0.03922,-0.04364,-0.0499,-0.01175,-0.00916,0.07065,-0.02792,-0.04044,-0.15839,-0.06546,-0.01801,0.00381,-0.05783
2.879,0.01312,-0.12634,0.04959,-0.09354,-0.04196,-0.04944,-0.0116,-0.01068,0.06607,-0.02838,-0.06775,-0.17609,-0.06531,-0.01755,0.0058,-0.05539
2.8795,0.00504,-0.12314,0.04349,-0.19592,-0.04089,-0.04654,-0.01221,-0.00885,0.0499,-0.03403,-0.08209,-0.06454,-0.0592,-0.01846,0.00839,-0.05463
2.88,-0.00885,-0.10406,0.03723,-0.29068,-0.04211,-0.04532,-0.01114,-0.00549,0.0058,-0.04196,-0.07446,0.112,-0.0502,-0.0206,0.01038,-0.05371
2.8805,-0.02655,-0.0737,0.03067,-0.32425,-0.04517,-0.04654,-0.01144,-0.00366,-0.06287,-0.05432,-0.05096,0.2327,-0.04349,-0.02396,0.01266,-0.05005
2.881,-0.04288,-0.04608,0.02777,-0.29434,-0.04547,-0.04929,-0.01434,-0.00549,-0.12604,-0.0737,-0.02853,0.22369,-0.0383,-0.02686,0.01404,-0.04074
2.8815,-0.04974,-0.02747,0.03601,-0.22842,-0.04364,-0.0502,-0.01709,-0.00687,-0.15472,-0.10086,-0.01877,0.08972,-0.03342,-0.0293,0.01495,-0.02914
2.882,-0.04379,-0.01526,0.04822,-0.11398,-0.04242,-0.0499,-0.01816,-0.00732,-0.14206,-0.1297,-0.01205,-0.09323,-0.03067,-0.03067,0.01526,-0.01907
2.8825,-0.02792,-0.00656,0.04959,0.09781,-0.04135,-0.04929,-0.0177,-0.00763,-0.10437,-0.15915,0.00839,-0.1889,-0.03052,-0.03204,0.01419,-0.01678
2.883,-0.00519,0.00107,0.03433,0.36453,-0.04166,-0.04745,-0.01633,-0.00702,-0.06088,-0.18616,0.0354,-0.11032,-0.03265,-0.03357,0.0119,-0.02701
2.8835,0.01877,0.00748,0.01221,0.52994,-0.04074,-0.04669,-0.01541,-0.00717,-0.0296,-0.20676,0.04807,0.05829,-0.0351,-0.03387,0.0087,-0.04318
2.884,0.03601,0.0116,-0.0058,0.50781,-0.03967,-0.047,-0.0145,-0.00656,-0.02167,-0.21484,0.04074,0.12711,-0.03708,-0.03296,0.00458,-0.05249
2.8845,0.04379,0.01007,-0.01572,0.41061,-0.04059,-0.04669,-0.01266,-0.00381,-0.03708,-0.20508,0.02502,0.02884,-0.03845,-0.03433,0.00198,-0.05096
2.885,0.04669,0.00336,-0.01709,0.38391,-0.04089,-0.04395,-0.01175,-0.00061,-0.06226,-0.17487,0.00992,-0.0943,-0.04181,-0.03693,0.00031,-0.04486
2.8855,0.05157,-0.00275,-0.00824,0.39749,-0.0386,-0.04272,-0.01099,0.00336,-0.08118,-0.12436,-0.00305,-0.10742,-0.04532,-0.03922,0.00061,-0.0412
2.886,0.05356,-0.00839,0.00748,0.30777,-0.03204,-0.04288,-0.01083,0.0058,-0.08652,-0.05402,-0.009,-0.07278,-0.04547,-0.0383,0.00366,-0.04028
2.8865,0.04272,-0.01526,0.02029,0.08224,-0.02487,-0.0441,-0.01068,0.00656,-0.07416,0.02533,-0.00015,-0.10452,-0.04379,-0.03387,0.00656,-0.03891
2.887,0.02243,-0.02258,0.02472,-0.15747,-0.02029,-0.04288,-0.00961,0.00687,-0.04791,0.09521,0.01816,-0.14114,-0.04395,-0.02808,0.00946,-0.03601
2.8875,0.00656,-0.0267,0.02548,-0.29877,-0.01816,-0.04105,-0.00793,0.00595,-0.02289,0.13962,0.0383,-0.03281,-0.04883,-0.02411,0.00961,-0.03372
2.888,0.00122,-0.02258,0.03326,-0.34119,-0.01541,-0.03998,-0.00702,0.00412,-0.01587,0.15457,0.05417,0.20798,-0.05371,-0.02045,0.01053,-0.0325
2.8885,0.00122,-0.01266,0.0528,-0.34698,-0.01251,-0.0415,-0.009,0.00214,-0.02426,0.14709,0.06119,0.38834,-0.05325,-0.0177,0.01343,-0.03265
2.889,0.00031,-0.00534,0.07599,-0.34729,-0.01541,-0.04272,-0.01236,0.00046,-0.03204,0.12909,0.05692,0.35217,-0.04517,-0.01328,0.0145,-0.03525
2.8895,-0.00046,-0.00595,0.09003,-0.31052,-0.02441,-0.04196,-0.01495,-0.00015,-0.02655,0.1123,0.04684,0.1474,-0.03448,-0.00748,0.01175,-0.0383
2.89,-0.00076,-0.01465,0.07355,-0.18768,-0.03403,-0.0412,-0.01526,-0.00046,-0.00504,0.09949,0.03922,-0.02075,-0.02838,-0.00229,0.00839,-0.04242
2.8905,-0.0029,-0.02563,0.02045,0.00076,-0.03906,-0.04044,-0.01511,-0.00092,0.02884,0.08667,0.03448,-0.00275,-0.02823,-0.00061,0.00717,-0.04501
2.891,-0.00793,-0.0322,-0.04898,0.16388,-0.03784,-0.03922,-0.0145,-0.00214,0.0618,0.06424,0.02411,0.13657,-0.03098,-0.00244,0.00717,-0.04654
2.8915,-0.00824,-0.04044,-0.10132,0.22736,-0.03555,-0.03769,-0.01282,-0.0032,0.0705,0.02579,0.00732,0.21103,-0.03387,-0.00671,0.0061,-0.04837
2.892,-0.00031,-0.05814,-0.11963,0.20432,-0.03571,-0.03586,-0.009,-0.00366,0.04684,-0.01831,-0.00214,0.13245,-0.03601,-0.01068,0.0032,-0.04944
2.8925,0.01175,-0.08667,-0.1181,0.15686,-0.03647,-0.03464,-0.00671,-0.00366,0.00778,-0.04608,0.00107,-0.00702,-0.0351,-0.01312,0.00275,-0.0499
2.893,0.02045,-0.11459,-0.1149,0.13336,-0.03571,-0.03372,-0.00702,-0.00458,-0.02548,-0.04684,0.00809,-0.0737,-0.03067,-0.01266,0.0058,-0.04761
2.8935,0.02594,-0.13199,-0.11703,0.14221,-0.03403,-0.03159,-0.00793,-0.00656,-0.04471,-0.03204,0.00717,-0.04486,-0.02548,-0.01068,0.00885,-0.04379
2.894,0.03067,-0.13992,-0.12497,0.16998,-0.03281,-0.0322,-0.00824,-0.00916,-0.04898,-0.01801,-0.00122,-0.00977,-0.02045,-0.00885,0.00854,-0.04196
2.8945,0.02853,-0.1384,-0.13763,0.18768,-0.0325,-0.03357,-0.00992,-0.009,-0.04059,-0.01282,-0.0116,-0.04486,-0.0177,-0.0087,0.00595,-0.04318
2.895,0.01266,-0.12207,-0.15259,0.17792,-0.0322,-0.03418,-0.01328,-0.00839,-0.03098,-0.02289,-0.02136,-0.1387,-0.01801,-0.00839,0.0058,-0.04517
2.8955,-0.0119,-0.08911,-0.16052,0.14252,-0.03342,-0.03357,-0.0148,-0.00793,-0.03433,-0.04852,-0.02914,-0.23209,-0.01938,-0.00809,0.00702,-0.04471
2.896,-0.03296,-0.04807,-0.14557,0.09995,-0.03296,-0.03311,-0.01373,-0.00671,-0.05249,-0.08316,-0.0322,-0.26642,-0.02045,-0.00885,0.00748,-0.04181
2.8965,-0.03998,-0.01419,-0.09415,0.06851,-0.03021,-0.03311,-0.01175,-0.00504,-0.07111,-0.11276,-0.02914,-0.20233,-0.02319,-0.00992,0.00809,-0.0386
2.897,-0.03479,0.00137,-0.02197,0.04089,-0.02609,-0.03342,-0.01022,-0.0032,-0.07614,-0.13123,-0.02151,-0.05646,-0.02533,-0.01099,0.00885,-0.0383
2.8975,-0.02655,-0.0058,0.02701,-0.04013,-0.02151,-0.03357,-0.00961,-0.00275,-0.06973,-0.13641,-0.01434,0.0679,-0.02686,-0.01114,0.00778,-0.03937
2.898,-0.01953,-0.02853,0.02228,-0.22675,-0.01678,-0.03387,-0.00885,-0.00275,-0.06348,-0.12512,-0.00824,0.0705,-0.02853,-0.01175,0.00412,-0.04181
2.8985,-0.0148,-0.05112,-0.01617,-0.47043,-0.01297,-0.0354,-0.00732,-0.00397,-0.06363,-0.09369,-0.00504,-0.02151,-0.03052,-0.01434,0.00107,-0.0441
2.899,-0.01083,-0.06012,-0.0502,-0.64819,-0.01068,-0.03754,-0.00793,-0.00519,-0.06226,-0.04745,-0.00275,-0.07828,-0.03174,-0.01785,-0.00076,-0.04562
2.8995,-0.00931,-0.05585,-0.05951,-0.67947,-0.00992,-0.03784,-0.00916,-0.00504,-0.05142,0.00229,-0.00092,-0.01511,-0.03082,-0.02014,0.00244,-0.04471
2.9,-0.01083,-0.0444,-0.05234,-0.5658,-0.01099,-0.03754,-0.0116,-0.00443,-0.03113,0.04288,-0.0032,0.10681,-0.0322,-0.02106,0.00671,-0.04211
2.9005,-0.01328,-0.02991,-0.03708,-0.31128,-0.01572,-0.03723,-0.0119,-0.00351,-0.00946,0.06607,-0.00702,0.16327,-0.03708,-0.02167,0.00763,-0.04349
2.901,-0.01633,-0.0116,-0.01862,0.06729,-0.02258,-0.03601,-0.0116,-0.00229,0.00671,0.07675,-0.01114,0.08575,-0.04242,-0.02258,0.00519,-0.04654
2.9015,-0.01938,0.00626,-0.00244,0.41061,-0.03311,-0.03586,-0.01404,-0.00137,0.01846,0.08224,-0.01572,-0.09033,-0.04364,-0.02197,0.00397,-0.04898
2.902,-0.02121,0.01755,0.00351,0.46692,-0.04532,-0.03708,-0.0206,-0.00168,0.0264,0.08972,-0.02335,-0.25467,-0.04028,-0.02014,0.00534,-0.04807
2.9025,-0.02335,0.01846,0.00275,0.20309,-0.05432,-0.03799,-0.02594,-0.00305,0.03891,0.10162,-0.02975,-0.28488,-0.03403,-0.01892,0.00839,-0.04547
2.903,-0.0293,0.00778,-0.00046,-0.09613,-0.05661,-0.03738,-0.02411,-0.00427,0.06165,0.11826,-0.03082,-0.12848,-0.02914,-0.01892,0.00946,-0.04196
2.9035,-0.03906,-0.0119,-0.0061,-0.16342,-0.05386,-0.03769,-0.01831,-0.00458,0.08774,0.12817,-0.0293,0.13062,-0.02625,-0.01953,0.00961,-0.03815
2.904,-0.04745,-0.03448,-0.01434,-0.0415,-0.04974,-0.0383,-0.01526,-0.00488,0.10147,0.12619,-0.03494,0.31296,-0.02472,-0.01938,0.00916,-0.03632
2.9045,-0.05112,-0.0528,-0.02243,0.06195,-0.04822,-0.0383,-0.01709,-0.0058,0.09033,0.10834,-0.05081,0.28442,-0.02365,-0.01923,0.0087,-0.03632
2.905,-0.0502,-0.05981,-0.02884,0.06027,-0.05203,-0.03723,-0.01984,-0.0058,0.05295,0.07584,-0.06653,0.07324,-0.02075,-0.02106,0.01083,-0.03662
2.9055,-0.04578,-0.05356,-0.03479,0.01663,-0.05966,-0.03693,-0.02197,-0.00336,-0.00336,0.03418,-0.07034,-0.13031,-0.01617,-0.02319,0.01312,-0.03586
2.906,-0.03769,-0.03098,-0.0415,-0.00351,-0.06683,-0.03784,-0.02258,-0.00015,-0.06653,-0.00916,-0.06287,-0.15182,-0.00992,-0.02426,0.01297,-0.03418
2.9065,-0.02457,0.00122,-0.04654,-0.0029,-0.06866,-0.03845,-0.02243,0.00153,-0.12054,-0.0528,-0.0563,-0.00931,-0.00305,-0.02319,0.01144,-0.03311
2.907,-0.00809,0.02945,-0.05066,0.00076,-0.06363,-0.03876,-0.02365,0.00092,-0.15366,-0.09766,-0.05386,0.11459,0.00275,-0.02151,0.01083,-0.03357
2.9075,0.0061,0.04959,-0.05096,0.0145,-0.05798,-0.03708,-0.02289,-0.00153,-0.15289,-0.14481,-0.05249,0.09445,0.00549,-0.02014,0.01007,-0.03616
2.908,0.01556,0.06531,-0.05356,0.04318,-0.05753,-0.0351,-0.02228,-0.00305,-0.1152,-0.18524,-0.05264,-0.00793,0.0032,-0.01923,0.01099,-0.0386
2.9085,0.02258,0.07614,-0.06058,0.07477,-0.05768,-0.03494,-0.02167,-0.00153,-0.06287,-0.20752,-0.05737,-0.06241,-0.00549,-0.0177,0.00946,-0.03967
2.909,0.02213,0.06851,-0.06516,0.09537,-0.05371,-0.03616,-0.02029,0.00076,-0.03082,-0.20569,-0.06836,-0.06119,-0.01862,-0.0145,0.00854,-0.03952
2.9095,0.00824,0.03815,-0.05463,0.10162,-0.04562,-0.03754,-0.01801,0.00244,-0.02853,-0.17792,-0.07446,-0.10162,-0.03357,-0.01129,0.0087,-0.03845
2.91,-0.0148,-0.00183,-0.0267,0.09415,-0.04105,-0.03662,-0.0145,0.00168,-0.03265,-0.12375,-0.06989,-0.20508,-0.04532,-0.00977,0.01114,-0.03708
2.9105,-0.03143,-0.0351,-0.00046,0.07523,-0.03876,-0.0354,-0.01297,-0.00107,-0.02258,-0.04822,-0.05951,-0.25024,-0.0502,-0.01068,0.01129,-0.03708
2.911,-0.03479,-0.05737,0.00473,0.04639,-0.03586,-0.03571,-0.01419,-0.00351,-0.00275,0.03128,-0.04868,-0.13687,-0.04807,-0.0119,0.01022,-0.03967
2.9115,-0.02884,-0.07553,-0.00977,0.01282,-0.03098,-0.03815,-0.01602,-0.00534,0.0061,0.09735,-0.04242,0.05905,-0.0444,-0.01205,0.00748,-0.04227
2.912,-0.02335,-0.09247,-0.0322,-0.01312,-0.0296,-0.03891,-0.01694,-0.00565,-0.00183,0.13229,-0.03815,0.1619,-0.04211,-0.01114,0.0061,-0.04288
2.9125,-0.02411,-0.10788,-0.04715,-0.01114,-0.02945,-0.0386,-0.01831,-0.00549,-0.01801,0.13718,-0.03433,0.09369,-0.0415,-0.01068,0.00671,-0.04349
2.913,-0.02975,-0.121,-0.04791,0.02258,-0.02975,-0.03937,-0.0209,-0.0032,-0.03448,0.11765,-0.02899,-0.05539,-0.03952,-0.01251,0.00839,-0.0441
2.9135,-0.03525,-0.12741,-0.03281,0.06226,-0.03098,-0.04089,-0.02213,0.0,-0.03845,0.08545,-0.01984,-0.11444,-0.03693,-0.01556,0.00916,-0.04471
2.914,-0.03891,-0.11627,-0.00961,0.07935,-0.03128,-0.04105,-0.02136,0.00351,-0.02136,0.04822,-0.00809,0.00626,-0.0354,-0.0177,0.00916,-0.04318
2.9145,-0.04211,-0.08392,0.01007,0.08316,-0.03036,-0.03998,-0.01938,0.00443,0.00687,0.01221,0.00305,0.20554,-0.0351,-0.01877,0.00931,-0.04196
2.915,-0.04669,-0.04395,0.0177,0.10651,-0.0296,-0.0383,-0.0177,0.00153,0.02289,-0.0174,0.00763,0.2713,-0.03784,-0.01999,0.00961,-0.04272
2.9155,-0.05173,-0.01389,0.01465,0.159,-0.02884,-0.03815,-0.01556,-0.0032,0.02014,-0.03769,0.00778,0.13016,-0.04135,-0.02121,0.009,-0.04456
2.916,-0.05615,0.00168,0.00641,0.23163,-0.02838,-0.03891,-0.01312,-0.00732,0.01648,-0.04852,0.01114,-0.05264,-0.0444,-0.02182,0.00732,-0.04532
2.9165,-0.05737,0.00809,-0.00488,0.30685,-0.02792,-0.03967,-0.01022,-0.0087,0.02472,-0.05234,0.0177,-0.09735,-0.04486,-0.02136,0.00748,-0.04456
2.917,-0.05432,0.01282,-0.02243,0.35568,-0.02609,-0.03937,-0.00946,-0.00702,0.03815,-0.05234,0.01785,-0.0441,-0.0441,-0.01877,0.00885,-0.04135
2.9175,-0.04517,0.01465,-0.04623,0.3331,-0.02167,-0.04028,-0.00992,-0.00214,0.04364,-0.04898,0.00488,-0.03174,-0.04333,-0.01694,0.01099,-0.03738
2.918,-0.03204,0.01175,-0.07828,0.21011,-0.01724,-0.04166,-0.0087,0.00137,0.04608,-0.04059,-0.01099,-0.04242,-0.04074,-0.01648,0.01297,-0.03403
2.9185,-0.02106,0.00534,-0.11047,0.00992,-0.01419,-0.0441,-0.00626,0.00092,0.05676,-0.02853,-0.01389,0.06393,-0.03448,-0.01602,0.01373,-0.03265
2.919,-0.0174,-0.00061,-0.13245,-0.19928,-0.01465,-0.04654,-0.00626,-0.00259,0.07217,-0.01984,-0.00656,0.29404,-0.02884,-0.01648,0.01251,-0.03311
2.9195,-0.02045,-0.00519,-0.13794,-0.36438,-0.01724,-0.04654,-0.0087,-0.00702,0.07477,-0.0148,0.00122,0.44861,-0.02747,-0.01724,0.01068,-0.03586
2.92,-0.02716,-0.00992,-0.13153,-0.47577,-0.0174,-0.04684,-0.00992,-0.00854,0.06271,-0.01083,0.00732,0.34821,-0.0296,-0.0177,0.00748,-0.03906
2.9205,-0.03525,-0.0206,-0.12512,-0.5011,-0.01724,-0.04623,-0.00885,-0.00885,0.05234,-0.00366,0.02243,0.04745,-0.03128,-0.01877,0.00381,-0.04242
2.921,-0.04227,-0.03571,-0.12177,-0.34882,-0.01892,-0.04562,-0.00778,-0.00885,0.05554,0.00336,0.04242,-0.22308,-0.02991,-0.01999,0.00244,-0.04349
2.9215,-0.04456,-0.05371,-0.11734,-0.03113,-0.02396,-0.0473,-0.00961,-0.00961,0.06622,0.00595,0.04791,-0.30273,-0.02869,-0.02029,0.00351,-0.04333
2.922,-0.04257,-0.07477,-0.11078,0.20203,-0.03006,-0.04883,-0.01129,-0.01221,0.07278,0.00885,0.03281,-0.2211,-0.02777,-0.01801,0.00427,-0.04257
2.9225,-0.03784,-0.10056,-0.10681,0.0946,-0.03448,-0.04837,-0.01343,-0.01434,0.06912,0.00854,0.01389,-0.10742,-0.0264,-0.01709,0.00443,-0.04257
2.923,-0.03021,-0.12772,-0.10727,-0.27725,-0.03769,-0.04776,-0.0145,-0.01556,0.05051,-0.00183,0.00305,-0.03754,-0.02243,-0.01587,0.00397,-0.0444
2.9235,-0.02289,-0.1506,-0.10223,-0.57312,-0.04089,-0.04593,-0.01526,-0.01465,0.01221,-0.03189,-0.00015,0.01907,-0.01984,-0.01663,0.00351,-0.04608
2.924,-0.01831,-0.16953,-0.07919,-0.56396,-0.04379,-0.04501,-0.01526,-0.01053,-0.03906,-0.07599,0.00381,0.11078,-0.02029,-0.01846,0.00595,-0.04486
2.9245,-0.01907,-0.18692,-0.04333,-0.30502,-0.04227,-0.04486,-0.01434,-0.00473,-0.07904,-0.11932,0.01251,0.19104,-0.02121,-0.01938,0.00778,-0.04135
2.925,-0.02838,-0.20035,-0.01205,-0.00412,-0.03723,-0.0441,-0.01297,-0.00107,-0.08774,-0.1564,0.01617,0.16083,-0.02106,-0.01923,0.00778,-0.03891
2.9255,-0.04166,-0.20874,0.00336,0.16403,-0.03265,-0.04395,-0.01556,-0.00305,-0.06836,-0.19363,0.00809,0.01617,-0.02121,-0.01877,0.00656,-0.03784
2.926,-0.04807,-0.21713,0.00626,0.14847,-0.02991,-0.04471,-0.01816,-0.00824,-0.04303,-0.23849,-0.00381,-0.12207,-0.02365,-0.02014,0.0087,-0.03799
2.9265,-0.0412,-0.22934,0.00412,0.01938,-0.02579,-0.04807,-0.01953,-0.01266,-0.03586,-0.28549,-0.00412,-0.14694,-0.02869,-0.02396,0.01099,-0.03708
2.927,-0.02579,-0.23682,0.00046,-0.09872,-0.02213,-0.05081,-0.0177,-0.01282,-0.06042,-0.31479,0.01022,-0.07004,-0.03265,-0.02716,0.0116,-0.03723
2.9275,-0.01083,-0.22736,-0.00031,-0.13153,-0.02121,-0.05188,-0.01526,-0.01129,-0.10727,-0.3125,0.02625,0.00519,-0.03311,-0.02716,0.00885,-0.03998
2.928,-0.00137,-0.19928,0.00229,-0.1091,-0.02213,-0.05112,-0.01312,-0.01053,-0.14862,-0.27206,0.02838,0.0,-0.03235,-0.02533,0.00504,-0.0441
2.9285,0.00183,-0.15762,0.0119,-0.10406,-0.02335,-0.05127,-0.01053,-0.01221,-0.1619,-0.19714,0.01495,-0.1033,-0.0322,-0.02411,0.0032,-0.04883
2.929,0.00061,-0.10529,0.02289,-0.1384,-0.02472,-0.05234,-0.00916,-0.01297,-0.14374,-0.10178,-0.00397,-0.2681,-0.03616,-0.02289,0.00381,-0.05249
2.9295,0.00351,-0.04257,0.02823,-0.17883,-0.02548,-0.05402,-0.01007,-0.0119,-0.10818,-0.00336,-0.02121,-0.38986,-0.04105,-0.02136,0.00687,-0.05356
2.93,0.01678,0.02686,0.02625,-0.19821,-0.02502,-0.05417,-0.01328,-0.00961,-0.06958,0.08438,-0.03876,-0.32471,-0.04501,-0.01862,0.01022,-0.05112
2.9305,0.03311,0.09247,0.01999,-0.18753,-0.02411,-0.05463,-0.01526,-0.00931,-0.03815,0.14877,-0.06348,-0.03723,-0.04883,-0.01831,0.01205,-0.04471
2.931,0.03647,0.14801,0.01617,-0.12482,-0.02304,-0.05447,-0.01495,-0.00824,-0.01938,0.18448,-0.09262,0.28732,-0.05341,-0.01968,0.01358,-0.0412
2.9315,0.02213,0.19623,0.01587,0.01755,-0.02243,-0.05447,-0.01328,-0.00549,-0.01282,0.18784,-0.11826,0.40192,-0.056,-0.01923,0.0116,-0.03998
2.932,0.00595,0.23758,0.01648,0.19897,-0.02319,-0.05447,-0.01221,-0.00092,-0.01389,0.16266,-0.13474,0.26749,-0.05219,-0.01663,0.00961,-0.03937
2.9325,0.00366,0.26108,0.01678,0.3009,-0.02304,-0.05539,-0.0116,0.00198,-0.02289,0.11429,-0.14343,0.09308,-0.04486,-0.01404,0.00748,-0.03799
2.933,0.0116,0.25436,0.02151,0.24765,-0.02151,-0.05478,-0.01175,0.00168,-0.0499,0.0531,-0.14359,0.0531,-0.03769,-0.01297,0.00687,-0.03586
2.9335,0.01724,0.22018,0.02991,0.10864,-0.02136,-0.05356,-0.01266,0.00015,-0.08698,-0.00671,-0.13031,0.0885,-0.03464,-0.01266,0.00763,-0.0354
2.934,0.01694,0.17487,0.02975,0.01205,-0.02106,-0.05127,-0.01358,-0.00259,-0.10056,-0.04944,-0.09628,0.05096,-0.03326,-0.01358,0.00656,-0.03677
2.9345,0.01373,0.13,0.01129,-0.00153,-0.02289,-0.05005,-0.01389,-0.00443,-0.07019,-0.07004,-0.04257,-0.05981,-0.03082,-0.01495,0.00458,-0.03967
2.935,0.00778,0.08667,-0.0177,0.02014,-0.02701,-0.05112,-0.01282,-0.0058,-0.01099,-0.06897,0.00885,-0.11993,-0.02838,-0.0177,0.00259,-0.04242
2.9355,-0.00076,0.04669,-0.03815,0.03784,-0.03082,-0.05371,-0.01144,-0.00595,0.04684,-0.04974,0.03998,-0.08682,-0.02716,-0.02029,0.00336,-0.04227
2.936,-0.01175,0.01434,-0.03632,0.04868,-0.03235,-0.05569,-0.01282,-0.00473,0.09293,-0.01404,0.0589,-0.04105,-0.02686,-0.02213,0.00595,-0.03922
2.9365,-0.01846,-0.00977,-0.01526,0.05646,-0.0322,-0.05692,-0.01709,-0.00259,0.12527,0.03281,0.08041,-0.04745,-0.02686,-0.02258,0.00793,-0.0354
2.937,-0.01343,-0.03296,0.00671,0.05478,-0.0322,-0.05646,-0.02243,-0.00183,0.13489,0.07904,0.09552,-0.07736,-0.02777,-0.02289,0.00702,-0.03464
2.9375,0.0058,-0.06134,0.01282,0.04471,-0.03265,-0.05615,-0.0238,-0.00244,0.1178,0.11581,0.08179,-0.07446,-0.03021,-0.02151,0.00534,-0.03769
2.938,0.02975,-0.09872,0.00473,0.04013,-0.03326,-0.05676,-0.02167,-0.00259,0.07706,0.13641,0.03662,-0.03067,-0.03265,-0.02167,0.00473,-0.04074
2.9385,0.04227,-0.13916,-0.00168,0.05081,-0.03464,-0.05768,-0.01923,-0.00183,0.01846,0.14542,-0.01877,0.02762,-0.03433,-0.0238,0.00595,-0.04227
2.939,0.03906,-0.17685,0.01923,0.06744,-0.0351,-0.06042,-0.01877,0.00046,-0.04364,0.15274,-0.06302,0.07233,-0.03418,-0.02701,0.00641,-0.04074
2.9395,0.0264,-0.20065,0.08408,0.07446,-0.0354,-0.06241,-0.01724,0.00198,-0.08026,0.15747,-0.08881,0.07813,-0.0325,-0.02869,0.00488,-0.04044
2.94,0.01175,-0.20569,0.1741,0.06363,-0.03571,-0.06271,-0.01465,0.00275,-0.07248,0.15839,-0.10132,0.03799,-0.03113,-0.02853,0.00443,-0.04196
2.9405,-0.00259,-0.19241,0.22598,0.04135,-0.0354,-0.06119,-0.01205,0.00366,-0.03555,0.14938,-0.10025,-0.01907,-0.0325,-0.02869,0.00427,-0.0444
2.941,-0.01434,-0.16464,0.19455,0.01297,-0.03708,-0.05936,-0.01099,0.00427,-0.0116,0.13199,-0.08347,-0.04944,-0.03326,-0.02914,0.00565,-0.04578
2.9415,-0.01816,-0.12573,0.09918,-0.01389,-0.03647,-0.05966,-0.01099,0.00336,-0.01694,0.10651,-0.05493,-0.05173,-0.03281,-0.02869,0.00626,-0.04715
2.942,-0.01282,-0.08331,-0.00214,-0.03021,-0.03494,-0.06012,-0.0119,0.00259,-0.03815,0.07599,-0.03052,-0.06195,-0.02869,-0.02625,0.00641,-0.04852
2.9425,-0.00687,-0.04745,-0.07416,-0.02625,-0.03479,-0.06088,-0.01099,0.00366,-0.0499,0.03845,-0.01907,-0.09247,-0.02335,-0.02151,0.00931,-0.04974
2.943,-0.00961,-0.02396,-0.1207,-0.00595,-0.0351,-0.06042,-0.009,0.00473,-0.04974,-0.00137,-0.01465,-0.11627,-0.01907,-0.01633,0.0119,-0.04913
2.9435,-0.02045,-0.009,-0.15564,0.0174,-0.03494,-0.05951,-0.00793,0.00397,-0.04791,-0.02899,-0.00412,-0.12009,-0.01801,-0.01419,0.01221,-0.0502
2.944,-0.03098,0.00351,-0.18875,0.03204,-0.0351,-0.05859,-0.00809,0.00183,-0.04578,-0.03265,0.00854,-0.11337,-0.01999,-0.01541,0.01083,-0.05371
2.9445,-0.03494,0.01007,-0.22156,0.03479,-0.03448,-0.05905,-0.009,-0.00107,-0.03189,-0.01953,0.01526,-0.08774,-0.02167,-0.01678,0.01083,-0.05951
2.945,-0.03326,0.00656,-0.25131,0.03204,-0.03372,-0.05966,-0.0087,-0.00214,0.0,-0.00885,0.01282,-0.01907,-0.02167,-0.01709,0.01221,-0.06012
2.9455,-0.02914,-0.00473,-0.26855,0.04684,-0.03128,-0.05875,-0.00717,-0.00229,0.03601,-0.01114,0.00519,0.07523,-0.02151,-0.01617,0.01328,-0.05325
2.946,-0.0267,-0.01938,-0.26779,0.09232,-0.02853,-0.05432,-0.00671,-0.0029,0.05707,-0.02686,0.00153,0.11124,-0.02121,-0.01602,0.01312,-0.04349
2.9465,-0.02899,-0.03052,-0.24368,0.14664,-0.02731,-0.04745,-0.0087,-0.00305,0.06516,-0.05646,0.00626,0.0238,-0.02197,-0.01587,0.01144,-0.04089
2.947,-0.03311,-0.04105,-0.19531,0.1683,-0.02808,-0.04333,-0.01114,-0.00214,0.07278,-0.10101,0.0177,-0.1088,-0.02396,-0.01617,0.01099,-0.05753
2.9475,-0.03586,-0.05371,-0.12878,0.14481,-0.02731,-0.04166,-0.01221,-0.00076,0.07584,-0.15442,0.03281,-0.11383,-0.02609,-0.0174,0.0116,-0.0853
2.948,-0.03662,-0.07141,-0.06012,0.09323,-0.02441,-0.04044,-0.01205,-0.00061,0.05508,-0.1973,0.04745,0.05249,-0.02716,-0.01846,0.01068,-0.09598
2.9485,-0.03769,-0.09369,0.00198,0.03113,-0.02289,-0.03922,-0.01312,-0.00107,0.009,-0.21561,0.05951,0.22614,-0.02747,-0.01846,0.00916,-0.07278
2.949,-0.03708,-0.12192,0.07065,-0.03235,-0.02228,-0.03922,-0.01495,-0.00031,-0.04135,-0.21317,0.06088,0.23788,-0.02792,-0.01785,0.00732,-0.04044
2.9495,-0.03494,-0.15121,0.14236,-0.08636,-0.02197,-0.03876,-0.01572,0.0029,-0.07462,-0.20432,0.05081,0.10757,-0.02792,-0.01801,0.00702,-0.0444
2.95,-0.03296,-0.17441,0.18021,-0.13794,-0.0209,-0.03952,-0.01541,0.00443,-0.08469,-0.18723,0.03738,-0.02411,-0.02853,-0.01968,0.00839,-0.07584
2.9505,-0.0325,-0.18341,0.15625,-0.21866,-0.02045,-0.04028,-0.01511,0.00244,-0.08133,-0.15305,0.03494,-0.07736,-0.02808,-0.02121,0.01007,-0.07111
2.951,-0.03448,-0.17609,0.09598,-0.34012,-0.0206,-0.04074,-0.01511,-0.00122,-0.08118,-0.0972,0.05234,-0.06485,-0.0264,-0.02167,0.01038,-0.00809
2.9515,-0.0354,-0.14923,0.04547,-0.45303,-0.02167,-0.04105,-0.01511,-0.00381,-0.08881,-0.03464,0.08026,-0.01038,-0.02747,-0.02182,0.01007,0.04959
2.952,-0.03204,-0.103,0.01266,-0.48737,-0.02213,-0.04257,-0.01602,-0.00626,-0.09232,0.01434,0.10086,0.07355,-0.02991,-0.02167,0.00885,0.04272
2.9525,-0.02533,-0.0386,-0.02304,-0.40497,-0.02151,-0.04562,-0.01633,-0.00763,-0.08591,0.03891,0.09888,0.14496,-0.0325,-0.02106,0.00732,-0.00565
2.953,-0.0209,0.03494,-0.0705,-0.17807,-0.02228,-0.0499,-0.01572,-0.00549,-0.07935,0.04059,0.07111,0.14633,-0.03281,-0.02213,0.00641,-0.03342
2.9535,-0.01862,0.10178,-0.11795,0.17792,-0.02289,-0.0531,-0.0148,-0.00183,-0.07721,0.02151,0.0354,0.07889,-0.03387,-0.02518,0.00748,-0.02762
2.954,-0.01816,0.14603,-0.15976,0.49988,-0.02289,-0.05707,-0.01297,-0.00076,-0.07019,-0.01358,0.01312,0.00854,-0.03464,-0.02686,0.00839,-0.0174
2.9545,-0.01877,0.15656,-0.20081,0.55939,-0.0235,-0.06088,-0.01144,-0.00397,-0.05142,-0.0563,0.00595,-0.01526,-0.03525,-0.02548,0.00809,-0.02243
2.955,-0.02411,0.13214,-0.24231,0.34592,-0.02609,-0.06424,-0.00961,-0.00671,-0.03326,-0.09109,-0.0029,-0.01389,-0.03494,-0.02243,0.0061,-0.03265
2.9555,-0.03403,0.08026,-0.27298,0.121,-0.02777,-0.06638,-0.00824,-0.00595,-0.01938,-0.10666,-0.02777,-0.02411,-0.0351,-0.02136,0.00443,-0.03754
2.956,-0.03952,0.01938,-0.2829,0.08499,-0.02731,-0.06699,-0.00732,-0.00381,-0.00839,-0.10468,-0.05859,-0.03647,-0.03616,-0.02304,0.0029,-0.03708
2.9565,-0.03922,-0.02701,-0.26733,0.15762,-0.02808,-0.0676,-0.00854,-0.00305,-0.00153,-0.09247,-0.07919,-0.01709,-0.0386,-0.02533,0.00366,-0.03723
2.957,-0.0386,-0.05737,-0.23407,0.16403,-0.03052,-0.06821,-0.01129,-0.00381,-0.00412,-0.07324,-0.08224,0.02106,-0.03952,-0.02594,0.00351,-0.03784
2.9575,-0.04471,-0.08804,-0.19333,0.07523,-0.03296,-0.06714,-0.01328,-0.0029,-0.0116,-0.04761,-0.0737,0.02121,-0.03937,-0.02502,0.00473,-0.03662
2.958,-0.05402,-0.1326,-0.15259,-0.01892,-0.03418,-0.06363,-0.0145,-0.00275,-0.0206,-0.0177,-0.06149,-0.0296,-0.03876,-0.02441,0.00763,-0.03494
2.9585,-0.05829,-0.1767,-0.11398,-0.05905,-0.03479,-0.05905,-0.01526,-0.00229,-0.03326,0.00656,-0.04959,-0.06622,-0.03815,-0.02365,0.00946,-0.03464
2.959,-0.05676,-0.19775,-0.07355,-0.05386,-0.03616,-0.05646,-0.01816,-0.00336,-0.04715,0.01358,-0.04318,-0.04883,-0.03601,-0.02243,0.01053,-0.03525
2.9595,-0.05219,-0.18997,-0.03036,-0.02579,-0.03723,-0.056,-0.02014,-0.00275,-0.0473,-0.00412,-0.04623,-0.03494,-0.03448,-0.01999,0.00839,-0.03555
2.96,-0.04974,-0.17059,0.00641,0.00412,-0.03723,-0.05585,-0.01785,-0.00183,-0.03143,-0.03708,-0.05768,-0.06897,-0.03265,-0.01556,0.00641,-0.03555
2.9605,-0.04944,-0.15015,0.03052,0.00397,-0.03448,-0.05478,-0.01404,-0.00183,-0.01755,-0.06409,-0.07187,-0.07568,-0.03265,-0.01129,0.0061,-0.03326
2.961,-0.05249,-0.12253,0.0444,-0.04547,-0.03387,-0.05386,-0.01343,-0.00107,-0.01129,-0.06363,-0.08163,0.00763,-0.03281,-0.00977,0.00656,-0.03021
2.9615,-0.06012,-0.07904,0.05188,-0.11597,-0.03464,-0.05371,-0.01358,-0.00061,0.00214,-0.02884,-0.08469,0.09537,-0.03418,-0.0116,0.00778,-0.02869
2.962,-0.07462,-0.02609,0.05402,-0.16968,-0.0354,-0.05402,-0.01297,-0.00046,0.03784,0.03204,-0.08408,0.08102,-0.03448,-0.0148,0.00748,-0.03036
2.9625,-0.09048,0.02151,0.04837,-0.19562,-0.03464,-0.05371,-0.01205,-0.00046,0.0795,0.10025,-0.08377,0.0087,-0.03418,-0.01511,0.00748,-0.03403
2.963,-0.09918,0.05371,0.03525,-0.19745,-0.03418,-0.05325,-0.01221,0.0,0.09262,0.15656,-0.08438,-0.01236,-0.03296,-0.01282,0.00702,-0.03815
2.9635,-0.09766,0.07263,0.02441,-0.16739,-0.03448,-0.05402,-0.01312,0.00137,0.05829,0.18494,-0.0766,0.02991,-0.0322,-0.00946,0.00778,-0.04333
2.964,-0.08774,0.08286,0.02396,-0.10681,-0.03464,-0.05463,-0.01312,0.00275,-0.00824,0.18356,-0.0528,0.06165,-0.03418,-0.00824,0.00824,-0.04883
2.9645,-0.07507,0.08667,0.02701,-0.0473,-0.0351,-0.05417,-0.01038,0.00366,-0.06866,0.16296,-0.01984,0.05096,-0.03647,-0.00992,0.00885,-0.05142
2.965,-0.06439,0.08041,0.02213,-0.01801,-0.03464,-0.05447,-0.00946,0.00381,-0.08591,0.13382,0.00351,0.02869,-0.03845,-0.01434,0.00946,-0.05066
2.9655,-0.05661,0.06195,0.01526,-0.0174,-0.03601,-0.05417,-0.01129,0.00183,-0.05966,0.10193,0.00473,0.02777,-0.03952,-0.01846,0.01038,-0.05112
2.966,-0.04868,0.0322,0.01938,-0.02075,-0.03647,-0.05402,-0.01434,-0.00076,-0.03098,0.06958,-0.00626,0.05096,-0.0386,-0.0209,0.01129,-0.05554
2.9665,-0.03586,-0.00763,0.03479,-0.01633,-0.03525,-0.05264,-0.01617,-0.00305,-0.03845,0.04471,-0.01526,0.08316,-0.03708,-0.02075,0.01175,-0.0618
2.967,-0.02075,-0.0563,0.04745,-0.01038,-0.03265,-0.05005,-0.01587,-0.00473,-0.06866,0.0354,-0.01938,0.10101,-0.03586,-0.01938,0.01175,-0.06561
2.9675,-0.01144,-0.10651,0.04257,-0.00702,-0.03143,-0.04868,-0.01114,-0.00717,-0.07614,0.03754,-0.01968,0.09262,-0.03464,-0.01907,0.0119,-0.06149
2.968,-0.00702,-0.14313,0.01373,-0.00351,-0.03021,-0.04791,-0.00427,-0.01068,-0.04471,0.0383,-0.01755,0.06775,-0.03387,-0.01877,0.01312,-0.0531
2.9685,-0.00046,-0.15457,-0.03174,0.00214,-0.03052,-0.04837,-0.00153,-0.01282,-0.00046,0.03098,-0.0116,0.04608,-0.03342,-0.01694,0.01495,-0.04395
2.969,0.0148,-0.14404,-0.07904,0.00885,-0.03174,-0.04791,-0.00519,-0.01038,0.02441,0.02579,-0.00534,0.03128,-0.03387,-0.01709,0.0145,-0.04013
2.9695,0.02991,-0.12054,-0.10941,0.01434,-0.03159,-0.04623,-0.0119,-0.00549,0.02686,0.03372,-0.00381,0.00778,-0.03464,-0.01801,0.0119,-0.04135
2.97,0.03448,-0.09109,-0.11978,0.0148,-0.03113,-0.04425,-0.01602,-0.00351,0.01648,0.0473,-0.00244,-0.03036,-0.03342,-0.01892,0.00961,-0.04639
2.9705,0.02396,-0.06134,-0.11597,0.00473,-0.02991,-0.0444,-0.0177,-0.00473,0.00183,0.05157,0.00702,-0.07401,-0.03082,-0.01938,0.00916,-0.04745
2.971,0.00778,-0.03204,-0.10513,-0.02014,-0.03006,-0.04578,-0.02213,-0.00488,-0.0119,0.03738,0.02518,-0.11292,-0.03021,-0.01999,0.00992,-0.04349
2.9715,-0.0029,-0.00183,-0.08286,-0.05219,-0.03128,-0.04684,-0.02792,-0.00137,-0.01633,0.0119,0.03952,-0.14389,-0.03128,-0.02121,0.01007,-0.03876
2.972,-0.00397,0.03189,-0.04578,-0.06699,-0.03204,-0.04761,-0.03235,0.00259,-0.00671,-0.01328,0.03937,-0.15045,-0.03174,-0.02075,0.00824,-0.03677
2.9725,-0.00015,0.06668,-0.00336,-0.0563,-0.03265,-0.04822,-0.03418,0.0029,0.00839,-0.03464,0.02472,-0.11673,-0.0322,-0.01907,0.00427,-0.0386
2.973,0.00153,0.09186,0.02411,-0.03342,-0.03235,-0.04883,-0.03372,-0.00137,0.01602,-0.05356,0.00763,-0.06393,-0.03113,-0.01724,0.00076,-0.04257
2.9735,-0.0029,0.09964,0.03006,-0.01923,-0.03326,-0.04837,-0.0293,-0.00687,0.01175,-0.07553,-0.00305,-0.0354,-0.0293,-0.01556,-0.00061,-0.04807
2.974,-0.00961,0.0882,0.02701,-0.01663,-0.03357,-0.04761,-0.02243,-0.01144,0.00214,-0.0972,-0.00885,-0.04059,-0.02792,-0.01282,-0.00259,-0.05325
2.9745,-0.01343,0.06287,0.03479,-0.01236,-0.03464,-0.04791,-0.01495,-0.01831,-0.00214,-0.11581,-0.01419,-0.0441,-0.02655,-0.01083,-0.00381,-0.05524
2.975,-0.01358,0.02655,0.0531,-0.00061,-0.0351,-0.04898,-0.01068,-0.02731,0.00015,-0.1297,-0.01968,-0.02411,-0.02609,-0.00931,-0.00153,-0.05188
2.9755,-0.01312,-0.01328,0.06927,0.00992,-0.03357,-0.04944,-0.01068,-0.03296,0.00641,-0.13931,-0.02121,0.00229,-0.02411,-0.01038,0.00443,-0.04379
2.976,-0.01663,-0.04562,0.07202,0.01038,-0.03357,-0.04929,-0.01205,-0.03021,0.0116,-0.14725,-0.01678,0.00824,-0.02258,-0.0116,0.01144,-0.03448
2.9765,-0.02121,-0.06714,0.06622,0.0032,-0.03342,-0.04913,-0.01312,-0.0209,0.01175,-0.15213,-0.01007,-0.00336,-0.02289,-0.01343,0.01709,-0.02579
2.977,-0.02045,-0.08194,0.0592,-0.00046,-0.03296,-0.04913,-0.01511,-0.01221,0.00366,-0.15305,-0.00778,0.00076,-0.02579,-0.01389,0.01801,-0.01846
2.9775,-0.01572,-0.09521,0.04852,0.00305,-0.03235,-0.04944,-0.01862,-0.00961,-0.0087,-0.14771,-0.01205,0.05157,-0.02991,-0.01587,0.01724,-0.01602
2.978,-0.01251,-0.10742,0.02594,0.00916,-0.03098,-0.05005,-0.02045,-0.009,-0.01312,-0.13489,-0.02151,0.12177,-0.0322,-0.0177,0.01816,-0.01816
2.9785,-0.01297,-0.11871,-0.00458,0.01282,-0.02869,-0.04959,-0.01877,-0.00595,0.00397,-0.11475,-0.03601,0.13794,-0.03204,-0.01755,0.01938,-0.02136
2.979,-0.01221,-0.12985,-0.0296,0.01068,-0.02701,-0.04929,-0.01587,-0.00168,0.03723,-0.09033,-0.05234,0.06653,-0.02991,-0.01617,0.02106,-0.02579
2.9795,-0.00687,-0.13382,-0.04349,0.00427,-0.02747,-0.047,-0.01495,0.00076,0.06516,-0.06348,-0.06088,-0.02884,-0.02899,-0.01419,0.02243,-0.02991
2.98,-0.00412,-0.12222,-0.05173,-0.00061,-0.02762,-0.04303,-0.01343,0.00137,0.07599,-0.0383,-0.05325,-0.07492,-0.03036,-0.01297,0.02106,-0.03555
2.9805,-0.00809,-0.09506,-0.06271,-0.00229,-0.02609,-0.04135,-0.01129,0.00183,0.06821,-0.01831,-0.03006,-0.08301,-0.03326,-0.01419,0.01648,-0.03769
2.981,-0.01633,-0.06699,-0.08224,-0.00107,-0.02365,-0.0415,-0.01038,0.00183,0.04227,-0.00748,-0.00473,-0.10895,-0.03601,-0.01617,0.00946,-0.04105
2.9815,-0.01297,-0.05234,-0.10223,0.00732,-0.02258,-0.04105,-0.00992,0.00076,0.00214,-0.00427,0.00702,-0.15121,-0.03769,-0.01923,0.00259,-0.04822
2.982,0.00595,-0.0618,-0.10056,0.03662,-0.02396,-0.04013,-0.01038,0.0,-0.04227,-0.00244,0.00534,-0.1532,-0.03922,-0.02289,-0.00397,-0.06073
2.9825,0.03067,-0.09949,-0.05768,0.09003,-0.02472,-0.03983,-0.00977,-0.00107,-0.07431,0.00076,0.00076,-0.10086,-0.04181,-0.0264,-0.01099,-0.0737
2.983,0.04654,-0.15472,0.00748,0.14435,-0.02457,-0.03952,-0.00717,-0.00015,-0.08072,0.00534,0.00473,-0.04105,-0.04364,-0.02899,-0.01953,-0.08438
2.9835,0.05127,-0.1944,0.0412,0.16296,-0.02411,-0.04013,-0.00458,0.0,-0.06195,0.00641,0.01053,-0.01862,-0.04425,-0.03098,-0.02609,-0.08896
2.984,0.0499,-0.19272,0.01678,0.13779,-0.02518,-0.03983,-0.00473,-0.00046,-0.02914,0.00259,0.00671,-0.0267,-0.0444,-0.03189,-0.0238,-0.0882
2.9845,0.0499,-0.16266,-0.02853,0.08942,-0.02625,-0.04013,-0.0061,-0.00092,0.00565,-0.00565,-0.0058,-0.02029,-0.04379,-0.02975,-0.01343,-0.07828
2.985,0.05096,-0.12985,-0.04837,0.04089,-0.02701,-0.03967,-0.00717,0.00076,0.0322,-0.01556,-0.01816,0.03448,-0.04425,-0.02747,-0.00443,-0.065
2.9855,0.04547,-0.10223,-0.03876,-0.00153,-0.02655,-0.03952,-0.00595,0.00626,0.03571,-0.02335,-0.02289,0.10788,-0.04547,-0.02625,0.00061,-0.05478
2.986,0.02396,-0.07004,-0.0267,-0.04181,-0.02853,-0.04028,-0.00534,0.01328,0.00793,-0.02899,-0.0235,0.12482,-0.047,-0.02762,0.00214,-0.05035
2.9865,-0.00778,-0.03387,-0.03159,-0.07813,-0.02991,-0.04379,-0.00702,0.01663,-0.03632,-0.03281,-0.02045,0.07584,-0.04639,-0.0296,0.00687,-0.04929
2.987,-0.03021,-0.00549,-0.05585,-0.10666,-0.03113,-0.04898,-0.01083,0.01343,-0.06836,-0.03632,-0.01541,0.04959,-0.04639,-0.02899,0.01129,-0.04715
2.9875,-0.02502,0.0119,-0.09323,-0.1236,-0.03189,-0.05264,-0.01526,0.00824,-0.07294,-0.04211,-0.01099,0.10986,-0.04715,-0.02716,0.01205,-0.0444
2.988,0.00809,0.02655,-0.13107,-0.13733,-0.03265,-0.05447,-0.0177,0.00565,-0.06424,-0.05402,-0.01114,0.19547,-0.04868,-0.02747,0.00946,-0.0444
2.9885,0.0444,0.03952,-0.14557,-0.14969,-0.03342,-0.05692,-0.01785,0.0032,-0.07187,-0.07217,-0.01648,0.20004,-0.04776,-0.02792,0.00778,-0.04684
2.989,0.05859,0.04227,-0.12543,-0.14618,-0.03494,-0.05875,-0.01678,0.0,-0.103,-0.09216,-0.02319,0.09201,-0.04578,-0.02579,0.00656,-0.0473
2.9895,0.04944,0.03067,-0.08163,-0.11276,-0.03632,-0.05905,-0.01831,-0.0029,-0.12741,-0.10437,-0.02853,-0.08118,-0.04364,-0.02289,0.00702,-0.04486
2.99,0.03616,0.00702,-0.0293,-0.06927,-0.03555,-0.05905,-0.02075,-0.0058,-0.11414,-0.11246,-0.03067,-0.23544,-0.04257,-0.0209,0.00885,-0.03952
2.9905,0.03265,-0.01999,0.03174,-0.04807,-0.03372,-0.05768,-0.02151,-0.01083,-0.06897,-0.12115,-0.03098,-0.26886,-0.0415,-0.01984,0.01434,-0.03372
2.991,0.03113,-0.03586,0.09857,-0.06012,-0.03189,-0.05585,-0.01923,-0.01907,-0.02518,-0.13519,-0.02884,-0.13107,-0.04089,-0.01846,0.02045,-0.0322
2.9915,0.02289,-0.0238,0.14404,-0.09323,-0.03098,-0.05554,-0.01617,-0.02563,-0.00259,-0.15137,-0.0209,0.09933,-0.04013,-0.01816,0.02396,-0.03372
2.992,0.0116,0.01266,0.13092,-0.12726,-0.0322,-0.05661,-0.01648,-0.02533,0.00504,-0.16327,-0.00595,0.26581,-0.03876,-0.02151,0.02411,-0.03784
2.9925,0.00778,0.05127,0.05676,-0.13992,-0.03174,-0.05646,-0.01678,-0.01999,0.01053,-0.16647,0.00732,0.25711,-0.03632,-0.02487,0.0206,-0.03754
2.993,0.01007,0.06882,-0.03021,-0.12589,-0.03006,-0.05524,-0.01587,-0.01556,0.01511,-0.16022,0.00946,0.08743,-0.03464,-0.02457,0.01617,-0.0325
2.9935,0.01297,0.06149,-0.07126,-0.11444,-0.02869,-0.05234,-0.01541,-0.01404,0.01205,-0.14526,-0.00183,-0.11658,-0.03464,-0.02151,0.01144,-0.02563
2.994,0.01495,0.04364,-0.05371,-0.13687,-0.0296,-0.05051,-0.01587,-0.01328,-0.00107,-0.12375,-0.01801,-0.22827,-0.03433,-0.01984,0.00809,-0.02579
2.9945,0.01724,0.03036,-0.01923,-0.1828,-0.03067,-0.05112,-0.01633,-0.01221,-0.02014,-0.09171,-0.02747,-0.22903,-0.03357,-0.01785,0.00732,-0.02853
2.995,0.01389,0.02869,-0.01633,-0.22675,-0.03082,-0.05066,-0.0177,-0.00961,-0.03571,-0.04684,-0.02411,-0.17624,-0.03204,-0.01801,0.00702,-0.0322
2.9955,0.00397,0.03326,-0.05707,-0.23834,-0.0293,-0.05005,-0.01846,-0.00671,-0.03906,0.00763,-0.01129,-0.10025,-0.03036,-0.01678,0.00595,-0.03265
2.996,-0.00732,0.03357,-0.11703,-0.15808,-0.02869,-0.04868,-0.01862,-0.0029,-0.0322,0.06546,-0.00092,-0.0145,-0.02945,-0.01556,0.00549,-0.03052
2.9965,-0.01205,0.02594,-0.16495,0.04105,-0.03067,-0.0473,-0.01816,0.00183,-0.02899,0.12009,-0.00229,0.01694,-0.02899,-0.01358,0.00549,-0.02502
2.997,-0.01266,0.02014,-0.18341,0.24963,-0.0351,-0.047,-0.01617,0.00641,-0.03525,0.16327,-0.00992,-0.05386,-0.03159,-0.01068,0.00717,-0.0206
2.9975,-0.01266,0.0238,-0.17166,0.30258,-0.03891,-0.047,-0.01205,0.00961,-0.0386,0.18738,-0.01389,-0.14038,-0.03265,-0.00717,0.00778,-0.01694
2.998,-0.01495,0.02991,-0.14709,0.18951,-0.03769,-0.04578,-0.00687,0.01312,-0.02792,0.18921,-0.009,-0.10849,-0.03174,-0.00595,0.00488,-0.01434
2.9985,-0.01923,0.0267,-0.12939,0.06454,-0.0351,-0.0441,-0.00336,0.01587,-0.01144,0.17563,-0.00259,0.02319,-0.03006,-0.00885,0.00137,-0.01175
2.999,-0.01999,0.00916,-0.12161,0.04166,-0.03326,-0.04257,-0.00092,0.0177,-0.00305,0.15976,0.00031,0.11795,-0.03143,-0.01434,-0.00198,-0.01266
2.9995,-0.01404,-0.01862,-0.11505,0.08301,-0.03311,-0.04135,0.0,0.01709,-0.00412,0.14648,-0.00046,0.14084,-0.03448,-0.01862,0.00076,-0.01785
3.0,-0.00183,-0.04227,-0.10269,0.10208,-0.03265,-0.04242,-0.00214,0.01251,-0.00946,0.1329,-0.00031,0.16464,-0.03616,-0.02029,0.00595,-0.02731
3.0005,0.01129,-0.05356,-0.08499,0.07584,-0.03174,-0.04257,-0.00641,0.00214,-0.01251,0.11017,-0.00046,0.19135,-0.03479,-0.01999,0.00778,-0.03983
3.001,0.02029,-0.0589,-0.06927,0.03632,-0.02853,-0.04272,-0.01068,-0.01343,-0.01022,0.07889,-0.00595,0.1384,-0.03281,-0.01907,0.00763,-0.05493
3.0015,0.02563,-0.07004,-0.05371,0.009,-0.02747,-0.04166,-0.01282,-0.02914,-0.00336,0.04761,-0.01907,0.00397,-0.03159,-0.01724,0.00778,-0.06912
3.002,0.02655,-0.08774,-0.03799,-0.00153,-0.02762,-0.03998,-0.01312,-0.03799,0.00259,0.0264,-0.03372,-0.09293,-0.03143,-0.0145,0.01114,-0.08209
3.0025,0.02777,-0.10239,-0.02487,0.00702,-0.0293,-0.03922,-0.01526,-0.03845,0.00671,0.01373,-0.04196,-0.07324,-0.03067,-0.01221,0.01328,-0.09232
3.003,0.03021,-0.1059,-0.01938,0.0351,-0.02899,-0.04074,-0.02167,-0.03525,0.01343,0.00702,-0.04105,0.00336,-0.03036,-0.01083,0.01022,-0.09872
3.0035,0.03204,-0.10178,-0.0209,0.07034,-0.02975,-0.04196,-0.03189,-0.03143,0.02304,-0.00061,-0.03067,0.03372,-0.03128,-0.01129,0.00626,-0.10056
3.004,0.0322,-0.09735,-0.02411,0.09827,-0.03082,-0.04364,-0.04181,-0.02731,0.02838,-0.00946,-0.01434,0.00427,-0.03235,-0.01236,0.00351,-0.10117
3.0045,0.02884,-0.09491,-0.02243,0.11169,-0.03143,-0.04486,-0.04257,-0.02136,0.02487,-0.01801,0.00183,-0.02045,-0.03204,-0.01312,0.00275,-0.09949
3.005,0.02411,-0.09674,-0.01526,0.0946,-0.03189,-0.04639,-0.03372,-0.01495,0.01663,-0.02792,0.01236,0.0,-0.03067,-0.01419,0.00244,-0.09171
3.0055,0.0206,-0.10208,-0.00839,0.03647,-0.03235,-0.04669,-0.02335,-0.01007,0.00656,-0.03891,0.01312,0.0441,-0.02914,-0.01526,0.0029,-0.07507
3.006,0.01923,-0.10712,-0.00488,-0.03906,-0.03357,-0.04547,-0.0177,-0.00656,-0.00717,-0.05157,0.00595,0.07355,-0.02869,-0.01617,0.00656,-0.05539
3.0065,0.02136,-0.10864,-0.00198,-0.08194,-0.03448,-0.04471,-0.0177,-0.00229,-0.02457,-0.06393,-0.00656,0.07584,-0.0293,-0.01617,0.01129,-0.04211
3.007,0.02396,-0.1059,-0.0032,-0.06927,-0.03555,-0.04517,-0.01877,0.00137,-0.04272,-0.0769,-0.01968,0.06607,-0.03006,-0.01724,0.0177,-0.03433
3.0075,0.0264,-0.10223,-0.01099,-0.01678,-0.03525,-0.04593,-0.01816,0.00137,-0.05157,-0.09232,-0.02869,0.06165,-0.03128,-0.01968,0.02213,-0.02838
3.008,0.02655,-0.10117,-0.0267,0.06027,-0.03632,-0.04547,-0.01648,0.0,-0.04929,-0.10727,-0.03082,0.06058,-0.03281,-0.0206,0.02548,-0.02625
3.0085,0.02502,-0.10269,-0.04517,0.16312,-0.03784,-0.04471,-0.0148,-0.00076,-0.03708,-0.11993,-0.02884,0.03967,-0.03311,-0.02029,0.02701,-0.03357
3.009,0.02411,-0.10086,-0.06378,0.24002,-0.0383,-0.04471,-0.01404,0.00061,-0.02533,-0.13153,-0.02411,-0.01099,-0.03021,-0.01923,0.02762,-0.04593
3.0095,0.02319,-0.09079,-0.07736,0.20203,-0.03845,-0.04623,-0.01389,0.00397,-0.02243,-0.14297,-0.01755,-0.0708,-0.02441,-0.01938,0.02365,-0.05142
3.01,0.01923,-0.07294,-0.08408,0.04013,-0.03647,-0.04776,-0.01419,0.00809,-0.02823,-0.14984,-0.00687,-0.10941,-0.01801,-0.02045,0.01724,-0.04532
3.0105,0.01251,-0.05081,-0.08453,-0.12512,-0.03784,-0.04944,-0.01434,0.00793,-0.03448,-0.14099,0.00824,-0.11703,-0.01389,-0.01999,0.01221,-0.03159
3.011,0.00687,-0.02625,-0.0795,-0.1828,-0.04074,-0.05127,-0.01373,0.00565,-0.03418,-0.10956,0.02518,-0.10498,-0.01389,-0.01862,0.01068,-0.01541
3.0115,0.00397,0.00076,-0.07004,-0.15442,-0.04166,-0.05188,-0.01419,0.00443,-0.02472,-0.05203,0.04425,-0.06668,-0.01587,-0.01862,0.01083,-0.00778
3.012,0.00198,0.02502,-0.05966,-0.11734,-0.03922,-0.05112,-0.01526,0.00366,-0.00961,0.02014,0.06912,0.02182,-0.01862,-0.01968,0.00946,-0.01923
3.0125,-0.00015,0.04074,-0.04684,-0.06668,-0.03815,-0.05173,-0.01617,0.0029,0.00214,0.08926,0.09598,0.12894,-0.0206,-0.0206,0.00443,-0.0444
3.013,-0.00137,0.047,-0.03311,0.0473,-0.03891,-0.05386,-0.01511,0.00183,0.00717,0.13809,0.10239,0.13687,-0.02182,-0.02029,-0.00275,-0.06744
3.0135,0.00061,0.04623,-0.02106,0.1828,-0.03967,-0.05371,-0.01144,0.00214,0.01282,0.16098,0.0766,-0.00122,-0.02335,-0.02136,-0.01099,-0.07263
3.014,0.00809,0.03937,-0.00885,0.21317,-0.03906,-0.05493,-0.00839,0.00275,0.03738,0.16327,0.03357,-0.15671,-0.0267,-0.02472,-0.01755,-0.06302
3.0145,0.0174,0.02792,0.00259,0.09521,-0.03708,-0.05463,-0.00885,0.00046,0.08194,0.14923,-0.00443,-0.16937,-0.03372,-0.02762,-0.01923,-0.05127
3.015,0.02533,0.01205,0.01602,-0.06638,-0.03525,-0.05341,-0.01205,-0.00443,0.11902,0.12482,-0.03128,-0.03998,-0.04272,-0.02869,-0.01816,-0.04364
3.0155,0.03113,-0.00763,0.02853,-0.15884,-0.03555,-0.05219,-0.01389,-0.00778,0.11734,0.08972,-0.04837,0.1149,-0.04791,-0.02762,-0.0148,-0.03799
3.016,0.03418,-0.02579,0.0386,-0.16937,-0.03738,-0.05112,-0.01266,-0.00748,0.07874,0.04944,-0.05386,0.20935,-0.04456,-0.02533,-0.01068,-0.0325
3.0165,0.03342,-0.04211,0.04349,-0.14725,-0.03799,-0.05219,-0.01114,-0.00549,0.02243,0.01038,-0.04211,0.23041,-0.03525,-0.02289,-0.0058,-0.02777
3.017,0.03098,-0.06226,0.04456,-0.1207,-0.03784,-0.05341,-0.0116,-0.00305,-0.04669,-0.0206,-0.02441,0.18738,-0.0293,-0.02136,0.0,-0.02884
3.0175,0.02701,-0.08789,0.04852,-0.09293,-0.03784,-0.05432,-0.01282,-0.00168,-0.13138,-0.0441,-0.01999,0.10635,-0.03174,-0.02029,0.00458,-0.03235
3.018,0.02045,-0.11566,0.05539,-0.0708,-0.03723,-0.05432,-0.01465,-0.00061,-0.20645,-0.06241,-0.03265,0.03006,-0.0415,-0.02014,0.00748,-0.03464
3.0185,0.01007,-0.13687,0.05493,-0.06287,-0.03494,-0.05386,-0.01373,-0.00153,-0.22659,-0.07645,-0.0499,-0.00961,-0.0499,-0.02014,0.01114,-0.0325
3.019,0.00076,-0.15045,0.05249,-0.06393,-0.0325,-0.05417,-0.0116,-0.00229,-0.18021,-0.08423,-0.05829,-0.01907,-0.05173,-0.01923,0.01282,-0.02914
3.0195,-0.0061,-0.1593,0.08026,-0.06287,-0.02991,-0.05249,-0.00977,-0.00305,-0.1091,-0.09018,-0.06134,-0.02609,-0.04761,-0.0177,0.01526,-0.02823
3.02,-0.01282,-0.16891,0.14938,-0.05508,-0.02609,-0.05127,-0.00961,-0.00336,-0.05829,-0.09659,-0.06592,-0.03754,-0.04257,-0.01694,0.01556,-0.02899
3.0205,-0.0238,-0.18036,0.21271,-0.0441,-0.0238,-0.0502,-0.00992,-0.00381,-0.03067,-0.09888,-0.07126,-0.04211,-0.04089,-0.0177,0.01266,-0.02975
3.021,-0.03555,-0.18829,0.20401,-0.03342,-0.02151,-0.05051,-0.009,-0.00534,-0.01251,-0.09109,-0.07156,-0.03372,-0.04074,-0.0174,0.00977,-0.02838
3.0215,-0.04272,-0.18814,0.11993,-0.02655,-0.02029,-0.05096,-0.00778,-0.00595,-0.00534,-0.07645,-0.06912,-0.02274,-0.03952,-0.01511,0.0087,-0.02411
3.022,-0.04395,-0.1767,0.01846,-0.02594,-0.02197,-0.05112,-0.00687,-0.00641,-0.00946,-0.06516,-0.06653,-0.0209,-0.03922,-0.01129,0.01068,-0.01923
3.0225,-0.04227,-0.1619,-0.04745,-0.02777,-0.02487,-0.05051,-0.00885,-0.00458,-0.0116,-0.05722,-0.06363,-0.02747,-0.04105,-0.00885,0.01419,-0.02274
3.023,-0.04059,-0.14847,-0.08194,-0.02747,-0.02609,-0.04959,-0.0119,-0.00351,-0.00259,-0.04623,-0.06271,-0.03281,-0.0444,-0.00992,0.01465,-0.03983
3.0235,-0.04135,-0.13504,-0.11108,-0.02029,-0.02686,-0.04868,-0.01465,-0.00214,0.00443,-0.03006,-0.06531,-0.03326,-0.04578,-0.01419,0.01297,-0.06073
3.024,-0.04089,-0.11185,-0.14359,-0.00656,-0.03021,-0.04791,-0.01389,-0.00168,-0.00183,-0.01678,-0.06348,-0.03967,-0.04379,-0.01892,0.00931,-0.06958
3.0245,-0.03906,-0.07355,-0.14725,0.00717,-0.03601,-0.04715,-0.01282,-0.00168,-0.01205,-0.01434,-0.0473,-0.05951,-0.0412,-0.02106,0.00809,-0.06302
3.025,-0.0383,-0.01831,-0.09338,0.01495,-0.04181,-0.04684,-0.01328,-0.00198,-0.01266,-0.02365,-0.02319,-0.0769,-0.03937,-0.02014,0.00793,-0.0499
3.0255,-0.0415,0.0531,-0.00168,0.01617,-0.04288,-0.04578,-0.01389,-0.00183,-0.00427,-0.03967,-0.00641,-0.06699,-0.0383,-0.01999,0.00809,-0.0415
3.026,-0.04623,0.13077,0.065,0.01602,-0.03937,-0.04639,-0.01404,-0.00153,0.00275,-0.06042,-0.00427,-0.02579,-0.03647,-0.02182,0.0087,-0.03891
3.0265,-0.04761,0.19775,0.07797,0.02274,-0.03433,-0.04654,-0.01419,-0.00153,0.00595,-0.08514,-0.0058,0.01678,-0.03616,-0.02365,0.00992,-0.03952
3.027,-0.04486,0.23544,0.05478,0.03372,-0.03082,-0.04593,-0.01541,-0.00153,0.01099,-0.11566,0.00061,0.02563,-0.03754,-0.02472,0.01175,-0.04074
3.0275,-0.03738,0.23621,0.02304,0.04166,-0.02945,-0.04272,-0.01556,-0.00153,0.01587,-0.14511,0.01373,-0.00061,-0.03815,-0.02518,0.01358,-0.0412
3.028,-0.02548,0.20462,-0.01678,0.04074,-0.03143,-0.04013,-0.01617,0.0,0.01877,-0.17136,0.02487,-0.06256,-0.03769,-0.02609,0.01572,-0.04013
3.0285,-0.01129,0.15167,-0.07492,0.04288,-0.0351,-0.03784,-0.01602,0.00229,0.01755,-0.18478,0.02518,-0.16586,-0.03632,-0.02518,0.01617,-0.03677
3.029,0.00015,0.09216,-0.15106,0.05646,-0.03876,-0.03937,-0.0148,0.00412,0.00656,-0.17288,0.0145,-0.23758,-0.03387,-0.02228,0.01556,-0.03479
3.0295,0.0087,0.0354,-0.22888,0.06149,-0.03937,-0.04059,-0.01221,0.00412,-0.0145,-0.13397,-0.0032,-0.13947,-0.02914,-0.01923,0.01556,-0.03357
3.03,0.01541,-0.01801,-0.28793,0.03281,-0.03632,-0.04135,-0.00916,0.00412,-0.03342,-0.07462,-0.02426,0.13672,-0.02228,-0.01816,0.01709,-0.03311
3.0305,0.01984,-0.06744,-0.30777,-0.02457,-0.03143,-0.04272,-0.00778,0.00336,-0.02884,-0.01068,-0.04593,0.37964,-0.0145,-0.01938,0.01862,-0.03235
3.031,0.0206,-0.09933,-0.28748,-0.08209,-0.03021,-0.04684,-0.00748,0.00092,0.00427,0.04517,-0.06454,0.36591,-0.00565,-0.02121,0.02014,-0.03235
3.0315,0.01678,-0.10742,-0.24506,-0.11276,-0.03235,-0.05051,-0.00748,-0.00168,0.03708,0.08759,-0.07462,0.10529,0.00259,-0.0238,0.01801,-0.03326
3.032,0.00992,-0.09796,-0.20554,-0.09583,-0.03632,-0.05386,-0.00671,-0.00458,0.03754,0.11475,-0.07187,-0.17151,0.00641,-0.02319,0.01373,-0.0322
3.0325,0.00778,-0.08408,-0.1738,-0.02441,-0.03891,-0.05478,-0.00854,-0.0061,0.00198,0.13153,-0.05722,-0.26718,0.00092,-0.02197,0.01053,-0.02838
3.033,0.01205,-0.07278,-0.13489,0.06531,-0.03815,-0.05264,-0.0119,-0.00702,-0.04196,0.14145,-0.03357,-0.18555,-0.01373,-0.01862,0.01022,-0.02518
3.0335,0.01862,-0.06561,-0.07965,0.1001,-0.03662,-0.05066,-0.01602,-0.00687,-0.06622,0.14511,-0.0087,-0.05981,-0.02899,-0.01648,0.01038,-0.02533
3.034,0.02106,-0.06332,-0.02533,0.03967,-0.03571,-0.0502,-0.0177,-0.0061,-0.06714,0.13748,0.00412,0.01373,-0.03708,-0.01648,0.00885,-0.02869
3.0345,0.01694,-0.06683,-0.00443,-0.07599,-0.03601,-0.05127,-0.01846,-0.00473,-0.05325,0.11871,0.00443,0.0325,-0.03769,-0.01709,0.00778,-0.03296
3.035,0.00961,-0.07874,-0.02151,-0.17426,-0.03662,-0.05295,-0.01953,-0.00305,-0.03204,0.09262,0.00549,0.02945,-0.03448,-0.01709,0.00458,-0.03632
3.0355,0.00641,-0.09933,-0.04944,-0.21149,-0.03799,-0.05371,-0.0206,-0.00076,-0.00931,0.06302,0.02045,0.01999,-0.03098,-0.01495,-0.00015,-0.04135
3.036,0.00702,-0.11993,-0.06012,-0.17365,-0.03891,-0.05341,-0.0206,0.00107,0.00931,0.03448,0.04105,0.00778,-0.0296,-0.01312,-0.00519,-0.04593
3.0365,0.01007,-0.12695,-0.05051,-0.03876,-0.03952,-0.05386,-0.01968,0.0,0.02029,0.01419,0.04593,-0.00534,-0.0296,-0.01221,-0.00687,-0.04669
3.037,0.00961,-0.11536,-0.0351,0.20447,-0.03952,-0.05554,-0.0177,-0.00183,0.02533,0.01205,0.02731,-0.01923,-0.03113,-0.0119,-0.00595,-0.04517
3.0375,0.00473,-0.09293,-0.02365,0.43549,-0.03937,-0.05798,-0.01648,-0.00305,0.02731,0.0235,-0.00153,-0.02701,-0.03403,-0.01236,-0.00641,-0.04623
3.038,-0.00076,-0.06973,-0.01389,0.42969,-0.03876,-0.05829,-0.01465,-0.0029,0.02838,0.0386,-0.02304,-0.0177,-0.03952,-0.01312,-0.00763,-0.05325
3.0385,-0.00229,-0.05081,0.00076,0.13535,-0.03708,-0.05539,-0.01389,-0.00381,0.02686,0.04654,-0.03159,0.01068,-0.04669,-0.01404,-0.00763,-0.05798
3.039,-0.00183,-0.03632,0.01831,-0.19058,-0.03464,-0.05264,-0.01556,-0.00656,0.02365,0.04318,-0.03632,0.0386,-0.05356,-0.01373,-0.00595,-0.05569
3.0395,-0.00305,-0.02594,0.03204,-0.27618,-0.03387,-0.05005,-0.0174,-0.01053,0.02304,0.0293,-0.04379,0.03906,-0.05814,-0.01205,-0.00519,-0.04898
3.04,-0.0087,-0.01617,0.03998,-0.15015,-0.03281,-0.05035,-0.01709,-0.01312,0.0238,0.00977,-0.05219,0.0119,-0.05783,-0.00854,0.00122,-0.04333
3.0405,-0.01617,-0.00641,0.04105,-0.03906,-0.03235,-0.05112,-0.01587,-0.01541,0.0209,-0.0087,-0.0563,-0.00717,-0.05371,-0.00809,0.01358,-0.04059
3.041,-0.02243,0.00122,0.04059,-0.05951,-0.03113,-0.04898,-0.01556,-0.01663,0.01099,-0.01785,-0.05463,0.009,-0.0499,-0.01038,0.0267,-0.03998
3.0415,-0.02304,0.00122,0.03937,-0.13733,-0.02777,-0.04562,-0.01587,-0.01694,-0.00092,-0.01999,-0.04807,0.04211,-0.04837,-0.01205,0.0354,-0.04044
3.042,-0.02167,-0.00351,0.03632,-0.17181,-0.02441,-0.04349,-0.01617,-0.01587,-0.00961,-0.02228,-0.03555,0.05264,-0.04761,-0.01022,0.03906,-0.04105
3.0425,-0.02014,-0.00809,0.02625,-0.14801,-0.02213,-0.04303,-0.01465,-0.01389,-0.01358,-0.02991,-0.01816,0.03204,-0.04181,-0.00641,0.04303,-0.04074
3.043,-0.01755,-0.01175,0.0148,-0.10208,-0.02045,-0.04288,-0.01312,-0.01236,-0.01602,-0.03815,-0.00443,0.00931,-0.02914,-0.00458,0.04898,-0.03845
3.0435,-0.01312,-0.01785,0.00534,-0.05875,-0.02106,-0.04196,-0.01175,-0.01099,-0.02151,-0.04425,0.00153,0.0032,-0.01465,-0.00519,0.04135,-0.0354
3.044,-0.00778,-0.03082,-0.00427,-0.02533,-0.02106,-0.03967,-0.01144,-0.00687,-0.0296,-0.04578,0.00305,0.00244,-0.00229,-0.00961,0.00641,-0.03372
3.0445,-0.0061,-0.04852,-0.01831,-0.0061,-0.02136,-0.0386,-0.01038,-0.00107,-0.04089,-0.04395,0.00275,-0.01846,0.00687,-0.01419,-0.03387,-0.0325
3.045,-0.00397,-0.06729,-0.03845,0.0,-0.02121,-0.03998,-0.00946,0.00504,-0.05249,-0.03845,-0.00015,-0.05997,0.0119,-0.01724,-0.04013,-0.03418
3.0455,0.00046,-0.08392,-0.05707,0.00107,-0.02335,-0.0415,-0.00687,0.00885,-0.06332,-0.03189,-0.00641,-0.10147,0.01282,-0.01862,-0.00687,-0.03632
3.046,0.00839,-0.09308,-0.0705,0.00107,-0.02502,-0.04196,-0.00366,0.00961,-0.07202,-0.03052,-0.01205,-0.13519,0.00717,-0.01862,0.02808,-0.03723
3.0465,0.01816,-0.09018,-0.07965,0.00092,-0.02548,-0.04105,-0.00092,0.00839,-0.07935,-0.03357,-0.01419,-0.17151,-0.00275,-0.01892,0.03738,-0.03784
3.047,0.02625,-0.07095,-0.08667,-0.00046,-0.02518,-0.04059,-0.00015,0.00809,-0.08301,-0.04074,-0.01266,-0.20447,-0.01328,-0.01968,0.03174,-0.0386
3.0475,0.03128,-0.04303,-0.09262,-0.00229,-0.0238,-0.04059,-0.00137,0.00885,-0.0798,-0.04868,-0.01053,-0.19333,-0.0238,-0.02121,0.02945,-0.03952
3.048,0.03296,-0.01587,-0.09552,-0.0032,-0.0235,-0.04181,-0.00351,0.00824,-0.06897,-0.0563,-0.009,-0.10056,-0.03479,-0.02457,0.03143,-0.04059
3.0485,0.03143,0.0029,-0.09369,-0.00122,-0.02579,-0.04288,-0.00626,0.00763,-0.05417,-0.06271,-0.00565,0.05463,-0.04517,-0.02914,0.02762,-0.0412
3.049,0.02914,0.0145,-0.08347,0.00458,-0.02853,-0.04425,-0.00946,0.00717,-0.04211,-0.07034,-0.00031,0.18188,-0.05432,-0.03281,0.0148,-0.04166
3.0495,0.02853,0.01846,-0.06912,0.01419,-0.02975,-0.0444,-0.01251,0.00702,-0.03448,-0.07858,0.00229,0.20386,-0.05844,-0.03326,-0.00946,-0.04028
3.05,0.02655,0.01633,-0.05554,0.02945,-0.02899,-0.04486,-0.01465,0.00412,-0.02853,-0.08209,-0.00031,0.1709,-0.06119,-0.03189,-0.04364,-0.03891
3.0505,0.02274,0.00641,-0.0444,0.05539,-0.0293,-0.04547,-0.01678,-0.00534,-0.02197,-0.07889,-0.00687,0.19196,-0.06363,-0.02869,-0.07263,-0.04013
3.051,0.01755,-0.0119,-0.03571,0.08728,-0.03021,-0.04501,-0.01923,-0.01572,-0.01617,-0.06775,-0.01022,0.23743,-0.06271,-0.02533,-0.07828,-0.04349
3.0515,0.01419,-0.03601,-0.02655,0.10712,-0.03143,-0.0444,-0.02106,-0.02045,-0.01083,-0.05264,-0.00732,0.18097,-0.05875,-0.02151,-0.05524,-0.04684
3.052,0.01389,-0.05508,-0.01251,0.10101,-0.03113,-0.04456,-0.02029,-0.01465,-0.00549,-0.03769,0.0,0.01938,-0.0592,-0.01953,-0.02594,-0.04761
3.0525,0.01526,-0.06042,0.00504,0.07248,-0.03082,-0.04501,-0.01923,-0.00305,0.00015,-0.03036,0.00671,-0.10742,-0.06638,-0.0206,-0.00656,-0.04852
3.053,0.0177,-0.05447,0.01892,0.03113,-0.0296,-0.04532,-0.01938,0.00549,0.009,-0.03448,0.01312,-0.10971,-0.07217,-0.02289,0.00076,-0.05051
3.0535,0.01801,-0.047,0.02106,-0.01755,-0.0296,-0.04486,-0.01953,0.00504,0.02136,-0.0444,0.01709,-0.04105,-0.06805,-0.02411,0.00717,-0.05295
3.054,0.01526,-0.04639,0.0116,-0.06744,-0.02838,-0.04333,-0.01862,-0.00656,0.03067,-0.05508,0.02106,0.0119,-0.05829,-0.02426,0.01648,-0.05249
3.0545,0.01266,-0.04868,0.00122,-0.1059,-0.0264,-0.04349,-0.01816,-0.02121,0.02777,-0.06683,0.02716,0.02716,-0.05295,-0.02335,0.03311,-0.04974
3.055,0.01221,-0.04959,0.00122,-0.12711,-0.02533,-0.0444,-0.02029,-0.02838,0.00717,-0.08575,0.03265,0.02274,-0.05447,-0.02335,0.0499,-0.04623
3.0555,0.0148,-0.04654,0.01312,-0.14374,-0.0267,-0.04532,-0.02365,-0.02472,-0.03067,-0.11322,0.03479,0.01465,-0.05554,-0.02243,0.05554,-0.04288
3.056,0.01846,-0.04242,0.02441,-0.15701,-0.02884,-0.04517,-0.02609,-0.01389,-0.06714,-0.14404,0.03128,0.00717,-0.04852,-0.02121,0.04349,-0.04013
3.0565,0.02075,-0.04364,0.01846,-0.13672,-0.02914,-0.04547,-0.02518,-0.0058,-0.07858,-0.17303,0.02335,-0.00046,-0.03448,-0.02029,0.02655,-0.0383
3.057,0.02151,-0.05096,-0.00549,-0.0528,-0.02777,-0.04608,-0.02243,-0.00519,-0.06088,-0.19531,0.01633,-0.01678,-0.0206,-0.01923,0.01755,-0.03693
3.0575,0.02258,-0.06012,-0.03311,0.06851,-0.02579,-0.04608,-0.01877,-0.01038,-0.03754,-0.20432,0.0145,-0.03708,-0.01129,-0.0177,0.01556,-0.0351
3.058,0.02701,-0.06561,-0.05112,0.15045,-0.02319,-0.04562,-0.01587,-0.01587,-0.02411,-0.19272,0.0174,-0.04623,-0.00885,-0.01556,0.01526,-0.0325
3.0585,0.03311,-0.06744,-0.05356,0.15259,-0.02441,-0.04532,-0.01419,-0.01404,-0.01923,-0.1532,0.01892,-0.03876,-0.009,-0.01312,0.01526,-0.03113
3.059,0.03555,-0.06821,-0.04105,0.11017,-0.02762,-0.04593,-0.0119,-0.00748,-0.01373,-0.08789,0.01663,-0.02258,-0.00793,-0.0119,0.01556,-0.03143
3.0595,0.03296,-0.06927,-0.01526,0.08209,-0.03098,-0.04761,-0.009,-0.00137,-0.00717,-0.01663,0.00656,0.00732,-0.00595,-0.01022,0.01099,-0.03525
3.06,0.02853,-0.07065,0.01236,0.08438,-0.03403,-0.04929,-0.0061,0.00015,-0.00214,0.03876,-0.0087,0.05447,-0.00366,-0.00763,-0.00244,-0.04013
3.0605,0.0267,-0.07263,0.02838,0.08835,-0.03662,-0.04944,-0.00519,-0.00046,0.00336,0.06546,-0.02579,0.08194,-0.0029,-0.00549,-0.01801,-0.04562
3.061,0.02777,-0.07462,0.03098,0.07507,-0.03952,-0.04974,-0.00656,-0.00153,0.00748,0.06714,-0.04074,0.04822,-0.00336,-0.00641,-0.0235,-0.05096
3.0615,0.02884,-0.0766,0.02655,0.04608,-0.04364,-0.04944,-0.00977,-0.0029,0.00793,0.05341,-0.0563,-0.01755,-0.00595,-0.01022,-0.01541,-0.056
3.062,0.02884,-0.07782,0.02335,0.0119,-0.04791,-0.05005,-0.01251,-0.00641,0.00351,0.03006,-0.07477,-0.04425,-0.01083,-0.0148,-0.00595,-0.06088
3.0625,0.02762,-0.08148,0.01877,-0.0293,-0.0499,-0.05051,-0.01404,-0.009,-0.00198,0.00961,-0.09216,-0.01923,-0.01724,-0.0177,-0.00534,-0.06332
3.063,0.02594,-0.08942,0.00656,-0.07492,-0.04822,-0.04944,-0.01358,-0.01007,-0.00534,0.00549,-0.09857,0.01266,-0.0209,-0.01785,-0.0058,-0.06073
3.0635,0.02182,-0.09613,-0.01511,-0.1149,-0.04303,-0.04776,-0.01251,-0.00885,-0.00504,0.03113,-0.09109,0.02197,-0.02243,-0.01633,0.00961,-0.05463
3.064,0.0174,-0.09232,-0.04364,-0.13947,-0.0383,-0.04684,-0.01312,-0.0058,0.00046,0.0882,-0.07233,0.01984,-0.02472,-0.0145,0.04593,-0.04486
3.0645,0.01434,-0.0766,-0.07339,-0.14221,-0.03586,-0.04639,-0.01495,-0.00259,0.00824,0.16388,-0.05081,0.01846,-0.03052,-0.01236,0.07736,-0.03296
3.065,0.01358,-0.05585,-0.09323,-0.12314,-0.03372,-0.04715,-0.01678,0.00015,0.01312,0.2359,-0.03159,0.00931,-0.03845,-0.01007,0.07721,-0.02289
3.0655,0.01556,-0.03876,-0.09613,-0.09644,-0.03418,-0.04791,-0.02014,0.00046,0.01511,0.28152,-0.01663,-0.01328,-0.04562,-0.01053,0.05066,-0.02029
3.066,0.01831,-0.02258,-0.08041,-0.08484,-0.03387,-0.04852,-0.02274,-0.00015,0.01587,0.29388,-0.00717,-0.03616,-0.05081,-0.01419,0.02655,-0.02487
3.0665,0.02075,-0.00305,-0.04944,-0.09201,-0.03296,-0.04807,-0.02304,0.0,0.01648,0.27908,-0.00244,-0.04333,-0.05463,-0.01984,0.01785,-0.03036
3.067,0.0209,0.01633,-0.01266,-0.09735,-0.03128,-0.04807,-0.01892,0.00244,0.01541,0.24689,-0.00076,-0.04059,-0.05463,-0.02411,0.01572,-0.03189
3.0675,0.01923,0.03403,0.01907,-0.08209,-0.02945,-0.04852,-0.01389,0.00687,0.01587,0.20126,0.00031,-0.04166,-0.05081,-0.02487,0.01495,-0.02853
3.068,0.01801,0.04822,0.02823,-0.05417,-0.02762,-0.04837,-0.01083,0.01083,0.01617,0.14145,0.00153,-0.04639,-0.04684,-0.02213,0.01495,-0.02304
3.0685,0.0209,0.05814,0.01572,-0.03342,-0.02625,-0.04776,-0.01068,0.01099,0.01358,0.07004,0.00336,-0.02075,-0.04608,-0.01846,0.00946,-0.01831
3.069,0.02579,0.05753,-0.00992,-0.02716,-0.0238,-0.04776,-0.01068,0.00748,0.00626,-0.00565,0.00641,0.05936,-0.04883,-0.01556,-0.00305,-0.01968
3.0695,0.03052,0.04028,-0.0383,-0.02472,-0.02243,-0.0473,-0.00992,0.00305,-0.00412,-0.0737,0.00839,0.15106,-0.05081,-0.01205,-0.01572,-0.02655
3.07,0.03494,0.0087,-0.06653,-0.01831,-0.02319,-0.04623,-0.00839,-0.00259,-0.01373,-0.12177,0.00519,0.16861,-0.04684,-0.00809,-0.02213,-0.03937
3.0705,0.04044,-0.0264,-0.09247,-0.00931,-0.02411,-0.04562,-0.00778,-0.00885,-0.02106,-0.13962,-0.00336,0.08804,-0.04059,-0.00671,-0.01755,-0.05295
3.071,0.04288,-0.05569,-0.11276,-0.0029,-0.02609,-0.04532,-0.00961,-0.01282,-0.02441,-0.12924,-0.01312,-0.01282,-0.03464,-0.00916,-0.00565,-0.06149
3.0715,0.04166,-0.07507,-0.12329,0.00076,-0.02701,-0.04639,-0.01266,-0.01434,-0.02167,-0.10498,-0.01694,-0.05875,-0.03372,-0.01312,0.00717,-0.06485
3.072,0.03937,-0.0882,-0.12314,0.00641,-0.02747,-0.04639,-0.01495,-0.01434,-0.01541,-0.08316,-0.01236,-0.05386,-0.03601,-0.01373,0.01221,-0.0621
3.0725,0.03799,-0.09964,-0.11765,0.01648,-0.02884,-0.04639,-0.01572,-0.01419,-0.00977,-0.07111,-0.00473,-0.05325,-0.03754,-0.01099,0.01129,-0.05844
3.073,0.03708,-0.1088,-0.11292,0.02914,-0.02991,-0.04669,-0.01556,-0.01266,-0.00702,-0.06332,0.00015,-0.07553,-0.0354,-0.00885,0.00824,-0.05569
3.0735,0.03525,-0.11429,-0.11246,0.03815,-0.03006,-0.04669,-0.01495,-0.01114,-0.00854,-0.06012,-0.00153,-0.09216,-0.03296,-0.01144,0.00458,-0.05219
3.074,0.03128,-0.11337,-0.10925,0.0386,-0.02899,-0.04684,-0.0145,-0.00916,-0.01434,-0.06577,-0.00778,-0.07156,-0.03281,-0.01678,-0.00565,-0.04837
3.0745,0.02899,-0.10742,-0.1004,0.03021,-0.0293,-0.04425,-0.01373,-0.00748,-0.01968,-0.08224,-0.01663,-0.02884,-0.03479,-0.02182,-0.01526,-0.04456
3.075,0.0296,-0.09537,-0.09048,0.02106,-0.03006,-0.04166,-0.01236,-0.00488,-0.01923,-0.10513,-0.0267,-0.00351,-0.03571,-0.02594,-0.01495,-0.0441
3.0755,0.02945,-0.0795,-0.08453,0.01938,-0.03006,-0.04074,-0.01343,-0.00153,-0.01419,-0.12955,-0.03632,-0.01099,-0.03296,-0.03021,-0.00381,-0.04517
3.076,0.02533,-0.06317,-0.08347,0.02594,-0.02945,-0.04181,-0.0148,0.00076,-0.01144,-0.15228,-0.04211,-0.02457,-0.02731,-0.0386,0.00839,-0.04486
3.0765,0.01892,-0.04547,-0.08224,0.03387,-0.02945,-0.04379,-0.0145,0.00092,-0.01358,-0.16815,-0.03952,-0.00931,-0.02411,-0.0502,0.01663,-0.03983
3.077,0.01373,-0.02289,-0.07904,0.03845,-0.02945,-0.0444,-0.01175,0.00015,-0.01678,-0.16571,-0.03098,0.03677,-0.0267,-0.06088,0.01984,-0.03265
3.0775,0.01099,0.00656,-0.0737,0.03952,-0.03006,-0.04547,-0.00946,0.00076,-0.01617,-0.13672,-0.01724,0.07095,-0.03204,-0.06638,0.02274,-0.03159
3.078,0.01022,0.03998,-0.06622,0.04196,-0.03159,-0.04715,-0.01068,0.00259,-0.01419,-0.08362,0.00031,0.05173,-0.03662,-0.06424,0.02808,-0.03525
3.0785,0.01053,0.07065,-0.05661,0.05157,-0.03204,-0.04852,-0.01312,0.00275,-0.01434,-0.02365,0.02213,-0.01175,-0.03754,-0.05768,0.03311,-0.0386
3.079,0.00885,0.08896,-0.04517,0.07309,-0.03387,-0.04807,-0.01556,0.0,-0.01862,0.02731,0.04288,-0.06668,-0.03555,-0.04883,0.03281,-0.03738
3.0795,0.00534,0.08835,-0.03342,0.09918,-0.0351,-0.047,-0.01709,-0.00305,-0.02289,0.06027,0.05615,-0.07355,-0.03159,-0.03647,0.02396,-0.03311
3.08,0.00427,0.06882,-0.0235,0.11017,-0.03571,-0.04532,-0.01801,-0.00427,-0.02426,0.07645,0.05875,-0.0444,-0.02762,-0.02289,0.0116,-0.03189
3.0805,0.00824,0.03876,-0.01724,0.09979,-0.03387,-0.04623,-0.01709,-0.00351,-0.0235,0.07965,0.0528,-0.01617,-0.02441,-0.01419,0.0087,-0.04211
3.081,0.01541,0.00748,-0.01083,0.08591,-0.03006,-0.04639,-0.01511,-0.00244,-0.02319,0.07217,0.04471,-0.00519,-0.02258,-0.01495,0.01526,-0.0618
3.0815,0.02014,-0.01892,-0.00595,0.09018,-0.02792,-0.04623,-0.01205,-0.00153,-0.02258,0.05539,0.03601,-0.00244,-0.02228,-0.01907,0.00824,-0.08011
3.082,0.02319,-0.03983,-0.00076,0.09872,-0.02792,-0.04608,-0.01007,-0.00046,-0.02258,0.03006,0.02487,0.00351,-0.02335,-0.02029,-0.03067,-0.08713
3.0825,0.02457,-0.05768,0.00214,0.07797,-0.0296,-0.04654,-0.00931,0.00107,-0.02319,-0.00381,0.01297,0.00916,-0.02365,-0.0177,-0.07263,-0.08469
3.083,0.02457,-0.07507,0.00702,0.01923,-0.0293,-0.0473,-0.00732,0.00214,-0.02365,-0.03723,-0.00015,0.00839,-0.02426,-0.01602,-0.07492,-0.08041
3.0835,0.02167,-0.08743,0.01419,-0.05432,-0.02762,-0.0473,-0.00626,0.00305,-0.02457,-0.0592,-0.01175,0.00137,-0.02472,-0.01663,-0.04395,-0.07919
3.084,0.01785,-0.0885,0.02075,-0.12375,-0.02716,-0.04776,-0.00732,0.00259,-0.02548,-0.06653,-0.01602,-0.00427,-0.02625,-0.01617,-0.02182,-0.08286
3.0845,0.01572,-0.07919,0.02213,-0.1825,-0.02991,-0.04929,-0.01022,0.00046,-0.02655,-0.06256,-0.01175,-0.0032,-0.02975,-0.01419,-0.01587,-0.08728
3.085,0.01526,-0.06775,0.02213,-0.22186,-0.03571,-0.05005,-0.01419,-0.00336,-0.02625,-0.05585,-0.00549,0.00183,-0.03387,-0.00992,0.00366,-0.07904
3.0855,0.01419,-0.05936,0.02975,-0.22797,-0.04303,-0.05051,-0.01755,-0.00626,-0.02411,-0.04608,-0.00824,0.00946,-0.03967,-0.00687,0.03265,-0.04913
3.086,0.0119,-0.05295,0.04456,-0.19623,-0.04761,-0.05051,-0.01846,-0.00549,-0.02274,-0.03189,-0.01938,0.0235,-0.04547,-0.00778,0.03235,-0.01556
3.0865,0.00732,-0.04272,0.05463,-0.13977,-0.04608,-0.05005,-0.01755,-0.0029,-0.02319,-0.01083,-0.0322,0.04196,-0.04807,-0.01251,-0.01007,-0.00717
3.087,0.00198,-0.03006,0.04456,-0.07446,-0.0415,-0.05051,-0.01404,-0.00229,-0.02609,0.01495,-0.04517,0.04471,-0.04456,-0.01663,-0.0705,-0.02975
3.0875,-0.0032,-0.0174,0.01648,-0.01724,-0.03708,-0.05173,-0.01099,-0.00397,-0.02731,0.04181,-0.06149,-0.00854,-0.03708,-0.0177,-0.10361,-0.0618
3.088,-0.00565,-0.00702,-0.01068,0.01709,-0.03403,-0.05249,-0.01022,-0.00595,-0.02365,0.06134,-0.07568,-0.12665,-0.03174,-0.01709,-0.06577,-0.07782
3.0885,-0.00397,0.00046,-0.02396,0.02533,-0.03448,-0.05264,-0.0119,-0.0061,-0.01694,0.0676,-0.08118,-0.23285,-0.03143,-0.01587,0.04257,-0.06866
3.089,0.0,0.00336,-0.02823,0.01343,-0.03616,-0.05371,-0.01434,-0.00534,-0.0116,0.0592,-0.07751,-0.19638,-0.03357,-0.01617,0.13351,-0.047
3.0895,0.00183,-0.00305,-0.03159,-0.0029,-0.03769,-0.05539,-0.01602,-0.00549,-0.00961,0.04364,-0.06958,0.01816,-0.03387,-0.01678,0.12009,-0.03647
3.09,-0.00015,-0.01923,-0.03632,-0.00748,-0.03708,-0.05478,-0.01633,-0.00626,-0.01205,0.02823,-0.06607,0.28305,-0.03067,-0.01648,0.03296,-0.04364
3.0905,-0.00504,-0.03769,-0.03708,0.00748,-0.03387,-0.05493,-0.01495,-0.00626,-0.01953,0.01404,-0.06683,0.41245,-0.02991,-0.01373,-0.02808,-0.04135
3.091,-0.00778,-0.05341,-0.03403,0.02991,-0.0322,-0.05508,-0.01343,-0.00763,-0.02777,-0.00168,-0.06973,0.32364,-0.03021,-0.00977,-0.02609,-0.00412
3.0915,-0.00595,-0.06332,-0.0296,0.0386,-0.03143,-0.05508,-0.01282,-0.01083,-0.03159,-0.0206,-0.06821,0.09628,-0.03098,-0.00641,-0.01419,0.04486
3.092,-0.0032,-0.07141,-0.02655,0.02182,-0.03387,-0.05463,-0.01282,-0.01251,-0.02777,-0.04196,-0.05859,-0.10162,-0.03235,-0.00458,-0.03021,0.05783
3.0925,-0.00244,-0.0795,-0.02335,-0.01099,-0.03632,-0.05356,-0.01389,-0.01022,-0.02167,-0.06744,-0.0441,-0.17105,-0.03342,-0.0061,-0.05981,0.02594
3.093,-0.00488,-0.08682,-0.01541,-0.04517,-0.03784,-0.05325,-0.0148,-0.00397,-0.01877,-0.09628,-0.03189,-0.14435,-0.03235,-0.01053,-0.07095,-0.01022
3.0935,-0.00992,-0.09232,0.00076,-0.06805,-0.03967,-0.05264,-0.01541,0.00137,-0.02106,-0.12726,-0.02548,-0.10666,-0.02899,-0.01724,-0.04456,-0.0209
3.094,-0.01556,-0.09613,0.01617,-0.07355,-0.04013,-0.0528,-0.01556,0.00412,-0.02487,-0.15518,-0.02167,-0.08759,-0.02808,-0.02213,0.02533,-0.02014
3.0945,-0.01968,-0.09903,0.01389,-0.06104,-0.03967,-0.05264,-0.01419,0.00626,-0.02747,-0.17395,-0.01785,-0.05829,-0.03036,-0.02335,0.10284,-0.03067
3.095,-0.02151,-0.10406,-0.01007,-0.03983,-0.03784,-0.05264,-0.01175,0.00748,-0.02686,-0.17914,-0.01556,-0.00275,-0.03372,-0.02075,0.12421,-0.05386
3.0955,-0.02319,-0.10971,-0.04517,-0.01816,-0.03586,-0.05066,-0.01053,0.00717,-0.02335,-0.16708,-0.0174,0.04974,-0.03296,-0.01694,0.07889,-0.07187
3.096,-0.0267,-0.11383,-0.07339,0.00366,-0.03372,-0.04929,-0.01236,0.00549,-0.01724,-0.13794,-0.01999,0.0502,-0.02655,-0.01389,0.02487,-0.07339
3.0965,-0.02975,-0.11063,-0.08621,0.03159,-0.03159,-0.04791,-0.01709,0.00305,-0.01328,-0.09445,-0.02151,-0.00641,-0.02121,-0.01251,0.01633,-0.06271
3.097,-0.03143,-0.09781,-0.08698,0.05798,-0.03082,-0.047,-0.02258,0.00183,-0.01297,-0.04105,-0.01999,-0.0679,-0.01892,-0.01205,0.04013,-0.05264
3.0975,-0.03067,-0.07751,-0.08286,0.06912,-0.0322,-0.04562,-0.02731,0.00168,-0.01587,0.01114,-0.01709,-0.08072,-0.01999,-0.01129,0.05356,-0.04883
3.098,-0.03036,-0.05524,-0.07797,0.06195,-0.03448,-0.04501,-0.02747,0.00046,-0.01907,0.05081,-0.01526,-0.04364,-0.01999,-0.00916,0.04196,-0.0502
3.0985,-0.03555,-0.0351,-0.07599,0.04364,-0.03372,-0.04593,-0.02396,-0.00305,-0.02045,0.07217,-0.01389,0.00046,-0.01923,-0.00977,0.02167,-0.05234
3.099,-0.04837,-0.01709,-0.07355,0.01831,-0.03235,-0.04578,-0.01801,-0.00809,-0.01892,0.07141,-0.01022,0.02136,-0.01907,-0.01144,0.00885,-0.05417
3.0995,-0.06317,0.00061,-0.06927,-0.01053,-0.03021,-0.04379,-0.01221,-0.00992,-0.01511,0.05463,-0.00229,0.02335,-0.01877,-0.01282,0.00443,-0.05493
3.1,-0.06866,0.01694,-0.05768,-0.03494,-0.03021,-0.0415,-0.00931,-0.00427,-0.01068,0.02838,0.00641,0.02502,-0.01999,-0.01373,-0.00198,-0.0531
3.1005,-0.06119,0.0267,-0.04181,-0.04913,-0.03204,-0.03998,-0.00885,0.00092,-0.009,0.00107,0.01572,0.02594,-0.02167,-0.01556,-0.01724,-0.04974
3.101,-0.04669,0.02823,-0.03036,-0.05417,-0.03281,-0.04044,-0.01007,0.00061,-0.01144,-0.01999,0.02335,0.00763,-0.02182,-0.01877,-0.02869,-0.0444
3.1015,-0.0322,0.02396,-0.02548,-0.05371,-0.03113,-0.04059,-0.01129,-0.00549,-0.01556,-0.03387,0.03128,-0.04211,-0.02213,-0.0209,-0.00488,-0.03952
3.102,-0.02075,0.01602,-0.02472,-0.05051,-0.02884,-0.03998,-0.01083,-0.01099,-0.01617,-0.04227,0.04074,-0.10849,-0.02121,-0.02182,0.05737,-0.03571
3.1025,-0.01144,0.00488,-0.02426,-0.04684,-0.02731,-0.04166,-0.01053,-0.01099,-0.01312,-0.04974,0.0473,-0.15747,-0.02182,-0.02151,0.11246,-0.03387
3.103,-0.0061,-0.00763,-0.02426,-0.04456,-0.02731,-0.04288,-0.01007,-0.00732,-0.00839,-0.06302,0.04547,-0.1619,-0.02533,-0.0206,0.10391,-0.03479
3.1035,-0.00427,-0.01999,-0.02579,-0.04379,-0.02869,-0.04379,-0.009,-0.00473,-0.00458,-0.07828,0.03342,-0.12817,-0.02975,-0.02029,0.04257,-0.0386
3.104,-0.00366,-0.03235,-0.02838,-0.04211,-0.03098,-0.04395,-0.00854,-0.0032,-0.00198,-0.08804,0.01541,-0.06958,-0.03098,-0.02182,-0.00763,-0.04242
3.1045,-0.00229,-0.04303,-0.03204,-0.04028,-0.03189,-0.04395,-0.00778,-0.00244,-0.00381,-0.08957,-0.00519,0.02213,-0.03082,-0.02289,-0.01022,-0.04303
3.105,0.00046,-0.05127,-0.03098,-0.03799,-0.03204,-0.0444,-0.00748,-0.00031,-0.01129,-0.08804,-0.02609,0.17075,-0.03082,-0.02319,0.00946,-0.04196
3.1055,0.00229,-0.05814,-0.01556,-0.03662,-0.03204,-0.04517,-0.00793,0.00153,-0.01968,-0.0885,-0.0441,0.35568,-0.03052,-0.02258,0.01648,-0.04166
3.106,0.00259,-0.06866,0.01007,-0.0322,-0.0325,-0.04608,-0.00824,0.00015,-0.02594,-0.08606,-0.04898,0.46478,-0.02975,-0.02304,0.00885,-0.04272
3.1065,0.00153,-0.08789,0.02045,-0.02075,-0.03296,-0.04669,-0.00824,-0.00244,-0.02945,-0.07614,-0.03754,0.37201,-0.02884,-0.02502,0.0032,-0.04364
3.107,0.0,-0.11795,-0.00595,-0.00412,-0.03174,-0.04593,-0.00824,-0.00473,-0.03235,-0.05707,-0.02014,0.10574,-0.02838,-0.02533,0.00397,-0.04288
3.1075,-0.0029,-0.15625,-0.05661,0.00763,-0.02945,-0.04501,-0.00778,-0.00519,-0.03632,-0.03235,-0.01114,-0.1265,-0.02884,-0.0235,0.00549,-0.03967
3.108,-0.00824,-0.1915,-0.09644,0.00549,-0.02899,-0.0444,-0.00839,-0.00458,-0.04059,-0.0087,-0.0116,-0.1593,-0.03021,-0.02213,0.00427,-0.03769
3.1085,-0.01404,-0.20432,-0.1033,-0.01541,-0.03006,-0.04486,-0.0116,-0.00351,-0.04227,0.00992,-0.01266,-0.04791,-0.03403,-0.02136,0.00458,-0.03799
3.109,-0.01816,-0.18921,-0.08545,-0.0473,-0.03128,-0.04501,-0.0177,-0.00443,-0.04272,0.0264,-0.00641,0.03479,-0.0386,-0.02106,0.00488,-0.0383
3.1095,-0.02121,-0.15457,-0.06393,-0.06805,-0.03128,-0.04456,-0.02182,-0.00534,-0.04059,0.04608,0.00656,0.02075,-0.04059,-0.02045,0.00366,-0.03708
3.11,-0.02472,-0.11276,-0.05035,-0.06805,-0.0293,-0.04471,-0.01877,-0.00565,-0.03555,0.06836,0.02197,-0.02396,-0.04196,-0.01831,0.00305,-0.03799
3.1105,-0.02975,-0.06653,-0.04333,-0.06241,-0.0293,-0.04379,-0.01343,-0.00443,-0.03128,0.08484,0.03281,-0.03357,-0.04639,-0.01541,0.00397,-0.04044
3.111,-0.03571,-0.01648,-0.0386,-0.06073,-0.03021,-0.04257,-0.01099,-0.0032,-0.02869,0.08911,0.03754,-0.02182,-0.05524,-0.01343,0.00717,-0.04379
3.1115,-0.03998,0.03098,-0.03647,-0.03967,-0.03143,-0.04227,-0.01175,-0.00214,-0.02655,0.08148,0.03769,-0.02686,-0.06409,-0.0116,0.00946,-0.04379
3.112,-0.04211,0.07065,-0.03922,0.03235,-0.03067,-0.04349,-0.01358,-0.00305,-0.02197,0.06714,0.02945,-0.04532,-0.06607,-0.01083,0.01221,-0.04562
3.1125,-0.04272,0.09827,-0.04501,0.13031,-0.03052,-0.04517,-0.01419,-0.00381,-0.01526,0.05127,0.00992,-0.05203,-0.06104,-0.01129,0.01221,-0.05157
3.113,-0.0441,0.1123,-0.04868,0.17288,-0.03036,-0.04684,-0.01373,-0.00351,-0.00778,0.03708,-0.01617,-0.05112,-0.05234,-0.01251,0.01205,-0.05707
3.1135,-0.04562,0.11078,-0.04959,0.11703,-0.03128,-0.04654,-0.01297,-0.00214,-0.00275,0.0209,-0.04135,-0.06454,-0.04364,-0.01343,0.01572,-0.05783
3.114,-0.04333,0.09399,-0.04929,0.01968,-0.03143,-0.04578,-0.01328,-0.00229,0.0,0.0,-0.05981,-0.09674,-0.03204,-0.01282,0.02106,-0.05249
3.1145,-0.03677,0.06592,-0.04974,-0.02975,-0.03098,-0.04562,-0.01511,-0.00198,-0.00046,-0.01877,-0.07614,-0.12848,-0.01999,-0.01205,0.02045,-0.047
