time,RectFemL,VastusMedL,VastusLatL,TibAntL,HamMedL,HamLatL,GastroMedL,GastroLatL,RectFemR,VastusMedR,VastusLatR,TibAntR,HamMedR,HamLatR,GastroMedR,GastroLatR
4.53,-0.02411,0.02319,-0.05203,-0.00519,-0.0679,-0.04486,-0.01862,0.00473,0.01282,-0.03326,-0.0798,0.11673,-0.05402,-0.01602,0.01038,0.03601
4.5305,-0.0177,0.03799,-0.07431,-0.00534,-0.06363,-0.04227,-0.01938,0.00885,0.01297,-0.03159,-0.0769,0.13321,-0.04974,-0.01404,0.00397,-0.03922
4.531,-0.01541,0.04776,-0.07736,-0.00534,-0.05173,-0.04333,-0.01999,0.00977,0.00916,-0.03113,-0.07004,0.11307,-0.03418,-0.01434,-0.00061,-0.06485
4.5315,-0.01633,0.04776,-0.06256,-0.00488,-0.03448,-0.04593,-0.01892,0.00916,0.00031,-0.02731,-0.05997,0.0679,-0.00977,-0.01755,-0.00168,-0.05737
4.532,-0.01877,0.04013,-0.04257,-0.00549,-0.01419,-0.04761,-0.01572,0.00961,-0.01114,-0.02472,-0.04974,0.01999,0.0209,-0.01984,0.00107,-0.05142
4.5325,-0.0209,0.02869,-0.02747,-0.00702,0.00946,-0.04669,-0.01282,0.0206,-0.02396,-0.02716,-0.03769,-0.02029,0.04761,-0.02075,0.00458,-0.05219
4.533,-0.02121,0.01801,-0.02136,-0.00885,0.04028,-0.04227,-0.0116,0.05234,-0.03616,-0.03281,-0.02075,-0.05371,0.04227,-0.02151,0.00443,-0.0528
4.5335,-0.02014,0.00732,-0.01907,-0.00824,0.0621,-0.03998,-0.01221,0.09003,-0.04578,-0.03952,-0.00305,-0.07523,-0.01678,-0.0206,0.00076,-0.05264
4.534,-0.01953,-0.00778,-0.01892,-0.00809,0.06027,-0.04089,-0.01312,0.09735,-0.04913,-0.04227,0.0058,-0.07477,-0.1088,-0.01846,-0.00183,-0.05569
4.5345,-0.02075,-0.02777,-0.01907,-0.00931,0.03006,-0.04395,-0.01358,0.05463,-0.04761,-0.04395,0.00443,-0.04913,-0.16632,-0.01755,-0.00137,-0.05936
4.535,-0.02396,-0.04745,-0.0148,-0.01328,-0.02136,-0.04791,-0.01312,-0.01648,-0.04333,-0.04471,-0.00137,-0.0119,-0.14191,-0.01892,0.00031,-0.05966
4.5355,-0.0293,-0.05966,-0.00854,-0.01648,-0.0824,-0.05081,-0.01221,-0.07904,-0.03906,-0.04501,-0.00687,0.02625,-0.06485,-0.02075,0.0032,-0.056
4.536,-0.03342,-0.06348,-0.00854,-0.01785,-0.13351,-0.0531,-0.01144,-0.11353,-0.03616,-0.04181,-0.01053,0.06058,0.00092,-0.02075,0.00488,-0.05203
4.5365,-0.03387,-0.06088,-0.02121,-0.01831,-0.14633,-0.05371,-0.01129,-0.11642,-0.03281,-0.03616,-0.01236,0.08179,0.02396,-0.01862,0.00549,-0.04761
4.537,-0.03098,-0.05737,-0.04074,-0.01953,-0.11154,-0.0528,-0.00977,-0.09094,-0.02945,-0.02853,-0.01175,0.06973,0.0148,-0.01465,0.00687,-0.04013
4.5375,-0.02823,-0.05661,-0.05386,-0.02121,-0.05341,-0.05066,-0.00977,-0.04807,-0.02426,-0.02197,-0.00839,0.02853,-0.0148,-0.01282,0.00793,-0.02716
4.538,-0.02777,-0.05463,-0.05234,-0.02167,-0.01816,-0.04913,-0.01007,-0.01144,-0.01862,-0.01694,-0.00534,-0.00763,-0.056,-0.01404,0.00946,-0.01251
4.5385,-0.02716,-0.04837,-0.04395,-0.02151,-0.02228,-0.04929,-0.01221,-0.00137,-0.01266,-0.01434,-0.00366,-0.01312,-0.08591,-0.01663,0.01007,-0.00046
4.539,-0.02609,-0.0412,-0.03799,-0.02029,-0.04532,-0.0531,-0.01587,-0.00992,-0.00931,-0.01511,-0.00443,-0.00351,-0.08408,-0.01953,0.01053,0.00504
4.5395,-0.02487,-0.03662,-0.03677,-0.01892,-0.05417,-0.05463,-0.01663,-0.01617,-0.00824,-0.01999,-0.00732,-0.01099,-0.05951,-0.01984,0.01129,0.00076
4.54,-0.02579,-0.03448,-0.03677,-0.01541,-0.03967,-0.05325,-0.01434,-0.00992,-0.00824,-0.02899,-0.00824,-0.0354,-0.03601,-0.01678,0.01129,-0.01312
4.5405,-0.02762,-0.03235,-0.03479,-0.01297,-0.02121,-0.05066,-0.0119,0.00366,-0.00763,-0.03571,-0.00702,-0.05173,-0.02777,-0.0148,0.01114,-0.03387
4.541,-0.03021,-0.03174,-0.0296,-0.01022,-0.01495,-0.04776,-0.01129,0.01526,-0.00763,-0.03708,-0.00488,-0.04852,-0.02609,-0.01434,0.01236,-0.05875
4.5415,-0.03387,-0.03189,-0.02548,-0.00885,-0.01236,-0.047,-0.01282,0.02319,-0.00931,-0.03784,-0.00366,-0.03479,-0.01892,-0.01541,0.0148,-0.08438
4.542,-0.03586,-0.03586,-0.02411,-0.00916,-0.00214,-0.04761,-0.0145,0.0267,-0.01328,-0.04303,-0.00534,-0.02136,-0.00626,-0.01709,0.01617,-0.10727
4.5425,-0.03708,-0.04105,-0.02594,-0.01038,0.01114,-0.04822,-0.0145,0.02518,-0.0174,-0.05127,-0.00809,-0.00885,-0.00107,-0.0177,0.01495,-0.1207
4.543,-0.03799,-0.04578,-0.02762,-0.01236,0.00748,-0.04822,-0.01419,0.01846,-0.01633,-0.05692,-0.00748,0.00259,-0.00977,-0.0177,0.01099,-0.11841
4.5435,-0.04074,-0.04898,-0.0293,-0.01175,-0.0174,-0.04807,-0.01373,0.01099,-0.01038,-0.05768,-0.00412,0.01266,-0.01923,-0.01633,0.00687,-0.09827
4.544,-0.04501,-0.05249,-0.02792,-0.01038,-0.04654,-0.04929,-0.01526,0.00687,-0.00427,-0.05173,-0.00229,0.01633,-0.01511,-0.01617,0.00687,-0.07248
4.5445,-0.047,-0.05692,-0.02625,-0.00992,-0.0589,-0.04898,-0.01709,0.0029,-0.00351,-0.0415,-0.0032,0.00931,0.00107,-0.01801,0.00977,-0.06516
4.545,-0.04578,-0.05951,-0.02747,-0.00931,-0.05661,-0.04791,-0.01755,-0.00137,-0.00671,-0.03021,-0.00595,-0.01923,0.01099,-0.02045,0.01114,-0.08698
4.5455,-0.04364,-0.06027,-0.03265,-0.01022,-0.05188,-0.04715,-0.01617,-0.00473,-0.01251,-0.02045,-0.00671,-0.05951,0.00061,-0.02258,0.00854,-0.11368
4.546,-0.04486,-0.06027,-0.03784,-0.01312,-0.04868,-0.04761,-0.01526,-0.00381,-0.01694,-0.01343,-0.00687,-0.07599,-0.02762,-0.02411,0.00351,-0.09613
4.5465,-0.04868,-0.05966,-0.0383,-0.01587,-0.04425,-0.04807,-0.01648,-0.00214,-0.0177,-0.00824,-0.00702,-0.03189,-0.06302,-0.02518,0.00229,-0.01953
4.547,-0.05295,-0.05768,-0.03662,-0.01755,-0.04105,-0.04929,-0.01709,-0.00244,-0.01495,-0.00259,-0.0061,0.05875,-0.08835,-0.02472,0.00336,0.05768
4.5475,-0.05447,-0.05585,-0.03571,-0.01633,-0.03891,-0.04913,-0.01694,-0.00671,-0.01144,0.00244,-0.0058,0.13031,-0.08759,-0.02365,0.00519,0.06546
4.548,-0.05386,-0.05402,-0.03464,-0.01404,-0.03479,-0.04852,-0.01495,-0.02075,-0.00977,0.00626,-0.00702,0.12314,-0.06195,-0.02365,0.00656,0.0029
4.5485,-0.05081,-0.05112,-0.03387,-0.0119,-0.02457,-0.04608,-0.01282,-0.05798,-0.01068,0.00916,-0.009,0.05173,-0.02274,-0.02289,0.00702,-0.06638
4.549,-0.04822,-0.04807,-0.03296,-0.0119,-0.01007,-0.04379,-0.01022,-0.11734,-0.01038,0.01358,-0.00992,-0.01816,0.01099,-0.0209,0.01022,-0.09384
4.5495,-0.04669,-0.04517,-0.03311,-0.01068,0.00183,-0.04257,-0.00946,-0.16037,-0.00854,0.01877,-0.009,-0.04501,0.01923,-0.01923,0.01389,-0.07919
4.55,-0.047,-0.04471,-0.03387,-0.00931,0.00381,-0.04303,-0.00931,-0.14755,-0.00626,0.02243,-0.00778,-0.03799,-0.00778,-0.01938,0.01511,-0.04257
4.5505,-0.04929,-0.04578,-0.03113,-0.0058,-0.00595,-0.04791,-0.00824,-0.07935,-0.00626,0.02396,-0.00732,-0.02258,-0.05005,-0.01984,0.01144,-0.00488
4.551,-0.05173,-0.04639,-0.02518,-0.00198,-0.02121,-0.05127,-0.00717,0.01038,-0.00717,0.02457,-0.0061,-0.00809,-0.07797,-0.02136,0.00137,0.00916
4.5515,-0.05264,-0.04669,-0.01572,-0.00031,-0.03174,-0.05096,-0.00702,0.09079,-0.00946,0.02396,-0.00488,0.00488,-0.08423,-0.02289,-0.00748,-0.01831
4.552,-0.05066,-0.04639,-0.00793,-0.00275,-0.03464,-0.04791,-0.0087,0.14069,-0.01236,0.02106,-0.00519,0.01022,-0.08362,-0.02563,-0.00946,-0.07645
4.5525,-0.04745,-0.04654,-0.00961,-0.00702,-0.03403,-0.04654,-0.01022,0.14771,-0.0148,0.01297,-0.00748,0.00504,-0.07599,-0.02579,-0.00549,-0.12268
4.553,-0.0441,-0.04684,-0.02121,-0.00931,-0.0325,-0.04684,-0.01038,0.11292,-0.01572,0.00427,-0.00992,-0.00366,-0.05768,-0.02441,-0.00046,-0.12558
4.5535,-0.03952,-0.04807,-0.03433,-0.00885,-0.03006,-0.04745,-0.00931,0.06058,-0.01816,-0.00381,-0.01022,-0.00534,-0.03708,-0.02319,0.00076,-0.09583
4.554,-0.03601,-0.05081,-0.03983,-0.00732,-0.02548,-0.047,-0.00916,0.01877,-0.01984,-0.0116,-0.01144,0.00763,-0.02502,-0.02457,0.00076,-0.07202
4.5545,-0.03464,-0.05264,-0.03784,-0.00656,-0.02029,-0.04562,-0.01144,-0.00397,-0.01999,-0.01709,-0.01526,0.03311,-0.01602,-0.02716,0.00397,-0.0708
4.555,-0.03387,-0.05249,-0.03586,-0.00748,-0.01526,-0.04715,-0.01419,-0.01846,-0.0177,-0.02182,-0.01968,0.0592,-0.00519,-0.02792,0.00763,-0.0647
4.5555,-0.03235,-0.05203,-0.03784,-0.00778,-0.01129,-0.04944,-0.01526,-0.04471,-0.01648,-0.02289,-0.02106,0.07278,0.00397,-0.02533,0.00977,-0.02457
4.556,-0.02899,-0.05081,-0.04333,-0.00763,-0.01068,-0.05112,-0.01404,-0.09171,-0.01846,-0.02548,-0.01907,0.07248,0.00275,-0.02014,0.00885,0.03082
4.5565,-0.02472,-0.05096,-0.04883,-0.00717,-0.01434,-0.05127,-0.0116,-0.14145,-0.02304,-0.03128,-0.01816,0.06699,-0.0061,-0.01389,0.00946,0.05798
4.557,-0.02228,-0.05112,-0.05157,-0.00595,-0.02274,-0.05066,-0.01068,-0.15808,-0.02853,-0.0386,-0.02045,0.06042,-0.01633,-0.0119,0.00839,0.0386
4.5575,-0.01907,-0.05081,-0.05219,-0.00504,-0.03296,-0.04837,-0.01129,-0.11765,-0.03235,-0.04395,-0.02396,0.0441,-0.02655,-0.01373,0.00824,-0.01099
4.558,-0.01633,-0.04868,-0.05127,-0.0058,-0.04501,-0.04547,-0.0119,-0.03479,-0.03143,-0.0412,-0.02441,0.01434,-0.03937,-0.01846,0.01053,-0.07401
4.5585,-0.01373,-0.04715,-0.0473,-0.00916,-0.05707,-0.04333,-0.01129,0.04822,-0.02655,-0.03296,-0.02121,-0.02258,-0.05325,-0.0206,0.01419,-0.14069
4.559,-0.01312,-0.04562,-0.03983,-0.01236,-0.0647,-0.04242,-0.00961,0.09109,-0.02045,-0.0267,-0.01755,-0.05524,-0.06149,-0.01984,0.01602,-0.18463
4.5595,-0.01266,-0.0441,-0.03174,-0.01282,-0.06256,-0.04303,-0.00763,0.08408,-0.01556,-0.02121,-0.01587,-0.08041,-0.06302,-0.01709,0.01556,-0.17288
4.56,-0.01083,-0.04242,-0.02747,-0.01007,-0.0528,-0.04333,-0.00687,0.04044,-0.01312,-0.0206,-0.01633,-0.09918,-0.05844,-0.01602,0.01511,-0.11261
4.5605,-0.00977,-0.04211,-0.02838,-0.00748,-0.03937,-0.04395,-0.00824,-0.00793,-0.01312,-0.02411,-0.01465,-0.10834,-0.05066,-0.01816,0.01465,-0.05112
4.561,-0.01022,-0.04211,-0.0322,-0.00656,-0.02747,-0.04593,-0.00839,-0.01877,-0.01343,-0.02686,-0.0145,-0.10284,-0.03555,-0.02151,0.01404,-0.03021
4.5615,-0.01419,-0.0412,-0.03525,-0.00687,-0.01999,-0.04868,-0.00763,0.0267,-0.01419,-0.0267,-0.01617,-0.08774,-0.01343,-0.0206,0.01236,-0.05737
4.562,-0.01999,-0.03906,-0.03662,-0.00671,-0.0235,-0.05219,-0.00763,0.10376,-0.01587,-0.0264,-0.01801,-0.07462,-0.00031,-0.0177,0.00885,-0.10422
4.5625,-0.02243,-0.03738,-0.0351,-0.0058,-0.03296,-0.05417,-0.00961,0.15915,-0.01709,-0.02823,-0.01724,-0.06989,-0.00916,-0.01633,0.00381,-0.12558
4.563,-0.01923,-0.03723,-0.03265,-0.00534,-0.04089,-0.05356,-0.01328,0.16846,-0.01572,-0.03235,-0.01389,-0.07233,-0.02457,-0.01648,0.00259,-0.0856
4.5635,-0.01099,-0.03983,-0.03098,-0.00549,-0.04028,-0.05127,-0.01602,0.14496,-0.0119,-0.03601,-0.01175,-0.08377,-0.02228,-0.01968,0.00488,0.01221
4.564,-0.00183,-0.0444,-0.03113,-0.00458,-0.03464,-0.04929,-0.01587,0.11642,-0.00839,-0.03738,-0.01221,-0.10269,-0.00336,-0.02243,0.00793,0.11536
4.5645,0.00473,-0.04761,-0.0325,-0.00443,-0.03098,-0.04807,-0.01434,0.09689,-0.00931,-0.03784,-0.01175,-0.11765,0.0058,-0.02106,0.00732,0.16403
4.565,0.009,-0.047,-0.03479,-0.0061,-0.02975,-0.04593,-0.01434,0.08224,-0.01556,-0.04028,-0.01038,-0.11597,-0.00702,-0.01495,0.0058,0.13809
4.5655,0.0116,-0.04395,-0.03632,-0.00916,-0.02533,-0.04242,-0.01587,0.06836,-0.02335,-0.04456,-0.01205,-0.0853,-0.02563,-0.00992,0.00702,0.07034
4.566,0.01175,-0.0412,-0.03998,-0.01144,-0.01755,-0.04028,-0.01801,0.05188,-0.02716,-0.04837,-0.01877,-0.02411,-0.03174,-0.00748,0.00885,0.01404
4.5665,0.01007,-0.03937,-0.04105,-0.01373,-0.00793,-0.04089,-0.01816,0.04013,-0.02609,-0.04974,-0.03082,0.05646,-0.03494,-0.00778,0.01083,-0.00687
4.567,0.00992,-0.03723,-0.0383,-0.01648,0.00793,-0.04211,-0.01602,0.03708,-0.02197,-0.05081,-0.03967,0.12314,-0.05249,-0.00824,0.01038,-0.00824
4.5675,0.01175,-0.03433,-0.03616,-0.01801,0.03448,-0.04395,-0.01389,0.03296,-0.0174,-0.05173,-0.03632,0.14053,-0.08072,-0.00931,0.00931,-0.01068
4.568,0.01434,-0.03204,-0.03647,-0.01694,0.06332,-0.04349,-0.01266,0.01038,-0.0145,-0.04639,-0.02319,0.10101,-0.09094,-0.01434,0.00809,-0.01846
4.5685,0.01617,-0.03159,-0.03784,-0.0148,0.08179,-0.04257,-0.01343,-0.0354,-0.01404,-0.03448,-0.01434,0.03784,-0.0647,-0.02121,0.00809,-0.02487
4.569,0.01724,-0.03235,-0.03937,-0.01328,0.08011,-0.04425,-0.0145,-0.0885,-0.0177,-0.01816,-0.01694,-0.00229,-0.01785,-0.02411,0.00778,-0.02808
4.5695,0.01953,-0.03098,-0.03647,-0.01312,0.05402,-0.0473,-0.01266,-0.12817,-0.02533,-0.00336,-0.02426,0.00015,0.0119,-0.02228,0.00809,-0.03098
4.57,0.02258,-0.02762,-0.03067,-0.01221,0.00031,-0.0499,-0.01114,-0.1474,-0.03357,0.0061,-0.02563,0.03067,0.00687,-0.01938,0.00946,-0.03326
4.5705,0.02548,-0.02411,-0.0267,-0.0119,-0.07248,-0.05417,-0.01038,-0.15137,-0.0386,0.01175,-0.01877,0.06271,-0.01617,-0.01892,0.00885,-0.03296
4.571,0.02914,-0.0238,-0.02731,-0.01266,-0.13657,-0.0589,-0.01007,-0.14786,-0.03708,0.01175,-0.01144,0.07629,-0.03906,-0.01984,0.00931,-0.03387
4.5715,0.03464,-0.0264,-0.03357,-0.0148,-0.17242,-0.06226,-0.01083,-0.13901,-0.03189,0.00916,-0.00778,0.07156,-0.05753,-0.0209,0.00809,-0.0415
4.572,0.04166,-0.03021,-0.04028,-0.0145,-0.19531,-0.06439,-0.0116,-0.12604,-0.02548,0.00488,-0.01083,0.06149,-0.06836,-0.0209,0.00778,-0.06088
4.5725,0.04913,-0.03296,-0.04349,-0.01465,-0.20966,-0.06271,-0.01221,-0.11002,-0.02045,0.00229,-0.01419,0.0589,-0.0589,-0.01984,0.00717,-0.08438
4.573,0.05508,-0.03357,-0.04135,-0.01572,-0.17609,-0.056,-0.01297,-0.08636,-0.01678,0.0,-0.01266,0.05798,-0.02853,-0.01678,0.00702,-0.10132
4.5735,0.05951,-0.03372,-0.03632,-0.01633,-0.07767,-0.04593,-0.01419,-0.04974,-0.0116,-0.00412,-0.00763,0.04425,-0.00122,-0.01251,0.0058,-0.1091
4.574,0.06302,-0.03464,-0.02914,-0.01526,0.02686,-0.0386,-0.01587,-0.01129,-0.00397,-0.00885,-0.00443,0.00839,0.00092,-0.00961,0.00351,-0.11963
4.5745,0.06714,-0.03525,-0.01831,-0.01389,0.0679,-0.03479,-0.01678,0.01175,0.0029,-0.01114,-0.00519,-0.03784,-0.01984,-0.00992,0.00458,-0.1297
4.575,0.07126,-0.03693,-0.00961,-0.01389,0.0473,-0.03418,-0.01572,0.0119,0.00763,-0.0087,-0.00778,-0.0621,-0.04486,-0.01205,0.01038,-0.10864
4.5755,0.07477,-0.03983,-0.01053,-0.01678,0.01846,-0.03708,-0.01465,0.00137,0.00809,-0.00244,-0.00992,-0.03845,-0.05936,-0.0145,0.01587,-0.04471
4.576,0.07767,-0.04288,-0.01907,-0.02014,0.00549,-0.03983,-0.01602,-0.00336,0.00732,0.00488,-0.01022,0.01648,-0.05936,-0.01434,0.0177,0.00519
4.5765,0.08011,-0.04456,-0.02945,-0.01953,-0.00946,-0.04303,-0.02029,0.00031,0.00687,0.00946,-0.01053,0.05249,-0.04791,-0.01251,0.01587,-0.0322
4.577,0.08163,-0.0444,-0.03433,-0.01755,-0.04013,-0.04593,-0.0235,0.00763,0.00824,0.00839,-0.00931,0.04425,-0.03159,-0.0119,0.01434,-0.12833
4.5775,0.08194,-0.04471,-0.03265,-0.01556,-0.06302,-0.04868,-0.02472,0.01373,0.00641,0.00397,-0.00198,0.01419,-0.01923,-0.01419,0.01205,-0.17044
4.578,0.08148,-0.04471,-0.02579,-0.01526,-0.05814,-0.05035,-0.0235,0.01755,0.00214,-0.00015,0.02228,-0.00473,-0.01038,-0.01648,0.00763,-0.11322
4.5785,0.08148,-0.0444,-0.01846,-0.01312,-0.0296,-0.0499,-0.02151,0.01892,-0.00275,-0.00458,0.05981,-0.00854,-0.00122,-0.01785,-0.00153,-0.05234
4.579,0.08041,-0.04501,-0.01877,-0.01099,0.00351,-0.04868,-0.01968,0.01968,-0.00778,-0.00992,0.08087,-0.00809,0.00397,-0.01862,-0.00809,-0.09094
4.5795,0.07919,-0.04684,-0.02533,-0.00885,0.03494,-0.04684,-0.01709,0.02167,-0.01343,-0.01831,0.06302,-0.01129,-0.00229,-0.01877,-0.00732,-0.18723
4.58,0.07858,-0.04868,-0.03265,-0.00824,0.05478,-0.04684,-0.01602,0.02914,-0.01801,-0.02609,0.0177,-0.0206,-0.02029,-0.01892,0.00198,-0.19135
4.5805,0.07935,-0.04944,-0.03662,-0.00916,0.04837,-0.04745,-0.01541,0.04272,-0.01968,-0.0296,-0.0235,-0.03738,-0.04242,-0.01816,0.00992,-0.03296
4.581,0.08148,-0.04944,-0.03479,-0.01022,0.0206,-0.04944,-0.01602,0.05325,-0.01923,-0.02899,-0.04471,-0.05493,-0.05219,-0.01648,0.01114,0.17136
4.5815,0.08423,-0.04929,-0.03464,-0.01129,-0.01724,-0.05127,-0.01678,0.04654,-0.01816,-0.0267,-0.05249,-0.06073,-0.03937,-0.01404,0.01083,0.24612
4.582,0.08652,-0.04791,-0.03769,-0.01205,-0.07523,-0.05295,-0.0177,0.02579,-0.01617,-0.02625,-0.0563,-0.04593,-0.00549,-0.01038,0.01114,0.16617
4.5825,0.08667,-0.0444,-0.04333,-0.01221,-0.17227,-0.05432,-0.0174,0.01343,-0.01495,-0.02853,-0.05219,-0.0238,0.03113,-0.00931,0.01266,0.05783
4.583,0.08606,-0.04303,-0.05066,-0.01114,-0.27115,-0.05478,-0.01617,0.0177,-0.0148,-0.03387,-0.03922,-0.0148,0.05295,-0.01251,0.01541,0.02487
4.5835,0.08652,-0.04517,-0.05692,-0.00885,-0.28168,-0.05325,-0.01419,0.01343,-0.01633,-0.04196,-0.02457,-0.02335,0.05737,-0.02045,0.01938,0.0412
4.584,0.08728,-0.05051,-0.06027,-0.00656,-0.17578,-0.04852,-0.01312,-0.02365,-0.01755,-0.0499,-0.0148,-0.03113,0.04639,-0.0293,0.02274,0.03052
4.5845,0.08774,-0.05493,-0.05753,-0.00473,-0.04456,-0.04318,-0.01343,-0.07675,-0.0177,-0.0528,-0.01328,-0.01785,0.01251,-0.03555,0.02121,-0.0322
4.585,0.0853,-0.05356,-0.04745,-0.00534,0.01236,-0.04135,-0.01404,-0.10559,-0.01572,-0.05356,-0.01678,0.01968,-0.04807,-0.03754,0.01465,-0.11673
4.5855,0.08453,-0.04852,-0.03784,-0.00687,-0.00473,-0.04364,-0.01389,-0.09705,-0.01526,-0.05432,-0.01984,0.06226,-0.11139,-0.03632,0.01007,-0.19012
4.586,0.08591,-0.04181,-0.03403,-0.009,-0.03067,-0.04715,-0.01236,-0.06485,-0.01801,-0.0531,-0.02014,0.07385,-0.14587,-0.0322,0.00687,-0.25345
4.5865,0.08926,-0.03708,-0.03403,-0.01068,-0.03265,-0.04868,-0.01129,-0.02808,-0.01984,-0.04761,-0.01862,0.03952,-0.1506,-0.02686,0.00412,-0.3186
4.587,0.09094,-0.03479,-0.03448,-0.01068,-0.02457,-0.04776,-0.01221,0.00046,-0.01724,-0.03769,-0.01526,-0.01205,-0.14236,-0.02228,-0.00107,-0.3656
4.5875,0.09064,-0.03342,-0.03571,-0.00916,-0.01938,-0.04501,-0.01434,0.01038,-0.00977,-0.02518,-0.01068,-0.03586,-0.1236,-0.01938,-0.00931,-0.33096
4.588,0.0885,-0.03387,-0.03662,-0.00793,-0.00885,-0.04364,-0.01602,0.00107,-0.00336,-0.01495,-0.00549,-0.02075,-0.09293,-0.01678,-0.01511,-0.17868
4.5885,0.08423,-0.03418,-0.03815,-0.00809,0.00946,-0.04181,-0.01572,-0.01221,-0.00183,-0.00504,-0.00381,0.0061,-0.05859,-0.01282,-0.01678,0.04547
4.589,0.07858,-0.03372,-0.03952,-0.00977,0.02289,-0.04013,-0.01617,-0.01648,-0.0032,0.00168,-0.00778,0.009,-0.03494,-0.0087,-0.01114,0.23758
4.5895,0.07401,-0.03296,-0.0412,-0.01053,0.01816,-0.04089,-0.01572,-0.00885,-0.00397,0.00992,-0.01236,-0.01999,-0.01724,-0.00549,-0.00427,0.31921
4.59,0.0705,-0.03296,-0.04471,-0.01129,-0.00031,-0.04364,-0.01587,0.00214,-0.00412,0.01495,-0.01511,-0.05386,0.00565,-0.00595,0.0032,0.28015
4.5905,0.06912,-0.0354,-0.04578,-0.01129,-0.01312,-0.04501,-0.01541,0.01266,-0.00656,0.01663,-0.01419,-0.0618,0.0296,-0.00946,0.00671,0.17517
4.591,0.06714,-0.03723,-0.04272,-0.00885,-0.00763,-0.04532,-0.01389,0.01968,-0.01114,0.01541,-0.01343,-0.03876,0.03616,-0.01389,0.00839,0.0856
4.5915,0.0621,-0.03525,-0.03937,-0.00702,0.00687,-0.04547,-0.01114,0.0235,-0.01556,0.01007,-0.01541,-0.00763,0.02304,-0.01556,0.01175,0.05081
4.592,0.05447,-0.03052,-0.03754,-0.00778,0.00534,-0.04654,-0.00961,0.02823,-0.02151,-0.00458,-0.01755,0.01007,0.01266,-0.01587,0.02121,0.0386
4.5925,0.04608,-0.02899,-0.03632,-0.01114,-0.01709,-0.04807,-0.00992,0.04395,-0.02884,-0.02426,-0.01923,0.01587,0.01282,-0.01724,0.03708,-0.00565
4.593,0.03754,-0.0351,-0.03387,-0.01236,-0.03448,-0.04944,-0.01251,0.07111,-0.03403,-0.03876,-0.02029,0.02396,0.00107,-0.01984,0.05478,-0.08713
4.5935,0.02975,-0.0441,-0.02869,-0.0116,-0.03098,-0.04883,-0.01556,0.08759,-0.03296,-0.03922,-0.02365,0.04669,-0.04944,-0.02411,0.05951,-0.1622
4.594,0.02213,-0.05051,-0.02518,-0.01007,-0.02014,-0.04883,-0.0177,0.0679,-0.02411,-0.03098,-0.02731,0.07782,-0.12283,-0.02533,0.04852,-0.18829
4.5945,0.01602,-0.05157,-0.02411,-0.00946,-0.01114,-0.04898,-0.02075,0.01572,-0.01297,-0.02106,-0.03006,0.09796,-0.15732,-0.02686,0.02853,-0.16037
4.595,0.01083,-0.04974,-0.02426,-0.00977,0.00931,-0.04868,-0.02701,-0.0412,-0.00595,-0.01312,-0.03036,0.09476,-0.12039,-0.02823,0.01404,-0.10086
4.5955,0.00458,-0.04974,-0.0264,-0.01022,0.04166,-0.04807,-0.03632,-0.08148,-0.00336,-0.0061,-0.02975,0.07095,-0.05463,-0.02792,0.00916,-0.03433
4.596,-0.00427,-0.04929,-0.02701,-0.01144,0.06424,-0.04639,-0.04822,-0.10193,-0.00671,-0.00092,-0.03036,0.04227,-0.02274,-0.0264,0.00412,0.01358
4.5965,-0.01495,-0.04761,-0.02808,-0.01251,0.04791,-0.04562,-0.05707,-0.10544,-0.01297,-0.00351,-0.03372,0.02045,-0.03113,-0.02289,-0.00885,0.02518
4.597,-0.02609,-0.04501,-0.02853,-0.01221,-0.00626,-0.047,-0.05936,-0.09247,-0.02045,-0.01251,-0.03662,0.00687,-0.04288,-0.01968,-0.02533,0.00809
4.5975,-0.03311,-0.04288,-0.02762,-0.01099,-0.07339,-0.05035,-0.05447,-0.07019,-0.02792,-0.02274,-0.03662,-0.00458,-0.03983,-0.01816,-0.03174,-0.00992
4.598,-0.03525,-0.04395,-0.0264,-0.00854,-0.11856,-0.0528,-0.04883,-0.05051,-0.03433,-0.02991,-0.03235,-0.01785,-0.03311,-0.01801,-0.02197,-0.00839
4.5985,-0.03387,-0.04837,-0.02777,-0.00748,-0.12909,-0.05447,-0.05203,-0.04211,-0.03815,-0.03586,-0.02579,-0.02777,-0.03082,-0.01953,-0.00473,0.00595
4.599,-0.03265,-0.05432,-0.03143,-0.00717,-0.12177,-0.05615,-0.06424,-0.05112,-0.03632,-0.03952,-0.0206,-0.02777,-0.0238,-0.02182,0.0029,0.02136
4.5995,-0.0325,-0.0589,-0.03372,-0.00809,-0.11322,-0.05692,-0.06378,-0.08621,-0.03067,-0.04242,-0.01541,-0.01663,-0.00443,-0.02136,-0.00259,0.03738
4.6,-0.02853,-0.06119,-0.0322,-0.00748,-0.09918,-0.05585,-0.03235,-0.14694,-0.02411,-0.04349,-0.00626,-0.00336,0.0177,-0.01862,-0.01114,0.05112
4.6005,-0.02121,-0.06287,-0.02991,-0.00671,-0.07782,-0.05264,0.0209,-0.20721,-0.01877,-0.04639,0.00336,0.00229,0.02731,-0.01556,-0.01007,0.03937
4.601,-0.0148,-0.0621,-0.02899,-0.00717,-0.06058,-0.0502,0.06317,-0.22034,-0.01556,-0.04852,0.00671,0.00061,0.02258,-0.01312,0.00031,-0.02686
4.6015,-0.01328,-0.05722,-0.03052,-0.00946,-0.0499,-0.04791,0.07202,-0.15518,-0.01083,-0.04761,0.00259,-0.00214,0.01099,-0.01251,0.00656,-0.13
4.602,-0.01785,-0.04913,-0.03265,-0.01282,-0.03906,-0.04486,0.05173,-0.02289,-0.00671,-0.04242,-0.00336,-0.00443,-0.00519,-0.01282,0.00504,-0.20279
4.6025,-0.02502,-0.0412,-0.03525,-0.01373,-0.02457,-0.04196,0.02731,0.13062,-0.00366,-0.02609,-0.0061,-0.00443,-0.03235,-0.01434,0.00443,-0.1886
4.603,-0.0322,-0.03647,-0.0383,-0.01236,-0.01846,-0.04333,0.0148,0.24551,-0.00397,-0.00137,-0.00854,-0.00275,-0.06622,-0.01663,0.01343,-0.09369
4.6035,-0.04135,-0.03433,-0.04303,-0.01068,-0.01984,-0.04532,0.01663,0.2829,-0.00687,0.02609,-0.00992,-0.00031,-0.08209,-0.01907,0.03357,0.01846
4.604,-0.05234,-0.0322,-0.04684,-0.01022,-0.01434,-0.04532,0.02182,0.23834,-0.00763,0.04944,-0.01114,-0.00031,-0.07324,-0.02151,0.0528,0.08743
4.6045,-0.06546,-0.0296,-0.04791,-0.0116,0.00687,-0.04333,0.02441,0.14999,-0.00519,0.06287,-0.00961,-0.00687,-0.0676,-0.0238,0.05569,0.09247
4.605,-0.07782,-0.02762,-0.04745,-0.01144,0.03937,-0.04059,0.0264,0.06546,-0.00198,0.06256,-0.00778,-0.01785,-0.08392,-0.02563,0.03418,0.04852
4.6055,-0.08469,-0.02594,-0.04913,-0.00946,0.06424,-0.03845,0.02548,0.01038,-0.00076,0.04532,-0.00839,-0.02701,-0.09186,-0.0267,0.00092,-0.01038
4.606,-0.08759,-0.02533,-0.05234,-0.00732,0.06714,-0.03922,0.01572,-0.0148,-0.00427,0.0174,-0.01266,-0.02808,-0.0618,-0.02716,-0.01419,-0.06226
4.6065,-0.08957,-0.02304,-0.05554,-0.00671,0.04303,-0.0415,-0.01129,-0.01343,-0.00931,-0.01007,-0.01724,-0.01968,-0.01541,-0.02609,-0.00366,-0.1088
4.607,-0.09308,-0.01801,-0.05554,-0.00717,0.00229,-0.0444,-0.04272,0.01068,-0.01328,-0.0264,-0.02121,-0.00504,0.00946,-0.02365,0.01144,-0.16235
4.6075,-0.09415,-0.01358,-0.05035,-0.00946,-0.03922,-0.04807,-0.05035,0.04669,-0.0145,-0.03235,-0.02289,0.00656,0.00641,-0.01831,0.01022,-0.21103
4.608,-0.08789,-0.01419,-0.04349,-0.01266,-0.07111,-0.05157,-0.02304,0.07019,-0.01434,-0.03586,-0.02365,0.00748,-0.00443,-0.01343,0.00168,-0.22629
4.6085,-0.07614,-0.01907,-0.03723,-0.01663,-0.09232,-0.05463,0.0116,0.06454,-0.0145,-0.04059,-0.02548,-0.00427,-0.01602,-0.01083,-0.00092,-0.19211
4.609,-0.0679,-0.02594,-0.03479,-0.01831,-0.08987,-0.05798,0.02472,0.03494,-0.01602,-0.04776,-0.02609,-0.01923,-0.0325,-0.0116,0.00259,-0.10773
4.6095,-0.06439,-0.0322,-0.03387,-0.01709,-0.0618,-0.06042,0.01434,0.00336,-0.01877,-0.05554,-0.02151,-0.01587,-0.04776,-0.01556,0.00504,0.01358
4.61,-0.06165,-0.03387,-0.0322,-0.01389,-0.04349,-0.0621,0.00046,-0.01389,-0.02319,-0.06348,-0.01221,0.01541,-0.05234,-0.01953,0.00412,0.121
4.6105,-0.05524,-0.03387,-0.02853,-0.01282,-0.06119,-0.06302,-0.00854,-0.01511,-0.02823,-0.07126,-0.00565,0.047,-0.04944,-0.02289,0.00443,0.14114
4.611,-0.047,-0.0354,-0.02502,-0.01556,-0.08362,-0.06073,-0.01343,-0.00748,-0.03433,-0.07797,-0.00732,0.0444,-0.04745,-0.02411,0.00565,0.05569
4.6115,-0.04227,-0.04517,-0.02274,-0.01724,-0.06882,-0.05295,-0.01785,0.00153,-0.04211,-0.08026,-0.01266,0.01068,-0.04532,-0.02319,0.0061,-0.05905
4.612,-0.04364,-0.06699,-0.01846,-0.01511,-0.02731,-0.04318,-0.01862,-0.00198,-0.05173,-0.07706,-0.00824,-0.01816,-0.03601,-0.01938,0.00534,-0.10361
4.6125,-0.04578,-0.09232,-0.01389,-0.01144,0.0,-0.03479,-0.01541,-0.03174,-0.06073,-0.06836,0.01053,-0.02396,-0.02441,-0.0148,0.00443,-0.0705
4.613,-0.04654,-0.10361,-0.01465,-0.00961,0.00565,-0.03082,-0.01114,-0.08301,-0.06439,-0.05203,0.03296,-0.01251,-0.01923,-0.01236,0.00641,-0.04135
4.6135,-0.04715,-0.09644,-0.02304,-0.01114,0.01083,-0.03204,-0.00916,-0.12787,-0.05829,-0.0264,0.04303,0.01007,-0.02121,-0.01282,0.0116,-0.08499
4.614,-0.05096,-0.08423,-0.03418,-0.01266,0.01953,-0.03586,-0.01114,-0.13153,-0.04654,0.0058,0.04288,0.03662,-0.01953,-0.01572,0.01801,-0.17975
4.6145,-0.05875,-0.07339,-0.04166,-0.01205,0.01129,-0.04013,-0.0148,-0.08362,-0.03464,0.03052,0.0441,0.05142,-0.00732,-0.01923,0.02014,-0.24384
4.615,-0.06683,-0.06088,-0.0412,-0.00946,-0.02289,-0.04364,-0.0174,-0.00259,-0.02731,0.03632,0.04227,0.03922,0.00702,-0.02243,0.0174,-0.22949
4.6155,-0.07126,-0.04135,-0.03464,-0.0061,-0.06195,-0.0473,-0.01755,0.07019,-0.02487,0.02487,0.01877,0.00824,0.00046,-0.02609,0.01144,-0.14862
4.616,-0.07141,-0.02029,-0.02991,-0.0029,-0.08759,-0.0502,-0.02106,0.09903,-0.02426,0.00702,-0.02457,-0.01694,-0.03342,-0.02869,0.00778,-0.03677
4.6165,-0.07004,-0.00229,-0.02869,0.00183,-0.10483,-0.05157,-0.0383,0.07309,-0.02213,-0.0058,-0.06165,-0.02472,-0.06821,-0.0296,0.00992,0.07645
4.617,-0.06638,0.01068,-0.02899,0.00931,-0.11642,-0.05234,-0.07416,0.02045,-0.01663,-0.01648,-0.07721,-0.02274,-0.07401,-0.02777,0.00748,0.14374
4.6175,-0.06058,0.01999,-0.03021,0.01663,-0.10818,-0.05234,-0.11337,-0.01831,-0.01099,-0.03082,-0.08102,-0.0238,-0.05264,-0.02502,-0.01129,0.11993
4.618,-0.05478,0.0235,-0.0325,0.01724,-0.06805,-0.04959,-0.13229,-0.01602,-0.00595,-0.05005,-0.08316,-0.02869,-0.02975,-0.02106,-0.03815,0.03159
4.6185,-0.05203,0.01984,-0.03494,0.01373,-0.02029,-0.04578,-0.12177,0.01831,-0.00351,-0.065,-0.07935,-0.03098,-0.02594,-0.01801,-0.04715,-0.04379
4.619,-0.05066,0.01312,-0.03754,0.01114,0.00275,-0.04089,-0.09415,0.04791,-0.00168,-0.06821,-0.0705,-0.0351,-0.03632,-0.01785,-0.0296,-0.07034
4.6195,-0.04929,0.0058,-0.03662,0.01022,0.00793,-0.03845,-0.05981,0.04913,-0.00122,-0.05676,-0.06653,-0.0589,-0.04501,-0.01785,-0.00397,-0.07874
4.62,-0.04868,-0.0029,-0.03418,0.00656,0.0206,-0.04013,-0.01923,0.02808,-0.00183,-0.03632,-0.06393,-0.10498,-0.04654,-0.01633,0.00931,-0.11185
4.6205,-0.05325,-0.01465,-0.03174,-0.00305,0.03616,-0.04318,0.02548,0.00687,-0.00244,-0.01633,-0.0499,-0.14297,-0.04471,-0.01511,0.01114,-0.15884
4.621,-0.06042,-0.02869,-0.03281,-0.01419,0.02594,-0.0441,0.06302,0.00137,-0.00214,0.00229,-0.02548,-0.14572,-0.04608,-0.01572,0.01419,-0.17197
4.6215,-0.06653,-0.0412,-0.03632,-0.02228,-0.01617,-0.04318,0.07675,0.01282,0.00046,0.02182,-0.00351,-0.11047,-0.04715,-0.01877,0.0209,-0.12497
4.622,-0.07248,-0.04944,-0.03922,-0.02869,-0.05188,-0.04074,0.0618,0.03265,0.00397,0.04425,0.0029,-0.05127,-0.0441,-0.02136,0.02579,-0.05768
4.6225,-0.08133,-0.05371,-0.03845,-0.03601,-0.05234,-0.04044,0.03174,0.04715,0.00717,0.06378,0.00137,0.01526,-0.03571,-0.02136,0.02777,-0.01907
4.623,-0.08896,-0.05585,-0.03769,-0.04349,-0.03067,-0.04196,0.01175,0.04562,0.00671,0.0769,-0.00046,0.07355,-0.02396,-0.01846,0.0267,0.00305
4.6235,-0.08987,-0.05707,-0.03799,-0.04456,-0.02213,-0.04318,0.01099,0.03159,0.00275,0.08698,0.00046,0.11063,-0.0087,-0.01511,0.02533,0.05051
4.624,-0.08453,-0.05707,-0.03937,-0.03967,-0.02914,-0.04456,0.01709,0.01694,-0.00015,0.09323,0.00046,0.11505,0.00641,-0.01373,0.02274,0.10529
4.6245,-0.08163,-0.05646,-0.04059,-0.0322,-0.02991,-0.04608,0.01251,0.00534,0.00229,0.08942,-0.00397,0.09415,0.01358,-0.01511,0.01694,0.10559
4.625,-0.08514,-0.0563,-0.0383,-0.02823,-0.01678,-0.04822,0.00015,-0.00458,0.00702,0.07324,-0.01175,0.08331,0.00565,-0.01877,0.01251,0.04868
4.6255,-0.09155,-0.05783,-0.0354,-0.02792,-0.00412,-0.0499,-0.00626,-0.01633,0.00839,0.05341,-0.01511,0.09979,-0.01541,-0.02121,0.0087,-0.00534
4.626,-0.09369,-0.05997,-0.03235,-0.02731,-0.0087,-0.05264,-0.00473,-0.03036,0.0058,0.03128,-0.00977,0.11429,-0.03616,-0.02335,0.00565,-0.02136
4.6265,-0.08987,-0.0618,-0.03082,-0.02625,-0.02441,-0.05661,-0.00198,-0.04547,0.00397,0.01572,0.00076,0.09277,-0.04623,-0.02594,0.00488,-0.02335
4.627,-0.08545,-0.06226,-0.03036,-0.02533,-0.0322,-0.06134,-0.00046,-0.0589,0.00519,-0.00214,0.00595,0.04486,-0.04501,-0.02625,0.00412,-0.0444
4.6275,-0.08347,-0.06119,-0.03143,-0.02335,-0.02075,-0.06348,-0.00092,-0.06683,0.00641,-0.0206,0.00275,0.00412,-0.03387,-0.0235,0.00458,-0.08179
4.628,-0.08163,-0.05783,-0.03265,-0.01923,-0.0032,-0.05829,-0.00443,-0.06592,0.00397,-0.03738,-0.00275,-0.01434,-0.01678,-0.01877,0.00519,-0.10376
4.6285,-0.07828,-0.05417,-0.03189,-0.01587,-0.01495,-0.05127,-0.01007,-0.05402,-0.00183,-0.04532,-0.00458,-0.02243,-0.00565,-0.01572,0.00519,-0.09201
4.629,-0.07507,-0.05081,-0.02853,-0.01373,-0.06393,-0.04608,-0.01617,-0.03082,-0.00702,-0.04837,-0.00366,-0.03418,-0.01602,-0.01465,0.00763,-0.06195
4.6295,-0.07187,-0.0499,-0.02533,-0.01328,-0.11475,-0.04425,-0.01831,-0.00412,-0.00793,-0.04913,-0.00046,-0.04654,-0.04379,-0.01511,0.009,-0.04135
4.63,-0.07065,-0.0499,-0.02441,-0.01205,-0.11948,-0.04364,-0.0177,0.01251,-0.00671,-0.05096,0.0032,-0.04684,-0.06943,-0.01663,0.01038,-0.04318
4.6305,-0.06882,-0.04822,-0.02533,-0.00961,-0.07767,-0.04288,-0.01923,0.01144,-0.00778,-0.05951,0.01587,-0.0264,-0.06775,-0.02075,0.01129,-0.05539
4.631,-0.06607,-0.04684,-0.02502,-0.0061,-0.0322,-0.04227,-0.02106,0.00061,-0.01297,-0.07034,0.0499,0.00412,-0.03525,-0.02609,0.01373,-0.06119
4.6315,-0.0621,-0.04898,-0.02441,-0.00076,-0.02197,-0.04196,-0.02136,-0.00778,-0.01968,-0.08102,0.09583,0.02289,-0.00824,-0.03021,0.01511,-0.05859
4.632,-0.06042,-0.05402,-0.02701,0.00534,-0.03952,-0.04303,-0.01999,-0.00778,-0.02213,-0.08865,0.11444,0.02533,-0.03235,-0.03143,0.01328,-0.05188
4.6325,-0.06073,-0.05814,-0.03128,0.00763,-0.05447,-0.04471,-0.01938,-0.00443,-0.01923,-0.09277,0.08011,0.03464,-0.09964,-0.03067,0.01007,-0.03769
4.633,-0.06027,-0.05798,-0.0354,0.00641,-0.05463,-0.04654,-0.01984,-0.00351,-0.01602,-0.09415,0.01495,0.06744,-0.13901,-0.02777,0.01007,-0.01572
4.6335,-0.05737,-0.05692,-0.03967,0.00275,-0.05188,-0.04822,-0.02014,-0.00412,-0.01892,-0.09369,-0.03693,0.10803,-0.1033,-0.02197,0.01312,0.00305
4.634,-0.0528,-0.05737,-0.04242,0.00092,-0.04944,-0.04761,-0.01938,-0.00168,-0.0264,-0.08835,-0.06256,0.12512,-0.02869,-0.01678,0.01587,0.00015
4.6345,-0.04684,-0.056,-0.04318,0.00107,-0.04349,-0.04807,-0.01831,0.00244,-0.03494,-0.07828,-0.07492,0.10437,0.01572,-0.0148,0.01617,-0.02136
4.635,-0.03967,-0.05127,-0.04364,0.00122,-0.02838,-0.0473,-0.01785,0.00412,-0.04044,-0.06516,-0.08423,0.05417,0.01099,-0.01328,0.01694,-0.04135
4.6355,-0.03189,-0.04486,-0.04608,-0.00153,-0.00671,-0.04974,-0.0177,0.00153,-0.04486,-0.04852,-0.08881,-0.00534,-0.01282,-0.00854,0.01648,-0.0473
4.636,-0.02304,-0.03937,-0.04837,-0.00519,0.01129,-0.05142,-0.01816,-0.00153,-0.04654,-0.0322,-0.08621,-0.06073,-0.0293,-0.00519,0.01266,-0.05585
4.6365,-0.01434,-0.03647,-0.04852,-0.00534,0.02472,-0.05005,-0.01923,-0.00229,-0.0473,-0.01862,-0.07858,-0.09766,-0.03387,-0.00671,0.00153,-0.09109
4.637,-0.00443,-0.03342,-0.04425,-0.00275,0.04044,-0.04486,-0.02075,-0.00168,-0.04532,-0.00809,-0.07126,-0.10712,-0.03204,-0.00916,-0.00931,-0.15121
4.6375,0.00916,-0.0296,-0.03647,-0.00031,0.06317,-0.03983,-0.02182,-0.00687,-0.03906,0.00473,-0.06378,-0.09033,-0.03189,-0.01007,-0.01328,-0.20889
4.638,0.02441,-0.02731,-0.02502,-0.00214,0.08331,-0.03769,-0.02197,-0.02396,-0.02808,0.01785,-0.05188,-0.06424,-0.03586,-0.00992,-0.00534,-0.24643
4.6385,0.03738,-0.02777,-0.00992,-0.00809,0.08743,-0.0383,-0.0209,-0.04486,-0.01358,0.02716,-0.03357,-0.05402,-0.03693,-0.01114,0.00336,-0.26642
4.639,0.04578,-0.03082,-0.00549,-0.01663,0.06882,-0.03998,-0.01999,-0.05783,-0.00076,0.03052,-0.01312,-0.07126,-0.02563,-0.01389,0.00626,-0.25146
4.6395,0.0502,-0.03479,-0.02365,-0.02258,0.02716,-0.04227,-0.01862,-0.05035,0.00732,0.02777,-0.00092,-0.10254,-0.01068,-0.01541,0.0058,-0.15366
4.64,0.0528,-0.03799,-0.056,-0.02594,-0.0354,-0.04318,-0.01862,-0.01495,0.009,0.02213,0.00153,-0.11292,-0.00488,-0.01694,0.00671,0.0174
4.6405,0.0528,-0.04059,-0.08102,-0.02975,-0.10941,-0.04562,-0.0206,0.0441,0.00641,0.0116,0.00092,-0.08255,-0.01404,-0.01785,0.01068,0.14816
4.641,0.05173,-0.04196,-0.08347,-0.03479,-0.17227,-0.04913,-0.02319,0.10178,-0.00031,-0.00153,-0.00092,-0.03082,-0.02441,-0.01785,0.01328,0.14175
4.6415,0.0528,-0.04303,-0.06729,-0.03845,-0.19241,-0.05295,-0.02411,0.12161,-0.00946,-0.01266,-0.00397,-0.00229,-0.02914,-0.01602,0.01099,0.047
4.642,0.05692,-0.04471,-0.04547,-0.03571,-0.15839,-0.05493,-0.02304,0.09201,-0.01892,-0.01923,-0.0087,-0.02625,-0.02945,-0.01358,0.0061,-0.01801
4.6425,0.0618,-0.04623,-0.03036,-0.02808,-0.08957,-0.05493,-0.02167,0.03952,-0.02686,-0.02228,-0.00946,-0.08209,-0.02975,-0.01282,0.00458,-0.01358
4.643,0.065,-0.04837,-0.02579,-0.01968,-0.02151,-0.0528,-0.02304,-0.00443,-0.03021,-0.02304,-0.00107,-0.11139,-0.02853,-0.01389,0.00717,0.009
4.6435,0.06638,-0.05325,-0.02701,-0.01434,0.01755,-0.04913,-0.02472,-0.02823,-0.02777,-0.02228,0.01312,-0.07919,-0.02106,-0.01556,0.0087,0.00763
4.644,0.06546,-0.06073,-0.02808,-0.01343,0.02838,-0.0473,-0.02289,-0.03998,-0.02228,-0.02258,0.02396,-0.01266,-0.00488,-0.01831,0.00763,-0.00778
4.6445,0.06363,-0.06683,-0.0238,-0.01511,0.0238,-0.04776,-0.01984,-0.04547,-0.01617,-0.0238,0.0264,0.03418,0.01236,-0.01968,0.0061,-0.0174
4.645,0.06119,-0.06638,-0.01099,-0.01663,0.00748,-0.04959,-0.01755,-0.04486,-0.01144,-0.02808,0.02258,0.04944,0.01083,-0.01984,0.00763,-0.02045
4.6455,0.0592,-0.06088,0.00656,-0.01602,-0.02289,-0.05219,-0.01785,-0.04105,-0.01083,-0.03204,0.02045,0.06119,-0.02716,-0.02121,0.01099,-0.0206
4.646,0.05707,-0.05463,0.01495,-0.01312,-0.06134,-0.05264,-0.01755,-0.03784,-0.0116,-0.03433,0.01938,0.07874,-0.08118,-0.02228,0.01297,-0.01846
4.6465,0.05234,-0.05188,0.00137,-0.00946,-0.07736,-0.05188,-0.01678,-0.03723,-0.01144,-0.03723,0.01602,0.07065,-0.10254,-0.02365,0.01343,-0.0177
4.647,0.04776,-0.05249,-0.02441,-0.00778,-0.05737,-0.05051,-0.01602,-0.03632,-0.00809,-0.0415,0.00854,0.02045,-0.0737,-0.02472,0.01312,-0.02396
4.6475,0.04257,-0.05447,-0.0499,-0.00702,-0.02853,-0.05081,-0.01648,-0.03174,-0.0061,-0.0499,-0.00153,-0.03021,-0.03082,-0.02594,0.0145,-0.04028
4.648,0.03738,-0.05463,-0.06439,-0.00717,-0.0296,-0.05325,-0.01633,-0.02243,-0.00854,-0.05997,-0.01663,-0.02777,-0.01511,-0.02502,0.01617,-0.05768
4.6485,0.03326,-0.05295,-0.06302,-0.00824,-0.05569,-0.05707,-0.01389,-0.01129,-0.01663,-0.06744,-0.03723,0.02213,-0.02487,-0.02029,0.01511,-0.06027
4.649,0.0325,-0.05203,-0.04822,-0.009,-0.0708,-0.05814,-0.01144,-0.00275,-0.0238,-0.07248,-0.06073,0.05783,-0.03479,-0.01205,0.01053,-0.03738
4.6495,0.03555,-0.05081,-0.02777,-0.01022,-0.06729,-0.05585,-0.01083,0.00015,-0.02502,-0.07462,-0.07813,0.04257,-0.03342,-0.00549,0.00336,-0.00183
4.65,0.03906,-0.04852,-0.0174,-0.00992,-0.0705,-0.05203,-0.01297,0.0,-0.01877,-0.0708,-0.07645,0.01343,-0.02838,-0.00412,-0.00336,0.02182
4.6505,0.03845,-0.04227,-0.01678,-0.00839,-0.09033,-0.0499,-0.01495,0.00031,-0.01297,-0.06622,-0.05798,0.01648,-0.01968,-0.00732,-0.0029,0.02487
4.651,0.03571,-0.0322,-0.02319,-0.00626,-0.10498,-0.05234,-0.0145,0.00122,-0.01358,-0.065,-0.03586,0.03983,-0.00305,-0.01114,0.00305,0.01892
4.6515,0.03433,-0.02029,-0.02823,-0.00549,-0.09079,-0.05219,-0.01328,0.00031,-0.01892,-0.06454,-0.02441,0.04456,0.01434,-0.01343,0.00992,0.01465
4.652,0.03357,-0.00931,-0.03082,-0.00748,-0.05905,-0.05081,-0.01282,-0.00259,-0.02396,-0.05753,-0.02396,0.02396,0.00946,-0.01511,0.01144,0.01038
4.6525,0.0293,-0.00183,-0.03082,-0.01007,-0.0351,-0.04868,-0.01373,-0.00397,-0.02533,-0.04044,-0.02502,0.01007,-0.02686,-0.01724,0.009,-0.00595
4.653,0.0209,0.00198,-0.03204,-0.01022,-0.03143,-0.04898,-0.01511,-0.00214,-0.02335,-0.01968,-0.02106,0.02029,-0.06973,-0.01953,0.00824,-0.03342
4.6535,0.01328,0.0029,-0.0351,-0.00854,-0.03662,-0.05035,-0.01541,0.0,-0.02045,-0.00031,-0.01511,0.0415,-0.08911,-0.02075,0.00916,-0.06088
4.654,0.01007,0.00336,-0.03967,-0.00717,-0.03616,-0.05035,-0.01572,0.00031,-0.01801,0.01877,-0.01175,0.0531,-0.08636,-0.0206,0.00824,-0.08331
4.6545,0.00946,0.00397,-0.04593,-0.00793,-0.02777,-0.04883,-0.01587,-0.00122,-0.01663,0.04181,-0.01022,0.04532,-0.08011,-0.02045,0.00336,-0.10818
4.655,0.01083,0.00366,-0.05081,-0.00809,-0.01389,-0.04745,-0.01587,0.00137,-0.0148,0.06485,-0.00885,0.01846,-0.07217,-0.02182,-0.00229,-0.13885
4.6555,0.0119,0.00183,-0.05096,-0.00565,-0.00031,-0.04669,-0.0148,0.0087,-0.01099,0.08438,0.00031,-0.01419,-0.05157,-0.02396,-0.00458,-0.15259
4.656,0.01312,-0.00504,-0.04028,-0.00305,0.00397,-0.04547,-0.01343,0.02258,-0.00839,0.09094,0.0235,-0.03815,-0.02274,-0.02502,0.00076,-0.11551
4.6565,0.01343,-0.01694,-0.02029,-0.00275,-0.00031,-0.04425,-0.01465,0.04929,-0.009,0.07767,0.04791,-0.04547,-0.00381,-0.02441,0.00778,-0.03952
4.657,0.0119,-0.02975,-0.00168,-0.00412,-0.0087,-0.04471,-0.01617,0.08026,-0.01038,0.05356,0.05051,-0.04196,-0.00656,-0.02335,0.01099,0.01678
4.6575,0.01053,-0.0383,0.00259,-0.00412,-0.01205,-0.04715,-0.01602,0.08896,-0.01022,0.02197,0.02319,-0.03189,-0.02106,-0.0238,0.01114,0.0119
4.658,0.01083,-0.04242,-0.00824,-0.00366,-0.00671,-0.04898,-0.01465,0.05997,-0.00702,0.00031,-0.01556,-0.01709,-0.0296,-0.02411,0.00961,-0.02884
4.6585,0.01205,-0.04547,-0.02518,-0.00549,0.0032,-0.04898,-0.0148,0.00748,-0.00366,-0.00809,-0.04105,0.00061,-0.03052,-0.02365,0.00916,-0.04822
4.659,0.01297,-0.04761,-0.03922,-0.00931,0.00931,-0.04944,-0.01526,-0.03983,-0.00214,-0.01343,-0.04578,0.01785,-0.03326,-0.02228,0.00931,-0.03296
4.6595,0.01511,-0.04913,-0.04807,-0.01266,0.0,-0.0502,-0.01312,-0.07126,-0.00198,-0.01785,-0.04166,0.04257,-0.0386,-0.02014,0.00793,-0.01389
4.66,0.01663,-0.0499,-0.05325,-0.01251,-0.01984,-0.04898,-0.00931,-0.08896,-0.00488,-0.02472,-0.04074,0.0856,-0.03647,-0.0174,0.00534,-0.01572
4.6605,0.01465,-0.05005,-0.06012,-0.01083,-0.02899,-0.04486,-0.0087,-0.09323,-0.01083,-0.03433,-0.04562,0.13763,-0.02487,-0.01633,0.00137,-0.03464
4.661,0.01022,-0.0499,-0.06653,-0.009,-0.02487,-0.03998,-0.01114,-0.08331,-0.01724,-0.04486,-0.05051,0.1622,-0.01205,-0.0177,-0.00351,-0.0502
4.6615,0.00732,-0.05005,-0.07019,-0.00702,-0.02274,-0.03677,-0.01358,-0.06622,-0.0206,-0.05264,-0.04837,0.1268,-0.00885,-0.02045,-0.00488,-0.05402
4.662,0.00854,-0.0499,-0.06882,-0.00519,-0.03036,-0.03738,-0.0148,-0.05341,-0.0238,-0.05463,-0.03845,0.04623,-0.01495,-0.02319,-0.00229,-0.05142
4.6625,0.00961,-0.04929,-0.06195,-0.00275,-0.04211,-0.04181,-0.01389,-0.04822,-0.02975,-0.05203,-0.02457,-0.02441,-0.02243,-0.02502,0.00198,-0.04669
4.663,0.00793,-0.04822,-0.05051,-0.00259,-0.05539,-0.04929,-0.01389,-0.04745,-0.03799,-0.047,-0.01221,-0.0499,-0.02609,-0.02594,0.00641,-0.04135
4.6635,0.00397,-0.04425,-0.03586,-0.00443,-0.0676,-0.05386,-0.01373,-0.0473,-0.0444,-0.04059,-0.00458,-0.0415,-0.02777,-0.0264,0.01083,-0.03876
4.664,0.00214,-0.03937,-0.02502,-0.00687,-0.06805,-0.05402,-0.01297,-0.03998,-0.04303,-0.0296,-0.00168,-0.02762,-0.03143,-0.02594,0.01587,-0.04395
4.6645,0.00458,-0.03555,-0.02319,-0.00641,-0.05646,-0.05203,-0.01144,-0.01923,-0.03571,-0.02014,-0.00153,-0.01556,-0.04013,-0.02502,0.0174,-0.05508
4.665,0.00763,-0.03357,-0.02792,-0.00473,-0.04791,-0.05249,-0.0119,0.00992,-0.02747,-0.01419,-0.00534,0.00198,-0.05676,-0.02594,0.01328,-0.06485
4.6655,0.00702,-0.03342,-0.03326,-0.00534,-0.05478,-0.05356,-0.01465,0.03052,-0.02441,-0.01282,-0.0119,0.0267,-0.07797,-0.02716,0.00717,-0.06531
4.666,0.0029,-0.0354,-0.0354,-0.00931,-0.06424,-0.0531,-0.01419,0.03479,-0.02563,-0.0116,-0.01785,0.04791,-0.08789,-0.02609,0.00046,-0.05722
4.6665,-0.00488,-0.0412,-0.03372,-0.01358,-0.06119,-0.05005,-0.01221,0.0264,-0.02716,-0.00916,-0.01648,0.04715,-0.07721,-0.02319,-0.00702,-0.04486
4.667,-0.01282,-0.04883,-0.03021,-0.01556,-0.04501,-0.04517,-0.00961,0.01755,-0.02579,-0.00641,-0.00687,0.01358,-0.05478,-0.02197,-0.01251,-0.03372
4.6675,-0.02045,-0.05661,-0.02838,-0.01389,-0.02548,-0.04181,-0.00885,0.01114,-0.01968,-0.00473,0.0029,-0.03601,-0.03799,-0.02197,-0.01602,-0.02945
4.668,-0.02563,-0.0621,-0.02762,-0.01022,-0.00061,-0.04166,-0.01007,0.00824,-0.01221,-0.00229,0.00458,-0.0705,-0.03326,-0.02045,-0.01373,-0.03403
4.6685,-0.02853,-0.06271,-0.02655,-0.00534,0.03647,-0.04272,-0.01251,0.00946,-0.00641,-0.00137,-0.00336,-0.07172,-0.03586,-0.0177,-0.00809,-0.04272
4.669,-0.03006,-0.05981,-0.02533,-0.00214,0.07721,-0.04135,-0.01465,0.01663,-0.00366,-0.00626,-0.01114,-0.04868,-0.03616,-0.01678,-0.00412,-0.04639
4.6695,-0.03372,-0.056,-0.02426,-0.00244,0.09171,-0.04028,-0.01495,0.02823,-0.00275,-0.0206,-0.01373,-0.02258,-0.03021,-0.01892,-0.00031,-0.04593
4.67,-0.04074,-0.05127,-0.02487,-0.00534,0.06561,-0.04166,-0.01572,0.04181,-0.00336,-0.03601,-0.01541,-0.0032,-0.01999,-0.02136,0.00473,-0.04272
4.6705,-0.04883,-0.04776,-0.02457,-0.00946,0.01419,-0.04593,-0.01617,0.04654,-0.00656,-0.04425,-0.02182,0.00732,-0.01221,-0.02121,0.01358,-0.03586
4.671,-0.05188,-0.04807,-0.02365,-0.01236,-0.0325,-0.05035,-0.01495,0.03571,-0.01007,-0.04059,-0.03281,0.009,-0.01114,-0.01801,0.02731,-0.02579
4.6715,-0.05188,-0.05295,-0.02365,-0.01312,-0.07889,-0.05341,-0.01343,0.01724,-0.00946,-0.03067,-0.04013,0.0058,-0.01556,-0.01404,0.04318,-0.01923
4.672,-0.05188,-0.05692,-0.02945,-0.0145,-0.13184,-0.05447,-0.01251,0.00656,-0.00275,-0.02502,-0.03784,0.00397,-0.01923,-0.0119,0.05234,-0.01816
4.6725,-0.05112,-0.05554,-0.03922,-0.01633,-0.1532,-0.05264,-0.01221,0.00488,0.00687,-0.02563,-0.0235,0.00214,-0.01999,-0.01236,0.04745,-0.02014
4.673,-0.04822,-0.05173,-0.05005,-0.01678,-0.10849,-0.047,-0.01236,-0.00336,0.01434,-0.02777,-0.00702,-0.00397,-0.0235,-0.01282,0.0296,-0.02304
4.6735,-0.04181,-0.0502,-0.056,-0.01541,-0.03372,-0.04257,-0.0119,-0.02472,0.01617,-0.02731,0.0029,-0.01678,-0.0325,-0.01312,0.01434,-0.02686
4.674,-0.03601,-0.05051,-0.05371,-0.01358,0.00076,-0.04105,-0.01099,-0.04623,0.01511,-0.02472,0.00565,-0.03098,-0.0441,-0.01404,0.01099,-0.03952
4.6745,-0.03433,-0.04669,-0.04715,-0.01114,-0.01694,-0.04135,-0.01205,-0.05219,0.01312,-0.02182,0.00748,-0.03922,-0.04807,-0.0145,0.01495,-0.06348
4.675,-0.03326,-0.03876,-0.04089,-0.01068,-0.04471,-0.04074,-0.01343,-0.04395,0.01068,-0.01816,0.0087,-0.04028,-0.0441,-0.01389,0.01846,-0.08301
4.6755,-0.02838,-0.03067,-0.03754,-0.01282,-0.05066,-0.04181,-0.01419,-0.03433,0.00793,-0.01465,0.00671,-0.03754,-0.04059,-0.01343,0.01648,-0.07294
4.676,-0.02075,-0.02686,-0.03754,-0.01541,-0.0502,-0.0441,-0.01358,-0.02792,0.00534,-0.01038,-0.00015,-0.03448,-0.04227,-0.01511,0.01129,-0.03113
4.6765,-0.01801,-0.02853,-0.03601,-0.01633,-0.05417,-0.04669,-0.01389,-0.02151,-0.00031,-0.00824,-0.00656,-0.03433,-0.04211,-0.01831,0.00931,0.01648
4.677,-0.02258,-0.03067,-0.03342,-0.0145,-0.0528,-0.04929,-0.01511,-0.01022,-0.01083,-0.01099,-0.00641,-0.03723,-0.03571,-0.02151,0.00961,0.04532
4.6775,-0.03098,-0.03174,-0.03067,-0.01099,-0.03983,-0.04883,-0.0174,0.0029,-0.02365,-0.01663,0.00153,-0.0415,-0.02502,-0.0238,0.00977,0.03891
4.678,-0.03906,-0.03235,-0.02838,-0.00839,-0.0238,-0.0473,-0.01938,0.00916,-0.03189,-0.01907,0.01083,-0.0412,-0.01755,-0.02396,0.00641,-0.01007
4.6785,-0.04456,-0.03418,-0.02808,-0.00687,-0.01587,-0.04593,-0.01984,0.0,-0.03693,-0.01831,0.01358,-0.03464,-0.01862,-0.02167,0.00259,-0.08347
4.679,-0.05005,-0.03952,-0.02884,-0.0061,-0.01541,-0.04654,-0.0177,-0.01862,-0.04242,-0.01816,0.00671,-0.02747,-0.02335,-0.01923,-0.00107,-0.13718
4.6795,-0.05966,-0.04608,-0.02853,-0.00336,-0.01526,-0.04639,-0.01404,-0.03647,-0.05066,-0.02029,-0.00793,-0.02838,-0.02243,-0.01816,-0.00122,-0.15305
4.68,-0.07278,-0.05112,-0.02869,-0.00214,-0.01221,-0.04395,-0.01251,-0.04379,-0.0563,-0.01831,-0.02167,-0.03555,-0.01633,-0.01724,0.00153,-0.15396
4.6805,-0.08316,-0.0531,-0.03052,-0.00458,-0.00854,-0.04181,-0.01389,-0.03525,-0.05219,-0.01328,-0.02777,-0.03754,-0.01328,-0.01541,0.00656,-0.16769
4.681,-0.08713,-0.0528,-0.03326,-0.0087,-0.00702,-0.04257,-0.01587,-0.00793,-0.03754,-0.00809,-0.02487,-0.02945,-0.01801,-0.01312,0.01144,-0.18967
4.6815,-0.09003,-0.04929,-0.03311,-0.00961,-0.00885,-0.04547,-0.01541,0.02716,-0.01816,-0.00488,-0.01495,-0.01404,-0.02701,-0.01175,0.01175,-0.19852
4.682,-0.09766,-0.04517,-0.03143,-0.00854,-0.01083,-0.04959,-0.01373,0.04608,-0.00366,-0.00458,-0.00031,0.0,-0.03479,-0.01144,0.009,-0.17654
4.6825,-0.10468,-0.04166,-0.02975,-0.00916,-0.01251,-0.05173,-0.01404,0.03464,0.0,-0.0061,0.01373,0.01053,-0.0383,-0.01266,0.00854,-0.12466
4.683,-0.1004,-0.03769,-0.02777,-0.01328,-0.01495,-0.05219,-0.01617,0.00366,-0.00351,-0.01053,0.01984,0.01663,-0.03998,-0.01602,0.01068,-0.07843
4.6835,-0.08438,-0.03372,-0.0264,-0.02014,-0.02106,-0.05112,-0.01801,-0.01892,-0.00839,-0.01938,0.01663,0.01755,-0.03525,-0.02228,0.01221,-0.09674
4.684,-0.07172,-0.03006,-0.02716,-0.02548,-0.03189,-0.0499,-0.01862,-0.0206,-0.01434,-0.02899,0.01099,0.01495,-0.01511,-0.02808,0.00671,-0.17868
4.6845,-0.0705,-0.02914,-0.0296,-0.02625,-0.04242,-0.05051,-0.01877,-0.00565,-0.02121,-0.03754,0.0087,0.01251,0.01297,-0.03052,0.00061,-0.21713
4.685,-0.0766,-0.03067,-0.03143,-0.02213,-0.04959,-0.05188,-0.01846,0.01221,-0.02731,-0.04486,0.01099,0.01175,0.02228,-0.02991,0.00092,-0.08698
4.6855,-0.08026,-0.0325,-0.03159,-0.01083,-0.05753,-0.05234,-0.01846,0.0238,-0.03174,-0.0531,0.01099,0.01129,-0.00366,-0.02762,0.0119,0.19287
4.686,-0.07767,-0.03372,-0.0322,0.00412,-0.05905,-0.0502,-0.0177,0.02487,-0.03616,-0.06332,0.00504,0.00885,-0.0499,-0.02441,0.02396,0.43015
4.6865,-0.06989,-0.03265,-0.03479,0.01587,-0.04562,-0.04745,-0.01724,0.01556,-0.04333,-0.06912,-0.00626,0.00183,-0.08224,-0.02075,0.02762,0.44678
4.687,-0.0621,-0.02914,-0.03693,0.01801,-0.02289,-0.04745,-0.01526,-0.00046,-0.04929,-0.07004,-0.02457,-0.00687,-0.08743,-0.01862,0.0235,0.26169
4.6875,-0.05844,-0.02792,-0.03738,0.01266,-0.00977,-0.04807,-0.01328,-0.01617,-0.04837,-0.06393,-0.04562,-0.01266,-0.0737,-0.01801,0.02075,0.0499
4.688,-0.05951,-0.03098,-0.03448,0.00656,-0.01572,-0.047,-0.0116,-0.02548,-0.04318,-0.05386,-0.0705,-0.01144,-0.05478,-0.01862,0.02319,-0.05096
4.6885,-0.06378,-0.03555,-0.03159,0.00076,-0.02838,-0.04395,-0.01129,-0.02609,-0.03891,-0.03937,-0.09521,-0.00336,-0.03464,-0.01999,0.01968,-0.04211
4.689,-0.06897,-0.03693,-0.03067,-0.00732,-0.03464,-0.04135,-0.01022,-0.01617,-0.03784,-0.02014,-0.10468,0.0058,-0.01129,-0.02136,0.00061,0.00443
4.6895,-0.07141,-0.03342,-0.03113,-0.01724,-0.03433,-0.04074,-0.009,0.00641,-0.03586,0.0032,-0.08774,0.01099,0.00916,-0.02228,-0.0238,0.03372
4.69,-0.07065,-0.02625,-0.03204,-0.02472,-0.03113,-0.04227,-0.00839,0.03372,-0.02625,0.02533,-0.05203,0.01373,0.01694,-0.02197,-0.03372,0.02289
4.6905,-0.06882,-0.02167,-0.03189,-0.03082,-0.0267,-0.04425,-0.00885,0.04639,-0.01053,0.0415,-0.01938,0.01785,0.0061,-0.0206,-0.01999,-0.02106
4.691,-0.06592,-0.02304,-0.02838,-0.0354,-0.02182,-0.04623,-0.01007,0.0267,0.00275,0.05112,-0.00229,0.02747,-0.01556,-0.01755,0.0029,-0.04578
4.6915,-0.06332,-0.02716,-0.02396,-0.03708,-0.02151,-0.04974,-0.00824,-0.01709,0.00946,0.05402,0.00107,0.04257,-0.04059,-0.01312,0.01617,-0.01495
4.692,-0.06424,-0.03098,-0.02182,-0.0354,-0.02701,-0.05249,-0.00641,-0.05737,0.01007,0.04868,0.00168,0.05692,-0.06241,-0.01007,0.0148,0.02335
4.6925,-0.06836,-0.03418,-0.02289,-0.03235,-0.03738,-0.05585,-0.00641,-0.07523,0.0087,0.0296,0.00702,0.06134,-0.07294,-0.01068,0.00717,-0.00183
4.693,-0.07034,-0.03784,-0.02411,-0.0296,-0.04807,-0.05737,-0.00854,-0.06851,0.0061,-0.00031,0.01907,0.05402,-0.05936,-0.01251,0.00122,-0.08026
4.6935,-0.06653,-0.04364,-0.02472,-0.02838,-0.05783,-0.05661,-0.00977,-0.04303,0.00366,-0.03052,0.03052,0.03922,-0.01923,-0.01343,0.00046,-0.13611
4.694,-0.06073,-0.05051,-0.0264,-0.02731,-0.0647,-0.05783,-0.00946,-0.01175,0.00168,-0.04913,0.0325,0.02151,0.02396,-0.01236,0.00153,-0.13321
4.6945,-0.05692,-0.05447,-0.03128,-0.02594,-0.06943,-0.05722,-0.00916,-0.00305,-0.00015,-0.05936,0.02243,0.00351,0.03693,-0.01251,0.00534,-0.10315
4.695,-0.05692,-0.056,-0.03693,-0.02487,-0.06638,-0.05539,-0.01068,-0.03632,-0.00549,-0.06531,0.01114,-0.01389,0.00732,-0.01678,0.00687,-0.08286
4.6955,-0.05829,-0.056,-0.0415,-0.02243,-0.0563,-0.05142,-0.01099,-0.08286,-0.01419,-0.0647,0.00519,-0.03479,-0.0528,-0.02319,0.00366,-0.07538
4.696,-0.05936,-0.05707,-0.04272,-0.01938,-0.04181,-0.04578,-0.00977,-0.09293,-0.02243,-0.05829,0.00168,-0.05997,-0.1181,-0.02792,-0.00427,-0.06912
4.6965,-0.05798,-0.06058,-0.0444,-0.0177,-0.02625,-0.04288,-0.00885,-0.04669,-0.0235,-0.047,-0.00885,-0.07797,-0.15518,-0.02869,-0.01099,-0.06454
4.697,-0.0563,-0.06836,-0.04852,-0.01633,-0.01205,-0.04074,-0.00885,0.03387,-0.02014,-0.03555,-0.02289,-0.07675,-0.13855,-0.02472,-0.01266,-0.06592
4.6975,-0.05371,-0.07782,-0.05219,-0.01556,0.00153,-0.04074,-0.01038,0.11246,-0.01938,-0.02411,-0.02426,-0.04944,-0.08072,-0.02075,-0.00748,-0.06989
4.698,-0.04883,-0.08087,-0.05219,-0.01541,0.01114,-0.04044,-0.01266,0.16037,-0.0238,-0.00885,0.00061,-0.00641,-0.02167,-0.01892,-0.00015,-0.07004
4.6985,-0.04196,-0.07507,-0.04761,-0.0148,0.01831,-0.03998,-0.01633,0.16052,-0.02747,0.00717,0.04257,0.03052,0.01053,-0.01846,0.00412,-0.06836
4.699,-0.03632,-0.06348,-0.0415,-0.01266,0.02197,-0.03723,-0.02106,0.11017,-0.02579,0.01984,0.06805,0.04349,0.02136,-0.01831,0.0058,-0.06668
4.6995,-0.03464,-0.05508,-0.03647,-0.01068,0.02136,-0.03525,-0.02548,0.01923,-0.02106,0.02167,0.05142,0.04013,0.0206,-0.01709,0.00809,-0.06546
4.7,-0.03632,-0.04913,-0.03387,-0.00931,0.01251,-0.03555,-0.02777,-0.07477,-0.01755,0.01648,0.00046,0.04929,0.00778,-0.01678,0.01083,-0.06149
4.7005,-0.03784,-0.04272,-0.0351,-0.00702,-0.00443,-0.0386,-0.02487,-0.13367,-0.01526,0.00641,-0.0563,0.0824,-0.01862,-0.01877,0.0119,-0.056
4.701,-0.03693,-0.03708,-0.03616,-0.00473,-0.03036,-0.0412,-0.02014,-0.13901,-0.0116,-0.00671,-0.10712,0.11108,-0.05203,-0.01923,0.01175,-0.05203
4.7015,-0.03448,-0.03326,-0.03784,-0.0029,-0.06622,-0.04211,-0.01678,-0.09995,-0.0061,-0.02579,-0.14893,0.10025,-0.07706,-0.0174,0.01266,-0.05035
4.702,-0.03342,-0.0322,-0.03922,-0.00351,-0.10101,-0.04471,-0.01465,-0.03815,0.00015,-0.04837,-0.17044,0.05859,-0.08469,-0.01343,0.01297,-0.05188
4.7025,-0.03448,-0.03281,-0.03754,-0.00473,-0.11383,-0.04715,-0.01297,0.03052,0.0061,-0.06516,-0.16052,0.02182,-0.07599,-0.00992,0.00946,-0.05417
4.703,-0.03601,-0.03235,-0.03448,-0.00488,-0.09445,-0.04913,-0.01175,0.08575,0.01129,-0.0705,-0.121,0.00534,-0.0589,-0.01038,0.00259,-0.05569
4.7035,-0.03647,-0.03052,-0.02991,-0.00336,-0.06104,-0.04822,-0.01251,0.10956,0.01236,-0.06714,-0.07813,-0.00656,-0.04166,-0.01419,-0.00259,-0.05386
4.704,-0.0354,-0.02884,-0.02655,-0.00259,-0.03937,-0.04715,-0.01358,0.09354,0.00702,-0.05722,-0.04913,-0.01892,-0.02396,-0.01862,-0.0032,-0.05295
4.7045,-0.03281,-0.02762,-0.02426,-0.00305,-0.03448,-0.04807,-0.01282,0.04913,-0.00015,-0.04257,-0.03372,-0.01389,-0.0058,-0.02151,0.00214,-0.05966
4.705,-0.03021,-0.03082,-0.02502,-0.00397,-0.03082,-0.0499,-0.01083,0.00488,-0.0029,-0.01953,-0.02472,0.00931,0.00366,-0.02258,0.00946,-0.08194
4.7055,-0.0267,-0.04242,-0.02655,-0.00458,-0.01389,-0.04974,-0.00854,-0.01892,-0.00336,0.00763,-0.01572,0.01938,-0.01068,-0.02487,0.0206,-0.10941
4.706,-0.02533,-0.06302,-0.03021,-0.0058,0.0177,-0.04807,-0.00946,-0.01755,-0.00381,0.03235,-0.0061,-0.00534,-0.05157,-0.02777,0.02808,-0.1152
4.7065,-0.02533,-0.08301,-0.03342,-0.00793,0.04959,-0.04715,-0.01312,-0.00336,-0.00336,0.04532,-0.00076,-0.04181,-0.08957,-0.02899,0.03204,-0.08942
4.707,-0.02487,-0.09216,-0.03464,-0.00946,0.05875,-0.04883,-0.01556,0.01389,0.00076,0.0441,-0.00519,-0.05783,-0.09216,-0.02502,0.03098,-0.05219
4.7075,-0.02045,-0.09064,-0.03403,-0.00717,0.03372,-0.04929,-0.01511,0.0293,0.01099,0.03311,-0.01617,-0.05096,-0.06271,-0.01862,0.02899,-0.03677
4.708,-0.01328,-0.08713,-0.03357,-0.00427,-0.00824,-0.04715,-0.01465,0.03632,0.02121,0.0206,-0.01846,-0.03845,-0.03067,-0.01495,0.02487,-0.04425
4.7085,-0.00641,-0.08606,-0.03448,-0.00198,-0.03403,-0.04456,-0.01617,0.02838,0.02533,0.00687,-0.00198,-0.02502,-0.01266,-0.01434,0.0145,-0.05096
4.709,-0.0029,-0.08377,-0.03662,-0.00168,-0.02869,-0.04379,-0.01831,0.00916,0.02029,-0.00824,0.02655,-0.0119,0.0058,-0.01526,0.00137,-0.04501
4.7095,-0.00092,-0.07553,-0.03876,-0.00107,-0.01938,-0.04486,-0.01923,-0.00809,0.01221,-0.02228,0.04242,-0.00305,0.03677,-0.01511,-0.00473,-0.03494
4.71,-0.00092,-0.06409,-0.0412,-0.00153,-0.0322,-0.04669,-0.01785,-0.01526,0.0058,-0.03021,0.02441,-0.00305,0.05615,-0.01633,0.00061,-0.03311
4.7105,0.00015,-0.05447,-0.04105,-0.00381,-0.05707,-0.04944,-0.01511,-0.0119,0.00168,-0.03311,-0.01816,-0.01007,0.03448,-0.01892,0.00961,-0.03769
4.711,0.00107,-0.04456,-0.03464,-0.00504,-0.06378,-0.05112,-0.01343,-0.00397,-0.00015,-0.03204,-0.0531,-0.01678,-0.01999,-0.02136,0.01221,-0.04227
4.7115,0.00183,-0.03113,-0.01755,-0.00488,-0.0499,-0.0528,-0.01419,0.00214,-0.00153,-0.02838,-0.06104,-0.01938,-0.06561,-0.02213,0.00656,-0.04333
4.712,0.00153,-0.0145,0.00397,-0.00397,-0.03357,-0.05264,-0.01556,0.00549,-0.00534,-0.0235,-0.04883,-0.01953,-0.0798,-0.02045,-0.00412,-0.0502
4.7125,0.00031,0.0,0.0145,-0.00443,-0.02716,-0.05096,-0.01694,0.00381,-0.0145,-0.01984,-0.03052,-0.01862,-0.06927,-0.01785,-0.01465,-0.06241
4.713,0.00092,0.0116,-0.00137,-0.00595,-0.02899,-0.05081,-0.01511,-0.00122,-0.03067,-0.01862,-0.01511,-0.01572,-0.04654,-0.01495,-0.02075,-0.07858
4.7135,0.00336,0.02029,-0.03448,-0.00671,-0.03891,-0.05066,-0.01328,-0.00732,-0.04959,-0.0206,-0.00366,-0.01175,-0.02335,-0.01434,-0.01862,-0.09293
4.714,0.0058,0.02655,-0.06851,-0.00656,-0.05722,-0.05112,-0.01175,-0.01068,-0.06241,-0.02411,0.00412,-0.01343,-0.01083,-0.01404,-0.00809,-0.10147
4.7145,0.00916,0.02655,-0.08759,-0.00702,-0.08011,-0.05066,-0.01236,-0.01053,-0.06409,-0.02853,0.01144,-0.01968,-0.01373,-0.01373,0.00687,-0.09964
4.715,0.01114,0.02274,-0.08728,-0.00748,-0.10162,-0.0502,-0.01404,-0.01038,-0.0592,-0.03708,0.02243,-0.02182,-0.0264,-0.01343,0.02213,-0.08026
4.7155,0.01343,0.01755,-0.06989,-0.00732,-0.12497,-0.05127,-0.01434,-0.01129,-0.05661,-0.04425,0.03662,-0.02533,-0.03952,-0.01556,0.03342,-0.03616
4.716,0.01541,0.01389,-0.04715,-0.00626,-0.14587,-0.05417,-0.01633,-0.01297,-0.05951,-0.04318,0.04822,-0.04166,-0.04883,-0.01877,0.04074,0.01343
4.7165,0.01633,0.0087,-0.03174,-0.00549,-0.14206,-0.05676,-0.01862,-0.01434,-0.06241,-0.03326,0.05386,-0.06638,-0.04471,-0.0206,0.04593,0.04318
4.717,0.01602,0.00076,-0.0264,-0.00519,-0.10147,-0.05753,-0.01907,-0.01419,-0.05875,-0.0177,0.05142,-0.07385,-0.01343,-0.02258,0.04669,0.04089
4.7175,0.01511,-0.0116,-0.02548,-0.00443,-0.04684,-0.05585,-0.01785,-0.01266,-0.04837,-0.00153,0.04349,-0.05066,0.03159,-0.02335,0.03174,0.0206
4.718,0.01495,-0.02487,-0.02274,-0.00183,-0.01328,-0.05295,-0.01648,-0.01099,-0.03418,0.0119,0.03189,-0.01022,0.04639,-0.02243,-0.00214,-0.00137
4.7185,0.01495,-0.03769,-0.01724,0.00107,-0.00656,-0.05173,-0.01526,-0.00977,-0.02457,0.01968,0.01724,0.03693,0.00015,-0.02167,-0.03036,-0.01999
4.719,0.01495,-0.04578,-0.0087,0.0029,-0.00046,-0.05051,-0.01465,-0.01068,-0.02258,0.01923,0.00336,0.09262,-0.07721,-0.02167,-0.03067,-0.03326
4.7195,0.01297,-0.04913,-0.00046,0.00198,0.01648,-0.04852,-0.01251,-0.01343,-0.02777,0.01419,-0.00473,0.13992,-0.11703,-0.0238,-0.00626,-0.03265
4.72,0.01114,-0.04974,0.00381,0.00061,0.02609,-0.04578,-0.01007,-0.01373,-0.03372,0.00824,-0.00198,0.14511,-0.09674,-0.02472,0.01541,-0.02335
4.7205,0.01175,-0.05081,-0.00275,-0.00046,0.01282,-0.04593,-0.00641,-0.00793,-0.0354,0.00015,0.00961,0.08972,-0.05432,-0.02411,0.02136,-0.01343
4.721,0.01434,-0.05447,-0.02121,-0.00137,-0.01907,-0.04791,-0.00092,0.0058,-0.0296,-0.00961,0.02029,0.00122,-0.03159,-0.02258,0.01709,-0.01526
4.7215,0.01495,-0.06149,-0.04074,-0.00183,-0.05005,-0.04807,0.00717,0.02045,-0.01968,-0.01953,0.02258,-0.0737,-0.03143,-0.01968,0.0145,-0.0296
4.722,0.0119,-0.07156,-0.05264,-0.00412,-0.06653,-0.04669,0.01297,0.02731,-0.00916,-0.02701,0.01602,-0.09781,-0.0322,-0.01602,0.01373,-0.04333
4.7225,0.00778,-0.07813,-0.05646,-0.00961,-0.05951,-0.04486,0.01205,0.02243,-0.00229,-0.02853,0.00641,-0.06851,-0.0264,-0.01511,0.01251,-0.04761
4.723,0.00824,-0.07538,-0.05676,-0.01785,-0.02991,-0.04211,0.00565,0.00839,-0.00336,-0.02762,-0.00061,-0.00687,-0.02197,-0.01572,0.01007,-0.04333
4.7235,0.01236,-0.06683,-0.05249,-0.02533,0.00351,-0.04028,-0.00244,-0.00519,-0.00992,-0.02655,-0.00763,0.05783,-0.02609,-0.01801,0.00626,-0.03616
4.724,0.01755,-0.06042,-0.04105,-0.02853,0.01709,-0.03998,-0.00946,-0.01572,-0.01511,-0.02731,-0.01892,0.09598,-0.03555,-0.02106,0.00504,-0.03235
4.7245,0.02106,-0.05814,-0.02853,-0.02686,0.00809,-0.0412,-0.01495,-0.02304,-0.01328,-0.02838,-0.03464,0.08499,-0.04333,-0.02365,0.00626,-0.03174
4.725,0.02365,-0.05447,-0.02716,-0.02731,-0.00244,-0.04272,-0.02243,-0.03006,-0.0058,-0.02747,-0.05005,0.03387,-0.04623,-0.02243,0.00656,-0.03296
4.7255,0.0264,-0.04669,-0.04013,-0.03754,-0.00534,-0.04288,-0.03128,-0.03693,-0.00107,-0.02853,-0.05753,-0.01556,-0.0415,-0.01678,0.00595,-0.03418
4.726,0.02777,-0.03906,-0.05646,-0.05539,-0.01907,-0.04181,-0.03983,-0.04074,-0.00198,-0.0325,-0.05234,-0.02731,-0.02716,-0.0119,0.00488,-0.03601
4.7265,0.02731,-0.03342,-0.06439,-0.07019,-0.05035,-0.0444,-0.04211,-0.0386,-0.00809,-0.0383,-0.03876,-0.01373,-0.00946,-0.0119,0.00336,-0.04089
4.727,0.02747,-0.0296,-0.06195,-0.07339,-0.07141,-0.04837,-0.03693,-0.03372,-0.01678,-0.04135,-0.02701,-0.01968,0.00443,-0.01465,0.00351,-0.04898
4.7275,0.02914,-0.02838,-0.05569,-0.06363,-0.05737,-0.0502,-0.02731,-0.0293,-0.02457,-0.04181,-0.02548,-0.06607,0.00992,-0.01556,0.00305,-0.05478
4.728,0.03082,-0.02884,-0.05219,-0.05051,-0.03311,-0.0499,-0.0206,-0.02579,-0.02792,-0.0415,-0.02884,-0.12207,0.0032,-0.01373,0.00198,-0.05463
4.7285,0.03128,-0.02869,-0.05188,-0.03586,-0.04105,-0.05081,-0.02365,-0.01846,-0.02365,-0.04089,-0.02884,-0.14023,-0.01877,-0.01251,0.00153,-0.04654
4.729,0.03311,-0.02792,-0.05478,-0.02075,-0.08499,-0.05463,-0.03616,-0.01038,-0.01709,-0.0383,-0.02365,-0.09705,-0.04623,-0.0148,0.00153,-0.03433
4.7295,0.03906,-0.02869,-0.05539,-0.00641,-0.12268,-0.05722,-0.04944,-0.00717,-0.01358,-0.03174,-0.0206,-0.00778,-0.06149,-0.01633,0.00519,-0.02335
4.73,0.04578,-0.0322,-0.05188,0.00381,-0.11581,-0.05539,-0.04822,-0.01007,-0.01572,-0.02411,-0.02121,0.08499,-0.05264,-0.01602,0.00809,-0.0174
4.7305,0.04959,-0.03922,-0.04578,0.00992,-0.06882,-0.04959,-0.02853,-0.01572,-0.01984,-0.01862,-0.02289,0.14114,-0.02716,-0.01602,0.00809,-0.01633
4.731,0.05142,-0.04807,-0.04028,0.01556,-0.01831,-0.04593,-0.00946,-0.01984,-0.02136,-0.0148,-0.02365,0.1445,0.0,-0.01572,0.00702,-0.02121
4.7315,0.05341,-0.05524,-0.03525,0.02548,0.0148,-0.04501,-0.01144,-0.02243,-0.01923,-0.0116,-0.02518,0.10315,0.01968,-0.01633,0.00717,-0.03464
4.732,0.05447,-0.0592,-0.03143,0.04105,0.03693,-0.04425,-0.02716,-0.02472,-0.01801,-0.00656,-0.02731,0.04013,0.02594,-0.01816,0.00916,-0.05753
4.7325,0.05219,-0.05951,-0.0293,0.05051,0.05051,-0.04242,-0.03403,-0.02411,-0.0177,-0.00351,-0.02655,-0.0145,0.00809,-0.02075,0.01099,-0.08255
4.733,0.04608,-0.05844,-0.02899,0.04333,0.03769,-0.0415,-0.02304,-0.02045,-0.01816,-0.00534,-0.02365,-0.03998,-0.03891,-0.02319,0.0087,-0.09521
4.7335,0.04303,-0.05692,-0.03052,0.02289,-0.00763,-0.04318,-0.00214,-0.01251,-0.01755,-0.00565,-0.02213,-0.03662,-0.09338,-0.02411,0.0058,-0.09064
4.734,0.04318,-0.05524,-0.03174,0.00549,-0.06592,-0.04593,0.01404,-0.00351,-0.01587,-0.00595,-0.02335,-0.02151,-0.11627,-0.02625,0.00458,-0.0769
4.7345,0.04364,-0.05341,-0.0293,0.0,-0.10147,-0.04868,0.0177,0.00183,-0.01068,-0.00534,-0.02243,-0.01282,-0.08682,-0.02747,0.00336,-0.06454
4.735,0.04227,-0.05066,-0.02441,0.00046,-0.10178,-0.05173,0.00946,0.00214,-0.00259,-0.00839,-0.01648,-0.01968,-0.03876,-0.02609,0.00305,-0.05692
4.7355,0.03998,-0.04791,-0.01984,-0.00168,-0.08148,-0.05295,-0.00031,0.00381,0.00732,-0.01343,-0.0087,-0.0386,-0.02274,-0.02243,0.00244,-0.05386
4.736,0.03784,-0.04593,-0.0174,-0.0061,-0.056,-0.05264,-0.00595,0.01984,0.01648,-0.01633,-0.00412,-0.05585,-0.04654,-0.01892,0.0032,-0.05219
4.7365,0.03647,-0.04517,-0.01709,-0.00809,-0.0351,-0.05127,-0.00763,0.05768,0.0235,-0.01602,-0.00427,-0.0621,-0.06775,-0.01724,0.00458,-0.05295
4.737,0.03479,-0.04684,-0.01801,-0.00778,-0.01602,-0.0499,-0.00916,0.09949,0.02655,-0.01862,-0.00656,-0.05478,-0.05569,-0.01511,0.00473,-0.05295
4.7375,0.03311,-0.04761,-0.01999,-0.00793,-0.00031,-0.04929,-0.00992,0.10925,0.02686,-0.0267,-0.00931,-0.03891,-0.02731,-0.01266,0.00244,-0.05096
4.738,0.03174,-0.04471,-0.02335,-0.0087,0.00687,-0.04913,-0.009,0.0705,0.02426,-0.03555,-0.01129,-0.02396,-0.0116,-0.0116,0.00092,-0.047
4.7385,0.03189,-0.0386,-0.02609,-0.00931,0.00244,-0.04913,-0.00839,0.00656,0.01984,-0.03983,-0.01175,-0.01633,-0.01556,-0.01373,0.00153,-0.04059
4.739,0.03128,-0.03311,-0.02762,-0.00992,-0.01007,-0.0502,-0.009,-0.04898,0.01404,-0.03906,-0.00702,-0.01419,-0.0264,-0.01785,0.00412,-0.03616
4.7395,0.02853,-0.03082,-0.02594,-0.01083,-0.02045,-0.05066,-0.01038,-0.08163,0.00702,-0.03754,-0.00076,-0.01083,-0.03525,-0.0206,0.00626,-0.03571
4.74,0.02441,-0.03082,-0.02228,-0.01328,-0.02197,-0.0499,-0.00931,-0.0943,-0.00076,-0.03601,0.00259,-0.00412,-0.04089,-0.02136,0.00763,-0.03876
4.7405,0.02228,-0.03082,-0.01923,-0.01633,-0.01724,-0.04669,-0.00854,-0.09338,-0.01144,-0.03159,0.00275,0.00397,-0.04135,-0.0206,0.00946,-0.04303
4.741,0.02487,-0.02991,-0.01343,-0.01923,-0.00717,-0.0441,-0.00885,-0.08316,-0.02594,-0.02304,0.00549,0.00977,-0.03616,-0.01938,0.00961,-0.04501
4.7415,0.02686,-0.02914,-0.00122,-0.01602,0.009,-0.04242,-0.01144,-0.06912,-0.04303,-0.01373,0.01038,0.0116,-0.03159,-0.01816,0.01022,-0.04257
4.742,0.02625,-0.03036,0.00992,-0.00809,0.0296,-0.04166,-0.01175,-0.056,-0.05936,-0.00671,0.01297,0.01114,-0.02945,-0.01709,0.00977,-0.03845
4.7425,0.02411,-0.03387,0.00961,-0.00015,0.04883,-0.04257,-0.01083,-0.04013,-0.06958,-0.00198,0.00992,0.01114,-0.02747,-0.01495,0.00854,-0.03586
4.743,0.02441,-0.03738,-0.00336,0.00046,0.05493,-0.04425,-0.00946,-0.01755,-0.06943,-0.00122,0.00153,0.01236,-0.02335,-0.01266,0.00778,-0.03632
4.7435,0.02594,-0.03922,-0.02014,-0.00107,0.04395,-0.04776,-0.009,0.00671,-0.05585,-0.0061,-0.01053,0.01328,-0.01816,-0.01236,0.00732,-0.03708
4.744,0.02609,-0.04028,-0.03357,-0.00214,0.02274,-0.05005,-0.01099,0.02258,-0.03281,-0.01801,-0.02655,0.01404,-0.01572,-0.01556,0.00717,-0.03616
4.7445,0.02441,-0.04105,-0.04593,-0.00748,-0.00641,-0.04959,-0.01175,0.02243,-0.01282,-0.04074,-0.04562,0.01373,-0.01602,-0.01877,0.00656,-0.03494
4.745,0.02213,-0.04272,-0.05661,-0.02899,-0.04761,-0.04807,-0.01175,0.00519,-0.00534,-0.06805,-0.06699,0.00412,-0.0177,-0.01892,0.00473,-0.03342
4.7455,0.01938,-0.04456,-0.06393,-0.06821,-0.09491,-0.04791,-0.01068,-0.01953,-0.00732,-0.09109,-0.08469,-0.03128,-0.02243,-0.01617,0.00992,-0.03448
4.746,0.01556,-0.04608,-0.06836,-0.10345,-0.1181,-0.04761,-0.00946,-0.03952,-0.01007,-0.10437,-0.08453,-0.09796,-0.03143,-0.01678,0.02014,-0.03723
4.7465,0.0119,-0.04684,-0.07141,-0.1181,-0.09705,-0.04532,-0.01083,-0.04532,-0.00992,-0.10773,-0.06195,-0.16342,-0.04532,-0.02029,0.03113,-0.04028
4.747,0.01022,-0.04883,-0.07202,-0.11765,-0.04684,-0.04425,-0.01282,-0.03464,-0.00778,-0.10345,-0.03448,-0.17868,-0.05402,-0.02457,0.03586,-0.03983
4.7475,0.01129,-0.05188,-0.06912,-0.11841,-0.01221,-0.04684,-0.01389,-0.00778,-0.00595,-0.09232,-0.01938,-0.13367,-0.04395,-0.02518,0.03265,-0.03815
4.748,0.0145,-0.05432,-0.06287,-0.11154,-0.02228,-0.05173,-0.01465,0.03128,-0.00504,-0.07477,-0.01556,-0.06393,-0.01846,-0.0238,0.02533,-0.03616
4.7485,0.01694,-0.05432,-0.05325,-0.08011,-0.0705,-0.05539,-0.01648,0.065,-0.00778,-0.05356,-0.01114,0.00427,-0.00214,-0.0235,0.01816,-0.03525
4.749,0.01526,-0.05249,-0.04303,-0.02808,-0.11978,-0.0563,-0.01755,0.07309,-0.01251,-0.03128,-0.00153,0.07248,-0.0148,-0.0267,0.00977,-0.03494
4.7495,0.00916,-0.04944,-0.03479,0.01236,-0.13275,-0.05554,-0.01663,0.05356,-0.01801,-0.00427,0.00931,0.13901,-0.0415,-0.02945,-0.00259,-0.03601
4.75,0.00366,-0.04745,-0.03067,0.02213,-0.0972,-0.05219,-0.0148,0.02716,-0.02106,0.02625,0.01373,0.16495,-0.05249,-0.02991,-0.01892,-0.03647
4.7505,0.00046,-0.04517,-0.03113,0.02563,-0.03647,-0.0473,-0.01419,0.01221,-0.02258,0.05646,0.00717,0.121,-0.04105,-0.02975,-0.02991,-0.03586
4.751,-0.00092,-0.04166,-0.03494,0.06424,0.0032,-0.04211,-0.01404,0.01175,-0.02319,0.08438,-0.0061,0.04791,-0.03159,-0.02823,-0.02411,-0.03586
4.7515,-0.00107,-0.03784,-0.03601,0.13672,0.00275,-0.03815,-0.01358,0.01709,-0.02457,0.10834,-0.0206,0.03693,-0.04623,-0.02548,-0.00305,-0.03311
4.752,-0.00076,-0.03464,-0.03601,0.18082,-0.01968,-0.03815,-0.01251,0.02029,-0.02457,0.12482,-0.03067,0.10971,-0.07385,-0.02258,0.01495,-0.02884
4.7525,-0.00015,-0.03235,-0.03357,0.14359,-0.03342,-0.04105,-0.01297,0.0206,-0.02167,0.12939,-0.03677,0.17715,-0.08392,-0.01984,0.01968,-0.02655
4.753,-0.00092,-0.03265,-0.03143,0.04929,-0.02716,-0.04379,-0.01587,0.02289,-0.01556,0.11963,-0.03387,0.15976,-0.06485,-0.01846,0.01389,-0.02731
4.7535,0.0,-0.03448,-0.02899,-0.02197,-0.01251,-0.04547,-0.01877,0.0264,-0.00824,0.09705,-0.02533,0.08514,-0.03387,-0.02045,0.01007,-0.0296
4.754,0.0029,-0.03586,-0.02899,-0.02686,-0.0029,-0.04669,-0.01984,0.02762,-0.00137,0.06149,-0.01587,0.03143,-0.00946,-0.02151,0.00748,-0.03448
4.7545,0.00427,-0.03616,-0.02594,0.00809,-0.00641,-0.04822,-0.01953,0.02472,0.00198,0.01709,-0.01038,0.02228,0.00168,-0.01968,0.00183,-0.03922
4.755,-0.00015,-0.03601,-0.02029,0.03571,-0.02502,-0.05142,-0.01831,0.0177,0.00183,-0.02441,-0.00595,0.02609,-0.00214,-0.01434,-0.00351,-0.04272
4.7555,-0.00992,-0.03601,-0.01495,0.04425,-0.04517,-0.05417,-0.01785,0.01221,-0.00015,-0.05371,0.00198,0.01694,-0.02136,-0.00748,-0.0058,-0.04242
4.756,-0.01678,-0.03693,-0.01297,0.04333,-0.0499,-0.05356,-0.01602,0.00732,-0.00183,-0.0769,0.01251,-0.00122,-0.04501,-0.00092,-0.00092,-0.04105
4.7565,-0.01648,-0.0383,-0.01831,0.03983,-0.03357,-0.05081,-0.01434,0.00488,-0.00397,-0.10712,0.02304,-0.01816,-0.05554,0.00153,0.00565,-0.04639
4.757,-0.01114,-0.04227,-0.02762,0.02899,-0.01144,-0.04837,-0.01251,0.0061,-0.00702,-0.14847,0.03387,-0.02365,-0.04654,0.00046,0.00687,-0.06531
4.7575,-0.00824,-0.05035,-0.03616,0.00946,0.00015,-0.04623,-0.01266,0.00931,-0.01083,-0.19104,0.04318,-0.00488,-0.02777,-0.0058,0.00183,-0.09964
4.758,-0.01007,-0.0621,-0.03937,-0.01465,-0.00137,-0.04562,-0.01511,0.01358,-0.01373,-0.22263,0.04715,0.03204,-0.01099,-0.01602,-0.00275,-0.13641
4.7585,-0.01755,-0.07217,-0.03784,-0.0351,-0.00961,-0.04623,-0.01694,0.01358,-0.01816,-0.242,0.03571,0.05585,-0.00443,-0.02747,-0.00153,-0.15991
4.759,-0.02838,-0.07401,-0.03555,-0.0473,-0.02258,-0.04715,-0.01816,0.00961,-0.02487,-0.24826,0.01099,0.03448,-0.00763,-0.03448,0.00595,-0.15961
4.7595,-0.0386,-0.06592,-0.03479,-0.05127,-0.04181,-0.04837,-0.01724,0.00336,-0.03601,-0.23621,-0.01343,-0.01907,-0.02106,-0.03265,0.01236,-0.11703
4.76,-0.04837,-0.05478,-0.03387,-0.05096,-0.06073,-0.04898,-0.01572,-0.00519,-0.04929,-0.2002,-0.03357,-0.06042,-0.04684,-0.0264,0.01556,-0.01434
4.7605,-0.05402,-0.04562,-0.03311,-0.0528,-0.06683,-0.04929,-0.01404,-0.01617,-0.05829,-0.14236,-0.05402,-0.06943,-0.08011,-0.02304,0.01633,0.10864
4.761,-0.05051,-0.03754,-0.03113,-0.05508,-0.05722,-0.04868,-0.01297,-0.02487,-0.06058,-0.07324,-0.07935,-0.06012,-0.09872,-0.02701,0.01724,0.15259
4.7615,-0.03708,-0.03006,-0.02975,-0.05234,-0.04883,-0.04791,-0.01465,-0.0322,-0.05493,0.00275,-0.09613,-0.05341,-0.08667,-0.03433,0.01816,0.07858
4.762,-0.0206,-0.02396,-0.02991,-0.04654,-0.05417,-0.04623,-0.01709,-0.03983,-0.04486,0.08377,-0.08835,-0.04974,-0.05234,-0.03418,0.01999,-0.02945
4.7625,-0.0058,-0.02075,-0.03418,-0.03967,-0.05997,-0.0473,-0.01816,-0.04776,-0.0351,0.16632,-0.06332,-0.03265,-0.01617,-0.0267,0.02106,-0.07751
4.763,0.00168,-0.01907,-0.03967,-0.03387,-0.05127,-0.04791,-0.01709,-0.0528,-0.02594,0.23392,-0.03677,0.01465,0.00473,-0.01633,0.01831,-0.06287
4.7635,0.00504,-0.01572,-0.0415,-0.03159,-0.03204,-0.04761,-0.01556,-0.05341,-0.01663,0.2713,-0.01358,0.08316,0.00748,-0.01007,0.01266,-0.04166
4.764,0.00626,-0.01389,-0.04105,-0.03372,-0.01862,-0.04623,-0.01511,-0.04944,-0.00458,0.27802,0.01022,0.13107,-0.00122,-0.0116,0.01068,-0.03922
4.7645,0.00824,-0.01495,-0.0415,-0.03738,-0.01663,-0.04379,-0.01572,-0.04227,0.00641,0.26031,0.03036,0.11353,-0.01099,-0.01434,0.00916,-0.04028
4.765,0.00946,-0.0174,-0.04379,-0.03922,-0.01846,-0.04395,-0.01663,-0.03265,0.01266,0.22171,0.03448,0.0386,-0.01511,-0.01343,0.0087,-0.03342
4.7655,0.01144,-0.0174,-0.04471,-0.03616,-0.01785,-0.04639,-0.01511,-0.02045,0.01312,0.16327,0.01984,-0.03616,-0.01892,-0.01038,0.00687,-0.02731
4.766,0.01297,-0.01648,-0.04181,-0.03036,-0.01144,-0.04944,-0.0116,-0.00092,0.01068,0.10223,0.00153,-0.06348,-0.02991,-0.00839,0.00748,-0.03204
4.7665,0.01419,-0.01907,-0.03647,-0.02579,0.00229,-0.04959,-0.00916,0.02441,0.00839,0.0563,-0.00244,-0.04517,-0.04547,-0.00656,0.009,-0.03891
4.767,0.01266,-0.02716,-0.03326,-0.02121,0.02258,-0.04807,-0.00809,0.04288,0.0061,0.02777,0.00885,-0.0116,-0.05646,0.00504,0.00854,-0.03738
4.7675,0.00793,-0.03784,-0.03342,-0.0174,0.04181,-0.04562,-0.00931,0.04745,0.00336,0.0061,0.01785,0.01556,-0.06348,0.02563,0.00473,-0.0296
4.768,0.0032,-0.04547,-0.03448,-0.01465,0.05524,-0.04547,-0.00946,0.04944,0.00168,-0.01755,0.00748,0.02792,-0.06836,0.03494,0.00427,-0.02808
4.7685,-0.00122,-0.04639,-0.03357,-0.01419,0.06042,-0.04623,-0.00961,0.05508,0.00336,-0.04028,-0.01846,0.02151,-0.06592,0.01236,0.00519,-0.03204
4.769,-0.00595,-0.04364,-0.03174,-0.01038,0.05157,-0.04913,-0.01083,0.04883,0.00717,-0.05692,-0.04349,0.00122,-0.04913,-0.03265,0.00763,-0.03677
4.7695,-0.01144,-0.04211,-0.03082,-0.00259,0.01663,-0.05066,-0.01297,0.01663,0.00977,-0.06699,-0.05783,-0.02502,-0.02075,-0.06561,0.01053,-0.03693
4.77,-0.01556,-0.0441,-0.03189,0.00626,-0.04288,-0.05188,-0.01434,-0.02655,0.00992,-0.07294,-0.06012,-0.05173,0.01251,-0.06699,0.01144,-0.03525
4.7705,-0.02075,-0.04944,-0.0354,0.01312,-0.09567,-0.05203,-0.01373,-0.056,0.00839,-0.07416,-0.05371,-0.07614,0.03967,-0.04791,0.0119,-0.03586
4.771,-0.02655,-0.05264,-0.03677,0.01938,-0.11719,-0.05173,-0.01236,-0.06287,0.00854,-0.07156,-0.0444,-0.09094,0.04547,-0.02991,0.01343,-0.0386
4.7715,-0.03159,-0.05188,-0.03403,0.02762,-0.11871,-0.05005,-0.01022,-0.05997,0.00854,-0.06592,-0.03937,-0.0853,0.02304,-0.02533,0.01434,-0.04059
4.772,-0.03357,-0.04944,-0.03189,0.03494,-0.12939,-0.04868,-0.00977,-0.05646,0.00763,-0.05905,-0.04211,-0.05447,-0.0177,-0.02991,0.01389,-0.0412
4.7725,-0.03479,-0.04684,-0.03036,0.03693,-0.14557,-0.04868,-0.01266,-0.0528,0.00381,-0.05432,-0.04822,-0.01328,-0.05737,-0.03387,0.01175,-0.04196
4.773,-0.03906,-0.04745,-0.02869,0.03693,-0.13626,-0.04974,-0.01633,-0.04364,-0.00076,-0.05188,-0.04974,0.01801,-0.0798,-0.03159,0.01068,-0.0441
4.7735,-0.04639,-0.04868,-0.02426,0.047,-0.09323,-0.0502,-0.01724,-0.02838,-0.00732,-0.05249,-0.04517,0.03433,-0.08148,-0.02609,0.01312,-0.04562
4.774,-0.0528,-0.0502,-0.02014,0.07019,-0.04776,-0.04929,-0.01633,-0.01022,-0.0148,-0.05615,-0.03693,0.03998,-0.0676,-0.02274,0.01236,-0.04623
4.7745,-0.05554,-0.05035,-0.01938,0.08926,-0.02945,-0.04913,-0.01648,0.00488,-0.02396,-0.06363,-0.02899,0.03525,-0.05173,-0.02243,0.01007,-0.04318
4.775,-0.05814,-0.04852,-0.02167,0.07935,-0.03662,-0.05035,-0.01984,0.01175,-0.03738,-0.07034,-0.02029,0.01572,-0.04379,-0.02289,0.00824,-0.0415
4.7755,-0.06134,-0.04669,-0.0238,0.02777,-0.04669,-0.05051,-0.02319,0.00961,-0.0563,-0.07721,-0.01114,-0.00992,-0.04333,-0.0238,0.01083,-0.0441
4.776,-0.06119,-0.047,-0.02777,-0.04242,-0.04456,-0.04944,-0.02411,-0.00305,-0.07751,-0.08972,-0.00259,-0.02151,-0.04669,-0.02563,0.01266,-0.05035
4.7765,-0.05676,-0.04776,-0.03235,-0.08789,-0.03326,-0.04852,-0.02029,-0.02457,-0.09369,-0.11108,0.00214,-0.00916,-0.0563,-0.02609,0.01328,-0.07034
4.777,-0.05371,-0.04761,-0.03601,-0.08575,-0.02411,-0.04837,-0.01511,-0.04364,-0.09506,-0.13321,0.00351,0.02029,-0.07584,-0.02121,0.01297,-0.11566
4.7775,-0.056,-0.04745,-0.0383,-0.0531,-0.02136,-0.04837,-0.01282,-0.04471,-0.08041,-0.14465,0.00183,0.04684,-0.09369,-0.01266,0.01297,-0.17792
4.778,-0.06134,-0.04959,-0.04013,-0.02838,-0.0235,-0.04745,-0.01556,-0.02121,-0.0592,-0.13367,0.00076,0.05493,-0.08987,-0.0061,0.01389,-0.21881
4.7785,-0.06516,-0.05341,-0.04135,-0.03952,-0.02228,-0.04593,-0.01831,0.01602,-0.0415,-0.0975,0.00031,0.04425,-0.056,-0.00488,0.01434,-0.21027
4.779,-0.06424,-0.05661,-0.04211,-0.07782,-0.01312,-0.0441,-0.01785,0.04593,-0.02991,-0.04211,0.00153,0.02655,-0.00961,-0.00671,0.01434,-0.16373
4.7795,-0.06027,-0.05585,-0.0412,-0.10971,0.00381,-0.04318,-0.01373,0.05569,-0.02274,0.0177,0.00458,0.00443,0.02151,-0.0061,0.01465,-0.10422
4.78,-0.05524,-0.05219,-0.03891,-0.11124,0.02304,-0.04211,-0.01114,0.04501,-0.0174,0.07233,0.00717,-0.03952,0.02609,-0.00305,0.01358,-0.03036
4.7805,-0.04929,-0.04898,-0.03738,-0.08987,0.03555,-0.04242,-0.01343,0.02136,-0.01495,0.11017,0.00671,-0.1059,0.01678,-0.00244,0.01038,0.05295
4.781,-0.04303,-0.04761,-0.03555,-0.06577,0.03677,-0.04181,-0.02151,0.00122,-0.01389,0.12421,0.00549,-0.15167,0.00244,-0.0061,0.00641,0.10208
4.7815,-0.03738,-0.04852,-0.0351,-0.05142,0.0296,-0.04288,-0.03036,-0.00046,-0.01236,0.11017,0.00565,-0.1355,-0.02274,-0.01282,0.00275,0.09308
4.782,-0.03113,-0.04791,-0.0351,-0.04456,0.01038,-0.0444,-0.03387,0.0145,-0.009,0.07263,0.00931,-0.06958,-0.05737,-0.01846,0.00137,0.0647
4.7825,-0.02563,-0.04486,-0.03403,-0.03632,-0.03036,-0.04745,-0.03143,0.02625,-0.00534,0.02777,0.01511,0.0,-0.07935,-0.02029,-0.00214,0.05371
4.783,-0.01984,-0.04074,-0.03372,-0.0238,-0.09323,-0.05234,-0.02594,0.01755,-0.00275,-0.00473,0.01846,0.04715,-0.07095,-0.01862,-0.00595,0.05051
4.7835,-0.01694,-0.03738,-0.03342,-0.01511,-0.14359,-0.05692,-0.02029,-0.00534,0.00031,-0.01785,0.01862,0.06927,-0.04379,-0.01724,-0.00763,0.0354
4.784,-0.01373,-0.03464,-0.03342,-0.0264,-0.14206,-0.06104,-0.01373,-0.02441,0.0032,-0.01648,0.01282,0.06546,-0.02304,-0.01923,-0.00534,0.01724
4.7845,-0.01022,-0.03143,-0.03235,-0.05676,-0.09338,-0.06088,-0.00565,-0.0293,0.00473,-0.01389,0.0058,0.03281,-0.02182,-0.02258,-0.00015,0.00931
4.785,-0.00565,-0.03052,-0.03204,-0.08072,-0.0441,-0.0592,0.00137,-0.02335,0.00381,-0.01709,0.00092,-0.00473,-0.03204,-0.02365,0.00259,0.00534
4.7855,-0.0029,-0.03403,-0.03357,-0.07507,-0.0264,-0.05814,0.00626,-0.01328,0.00198,-0.02304,-0.00244,-0.01022,-0.0351,-0.0209,0.00473,-0.00443
4.786,-0.00198,-0.04211,-0.03235,-0.04364,-0.02441,-0.05676,0.00488,-0.0029,0.00122,-0.02899,-0.00702,0.0264,-0.02335,-0.01678,0.00839,-0.02121
4.7865,-0.00092,-0.05173,-0.02228,-0.01236,-0.01846,-0.05341,-0.00336,0.00702,0.0,-0.03159,-0.01282,0.06638,-0.009,-0.01556,0.01175,-0.03784
4.787,0.00061,-0.06027,-0.00427,0.00031,-0.0174,-0.04745,-0.01099,0.02182,-0.00397,-0.03265,-0.01724,0.06119,-0.00565,-0.01984,0.01144,-0.05203
4.7875,0.00473,-0.07385,0.00687,0.00107,-0.02609,-0.0412,-0.01144,0.04181,-0.00992,-0.03357,-0.01968,0.00992,-0.01358,-0.02472,0.00824,-0.06302
4.788,0.00793,-0.09323,0.00443,0.00015,-0.03098,-0.03693,-0.00702,0.05585,-0.01495,-0.03479,-0.02197,-0.0415,-0.02014,-0.02563,0.00519,-0.06851
4.7885,0.00992,-0.10941,-0.00092,0.00275,-0.02167,-0.03601,-0.00458,0.05035,-0.01678,-0.03616,-0.02304,-0.05768,-0.02258,-0.02289,0.00183,-0.06592
4.789,0.01236,-0.10956,0.01022,0.00504,-0.00793,-0.03769,-0.00595,0.03448,-0.0174,-0.03616,-0.01938,-0.0473,-0.02625,-0.01923,-0.00107,-0.05081
4.7895,0.01572,-0.09506,0.03311,0.00488,0.00229,-0.03784,-0.009,0.02731,-0.01999,-0.03281,-0.00793,-0.03204,-0.03281,-0.01572,-0.00168,-0.02228
4.79,0.01968,-0.07263,0.04044,0.00366,0.00916,-0.03616,-0.00946,0.0238,-0.02335,-0.0264,0.00748,-0.0206,-0.03906,-0.01648,-0.00107,0.00641
4.7905,0.02457,-0.04959,0.02014,0.0032,0.01785,-0.03265,-0.01099,-0.00336,-0.0264,-0.01923,0.01816,-0.0119,-0.04227,-0.02228,-0.00397,0.01465
4.791,0.03128,-0.02777,-0.01907,0.00397,0.02274,-0.03067,-0.01572,-0.08026,-0.02655,-0.01343,0.01984,-0.00824,-0.03891,-0.02762,-0.01266,-0.01724
4.7915,0.0383,-0.009,-0.06378,0.00702,0.02029,-0.03067,-0.01953,-0.19745,-0.02396,-0.0119,0.01862,-0.00992,-0.02869,-0.02792,-0.02182,-0.08728
4.792,0.04349,0.00702,-0.10239,0.00778,0.01846,-0.03555,-0.01907,-0.30457,-0.02182,-0.01389,0.02182,-0.01221,-0.02045,-0.02563,-0.02579,-0.16602
4.7925,0.04822,0.02045,-0.12604,0.00626,0.0145,-0.04181,-0.01312,-0.34363,-0.02045,-0.01816,0.02472,-0.00885,-0.02258,-0.02533,-0.01602,-0.20782
4.793,0.05112,0.03021,-0.13138,0.00534,-0.00473,-0.04623,-0.00839,-0.28625,-0.01968,-0.02197,0.02014,-0.00259,-0.03052,-0.02716,0.00259,-0.18021
4.7935,0.05554,0.03342,-0.12375,0.00626,-0.04318,-0.04745,-0.00961,-0.14465,-0.01617,-0.02213,0.00809,-0.0029,-0.03326,-0.0293,0.02014,-0.08911
4.794,0.05875,0.0296,-0.10986,0.0058,-0.07858,-0.04684,-0.01862,0.04089,-0.0116,-0.0206,-0.00717,-0.00778,-0.02884,-0.02762,0.02792,0.01495
4.7945,0.06088,0.02182,-0.09476,0.00534,-0.0853,-0.04517,-0.03479,0.20844,-0.009,-0.02014,-0.02106,-0.00717,-0.02045,-0.02411,0.0264,0.06866
4.795,0.06332,0.01434,-0.08286,0.00534,-0.06912,-0.0441,-0.05142,0.29404,-0.00946,-0.0235,-0.03006,0.00412,-0.01419,-0.01938,0.02548,0.04745
4.7955,0.06836,0.00717,-0.0766,0.00778,-0.05753,-0.04532,-0.04913,0.27832,-0.00854,-0.03281,-0.0325,0.01709,-0.01465,-0.01434,0.03082,-0.01389
4.796,0.07584,-0.00183,-0.07156,0.00931,-0.05859,-0.04837,-0.02106,0.19516,-0.00229,-0.04898,-0.02731,0.01587,-0.0206,-0.01328,0.03601,-0.05814
4.7965,0.08392,-0.01373,-0.06302,0.00931,-0.05615,-0.05005,0.00992,0.10361,0.00595,-0.06516,-0.01373,0.00061,-0.02045,-0.0148,0.0351,-0.06393
4.797,0.09033,-0.02975,-0.05325,0.00702,-0.04227,-0.04944,0.01968,0.04501,0.01038,-0.07599,0.00504,-0.0119,-0.00732,-0.01648,0.02884,-0.05203
4.7975,0.09216,-0.0499,-0.04929,0.00519,-0.0325,-0.04639,0.00687,0.0235,0.00763,-0.0795,0.0174,-0.00351,0.00671,-0.01404,0.02258,-0.04623
4.798,0.09155,-0.06699,-0.05005,0.00504,-0.03601,-0.04303,-0.00854,0.02045,0.00076,-0.07614,0.00916,0.02655,0.00183,-0.00916,0.01968,-0.05051
4.7985,0.08911,-0.07599,-0.05264,0.00931,-0.04837,-0.04227,-0.01419,0.01907,-0.00381,-0.0676,-0.02075,0.06027,-0.01953,-0.00626,0.01816,-0.05402
4.799,0.08713,-0.07935,-0.05646,0.01846,-0.05386,-0.04364,-0.01373,0.01831,-0.00259,-0.05356,-0.05859,0.07523,-0.03876,-0.00824,0.01785,-0.05493
4.7995,0.08713,-0.08087,-0.05814,0.0267,-0.05142,-0.04501,-0.0116,0.02045,0.00549,-0.03769,-0.0827,0.06104,-0.05539,-0.01266,0.01724,-0.05142
4.8,0.08911,-0.08057,-0.05325,0.03052,-0.04379,-0.04532,-0.01022,0.02304,0.01419,-0.02151,-0.08102,0.0351,-0.0827,-0.01526,0.01663,-0.04486
4.8005,0.08881,-0.07568,-0.04364,0.02762,-0.03769,-0.04608,-0.01068,0.02075,0.01648,-0.00885,-0.06149,0.0177,-0.10666,-0.01648,0.01511,-0.04028
4.801,0.0856,-0.06363,-0.03159,0.02457,-0.03326,-0.04745,-0.01144,0.01541,0.01083,0.0,-0.04593,0.01846,-0.09933,-0.01755,0.01328,-0.03876
4.8015,0.08347,-0.04883,-0.02335,0.02075,-0.0267,-0.05173,-0.01495,0.01099,-0.00153,0.00626,-0.04684,0.02655,-0.06485,-0.02045,0.01099,-0.03586
4.802,0.08423,-0.03586,-0.01938,0.01419,-0.01694,-0.05646,-0.0177,0.00671,-0.01297,0.00992,-0.05783,0.02182,-0.03693,-0.02502,0.01099,-0.01938
4.8025,0.08728,-0.02686,-0.01816,0.00427,-0.00732,-0.05981,-0.0174,0.00168,-0.0206,0.01495,-0.06683,-0.01205,-0.03128,-0.0296,0.01007,0.01022
4.803,0.09018,-0.02014,-0.01877,-0.00732,0.00092,-0.06271,-0.01434,-0.00198,-0.02594,0.02014,-0.07126,-0.0708,-0.03632,-0.03296,0.00916,0.0386
4.8035,0.09171,-0.0145,-0.0209,-0.01389,0.00198,-0.06378,-0.01282,-0.00412,-0.03006,0.0209,-0.07523,-0.12299,-0.0412,-0.0351,0.00732,0.04166
4.804,0.0943,-0.00961,-0.02167,-0.01541,-0.01602,-0.06454,-0.01328,-0.00595,-0.03418,0.01389,-0.07858,-0.13977,-0.04791,-0.03525,0.00488,0.01465
4.8045,0.09567,-0.00687,-0.02029,-0.01297,-0.05569,-0.06485,-0.01648,-0.00687,-0.03799,0.00305,-0.07477,-0.12009,-0.05341,-0.03448,0.00336,-0.02884
4.805,0.09598,-0.00763,-0.01801,-0.01022,-0.09323,-0.06485,-0.01846,-0.00824,-0.04288,-0.00488,-0.06363,-0.07858,-0.05234,-0.03159,0.00427,-0.0705
4.8055,0.0972,-0.01022,-0.01511,-0.00641,-0.09781,-0.06241,-0.01755,-0.00992,-0.04578,-0.00504,-0.04929,-0.02747,-0.04517,-0.02686,0.00549,-0.10635
4.806,0.09857,-0.01617,-0.01343,-0.00107,-0.06287,-0.05783,-0.01617,-0.0119,-0.04364,-0.00214,-0.03662,0.02808,-0.03815,-0.01999,0.00656,-0.13718
4.8065,0.09735,-0.02579,-0.01465,0.00381,-0.00916,-0.05112,-0.01511,-0.01373,-0.03342,-0.00092,-0.03082,0.07599,-0.03006,-0.01236,0.0058,-0.168
4.807,0.09323,-0.03601,-0.02014,0.0058,0.02945,-0.04501,-0.0145,-0.0145,-0.02243,-0.00397,-0.02518,0.09247,-0.01831,-0.00977,0.00412,-0.19623
4.8075,0.08896,-0.04532,-0.02563,0.0058,0.03922,-0.03876,-0.01572,-0.01404,-0.01938,-0.0087,-0.01709,0.06027,-0.00717,-0.01465,0.00183,-0.19943
4.808,0.0853,-0.05051,-0.02792,0.00809,0.02731,-0.03342,-0.01648,-0.0119,-0.0238,-0.01389,-0.00702,-0.00946,-0.00885,-0.01999,0.00229,-0.14984
4.8085,0.08133,-0.05325,-0.0264,0.01144,0.00381,-0.03067,-0.01724,-0.00275,-0.02838,-0.0174,0.00076,-0.07797,-0.0238,-0.01587,0.00458,-0.06378
4.809,0.07767,-0.05447,-0.02243,0.0116,-0.02396,-0.03052,-0.01602,0.02411,-0.02701,-0.02182,0.00259,-0.09521,-0.03479,-0.00214,0.0061,-0.00336
4.8095,0.07462,-0.05539,-0.01831,0.00549,-0.04974,-0.03281,-0.01282,0.06393,-0.02014,-0.02747,0.00183,-0.03616,-0.02731,0.00671,0.00671,-0.00397
4.81,0.07156,-0.05432,-0.01511,-0.00565,-0.065,-0.03677,-0.0087,0.08438,-0.01312,-0.03708,-0.00031,0.0589,-0.009,0.00168,0.00687,-0.03601
4.8105,0.06882,-0.05264,-0.01373,-0.02075,-0.06104,-0.04242,-0.00702,0.05463,-0.01022,-0.05005,-0.00305,0.10406,-0.00031,-0.01099,0.00641,-0.05264
4.811,0.06622,-0.05096,-0.0145,-0.03281,-0.03479,-0.04776,-0.00854,-0.01541,-0.01083,-0.05875,-0.00366,0.06378,-0.00931,-0.02045,0.00458,-0.04654
4.8115,0.06546,-0.0502,-0.01846,-0.03647,-0.0032,-0.05157,-0.00992,-0.08575,-0.01053,-0.06042,0.00076,-0.01266,-0.02853,-0.02304,0.00443,-0.03922
4.812,0.06607,-0.05081,-0.02472,-0.04013,0.00778,-0.05386,-0.01068,-0.12848,-0.00961,-0.0592,0.00946,-0.07156,-0.04623,-0.02289,0.00427,-0.04135
4.8125,0.0676,-0.05112,-0.02747,-0.06836,-0.01312,-0.05417,-0.01236,-0.13657,-0.00824,-0.05753,0.01633,-0.1091,-0.05417,-0.02075,0.0029,-0.0441
4.813,0.06821,-0.05188,-0.02655,-0.14282,-0.04761,-0.05188,-0.01373,-0.10986,-0.00854,-0.05341,0.01862,-0.12787,-0.04929,-0.01495,0.00107,-0.04333
4.8135,0.06638,-0.05188,-0.02533,-0.2475,-0.07645,-0.04929,-0.01541,-0.05966,-0.01053,-0.04471,0.01572,-0.10376,-0.0412,-0.00854,-0.00031,-0.04074
4.814,0.06393,-0.05341,-0.02563,-0.32364,-0.0943,-0.04395,-0.01709,-0.01785,-0.0116,-0.03235,0.00961,-0.03128,-0.0444,-0.00626,0.0,-0.04013
4.8145,0.05966,-0.05356,-0.02655,-0.32166,-0.1004,-0.04196,-0.02151,-0.00763,-0.01114,-0.01785,0.00198,0.05081,-0.05798,-0.00885,0.00137,-0.04196
4.815,0.05569,-0.05478,-0.02686,-0.24994,-0.09003,-0.04288,-0.02716,-0.0209,-0.01083,-0.00153,-0.00427,0.10345,-0.06149,-0.01373,0.00259,-0.04364
4.8155,0.05081,-0.05585,-0.02747,-0.14862,-0.06973,-0.04608,-0.02975,-0.02701,-0.01022,0.01404,-0.01022,0.12436,-0.04807,-0.01892,0.00397,-0.04318
4.816,0.04654,-0.05615,-0.02914,-0.04807,-0.05493,-0.04898,-0.02625,-0.01511,-0.01099,0.02258,-0.01709,0.11917,-0.03418,-0.0206,0.00534,-0.04028
4.8165,0.04227,-0.05539,-0.02945,0.04669,-0.05249,-0.05112,-0.02029,0.00153,-0.01419,0.01694,-0.02472,0.07278,-0.02747,-0.01846,0.00565,-0.03891
4.817,0.03922,-0.05386,-0.02686,0.13962,-0.05859,-0.0528,-0.0174,0.0087,-0.01648,-0.00015,-0.02853,-0.00931,-0.01663,-0.01419,0.00015,-0.03754
4.8175,0.03967,-0.05219,-0.02289,0.22507,-0.06638,-0.05554,-0.01862,0.00793,-0.01816,-0.01541,-0.02258,-0.05997,0.00351,-0.01236,-0.01129,-0.03693
4.818,0.04395,-0.0528,-0.01831,0.27908,-0.05646,-0.05768,-0.0209,0.00443,-0.01831,-0.01862,-0.00778,-0.00549,0.0148,-0.01648,-0.02228,-0.03586
4.8185,0.04837,-0.05386,-0.01602,0.27039,-0.01968,-0.056,-0.02045,0.00229,-0.01953,-0.01266,0.00732,0.12466,0.00198,-0.02289,-0.0235,-0.03586
4.819,0.04715,-0.05737,-0.01556,0.19852,0.03113,-0.05051,-0.01816,0.00137,-0.02167,-0.00946,0.01923,0.20676,-0.02167,-0.02747,-0.01343,-0.03433
4.8195,0.04227,-0.06363,-0.01526,0.10864,0.06989,-0.04471,-0.01556,0.00107,-0.02457,-0.01266,0.03784,0.16602,-0.03448,-0.02838,0.00381,-0.03403
4.82,0.03799,-0.06836,-0.01251,0.04837,0.07721,-0.03967,-0.01373,0.00397,-0.02594,-0.01892,0.06195,0.06119,-0.03616,-0.02563,0.01984,-0.03372
4.8205,0.03433,-0.06989,-0.00305,0.02945,0.06683,-0.03448,-0.01389,0.00793,-0.02258,-0.02457,0.07706,0.00061,-0.0412,-0.02151,0.03067,-0.03372
4.821,0.03143,-0.06546,0.01328,0.03326,0.05692,-0.03174,-0.01434,0.01053,-0.01526,-0.02518,0.06744,0.01465,-0.05432,-0.01633,0.03525,-0.03387
4.8215,0.02884,-0.05936,0.02548,0.04044,0.05432,-0.03418,-0.01495,0.00763,-0.00916,-0.02579,0.04028,0.04517,-0.06561,-0.01266,0.03784,-0.03387
4.822,0.02579,-0.05295,0.02304,0.05249,0.0528,-0.0386,-0.01511,0.00397,-0.00839,-0.02579,0.01389,0.03891,-0.06332,-0.01068,0.03937,-0.03342
4.8225,0.01892,-0.04517,0.00717,0.07034,0.03967,-0.04303,-0.0145,0.00168,-0.01312,-0.02853,-0.00107,0.00671,-0.04517,-0.00717,0.04089,-0.03342
4.823,0.00687,-0.03647,-0.01312,0.07813,0.01663,-0.04517,-0.01297,0.00092,-0.01892,-0.03845,-0.00183,-0.01953,-0.01862,0.00107,0.02945,-0.03235
4.8235,-0.0061,-0.03052,-0.03052,0.05905,0.00397,-0.04501,-0.01129,-0.00153,-0.02243,-0.05859,0.00854,-0.03235,-0.00198,0.01373,0.00732,-0.03021
4.824,-0.01511,-0.02823,-0.04822,0.02213,0.01419,-0.04532,-0.01221,-0.00656,-0.02151,-0.08865,0.0209,-0.04349,-0.00351,0.02457,-0.00778,-0.02884
4.8245,-0.02014,-0.02777,-0.06516,-0.00504,0.03036,-0.04425,-0.01251,-0.01556,-0.01602,-0.11932,0.02243,-0.05447,-0.01511,0.02701,-0.00305,-0.03433
4.825,-0.02274,-0.02747,-0.08026,-0.01114,0.02197,-0.04486,-0.0087,-0.0238,-0.00504,-0.14435,0.01007,-0.05905,-0.01907,0.02045,0.0087,-0.05463
4.8255,-0.02472,-0.02502,-0.09125,-0.00626,-0.02167,-0.04669,-0.00092,-0.02869,0.00549,-0.16174,-0.00641,-0.05997,-0.01373,0.01312,0.01099,-0.09201
4.826,-0.02686,-0.02396,-0.09918,-0.00305,-0.07645,-0.04974,0.00595,-0.02701,0.0116,-0.16754,-0.0206,-0.06104,-0.01801,0.01312,0.00824,-0.13306
4.8265,-0.02975,-0.02396,-0.10315,-0.00092,-0.10666,-0.05219,0.00671,-0.01801,0.0119,-0.15366,-0.03403,-0.06546,-0.04242,0.02228,0.01114,-0.16037
4.827,-0.0351,-0.02563,-0.1001,0.00168,-0.09201,-0.05371,-0.00046,-0.00153,0.00885,-0.11246,-0.05219,-0.08026,-0.06943,0.03128,0.01587,-0.1532
4.8275,-0.04028,-0.02609,-0.08957,0.0,-0.05524,-0.05463,-0.01129,0.01541,0.00458,-0.05096,-0.07416,-0.13397,-0.07462,0.03006,0.01556,-0.09125
4.828,-0.04044,-0.02686,-0.07645,-0.00732,-0.03586,-0.05493,-0.02274,0.02625,0.00137,0.01389,-0.0914,-0.24673,-0.0589,0.01068,0.01053,0.02991
4.8285,-0.03326,-0.0296,-0.06424,-0.01495,-0.04898,-0.05417,-0.03357,0.02945,-0.00244,0.07446,-0.09201,-0.36591,-0.0444,-0.0174,0.00687,0.14847
4.829,-0.02319,-0.03769,-0.05646,-0.01877,-0.0676,-0.05264,-0.04333,0.03494,-0.00961,0.13412,-0.07919,-0.3862,-0.04318,-0.04303,0.00488,0.16846
4.8295,-0.01938,-0.04715,-0.05188,-0.01801,-0.06378,-0.04639,-0.05203,0.04959,-0.02197,0.18356,-0.06851,-0.2565,-0.04425,-0.06592,0.00412,0.07965
4.83,-0.02151,-0.05127,-0.04837,-0.01511,-0.03906,-0.03952,-0.05615,0.06927,-0.03967,0.21133,-0.06683,-0.01999,-0.03784,-0.10132,0.0029,-0.0174
4.8305,-0.02548,-0.04898,-0.04517,-0.01328,-0.01953,-0.03555,-0.05234,0.07782,-0.05737,0.20523,-0.06699,0.23422,-0.02701,-0.14175,0.00443,-0.04074
4.831,-0.03021,-0.04395,-0.04105,-0.01663,-0.0174,-0.03708,-0.03769,0.06531,-0.0618,0.17639,-0.05859,0.43167,-0.02441,-0.14709,0.00534,-0.01099
4.8315,-0.03754,-0.04059,-0.03571,-0.02457,-0.02441,-0.04135,-0.01831,0.03433,-0.0499,0.13687,-0.04532,0.51392,-0.03098,-0.09735,0.00778,0.00336
4.832,-0.047,-0.03632,-0.03296,-0.03235,-0.02945,-0.04425,-0.00198,-0.00473,-0.02914,0.08713,-0.03296,0.43915,-0.03799,-0.03464,0.00793,-0.01663
4.8325,-0.05478,-0.03143,-0.03143,-0.03723,-0.02701,-0.0441,0.00519,-0.03922,-0.01251,0.02457,-0.02228,0.23102,-0.03571,-0.01526,0.00671,-0.04532
4.833,-0.05905,-0.02609,-0.03098,-0.03906,-0.02182,-0.04257,0.00504,-0.06226,-0.00366,-0.0351,-0.01099,0.00671,-0.02853,-0.03479,0.00473,-0.05661
4.8335,-0.06485,-0.02075,-0.03036,-0.04379,-0.01801,-0.04166,0.0061,-0.07736,0.00015,-0.0705,-0.0032,-0.103,-0.02625,-0.05066,0.00504,-0.04715
4.834,-0.07568,-0.01633,-0.02853,-0.05142,-0.01678,-0.04333,0.01175,-0.0882,0.00168,-0.08026,-0.00137,-0.06866,-0.02853,-0.04623,0.00565,-0.02838
4.8345,-0.08667,-0.01404,-0.02747,-0.05844,-0.01602,-0.04684,0.01862,-0.09338,0.00031,-0.07599,-0.00473,0.01907,-0.03143,-0.03845,0.00656,-0.01343
4.835,-0.09384,-0.01404,-0.02914,-0.06424,-0.01389,-0.05005,0.01663,-0.08881,-0.00381,-0.06897,-0.00809,0.05844,-0.03128,-0.04074,0.00732,-0.01389
4.8355,-0.09888,-0.01633,-0.03189,-0.06989,-0.01572,-0.05173,0.00534,-0.07584,-0.01129,-0.05875,-0.00885,0.0354,-0.03021,-0.04929,0.00717,-0.0293
4.836,-0.09888,-0.02167,-0.03464,-0.07446,-0.03159,-0.05051,-0.00702,-0.06287,-0.02045,-0.04395,-0.00946,0.00854,-0.03021,-0.05768,0.0061,-0.04898
4.8365,-0.09247,-0.02762,-0.03372,-0.0737,-0.06317,-0.05051,-0.0116,-0.05234,-0.03128,-0.02853,-0.0087,0.02136,-0.03128,-0.06042,0.00229,-0.05661
4.837,-0.08087,-0.03296,-0.02625,-0.06439,-0.09537,-0.05051,-0.00977,-0.04715,-0.03967,-0.00885,-0.00748,0.05875,-0.03082,-0.05142,0.00061,-0.05173
4.8375,-0.07187,-0.03479,-0.01678,-0.04913,-0.10544,-0.05173,-0.00793,-0.05066,-0.04135,0.01114,-0.00687,0.08514,-0.02716,-0.03128,0.00198,-0.04562
4.838,-0.07065,-0.03601,-0.01358,-0.03586,-0.09033,-0.05325,-0.01038,-0.06195,-0.03494,0.02853,-0.00641,0.07645,-0.01862,-0.01328,0.00488,-0.04471
4.8385,-0.07507,-0.03998,-0.01816,-0.02945,-0.06882,-0.05264,-0.01434,-0.07095,-0.02655,0.03403,-0.00763,0.03433,-0.01038,-0.00793,0.00412,-0.04807
4.839,-0.07675,-0.0473,-0.02747,-0.0293,-0.05707,-0.05142,-0.01434,-0.06134,-0.02106,0.02899,-0.00778,-0.01999,-0.00748,-0.01022,0.00412,-0.04974
4.8395,-0.07538,-0.0531,-0.03494,-0.03387,-0.05569,-0.04929,-0.01251,-0.0267,-0.02029,0.01785,-0.00748,-0.05798,-0.01602,-0.009,0.0061,-0.04959
4.84,-0.07156,-0.05447,-0.0383,-0.05264,-0.05356,-0.0502,-0.0119,0.0296,-0.02335,0.00275,-0.00885,-0.06729,-0.0322,0.0,0.00504,-0.04745
4.8405,-0.06989,-0.05402,-0.03815,-0.08911,-0.047,-0.05325,-0.01282,0.08163,-0.02792,-0.01465,-0.01175,-0.0621,-0.04501,0.00916,0.00504,-0.04593
4.841,-0.07111,-0.05325,-0.03479,-0.12665,-0.04318,-0.05478,-0.01251,0.09903,-0.03174,-0.02853,-0.01282,-0.06714,-0.03967,0.009,0.00534,-0.04379
4.8415,-0.07187,-0.05096,-0.02838,-0.13077,-0.04501,-0.05386,-0.01114,0.07599,-0.03281,-0.04044,-0.01266,-0.08392,-0.01999,0.00122,0.00839,-0.0415
4.842,-0.07065,-0.05066,-0.02319,-0.08972,-0.04974,-0.0528,-0.01022,0.04013,-0.02991,-0.04837,-0.01251,-0.08545,-0.00702,-0.00732,0.01007,-0.04013
4.8425,-0.06714,-0.05112,-0.02106,-0.02945,-0.047,-0.05081,-0.01068,0.02121,-0.02243,-0.05386,-0.0119,-0.03265,-0.01541,-0.00748,0.01144,-0.03983
4.843,-0.06546,-0.05478,-0.02274,0.01617,-0.03616,-0.0499,-0.01251,0.02258,-0.01404,-0.05707,-0.01205,0.06424,-0.03311,-0.00031,0.01175,-0.03998
4.8435,-0.06363,-0.05859,-0.02838,0.03113,-0.02777,-0.04807,-0.01282,0.02975,-0.00793,-0.06058,-0.00961,0.1355,-0.04074,0.00443,0.01205,-0.0415
4.844,-0.06256,-0.06088,-0.03418,0.02747,-0.02991,-0.04562,-0.0116,0.0322,-0.00641,-0.06821,-0.00412,0.11612,-0.04135,-0.00778,0.01022,-0.04318
4.8445,-0.06256,-0.06027,-0.03738,0.02319,-0.03983,-0.04364,-0.01205,0.03113,-0.00671,-0.07309,0.00244,0.02365,-0.05005,-0.03082,0.009,-0.04532
4.845,-0.06363,-0.05814,-0.03708,0.03418,-0.05035,-0.04333,-0.01343,0.03052,-0.00702,-0.06683,0.00931,-0.06592,-0.06561,-0.04349,0.00702,-0.04608
4.8455,-0.06577,-0.05524,-0.03204,0.07614,-0.0563,-0.04501,-0.01434,0.02701,-0.00534,-0.04837,0.01495,-0.09644,-0.06546,-0.03403,0.00565,-0.04868
4.846,-0.06668,-0.05386,-0.02747,0.1442,-0.05264,-0.04623,-0.01511,0.01877,-0.00305,-0.02426,0.01358,-0.07324,-0.03876,-0.01495,0.00381,-0.05142
4.8465,-0.06775,-0.05768,-0.02548,0.1889,-0.03922,-0.04669,-0.01465,0.00885,0.00015,-0.00107,0.00626,-0.03815,-0.00595,-0.00412,0.00412,-0.05295
4.847,-0.06927,-0.06592,-0.02655,0.15823,-0.02121,-0.047,-0.01404,0.00122,0.00305,0.02121,-0.00565,-0.03448,0.00656,-0.00397,0.00504,-0.05173
4.8475,-0.07126,-0.07233,-0.02686,0.0647,-0.00153,-0.04532,-0.01343,-0.00412,0.00397,0.04059,-0.01633,-0.06744,-0.00275,-0.00931,0.00641,-0.04837
4.848,-0.07446,-0.07202,-0.02686,-0.02014,0.00992,-0.04654,-0.01129,-0.01068,0.0032,0.04807,-0.0174,-0.09964,-0.01755,-0.01389,0.00626,-0.04395
4.8485,-0.07706,-0.06638,-0.02609,-0.04852,-0.00427,-0.04623,-0.00946,-0.01755,0.00229,0.0325,-0.00244,-0.09521,-0.03281,-0.01709,0.00549,-0.04013
4.849,-0.07614,-0.0621,-0.02502,-0.03601,-0.04868,-0.04807,-0.00961,-0.01816,0.00122,-0.00137,0.02151,-0.05417,-0.05173,-0.01816,0.00702,-0.03891
4.8495,-0.07278,-0.0592,-0.02289,-0.02396,-0.10727,-0.04929,-0.01144,-0.00931,-0.00061,-0.0322,0.03204,-0.00809,-0.06653,-0.0177,0.01038,-0.04074
4.85,-0.07126,-0.05554,-0.02106,-0.02747,-0.14496,-0.05066,-0.01373,0.00305,-0.00702,-0.04257,0.02014,0.01846,-0.06119,-0.01663,0.01129,-0.04471
4.8505,-0.07416,-0.05249,-0.02243,-0.0383,-0.13504,-0.05112,-0.01587,0.00916,-0.02029,-0.03525,-0.00519,0.01587,-0.03616,-0.01526,0.00854,-0.05066
4.851,-0.07935,-0.04959,-0.02426,-0.04761,-0.08621,-0.05096,-0.0174,0.00626,-0.03662,-0.02594,-0.02777,-0.01022,-0.01877,-0.01358,0.00504,-0.05569
4.8515,-0.08362,-0.04242,-0.02701,-0.05325,-0.03601,-0.04898,-0.01724,-0.00031,-0.04959,-0.02365,-0.04288,-0.03906,-0.03311,-0.00854,0.00458,-0.06012
4.852,-0.08301,-0.02914,-0.02884,-0.05615,-0.01541,-0.04715,-0.01541,-0.00549,-0.05737,-0.03006,-0.0473,-0.05081,-0.06866,0.00046,0.00702,-0.0705
4.8525,-0.07935,-0.01511,-0.0322,-0.05295,-0.02319,-0.04562,-0.01312,-0.00931,-0.05951,-0.03891,-0.03769,-0.0386,-0.08942,0.00626,0.00717,-0.09644
4.853,-0.07507,-0.00687,-0.03845,-0.03815,-0.04379,-0.04791,-0.01205,-0.00885,-0.05569,-0.04318,-0.02396,-0.01602,-0.07721,0.00214,0.00732,-0.13611
4.8535,-0.0708,-0.0029,-0.04364,-0.01068,-0.06012,-0.04837,-0.0145,-0.00641,-0.04318,-0.04456,-0.01694,-0.00031,-0.04669,-0.00824,0.00687,-0.15823
4.854,-0.06653,0.00183,-0.04562,0.01358,-0.06668,-0.04959,-0.01846,-0.00031,-0.02487,-0.04562,-0.01678,0.00244,-0.02487,-0.0145,0.00977,-0.13687
4.8545,-0.06073,0.00824,-0.04547,0.02106,-0.06607,-0.04868,-0.02243,0.01266,-0.00793,-0.04395,-0.0145,-0.00031,-0.01968,-0.01404,0.01572,-0.07645
4.855,-0.05783,0.01251,-0.0441,0.00992,-0.06027,-0.0473,-0.02396,0.03342,0.00397,-0.04028,-0.00748,-0.00168,-0.02319,-0.00977,0.01938,-0.00671
4.8555,-0.0592,0.01068,-0.04227,-0.00671,-0.04974,-0.04593,-0.0209,0.04791,0.0116,-0.03448,-0.00443,0.00046,-0.02701,-0.00687,0.02121,0.04715
4.856,-0.06058,0.00305,-0.04181,-0.01953,-0.03952,-0.04517,-0.01633,0.04562,0.01572,-0.0296,-0.01022,0.00244,-0.02838,-0.00549,0.02304,0.06622
4.8565,-0.05661,-0.00793,-0.03967,-0.02411,-0.03372,-0.04486,-0.01343,0.0293,0.01465,-0.02548,-0.02289,0.00336,-0.02777,-0.00809,0.02701,0.0441
4.857,-0.04898,-0.01953,-0.03281,-0.02121,-0.03281,-0.04623,-0.01205,0.00717,0.00885,-0.02197,-0.04013,0.00488,-0.02884,-0.01343,0.02625,0.00214
4.8575,-0.04196,-0.03006,-0.02457,-0.00916,-0.03632,-0.04837,-0.01175,-0.01816,0.00183,-0.02029,-0.05753,0.00504,-0.03265,-0.01923,0.01892,-0.02792
4.858,-0.03967,-0.03799,-0.02243,0.0058,-0.03754,-0.05005,-0.01175,-0.04257,-0.00229,-0.01831,-0.0705,0.00229,-0.0354,-0.02151,0.00977,-0.03799
4.8585,-0.04013,-0.04181,-0.02884,0.00244,-0.03662,-0.05051,-0.01144,-0.05432,-0.00381,-0.0148,-0.07767,-0.00076,-0.0386,-0.01953,0.00763,-0.04547
4.859,-0.04013,-0.04181,-0.03937,-0.03922,-0.03448,-0.0499,-0.01099,-0.05173,0.00076,-0.01175,-0.07431,-0.00015,-0.04425,-0.01556,0.00824,-0.05722
4.8595,-0.03769,-0.04196,-0.04623,-0.103,-0.03418,-0.04868,-0.01007,-0.04517,0.00793,-0.00916,-0.05936,0.00366,-0.05585,-0.01358,0.00427,-0.0621
4.86,-0.03403,-0.04608,-0.05005,-0.1445,-0.03357,-0.0473,-0.01068,-0.04181,0.01053,-0.00793,-0.03174,0.00778,-0.06836,-0.01236,-0.01022,-0.06104
4.8605,-0.03021,-0.0528,-0.05371,-0.13718,-0.03204,-0.047,-0.01175,-0.03937,0.00687,-0.01038,-0.00366,0.00931,-0.07004,-0.01175,-0.0267,-0.07095
4.861,-0.02716,-0.05859,-0.05371,-0.09735,-0.02838,-0.04761,-0.01312,-0.03571,-0.00305,-0.01907,0.01114,0.00626,-0.0499,-0.01144,-0.03571,-0.08301
4.8615,-0.02411,-0.05844,-0.04883,-0.05905,-0.02747,-0.04684,-0.0145,-0.0325,-0.01526,-0.02914,0.01312,-0.00122,-0.00946,-0.01099,-0.02853,-0.05936
4.862,-0.0235,-0.05432,-0.04257,-0.03723,-0.02655,-0.04547,-0.01389,-0.03143,-0.02838,-0.0351,0.01175,-0.00763,0.03372,-0.01099,-0.00916,0.00534
4.8625,-0.02609,-0.04959,-0.03998,-0.02808,-0.02625,-0.04562,-0.01312,-0.02502,-0.04059,-0.0351,0.01328,-0.00839,0.0592,-0.01236,0.00839,0.05173
4.863,-0.03006,-0.04761,-0.04242,-0.02319,-0.0235,-0.04715,-0.01251,-0.01266,-0.04929,-0.03494,0.01648,-0.00427,0.05417,-0.01434,0.01358,0.03403
4.8635,-0.03418,-0.04868,-0.04562,-0.01938,-0.0148,-0.04868,-0.01205,0.0,-0.04868,-0.03815,0.02029,-0.00153,0.01709,-0.01816,0.00961,-0.01572
4.864,-0.03616,-0.05066,-0.0473,-0.01617,0.00183,-0.04883,-0.01282,0.00671,-0.03922,-0.04166,0.0267,-0.00549,-0.03922,-0.02182,0.00931,-0.03906
4.8645,-0.03571,-0.05325,-0.04578,-0.01343,0.02075,-0.04807,-0.01389,0.00809,-0.02808,-0.04059,0.03647,-0.01389,-0.08957,-0.02502,0.01511,-0.03006
4.865,-0.03311,-0.05768,-0.04227,-0.0119,0.0325,-0.04837,-0.01678,0.0061,-0.02136,-0.03662,0.0415,-0.01663,-0.10941,-0.02625,0.01404,-0.0206
4.8655,-0.02914,-0.06912,-0.0383,-0.01205,0.03586,-0.04715,-0.01862,0.00275,-0.02045,-0.03418,0.0351,-0.00427,-0.09857,-0.02533,-0.00443,-0.02472
4.866,-0.0238,-0.0853,-0.03647,-0.01068,0.03342,-0.04532,-0.01907,0.0,-0.02136,-0.03479,0.02045,0.01938,-0.07523,-0.02151,-0.02716,-0.03159
4.8665,-0.0177,-0.09445,-0.03571,-0.00473,0.02487,-0.04288,-0.01831,-0.00107,-0.02045,-0.03586,0.00992,0.04379,-0.05569,-0.0174,-0.03021,-0.03265
4.867,-0.01373,-0.08926,-0.03845,0.0029,0.00702,-0.04272,-0.0177,-0.00153,-0.01923,-0.04074,0.01556,0.05371,-0.03998,-0.01602,-0.01144,-0.0351
4.8675,-0.0119,-0.07507,-0.03952,-0.00854,-0.02762,-0.04364,-0.01694,-0.00565,-0.01801,-0.05432,0.03204,0.04456,-0.01633,-0.01862,0.01068,-0.03983
4.868,-0.00992,-0.05936,-0.03586,-0.07004,-0.07629,-0.04547,-0.01678,-0.01831,-0.01663,-0.07126,0.03586,0.02594,0.01114,-0.02197,0.0206,-0.0444
4.8685,-0.00717,-0.04532,-0.02274,-0.17838,-0.11475,-0.04807,-0.01648,-0.03754,-0.01541,-0.08636,0.01251,0.00732,0.02289,-0.02426,0.0174,-0.04532
4.869,-0.00183,-0.0354,0.00763,-0.26993,-0.12939,-0.05066,-0.01572,-0.05173,-0.01617,-0.09918,-0.02731,-0.01572,0.00488,-0.02548,0.01129,-0.04547
4.8695,0.0029,-0.0322,0.05768,-0.27267,-0.12848,-0.05341,-0.01404,-0.05188,-0.0174,-0.11032,-0.06378,-0.05295,-0.03036,-0.02472,0.00641,-0.04501
4.87,0.00656,-0.03479,0.09735,-0.18234,-0.11673,-0.05417,-0.01221,-0.03281,-0.01602,-0.11536,-0.08743,-0.0853,-0.05646,-0.02441,0.00473,-0.04501
4.8705,0.00931,-0.03754,0.08743,-0.05081,-0.08835,-0.05341,-0.01099,0.00427,-0.01251,-0.10742,-0.09781,-0.08148,-0.06622,-0.02594,0.0058,-0.0444
4.871,0.01251,-0.03616,0.02472,0.07507,-0.04471,-0.05112,-0.01068,0.04776,-0.00992,-0.0856,-0.09262,-0.03708,-0.07111,-0.02884,0.0087,-0.04364
4.8715,0.01389,-0.03357,-0.04837,0.18661,-0.00763,-0.04822,-0.00931,0.07538,-0.01282,-0.05585,-0.0705,0.02304,-0.07431,-0.03082,0.01175,-0.04272
4.872,0.01373,-0.03448,-0.0975,0.27969,0.00275,-0.04578,-0.00809,0.07187,-0.01572,-0.02487,-0.03372,0.06958,-0.06546,-0.02945,0.01328,-0.04227
4.8725,0.01373,-0.03632,-0.11932,0.32959,-0.00656,-0.04532,-0.00778,0.04623,-0.01465,0.00443,0.00122,0.0885,-0.04318,-0.02594,0.01434,-0.04364
4.873,0.01511,-0.03387,-0.12085,0.30853,-0.02151,-0.04623,-0.00854,0.02106,-0.00946,0.03159,0.02014,0.07355,-0.02289,-0.02182,0.01831,-0.04761
4.8735,0.01633,-0.02655,-0.10483,0.22171,-0.03738,-0.04715,-0.00977,0.00854,-0.00458,0.05692,0.02396,0.0325,-0.01816,-0.01984,0.02335,-0.05081
4.874,0.01724,-0.01709,-0.07782,0.11414,-0.05783,-0.0502,-0.0119,0.00717,-0.00397,0.07828,0.02518,-0.00946,-0.02304,-0.01907,0.0296,-0.05157
4.8745,0.01953,-0.01099,-0.05524,0.03555,-0.07614,-0.05249,-0.01404,0.01266,-0.00793,0.09521,0.02487,-0.02228,-0.02823,-0.01862,0.03036,-0.05096
4.875,0.02365,-0.00916,-0.0473,0.00381,-0.08011,-0.05341,-0.01785,0.02029,-0.01221,0.10605,0.01541,-0.00137,-0.03326,-0.01953,0.02167,-0.05188
4.8755,0.0296,-0.00885,-0.05142,0.00168,-0.0679,-0.05356,-0.01999,0.02411,-0.0145,0.10712,-0.00748,0.02335,-0.03922,-0.02258,0.00854,-0.05341
4.876,0.03616,-0.00931,-0.05753,0.00687,-0.04868,-0.05386,-0.01984,0.01907,-0.01404,0.09521,-0.03479,0.01083,-0.0383,-0.02594,0.00015,-0.05417
4.8765,0.04272,-0.01068,-0.05661,0.01038,-0.03021,-0.05432,-0.01923,0.009,-0.01236,0.07462,-0.05692,-0.0383,-0.02258,-0.0267,0.00107,-0.0531
4.877,0.04776,-0.01389,-0.04974,0.01434,-0.01419,-0.05463,-0.02014,-0.00061,-0.01007,0.05463,-0.0705,-0.0798,-0.00031,-0.02396,0.00702,-0.05524
4.8775,0.05142,-0.01846,-0.03952,0.01999,-0.00961,-0.05173,-0.02151,-0.00549,-0.00702,0.04074,-0.07736,-0.06454,0.01175,-0.01526,0.0119,-0.06409
4.878,0.05539,-0.02213,-0.03632,0.02167,-0.01862,-0.04959,-0.02029,-0.00641,-0.0032,0.03464,-0.07797,0.00687,0.00519,-0.00427,0.01266,-0.0737
4.8785,0.06012,-0.0267,-0.04227,0.01633,-0.02945,-0.0473,-0.01678,-0.00107,-0.00015,0.02869,-0.07614,0.08011,-0.01602,0.0032,0.0145,-0.0769
4.879,0.06409,-0.03464,-0.05157,0.00671,-0.0293,-0.04791,-0.01389,0.01709,0.00076,0.02106,-0.07278,0.09857,-0.04181,-0.00137,0.0209,-0.06989
4.8795,0.06775,-0.04456,-0.05478,-0.00366,-0.01999,-0.04639,-0.01389,0.03769,-0.00198,0.01038,-0.065,0.06424,-0.06134,-0.0145,0.03189,-0.05753
4.88,0.06912,-0.05203,-0.05035,-0.01251,-0.01144,-0.04456,-0.01419,0.03632,-0.00687,0.00061,-0.05157,0.03128,-0.06912,-0.02609,0.03967,-0.04562
4.8805,0.06729,-0.05188,-0.04242,-0.01923,-0.00824,-0.04532,-0.01389,0.00031,-0.01068,-0.00504,-0.03723,0.03937,-0.06699,-0.03036,0.03448,-0.03723
4.881,0.06592,-0.047,-0.03403,-0.02319,-0.01068,-0.047,-0.01404,-0.04608,-0.01144,-0.00946,-0.02686,0.08133,-0.05905,-0.02808,0.01877,-0.03342
4.8815,0.0647,-0.04303,-0.02792,-0.02487,-0.0145,-0.04745,-0.01297,-0.07065,-0.00977,-0.01434,-0.02045,0.10498,-0.0473,-0.02335,0.0032,-0.03525
4.882,0.0647,-0.04318,-0.02365,-0.0267,-0.01892,-0.04623,-0.0116,-0.0705,-0.0087,-0.02075,-0.01495,0.0647,-0.03342,-0.01984,-0.00168,-0.03952
4.8825,0.06363,-0.04471,-0.02014,-0.0296,-0.02106,-0.04669,-0.01068,-0.06287,-0.009,-0.0238,-0.0058,-0.02136,-0.02167,-0.0174,-0.00229,-0.04471
4.883,0.0618,-0.04532,-0.01984,-0.03174,-0.02182,-0.0502,-0.01144,-0.06317,-0.01251,-0.02319,0.00183,-0.08087,-0.01648,-0.01587,-0.00534,-0.05463
4.8835,0.0621,-0.04486,-0.02228,-0.03372,-0.01984,-0.0528,-0.01434,-0.06943,-0.01953,-0.02075,0.00443,-0.07324,-0.01556,-0.01648,-0.00977,-0.06821
4.884,0.06546,-0.04654,-0.02701,-0.03464,-0.01312,-0.05249,-0.01602,-0.06851,-0.02716,-0.02228,-0.00244,-0.03006,-0.01205,-0.01862,-0.00885,-0.07294
4.8845,0.0705,-0.04913,-0.02945,-0.03586,-0.00412,-0.05173,-0.01633,-0.04288,-0.02991,-0.02502,-0.01068,0.00122,-0.00488,-0.02075,0.00168,-0.05722
4.885,0.07263,-0.05264,-0.02838,-0.03555,0.00473,-0.0502,-0.01495,0.0087,-0.02594,-0.02762,-0.01083,0.01419,-0.00198,-0.02106,0.01343,-0.02533
4.8855,0.0705,-0.05829,-0.02396,-0.03204,0.00717,-0.04929,-0.01541,0.05981,-0.01999,-0.02747,-0.00336,0.01526,-0.00961,-0.01999,0.02106,0.00488
4.886,0.06836,-0.07065,-0.02304,-0.02731,-0.00015,-0.04669,-0.01663,0.06821,-0.01465,-0.02945,0.00534,-0.00992,-0.01999,-0.01633,0.02213,0.01175
4.8865,0.06683,-0.08514,-0.02533,-0.02457,-0.01816,-0.04425,-0.01709,0.02274,-0.01266,-0.03326,0.009,-0.06973,-0.02502,-0.01083,0.02014,-0.01114
4.887,0.06516,-0.0943,-0.02701,-0.02716,-0.04761,-0.0415,-0.01602,-0.04486,-0.0116,-0.03876,0.00885,-0.11688,-0.02625,-0.00641,0.01648,-0.04623
4.8875,0.06012,-0.09354,-0.02747,-0.03006,-0.07202,-0.04211,-0.01587,-0.09247,-0.01175,-0.04227,0.00717,-0.08698,-0.03159,-0.00763,0.01236,-0.06714
4.888,0.05402,-0.08423,-0.0264,-0.02914,-0.0766,-0.04364,-0.01556,-0.09964,-0.0145,-0.04456,0.00854,-0.00214,-0.03983,-0.01648,0.01236,-0.06729
4.8885,0.04913,-0.07294,-0.02625,-0.02457,-0.05859,-0.04623,-0.01328,-0.07126,-0.01862,-0.04669,0.0116,0.04929,-0.04364,-0.02716,0.01556,-0.05676
4.889,0.04532,-0.06348,-0.0267,-0.01968,-0.03632,-0.04684,-0.01022,-0.0177,-0.02182,-0.05005,0.02029,0.04074,-0.04059,-0.03265,0.01541,-0.04639
4.8895,0.04211,-0.05371,-0.02838,-0.01709,-0.02411,-0.04456,-0.00961,0.04715,-0.02289,-0.05096,0.03021,0.03738,-0.03418,-0.03082,0.01297,-0.03983
4.89,0.03952,-0.04196,-0.03128,-0.01694,-0.01831,-0.04227,-0.0119,0.09796,-0.0238,-0.04822,0.03647,0.07431,-0.02655,-0.02411,0.01007,-0.03952
4.8905,0.0386,-0.02853,-0.0351,-0.01694,-0.01053,-0.0415,-0.01434,0.10773,-0.02396,-0.04333,0.03387,0.10208,-0.01984,-0.0177,0.00931,-0.05051
4.891,0.03784,-0.01831,-0.03754,-0.01801,0.00153,-0.04227,-0.01511,0.07309,-0.02106,-0.0386,0.02548,0.07248,-0.0148,-0.0148,0.0087,-0.06912
4.8915,0.03555,-0.01373,-0.0386,-0.0206,0.01297,-0.0412,-0.01373,0.02243,-0.01816,-0.0325,0.01968,0.01312,-0.01343,-0.01526,0.00717,-0.08331
4.892,0.03204,-0.01389,-0.0383,-0.02487,0.01923,-0.04059,-0.01328,-0.00671,-0.01572,-0.0293,0.02075,-0.01678,-0.01511,-0.01938,0.00565,-0.07645
4.8925,0.03159,-0.01358,-0.03708,-0.03036,0.02289,-0.04166,-0.01282,0.0,-0.01373,-0.02823,0.02686,-0.0029,-0.01923,-0.02518,0.00427,-0.04684
4.893,0.03281,-0.01144,-0.0354,-0.03494,0.02457,-0.04379,-0.01221,0.02228,-0.01114,-0.02731,0.03036,0.02731,-0.02594,-0.02716,0.00259,-0.01541
4.8935,0.03128,-0.00992,-0.0354,-0.04059,0.02289,-0.04623,-0.01038,0.03326,-0.00748,-0.02701,0.02899,0.04395,-0.0351,-0.02594,0.00107,-0.00443
4.894,0.02777,-0.01175,-0.03586,-0.04547,0.00992,-0.04944,-0.00763,0.02899,-0.00427,-0.02884,0.02151,0.03998,-0.04364,-0.02441,0.00107,-0.01205
4.8945,0.02411,-0.01617,-0.03738,-0.04715,-0.01236,-0.05096,-0.00671,0.01907,-0.00168,-0.03723,0.00839,0.0235,-0.0499,-0.02335,0.00549,-0.01678
4.895,0.02258,-0.02167,-0.03601,-0.04456,-0.03555,-0.05157,-0.00839,0.009,0.00031,-0.0499,-0.01129,0.0061,-0.0531,-0.02136,0.01358,-0.00748
4.8955,0.02274,-0.02686,-0.0325,-0.03723,-0.04211,-0.05173,-0.01083,-0.00092,0.00046,-0.06134,-0.03937,-0.0058,-0.0499,-0.01709,0.02121,0.00519
4.896,0.02426,-0.03235,-0.02136,-0.02792,-0.03937,-0.05173,-0.01297,-0.00778,0.00183,-0.07263,-0.06897,-0.01328,-0.03555,-0.01282,0.02518,0.00809
4.8965,0.02487,-0.03677,-0.00473,-0.02258,-0.04196,-0.05188,-0.01526,-0.00687,0.00259,-0.08484,-0.08636,-0.01083,-0.01312,-0.01343,0.02533,0.00046
4.897,0.02289,-0.03876,0.01617,-0.02441,-0.06088,-0.05005,-0.01785,-0.00198,0.00519,-0.10361,-0.08148,0.00229,0.00366,-0.01892,0.02533,-0.01144
4.8975,0.01938,-0.03784,0.03693,-0.03418,-0.09171,-0.0499,-0.02167,0.00244,0.0029,-0.12512,-0.06058,0.00198,0.00305,-0.0238,0.02365,-0.02548
4.898,0.01572,-0.03738,0.05798,-0.04578,-0.11185,-0.05157,-0.02563,0.00549,-0.00793,-0.14648,-0.04105,-0.03738,-0.01556,-0.02274,0.01175,-0.04501
4.8985,0.01312,-0.03754,0.06973,-0.05417,-0.103,-0.05478,-0.02792,0.00809,-0.0238,-0.1593,-0.03632,-0.09415,-0.04501,-0.00793,-0.01205,-0.0676
4.899,0.00931,-0.03601,0.05615,-0.05493,-0.06729,-0.05508,-0.02609,0.00885,-0.03632,-0.15091,-0.04318,-0.12436,-0.07202,0.0148,-0.03555,-0.08408
4.8995,0.0058,-0.03326,0.01602,-0.05295,-0.03571,-0.05203,-0.02304,0.00336,-0.04196,-0.11169,-0.0473,-0.11887,-0.08667,0.02335,-0.03998,-0.08804
4.9,0.00366,-0.03387,-0.03448,-0.05005,-0.0293,-0.04593,-0.02045,-0.00717,-0.04288,-0.04395,-0.0412,-0.0943,-0.07904,-0.00122,-0.03174,-0.07904
4.9005,0.00244,-0.03906,-0.07706,-0.03769,-0.04028,-0.04288,-0.01984,-0.0177,-0.04135,0.03876,-0.03174,-0.04593,-0.05295,-0.04242,-0.02884,-0.06485
4.901,-0.00107,-0.04669,-0.10468,-0.00473,-0.04562,-0.04349,-0.01938,-0.02487,-0.03754,0.1152,-0.02548,0.02609,-0.01923,-0.06317,-0.03708,-0.05219
4.9015,-0.01053,-0.0531,-0.11841,0.04028,-0.03799,-0.04593,-0.0174,-0.02563,-0.03433,0.17258,-0.01953,0.07217,0.00473,-0.04929,-0.03647,-0.04364
4.902,-0.02121,-0.05646,-0.11948,0.06912,-0.02258,-0.04776,-0.01572,-0.02121,-0.0351,0.20432,-0.00916,0.03815,0.00412,-0.02182,-0.01526,-0.04486
4.9025,-0.02884,-0.05783,-0.10941,0.06393,-0.00687,-0.04822,-0.01572,-0.01556,-0.03967,0.20187,0.00183,-0.06927,-0.02533,-0.00793,0.01175,-0.06088
4.903,-0.03098,-0.05844,-0.09521,0.04242,0.00336,-0.04929,-0.01678,-0.01099,-0.04562,0.14801,0.00778,-0.19577,-0.06912,-0.01068,0.02075,-0.0943
4.9035,-0.02914,-0.05692,-0.08347,0.03281,0.00076,-0.05142,-0.01709,-0.00778,-0.04974,0.04868,0.00809,-0.289,-0.09903,-0.02014,0.01511,-0.13214
4.904,-0.02686,-0.05371,-0.07614,0.0386,-0.01572,-0.05341,-0.01724,-0.0058,-0.04822,-0.06348,0.00732,-0.31433,-0.09872,-0.0264,0.01389,-0.15549
4.9045,-0.02441,-0.04929,-0.06989,0.04349,-0.03372,-0.05203,-0.0174,-0.00519,-0.04105,-0.14435,0.0061,-0.2562,-0.07477,-0.02869,0.02472,-0.14648
4.905,-0.02274,-0.04517,-0.05997,0.03845,-0.03601,-0.04776,-0.01801,-0.00824,-0.02899,-0.17853,-0.00183,-0.11917,-0.04715,-0.02579,0.04379,-0.08652
4.9055,-0.02365,-0.04272,-0.04807,0.0293,-0.01923,-0.04456,-0.01755,-0.01236,-0.01755,-0.17715,-0.02258,0.06073,-0.0267,-0.02136,0.05936,0.0325
4.906,-0.02487,-0.04379,-0.0386,0.02319,0.00366,-0.04349,-0.01724,-0.01465,-0.01099,-0.15091,-0.05234,0.22644,-0.01801,-0.02014,0.05722,0.1532
4.9065,-0.02457,-0.0444,-0.03326,0.01846,0.02319,-0.04272,-0.01709,-0.01511,-0.00992,-0.1004,-0.07401,0.32562,-0.02365,-0.0206,0.03357,0.18051
4.907,-0.02243,-0.04318,-0.03357,0.0116,0.0441,-0.04181,-0.01678,-0.01266,-0.01114,-0.03174,-0.07019,0.32837,-0.0386,-0.02075,0.00763,0.09705
4.9075,-0.02121,-0.04166,-0.03799,0.00305,0.06516,-0.03906,-0.01633,-0.01144,-0.0145,0.03876,-0.04333,0.22736,-0.05142,-0.01785,0.00198,-0.01129
4.908,-0.02029,-0.04196,-0.04456,-0.00595,0.07156,-0.03815,-0.01465,-0.01068,-0.01816,0.10223,-0.01923,0.05951,-0.05356,-0.01358,0.00504,-0.06973
4.9085,-0.01648,-0.04227,-0.04959,-0.01465,0.04471,-0.04105,-0.01404,-0.00885,-0.01663,0.15396,-0.01068,-0.08026,-0.04608,-0.009,-0.00443,-0.10712
4.909,-0.0119,-0.04242,-0.04776,-0.02136,-0.01877,-0.04684,-0.01434,-0.00702,-0.01038,0.18692,-0.01099,-0.09796,-0.03632,-0.00626,-0.01938,-0.17563
4.9095,-0.00763,-0.04074,-0.04089,-0.02625,-0.09628,-0.05402,-0.01373,-0.00656,-0.00229,0.19608,-0.00854,-0.00305,-0.02335,-0.00702,-0.02396,-0.24857
4.91,-0.00397,-0.03967,-0.0351,-0.03174,-0.15564,-0.05814,-0.01251,-0.00809,0.00015,0.18158,-0.00381,0.1001,-0.00687,-0.01038,-0.01343,-0.25513
4.9105,-0.00244,-0.04059,-0.03265,-0.03723,-0.17365,-0.05798,-0.01083,-0.00977,-0.00412,0.15121,-0.00046,0.13535,0.00687,-0.01373,-0.00031,-0.1738
4.911,-0.00198,-0.04242,-0.03052,-0.04242,-0.14481,-0.05676,-0.00824,-0.00992,-0.01175,0.10849,0.00153,0.11826,0.00519,-0.01572,0.00519,-0.05203
4.9115,-0.00549,-0.04333,-0.02686,-0.04532,-0.08789,-0.05768,-0.00534,-0.009,-0.01724,0.05432,0.00244,0.09369,-0.01434,-0.01709,0.00793,0.04593
4.912,-0.01144,-0.04425,-0.02365,-0.04532,-0.04288,-0.05859,-0.00519,-0.00717,-0.01785,0.0032,-0.00015,0.07065,-0.03937,-0.01907,0.01648,0.09628
4.9125,-0.01877,-0.04761,-0.02167,-0.04242,-0.03143,-0.05707,-0.00916,-0.00732,-0.01343,-0.02869,-0.00412,0.03952,-0.05203,-0.0206,0.0296,0.11139
4.913,-0.02731,-0.05432,-0.01984,-0.03159,-0.03967,-0.05325,-0.01633,-0.00839,-0.00824,-0.0412,-0.00549,0.01007,-0.04578,-0.02106,0.03967,0.10773
4.9135,-0.03693,-0.06424,-0.01663,-0.01221,-0.04135,-0.05142,-0.02228,-0.00763,-0.00595,-0.04715,-0.00412,-0.00381,-0.03235,-0.02106,0.04028,0.09811
4.914,-0.04471,-0.07339,-0.0177,0.00458,-0.03479,-0.05127,-0.02625,-0.00519,-0.00549,-0.0531,-0.0029,-0.00488,-0.02396,-0.02243,0.03281,0.0824
4.9145,-0.04852,-0.07751,-0.02319,0.01038,-0.02884,-0.05203,-0.03021,-0.00366,-0.00351,-0.05524,-0.00381,-0.00427,-0.02441,-0.02472,0.02945,0.05875
4.915,-0.05035,-0.0737,-0.02716,0.00839,-0.02701,-0.05081,-0.0351,-0.00458,0.00076,-0.05402,-0.00473,-0.00488,-0.02625,-0.02335,0.03128,0.03052
4.9155,-0.05173,-0.06607,-0.02686,0.00443,-0.02609,-0.04852,-0.03891,-0.00732,0.00412,-0.05203,-0.00549,-0.00519,-0.02457,-0.02014,0.02335,0.00046
4.916,-0.05463,-0.05859,-0.02487,-0.00183,-0.02594,-0.04501,-0.03876,-0.01328,0.00275,-0.0531,-0.00748,-0.00809,-0.0235,-0.01831,0.009,-0.0322
4.9165,-0.06027,-0.05035,-0.02533,-0.01282,-0.02563,-0.04135,-0.0322,-0.02335,-0.00031,-0.05585,-0.00885,-0.01831,-0.02609,-0.01862,0.00122,-0.06516
4.917,-0.06378,-0.04089,-0.02747,-0.02914,-0.02548,-0.03845,-0.01999,-0.03448,-0.00183,-0.05966,-0.01007,-0.03601,-0.02701,-0.01846,0.00458,-0.09003
4.9175,-0.06104,-0.02945,-0.0296,-0.04349,-0.02548,-0.03967,-0.00214,-0.0386,0.00076,-0.06149,-0.01083,-0.05554,-0.02304,-0.0177,0.00748,-0.09598
4.918,-0.05188,-0.01907,-0.03143,-0.05066,-0.02991,-0.04303,0.01373,-0.0322,0.00626,-0.06439,-0.009,-0.06729,-0.01801,-0.01587,0.00397,-0.08926
4.9185,-0.04089,-0.01266,-0.03098,-0.05112,-0.0296,-0.0441,0.0177,-0.01694,0.0087,-0.07126,-0.0029,-0.06287,-0.01694,-0.01694,0.00229,-0.08957
4.919,-0.03464,-0.00946,-0.02686,-0.04761,-0.01602,-0.04181,0.00946,0.00397,0.00656,-0.08224,0.00397,-0.04074,-0.01785,-0.01877,0.00397,-0.10452
4.9195,-0.03525,-0.00793,-0.02213,-0.04166,0.01282,-0.03845,-0.00015,0.0235,0.00046,-0.09781,0.00824,-0.01282,-0.01923,-0.02106,0.00732,-0.10941
4.92,-0.03891,-0.00839,-0.02029,-0.03448,0.04395,-0.03525,-0.00381,0.0322,-0.0058,-0.11612,0.00671,0.00824,-0.02426,-0.02243,0.00793,-0.08438
4.9205,-0.04059,-0.01175,-0.02151,-0.02853,0.06088,-0.03159,-0.00229,0.02441,-0.01083,-0.13489,0.00153,0.01755,-0.03601,-0.02319,0.00671,-0.04486
4.921,-0.04028,-0.01648,-0.02289,-0.02502,0.05508,-0.02945,-0.00305,0.0058,-0.01358,-0.15045,-0.00198,0.02106,-0.04852,-0.02289,0.0058,-0.02762
4.9215,-0.03876,-0.02213,-0.02243,-0.02457,0.0296,-0.02991,-0.0058,-0.01068,-0.01602,-0.15335,-0.0032,0.01968,-0.05371,-0.02228,0.00488,-0.03723
4.922,-0.0383,-0.02579,-0.02243,-0.03082,-0.01221,-0.03479,-0.00793,-0.01587,-0.01999,-0.13702,-0.00519,0.00397,-0.05142,-0.02075,0.00412,-0.05203
4.9225,-0.03647,-0.02838,-0.0235,-0.04349,-0.06851,-0.04303,-0.00824,-0.01114,-0.0267,-0.10773,-0.00809,-0.03006,-0.0444,-0.02014,0.00214,-0.05447
4.923,-0.03342,-0.03281,-0.02563,-0.05417,-0.12161,-0.04974,-0.00748,0.0,-0.03326,-0.07767,-0.01129,-0.06699,-0.03357,-0.01984,0.00275,-0.04761
4.9235,-0.03082,-0.04013,-0.02289,-0.05295,-0.14404,-0.05249,-0.00717,0.00732,-0.04074,-0.05081,-0.01266,-0.08484,-0.02151,-0.01999,0.00275,-0.04501
4.924,-0.03067,-0.05112,-0.01312,-0.03967,-0.12268,-0.05341,-0.00763,0.0087,-0.04639,-0.02304,-0.01663,-0.07874,-0.01511,-0.02167,0.00397,-0.04715
4.9245,-0.03128,-0.06409,-0.00366,-0.02289,-0.07523,-0.05173,-0.0087,0.00549,-0.05112,0.00671,-0.02274,-0.06165,-0.01938,-0.02411,0.00473,-0.04883
4.925,-0.03021,-0.07019,-0.00809,-0.00793,-0.03738,-0.04959,-0.00977,0.00137,-0.05264,0.03082,-0.03021,-0.04654,-0.03098,-0.02472,0.00671,-0.04623
4.9255,-0.02777,-0.06699,-0.02792,0.00198,-0.02457,-0.04562,-0.0148,-0.00092,-0.04959,0.04059,-0.03311,-0.01892,-0.04166,-0.02289,0.00748,-0.04211
4.926,-0.02518,-0.05814,-0.04868,0.00732,-0.02853,-0.04166,-0.02502,-0.00031,-0.04395,0.04227,-0.03052,0.03723,-0.04547,-0.01999,0.00687,-0.03952
4.9265,-0.02258,-0.04852,-0.06012,0.01175,-0.03265,-0.03906,-0.03418,0.00092,-0.03769,0.04608,-0.02365,0.09216,-0.03922,-0.01648,0.00336,-0.04074
4.927,-0.02213,-0.03952,-0.05981,0.0206,-0.04135,-0.03906,-0.03479,0.00122,-0.02914,0.05005,-0.01343,0.08972,-0.02609,-0.01266,0.00229,-0.04425
4.9275,-0.02258,-0.02869,-0.056,0.03906,-0.05692,-0.04227,-0.02808,-0.00107,-0.01831,0.04425,0.00031,0.03372,-0.01343,-0.01038,0.00351,-0.04547
4.928,-0.02304,-0.01526,-0.05264,0.05737,-0.06592,-0.04501,-0.02075,-0.00534,-0.00839,0.02274,0.0267,-0.00626,-0.0119,-0.00961,0.00519,-0.04227
4.9285,-0.02274,-0.0058,-0.04837,0.05753,-0.05585,-0.04639,-0.01831,-0.00916,-0.00443,-0.00626,0.06851,0.01144,-0.02136,-0.01221,0.00702,-0.03845
4.929,-0.02304,-0.0058,-0.03586,0.03433,-0.03326,-0.04578,-0.01846,-0.0116,-0.00641,-0.03204,0.11017,0.05295,-0.03433,-0.01602,0.00931,-0.03815
4.9295,-0.02457,-0.01389,-0.01663,0.00839,-0.02151,-0.04654,-0.01328,-0.01053,-0.00854,-0.04852,0.12741,0.0705,-0.04501,-0.01801,0.01129,-0.0415
4.93,-0.02792,-0.0238,-0.00336,0.00061,-0.03174,-0.04745,0.0,-0.00839,-0.00931,-0.05569,0.11185,0.06851,-0.05447,-0.0177,0.01251,-0.04379
4.9305,-0.03128,-0.03174,-0.00839,0.00671,-0.05554,-0.0502,0.01648,-0.0061,-0.00778,-0.05722,0.07263,0.08163,-0.065,-0.01816,0.01007,-0.04456
4.931,-0.03372,-0.03677,-0.02655,0.01358,-0.07416,-0.05264,0.02228,-0.00458,-0.00671,-0.05493,0.02274,0.10284,-0.06775,-0.0206,0.00275,-0.04471
4.9315,-0.03525,-0.04105,-0.04395,0.01541,-0.07339,-0.0528,0.01312,-0.00366,-0.00702,-0.04486,-0.0322,0.08484,-0.05585,-0.02274,-0.00732,-0.04684
4.932,-0.03525,-0.04547,-0.05417,0.01495,-0.0502,-0.05142,-0.00122,-0.00443,-0.00885,-0.02167,-0.08423,0.0206,-0.03662,-0.02182,-0.01251,-0.05234
4.9325,-0.03632,-0.04898,-0.0592,0.01434,-0.0148,-0.04929,-0.00961,-0.009,-0.0119,0.01602,-0.12665,-0.03052,-0.02731,-0.01923,-0.0061,-0.06592
4.933,-0.03647,-0.05051,-0.06134,0.01251,0.01297,-0.04547,-0.01816,-0.01785,-0.0148,0.05783,-0.14771,-0.01953,-0.02838,-0.01785,0.00534,-0.09308
4.9335,-0.03189,-0.05188,-0.05859,0.00931,0.02472,-0.04562,-0.03464,-0.02731,-0.01694,0.09003,-0.14526,0.02045,-0.02899,-0.01633,0.01266,-0.13092
4.934,-0.0235,-0.05203,-0.05173,0.00793,0.02029,-0.047,-0.04822,-0.03372,-0.01633,0.10406,-0.12695,0.01114,-0.02304,-0.01602,0.0119,-0.15701
4.9345,-0.01572,-0.04868,-0.04471,0.00641,0.01007,-0.04913,-0.03967,-0.03571,-0.01465,0.10361,-0.1059,-0.06256,-0.01846,-0.01617,0.00809,-0.14938
4.935,-0.01129,-0.04227,-0.03891,0.00381,-0.0087,-0.05081,-0.01633,-0.03418,-0.01205,0.0856,-0.08987,-0.1329,-0.02151,-0.01678,0.00366,-0.10605
4.9355,-0.00931,-0.03708,-0.03967,0.00031,-0.03952,-0.05249,-0.00473,-0.03036,-0.00809,0.05661,-0.07553,-0.13733,-0.02747,-0.01816,0.00473,-0.04211
4.936,-0.00656,-0.0351,-0.0412,-0.00259,-0.07355,-0.05524,-0.0145,-0.02686,-0.00336,0.02747,-0.05646,-0.09079,-0.03128,-0.0174,0.00351,0.01511
4.9365,-0.0058,-0.03494,-0.03967,-0.0032,-0.0972,-0.05722,-0.02579,-0.02213,0.00061,0.0087,-0.03555,-0.04395,-0.03128,-0.01633,0.00397,0.02655
4.937,-0.00519,-0.03601,-0.03571,-0.00214,-0.09949,-0.05707,-0.02411,-0.01068,0.00183,-0.00015,-0.0238,-0.02014,-0.03082,-0.01709,0.00443,-0.01434
4.9375,-0.00305,-0.03662,-0.03403,-0.00198,-0.08255,-0.05402,-0.01282,0.0116,0.00244,-0.01114,-0.02533,-0.01221,-0.03159,-0.02045,0.00427,-0.05051
4.938,0.00351,-0.03754,-0.03418,-0.00504,-0.05676,-0.05096,-0.00275,0.04028,0.00412,-0.02396,-0.0351,-0.01144,-0.0322,-0.02411,0.0029,-0.01923
4.9385,0.01205,-0.03784,-0.03616,-0.01328,-0.0322,-0.04868,0.00183,0.05661,0.00626,-0.03372,-0.04227,-0.01816,-0.03281,-0.02426,0.00015,0.04593
4.939,0.01999,-0.0383,-0.03876,-0.02563,-0.01724,-0.04684,0.00015,0.05005,0.00748,-0.0386,-0.04135,-0.03189,-0.03372,-0.02197,-0.00214,0.0676
4.9395,0.02747,-0.03754,-0.04181,-0.03479,-0.01144,-0.04593,-0.00961,0.02563,0.00793,-0.04211,-0.03494,-0.0531,-0.03464,-0.02106,-0.00259,0.02808
4.94,0.03418,-0.03632,-0.04242,-0.03754,-0.01251,-0.04562,-0.02808,0.00259,0.0061,-0.04791,-0.02411,-0.09094,-0.03448,-0.02106,0.00076,-0.01465
4.9405,0.03708,-0.03693,-0.03952,-0.03586,-0.01617,-0.04486,-0.0473,-0.00885,0.00122,-0.05417,-0.01251,-0.14725,-0.03418,-0.02151,0.00519,-0.02228
4.941,0.03632,-0.03815,-0.03479,-0.03189,-0.01862,-0.04456,-0.05096,-0.0087,-0.00412,-0.05676,-0.00259,-0.19562,-0.03723,-0.02197,0.00931,-0.01526
4.9415,0.03479,-0.03998,-0.03082,-0.02609,-0.01999,-0.04593,-0.02945,-0.00122,-0.01053,-0.05569,0.00183,-0.20004,-0.04166,-0.02197,0.01129,-0.01755
4.942,0.0354,-0.04166,-0.0293,-0.01877,-0.0209,-0.04868,0.00137,0.00824,-0.0145,-0.05325,0.00092,-0.14175,-0.04471,-0.02167,0.01343,-0.02319
4.9425,0.03616,-0.04288,-0.02777,-0.01129,-0.02228,-0.04898,0.01419,0.01617,-0.01678,-0.05081,-0.00534,-0.03647,-0.04227,-0.01968,0.01663,-0.02274
4.943,0.03799,-0.04364,-0.01968,-0.00748,-0.02365,-0.04868,0.00381,0.01572,-0.01678,-0.04547,-0.01572,0.07874,-0.03677,-0.01617,0.01816,-0.02274
