time,RectFemL,VastusMedL,VastusLatL,TibAntL,HamMedL,HamLatL,GastroMedL,GastroLatL,RectFemR,VastusMedR,VastusLatR,TibAntR,HamMedR,HamLatR,GastroMedR,GastroLatR
4.0,-0.01419,-0.08896,-0.11963,0.21805,-0.01999,-0.03891,-0.01373,0.00198,-0.01556,-0.19363,-0.04013,0.00412,-0.02869,-0.01755,0.00961,-0.04257
4.0005,-0.01999,-0.07828,-0.10468,0.27527,-0.02075,-0.03815,-0.01328,0.00076,-0.01648,-0.17502,-0.03586,0.08759,-0.02777,-0.01892,0.00977,-0.04242
4.001,-0.01678,-0.06821,-0.10086,0.27283,-0.02197,-0.03799,-0.01251,0.0,-0.01633,-0.11703,-0.03464,0.19531,-0.02686,-0.01923,0.00961,-0.04318
4.0015,-0.00931,-0.05783,-0.11337,0.16464,-0.02182,-0.0386,-0.01129,0.00031,-0.01511,-0.05325,-0.0415,0.25711,-0.02548,-0.01862,0.00793,-0.04456
4.002,-0.00931,-0.04593,-0.13336,-0.00397,-0.02167,-0.03891,-0.01083,-0.00046,-0.01389,-0.00732,-0.05875,0.22385,-0.02411,-0.01694,0.00488,-0.04639
4.0025,-0.01938,-0.03876,-0.1474,-0.14053,-0.02213,-0.03922,-0.01205,-0.00183,-0.01175,0.02136,-0.08148,0.13275,-0.02579,-0.01495,0.00336,-0.04791
4.003,-0.02777,-0.04486,-0.14862,-0.20126,-0.02106,-0.03967,-0.0145,-0.00427,-0.00946,0.04196,-0.10193,0.07736,-0.02853,-0.01343,0.00366,-0.0473
4.0035,-0.02609,-0.06088,-0.13489,-0.21469,-0.01907,-0.03952,-0.0174,-0.00595,-0.00687,0.05753,-0.11215,0.11154,-0.03052,-0.01282,0.00504,-0.04639
4.004,-0.01343,-0.07248,-0.11124,-0.20645,-0.01709,-0.03952,-0.0177,-0.00534,-0.00549,0.06683,-0.10635,0.18188,-0.02792,-0.01389,0.00626,-0.04578
4.0045,0.00381,-0.06332,-0.0853,-0.15717,-0.01694,-0.03967,-0.0174,-0.00244,-0.00671,0.06989,-0.08759,0.19989,-0.02533,-0.0148,0.0058,-0.04715
4.005,0.01953,-0.03891,-0.06165,-0.06058,-0.01877,-0.04074,-0.0174,0.00031,-0.00793,0.06607,-0.06668,0.14709,-0.02625,-0.0148,0.00565,-0.04883
4.0055,0.0293,-0.01953,-0.04135,0.02396,-0.01984,-0.04318,-0.0177,-0.00061,-0.00839,0.05539,-0.05173,0.07172,-0.02914,-0.01328,0.00626,-0.04944
4.006,0.02991,-0.0206,-0.02411,0.03784,-0.02167,-0.04532,-0.01648,-0.00168,-0.00595,0.04257,-0.04395,0.00351,-0.03128,-0.0116,0.00687,-0.04868
4.0065,0.0264,-0.03723,-0.01038,0.00839,-0.02335,-0.04547,-0.01495,-0.00259,-0.0029,0.03098,-0.04181,-0.08423,-0.03128,-0.01221,0.00839,-0.0473
4.007,0.0267,-0.05219,0.00854,0.00656,-0.02396,-0.04562,-0.01419,-0.00214,-0.00183,0.02243,-0.04318,-0.2179,-0.02884,-0.0145,0.00885,-0.04578
4.0075,0.03662,-0.05402,0.04623,0.0412,-0.02502,-0.047,-0.01312,-0.00183,-0.00366,0.01572,-0.04776,-0.36804,-0.02762,-0.01602,0.0087,-0.04547
4.008,0.04608,-0.04517,0.0972,0.0589,-0.02655,-0.04715,-0.01312,-0.00214,-0.00626,0.00763,-0.0563,-0.46982,-0.02777,-0.01541,0.0087,-0.04578
4.0085,0.04578,-0.03708,0.12543,0.01678,-0.02747,-0.04639,-0.01236,-0.00336,-0.009,-0.0029,-0.06699,-0.47394,-0.0296,-0.01495,0.01007,-0.04639
4.009,0.03647,-0.03723,0.10284,-0.05341,-0.02762,-0.04486,-0.01282,-0.00412,-0.0116,-0.01205,-0.07492,-0.36911,-0.03067,-0.01663,0.01251,-0.04456
4.0095,0.02884,-0.04074,0.0499,-0.06958,-0.02731,-0.04318,-0.01389,-0.00549,-0.0148,-0.0209,-0.08286,-0.19577,-0.03128,-0.01663,0.01511,-0.04227
4.01,0.02731,-0.04059,0.01587,-0.01038,-0.02655,-0.04288,-0.01526,-0.00793,-0.01968,-0.03036,-0.09476,-0.02136,-0.03281,-0.01648,0.01404,-0.03983
4.0105,0.02106,-0.03006,0.04562,0.04959,-0.02762,-0.04349,-0.0174,-0.00961,-0.02701,-0.04761,-0.11902,0.121,-0.03403,-0.01785,0.01007,-0.04135
4.011,0.00244,-0.01251,0.13123,0.08072,-0.02869,-0.04395,-0.0174,-0.00839,-0.03204,-0.07202,-0.16357,0.23483,-0.03372,-0.02045,0.00702,-0.04364
4.0115,-0.02243,0.0058,0.20523,0.15579,-0.02884,-0.04425,-0.01694,-0.0058,-0.03098,-0.09003,-0.21774,0.30426,-0.03342,-0.02228,0.0061,-0.04654
4.012,-0.03922,0.02167,0.19928,0.27664,-0.02945,-0.04364,-0.01328,-0.00351,-0.02655,-0.08316,-0.24887,0.29404,-0.03418,-0.02167,0.00595,-0.04822
4.0125,-0.04242,0.03372,0.11429,0.28305,-0.03113,-0.04333,-0.00885,-0.00198,-0.02243,-0.05112,-0.24155,0.22049,-0.03464,-0.01968,0.00656,-0.04868
4.013,-0.03815,0.03891,0.01328,0.04257,-0.03143,-0.04456,-0.00473,-0.00092,-0.01984,-0.01312,-0.22202,0.16037,-0.03296,-0.01785,0.0061,-0.04868
4.0135,-0.03128,0.03677,-0.05173,-0.33493,-0.03296,-0.0473,-0.00519,-0.00092,-0.01862,0.01144,-0.21042,0.16129,-0.03036,-0.01709,0.0058,-0.04822
4.014,-0.02319,0.02869,-0.07706,-0.56976,-0.03555,-0.04883,-0.01129,-0.00107,-0.01755,0.0174,-0.18875,0.1857,-0.02975,-0.0174,0.00595,-0.04822
4.0145,-0.01495,0.01938,-0.07385,-0.45517,-0.0386,-0.04929,-0.01862,-0.00305,-0.01862,0.01495,-0.13702,0.16815,-0.03036,-0.01816,0.00641,-0.04944
4.015,-0.00916,0.01328,-0.03281,-0.03723,-0.04044,-0.05005,-0.02274,-0.0061,-0.02075,0.0119,-0.06851,0.1004,-0.03036,-0.01816,0.00641,-0.04959
4.0155,-0.00748,0.01022,0.0412,0.40466,-0.03891,-0.05234,-0.02243,-0.00854,-0.02182,0.00854,-0.00931,0.02258,-0.02899,-0.01877,0.00656,-0.04913
4.016,-0.00748,0.00656,0.09796,0.58701,-0.0354,-0.05432,-0.02106,-0.00793,-0.01907,0.0061,0.0351,-0.02411,-0.02777,-0.01694,0.00809,-0.04761
4.0165,-0.00473,-0.00031,0.07935,0.45441,-0.03586,-0.05463,-0.01938,-0.0058,-0.01511,0.00351,0.06958,-0.02808,-0.02609,-0.01511,0.01007,-0.04501
4.017,0.0032,-0.00916,-0.00702,0.19501,-0.03738,-0.05432,-0.01831,-0.00427,-0.01312,0.00183,0.08911,-0.00092,-0.02609,-0.01511,0.01221,-0.04211
4.0175,0.01282,-0.01556,-0.09445,0.02365,-0.03891,-0.05447,-0.01633,-0.00397,-0.01434,0.00427,0.09048,0.0325,-0.02655,-0.01602,0.01297,-0.04044
4.018,0.02213,-0.01984,-0.12863,-0.02121,-0.04135,-0.05615,-0.01434,-0.00488,-0.0174,0.00854,0.07416,0.04929,-0.02792,-0.01617,0.01328,-0.04074
4.0185,0.03021,-0.02411,-0.11581,-0.04288,-0.04395,-0.05707,-0.01358,-0.00565,-0.02121,0.01053,0.04807,0.02228,-0.02914,-0.01709,0.01221,-0.04333
4.019,0.03723,-0.0293,-0.08743,-0.10391,-0.04532,-0.05646,-0.01526,-0.00641,-0.02243,0.00443,0.01862,-0.0795,-0.03082,-0.01938,0.00977,-0.04547
4.0195,0.03983,-0.03738,-0.06165,-0.16159,-0.04486,-0.05539,-0.01846,-0.0058,-0.01831,-0.00519,-0.01022,-0.2446,-0.03189,-0.02106,0.00839,-0.04562
4.02,0.03815,-0.04623,-0.03799,-0.17563,-0.0412,-0.0528,-0.02182,-0.00641,-0.01022,-0.01465,-0.03464,-0.39917,-0.03143,-0.01984,0.00717,-0.0444
4.0205,0.03479,-0.05249,-0.01953,-0.17715,-0.03891,-0.05127,-0.02319,-0.0061,-0.00229,-0.02319,-0.05753,-0.46021,-0.03143,-0.01755,0.00717,-0.04318
4.021,0.03235,-0.05188,-0.01526,-0.20264,-0.03845,-0.05096,-0.02106,-0.0032,0.00046,-0.03464,-0.07477,-0.41382,-0.03235,-0.01816,0.00854,-0.04471
4.0215,0.02502,-0.04349,-0.00854,-0.22797,-0.03998,-0.05005,-0.01648,0.00153,0.00061,-0.04776,-0.0795,-0.3038,-0.03311,-0.02075,0.01083,-0.04364
4.022,0.00519,-0.03754,0.03006,-0.20508,-0.04089,-0.04883,-0.01083,0.00519,0.00061,-0.05325,-0.06668,-0.15533,-0.03311,-0.0206,0.0116,-0.04196
4.0225,-0.02213,-0.04105,0.08606,-0.12726,-0.04059,-0.04837,-0.00595,0.00641,-0.00031,-0.04364,-0.04807,0.03326,-0.03159,-0.01816,0.01022,-0.04059
4.023,-0.04196,-0.0528,0.09094,-0.03601,-0.04059,-0.04944,-0.00443,0.00412,-0.00702,-0.02029,-0.05127,0.20508,-0.03067,-0.01617,0.00763,-0.0415
4.0235,-0.04379,-0.06332,0.01328,0.0235,-0.04135,-0.04944,-0.00565,0.00061,-0.01831,0.00626,-0.09903,0.26199,-0.03265,-0.01694,0.00534,-0.0441
4.024,-0.03906,-0.06958,-0.08026,0.05966,-0.04303,-0.04929,-0.00885,-0.00183,-0.0267,0.02518,-0.16205,0.19257,-0.03464,-0.01984,0.00397,-0.04593
4.0245,-0.0444,-0.07507,-0.10925,0.09796,-0.0444,-0.0499,-0.01236,-0.00336,-0.02655,0.02777,-0.17334,0.09644,-0.03616,-0.02243,0.00336,-0.04684
4.025,-0.06622,-0.08652,-0.08026,0.10696,-0.04425,-0.05127,-0.01526,-0.00412,-0.01831,0.01297,-0.10635,0.06592,-0.03662,-0.02335,0.00534,-0.04745
4.0255,-0.09247,-0.10406,-0.04303,0.04349,-0.04364,-0.05051,-0.01556,-0.00305,-0.00992,-0.00992,-0.00687,0.1033,-0.03799,-0.02319,0.00671,-0.04868
4.026,-0.10818,-0.11963,0.00015,-0.05295,-0.04364,-0.05066,-0.0148,-0.00198,-0.00702,-0.0325,0.0679,0.1564,-0.03922,-0.02197,0.00778,-0.04822
4.0265,-0.10498,-0.11856,0.05997,-0.09766,-0.04562,-0.05157,-0.01373,-0.00092,-0.01236,-0.05219,0.10559,0.18097,-0.03906,-0.02197,0.00778,-0.04562
4.027,-0.08606,-0.09781,0.08652,-0.08316,-0.04761,-0.05356,-0.01541,-0.00229,-0.0235,-0.07355,0.12161,0.16357,-0.03815,-0.02106,0.00931,-0.04379
4.0275,-0.05981,-0.06927,0.0209,-0.08408,-0.04791,-0.05447,-0.01953,-0.00534,-0.03983,-0.09476,0.12253,0.11261,-0.03723,-0.02228,0.00992,-0.04242
4.028,-0.0386,-0.04684,-0.10498,-0.13153,-0.04639,-0.05447,-0.02151,-0.00778,-0.05783,-0.112,0.13245,0.05295,-0.03723,-0.02335,0.01038,-0.04166
4.0285,-0.02487,-0.02914,-0.20279,-0.1413,-0.04364,-0.05386,-0.02167,-0.01007,-0.07095,-0.11963,0.21484,0.00122,-0.03677,-0.02441,0.0087,-0.0415
4.029,-0.01556,-0.00824,-0.22827,-0.03769,-0.04135,-0.05219,-0.02197,-0.01099,-0.07431,-0.11719,0.40543,-0.06012,-0.03586,-0.0235,0.0087,-0.04303
4.0295,-0.00519,0.01541,-0.20493,0.11826,-0.04211,-0.05096,-0.02304,-0.00931,-0.07095,-0.10818,0.63446,-0.15427,-0.0354,-0.02151,0.00916,-0.04379
4.03,0.0058,0.03174,-0.16678,0.19653,-0.04181,-0.05081,-0.02213,-0.00427,-0.06226,-0.09491,0.78842,-0.24887,-0.03387,-0.01907,0.01175,-0.04349
4.0305,0.01648,0.03189,-0.12604,0.16083,-0.04059,-0.05127,-0.01892,-0.00061,-0.0502,-0.08026,0.8371,-0.28091,-0.03128,-0.01694,0.0116,-0.04135
4.031,0.02701,0.02136,-0.08224,0.07721,-0.03845,-0.05112,-0.01617,0.00076,-0.03845,-0.06638,0.83923,-0.23453,-0.02853,-0.0148,0.01175,-0.04028
4.0315,0.03876,0.01068,-0.04288,0.00092,-0.03708,-0.05295,-0.01648,-0.00015,-0.03098,-0.05783,0.83786,-0.14648,-0.02731,-0.01358,0.0116,-0.03998
4.032,0.04868,0.00366,-0.01678,-0.06348,-0.03586,-0.05402,-0.01801,-0.0029,-0.0264,-0.05676,0.82565,-0.03677,-0.02823,-0.01419,0.01251,-0.03967
4.0325,0.05341,-0.00122,-0.00443,-0.11215,-0.03342,-0.05402,-0.01907,-0.00595,-0.02319,-0.056,0.80627,0.09064,-0.02991,-0.01648,0.01297,-0.03815
4.033,0.05203,-0.00549,-0.00046,-0.10239,-0.03082,-0.05325,-0.01816,-0.00763,-0.01892,-0.0502,0.80948,0.18707,-0.03098,-0.01801,0.01404,-0.03723
4.0335,0.0444,-0.00824,0.00122,0.03021,-0.03021,-0.05157,-0.01511,-0.00519,-0.01236,-0.03906,0.8493,0.18387,-0.03082,-0.01877,0.0119,-0.03769
4.034,0.0322,-0.01022,0.00198,0.27176,-0.0296,-0.05096,-0.00992,-0.00244,-0.00244,-0.02975,0.90576,0.08804,-0.03113,-0.01831,0.01068,-0.03983
4.0345,0.01862,-0.01068,-0.00061,0.43442,-0.02747,-0.04852,-0.00427,-0.00122,0.01099,-0.0238,0.95276,-0.01144,-0.03204,-0.01862,0.00854,-0.04181
4.035,0.00717,-0.0116,-0.00626,0.31769,-0.02502,-0.04639,-0.00107,-0.00168,0.02228,-0.01724,0.98328,-0.05722,-0.03265,-0.01923,0.00641,-0.04364
4.0355,0.0,-0.01434,-0.01419,0.01358,-0.0235,-0.04471,-0.00076,-0.00107,0.02274,-0.0061,0.99243,-0.065,-0.03326,-0.02151,0.00381,-0.04562
4.036,-0.00504,-0.02167,-0.02243,-0.14297,-0.02289,-0.04257,-0.00366,0.00046,0.01236,0.01175,0.97092,-0.05066,-0.03342,-0.02258,0.00351,-0.04883
4.0365,-0.009,-0.03479,-0.02975,-0.00671,-0.0235,-0.04227,-0.00702,0.00198,0.0,0.03448,0.91537,-0.00992,-0.03342,-0.0235,0.00366,-0.05035
4.037,-0.00854,-0.05188,-0.03494,0.19852,-0.02396,-0.04257,-0.00946,0.00076,-0.00519,0.0563,0.84061,0.0235,-0.03342,-0.02365,0.00565,-0.04791
4.0375,-0.0029,-0.06348,-0.03845,0.21729,-0.02289,-0.04349,-0.00961,-0.00351,-0.00198,0.06561,0.77377,-0.02136,-0.03296,-0.02426,0.00885,-0.04395
4.038,0.00519,-0.06409,-0.04395,0.09308,-0.02151,-0.04288,-0.01068,-0.00778,0.00061,0.06454,0.72678,-0.13657,-0.03387,-0.02579,0.01175,-0.03983
4.0385,0.01144,-0.05417,-0.05341,0.02823,-0.02106,-0.04257,-0.0119,-0.01038,-0.00031,0.06104,0.68375,-0.2124,-0.03494,-0.0264,0.01175,-0.03906
4.039,0.01465,-0.04257,-0.06195,0.0618,-0.02106,-0.04349,-0.01251,-0.01099,-0.00031,0.06683,0.63004,-0.18478,-0.03555,-0.02625,0.01099,-0.0412
4.0395,0.01465,-0.03448,-0.06195,0.04532,-0.02121,-0.0444,-0.01038,-0.00977,0.00565,0.08102,0.57083,-0.11963,-0.03525,-0.02502,0.01053,-0.04349
4.04,0.01282,-0.03571,-0.05753,-0.1004,-0.02167,-0.04303,-0.00748,-0.00717,0.01205,0.09048,0.51422,-0.11627,-0.03418,-0.02457,0.01205,-0.04395
4.0405,0.00854,-0.047,-0.05295,-0.24963,-0.02289,-0.03998,-0.00702,-0.00381,0.00809,0.0853,0.46173,-0.16891,-0.03403,-0.02457,0.01434,-0.04349
4.041,-0.00076,-0.06805,-0.05264,-0.25208,-0.02411,-0.03815,-0.00839,-0.00275,-0.00763,0.06683,0.40787,-0.17822,-0.03586,-0.02502,0.01587,-0.04181
4.0415,-0.01572,-0.08911,-0.05493,-0.15198,-0.02426,-0.03891,-0.00824,-0.0032,-0.02396,0.04333,0.35461,-0.08392,-0.03677,-0.02701,0.01602,-0.03998
4.042,-0.02884,-0.1001,-0.05493,-0.10864,-0.02457,-0.03922,-0.00717,-0.00626,-0.03098,0.01953,0.30258,0.06058,-0.03769,-0.02808,0.01419,-0.03937
4.0425,-0.0325,-0.09903,-0.04684,-0.16998,-0.02533,-0.03906,-0.00717,-0.00702,-0.02808,-0.00656,0.2475,0.1619,-0.03891,-0.02945,0.01312,-0.03845
4.043,-0.02533,-0.09415,-0.0267,-0.25482,-0.02609,-0.03891,-0.01053,-0.00519,-0.01755,-0.03616,0.19257,0.19302,-0.04013,-0.02884,0.01083,-0.03799
4.0435,-0.01907,-0.09491,0.01068,-0.27695,-0.02533,-0.0412,-0.01419,-0.00275,-0.00595,-0.06195,0.14618,0.20065,-0.04059,-0.02838,0.00793,-0.03891
4.044,-0.01755,-0.1001,0.05737,-0.21042,-0.02869,-0.04364,-0.0148,-0.00183,0.00259,-0.07599,0.11169,0.24216,-0.03952,-0.02808,0.00458,-0.04303
4.0445,-0.01999,-0.10071,0.09644,-0.08621,-0.03159,-0.04608,-0.01251,-0.00092,0.00412,-0.07401,0.08072,0.32166,-0.03769,-0.02655,0.0032,-0.04669
4.045,-0.01938,-0.08881,0.11566,0.0174,-0.03357,-0.04745,-0.01053,-0.00046,0.0,-0.0589,0.05203,0.3717,-0.03662,-0.0235,0.00168,-0.04852
4.0455,-0.01297,-0.06256,0.11734,0.0293,-0.03464,-0.04883,-0.01022,-0.00092,-0.00473,-0.0354,0.0267,0.32104,-0.03601,-0.02106,0.00214,-0.04791
4.046,0.00031,-0.03143,0.10605,-0.03906,-0.03403,-0.0499,-0.01129,-0.00397,-0.00641,-0.00992,0.00244,0.17838,-0.03555,-0.01862,0.00275,-0.04608
4.0465,0.02213,-0.00168,0.08087,-0.1178,-0.03372,-0.04959,-0.01282,-0.00717,-0.00534,0.00473,-0.03006,0.02823,-0.03586,-0.0174,0.0032,-0.04517
4.047,0.04959,0.02029,0.04379,-0.1683,-0.03311,-0.0499,-0.01297,-0.00824,-0.0029,0.00107,-0.07065,-0.0412,-0.03632,-0.01526,0.00366,-0.04486
4.0475,0.07309,0.03342,0.00671,-0.20737,-0.03204,-0.05066,-0.01221,-0.00549,0.0,-0.01541,-0.10788,0.01053,-0.03632,-0.01389,0.00549,-0.04379
4.048,0.08331,0.03906,-0.01419,-0.23758,-0.03067,-0.05112,-0.01083,-0.00153,0.00031,-0.03342,-0.13168,0.1413,-0.03586,-0.01343,0.00641,-0.04288
4.0485,0.08209,0.0383,-0.0061,-0.20264,-0.02838,-0.05066,-0.01038,-0.00076,-0.00214,-0.03891,-0.14847,0.24063,-0.03555,-0.01511,0.00717,-0.04349
4.049,0.07111,0.03326,0.03082,-0.03326,-0.02701,-0.05157,-0.0116,-0.0029,-0.00427,-0.03769,-0.17365,0.21729,-0.03571,-0.01801,0.00565,-0.04471
4.0495,0.05249,0.02518,0.06561,0.23758,-0.02716,-0.05432,-0.01343,-0.00427,-0.00488,-0.03128,-0.2124,0.09521,-0.03555,-0.01846,0.00656,-0.04456
4.05,0.02975,0.01633,0.04303,0.40924,-0.02701,-0.056,-0.01221,-0.0029,-0.00565,-0.02838,-0.2536,-0.02808,-0.03494,-0.01602,0.00946,-0.04379
4.0505,0.00595,0.00839,-0.06714,0.29114,-0.02762,-0.05646,-0.01022,-0.00076,-0.00763,-0.04089,-0.28549,-0.1088,-0.03342,-0.01282,0.00961,-0.04333
4.051,-0.01602,0.00168,-0.24109,-0.01801,-0.02853,-0.05463,-0.00793,-0.00015,-0.00885,-0.0705,-0.31082,-0.16953,-0.03174,-0.01129,0.00839,-0.04395
4.0515,-0.03326,-0.00641,-0.42145,-0.18753,-0.02884,-0.05081,-0.00732,0.00061,-0.00671,-0.09811,-0.34637,-0.21729,-0.03159,-0.01266,0.00702,-0.04333
4.052,-0.04578,-0.01923,-0.53558,-0.07324,-0.02853,-0.0499,-0.00916,0.00031,-0.00397,-0.10773,-0.39963,-0.21591,-0.03113,-0.01358,0.00748,-0.0415
4.0525,-0.05524,-0.03876,-0.50949,0.1091,-0.0267,-0.05096,-0.01144,-0.00107,-0.00031,-0.10101,-0.45853,-0.14252,-0.03098,-0.01328,0.00931,-0.03983
4.053,-0.06622,-0.06073,-0.31448,0.10834,-0.02518,-0.05188,-0.0145,-0.00275,0.00565,-0.08713,-0.50323,-0.02472,-0.02975,-0.01343,0.01053,-0.03891
4.0535,-0.08179,-0.07996,-0.02213,-0.04898,-0.02411,-0.05157,-0.01709,-0.00534,0.01099,-0.07431,-0.5246,0.0853,-0.02899,-0.01541,0.01129,-0.0386
4.054,-0.09857,-0.09277,0.22995,-0.20889,-0.0264,-0.0502,-0.01785,-0.00687,0.00793,-0.08087,-0.5217,0.16678,-0.0296,-0.01602,0.01266,-0.03555
4.0545,-0.1091,-0.10193,0.36804,-0.33005,-0.02853,-0.04898,-0.01572,-0.00641,-0.00351,-0.13153,-0.49042,0.21683,-0.03006,-0.0148,0.01419,-0.03204
4.055,-0.11108,-0.11505,0.42755,-0.43549,-0.03128,-0.04868,-0.01282,-0.00473,-0.01389,-0.21439,-0.42679,0.20416,-0.02808,-0.01511,0.01373,-0.03159
4.0555,-0.09918,-0.12985,0.46036,-0.46051,-0.03143,-0.04883,-0.00885,-0.00244,-0.01572,-0.26428,-0.34164,0.07858,-0.02731,-0.01831,0.00961,-0.03464
4.056,-0.0676,-0.13992,0.44937,-0.30289,-0.03082,-0.04807,-0.00443,0.00168,-0.01282,-0.21896,-0.25497,-0.13306,-0.02853,-0.02274,0.00519,-0.03952
4.0565,-0.02411,-0.13626,0.36209,0.01831,-0.03189,-0.04608,-0.00153,0.00717,-0.01251,-0.09171,-0.18723,-0.32349,-0.03052,-0.0235,0.00351,-0.0444
4.057,0.00885,-0.12024,0.22232,0.37109,-0.03448,-0.04547,0.00015,0.01129,-0.01617,0.04379,-0.15076,-0.43289,-0.03128,-0.02182,0.00381,-0.04654
4.0575,0.01053,-0.09888,0.08667,0.64041,-0.03632,-0.04593,-0.00076,0.01099,-0.0174,0.13626,-0.14694,-0.48798,-0.03189,-0.02121,0.0061,-0.04532
4.058,-0.01251,-0.07813,-0.0177,0.75592,-0.03754,-0.047,-0.00412,0.00626,-0.01068,0.18463,-0.17166,-0.49652,-0.03113,-0.02213,0.00763,-0.04105
4.0585,-0.03662,-0.06317,-0.09735,0.6543,-0.03937,-0.04807,-0.00961,-0.00015,-0.00259,0.20676,-0.21774,-0.41199,-0.03159,-0.02274,0.00946,-0.03754
4.059,-0.04807,-0.05219,-0.15823,0.33203,-0.04166,-0.04883,-0.01587,-0.00854,0.00198,0.21484,-0.27512,-0.23132,-0.03357,-0.02289,0.00961,-0.0351
4.0595,-0.05234,-0.04272,-0.18341,-0.08148,-0.04181,-0.04913,-0.02213,-0.01282,0.00443,0.20874,-0.32822,-0.04105,-0.03326,-0.02289,0.01007,-0.03433
4.06,-0.05508,-0.03403,-0.16312,-0.36758,-0.03998,-0.04837,-0.02655,-0.01419,0.00671,0.19135,-0.37018,0.08423,-0.0322,-0.02243,0.01053,-0.0351
4.0605,-0.05112,-0.0296,-0.12405,-0.37247,-0.03708,-0.04608,-0.02655,-0.0116,0.009,0.16479,-0.40283,0.14984,-0.03159,-0.02258,0.009,-0.03616
4.061,-0.03159,-0.03113,-0.12024,-0.12756,-0.03632,-0.04532,-0.02167,-0.00885,0.00946,0.12482,-0.43427,0.18204,-0.03174,-0.02289,0.00809,-0.03708
4.0615,0.00153,-0.03891,-0.17029,0.16022,-0.0351,-0.04379,-0.0174,-0.0058,0.00519,0.06653,-0.46997,0.15823,-0.03174,-0.0238,0.00793,-0.03723
4.062,0.0293,-0.04837,-0.23422,0.30685,-0.03143,-0.04349,-0.01587,-0.00183,-0.00412,-0.0029,-0.5101,0.04288,-0.03189,-0.02304,0.00809,-0.03647
4.0625,0.03372,-0.05478,-0.26062,0.35995,-0.02701,-0.04425,-0.01572,0.00351,-0.01678,-0.06027,-0.54749,-0.12711,-0.03128,-0.0206,0.00961,-0.03616
4.063,0.01907,-0.05524,-0.23773,0.47607,-0.02441,-0.04486,-0.0145,0.00885,-0.02884,-0.07782,-0.57922,-0.23422,-0.03006,-0.01678,0.00992,-0.03632
4.0635,0.00824,-0.05264,-0.17822,0.57007,-0.0238,-0.04547,-0.01434,0.01022,-0.04074,-0.0589,-0.60776,-0.17776,-0.03021,-0.01373,0.00793,-0.03662
4.064,0.01709,-0.0502,-0.09415,0.36942,-0.02396,-0.04379,-0.01648,0.00717,-0.05295,-0.03021,-0.63339,0.00977,-0.0293,-0.01358,0.00717,-0.03662
4.0645,0.03555,-0.04974,-0.01648,-0.10788,-0.02151,-0.04257,-0.01923,0.00244,-0.06317,-0.01663,-0.64957,0.17334,-0.0296,-0.0148,0.00778,-0.03693
4.065,0.04303,-0.04852,-0.00076,-0.46219,-0.01938,-0.0415,-0.02136,-0.00153,-0.06836,-0.01724,-0.64819,0.20233,-0.03021,-0.01495,0.00748,-0.03876
4.0655,0.03159,-0.0473,-0.07294,-0.45197,-0.01938,-0.04044,-0.0206,-0.00397,-0.06683,-0.01938,-0.6221,0.13748,-0.02975,-0.01221,0.00519,-0.04105
4.066,0.0087,-0.04654,-0.18326,-0.28824,-0.02213,-0.04089,-0.02167,-0.00717,-0.06516,-0.01846,-0.57343,0.08072,-0.02899,-0.01038,0.0029,-0.0412
4.0665,-0.01328,-0.04791,-0.24719,-0.26306,-0.02487,-0.03983,-0.02136,-0.00961,-0.06607,-0.01663,-0.51361,0.07904,-0.02884,-0.00977,0.00214,-0.04135
4.067,-0.02975,-0.04944,-0.21942,-0.33569,-0.02533,-0.04028,-0.02243,-0.00946,-0.07233,-0.01648,-0.45822,0.1358,-0.02991,-0.01053,0.00153,-0.04135
4.0675,-0.04059,-0.04822,-0.12344,-0.32349,-0.02594,-0.04318,-0.02258,-0.00641,-0.07919,-0.01663,-0.4097,0.25421,-0.03143,-0.0116,0.00244,-0.04181
4.068,-0.04013,-0.04608,-0.03265,-0.24063,-0.0264,-0.04715,-0.02167,-0.00351,-0.08255,-0.01816,-0.36957,0.38849,-0.03128,-0.01312,0.00351,-0.04074
4.0685,-0.02411,-0.04669,-0.00336,-0.21103,-0.02548,-0.04791,-0.02197,-0.00305,-0.08224,-0.02151,-0.34164,0.44159,-0.0293,-0.01526,0.00351,-0.03891
4.069,0.00031,-0.04959,-0.02228,-0.20218,-0.02731,-0.0473,-0.02335,-0.00412,-0.08041,-0.02502,-0.3302,0.37384,-0.02762,-0.01633,0.00534,-0.03876
4.0695,0.02136,-0.05234,-0.03464,-0.09811,-0.02884,-0.04486,-0.02365,-0.00397,-0.07797,-0.0267,-0.3334,0.27649,-0.02762,-0.0145,0.00717,-0.03876
4.07,0.03281,-0.05051,-0.0177,0.04898,-0.0293,-0.04349,-0.02106,-0.0029,-0.07278,-0.02197,-0.35172,0.23422,-0.02777,-0.01114,0.00946,-0.03601
4.0705,0.0354,-0.04135,0.00778,0.08652,-0.03067,-0.04395,-0.01678,-0.00214,-0.06531,-0.01572,-0.38925,0.21378,-0.02686,-0.00931,0.00946,-0.03265
4.071,0.03494,-0.02991,0.01526,0.02472,-0.03189,-0.04608,-0.01511,-0.0029,-0.05966,-0.01389,-0.43884,0.14664,-0.02594,-0.01007,0.00992,-0.02914
4.0715,0.03326,-0.02121,0.00397,0.00381,-0.03281,-0.04852,-0.01617,-0.00427,-0.05417,-0.01709,-0.47485,0.04486,-0.02563,-0.00992,0.01099,-0.02731
4.072,0.03311,-0.0206,-0.00824,0.05447,-0.03525,-0.04852,-0.01862,-0.00534,-0.047,-0.02289,-0.46616,-0.02548,-0.02502,-0.00748,0.01266,-0.02762
4.0725,0.03571,-0.02838,-0.0032,0.0795,-0.03922,-0.04959,-0.02014,-0.00397,-0.03677,-0.02823,-0.40176,-0.04486,-0.02487,-0.00458,0.01007,-0.0293
4.073,0.03632,-0.04013,0.01617,0.02518,-0.04272,-0.05234,-0.02029,-0.00534,-0.02731,-0.02884,-0.30579,-0.05295,-0.02487,-0.00366,0.00732,-0.03281
4.0735,0.03143,-0.05554,0.03113,-0.065,-0.04608,-0.05478,-0.02029,-0.00671,-0.02106,-0.02487,-0.21896,-0.09155,-0.02579,-0.00443,0.00595,-0.03586
4.074,0.02014,-0.08148,0.02701,-0.11902,-0.04807,-0.05707,-0.02106,-0.00793,-0.01755,-0.01938,-0.17181,-0.15854,-0.02533,-0.00824,0.00504,-0.03601
4.0745,0.00748,-0.11383,0.00336,-0.1091,-0.04898,-0.0592,-0.02136,-0.00854,-0.01297,-0.01419,-0.16617,-0.21545,-0.02426,-0.01038,0.00549,-0.03784
4.075,-0.00137,-0.13992,-0.04395,-0.07706,-0.04898,-0.05966,-0.01923,-0.00595,-0.0058,-0.01144,-0.18936,-0.23743,-0.02213,-0.01038,0.00473,-0.03937
4.0755,-0.01022,-0.15732,-0.11246,-0.09796,-0.04837,-0.06104,-0.0148,-0.00381,-0.00015,-0.00717,-0.22888,-0.24246,-0.02167,-0.01007,0.0061,-0.03983
4.076,-0.02167,-0.17532,-0.18829,-0.20065,-0.04776,-0.05951,-0.01099,-0.00107,0.00443,-0.00107,-0.27893,-0.26108,-0.02182,-0.0119,0.00793,-0.03754
4.0765,-0.03342,-0.20111,-0.25009,-0.33051,-0.047,-0.05844,-0.00778,0.00107,0.00626,0.00626,-0.32761,-0.29266,-0.02213,-0.01404,0.00885,-0.03433
4.077,-0.03952,-0.22629,-0.28412,-0.38971,-0.04562,-0.05676,-0.0061,0.00244,0.00671,0.01022,-0.35995,-0.30319,-0.02335,-0.01511,0.01053,-0.03403
4.0775,-0.04135,-0.23651,-0.289,-0.29831,-0.04395,-0.05554,-0.00778,-0.00046,0.00641,0.01144,-0.36514,-0.26917,-0.02533,-0.01617,0.01266,-0.03448
4.078,-0.04379,-0.22629,-0.24689,-0.02869,-0.04135,-0.05539,-0.01038,-0.00381,0.0061,0.01053,-0.336,-0.20081,-0.0267,-0.01801,0.01495,-0.03601
4.0785,-0.04532,-0.19653,-0.13885,0.35706,-0.04028,-0.05325,-0.01129,-0.00259,0.00641,0.00778,-0.2713,-0.12802,-0.02731,-0.01999,0.01373,-0.03769
4.079,-0.03845,-0.15076,0.00061,0.67703,-0.03937,-0.05188,-0.00977,0.0029,0.00702,0.00366,-0.17624,-0.08469,-0.02899,-0.02151,0.01068,-0.03952
4.0795,-0.02426,-0.09247,0.08423,0.71594,-0.04044,-0.05066,-0.00916,0.00565,0.00778,-0.00061,-0.0766,-0.08026,-0.03128,-0.0206,0.00854,-0.04074
4.08,-0.01083,-0.02548,0.05753,0.44159,-0.04013,-0.05051,-0.01022,0.00397,0.00961,-0.00488,0.00488,-0.06485,-0.03342,-0.01938,0.00702,-0.04074
4.0805,-0.00412,0.04242,-0.03525,0.08942,-0.03922,-0.04761,-0.01053,-0.00061,0.01312,-0.009,0.05569,0.02655,-0.03372,-0.0209,0.00565,-0.04105
4.081,-0.00275,0.10468,-0.11002,-0.0798,-0.0386,-0.04623,-0.01022,-0.00305,0.01694,-0.01511,0.08423,0.16144,-0.03403,-0.02289,0.00656,-0.04105
4.0815,-0.0032,0.15549,-0.12329,-0.05142,-0.03891,-0.04562,-0.01251,-0.0058,0.02045,-0.02411,0.10101,0.22781,-0.0351,-0.02396,0.00687,-0.03983
4.082,-0.00336,0.19165,-0.09186,0.01999,-0.03815,-0.04669,-0.01648,-0.00778,0.02121,-0.03357,0.10483,0.17227,-0.03616,-0.02518,0.00854,-0.03738
4.0825,-0.00366,0.21378,-0.03281,0.06271,-0.03525,-0.04684,-0.01907,-0.0087,0.01755,-0.04272,0.09247,0.07217,-0.03708,-0.02457,0.00763,-0.03677
4.083,-0.01022,0.2211,0.05875,0.09918,-0.03159,-0.04623,-0.01831,-0.00763,0.01068,-0.04913,0.07172,0.03738,-0.03922,-0.02319,0.00687,-0.03693
4.0835,-0.02701,0.21118,0.16937,0.10971,-0.02914,-0.0444,-0.01602,-0.00595,0.0029,-0.05295,0.06134,0.08453,-0.03983,-0.02182,0.00763,-0.03723
4.084,-0.04868,0.17838,0.23499,0.06317,-0.0296,-0.04181,-0.01556,-0.00427,-0.00061,-0.05096,0.07156,0.11353,-0.03906,-0.02213,0.00931,-0.0351
4.0845,-0.06119,0.12192,0.19684,0.01221,-0.02975,-0.04013,-0.01648,-0.00366,-0.00305,-0.04257,0.09201,0.02579,-0.03799,-0.02258,0.0116,-0.0322
4.085,-0.05768,0.05173,0.07645,0.02151,-0.02731,-0.03891,-0.01709,-0.00381,-0.00793,-0.03143,0.10132,-0.14236,-0.0386,-0.02304,0.01297,-0.03006
4.0855,-0.04456,-0.01465,-0.05066,0.03662,-0.02365,-0.03922,-0.01709,-0.00595,-0.01587,-0.02197,0.08774,-0.25879,-0.03998,-0.02319,0.01205,-0.03036
4.086,-0.02991,-0.0647,-0.13687,-0.0322,-0.02121,-0.03983,-0.01831,-0.00687,-0.0238,-0.02274,0.06058,-0.25253,-0.04089,-0.02365,0.01205,-0.03235
4.0865,-0.01144,-0.09674,-0.18112,-0.14084,-0.02029,-0.04059,-0.01923,-0.00626,-0.02731,-0.0322,0.03174,-0.17075,-0.03952,-0.0238,0.0116,-0.03464
4.087,0.01923,-0.1149,-0.1976,-0.14938,-0.01999,-0.04166,-0.01984,-0.00534,-0.0267,-0.0412,0.00214,-0.0885,-0.0383,-0.02304,0.01144,-0.03571
4.0875,0.05981,-0.1181,-0.19135,-0.03876,-0.01877,-0.04166,-0.01907,-0.0058,-0.02548,-0.03983,-0.02914,-0.02991,-0.03845,-0.02182,0.00977,-0.03677
4.088,0.09476,-0.10437,-0.16663,0.04791,-0.01831,-0.0415,-0.0177,-0.00671,-0.0238,-0.03052,-0.0589,0.02258,-0.03845,-0.0209,0.00671,-0.03723
4.0885,0.10986,-0.07233,-0.13474,-0.00763,-0.01831,-0.04089,-0.01709,-0.00504,-0.01968,-0.02533,-0.08316,0.08987,-0.03769,-0.01999,0.00656,-0.03769
4.089,0.10666,-0.02731,-0.10361,-0.13489,-0.01907,-0.04044,-0.01785,-0.00443,-0.00778,-0.02808,-0.09796,0.16525,-0.03723,-0.01999,0.00702,-0.03799
4.0895,0.10101,0.0238,-0.07553,-0.16754,-0.01877,-0.03967,-0.01785,-0.00549,0.01038,-0.03754,-0.10391,0.21637,-0.03586,-0.01907,0.00916,-0.03952
4.09,0.09842,0.07553,-0.05341,-0.06073,-0.01862,-0.03952,-0.01678,-0.00809,0.02472,-0.04623,-0.10147,0.22797,-0.0351,-0.0177,0.00961,-0.04074
4.0905,0.09094,0.11841,-0.0351,0.06454,-0.01724,-0.0412,-0.01617,-0.00931,0.02502,-0.04944,-0.09964,0.22018,-0.0354,-0.01526,0.00778,-0.04135
4.091,0.07446,0.13733,-0.02274,0.09003,-0.01862,-0.04379,-0.01343,-0.00916,0.01373,-0.04257,-0.11154,0.20203,-0.03632,-0.01541,0.00671,-0.0415
4.0915,0.05402,0.12634,-0.01328,0.03479,-0.02106,-0.04517,-0.01083,-0.00763,0.00183,-0.02594,-0.15564,0.14938,-0.03571,-0.01755,0.0058,-0.0415
4.092,0.03647,0.09888,-0.00565,-0.00702,-0.02274,-0.04578,-0.01251,-0.0058,-0.00336,-0.00763,-0.22095,0.05997,-0.03647,-0.01999,0.00534,-0.04196
4.0925,0.01999,0.07339,-0.00641,-0.00809,-0.02441,-0.047,-0.01541,-0.00366,-0.00732,0.00473,-0.26352,-0.01816,-0.03555,-0.02151,0.0058,-0.04196
4.093,0.0029,0.05402,-0.01709,-0.01465,-0.02716,-0.04974,-0.01633,-0.0032,-0.01617,0.01099,-0.24597,-0.05417,-0.03525,-0.02213,0.00565,-0.04181
4.0935,-0.01343,0.04013,-0.03265,-0.04166,-0.02975,-0.04913,-0.0145,-0.00305,-0.03067,0.01587,-0.18555,-0.07385,-0.03479,-0.02228,0.00519,-0.04257
4.094,-0.02121,0.02914,-0.04303,-0.05142,-0.03082,-0.04745,-0.01373,-0.00275,-0.04486,0.02151,-0.13184,-0.09949,-0.03433,-0.02182,0.0032,-0.0441
4.0945,-0.01511,0.02518,-0.04333,-0.04395,-0.03021,-0.04745,-0.0148,-0.00046,-0.05203,0.02396,-0.11108,-0.1239,-0.03387,-0.02106,0.00183,-0.04456
4.095,0.00687,0.02487,-0.03494,-0.07553,-0.02777,-0.04837,-0.01511,0.00183,-0.05264,0.02136,-0.1178,-0.14572,-0.03387,-0.01907,0.0029,-0.04364
4.0955,0.03479,0.02243,-0.02502,-0.16724,-0.02762,-0.04974,-0.01312,0.00183,-0.04807,0.01755,-0.13824,-0.17502,-0.03342,-0.01801,0.00397,-0.04242
4.096,0.05432,0.01419,-0.01709,-0.26428,-0.02991,-0.05081,-0.00977,0.00046,-0.0412,0.01678,-0.16342,-0.17166,-0.03448,-0.01633,0.00443,-0.0415
4.0965,0.0563,0.00351,-0.01251,-0.31052,-0.0322,-0.0502,-0.00839,-0.00137,-0.03708,0.01617,-0.18417,-0.08194,-0.03662,-0.01694,0.0058,-0.04089
4.097,0.04364,-0.00549,-0.0032,-0.2948,-0.03235,-0.04898,-0.00717,-0.00275,-0.03708,0.01053,-0.19379,0.06302,-0.0386,-0.0206,0.00809,-0.03967
4.0975,0.02808,-0.00916,0.01297,-0.21667,-0.03006,-0.04898,-0.00595,-0.00473,-0.03906,0.00046,-0.19455,0.17975,-0.03891,-0.02518,0.01068,-0.03799
4.098,0.01526,-0.00641,0.03799,-0.04211,-0.0296,-0.05035,-0.00458,-0.0058,-0.03708,-0.00946,-0.19226,0.24094,-0.03784,-0.0267,0.01068,-0.03693
4.0985,0.00351,0.00198,0.07034,0.25146,-0.03159,-0.05035,-0.00504,-0.00458,-0.03174,-0.01755,-0.19028,0.2623,-0.03723,-0.02472,0.01068,-0.03723
4.099,-0.00916,0.01175,0.10178,0.56137,-0.03372,-0.0502,-0.00717,-0.00168,-0.02396,-0.02319,-0.186,0.23285,-0.03571,-0.02243,0.01083,-0.03708
4.0995,-0.02075,0.01602,0.12268,0.65765,-0.03464,-0.05157,-0.00854,-0.00046,-0.01953,-0.03708,-0.17868,0.15076,-0.03525,-0.02167,0.01282,-0.03632
4.1,-0.02914,0.01251,0.12589,0.41229,-0.03296,-0.0531,-0.00916,-0.00275,-0.0174,-0.06302,-0.17441,0.06897,-0.03586,-0.02213,0.01541,-0.03555
4.1005,-0.03799,0.00168,0.11322,-0.00809,-0.03189,-0.05371,-0.01205,-0.00549,-0.01602,-0.09323,-0.18372,0.0473,-0.03525,-0.02121,0.01633,-0.03555
4.101,-0.04715,-0.01434,0.09399,-0.31616,-0.03082,-0.0531,-0.01694,-0.00488,-0.01236,-0.10742,-0.21469,0.08041,-0.0325,-0.02029,0.01526,-0.03662
4.1015,-0.05219,-0.03311,0.07126,-0.42221,-0.02838,-0.05234,-0.0206,-0.00351,-0.00809,-0.09674,-0.25742,0.0972,-0.03006,-0.02045,0.01389,-0.03693
4.102,-0.04974,-0.056,0.04868,-0.43198,-0.02838,-0.05157,-0.0206,-0.00397,-0.00732,-0.07217,-0.28763,0.04181,-0.03113,-0.02182,0.01205,-0.03601
4.1025,-0.04211,-0.08102,0.03128,-0.38956,-0.02701,-0.05081,-0.01755,-0.00443,-0.00931,-0.04791,-0.2919,-0.07584,-0.0351,-0.02289,0.01038,-0.03525
4.103,-0.03204,-0.10345,0.03357,-0.21271,-0.02594,-0.04684,-0.01541,-0.00305,-0.01007,-0.03143,-0.27176,-0.19073,-0.03784,-0.02396,0.00916,-0.03555
4.1035,-0.02319,-0.11536,0.07828,0.08041,-0.02518,-0.04395,-0.01434,-0.00092,-0.00458,-0.02274,-0.23788,-0.23636,-0.03632,-0.02548,0.00916,-0.03906
4.104,-0.0174,-0.11795,0.18814,0.30151,-0.02396,-0.0412,-0.01312,-0.00015,0.00458,-0.01724,-0.19943,-0.19058,-0.03326,-0.02487,0.009,-0.04333
4.1045,-0.01373,-0.11948,0.34225,0.33752,-0.02533,-0.04181,-0.01251,-0.00076,0.00885,-0.0148,-0.16403,-0.09155,-0.03174,-0.02289,0.00931,-0.0444
4.105,-0.00748,-0.12421,0.46234,0.27466,-0.02655,-0.04227,-0.01175,-0.00137,0.00626,-0.01572,-0.12924,-0.01724,-0.03174,-0.02167,0.01053,-0.04135
4.1055,0.00443,-0.12619,0.49103,0.19135,-0.02762,-0.04349,-0.01038,-0.00092,-0.00046,-0.02151,-0.08942,-0.01648,-0.03174,-0.02304,0.01068,-0.0383
4.106,0.01709,-0.11963,0.44739,0.04501,-0.0264,-0.04349,-0.00931,-0.00198,-0.00565,-0.03296,-0.03494,-0.0592,-0.0322,-0.02533,0.01022,-0.03738
4.1065,0.01846,-0.10651,0.37415,-0.14862,-0.0267,-0.04456,-0.01053,-0.00351,-0.01083,-0.04623,0.03204,-0.07019,-0.0325,-0.02533,0.00839,-0.0383
4.107,0.00229,-0.09308,0.27008,-0.23117,-0.02655,-0.04654,-0.01358,-0.00473,-0.01892,-0.06027,0.09949,-0.01678,-0.03311,-0.02274,0.00885,-0.04074
4.1075,-0.02075,-0.08514,0.10712,-0.10178,-0.02716,-0.04898,-0.01526,-0.00305,-0.02991,-0.07355,0.15121,0.05569,-0.0322,-0.02182,0.00885,-0.04211
4.108,-0.03876,-0.08026,-0.09766,0.12497,-0.02823,-0.04974,-0.01343,-0.00153,-0.03815,-0.08331,0.18005,0.07233,-0.03235,-0.02365,0.00931,-0.04227
4.1085,-0.0499,-0.08026,-0.28748,0.24216,-0.03082,-0.04974,-0.00946,-0.00015,-0.04059,-0.09033,0.19455,0.00031,-0.03281,-0.0267,0.00961,-0.04303
4.109,-0.05722,-0.08224,-0.4155,0.15976,-0.03357,-0.04898,-0.00824,0.00092,-0.03952,-0.09354,0.20615,-0.11078,-0.03372,-0.02777,0.00931,-0.04456
4.1095,-0.05936,-0.08484,-0.47821,-0.03937,-0.03464,-0.04852,-0.00977,0.00076,-0.03693,-0.09155,0.21988,-0.19196,-0.03326,-0.02518,0.00961,-0.04486
4.11,-0.05844,-0.0856,-0.48965,-0.20157,-0.03571,-0.04913,-0.01205,-0.00061,-0.03433,-0.08728,0.23285,-0.24292,-0.03235,-0.02182,0.01007,-0.04211
4.1105,-0.06271,-0.08713,-0.46341,-0.23026,-0.03616,-0.0499,-0.0145,-0.00351,-0.03082,-0.08118,0.24246,-0.32227,-0.0322,-0.02029,0.0119,-0.03754
4.111,-0.07111,-0.0885,-0.41107,-0.13214,-0.03662,-0.0502,-0.01511,-0.00565,-0.02579,-0.07156,0.24643,-0.44083,-0.0325,-0.01831,0.0116,-0.03479
4.1115,-0.07629,-0.09064,-0.35034,0.02625,-0.03708,-0.05035,-0.01663,-0.00641,-0.01953,-0.06088,0.23972,-0.53421,-0.03281,-0.01511,0.00977,-0.03662
4.112,-0.07797,-0.0946,-0.29297,0.1828,-0.03662,-0.05112,-0.01617,-0.00534,-0.01282,-0.04929,0.22446,-0.56244,-0.03281,-0.01297,0.00854,-0.04074
4.1125,-0.08255,-0.10635,-0.2449,0.29999,-0.0354,-0.05295,-0.01389,-0.00305,-0.00687,-0.03784,0.21133,-0.56213,-0.03296,-0.01251,0.00854,-0.04257
4.113,-0.08774,-0.12421,-0.20828,0.3331,-0.0351,-0.05371,-0.01099,-0.00092,-0.00229,-0.02457,0.2037,-0.54993,-0.03342,-0.01282,0.01007,-0.04196
4.1135,-0.08377,-0.14359,-0.18127,0.23956,-0.03479,-0.05295,-0.01144,-0.00046,-0.00031,-0.01358,0.19379,-0.42221,-0.03326,-0.01282,0.01114,-0.0412
4.114,-0.06607,-0.16251,-0.15198,0.0502,-0.03387,-0.05051,-0.01389,-0.00214,0.00229,-0.01038,0.17471,-0.05264,-0.03204,-0.01266,0.00992,-0.04181
4.1145,-0.04318,-0.18158,-0.11246,-0.12344,-0.03311,-0.04745,-0.01572,-0.00305,0.00717,-0.01465,0.14816,0.47882,-0.03098,-0.01175,0.009,-0.04288
4.115,-0.0235,-0.19943,-0.08682,-0.20447,-0.03265,-0.04562,-0.01602,-0.00336,0.01389,-0.01221,0.12085,0.8725,-0.03082,-0.01083,0.00809,-0.04349
4.1155,-0.01175,-0.21072,-0.11551,-0.20874,-0.03265,-0.04547,-0.01526,-0.00259,0.02182,0.01022,0.09796,0.91293,-0.03143,-0.01099,0.00732,-0.04303
4.116,-0.00565,-0.21118,-0.17838,-0.17639,-0.03204,-0.04562,-0.01648,-0.00412,0.02823,0.0502,0.08087,0.69504,-0.03326,-0.01251,0.00702,-0.0441
4.1165,-0.0032,-0.19745,-0.19852,-0.14755,-0.03159,-0.04547,-0.01862,-0.00671,0.03021,0.09415,0.06088,0.46692,-0.03281,-0.01434,0.0058,-0.04532
4.117,0.00031,-0.16647,-0.15152,-0.16434,-0.03204,-0.04532,-0.02121,-0.01007,0.02762,0.12405,0.03235,0.36209,-0.03174,-0.01617,0.0058,-0.04532
4.1175,0.00626,-0.12131,-0.10895,-0.21301,-0.03204,-0.04471,-0.02258,-0.01236,0.02396,0.12543,0.00366,0.36118,-0.03082,-0.01755,0.00656,-0.04471
4.118,0.00961,-0.07446,-0.12146,-0.22461,-0.03067,-0.04395,-0.02274,-0.01297,0.0209,0.09781,-0.01205,0.38132,-0.03128,-0.01816,0.00641,-0.04364
4.1185,0.0032,-0.03906,-0.11719,-0.19119,-0.03067,-0.04395,-0.02151,-0.01221,0.01907,0.05859,-0.01343,0.34271,-0.03265,-0.0174,0.00702,-0.04395
4.119,-0.01022,-0.01801,-0.00732,-0.18021,-0.03235,-0.0444,-0.02075,-0.01038,0.01602,0.03006,-0.00351,0.21683,-0.03296,-0.01465,0.00824,-0.04425
4.1195,-0.02304,-0.00793,0.17471,-0.20645,-0.03296,-0.04364,-0.02045,-0.00839,0.01221,0.01968,0.01938,0.05219,-0.03281,-0.01312,0.01099,-0.04501
4.12,-0.02823,-0.00488,0.29007,-0.20065,-0.03036,-0.04318,-0.02029,-0.00641,0.01083,0.01587,0.05814,-0.07935,-0.03052,-0.01404,0.0116,-0.04517
4.1205,-0.02701,-0.0058,0.25574,-0.12787,-0.02899,-0.04425,-0.01785,-0.00519,0.01083,0.00931,0.10284,-0.14648,-0.02808,-0.01556,0.00961,-0.04517
4.121,-0.01953,-0.00488,0.11017,-0.04593,-0.02975,-0.04562,-0.01465,-0.00366,0.00641,-0.00015,0.12741,-0.13794,-0.02747,-0.01495,0.00824,-0.04593
4.1215,-0.00824,0.00427,-0.05142,-0.01984,-0.0325,-0.04684,-0.01266,-0.00107,-0.0058,-0.00687,0.10773,-0.04791,-0.02777,-0.01419,0.00671,-0.04669
4.122,0.00443,0.02029,-0.16891,-0.04761,-0.0354,-0.047,-0.01251,0.00061,-0.02228,-0.01801,0.04364,0.1001,-0.02884,-0.0145,0.00473,-0.04715
4.1225,0.01343,0.03693,-0.22781,-0.07721,-0.03769,-0.04654,-0.01358,0.00015,-0.03387,-0.04013,-0.02136,0.23102,-0.02945,-0.01617,0.00443,-0.04654
4.123,0.01663,0.04959,-0.23361,-0.03265,-0.03891,-0.04684,-0.01495,-0.00198,-0.03952,-0.06943,-0.02838,0.25757,-0.02975,-0.01617,0.00473,-0.04486
4.1235,0.01862,0.06042,-0.20798,0.13855,-0.03845,-0.04776,-0.01572,-0.00381,-0.04318,-0.09506,0.0351,0.16403,-0.03143,-0.01434,0.00626,-0.04333
4.124,0.02106,0.06714,-0.17792,0.34927,-0.03555,-0.04791,-0.01373,-0.00275,-0.05127,-0.11139,0.12146,0.02853,-0.03235,-0.01205,0.00702,-0.04257
4.1245,0.02533,0.065,-0.1503,0.39932,-0.03433,-0.04822,-0.0119,-0.00076,-0.06302,-0.12421,0.17929,-0.05219,-0.0322,-0.01022,0.00748,-0.0412
4.125,0.02869,0.04913,-0.12115,0.23834,-0.03571,-0.04822,-0.01053,0.00092,-0.06989,-0.13794,0.19119,-0.07446,-0.03174,-0.01038,0.00885,-0.04089
4.1255,0.03021,0.02563,-0.08743,0.07828,-0.03754,-0.04837,-0.01221,0.00046,-0.06866,-0.15228,0.15472,-0.1091,-0.03113,-0.01175,0.00854,-0.0412
4.126,0.03174,0.00504,-0.0528,0.1001,-0.03632,-0.047,-0.01541,-0.00061,-0.06058,-0.16098,0.06592,-0.16846,-0.03113,-0.0119,0.00748,-0.0412
4.1265,0.03235,-0.00961,-0.01846,0.2002,-0.0351,-0.04578,-0.01694,-0.00092,-0.05081,-0.15305,-0.05997,-0.16663,-0.03006,-0.01038,0.00458,-0.04105
4.127,0.0322,-0.02502,0.02213,0.18723,-0.03372,-0.04593,-0.01617,-0.00092,-0.03937,-0.11932,-0.16907,-0.0386,-0.0293,-0.01022,0.0029,-0.04166
4.1275,0.03372,-0.04395,0.07187,0.07355,-0.03357,-0.04578,-0.01389,-0.00153,-0.02258,-0.06424,-0.20493,0.14893,-0.02869,-0.01129,0.00244,-0.04135
4.128,0.03754,-0.06393,0.12207,0.02716,-0.03265,-0.04456,-0.01343,-0.00229,0.00107,-0.00732,-0.15625,0.25284,-0.02899,-0.01328,0.00519,-0.04242
4.1285,0.04272,-0.0795,0.1619,0.1091,-0.03143,-0.04456,-0.01373,-0.0032,0.02167,0.03067,-0.06729,0.19272,-0.02914,-0.01709,0.00748,-0.04242
4.129,0.04593,-0.0885,0.19272,0.2121,-0.02914,-0.04517,-0.01587,-0.00366,0.0264,0.04135,0.00778,0.03448,-0.02975,-0.0209,0.00854,-0.04288
4.1295,0.04471,-0.09338,0.21744,0.24567,-0.02731,-0.04684,-0.01678,-0.00473,0.01678,0.02441,0.0441,-0.09369,-0.02975,-0.02319,0.00748,-0.04532
4.13,0.03922,-0.09399,0.23361,0.22369,-0.02716,-0.04608,-0.01602,-0.00336,0.00076,-0.01587,0.05066,-0.14786,-0.03067,-0.02274,0.00641,-0.04898
4.1305,0.03143,-0.08942,0.23514,0.15213,-0.02701,-0.04608,-0.01434,-0.00122,-0.01068,-0.06363,0.04593,-0.18005,-0.03143,-0.02274,0.00732,-0.05188
4.131,0.02243,-0.08057,0.22034,0.00992,-0.02823,-0.04639,-0.01068,0.00183,-0.01694,-0.08957,0.04288,-0.23163,-0.03235,-0.02411,0.00916,-0.05066
4.1315,0.0119,-0.07065,0.18997,-0.15106,-0.02945,-0.04868,-0.00809,0.00504,-0.02258,-0.0708,0.04196,-0.28671,-0.03128,-0.02487,0.01007,-0.04807
4.132,0.00015,-0.06119,0.15594,-0.24719,-0.03128,-0.04974,-0.00824,0.00549,-0.02869,-0.0174,0.02655,-0.30914,-0.03067,-0.02365,0.009,-0.04486
4.1325,-0.01144,-0.05524,0.14114,-0.28259,-0.03067,-0.04974,-0.01038,0.0032,-0.03204,0.03738,-0.01221,-0.2919,-0.02945,-0.02182,0.009,-0.04272
4.133,-0.02167,-0.05371,0.16556,-0.30975,-0.02945,-0.0499,-0.01282,-0.00015,-0.03265,0.06668,-0.03799,-0.24658,-0.02945,-0.02151,0.01068,-0.0412
4.1335,-0.03052,-0.05569,0.21393,-0.31647,-0.02991,-0.04944,-0.01434,-0.00275,-0.03387,0.06882,0.00137,-0.18539,-0.0296,-0.02289,0.01297,-0.04013
4.134,-0.03769,-0.05783,0.24567,-0.25681,-0.03067,-0.04761,-0.01419,-0.00549,-0.03448,0.05783,0.10101,-0.11292,-0.02884,-0.02457,0.01266,-0.04257
4.1345,-0.04166,-0.05524,0.24536,-0.15717,-0.03387,-0.04547,-0.01526,-0.00778,-0.02396,0.04837,0.18356,-0.04211,-0.0296,-0.02609,0.01083,-0.047
4.135,-0.04318,-0.04196,0.22736,-0.07874,-0.03479,-0.04547,-0.01587,-0.00717,-0.00366,0.04593,0.17883,0.00168,-0.02991,-0.02563,0.00854,-0.05112
4.1355,-0.04303,-0.02304,0.19104,-0.02823,-0.03693,-0.04745,-0.01587,-0.0061,0.01358,0.04669,0.09109,-0.01007,-0.02975,-0.02579,0.00748,-0.05035
4.136,-0.03998,-0.00305,0.11276,0.01114,-0.03906,-0.05081,-0.01541,-0.00473,0.01633,0.04639,-0.01831,-0.10132,-0.02945,-0.02335,0.00854,-0.04654
4.1365,-0.02777,0.01282,-0.0116,0.00519,-0.0383,-0.05142,-0.01511,-0.00458,0.00809,0.0412,-0.10361,-0.27344,-0.02869,-0.02243,0.00977,-0.04288
4.137,-0.00946,0.02304,-0.15625,-0.08148,-0.03998,-0.05142,-0.01587,-0.00443,-0.00229,0.03983,-0.14893,-0.48431,-0.02823,-0.02182,0.01205,-0.04257
4.1375,0.009,0.0293,-0.28839,-0.19043,-0.04181,-0.05264,-0.01556,-0.00443,-0.01724,0.04791,-0.14404,-0.67581,-0.02792,-0.02258,0.01221,-0.04379
4.138,0.02258,0.03204,-0.39505,-0.22125,-0.04425,-0.05493,-0.01678,-0.00427,-0.03677,0.06332,-0.07797,-0.78827,-0.02823,-0.02335,0.01144,-0.04379
4.1385,0.03281,0.03036,-0.47348,-0.15564,-0.0441,-0.05722,-0.01724,-0.00458,-0.05646,0.07446,0.03052,-0.74097,-0.03021,-0.02411,0.01083,-0.04318
4.139,0.047,0.02075,-0.5162,-0.06271,-0.04227,-0.05722,-0.01633,-0.00366,-0.06851,0.06866,0.13168,-0.49393,-0.03311,-0.02487,0.01068,-0.04364
4.1395,0.06348,-0.00305,-0.51056,0.00626,-0.03983,-0.05402,-0.01282,-0.00198,-0.06744,0.04349,0.18997,-0.15549,-0.03235,-0.02701,0.01007,-0.04578
4.14,0.07355,-0.0383,-0.45944,0.08194,-0.03815,-0.04929,-0.00977,0.00015,-0.05707,0.01358,0.20294,0.09811,-0.03082,-0.02823,0.00809,-0.04807
4.1405,0.06744,-0.07339,-0.3595,0.18707,-0.03647,-0.04471,-0.00961,0.00122,-0.0444,-0.00565,0.18585,0.22766,-0.03036,-0.02884,0.00732,-0.04913
4.141,0.0473,-0.09583,-0.19547,0.23804,-0.03632,-0.04196,-0.01068,0.00046,-0.03098,-0.00763,0.1535,0.34485,-0.03265,-0.02853,0.00702,-0.0502
4.1415,0.02319,-0.10818,0.02014,0.13123,-0.03494,-0.04227,-0.01083,-0.00046,-0.0177,0.00015,0.12482,0.50125,-0.03418,-0.02716,0.00656,-0.05112
4.142,0.00122,-0.11917,0.20096,-0.07263,-0.03296,-0.04456,-0.0116,-0.00046,-0.00854,0.00473,0.11642,0.61905,-0.03464,-0.02701,0.00549,-0.05295
4.1425,-0.01663,-0.13107,0.24689,-0.16144,-0.03082,-0.04715,-0.0116,0.00076,-0.00687,-0.00031,0.12619,0.64102,-0.03464,-0.02747,0.00397,-0.0528
4.143,-0.02975,-0.13687,0.13779,-0.05325,-0.02975,-0.04715,-0.01312,0.00183,-0.0119,-0.01175,0.13443,0.62012,-0.03464,-0.02808,0.00397,-0.05142
4.1435,-0.03876,-0.1326,-0.04852,0.07324,-0.02884,-0.04547,-0.01572,0.00092,-0.01831,-0.02457,0.13,0.61646,-0.03586,-0.0293,0.0058,-0.04913
4.144,-0.04379,-0.12207,-0.22537,0.04318,-0.02731,-0.04196,-0.01663,-0.00168,-0.02289,-0.03738,0.12512,0.61447,-0.03632,-0.03036,0.00778,-0.04654
4.1445,-0.04059,-0.10696,-0.34561,-0.08118,-0.02548,-0.04044,-0.01617,-0.00305,-0.0235,-0.05096,0.13596,0.56183,-0.03647,-0.03098,0.00748,-0.04486
4.145,-0.03143,-0.08286,-0.39368,-0.13367,-0.02365,-0.04059,-0.01633,-0.00488,-0.01892,-0.05829,0.1503,0.44159,-0.03708,-0.02945,0.00473,-0.04593
4.1455,-0.02625,-0.05066,-0.37781,-0.08575,-0.02258,-0.04089,-0.01999,-0.00671,-0.00809,-0.04471,0.12009,0.28824,-0.03632,-0.02579,0.00305,-0.04761
4.146,-0.02869,-0.02365,-0.32806,-0.03891,-0.02182,-0.03967,-0.02335,-0.00916,0.00412,-0.00763,0.0235,0.15289,-0.03403,-0.02106,0.00336,-0.04684
4.1465,-0.03342,-0.01373,-0.28229,-0.0499,-0.02106,-0.0386,-0.02304,-0.00946,0.01297,0.03464,-0.08102,0.0679,-0.03143,-0.01846,0.00412,-0.04486
4.147,-0.03159,-0.01831,-0.25406,-0.08362,-0.02136,-0.03708,-0.02045,-0.00793,0.01831,0.06302,-0.11078,0.03571,-0.03067,-0.01633,0.00412,-0.04288
4.1475,-0.02472,-0.02548,-0.23285,-0.09933,-0.02075,-0.03815,-0.01968,-0.00549,0.02029,0.07324,-0.05524,0.04181,-0.03204,-0.01526,0.00412,-0.04196
4.148,-0.01572,-0.03036,-0.2063,-0.07584,-0.02151,-0.03876,-0.01923,-0.0029,0.02106,0.06882,0.0293,0.07172,-0.03387,-0.0145,0.00458,-0.04166
4.1485,-0.00275,-0.03464,-0.17532,0.00275,-0.02335,-0.03967,-0.01755,-0.00275,0.02335,0.05371,0.09628,0.11581,-0.03448,-0.01556,0.00488,-0.04074
4.149,0.01556,-0.03769,-0.1442,0.08926,-0.02304,-0.04135,-0.01602,-0.00412,0.02609,0.02808,0.13931,0.15762,-0.03265,-0.01724,0.00519,-0.03937
4.1495,0.0351,-0.03632,-0.11337,0.07584,-0.02197,-0.04272,-0.01343,-0.00305,0.02365,0.00381,0.16129,0.17151,-0.03189,-0.01923,0.00702,-0.03647
4.15,0.04471,-0.02747,-0.08286,-0.03891,-0.01999,-0.04196,-0.009,-0.00031,0.01587,-0.01602,0.1651,0.14053,-0.03265,-0.02045,0.00916,-0.03418
4.1505,0.03967,-0.01175,-0.05478,-0.08743,-0.01907,-0.04059,-0.00565,0.00153,0.00381,-0.03265,0.16251,0.07156,-0.03479,-0.0209,0.00977,-0.03235
4.151,0.03067,0.00793,-0.02991,0.02197,-0.01923,-0.04074,-0.00641,-0.00031,-0.0061,-0.05005,0.16876,-0.01434,-0.03586,-0.02014,0.01251,-0.03204
4.1515,0.03372,0.02747,0.00092,0.12131,-0.02167,-0.0415,-0.01038,-0.00412,-0.01297,-0.06516,0.18051,-0.10239,-0.03632,-0.0206,0.01526,-0.0293
4.152,0.0528,0.03952,0.05188,0.04059,-0.02472,-0.04227,-0.01358,-0.00595,-0.01801,-0.07339,0.18311,-0.18494,-0.03738,-0.02213,0.01663,-0.02579
4.1525,0.06973,0.04303,0.13718,-0.09583,-0.02716,-0.04333,-0.01556,-0.00671,-0.02167,-0.07431,0.1683,-0.24918,-0.03708,-0.02197,0.01678,-0.02365
4.153,0.065,0.03952,0.26352,-0.05371,-0.02869,-0.04486,-0.0177,-0.00717,-0.02289,-0.07324,0.13992,-0.27634,-0.03662,-0.02075,0.01572,-0.02548
4.1535,0.03754,0.02594,0.40787,0.13489,-0.02869,-0.04684,-0.01846,-0.00793,-0.02258,-0.07248,0.10574,-0.26978,-0.03677,-0.02136,0.01251,-0.02899
4.154,0.00214,-0.00702,0.52383,0.24597,-0.02975,-0.04868,-0.01724,-0.00656,-0.02411,-0.07111,0.07217,-0.25299,-0.03815,-0.02335,0.01038,-0.03311
4.1545,-0.02762,-0.06287,0.58624,0.20355,-0.03159,-0.04868,-0.01434,-0.00351,-0.02731,-0.06989,0.0415,-0.24536,-0.03998,-0.02472,0.00809,-0.03586
4.155,-0.05356,-0.13367,0.59509,0.09827,-0.0322,-0.04822,-0.01266,-0.00168,-0.03052,-0.06851,0.01953,-0.25681,-0.03998,-0.02411,0.00839,-0.03693
4.1555,-0.07736,-0.20264,0.5304,-0.01297,-0.03159,-0.04791,-0.01297,-0.00076,-0.02975,-0.06683,0.00992,-0.28198,-0.03983,-0.02274,0.01022,-0.0386
4.156,-0.09644,-0.25406,0.36346,-0.12894,-0.03067,-0.04837,-0.01251,0.00046,-0.02533,-0.06317,0.00427,-0.29419,-0.03937,-0.02075,0.01144,-0.04074
4.1565,-0.10315,-0.27634,0.11597,-0.1973,-0.02991,-0.04898,-0.01114,0.00214,-0.02029,-0.05386,-0.00778,-0.25208,-0.03876,-0.01953,0.01114,-0.04242
4.157,-0.09644,-0.26199,-0.13062,-0.13367,-0.03113,-0.05051,-0.01129,0.00259,-0.01511,-0.04211,-0.02853,-0.1387,-0.03769,-0.0177,0.00793,-0.04379
4.1575,-0.08087,-0.21378,-0.30457,0.03311,-0.03326,-0.05447,-0.01282,0.00015,-0.00961,-0.03235,-0.0473,0.01694,-0.03616,-0.01541,0.00549,-0.04456
4.158,-0.06088,-0.14404,-0.38696,0.15274,-0.0354,-0.05676,-0.01511,-0.00275,-0.00183,-0.0235,-0.0528,0.13611,-0.03448,-0.01495,0.00412,-0.04471
4.1585,-0.04105,-0.06592,-0.39658,0.14465,-0.03632,-0.05722,-0.01587,-0.00488,0.00275,-0.0119,-0.04562,0.14206,-0.03265,-0.01587,0.00504,-0.04471
4.159,-0.0238,0.01602,-0.34805,0.10452,-0.03601,-0.056,-0.01602,-0.00351,0.00046,0.00397,-0.04105,0.04532,-0.03159,-0.01694,0.00626,-0.04517
4.1595,-0.01465,0.09964,-0.24597,0.11932,-0.03723,-0.05508,-0.0148,-0.00137,-0.00595,0.01678,-0.04532,-0.06226,-0.03098,-0.01495,0.00565,-0.04456
4.16,-0.01556,0.17868,-0.10666,0.10117,-0.03922,-0.05508,-0.01343,0.00015,-0.01205,0.02396,-0.05066,-0.13397,-0.03021,-0.01175,0.0061,-0.04135
4.1605,-0.02151,0.24048,0.02518,-0.04669,-0.04181,-0.05539,-0.0116,-0.00198,-0.01495,0.02441,-0.04654,-0.20493,-0.02884,-0.01007,0.00931,-0.03799
4.161,-0.0264,0.27649,0.0914,-0.24261,-0.04303,-0.05478,-0.0119,-0.00565,-0.01495,0.01907,-0.04242,-0.28976,-0.02716,-0.00977,0.01343,-0.03525
4.1615,-0.0267,0.28778,0.06607,-0.32822,-0.0415,-0.05356,-0.01343,-0.00977,-0.01022,0.0087,-0.05157,-0.33447,-0.02502,-0.00992,0.01663,-0.03311
4.162,-0.02609,0.27618,-0.0293,-0.25482,-0.0412,-0.05173,-0.01511,-0.01083,-0.00488,0.00046,-0.07446,-0.31128,-0.02411,-0.009,0.01602,-0.03311
4.1625,-0.02792,0.24963,-0.14511,-0.08438,-0.04135,-0.0502,-0.01709,-0.00824,-0.00504,0.00031,-0.09964,-0.25574,-0.02365,-0.0087,0.01465,-0.0351
4.163,-0.03098,0.21118,-0.24567,0.09338,-0.04059,-0.05096,-0.01877,-0.00488,-0.01297,0.00427,-0.12283,-0.17532,-0.02441,-0.01022,0.01389,-0.03723
4.1635,-0.03479,0.16357,-0.31326,0.21927,-0.03937,-0.05417,-0.0177,-0.00275,-0.02182,-0.00275,-0.15366,-0.03082,-0.02487,-0.01312,0.01175,-0.03876
4.164,-0.03677,0.1088,-0.34164,0.29022,-0.03876,-0.05646,-0.01389,-0.00076,-0.0293,-0.02945,-0.19882,0.1651,-0.02487,-0.01511,0.00946,-0.04135
4.1645,-0.03174,0.0528,-0.32684,0.30838,-0.03769,-0.05585,-0.00854,0.00137,-0.03448,-0.06897,-0.2507,0.30792,-0.02594,-0.0177,0.00656,-0.0441
4.165,-0.0177,0.00031,-0.28061,0.23102,-0.03632,-0.05325,-0.00656,0.00275,-0.03952,-0.10208,-0.29419,0.30075,-0.02762,-0.01953,0.00336,-0.04547
4.1655,0.00336,-0.04456,-0.22308,0.02914,-0.03265,-0.04944,-0.00793,0.00061,-0.04105,-0.11963,-0.31494,0.18021,-0.0296,-0.02121,0.00183,-0.04501
4.166,0.02533,-0.08041,-0.17242,-0.23468,-0.02869,-0.04654,-0.01266,-0.00275,-0.0351,-0.12146,-0.29327,0.0914,-0.03128,-0.02274,0.0032,-0.04501
4.1665,0.04456,-0.1062,-0.13901,-0.46082,-0.0264,-0.04379,-0.0177,-0.00473,-0.02335,-0.11108,-0.20538,0.11322,-0.0325,-0.02548,0.00336,-0.04745
4.167,0.06653,-0.12314,-0.11719,-0.56595,-0.02457,-0.04257,-0.02014,-0.00687,-0.01251,-0.08957,-0.05264,0.17517,-0.03433,-0.0264,0.00305,-0.04929
4.1675,0.09155,-0.12985,-0.09079,-0.48981,-0.02457,-0.04227,-0.01862,-0.00732,-0.00885,-0.06653,0.12268,0.17944,-0.03586,-0.02518,0.00275,-0.04974
4.168,0.11398,-0.12787,-0.05554,-0.25177,-0.02457,-0.04242,-0.0145,-0.00717,-0.01236,-0.05341,0.26306,0.13916,-0.03662,-0.02258,0.00397,-0.04929
4.1685,0.11734,-0.11688,-0.02182,0.00824,-0.02457,-0.04257,-0.00992,-0.00473,-0.0206,-0.0502,0.33829,0.1297,-0.03601,-0.02045,0.00534,-0.04822
4.169,0.09613,-0.10162,0.00031,0.15381,-0.02411,-0.04272,-0.00763,-0.0032,-0.02609,-0.03967,0.34546,0.16357,-0.03494,-0.01938,0.00565,-0.04715
4.1695,0.0647,-0.08728,0.02197,0.20325,-0.02289,-0.04227,-0.00885,-0.00351,-0.02808,-0.01801,0.29129,0.18188,-0.03464,-0.01877,0.00519,-0.04486
4.17,0.04196,-0.08011,0.05859,0.26352,-0.02151,-0.0415,-0.01114,-0.00443,-0.02945,0.00214,0.20462,0.14282,-0.0351,-0.0174,0.0058,-0.04318
4.1705,0.03128,-0.08011,0.11246,0.32791,-0.02228,-0.03876,-0.01373,-0.00549,-0.0322,0.00885,0.13351,0.06927,-0.03555,-0.01617,0.00702,-0.04288
4.171,0.02335,-0.08804,0.1738,0.24963,-0.02457,-0.0386,-0.01419,-0.00504,-0.0325,0.00626,0.11337,-0.00305,-0.03494,-0.0148,0.00839,-0.04333
4.1715,0.01282,-0.10269,0.2298,-0.02731,-0.02579,-0.04059,-0.01389,-0.00427,-0.02533,0.00458,0.12924,-0.07904,-0.03387,-0.01358,0.00977,-0.04333
4.172,0.00183,-0.12085,0.26627,-0.31219,-0.02686,-0.04242,-0.01343,-0.00351,-0.00992,0.00046,0.13992,-0.17776,-0.03403,-0.01312,0.009,-0.04242
4.1725,-0.01099,-0.13336,0.27191,-0.3743,-0.02716,-0.04166,-0.01328,-0.00381,0.00778,-0.01038,0.12695,-0.2829,-0.03571,-0.01266,0.00778,-0.04166
4.173,-0.03296,-0.13245,0.24445,-0.23544,-0.02655,-0.03922,-0.01389,-0.00397,0.01892,-0.02502,0.09628,-0.33279,-0.03738,-0.01282,0.00748,-0.04181
4.1735,-0.05997,-0.11948,0.18677,-0.08881,-0.02579,-0.03738,-0.01526,-0.00305,0.01938,-0.03754,0.05997,-0.27863,-0.0383,-0.01251,0.00748,-0.04181
4.174,-0.07416,-0.10468,0.10712,-0.01465,-0.02686,-0.03754,-0.01587,-0.0029,0.01312,-0.04242,0.02319,-0.14938,-0.03845,-0.01236,0.00732,-0.04242
4.1745,-0.065,-0.09155,0.0238,0.05798,-0.02899,-0.03922,-0.01373,-0.0029,0.00473,-0.03876,-0.01038,-0.02548,-0.03876,-0.01358,0.00702,-0.04242
4.175,-0.03876,-0.0798,-0.05081,0.14511,-0.03159,-0.04028,-0.01083,-0.00198,-0.00015,-0.02853,-0.03693,0.04715,-0.03845,-0.01694,0.0087,-0.04257
4.1755,-0.01419,-0.06683,-0.10773,0.13565,-0.03128,-0.04135,-0.00778,-0.00198,-0.00229,-0.01892,-0.05371,0.07736,-0.03754,-0.01938,0.01007,-0.0415
4.176,-0.00366,-0.05219,-0.13641,-0.02808,-0.03128,-0.04242,-0.00702,-0.00168,-0.00519,-0.0116,-0.06424,0.09018,-0.03586,-0.01862,0.01114,-0.04105
4.1765,-0.00519,-0.04044,-0.12283,-0.22644,-0.03448,-0.04333,-0.00946,-0.00244,-0.01083,-0.00839,-0.07172,0.0943,-0.03418,-0.01678,0.01266,-0.03937
4.177,-0.01373,-0.03296,-0.06012,-0.28488,-0.03815,-0.04517,-0.01221,-0.0032,-0.01648,-0.00656,-0.07904,0.10757,-0.03448,-0.01617,0.01358,-0.03723
4.1775,-0.02396,-0.03159,0.02518,-0.14084,-0.04257,-0.04639,-0.01587,-0.00381,-0.01694,-0.00748,-0.0856,0.14816,-0.03525,-0.01801,0.01328,-0.03708
4.178,-0.03357,-0.03113,0.0856,0.12451,-0.04608,-0.04959,-0.01648,-0.00412,-0.01312,-0.01068,-0.09064,0.20706,-0.03586,-0.02029,0.0116,-0.03937
4.1785,-0.03891,-0.03021,0.09262,0.35995,-0.04745,-0.05219,-0.0145,-0.0029,-0.00885,-0.01541,-0.09323,0.22858,-0.03693,-0.02243,0.009,-0.04242
4.179,-0.0386,-0.03006,0.06027,0.44067,-0.0502,-0.05341,-0.01099,-0.00046,-0.01007,-0.02457,-0.09628,0.1561,-0.0383,-0.02472,0.00671,-0.04547
4.1795,-0.03296,-0.03189,0.01541,0.35004,-0.05081,-0.05447,-0.00916,0.00107,-0.01358,-0.04028,-0.10132,0.00763,-0.03952,-0.02655,0.00687,-0.04501
4.18,-0.02304,-0.03754,-0.02701,0.16846,-0.05051,-0.05447,-0.0116,-0.00031,-0.01724,-0.06012,-0.10788,-0.12268,-0.03906,-0.02808,0.00702,-0.04303
4.1805,-0.01083,-0.04929,-0.07751,-0.04517,-0.04974,-0.05356,-0.01541,-0.00336,-0.01862,-0.07233,-0.11444,-0.17899,-0.03998,-0.02853,0.00732,-0.04181
4.181,-0.00229,-0.06683,-0.14755,-0.29388,-0.04898,-0.05264,-0.01831,-0.00534,-0.01907,-0.06454,-0.1207,-0.21378,-0.03937,-0.02686,0.009,-0.04272
4.1815,-0.00595,-0.0856,-0.23209,-0.53162,-0.04715,-0.05188,-0.0177,-0.00381,-0.01755,-0.04395,-0.12985,-0.29327,-0.03754,-0.02441,0.01068,-0.04318
4.182,-0.02304,-0.09857,-0.30487,-0.62607,-0.04425,-0.05112,-0.01404,-0.00046,-0.01312,-0.02441,-0.14191,-0.37704,-0.03693,-0.0235,0.01175,-0.04196
4.1825,-0.04501,-0.10681,-0.33936,-0.48981,-0.04196,-0.05127,-0.00946,0.00381,-0.0087,-0.01144,-0.15503,-0.3653,-0.03738,-0.0235,0.01114,-0.04196
4.183,-0.05539,-0.11108,-0.32959,-0.17502,-0.03983,-0.05264,-0.00519,0.00473,-0.00702,-0.00259,-0.16266,-0.22247,-0.03784,-0.02518,0.00931,-0.04135
4.1835,-0.05142,-0.11139,-0.29297,0.18738,-0.03708,-0.05234,-0.00504,0.00244,-0.0148,-0.0087,-0.15533,-0.01022,-0.03815,-0.02808,0.00839,-0.04074
4.184,-0.03876,-0.10437,-0.24857,0.46448,-0.03525,-0.05127,-0.01007,-0.00259,-0.02533,-0.04272,-0.12512,0.17624,-0.03784,-0.03036,0.009,-0.03983
4.1845,-0.02396,-0.09201,-0.20523,0.55038,-0.03326,-0.04974,-0.01663,-0.00793,-0.03403,-0.09491,-0.08667,0.27817,-0.03723,-0.02991,0.00839,-0.04135
4.185,-0.01038,-0.07523,-0.16174,0.41687,-0.03143,-0.04868,-0.01968,-0.01007,-0.03479,-0.12268,-0.06638,0.30853,-0.03723,-0.02975,0.00687,-0.04395
4.1855,0.00275,-0.05615,-0.11963,0.14038,-0.02914,-0.04913,-0.01892,-0.00931,-0.03052,-0.10208,-0.06882,0.32166,-0.03586,-0.02975,0.00565,-0.04562
4.186,0.01602,-0.03693,-0.08209,-0.14145,-0.02686,-0.04868,-0.01617,-0.00595,-0.02686,-0.05096,-0.06302,0.34363,-0.03342,-0.02869,0.0029,-0.04547
4.1865,0.02487,-0.02228,-0.05188,-0.31067,-0.02472,-0.04807,-0.01266,-0.00214,-0.02548,-0.00015,-0.02808,0.34821,-0.03204,-0.02487,0.0029,-0.0444
4.187,0.02335,-0.01526,-0.02274,-0.32745,-0.02335,-0.04745,-0.00931,0.00137,-0.02411,0.03784,0.01007,0.30396,-0.03265,-0.02243,0.00366,-0.04349
4.1875,0.01099,-0.01617,0.01755,-0.24689,-0.02411,-0.04745,-0.00809,0.00351,-0.02228,0.06241,0.02075,0.2211,-0.03296,-0.02289,0.00366,-0.04242
4.188,-0.00504,-0.01984,0.07233,-0.14542,-0.02319,-0.04807,-0.01205,0.00183,-0.02167,0.06775,0.00366,0.14343,-0.03281,-0.02625,0.00504,-0.04303
4.1885,-0.0177,-0.02533,0.12726,-0.02655,-0.02426,-0.04868,-0.01831,-0.0029,-0.02411,0.04776,-0.01816,0.10239,-0.0322,-0.02731,0.0058,-0.04364
4.189,-0.02258,-0.02991,0.16205,0.13641,-0.02548,-0.05035,-0.01968,-0.00534,-0.02625,0.01831,-0.02853,0.0943,-0.03159,-0.02747,0.00687,-0.04364
4.1895,-0.01984,-0.03418,0.17029,0.26749,-0.02579,-0.04974,-0.01617,-0.00412,-0.02502,0.00427,-0.03662,0.09445,-0.03052,-0.02808,0.00931,-0.04333
4.19,-0.01022,-0.03952,0.16083,0.22293,-0.02457,-0.04837,-0.01266,-0.00168,-0.02167,0.01724,-0.05493,0.07462,-0.02991,-0.0293,0.01038,-0.04227
4.1905,0.00031,-0.04562,0.14481,0.0177,-0.02274,-0.04715,-0.0119,-0.00122,-0.02014,0.04379,-0.08041,0.01511,-0.03098,-0.03143,0.00885,-0.04227
4.191,0.00793,-0.05249,0.12512,-0.12238,-0.02121,-0.04715,-0.01312,-0.00229,-0.02075,0.06226,-0.09521,-0.0798,-0.03082,-0.03433,0.00687,-0.04242
4.1915,0.01221,-0.05737,0.10025,-0.03189,-0.02014,-0.04715,-0.01328,-0.00305,-0.02243,0.06607,-0.08926,-0.17502,-0.03052,-0.03586,0.00763,-0.04272
4.192,0.01892,-0.06104,0.07019,0.18265,-0.02045,-0.04745,-0.01312,-0.0029,-0.02258,0.05951,-0.06958,-0.23987,-0.02991,-0.03311,0.00946,-0.03998
4.1925,0.02838,-0.06317,0.03723,0.29419,-0.02182,-0.04593,-0.01389,-0.00229,-0.02289,0.04959,-0.04822,-0.27893,-0.02914,-0.02808,0.01282,-0.03784
4.193,0.03693,-0.06332,-0.00839,0.21545,-0.0235,-0.04501,-0.01556,-0.00198,-0.0238,0.0415,-0.04105,-0.31906,-0.02762,-0.02304,0.01465,-0.03647
4.1935,0.04166,-0.05905,-0.0885,0.04303,-0.02213,-0.04501,-0.01556,-0.0029,-0.0235,0.03433,-0.05035,-0.37033,-0.02563,-0.02167,0.01495,-0.03784
4.194,0.04456,-0.05051,-0.19089,-0.08972,-0.01999,-0.04425,-0.01511,-0.00397,-0.02213,0.02838,-0.06454,-0.40665,-0.02457,-0.02472,0.01297,-0.04013
4.1945,0.04837,-0.0412,-0.24292,-0.1329,-0.01923,-0.04211,-0.01572,-0.00458,-0.02075,0.02029,-0.06683,-0.37766,-0.02594,-0.0296,0.01144,-0.04089
4.195,0.05341,-0.03494,-0.18555,-0.1236,-0.0209,-0.04044,-0.01709,-0.00458,-0.02625,0.01068,-0.06653,-0.24353,-0.02899,-0.03342,0.01007,-0.04272
4.1955,0.05585,-0.03418,-0.05051,-0.11642,-0.02548,-0.04166,-0.01709,-0.00412,-0.04028,0.00031,-0.08667,-0.03281,-0.03098,-0.03281,0.00885,-0.04425
4.196,0.05371,-0.03555,0.09384,-0.12497,-0.02762,-0.04456,-0.01663,-0.00259,-0.05447,-0.01221,-0.13123,0.14984,-0.03067,-0.02441,0.00717,-0.04501
4.1965,0.047,-0.03647,0.23148,-0.11978,-0.02884,-0.047,-0.01526,-0.00168,-0.05753,-0.02701,-0.186,0.20065,-0.02823,-0.00992,0.00687,-0.04425
4.197,0.03601,-0.03494,0.38437,-0.06027,-0.02884,-0.04929,-0.01495,-0.0029,-0.04669,-0.04059,-0.23361,0.11856,-0.02548,0.00916,0.00778,-0.04303
4.1975,0.02518,-0.03387,0.52032,0.05112,-0.0296,-0.0499,-0.01572,-0.00427,-0.02747,-0.04623,-0.27176,0.01907,-0.02396,0.02625,0.00885,-0.04379
4.198,0.0148,-0.03891,0.56015,0.14084,-0.03143,-0.05066,-0.01678,-0.00519,-0.00656,-0.04456,-0.29266,0.02106,-0.02472,0.03357,0.00931,-0.04562
4.1985,0.00351,-0.05219,0.46539,0.10971,-0.03372,-0.05066,-0.01648,-0.00473,0.00992,-0.04028,-0.28839,0.10513,-0.02609,0.02716,0.00824,-0.04684
4.199,-0.00778,-0.06821,0.27664,-0.04852,-0.03647,-0.05219,-0.01465,-0.00259,0.01999,-0.0354,-0.25436,0.14999,-0.02716,0.0087,0.00702,-0.04745
4.1995,-0.01953,-0.0766,0.07309,-0.20355,-0.0383,-0.05539,-0.01266,0.00046,0.01907,-0.02899,-0.19913,0.112,-0.02594,-0.00732,0.00595,-0.04745
4.2,-0.03052,-0.07507,-0.07416,-0.22812,-0.03876,-0.05875,-0.01343,0.00305,0.01083,-0.02136,-0.13885,0.06516,-0.02426,-0.01083,0.00656,-0.04593
4.2005,-0.04074,-0.07034,-0.12329,-0.14862,-0.03876,-0.06058,-0.01511,0.0032,0.00336,-0.02075,-0.08591,0.0824,-0.0235,-0.00473,0.00671,-0.04425
4.201,-0.0499,-0.07095,-0.08469,-0.07339,-0.03998,-0.06134,-0.01495,0.00259,-0.00031,-0.03082,-0.04684,0.15274,-0.02457,0.00076,0.00778,-0.04318
4.2015,-0.06149,-0.0766,-0.01877,-0.01587,-0.04074,-0.06119,-0.01404,0.00183,-0.00458,-0.05356,-0.02991,0.21439,-0.02777,-0.00031,0.0087,-0.04181
4.202,-0.07492,-0.08118,0.01633,0.10101,-0.04074,-0.06073,-0.0145,0.00092,-0.0087,-0.08499,-0.03799,0.20172,-0.02975,-0.00137,0.01175,-0.03922
4.2025,-0.08713,-0.07736,0.01068,0.25742,-0.04089,-0.06042,-0.01556,-0.00076,-0.01022,-0.11398,-0.05936,0.08865,-0.02991,0.00137,0.01511,-0.03525
4.203,-0.09338,-0.06531,-0.01572,0.28748,-0.03952,-0.06088,-0.01541,-0.00214,-0.00885,-0.12421,-0.07233,-0.07782,-0.02792,0.00595,0.01724,-0.03159
4.2035,-0.09079,-0.05295,-0.04883,0.10223,-0.03952,-0.06134,-0.0148,-0.00168,-0.00961,-0.10956,-0.06348,-0.20233,-0.02548,0.00702,0.01678,-0.03128
4.204,-0.08347,-0.05325,-0.08514,-0.15137,-0.03937,-0.06134,-0.01526,-0.00244,-0.01312,-0.08255,-0.03723,-0.22034,-0.02319,0.00549,0.01434,-0.03601
4.2045,-0.07416,-0.06943,-0.11993,-0.28473,-0.03799,-0.05936,-0.01785,-0.00687,-0.01678,-0.0589,-0.009,-0.15335,-0.02243,0.00259,0.01266,-0.04013
4.205,-0.06516,-0.09216,-0.15686,-0.28763,-0.03693,-0.05554,-0.01923,-0.0116,-0.01633,-0.04669,0.00595,-0.05905,-0.02289,0.00076,0.01373,-0.04028
4.2055,-0.0563,-0.1123,-0.21179,-0.23895,-0.03693,-0.05341,-0.01709,-0.01297,-0.01236,-0.04028,0.00717,0.02655,-0.02319,-0.00061,0.01389,-0.03708
4.206,-0.04562,-0.13138,-0.29205,-0.13443,-0.03632,-0.05127,-0.0116,-0.00839,-0.00534,-0.03769,0.00977,0.09888,-0.02396,-0.00244,0.01541,-0.03418
4.2065,-0.03281,-0.15594,-0.37094,0.03906,-0.03372,-0.04913,-0.00793,-0.00305,0.00198,-0.03677,0.0177,0.16281,-0.02411,-0.00427,0.0148,-0.0354
4.207,-0.01877,-0.17914,-0.4184,0.17639,-0.0296,-0.04517,-0.00824,0.0,0.00717,-0.03799,0.02106,0.22003,-0.02487,-0.00732,0.01328,-0.03952
4.2075,-0.00381,-0.18463,-0.43091,0.17242,-0.02823,-0.0415,-0.01129,-0.00214,0.0061,-0.04196,0.01099,0.24918,-0.02563,-0.01266,0.00839,-0.04593
4.208,0.01251,-0.16266,-0.42068,0.08423,-0.02777,-0.03906,-0.01526,-0.00641,0.00031,-0.04929,-0.01221,0.20935,-0.02731,-0.01785,0.00443,-0.05051
4.2085,0.02686,-0.12238,-0.3949,0.03082,-0.02823,-0.03784,-0.01785,-0.00977,-0.00931,-0.04852,-0.04715,0.10437,-0.02914,-0.01968,0.00031,-0.05203
4.209,0.03204,-0.07507,-0.35446,0.01984,-0.02777,-0.03693,-0.01755,-0.0087,-0.02014,-0.02808,-0.08316,-0.0087,-0.03067,-0.01938,-0.00153,-0.05096
4.2095,0.02914,-0.02701,-0.30319,-0.02228,-0.02609,-0.03479,-0.01297,-0.00366,-0.0296,0.00931,-0.09506,-0.08743,-0.03143,-0.01846,-0.00107,-0.04883
4.21,0.0238,0.01785,-0.25177,-0.11856,-0.0235,-0.03342,-0.00809,0.00046,-0.03708,0.04715,-0.06271,-0.13733,-0.03281,-0.01755,0.00229,-0.04684
4.2105,0.02197,0.0531,-0.21042,-0.20294,-0.02167,-0.03403,-0.00641,0.00137,-0.04395,0.07034,-0.00137,-0.16815,-0.03448,-0.01816,0.00595,-0.04562
4.211,0.02182,0.07477,-0.17822,-0.20508,-0.01862,-0.0322,-0.00702,-0.00107,-0.05005,0.0769,0.06042,-0.1683,-0.03601,-0.01892,0.00763,-0.04532
4.2115,0.01984,0.08835,-0.15228,-0.10727,-0.01617,-0.0325,-0.00839,-0.00214,-0.0528,0.07202,0.11047,-0.14267,-0.03723,-0.02243,0.00778,-0.04578
4.212,0.01404,0.10056,-0.12466,0.05844,-0.01617,-0.03159,-0.00839,-0.00397,-0.05035,0.06454,0.15167,-0.12054,-0.03754,-0.02655,0.00641,-0.04486
4.2125,0.00717,0.11108,-0.09552,0.22171,-0.01862,-0.03189,-0.00854,-0.00641,-0.04501,0.05173,0.16754,-0.12772,-0.03845,-0.02914,0.00504,-0.04364
4.213,0.00351,0.1152,-0.06561,0.2861,-0.02197,-0.03464,-0.01007,-0.00809,-0.03891,0.03448,0.1326,-0.16968,-0.03952,-0.02914,0.00702,-0.04135
4.2135,0.0029,0.10712,-0.04059,0.1947,-0.02365,-0.03799,-0.01144,-0.00793,-0.03067,0.00916,0.05615,-0.23956,-0.04013,-0.02899,0.00748,-0.04013
4.214,0.00168,0.09216,-0.01892,-0.00015,-0.02258,-0.04013,-0.0116,-0.00381,-0.0206,-0.02579,-0.0177,-0.30273,-0.03998,-0.02853,0.00809,-0.03906
4.2145,-0.00168,0.0766,0.0029,-0.17181,-0.02213,-0.04135,-0.00916,0.00137,-0.00946,-0.06668,-0.05676,-0.30807,-0.04074,-0.02747,0.00885,-0.0386
4.215,-0.00549,0.06485,0.03998,-0.2388,-0.02228,-0.0412,-0.00793,0.0058,-0.00061,-0.1001,-0.06149,-0.24078,-0.04166,-0.0238,0.00931,-0.03922
4.2155,-0.00778,0.05447,0.12344,-0.2272,-0.0238,-0.04181,-0.00946,0.00717,0.00412,-0.11505,-0.0499,-0.13702,-0.04089,-0.02106,0.00885,-0.04013
4.216,-0.00809,0.04456,0.26199,-0.1973,-0.02457,-0.04257,-0.01358,0.00427,0.00443,-0.11337,-0.03464,-0.02487,-0.04013,-0.0206,0.00885,-0.0412
4.2165,-0.00946,0.03738,0.40085,-0.16113,-0.02579,-0.04303,-0.0177,-0.00076,0.00015,-0.10757,-0.03769,0.10727,-0.03967,-0.02335,0.00885,-0.04196
4.217,-0.01205,0.03586,0.45502,-0.07034,-0.02731,-0.04318,-0.01877,-0.00381,-0.00565,-0.10056,-0.07034,0.2504,-0.04013,-0.0267,0.0087,-0.04181
4.2175,-0.01648,0.03708,0.39032,0.12726,-0.02777,-0.04517,-0.0174,-0.00443,-0.01007,-0.08163,-0.10834,0.33356,-0.04074,-0.02792,0.00748,-0.04181
4.218,-0.0209,0.03494,0.23987,0.38376,-0.02899,-0.04822,-0.01678,-0.0029,-0.01007,-0.04623,-0.10498,0.30502,-0.03876,-0.02609,0.00854,-0.04074
4.2185,-0.02304,0.02289,0.05493,0.52277,-0.03067,-0.05005,-0.01801,-0.00229,-0.00732,-0.00961,-0.05417,0.21561,-0.03616,-0.02411,0.00763,-0.03845
4.219,-0.02106,0.00717,-0.12009,0.40405,-0.03159,-0.05005,-0.01938,-0.00244,-0.00534,0.01083,0.00229,0.16068,-0.03448,-0.02289,0.0061,-0.03784
4.2195,-0.01663,-0.0029,-0.24475,0.12192,-0.03113,-0.04852,-0.01907,-0.00153,-0.00458,0.02029,0.02411,0.16571,-0.03479,-0.02213,0.00397,-0.04059
4.22,-0.01312,-0.00793,-0.28397,-0.07416,-0.02991,-0.04715,-0.01663,0.00015,-0.00076,0.03052,0.01678,0.18158,-0.03418,-0.01953,0.00275,-0.0441
4.2205,-0.01175,-0.01266,-0.23254,-0.07538,-0.03113,-0.04623,-0.01495,0.00183,0.00824,0.04059,0.0119,0.16373,-0.03311,-0.0177,0.00336,-0.04639
4.221,-0.00824,-0.01923,-0.12787,-0.01587,-0.03006,-0.04639,-0.0148,0.00153,0.02014,0.04242,0.02243,0.12085,-0.03189,-0.01724,0.00397,-0.04501
4.2215,0.00137,-0.02472,-0.02808,-0.05325,-0.02823,-0.0444,-0.01511,0.0,0.02884,0.03571,0.03998,0.07523,-0.03113,-0.01877,0.00504,-0.0441
4.222,0.01724,-0.03006,0.02609,-0.16022,-0.02609,-0.04349,-0.01663,-0.00168,0.03067,0.02762,0.05371,0.03326,-0.03021,-0.02106,0.00595,-0.04456
4.2225,0.03479,-0.03632,0.03387,-0.21484,-0.02655,-0.04364,-0.01831,-0.00137,0.02548,0.02106,0.06805,-0.00778,-0.03006,-0.02136,0.00641,-0.04623
4.223,0.04761,-0.04272,0.01877,-0.17975,-0.02884,-0.04486,-0.01801,-0.00046,0.01709,0.01694,0.09232,-0.04181,-0.03067,-0.02014,0.00778,-0.04623
4.2235,0.04669,-0.04761,0.0,-0.1149,-0.03128,-0.04547,-0.01587,-0.00092,0.00931,0.01205,0.1268,-0.06561,-0.03082,-0.01785,0.01022,-0.04578
4.224,0.02991,-0.05112,-0.01419,-0.0589,-0.03113,-0.04562,-0.01465,-0.00198,0.00259,0.00732,0.15839,-0.08652,-0.03067,-0.01541,0.01205,-0.04471
4.2245,0.00992,-0.05646,-0.02563,0.00946,-0.03204,-0.04517,-0.0145,-0.00244,-0.00229,0.00336,0.17868,-0.11703,-0.0293,-0.01389,0.01144,-0.04333
4.225,-0.00198,-0.05814,-0.03448,0.09125,-0.0322,-0.04547,-0.01526,-0.00198,-0.00336,0.00153,0.18463,-0.16083,-0.02899,-0.01358,0.01053,-0.04166
4.2255,-0.00763,-0.05356,-0.04028,0.12787,-0.03387,-0.04776,-0.01556,-0.00244,0.00046,0.00198,0.18417,-0.21423,-0.02899,-0.01205,0.00992,-0.04013
4.226,-0.01144,-0.04425,-0.04257,0.07721,-0.03632,-0.04929,-0.01663,-0.00458,0.00534,0.00397,0.17609,-0.25848,-0.02869,-0.00992,0.01053,-0.04028
4.2265,-0.01663,-0.04227,-0.03952,-0.00778,-0.03937,-0.04929,-0.0177,-0.00671,0.00504,0.00702,0.15625,-0.23117,-0.02563,-0.00687,0.01022,-0.03998
4.227,-0.01816,-0.05157,-0.0351,-0.03281,-0.04135,-0.04883,-0.01923,-0.00717,-0.00458,0.00992,0.12482,-0.06561,-0.02335,-0.00534,0.009,-0.04105
4.2275,-0.0119,-0.06516,-0.02823,0.01358,-0.04135,-0.04807,-0.01984,-0.00641,-0.01968,0.01846,0.09399,0.20462,-0.02258,-0.00549,0.00931,-0.04166
4.228,0.00122,-0.07187,-0.00366,0.05859,-0.03983,-0.04913,-0.01923,-0.00549,-0.03143,0.02853,0.07507,0.40543,-0.02258,-0.00671,0.00809,-0.04181
4.2285,0.01465,-0.07217,0.05676,0.04898,-0.03601,-0.05173,-0.01785,-0.00488,-0.03296,0.03586,0.06729,0.38162,-0.02197,-0.00977,0.00687,-0.04181
4.229,0.02274,-0.07294,0.14618,0.00259,-0.0351,-0.05341,-0.01587,-0.00458,-0.02731,0.03464,0.06104,0.17914,-0.02075,-0.01343,0.0061,-0.04303
4.2295,0.02625,-0.07629,0.22491,-0.04364,-0.03632,-0.05325,-0.01404,-0.00427,-0.02197,0.02625,0.05035,-0.02563,-0.01846,-0.01648,0.00702,-0.0441
4.23,0.02716,-0.08224,0.24765,-0.07416,-0.03906,-0.05157,-0.01312,-0.00412,-0.02167,0.01373,0.03601,-0.12207,-0.01694,-0.01663,0.0087,-0.04333
4.2305,0.02411,-0.08743,0.20203,-0.08514,-0.03937,-0.05127,-0.01434,-0.00458,-0.02365,0.00153,0.01953,-0.12268,-0.01617,-0.0177,0.00931,-0.04257
4.231,0.01312,-0.08987,0.10864,-0.08087,-0.03967,-0.05188,-0.01587,-0.00427,-0.02411,-0.00824,0.0,-0.07736,-0.01572,-0.01923,0.00885,-0.04333
4.2315,0.00107,-0.09445,0.00214,-0.08835,-0.03952,-0.05341,-0.01648,-0.00336,-0.02045,-0.01831,-0.01938,-0.02182,-0.01495,-0.02167,0.00977,-0.04364
4.232,-0.00443,-0.10162,-0.08652,-0.13016,-0.04227,-0.05478,-0.01617,-0.00259,-0.01556,-0.03586,-0.0322,0.01465,-0.01633,-0.02319,0.01144,-0.04257
4.2325,-0.00565,-0.10483,-0.12787,-0.16113,-0.04532,-0.05569,-0.01602,-0.0032,-0.01221,-0.05524,-0.03708,0.02518,-0.01923,-0.02411,0.0119,-0.03998
4.233,-0.01068,-0.09628,-0.11353,-0.09857,-0.04562,-0.05478,-0.01648,-0.00458,-0.01251,-0.07095,-0.0444,0.02502,-0.02472,-0.02274,0.01053,-0.03952
4.2335,-0.01968,-0.08194,-0.06699,0.0444,-0.04379,-0.05249,-0.01648,-0.00565,-0.01602,-0.08041,-0.06119,0.0296,-0.0296,-0.01984,0.00839,-0.04059
4.234,-0.0238,-0.08118,-0.03265,0.14191,-0.03906,-0.05142,-0.01495,-0.00549,-0.02182,-0.08835,-0.07874,0.04578,-0.03616,-0.01541,0.00748,-0.04211
4.2345,-0.0206,-0.10178,-0.03967,0.12436,-0.03448,-0.05173,-0.01511,-0.00427,-0.03128,-0.09369,-0.08408,0.0827,-0.04807,-0.01419,0.0087,-0.04074
4.235,-0.01343,-0.12863,-0.08591,0.07446,-0.03174,-0.05066,-0.01602,-0.00473,-0.03952,-0.09552,-0.07202,0.14053,-0.06439,-0.01465,0.00931,-0.04059
4.2355,-0.00732,-0.1503,-0.14954,0.07797,-0.03174,-0.04822,-0.0174,-0.00641,-0.04608,-0.09125,-0.0473,0.19348,-0.07996,-0.01541,0.00931,-0.04089
4.236,-0.00412,-0.168,-0.20859,0.08194,-0.03159,-0.04639,-0.01953,-0.00793,-0.05005,-0.08484,-0.02121,0.19455,-0.08423,-0.01358,0.00854,-0.04257
4.2365,-0.00443,-0.18494,-0.2478,-0.0087,-0.03082,-0.04807,-0.02075,-0.00854,-0.05249,-0.07355,-0.00443,0.11246,-0.07568,-0.01083,0.00793,-0.04395
4.237,-0.00519,-0.18784,-0.25497,-0.17456,-0.02853,-0.04974,-0.02136,-0.00854,-0.05493,-0.05768,-0.00458,-0.03586,-0.05966,-0.01099,0.00809,-0.04349
4.2375,-0.00534,-0.16266,-0.22629,-0.31158,-0.02716,-0.04959,-0.02029,-0.00854,-0.0589,-0.03845,-0.02533,-0.19852,-0.04639,-0.01419,0.00839,-0.04242
4.238,-0.00534,-0.11536,-0.17212,-0.32578,-0.02747,-0.04807,-0.01801,-0.00732,-0.0647,-0.02304,-0.06546,-0.32776,-0.0383,-0.01678,0.01038,-0.04089
4.2385,-0.00717,-0.05936,-0.10956,-0.17578,-0.02747,-0.04562,-0.01587,-0.00473,-0.06958,-0.01236,-0.11749,-0.40268,-0.0354,-0.01785,0.01221,-0.03738
4.239,-0.01266,-0.00366,-0.05356,0.09308,-0.02991,-0.04654,-0.01526,-0.00244,-0.06836,-0.0058,-0.16647,-0.41031,-0.03418,-0.01846,0.01419,-0.03494
4.2395,-0.01999,0.05173,-0.01343,0.32959,-0.03174,-0.04776,-0.01556,-0.00198,-0.06058,-0.00214,-0.19302,-0.35004,-0.03204,-0.01785,0.01419,-0.03296
4.24,-0.02655,0.10483,0.00809,0.3656,-0.0322,-0.04776,-0.0174,-0.0029,-0.0473,-0.00198,-0.18402,-0.23788,-0.0296,-0.01511,0.0148,-0.0322
4.2405,-0.03204,0.15152,0.01816,0.15656,-0.03143,-0.04807,-0.01923,-0.00397,-0.03464,-0.00412,-0.13901,-0.08636,-0.02792,-0.01221,0.01328,-0.03403
4.241,-0.03647,0.18585,0.03876,-0.14252,-0.03143,-0.04959,-0.01968,-0.0058,-0.02472,-0.009,-0.07095,0.0882,-0.02777,-0.00946,0.01068,-0.0383
4.2415,-0.0412,0.19913,0.07736,-0.29602,-0.03204,-0.05051,-0.01816,-0.00595,-0.01541,-0.01663,-0.00137,0.22369,-0.02792,-0.00885,0.00809,-0.04272
4.242,-0.0444,0.18311,0.10635,-0.22247,-0.03281,-0.05081,-0.01495,-0.00458,-0.00793,-0.0238,0.05524,0.24155,-0.02625,-0.00977,0.00687,-0.04608
4.2425,-0.04456,0.13779,0.09613,-0.06454,-0.0322,-0.04959,-0.01266,-0.00259,-0.00107,-0.02823,0.09933,0.14969,-0.02365,-0.01205,0.00595,-0.04745
4.243,-0.04089,0.07492,0.05386,-0.00015,-0.03052,-0.04898,-0.01099,-0.00168,0.00458,-0.02716,0.13412,0.05081,-0.02411,-0.01389,0.00519,-0.04776
4.2435,-0.03448,0.00992,0.02274,-0.04425,-0.02884,-0.04822,-0.00992,-0.00153,0.00702,-0.02411,0.15442,0.02228,-0.02701,-0.01556,0.00519,-0.04745
4.244,-0.02777,-0.04944,0.02014,-0.08606,-0.02686,-0.04837,-0.01007,-0.00214,0.00916,-0.02533,0.14664,0.04227,-0.02853,-0.01602,0.00519,-0.04669
4.2445,-0.01968,-0.10223,0.01801,-0.03738,-0.02457,-0.0473,-0.01144,-0.00214,0.01099,-0.03342,0.10895,0.04929,-0.02777,-0.01633,0.00504,-0.04593
4.245,-0.00885,-0.14069,-0.01984,0.10452,-0.02304,-0.04562,-0.01358,-0.00305,0.01602,-0.04486,0.05554,0.01556,-0.02701,-0.01877,0.0058,-0.04501
4.2455,0.00366,-0.1564,-0.09323,0.2507,-0.02274,-0.04318,-0.01434,-0.00488,0.02441,-0.05081,0.00992,-0.03586,-0.02701,-0.02228,0.00748,-0.04379
4.246,0.01373,-0.1445,-0.18723,0.26627,-0.02121,-0.04135,-0.01404,-0.00641,0.03174,-0.0444,-0.00778,-0.07019,-0.02701,-0.02472,0.00916,-0.04303
4.2465,0.01968,-0.11337,-0.28641,0.11658,-0.01938,-0.04028,-0.01389,-0.00763,0.03204,-0.03265,0.01236,-0.08698,-0.02609,-0.02563,0.00839,-0.04227
4.247,0.02396,-0.07492,-0.36774,-0.06027,-0.01648,-0.04013,-0.01419,-0.00778,0.02121,-0.02609,0.06088,-0.10117,-0.02594,-0.02426,0.00626,-0.04257
4.2475,0.03021,-0.03723,-0.39963,-0.13046,-0.01404,-0.03891,-0.01328,-0.00702,0.00183,-0.02304,0.10849,-0.10452,-0.02655,-0.02457,0.00504,-0.04364
4.248,0.03632,-0.00687,-0.36545,-0.12222,-0.01282,-0.03769,-0.01236,-0.00366,-0.0174,-0.01358,0.13031,-0.08209,-0.02579,-0.02563,0.00656,-0.04318
4.2485,0.04181,0.0119,-0.28625,-0.11612,-0.01617,-0.03693,-0.01266,-0.00015,-0.02914,0.0029,0.11246,-0.02991,-0.02396,-0.02716,0.00778,-0.04181
4.249,0.04593,0.01923,-0.19974,-0.09079,-0.01984,-0.03769,-0.01328,0.00031,-0.03067,0.01495,0.05371,0.05676,-0.02243,-0.02686,0.00931,-0.03998
4.2495,0.04868,0.01709,-0.13931,0.00031,-0.02228,-0.03922,-0.01175,-0.00122,-0.02747,0.00549,-0.02548,0.1796,-0.02106,-0.02365,0.01022,-0.03922
4.25,0.04822,0.00854,-0.10818,0.10818,-0.02258,-0.03998,-0.01068,-0.00244,-0.02625,-0.03448,-0.07675,0.29465,-0.02075,-0.01953,0.00931,-0.03998
4.2505,0.04166,-0.00275,-0.06912,0.13977,-0.02579,-0.0415,-0.01099,-0.00259,-0.02838,-0.09155,-0.06683,0.32928,-0.02182,-0.01892,0.00809,-0.04135
4.251,0.02975,-0.01694,0.02396,0.0882,-0.02914,-0.04257,-0.0119,-0.00458,-0.03021,-0.13214,-0.01953,0.25269,-0.02411,-0.02121,0.00824,-0.04181
4.2515,0.01511,-0.0293,0.15808,0.01526,-0.03128,-0.0441,-0.01099,-0.00656,-0.02716,-0.12863,0.01556,0.10834,-0.02686,-0.02365,0.00854,-0.0412
4.252,0.00046,-0.03677,0.26154,-0.04776,-0.03448,-0.04501,-0.009,-0.00519,-0.01862,-0.08835,0.01694,-0.02487,-0.02991,-0.0264,0.0087,-0.0412
4.2525,-0.01526,-0.04211,0.28305,-0.10315,-0.03723,-0.04593,-0.00717,-0.00214,-0.00458,-0.0351,-0.00168,-0.08713,-0.03159,-0.03113,0.00809,-0.04211
4.253,-0.03006,-0.0502,0.24612,-0.1149,-0.04059,-0.04776,-0.00626,-0.00076,0.01114,0.01129,-0.02365,-0.07706,-0.03311,-0.03555,0.00717,-0.04242
4.2535,-0.03815,-0.06134,0.20721,-0.03448,-0.03967,-0.04807,-0.00641,-0.00153,0.02197,0.04425,-0.03403,-0.04761,-0.03326,-0.03662,0.00656,-0.04227
4.254,-0.03479,-0.06531,0.19104,0.09415,-0.03677,-0.04593,-0.00763,-0.00122,0.02136,0.06149,-0.02289,-0.05417,-0.03204,-0.03464,0.00717,-0.0415
4.2545,-0.02182,-0.05768,0.186,0.15411,-0.03326,-0.04257,-0.01114,-0.00153,0.00992,0.06378,0.01419,-0.09476,-0.03128,-0.0322,0.009,-0.0412
4.255,-0.00839,-0.04425,0.16525,0.11688,-0.03159,-0.04044,-0.01373,-0.00244,-0.00565,0.05127,0.07095,-0.1152,-0.03189,-0.02899,0.00977,-0.04105
4.2555,-0.00122,-0.03586,0.11261,0.09705,-0.0325,-0.0412,-0.01526,-0.00397,-0.01999,0.02838,0.13077,-0.07248,-0.03189,-0.0238,0.01068,-0.03998
4.256,0.00137,-0.03159,0.03036,0.13763,-0.0325,-0.04333,-0.01526,-0.00443,-0.03174,0.00687,0.17731,0.00488,-0.02914,-0.01755,0.00885,-0.04013
4.2565,-0.00061,-0.02808,-0.06287,0.08163,-0.03326,-0.04486,-0.01389,-0.00259,-0.04028,0.00244,0.19333,0.03815,-0.02594,-0.01236,0.00732,-0.0415
4.257,-0.00717,-0.02777,-0.13885,-0.15488,-0.03448,-0.04562,-0.01404,-0.00214,-0.04364,0.01144,0.17242,-0.01678,-0.02304,-0.01358,0.00519,-0.04303
4.2575,-0.01892,-0.03525,-0.18082,-0.34546,-0.0354,-0.04639,-0.01389,-0.00381,-0.04059,0.02335,0.12222,-0.11185,-0.02151,-0.01801,0.00458,-0.04379
4.258,-0.02884,-0.05035,-0.19028,-0.23041,-0.03632,-0.04868,-0.01251,-0.00458,-0.03204,0.02686,0.06088,-0.15137,-0.02014,-0.02243,0.00504,-0.04288
4.2585,-0.03357,-0.06638,-0.18356,0.07309,-0.03677,-0.05127,-0.01022,-0.0058,-0.02182,0.02335,0.00641,-0.08698,-0.01801,-0.02243,0.0061,-0.04227
4.259,-0.03342,-0.08057,-0.17487,0.19882,-0.03708,-0.05356,-0.01114,-0.00732,-0.01617,0.01846,-0.03799,0.04135,-0.0177,-0.02151,0.00732,-0.04227
4.2595,-0.02975,-0.09521,-0.16327,0.02762,-0.03845,-0.05371,-0.01465,-0.00961,-0.01617,0.01465,-0.07065,0.14633,-0.01663,-0.02304,0.00839,-0.04196
4.26,-0.02518,-0.11078,-0.13962,-0.19974,-0.03937,-0.05386,-0.01663,-0.00946,-0.0206,0.00977,-0.0853,0.16937,-0.01511,-0.02502,0.01099,-0.04028
4.2605,-0.02197,-0.12604,-0.08896,-0.26443,-0.04013,-0.05447,-0.01556,-0.00687,-0.02396,-0.00107,-0.07019,0.11429,-0.01404,-0.02411,0.01114,-0.0383
4.261,-0.02228,-0.13748,-0.01328,-0.21133,-0.03967,-0.05356,-0.01373,-0.00336,-0.02243,-0.01801,-0.02792,0.04333,-0.01419,-0.0206,0.00992,-0.0383
4.2615,-0.02594,-0.14618,0.06042,-0.159,-0.03906,-0.05112,-0.01205,-0.00183,-0.0174,-0.03235,0.02182,0.02426,-0.01694,-0.01999,0.00687,-0.03952
4.262,-0.02869,-0.15839,0.09796,-0.10101,-0.03799,-0.04913,-0.01175,-0.00198,-0.01266,-0.03723,0.05386,0.0647,-0.02167,-0.02151,0.00565,-0.04166
4.2625,-0.02777,-0.17578,0.09079,0.01785,-0.03693,-0.04837,-0.00916,-0.00183,-0.01038,-0.03494,0.06104,0.10574,-0.02747,-0.01953,0.0058,-0.04272
4.263,-0.02045,-0.19043,0.06165,0.16953,-0.03448,-0.04974,-0.00839,-0.00031,-0.01129,-0.03036,0.0441,0.09018,-0.03372,-0.01358,0.00687,-0.04257
4.2635,-0.00885,-0.1889,0.03525,0.2655,-0.03235,-0.05127,-0.00977,0.0,-0.01114,-0.02838,0.009,0.02518,-0.0415,-0.00778,0.00885,-0.04028
4.264,0.00412,-0.16891,0.01526,0.26169,-0.03326,-0.05142,-0.0119,-0.00259,-0.00595,-0.03006,-0.03601,-0.03632,-0.05112,-0.00458,0.01083,-0.03891
4.2645,0.0148,-0.14114,-0.02121,0.19547,-0.03571,-0.0499,-0.01221,-0.00504,0.00656,-0.03342,-0.08133,-0.06897,-0.0621,-0.00565,0.01297,-0.03998
4.265,0.01907,-0.11719,-0.11353,0.13,-0.03647,-0.04944,-0.01129,-0.00473,0.02533,-0.0293,-0.11795,-0.08347,-0.07278,-0.00824,0.01312,-0.04303
4.2655,0.01801,-0.09369,-0.24918,0.07813,-0.03555,-0.04959,-0.0119,-0.00107,0.0441,-0.01419,-0.13687,-0.09384,-0.07675,-0.0119,0.01266,-0.04547
4.266,0.01328,-0.05966,-0.3302,0.02518,-0.0351,-0.04868,-0.01297,-0.00031,0.0531,0.00702,-0.13367,-0.10376,-0.07324,-0.01587,0.01022,-0.04654
4.2665,0.00702,-0.01434,-0.2623,-0.009,-0.0351,-0.04669,-0.01434,-0.00244,0.04684,0.02441,-0.10864,-0.11383,-0.06317,-0.01892,0.00931,-0.04745
4.267,0.00168,0.03372,-0.08148,0.00656,-0.03403,-0.04532,-0.01389,-0.00397,0.02945,0.03036,-0.07919,-0.1329,-0.05402,-0.0209,0.00793,-0.047
4.2675,-0.00031,0.07233,0.08026,0.03571,-0.03265,-0.04532,-0.0116,-0.00275,0.01282,0.02441,-0.0647,-0.17883,-0.04807,-0.02258,0.00778,-0.04852
4.268,-0.00107,0.0946,0.15213,0.0029,-0.03128,-0.04623,-0.01038,0.00015,0.00519,0.0061,-0.07339,-0.25772,-0.04562,-0.02396,0.00687,-0.04868
4.2685,-0.00244,0.09995,0.16129,-0.09338,-0.02991,-0.04669,-0.01083,0.0,0.00305,-0.01785,-0.08896,-0.34225,-0.04364,-0.02396,0.00748,-0.04776
4.269,-0.00519,0.09369,0.14771,-0.1767,-0.02914,-0.04639,-0.0116,-0.0032,-0.00015,-0.03555,-0.08347,-0.37537,-0.04288,-0.02243,0.00748,-0.04593
4.2695,-0.00717,0.08179,0.10681,-0.18707,-0.02823,-0.04593,-0.01358,-0.00656,-0.00336,-0.04242,-0.04791,-0.32715,-0.0415,-0.02304,0.00793,-0.04395
4.27,-0.00671,0.06912,0.03036,-0.13275,-0.0267,-0.04547,-0.01419,-0.00763,-0.00626,-0.03952,-0.00473,-0.2243,-0.03967,-0.02365,0.00946,-0.0412
4.2705,-0.00412,0.05356,-0.06317,-0.0676,-0.02502,-0.04532,-0.01465,-0.00717,-0.0116,-0.03677,0.01801,-0.11292,-0.03784,-0.02441,0.01022,-0.03983
4.271,-0.00015,0.03311,-0.13824,-0.04211,-0.02441,-0.04379,-0.01526,-0.00687,-0.01907,-0.03662,0.01282,-0.0061,-0.03784,-0.02396,0.01144,-0.03967
4.2715,0.00336,0.00977,-0.18585,-0.07172,-0.02396,-0.04333,-0.01572,-0.00656,-0.02747,-0.03845,-0.00275,0.10712,-0.03708,-0.02228,0.01221,-0.03983
4.272,0.00504,-0.01068,-0.20859,-0.12131,-0.02487,-0.04196,-0.01663,-0.00595,-0.03372,-0.04715,-0.0087,0.2124,-0.03555,-0.01999,0.01358,-0.03891
4.2725,0.00275,-0.02655,-0.2063,-0.13794,-0.02777,-0.04288,-0.01694,-0.00504,-0.03998,-0.06302,0.00641,0.26627,-0.0325,-0.01862,0.01297,-0.0383
4.273,-0.00259,-0.03662,-0.18219,-0.10284,-0.03174,-0.04471,-0.01648,-0.00488,-0.04639,-0.0885,0.04654,0.27039,-0.03143,-0.01923,0.01099,-0.0383
4.2735,-0.00824,-0.03998,-0.15121,-0.03738,-0.03372,-0.04547,-0.01434,-0.00458,-0.05127,-0.10788,0.09979,0.28305,-0.03204,-0.02228,0.01022,-0.0386
4.274,-0.01038,-0.04181,-0.12482,0.0235,-0.03464,-0.04623,-0.01312,-0.00381,-0.05173,-0.11902,0.13168,0.33554,-0.03235,-0.02579,0.00839,-0.03983
4.2745,-0.00717,-0.04761,-0.10513,0.05768,-0.03433,-0.04623,-0.01053,-0.00137,-0.04837,-0.12894,0.12314,0.37659,-0.03235,-0.02792,0.00793,-0.04013
4.275,-0.00046,-0.06775,-0.08392,0.06866,-0.03235,-0.04745,-0.01099,0.00092,-0.04471,-0.1416,0.0882,0.34592,-0.03235,-0.02869,0.00824,-0.04044
4.2755,0.00519,-0.10178,-0.06027,0.05951,-0.03326,-0.04776,-0.01221,0.00168,-0.04272,-0.13672,0.05081,0.25436,-0.03143,-0.02884,0.00763,-0.04044
4.276,0.01068,-0.13916,-0.03723,0.02655,-0.03387,-0.04623,-0.01434,0.00076,-0.04272,-0.09842,0.01785,0.15671,-0.03143,-0.0293,0.00687,-0.04242
4.2765,0.01617,-0.16525,-0.02045,-0.01068,-0.03418,-0.04486,-0.01572,-0.00061,-0.04028,-0.04105,-0.01236,0.08438,-0.0325,-0.02991,0.0058,-0.0441
4.277,0.01892,-0.17792,-0.00687,-0.00931,-0.03372,-0.04349,-0.01434,-0.00214,-0.03494,0.00412,-0.03647,0.03403,-0.03204,-0.03159,0.00519,-0.04517
4.2775,0.01892,-0.17944,0.00763,0.03967,-0.03296,-0.04456,-0.01389,-0.00336,-0.02701,0.02579,-0.05234,0.00198,-0.03098,-0.03357,0.00549,-0.04395
4.278,0.01816,-0.17303,0.02533,0.09705,-0.03265,-0.04623,-0.01572,-0.00595,-0.01816,0.03021,-0.06287,-0.00916,-0.03235,-0.03265,0.00565,-0.04303
4.2785,0.01785,-0.15808,0.04364,0.13123,-0.03326,-0.04715,-0.0177,-0.00839,-0.01282,0.0264,-0.07431,-0.00336,-0.03418,-0.02487,0.00473,-0.04272
4.279,0.01709,-0.13046,0.056,0.13992,-0.03326,-0.04654,-0.01953,-0.01007,-0.01144,0.01724,-0.08636,0.00534,-0.03494,-0.01129,0.00565,-0.04349
4.2795,0.01709,-0.08987,0.05981,0.11475,-0.0325,-0.04608,-0.02045,-0.0087,-0.01144,0.01022,-0.09628,0.00854,-0.03479,0.00183,0.00732,-0.04181
4.28,0.0177,-0.04242,0.0589,0.04578,-0.03204,-0.04593,-0.01877,-0.00504,-0.00946,0.00763,-0.10498,0.00565,-0.03342,0.00412,0.00839,-0.04013
4.2805,0.01617,0.00198,0.05737,-0.04883,-0.03036,-0.04456,-0.01495,-0.00061,-0.0032,0.01038,-0.11963,-0.00168,-0.03311,-0.00717,0.00885,-0.03906
4.281,0.01053,0.03815,0.056,-0.11993,-0.02975,-0.04349,-0.01144,0.00305,0.00427,0.01343,-0.14145,-0.01251,-0.0322,-0.0209,0.00778,-0.0383
4.2815,0.00198,0.065,0.05173,-0.14267,-0.0296,-0.04318,-0.01205,0.00443,0.01053,0.01465,-0.16708,-0.02213,-0.03159,-0.0264,0.00763,-0.03784
4.282,-0.00443,0.08209,0.04242,-0.14145,-0.03098,-0.04333,-0.01648,0.00336,0.01343,0.01434,-0.19196,-0.02243,-0.03113,-0.02441,0.00626,-0.03769
4.2825,-0.00626,0.0885,0.02731,-0.15228,-0.03021,-0.04379,-0.02075,-0.00092,0.01175,0.01389,-0.20691,-0.02213,-0.03067,-0.02197,0.00687,-0.0383
4.283,-0.00626,0.08438,0.01175,-0.16708,-0.02884,-0.04425,-0.0209,-0.00595,0.00809,0.01312,-0.20264,-0.04227,-0.03021,-0.02243,0.00748,-0.03922
4.2835,-0.00656,0.07446,-0.00076,-0.1416,-0.02747,-0.04562,-0.01755,-0.00641,0.00351,0.01175,-0.17426,-0.0798,-0.02884,-0.02411,0.00793,-0.04013
4.284,-0.00839,0.0618,-0.01236,-0.07034,-0.0267,-0.04684,-0.01297,-0.0029,0.00122,0.00443,-0.12573,-0.09888,-0.02808,-0.02594,0.00839,-0.0412
4.2845,-0.00961,0.04623,-0.02243,-0.01999,-0.02289,-0.04791,-0.01053,0.00046,0.00244,-0.00778,-0.0647,-0.07187,-0.02792,-0.02563,0.00839,-0.04303
4.285,-0.01251,0.02563,-0.03189,-0.03281,-0.01755,-0.04807,-0.01144,0.00107,0.00443,-0.02167,0.00076,-0.0177,-0.02838,-0.02472,0.00778,-0.04364
4.2855,-0.0145,0.0029,-0.03906,-0.0444,-0.01419,-0.04898,-0.0148,-0.00229,0.00504,-0.02975,0.06027,0.01663,-0.02884,-0.0235,0.00687,-0.04364
4.286,-0.01434,-0.0177,-0.03876,0.03754,-0.01678,-0.05142,-0.01709,-0.00534,0.00519,-0.03387,0.1033,0.01343,-0.02975,-0.02121,0.00656,-0.04318
4.2865,-0.01022,-0.03265,-0.02914,0.17136,-0.02106,-0.05219,-0.01709,-0.00549,0.00626,-0.03693,0.12329,-0.00336,-0.02838,-0.01678,0.00778,-0.04227
4.287,-0.00488,-0.04211,-0.01694,0.21835,-0.02151,-0.05203,-0.01724,-0.00275,0.009,-0.03906,0.12665,0.00153,-0.02548,-0.00977,0.00854,-0.04166
4.2875,-0.00214,-0.04974,-0.00656,0.13657,-0.01678,-0.05157,-0.01709,-0.00092,0.01297,-0.0296,0.12939,0.0412,-0.02304,-0.00061,0.00854,-0.04135
4.288,-0.00031,-0.05295,-0.00076,0.02914,-0.01221,-0.05112,-0.01663,-0.00229,0.01587,-0.01007,0.13962,0.10727,-0.02228,0.00565,0.00854,-0.04166
4.2885,-0.00061,-0.05386,0.00275,-0.01694,-0.01282,-0.05173,-0.01526,-0.00595,0.0145,0.00397,0.15015,0.16968,-0.02304,0.00473,0.00763,-0.04242
4.289,-0.0032,-0.05585,0.00641,-0.02655,-0.02228,-0.05249,-0.01556,-0.009,0.00504,-0.00336,0.14999,0.18204,-0.02441,-0.00336,0.0058,-0.04333
4.2895,-0.00793,-0.06134,0.02121,-0.05341,-0.04364,-0.05173,-0.01434,-0.00763,-0.01038,-0.03021,0.13077,0.11856,-0.02548,-0.01526,0.00504,-0.04349
4.29,-0.01328,-0.07126,0.05264,-0.09125,-0.06836,-0.05203,-0.01221,-0.00366,-0.02594,-0.05676,0.08484,0.00885,-0.02762,-0.02411,0.00641,-0.04105
4.2905,-0.01724,-0.0824,0.11017,-0.10117,-0.08041,-0.05081,-0.00977,-0.00092,-0.03769,-0.07248,0.0148,-0.08545,-0.03021,-0.02991,0.00793,-0.03876
4.291,-0.01846,-0.08698,0.18036,-0.06912,-0.0708,-0.0502,-0.00793,0.00061,-0.04608,-0.07767,-0.05249,-0.13275,-0.03098,-0.03235,0.00885,-0.03998
4.2915,-0.01892,-0.08209,0.22675,-0.02197,-0.05081,-0.05005,-0.009,0.00122,-0.05402,-0.06882,-0.07767,-0.1506,-0.03082,-0.03464,0.00885,-0.04288
4.292,-0.01816,-0.07263,0.21515,0.00626,-0.03708,-0.05112,-0.01053,0.00076,-0.05966,-0.04501,-0.05112,-0.17609,-0.03021,-0.03586,0.0087,-0.04578
4.2925,-0.01785,-0.06699,0.14221,0.01541,-0.03693,-0.05249,-0.0119,-0.00092,-0.06516,-0.0177,-0.00488,-0.22064,-0.03082,-0.03754,0.00717,-0.04929
4.293,-0.02106,-0.06912,0.03281,0.04379,-0.04181,-0.05356,-0.01129,-0.00214,-0.07172,0.00305,0.02792,-0.24628,-0.03235,-0.03983,0.00702,-0.0502
4.2935,-0.02579,-0.07324,-0.06592,0.11169,-0.04364,-0.05417,-0.01038,-0.00229,-0.08072,0.01312,0.03769,-0.20737,-0.03357,-0.04044,0.00656,-0.0499
4.294,-0.03235,-0.07355,-0.09033,0.16907,-0.03967,-0.05432,-0.01099,-0.00229,-0.08835,0.01938,0.03143,-0.1123,-0.03326,-0.03845,0.00671,-0.04929
4.2945,-0.04074,-0.07263,-0.01526,0.12466,-0.0325,-0.05447,-0.01297,-0.00244,-0.09003,0.0235,0.01907,-0.01633,-0.03189,-0.03754,0.00732,-0.04868
4.295,-0.04593,-0.07568,0.10147,-0.03418,-0.0267,-0.05524,-0.01343,-0.0029,-0.08301,0.02533,0.00656,0.04166,-0.03143,-0.03601,0.00534,-0.04654
4.2955,-0.04364,-0.07782,0.15854,-0.18707,-0.02335,-0.05478,-0.01343,-0.00412,-0.06836,0.02747,-0.0029,0.07217,-0.03204,-0.03281,0.00565,-0.04288
4.296,-0.03296,-0.0708,0.10925,-0.19867,-0.02075,-0.05066,-0.01343,-0.0061,-0.05005,0.03143,-0.00717,0.10178,-0.03296,-0.02518,0.00702,-0.03967
4.2965,-0.02289,-0.05005,-0.02289,-0.06378,-0.01907,-0.04578,-0.0119,-0.00702,-0.03326,0.03448,-0.00961,0.11932,-0.03326,-0.01724,0.00763,-0.03922
4.297,-0.01877,-0.02289,-0.19119,0.09964,-0.01755,-0.04425,-0.00885,-0.00565,-0.02213,0.03586,-0.00946,0.09552,-0.03418,-0.01373,0.00809,-0.0415
4.2975,-0.01938,0.00168,-0.36026,0.18646,-0.02121,-0.04364,-0.0061,-0.0032,-0.01724,0.0351,-0.00549,0.03616,-0.03448,-0.01602,0.00854,-0.04318
4.298,-0.01663,0.02045,-0.48309,0.17212,-0.02991,-0.04517,-0.00641,-0.00198,-0.01434,0.03433,-0.00092,-0.02075,-0.03342,-0.01755,0.00885,-0.04349
4.2985,-0.01144,0.0296,-0.51483,0.09674,-0.04288,-0.04608,-0.00992,-0.00336,-0.009,0.03143,0.00061,-0.04456,-0.03159,-0.01511,0.01038,-0.04395
4.299,-0.00412,0.02563,-0.44174,0.01724,-0.05417,-0.04639,-0.01389,-0.00443,-0.00229,0.02502,0.00229,-0.04593,-0.0293,-0.00732,0.01221,-0.04303
4.2995,0.00031,0.01129,-0.29266,-0.02167,-0.05508,-0.04608,-0.0148,-0.00534,0.00443,0.01755,0.01129,-0.0502,-0.02838,0.00443,0.01389,-0.04074
4.3,0.00229,-0.00427,-0.12192,-0.01404,-0.0499,-0.04639,-0.01434,-0.00595,0.01038,0.01068,0.02502,-0.06561,-0.02838,0.02014,0.01602,-0.03845
4.3005,0.0032,-0.01328,0.02457,0.00763,-0.04242,-0.0473,-0.01312,-0.00565,0.01465,0.00687,0.03052,-0.08057,-0.02899,0.03677,0.01465,-0.04013
4.301,0.00198,-0.01678,0.12939,0.00076,-0.04089,-0.04898,-0.01343,-0.00381,0.01724,0.00595,0.02029,-0.07324,-0.02975,0.04349,0.01129,-0.04333
4.3015,-0.00153,-0.02182,0.2034,-0.04425,-0.04318,-0.05142,-0.01389,-0.00153,0.02014,0.00656,-0.00015,-0.03891,-0.02899,0.03372,0.00824,-0.04517
4.302,-0.00702,-0.03128,0.25574,-0.09796,-0.04562,-0.05203,-0.01495,-0.00153,0.02121,0.00687,-0.01923,-0.00824,-0.02777,0.01297,0.00702,-0.04486
4.3025,-0.01007,-0.04074,0.27512,-0.13123,-0.04532,-0.05127,-0.01434,-0.00229,0.02151,0.00595,-0.03204,-0.0322,-0.02655,-0.00595,0.00748,-0.04379
4.303,-0.01221,-0.04684,0.24857,-0.15366,-0.04471,-0.05142,-0.01312,-0.00229,0.02167,0.0058,-0.03983,-0.11414,-0.02731,-0.01678,0.00824,-0.04303
4.3035,-0.01419,-0.05096,0.18433,-0.1767,-0.04333,-0.05219,-0.01175,-0.00092,0.02335,0.00748,-0.0499,-0.1889,-0.02838,-0.02075,0.009,-0.04288
4.304,-0.01968,-0.05264,0.10208,-0.15274,-0.04166,-0.05219,-0.01251,-0.00168,0.02747,0.00854,-0.06378,-0.18982,-0.0296,-0.02289,0.01083,-0.04074
4.3045,-0.02411,-0.05157,0.00534,-0.03937,-0.03998,-0.05081,-0.01389,-0.00336,0.03098,0.00687,-0.0795,-0.12573,-0.03067,-0.02487,0.01099,-0.03799
4.305,-0.02319,-0.04333,-0.10422,0.09155,-0.03876,-0.04837,-0.01373,-0.00488,0.03448,0.00229,-0.08881,-0.056,-0.03021,-0.02686,0.00885,-0.03662
4.3055,-0.01297,-0.02884,-0.21652,0.11139,-0.03677,-0.04807,-0.01175,-0.00214,0.03754,-0.00229,-0.0856,-0.00702,-0.03021,-0.02914,0.00549,-0.03723
4.306,0.00259,-0.01068,-0.32043,0.00732,-0.03296,-0.04974,-0.01038,-0.00137,0.03647,-0.00626,-0.07828,0.0473,-0.03113,-0.03265,0.0032,-0.03998
4.3065,0.01816,0.00671,-0.40588,-0.08636,-0.03143,-0.05142,-0.01038,-0.00183,0.03021,-0.01007,-0.08789,0.12665,-0.03448,-0.03601,0.00397,-0.04288
4.307,0.02945,0.01953,-0.4628,-0.05249,-0.03067,-0.0531,-0.01083,-0.00259,0.01846,-0.01953,-0.1236,0.20233,-0.0386,-0.03876,0.0058,-0.04532
4.3075,0.03555,0.02655,-0.47791,0.0827,-0.02991,-0.05402,-0.01068,-0.0029,0.00702,-0.03281,-0.159,0.21912,-0.04288,-0.03769,0.00732,-0.04807
4.308,0.03586,0.03082,-0.45074,0.20142,-0.02731,-0.05386,-0.01022,-0.0029,-0.00122,-0.03952,-0.15366,0.16022,-0.04654,-0.03342,0.00824,-0.04944
4.3085,0.03036,0.03098,-0.39307,0.20645,-0.02625,-0.05325,-0.01221,-0.00366,-0.00534,-0.03235,-0.09598,0.07339,-0.04898,-0.0264,0.00839,-0.04745
4.309,0.01938,0.02502,-0.32166,0.09644,-0.02792,-0.05188,-0.01541,-0.00473,-0.00809,-0.02304,-0.01526,0.01801,-0.0502,-0.02029,0.009,-0.0415
4.3095,0.00748,0.01236,-0.24826,-0.04227,-0.02945,-0.04929,-0.01785,-0.00549,-0.0119,-0.01984,0.06134,-0.00427,-0.0499,-0.01724,0.01221,-0.03708
4.31,0.00015,-0.00381,-0.17731,-0.11658,-0.02808,-0.04868,-0.01877,-0.00549,-0.01816,-0.02502,0.12238,-0.03021,-0.0473,-0.01694,0.01205,-0.03601
4.3105,-0.00381,-0.01953,-0.11276,-0.13138,-0.02792,-0.05051,-0.01953,-0.00641,-0.02258,-0.02762,0.16113,-0.07736,-0.04303,-0.01801,0.01129,-0.03784
4.311,-0.00763,-0.03387,-0.05051,-0.16724,-0.02792,-0.05173,-0.01877,-0.00671,-0.02579,-0.02762,0.16342,-0.12405,-0.0386,-0.01892,0.01022,-0.04028
4.3115,-0.01068,-0.04501,0.00961,-0.25406,-0.02701,-0.05112,-0.0174,-0.00626,-0.02625,-0.03036,0.12543,-0.14862,-0.03555,-0.01984,0.00854,-0.04059
4.312,-0.01038,-0.05463,0.06241,-0.32486,-0.02563,-0.04868,-0.01312,-0.00412,-0.02655,-0.03632,0.06989,-0.14923,-0.03387,-0.02075,0.00809,-0.03906
4.3125,-0.00504,-0.06317,0.10086,-0.30701,-0.02426,-0.04578,-0.00931,-0.00214,-0.02701,-0.0412,0.02472,-0.13199,-0.03464,-0.0235,0.00763,-0.03952
4.313,0.00504,-0.07156,0.11826,-0.20599,-0.02274,-0.04379,-0.00717,-0.00122,-0.03265,-0.04028,0.00107,-0.09903,-0.03571,-0.0235,0.00687,-0.04196
4.3135,0.01602,-0.08041,0.11612,-0.07095,-0.01999,-0.04333,-0.00778,-0.00107,-0.04288,-0.03799,-0.0061,-0.04837,-0.03479,-0.02167,0.00854,-0.04395
4.314,0.02396,-0.09079,0.09933,0.06348,-0.01846,-0.04272,-0.01007,-0.00244,-0.05325,-0.03769,0.00595,0.03586,-0.03113,-0.0174,0.00839,-0.04364
4.3145,0.02838,-0.10178,0.07507,0.17578,-0.01846,-0.04379,-0.01328,-0.00397,-0.05951,-0.04379,0.03418,0.1506,-0.02731,-0.01221,0.00854,-0.04288
4.315,0.03159,-0.11353,0.04868,0.23102,-0.0177,-0.04318,-0.01495,-0.00458,-0.06149,-0.05142,0.05676,0.26184,-0.0235,-0.01022,0.00748,-0.04196
4.3155,0.03494,-0.12527,0.02411,0.19989,-0.01587,-0.04318,-0.01434,-0.00366,-0.06104,-0.06439,0.03723,0.32104,-0.01999,-0.01236,0.00717,-0.04211
4.316,0.03738,-0.1358,0.00443,0.10208,-0.01511,-0.04364,-0.01312,-0.0029,-0.0592,-0.08377,-0.03754,0.30716,-0.01785,-0.01511,0.00732,-0.04227
4.3165,0.03723,-0.14374,-0.00626,0.00565,-0.01617,-0.04608,-0.01328,-0.00336,-0.05524,-0.1059,-0.15411,0.22232,-0.0174,-0.01587,0.00778,-0.04166
4.317,0.0322,-0.15091,-0.00839,-0.02914,-0.01938,-0.04822,-0.01373,-0.00504,-0.05081,-0.11765,-0.29053,0.09521,-0.01801,-0.01511,0.0087,-0.04105
4.3175,0.02502,-0.15549,0.00229,-0.02029,-0.02228,-0.04868,-0.01389,-0.00443,-0.04807,-0.10406,-0.42908,-0.02594,-0.01923,-0.01419,0.01068,-0.04105
4.318,0.01862,-0.1506,0.03433,-0.02808,-0.02472,-0.04883,-0.01404,-0.00275,-0.04608,-0.07339,-0.53818,-0.10941,-0.02167,-0.01389,0.01129,-0.04074
4.3185,0.0119,-0.13275,0.10361,-0.06454,-0.02609,-0.04913,-0.01434,-0.00198,-0.04227,-0.0444,-0.56442,-0.16266,-0.02411,-0.01572,0.01144,-0.04028
4.319,0.00412,-0.1001,0.20615,-0.06821,-0.02579,-0.04944,-0.01526,-0.00275,-0.03876,-0.0293,-0.47394,-0.20538,-0.02594,-0.01678,0.009,-0.04135
4.3195,-0.00168,-0.05707,0.30548,0.00977,-0.02625,-0.04868,-0.01587,-0.00229,-0.03769,-0.0174,-0.27817,-0.21896,-0.02716,-0.01755,0.0061,-0.04395
4.32,-0.00839,-0.00885,0.36209,0.12512,-0.02686,-0.04807,-0.01602,-0.00198,-0.04272,-0.00214,-0.0351,-0.16891,-0.02777,-0.01663,0.00443,-0.04608
4.3205,-0.01968,0.03708,0.37354,0.18295,-0.02762,-0.04715,-0.01572,-0.00168,-0.05081,0.01083,0.18585,-0.04227,-0.02853,-0.0148,0.00565,-0.04639
4.321,-0.03647,0.07034,0.35263,0.14725,-0.02533,-0.04562,-0.01663,-0.00305,-0.05661,0.01205,0.33936,0.12085,-0.02899,-0.01099,0.00717,-0.0444
4.3215,-0.05035,0.0795,0.29495,0.07965,-0.02243,-0.04501,-0.01846,-0.00504,-0.05859,0.0029,0.41229,0.23895,-0.02838,-0.009,0.00763,-0.04135
4.322,-0.0563,0.05768,0.19272,0.06287,-0.0235,-0.04654,-0.02014,-0.00656,-0.05844,-0.00809,0.41138,0.23041,-0.0296,-0.00992,0.00702,-0.04059
4.3225,-0.05508,0.01404,0.06027,0.10818,-0.02655,-0.04944,-0.02029,-0.00687,-0.05997,-0.0177,0.35599,0.09659,-0.03128,-0.01175,0.00626,-0.04089
4.323,-0.04776,-0.03296,-0.08026,0.1593,-0.02991,-0.05066,-0.01877,-0.00488,-0.06042,-0.02579,0.27557,-0.0531,-0.03021,-0.00992,0.00641,-0.04044
4.3235,-0.03799,-0.07217,-0.23849,0.17242,-0.03006,-0.05127,-0.01694,-0.00122,-0.0528,-0.03281,0.19608,-0.12177,-0.02701,-0.0058,0.00748,-0.04044
4.324,-0.03159,-0.09933,-0.41351,0.1561,-0.03143,-0.05081,-0.01617,0.00107,-0.03738,-0.03098,0.14023,-0.12787,-0.02304,-0.00168,0.00916,-0.04013
4.3245,-0.03235,-0.11642,-0.53696,0.11276,-0.0325,-0.04974,-0.01602,0.00153,-0.01953,-0.02457,0.12039,-0.13626,-0.02106,-0.00031,0.009,-0.03998
4.325,-0.03738,-0.12329,-0.52795,0.00122,-0.03235,-0.04913,-0.01556,0.00137,-0.0058,-0.02655,0.12344,-0.15839,-0.02136,-0.00153,0.00778,-0.04089
4.3255,-0.03967,-0.11475,-0.39352,-0.19272,-0.03174,-0.04837,-0.01419,0.00137,0.00183,-0.04562,0.12024,-0.19135,-0.02289,-0.00412,0.00748,-0.04196
4.326,-0.03983,-0.08667,-0.2301,-0.37582,-0.03082,-0.04684,-0.01266,0.00275,0.00519,-0.06668,0.09033,-0.2742,-0.02533,-0.00885,0.009,-0.04364
4.3265,-0.03998,-0.04959,-0.11826,-0.42358,-0.03098,-0.0444,-0.01266,0.00381,0.00641,-0.06927,0.03403,-0.39246,-0.02716,-0.01373,0.01007,-0.04425
4.327,-0.04166,-0.02182,-0.06912,-0.33691,-0.03143,-0.04395,-0.01465,0.00366,0.00626,-0.04791,-0.03418,-0.41122,-0.03052,-0.01846,0.00854,-0.0441
4.3275,-0.04288,-0.00854,-0.0563,-0.21866,-0.03418,-0.04623,-0.01709,0.00137,0.00671,-0.0174,-0.10086,-0.22522,-0.03494,-0.02365,0.00656,-0.04272
4.328,-0.04227,0.00061,-0.06271,-0.12665,-0.03525,-0.04852,-0.01892,-0.00046,0.00748,0.00305,-0.15274,0.06866,-0.03937,-0.02808,0.00687,-0.04028
4.3285,-0.03845,0.0148,-0.08179,-0.03632,-0.03342,-0.0502,-0.01907,-0.00229,0.00778,0.00671,-0.17929,0.26947,-0.04303,-0.03418,0.00824,-0.03876
4.329,-0.03342,0.03098,-0.10284,0.05569,-0.03021,-0.05096,-0.01785,-0.00229,0.00565,0.00168,-0.17105,0.30609,-0.04547,-0.03967,0.01007,-0.03815
4.3295,-0.02808,0.0412,-0.11658,0.10529,-0.02701,-0.04974,-0.01694,-0.00122,0.00122,0.00061,-0.12894,0.26657,-0.04608,-0.04471,0.01007,-0.03906
4.33,-0.02258,0.0386,-0.11887,0.11444,-0.02594,-0.04898,-0.01495,-0.00137,-0.00412,0.00931,-0.0647,0.25314,-0.04639,-0.04715,0.00961,-0.03998
4.3305,-0.01663,0.02411,-0.11154,0.13229,-0.02762,-0.04868,-0.0148,-0.00214,-0.00977,0.02029,0.00153,0.28015,-0.04639,-0.04684,0.00809,-0.04089
4.331,-0.00717,0.00198,-0.09369,0.14893,-0.03067,-0.04944,-0.01556,-0.00244,-0.01419,0.02594,0.05615,0.31265,-0.04471,-0.04562,0.00763,-0.04242
4.3315,0.00504,-0.02319,-0.06516,0.09506,-0.03311,-0.05112,-0.01617,-0.00153,-0.0177,0.01923,0.09308,0.327,-0.04257,-0.04349,0.00839,-0.04242
4.332,0.01556,-0.04974,-0.01999,-0.02289,-0.03296,-0.04913,-0.01617,-0.00168,-0.02151,0.0032,0.11307,0.31235,-0.03998,-0.04196,0.00885,-0.04196
4.3325,0.0209,-0.07324,0.0441,-0.10086,-0.02975,-0.04593,-0.01678,-0.00366,-0.02472,-0.01648,0.1152,0.2594,-0.03799,-0.03998,0.0087,-0.04059
4.333,0.02197,-0.08911,0.12985,-0.06638,-0.02625,-0.04227,-0.01892,-0.00687,-0.02487,-0.03357,0.10193,0.17624,-0.0354,-0.03632,0.00824,-0.04028
4.3335,0.02274,-0.09918,0.215,0.0351,-0.02441,-0.03922,-0.02014,-0.00702,-0.01938,-0.04532,0.0882,0.09903,-0.03174,-0.03067,0.00778,-0.04059
4.334,0.02701,-0.10452,0.26428,0.10941,-0.02396,-0.03616,-0.01968,-0.00397,-0.01099,-0.05005,0.08759,0.05356,-0.02838,-0.0238,0.00702,-0.04074
4.3345,0.03479,-0.103,0.26031,0.09048,-0.0235,-0.03494,-0.01862,-0.00031,-0.00412,-0.04745,0.09262,0.03708,-0.02594,-0.0174,0.0061,-0.04211
4.335,0.04227,-0.09277,0.19608,-0.04227,-0.0206,-0.03342,-0.01862,0.00137,0.00031,-0.0412,0.08316,0.02945,-0.02411,-0.01389,0.00504,-0.04272
4.3355,0.04227,-0.07996,0.05814,-0.24063,-0.01831,-0.03265,-0.01968,0.00183,0.00412,-0.03403,0.05203,0.02182,-0.02197,-0.01297,0.00641,-0.04333
4.336,0.03296,-0.07599,-0.13336,-0.38712,-0.01724,-0.0322,-0.01968,0.00076,0.00854,-0.0238,0.0145,0.01877,-0.02106,-0.01282,0.00931,-0.04242
4.3365,0.01984,-0.08316,-0.28351,-0.40359,-0.01678,-0.0325,-0.01709,0.00015,0.01312,-0.0061,-0.0174,0.02121,-0.02075,-0.01389,0.01175,-0.04211
4.337,0.01053,-0.0943,-0.28046,-0.31952,-0.01541,-0.0325,-0.01495,0.00031,0.01678,0.01465,-0.0415,0.02533,-0.02167,-0.0145,0.01175,-0.04318
4.3375,0.00687,-0.09781,-0.12894,-0.17334,-0.01343,-0.03372,-0.01389,0.00076,0.0174,0.0293,-0.0621,0.02258,-0.02502,-0.01511,0.00977,-0.04379
4.338,0.00946,-0.09125,0.0563,0.04318,-0.01236,-0.03479,-0.01312,0.00061,0.0145,0.03265,-0.06912,0.00916,-0.03204,-0.01633,0.00763,-0.04242
4.3385,0.01297,-0.07751,0.17639,0.27573,-0.01099,-0.0351,-0.0116,-0.00046,0.00687,0.02365,-0.0563,-0.01968,-0.04318,-0.0177,0.00748,-0.04074
4.339,0.01297,-0.0621,0.20996,0.40482,-0.01312,-0.0354,-0.01022,-0.00183,-0.00427,0.0061,-0.03998,-0.06042,-0.05508,-0.02106,0.00778,-0.04089
4.3395,0.01175,-0.04211,0.17517,0.38895,-0.01678,-0.0351,-0.01068,-0.0029,-0.01526,-0.00839,-0.05081,-0.09491,-0.0647,-0.02502,0.00656,-0.0415
4.34,0.00916,-0.01678,0.08408,0.27206,-0.02045,-0.0351,-0.01312,-0.00397,-0.0209,-0.01343,-0.10056,-0.10544,-0.07278,-0.02792,0.00732,-0.04105
4.3405,0.00458,0.00809,-0.04242,0.09598,-0.02304,-0.0354,-0.01724,-0.0058,-0.01648,-0.00671,-0.17059,-0.10284,-0.07797,-0.02914,0.00763,-0.03983
4.341,-0.00214,0.02472,-0.16266,-0.0853,-0.02396,-0.03723,-0.01938,-0.00656,-0.00412,0.00015,-0.2298,-0.10971,-0.07675,-0.02731,0.00748,-0.03937
4.3415,-0.00778,0.03235,-0.23758,-0.19257,-0.02487,-0.03891,-0.01907,-0.00687,0.01007,-0.0029,-0.26123,-0.12833,-0.06638,-0.02411,0.00702,-0.04013
4.342,-0.0119,0.03189,-0.25909,-0.19424,-0.02747,-0.03937,-0.01648,-0.00534,0.02106,-0.01755,-0.26962,-0.12741,-0.0502,-0.02045,0.00687,-0.04059
4.3425,-0.01572,0.02106,-0.24475,-0.13504,-0.03113,-0.0386,-0.01404,-0.00412,0.02563,-0.03296,-0.26535,-0.065,-0.03876,-0.01724,0.00687,-0.04059
4.343,-0.01846,-0.0029,-0.21118,-0.06271,-0.03281,-0.03983,-0.01328,-0.00366,0.02548,-0.03311,-0.25391,0.05035,-0.03372,-0.01633,0.00748,-0.04074
4.3435,-0.01877,-0.03387,-0.16937,0.01724,-0.03296,-0.04318,-0.01358,-0.00397,0.02197,-0.01495,-0.23026,0.14572,-0.0322,-0.01648,0.00732,-0.04196
4.344,-0.01617,-0.05859,-0.12665,0.09506,-0.03387,-0.04684,-0.01343,-0.00595,0.01709,0.01251,-0.18494,0.14267,-0.02991,-0.01785,0.00748,-0.04318
4.3445,-0.01312,-0.06897,-0.08804,0.12344,-0.03387,-0.04883,-0.01297,-0.00702,0.01099,0.03632,-0.11719,0.04654,-0.0296,-0.02304,0.00885,-0.04257
4.345,-0.00885,-0.06744,-0.05676,0.09079,-0.03433,-0.04807,-0.01312,-0.00626,0.00412,0.04807,-0.04074,-0.05951,-0.03098,-0.02884,0.01114,-0.04074
4.3455,-0.00107,-0.05768,-0.03586,0.07248,-0.03464,-0.04669,-0.01358,-0.0032,-0.00076,0.04211,0.02121,-0.11658,-0.03311,-0.03174,0.01266,-0.03937
4.346,0.00839,-0.03998,-0.0293,0.1329,-0.0351,-0.04379,-0.01419,-0.00305,-0.00427,0.0206,0.05432,-0.14389,-0.03662,-0.0293,0.01358,-0.03891
4.3465,0.01587,-0.01694,-0.0412,0.20798,-0.0354,-0.04257,-0.01465,-0.00504,-0.00595,0.00092,0.06699,-0.17868,-0.04089,-0.02365,0.01282,-0.0383
4.347,0.01678,0.00687,-0.07111,0.19226,-0.03754,-0.04471,-0.01511,-0.00717,-0.00778,-0.00488,0.0737,-0.21667,-0.04196,-0.01953,0.0116,-0.03876
4.3475,0.01419,0.02579,-0.10986,0.09018,-0.04044,-0.05188,-0.01495,-0.00732,-0.00977,0.00183,0.07965,-0.22476,-0.03677,-0.01907,0.00977,-0.03922
4.348,0.0119,0.03799,-0.14496,-0.00656,-0.04181,-0.0621,-0.01373,-0.0061,-0.01221,0.00809,0.08041,-0.17853,-0.02548,-0.01877,0.01022,-0.03922
4.3485,0.01266,0.04456,-0.17029,-0.07721,-0.04166,-0.07111,-0.01129,-0.00427,-0.01663,0.00443,0.06927,-0.07767,-0.01419,-0.01709,0.00992,-0.03891
4.349,0.01205,0.04395,-0.17899,-0.17456,-0.04135,-0.0708,-0.00885,-0.00229,-0.02411,-0.00854,0.04395,0.04837,-0.00717,-0.01389,0.00946,-0.03922
4.3495,0.00961,0.03754,-0.16922,-0.24643,-0.0412,-0.06134,-0.00931,-0.00046,-0.0322,-0.02197,0.00549,0.14801,-0.00336,-0.01144,0.01038,-0.03967
4.35,0.00809,0.03021,-0.13626,-0.1355,-0.03983,-0.05051,-0.01068,0.00168,-0.03922,-0.02701,-0.0351,0.18402,-0.00137,-0.00931,0.01175,-0.03937
4.3505,0.00854,0.02121,-0.08606,0.14008,-0.03784,-0.04639,-0.01175,0.00168,-0.04532,-0.02472,-0.07034,0.16418,-0.00122,-0.00885,0.01312,-0.03983
4.351,0.00732,0.00931,-0.0296,0.3154,-0.03616,-0.047,-0.01343,-0.00061,-0.05188,-0.02487,-0.09689,0.11597,-0.00412,-0.00854,0.01099,-0.04166
4.3515,0.00275,-0.00778,0.02411,0.21194,-0.03525,-0.04852,-0.01465,-0.00458,-0.05844,-0.03128,-0.11215,0.05981,-0.01022,-0.00839,0.00809,-0.04318
4.352,-0.0029,-0.02609,0.0705,-0.03693,-0.03448,-0.04852,-0.01617,-0.00687,-0.06317,-0.04105,-0.11307,0.00931,-0.01434,-0.00885,0.00656,-0.04471
4.3525,-0.00839,-0.04669,0.10788,-0.19058,-0.03479,-0.04974,-0.01678,-0.00626,-0.06226,-0.05234,-0.10315,-0.03418,-0.01678,-0.00854,0.00656,-0.0441
4.353,-0.0145,-0.07004,0.12939,-0.18738,-0.03555,-0.05249,-0.01755,-0.00366,-0.05341,-0.06409,-0.08316,-0.08255,-0.02014,-0.00626,0.00763,-0.04364
4.3535,-0.02121,-0.09735,0.12466,-0.13367,-0.03632,-0.05585,-0.01846,-0.00214,-0.03708,-0.07584,-0.05417,-0.13748,-0.02777,-0.00534,0.00854,-0.04272
4.354,-0.02502,-0.121,0.09567,-0.12146,-0.03693,-0.05966,-0.01785,-0.00214,-0.02029,-0.08133,-0.01816,-0.17258,-0.03342,-0.00717,0.00977,-0.04211
4.3545,-0.02396,-0.13672,0.05676,-0.15823,-0.03662,-0.06393,-0.01602,-0.00198,-0.00809,-0.07477,0.02106,-0.16693,-0.03189,-0.00992,0.01053,-0.04196
4.355,-0.01999,-0.14908,0.02411,-0.21851,-0.03815,-0.06882,-0.01572,-0.00244,-0.00259,-0.06226,0.05539,-0.13748,-0.02472,-0.01144,0.00931,-0.04227
4.3555,-0.01511,-0.16815,0.00015,-0.27679,-0.03922,-0.07294,-0.01678,-0.00351,-0.00305,-0.05569,0.07553,-0.11108,-0.02167,-0.0116,0.0087,-0.04242
4.356,-0.01099,-0.19226,-0.01846,-0.29739,-0.0415,-0.07446,-0.01602,-0.0061,-0.00473,-0.06744,0.07599,-0.07858,-0.02457,-0.01129,0.00916,-0.04364
4.3565,-0.00824,-0.21179,-0.03235,-0.25894,-0.04333,-0.07355,-0.0145,-0.00687,-0.00641,-0.10056,0.0531,-0.02167,-0.03006,-0.0119,0.01022,-0.04333
4.357,-0.00946,-0.21088,-0.03906,-0.16312,-0.04364,-0.07065,-0.01343,-0.00656,-0.00763,-0.13351,0.01297,0.04639,-0.03571,-0.01312,0.009,-0.04379
4.3575,-0.01312,-0.18784,-0.03555,-0.01663,-0.04242,-0.06638,-0.0145,-0.0061,-0.01007,-0.13611,-0.02472,0.10559,-0.04089,-0.01526,0.00549,-0.0441
4.358,-0.01694,-0.14862,-0.02319,0.15915,-0.04303,-0.06134,-0.01419,-0.00519,-0.01328,-0.103,-0.03983,0.1619,-0.04547,-0.0177,0.00473,-0.0444
4.3585,-0.01923,-0.09979,-0.00793,0.28656,-0.04501,-0.05646,-0.01205,-0.00366,-0.01709,-0.05905,-0.02808,0.22018,-0.04608,-0.01862,0.0058,-0.04364
4.359,-0.02213,-0.04425,0.00687,0.28046,-0.04776,-0.05417,-0.0116,-0.0029,-0.01892,-0.02975,-0.00412,0.24261,-0.04272,-0.01846,0.00763,-0.04303
4.3595,-0.02457,0.01373,0.01938,0.16205,-0.04822,-0.05112,-0.01282,-0.00275,-0.01892,-0.01709,0.02121,0.18539,-0.03525,-0.01801,0.00839,-0.04074
4.36,-0.02518,0.06851,0.03006,0.04776,-0.04608,-0.04715,-0.01419,-0.00412,-0.01892,-0.00854,0.04593,0.07477,-0.02777,-0.01923,0.00916,-0.03937
4.3605,-0.02472,0.11215,0.03525,0.01541,-0.04364,-0.04303,-0.01358,-0.00443,-0.0206,0.00122,0.06943,-0.01312,-0.02258,-0.01846,0.00961,-0.03967
4.361,-0.02472,0.13962,0.03372,0.02884,-0.04272,-0.04044,-0.01312,-0.00397,-0.02502,0.00992,0.08591,-0.03677,-0.02167,-0.01602,0.00992,-0.04135
4.3615,-0.02411,0.14816,0.02396,0.01572,-0.04349,-0.03906,-0.01205,-0.00427,-0.03021,0.01236,0.09262,-0.03082,-0.02106,-0.01328,0.00916,-0.04257
4.362,-0.01999,0.13824,0.0116,-0.02747,-0.04395,-0.03647,-0.01175,-0.00656,-0.03235,0.00809,0.09338,-0.04684,-0.02136,-0.01389,0.00748,-0.04303
4.3625,-0.01328,0.11414,0.00946,-0.04684,-0.04272,-0.03464,-0.01236,-0.00732,-0.03052,0.00778,0.09567,-0.08698,-0.02304,-0.01724,0.00519,-0.04364
4.363,-0.00793,0.08438,0.02121,-0.01923,-0.04135,-0.03418,-0.01373,-0.0058,-0.02609,0.01816,0.09506,-0.11429,-0.02625,-0.01892,0.00473,-0.0441
4.3635,-0.0058,0.05432,0.03983,0.01892,-0.04074,-0.03754,-0.01526,-0.00412,-0.02335,0.03815,0.08255,-0.10498,-0.02899,-0.01877,0.00488,-0.04318
4.364,-0.00458,0.0267,0.05127,0.0267,-0.04089,-0.03906,-0.01556,-0.00488,-0.02213,0.05508,0.05493,-0.07202,-0.03113,-0.01831,0.00595,-0.04044
4.3645,-0.00244,0.00275,0.05157,0.00275,-0.04288,-0.04135,-0.01495,-0.00641,-0.01999,0.05539,0.01404,-0.0412,-0.03357,-0.01877,0.0061,-0.03891
4.365,0.0,-0.01846,0.04654,-0.02167,-0.0441,-0.04196,-0.01465,-0.00793,-0.0177,0.0264,-0.03403,-0.02136,-0.03677,-0.02136,0.00641,-0.03922
4.3655,0.00183,-0.0412,0.03998,-0.02304,-0.0444,-0.04044,-0.01587,-0.00824,-0.01709,-0.02182,-0.07919,-0.00946,-0.0412,-0.02365,0.00671,-0.03983
4.366,0.0032,-0.06821,0.0322,0.00366,-0.04196,-0.03922,-0.0174,-0.00595,-0.0174,-0.06653,-0.11261,-0.00107,-0.04547,-0.02563,0.00748,-0.03952
4.3665,0.0058,-0.09308,0.02243,0.0383,-0.03754,-0.03799,-0.0177,-0.00458,-0.01419,-0.0885,-0.13412,0.0032,-0.04669,-0.02792,0.00824,-0.03922
4.367,0.00992,-0.10803,0.01297,0.03845,-0.03143,-0.03693,-0.01587,-0.00381,-0.00732,-0.08362,-0.14816,0.00504,-0.04471,-0.02838,0.009,-0.03906
4.3675,0.01328,-0.11246,0.01328,-0.01297,-0.0235,-0.03769,-0.0148,-0.0032,-0.00198,-0.05692,-0.14954,0.00534,-0.04044,-0.02762,0.00763,-0.03937
4.368,0.01266,-0.11353,0.03189,-0.06805,-0.01572,-0.04013,-0.01434,-0.00366,-0.00427,-0.02151,-0.1207,0.00504,-0.03586,-0.02716,0.00763,-0.04013
4.3685,0.0087,-0.1152,0.06805,-0.06866,-0.01129,-0.04211,-0.01511,-0.00381,-0.01038,0.01022,-0.0563,0.00275,-0.03342,-0.02594,0.00793,-0.04013
4.369,0.00305,-0.1152,0.10284,-0.02731,-0.01556,-0.04242,-0.01678,-0.00443,-0.01526,0.02777,0.02838,-0.00061,-0.03174,-0.02243,0.00839,-0.04028
4.3695,-0.00046,-0.11124,0.11658,-0.00031,-0.02899,-0.04028,-0.01678,-0.00397,-0.01511,0.03052,0.11063,-0.00229,-0.0296,-0.01328,0.00885,-0.04028
4.37,-0.00229,-0.10757,0.10315,-0.00763,-0.0415,-0.03784,-0.01633,-0.0029,-0.01099,0.02487,0.17441,0.0,-0.02777,0.00122,0.00931,-0.04074
4.3705,-0.00443,-0.10269,0.07538,-0.02274,-0.04303,-0.03586,-0.01556,-0.0029,-0.0061,0.02258,0.2124,0.00275,-0.02869,0.01389,0.00931,-0.03998
4.371,-0.00702,-0.09064,0.05981,-0.02686,-0.03387,-0.03616,-0.01495,-0.00229,-0.00305,0.02701,0.22278,0.00488,-0.03067,0.01434,0.00824,-0.03891
4.3715,-0.00946,-0.07614,0.07416,-0.0267,-0.02014,-0.03876,-0.01526,-0.00229,-0.00366,0.03586,0.20859,0.00549,-0.03174,-0.00031,0.00717,-0.03845
4.372,-0.01099,-0.0676,0.10147,-0.03326,-0.00565,-0.0444,-0.01495,-0.0029,-0.00763,0.04089,0.18143,0.00549,-0.03067,-0.01816,0.00702,-0.03998
4.3725,-0.01144,-0.06882,0.10208,-0.03586,0.00687,-0.05005,-0.01526,-0.00366,-0.01297,0.04074,0.15305,0.00443,-0.02975,-0.02609,0.00687,-0.04288
4.373,-0.01144,-0.07172,0.05325,-0.02472,0.01373,-0.05325,-0.01556,-0.00351,-0.01724,0.03815,0.13229,0.00259,-0.02899,-0.02396,0.00656,-0.04242
4.3735,-0.01068,-0.07111,-0.0383,-0.00641,0.0061,-0.05157,-0.01709,-0.00244,-0.01846,0.03616,0.11063,0.00061,-0.02731,-0.02167,0.00656,-0.04242
4.374,-0.00839,-0.06866,-0.15335,0.00641,-0.01114,-0.04929,-0.01785,-0.00198,-0.01617,0.03601,0.07462,-0.00107,-0.02487,-0.02274,0.00702,-0.04272
4.3745,-0.00443,-0.06378,-0.27557,0.01328,-0.02655,-0.04913,-0.01724,-0.00183,-0.01236,0.03204,0.02335,-0.00076,-0.02167,-0.0264,0.00809,-0.04456
4.375,0.00305,-0.0592,-0.38223,0.01495,-0.03326,-0.04944,-0.01587,-0.00244,-0.009,0.02319,-0.03159,-0.00229,-0.01846,-0.02777,0.01022,-0.04501
4.3755,0.01175,-0.05219,-0.44418,-0.00122,-0.03372,-0.04898,-0.01556,-0.00214,-0.00717,0.01144,-0.07645,-0.00519,-0.01617,-0.02625,0.0116,-0.04517
4.376,0.01801,-0.04074,-0.44312,-0.04105,-0.04272,-0.04715,-0.01419,-0.00198,-0.00824,0.00046,-0.10513,-0.00427,-0.01648,-0.02197,0.01129,-0.0444
4.3765,0.01846,-0.02182,-0.38361,-0.08362,-0.06531,-0.04669,-0.01389,-0.00244,-0.00961,-0.0058,-0.1152,-0.00015,-0.01923,-0.01923,0.01022,-0.04272
4.377,0.01221,0.00214,-0.29541,-0.09979,-0.09155,-0.04929,-0.01541,-0.00427,-0.01129,-0.00931,-0.11032,0.00336,-0.02197,-0.0209,0.0087,-0.04135
4.3775,0.00336,0.02289,-0.20432,-0.08286,-0.1033,-0.05264,-0.01678,-0.0061,-0.01068,-0.01251,-0.09445,0.00275,-0.02319,-0.02396,0.00854,-0.04135
4.378,-0.00153,0.03601,-0.10742,-0.04517,-0.09293,-0.05386,-0.01648,-0.00641,-0.01114,-0.02182,-0.06882,0.00061,-0.02213,-0.02533,0.00946,-0.04227
4.3785,-0.00244,0.03784,0.01419,0.00824,-0.06958,-0.056,-0.01434,-0.00687,-0.0148,-0.03937,-0.03723,0.00122,-0.02258,-0.02319,0.00931,-0.04349
4.379,-0.00336,0.03189,0.16327,0.07126,-0.04944,-0.05844,-0.0116,-0.0058,-0.01938,-0.05798,-0.01617,0.00641,-0.02594,-0.02045,0.00931,-0.04395
4.3795,-0.00427,0.0235,0.30121,0.1088,-0.03998,-0.05768,-0.01068,-0.00397,-0.02182,-0.06836,-0.01877,0.0119,-0.02914,-0.01923,0.00992,-0.04242
4.38,-0.00412,0.01419,0.37201,0.0856,-0.03876,-0.05295,-0.01099,-0.00229,-0.02411,-0.07126,-0.04654,0.01312,-0.03143,-0.01846,0.01114,-0.04105
4.3805,-0.00015,0.00153,0.3476,0.01617,-0.03922,-0.04547,-0.01343,-0.00214,-0.0296,-0.07355,-0.09048,0.00916,-0.03342,-0.01755,0.01144,-0.04105
4.381,0.0029,-0.01617,0.22995,-0.04089,-0.03967,-0.0415,-0.01526,-0.0029,-0.03799,-0.08179,-0.1358,0.00275,-0.03525,-0.01495,0.01038,-0.04074
4.3815,0.0032,-0.03555,0.05325,-0.04883,-0.03922,-0.0415,-0.01663,-0.00473,-0.04379,-0.10208,-0.1738,-0.00305,-0.03662,-0.01099,0.00839,-0.04013
4.382,-0.00107,-0.05051,-0.12589,-0.02563,-0.03754,-0.04501,-0.01511,-0.00519,-0.04288,-0.12039,-0.19424,-0.0087,-0.03784,-0.00763,0.00687,-0.03952
4.3825,-0.00717,-0.05981,-0.24414,-0.00656,-0.03601,-0.04791,-0.01297,-0.0058,-0.03616,-0.1152,-0.19394,-0.01373,-0.03906,-0.009,0.00702,-0.04013
4.383,-0.0119,-0.06592,-0.27435,0.00061,-0.03571,-0.04959,-0.01221,-0.00443,-0.02853,-0.08377,-0.17746,-0.01862,-0.04181,-0.01282,0.00793,-0.04105
4.3835,-0.0148,-0.06927,-0.23499,0.00656,-0.03159,-0.05051,-0.01343,-0.00305,-0.02472,-0.04349,-0.14633,-0.02045,-0.04501,-0.01221,0.00809,-0.04135
4.384,-0.01755,-0.06943,-0.17166,0.01694,-0.02411,-0.05051,-0.01343,-0.00305,-0.0209,-0.01038,-0.09857,-0.01724,-0.04669,-0.0061,0.00946,-0.04166
4.3845,-0.02151,-0.0621,-0.12177,0.0235,-0.01434,-0.04852,-0.01266,-0.00259,-0.01556,0.01312,-0.03204,-0.00961,-0.04715,0.00381,0.01022,-0.04074
4.385,-0.02518,-0.04761,-0.10895,0.01511,-0.00671,-0.04669,-0.01297,-0.00122,-0.00946,0.03296,0.04532,-0.00244,-0.04761,0.01358,0.0119,-0.0383
4.3855,-0.02853,-0.03052,-0.13779,-0.00549,-0.0032,-0.04395,-0.01312,-0.00015,-0.00732,0.04562,0.11642,0.00046,-0.04852,0.01404,0.01205,-0.03769
4.386,-0.03067,-0.01404,-0.1944,-0.02502,-0.00595,-0.04013,-0.01251,0.0,-0.00809,0.04944,0.15915,0.00122,-0.05066,0.00214,0.01266,-0.03906
4.3865,-0.0325,-0.00427,-0.25711,-0.03448,-0.01236,-0.03616,-0.0116,-0.00122,-0.009,0.04593,0.16098,0.00183,-0.05096,-0.01617,0.0116,-0.04257
4.387,-0.03189,-0.00092,-0.31052,-0.03128,-0.01663,-0.03448,-0.01068,-0.0032,-0.01144,0.03967,0.12543,0.00137,-0.05051,-0.03174,0.00961,-0.04456
4.3875,-0.02853,-0.00336,-0.34332,-0.01999,-0.01678,-0.0354,-0.00977,-0.00427,-0.01694,0.03067,0.07217,-0.00107,-0.05112,-0.03937,0.00809,-0.04547
4.388,-0.02167,-0.00778,-0.34348,-0.00214,-0.01328,-0.03677,-0.00931,-0.00351,-0.02319,0.01892,0.02625,-0.00366,-0.05188,-0.04181,0.00626,-0.04593
4.3885,-0.01144,-0.01038,-0.3009,0.03174,-0.01205,-0.03738,-0.01007,-0.00153,-0.02731,0.00687,0.0029,-0.00488,-0.0499,-0.04333,0.00458,-0.04593
4.389,0.0,-0.01175,-0.22049,0.08591,-0.01465,-0.03784,-0.01053,0.00031,-0.02777,-0.00137,-0.00092,-0.00244,-0.04547,-0.04288,0.00305,-0.04456
4.3895,0.00977,-0.01862,-0.11917,0.12314,-0.01831,-0.03876,-0.01038,0.00229,-0.02594,-0.00854,0.00549,0.00122,-0.0383,-0.03967,0.00229,-0.04379
4.39,0.01297,-0.04303,-0.01938,0.09369,-0.02045,-0.0383,-0.01099,0.00397,-0.02167,-0.01968,0.01785,0.00305,-0.0322,-0.03372,0.00366,-0.04333
4.3905,0.01007,-0.08972,0.06073,0.00183,-0.01984,-0.0383,-0.01068,0.00504,-0.01556,-0.03586,0.03296,0.00061,-0.02777,-0.02701,0.00397,-0.04395
4.391,0.00443,-0.14648,0.10712,-0.0676,-0.01724,-0.0386,-0.00961,0.00549,-0.01083,-0.05081,0.03952,-0.00473,-0.02457,-0.02243,0.00534,-0.04532
4.3915,0.00031,-0.19073,0.12238,-0.06439,-0.01617,-0.04089,-0.00824,0.00473,-0.00671,-0.05569,0.02701,-0.00458,-0.02106,-0.02136,0.0058,-0.0444
4.392,-0.00061,-0.20248,0.11292,-0.03281,-0.01694,-0.04272,-0.00809,0.00351,-0.00488,-0.0499,0.00015,0.00473,-0.01877,-0.02319,0.00595,-0.04364
4.3925,-0.00046,-0.18097,0.0882,-0.02594,-0.01434,-0.04349,-0.00793,0.00183,-0.00397,-0.03998,-0.0322,0.01648,-0.01831,-0.0264,0.00595,-0.04242
4.393,-0.00275,-0.13992,0.06165,-0.02716,-0.00702,-0.04135,-0.00931,-0.00015,-0.00351,-0.0325,-0.0621,0.02029,-0.02136,-0.02747,0.00702,-0.04349
4.3935,-0.00778,-0.09186,0.05524,-0.01877,0.00351,-0.03967,-0.01099,-0.00183,-0.00305,-0.02029,-0.08469,0.01373,-0.02502,-0.0267,0.00702,-0.0441
4.394,-0.01389,-0.04822,0.08698,-0.03632,0.01022,-0.03937,-0.01266,-0.00458,-0.00229,0.00183,-0.09171,0.00534,-0.02792,-0.02457,0.00702,-0.04425
4.3945,-0.01785,-0.01175,0.1474,-0.0853,0.01129,-0.04135,-0.01328,-0.00702,-0.00061,0.02823,-0.08194,-0.00061,-0.03204,-0.02228,0.00763,-0.04364
4.395,-0.01816,0.01495,0.2002,-0.09888,0.00977,-0.04333,-0.01358,-0.00809,0.0,0.04211,-0.06454,-0.0061,-0.03876,-0.01999,0.0087,-0.04364
4.3955,-0.01572,0.03067,0.21576,-0.03525,0.00931,-0.04456,-0.01358,-0.00641,-0.00168,0.03647,-0.0502,-0.01144,-0.0444,-0.01938,0.00885,-0.04486
4.396,-0.01358,0.03815,0.1886,0.04883,0.00961,-0.04456,-0.01251,-0.00427,-0.00427,0.02319,-0.04898,-0.01404,-0.04639,-0.02045,0.00687,-0.04333
4.3965,-0.01358,0.03983,0.12497,0.06851,0.0087,-0.04379,-0.01099,-0.00351,-0.00626,0.00961,-0.06439,-0.01343,-0.04684,-0.0238,0.00671,-0.03998
4.397,-0.0145,0.03632,0.02884,0.01816,0.00763,-0.04196,-0.01129,-0.00336,-0.00702,0.0,-0.09399,-0.01251,-0.04654,-0.02594,0.00626,-0.03876
4.3975,-0.01358,0.02487,-0.08591,-0.047,0.00137,-0.04227,-0.01312,-0.0032,-0.00778,-0.00809,-0.13214,-0.00748,-0.04562,-0.02762,0.00732,-0.04028
4.398,-0.01114,0.0061,-0.19348,-0.09262,-0.01266,-0.04852,-0.0148,-0.00259,-0.0061,-0.01892,-0.16449,0.00641,-0.04333,-0.02701,0.00839,-0.04227
4.3985,-0.00504,-0.01312,-0.2681,-0.1236,-0.03616,-0.0618,-0.01556,-0.00259,-0.00198,-0.0383,-0.17136,0.02655,-0.04181,-0.02609,0.00946,-0.04196
4.399,0.00443,-0.02457,-0.29831,-0.13596,-0.0705,-0.07492,-0.01587,-0.00305,0.00061,-0.06622,-0.13214,0.03937,-0.04227,-0.02701,0.00931,-0.04013
4.3995,0.01572,-0.02655,-0.28931,-0.10208,-0.10712,-0.08057,-0.01541,-0.00168,-0.00137,-0.09399,-0.03998,0.03403,-0.0441,-0.02655,0.01007,-0.03784
4.4,0.02472,-0.02487,-0.25482,-0.00748,-0.12558,-0.07584,-0.01266,0.00122,-0.0058,-0.11078,0.0853,0.01648,-0.04578,-0.02518,0.01007,-0.03677
4.4005,0.02838,-0.0325,-0.20721,0.12238,-0.10651,-0.06729,-0.01083,0.00259,-0.01007,-0.10834,0.19836,-0.00687,-0.04593,-0.02289,0.01114,-0.03708
4.401,0.02853,-0.05295,-0.15854,0.21378,-0.06241,-0.05966,-0.01175,0.00031,-0.01099,-0.09491,0.25711,-0.03784,-0.04303,-0.02228,0.01266,-0.03738
4.4015,0.02579,-0.07996,-0.11475,0.19608,-0.02747,-0.05402,-0.01495,-0.00351,-0.0119,-0.08286,0.25574,-0.0766,-0.03677,-0.02289,0.0116,-0.03677
4.402,0.0209,-0.10284,-0.07965,0.0853,-0.01938,-0.04929,-0.01785,-0.00641,-0.01663,-0.07874,0.2124,-0.10681,-0.0296,-0.02304,0.01297,-0.03616
4.4025,0.01663,-0.11749,-0.05463,-0.01465,-0.02533,-0.04623,-0.01831,-0.00687,-0.0238,-0.08209,0.14725,-0.0885,-0.02686,-0.02197,0.0148,-0.03448
4.403,0.01358,-0.12527,-0.03464,-0.02899,-0.03082,-0.04547,-0.01709,-0.00671,-0.03082,-0.09247,0.07416,-0.00549,-0.02716,-0.02182,0.01526,-0.03433
4.4035,0.0087,-0.12924,-0.01877,0.00076,-0.03464,-0.04623,-0.01556,-0.00687,-0.03525,-0.10315,0.00732,0.08377,-0.02747,-0.02243,0.0148,-0.03479
4.404,0.00122,-0.12543,-0.00549,-0.02304,-0.04181,-0.0473,-0.01465,-0.00534,-0.03799,-0.10818,-0.04105,0.09705,-0.02777,-0.02029,0.01236,-0.03754
4.4045,-0.00549,-0.11292,0.00351,-0.11169,-0.05203,-0.04791,-0.01282,-0.00275,-0.03693,-0.10468,-0.07416,0.03296,-0.02701,-0.01572,0.01053,-0.04074
4.405,-0.00809,-0.09232,0.00916,-0.18402,-0.0589,-0.04761,-0.01251,-0.00076,-0.0293,-0.09506,-0.09918,-0.01251,-0.02899,-0.01007,0.00763,-0.04288
4.4055,-0.00702,-0.07111,0.01205,-0.18646,-0.05844,-0.04654,-0.01404,-0.00244,-0.01572,-0.08026,-0.1149,0.02304,-0.03357,-0.009,0.00671,-0.04211
4.406,-0.00427,-0.05508,0.0148,-0.16571,-0.05463,-0.04593,-0.01633,-0.00656,-0.00168,-0.05859,-0.11948,0.08835,-0.03983,-0.01068,0.00702,-0.03983
4.4065,-0.00122,-0.04547,0.01709,-0.18127,-0.04791,-0.04593,-0.01617,-0.00992,0.00778,-0.02884,-0.11429,0.09964,-0.04379,-0.0119,0.00671,-0.03784
4.407,0.00092,-0.0415,0.01907,-0.21408,-0.04257,-0.04654,-0.0148,-0.00961,0.0116,0.00732,-0.10269,0.05066,-0.04623,-0.01266,0.00504,-0.03754
4.4075,0.00305,-0.0415,0.01984,-0.18707,-0.0386,-0.04684,-0.01328,-0.00732,0.01114,0.0412,-0.08408,-0.00015,-0.04822,-0.01343,0.00412,-0.03891
4.408,0.00443,-0.04074,0.01953,-0.05432,-0.0383,-0.04684,-0.01328,-0.00473,0.00992,0.06119,-0.05661,-0.01801,-0.05188,-0.01358,0.00565,-0.04089
4.4085,0.00519,-0.03876,0.01785,0.12711,-0.0386,-0.04791,-0.01526,-0.00443,0.00778,0.05905,-0.02411,-0.01648,-0.05783,-0.01617,0.00763,-0.04303
4.409,0.00427,-0.03464,0.00809,0.22598,-0.03891,-0.04852,-0.01709,-0.0061,0.0058,0.03906,0.0061,-0.01068,-0.05966,-0.01907,0.00702,-0.04456
4.4095,0.00015,-0.02808,-0.03479,0.17303,-0.0386,-0.04929,-0.01694,-0.00717,0.00183,0.01709,0.02487,-0.00305,-0.05157,-0.02289,0.00671,-0.04456
4.41,-0.00641,-0.01923,-0.12924,0.05173,-0.03662,-0.05035,-0.01526,-0.00549,-0.00183,0.01541,0.02686,0.00626,-0.03448,-0.02502,0.009,-0.04303
4.4105,-0.01343,-0.01038,-0.23315,-0.00824,-0.03464,-0.05112,-0.01572,-0.00443,-0.00595,0.0383,0.01572,0.00992,-0.01678,-0.02472,0.01236,-0.04211
4.411,-0.0174,0.0,-0.24857,0.00473,-0.03296,-0.05051,-0.01724,-0.00275,-0.00916,0.06821,0.0032,0.00824,-0.00519,-0.02289,0.01465,-0.04135
4.4115,-0.01678,0.00854,-0.12817,0.00198,-0.03342,-0.0499,-0.01785,-0.00198,-0.01175,0.07355,-0.00351,0.00839,0.00046,-0.01999,0.0148,-0.04166
4.412,-0.01556,0.01266,0.06943,-0.04868,-0.0354,-0.05066,-0.01556,-0.00137,-0.01373,0.04517,-0.00824,0.01038,0.00549,-0.01953,0.01236,-0.04257
4.4125,-0.01511,0.0087,0.23453,-0.06927,-0.03494,-0.05219,-0.01282,-0.00168,-0.01556,0.00427,-0.01907,0.00778,0.01205,-0.01968,0.00977,-0.04333
4.413,-0.01266,-0.00809,0.31006,0.00565,-0.03235,-0.05249,-0.01129,-0.00259,-0.01801,-0.02197,-0.03418,-0.00275,0.01785,-0.01968,0.00809,-0.04379
4.4135,-0.0087,-0.03464,0.30579,0.11337,-0.02853,-0.05081,-0.01114,-0.0029,-0.01923,-0.02457,-0.04349,-0.01404,0.02197,-0.01984,0.00748,-0.04166
4.414,-0.00565,-0.06027,0.25558,0.13977,-0.02762,-0.05112,-0.01221,-0.00275,-0.02167,-0.02304,-0.03998,-0.01816,0.02853,-0.0206,0.00763,-0.04013
4.4145,-0.00412,-0.07614,0.1828,0.08072,-0.02762,-0.05188,-0.01312,-0.00229,-0.02518,-0.02869,-0.02655,-0.01389,0.03876,-0.02213,0.00671,-0.03983
