time,RectFemL,VastusMedL,VastusLatL,TibAntL,HamMedL,HamLatL,GastroMedL,GastroLatL,RectFemR,VastusMedR,VastusLatR,TibAntR,HamMedR,HamLatR,GastroMedR,GastroLatR
9.22,-0.00397,-0.03952,-0.03143,-0.00839,-0.03693,-0.03891,0.08514,-0.00809,-0.01358,-0.02274,0.13504,-0.00336,-0.01038,-0.02426,0.0145,-0.03754
9.2205,-0.00519,-0.03983,-0.03204,-0.0061,-0.03174,-0.03769,0.06363,-0.0029,-0.01099,-0.02472,0.09491,0.00153,-0.00565,-0.01678,0.01373,-0.03571
9.221,-0.00595,-0.04013,-0.03189,-0.00702,-0.02594,-0.03891,0.03647,-0.00137,-0.00763,-0.02441,0.07401,-0.00565,-0.00549,-0.01022,0.01205,-0.03616
9.2215,-0.00534,-0.03998,-0.03174,-0.009,-0.02167,-0.04257,0.01877,0.00137,-0.0058,-0.02335,0.065,-0.01587,-0.0087,-0.01038,0.01083,-0.03769
9.222,-0.00443,-0.04044,-0.03204,-0.00946,-0.02045,-0.04745,0.01312,0.0058,-0.00717,-0.02106,0.04486,-0.00916,-0.01114,-0.01389,0.01144,-0.03754
9.2225,-0.00443,-0.03952,-0.03296,-0.01022,-0.02182,-0.04944,0.00763,0.00793,-0.00977,-0.02121,-0.00076,0.02441,-0.01297,-0.01648,0.01236,-0.03632
9.223,-0.00351,-0.03937,-0.03265,-0.01205,-0.02289,-0.047,-0.0058,0.00671,-0.01007,-0.02197,-0.06699,0.06714,-0.01389,-0.01648,0.01251,-0.03296
9.2235,-0.00412,-0.0412,-0.03128,-0.01389,-0.02213,-0.0444,-0.02243,0.00549,-0.00763,-0.02121,-0.12466,0.09293,-0.01831,-0.01831,0.01312,-0.02884
9.224,-0.00443,-0.04196,-0.03098,-0.01495,-0.0209,-0.04349,-0.03372,0.00687,-0.00732,-0.01907,-0.14786,0.08316,-0.02792,-0.02441,0.01404,-0.02502
9.2245,-0.00458,-0.04166,-0.03204,-0.0148,-0.01907,-0.04623,-0.03799,0.00977,-0.00885,-0.01556,-0.14343,0.03983,-0.03662,-0.03418,0.0148,-0.01999
9.225,-0.00443,-0.03937,-0.03235,-0.01434,-0.01785,-0.05051,-0.04501,0.01053,-0.01114,-0.01236,-0.15381,-0.02655,-0.03738,-0.04684,0.01541,-0.01801
9.2255,-0.00427,-0.0383,-0.0322,-0.01434,-0.0148,-0.05249,-0.06699,0.00778,-0.01266,-0.01053,-0.20172,-0.09857,-0.0322,-0.06393,0.01663,-0.01923
9.226,-0.00504,-0.03937,-0.03235,-0.01495,-0.01419,-0.05005,-0.11139,0.00198,-0.0145,-0.00824,-0.26825,-0.1506,-0.02899,-0.08545,0.01572,-0.02121
9.2265,-0.00565,-0.04135,-0.0322,-0.01282,-0.01221,-0.04349,-0.16235,-0.00458,-0.01678,-0.00809,-0.32104,-0.15442,-0.03159,-0.1001,0.01465,-0.02151
9.227,-0.00427,-0.04181,-0.03265,-0.00778,-0.01465,-0.03876,-0.1918,-0.00885,-0.01862,-0.00748,-0.34714,-0.10208,-0.03662,-0.09293,0.01465,-0.02151
9.2275,-0.00427,-0.04059,-0.03265,-0.00275,-0.01709,-0.03754,-0.17731,-0.00961,-0.02151,-0.00671,-0.35431,-0.02029,-0.03662,-0.06546,0.01465,-0.02228
9.228,-0.00305,-0.03952,-0.03342,-0.00122,-0.01968,-0.04044,-0.12299,-0.01114,-0.02319,-0.00488,-0.34958,0.0412,-0.03326,-0.03235,0.01266,-0.02319
9.2285,-0.00229,-0.03845,-0.0325,-0.00198,-0.02609,-0.04242,-0.05447,-0.01633,-0.02304,-0.0029,-0.33859,0.04501,-0.03052,-0.00916,0.01099,-0.02426
9.229,-0.00244,-0.03937,-0.03235,-0.0029,-0.03616,-0.04181,0.00702,-0.02411,-0.02335,-0.00244,-0.33203,0.00076,-0.02991,0.00153,0.00946,-0.02365
9.2295,-0.00229,-0.04074,-0.0322,-0.00336,-0.0441,-0.04028,0.05814,-0.02823,-0.02731,-0.00473,-0.35538,-0.04013,-0.02563,-0.00046,0.00824,-0.02365
9.23,-0.00229,-0.04166,-0.03174,-0.00488,-0.04471,-0.04013,0.1033,-0.02594,-0.03265,-0.0058,-0.42465,-0.04181,-0.01221,-0.01511,0.00732,-0.02548
9.2305,-0.00259,-0.04135,-0.0322,-0.00687,-0.04242,-0.04028,0.13458,-0.01694,-0.03387,-0.00473,-0.52231,-0.01373,0.01663,-0.03418,0.00671,-0.02518
9.231,-0.00305,-0.04135,-0.03143,-0.00824,-0.03738,-0.03906,0.14267,-0.00778,-0.03036,-0.00168,-0.60883,0.01099,0.04974,-0.03769,0.00732,-0.02258
9.2315,-0.00214,-0.04318,-0.03067,-0.00824,-0.03952,-0.03769,0.12482,0.00015,-0.02457,-0.00198,-0.66498,0.01785,0.06561,-0.01785,0.00992,-0.01984
9.232,-0.00107,-0.04486,-0.03006,-0.00824,-0.03769,-0.03784,0.08804,0.00259,-0.02151,-0.00259,-0.69489,0.01312,0.05005,0.0119,0.01068,-0.01938
9.2325,-0.00122,-0.04395,-0.02975,-0.00824,-0.03754,-0.03952,0.04044,-0.00168,-0.02167,-0.00488,-0.71533,0.00824,0.01205,0.03601,0.00992,-0.02075
9.233,-0.0029,-0.04242,-0.02975,-0.0087,-0.03204,-0.04211,-0.00534,-0.01297,-0.02121,-0.00198,-0.74234,0.00366,-0.02533,0.04593,0.00916,-0.02243
9.2335,-0.00427,-0.04105,-0.03128,-0.00977,-0.02853,-0.04257,-0.0351,-0.03143,-0.01907,0.00107,-0.7811,-0.00412,-0.05219,0.04059,0.01007,-0.02151
9.234,-0.00412,-0.03998,-0.03082,-0.01068,-0.0293,-0.04227,-0.04028,-0.05142,-0.0177,0.00473,-0.82779,-0.01144,-0.07523,0.02747,0.01068,-0.01877
9.2345,-0.00412,-0.03952,-0.02975,-0.01221,-0.0267,-0.0415,-0.03174,-0.0676,-0.01831,0.00458,-0.88181,-0.01099,-0.09384,0.01892,0.01144,-0.0177
9.235,-0.00381,-0.03906,-0.03052,-0.01175,-0.02625,-0.04089,-0.02502,-0.07813,-0.0206,0.0,-0.93979,-0.00153,-0.09933,0.02197,0.01144,-0.01709
9.2355,-0.00412,-0.04044,-0.03281,-0.01129,-0.02701,-0.04105,-0.02716,-0.08118,-0.02258,-0.00595,-0.98358,0.00763,-0.08591,0.0322,0.0119,-0.01495
9.236,-0.00412,-0.04044,-0.03448,-0.00916,-0.03098,-0.0415,-0.03143,-0.07431,-0.02411,-0.01419,-0.99075,0.00519,-0.06256,0.04074,0.0119,-0.01328
9.2365,-0.00504,-0.04028,-0.03525,-0.00839,-0.03113,-0.04333,-0.03128,-0.06119,-0.02518,-0.01831,-0.95993,-0.00519,-0.04593,0.03265,0.01083,-0.01297
9.237,-0.00595,-0.04074,-0.03464,-0.00885,-0.02762,-0.04684,-0.02716,-0.05005,-0.02502,-0.01907,-0.91049,-0.01144,-0.04044,0.00473,0.01038,-0.01389
9.2375,-0.00732,-0.04105,-0.03357,-0.00946,-0.02274,-0.04929,-0.01633,-0.04456,-0.0235,-0.01755,-0.86487,-0.01129,-0.03891,-0.02762,0.00992,-0.01343
9.238,-0.00687,-0.0412,-0.03387,-0.01068,-0.01923,-0.05142,0.00336,-0.03464,-0.02045,-0.01404,-0.82169,-0.00931,-0.03601,-0.04547,0.00992,-0.01419
9.2385,-0.00595,-0.04196,-0.03479,-0.01053,-0.01892,-0.05188,0.02258,-0.00488,-0.01633,-0.009,-0.7637,-0.00397,-0.03403,-0.04517,0.00992,-0.01434
9.239,-0.00549,-0.04333,-0.0354,-0.00839,-0.01846,-0.05295,0.02731,0.05127,-0.01373,-0.00549,-0.67657,0.00946,-0.0351,-0.04028,0.00977,-0.01358
9.2395,-0.0058,-0.04547,-0.0354,-0.00626,-0.01755,-0.05417,0.01633,0.12115,-0.01099,-0.00687,-0.57007,0.03006,-0.03632,-0.03525,0.01068,-0.01297
9.24,-0.00595,-0.04471,-0.03448,-0.00565,-0.01495,-0.0563,0.00458,0.17914,-0.00824,-0.01053,-0.45929,0.04883,-0.03433,-0.02548,0.01083,-0.01373
9.2405,-0.00656,-0.04257,-0.03387,-0.00732,-0.01373,-0.05753,0.00275,0.19012,-0.00748,-0.01434,-0.34698,0.05814,-0.02716,-0.009,0.01129,-0.01358
9.241,-0.00626,-0.0412,-0.03525,-0.0087,-0.01373,-0.05814,0.00595,0.13229,-0.00793,-0.02136,-0.23758,0.05356,-0.0238,0.0058,0.01038,-0.01312
9.2415,-0.00504,-0.04181,-0.03616,-0.00992,-0.0148,-0.05539,0.00381,0.03479,-0.009,-0.03601,-0.1442,0.03784,-0.02655,0.0061,0.01144,-0.01343
9.242,-0.00427,-0.04395,-0.03708,-0.01083,-0.02182,-0.04684,-0.00504,-0.03021,-0.00961,-0.05661,-0.06805,0.01465,-0.03387,-0.00717,0.01175,-0.0145
9.2425,-0.00488,-0.04593,-0.03555,-0.01175,-0.02716,-0.03723,-0.01343,-0.0235,-0.00977,-0.07339,0.0209,-0.01083,-0.03922,-0.02258,0.01129,-0.01511
9.243,-0.00626,-0.04547,-0.03342,-0.01099,-0.0322,-0.03433,-0.01724,0.02411,-0.01022,-0.07477,0.14664,-0.02151,-0.04105,-0.03204,0.01007,-0.01389
9.2435,-0.00534,-0.04364,-0.03281,-0.00885,-0.0354,-0.03952,-0.02075,0.05371,-0.01068,-0.06256,0.29053,-0.0087,-0.04044,-0.03632,0.00809,-0.01343
9.244,-0.00397,-0.04135,-0.03357,-0.00793,-0.04105,-0.04456,-0.0267,0.04791,-0.00793,-0.04852,0.41077,0.01419,-0.03967,-0.03906,0.00763,-0.0145
9.2445,-0.0032,-0.03998,-0.03494,-0.00793,-0.04593,-0.04303,-0.03281,0.03021,-0.0029,-0.0351,0.49179,0.02457,-0.03922,-0.04227,0.00854,-0.01663
9.245,-0.00229,-0.04044,-0.03677,-0.00702,-0.04898,-0.03738,-0.03601,0.02274,-0.00046,-0.02792,0.55069,0.01251,-0.03906,-0.04532,0.00961,-0.01709
9.2455,-0.00198,-0.0412,-0.0383,-0.00488,-0.05371,-0.03738,-0.03815,0.02075,-0.00427,-0.0209,0.60455,-0.01511,-0.0386,-0.04807,0.01022,-0.01694
9.246,-0.00183,-0.04196,-0.0383,-0.00473,-0.05493,-0.0473,-0.04181,0.01251,-0.01419,-0.01801,0.64651,-0.04593,-0.04166,-0.04868,0.00931,-0.01587
9.2465,-0.00336,-0.04288,-0.03662,-0.0061,-0.05386,-0.06104,-0.04913,-0.00259,-0.02243,-0.0206,0.66589,-0.06927,-0.04395,-0.04608,0.00931,-0.01404
9.247,-0.00473,-0.04288,-0.0354,-0.009,-0.05707,-0.06775,-0.056,-0.01358,-0.02472,-0.02563,0.66696,-0.08636,-0.04349,-0.04044,0.00946,-0.01358
9.2475,-0.0058,-0.04333,-0.03479,-0.01129,-0.05585,-0.06439,-0.05768,-0.01221,-0.0235,-0.02777,0.66696,-0.10056,-0.03922,-0.03769,0.00763,-0.01526
9.248,-0.00687,-0.04349,-0.03479,-0.01221,-0.05264,-0.05798,-0.05341,-0.00366,-0.02075,-0.02716,0.68817,-0.11108,-0.0354,-0.03738,0.00549,-0.01877
9.2485,-0.00656,-0.04349,-0.0351,-0.01297,-0.04425,-0.05554,-0.0444,0.00137,-0.01755,-0.02472,0.74722,-0.11032,-0.0351,-0.03983,0.00473,-0.02213
9.249,-0.00687,-0.04257,-0.0354,-0.01419,-0.03906,-0.05753,-0.03525,-0.00046,-0.01648,-0.0238,0.83939,-0.09888,-0.03525,-0.04196,0.0061,-0.02441
9.2495,-0.0058,-0.04211,-0.03525,-0.01434,-0.03632,-0.05798,-0.02792,-0.00305,-0.01602,-0.01999,0.92834,-0.08484,-0.03677,-0.0444,0.00854,-0.02335
9.25,-0.00534,-0.04257,-0.03525,-0.01282,-0.03601,-0.05524,-0.02274,-0.00366,-0.01617,-0.01419,0.97168,-0.06622,-0.03647,-0.04456,0.00931,-0.02213
9.2505,-0.00443,-0.04395,-0.03571,-0.01038,-0.03433,-0.05249,-0.01984,-0.00397,-0.01587,-0.00885,0.96176,-0.02716,-0.03708,-0.04318,0.00854,-0.02243
9.251,-0.00473,-0.04425,-0.0383,-0.00839,-0.0322,-0.05173,-0.01755,-0.00641,-0.01587,-0.00397,0.93246,0.03525,-0.03571,-0.04196,0.00748,-0.02411
9.2515,-0.00519,-0.04333,-0.04028,-0.00778,-0.0322,-0.05157,-0.0174,-0.00946,-0.01556,0.00153,0.92163,0.09567,-0.03403,-0.03967,0.00656,-0.02716
9.252,-0.00488,-0.04211,-0.04089,-0.009,-0.03204,-0.05203,-0.01953,-0.01022,-0.01526,0.00671,0.93781,0.13489,-0.0322,-0.03876,0.00565,-0.02899
9.2525,-0.00397,-0.04181,-0.03906,-0.01068,-0.03006,-0.05417,-0.0209,-0.00763,-0.01251,0.00961,0.95825,0.16006,-0.03296,-0.0386,0.00473,-0.03052
9.253,-0.00473,-0.04242,-0.03799,-0.01083,-0.03098,-0.05737,-0.02151,-0.00595,-0.00793,0.00809,0.95886,0.18097,-0.03433,-0.03967,0.00504,-0.03128
9.2535,-0.00626,-0.04379,-0.03693,-0.00992,-0.03204,-0.0618,-0.02197,-0.00412,-0.0032,0.00519,0.94376,0.18661,-0.03357,-0.0386,0.00626,-0.03067
9.254,-0.00702,-0.04303,-0.03647,-0.00977,-0.03235,-0.06592,-0.02213,-0.00381,-0.00092,0.00443,0.93124,0.15549,-0.03174,-0.03738,0.00977,-0.02975
9.2545,-0.00534,-0.04166,-0.03601,-0.01053,-0.03235,-0.0679,-0.0209,-0.00473,-0.00076,0.00397,0.92484,0.08942,-0.03036,-0.03662,0.00916,-0.03082
9.255,-0.00443,-0.04059,-0.03555,-0.01083,-0.03098,-0.06729,-0.0174,-0.00656,-0.00137,0.00031,0.91171,0.02396,-0.02914,-0.03571,0.00793,-0.03403
9.2555,-0.00488,-0.04028,-0.03479,-0.0087,-0.03326,-0.06348,-0.01373,-0.00778,-0.00168,-0.00824,0.87784,-0.01068,-0.02625,-0.03479,0.00534,-0.03601
9.256,-0.00656,-0.03937,-0.03448,-0.00656,-0.03586,-0.05905,-0.01205,-0.00839,-0.00244,-0.01816,0.82626,-0.01465,-0.02899,-0.03235,0.00488,-0.03784
9.2565,-0.00626,-0.03983,-0.03479,-0.00687,-0.03571,-0.056,-0.01297,-0.00946,-0.00412,-0.02579,0.77301,-0.00443,-0.03082,-0.03128,0.00458,-0.04028
9.257,-0.00565,-0.03952,-0.0351,-0.00946,-0.03357,-0.0531,-0.01495,-0.01251,-0.00443,-0.02914,0.72952,0.00443,-0.03281,-0.03021,0.00488,-0.04105
9.2575,-0.00534,-0.04044,-0.03601,-0.01022,-0.02975,-0.04791,-0.01694,-0.0148,-0.00381,-0.0296,0.68924,0.00824,-0.02853,-0.02808,0.00626,-0.04211
9.258,-0.00687,-0.0412,-0.03723,-0.00916,-0.03006,-0.04105,-0.01785,-0.01297,-0.00412,-0.02777,0.63766,0.0032,-0.02625,-0.02472,0.00565,-0.04227
9.2585,-0.00778,-0.04105,-0.03784,-0.00732,-0.0296,-0.03952,-0.01572,-0.00824,-0.00443,-0.02777,0.57068,-0.0119,-0.02487,-0.02167,0.00366,-0.04196
9.259,-0.00748,-0.04028,-0.03891,-0.00687,-0.02792,-0.04135,-0.01114,-0.00656,-0.00381,-0.02609,0.5011,-0.02701,-0.0264,-0.02045,0.00153,-0.04211
9.2595,-0.0061,-0.03906,-0.03906,-0.00748,-0.02655,-0.04272,-0.00656,-0.00977,-0.00397,-0.02228,0.44037,-0.03067,-0.0293,-0.02029,0.00183,-0.04211
9.26,-0.00534,-0.0383,-0.03738,-0.00778,-0.02335,-0.04196,-0.00656,-0.01907,-0.0058,-0.01907,0.3862,-0.01587,-0.02884,-0.01831,0.00351,-0.03998
9.2605,-0.00565,-0.03784,-0.0351,-0.00732,-0.02274,-0.04257,-0.01099,-0.03159,-0.00778,-0.01785,0.33707,0.00427,-0.02945,-0.01541,0.00351,-0.03891
9.261,-0.00656,-0.0386,-0.03265,-0.00717,-0.02319,-0.04562,-0.01617,-0.04242,-0.00748,-0.02075,0.28763,0.01236,-0.03265,-0.01419,0.00275,-0.03876
9.2615,-0.00641,-0.03952,-0.03189,-0.00732,-0.02472,-0.04929,-0.01862,-0.04761,-0.00534,-0.02396,0.22858,0.00305,-0.03616,-0.01328,0.00351,-0.04059
9.262,-0.00534,-0.04089,-0.03159,-0.00717,-0.02518,-0.04745,-0.0174,-0.0412,-0.00305,-0.02853,0.15182,-0.01831,-0.0386,-0.01068,0.00443,-0.04166
9.2625,-0.00534,-0.04074,-0.0325,-0.00565,-0.02426,-0.04272,-0.01404,-0.02274,-0.00229,-0.03082,0.06912,-0.04166,-0.03967,-0.0061,0.00565,-0.04166
9.263,-0.00565,-0.04028,-0.03265,-0.00443,-0.0235,-0.03845,-0.00931,0.00778,-0.00504,-0.03189,-0.00015,-0.06256,-0.04074,-0.00122,0.00595,-0.04211
9.2635,-0.00595,-0.04028,-0.03189,-0.00549,-0.02441,-0.03799,-0.00732,0.03937,-0.01068,-0.03174,-0.04883,-0.07828,-0.0412,0.00229,0.00565,-0.04318
9.264,-0.00565,-0.04074,-0.03113,-0.00839,-0.02884,-0.0415,-0.00641,0.05844,-0.01862,-0.0322,-0.09186,-0.08728,-0.04105,0.00244,0.00717,-0.0441
9.2645,-0.00473,-0.03998,-0.03143,-0.01129,-0.03433,-0.04578,-0.00778,0.05463,-0.02609,-0.03189,-0.14297,-0.09781,-0.04181,0.00031,0.00824,-0.04471
9.265,-0.00473,-0.04028,-0.03189,-0.01129,-0.03937,-0.04868,-0.009,0.02975,-0.02899,-0.03357,-0.20981,-0.11703,-0.04196,0.00275,0.00778,-0.04395
9.2655,-0.00443,-0.04196,-0.03525,-0.01068,-0.04105,-0.04883,-0.00977,0.00229,-0.02472,-0.03326,-0.2887,-0.12833,-0.04013,0.01038,0.00626,-0.04456
9.266,-0.00565,-0.04395,-0.03647,-0.009,-0.04044,-0.04623,-0.0116,-0.01465,-0.01587,-0.02518,-0.36652,-0.08438,-0.03876,0.0177,0.00504,-0.04669
9.2665,-0.00549,-0.04517,-0.03662,-0.00793,-0.03738,-0.04242,-0.0145,-0.01999,-0.0061,-0.00092,-0.42892,0.02304,-0.03738,0.00671,0.0058,-0.04898
9.267,-0.00595,-0.04501,-0.03555,-0.00763,-0.03784,-0.03845,-0.01526,-0.02136,-0.00046,0.03799,-0.47745,0.12924,-0.03616,-0.03128,0.00626,-0.04852
9.2675,-0.00519,-0.04288,-0.03448,-0.00656,-0.03632,-0.03677,-0.01434,-0.02289,0.00122,0.06729,-0.51666,0.15045,-0.03586,-0.07324,0.00626,-0.04623
9.268,-0.00504,-0.04135,-0.03296,-0.00656,-0.03586,-0.0383,-0.01343,-0.0235,0.00122,0.06165,-0.54611,0.0856,-0.03555,-0.08698,0.00671,-0.04669
9.2685,-0.00565,-0.03937,-0.03387,-0.00946,-0.03265,-0.04013,-0.01495,-0.0206,0.00046,0.02411,-0.56152,0.01297,-0.03525,-0.06699,0.0058,-0.04745
9.269,-0.00397,-0.03922,-0.03555,-0.01266,-0.02975,-0.04044,-0.01923,-0.01633,-0.00137,-0.01923,-0.56625,-0.01083,-0.03555,-0.04028,0.00443,-0.04974
9.2695,-0.00366,-0.03891,-0.03464,-0.01511,-0.02777,-0.03937,-0.02335,-0.01266,-0.00412,-0.04395,-0.55832,0.00092,-0.03769,-0.02853,0.00519,-0.05066
9.27,-0.00473,-0.03998,-0.03357,-0.01648,-0.02396,-0.03937,-0.0238,-0.01053,-0.00931,-0.04913,-0.53055,0.01343,-0.0383,-0.02899,0.00671,-0.05051
9.2705,-0.00412,-0.04181,-0.03418,-0.01511,-0.02029,-0.04135,-0.0209,-0.01068,-0.01816,-0.04639,-0.48553,0.02533,-0.03891,-0.03067,0.00992,-0.04868
9.271,-0.00336,-0.04166,-0.03586,-0.01129,-0.0148,-0.04608,-0.01831,-0.01251,-0.02792,-0.04486,-0.43671,0.05157,-0.03677,-0.02899,0.0119,-0.04654
9.2715,-0.00214,-0.04028,-0.03616,-0.00793,-0.0119,-0.05066,-0.0177,-0.01053,-0.03479,-0.04852,-0.39444,0.09171,-0.03647,-0.02777,0.01144,-0.04623
9.272,-0.00092,-0.03937,-0.03601,-0.00717,-0.0145,-0.05386,-0.01831,-0.00305,-0.03998,-0.05386,-0.35873,0.12421,-0.0383,-0.02762,0.00992,-0.04578
9.2725,-0.00092,-0.04059,-0.0351,-0.009,-0.02197,-0.05417,-0.01816,0.00381,-0.04196,-0.06119,-0.32059,0.13702,-0.04318,-0.02747,0.00854,-0.04425
9.273,-0.00092,-0.04089,-0.03448,-0.01083,-0.03143,-0.05173,-0.01678,0.00763,-0.0415,-0.06912,-0.27222,0.13016,-0.04456,-0.02899,0.00854,-0.04135
9.2735,-0.00153,-0.04013,-0.03464,-0.00946,-0.0354,-0.047,-0.01511,0.00916,-0.03616,-0.0737,-0.21255,0.10757,-0.04196,-0.03113,0.01038,-0.04242
9.274,-0.00137,-0.03937,-0.03235,-0.00763,-0.03403,-0.04395,-0.0119,0.00778,-0.02686,-0.07034,-0.15762,0.07919,-0.0383,-0.03357,0.01144,-0.04456
9.2745,-0.00153,-0.03815,-0.03052,-0.00641,-0.02853,-0.04318,-0.00946,0.0032,-0.02029,-0.05981,-0.12634,0.05432,-0.03738,-0.03601,0.01175,-0.04547
9.275,-0.00168,-0.03632,-0.03159,-0.00671,-0.02563,-0.0441,-0.01007,-0.00595,-0.01923,-0.04883,-0.112,0.0383,-0.03769,-0.03723,0.01175,-0.04578
9.2755,-0.00198,-0.03632,-0.03204,-0.00809,-0.02625,-0.04562,-0.01114,-0.01541,-0.02075,-0.04242,-0.09567,0.02701,-0.03723,-0.03754,0.0116,-0.04623
9.276,-0.00229,-0.03754,-0.03464,-0.00809,-0.02777,-0.04578,-0.01175,-0.0145,-0.01877,-0.04135,-0.07507,0.0174,-0.03754,-0.03586,0.01175,-0.04669
9.2765,-0.00366,-0.03922,-0.03525,-0.0058,-0.02853,-0.04654,-0.00854,0.00015,-0.01328,-0.04105,-0.06439,0.01221,-0.03662,-0.03326,0.00961,-0.04669
9.277,-0.00488,-0.04028,-0.03586,-0.00427,-0.02899,-0.04715,-0.0032,0.02304,-0.009,-0.03799,-0.0618,0.01129,-0.03723,-0.03006,0.00839,-0.04669
9.2775,-0.00565,-0.0415,-0.03555,-0.0058,-0.02869,-0.04654,-0.00031,0.04059,-0.00839,-0.03342,-0.0589,0.01129,-0.0386,-0.0293,0.00931,-0.0473
9.278,-0.0058,-0.04181,-0.03448,-0.01221,-0.03082,-0.04639,-0.00076,0.04242,-0.00992,-0.02945,-0.05157,0.01007,-0.03983,-0.02899,0.01053,-0.04623
9.2785,-0.00565,-0.04181,-0.03464,-0.01953,-0.03174,-0.04639,-0.00458,0.02716,-0.00946,-0.02792,-0.04684,0.01099,-0.04044,-0.02945,0.00977,-0.04532
9.279,-0.00534,-0.04211,-0.03311,-0.02411,-0.03357,-0.04562,-0.01083,0.0029,-0.00854,-0.02716,-0.03967,0.01755,-0.03998,-0.02747,0.00671,-0.04562
9.2795,-0.00412,-0.04257,-0.03403,-0.02274,-0.0354,-0.047,-0.01678,-0.02029,-0.00885,-0.02838,-0.02274,0.02808,-0.04074,-0.02487,0.00549,-0.04761
9.28,-0.0032,-0.04242,-0.03296,-0.01831,-0.03586,-0.04822,-0.01907,-0.03799,-0.00916,-0.02838,-0.00534,0.03647,-0.03983,-0.02243,0.00702,-0.04898
9.2805,-0.00168,-0.04089,-0.03281,-0.01694,-0.03555,-0.0499,-0.01862,-0.04944,-0.01007,-0.02411,0.00061,0.03784,-0.03784,-0.01892,0.00885,-0.05066
9.281,-0.00198,-0.03983,-0.03265,-0.01633,-0.0322,-0.04822,-0.01892,-0.05295,-0.01083,-0.01724,-0.00763,0.03357,-0.03708,-0.0174,0.00809,-0.05219
9.2815,-0.00244,-0.04013,-0.03433,-0.01404,-0.03082,-0.04684,-0.0206,-0.04715,-0.01328,-0.01022,-0.02213,0.02716,-0.03571,-0.01678,0.00778,-0.05066
9.282,-0.00214,-0.04074,-0.03571,-0.00885,-0.02975,-0.04715,-0.02014,-0.03296,-0.01846,-0.0032,-0.03738,0.02197,-0.03555,-0.01678,0.00854,-0.0473
9.2825,-0.00092,-0.04135,-0.03571,-0.00137,-0.02823,-0.04837,-0.01587,-0.01572,-0.02304,0.0032,-0.05524,0.01816,-0.03571,-0.01587,0.01038,-0.04318
9.283,-0.00046,-0.04044,-0.03281,0.00214,-0.02792,-0.04974,-0.01129,-0.00015,-0.02441,0.00931,-0.08179,0.0148,-0.03525,-0.01602,0.01099,-0.04135
9.2835,-0.00122,-0.03967,-0.03082,0.00076,-0.02716,-0.04959,-0.00839,0.01053,-0.02441,0.01312,-0.12131,0.00946,-0.0351,-0.01724,0.00961,-0.0412
9.284,-0.00122,-0.03937,-0.03098,-0.00198,-0.02533,-0.04791,-0.00793,0.0148,-0.02502,0.01495,-0.17563,0.00198,-0.03448,-0.01907,0.00763,-0.04288
9.2845,-0.00168,-0.04028,-0.03265,-0.00443,-0.02518,-0.04562,-0.00702,0.01389,-0.02594,0.01648,-0.23117,-0.0032,-0.03342,-0.02029,0.00671,-0.04288
9.285,-0.00229,-0.03983,-0.03403,-0.00626,-0.02762,-0.04501,-0.00763,0.01083,-0.02579,0.01328,-0.26917,-0.00473,-0.03342,-0.0206,0.0061,-0.04364
9.2855,-0.00244,-0.03922,-0.0351,-0.00809,-0.03036,-0.04654,-0.00931,0.00381,-0.02319,0.00809,-0.27634,-0.0058,-0.03372,-0.02029,0.00565,-0.04257
9.286,-0.00183,-0.03937,-0.03586,-0.00977,-0.03326,-0.04684,-0.01175,-0.00549,-0.01877,0.00336,-0.24796,-0.00641,-0.0351,-0.01907,0.00534,-0.04013
9.2865,-0.00092,-0.04028,-0.03555,-0.00961,-0.03082,-0.04547,-0.01297,-0.01617,-0.01358,0.00214,-0.19257,-0.009,-0.03555,-0.01755,0.0061,-0.03799
9.287,-0.00153,-0.04211,-0.03448,-0.00946,-0.02762,-0.04242,-0.01358,-0.02838,-0.01053,0.00397,-0.12527,-0.01282,-0.0354,-0.01862,0.0058,-0.03708
9.2875,-0.00366,-0.0441,-0.03494,-0.00885,-0.02319,-0.04196,-0.01221,-0.04349,-0.009,0.00137,-0.0589,-0.01816,-0.03601,-0.01968,0.0058,-0.03708
9.288,-0.00519,-0.0444,-0.03479,-0.00931,-0.01984,-0.04532,-0.00931,-0.0592,-0.00732,-0.00671,-0.00702,-0.0209,-0.03708,-0.01846,0.00671,-0.03708
9.2885,-0.0061,-0.04318,-0.03464,-0.01007,-0.01862,-0.04745,-0.00824,-0.06821,-0.00504,-0.01633,0.00626,-0.01892,-0.03799,-0.01495,0.00763,-0.03754
9.289,-0.00687,-0.04135,-0.03357,-0.01038,-0.01877,-0.04852,-0.00992,-0.06668,-0.00061,-0.02289,-0.02441,-0.01099,-0.0386,-0.01099,0.00717,-0.0383
9.2895,-0.0061,-0.04135,-0.03342,-0.00931,-0.02182,-0.0502,-0.01404,-0.0528,0.00351,-0.02548,-0.0708,-0.00168,-0.03876,-0.00702,0.00732,-0.03906
9.29,-0.00534,-0.04242,-0.03387,-0.00839,-0.03052,-0.05402,-0.01678,-0.02121,0.00504,-0.02487,-0.10483,0.00153,-0.0386,-0.00595,0.00885,-0.03815
9.2905,-0.00549,-0.04288,-0.03555,-0.00717,-0.0412,-0.0589,-0.0148,0.02594,0.00198,-0.02213,-0.1123,-0.00961,-0.04044,-0.00656,0.00946,-0.03601
9.291,-0.00656,-0.04135,-0.03693,-0.00702,-0.05005,-0.05981,-0.01068,0.06973,-0.00504,-0.01816,-0.09598,-0.02808,-0.04318,-0.00946,0.00793,-0.03326
9.2915,-0.00854,-0.04028,-0.03708,-0.00854,-0.05402,-0.05722,-0.00885,0.08392,-0.0119,-0.01358,-0.06668,-0.03967,-0.04471,-0.01068,0.00626,-0.03174
9.292,-0.009,-0.04013,-0.03601,-0.00961,-0.05081,-0.05569,-0.00931,0.06287,-0.01495,-0.01053,-0.03433,-0.04044,-0.04547,-0.00992,0.0058,-0.03159
9.2925,-0.0087,-0.03998,-0.03708,-0.01053,-0.04318,-0.05417,-0.0119,0.02502,-0.01175,-0.01068,-0.01297,-0.04028,-0.04547,-0.00809,0.00763,-0.0325
9.293,-0.009,-0.03876,-0.03723,-0.01053,-0.03387,-0.04974,-0.01373,-0.00214,-0.00351,-0.01389,-0.00763,-0.04807,-0.04608,-0.00656,0.00992,-0.03342
9.2935,-0.009,-0.03922,-0.03555,-0.01038,-0.02777,-0.04456,-0.01511,-0.0058,0.0058,-0.01633,-0.01236,-0.06393,-0.04547,-0.00595,0.01038,-0.03448
9.294,-0.00778,-0.0415,-0.03448,-0.01007,-0.02518,-0.04242,-0.01587,0.00351,0.01312,-0.01465,-0.01617,-0.08545,-0.04425,-0.00717,0.00977,-0.03479
9.2945,-0.00656,-0.04288,-0.03571,-0.00885,-0.02319,-0.0444,-0.01694,0.009,0.01617,-0.00961,-0.01373,-0.11108,-0.0444,-0.0087,0.0087,-0.03494
9.295,-0.0058,-0.0412,-0.03784,-0.01007,-0.02106,-0.04715,-0.0174,0.00504,0.01602,-0.00305,-0.01404,-0.12756,-0.04471,-0.01083,0.00778,-0.03311
9.2955,-0.00687,-0.03906,-0.03876,-0.01053,-0.01923,-0.04883,-0.0174,-0.00076,0.01205,0.00473,-0.01785,-0.11993,-0.04257,-0.01205,0.0087,-0.03174
9.296,-0.00809,-0.03922,-0.03799,-0.01129,-0.02014,-0.0502,-0.01617,-0.00244,0.0061,0.0116,-0.0148,-0.07858,-0.04089,-0.01221,0.00824,-0.03448
9.2965,-0.00839,-0.04028,-0.03555,-0.0116,-0.02197,-0.05127,-0.01511,-0.00183,0.00305,0.0116,0.00092,-0.00854,-0.04059,-0.0119,0.00687,-0.03891
9.297,-0.00763,-0.04013,-0.0351,-0.01175,-0.02518,-0.05234,-0.01419,-0.00214,0.00305,0.00656,0.01541,0.06454,-0.0415,-0.01221,0.00626,-0.04044
9.2975,-0.00748,-0.03998,-0.03586,-0.0116,-0.02792,-0.0531,-0.01373,-0.0032,0.0029,0.00076,0.00702,0.10849,-0.04074,-0.0145,0.00702,-0.04013
9.298,-0.00931,-0.04059,-0.03647,-0.01389,-0.02945,-0.0531,-0.01328,-0.00305,-0.00153,-0.00198,-0.00854,0.11261,-0.03906,-0.01572,0.00732,-0.04089
9.2985,-0.01099,-0.04227,-0.03601,-0.01755,-0.03113,-0.0528,-0.01251,-0.00244,-0.01007,0.00076,0.00641,0.09399,-0.03708,-0.01617,0.00534,-0.04425
9.299,-0.01099,-0.04364,-0.03494,-0.02121,-0.03372,-0.05203,-0.01068,-0.0032,-0.01907,0.00076,0.05066,0.07782,-0.03525,-0.01663,0.0029,-0.04654
9.2995,-0.00839,-0.04272,-0.03525,-0.02167,-0.0386,-0.05127,-0.009,-0.00427,-0.02563,-0.00336,0.06912,0.07355,-0.0351,-0.01862,0.00259,-0.04486
9.3,-0.0058,-0.04059,-0.03464,-0.01862,-0.04227,-0.05127,-0.00854,-0.00443,-0.02686,-0.01297,0.02029,0.07736,-0.03387,-0.01907,0.00488,-0.04257
9.3005,-0.0061,-0.0383,-0.03387,-0.0174,-0.04379,-0.05096,-0.00992,-0.00259,-0.02426,-0.0238,-0.05981,0.08652,-0.03143,-0.01907,0.00656,-0.04135
9.301,-0.00717,-0.03799,-0.03326,-0.01602,-0.04089,-0.04929,-0.01083,0.0,-0.01755,-0.02945,-0.10956,0.09949,-0.02838,-0.01831,0.00671,-0.04242
9.3015,-0.00641,-0.0383,-0.03372,-0.01419,-0.03403,-0.04654,-0.01038,0.00061,-0.00778,-0.03082,-0.12222,0.09964,-0.02441,-0.01694,0.00656,-0.04349
9.302,-0.00351,-0.03769,-0.03265,-0.0116,-0.02655,-0.0441,-0.01053,-0.00076,0.00397,-0.03235,-0.13947,0.07858,-0.02106,-0.0148,0.00641,-0.04486
9.3025,-0.00153,-0.03754,-0.03265,-0.00885,-0.02258,-0.04364,-0.01099,-0.00381,0.01144,-0.03571,-0.17944,0.04974,-0.01831,-0.0119,0.00687,-0.04669
9.303,-0.00107,-0.03784,-0.03204,-0.00702,-0.02197,-0.04379,-0.01221,-0.0061,0.01343,-0.03723,-0.22079,0.02869,-0.01694,-0.00992,0.00702,-0.04684
9.3035,-0.00107,-0.03967,-0.03235,-0.00595,-0.02243,-0.04364,-0.01343,-0.00641,0.00839,-0.03082,-0.24658,0.00427,-0.01556,-0.00824,0.00717,-0.04669
9.304,-0.00092,-0.04181,-0.03326,-0.00671,-0.02365,-0.04196,-0.01419,-0.00458,-0.00092,-0.02106,-0.25986,-0.03693,-0.0148,-0.00946,0.00656,-0.04837
9.3045,-0.00122,-0.04242,-0.03311,-0.00824,-0.02655,-0.04166,-0.01602,-0.00397,-0.01038,-0.01099,-0.26978,-0.08423,-0.01419,-0.01251,0.00519,-0.05203
9.305,-0.00046,-0.04211,-0.03235,-0.01007,-0.03448,-0.04013,-0.01694,-0.00488,-0.01587,-0.00717,-0.28351,-0.11765,-0.01389,-0.01648,0.0058,-0.05402
9.3055,-0.00168,-0.0412,-0.03204,-0.01236,-0.04364,-0.0386,-0.01831,-0.00717,-0.01617,-0.0061,-0.31052,-0.13062,-0.01389,-0.01846,0.00534,-0.05417
9.306,-0.00336,-0.04059,-0.03281,-0.01358,-0.04852,-0.03723,-0.01846,-0.00732,-0.01465,-0.00443,-0.34912,-0.12833,-0.01312,-0.01755,0.00549,-0.05234
9.3065,-0.00381,-0.04028,-0.03403,-0.0145,-0.04898,-0.03586,-0.01831,-0.00534,-0.01434,0.00076,-0.38818,-0.1149,-0.01205,-0.01617,0.00366,-0.05142
9.307,-0.00183,-0.04013,-0.03387,-0.01556,-0.04395,-0.03403,-0.01846,-0.00229,-0.01434,0.01495,-0.42206,-0.09674,-0.00946,-0.01602,0.00244,-0.05249
9.3075,-0.00076,-0.04059,-0.03235,-0.01526,-0.03937,-0.03204,-0.01801,0.00031,-0.01495,0.04181,-0.45212,-0.08362,-0.00702,-0.0145,0.00336,-0.05386
9.308,-0.00107,-0.04013,-0.0322,-0.01358,-0.03799,-0.03113,-0.01495,0.0032,-0.01617,0.06622,-0.47241,-0.07767,-0.00519,-0.0119,0.00412,-0.05478
9.3085,-0.00214,-0.03906,-0.03357,-0.01038,-0.03769,-0.03113,-0.01099,0.0058,-0.01877,0.06622,-0.46814,-0.0705,-0.00519,-0.01022,0.00397,-0.05554
9.309,-0.00244,-0.03906,-0.03479,-0.00656,-0.03693,-0.03311,-0.00885,0.009,-0.01968,0.03128,-0.43716,-0.05295,-0.00641,-0.01053,0.00198,-0.05905
9.3095,-0.00229,-0.03799,-0.03479,-0.00458,-0.03494,-0.03677,-0.01007,0.01266,-0.01694,-0.01556,-0.40649,-0.03021,-0.0061,-0.01251,0.00015,-0.06256
9.31,-0.00046,-0.03693,-0.03372,-0.00534,-0.03342,-0.04379,-0.01175,0.01663,-0.01099,-0.04929,-0.40421,-0.01434,-0.00534,-0.01434,-0.00031,-0.06302
9.3105,0.0,-0.03769,-0.0325,-0.00702,-0.03265,-0.05295,-0.01282,0.01816,-0.0058,-0.0647,-0.4248,-0.00748,-0.00366,-0.0148,0.00046,-0.06256
9.311,-0.00137,-0.03967,-0.03235,-0.00854,-0.03372,-0.06165,-0.01373,0.01282,-0.00473,-0.07294,-0.44189,-0.00137,-0.00336,-0.01343,0.00183,-0.06073
9.3115,-0.00259,-0.0415,-0.03311,-0.00992,-0.03387,-0.06516,-0.01663,0.00229,-0.00504,-0.07904,-0.44434,0.00259,-0.00122,-0.01312,0.00183,-0.06073
9.312,-0.00275,-0.04181,-0.03311,-0.01022,-0.03326,-0.06317,-0.02106,-0.00748,-0.00259,-0.08194,-0.44342,-0.00259,0.00046,-0.01389,0.00183,-0.0621
9.3125,-0.00244,-0.04181,-0.03204,-0.00931,-0.02975,-0.05859,-0.02441,-0.00961,0.00153,-0.08057,-0.448,-0.01907,0.00198,-0.01205,0.00153,-0.06348
9.313,-0.00259,-0.04227,-0.03098,-0.00809,-0.02655,-0.0563,-0.02487,-0.00671,0.00488,-0.07797,-0.44312,-0.03555,0.00076,-0.00992,0.00153,-0.06348
9.3135,-0.00351,-0.04227,-0.03098,-0.00763,-0.02441,-0.05417,-0.02426,-0.00854,0.00381,-0.07736,-0.41626,-0.04028,-0.00076,-0.00778,0.00259,-0.06393
9.314,-0.00534,-0.04211,-0.03265,-0.00824,-0.02563,-0.05112,-0.02441,-0.01999,-0.00381,-0.07736,-0.3775,-0.0325,-0.00244,-0.00702,0.00336,-0.065
9.3145,-0.00717,-0.04196,-0.03448,-0.00839,-0.02625,-0.04868,-0.02533,-0.03052,-0.01465,-0.07767,-0.34363,-0.0238,-0.00351,-0.00549,0.0032,-0.06699
9.315,-0.00717,-0.04257,-0.03525,-0.00717,-0.02335,-0.04761,-0.02472,-0.02975,-0.02625,-0.07507,-0.31998,-0.02045,-0.00488,-0.00198,0.00275,-0.0676
9.3155,-0.00702,-0.04456,-0.03632,-0.00504,-0.01877,-0.04959,-0.02151,-0.01862,-0.03433,-0.06653,-0.30533,-0.01801,-0.00778,-0.00153,0.00305,-0.06744
9.316,-0.00748,-0.04608,-0.03601,-0.0032,-0.01602,-0.05295,-0.02014,-0.00931,-0.03799,-0.05203,-0.29678,-0.0119,-0.00961,-0.00626,0.00534,-0.06577
9.3165,-0.00778,-0.04639,-0.0386,-0.0029,-0.01495,-0.05646,-0.02075,-0.0087,-0.03723,-0.0351,-0.28427,-0.00427,-0.01083,-0.01038,0.0061,-0.06439
9.317,-0.00793,-0.04532,-0.03815,-0.00458,-0.01587,-0.05905,-0.02121,-0.01175,-0.03708,-0.02411,-0.25726,0.00229,-0.01068,-0.00946,0.00687,-0.06363
9.3175,-0.00793,-0.04425,-0.03601,-0.00549,-0.01877,-0.06119,-0.01907,-0.01175,-0.03937,-0.02319,-0.21805,0.01083,-0.01007,-0.00534,0.00656,-0.06271
9.318,-0.00732,-0.04379,-0.03418,-0.00717,-0.02533,-0.06165,-0.01633,-0.00809,-0.04288,-0.02914,-0.17319,0.02686,-0.01068,-0.00427,0.00626,-0.06424
9.3185,-0.00641,-0.04318,-0.03372,-0.00732,-0.03265,-0.05997,-0.0145,-0.00504,-0.04318,-0.03174,-0.12497,0.04196,-0.01144,-0.00641,0.0061,-0.06714
9.319,-0.00626,-0.04318,-0.0351,-0.00748,-0.04059,-0.05661,-0.01495,-0.00534,-0.03876,-0.02548,-0.07248,0.03906,-0.01343,-0.00885,0.00549,-0.06912
9.3195,-0.00626,-0.04303,-0.03586,-0.00885,-0.04608,-0.05112,-0.0148,-0.00626,-0.03342,-0.01617,-0.01785,0.00977,-0.01602,-0.00885,0.00504,-0.06775
9.32,-0.00565,-0.04166,-0.03525,-0.00961,-0.04852,-0.0441,-0.01465,-0.00534,-0.03235,-0.00763,0.03174,-0.0412,-0.01907,-0.00885,0.00595,-0.065
9.3205,-0.00626,-0.03967,-0.03448,-0.00885,-0.04654,-0.03235,-0.01465,-0.00458,-0.03448,-0.00336,0.06897,-0.09766,-0.02182,-0.01022,0.00626,-0.06165
9.321,-0.00519,-0.0383,-0.03372,-0.00748,-0.04044,-0.0209,-0.01404,-0.00458,-0.03708,-0.00183,0.09277,-0.14526,-0.02319,-0.01144,0.00763,-0.06119
9.3215,-0.00381,-0.0383,-0.03464,-0.00702,-0.03281,-0.01801,-0.01251,-0.00473,-0.03998,0.00336,0.10925,-0.16724,-0.02411,-0.01114,0.00732,-0.06287
9.322,-0.00488,-0.04013,-0.03616,-0.00839,-0.02899,-0.02808,-0.01266,-0.00534,-0.04562,0.00977,0.12314,-0.15884,-0.02502,-0.01007,0.00427,-0.06439
9.3225,-0.00656,-0.0415,-0.03693,-0.01144,-0.0293,-0.04074,-0.01373,-0.00488,-0.04883,0.01251,0.12955,-0.13641,-0.02533,-0.01007,0.00244,-0.0647
9.323,-0.00656,-0.0412,-0.03601,-0.01129,-0.03128,-0.04532,-0.0145,-0.00366,-0.04517,0.01068,0.12589,-0.12848,-0.02472,-0.01038,0.0032,-0.06485
9.3235,-0.00534,-0.04074,-0.03479,-0.00961,-0.03464,-0.04089,-0.01434,-0.0032,-0.0354,0.00778,0.11414,-0.14679,-0.02335,-0.00885,0.00458,-0.065
9.324,-0.00381,-0.03952,-0.03357,-0.00961,-0.03723,-0.03632,-0.01343,-0.0029,-0.02548,0.00244,0.09598,-0.17288,-0.02243,-0.00717,0.0061,-0.06592
9.3245,-0.00351,-0.03967,-0.03433,-0.01068,-0.03708,-0.03815,-0.01358,-0.00366,-0.01999,-0.00412,0.06882,-0.17914,-0.02365,-0.00793,0.00641,-0.06744
9.325,-0.00504,-0.0386,-0.03494,-0.01205,-0.03647,-0.04623,-0.01434,-0.00427,-0.02136,-0.01099,0.03281,-0.14648,-0.02625,-0.01266,0.00778,-0.06851
9.3255,-0.00656,-0.03876,-0.0351,-0.01144,-0.03525,-0.05463,-0.0145,-0.00473,-0.03113,-0.01816,-0.00427,-0.0679,-0.02777,-0.0148,0.00732,-0.06744
9.326,-0.00656,-0.03998,-0.03387,-0.0116,-0.03448,-0.05783,-0.01404,-0.00504,-0.04593,-0.02914,-0.03906,0.04257,-0.0296,-0.01617,0.00778,-0.06561
9.3265,-0.0061,-0.04227,-0.03296,-0.0119,-0.03464,-0.05493,-0.01373,-0.00473,-0.05875,-0.04776,-0.07248,0.14542,-0.03143,-0.01663,0.00778,-0.06638
9.327,-0.00656,-0.04349,-0.03357,-0.01297,-0.03372,-0.05081,-0.01373,-0.00534,-0.06363,-0.06927,-0.10254,0.20294,-0.03372,-0.01831,0.009,-0.06851
9.3275,-0.00641,-0.04272,-0.03403,-0.01328,-0.03143,-0.04852,-0.01312,-0.00626,-0.06012,-0.0853,-0.13123,0.20462,-0.03555,-0.02106,0.01007,-0.06943
9.328,-0.0061,-0.04257,-0.03372,-0.01358,-0.02701,-0.04745,-0.01236,-0.00702,-0.05081,-0.08789,-0.15671,0.16815,-0.03601,-0.02106,0.00961,-0.06943
9.3285,-0.00519,-0.04364,-0.03387,-0.01465,-0.02289,-0.04547,-0.01236,-0.00671,-0.0383,-0.07629,-0.17746,0.1239,-0.03525,-0.01999,0.00916,-0.0676
9.329,-0.00626,-0.04517,-0.0325,-0.01633,-0.02029,-0.04318,-0.01373,-0.00473,-0.0238,-0.0592,-0.19577,0.10513,-0.03433,-0.01801,0.00946,-0.0679
9.3295,-0.00687,-0.04456,-0.03204,-0.01541,-0.01923,-0.04181,-0.01404,-0.00275,-0.00793,-0.04349,-0.21057,0.12161,-0.03464,-0.0145,0.01266,-0.0676
9.33,-0.0061,-0.04272,-0.03113,-0.0145,-0.02075,-0.04211,-0.01282,-0.00153,0.00656,-0.02899,-0.21225,0.13504,-0.03433,-0.01068,0.01556,-0.06668
9.3305,-0.00381,-0.04242,-0.0322,-0.01343,-0.02182,-0.04379,-0.01068,-0.00092,0.01465,-0.0145,-0.19974,0.09598,-0.03418,-0.00763,0.01663,-0.06546
9.331,-0.00198,-0.04303,-0.03281,-0.0119,-0.0235,-0.04486,-0.00931,-0.00153,0.01556,0.00229,-0.1886,0.00778,-0.03418,-0.0087,0.01663,-0.06561
9.3315,-0.00183,-0.04242,-0.03418,-0.01022,-0.02441,-0.04562,-0.00793,-0.00244,0.01175,0.01343,-0.19058,-0.07385,-0.03403,-0.01038,0.01663,-0.06439
9.332,-0.00275,-0.0415,-0.03418,-0.01022,-0.02731,-0.04669,-0.00839,-0.00427,0.00916,0.01358,-0.20111,-0.1123,-0.03494,-0.01068,0.0174,-0.06485
9.3325,-0.00427,-0.0412,-0.0354,-0.0116,-0.03296,-0.04929,-0.00977,-0.00366,0.00778,0.00473,-0.20859,-0.11673,-0.03708,-0.00824,0.01862,-0.06485
9.333,-0.00336,-0.04166,-0.03616,-0.01282,-0.03937,-0.05219,-0.01022,-0.00092,0.00549,-0.00641,-0.21072,-0.11169,-0.03922,-0.00778,0.01816,-0.06393
9.3335,-0.00229,-0.0412,-0.03693,-0.01129,-0.04425,-0.05417,-0.01068,0.00046,0.00031,-0.01297,-0.21011,-0.10498,-0.04166,-0.01114,0.01785,-0.06363
9.334,-0.00229,-0.04059,-0.03586,-0.00961,-0.04578,-0.05219,-0.01083,0.00183,-0.00366,-0.01541,-0.20111,-0.09109,-0.04181,-0.01678,0.01862,-0.0621
9.3345,-0.00366,-0.04135,-0.03586,-0.00793,-0.0441,-0.05096,-0.01328,0.00137,-0.00488,-0.01678,-0.17838,-0.06836,-0.04181,-0.01907,0.0206,-0.06027
9.335,-0.00458,-0.04318,-0.03632,-0.00793,-0.04074,-0.05096,-0.01511,0.00107,-0.00595,-0.02365,-0.14481,-0.03754,-0.04089,-0.01877,0.02182,-0.06088
9.3355,-0.00549,-0.04395,-0.03799,-0.00732,-0.03799,-0.05142,-0.01556,0.00031,-0.00946,-0.03433,-0.11917,0.01083,-0.04196,-0.01953,0.02014,-0.06073
9.336,-0.00565,-0.04318,-0.03769,-0.00778,-0.03677,-0.05005,-0.01648,-0.00092,-0.01862,-0.04227,-0.10971,0.08347,-0.04364,-0.02045,0.01831,-0.06073
9.3365,-0.0058,-0.04074,-0.03479,-0.00977,-0.0354,-0.04913,-0.0174,-0.00214,-0.02975,-0.0415,-0.10803,0.15259,-0.04425,-0.02045,0.0174,-0.06073
9.337,-0.00504,-0.03998,-0.03265,-0.01251,-0.03494,-0.0473,-0.01831,-0.00351,-0.03891,-0.0325,-0.10483,0.17319,-0.04395,-0.01846,0.01862,-0.06256
9.3375,-0.00473,-0.04013,-0.03189,-0.01282,-0.03418,-0.04578,-0.01968,-0.00427,-0.04044,-0.01999,-0.10773,0.13062,-0.04349,-0.01617,0.02014,-0.06119
9.338,-0.00488,-0.03967,-0.03403,-0.01114,-0.03387,-0.04517,-0.01938,-0.00412,-0.0351,-0.009,-0.12238,0.06699,-0.04364,-0.01343,0.02029,-0.06042
9.3385,-0.00397,-0.03922,-0.03586,-0.00931,-0.03418,-0.0441,-0.01938,-0.00351,-0.02686,0.00244,-0.13062,0.02747,-0.04379,-0.00977,0.01968,-0.06073
9.339,-0.00275,-0.03922,-0.03571,-0.00946,-0.03418,-0.04349,-0.01907,-0.0032,-0.01923,0.01282,-0.11154,0.02151,-0.04364,-0.00717,0.01831,-0.06119
9.3395,-0.00244,-0.03845,-0.03357,-0.01144,-0.03479,-0.04425,-0.01801,-0.00198,-0.01312,0.0206,-0.06424,0.03265,-0.04349,-0.00595,0.01831,-0.06165
9.34,-0.00061,-0.03754,-0.03265,-0.01236,-0.0354,-0.04486,-0.01801,0.0,-0.00824,0.02655,0.00244,0.05371,-0.04211,-0.00488,0.01892,-0.06119
9.3405,-0.00092,-0.03632,-0.03281,-0.01205,-0.0354,-0.04532,-0.0174,0.00122,-0.00717,0.03189,0.08728,0.07904,-0.04196,-0.00427,0.0206,-0.06104
9.341,-0.00229,-0.03525,-0.03235,-0.01068,-0.03433,-0.04456,-0.01602,0.00046,-0.00946,0.03342,0.18707,0.09613,-0.04257,-0.00473,0.02243,-0.05936
9.3415,-0.00305,-0.03479,-0.03372,-0.01144,-0.03082,-0.04288,-0.01373,-0.00092,-0.01495,0.02991,0.28839,0.09537,-0.0444,-0.00595,0.02258,-0.06027
9.342,-0.00275,-0.03525,-0.03494,-0.01282,-0.02808,-0.04257,-0.01373,-0.00229,-0.0238,0.02396,0.37094,0.08301,-0.04654,-0.00916,0.01968,-0.0592
9.3425,-0.00137,-0.03677,-0.03586,-0.01404,-0.02594,-0.04318,-0.01617,-0.00305,-0.03677,0.02487,0.41718,0.07111,-0.04837,-0.01297,0.01648,-0.05692
9.343,-0.00153,-0.03799,-0.03571,-0.01556,-0.02579,-0.04486,-0.01709,-0.0032,-0.04791,0.03815,0.4248,0.06531,-0.04944,-0.01602,0.01434,-0.05569
9.3435,-0.00381,-0.03937,-0.0351,-0.0174,-0.02731,-0.04593,-0.0174,-0.0032,-0.04913,0.05432,0.40695,0.06409,-0.04913,-0.01602,0.01602,-0.05722
9.344,-0.00595,-0.04028,-0.03571,-0.01724,-0.02945,-0.04562,-0.01862,-0.00473,-0.03937,0.04898,0.38147,0.065,-0.04852,-0.01373,0.01648,-0.05905
9.3445,-0.00641,-0.04181,-0.03693,-0.01404,-0.02945,-0.04486,-0.01923,-0.0061,-0.02686,0.02075,0.36072,0.06607,-0.04807,-0.01038,0.01648,-0.05875
9.345,-0.00412,-0.04272,-0.03693,-0.00977,-0.02655,-0.04333,-0.01892,-0.00641,-0.01801,-0.01129,0.34332,0.06821,-0.04776,-0.00916,0.01617,-0.05569
9.3455,-0.0029,-0.04089,-0.03708,-0.00626,-0.02762,-0.04318,-0.01587,-0.00687,-0.01389,-0.02945,0.32166,0.06958,-0.04684,-0.00854,0.0145,-0.05096
9.346,-0.00397,-0.03952,-0.03723,-0.00656,-0.03235,-0.04501,-0.0148,-0.00656,-0.0119,-0.03281,0.29541,0.07095,-0.04547,-0.00809,0.01328,-0.04745
9.3465,-0.00488,-0.03922,-0.03769,-0.00946,-0.04013,-0.0473,-0.01495,-0.00641,-0.00977,-0.03326,0.27328,0.07401,-0.0444,-0.00778,0.01221,-0.04639
9.347,-0.00427,-0.03952,-0.03601,-0.01282,-0.04578,-0.04959,-0.01892,-0.00656,-0.009,-0.03708,0.25909,0.0737,-0.0444,-0.00885,0.0119,-0.04517
9.3475,-0.00229,-0.03998,-0.03281,-0.01373,-0.04471,-0.04868,-0.02014,-0.00717,-0.01236,-0.04074,0.23972,0.05905,-0.04578,-0.01038,0.01175,-0.04745
9.348,-0.00168,-0.03983,-0.03159,-0.01236,-0.03983,-0.04547,-0.01785,-0.00763,-0.01862,-0.04089,0.19608,0.03098,-0.04761,-0.0116,0.01236,-0.04837
9.3485,-0.00336,-0.04166,-0.03174,-0.01068,-0.03647,-0.04333,-0.01404,-0.00854,-0.02457,-0.03891,0.12161,0.00275,-0.04822,-0.01358,0.0119,-0.04639
9.349,-0.00427,-0.04288,-0.03342,-0.01114,-0.03571,-0.04456,-0.01114,-0.00931,-0.02594,-0.03708,0.02945,-0.01877,-0.04669,-0.01389,0.0116,-0.04501
9.3495,-0.00381,-0.04135,-0.03494,-0.01114,-0.03403,-0.04654,-0.00961,-0.00839,-0.02411,-0.03235,-0.05829,-0.03662,-0.04456,-0.01266,0.01175,-0.04501
9.35,-0.00381,-0.03922,-0.03555,-0.00824,-0.03189,-0.04684,-0.00961,-0.00748,-0.0209,-0.02563,-0.11368,-0.05737,-0.04303,-0.01068,0.0119,-0.04547
9.3505,-0.00305,-0.03922,-0.03586,-0.00305,-0.02991,-0.04623,-0.0116,-0.00702,-0.01923,-0.0174,-0.11932,-0.07843,-0.04272,-0.01221,0.01099,-0.04517
9.351,-0.0032,-0.03998,-0.03479,-0.00198,-0.02762,-0.047,-0.01465,-0.00702,-0.02121,-0.01221,-0.08209,-0.09171,-0.04303,-0.01648,0.01114,-0.04608
9.3515,-0.00259,-0.04028,-0.03387,-0.00824,-0.0264,-0.0499,-0.01602,-0.00656,-0.02548,-0.00824,-0.02823,-0.09216,-0.0441,-0.01923,0.01099,-0.04684
9.352,-0.00214,-0.03952,-0.03326,-0.01907,-0.02472,-0.05371,-0.01572,-0.0061,-0.03174,-0.00458,0.01724,-0.08408,-0.04562,-0.02075,0.00977,-0.04623
9.3525,-0.00214,-0.03922,-0.03311,-0.0235,-0.02502,-0.05417,-0.01465,-0.00519,-0.03586,-0.0032,0.03937,-0.06927,-0.04639,-0.02197,0.00809,-0.04684
9.353,-0.0029,-0.03983,-0.03387,-0.01266,-0.0264,-0.05157,-0.01297,-0.00336,-0.03632,-0.00229,0.03799,-0.0412,-0.04456,-0.02243,0.00809,-0.04517
9.3535,-0.00412,-0.04028,-0.0351,0.0087,-0.02808,-0.05035,-0.01175,-0.00168,-0.03448,-0.00244,0.03632,0.00244,-0.04288,-0.02197,0.00916,-0.04196
9.354,-0.00397,-0.04166,-0.03647,0.03006,-0.02716,-0.05264,-0.01114,-0.00198,-0.03143,-0.00351,0.05005,0.0415,-0.04242,-0.02213,0.00977,-0.03998
9.3545,-0.00351,-0.04257,-0.03632,0.04135,-0.02457,-0.05676,-0.01099,-0.0032,-0.02914,-0.00702,0.06836,0.04837,-0.04272,-0.02487,0.00931,-0.03632
9.355,-0.00412,-0.04272,-0.03601,0.0383,-0.02136,-0.06042,-0.01068,-0.00351,-0.02548,-0.01282,0.08316,0.02686,-0.04211,-0.02853,0.00763,-0.03555
9.3555,-0.00488,-0.04242,-0.03555,0.01862,-0.01877,-0.06241,-0.00946,-0.00381,-0.02075,-0.01923,0.1033,0.00595,-0.04288,-0.03052,0.00702,-0.03265
9.356,-0.00397,-0.04181,-0.03479,-0.02167,-0.0174,-0.06195,-0.00824,-0.00336,-0.01892,-0.02396,0.13535,0.00717,-0.04333,-0.03143,0.0061,-0.03189
9.3565,-0.00351,-0.04135,-0.03265,-0.07477,-0.01816,-0.05951,-0.00656,-0.0029,-0.01984,-0.02838,0.1709,0.01663,-0.04333,-0.03326,0.0058,-0.02975
9.357,-0.00351,-0.04105,-0.03113,-0.11978,-0.01938,-0.056,-0.00595,-0.00198,-0.02106,-0.03265,0.19806,0.01816,-0.04303,-0.03555,0.00519,-0.0293
9.3575,-0.00504,-0.03967,-0.0322,-0.13687,-0.02029,-0.05005,-0.00641,-0.00153,-0.01953,-0.03601,0.20889,0.01007,-0.04456,-0.03632,0.00443,-0.0296
9.358,-0.00595,-0.0412,-0.03372,-0.12466,-0.02396,-0.03952,-0.00641,-0.00153,-0.01633,-0.03616,0.20432,0.00015,-0.04562,-0.03571,0.0032,-0.03082
9.3585,-0.00458,-0.04379,-0.03387,-0.09583,-0.03052,-0.02899,-0.00671,-0.00275,-0.01358,-0.03448,0.19394,-0.00748,-0.04715,-0.0354,0.00336,-0.03021
9.359,-0.00275,-0.04486,-0.03281,-0.0737,-0.03998,-0.02121,-0.00732,-0.00336,-0.01114,-0.03113,0.18707,-0.01404,-0.04517,-0.03647,0.00336,-0.02731
9.3595,-0.00183,-0.04349,-0.03082,-0.08224,-0.04791,-0.02228,-0.00687,-0.00275,-0.00763,-0.0293,0.18555,-0.01663,-0.04272,-0.03616,0.00702,-0.02304
9.36,-0.00214,-0.04089,-0.0296,-0.11841,-0.05005,-0.03052,-0.00626,-0.00183,-0.00412,-0.0293,0.18387,-0.00732,-0.04013,-0.03433,0.01297,-0.01648
9.3605,-0.00305,-0.0415,-0.02899,-0.14313,-0.04349,-0.03967,-0.00549,-0.00046,-0.00137,-0.03372,0.18097,0.01953,-0.03998,-0.03128,0.02151,-0.01282
9.361,-0.00351,-0.04166,-0.02792,-0.11368,-0.03387,-0.04456,-0.00488,0.00015,0.00031,-0.03906,0.1828,0.05829,-0.0412,-0.03036,0.03922,-0.00885
9.3615,-0.00275,-0.04211,-0.02716,-0.02625,-0.03052,-0.0473,-0.00549,0.00061,0.00336,-0.04135,0.19028,0.09125,-0.04211,-0.03189,0.06424,-0.00305
9.362,-0.00305,-0.04272,-0.02808,0.07889,-0.03433,-0.04822,-0.00595,0.00046,0.00504,-0.03983,0.20035,0.1062,-0.04242,-0.03418,0.07904,-0.00336
9.3625,-0.00336,-0.04333,-0.03021,0.14389,-0.03983,-0.04715,-0.0061,0.00015,0.00397,-0.03723,0.20874,0.09842,-0.04135,-0.03464,0.06409,-0.00366
9.363,-0.00397,-0.04364,-0.03052,0.13962,-0.04227,-0.0444,-0.00549,0.00015,0.00214,-0.0351,0.2153,0.07584,-0.03922,-0.03448,0.02243,-0.00366
9.3635,-0.00397,-0.04196,-0.02945,0.10086,-0.04028,-0.0412,-0.0058,-0.00031,0.00305,-0.03418,0.22141,0.04837,-0.03891,-0.03372,-0.02075,-0.00565
9.364,-0.00534,-0.04028,-0.02853,0.09659,-0.03571,-0.03967,-0.00732,-0.00168,0.00549,-0.03296,0.22858,0.02716,-0.04059,-0.03387,-0.04669,-0.01175
9.3645,-0.00687,-0.03983,-0.02869,0.14481,-0.03296,-0.03922,-0.00824,-0.00381,0.00687,-0.03006,0.23468,0.01419,-0.04059,-0.03494,-0.05432,-0.01785
9.365,-0.00732,-0.03998,-0.03021,0.18661,-0.03235,-0.03998,-0.00946,-0.00473,0.00793,-0.02625,0.23926,0.00504,-0.03891,-0.03571,-0.05066,-0.01709
9.3655,-0.00687,-0.04013,-0.0293,0.17654,-0.03113,-0.04227,-0.00961,-0.00488,0.00931,-0.02106,0.24414,-0.00549,-0.03754,-0.03677,-0.0415,-0.01205
9.366,-0.00748,-0.03967,-0.03098,0.14206,-0.0296,-0.04471,-0.01038,-0.00595,0.0119,-0.01556,0.24857,-0.01434,-0.03708,-0.03708,-0.02792,-0.00931
9.3665,-0.00702,-0.03922,-0.03204,0.12085,-0.02579,-0.04623,-0.01053,-0.00641,0.01236,-0.01114,0.24765,-0.01907,-0.03677,-0.03738,-0.01343,-0.0116
9.367,-0.0061,-0.03922,-0.03174,0.09949,-0.02396,-0.04684,-0.00977,-0.00641,0.009,-0.00885,0.24124,-0.02274,-0.03662,-0.03708,-0.00443,-0.0148
9.3675,-0.00565,-0.04013,-0.03189,0.04105,-0.02533,-0.04639,-0.00854,-0.00519,0.00427,-0.00748,0.23422,-0.02853,-0.03601,-0.03723,-0.00381,-0.01526
9.368,-0.00443,-0.04089,-0.03311,-0.04059,-0.02655,-0.04517,-0.00854,-0.00412,0.00305,-0.00519,0.22736,-0.03525,-0.0354,-0.03769,-0.00748,-0.01373
9.3685,-0.0032,-0.04196,-0.03357,-0.09613,-0.02853,-0.04562,-0.00885,-0.0029,0.00565,-0.00168,0.22003,-0.04181,-0.03494,-0.03769,-0.00702,-0.01114
9.369,-0.00259,-0.04211,-0.03296,-0.09842,-0.02945,-0.04715,-0.01083,-0.00183,0.00961,0.0,0.21317,-0.047,-0.0351,-0.03647,-0.00168,-0.00748
9.3695,-0.00412,-0.04257,-0.03281,-0.0708,-0.03021,-0.04807,-0.01221,-0.00137,0.01068,-0.00244,0.20767,-0.04913,-0.03326,-0.03326,0.00412,-0.00534
9.37,-0.00443,-0.0415,-0.03296,-0.0502,-0.03036,-0.0473,-0.01175,-0.00137,0.00809,-0.00839,0.20523,-0.0441,-0.03235,-0.03159,0.00687,-0.00397
9.3705,-0.00397,-0.04013,-0.03159,-0.04547,-0.03128,-0.04669,-0.01022,-0.00229,0.00504,-0.01617,0.20569,-0.03372,-0.03128,-0.03143,0.00717,-0.00732
9.371,-0.00168,-0.03952,-0.03143,-0.04623,-0.03159,-0.04608,-0.00854,-0.00229,0.00397,-0.02228,0.20599,-0.01953,-0.03036,-0.03265,0.00687,-0.01114
9.3715,-0.00031,-0.03983,-0.03113,-0.0415,-0.03143,-0.04807,-0.01022,-0.00107,0.00488,-0.02609,0.20844,-0.00656,-0.03036,-0.03357,0.00961,-0.01602
9.372,-0.00076,-0.04028,-0.03159,-0.0354,-0.03098,-0.05096,-0.01343,0.00061,0.00534,-0.02899,0.21957,0.00214,-0.03082,-0.03403,0.01343,-0.01953
9.3725,-0.00183,-0.04135,-0.03235,-0.03113,-0.03098,-0.0531,-0.01663,0.00244,0.00473,-0.03128,0.23849,0.00809,-0.03143,-0.03571,0.01816,-0.02121
9.373,-0.0029,-0.04135,-0.0322,-0.02655,-0.03311,-0.05493,-0.01678,0.00397,0.00351,-0.03265,0.25085,0.01144,-0.03235,-0.03647,0.02365,-0.02106
9.3735,-0.00336,-0.04135,-0.03189,-0.02121,-0.03876,-0.05402,-0.01587,0.00397,0.0032,-0.03082,0.2475,0.01053,-0.0325,-0.0351,0.02731,-0.01694
9.374,-0.00336,-0.03967,-0.0322,-0.02289,-0.04105,-0.05157,-0.01556,0.00244,0.00275,-0.02686,0.23056,-0.00153,-0.03342,-0.03265,0.02548,-0.01465
9.3745,-0.00244,-0.03952,-0.03098,-0.03464,-0.03998,-0.04883,-0.01709,0.00259,0.00244,-0.02319,0.20523,-0.02167,-0.03387,-0.0325,0.01663,-0.01709
9.375,-0.00198,-0.04044,-0.03082,-0.0473,-0.0354,-0.04776,-0.01923,0.0029,-0.00076,-0.02182,0.17426,-0.04227,-0.03433,-0.03494,0.00504,-0.02304
9.3755,-0.00229,-0.04059,-0.03189,-0.0563,-0.03067,-0.04807,-0.02045,0.00198,-0.00443,-0.02167,0.13824,-0.05402,-0.03357,-0.03723,-0.00671,-0.02731
9.376,-0.00275,-0.0412,-0.03387,-0.06577,-0.02808,-0.04761,-0.02106,0.00107,-0.00839,-0.02106,0.10162,-0.05341,-0.03204,-0.03815,-0.01541,-0.02991
9.3765,-0.00336,-0.04211,-0.03586,-0.07843,-0.02731,-0.04684,-0.02014,-0.00076,-0.01144,-0.01923,0.06912,-0.04776,-0.03082,-0.03708,-0.01862,-0.03067
9.377,-0.00275,-0.04318,-0.03693,-0.07904,-0.02686,-0.04776,-0.01801,-0.00076,-0.01221,-0.01801,0.047,-0.05539,-0.03021,-0.03448,-0.01572,-0.03113
9.3775,-0.00244,-0.04425,-0.03754,-0.04288,-0.02808,-0.05051,-0.01709,-0.00031,-0.01282,-0.01694,0.03723,-0.08041,-0.0293,-0.0322,-0.00824,-0.03006
9.378,-0.00366,-0.04425,-0.03647,0.0177,-0.02945,-0.05264,-0.01724,-0.00137,-0.01251,-0.01556,0.03754,-0.10971,-0.02991,-0.03052,0.00168,-0.02502
9.3785,-0.00504,-0.04349,-0.03464,0.05814,-0.03021,-0.05264,-0.01953,-0.00305,-0.01266,-0.01434,0.04105,-0.12299,-0.03098,-0.03143,0.01205,-0.0206
9.379,-0.00412,-0.04211,-0.0351,0.04593,-0.0296,-0.05203,-0.02182,-0.00504,-0.01373,-0.01358,0.04196,-0.11536,-0.03235,-0.03265,0.02075,-0.01801
9.3795,-0.00229,-0.04074,-0.03662,0.00412,-0.02869,-0.05081,-0.02258,-0.00458,-0.01511,-0.01465,0.02747,-0.10223,-0.03326,-0.03098,0.02304,-0.01755
9.38,-0.00137,-0.03998,-0.03525,-0.0116,-0.02686,-0.04974,-0.02106,-0.00275,-0.01816,-0.01633,-0.01358,-0.09048,-0.0325,-0.02716,0.01877,-0.01999
9.3805,-0.00122,-0.03998,-0.03387,0.02289,-0.0264,-0.0499,-0.01862,-0.00183,-0.01999,-0.01816,-0.08591,-0.06485,-0.03143,-0.02075,0.00946,-0.02579
9.381,-0.00214,-0.04013,-0.03235,0.06363,-0.02701,-0.04929,-0.0174,-0.00168,-0.01953,-0.01877,-0.19073,-0.0206,-0.03098,-0.01266,0.00092,-0.03281
9.3815,-0.00137,-0.04028,-0.03235,0.04807,-0.02899,-0.04837,-0.01938,-0.00107,-0.01678,-0.01709,-0.31616,0.01923,-0.03021,-0.00549,0.00031,-0.04044
9.382,-0.00092,-0.04028,-0.03342,-0.02411,-0.02991,-0.0473,-0.0209,-0.00046,-0.01511,-0.01404,-0.43121,0.03204,-0.02914,-0.00168,0.01083,-0.04898
9.3825,-0.00168,-0.04074,-0.03586,-0.0943,-0.03067,-0.04623,-0.02014,0.0,-0.01511,-0.00885,-0.52124,0.0177,-0.02747,-0.00229,0.0267,-0.05249
9.383,-0.00275,-0.04059,-0.03708,-0.11673,-0.02991,-0.04593,-0.01816,0.0,-0.0148,-0.0032,-0.6163,-0.00107,-0.0267,-0.00443,0.04257,-0.04578
9.3835,-0.00412,-0.03967,-0.03769,-0.10208,-0.02899,-0.04745,-0.01801,-0.00092,-0.01236,0.00168,-0.737,-0.009,-0.02731,-0.00671,0.04913,-0.03647
9.384,-0.00336,-0.03937,-0.03555,-0.08148,-0.02823,-0.04883,-0.01953,-0.0029,-0.01083,0.00122,-0.8551,-0.0058,-0.02853,-0.009,0.0444,-0.03174
9.3845,-0.00183,-0.03922,-0.03586,-0.05569,-0.02777,-0.04898,-0.02075,-0.00351,-0.01236,-0.00351,-0.93781,-0.00168,-0.02853,-0.01251,0.03128,-0.03754
9.385,-0.00153,-0.03967,-0.0383,-0.00885,-0.02625,-0.04852,-0.02045,-0.00229,-0.01602,-0.00885,-0.99518,0.00107,-0.02899,-0.01648,0.02274,-0.04471
9.3855,-0.0029,-0.04105,-0.03906,0.04852,-0.02457,-0.04669,-0.02045,-0.00153,-0.01709,-0.01007,-1.03775,0.00275,-0.0293,-0.01938,0.0177,-0.04486
9.386,-0.00351,-0.04196,-0.03784,0.07675,-0.02426,-0.04593,-0.02121,-0.0029,-0.01465,-0.00946,-1.04523,-0.00153,-0.0296,-0.02426,0.01022,-0.03647
9.3865,-0.00351,-0.04395,-0.03632,0.05737,-0.02579,-0.04654,-0.02304,-0.00458,-0.01038,-0.00854,-1.00693,-0.00854,-0.0293,-0.03616,0.00092,-0.02975
9.387,-0.00336,-0.04364,-0.03616,0.01556,-0.0267,-0.04684,-0.02426,-0.00443,-0.00916,-0.00961,-0.95505,-0.0145,-0.0293,-0.05173,-0.00153,-0.0325
9.3875,-0.0029,-0.04303,-0.03677,-0.01236,-0.02747,-0.047,-0.02411,-0.00259,-0.01251,-0.01434,-0.91568,-0.01617,-0.03067,-0.05951,0.00397,-0.04379
9.388,-0.00549,-0.04181,-0.03616,-0.01801,-0.02823,-0.04608,-0.0235,-0.00214,-0.02121,-0.01755,-0.86594,-0.01663,-0.03052,-0.05173,0.01083,-0.05417
9.3885,-0.00793,-0.04044,-0.03479,-0.01373,-0.02945,-0.04501,-0.02289,-0.00259,-0.02716,-0.0119,-0.77164,-0.02029,-0.02853,-0.0354,0.01266,-0.05539
9.389,-0.00839,-0.04105,-0.0351,-0.01083,-0.03082,-0.04517,-0.02457,-0.0032,-0.02808,0.00137,-0.64316,-0.01907,-0.02716,-0.02304,0.01373,-0.04944
9.3895,-0.00595,-0.04135,-0.0354,-0.01724,-0.03036,-0.04456,-0.02625,-0.00397,-0.02396,0.01251,-0.51056,-0.00763,-0.02686,-0.01801,0.01617,-0.04181
9.39,-0.00488,-0.04105,-0.03479,-0.03738,-0.02899,-0.04517,-0.02548,-0.00488,-0.02029,0.00717,-0.37628,0.00244,-0.02609,-0.01678,0.01724,-0.0354
9.3905,-0.00504,-0.04013,-0.03357,-0.06607,-0.02884,-0.04547,-0.02319,-0.00458,-0.0174,-0.01373,-0.23224,-0.00504,-0.02396,-0.01495,0.01617,-0.03281
9.391,-0.00656,-0.0412,-0.03448,-0.08591,-0.03006,-0.04745,-0.02014,-0.00458,-0.01617,-0.03418,-0.09445,-0.02731,-0.02243,-0.01251,0.01602,-0.03464
9.3915,-0.00824,-0.04272,-0.03586,-0.08698,-0.03143,-0.05035,-0.01816,-0.00458,-0.01617,-0.04425,0.01205,-0.05112,-0.02197,-0.009,0.01953,-0.03555
9.392,-0.00809,-0.04196,-0.03723,-0.07614,-0.03189,-0.05234,-0.01968,-0.00473,-0.01755,-0.04684,0.08667,-0.07309,-0.02228,-0.00214,0.0267,-0.03464
9.3925,-0.00702,-0.04074,-0.03723,-0.06577,-0.03677,-0.05112,-0.02197,-0.00549,-0.01968,-0.04532,0.13947,-0.0972,-0.02213,0.00427,0.02731,-0.03189
9.393,-0.00702,-0.03967,-0.03555,-0.05844,-0.04257,-0.04898,-0.02274,-0.00519,-0.02274,-0.04181,0.1712,-0.10971,-0.0209,0.0058,0.00961,-0.02991
9.3935,-0.0061,-0.04059,-0.03433,-0.05142,-0.04318,-0.04639,-0.02197,-0.00381,-0.02533,-0.03983,0.17441,-0.07187,-0.0206,0.00275,-0.02487,-0.03204
9.394,-0.00565,-0.04089,-0.03494,-0.03036,-0.03983,-0.04562,-0.01984,-0.0029,-0.02899,-0.03784,0.15778,0.02304,-0.02167,-0.00275,-0.05386,-0.03906
9.3945,-0.00671,-0.04044,-0.03586,0.01968,-0.03723,-0.04532,-0.01862,-0.00336,-0.03082,-0.03677,0.14633,0.1123,-0.02228,-0.00748,-0.05234,-0.04608
9.395,-0.00809,-0.04044,-0.03448,0.09537,-0.03723,-0.0473,-0.01953,-0.00473,-0.0293,-0.03326,0.15305,0.12543,-0.02243,-0.00854,-0.02899,-0.05295
9.3955,-0.00778,-0.0412,-0.03174,0.1593,-0.03845,-0.04807,-0.02182,-0.00534,-0.02609,-0.0293,0.17059,0.07889,-0.02167,-0.00549,-0.00519,-0.05508
9.396,-0.00519,-0.04257,-0.03128,0.17624,-0.0386,-0.04715,-0.02289,-0.00565,-0.02304,-0.0264,0.18692,0.05371,-0.01999,-0.00381,0.00641,-0.05188
9.3965,-0.00351,-0.04272,-0.0325,0.14771,-0.03906,-0.04593,-0.02228,-0.00549,-0.02029,-0.02563,0.19653,0.08728,-0.01907,-0.00854,0.01297,-0.04593
9.397,-0.00381,-0.04181,-0.03418,0.1001,-0.04074,-0.04608,-0.02121,-0.00626,-0.01801,-0.02548,0.20874,0.15335,-0.02014,-0.02106,0.02319,-0.03967
9.3975,-0.00458,-0.0412,-0.03296,0.05234,-0.03983,-0.04761,-0.01862,-0.00656,-0.01648,-0.02579,0.23849,0.21194,-0.02243,-0.03693,0.03357,-0.03571
9.398,-0.00473,-0.04074,-0.03159,0.0174,-0.0383,-0.04883,-0.01678,-0.00671,-0.01617,-0.02426,0.28671,0.23911,-0.0235,-0.04623,0.03601,-0.03159
9.3985,-0.00427,-0.04166,-0.03113,0.00046,-0.03571,-0.04883,-0.01526,-0.00732,-0.01587,-0.02136,0.33371,0.22614,-0.02441,-0.03952,0.02747,-0.03067
9.399,-0.00412,-0.04227,-0.03189,-0.01038,-0.03418,-0.04822,-0.01358,-0.00702,-0.01511,-0.01633,0.36392,0.18005,-0.0267,-0.01541,0.01297,-0.03311
9.3995,-0.0029,-0.04044,-0.03204,-0.03128,-0.03204,-0.04745,-0.01297,-0.00534,-0.01389,-0.00961,0.38101,0.12802,-0.03036,0.01022,-0.00259,-0.03601
9.4,-0.00198,-0.03891,-0.03281,-0.05096,-0.03128,-0.047,-0.01236,-0.00397,-0.01602,-0.00534,0.39261,0.08728,-0.03403,0.01892,-0.01526,-0.0383
9.4005,-0.00153,-0.03937,-0.03403,-0.03616,-0.03128,-0.04761,-0.01373,-0.00412,-0.01892,-0.00397,0.40039,0.05295,-0.03403,0.00702,-0.02441,-0.03891
9.401,-0.00244,-0.04028,-0.03479,0.00793,-0.03189,-0.04944,-0.01465,-0.00534,-0.02106,-0.00534,0.40527,0.01282,-0.03174,-0.00916,-0.03448,-0.03891
9.4015,-0.0032,-0.04028,-0.03494,0.02975,-0.03235,-0.0499,-0.01526,-0.00595,-0.02289,-0.00748,0.41199,-0.03571,-0.02991,-0.01709,-0.04227,-0.03754
9.402,-0.00305,-0.04013,-0.03464,-0.0061,-0.03204,-0.05142,-0.01617,-0.00656,-0.0264,-0.00854,0.42618,-0.07828,-0.02975,-0.01678,-0.03693,-0.03525
9.4025,-0.00153,-0.04059,-0.03448,-0.0679,-0.03235,-0.05051,-0.01724,-0.00763,-0.03036,-0.00702,0.44342,-0.10406,-0.03067,-0.01434,-0.01801,-0.03464
9.403,0.00076,-0.0415,-0.03479,-0.10391,-0.03174,-0.04944,-0.0174,-0.00916,-0.03342,-0.00565,0.45242,-0.11383,-0.03204,-0.01495,0.00046,-0.03586
9.4035,0.0029,-0.04196,-0.03448,-0.10101,-0.03098,-0.04837,-0.01678,-0.0116,-0.03387,-0.00763,0.44754,-0.11566,-0.0325,-0.01633,0.0032,-0.03769
9.404,0.00244,-0.0415,-0.03433,-0.08392,-0.02899,-0.0473,-0.01648,-0.01144,-0.03296,-0.01373,0.43365,-0.11826,-0.03128,-0.01648,-0.01038,-0.04059
9.4045,0.00015,-0.04074,-0.03342,-0.07523,-0.02869,-0.04822,-0.01633,-0.00809,-0.03342,-0.0206,0.41611,-0.12146,-0.03128,-0.01587,-0.02579,-0.04456
9.405,-0.00198,-0.03952,-0.03281,-0.07019,-0.02808,-0.04791,-0.01663,-0.00549,-0.03616,-0.02411,0.39246,-0.11993,-0.0322,-0.01663,-0.02335,-0.04623
9.4055,-0.00183,-0.03906,-0.03143,-0.05737,-0.02762,-0.04807,-0.01678,-0.00534,-0.03906,-0.02426,0.3624,-0.11078,-0.03342,-0.01846,-0.0061,-0.0441
9.406,-0.00122,-0.04059,-0.03265,-0.04196,-0.02823,-0.04868,-0.01587,-0.00641,-0.04074,-0.02548,0.33432,-0.09537,-0.03418,-0.01907,0.01465,-0.04013
9.4065,-0.00107,-0.0415,-0.03265,-0.0296,-0.03098,-0.04822,-0.01373,-0.00549,-0.04013,-0.03036,0.31296,-0.07126,-0.03418,-0.01816,0.02518,-0.03922
9.407,-0.0029,-0.04028,-0.03296,-0.02365,-0.03311,-0.04761,-0.01312,-0.00458,-0.0383,-0.03998,0.29312,-0.03601,-0.03235,-0.01801,0.03174,-0.04196
9.4075,-0.0058,-0.0386,-0.03418,-0.01404,-0.03296,-0.04715,-0.01404,-0.00519,-0.0351,-0.05157,0.27069,-0.00153,-0.03143,-0.01953,0.03372,-0.0441
9.408,-0.00671,-0.03845,-0.0354,-0.00565,-0.03098,-0.04608,-0.01694,-0.00702,-0.03052,-0.06058,0.24933,0.00732,-0.03189,-0.01953,0.03387,-0.04272
9.4085,-0.00717,-0.03937,-0.03555,-0.01053,-0.02991,-0.04623,-0.01846,-0.00732,-0.02518,-0.0647,0.2359,-0.0116,-0.03128,-0.01648,0.03372,-0.0412
9.409,-0.00763,-0.04044,-0.03494,-0.02899,-0.02945,-0.04608,-0.01831,-0.00732,-0.01999,-0.06607,0.2327,-0.03693,-0.02914,-0.01266,0.03723,-0.04364
9.4095,-0.0087,-0.04059,-0.03342,-0.0322,-0.02823,-0.04654,-0.01663,-0.00717,-0.01587,-0.06485,0.23331,-0.05096,-0.02747,-0.01053,0.04486,-0.05646
9.41,-0.00946,-0.04089,-0.0322,0.00732,-0.02701,-0.04517,-0.01633,-0.00565,-0.01389,-0.06165,0.22919,-0.05737,-0.02853,-0.0119,0.04639,-0.08774
9.4105,-0.00961,-0.04166,-0.03265,0.06897,-0.02823,-0.04547,-0.01602,-0.00443,-0.01541,-0.05417,0.22736,-0.06042,-0.03082,-0.01694,0.03937,-0.13412
9.411,-0.00809,-0.04211,-0.03387,0.09644,-0.03021,-0.04654,-0.01663,-0.00305,-0.01953,-0.04303,0.23804,-0.05264,-0.03113,-0.02045,0.02686,-0.16098
9.4115,-0.00626,-0.04242,-0.03235,0.05829,-0.03098,-0.0473,-0.01678,-0.00397,-0.02319,-0.03067,0.25177,-0.03311,-0.03006,-0.01953,0.01633,-0.13351
9.412,-0.0061,-0.04272,-0.03342,-0.01526,-0.03113,-0.047,-0.01923,-0.00458,-0.02304,-0.02304,0.25116,-0.01221,-0.02792,-0.01587,0.00961,-0.06561
9.4125,-0.00626,-0.0415,-0.03464,-0.06454,-0.03036,-0.04623,-0.0206,-0.00458,-0.01984,-0.01984,0.23453,-0.00351,-0.02716,-0.01495,0.00885,0.00061
9.413,-0.00656,-0.03952,-0.03555,-0.06638,-0.02853,-0.04501,-0.0206,-0.00214,-0.01617,-0.0148,0.21835,-0.00122,-0.02808,-0.01648,0.01511,0.03647
9.4135,-0.00549,-0.03784,-0.03571,-0.04562,-0.02853,-0.04562,-0.01755,0.0,-0.01312,-0.00626,0.2095,-0.00259,-0.02884,-0.01709,0.01953,0.04623
9.414,-0.00397,-0.03845,-0.03525,-0.03174,-0.03021,-0.04593,-0.01465,0.00015,-0.01007,0.00549,0.20309,-0.00519,-0.03021,-0.01617,0.01999,0.04227
9.4145,-0.00412,-0.03998,-0.03448,-0.02777,-0.03143,-0.04593,-0.01205,-0.00046,-0.00534,0.0177,0.19669,-0.01312,-0.03067,-0.01602,0.01663,0.03326
9.415,-0.00366,-0.04105,-0.03433,-0.02396,-0.03128,-0.04547,-0.01251,0.00046,-0.00107,0.02472,0.18967,-0.01846,-0.03143,-0.01633,0.01251,0.02167
9.4155,-0.0032,-0.04059,-0.03571,-0.01862,-0.03128,-0.04517,-0.01419,0.0032,0.00076,0.0264,0.17929,-0.01007,-0.03326,-0.01633,0.00854,0.00397
9.416,-0.00259,-0.03983,-0.03693,-0.01328,-0.03098,-0.04669,-0.01572,0.00488,-0.00198,0.02518,0.15823,0.01205,-0.03479,-0.01617,0.00412,-0.01816
9.4165,-0.00275,-0.03906,-0.03738,-0.01251,-0.03098,-0.047,-0.01556,0.00412,-0.01038,0.02274,0.13092,0.03342,-0.03738,-0.0177,-0.00397,-0.03845
9.417,-0.00458,-0.03967,-0.03586,-0.02182,-0.03204,-0.04776,-0.01358,0.00214,-0.02151,0.01862,0.1062,0.04593,-0.0383,-0.02106,-0.0087,-0.04761
9.4175,-0.00641,-0.04166,-0.0354,-0.04608,-0.03311,-0.04623,-0.01083,0.00046,-0.03082,0.01099,0.09079,0.04837,-0.03738,-0.02243,-0.00702,-0.04486
9.418,-0.00824,-0.04379,-0.0351,-0.07355,-0.03281,-0.04425,-0.00931,0.00031,-0.03647,0.00336,0.0827,0.04791,-0.03632,-0.02289,0.00183,-0.0415
9.4185,-0.00992,-0.04395,-0.03555,-0.0853,-0.03235,-0.04303,-0.00732,0.00183,-0.03754,0.0,0.06943,0.04852,-0.0351,-0.02304,0.00824,-0.0473
9.419,-0.01297,-0.04242,-0.03555,-0.07843,-0.03189,-0.04242,-0.00748,0.00336,-0.03525,-0.00046,0.04669,0.04822,-0.0351,-0.02304,0.00549,-0.05569
9.4195,-0.01648,-0.04059,-0.03586,-0.06744,-0.03204,-0.04471,-0.00732,0.00397,-0.02975,-0.00122,0.0264,0.04456,-0.03464,-0.02182,-0.00076,-0.05814
9.42,-0.0148,-0.03998,-0.03693,-0.0589,-0.03159,-0.04425,-0.00656,0.00504,-0.02457,-0.00366,0.01816,0.0354,-0.03281,-0.01999,-0.01053,-0.05417
9.4205,-0.01068,-0.04074,-0.03479,-0.04364,-0.03159,-0.04425,-0.00488,0.00549,-0.02213,-0.00763,0.0177,0.02182,-0.03143,-0.01877,-0.01144,-0.0473
9.421,-0.00595,-0.04089,-0.03387,-0.01221,-0.03143,-0.04501,-0.00534,0.00504,-0.02182,-0.0148,0.01633,0.0058,-0.03052,-0.01724,-0.00809,-0.04227
9.4215,-0.00275,-0.04044,-0.0325,0.02808,-0.03128,-0.04471,-0.00763,0.00336,-0.01923,-0.02106,0.00931,-0.00839,-0.02869,-0.01511,0.00504,-0.03891
9.422,-0.00198,-0.03998,-0.0325,0.06165,-0.03143,-0.04486,-0.01099,0.00153,-0.01358,-0.02289,-0.00656,-0.01648,-0.02747,-0.01236,0.01389,-0.03891
9.4225,-0.00153,-0.03967,-0.03387,0.08163,-0.03159,-0.04486,-0.01312,0.00076,-0.00763,-0.02304,-0.02792,-0.02167,-0.02777,-0.01053,0.01312,-0.0415
9.423,-0.00046,-0.03983,-0.03448,0.0853,-0.03174,-0.04501,-0.01419,0.00183,-0.00473,-0.02533,-0.0441,-0.02594,-0.02899,-0.01022,0.00458,-0.04456
9.4235,-0.00076,-0.04028,-0.03174,0.07202,-0.03143,-0.04654,-0.01389,0.00336,-0.00488,-0.02884,-0.05478,-0.02747,-0.0293,-0.01007,0.0,-0.04669
9.424,-0.00244,-0.0415,-0.03128,0.0502,-0.03128,-0.04776,-0.01205,0.00412,-0.00534,-0.03067,-0.06027,-0.01846,-0.02884,-0.00946,0.00259,-0.04807
9.4245,-0.00534,-0.04211,-0.03311,0.03586,-0.03052,-0.04898,-0.01053,0.00473,-0.00549,-0.02884,-0.05295,-0.00504,-0.02914,-0.00824,0.00549,-0.0502
9.425,-0.00748,-0.04074,-0.03464,0.03983,-0.03006,-0.04868,-0.00961,0.00336,-0.00854,-0.02762,-0.03159,-0.00336,-0.03021,-0.00824,0.00336,-0.05188
9.4255,-0.00717,-0.03952,-0.0351,0.05096,-0.03067,-0.04868,-0.00854,0.00198,-0.0148,-0.02853,-0.01205,-0.02563,-0.03265,-0.01068,-0.00061,-0.05173
9.426,-0.0061,-0.03998,-0.0351,0.05539,-0.03174,-0.04868,-0.00793,0.00031,-0.02319,-0.03159,-0.01175,-0.06775,-0.03448,-0.01419,-0.00198,-0.05081
9.4265,-0.0058,-0.0412,-0.03418,0.04837,-0.03174,-0.04837,-0.00565,0.00015,-0.02945,-0.03326,-0.0325,-0.11108,-0.03555,-0.01633,0.0,-0.05096
9.427,-0.00824,-0.0415,-0.03433,0.03357,-0.03235,-0.04684,-0.00244,0.00076,-0.02853,-0.03265,-0.05615,-0.13794,-0.03448,-0.01694,0.00412,-0.05005
9.4275,-0.01282,-0.04105,-0.03311,0.01251,-0.03189,-0.04547,-0.00244,0.00076,-0.0238,-0.02945,-0.06882,-0.14236,-0.03387,-0.01755,0.00626,-0.04807
9.428,-0.01419,-0.0412,-0.03204,-0.00977,-0.03143,-0.04547,-0.00504,0.00061,-0.01862,-0.02274,-0.06927,-0.12482,-0.03235,-0.0177,0.00717,-0.04669
9.4285,-0.01236,-0.04181,-0.03143,-0.02655,-0.03204,-0.04593,-0.00641,-0.00137,-0.01373,-0.01312,-0.06531,-0.08759,-0.03098,-0.01724,0.00671,-0.04593
9.429,-0.01083,-0.04257,-0.02991,-0.03326,-0.0325,-0.04684,-0.00565,-0.00229,-0.01007,-0.00702,-0.06378,-0.03143,-0.0293,-0.01434,0.00717,-0.047
9.4295,-0.00961,-0.04303,-0.03067,-0.03815,-0.03265,-0.04608,-0.00275,-0.00137,-0.00717,-0.00397,-0.0647,0.03098,-0.02869,-0.01099,0.00778,-0.04852
9.43,-0.009,-0.04135,-0.03021,-0.04929,-0.0322,-0.04623,-0.00046,0.00122,-0.00641,-0.00229,-0.06775,0.07416,-0.02975,-0.00793,0.00656,-0.04883
9.4305,-0.0061,-0.04044,-0.03174,-0.07202,-0.0325,-0.04593,0.00046,0.00168,-0.00671,-0.00168,-0.07309,0.07828,-0.03265,-0.00687,0.00488,-0.04929
9.431,-0.00259,-0.03952,-0.02914,-0.09842,-0.0325,-0.04639,0.00076,0.00137,-0.00671,-0.00488,-0.07828,0.04898,-0.03479,-0.0087,0.00565,-0.04974
9.4315,0.00061,-0.03967,-0.02899,-0.11673,-0.03265,-0.04608,0.00015,0.00031,-0.00534,-0.01022,-0.08499,0.00778,-0.03525,-0.01312,0.00473,-0.04959
9.432,0.0029,-0.0415,-0.03128,-0.11963,-0.03189,-0.047,-0.00153,-0.00015,-0.00351,-0.01801,-0.09796,-0.02274,-0.03525,-0.01816,0.00259,-0.04807
9.4325,0.00275,-0.04303,-0.03403,-0.10712,-0.03159,-0.04654,-0.00427,0.00046,-0.00168,-0.02426,-0.11246,-0.03113,-0.03571,-0.01938,0.00153,-0.047
9.433,0.00229,-0.04349,-0.03555,-0.08072,-0.03174,-0.04684,-0.00732,0.00015,-0.00031,-0.02747,-0.11963,-0.03036,-0.03464,-0.01862,0.00061,-0.04547
9.4335,0.00168,-0.04196,-0.03387,-0.03662,-0.03342,-0.04623,-0.00992,-0.00015,-0.00046,-0.02533,-0.12054,-0.04669,-0.03342,-0.01801,0.0,-0.04333
9.434,0.00137,-0.04196,-0.03174,0.02853,-0.03326,-0.04608,-0.01129,-0.00015,-0.00107,-0.02045,-0.12634,-0.08163,-0.03296,-0.01953,0.00153,-0.04135
9.4345,0.00076,-0.04272,-0.03189,0.10056,-0.03296,-0.04822,-0.01083,0.00061,-0.00275,-0.01343,-0.13824,-0.09415,-0.03311,-0.02045,0.00519,-0.03967
9.435,0.00031,-0.04379,-0.0354,0.14267,-0.03342,-0.04929,-0.01068,0.00153,-0.00214,-0.00977,-0.14786,-0.03799,-0.03387,-0.01877,0.00885,-0.0386
9.4355,-0.00046,-0.04471,-0.0386,0.12329,-0.03433,-0.04929,-0.00992,0.00244,0.00229,-0.00839,-0.15106,0.07263,-0.03571,-0.01328,0.01144,-0.03754
9.436,-0.00229,-0.04501,-0.03876,0.05554,-0.0351,-0.04883,-0.00961,0.00244,0.01099,-0.00702,-0.14969,0.16663,-0.03555,-0.00397,0.01022,-0.03784
9.4365,-0.0032,-0.04456,-0.03784,-0.00519,-0.03525,-0.04807,-0.00977,0.00183,0.01938,-0.00687,-0.14481,0.19852,-0.03433,0.00351,0.01175,-0.03815
9.437,-0.00427,-0.04364,-0.03601,-0.01465,-0.0351,-0.04929,-0.01114,0.0,0.02487,-0.00763,-0.14008,0.20706,-0.03403,0.00397,0.01266,-0.03738
9.4375,-0.00366,-0.04333,-0.03479,0.02213,-0.03403,-0.04974,-0.01312,-0.00153,0.02808,-0.00977,-0.13535,0.24536,-0.03464,-0.00076,0.00931,-0.03738
9.438,-0.00366,-0.04303,-0.03479,0.0621,-0.03235,-0.04974,-0.01373,-0.00122,0.03052,-0.01389,-0.1268,0.29221,-0.0354,-0.00229,0.00473,-0.03693
9.4385,-0.00443,-0.04303,-0.0354,0.07034,-0.03174,-0.04974,-0.0145,-0.00015,0.03036,-0.01862,-0.11932,0.27359,-0.03479,0.00397,0.00488,-0.03738
9.439,-0.00748,-0.04318,-0.03693,0.04593,-0.03235,-0.05157,-0.01495,0.00061,0.02472,-0.02441,-0.11917,0.17548,-0.03387,0.01495,0.00748,-0.0386
9.4395,-0.01053,-0.04333,-0.03632,0.0148,-0.03342,-0.05081,-0.01556,-0.00076,0.0148,-0.02991,-0.12161,0.05768,-0.03311,0.02197,0.00854,-0.03967
9.44,-0.01068,-0.04272,-0.03433,0.00198,-0.0325,-0.04913,-0.01617,-0.00229,0.00412,-0.03403,-0.11719,-0.01495,-0.03387,0.00946,0.0119,-0.04242
9.4405,-0.0087,-0.04272,-0.03387,0.00626,-0.02975,-0.04807,-0.01617,-0.00244,-0.00885,-0.03845,-0.10605,-0.02213,-0.03632,-0.03143,0.01526,-0.04547
9.441,-0.00565,-0.04349,-0.03372,0.0058,-0.0293,-0.0473,-0.01434,-0.0029,-0.0238,-0.04608,-0.09506,0.02075,-0.0386,-0.08423,0.01877,-0.04745
9.4415,-0.0029,-0.04333,-0.03372,-0.01099,-0.03036,-0.04761,-0.01129,-0.00275,-0.03555,-0.05859,-0.08591,0.07629,-0.03983,-0.11154,0.01923,-0.04745
9.442,-0.00122,-0.04211,-0.03296,-0.03494,-0.03174,-0.04822,-0.01007,-0.00259,-0.04181,-0.06332,-0.07614,0.09964,-0.04013,-0.09644,0.0174,-0.04532
9.4425,-0.00061,-0.04105,-0.0322,-0.04349,-0.03113,-0.04837,-0.01099,-0.00107,-0.04608,-0.04974,-0.06775,0.07568,-0.0386,-0.06195,0.01495,-0.04532
9.443,-0.00107,-0.03906,-0.03204,-0.0296,-0.03021,-0.04929,-0.01312,-0.00122,-0.05005,-0.02243,-0.06607,0.03113,-0.03677,-0.03754,0.01358,-0.0473
9.4435,-0.00076,-0.03891,-0.03128,-0.01328,-0.0293,-0.04944,-0.01328,-0.00244,-0.05173,-0.00443,-0.07233,0.00473,-0.0354,-0.03128,0.01358,-0.04837
9.444,-0.00031,-0.0386,-0.03174,-0.00946,-0.03021,-0.04929,-0.01251,-0.00214,-0.04898,-0.00824,-0.07538,0.00504,-0.03662,-0.03342,0.01343,-0.04715
9.4445,-0.00046,-0.03815,-0.03296,-0.01541,-0.03128,-0.04913,-0.01068,-0.00137,-0.04349,-0.02197,-0.06851,0.0145,-0.03601,-0.03571,0.01617,-0.04623
9.445,-0.00122,-0.0383,-0.03387,-0.02014,-0.03281,-0.04837,-0.00992,0.0,-0.03891,-0.0267,-0.05722,0.01251,-0.03494,-0.03098,0.01572,-0.04471
9.4455,-0.00137,-0.03967,-0.03296,-0.02213,-0.03372,-0.04745,-0.00977,-0.00076,-0.03555,-0.02426,-0.05051,-0.00122,-0.03418,-0.01328,0.01389,-0.04379
9.446,-0.00122,-0.04074,-0.0322,-0.0238,-0.03372,-0.047,-0.00992,-0.0029,-0.03448,-0.02274,-0.0502,-0.01617,-0.03494,0.01221,0.01389,-0.04425
9.4465,-0.00153,-0.04044,-0.03357,-0.0235,-0.03326,-0.04807,-0.01099,-0.00412,-0.03326,-0.02411,-0.04593,-0.02151,-0.03494,0.02335,0.01358,-0.04639
9.447,-0.00412,-0.03998,-0.03433,-0.02289,-0.03159,-0.04944,-0.01129,-0.00412,-0.03174,-0.02197,-0.03418,-0.01495,-0.03326,0.01114,0.01633,-0.0473
9.4475,-0.00534,-0.03952,-0.03479,-0.02213,-0.03098,-0.04807,-0.01038,-0.00244,-0.02945,-0.01602,-0.02609,-0.00839,-0.03143,-0.00748,0.01617,-0.04639
9.448,-0.00473,-0.04013,-0.03464,-0.02182,-0.03113,-0.04532,-0.00809,-0.00107,-0.02533,-0.0116,-0.0322,-0.00977,-0.03159,-0.01602,0.01709,-0.04486
9.4485,-0.00351,-0.04211,-0.03464,-0.02289,-0.03204,-0.04395,-0.00671,-0.00168,-0.0206,-0.01221,-0.04654,-0.02151,-0.03342,-0.02136,0.02747,-0.04501
9.449,-0.0029,-0.04318,-0.0351,-0.02457,-0.03235,-0.0444,-0.00809,-0.00305,-0.01648,-0.0148,-0.06027,-0.03647,-0.0354,-0.0325,0.04684,-0.04807
9.4495,-0.0029,-0.04227,-0.03845,-0.02609,-0.0322,-0.04395,-0.00885,-0.00412,-0.01144,-0.01373,-0.0676,-0.04364,-0.03555,-0.04181,0.06897,-0.05081
9.45,-0.00198,-0.04059,-0.03555,-0.02731,-0.03128,-0.04288,-0.00809,-0.00488,-0.00595,-0.00732,-0.06729,-0.03876,-0.03418,-0.03708,0.07599,-0.05066
9.4505,-0.00046,-0.04028,-0.03616,-0.02548,-0.02869,-0.04211,-0.00778,-0.00671,-0.00046,0.00061,-0.0676,-0.03067,-0.03098,-0.02106,0.05478,-0.04822
9.451,0.00015,-0.0412,-0.03189,-0.02258,-0.02609,-0.04395,-0.00778,-0.00732,0.00061,0.0058,-0.06866,-0.02731,-0.0293,-0.00824,0.01999,-0.04471
9.4515,0.0,-0.0415,-0.03372,-0.01846,-0.02563,-0.04532,-0.009,-0.00534,-0.00397,0.00473,-0.06561,-0.02975,-0.02792,-0.00702,-0.00992,-0.04333
9.452,0.00061,-0.03937,-0.03143,-0.01343,-0.02777,-0.04623,-0.01007,-0.00336,-0.0116,-0.00259,-0.05905,-0.03784,-0.02808,-0.01556,-0.02426,-0.04395
9.4525,0.00183,-0.03876,-0.03326,-0.00992,-0.03006,-0.04562,-0.01068,-0.00137,-0.01465,-0.0119,-0.05661,-0.05234,-0.02823,-0.02335,-0.03006,-0.04456
9.453,0.00153,-0.03967,-0.03464,-0.00824,-0.03021,-0.04471,-0.0119,-0.00092,-0.01251,-0.01846,-0.06058,-0.06836,-0.02945,-0.0267,-0.03098,-0.04456
9.4535,-0.00137,-0.04059,-0.03387,-0.00793,-0.03098,-0.04486,-0.01251,-0.00107,-0.00854,-0.02151,-0.06622,-0.07935,-0.03143,-0.02502,-0.02777,-0.04486
9.454,-0.0032,-0.03983,-0.03326,-0.00824,-0.03159,-0.04608,-0.0119,-0.00153,-0.00656,-0.02274,-0.06973,-0.07065,-0.03357,-0.0238,-0.01968,-0.04608
9.4545,-0.00305,-0.03845,-0.03387,-0.00916,-0.0322,-0.047,-0.01099,-0.00244,-0.00534,-0.02411,-0.06866,-0.03357,-0.03464,-0.02457,-0.01053,-0.04684
9.455,-0.00259,-0.03906,-0.0354,-0.00946,-0.03311,-0.04684,-0.01129,-0.0032,-0.00488,-0.02533,-0.05951,0.02319,-0.0351,-0.02686,-0.00198,-0.04562
9.4555,-0.00351,-0.04074,-0.03677,-0.01053,-0.03464,-0.047,-0.01236,-0.00397,-0.00534,-0.02319,-0.04196,0.07553,-0.03464,-0.02884,-0.00244,-0.04395
9.456,-0.00488,-0.04196,-0.03662,-0.0148,-0.03723,-0.04776,-0.01236,-0.00504,-0.0058,-0.01785,-0.02243,0.10117,-0.0351,-0.03036,-0.00122,-0.04425
9.4565,-0.00381,-0.0412,-0.03387,-0.02472,-0.03754,-0.04944,-0.01007,-0.00595,-0.00626,-0.01434,-0.0119,0.0946,-0.03632,-0.02945,-0.00061,-0.04578
9.457,-0.00229,-0.03983,-0.03143,-0.04211,-0.03708,-0.0499,-0.00809,-0.00671,-0.0058,-0.0119,-0.01602,0.06805,-0.03723,-0.02121,0.00488,-0.04684
9.4575,-0.00244,-0.03784,-0.0322,-0.0679,-0.03494,-0.04837,-0.00732,-0.00778,-0.00427,-0.01144,-0.02853,0.04074,-0.03891,-0.00183,0.0058,-0.04608
9.458,-0.00443,-0.03723,-0.03555,-0.10101,-0.03601,-0.047,-0.00885,-0.00793,-0.00626,-0.00946,-0.03891,0.0238,-0.04089,0.01846,0.00519,-0.0441
9.4585,-0.00717,-0.0386,-0.03738,-0.121,-0.03723,-0.04623,-0.00977,-0.00702,-0.01144,-0.00717,-0.03799,0.01541,-0.04074,0.0209,0.00031,-0.04318
9.459,-0.00839,-0.04013,-0.03693,-0.09888,-0.03815,-0.04654,-0.00854,-0.0058,-0.01663,-0.00504,-0.03174,0.00931,-0.03799,0.00076,-0.00366,-0.04318
9.4595,-0.00763,-0.04089,-0.03601,-0.02975,-0.0383,-0.04684,-0.00717,-0.00595,-0.01785,-0.00412,-0.03204,0.00458,-0.0354,-0.01968,-0.00778,-0.04395
9.46,-0.0061,-0.04135,-0.0354,0.04425,-0.03754,-0.04578,-0.00778,-0.00687,-0.01511,-0.00488,-0.03891,0.00092,-0.03479,-0.02365,-0.00824,-0.04303
9.4605,-0.00504,-0.04105,-0.0351,0.07767,-0.03571,-0.04471,-0.009,-0.00763,-0.01205,-0.00748,-0.04379,-0.00061,-0.03464,-0.01663,-0.00565,-0.04257
9.461,-0.00336,-0.03983,-0.03922,0.05875,-0.03311,-0.04532,-0.01114,-0.00824,-0.00961,-0.01068,-0.04181,-0.0029,-0.03311,-0.0116,0.00168,-0.04471
9.4615,-0.00244,-0.03967,-0.03922,0.01968,-0.03128,-0.04623,-0.01221,-0.00961,-0.00763,-0.01602,-0.0354,-0.00458,-0.03113,-0.01343,0.01205,-0.04822
9.462,-0.00046,-0.0412,-0.03845,-0.00275,-0.03098,-0.04562,-0.01175,-0.00977,-0.00595,-0.02151,-0.03021,-0.00656,-0.03052,-0.01633,0.02258,-0.04791
9.4625,0.0,-0.04349,-0.03723,0.00153,-0.03143,-0.04547,-0.0119,-0.00854,-0.00305,-0.02548,-0.03067,-0.00854,-0.03143,-0.01663,0.02899,-0.04562
9.463,-0.00076,-0.04395,-0.03738,0.01953,-0.03342,-0.04562,-0.01144,-0.00717,-0.00015,-0.02777,-0.03357,-0.01007,-0.03296,-0.01678,0.02899,-0.04318
9.4635,-0.00092,-0.04196,-0.03708,0.03342,-0.03311,-0.04684,-0.01038,-0.00656,0.0,-0.0264,-0.03372,-0.01175,-0.03403,-0.01923,0.02335,-0.04318
9.464,-0.00229,-0.03937,-0.03693,0.03128,-0.03281,-0.04791,-0.0087,-0.00778,-0.00183,-0.02396,-0.03189,-0.01297,-0.03418,-0.02289,0.01709,-0.04333
9.4645,-0.00488,-0.03784,-0.03571,0.01038,-0.03296,-0.04837,-0.00793,-0.009,-0.00488,-0.02228,-0.02975,-0.01572,-0.03281,-0.02609,0.01572,-0.04395
9.465,-0.00732,-0.03906,-0.03448,-0.01465,-0.0322,-0.04883,-0.00839,-0.00885,-0.00626,-0.02243,-0.02533,-0.0148,-0.03265,-0.02609,0.0177,-0.04501
9.4655,-0.009,-0.04135,-0.03357,-0.02914,-0.03189,-0.04944,-0.00839,-0.00748,-0.00824,-0.02136,-0.01938,-0.01297,-0.03387,-0.02548,0.02075,-0.04623
9.466,-0.00931,-0.04257,-0.0351,-0.03708,-0.03128,-0.04944,-0.0061,-0.00549,-0.01251,-0.02151,-0.02029,-0.01236,-0.0351,-0.0267,0.02502,-0.04608
9.4665,-0.00702,-0.04272,-0.03632,-0.04547,-0.03036,-0.05005,-0.00427,-0.00458,-0.01709,-0.02045,-0.03036,-0.0119,-0.03372,-0.02808,0.02228,-0.04242
9.467,-0.00656,-0.0412,-0.03616,-0.05493,-0.02991,-0.04974,-0.00534,-0.00519,-0.01877,-0.01907,-0.04761,-0.009,-0.03265,-0.02975,0.01694,-0.04074
9.4675,-0.00732,-0.04059,-0.03418,-0.06088,-0.02975,-0.04898,-0.00732,-0.0058,-0.01831,-0.01801,-0.06042,-0.00488,-0.0322,-0.0325,0.01282,-0.04089
9.468,-0.00702,-0.04089,-0.0325,-0.06439,-0.03006,-0.05005,-0.00824,-0.00488,-0.0206,-0.01602,-0.06088,-0.00565,-0.03159,-0.03677,0.01282,-0.0412
9.4685,-0.00534,-0.04196,-0.03174,-0.06104,-0.0296,-0.05173,-0.00885,-0.00595,-0.02472,-0.01617,-0.04974,-0.01099,-0.0322,-0.03983,0.01511,-0.0386
9.469,-0.00351,-0.04059,-0.03189,-0.0351,-0.02808,-0.05249,-0.01007,-0.00717,-0.02792,-0.01846,-0.03387,-0.0177,-0.03403,-0.03418,0.01801,-0.03616
9.4695,-0.00336,-0.03998,-0.03235,0.02487,-0.02625,-0.05142,-0.01022,-0.00885,-0.02625,-0.02014,-0.01663,-0.02426,-0.03571,-0.01419,0.01816,-0.0354
9.47,-0.00565,-0.03937,-0.03052,0.09247,-0.02579,-0.05081,-0.00946,-0.009,-0.0206,-0.01984,0.00595,-0.03357,-0.03586,0.01144,0.01938,-0.03906
9.4705,-0.00717,-0.04028,-0.03143,0.11246,-0.02625,-0.04929,-0.00885,-0.00839,-0.01175,-0.01648,0.04059,-0.04562,-0.03464,0.02396,0.02029,-0.0444
9.471,-0.00641,-0.04044,-0.03418,0.06744,-0.02594,-0.04929,-0.00946,-0.0087,-0.00397,-0.01038,0.08591,-0.04959,-0.0322,0.01541,0.01892,-0.04776
9.4715,-0.00443,-0.03906,-0.03372,0.00046,-0.02457,-0.04837,-0.01068,-0.00946,-0.00015,-0.00198,0.13245,-0.04639,-0.03189,-0.00244,0.01511,-0.05035
9.472,-0.00366,-0.0383,-0.03448,-0.03372,-0.02533,-0.04807,-0.01175,-0.00992,-0.00122,0.00427,0.16403,-0.04501,-0.03143,-0.01236,0.01144,-0.05356
9.4725,-0.00412,-0.03891,-0.0354,-0.02853,-0.02747,-0.0499,-0.01236,-0.00839,-0.00565,0.00534,0.16891,-0.05325,-0.03204,-0.01419,0.01022,-0.05783
9.473,-0.00473,-0.04074,-0.03555,-0.01617,-0.03021,-0.05112,-0.01495,-0.00702,-0.00916,0.00107,0.14694,-0.06393,-0.03235,-0.01572,0.01358,-0.06088
9.4735,-0.00443,-0.0415,-0.03586,-0.01617,-0.03143,-0.05157,-0.01694,-0.00641,-0.01007,-0.00305,0.1091,-0.065,-0.03204,-0.01801,0.01526,-0.06058
9.474,-0.00427,-0.04166,-0.03693,-0.02014,-0.03265,-0.04944,-0.0177,-0.00717,-0.01266,-0.00626,0.06424,-0.06332,-0.03235,-0.0177,0.01572,-0.05783
9.4745,-0.00504,-0.04166,-0.03616,-0.01709,-0.03128,-0.04791,-0.01831,-0.00717,-0.0174,-0.00702,0.01297,-0.07263,-0.03357,-0.01633,0.01419,-0.056
9.475,-0.00702,-0.04028,-0.03616,-0.00732,-0.03113,-0.04929,-0.0174,-0.00671,-0.02136,-0.00793,-0.02975,-0.09171,-0.03433,-0.01495,0.01175,-0.05585
9.4755,-0.009,-0.03906,-0.03586,0.00397,-0.03204,-0.05142,-0.01587,-0.00595,-0.02121,-0.0087,-0.05096,-0.09918,-0.03494,-0.01495,0.00839,-0.05783
9.476,-0.01114,-0.03967,-0.03616,0.00961,-0.03128,-0.05234,-0.01678,-0.00763,-0.02045,-0.00977,-0.05585,-0.06622,-0.03326,-0.01404,0.00702,-0.05829
9.4765,-0.01282,-0.04257,-0.03677,0.00076,-0.03021,-0.05234,-0.02045,-0.00854,-0.02167,-0.01221,-0.05386,0.02014,-0.03143,-0.01343,0.00168,-0.05615
9.477,-0.01358,-0.04333,-0.03601,-0.02472,-0.03006,-0.05142,-0.02258,-0.00824,-0.0264,-0.01816,-0.0531,0.13519,-0.02991,-0.01312,0.00351,-0.05386
9.4775,-0.01282,-0.04272,-0.0354,-0.04852,-0.03143,-0.0499,-0.02182,-0.00641,-0.03143,-0.0264,-0.05753,0.19943,-0.03036,-0.01358,0.00412,-0.05081
9.478,-0.00992,-0.04196,-0.0351,-0.04959,-0.03326,-0.04944,-0.02075,-0.0058,-0.03265,-0.03586,-0.06531,0.15762,-0.03036,-0.0145,0.00656,-0.0502
9.4785,-0.00885,-0.04196,-0.03403,-0.03021,-0.03204,-0.04898,-0.02167,-0.00595,-0.0293,-0.04379,-0.0679,0.05096,-0.03036,-0.01572,0.00763,-0.04791
9.479,-0.009,-0.04211,-0.03204,-0.00931,-0.03067,-0.04868,-0.02289,-0.00732,-0.02335,-0.04868,-0.06165,-0.02548,-0.02991,-0.01831,0.00977,-0.0444
9.4795,-0.00946,-0.04196,-0.0322,-0.0029,-0.03082,-0.04761,-0.02274,-0.00839,-0.0177,-0.04837,-0.05173,-0.03738,-0.02975,-0.01907,0.01053,-0.04257
9.48,-0.00671,-0.04074,-0.03281,-0.00717,-0.03006,-0.04745,-0.02014,-0.009,-0.01251,-0.04395,-0.04456,-0.0206,-0.02914,-0.0177,0.01114,-0.04486
9.4805,-0.00198,-0.03983,-0.03448,-0.01251,-0.03067,-0.04761,-0.01755,-0.00809,-0.009,-0.04044,-0.04395,-0.00931,-0.02762,-0.01572,0.01083,-0.04761
9.481,0.00107,-0.03906,-0.03448,-0.01495,-0.03006,-0.04776,-0.01617,-0.00732,-0.00793,-0.03906,-0.04684,0.00061,-0.02747,-0.01617,0.01114,-0.04883
9.4815,0.00076,-0.04028,-0.0351,-0.01587,-0.0296,-0.047,-0.0174,-0.00656,-0.01099,-0.03738,-0.04562,0.02884,-0.02945,-0.01831,0.0116,-0.04929
9.482,-0.00031,-0.04288,-0.03479,-0.01755,-0.03021,-0.04654,-0.01999,-0.00717,-0.0148,-0.03632,-0.04059,0.07629,-0.03159,-0.01846,0.01099,-0.05203
9.4825,-0.00076,-0.0444,-0.03326,-0.01709,-0.03189,-0.047,-0.02167,-0.00793,-0.01648,-0.03693,-0.04181,0.11887,-0.03143,-0.01617,0.00641,-0.05783
9.483,-0.00015,-0.04532,-0.03281,-0.01236,-0.0325,-0.04822,-0.0206,-0.00763,-0.01404,-0.03738,-0.05173,0.12314,-0.02853,-0.01572,0.00107,-0.0618
9.4835,-0.00107,-0.04471,-0.03342,-0.00641,-0.03296,-0.04944,-0.01831,-0.00748,-0.01053,-0.03494,-0.05905,0.08743,-0.02838,-0.01678,-0.00046,-0.0618
9.484,-0.00351,-0.04456,-0.03342,-0.00336,-0.03403,-0.04959,-0.01923,-0.00931,-0.00793,-0.03052,-0.05661,0.04349,-0.02945,-0.01831,0.00153,-0.05875
9.4845,-0.00595,-0.04333,-0.03326,-0.00259,-0.03357,-0.04852,-0.02106,-0.01129,-0.00839,-0.02441,-0.05051,0.02365,-0.03098,-0.01938,0.00427,-0.05478
9.485,-0.0061,-0.04227,-0.03281,-0.00381,-0.03052,-0.04623,-0.02151,-0.01144,-0.00992,-0.01892,-0.04868,0.0264,-0.03113,-0.01984,0.00565,-0.04974
9.4855,-0.00381,-0.04257,-0.03052,-0.00366,-0.0296,-0.04562,-0.02075,-0.00839,-0.01404,-0.01663,-0.04807,0.0293,-0.03128,-0.01999,0.00748,-0.04623
9.486,-0.00198,-0.0441,-0.02884,-0.00595,-0.03098,-0.04669,-0.02029,-0.00549,-0.02075,-0.0177,-0.04791,0.01724,-0.03143,-0.0209,0.00809,-0.04349
9.4865,-0.00305,-0.04486,-0.02884,-0.01221,-0.03357,-0.04898,-0.02106,-0.00656,-0.02533,-0.0206,-0.05081,-0.00336,-0.03128,-0.01999,0.00671,-0.04608
9.487,-0.0061,-0.0444,-0.03006,-0.01999,-0.03387,-0.05035,-0.02243,-0.009,-0.02441,-0.02274,-0.05661,-0.01801,-0.03006,-0.01831,0.00595,-0.05173
9.4875,-0.00687,-0.04349,-0.0325,-0.02396,-0.03311,-0.05005,-0.02411,-0.01038,-0.01984,-0.02426,-0.06119,-0.02106,-0.0293,-0.01831,0.00809,-0.05692
9.488,-0.00671,-0.04303,-0.03296,-0.02106,-0.03174,-0.04883,-0.0238,-0.01038,-0.0177,-0.02487,-0.06165,-0.01587,-0.02899,-0.01923,0.00793,-0.05753
9.4885,-0.00641,-0.04364,-0.0322,-0.01556,-0.03189,-0.04761,-0.02182,-0.00839,-0.01877,-0.02426,-0.05936,-0.01144,-0.02914,-0.02106,0.00931,-0.05524
9.489,-0.0061,-0.04333,-0.0296,-0.01465,-0.0322,-0.04913,-0.02045,-0.00595,-0.02014,-0.02426,-0.056,-0.009,-0.02914,-0.02151,0.01099,-0.05249
9.4895,-0.00473,-0.04349,-0.02884,-0.0206,-0.03128,-0.05051,-0.01968,-0.00412,-0.01953,-0.02472,-0.05463,-0.00504,-0.02899,-0.02121,0.01053,-0.05295
9.49,-0.00412,-0.04242,-0.03098,-0.02975,-0.03052,-0.04959,-0.02014,-0.00305,-0.01831,-0.02472,-0.0528,-0.00031,-0.02869,-0.02045,0.009,-0.05325
9.4905,-0.00412,-0.04166,-0.03143,-0.04074,-0.03128,-0.04761,-0.02075,-0.00366,-0.01663,-0.02304,-0.04654,0.0029,-0.02823,-0.02075,0.009,-0.05295
9.491,-0.00381,-0.04013,-0.0351,-0.05112,-0.03174,-0.04654,-0.02197,-0.00473,-0.01572,-0.0206,-0.03876,0.00397,-0.02823,-0.02029,0.01129,-0.05142
9.4915,-0.0032,-0.03937,-0.03296,-0.056,-0.03372,-0.04715,-0.02335,-0.00427,-0.01541,-0.01938,-0.03098,0.00259,-0.02899,-0.0206,0.01251,-0.0502
9.492,-0.00351,-0.03952,-0.03342,-0.04364,-0.03403,-0.04837,-0.02289,-0.00443,-0.01511,-0.01923,-0.02243,0.00107,-0.02991,-0.02167,0.01053,-0.04745
9.4925,-0.00534,-0.04044,-0.03662,0.00015,-0.03204,-0.04807,-0.02243,-0.00473,-0.01358,-0.01633,-0.01389,-0.00168,-0.03143,-0.0238,0.00885,-0.04257
9.493,-0.00626,-0.04074,-0.03815,0.07645,-0.03159,-0.04715,-0.02243,-0.00565,-0.01266,-0.0119,-0.01328,-0.00534,-0.03204,-0.02472,0.00839,-0.04074
9.4935,-0.00443,-0.04013,-0.03693,0.14832,-0.03113,-0.04684,-0.02411,-0.00534,-0.01343,-0.00854,-0.0174,-0.00931,-0.0325,-0.02472,0.00824,-0.04196
9.494,-0.00275,-0.04105,-0.03387,0.16113,-0.03174,-0.04669,-0.02548,-0.00427,-0.01648,-0.00702,-0.01984,-0.01373,-0.03189,-0.02396,0.00809,-0.04364
9.4945,-0.00275,-0.0415,-0.03311,0.10132,-0.03296,-0.04669,-0.02472,-0.00397,-0.02029,-0.00778,-0.01724,-0.01999,-0.03067,-0.02441,0.00732,-0.04379
9.495,-0.00336,-0.0415,-0.03296,0.01816,-0.0325,-0.04669,-0.02289,-0.00427,-0.02304,-0.00885,-0.01022,-0.02899,-0.0296,-0.02472,0.00519,-0.04303
9.4955,-0.00458,-0.04105,-0.03479,-0.03738,-0.03281,-0.04715,-0.02228,-0.00504,-0.02365,-0.01068,-0.00031,-0.03738,-0.0293,-0.02396,0.00732,-0.04349
9.496,-0.00534,-0.03998,-0.03586,-0.06882,-0.03143,-0.04745,-0.02197,-0.00504,-0.02289,-0.01312,0.01053,-0.04288,-0.03098,-0.02197,0.00275,-0.04257
9.4965,-0.00717,-0.03998,-0.03632,-0.08942,-0.03082,-0.04852,-0.02228,-0.00427,-0.02075,-0.01419,0.01892,-0.04761,-0.0322,-0.01984,-0.00061,-0.04318
9.497,-0.00824,-0.04013,-0.03525,-0.09232,-0.03082,-0.04929,-0.02197,-0.00458,-0.0177,-0.01556,0.02365,-0.05356,-0.0322,-0.01801,-0.00122,-0.04395
9.4975,-0.00748,-0.04028,-0.03571,-0.07156,-0.03296,-0.0473,-0.02182,-0.00443,-0.01389,-0.01678,0.03082,-0.0589,-0.03143,-0.01678,-0.00122,-0.0441
9.498,-0.00534,-0.04074,-0.03723,-0.05371,-0.03326,-0.04486,-0.02182,-0.00381,-0.01205,-0.01816,0.0473,-0.05798,-0.03128,-0.01694,-0.00168,-0.04761
9.4985,-0.00488,-0.0415,-0.03708,-0.05646,-0.03265,-0.04501,-0.02365,-0.00366,-0.01083,-0.0174,0.0676,-0.04974,-0.03128,-0.01831,0.00229,-0.0531
9.499,-0.00641,-0.04211,-0.03693,-0.06622,-0.03174,-0.04684,-0.02457,-0.00397,-0.0087,-0.01816,0.07645,-0.03906,-0.03204,-0.02121,0.00519,-0.05692
9.4995,-0.00656,-0.04089,-0.03387,-0.06424,-0.03159,-0.04761,-0.02319,-0.00473,-0.00626,-0.02167,0.06836,-0.03052,-0.03098,-0.02228,0.00977,-0.05554
9.5,-0.00641,-0.03876,-0.0325,-0.05249,-0.03128,-0.04608,-0.02029,-0.00458,-0.00549,-0.02411,0.05081,-0.02502,-0.03036,-0.02136,0.0119,-0.04898
9.5005,-0.00565,-0.0386,-0.03357,-0.0415,-0.03143,-0.04639,-0.01877,-0.00473,-0.00671,-0.02365,0.03326,-0.02106,-0.02899,-0.01862,0.01495,-0.03937
9.501,-0.00687,-0.03906,-0.03586,-0.02945,-0.03235,-0.04745,-0.01907,-0.00458,-0.00732,-0.01907,0.01282,-0.01953,-0.02899,-0.01801,0.0145,-0.02991
9.5015,-0.00748,-0.03845,-0.03754,-0.00443,-0.03189,-0.04776,-0.01953,-0.00534,-0.00732,-0.01419,-0.0206,-0.0206,-0.0296,-0.01938,0.01358,-0.01816
9.502,-0.00793,-0.03769,-0.03632,0.03143,-0.03067,-0.0473,-0.02014,-0.00504,-0.00839,-0.01114,-0.05615,-0.02075,-0.03113,-0.02167,0.01297,-0.00565
9.5025,-0.00793,-0.03754,-0.0351,0.06531,-0.02991,-0.047,-0.0209,-0.00443,-0.01236,-0.00946,-0.07782,-0.0177,-0.03387,-0.02289,0.01328,0.00275
9.503,-0.00763,-0.03906,-0.03662,0.08453,-0.02991,-0.04898,-0.02151,-0.0029,-0.01877,-0.01053,-0.0798,-0.01404,-0.03464,-0.02319,0.01709,0.00092
9.5035,-0.00641,-0.04089,-0.03723,0.08087,-0.02747,-0.05112,-0.02106,-0.00214,-0.0238,-0.0116,-0.06241,-0.01495,-0.03464,-0.02396,0.01755,-0.01007
9.504,-0.00473,-0.04242,-0.03647,0.0502,-0.0264,-0.05066,-0.01999,-0.00229,-0.02533,-0.01282,-0.02899,-0.01572,-0.03479,-0.02426,0.01205,-0.03235
9.5045,-0.00381,-0.04242,-0.03647,0.00427,-0.02823,-0.04898,-0.01816,-0.00336,-0.02579,-0.01526,0.00092,-0.01328,-0.03586,-0.02365,0.00153,-0.06653
9.505,-0.00412,-0.04089,-0.03571,-0.03494,-0.03067,-0.0473,-0.01755,-0.00458,-0.02625,-0.01709,0.01053,-0.00824,-0.03708,-0.02319,-0.00809,-0.11139
9.5055,-0.00336,-0.04044,-0.03357,-0.047,-0.03342,-0.04837,-0.01724,-0.00488,-0.02747,-0.01938,0.00885,-0.00504,-0.03632,-0.02167,-0.01266,-0.1442
9.506,-0.00351,-0.04028,-0.02991,-0.02533,-0.03296,-0.05005,-0.01602,-0.00458,-0.02579,-0.02197,0.01892,-0.00504,-0.03357,-0.02106,-0.01419,-0.13046
9.5065,-0.00397,-0.04044,-0.03021,0.01282,-0.03311,-0.04959,-0.01434,-0.00458,-0.02136,-0.02319,0.03647,-0.00732,-0.03113,-0.02075,-0.01678,-0.06836
9.507,-0.00336,-0.04074,-0.03128,0.0325,-0.03433,-0.04837,-0.01358,-0.00534,-0.01526,-0.02274,0.04211,-0.00488,-0.03036,-0.01923,-0.02045,0.00565
9.5075,-0.00183,-0.0412,-0.03311,0.01862,-0.03372,-0.04623,-0.01495,-0.00656,-0.01114,-0.02182,0.03189,-0.00153,-0.03128,-0.01709,-0.01724,0.05356
9.508,-0.00046,-0.04166,-0.03464,-0.00458,-0.03204,-0.04608,-0.01617,-0.00732,-0.00885,-0.02213,0.02304,0.00259,-0.03082,-0.01678,-0.00046,0.07126
9.5085,0.00015,-0.04242,-0.0354,-0.01266,-0.02975,-0.04562,-0.01602,-0.00687,-0.00931,-0.02365,0.02594,0.00168,-0.02975,-0.01694,0.02792,0.07187
9.509,-0.00122,-0.0415,-0.03586,-0.0087,-0.02914,-0.04532,-0.01633,-0.0061,-0.01007,-0.02365,0.03296,-0.0032,-0.02899,-0.01846,0.05188,0.06393
9.5095,-0.00198,-0.03906,-0.03448,-0.00336,-0.02899,-0.04547,-0.01816,-0.00473,-0.01266,-0.02274,0.03616,-0.00534,-0.02991,-0.01938,0.056,0.04898
9.51,-0.00046,-0.03738,-0.03464,0.00809,-0.02899,-0.04669,-0.01999,-0.00366,-0.01724,-0.02228,0.0351,-0.00336,-0.03067,-0.01999,0.0412,0.02884
9.5105,0.00046,-0.03738,-0.03555,0.0325,-0.02808,-0.04852,-0.01831,-0.00305,-0.02457,-0.02258,0.03235,-0.00015,-0.03113,-0.01846,0.01801,0.00702
9.511,0.00046,-0.03952,-0.03632,0.06485,-0.02777,-0.04898,-0.0174,-0.00443,-0.03235,-0.02213,0.02762,-0.00076,-0.03067,-0.01831,0.00107,-0.0119
9.5115,-0.00137,-0.04196,-0.03555,0.08133,-0.0296,-0.04913,-0.01663,-0.00656,-0.03799,-0.01984,0.02151,-0.0061,-0.03082,-0.01755,-0.00336,-0.02457
9.512,-0.00259,-0.04227,-0.0351,0.06058,-0.03174,-0.04913,-0.01663,-0.00916,-0.03937,-0.01923,0.0177,-0.01511,-0.02991,-0.01755,0.00336,-0.03189
9.5125,-0.00198,-0.04135,-0.03433,0.0116,-0.03448,-0.04868,-0.01648,-0.01022,-0.03693,-0.02258,0.0206,-0.02441,-0.03021,-0.0177,0.00839,-0.03799
9.513,-0.00168,-0.03998,-0.03281,-0.03494,-0.03494,-0.04745,-0.01633,-0.00839,-0.03403,-0.02472,0.02762,-0.03128,-0.02914,-0.01831,0.01007,-0.04669
9.5135,-0.00214,-0.04074,-0.03357,-0.05478,-0.03448,-0.04761,-0.01633,-0.00534,-0.03265,-0.02411,0.03357,-0.0322,-0.02853,-0.01846,0.0148,-0.05753
9.514,-0.00397,-0.04196,-0.03387,-0.04898,-0.03418,-0.04776,-0.01724,-0.00336,-0.03098,-0.01984,0.03555,-0.02579,-0.02991,-0.01846,0.0119,-0.06973
9.5145,-0.00565,-0.04318,-0.03387,-0.03387,-0.0351,-0.04898,-0.01816,-0.0032,-0.02777,-0.01617,0.03021,-0.01541,-0.03036,-0.01831,0.00717,-0.07919
9.515,-0.00595,-0.04272,-0.03372,-0.02167,-0.03525,-0.05051,-0.01907,-0.00122,-0.02319,-0.01572,0.01709,-0.00397,-0.03082,-0.01785,0.00488,-0.08163
9.5155,-0.00626,-0.04181,-0.03326,-0.01694,-0.03403,-0.05173,-0.02029,0.0,-0.01968,-0.01526,0.00031,0.00549,-0.03082,-0.01724,0.00336,-0.07736
9.516,-0.0058,-0.0412,-0.03448,-0.01648,-0.03189,-0.05173,-0.02304,0.00183,-0.01816,-0.01465,-0.01358,0.01175,-0.03174,-0.0174,0.00488,-0.06882
9.5165,-0.00534,-0.04181,-0.03601,-0.01602,-0.03357,-0.05173,-0.02472,0.00137,-0.0177,-0.01144,-0.02853,0.01511,-0.03281,-0.01923,0.0058,-0.06195
9.517,-0.00458,-0.04211,-0.03586,-0.01419,-0.03448,-0.05005,-0.02274,-0.00031,-0.0177,-0.00717,-0.04425,0.0145,-0.03311,-0.02136,0.01221,-0.056
9.5175,-0.00381,-0.04303,-0.03891,-0.01236,-0.03296,-0.04837,-0.0206,-0.00244,-0.01633,-0.00473,-0.05478,0.01419,-0.03357,-0.02228,0.01343,-0.0473
9.518,-0.00336,-0.04318,-0.03891,-0.01083,-0.0322,-0.04776,-0.02075,-0.00305,-0.01404,-0.00565,-0.05615,0.01572,-0.03433,-0.0209,0.01419,-0.03708
9.5185,-0.00275,-0.04227,-0.03693,-0.00946,-0.0322,-0.04807,-0.0206,-0.00153,-0.00992,-0.00763,-0.04562,0.01709,-0.03342,-0.01755,0.01343,-0.03036
9.519,-0.00244,-0.04181,-0.03494,-0.00992,-0.03265,-0.04929,-0.01678,0.00046,-0.00717,-0.00931,-0.02487,0.01511,-0.03235,-0.01419,0.01251,-0.02792
9.5195,-0.00183,-0.0415,-0.03265,-0.01282,-0.03281,-0.04852,-0.0116,-0.00015,-0.00641,-0.01068,-0.00381,0.01236,-0.03159,-0.01221,0.01236,-0.03006
9.52,-0.00198,-0.04089,-0.03098,-0.01755,-0.03128,-0.04791,-0.009,-0.00015,-0.00687,-0.01175,0.00763,0.01083,-0.03174,-0.0116,0.00854,-0.03342
9.5205,-0.00275,-0.04135,-0.03143,-0.01938,-0.03082,-0.04654,-0.00977,-0.00168,-0.00671,-0.01465,0.01099,0.00931,-0.03235,-0.01221,0.00198,-0.03571
9.521,-0.00381,-0.0412,-0.03311,-0.0177,-0.03204,-0.04669,-0.01221,-0.00168,-0.00549,-0.01724,0.01099,0.00549,-0.03281,-0.0119,-0.00275,-0.03616
9.5215,-0.00336,-0.04135,-0.03418,-0.01556,-0.03265,-0.04669,-0.01465,-0.00122,-0.0061,-0.0177,0.01007,0.0029,-0.0322,-0.0116,-0.00565,-0.03632
9.522,-0.0029,-0.04135,-0.03281,-0.01526,-0.03235,-0.04776,-0.01617,-0.00061,-0.00809,-0.01755,0.00961,0.00275,-0.03235,-0.01221,-0.00336,-0.03769
9.5225,-0.0029,-0.04135,-0.03296,-0.01663,-0.03006,-0.04868,-0.01587,-0.00061,-0.00839,-0.01801,0.01022,0.00275,-0.03296,-0.01404,-0.00183,-0.03983
9.523,-0.00229,-0.04181,-0.03265,-0.01678,-0.02884,-0.0502,-0.0148,-0.00153,-0.00504,-0.01846,0.01175,0.0,-0.03372,-0.0145,0.00244,-0.0412
9.5235,-0.00198,-0.04227,-0.03098,-0.01358,-0.02945,-0.05066,-0.01312,-0.00229,-0.00168,-0.01831,0.01419,-0.00351,-0.03357,-0.01511,0.00458,-0.04272
9.524,-0.00076,-0.0415,-0.03113,-0.00778,-0.03174,-0.05112,-0.0116,-0.00229,-0.00214,-0.01831,0.01678,-0.0032,-0.03296,-0.01724,0.00641,-0.04654
9.5245,-0.00153,-0.0415,-0.03036,-0.00198,-0.03342,-0.0499,-0.01114,-0.00244,-0.00549,-0.01892,0.01953,0.00229,-0.03296,-0.01923,0.00671,-0.04669
9.525,-0.00198,-0.0415,-0.02899,0.00137,-0.03326,-0.04807,-0.01312,-0.00229,-0.00809,-0.02136,0.02136,0.00885,-0.03342,-0.01907,0.00824,-0.04288
9.5255,-0.00275,-0.04181,-0.02914,0.00244,-0.03326,-0.04745,-0.01434,-0.00122,-0.00946,-0.0238,0.02121,0.01419,-0.03418,-0.01846,0.00641,-0.0386
9.526,-0.00305,-0.04211,-0.03098,0.00107,-0.03311,-0.04623,-0.01511,-0.00122,-0.01068,-0.02365,0.0206,0.0177,-0.0354,-0.01953,0.01236,-0.03708
9.5265,-0.0032,-0.04181,-0.03403,-0.00107,-0.03265,-0.04532,-0.01266,-0.00137,-0.01175,-0.01907,0.01724,0.02075,-0.03555,-0.0209,0.01328,-0.03738
9.527,-0.00214,-0.04105,-0.03357,-0.0029,-0.03174,-0.04517,-0.009,-0.00259,-0.01266,-0.01526,0.01205,0.0238,-0.03464,-0.02167,0.01404,-0.03906
9.5275,-0.00198,-0.03998,-0.0322,-0.00641,-0.03159,-0.04562,-0.00824,-0.00397,-0.01175,-0.01526,0.00809,0.02518,-0.03464,-0.02243,0.00641,-0.04257
9.528,-0.00336,-0.03967,-0.03113,-0.01404,-0.03082,-0.04684,-0.00992,-0.00427,-0.01007,-0.0174,0.00641,0.02213,-0.03555,-0.02121,0.00427,-0.04761
9.5285,-0.00534,-0.04089,-0.0322,-0.02594,-0.03128,-0.04684,-0.01175,-0.00259,-0.00854,-0.01968,0.0032,0.01556,-0.03708,-0.01953,0.00015,-0.05112
9.529,-0.0058,-0.04181,-0.0325,-0.0351,-0.03113,-0.04623,-0.01328,-0.00107,-0.00732,-0.01999,0.00122,0.00763,-0.03754,-0.01938,-0.00015,-0.0502
9.5295,-0.00488,-0.0412,-0.03174,-0.03784,-0.03159,-0.04593,-0.01511,0.0,-0.00656,-0.01968,0.00137,-0.00122,-0.03693,-0.01923,0.00153,-0.04471
9.53,-0.00458,-0.03937,-0.03128,-0.03342,-0.03128,-0.04517,-0.01587,0.00031,-0.00504,-0.0206,0.00046,-0.009,-0.0351,-0.01892,0.00061,-0.03815
9.5305,-0.00626,-0.0386,-0.03204,-0.02762,-0.03128,-0.04562,-0.01495,0.00015,-0.00534,-0.01923,-0.00168,-0.01343,-0.03418,-0.01968,0.00229,-0.0325
9.531,-0.00656,-0.03799,-0.03281,-0.02487,-0.02945,-0.04486,-0.01434,0.0,-0.00732,-0.01877,-0.00122,-0.01694,-0.03525,-0.02045,-0.00015,-0.02991
9.5315,-0.00534,-0.0386,-0.03235,-0.02701,-0.02869,-0.04486,-0.01373,0.00015,-0.00916,-0.01907,-0.00168,-0.01999,-0.03662,-0.02136,0.00031,-0.03128
9.532,-0.00412,-0.03967,-0.03296,-0.02975,-0.02823,-0.04501,-0.01328,-0.00015,-0.01022,-0.01907,-0.00275,-0.02472,-0.03799,-0.02274,0.00229,-0.03326
9.5325,-0.00412,-0.03983,-0.03281,-0.02975,-0.02701,-0.04578,-0.01358,-0.00031,-0.00916,-0.01877,0.00015,-0.03128,-0.03708,-0.02365,0.00946,-0.03403
9.533,-0.00565,-0.03967,-0.03601,-0.02396,-0.02655,-0.04807,-0.01343,-0.00046,-0.009,-0.01678,0.0058,-0.03616,-0.03586,-0.02274,0.00778,-0.03235
9.5335,-0.00595,-0.03906,-0.03647,-0.01709,-0.02655,-0.04761,-0.01297,-0.00015,-0.01099,-0.01495,0.00748,-0.03372,-0.03372,-0.01999,-0.00626,-0.03448
9.534,-0.00519,-0.03952,-0.0351,-0.01083,-0.02777,-0.04593,-0.01312,-0.00031,-0.01358,-0.01541,0.0029,-0.02701,-0.0322,-0.01755,-0.0238,-0.04333
9.5345,-0.00397,-0.03906,-0.03387,-0.00885,-0.02838,-0.04395,-0.01373,-0.00214,-0.0148,-0.01709,-0.00305,-0.01801,-0.0322,-0.01694,-0.02823,-0.05478
9.535,-0.00366,-0.03693,-0.03281,-0.00931,-0.02792,-0.04425,-0.01282,-0.00305,-0.01556,-0.0174,-0.00656,-0.01099,-0.03387,-0.01801,-0.0145,-0.05722
9.5355,-0.00397,-0.03708,-0.03311,-0.01205,-0.02747,-0.04471,-0.01083,-0.00351,-0.01572,-0.01785,-0.009,-0.00763,-0.03418,-0.02167,0.00595,-0.04883
9.536,-0.00412,-0.03937,-0.03693,-0.0145,-0.02853,-0.04501,-0.00885,-0.0029,-0.01511,-0.01907,-0.01114,-0.00702,-0.03387,-0.0235,0.02548,-0.03845
9.5365,-0.00381,-0.04074,-0.03845,-0.01419,-0.03021,-0.04379,-0.00778,-0.00076,-0.01389,-0.01999,-0.0119,-0.00458,-0.03326,-0.02274,0.0412,-0.03677
9.537,-0.00458,-0.04028,-0.03891,-0.01282,-0.03159,-0.04318,-0.00748,0.00031,-0.01144,-0.01785,-0.00732,0.00061,-0.03342,-0.01968,0.04517,-0.04272
9.5375,-0.00519,-0.03845,-0.03662,-0.01175,-0.03204,-0.04456,-0.00763,-0.00092,-0.00839,-0.0148,-0.00366,0.00931,-0.03418,-0.01862,0.03036,-0.04791
9.538,-0.00473,-0.03799,-0.03647,-0.0116,-0.03189,-0.04715,-0.00885,-0.00336,-0.00595,-0.01373,-0.00565,0.0148,-0.03464,-0.01907,0.00198,-0.0499
9.5385,-0.00366,-0.03937,-0.03464,-0.01373,-0.03448,-0.0499,-0.00946,-0.00397,-0.00504,-0.01266,-0.01205,0.01541,-0.03494,-0.02014,-0.02335,-0.05066
9.539,-0.0029,-0.04105,-0.03387,-0.0174,-0.0354,-0.0499,-0.00885,-0.00214,-0.00641,-0.01297,-0.01526,0.01282,-0.03448,-0.02243,-0.03021,-0.05203
9.5395,-0.00259,-0.0415,-0.03372,-0.02075,-0.03616,-0.04822,-0.00809,0.00168,-0.00839,-0.01266,-0.01312,0.01038,-0.03464,-0.02167,-0.01602,-0.05188
9.54,-0.00259,-0.0412,-0.03418,-0.02045,-0.03616,-0.04623,-0.00809,0.00229,-0.01022,-0.0145,-0.01556,0.01221,-0.03387,-0.0206,0.00885,-0.05096
9.5405,-0.0032,-0.04044,-0.03372,-0.01678,-0.03708,-0.04562,-0.00778,0.00275,-0.01083,-0.01694,-0.0238,0.01801,-0.0322,-0.01785,0.02228,-0.0499
9.541,-0.00351,-0.04074,-0.03296,-0.00946,-0.03952,-0.04532,-0.00702,0.00244,-0.01129,-0.01785,-0.03281,0.02319,-0.03143,-0.01633,0.0235,-0.05051
9.5415,-0.00336,-0.04089,-0.03235,0.00076,-0.04074,-0.04654,-0.00641,0.0032,-0.01144,-0.01938,-0.03571,0.02136,-0.03204,-0.01678,0.01694,-0.04913
9.542,-0.00244,-0.0412,-0.0322,0.01175,-0.03922,-0.047,-0.00519,0.00229,-0.01251,-0.02106,-0.03845,0.01266,-0.03281,-0.01801,0.00992,-0.04471
9.5425,-0.00259,-0.04196,-0.03311,0.02197,-0.03632,-0.04684,-0.00412,0.00198,-0.01419,-0.02441,-0.04547,0.00488,-0.03296,-0.01785,0.00534,-0.03891
9.543,-0.00259,-0.04227,-0.03418,0.02762,-0.03342,-0.04608,-0.0032,0.00198,-0.01801,-0.02472,-0.05295,0.00778,-0.03296,-0.01694,0.00488,-0.03571
9.5435,-0.00336,-0.04181,-0.03387,0.0267,-0.03296,-0.04532,-0.00275,0.00259,-0.02106,-0.02335,-0.05768,0.01556,-0.03387,-0.01602,0.00702,-0.03525
9.544,-0.00412,-0.04166,-0.03265,0.01862,-0.03296,-0.04471,-0.00427,0.00275,-0.02167,-0.02182,-0.05753,0.01694,-0.03586,-0.01801,0.01129,-0.03647
9.5445,-0.00305,-0.04242,-0.03143,0.00443,-0.03326,-0.04471,-0.00656,0.00275,-0.02029,-0.02151,-0.05264,0.01053,-0.03799,-0.02014,0.01282,-0.0386
9.545,-0.00168,-0.04257,-0.03235,-0.0148,-0.03296,-0.04501,-0.00717,0.00168,-0.02151,-0.02335,-0.04929,0.00214,-0.03799,-0.02121,0.0148,-0.03937
9.5455,-0.00107,-0.0412,-0.03433,-0.03479,-0.03265,-0.04623,-0.00656,0.00031,-0.02502,-0.02487,-0.04593,-0.0058,-0.03601,-0.02106,0.01587,-0.04013
9.546,-0.00198,-0.04028,-0.03693,-0.04929,-0.03281,-0.04684,-0.0061,-0.00153,-0.02792,-0.02716,-0.03815,-0.01373,-0.03372,-0.01892,0.0148,-0.03922
9.5465,-0.00229,-0.04059,-0.0354,-0.06195,-0.03265,-0.04578,-0.00748,-0.00305,-0.02777,-0.02762,-0.03036,-0.02121,-0.03372,-0.0174,0.01144,-0.03738
9.547,-0.0029,-0.04074,-0.03326,-0.07828,-0.03265,-0.04608,-0.01053,-0.0029,-0.02457,-0.02716,-0.03052,-0.02029,-0.03418,-0.01831,0.01404,-0.03418
9.5475,-0.0032,-0.03998,-0.0325,-0.09323,-0.03326,-0.04669,-0.01251,-0.00351,-0.02319,-0.02487,-0.03799,-0.01144,-0.03525,-0.01999,0.01572,-0.03128
9.548,-0.00275,-0.03937,-0.03326,-0.09232,-0.03235,-0.04745,-0.01328,-0.0032,-0.02319,-0.02274,-0.04395,0.00015,-0.03387,-0.01999,0.0177,-0.02899
9.5485,-0.00214,-0.03952,-0.03403,-0.06317,-0.03128,-0.04715,-0.01328,-0.00168,-0.02228,-0.02289,-0.04639,0.00671,-0.03174,-0.01892,0.0177,-0.0293
9.549,-0.00275,-0.04074,-0.0351,-0.0058,-0.02914,-0.04623,-0.01312,0.0,-0.02121,-0.02563,-0.04639,0.00885,-0.02975,-0.01755,0.01678,-0.03204
9.5495,-0.00351,-0.04105,-0.0351,0.06058,-0.0293,-0.04608,-0.01328,0.00061,-0.01724,-0.02792,-0.04425,0.0061,-0.02884,-0.01633,0.01678,-0.03372
9.55,-0.00305,-0.04089,-0.03525,0.1001,-0.0296,-0.04761,-0.01328,0.00031,-0.01404,-0.02838,-0.04074,0.0,-0.02792,-0.0148,0.01663,-0.03616
9.5505,-0.00305,-0.04135,-0.03616,0.09018,-0.03174,-0.04745,-0.01297,0.0,-0.01282,-0.02853,-0.03754,-0.00473,-0.02853,-0.01419,0.01465,-0.0386
9.551,-0.00305,-0.04135,-0.03769,0.04288,-0.03189,-0.04578,-0.01404,-0.00031,-0.01404,-0.02747,-0.03922,-0.00183,-0.0293,-0.01266,0.01404,-0.04059
9.5515,-0.0029,-0.04028,-0.0386,-0.00046,-0.03098,-0.04333,-0.01465,-0.00031,-0.01587,-0.02518,-0.04333,0.00381,-0.03174,-0.0119,0.01266,-0.04013
9.552,-0.00214,-0.0386,-0.03876,-0.0119,-0.03006,-0.04242,-0.01495,-0.00198,-0.01724,-0.02289,-0.04715,0.00793,-0.03357,-0.01343,0.01175,-0.03738
9.5525,-0.00275,-0.03754,-0.03815,0.00046,-0.02991,-0.04272,-0.01572,-0.00351,-0.01617,-0.02106,-0.05005,0.009,-0.03387,-0.01419,0.01083,-0.03464
9.553,-0.00443,-0.03876,-0.03769,0.01129,-0.03067,-0.04272,-0.01831,-0.0029,-0.01373,-0.02106,-0.05341,0.00961,-0.0322,-0.01419,0.00946,-0.03479
9.5535,-0.00626,-0.04059,-0.03555,0.00854,-0.03021,-0.04288,-0.02014,-0.00061,-0.01236,-0.02289,-0.05875,0.0119,-0.0322,-0.01373,0.00839,-0.03693
9.554,-0.00702,-0.04181,-0.03357,-0.00153,-0.02975,-0.04395,-0.01892,0.00046,-0.01221,-0.02304,-0.06424,0.01221,-0.03296,-0.01358,0.00809,-0.0386
9.5545,-0.00702,-0.04227,-0.03464,-0.009,-0.02899,-0.04547,-0.01556,-0.00031,-0.01404,-0.02304,-0.0679,0.01419,-0.03342,-0.0148,0.00854,-0.03845
9.555,-0.0061,-0.04257,-0.03616,-0.01755,-0.02777,-0.04639,-0.01328,-0.00046,-0.01633,-0.02365,-0.06897,0.01953,-0.03296,-0.01617,0.00946,-0.03769
9.5555,-0.00626,-0.04318,-0.03601,-0.03128,-0.02655,-0.04578,-0.0148,0.00092,-0.01678,-0.02289,-0.07339,0.02716,-0.03281,-0.0177,0.01099,-0.03784
9.556,-0.00687,-0.04318,-0.03571,-0.04303,-0.0264,-0.04349,-0.01678,0.00229,-0.0174,-0.01938,-0.07767,0.02625,-0.03372,-0.01816,0.0116,-0.03769
9.5565,-0.00687,-0.04272,-0.03494,-0.04837,-0.02686,-0.04257,-0.01816,0.00198,-0.01938,-0.01495,-0.07553,0.00702,-0.03342,-0.01663,0.01114,-0.03937
9.557,-0.00641,-0.04166,-0.03479,-0.05096,-0.02716,-0.04242,-0.01755,0.00015,-0.02258,-0.01083,-0.0676,-0.02563,-0.03235,-0.0148,0.00916,-0.03983
9.5575,-0.00656,-0.03922,-0.03372,-0.05249,-0.0267,-0.04288,-0.01724,-0.00122,-0.02655,-0.00687,-0.05646,-0.04379,-0.03204,-0.0145,0.00626,-0.03937
9.558,-0.00595,-0.03937,-0.03494,-0.04639,-0.02579,-0.04333,-0.01541,-0.00351,-0.02869,-0.00534,-0.0441,-0.0293,-0.0322,-0.01541,0.0061,-0.03845
9.5585,-0.00427,-0.04074,-0.03616,-0.03128,-0.02594,-0.04425,-0.01251,-0.00702,-0.02914,-0.00519,-0.03967,0.00031,-0.03265,-0.01633,0.00793,-0.03952
9.559,-0.00427,-0.04227,-0.03662,-0.01541,-0.02686,-0.04547,-0.01099,-0.01099,-0.02899,-0.00427,-0.04272,0.01633,-0.03235,-0.01587,0.00702,-0.04013
9.5595,-0.00565,-0.04227,-0.03494,-0.00748,-0.02792,-0.04532,-0.0116,-0.01389,-0.02884,-0.00092,-0.04105,0.0148,-0.03174,-0.01556,0.00473,-0.04044
9.56,-0.00732,-0.04196,-0.03357,-0.00229,-0.02884,-0.04471,-0.01465,-0.01282,-0.02762,0.00626,-0.02792,0.01175,-0.03052,-0.01526,0.00168,-0.03998
9.5605,-0.00671,-0.04135,-0.03433,0.01785,-0.0296,-0.0444,-0.0177,-0.00824,-0.02655,0.01297,-0.01236,0.01312,-0.0296,-0.01678,0.00153,-0.03967
9.561,-0.00626,-0.03983,-0.03662,0.05768,-0.02914,-0.04379,-0.01892,-0.00381,-0.02625,0.01694,0.00015,0.01587,-0.0296,-0.0174,0.00595,-0.03876
9.5615,-0.00687,-0.03891,-0.03632,0.08575,-0.02777,-0.04425,-0.01953,-0.0032,-0.02502,0.01694,0.00534,0.01404,-0.03174,-0.0177,0.0116,-0.03647
9.562,-0.00824,-0.03876,-0.0351,0.05707,-0.02701,-0.04532,-0.0177,-0.00381,-0.02228,0.01389,0.00656,0.00931,-0.03464,-0.01816,0.01846,-0.0351
9.5625,-0.00854,-0.04044,-0.03387,-0.01724,-0.02808,-0.047,-0.01297,-0.00229,-0.01678,0.0087,0.00397,0.00488,-0.03632,-0.01801,0.02304,-0.03235
9.563,-0.00687,-0.04105,-0.03403,-0.06531,-0.03067,-0.04669,-0.00885,0.00137,-0.01099,0.00336,-0.00366,0.00259,-0.0354,-0.01678,0.02289,-0.03189
9.5635,-0.00534,-0.04135,-0.03296,-0.03357,-0.03204,-0.04654,-0.00504,0.0058,-0.00717,-0.00046,-0.01328,0.00305,-0.03296,-0.01801,0.02319,-0.03525
9.564,-0.00534,-0.04089,-0.03235,0.03738,-0.03235,-0.04623,-0.00168,0.00778,-0.00519,-0.00595,-0.02243,0.00443,-0.03281,-0.02167,0.02625,-0.04044
9.5645,-0.00595,-0.04242,-0.03265,0.06805,-0.03159,-0.04654,-0.00122,0.00687,-0.00488,-0.01343,-0.02884,0.00717,-0.03357,-0.02655,0.02701,-0.04333
9.565,-0.0061,-0.04364,-0.03296,0.03433,-0.0296,-0.04639,-0.00412,0.00397,-0.00397,-0.02258,-0.02975,0.00946,-0.03372,-0.02777,0.02045,-0.04501
9.5655,-0.00671,-0.04303,-0.03296,-0.0174,-0.02914,-0.04623,-0.00732,-0.00061,-0.00259,-0.03052,-0.02777,0.01251,-0.03326,-0.02686,0.00809,-0.04669
9.566,-0.00732,-0.0415,-0.03342,-0.04074,-0.02945,-0.04608,-0.00961,-0.00458,-0.00458,-0.03632,-0.02838,0.01434,-0.03418,-0.02594,-0.00702,-0.04684
9.5665,-0.00748,-0.04135,-0.03387,-0.03677,-0.03052,-0.04654,-0.01083,-0.00595,-0.01022,-0.04288,-0.0351,0.01266,-0.03525,-0.02762,-0.02213,-0.04837
9.567,-0.0061,-0.04181,-0.03372,-0.0322,-0.02945,-0.04669,-0.01175,-0.00626,-0.01556,-0.05188,-0.04898,0.00717,-0.03738,-0.03036,-0.03784,-0.0502
9.5675,-0.00534,-0.04089,-0.03281,-0.03845,-0.02716,-0.04639,-0.01328,-0.00839,-0.01617,-0.06058,-0.06653,-0.00061,-0.03769,-0.03098,-0.04807,-0.05096
9.568,-0.00519,-0.04044,-0.03235,-0.04974,-0.02548,-0.04547,-0.0119,-0.01465,-0.01251,-0.06088,-0.07736,-0.00717,-0.03662,-0.02899,-0.05234,-0.04974
9.5685,-0.00626,-0.04028,-0.03296,-0.05783,-0.02594,-0.04654,-0.01114,-0.01923,-0.00702,-0.05035,-0.07614,-0.00946,-0.03342,-0.02609,-0.04974,-0.04761
9.569,-0.00702,-0.0415,-0.03571,-0.06073,-0.02563,-0.04852,-0.01236,-0.01999,-0.00137,-0.03342,-0.06195,-0.00854,-0.03067,-0.02304,-0.03845,-0.04684
9.5695,-0.00671,-0.04196,-0.03525,-0.05905,-0.02731,-0.04837,-0.01404,-0.01587,0.00305,-0.01892,-0.03937,-0.00504,-0.02853,-0.02029,-0.00931,-0.04776
9.57,-0.00473,-0.04196,-0.03433,-0.0531,-0.02884,-0.04578,-0.01389,-0.00992,0.0032,-0.01007,-0.01175,-0.00122,-0.02808,-0.01709,0.02838,-0.04684
9.5705,-0.00336,-0.04288,-0.03265,-0.03983,-0.03052,-0.04318,-0.01373,-0.00656,-0.00137,-0.00565,0.01099,0.00107,-0.02838,-0.0145,0.05219,-0.04501
9.571,-0.00336,-0.04364,-0.03281,-0.01236,-0.03265,-0.04196,-0.01419,-0.00427,-0.00732,-0.00259,0.0206,0.00275,-0.02899,-0.01541,0.05386,-0.04272
9.5715,-0.0032,-0.04303,-0.03296,0.02609,-0.03357,-0.04211,-0.01556,-0.00137,-0.01282,0.00076,0.01297,0.00504,-0.02975,-0.01816,0.04791,-0.04318
9.572,-0.00366,-0.04288,-0.03525,0.05035,-0.03265,-0.04227,-0.01648,0.0029,-0.01831,0.00153,-0.00931,0.0087,-0.03052,-0.0206,0.04669,-0.0444
9.5725,-0.00488,-0.04333,-0.03647,0.03479,-0.02884,-0.04242,-0.01663,0.00748,-0.02167,-0.00259,-0.02701,0.01373,-0.03052,-0.02121,0.05234,-0.04486
9.573,-0.00504,-0.04364,-0.03479,-0.00793,-0.02594,-0.04318,-0.01526,0.00732,-0.02182,-0.00732,-0.01877,0.01877,-0.0296,-0.01862,0.05371,-0.04288
9.5735,-0.00504,-0.04318,-0.03448,-0.03876,-0.0238,-0.04471,-0.01404,0.00275,-0.0174,-0.0119,0.00671,0.02151,-0.02945,-0.01602,0.05051,-0.03922
9.574,-0.00443,-0.04211,-0.03372,-0.04044,-0.02472,-0.04562,-0.01389,-0.00244,-0.0119,-0.01678,0.0174,0.01907,-0.03143,-0.0145,0.04593,-0.03601
9.5745,-0.00381,-0.04257,-0.03479,-0.03174,-0.02731,-0.04623,-0.01312,-0.00534,-0.00809,-0.02365,-0.00626,0.01175,-0.03265,-0.01465,0.03845,-0.03647
9.575,-0.00443,-0.04272,-0.03708,-0.03159,-0.0296,-0.04517,-0.01099,-0.00549,-0.00732,-0.03098,-0.04913,0.00687,-0.03311,-0.01495,0.02823,-0.04181
9.5755,-0.00534,-0.04333,-0.03738,-0.02869,-0.03082,-0.04471,-0.00946,-0.00519,-0.00824,-0.03342,-0.07813,0.00671,-0.03204,-0.0145,0.01999,-0.04791
9.576,-0.00549,-0.04501,-0.03494,-0.0058,-0.03067,-0.04471,-0.01068,-0.0058,-0.00854,-0.02991,-0.0827,0.00763,-0.03098,-0.01328,0.0174,-0.0499
9.5765,-0.00534,-0.04578,-0.03342,0.02686,-0.03021,-0.0441,-0.01373,-0.00717,-0.00793,-0.02365,-0.07584,0.0058,-0.02975,-0.01144,0.01511,-0.04761
9.577,-0.00519,-0.04425,-0.03372,0.0386,-0.0293,-0.04257,-0.01556,-0.00702,-0.00916,-0.01923,-0.07263,0.00198,-0.03006,-0.01221,0.01007,-0.04715
9.5775,-0.00549,-0.04242,-0.03387,0.0119,-0.02945,-0.04089,-0.01602,-0.00549,-0.0119,-0.01892,-0.06683,-0.00015,-0.0293,-0.01587,0.00168,-0.04868
9.578,-0.0058,-0.04181,-0.03464,-0.02884,-0.02686,-0.03952,-0.01617,-0.0058,-0.01709,-0.02182,-0.0502,0.00122,-0.03067,-0.0174,-0.00137,-0.04791
9.5785,-0.00504,-0.04227,-0.03448,-0.04288,-0.02655,-0.04074,-0.01633,-0.00763,-0.02289,-0.02777,-0.03128,0.0032,-0.03235,-0.01831,-0.00031,-0.04608
9.579,-0.00504,-0.04242,-0.03571,-0.01526,-0.02777,-0.0444,-0.01343,-0.00885,-0.02686,-0.03311,-0.02228,0.00412,-0.0325,-0.0177,0.00504,-0.04837
9.5795,-0.00488,-0.04166,-0.03693,0.02914,-0.02991,-0.05005,-0.00946,-0.00793,-0.02716,-0.03754,-0.02365,0.00336,-0.03006,-0.0177,0.00717,-0.05737
9.58,-0.00427,-0.04044,-0.03632,0.04807,-0.03174,-0.05478,-0.00763,-0.0058,-0.02472,-0.03937,-0.02487,0.00214,-0.02914,-0.01801,0.00671,-0.06439
9.5805,-0.00412,-0.03952,-0.03372,0.02625,-0.03342,-0.05615,-0.0087,-0.00458,-0.02121,-0.03815,-0.02045,0.00107,-0.03159,-0.01999,0.00397,-0.06119
9.581,-0.00534,-0.04044,-0.03204,-0.0177,-0.03372,-0.05722,-0.01007,-0.00351,-0.01663,-0.03403,-0.01419,0.00183,-0.03418,-0.02182,0.00275,-0.04944
9.5815,-0.00534,-0.04166,-0.03174,-0.05646,-0.03326,-0.05737,-0.01114,-0.00351,-0.01251,-0.02777,-0.00504,0.00504,-0.03418,-0.02106,0.0029,-0.03845
9.582,-0.00488,-0.04257,-0.03265,-0.08118,-0.03265,-0.05585,-0.0119,-0.00351,-0.01083,-0.02045,0.00336,0.00916,-0.03311,-0.01877,0.00229,-0.03525
9.5825,-0.00534,-0.04318,-0.03326,-0.09689,-0.03387,-0.05295,-0.01236,-0.00519,-0.01144,-0.01495,0.01038,0.00961,-0.03296,-0.01617,0.00275,-0.03632
9.583,-0.0058,-0.04211,-0.03342,-0.09201,-0.03525,-0.04944,-0.01404,-0.00778,-0.01328,-0.01221,0.01175,0.00717,-0.03326,-0.01526,0.0032,-0.04013
9.5835,-0.00748,-0.04211,-0.03235,-0.04211,-0.03601,-0.04776,-0.01556,-0.009,-0.01526,-0.01266,0.01114,0.00259,-0.03174,-0.0148,0.0058,-0.04486
9.584,-0.00763,-0.04181,-0.03342,0.04501,-0.03586,-0.04715,-0.01633,-0.00931,-0.01785,-0.01678,0.00702,-0.00076,-0.03052,-0.01572,0.00671,-0.04837
9.5845,-0.00702,-0.04089,-0.03342,0.11917,-0.03387,-0.04196,-0.01465,-0.01053,-0.02213,-0.01968,0.00107,-0.00488,-0.03098,-0.01801,0.00671,-0.04807
9.585,-0.0058,-0.03967,-0.03326,0.13443,-0.03235,-0.0322,-0.01404,-0.01266,-0.02701,-0.01938,-0.00336,-0.009,-0.03296,-0.01938,0.00626,-0.04517
9.5855,-0.00534,-0.03922,-0.0325,0.09918,-0.02975,-0.02335,-0.01526,-0.01556,-0.03189,-0.0177,-0.00916,-0.0119,-0.03387,-0.01984,0.00565,-0.04272
9.586,-0.00458,-0.04013,-0.03204,0.04913,-0.02853,-0.02228,-0.01755,-0.01801,-0.03677,-0.01648,-0.01648,-0.01389,-0.03342,-0.01907,0.00488,-0.04395
9.5865,-0.00351,-0.04166,-0.03342,0.00732,-0.02716,-0.03082,-0.01785,-0.01907,-0.03998,-0.01755,-0.02548,-0.01465,-0.0322,-0.01892,0.00275,-0.04578
9.587,-0.00305,-0.04059,-0.03494,-0.02792,-0.02762,-0.04349,-0.01495,-0.01678,-0.03891,-0.01907,-0.03387,-0.01266,-0.03296,-0.01984,0.00153,-0.04501
9.5875,-0.00275,-0.03967,-0.03387,-0.05142,-0.02747,-0.05341,-0.01236,-0.01434,-0.03372,-0.01953,-0.04242,-0.00839,-0.03418,-0.02197,0.00107,-0.04333
9.588,-0.00351,-0.03952,-0.0322,-0.05493,-0.02655,-0.05722,-0.01144,-0.01297,-0.02838,-0.02029,-0.04196,-0.00366,-0.03616,-0.02411,0.00183,-0.04257
9.5885,-0.00381,-0.04044,-0.03113,-0.04395,-0.02716,-0.05661,-0.01175,-0.01068,-0.02457,-0.02167,-0.03326,0.0,-0.03632,-0.02426,0.00381,-0.04272
9.589,-0.00305,-0.04074,-0.03204,-0.03418,-0.02625,-0.05524,-0.01358,-0.00519,-0.02304,-0.02258,-0.01282,0.00061,-0.03601,-0.02396,0.00641,-0.04211
9.5895,-0.00214,-0.03967,-0.03387,-0.0264,-0.02563,-0.0528,-0.01251,0.00443,-0.02167,-0.02289,0.00397,0.00046,-0.03448,-0.02228,0.00824,-0.04028
9.59,-0.00229,-0.03754,-0.03387,-0.01495,-0.02625,-0.04868,-0.01221,0.01236,-0.01877,-0.02106,0.01373,-0.00061,-0.03296,-0.0206,0.009,-0.03815
9.5905,-0.00229,-0.03815,-0.03357,-0.009,-0.02716,-0.04532,-0.01236,0.01221,-0.01404,-0.01923,0.01785,-0.00076,-0.03204,-0.01923,0.00977,-0.03799
9.591,-0.0032,-0.04044,-0.03479,-0.02411,-0.02838,-0.04364,-0.01541,0.00473,-0.01007,-0.01801,0.0177,-0.00092,-0.03143,-0.01648,0.00946,-0.03952
9.5915,-0.00351,-0.04272,-0.03616,-0.05035,-0.02716,-0.04471,-0.0209,-0.00061,-0.00824,-0.01694,0.0119,-0.00168,-0.03052,-0.01434,0.00809,-0.04135
9.592,-0.00259,-0.04318,-0.03632,-0.03677,-0.02716,-0.04654,-0.02716,0.00153,-0.00961,-0.01678,-0.00046,-0.00336,-0.02899,-0.01266,0.00702,-0.04135
9.5925,-0.00214,-0.04395,-0.03586,0.03738,-0.02823,-0.04822,-0.03143,0.0061,-0.01083,-0.01724,-0.01663,-0.00519,-0.02945,-0.01465,0.00458,-0.04135
9.593,-0.00214,-0.04456,-0.03525,0.11856,-0.02975,-0.04761,-0.03021,0.00916,-0.00961,-0.01755,-0.02731,-0.0058,-0.02945,-0.01678,0.00412,-0.04059
9.5935,-0.00122,-0.0444,-0.03555,0.1297,-0.03174,-0.0473,-0.02258,0.01022,-0.00656,-0.01572,-0.03326,-0.00458,-0.03006,-0.01801,0.00519,-0.0415
9.594,-0.00107,-0.04288,-0.0354,0.06638,-0.03311,-0.04715,-0.0116,0.01083,-0.00488,-0.01404,-0.03937,-0.00183,-0.02975,-0.01816,0.00443,-0.04044
9.5945,-0.00092,-0.04105,-0.03555,-0.00809,-0.03433,-0.04761,-0.00381,0.00824,-0.00443,-0.01251,-0.05112,0.00168,-0.02975,-0.01846,0.00305,-0.03952
9.595,-0.00153,-0.03922,-0.03479,-0.04089,-0.03448,-0.04807,-0.00122,0.00183,-0.0058,-0.01328,-0.06119,0.0061,-0.02975,-0.02029,0.00137,-0.03906
9.5955,-0.00168,-0.03876,-0.03601,-0.03952,-0.03479,-0.04974,-0.00015,-0.00275,-0.01022,-0.01511,-0.06226,0.00854,-0.03113,-0.02106,0.00153,-0.04074
9.596,-0.00214,-0.03952,-0.03662,-0.0351,-0.03326,-0.05173,0.00198,-0.00275,-0.01511,-0.0145,-0.05585,0.00839,-0.03159,-0.02151,0.00275,-0.04242
9.5965,-0.00244,-0.04028,-0.03769,-0.0325,-0.03311,-0.05432,-0.00015,-0.00076,-0.01572,-0.01266,-0.04822,0.00763,-0.03189,-0.0206,0.00443,-0.04211
9.597,-0.0029,-0.04028,-0.03708,-0.0209,-0.03326,-0.05478,-0.01053,0.00031,-0.0119,-0.01114,-0.04379,0.00549,-0.03143,-0.01968,0.00488,-0.03998
9.5975,-0.00397,-0.03967,-0.03616,-0.00244,-0.0322,-0.0528,-0.02045,-0.00031,-0.00809,-0.0119,-0.04257,-0.00061,-0.03098,-0.01724,0.00397,-0.04044
9.598,-0.00458,-0.03876,-0.03479,0.00107,-0.02975,-0.04944,-0.02228,-0.00183,-0.0087,-0.01328,-0.04089,-0.01068,-0.02991,-0.01648,0.00336,-0.04181
9.5985,-0.00351,-0.03967,-0.03403,-0.01846,-0.02853,-0.04349,-0.01907,-0.00198,-0.01099,-0.01526,-0.03677,-0.01953,-0.02899,-0.01678,0.00565,-0.04227
9.599,-0.00259,-0.04044,-0.03387,-0.04227,-0.02869,-0.03525,-0.01862,-0.00351,-0.01221,-0.01572,-0.03464,-0.02594,-0.02899,-0.01785,0.00687,-0.04074
9.5995,-0.00259,-0.03998,-0.03403,-0.04776,-0.02823,-0.02518,-0.02228,-0.00351,-0.0119,-0.01572,-0.0351,-0.02808,-0.0293,-0.01801,0.00656,-0.0383
9.6,-0.00305,-0.03876,-0.03464,-0.03601,-0.02686,-0.01923,-0.02213,-0.00275,-0.01083,-0.01602,-0.03189,-0.02457,-0.02899,-0.0177,0.00565,-0.03738
9.6005,-0.00336,-0.03845,-0.03372,-0.02304,-0.02548,-0.01709,-0.01816,-0.00061,-0.00793,-0.01465,-0.02243,-0.01266,-0.03036,-0.01831,0.00656,-0.03738
9.601,-0.00366,-0.04013,-0.03189,-0.0177,-0.02792,-0.01877,-0.01572,-0.00031,-0.00534,-0.01297,-0.01236,0.00305,-0.03067,-0.02045,0.00824,-0.03845
9.6015,-0.00351,-0.04013,-0.03326,-0.01862,-0.03082,-0.02304,-0.0148,-0.00183,-0.00488,-0.01144,-0.00656,0.01373,-0.03098,-0.01984,0.00916,-0.03967
9.602,-0.00381,-0.03922,-0.03418,-0.02335,-0.03174,-0.02899,-0.01282,-0.00381,-0.0058,-0.01068,-0.0032,0.01419,-0.03098,-0.01831,0.00916,-0.04135
9.6025,-0.00351,-0.03738,-0.03433,-0.02792,-0.03052,-0.03448,-0.01007,-0.00519,-0.00793,-0.0116,-0.0029,0.00839,-0.03174,-0.01648,0.00763,-0.04135
9.603,-0.0029,-0.03693,-0.03372,-0.0267,-0.02777,-0.04166,-0.00885,-0.00473,-0.00793,-0.01129,-0.00031,0.00687,-0.03311,-0.01724,0.00778,-0.03983
9.6035,-0.00275,-0.03876,-0.03265,-0.02121,-0.02655,-0.05264,-0.01007,-0.00458,-0.00702,-0.0116,0.00122,0.01389,-0.03311,-0.01816,0.00824,-0.03906
9.604,-0.00259,-0.04013,-0.0322,-0.01587,-0.02747,-0.0679,-0.00977,-0.00504,-0.00595,-0.01221,0.00305,0.02045,-0.03296,-0.01831,0.01022,-0.03799
9.6045,-0.0032,-0.0412,-0.0325,-0.01511,-0.02975,-0.08255,-0.00702,-0.00366,-0.00336,-0.01358,0.00473,0.02029,-0.03235,-0.01938,0.01022,-0.03616
9.605,-0.00412,-0.0412,-0.03235,-0.01877,-0.03204,-0.09125,-0.00473,-0.0029,0.00153,-0.01328,0.01007,0.01648,-0.03098,-0.02182,0.01022,-0.03601
9.6055,-0.00519,-0.04074,-0.03296,-0.02579,-0.03342,-0.09521,-0.00473,-0.00153,0.00595,-0.01175,0.01251,0.01373,-0.03052,-0.02335,0.00946,-0.03952
9.606,-0.00595,-0.04074,-0.03204,-0.03326,-0.03159,-0.09277,-0.00641,-0.00122,0.0058,-0.00748,0.01526,0.00977,-0.03128,-0.0206,0.00748,-0.04395
9.6065,-0.00504,-0.03952,-0.03296,-0.0325,-0.02655,-0.08575,-0.009,-0.00122,0.00015,0.00198,0.01648,0.00305,-0.03204,-0.0177,0.00565,-0.04318
9.607,-0.00565,-0.03952,-0.03296,-0.01144,-0.02213,-0.07492,-0.01175,-0.00168,-0.00732,0.01556,0.01465,-0.00412,-0.0325,-0.01785,0.00732,-0.03891
9.6075,-0.00488,-0.04013,-0.03342,0.03189,-0.02243,-0.06577,-0.01373,-0.00259,-0.01266,0.02258,0.01083,-0.00946,-0.03311,-0.02151,0.01053,-0.03601
9.608,-0.00412,-0.04105,-0.03464,0.06836,-0.02899,-0.06119,-0.01724,-0.00534,-0.01648,0.01694,0.00427,-0.01953,-0.03448,-0.02487,0.0119,-0.03876
9.6085,-0.00443,-0.04166,-0.03479,0.06104,-0.03845,-0.05981,-0.0209,-0.00763,-0.02075,0.00076,-0.00214,-0.04349,-0.03433,-0.02487,0.01114,-0.05478
9.609,-0.00519,-0.04242,-0.03448,0.01755,-0.04608,-0.05859,-0.02258,-0.00702,-0.02533,-0.01312,-0.0061,-0.08392,-0.03464,-0.02197,0.0087,-0.09125
9.6095,-0.00595,-0.04074,-0.0325,-0.0177,-0.05035,-0.05386,-0.02106,-0.00458,-0.02609,-0.01968,-0.00565,-0.13092,-0.03494,-0.01816,0.00763,-0.13443
9.61,-0.00412,-0.03784,-0.03174,-0.02274,-0.05035,-0.04654,-0.01495,-0.00336,-0.02487,-0.02167,0.00168,-0.16251,-0.0354,-0.01816,0.00839,-0.14633
9.6105,-0.00229,-0.03647,-0.03128,-0.02167,-0.0441,-0.04013,-0.0061,-0.00412,-0.02762,-0.02197,0.01266,-0.14694,-0.03616,-0.02228,0.00992,-0.10483
9.611,-0.00244,-0.03708,-0.03067,-0.03738,-0.03479,-0.03876,0.00504,-0.00519,-0.03387,-0.02121,0.01892,-0.06058,-0.0351,-0.02457,0.01114,-0.03433
9.6115,-0.00366,-0.03845,-0.03098,-0.06042,-0.02838,-0.04364,0.01587,-0.00656,-0.03922,-0.02075,0.01724,0.06653,-0.03387,-0.02502,0.01144,0.01862
9.612,-0.00504,-0.03876,-0.03021,-0.06363,-0.02777,-0.05295,0.02106,-0.00687,-0.04211,-0.02289,0.00824,0.14969,-0.03372,-0.02258,0.00916,0.03494
9.6125,-0.00519,-0.03891,-0.02945,-0.03784,-0.0296,-0.05905,0.01511,-0.00809,-0.04044,-0.02731,-0.00702,0.13718,-0.03357,-0.0206,0.00626,0.02869
9.613,-0.00549,-0.03769,-0.03113,-0.00336,-0.0322,-0.05966,-0.00443,-0.00793,-0.03571,-0.02838,-0.0235,0.07202,-0.03265,-0.02029,0.00412,0.01877
9.6135,-0.00595,-0.03738,-0.03189,0.00534,-0.03387,-0.05798,-0.03677,-0.00702,-0.02853,-0.02853,-0.0322,0.02869,-0.03082,-0.02045,0.00473,0.01236
9.614,-0.00595,-0.03708,-0.03174,-0.02655,-0.03479,-0.05753,-0.07965,-0.00534,-0.02121,-0.03036,-0.03342,0.02213,-0.02899,-0.01801,0.00671,0.00641
9.6145,-0.0061,-0.0386,-0.0322,-0.07034,-0.03784,-0.056,-0.12283,-0.00366,-0.01389,-0.03708,-0.04074,0.02838,-0.02869,-0.01541,0.00824,-0.0058
9.615,-0.00641,-0.03998,-0.03128,-0.08408,-0.04211,-0.05051,-0.15106,-0.00183,-0.00641,-0.04593,-0.06271,0.03479,-0.03021,-0.01434,0.00702,-0.02213
9.6155,-0.00687,-0.04089,-0.03265,-0.06042,-0.04486,-0.04242,-0.14801,-0.00015,-0.00259,-0.05295,-0.08362,0.04044,-0.0325,-0.01526,0.00595,-0.03418
9.616,-0.00687,-0.0415,-0.03387,-0.02579,-0.04105,-0.03937,-0.11169,0.00153,-0.00214,-0.05508,-0.08148,0.03265,-0.0325,-0.01648,0.00671,-0.03815
9.6165,-0.00748,-0.04242,-0.03342,-0.00336,-0.03143,-0.04089,-0.05737,0.00183,-0.00473,-0.05188,-0.05722,0.00214,-0.03067,-0.01709,0.00671,-0.03784
9.617,-0.00763,-0.04318,-0.03204,0.00381,-0.02121,-0.03738,-0.00732,0.00137,-0.00885,-0.04578,-0.0322,-0.03357,-0.0293,-0.01846,0.0061,-0.03845
9.6175,-0.00809,-0.04364,-0.03311,0.00946,-0.01709,-0.0206,0.0238,0.00031,-0.01144,-0.04105,-0.02213,-0.06027,-0.02975,-0.02045,0.00427,-0.04135
9.618,-0.00641,-0.04257,-0.03479,0.02365,-0.02258,0.00107,0.04074,-0.00046,-0.01083,-0.03769,-0.0264,-0.07904,-0.03143,-0.0206,0.00336,-0.0444
9.6185,-0.00549,-0.04196,-0.03555,0.04196,-0.03021,0.00702,0.05234,0.0,-0.00793,-0.03387,-0.02975,-0.09277,-0.03143,-0.01862,0.0058,-0.04379
9.619,-0.00488,-0.04181,-0.03403,0.05325,-0.03494,-0.01205,0.06302,0.00015,-0.00549,-0.03021,-0.02701,-0.09674,-0.03067,-0.01526,0.00931,-0.03967
9.6195,-0.00458,-0.04196,-0.03387,0.05096,-0.03876,-0.04044,0.06516,-0.00137,-0.0058,-0.02853,-0.02853,-0.08759,-0.03006,-0.01419,0.01114,-0.03754
9.62,-0.00458,-0.04044,-0.03433,0.03937,-0.04105,-0.05615,0.05081,-0.0061,-0.00565,-0.02914,-0.03265,-0.06348,-0.03021,-0.01541,0.01129,-0.0354
9.6205,-0.00443,-0.03952,-0.03571,0.01923,-0.04181,-0.05325,0.02502,-0.01053,-0.00381,-0.02991,-0.03586,-0.02563,-0.03098,-0.0177,0.00992,-0.03418
9.621,-0.00458,-0.04028,-0.03601,-0.0061,-0.04028,-0.04379,0.00305,-0.01312,-0.0029,-0.02792,-0.04059,0.01541,-0.03021,-0.01938,0.01068,-0.03296
9.6215,-0.00397,-0.04196,-0.03433,-0.0235,-0.03632,-0.03922,-0.00458,-0.01389,-0.00626,-0.02502,-0.04364,0.0412,-0.02945,-0.01953,0.0119,-0.03326
9.622,-0.00351,-0.04349,-0.03296,-0.02533,-0.0351,-0.04196,0.00031,-0.01236,-0.01205,-0.02029,-0.0412,0.04822,-0.03006,-0.01816,0.01328,-0.03693
9.6225,-0.00381,-0.04349,-0.03296,-0.02655,-0.03677,-0.04517,0.01068,-0.01038,-0.01495,-0.01602,-0.03342,0.05005,-0.03342,-0.01709,0.01297,-0.0441
9.623,-0.00351,-0.04349,-0.03342,-0.03693,-0.03571,-0.04562,0.02228,-0.00748,-0.01297,-0.01236,-0.02884,0.06744,-0.03448,-0.01831,0.0116,-0.04868
9.6235,-0.00275,-0.04242,-0.03418,-0.0499,-0.03601,-0.04639,0.03052,-0.00427,-0.00885,-0.00977,-0.03143,0.10498,-0.03311,-0.01923,0.00931,-0.04822
9.624,-0.00244,-0.04028,-0.03372,-0.05524,-0.03555,-0.04807,0.02808,-0.0032,-0.0061,-0.00916,-0.04028,0.13962,-0.03326,-0.01984,0.00778,-0.0444
9.6245,-0.00336,-0.03937,-0.03342,-0.05676,-0.03571,-0.05142,0.01617,-0.00565,-0.0058,-0.0087,-0.05249,0.14282,-0.03464,-0.02121,0.00778,-0.04272
9.625,-0.00443,-0.03967,-0.03464,-0.05768,-0.03769,-0.05386,0.00061,-0.00763,-0.00565,-0.00809,-0.05615,0.09766,-0.03586,-0.02197,0.00809,-0.04257
9.6255,-0.00397,-0.04196,-0.03555,-0.05417,-0.04059,-0.05066,-0.01083,-0.00717,-0.00687,-0.00793,-0.04745,0.01663,-0.03616,-0.02136,0.009,-0.0441
9.626,-0.00351,-0.04303,-0.03601,-0.03708,-0.04456,-0.03845,-0.01556,-0.0061,-0.00946,-0.00931,-0.03189,-0.06042,-0.03571,-0.02045,0.009,-0.04532
9.6265,-0.00366,-0.04135,-0.0351,-0.0032,-0.04929,-0.02548,-0.01328,-0.00488,-0.01404,-0.01068,-0.01968,-0.09033,-0.03586,-0.01877,0.00916,-0.04532
9.627,-0.00412,-0.03952,-0.03479,0.03204,-0.05386,-0.01877,-0.0061,-0.00504,-0.01785,-0.0116,-0.00732,-0.06943,-0.03586,-0.0174,0.00854,-0.04364
9.6275,-0.00504,-0.04028,-0.0354,0.04608,-0.05676,-0.01816,-0.00015,-0.00534,-0.01999,-0.01099,0.00427,-0.03418,-0.0351,-0.01724,0.00809,-0.04227
9.628,-0.00412,-0.04211,-0.03571,0.03632,-0.05493,-0.01755,0.00031,-0.00595,-0.02014,-0.0116,0.01831,-0.0206,-0.03418,-0.0177,0.00778,-0.04303
9.6285,-0.00244,-0.04257,-0.03464,0.02136,-0.04913,-0.01755,-0.00549,-0.00656,-0.02014,-0.01236,0.02365,-0.02609,-0.03525,-0.01816,0.00854,-0.04456
9.629,-0.00137,-0.04166,-0.03418,0.01587,-0.03952,-0.02487,-0.01511,-0.00717,-0.0209,-0.01404,0.02853,-0.01678,-0.03708,-0.0177,0.00854,-0.04578
9.6295,-0.00229,-0.04013,-0.03464,0.01892,-0.03128,-0.03967,-0.02411,-0.00732,-0.02274,-0.01556,0.03296,0.02106,-0.03586,-0.01648,0.0087,-0.04623
