time,RectFemL,VastusMedL,VastusLatL,TibAntL,HamMedL,HamLatL,GastroMedL,GastroLatL,RectFemR,VastusMedR,VastusLatR,TibAntR,HamMedR,HamLatR,GastroMedR,GastroLatR
5.64,-0.00397,-0.03723,-0.02777,-0.00793,-0.03128,-0.03159,0.00443,0.01053,-0.01602,-0.01831,-0.03983,-0.00656,-0.03006,-0.01663,0.00534,-0.0386
5.6405,-0.0032,-0.0354,-0.02762,-0.00671,-0.0296,-0.02167,-0.0209,0.01297,-0.01511,-0.01755,-0.04807,-0.00793,-0.02777,-0.01343,0.00732,-0.03616
5.641,-0.00046,-0.03448,-0.02777,-0.00702,-0.02914,-0.01572,-0.07187,0.01114,-0.01511,-0.01831,-0.05264,-0.00992,-0.02594,-0.0116,0.00885,-0.03464
5.6415,0.00168,-0.0351,-0.02823,-0.00885,-0.02991,-0.01755,-0.1178,0.00702,-0.01541,-0.0209,-0.05478,-0.01419,-0.0267,-0.01114,0.00946,-0.03387
5.642,0.00259,-0.03616,-0.02975,-0.01038,-0.03128,-0.02411,-0.11734,0.00259,-0.01587,-0.02335,-0.05829,-0.02014,-0.03006,-0.0119,0.00809,-0.0354
5.6425,0.00244,-0.03723,-0.03128,-0.01099,-0.03296,-0.03067,-0.07019,-0.00412,-0.01526,-0.02411,-0.06271,-0.0235,-0.03372,-0.01343,0.00702,-0.0383
5.643,0.00137,-0.03769,-0.03113,-0.01022,-0.03372,-0.03723,-0.01328,-0.01083,-0.01572,-0.02533,-0.06577,-0.01984,-0.03586,-0.01419,0.00778,-0.04044
5.6435,-0.00214,-0.03754,-0.03052,-0.00946,-0.03281,-0.04669,0.02319,-0.01343,-0.01694,-0.02518,-0.06302,-0.01053,-0.03479,-0.01389,0.00839,-0.04028
5.644,-0.00748,-0.03693,-0.03052,-0.00977,-0.0325,-0.05768,0.04013,-0.01038,-0.01801,-0.02487,-0.05203,0.00061,-0.03494,-0.01358,0.00992,-0.03983
5.6445,-0.01297,-0.03906,-0.03311,-0.01083,-0.03174,-0.06119,0.04791,-0.00488,-0.01663,-0.02365,-0.03143,0.00793,-0.03754,-0.01541,0.01053,-0.03983
5.645,-0.01495,-0.04074,-0.03632,-0.0116,-0.03143,-0.05585,0.05035,-0.00153,-0.01511,-0.02365,-0.00443,0.01251,-0.04135,-0.0177,0.01083,-0.04059
5.6455,-0.01221,-0.04074,-0.04166,-0.01114,-0.03204,-0.04944,0.04761,-0.00137,-0.01434,-0.02563,0.02548,0.01648,-0.04303,-0.01831,0.00992,-0.04013
5.646,-0.00488,-0.04089,-0.04547,-0.00961,-0.03433,-0.04761,0.04333,-0.00137,-0.01541,-0.02838,0.05356,0.01816,-0.03937,-0.01907,0.00839,-0.04105
5.6465,0.00122,-0.04196,-0.04761,-0.00702,-0.0351,-0.04761,0.0386,0.00031,-0.01572,-0.02914,0.07721,0.01587,-0.03494,-0.01953,0.00671,-0.04181
5.647,0.00397,-0.04303,-0.04593,-0.00565,-0.03662,-0.04318,0.02502,0.00198,-0.01495,-0.0296,0.09064,0.01099,-0.03464,-0.02258,0.00763,-0.04318
5.6475,0.00183,-0.04288,-0.04105,-0.0061,-0.03738,-0.03662,0.00229,0.00153,-0.01312,-0.0264,0.08713,0.00763,-0.0386,-0.02441,0.00839,-0.0441
5.648,-0.00137,-0.04196,-0.03677,-0.0058,-0.04059,-0.03159,-0.01648,-0.00107,-0.01053,-0.02289,0.065,0.00626,-0.04257,-0.02319,0.00809,-0.04379
5.6485,-0.00381,-0.04135,-0.03326,-0.00168,-0.04456,-0.03281,-0.02075,-0.00397,-0.00885,-0.01968,0.03342,0.00397,-0.04089,-0.01999,0.00702,-0.04196
5.649,-0.00381,-0.04089,-0.03098,0.00595,-0.04532,-0.04196,-0.01465,-0.00549,-0.00839,-0.01877,0.00381,0.00076,-0.03494,-0.01801,0.00702,-0.03967
5.6495,-0.00244,-0.04089,-0.02869,0.01404,-0.04257,-0.06058,-0.01007,-0.00595,-0.00732,-0.01678,-0.01465,-0.00061,-0.02762,-0.01877,0.00885,-0.03906
5.65,-0.00015,-0.04028,-0.02625,0.01755,-0.03616,-0.08163,-0.01251,-0.00626,-0.00534,-0.01404,-0.02335,-0.00031,-0.0238,-0.01999,0.00931,-0.03998
5.6505,0.00076,-0.04044,-0.02686,0.01434,-0.03113,-0.09262,-0.01663,-0.00626,-0.00549,-0.0116,-0.02563,0.00153,-0.02045,-0.01999,0.01022,-0.0412
5.651,0.00061,-0.04028,-0.03052,0.00717,-0.02899,-0.09155,-0.01724,-0.00656,-0.00839,-0.01114,-0.02762,0.00229,-0.01587,-0.01846,0.00946,-0.04181
5.6515,-0.00015,-0.04044,-0.03418,-0.00015,-0.02762,-0.08957,-0.01587,-0.00626,-0.01144,-0.01144,-0.0296,0.00183,-0.01358,-0.01541,0.0087,-0.0412
5.652,-0.00076,-0.04105,-0.03586,-0.00687,-0.02518,-0.09247,-0.01358,-0.00473,-0.01389,-0.0119,-0.02975,-0.00092,-0.01465,-0.01328,0.0087,-0.04227
5.6525,-0.00092,-0.04211,-0.03494,-0.01541,-0.02151,-0.09415,-0.01297,-0.00275,-0.01572,-0.01297,-0.02716,-0.00244,-0.0174,-0.01297,0.00931,-0.04288
5.653,-0.00229,-0.04257,-0.03342,-0.02548,-0.02228,-0.08377,-0.01297,-0.00092,-0.01862,-0.01312,-0.0238,-0.00092,-0.01877,-0.01373,0.00931,-0.04318
5.6535,-0.00412,-0.04181,-0.03342,-0.03464,-0.02792,-0.06622,-0.01282,-0.00046,-0.0209,-0.01419,-0.02167,0.00198,-0.01801,-0.01389,0.00839,-0.04242
5.654,-0.00656,-0.04089,-0.03586,-0.0412,-0.03433,-0.0528,-0.01251,-0.00092,-0.02518,-0.0145,-0.02274,0.00229,-0.01801,-0.01358,0.009,-0.04242
5.6545,-0.00946,-0.0412,-0.03677,-0.04425,-0.03738,-0.04852,-0.01236,-0.00061,-0.02869,-0.01633,-0.02548,0.0,-0.01816,-0.01099,0.00809,-0.04288
5.655,-0.01236,-0.04257,-0.02991,-0.04333,-0.03616,-0.04425,-0.01266,-0.00076,-0.03143,-0.01968,-0.0264,-0.00305,-0.01953,-0.00793,0.00732,-0.04318
5.6555,-0.0148,-0.04303,-0.01617,-0.03937,-0.03159,-0.02808,-0.01419,-0.00061,-0.03265,-0.02197,-0.02518,-0.00366,-0.02228,-0.00504,0.00671,-0.04288
5.656,-0.01129,-0.04242,-0.00488,-0.03479,-0.02823,-0.00198,-0.01648,-0.00153,-0.03357,-0.02457,-0.02213,-0.00061,-0.02472,-0.0029,0.00626,-0.04211
5.6565,-0.00504,-0.04135,-0.00381,-0.0322,-0.02777,0.01968,-0.01953,-0.00214,-0.03326,-0.02686,-0.01907,0.00244,-0.02457,-0.00214,0.00656,-0.04196
5.657,0.00259,-0.04211,-0.01328,-0.03052,-0.02823,0.02792,-0.02045,-0.00168,-0.03143,-0.02869,-0.01648,0.00214,-0.02472,-0.00336,0.00595,-0.04135
5.6575,0.00824,-0.0444,-0.02365,-0.02792,-0.03021,0.02274,-0.01862,-0.00214,-0.02609,-0.02945,-0.0174,-0.00061,-0.02609,-0.00717,0.00565,-0.04059
5.658,0.01083,-0.04562,-0.03113,-0.02197,-0.03281,0.00122,-0.01678,-0.00397,-0.01678,-0.03143,-0.02396,-0.00198,-0.0293,-0.01099,0.00626,-0.04074
5.6585,0.00946,-0.0441,-0.03464,-0.01297,-0.03448,-0.04013,-0.01785,-0.00427,-0.00885,-0.0322,-0.03754,0.00031,-0.03311,-0.01144,0.00671,-0.03998
5.659,0.00305,-0.04181,-0.03723,-0.00366,-0.03677,-0.09201,-0.02335,-0.00397,-0.00488,-0.03204,-0.047,0.00275,-0.03418,-0.00748,0.00626,-0.03891
5.6595,-0.00549,-0.04135,-0.04059,0.00229,-0.0354,-0.1239,-0.02914,-0.00259,-0.00305,-0.02655,-0.04761,0.00397,-0.0325,-0.00259,0.00702,-0.03815
5.66,-0.01175,-0.0415,-0.04425,0.00259,-0.03204,-0.11749,-0.03082,-0.00259,-0.00214,-0.02151,-0.04196,0.00381,-0.0293,-0.00107,0.009,-0.03845
5.6605,-0.01312,-0.04105,-0.04608,0.00015,-0.03067,-0.08514,-0.02731,-0.00259,-0.00168,-0.01968,-0.03632,0.0032,-0.02869,-0.0029,0.00946,-0.0386
5.661,-0.01114,-0.04059,-0.04547,-0.00275,-0.0322,-0.05783,-0.02121,-0.00198,-0.00336,-0.02075,-0.02914,0.00275,-0.03052,-0.00061,0.00885,-0.03937
5.6615,-0.00854,-0.04196,-0.04318,-0.00381,-0.03433,-0.05051,-0.01587,-0.00076,-0.00717,-0.02106,-0.01984,0.00061,-0.03403,0.01022,0.00793,-0.04135
5.662,-0.00824,-0.04425,-0.04242,-0.00443,-0.03433,-0.05417,-0.01129,-0.00015,-0.0116,-0.02045,-0.01358,0.00046,-0.03799,0.01495,0.00687,-0.04395
5.6625,-0.00854,-0.04395,-0.04395,-0.00458,-0.03159,-0.05325,-0.0061,0.0,-0.01602,-0.01801,-0.01465,0.00107,-0.04196,-0.0029,0.00824,-0.04593
5.663,-0.00656,-0.04242,-0.04684,-0.00534,-0.02914,-0.04608,-0.00214,-0.00168,-0.01877,-0.01465,-0.01923,0.00214,-0.04517,-0.03448,0.00931,-0.04684
5.6635,-0.00168,-0.0412,-0.04944,-0.00656,-0.02777,-0.03967,-0.00198,-0.0029,-0.01938,-0.01053,-0.02167,0.00183,-0.04654,-0.05051,0.00916,-0.04532
5.664,0.0029,-0.04013,-0.04837,-0.00778,-0.0267,-0.03799,-0.0061,-0.00412,-0.01816,-0.00549,-0.02365,-0.00092,-0.04654,-0.05295,0.00946,-0.04288
5.6645,0.00351,-0.0412,-0.04608,-0.00916,-0.02655,-0.03952,-0.01419,-0.00534,-0.01526,-0.00275,-0.02869,-0.00168,-0.04349,-0.06531,0.00839,-0.04196
5.665,-0.00168,-0.04028,-0.04333,-0.01038,-0.02731,-0.04196,-0.02167,-0.00793,-0.01221,-0.0032,-0.03357,-0.00183,-0.03952,-0.08484,0.00885,-0.04227
5.6655,-0.00839,-0.04013,-0.0415,-0.01251,-0.02762,-0.04456,-0.02457,-0.01007,-0.0116,-0.0058,-0.0351,-0.00122,-0.03647,-0.08224,0.00931,-0.04318
5.666,-0.01144,-0.04028,-0.0415,-0.01266,-0.02823,-0.04517,-0.02274,-0.01068,-0.0145,-0.00717,-0.03387,-0.00061,-0.03387,-0.05096,0.01053,-0.04425
5.6665,-0.01022,-0.04089,-0.04196,-0.01343,-0.02838,-0.04471,-0.01923,-0.00916,-0.01846,-0.00778,-0.0351,0.0,-0.03113,-0.02014,0.01282,-0.04562
5.667,-0.00748,-0.04135,-0.04242,-0.0148,-0.02991,-0.0444,-0.01831,-0.00763,-0.02197,-0.0087,-0.03952,-0.00061,-0.02777,-0.01358,0.01312,-0.04684
5.6675,-0.00519,-0.0415,-0.04196,-0.0145,-0.03067,-0.04318,-0.01907,-0.00687,-0.0238,-0.01129,-0.0444,-0.00168,-0.02457,-0.01999,0.01236,-0.04669
5.668,-0.00458,-0.04135,-0.03937,-0.01144,-0.03128,-0.0412,-0.01923,-0.00626,-0.02457,-0.0148,-0.04745,-0.00275,-0.02502,-0.02258,0.00977,-0.0473
5.6685,-0.00473,-0.0412,-0.03738,-0.00412,-0.0325,-0.03983,-0.01907,-0.00565,-0.02625,-0.01785,-0.05157,-0.00183,-0.02899,-0.01984,0.00809,-0.047
5.669,-0.00458,-0.04135,-0.03632,0.00504,-0.03296,-0.04059,-0.01846,-0.00412,-0.0267,-0.02243,-0.06149,-0.00092,-0.03174,-0.01785,0.00748,-0.04623
5.6695,-0.0032,-0.04059,-0.03403,0.01328,-0.03235,-0.04028,-0.01877,-0.00214,-0.02441,-0.02747,-0.07645,0.00015,-0.03006,-0.01587,0.00854,-0.04471
5.67,-0.00153,-0.03952,-0.02914,0.01785,-0.03113,-0.04013,-0.01907,-0.00153,-0.0177,-0.03342,-0.08743,0.0,-0.0264,-0.01038,0.01053,-0.04288
5.6705,-0.00076,-0.03845,-0.02686,0.01633,-0.03067,-0.0415,-0.0209,-0.00214,-0.01083,-0.0383,-0.08835,-0.00214,-0.02747,-0.00488,0.01022,-0.04059
5.671,-0.00122,-0.03937,-0.02869,0.00931,-0.03189,-0.04456,-0.02228,-0.00259,-0.00214,-0.03998,-0.07187,-0.00412,-0.03479,-0.00381,0.00854,-0.04059
5.6715,-0.00153,-0.04028,-0.03159,0.00275,-0.03159,-0.04639,-0.02182,-0.00214,0.0061,-0.03479,-0.03662,-0.00412,-0.04456,-0.00473,0.00778,-0.04166
5.672,-0.00168,-0.04105,-0.03174,-0.00336,-0.02869,-0.04852,-0.01877,-0.00198,0.01053,-0.02625,0.0087,-0.00305,-0.05249,-0.00168,0.00992,-0.04303
5.6725,-0.00198,-0.04105,-0.03098,-0.00961,-0.02457,-0.05157,-0.0177,-0.00244,0.0087,-0.01755,0.04639,-0.00122,-0.05569,0.00153,0.01007,-0.0444
5.673,-0.00275,-0.04074,-0.0296,-0.01556,-0.0235,-0.05463,-0.01907,-0.00397,0.00397,-0.0119,0.06516,-0.00046,-0.05371,-0.00046,0.00854,-0.04364
5.6735,-0.00305,-0.04013,-0.02808,-0.02167,-0.02426,-0.05737,-0.02014,-0.00504,0.00092,-0.01129,0.0679,-0.00015,-0.04868,-0.0116,0.00549,-0.04288
5.674,-0.00229,-0.03998,-0.02808,-0.02762,-0.02533,-0.05692,-0.01862,-0.00397,-0.00046,-0.01251,0.06042,-0.00137,-0.04547,-0.03128,0.00519,-0.04242
5.6745,-0.00015,-0.03983,-0.02853,-0.03052,-0.02625,-0.05539,-0.01556,-0.00244,-0.00153,-0.0145,0.04578,-0.00366,-0.04517,-0.0502,0.0061,-0.04211
5.675,0.00076,-0.04044,-0.02823,-0.03204,-0.02625,-0.05508,-0.01404,-0.00107,-0.00381,-0.01358,0.02716,-0.00412,-0.04593,-0.05951,0.00793,-0.04349
5.6755,-0.00031,-0.04044,-0.02747,-0.03265,-0.02747,-0.05508,-0.01282,-0.00031,-0.00519,-0.01205,0.01144,-0.00305,-0.0441,-0.05814,0.00992,-0.04364
5.676,-0.00336,-0.03983,-0.02655,-0.03265,-0.02884,-0.05417,-0.01251,-0.00229,-0.01053,-0.01404,0.00168,-0.00214,-0.03906,-0.05142,0.01083,-0.04303
5.6765,-0.00732,-0.03845,-0.02579,-0.0351,-0.03143,-0.0499,-0.0177,-0.00427,-0.0206,-0.01678,-0.00198,-0.00336,-0.03326,-0.04227,0.01068,-0.04181
5.677,-0.01022,-0.03799,-0.02518,-0.04227,-0.03494,-0.04471,-0.03677,-0.00473,-0.03098,-0.01801,-0.0032,-0.00427,-0.02899,-0.0325,0.009,-0.04074
5.6775,-0.01083,-0.03845,-0.02502,-0.05264,-0.03952,-0.04059,-0.06592,-0.00275,-0.03723,-0.01633,-0.00412,-0.00412,-0.02716,-0.0235,0.00687,-0.04059
5.678,-0.00778,-0.03952,-0.02594,-0.05768,-0.04166,-0.04105,-0.08636,-0.00122,-0.04074,-0.01419,-0.00504,-0.00244,-0.02899,-0.01755,0.0061,-0.04044
5.6785,-0.00412,-0.03998,-0.02838,-0.04501,-0.04028,-0.04471,-0.08316,-0.00198,-0.04349,-0.01434,-0.00473,-0.00137,-0.03174,-0.01083,0.00641,-0.04028
5.679,-0.00229,-0.04059,-0.03159,-0.00626,-0.03662,-0.04379,-0.06058,-0.00534,-0.04608,-0.01541,-0.00473,-0.00183,-0.0322,0.0032,0.00748,-0.04135
5.6795,-0.00443,-0.04059,-0.03464,0.0473,-0.03021,-0.02762,-0.02975,-0.00687,-0.04532,-0.01526,-0.00504,-0.00168,-0.0293,0.02396,0.00824,-0.04196
5.68,-0.00732,-0.04013,-0.03708,0.07935,-0.02304,0.00626,-0.00092,-0.00671,-0.03967,-0.01297,-0.00626,-0.00229,-0.02716,0.04059,0.0087,-0.04303
5.6805,-0.00946,-0.04105,-0.03693,0.05783,-0.01755,0.04181,0.02075,-0.0061,-0.03036,-0.01068,-0.00854,-0.0029,-0.02731,0.04669,0.00809,-0.04272
5.681,-0.00931,-0.0415,-0.03769,0.00229,-0.01587,0.05478,0.03311,-0.0061,-0.02228,-0.01221,-0.00748,-0.00336,-0.02747,0.047,0.00702,-0.04181
5.6815,-0.00595,-0.04196,-0.03845,-0.03738,-0.01678,0.03754,0.03647,-0.00687,-0.01877,-0.01495,-0.00244,-0.00229,-0.02609,0.04929,0.00687,-0.04181
5.682,-0.00229,-0.04135,-0.04089,-0.04242,-0.01663,0.00214,0.03601,-0.00702,-0.01862,-0.01785,0.0032,0.00046,-0.02304,0.05295,0.00595,-0.04166
5.6825,-0.00046,-0.04059,-0.04211,-0.03311,-0.0145,-0.03281,0.03281,-0.0058,-0.01938,-0.01816,0.00488,0.00198,-0.02167,0.05249,0.00595,-0.04028
5.683,-0.00122,-0.04089,-0.04211,-0.03357,-0.0116,-0.06165,0.02609,-0.00397,-0.01785,-0.01678,0.00229,0.00229,-0.02335,0.04745,0.00748,-0.03906
5.6835,-0.00351,-0.04166,-0.04013,-0.0441,-0.01175,-0.08606,0.01663,-0.0029,-0.01495,-0.01511,-0.00015,0.00198,-0.02762,0.03891,0.00732,-0.03784
5.684,-0.00626,-0.04166,-0.03983,-0.05417,-0.01541,-0.10895,0.00839,-0.0029,-0.01251,-0.01511,-0.00076,0.00046,-0.0322,0.01724,0.00748,-0.0386
5.6845,-0.00916,-0.0412,-0.03769,-0.05478,-0.02182,-0.12527,0.00198,-0.00488,-0.0119,-0.01678,-0.00092,-0.00107,-0.03448,-0.0415,0.00732,-0.03983
5.685,-0.00946,-0.03983,-0.03418,-0.03845,-0.02853,-0.13016,-0.00107,-0.00565,-0.01251,-0.01846,-0.00122,-0.00244,-0.0351,-0.13702,0.00854,-0.03998
5.6855,-0.00778,-0.03952,-0.03006,-0.00046,-0.03616,-0.12131,-0.00397,-0.00473,-0.01434,-0.01968,-0.00229,-0.00336,-0.03632,-0.21576,0.00946,-0.03937
5.686,-0.00671,-0.03815,-0.02579,0.05112,-0.04349,-0.10361,-0.00626,-0.0029,-0.01602,-0.01984,-0.00443,-0.00305,-0.03906,-0.21225,0.01053,-0.03922
5.6865,-0.00778,-0.03799,-0.02396,0.10025,-0.04715,-0.08636,-0.00839,-0.00214,-0.01694,-0.01968,-0.00534,-0.00168,-0.04196,-0.13519,0.00992,-0.03952
5.687,-0.00916,-0.03784,-0.02411,0.11841,-0.0444,-0.0769,-0.00992,-0.00244,-0.01755,-0.01877,-0.00656,-0.00137,-0.04257,-0.05905,0.00885,-0.04013
5.6875,-0.00809,-0.03937,-0.02655,0.09186,-0.03845,-0.07324,-0.01205,-0.00275,-0.0174,-0.01877,-0.00763,-0.0029,-0.0412,-0.03326,0.00778,-0.04028
5.688,-0.00656,-0.03983,-0.0293,0.03983,-0.03357,-0.06851,-0.01389,-0.00137,-0.01617,-0.01907,-0.00931,-0.00366,-0.03967,-0.03799,0.00732,-0.03998
5.6885,-0.00656,-0.03876,-0.03067,-0.00137,-0.03082,-0.05936,-0.01526,0.00076,-0.01358,-0.01968,-0.01007,-0.00366,-0.03799,-0.03815,0.00641,-0.03983
5.689,-0.00778,-0.03845,-0.03098,-0.01602,-0.03082,-0.05112,-0.01587,0.00076,-0.01099,-0.01831,-0.00702,-0.00412,-0.03647,-0.0296,0.00748,-0.0386
5.6895,-0.00763,-0.03876,-0.03113,-0.01419,-0.03281,-0.04807,-0.01694,-0.00183,-0.01007,-0.0174,-0.00351,-0.00443,-0.03632,-0.02365,0.01022,-0.03815
5.69,-0.00565,-0.03952,-0.03204,-0.01236,-0.03525,-0.04913,-0.01816,-0.00443,-0.01053,-0.01801,-0.00214,-0.00336,-0.03876,-0.02274,0.01389,-0.03677
5.6905,-0.00366,-0.03983,-0.03281,-0.01282,-0.03876,-0.04715,-0.01907,-0.00519,-0.01129,-0.01938,-0.00473,-0.00275,-0.04669,-0.02274,0.01511,-0.03586
5.691,-0.0029,-0.03952,-0.03311,-0.01282,-0.04196,-0.04196,-0.01877,-0.00366,-0.01312,-0.02014,-0.00839,-0.00366,-0.05585,-0.02289,0.01221,-0.03632
5.6915,-0.0029,-0.03937,-0.03372,-0.01068,-0.0444,-0.03769,-0.01831,-0.00122,-0.01419,-0.01953,-0.01083,-0.0029,-0.06027,-0.02213,0.00977,-0.03769
5.692,-0.00351,-0.03952,-0.03281,-0.00854,-0.04608,-0.03677,-0.01785,-0.00031,-0.01328,-0.01953,-0.01282,0.0,-0.05951,-0.02029,0.00931,-0.03784
5.6925,-0.00366,-0.0386,-0.03204,-0.00977,-0.04623,-0.03647,-0.01694,-0.00168,-0.01114,-0.01801,-0.01511,0.0029,-0.05463,-0.01816,0.00931,-0.03845
5.693,-0.0032,-0.03647,-0.03159,-0.01205,-0.04578,-0.03235,-0.01617,-0.00351,-0.00961,-0.01678,-0.01724,0.00443,-0.04623,-0.01694,0.00793,-0.04333
5.6935,-0.00198,-0.03662,-0.03433,-0.01358,-0.0441,-0.02747,-0.01511,-0.00381,-0.00977,-0.01465,-0.01633,0.00412,-0.03159,-0.0177,0.0058,-0.05066
5.694,-0.00076,-0.04013,-0.03616,-0.01312,-0.04242,-0.02701,-0.01389,-0.00275,-0.0116,-0.01556,-0.01617,0.00351,-0.01617,-0.01633,0.0058,-0.05402
5.6945,-0.00137,-0.04349,-0.03571,-0.01282,-0.04211,-0.03281,-0.01266,-0.00183,-0.01266,-0.01907,-0.0174,0.00198,-0.00595,-0.01266,0.00534,-0.05219
5.695,-0.00198,-0.0444,-0.03311,-0.01373,-0.04395,-0.03662,-0.01175,-0.00107,-0.01221,-0.02106,-0.01709,0.00076,-0.00305,-0.00778,0.00443,-0.04578
5.6955,-0.00244,-0.04425,-0.03082,-0.0145,-0.04608,-0.03754,-0.01251,-0.00168,-0.01144,-0.02029,-0.01144,0.00015,-0.00275,-0.00305,0.0032,-0.04044
5.696,-0.00198,-0.04395,-0.02884,-0.01541,-0.0444,-0.03632,-0.01373,-0.00168,-0.01038,-0.01938,-0.00412,0.00092,-0.00381,0.0,0.00473,-0.03845
5.6965,-0.00046,-0.04471,-0.02747,-0.01511,-0.04135,-0.03403,-0.0148,-0.00198,-0.00809,-0.01755,0.00031,0.00244,-0.00702,0.00168,0.0058,-0.04013
5.697,0.0,-0.04501,-0.03021,-0.01617,-0.03769,-0.03418,-0.01587,-0.00259,-0.00763,-0.01877,0.0032,0.00305,-0.01038,0.00198,0.00565,-0.0415
5.6975,-0.00137,-0.0444,-0.03128,-0.01633,-0.03616,-0.03784,-0.01724,-0.00275,-0.00793,-0.02228,0.00458,0.00214,-0.00809,-0.00137,0.00458,-0.04272
5.698,-0.00183,-0.04333,-0.03113,-0.01572,-0.03326,-0.04364,-0.01678,-0.00259,-0.00992,-0.0235,0.00305,0.00137,0.00076,-0.01205,0.00473,-0.04272
5.6985,-0.00076,-0.04303,-0.0322,-0.01221,-0.02884,-0.05264,-0.01541,-0.00259,-0.00931,-0.02319,-0.00046,0.00092,0.00748,-0.0238,0.00626,-0.04257
5.699,0.00015,-0.04288,-0.03204,-0.0058,-0.02304,-0.05981,-0.01282,-0.00107,-0.00946,-0.02106,-0.00198,0.00259,0.00076,-0.02762,0.00824,-0.04364
5.6995,-0.00137,-0.0412,-0.03418,-0.00092,-0.0177,-0.06012,-0.0116,0.00107,-0.01144,-0.0209,0.00122,0.00458,-0.01785,-0.02258,0.00931,-0.04318
5.7,-0.00275,-0.04013,-0.03571,0.00137,-0.01373,-0.05585,-0.01236,0.00305,-0.01648,-0.02106,0.00732,0.00504,-0.03998,-0.01678,0.01053,-0.04211
5.7005,-0.00519,-0.03998,-0.03906,0.00153,-0.01373,-0.05127,-0.0116,0.00259,-0.02197,-0.01999,0.01129,0.00443,-0.06195,-0.01541,0.01083,-0.03876
5.701,-0.00809,-0.04013,-0.04272,0.00015,-0.01617,-0.05142,-0.01221,0.00031,-0.02289,-0.01694,0.00961,0.00366,-0.08072,-0.01663,0.00946,-0.03708
5.7015,-0.01053,-0.04028,-0.0444,-0.00031,-0.02319,-0.05096,-0.01297,-0.00076,-0.02045,-0.01114,0.00641,0.00351,-0.08865,-0.01694,0.00854,-0.03738
5.702,-0.01099,-0.03937,-0.0441,-0.00168,-0.03021,-0.04639,-0.01404,-0.00183,-0.01755,-0.00946,0.0029,0.00275,-0.08011,-0.01495,0.00992,-0.03876
5.7025,-0.00839,-0.03937,-0.03922,-0.00534,-0.03082,-0.03418,-0.0148,-0.00351,-0.01617,-0.00916,0.00076,0.00244,-0.06226,-0.01251,0.01099,-0.03906
5.703,-0.00488,-0.04013,-0.03387,-0.0119,-0.02548,-0.02121,-0.01465,-0.00687,-0.01648,-0.009,-0.00137,0.00366,-0.05035,-0.00946,0.01099,-0.03784
5.7035,-0.00366,-0.04044,-0.02991,-0.01968,-0.02182,-0.01633,-0.01541,-0.01099,-0.01907,-0.00809,-0.00015,0.00549,-0.04547,-0.00427,0.01205,-0.03647
5.704,-0.00458,-0.04028,-0.02853,-0.02701,-0.02121,-0.02777,-0.01617,-0.01312,-0.02197,-0.0087,0.00046,0.00519,-0.0386,-0.00015,0.01266,-0.03601
5.7045,-0.00626,-0.04074,-0.03082,-0.03098,-0.02167,-0.0444,-0.01572,-0.01007,-0.02365,-0.00793,-0.00137,0.00412,-0.02487,0.00275,0.01175,-0.0351
5.705,-0.00687,-0.04166,-0.03464,-0.03143,-0.02151,-0.05402,-0.0148,-0.00488,-0.02167,-0.01083,-0.00931,0.00229,-0.00977,0.00778,0.01038,-0.03586
5.7055,-0.00549,-0.04196,-0.03662,-0.03082,-0.02625,-0.04852,-0.0145,0.00015,-0.0177,-0.01495,-0.02121,0.00168,-0.00092,0.01328,0.00824,-0.03738
5.706,-0.00366,-0.04105,-0.03586,-0.03067,-0.03677,-0.03281,-0.01648,0.00244,-0.01389,-0.01831,-0.03006,0.00061,-0.00092,0.01465,0.00656,-0.04227
5.7065,-0.00351,-0.03906,-0.03326,-0.03311,-0.04562,-0.01999,-0.01877,0.00198,-0.01083,-0.01785,-0.03311,-0.00046,-0.00565,0.01099,0.0061,-0.04791
5.707,-0.00504,-0.03769,-0.03174,-0.03784,-0.04944,-0.0177,-0.02167,-0.00061,-0.01038,-0.0145,-0.03128,-0.00092,-0.00992,0.0032,0.00809,-0.05142
5.7075,-0.00778,-0.03799,-0.03403,-0.04135,-0.04776,-0.02182,-0.02335,-0.00381,-0.00931,-0.01007,-0.02823,-0.00076,-0.00946,-0.0029,0.01053,-0.04852
5.708,-0.00854,-0.03922,-0.03662,-0.03952,-0.04547,-0.02792,-0.02441,-0.00458,-0.00748,-0.00748,-0.02579,-0.00061,-0.00748,-0.00366,0.01328,-0.04425
5.7085,-0.00748,-0.0412,-0.0386,-0.03235,-0.04425,-0.0325,-0.02563,-0.00397,-0.0058,-0.0087,-0.02457,-0.00046,-0.00809,-0.00381,0.01328,-0.03983
5.709,-0.00519,-0.04227,-0.04013,-0.02289,-0.04349,-0.03784,-0.03387,-0.00412,-0.00549,-0.01099,-0.02182,0.0,-0.00824,-0.00488,0.01114,-0.03784
5.7095,-0.00336,-0.04272,-0.0412,-0.01663,-0.04089,-0.0444,-0.04837,-0.00534,-0.00778,-0.01434,-0.01999,-0.00031,-0.00381,-0.01022,0.00931,-0.03616
5.71,-0.00153,-0.0415,-0.04013,-0.01495,-0.03647,-0.05081,-0.05981,-0.00458,-0.01343,-0.01785,-0.02029,-0.00107,-0.00076,-0.01678,0.00793,-0.0354
5.7105,0.00031,-0.04013,-0.03677,-0.01358,-0.03418,-0.05783,-0.05814,-0.00259,-0.01938,-0.02304,-0.02045,-0.00122,-0.00763,-0.0209,0.00641,-0.03677
5.711,0.00214,-0.03784,-0.03311,-0.01221,-0.03433,-0.07126,-0.04303,-0.00046,-0.02167,-0.02655,-0.01801,-0.00168,-0.02609,-0.01907,0.00381,-0.04013
5.7115,0.00229,-0.03754,-0.03204,-0.00992,-0.03448,-0.08667,-0.02502,-0.00015,-0.0206,-0.02655,-0.01205,-0.00244,-0.04761,-0.0174,0.00397,-0.04272
5.712,0.00183,-0.03845,-0.03204,-0.00916,-0.03357,-0.09293,-0.0116,-0.00092,-0.01785,-0.02533,-0.01083,-0.00488,-0.06271,-0.02579,0.00641,-0.04379
5.7125,0.00046,-0.04028,-0.03204,-0.00839,-0.03311,-0.08392,-0.0029,-0.00198,-0.01511,-0.02747,-0.01526,-0.00748,-0.06943,-0.04776,0.00778,-0.04257
5.713,0.0,-0.04059,-0.03067,-0.00626,-0.03189,-0.06622,0.00366,0.00015,-0.01312,-0.03159,-0.02182,-0.00839,-0.06653,-0.06897,0.00717,-0.04166
5.7135,-0.00046,-0.03952,-0.03021,-0.00458,-0.03128,-0.05295,0.0116,0.00259,-0.01038,-0.03128,-0.02686,-0.00793,-0.05722,-0.0705,0.00778,-0.04211
5.714,-0.00107,-0.03891,-0.02899,-0.00427,-0.03021,-0.04807,0.01831,0.00351,-0.00885,-0.02777,-0.02625,-0.00732,-0.04456,-0.05325,0.00977,-0.04547
5.7145,-0.00504,-0.03876,-0.0296,-0.00595,-0.02991,-0.04837,0.02274,0.00153,-0.00763,-0.0238,-0.02304,-0.00626,-0.03296,-0.03662,0.01099,-0.04501
5.715,-0.01175,-0.03967,-0.03143,-0.00854,-0.03067,-0.04944,0.02029,-0.00259,-0.00732,-0.02213,-0.01831,-0.00488,-0.02625,-0.03204,0.01022,-0.04166
5.7155,-0.01648,-0.0415,-0.03357,-0.01099,-0.03021,-0.0502,0.01205,-0.00488,-0.00687,-0.02289,-0.01328,-0.00259,-0.02502,-0.03235,0.00793,-0.03891
5.716,-0.01709,-0.04242,-0.03586,-0.01251,-0.02899,-0.04929,0.00107,-0.00473,-0.00778,-0.02426,-0.01083,0.00092,-0.02686,-0.02762,0.00748,-0.03784
5.7165,-0.01541,-0.04196,-0.04272,-0.01114,-0.02945,-0.04745,-0.0061,-0.00305,-0.00824,-0.02319,-0.01099,0.00412,-0.02869,-0.02029,0.0087,-0.04013
5.717,-0.01419,-0.04105,-0.05219,-0.00885,-0.03082,-0.04715,-0.00565,-0.00061,-0.00977,-0.02258,-0.01099,0.00473,-0.03281,-0.01816,0.00809,-0.04227
5.7175,-0.01389,-0.04074,-0.05966,-0.00702,-0.03159,-0.04883,-0.00031,0.00031,-0.00931,-0.02289,-0.00778,0.00427,-0.0386,-0.02151,0.0061,-0.04349
5.718,-0.01236,-0.04028,-0.05997,-0.0058,-0.03159,-0.05051,0.00214,0.00015,-0.009,-0.0235,-0.00198,0.00427,-0.04272,-0.02457,0.00488,-0.04318
5.7185,-0.00687,-0.03983,-0.05264,-0.00488,-0.0322,-0.04837,-0.00046,-0.00046,-0.01007,-0.02258,0.00183,0.00443,-0.04227,-0.0238,0.0061,-0.04196
5.719,-0.00092,-0.04089,-0.04532,-0.00458,-0.03372,-0.04501,-0.00565,-0.00214,-0.01144,-0.02136,0.00259,0.00473,-0.0383,-0.02167,0.00809,-0.04181
5.7195,0.00229,-0.04227,-0.04028,-0.00519,-0.03387,-0.0415,-0.00946,-0.00397,-0.01236,-0.02167,0.00275,0.00473,-0.03342,-0.01785,0.00977,-0.04105
5.72,0.00198,-0.04257,-0.03784,-0.00671,-0.03265,-0.03998,-0.01068,-0.00641,-0.01114,-0.02213,0.00137,0.00275,-0.02991,-0.01205,0.01053,-0.04105
5.7205,-0.00031,-0.04166,-0.03693,-0.00763,-0.03174,-0.03906,-0.01297,-0.00839,-0.00961,-0.02151,-0.00061,-0.00031,-0.02991,-0.00839,0.01038,-0.04074
5.721,-0.00168,-0.04089,-0.03555,-0.00702,-0.03189,-0.03632,-0.01358,-0.00778,-0.01022,-0.01999,-0.00092,-0.0029,-0.03479,-0.00961,0.01144,-0.04166
5.7215,-0.00015,-0.03952,-0.03448,-0.00473,-0.03189,-0.03571,-0.01266,-0.00458,-0.01236,-0.01862,0.00198,-0.00366,-0.04227,-0.01419,0.01328,-0.04135
5.722,0.00015,-0.03998,-0.03418,-0.00412,-0.03098,-0.03464,-0.01129,-0.00046,-0.01465,-0.01694,0.00443,-0.00214,-0.04944,-0.01709,0.01419,-0.0415
5.7225,-0.00107,-0.03937,-0.03296,-0.00427,-0.02884,-0.03525,-0.01282,0.00168,-0.01709,-0.01678,0.00473,0.00092,-0.05127,-0.01633,0.01343,-0.04059
5.723,-0.00275,-0.03845,-0.03281,-0.00595,-0.02487,-0.03784,-0.01495,0.00244,-0.01892,-0.01755,0.00458,0.00412,-0.04745,-0.01389,0.01144,-0.03922
5.7235,-0.00305,-0.03677,-0.03265,-0.00717,-0.01984,-0.0415,-0.01526,0.00412,-0.02106,-0.01953,0.00488,0.00549,-0.04135,-0.0116,0.01007,-0.03662
5.724,-0.00259,-0.03708,-0.03204,-0.00717,-0.01373,-0.04166,-0.0145,0.00687,-0.02258,-0.01984,0.00504,0.00336,-0.03723,-0.01068,0.01129,-0.03433
5.7245,-0.0029,-0.03876,-0.03052,-0.00732,-0.00885,-0.04257,-0.01358,0.00992,-0.02243,-0.01938,0.00443,0.00031,-0.03708,-0.01068,0.01282,-0.03464
5.725,-0.00381,-0.04089,-0.02884,-0.00793,-0.00443,-0.04517,-0.01617,0.01022,-0.01984,-0.01938,0.00214,-0.00183,-0.03922,-0.01175,0.01221,-0.03769
5.7255,-0.00397,-0.0412,-0.02884,-0.009,-0.00397,-0.0499,-0.01907,0.00626,-0.01617,-0.02029,0.0,-0.0029,-0.03998,-0.01083,0.01053,-0.04135
5.726,-0.00412,-0.04074,-0.03052,-0.00946,-0.00824,-0.05341,-0.01999,-0.00153,-0.0145,-0.02075,-0.00168,-0.00244,-0.03754,-0.00977,0.009,-0.04486
5.7265,-0.00397,-0.04028,-0.03143,-0.00885,-0.01328,-0.05096,-0.01862,-0.01022,-0.01495,-0.02106,-0.00076,-0.00336,-0.03281,-0.00839,0.00748,-0.04639
5.727,-0.00565,-0.04089,-0.0322,-0.00839,-0.01709,-0.04837,-0.01907,-0.01846,-0.01617,-0.02121,0.00183,-0.00488,-0.02609,-0.00748,0.0061,-0.04776
5.7275,-0.00748,-0.03998,-0.03143,-0.00992,-0.01953,-0.05295,-0.0206,-0.02182,-0.01663,-0.01999,0.00443,-0.00519,-0.02014,-0.00702,0.00381,-0.04807
5.728,-0.00702,-0.03769,-0.03082,-0.01556,-0.02686,-0.06424,-0.02243,-0.01877,-0.01633,-0.01648,0.00259,-0.00458,-0.01816,-0.00534,0.0032,-0.04715
5.7285,-0.00549,-0.03708,-0.03021,-0.02487,-0.04059,-0.06989,-0.02258,-0.01328,-0.01617,-0.01389,-0.00168,-0.00351,-0.0209,0.0,0.00397,-0.04608
5.729,-0.00366,-0.03845,-0.02899,-0.03174,-0.05341,-0.0647,-0.02289,-0.00778,-0.0174,-0.01297,-0.00763,-0.00458,-0.02579,0.00916,0.00488,-0.04471
5.7295,-0.00275,-0.04044,-0.0296,-0.02991,-0.05814,-0.05203,-0.02243,-0.00458,-0.01846,-0.01495,-0.01236,-0.00488,-0.02975,0.0174,0.00488,-0.04303
5.73,-0.00214,-0.03983,-0.03326,-0.02335,-0.0528,-0.04517,-0.02136,-0.00351,-0.01907,-0.01709,-0.01755,-0.0029,-0.03265,0.01755,0.00412,-0.04105
5.7305,-0.0029,-0.03876,-0.03815,-0.0177,-0.04547,-0.04974,-0.01999,-0.00549,-0.01999,-0.01633,-0.02258,0.00031,-0.03601,0.0119,0.00351,-0.0383
5.731,-0.00336,-0.03922,-0.04166,-0.01465,-0.04303,-0.05661,-0.01846,-0.00854,-0.02045,-0.01358,-0.0238,0.00122,-0.03876,0.00687,0.00153,-0.0383
5.7315,-0.0032,-0.04089,-0.03998,-0.01358,-0.04303,-0.05692,-0.01755,-0.00946,-0.01877,-0.01068,-0.02182,-0.00015,-0.0412,0.00259,-0.00076,-0.03922
5.732,-0.00229,-0.04257,-0.0351,-0.0087,-0.03952,-0.05112,-0.01678,-0.00763,-0.01587,-0.01038,-0.01953,-0.00122,-0.04181,-0.01434,-0.00122,-0.04028
5.7325,-0.00137,-0.04181,-0.03128,0.0,-0.03326,-0.04623,-0.01755,-0.0061,-0.01358,-0.01129,-0.02197,0.00031,-0.03998,-0.04593,0.00107,-0.04028
5.733,-0.0029,-0.04013,-0.03021,0.00702,-0.02747,-0.04471,-0.02457,-0.00534,-0.01343,-0.0116,-0.0296,0.00229,-0.03448,-0.0679,0.00488,-0.03876
5.7335,-0.00549,-0.04059,-0.03082,0.009,-0.02594,-0.04578,-0.04883,-0.00427,-0.01389,-0.01038,-0.03448,0.0029,-0.0267,-0.0589,0.00565,-0.03876
5.734,-0.00732,-0.04166,-0.03021,0.00717,-0.02426,-0.04684,-0.07813,-0.00275,-0.01221,-0.00809,-0.03418,0.00259,-0.02075,-0.03311,0.00336,-0.04059
5.7345,-0.00916,-0.04211,-0.03143,0.01648,-0.02151,-0.04684,-0.08652,-0.00244,-0.01144,-0.00595,-0.03128,0.00229,-0.01678,-0.01801,0.00259,-0.04318
5.735,-0.00839,-0.04059,-0.03326,0.04181,-0.01953,-0.04608,-0.05844,-0.00305,-0.01251,-0.0058,-0.02899,0.00183,-0.0119,-0.02167,0.00366,-0.04364
5.7355,-0.0061,-0.03784,-0.03464,0.07019,-0.02426,-0.04623,-0.01602,-0.00397,-0.01526,-0.00595,-0.02609,0.00259,-0.00458,-0.02808,0.0058,-0.04135
5.736,-0.00305,-0.03494,-0.0354,0.07126,-0.0325,-0.04684,0.00931,-0.00427,-0.01617,-0.00656,-0.02457,0.00381,-0.00137,-0.0264,0.00748,-0.04028
5.7365,-0.00122,-0.03448,-0.03464,0.03174,-0.03922,-0.04715,0.01144,-0.0029,-0.01343,-0.00854,-0.0238,0.00473,-0.0061,-0.02045,0.00809,-0.04028
5.737,0.00015,-0.03601,-0.03342,-0.02319,-0.04074,-0.04669,0.00732,-0.00076,-0.01175,-0.0116,-0.02365,0.00427,-0.01678,-0.01801,0.00778,-0.04272
5.7375,0.00137,-0.03876,-0.03235,-0.05417,-0.03845,-0.04547,0.0119,0.00488,-0.01328,-0.01526,-0.02151,0.0029,-0.02762,-0.01923,0.00839,-0.04532
5.738,0.00092,-0.0412,-0.03036,-0.05066,-0.0351,-0.04333,0.02365,0.0116,-0.01465,-0.01617,-0.01877,0.00244,-0.0351,-0.02151,0.0116,-0.04486
5.7385,0.00015,-0.04089,-0.03021,-0.03555,-0.03326,-0.0444,0.03159,0.0148,-0.01572,-0.01617,-0.01755,0.0032,-0.04028,-0.02289,0.01587,-0.04242
5.739,-0.00198,-0.03876,-0.03128,-0.02808,-0.0322,-0.04807,0.02563,0.01022,-0.01862,-0.01572,-0.01556,0.00381,-0.04425,-0.0235,0.01999,-0.03983
5.7395,-0.00443,-0.03616,-0.03296,-0.02808,-0.03143,-0.05661,0.009,0.0029,-0.02121,-0.01648,-0.01495,0.00427,-0.04669,-0.02182,0.02274,-0.03952
5.74,-0.00717,-0.03723,-0.03403,-0.02914,-0.03159,-0.06729,-0.00534,-0.00198,-0.02213,-0.01633,-0.02228,0.0032,-0.04471,-0.0174,0.0238,-0.04059
5.7405,-0.00793,-0.03967,-0.03311,-0.0296,-0.0322,-0.07462,-0.00885,-0.00549,-0.02045,-0.01694,-0.03845,0.00244,-0.03845,-0.0119,0.02136,-0.04196
5.741,-0.00519,-0.04181,-0.03204,-0.02899,-0.0322,-0.07523,-0.00732,-0.0116,-0.0174,-0.01694,-0.05402,0.00214,-0.03235,-0.00748,0.01816,-0.04257
5.7415,-0.00153,-0.0412,-0.03143,-0.02594,-0.03189,-0.07156,-0.00854,-0.01785,-0.0145,-0.01755,-0.06317,0.00397,-0.03448,-0.00687,0.01572,-0.04303
5.742,-0.00076,-0.03998,-0.0293,-0.01938,-0.03204,-0.06729,-0.0119,-0.01694,-0.01373,-0.01907,-0.07004,0.00427,-0.04532,-0.00946,0.01389,-0.04257
5.7425,-0.00351,-0.03998,-0.02762,-0.01358,-0.03113,-0.06195,-0.01221,-0.00885,-0.01282,-0.02151,-0.0824,0.00275,-0.05402,-0.01312,0.01282,-0.04166
5.743,-0.00809,-0.03998,-0.02472,-0.0116,-0.03052,-0.05157,-0.00961,-0.00092,-0.0116,-0.02365,-0.09811,0.00107,-0.0528,-0.01556,0.01175,-0.04211
5.7435,-0.01175,-0.04074,-0.02487,-0.01221,-0.02823,-0.0386,-0.00854,0.00198,-0.01038,-0.02518,-0.10513,0.00092,-0.04486,-0.01572,0.01175,-0.04196
5.744,-0.01221,-0.04333,-0.02747,-0.0116,-0.02991,-0.02502,-0.01236,0.00107,-0.01068,-0.02472,-0.09491,0.00168,-0.04059,-0.01663,0.0116,-0.04074
5.7445,-0.00992,-0.04623,-0.03189,-0.01114,-0.03326,-0.01175,-0.02243,-0.00183,-0.01328,-0.02243,-0.06622,0.00168,-0.04181,-0.02106,0.01022,-0.0383
5.745,-0.0058,-0.04852,-0.03555,-0.01083,-0.03525,0.01129,-0.03601,-0.00565,-0.0148,-0.01968,-0.02319,0.00122,-0.04257,-0.0293,0.00946,-0.03769
5.7455,-0.00259,-0.04852,-0.03555,-0.00916,-0.03601,0.03983,-0.04272,-0.00809,-0.01419,-0.01968,0.03128,0.00183,-0.03998,-0.03937,0.00854,-0.03922
5.746,-0.00046,-0.0473,-0.03342,-0.00809,-0.03433,0.05173,-0.03525,-0.00778,-0.01358,-0.02197,0.08926,0.00259,-0.03326,-0.04791,0.00977,-0.04227
5.7465,0.0,-0.04456,-0.03052,-0.0087,-0.03265,0.02869,-0.02045,-0.00458,-0.01556,-0.02258,0.1329,0.00214,-0.02625,-0.05051,0.00992,-0.04532
5.747,-0.00031,-0.04211,-0.0293,-0.01099,-0.03021,-0.01129,-0.00931,-0.00015,-0.01877,-0.01968,0.14877,-0.00015,-0.01862,-0.04456,0.00977,-0.04639
5.7475,-0.00046,-0.04044,-0.02884,-0.01236,-0.02777,-0.03571,-0.0058,0.00244,-0.01892,-0.01511,0.13901,-0.00183,-0.00748,-0.03159,0.00763,-0.047
5.748,-0.00275,-0.03937,-0.03021,-0.01144,-0.02716,-0.03906,-0.00336,0.00244,-0.01694,-0.0119,0.11551,-0.00015,0.00397,-0.0209,0.00687,-0.04807
5.7485,-0.0061,-0.03845,-0.03418,-0.0087,-0.02579,-0.04135,0.00244,-0.00046,-0.01526,-0.01175,0.08698,0.00153,0.00916,-0.01801,0.00732,-0.04822
5.749,-0.00717,-0.03784,-0.03738,-0.00641,-0.02335,-0.05722,0.00488,-0.00153,-0.01556,-0.0119,0.05661,0.00198,0.00565,-0.01923,0.00763,-0.047
5.7495,-0.00504,-0.03754,-0.03937,-0.00565,-0.01831,-0.07813,-0.00153,-0.00183,-0.01709,-0.01282,0.02747,0.00046,-0.00534,-0.01953,0.00671,-0.0441
5.75,-0.00214,-0.0386,-0.03998,-0.0061,-0.01419,-0.09003,-0.01038,-0.00336,-0.01678,-0.01389,0.00168,0.00015,-0.02274,-0.02029,0.00565,-0.04242
5.7505,-0.00198,-0.03998,-0.03845,-0.00824,-0.01221,-0.09232,-0.01434,-0.00702,-0.01572,-0.01434,-0.01297,-0.00122,-0.04196,-0.0238,0.00656,-0.04303
5.751,-0.00488,-0.04089,-0.0351,-0.01083,-0.01205,-0.09018,-0.01266,-0.00977,-0.01511,-0.0174,-0.01785,-0.00534,-0.0589,-0.02686,0.00671,-0.04333
5.7515,-0.00763,-0.04059,-0.03296,-0.01144,-0.01389,-0.08743,-0.01007,-0.00885,-0.01526,-0.01923,-0.0174,-0.01129,-0.06882,-0.02655,0.00549,-0.04181
5.752,-0.00732,-0.03922,-0.03555,-0.01007,-0.02213,-0.08041,-0.01083,-0.00259,-0.0145,-0.02106,-0.01724,-0.01602,-0.07217,-0.02579,0.00504,-0.04227
5.7525,-0.00504,-0.03952,-0.03754,-0.00916,-0.03372,-0.06866,-0.01328,0.00397,-0.01175,-0.02289,-0.01724,-0.01648,-0.07187,-0.0293,0.00412,-0.04425
5.753,-0.00397,-0.04105,-0.03708,-0.01007,-0.04532,-0.05432,-0.01465,0.00732,-0.00854,-0.02319,-0.01724,-0.01572,-0.06775,-0.03738,0.00443,-0.04623
5.7535,-0.00458,-0.04257,-0.03464,-0.01175,-0.04944,-0.04456,-0.01617,0.00687,-0.00854,-0.02106,-0.01709,-0.01633,-0.05859,-0.04425,0.00458,-0.04684
5.754,-0.00519,-0.04211,-0.03464,-0.01297,-0.04593,-0.03983,-0.02106,0.00549,-0.009,-0.02014,-0.01633,-0.01709,-0.04456,-0.04776,0.00488,-0.04623
5.7545,-0.00427,-0.04105,-0.03723,-0.01266,-0.04013,-0.03922,-0.03571,0.00565,-0.0087,-0.02289,-0.01678,-0.01434,-0.02777,-0.04913,0.00397,-0.04471
5.755,-0.00412,-0.04089,-0.03922,-0.01266,-0.03571,-0.04242,-0.06195,0.00504,-0.00946,-0.02625,-0.01633,-0.00748,-0.01831,-0.04776,0.00275,-0.04349
5.7555,-0.00473,-0.0412,-0.03876,-0.01312,-0.03296,-0.04959,-0.08392,0.00351,-0.01068,-0.02899,-0.01526,0.00305,-0.02167,-0.03555,0.00336,-0.04196
5.756,-0.00504,-0.0415,-0.03677,-0.01266,-0.03036,-0.0563,-0.08163,-0.00305,-0.01144,-0.03433,-0.01404,0.01236,-0.03098,-0.0061,0.00366,-0.04166
5.7565,-0.00397,-0.04196,-0.03586,-0.01221,-0.0296,-0.05844,-0.05234,-0.01297,-0.01144,-0.04135,-0.01587,0.01938,-0.03632,0.02258,0.00549,-0.04059
5.757,-0.00305,-0.04135,-0.03525,-0.01114,-0.02945,-0.05524,-0.01236,-0.01999,-0.01175,-0.0473,-0.01831,0.02487,-0.03616,0.02502,0.00671,-0.03952
5.7575,-0.00336,-0.04089,-0.03403,-0.01053,-0.03189,-0.04761,0.01862,-0.02045,-0.01373,-0.04486,-0.01877,0.02945,-0.03571,0.00412,0.00748,-0.03815
5.758,-0.00366,-0.04181,-0.03204,-0.01129,-0.03448,-0.03586,0.03586,-0.01678,-0.0177,-0.03769,-0.01633,0.03067,-0.03799,-0.01221,0.00763,-0.03815
5.7585,-0.0029,-0.04272,-0.03189,-0.0119,-0.03464,-0.02487,0.03906,-0.01526,-0.0206,-0.0322,-0.01526,0.02914,-0.04181,-0.00977,0.00916,-0.03998
5.759,-0.00229,-0.04272,-0.03372,-0.0119,-0.03571,-0.01862,0.03357,-0.01541,-0.01953,-0.03189,-0.01663,0.02701,-0.0444,-0.00427,0.00916,-0.04379
5.7595,-0.00198,-0.04166,-0.03464,-0.01129,-0.03601,-0.01511,0.02792,-0.01221,-0.01526,-0.03265,-0.01877,0.02686,-0.04242,-0.01328,0.00885,-0.04715
5.76,-0.00153,-0.03998,-0.03403,-0.00946,-0.03632,-0.0119,0.02319,-0.00473,-0.01205,-0.03098,-0.02121,0.0267,-0.03342,-0.02731,0.00809,-0.04623
5.7605,-0.00122,-0.03922,-0.03189,-0.0087,-0.03555,-0.01312,0.01175,0.00076,-0.01205,-0.02747,-0.02167,0.02426,-0.02274,-0.0264,0.00778,-0.0441
5.761,-0.00107,-0.03983,-0.0322,-0.009,-0.03662,-0.0264,-0.01114,-0.00061,-0.01328,-0.02213,-0.01999,0.01892,-0.01633,-0.00504,0.00778,-0.04333
5.7615,0.0,-0.04089,-0.03296,-0.01053,-0.03815,-0.05356,-0.03326,-0.00397,-0.0148,-0.01663,-0.01724,0.01312,-0.01755,0.02121,0.00641,-0.04379
5.762,0.00107,-0.0415,-0.03372,-0.01144,-0.04089,-0.08865,-0.03784,-0.0061,-0.01663,-0.01251,-0.01633,0.00916,-0.01923,0.03143,0.00549,-0.04501
5.7625,0.00137,-0.04135,-0.03281,-0.01205,-0.04532,-0.12283,-0.02411,-0.00549,-0.01785,-0.01175,-0.01633,0.00687,-0.01205,0.01434,0.00549,-0.04684
5.763,-0.00061,-0.0412,-0.03143,-0.00992,-0.05035,-0.1358,-0.01068,-0.00534,-0.01709,-0.01144,-0.01724,0.00534,0.00763,-0.01205,0.00748,-0.04852
5.7635,-0.00275,-0.04089,-0.03128,-0.00702,-0.04944,-0.11261,-0.00946,-0.00748,-0.01495,-0.01114,-0.01953,0.0032,0.03387,-0.02502,0.01053,-0.04898
5.764,-0.00427,-0.04181,-0.03128,-0.00519,-0.03616,-0.06927,-0.02228,-0.00946,-0.01343,-0.00977,-0.02121,0.00076,0.05127,-0.0209,0.01266,-0.047
5.7645,-0.00549,-0.04211,-0.02823,-0.0061,-0.01205,-0.04028,-0.03677,-0.00977,-0.01251,-0.01022,-0.02213,-0.00183,0.04166,-0.01389,0.01282,-0.04517
5.765,-0.00687,-0.0412,-0.02625,-0.009,0.01419,-0.03922,-0.04471,-0.009,-0.01221,-0.01297,-0.01999,-0.00427,0.00717,-0.01556,0.01144,-0.04364
5.7655,-0.00961,-0.03967,-0.02335,-0.01053,0.03143,-0.05035,-0.04608,-0.00916,-0.0116,-0.01602,-0.01755,-0.00656,-0.0293,-0.02289,0.009,-0.04303
5.766,-0.01266,-0.03891,-0.01831,-0.01083,0.03815,-0.05386,-0.0412,-0.00839,-0.01099,-0.01907,-0.01663,-0.01007,-0.0441,-0.03082,0.00778,-0.04425
5.7665,-0.01602,-0.03891,-0.01205,-0.00916,0.02838,-0.04974,-0.03128,-0.00671,-0.01083,-0.0206,-0.01755,-0.01358,-0.03693,-0.0386,0.00778,-0.04456
5.767,-0.01709,-0.03998,-0.00931,-0.009,-0.00519,-0.047,-0.0209,-0.00381,-0.01083,-0.02182,-0.01938,-0.01663,-0.0322,-0.04669,0.00824,-0.04456
5.7675,-0.01511,-0.04105,-0.01312,-0.00946,-0.0618,-0.047,-0.01373,-0.00397,-0.01099,-0.02289,-0.02182,-0.01602,-0.04807,-0.05371,0.00885,-0.04364
5.768,-0.01221,-0.04105,-0.02014,-0.01007,-0.10773,-0.04654,-0.00839,-0.00443,-0.01175,-0.02151,-0.02289,-0.01236,-0.07278,-0.05554,0.01022,-0.04288
5.7685,-0.01007,-0.03998,-0.02426,-0.009,-0.112,-0.04593,-0.00305,-0.00259,-0.01297,-0.01816,-0.0209,-0.00839,-0.09033,-0.05035,0.01038,-0.04196
5.769,-0.00961,-0.03983,-0.02686,-0.00641,-0.07767,-0.04578,0.00076,0.00244,-0.01419,-0.01419,-0.01892,-0.00763,-0.09857,-0.04196,0.009,-0.04288
5.7695,-0.00839,-0.0412,-0.03128,-0.00366,-0.04349,-0.047,0.00015,0.00763,-0.01419,-0.01144,-0.01877,-0.0061,-0.10818,-0.0325,0.00687,-0.04318
5.77,-0.0061,-0.0412,-0.03693,-0.00259,-0.03372,-0.0473,-0.00519,0.0116,-0.01312,-0.0119,-0.01785,-0.00351,-0.11917,-0.02151,0.00641,-0.04364
5.7705,-0.00031,-0.04028,-0.04303,-0.00351,-0.04166,-0.04745,-0.01175,0.01022,-0.01297,-0.01266,-0.01434,-0.00031,-0.11734,-0.00076,0.00717,-0.04211
5.771,0.01175,-0.04013,-0.0473,-0.00687,-0.04791,-0.04868,-0.0145,0.00763,-0.01282,-0.01297,-0.01099,0.0,-0.09415,0.02884,0.00854,-0.03983
5.7715,0.02884,-0.04074,-0.04898,-0.00916,-0.04547,-0.05142,-0.01434,0.00519,-0.01266,-0.0119,-0.01083,-0.00214,-0.06027,0.04364,0.00977,-0.03845
5.772,0.04227,-0.04196,-0.05096,-0.00992,-0.03784,-0.05783,-0.01373,0.00305,-0.01434,-0.01038,-0.0145,-0.00381,-0.0383,0.01984,0.009,-0.03799
5.7725,0.04227,-0.04379,-0.05219,-0.01022,-0.03113,-0.06592,-0.01556,0.00031,-0.0148,-0.00916,-0.0174,-0.00381,-0.03601,-0.02594,0.00763,-0.03952
5.773,0.02899,-0.04562,-0.05142,-0.01022,-0.02808,-0.0676,-0.01724,-0.00107,-0.01617,-0.00778,-0.01984,-0.00305,-0.04074,-0.04929,0.00778,-0.04013
5.7735,0.0116,-0.04639,-0.04944,-0.00992,-0.02838,-0.05951,-0.0174,-0.00092,-0.01495,-0.00717,-0.02823,-0.00259,-0.03891,-0.03738,0.0087,-0.03998
5.774,-0.00168,-0.04684,-0.04913,-0.01038,-0.03159,-0.0499,-0.01526,-0.00031,-0.01297,-0.00854,-0.04684,-0.00244,-0.03006,-0.01801,0.00885,-0.0383
5.7745,-0.01114,-0.04669,-0.05234,-0.01175,-0.03632,-0.04868,-0.0145,-0.00092,-0.00946,-0.0119,-0.06683,-0.0029,-0.01999,-0.01602,0.00809,-0.03708
5.775,-0.0174,-0.04654,-0.05539,-0.01251,-0.04044,-0.05341,-0.01556,-0.00214,-0.00702,-0.0145,-0.07538,-0.0032,-0.01404,-0.02213,0.00748,-0.03555
5.7755,-0.02182,-0.04608,-0.05508,-0.01068,-0.04318,-0.05554,-0.01709,-0.00168,-0.00702,-0.01511,-0.06912,-0.0032,-0.01099,-0.02213,0.00656,-0.03616
5.776,-0.02518,-0.04547,-0.05035,-0.00931,-0.04425,-0.04822,-0.01907,-0.00015,-0.00732,-0.01434,-0.056,-0.00244,-0.00854,-0.01709,0.00717,-0.03571
5.7765,-0.02655,-0.04486,-0.04288,-0.0087,-0.04684,-0.0325,-0.01923,0.00107,-0.00702,-0.01434,-0.04211,-0.00122,-0.00351,-0.01602,0.00977,-0.03464
5.777,-0.02777,-0.04364,-0.03403,-0.00977,-0.04883,-0.01511,-0.01984,0.00183,-0.00732,-0.01526,-0.03006,0.00076,0.00458,-0.01923,0.01007,-0.03357
5.7775,-0.02945,-0.04333,-0.02731,-0.01007,-0.04944,-0.00748,-0.02075,0.00137,-0.00992,-0.01785,-0.02243,0.00107,0.00916,-0.01984,0.00885,-0.03464
5.778,-0.02899,-0.04227,-0.02487,-0.00946,-0.04456,-0.01328,-0.01953,-0.00031,-0.01297,-0.01953,-0.0209,0.00015,0.00427,-0.01602,0.00793,-0.03693
5.7785,-0.02609,-0.0415,-0.02747,-0.00809,-0.03693,-0.02747,-0.0177,-0.00381,-0.01541,-0.02029,-0.02304,-0.00092,-0.0087,-0.01114,0.00961,-0.03769
5.779,-0.0206,-0.04211,-0.03235,-0.00778,-0.03128,-0.03784,-0.01633,-0.00519,-0.01633,-0.02121,-0.02319,-0.0029,-0.02472,-0.00931,0.00992,-0.03632
5.7795,-0.01572,-0.0415,-0.03601,-0.00732,-0.02869,-0.04227,-0.01602,-0.00412,-0.01587,-0.02289,-0.02304,-0.00336,-0.03952,-0.00961,0.00992,-0.03571
5.78,-0.01343,-0.03906,-0.03922,-0.00717,-0.02731,-0.04196,-0.01709,-0.00198,-0.01419,-0.02365,-0.02151,-0.00198,-0.05234,-0.01282,0.00916,-0.03708
5.7805,-0.01144,-0.03693,-0.0412,-0.00656,-0.02655,-0.04166,-0.01968,-0.00168,-0.0145,-0.0235,-0.02426,0.00122,-0.06073,-0.01755,0.00809,-0.03922
5.781,-0.00961,-0.03723,-0.04257,-0.00717,-0.02548,-0.04135,-0.02228,-0.00412,-0.01633,-0.02365,-0.02975,0.00214,-0.05997,-0.02121,0.00839,-0.03922
5.7815,-0.00656,-0.03983,-0.04257,-0.00748,-0.02441,-0.04105,-0.02243,-0.00641,-0.01816,-0.02472,-0.0325,0.00122,-0.04623,-0.02106,0.00793,-0.03815
5.782,-0.00366,-0.04242,-0.04196,-0.0061,-0.02457,-0.04013,-0.0209,-0.00565,-0.01968,-0.02625,-0.03113,0.00061,-0.02792,-0.01709,0.00687,-0.03815
5.7825,-0.00183,-0.04425,-0.0386,-0.00473,-0.02518,-0.04013,-0.01801,-0.00259,-0.02106,-0.02792,-0.02777,0.00153,-0.01678,-0.01022,0.00626,-0.03952
5.783,0.0,-0.04456,-0.03616,-0.0058,-0.02609,-0.04044,-0.01678,-0.00092,-0.02289,-0.02701,-0.02548,0.00183,-0.01801,-0.00458,0.00565,-0.04211
5.7835,0.00229,-0.04349,-0.0351,-0.00793,-0.0264,-0.03922,-0.01678,-0.00183,-0.02441,-0.0238,-0.02441,0.00183,-0.02426,-0.00351,0.00549,-0.04211
5.784,0.00351,-0.04242,-0.03479,-0.00992,-0.02686,-0.03769,-0.01694,-0.0032,-0.02686,-0.01862,-0.02533,0.00229,-0.02548,-0.00626,0.00427,-0.04044
5.7845,0.00336,-0.04135,-0.03372,-0.01022,-0.02747,-0.03876,-0.01678,-0.00473,-0.02899,-0.0145,-0.02884,0.00381,-0.01617,-0.00916,0.00336,-0.0386
5.785,0.00244,-0.04059,-0.03174,-0.00839,-0.02747,-0.04181,-0.01495,-0.00534,-0.03052,-0.01312,-0.03357,0.00565,-0.00198,-0.00961,0.00275,-0.03891
5.7855,0.00259,-0.03937,-0.03021,-0.00809,-0.02472,-0.04333,-0.01312,-0.00458,-0.03113,-0.01236,-0.03616,0.00687,0.00504,-0.00656,0.00229,-0.03967
5.786,0.00229,-0.03937,-0.02975,-0.00763,-0.02167,-0.0441,-0.01129,-0.00427,-0.03036,-0.00824,-0.0354,0.00504,-0.00092,0.0,0.00336,-0.04089
5.7865,-0.00137,-0.03983,-0.03052,-0.00839,-0.01877,-0.04578,-0.0116,-0.00381,-0.02792,-0.00412,-0.03235,0.00259,-0.01511,0.01007,0.00549,-0.04181
5.787,-0.00534,-0.03967,-0.03082,-0.00778,-0.0174,-0.04684,-0.01648,-0.00443,-0.02594,-0.00443,-0.03128,0.00061,-0.02838,0.01221,0.00778,-0.04257
5.7875,-0.0058,-0.03876,-0.03189,-0.0061,-0.01419,-0.04318,-0.02594,-0.00549,-0.0235,-0.00854,-0.03143,0.0,-0.0383,-0.00885,0.00931,-0.0415
5.788,-0.00305,-0.03799,-0.03265,-0.00504,-0.01144,-0.03815,-0.03296,-0.0061,-0.02121,-0.01251,-0.03113,0.00046,-0.04883,-0.05219,0.00977,-0.03998
5.7885,-0.00046,-0.03708,-0.03113,-0.00732,-0.01007,-0.03754,-0.03021,-0.00443,-0.01923,-0.01251,-0.03052,0.00046,-0.06027,-0.08667,0.00961,-0.03891
5.789,-0.00076,-0.03708,-0.0296,-0.01099,-0.00992,-0.04074,-0.01984,-0.00259,-0.01663,-0.01175,-0.0293,0.00046,-0.06836,-0.0853,0.01022,-0.03952
5.7895,-0.00168,-0.03662,-0.02853,-0.0119,-0.01114,-0.0444,-0.01099,-0.00015,-0.01373,-0.01114,-0.03036,0.00061,-0.0705,-0.05707,0.01175,-0.03937
5.79,-0.00412,-0.0354,-0.02853,-0.00992,-0.01144,-0.03952,-0.00565,0.00015,-0.00946,-0.01419,-0.03189,0.00183,-0.06393,-0.03464,0.0119,-0.03967
5.7905,-0.00748,-0.03525,-0.03159,-0.00732,-0.01129,-0.01968,-0.00214,-0.00046,-0.00763,-0.01801,-0.03204,0.00122,-0.04852,-0.0293,0.01038,-0.03876
5.791,-0.01022,-0.03693,-0.03494,-0.00656,-0.01266,0.01266,0.00153,-0.00122,-0.00687,-0.01953,-0.02853,0.0,-0.02853,-0.02823,0.00809,-0.03937
5.7915,-0.00931,-0.0383,-0.03586,-0.00641,-0.01755,0.0412,0.00259,-0.00305,-0.00732,-0.01862,-0.02396,-0.00122,-0.01556,-0.02228,0.00809,-0.04074
5.792,-0.00595,-0.03906,-0.03586,-0.0058,-0.02304,0.0441,-0.00153,-0.00427,-0.00793,-0.0174,-0.02167,-0.00183,-0.01312,-0.01816,0.00931,-0.04013
5.7925,-0.00443,-0.03967,-0.03601,-0.0061,-0.02731,0.02518,-0.00778,-0.00397,-0.009,-0.01831,-0.02167,-0.00168,-0.01633,-0.01999,0.01053,-0.03906
5.793,-0.00412,-0.03967,-0.03662,-0.00717,-0.03036,0.00244,-0.01236,-0.00412,-0.00946,-0.02136,-0.02151,-0.00275,-0.01724,-0.02182,0.01083,-0.0383
5.7935,-0.00381,-0.03937,-0.03494,-0.00702,-0.03265,-0.01617,-0.01434,-0.00488,-0.01099,-0.02365,-0.02167,-0.00473,-0.01312,-0.0209,0.01114,-0.04013
5.794,-0.00183,-0.0383,-0.03082,-0.00656,-0.03571,-0.03952,-0.01419,-0.00488,-0.01297,-0.02411,-0.02151,-0.00504,-0.00427,-0.01953,0.00961,-0.04257
5.7945,-0.00153,-0.03738,-0.02808,-0.00687,-0.03754,-0.08438,-0.01343,-0.00504,-0.01328,-0.02457,-0.02228,-0.00366,0.00717,-0.01923,0.00778,-0.04318
5.795,-0.00259,-0.03708,-0.02701,-0.00763,-0.03983,-0.14664,-0.01358,-0.00504,-0.01099,-0.02472,-0.02243,-0.00122,0.01373,-0.01907,0.00763,-0.04196
5.7955,-0.0029,-0.03754,-0.02808,-0.00916,-0.04272,-0.20248,-0.01266,-0.00366,-0.00839,-0.02533,-0.02182,0.00092,0.00824,-0.01907,0.009,-0.04089
5.796,-0.00183,-0.03723,-0.02884,-0.00946,-0.04456,-0.22293,-0.01205,-0.00244,-0.009,-0.02457,-0.02075,0.00244,-0.01144,-0.01968,0.00931,-0.04242
5.7965,-0.00046,-0.03693,-0.0293,-0.00977,-0.04349,-0.19699,-0.01129,-0.00259,-0.01221,-0.02396,-0.02136,0.00183,-0.03464,-0.02045,0.00961,-0.04639
5.797,0.00076,-0.03815,-0.03006,-0.01007,-0.03891,-0.13733,-0.01129,-0.00259,-0.01419,-0.02228,-0.02426,0.00046,-0.05081,-0.01831,0.01022,-0.04868
5.7975,-0.00061,-0.03998,-0.0296,-0.00992,-0.03403,-0.07492,-0.01373,-0.00381,-0.01205,-0.02014,-0.02533,-0.00076,-0.05859,-0.01053,0.00992,-0.04837
5.798,-0.00168,-0.04181,-0.02762,-0.00931,-0.03113,-0.03708,-0.01633,-0.00443,-0.00946,-0.01831,-0.02319,-0.00244,-0.05737,-0.00244,0.00809,-0.04547
5.7985,-0.00214,-0.04227,-0.02533,-0.00961,-0.03235,-0.02686,-0.0177,-0.00549,-0.00763,-0.0177,-0.01724,-0.00351,-0.04868,-0.00137,0.00702,-0.04715
5.799,-0.0029,-0.04166,-0.02548,-0.00977,-0.03464,-0.02853,-0.01862,-0.00595,-0.00717,-0.01633,-0.01282,-0.00305,-0.03433,-0.00763,0.00778,-0.04807
5.7995,-0.00397,-0.04089,-0.02838,-0.00961,-0.0354,-0.03098,-0.01755,-0.00488,-0.0061,-0.01282,-0.00916,-0.00168,-0.02197,-0.01434,0.00992,-0.04715
5.8,-0.00458,-0.03983,-0.03265,-0.00763,-0.03433,-0.03174,-0.01495,-0.00336,-0.00656,-0.00961,-0.00488,0.00137,-0.01892,-0.01617,0.01053,-0.0444
5.8005,-0.00565,-0.03937,-0.03799,-0.00549,-0.03433,-0.03342,-0.01068,-0.00229,-0.01114,-0.01053,-0.00061,0.00336,-0.02426,-0.01556,0.01129,-0.04318
5.801,-0.00748,-0.03891,-0.0444,-0.00534,-0.03571,-0.03525,-0.00793,-0.00214,-0.01984,-0.01389,-0.00107,0.00336,-0.03296,-0.01526,0.01129,-0.04562
5.8015,-0.00992,-0.03967,-0.04684,-0.00626,-0.03601,-0.03876,-0.00793,-0.00305,-0.02625,-0.01678,-0.00519,0.00214,-0.03677,-0.01617,0.00977,-0.04791
5.802,-0.01282,-0.04013,-0.04425,-0.00778,-0.03433,-0.04257,-0.0087,-0.00244,-0.02838,-0.02014,-0.00793,0.00092,-0.03922,-0.01816,0.0087,-0.04776
5.8025,-0.01343,-0.03983,-0.0386,-0.01007,-0.03174,-0.04517,-0.01022,-0.00336,-0.02853,-0.0235,-0.00488,-0.00076,-0.04059,-0.01984,0.00916,-0.04547
5.803,-0.01099,-0.03906,-0.03311,-0.01175,-0.03006,-0.04517,-0.01083,-0.0058,-0.02869,-0.02747,-0.00031,0.0,-0.04105,-0.02045,0.01251,-0.04333
5.8035,-0.00702,-0.0386,-0.03189,-0.01221,-0.03052,-0.04669,-0.01053,-0.00702,-0.02853,-0.03143,0.00137,0.00214,-0.03906,-0.0206,0.01511,-0.04257
5.804,-0.00443,-0.04059,-0.03479,-0.01114,-0.03204,-0.05188,-0.01175,-0.00443,-0.02548,-0.03296,-0.0032,0.00504,-0.03677,-0.01953,0.01617,-0.04288
5.8045,-0.00443,-0.04349,-0.03891,-0.00961,-0.03342,-0.05768,-0.01434,-0.00061,-0.01938,-0.03281,-0.01236,0.00595,-0.03647,-0.01816,0.01511,-0.04242
5.805,-0.00488,-0.04684,-0.04242,-0.00977,-0.03448,-0.05814,-0.01617,0.00137,-0.01144,-0.03113,-0.01907,0.0061,-0.03769,-0.01678,0.0145,-0.0412
5.8055,-0.0029,-0.04852,-0.04486,-0.01114,-0.03555,-0.05386,-0.01709,-0.00046,-0.00244,-0.0267,-0.01938,0.00549,-0.03708,-0.0148,0.01358,-0.03998
5.806,0.0,-0.04944,-0.04486,-0.01221,-0.03708,-0.05051,-0.01556,-0.00305,0.00427,-0.02182,-0.01846,0.00519,-0.03525,-0.01328,0.0119,-0.04028
5.8065,0.0032,-0.05005,-0.04196,-0.0119,-0.03754,-0.05081,-0.01312,-0.00244,0.00687,-0.0177,-0.02167,0.00534,-0.03387,-0.01328,0.00885,-0.04181
5.807,0.00473,-0.04944,-0.03555,-0.01144,-0.03555,-0.04776,-0.01266,0.00076,0.00427,-0.01617,-0.02884,0.00443,-0.03479,-0.0145,0.00595,-0.04349
5.8075,0.00412,-0.04822,-0.03006,-0.00977,-0.03448,-0.04166,-0.0116,0.00107,0.00015,-0.01587,-0.03372,0.0029,-0.03693,-0.01572,0.00549,-0.04166
5.808,0.00305,-0.04715,-0.02792,-0.00854,-0.03571,-0.03601,-0.00992,-0.00107,-0.00504,-0.01526,-0.03342,0.00122,-0.03769,-0.01801,0.00839,-0.0386
5.8085,0.00092,-0.0473,-0.02777,-0.00702,-0.0351,-0.03555,-0.00732,-0.00427,-0.00992,-0.01389,-0.03128,0.00183,-0.03586,-0.01938,0.00916,-0.03754
5.809,-0.00153,-0.04715,-0.02777,-0.00717,-0.03479,-0.03723,-0.0061,-0.0061,-0.01404,-0.01236,-0.02747,0.00366,-0.03372,-0.01831,0.00824,-0.03983
5.8095,-0.00458,-0.04562,-0.02625,-0.00671,-0.03479,-0.03479,-0.00641,-0.00702,-0.01755,-0.01282,-0.02274,0.00412,-0.03281,-0.01526,0.00748,-0.04105
5.81,-0.01068,-0.04242,-0.02502,-0.0058,-0.03525,-0.02914,-0.00809,-0.00504,-0.0206,-0.01251,-0.01755,0.00336,-0.03265,-0.01389,0.00839,-0.03998
5.8105,-0.01556,-0.04074,-0.02518,-0.00687,-0.03662,-0.02609,-0.01099,-0.0032,-0.02457,-0.01144,-0.01144,0.00214,-0.03296,-0.01602,0.00916,-0.03952
5.811,-0.01602,-0.03922,-0.0264,-0.00916,-0.03754,-0.02853,-0.01434,-0.00229,-0.02747,-0.0116,-0.00366,0.00153,-0.0325,-0.01923,0.00839,-0.0412
5.8115,-0.01022,-0.03586,-0.02747,-0.01053,-0.03845,-0.03311,-0.0145,-0.00244,-0.02838,-0.01312,0.00473,0.00107,-0.03143,-0.01999,0.00732,-0.04669
5.812,-0.00595,-0.03311,-0.02869,-0.01038,-0.03708,-0.03708,-0.01343,-0.00305,-0.02625,-0.01434,0.01617,-0.00031,-0.03189,-0.01801,0.00748,-0.04868
5.8125,-0.00824,-0.0322,-0.03159,-0.00977,-0.0354,-0.0386,-0.01175,-0.00259,-0.02213,-0.01587,0.02945,-0.00244,-0.03174,-0.01724,0.00885,-0.04822
5.813,-0.01236,-0.03082,-0.03525,-0.00961,-0.03433,-0.03891,-0.01083,-0.00229,-0.01831,-0.01633,0.04181,-0.00412,-0.03082,-0.01862,0.00824,-0.04639
5.8135,-0.01297,-0.02914,-0.03784,-0.01007,-0.03342,-0.04028,-0.01129,-0.00351,-0.01587,-0.01633,0.04822,-0.00366,-0.02914,-0.02014,0.00626,-0.04578
5.814,-0.0087,-0.02823,-0.03723,-0.01144,-0.03265,-0.04166,-0.01175,-0.00488,-0.0145,-0.01587,0.04333,-0.00275,-0.0296,-0.02045,0.00504,-0.04547
5.8145,-0.0029,-0.02975,-0.03448,-0.01114,-0.03006,-0.04303,-0.01312,-0.00565,-0.01419,-0.01511,0.03494,-0.00366,-0.03311,-0.01923,0.00671,-0.0444
5.815,0.0,-0.03311,-0.0325,-0.00824,-0.02747,-0.0444,-0.01312,-0.00473,-0.01419,-0.01511,0.02853,-0.00504,-0.03601,-0.01984,0.00565,-0.04379
5.8155,0.00046,-0.03555,-0.0322,-0.00504,-0.02502,-0.04715,-0.01266,-0.00336,-0.01389,-0.01602,0.02274,-0.00565,-0.03632,-0.02151,0.00412,-0.0444
5.816,-0.00153,-0.03677,-0.03204,-0.00412,-0.02274,-0.05142,-0.0116,-0.00336,-0.01541,-0.0177,0.01541,-0.00488,-0.03616,-0.02319,0.00305,-0.04425
5.8165,-0.00473,-0.03708,-0.03113,-0.00504,-0.02182,-0.05585,-0.01251,-0.0029,-0.01602,-0.01846,0.00702,-0.00534,-0.03647,-0.02304,0.00458,-0.04349
5.817,-0.01068,-0.03677,-0.03052,-0.00549,-0.02151,-0.0531,-0.01389,-0.00443,-0.01495,-0.01678,0.00366,-0.00595,-0.03525,-0.02274,0.00671,-0.04272
5.8175,-0.01602,-0.03815,-0.03204,-0.00549,-0.02243,-0.04135,-0.01404,-0.0061,-0.01266,-0.01297,0.00671,-0.0058,-0.03387,-0.02289,0.00504,-0.04257
5.818,-0.01633,-0.03998,-0.03357,-0.00427,-0.02335,-0.02731,-0.01312,-0.00687,-0.01083,-0.01114,0.01007,-0.00519,-0.03342,-0.02106,0.00443,-0.04272
5.8185,-0.01221,-0.04425,-0.03586,-0.00366,-0.02472,-0.01678,-0.01251,-0.00595,-0.01007,-0.01144,0.00824,-0.00336,-0.03372,-0.02014,0.00473,-0.04242
5.819,-0.00732,-0.04852,-0.03784,-0.00229,-0.02518,-0.01572,-0.01556,-0.00488,-0.01068,-0.01373,0.00168,-0.00153,-0.03387,-0.01923,0.00504,-0.04303
5.8195,-0.0058,-0.05234,-0.03815,0.0029,-0.02609,-0.02029,-0.01663,-0.00351,-0.01236,-0.01556,-0.00412,0.00122,-0.03143,-0.01923,0.00595,-0.04227
5.82,-0.00824,-0.05432,-0.03815,0.00961,-0.02716,-0.0296,-0.01495,-0.00214,-0.01587,-0.01633,-0.00656,0.0032,-0.02792,-0.01831,0.00824,-0.04227
5.8205,-0.01144,-0.05478,-0.0383,0.00748,-0.02731,-0.0386,-0.01434,-0.00229,-0.01923,-0.01709,-0.00931,0.0029,-0.02716,-0.0174,0.01007,-0.04318
5.821,-0.01114,-0.05463,-0.04257,-0.01526,-0.02731,-0.04486,-0.01526,-0.00336,-0.01984,-0.01907,-0.01297,0.00153,-0.02762,-0.01724,0.01221,-0.0444
5.8215,-0.00519,-0.05447,-0.04623,-0.0531,-0.02686,-0.04898,-0.01541,-0.00412,-0.01801,-0.02121,-0.01495,0.00183,-0.02899,-0.01877,0.01343,-0.04318
5.822,0.00412,-0.05417,-0.04578,-0.07782,-0.02579,-0.05936,-0.0145,-0.00275,-0.01526,-0.02396,-0.01572,0.00473,-0.02808,-0.01953,0.01358,-0.04044
5.8225,0.01144,-0.05463,-0.04059,-0.0679,-0.02548,-0.07492,-0.01343,-0.00153,-0.0145,-0.02701,-0.01831,0.00626,-0.0264,-0.01907,0.01175,-0.0386
5.823,0.0145,-0.05615,-0.03525,-0.03723,-0.02533,-0.08255,-0.01266,-0.00061,-0.01495,-0.0264,-0.02762,0.00504,-0.02487,-0.01648,0.00824,-0.03891
5.8235,0.01312,-0.05585,-0.0351,-0.01526,-0.02563,-0.07187,-0.01205,0.0,-0.01572,-0.02167,-0.04562,0.00275,-0.02396,-0.0145,0.00275,-0.04044
5.824,0.01038,-0.05417,-0.03555,-0.01022,-0.02594,-0.05325,-0.01251,0.0,-0.01617,-0.01877,-0.06683,0.00107,-0.02518,-0.01572,0.00076,-0.04288
5.8245,0.00763,-0.05112,-0.03372,-0.00748,-0.02777,-0.04333,-0.01312,0.0,-0.01556,-0.01984,-0.08423,0.00122,-0.02823,-0.01846,0.00229,-0.04456
5.825,0.00595,-0.0473,-0.02945,-0.00061,-0.02914,-0.04471,-0.01328,0.00015,-0.01556,-0.02243,-0.09018,0.00244,-0.03113,-0.02029,0.0058,-0.04654
5.8255,0.00366,-0.04364,-0.02457,0.00397,-0.02747,-0.04974,-0.01343,-0.00168,-0.0145,-0.02411,-0.08865,0.00412,-0.03265,-0.01968,0.00824,-0.04578
5.826,0.00107,-0.03937,-0.02182,0.00076,-0.02579,-0.0502,-0.01282,-0.00366,-0.01312,-0.02411,-0.08682,0.00458,-0.03403,-0.01816,0.00977,-0.04486
5.8265,-0.00046,-0.03632,-0.02029,-0.00565,-0.02518,-0.0502,-0.0116,-0.00549,-0.01282,-0.02045,-0.0882,0.00168,-0.03586,-0.01648,0.01022,-0.04425
5.827,-0.00076,-0.03632,-0.01862,-0.00961,-0.02609,-0.04929,-0.01129,-0.00488,-0.01282,-0.0174,-0.08499,-0.00061,-0.03677,-0.01709,0.00839,-0.04379
5.8275,-0.00198,-0.0386,-0.01816,-0.01343,-0.02747,-0.04913,-0.01022,-0.00443,-0.01373,-0.01694,-0.07248,-0.00198,-0.03632,-0.01816,0.0087,-0.04364
5.828,-0.00549,-0.04028,-0.01877,-0.01785,-0.02701,-0.04761,-0.01022,-0.00519,-0.01465,-0.01678,-0.04974,-0.00412,-0.03754,-0.01907,0.00839,-0.04364
5.8285,-0.00946,-0.04181,-0.01999,-0.02258,-0.02487,-0.04623,-0.01221,-0.00549,-0.01556,-0.01678,-0.02518,-0.0087,-0.03937,-0.01831,0.00809,-0.04532
5.829,-0.01236,-0.04089,-0.02289,-0.02304,-0.02396,-0.04623,-0.01373,-0.00458,-0.01526,-0.01556,-0.00305,-0.01373,-0.03967,-0.01343,0.00809,-0.04623
5.8295,-0.01083,-0.03952,-0.0264,-0.01678,-0.0238,-0.04776,-0.01419,0.00092,-0.01495,-0.0145,0.0177,-0.01602,-0.03952,-0.00534,0.00824,-0.04562
5.83,-0.00778,-0.0383,-0.02731,-0.00824,-0.02396,-0.05157,-0.01205,0.00504,-0.01541,-0.0145,0.03632,-0.0177,-0.03922,-0.00305,0.00946,-0.04318
5.8305,-0.00549,-0.03769,-0.02411,-0.00229,-0.02396,-0.05798,-0.01144,0.00702,-0.01633,-0.01709,0.04974,-0.01877,-0.03998,-0.01129,0.00977,-0.04196
5.831,-0.00534,-0.03876,-0.02075,0.00061,-0.0238,-0.06226,-0.01205,0.00626,-0.01678,-0.01984,0.05524,-0.01862,-0.03876,-0.02106,0.00992,-0.04089
5.8315,-0.00732,-0.03937,-0.02213,0.00519,-0.02457,-0.06042,-0.01205,0.00443,-0.01511,-0.02167,0.05081,-0.01358,-0.03799,-0.02045,0.00961,-0.04013
5.832,-0.01144,-0.03845,-0.02808,0.01236,-0.02579,-0.05386,-0.01099,0.00305,-0.01251,-0.01984,0.03983,-0.0032,-0.03693,-0.00916,0.00839,-0.03998
5.8325,-0.01648,-0.03647,-0.03265,0.01785,-0.03006,-0.04944,-0.01007,-0.00015,-0.01038,-0.01678,0.02411,0.009,-0.03448,0.00488,0.00748,-0.04196
5.833,-0.01633,-0.03555,-0.03479,0.01846,-0.03586,-0.0499,-0.01099,-0.00656,-0.01205,-0.01465,0.00488,0.01923,-0.03128,0.009,0.00732,-0.04456
5.8335,-0.01068,-0.03662,-0.0354,0.01678,-0.0412,-0.05234,-0.01404,-0.01328,-0.01587,-0.01282,-0.01205,0.02319,-0.03067,-0.01007,0.00778,-0.04471
5.834,-0.00336,-0.03784,-0.03662,0.01419,-0.0444,-0.05173,-0.01556,-0.01495,-0.01846,-0.01389,-0.02808,0.02304,-0.03311,-0.05661,0.00839,-0.04486
5.8345,0.0,-0.03876,-0.03937,0.00778,-0.04532,-0.047,-0.01511,-0.00824,-0.01846,-0.01602,-0.03937,0.02304,-0.03586,-0.10452,0.00809,-0.04562
5.835,-0.00137,-0.03754,-0.04364,-0.00443,-0.04562,-0.04166,-0.01266,-0.00122,-0.01755,-0.01923,-0.04089,0.02472,-0.03601,-0.11749,0.0061,-0.04547
5.8355,-0.00565,-0.03586,-0.04791,-0.01816,-0.04456,-0.03876,-0.01007,0.00061,-0.01648,-0.02136,-0.03067,0.0238,-0.0354,-0.09064,0.00534,-0.04486
5.836,-0.00931,-0.03494,-0.04898,-0.02625,-0.04349,-0.03815,-0.00992,-0.00015,-0.01572,-0.02106,-0.01923,0.01907,-0.03601,-0.04959,0.0061,-0.0444
5.8365,-0.01144,-0.03448,-0.04684,-0.02884,-0.04105,-0.04044,-0.01251,-0.00122,-0.01297,-0.01984,-0.01663,0.0145,-0.03601,-0.01877,0.00641,-0.04303
5.837,-0.00977,-0.03418,-0.04303,-0.0296,-0.0415,-0.0444,-0.01404,-0.00275,-0.00946,-0.01801,-0.01892,0.01251,-0.0354,-0.00351,0.00717,-0.04196
5.8375,-0.00595,-0.03525,-0.03738,-0.02945,-0.04318,-0.04761,-0.01495,-0.00534,-0.00626,-0.0177,-0.01816,0.0116,-0.03418,0.00259,0.00809,-0.0412
5.838,-0.00519,-0.03708,-0.02823,-0.02777,-0.04333,-0.04974,-0.0145,-0.00748,-0.00336,-0.02075,-0.01144,0.00961,-0.03403,0.00473,0.00931,-0.04135
5.8385,-0.00656,-0.03769,-0.0206,-0.02365,-0.04456,-0.05356,-0.0119,-0.0061,-0.00198,-0.02457,-0.00443,0.00458,-0.0354,0.00946,0.01038,-0.04211
5.839,-0.00931,-0.03632,-0.01724,-0.02106,-0.04364,-0.06287,-0.01007,-0.00366,-0.00183,-0.0267,-0.0029,-0.00458,-0.03555,0.0148,0.00992,-0.04166
5.8395,-0.00916,-0.03342,-0.01877,-0.02441,-0.04227,-0.07309,-0.009,-0.00229,-0.00305,-0.02426,-0.00534,-0.0174,-0.03464,0.01053,0.00931,-0.03998
5.84,-0.00656,-0.02975,-0.0209,-0.03159,-0.04059,-0.07889,-0.01022,-0.00336,-0.00458,-0.01938,-0.0061,-0.02625,-0.03235,-0.00381,0.00885,-0.03799
5.8405,-0.00458,-0.02762,-0.02289,-0.03937,-0.04013,-0.0795,-0.01282,-0.00473,-0.00565,-0.0148,-0.00412,-0.02808,-0.03082,-0.01801,0.00946,-0.03799
5.841,-0.0032,-0.02502,-0.02747,-0.0441,-0.03937,-0.08087,-0.01343,-0.00473,-0.00641,-0.01312,-0.00153,-0.0267,-0.02808,-0.02167,0.01144,-0.0386
5.8415,-0.00092,-0.02396,-0.03494,-0.04822,-0.03677,-0.08072,-0.01266,-0.00305,-0.00946,-0.01266,-0.00412,-0.02457,-0.02411,-0.01678,0.01266,-0.03952
5.842,0.00092,-0.02441,-0.04303,-0.05188,-0.0354,-0.08026,-0.01297,-0.00305,-0.01678,-0.01373,-0.01205,-0.0206,-0.02151,-0.01312,0.01282,-0.03937
5.8425,0.00183,-0.0267,-0.05142,-0.05371,-0.03418,-0.07767,-0.01511,-0.00549,-0.02289,-0.01541,-0.02258,-0.01068,-0.02151,-0.01328,0.0119,-0.0383
5.843,0.00351,-0.0293,-0.05814,-0.05173,-0.03342,-0.07126,-0.0174,-0.0061,-0.02701,-0.01846,-0.02777,0.00534,-0.02411,-0.01312,0.01083,-0.03632
5.8435,0.00504,-0.03098,-0.06393,-0.04318,-0.03357,-0.05264,-0.01709,-0.00519,-0.0267,-0.02136,-0.02075,0.02029,-0.02609,-0.01282,0.00946,-0.03525
5.844,0.00641,-0.03204,-0.06668,-0.02533,-0.0351,-0.00595,-0.01373,-0.00381,-0.02472,-0.02518,-0.00107,0.02625,-0.02869,-0.01343,0.00885,-0.03555
5.8445,0.00565,-0.0325,-0.06378,0.00259,-0.03693,0.05417,-0.01099,-0.00305,-0.02365,-0.02716,0.02182,0.01984,-0.03082,-0.01526,0.00931,-0.03815
5.845,0.00397,-0.03372,-0.05692,0.03342,-0.03799,0.0885,-0.01083,-0.00351,-0.02487,-0.02487,0.03906,0.01022,-0.03357,-0.01694,0.00992,-0.04028
5.8455,0.00275,-0.03616,-0.04929,0.04395,-0.0386,0.07294,-0.01266,-0.00458,-0.02853,-0.01877,0.04837,0.00946,-0.03586,-0.01724,0.00946,-0.0415
5.846,0.00229,-0.03754,-0.04517,0.02533,-0.03815,0.03006,-0.01389,-0.00458,-0.03159,-0.01389,0.05539,0.02548,-0.03647,-0.01846,0.00946,-0.04181
5.8465,0.00046,-0.03967,-0.04379,0.00504,-0.0383,0.00061,-0.01297,-0.0029,-0.03387,-0.01266,0.0621,0.04669,-0.03632,-0.0209,0.00916,-0.0412
5.847,-0.00168,-0.04318,-0.04471,0.01877,-0.03754,-0.00702,-0.01007,-0.00244,-0.03326,-0.01282,0.06622,0.05188,-0.03738,-0.02197,0.00961,-0.04074
5.8475,-0.00458,-0.04745,-0.04669,0.05783,-0.03632,-0.02335,-0.00824,-0.00198,-0.0322,-0.01251,0.05829,0.03693,-0.0386,-0.02243,0.01007,-0.04105
5.848,-0.00595,-0.05096,-0.04669,0.07889,-0.03708,-0.06439,-0.00916,-0.00137,-0.03265,-0.01114,0.03372,0.01755,-0.04211,-0.02289,0.00992,-0.0412
5.8485,-0.00473,-0.05356,-0.04349,0.06012,-0.03708,-0.10223,-0.01038,-0.00061,-0.03525,-0.01144,-0.00092,0.00763,-0.04364,-0.02365,0.009,-0.04074
5.849,-0.0032,-0.056,-0.03784,0.02335,-0.03448,-0.09583,-0.01205,-0.00031,-0.03647,-0.01511,-0.03418,0.00626,-0.04333,-0.02365,0.0087,-0.03983
5.8495,-0.00336,-0.05753,-0.03296,0.00122,-0.03189,-0.05417,-0.01373,-0.00031,-0.03265,-0.01984,-0.06134,0.00519,-0.04181,-0.02121,0.00854,-0.03967
5.85,-0.00473,-0.05737,-0.03113,-0.0029,-0.02945,-0.03128,-0.01495,-0.00061,-0.02441,-0.02258,-0.08621,0.00031,-0.0412,-0.01862,0.009,-0.03967
5.8505,-0.00717,-0.05661,-0.03235,-0.00214,-0.02731,-0.05814,-0.0145,-0.00061,-0.01526,-0.02365,-0.11047,-0.00519,-0.04044,-0.01709,0.00946,-0.04089
5.851,-0.00854,-0.05508,-0.03372,-0.00351,-0.02472,-0.10559,-0.01312,-0.00076,-0.00977,-0.02609,-0.12711,-0.00961,-0.03876,-0.01633,0.00824,-0.04196
5.8515,-0.00717,-0.05127,-0.03342,-0.00381,-0.02045,-0.12314,-0.01144,-0.00198,-0.00748,-0.02991,-0.13199,-0.01144,-0.03677,-0.01648,0.00793,-0.04196
5.852,-0.00259,-0.04608,-0.03204,-0.00275,-0.01831,-0.09689,-0.01114,-0.0029,-0.00458,-0.03403,-0.12787,-0.00961,-0.03647,-0.01953,0.00763,-0.0415
5.8525,0.00183,-0.04242,-0.03143,-0.00244,-0.01755,-0.05295,-0.01251,-0.00259,-0.00168,-0.03525,-0.11841,-0.00565,-0.03845,-0.02182,0.00931,-0.03983
5.853,0.00275,-0.04013,-0.03082,-0.00671,-0.01694,-0.02228,-0.01266,-0.00198,-0.00137,-0.03418,-0.103,-0.00275,-0.03876,-0.02213,0.00916,-0.03937
5.8535,0.0,-0.03845,-0.02991,-0.0119,-0.0177,-0.01511,-0.01099,-0.00381,-0.00336,-0.03189,-0.08499,-0.00198,-0.0354,-0.01984,0.009,-0.03952
5.854,-0.0029,-0.03616,-0.0267,-0.0116,-0.01892,-0.02258,-0.00992,-0.00519,-0.00565,-0.03006,-0.07126,-0.00153,-0.0322,-0.01801,0.00839,-0.03876
5.8545,-0.0029,-0.0354,-0.02548,-0.00549,-0.01984,-0.03311,-0.009,-0.00473,-0.0061,-0.02853,-0.06607,0.00092,-0.03174,-0.01633,0.00748,-0.0383
5.855,-0.00168,-0.03601,-0.02731,-0.00076,-0.02106,-0.04028,-0.00916,-0.00366,-0.00549,-0.02594,-0.06516,0.0061,-0.03448,-0.01724,0.00763,-0.03906
5.8555,-0.00076,-0.03708,-0.03021,-0.00214,-0.02243,-0.04349,-0.01038,-0.00381,-0.00473,-0.02213,-0.06516,0.01129,-0.03571,-0.01953,0.00763,-0.03967
5.856,-0.00015,-0.03662,-0.03357,-0.00595,-0.02274,-0.04654,-0.0119,-0.00412,-0.00626,-0.01907,-0.06485,0.01556,-0.03525,-0.02106,0.00778,-0.03906
5.8565,-0.00046,-0.03571,-0.03342,-0.00885,-0.02213,-0.05585,-0.01312,-0.00305,-0.01007,-0.01556,-0.06363,0.01846,-0.03372,-0.0206,0.00824,-0.03784
5.857,-0.0029,-0.03586,-0.03113,-0.01038,-0.02304,-0.07584,-0.01297,-0.00076,-0.01251,-0.01358,-0.06027,0.01816,-0.03159,-0.01892,0.00793,-0.03799
5.8575,-0.00748,-0.03647,-0.02914,-0.01251,-0.02304,-0.09445,-0.01343,0.00015,-0.01328,-0.01129,-0.05539,0.01648,-0.02777,-0.01862,0.00626,-0.04028
5.858,-0.0119,-0.03708,-0.02899,-0.01633,-0.02228,-0.09399,-0.01328,-0.00015,-0.01495,-0.00931,-0.05051,0.01404,-0.02533,-0.01968,0.00473,-0.04257
5.8585,-0.01328,-0.03769,-0.03067,-0.02075,-0.02182,-0.07034,-0.01251,-0.00137,-0.01862,-0.00854,-0.05035,0.01297,-0.02411,-0.02106,0.00488,-0.04303
5.859,-0.01144,-0.0386,-0.0322,-0.02579,-0.02182,-0.04364,-0.01343,-0.00214,-0.02304,-0.00793,-0.05325,0.01282,-0.02579,-0.02151,0.00565,-0.04303
5.8595,-0.00748,-0.03754,-0.03174,-0.02945,-0.02258,-0.03418,-0.01526,-0.00244,-0.02533,-0.00717,-0.05615,0.0116,-0.02762,-0.01968,0.00793,-0.04242
5.86,-0.00427,-0.03479,-0.02869,-0.02991,-0.02319,-0.04013,-0.01709,-0.00259,-0.0264,-0.00641,-0.05814,0.01068,-0.02899,-0.01587,0.00687,-0.04074
5.8605,-0.00397,-0.03387,-0.02686,-0.0296,-0.02411,-0.04517,-0.01801,-0.00137,-0.02686,-0.00854,-0.0621,0.00931,-0.02945,-0.01297,0.00671,-0.04059
5.861,-0.00549,-0.03433,-0.02716,-0.03174,-0.0264,-0.04425,-0.01709,-0.00015,-0.02487,-0.01175,-0.06577,0.00565,-0.03021,-0.01144,0.00763,-0.04059
5.8615,-0.00687,-0.03433,-0.03021,-0.03815,-0.03036,-0.04425,-0.0174,-0.00122,-0.02045,-0.01602,-0.06454,-0.00397,-0.03036,-0.00992,0.00961,-0.04288
5.862,-0.00793,-0.03326,-0.03128,-0.04898,-0.03326,-0.04929,-0.01755,-0.00275,-0.01404,-0.02121,-0.05753,-0.02029,-0.02899,-0.01038,0.00961,-0.0444
5.8625,-0.0087,-0.03235,-0.03067,-0.0676,-0.03372,-0.05356,-0.0177,-0.00397,-0.00992,-0.0267,-0.04486,-0.03693,-0.02853,-0.0119,0.0087,-0.04425
5.863,-0.00717,-0.03311,-0.02853,-0.09018,-0.03159,-0.05295,-0.01724,-0.00504,-0.00885,-0.03159,-0.02975,-0.04745,-0.02792,-0.01266,0.00717,-0.04272
5.8635,-0.00412,-0.03464,-0.02518,-0.10345,-0.02884,-0.04959,-0.01602,-0.0058,-0.01068,-0.03403,-0.01526,-0.05035,-0.02838,-0.01236,0.00778,-0.04089
5.864,-0.00122,-0.0351,-0.02136,-0.09842,-0.02594,-0.04959,-0.01495,-0.00458,-0.01389,-0.03464,-0.00214,-0.04745,-0.03006,-0.01358,0.00946,-0.04074
5.8645,-0.00107,-0.03387,-0.01984,-0.08301,-0.0174,-0.04974,-0.01526,-0.00275,-0.01602,-0.03464,0.01114,-0.04242,-0.0296,-0.01892,0.00992,-0.03998
5.865,-0.00183,-0.03418,-0.02121,-0.07233,-0.00168,-0.04898,-0.01617,-0.00214,-0.0145,-0.03387,0.02518,-0.03662,-0.02792,-0.02518,0.00992,-0.0383
5.8655,-0.00137,-0.03754,-0.02304,-0.0679,0.01038,-0.0502,-0.01694,-0.00488,-0.00961,-0.03265,0.03601,-0.0325,-0.0267,-0.02655,0.00885,-0.03662
5.866,-0.00046,-0.04395,-0.02228,-0.05463,0.00473,-0.0592,-0.0174,-0.00809,-0.00488,-0.0296,0.04166,-0.03281,-0.02686,-0.02319,0.00748,-0.03708
5.8665,0.00031,-0.0528,-0.01999,-0.01266,-0.01846,-0.06958,-0.01694,-0.00854,-0.00427,-0.02533,0.04242,-0.03708,-0.02869,-0.01877,0.00748,-0.03998
5.867,-0.00015,-0.05997,-0.0206,0.05859,-0.04379,-0.07599,-0.01694,-0.00656,-0.00549,-0.02289,0.04486,-0.03906,-0.02975,-0.01648,0.00595,-0.04333
5.8675,0.0,-0.06073,-0.02472,0.13687,-0.06088,-0.07721,-0.01709,-0.00397,-0.00641,-0.02106,0.04715,-0.03174,-0.03128,-0.01724,0.00534,-0.0441
5.868,0.00549,-0.056,-0.03067,0.17807,-0.0676,-0.07736,-0.01678,-0.00214,-0.00656,-0.0206,0.0441,-0.01373,-0.03311,-0.01892,0.00549,-0.04272
5.8685,0.01678,-0.04959,-0.03479,0.15427,-0.06454,-0.07767,-0.01816,-0.00183,-0.00732,-0.0209,0.03662,0.00244,-0.0351,-0.02045,0.00748,-0.04227
5.869,0.02701,-0.04349,-0.0351,0.08652,-0.0528,-0.07797,-0.01877,-0.0029,-0.00961,-0.02106,0.02991,-0.00336,-0.0351,-0.02029,0.00763,-0.04288
5.8695,0.02869,-0.03723,-0.03174,0.03235,-0.0412,-0.07797,-0.01877,-0.00458,-0.01129,-0.01968,0.03052,-0.04364,-0.03357,-0.02014,0.00763,-0.04471
5.87,0.02075,-0.02991,-0.02792,0.02167,-0.03876,-0.07904,-0.01831,-0.0058,-0.01144,-0.01556,0.03464,-0.10712,-0.0322,-0.01816,0.00732,-0.04501
5.8705,0.00977,-0.02411,-0.02563,0.03174,-0.04211,-0.08148,-0.01846,-0.0061,-0.01068,-0.01144,0.03845,-0.14572,-0.0325,-0.01663,0.00748,-0.0441
5.871,-0.00031,-0.02167,-0.02548,0.03296,-0.04379,-0.0795,-0.02014,-0.00534,-0.01022,-0.00839,0.03922,-0.10574,-0.03372,-0.01648,0.00885,-0.04196
5.8715,-0.00854,-0.02136,-0.02655,0.01633,-0.04227,-0.06409,-0.02106,-0.00259,-0.00931,-0.00748,0.03769,0.01526,-0.03387,-0.0174,0.009,-0.04166
5.872,-0.01541,-0.02167,-0.02655,-0.00748,-0.04105,-0.0322,-0.02106,-0.00015,-0.00916,-0.0087,0.03494,0.14053,-0.03235,-0.01846,0.00732,-0.04227
5.8725,-0.02243,-0.02167,-0.02762,-0.02945,-0.04044,0.00809,-0.01984,-0.00046,-0.00916,-0.00946,0.03143,0.18311,-0.03006,-0.01831,0.00565,-0.04166
5.873,-0.02808,-0.02304,-0.02975,-0.0412,-0.03998,0.03601,-0.01877,-0.00183,-0.00778,-0.0116,0.03052,0.14496,-0.02731,-0.01694,0.00519,-0.04196
5.8735,-0.03265,-0.02823,-0.03281,-0.03265,-0.03799,0.03433,-0.01724,-0.00259,-0.0058,-0.01221,0.03647,0.09949,-0.0264,-0.01724,0.00763,-0.04288
5.874,-0.03693,-0.0354,-0.03571,-0.00763,-0.03662,0.00748,-0.01602,-0.00122,-0.00595,-0.0119,0.04761,0.09293,-0.02655,-0.01709,0.00992,-0.04257
5.8745,-0.04288,-0.03906,-0.03708,0.01022,-0.03647,-0.01984,-0.01541,-0.00046,-0.00793,-0.01068,0.05646,0.10712,-0.0267,-0.01678,0.01053,-0.04196
5.875,-0.04639,-0.03555,-0.0386,-0.00122,-0.03662,-0.03159,-0.01602,-0.00076,-0.01022,-0.00259,0.05722,0.10971,-0.02686,-0.01694,0.00839,-0.04135
5.8755,-0.04196,-0.02808,-0.04044,-0.03021,-0.03616,-0.03128,-0.01617,-0.00122,-0.01144,0.01816,0.0531,0.09491,-0.02853,-0.01846,0.00671,-0.04013
5.876,-0.02869,-0.02365,-0.04379,-0.0473,-0.03647,-0.03159,-0.01617,-0.00122,-0.01282,0.0528,0.05035,0.07278,-0.03006,-0.02029,0.00656,-0.03906
5.8765,-0.01633,-0.0238,-0.047,-0.03738,-0.0383,-0.03891,-0.01678,-0.00244,-0.01816,0.0795,0.04654,0.04684,-0.03036,-0.02106,0.00763,-0.03952
5.877,-0.01328,-0.02808,-0.05035,-0.01556,-0.03983,-0.04669,-0.01663,-0.00366,-0.02457,0.07248,0.04044,0.01617,-0.02853,-0.01907,0.00839,-0.04059
5.8775,-0.01785,-0.03281,-0.05341,-0.00488,-0.0386,-0.05188,-0.01541,-0.00351,-0.02594,0.02975,0.03082,-0.0177,-0.02823,-0.01755,0.00824,-0.04227
5.878,-0.02228,-0.03632,-0.05661,-0.0145,-0.03418,-0.05585,-0.01495,-0.00198,-0.02182,-0.02213,0.01816,-0.04669,-0.02991,-0.01816,0.00839,-0.04272
5.8785,-0.02258,-0.03769,-0.0589,-0.03403,-0.02945,-0.05722,-0.01511,-0.00137,-0.01633,-0.05692,0.0029,-0.06134,-0.03265,-0.0206,0.0087,-0.04211
5.879,-0.0209,-0.03815,-0.05905,-0.04684,-0.02609,-0.05432,-0.01633,-0.00244,-0.01373,-0.06821,-0.01343,-0.05798,-0.03326,-0.02151,0.00992,-0.04181
5.8795,-0.02243,-0.0386,-0.05341,-0.04013,-0.02579,-0.05081,-0.01709,-0.00275,-0.01404,-0.06592,-0.02487,-0.04669,-0.03159,-0.01999,0.00992,-0.04227
5.88,-0.02258,-0.04028,-0.04471,-0.00565,-0.02655,-0.05341,-0.01678,-0.00229,-0.01556,-0.05814,-0.02777,-0.03845,-0.03021,-0.01724,0.00885,-0.04318
5.8805,-0.01709,-0.04395,-0.03723,0.04044,-0.02594,-0.05936,-0.01694,-0.00092,-0.01572,-0.05142,-0.02563,-0.03891,-0.03128,-0.01602,0.00687,-0.04425
5.881,-0.00595,-0.04883,-0.03418,0.05219,-0.02274,-0.05234,-0.01678,-0.00031,-0.01678,-0.0473,-0.0235,-0.04562,-0.03357,-0.0177,0.00656,-0.04425
5.8815,0.00443,-0.05325,-0.0351,-0.00092,-0.02151,-0.0238,-0.01816,-0.00229,-0.01801,-0.04532,-0.02243,-0.05341,-0.03555,-0.01892,0.00748,-0.04257
5.882,0.00839,-0.05493,-0.03571,-0.09369,-0.02182,0.01282,-0.02014,-0.00412,-0.01999,-0.04532,-0.01831,-0.06531,-0.03632,-0.01999,0.009,-0.04227
5.8825,0.00824,-0.056,-0.03571,-0.16678,-0.02289,0.0325,-0.02182,-0.00549,-0.02106,-0.04608,-0.00702,-0.08377,-0.03571,-0.02121,0.00839,-0.04227
5.883,0.00732,-0.05463,-0.03448,-0.17715,-0.0235,0.02563,-0.02151,-0.00595,-0.01953,-0.04608,0.01251,-0.10406,-0.03448,-0.02258,0.00717,-0.04196
5.8835,0.00977,-0.0528,-0.03387,-0.12238,-0.02502,0.00687,-0.02029,-0.00549,-0.01709,-0.04166,0.03998,-0.10895,-0.03418,-0.02396,0.00595,-0.04211
5.884,0.01328,-0.05157,-0.03387,-0.03174,-0.02762,-0.00687,-0.01846,-0.00427,-0.01526,-0.03632,0.07019,-0.0827,-0.03464,-0.0235,0.0058,-0.04181
5.8845,0.01526,-0.05295,-0.03433,0.04318,-0.03128,-0.00244,-0.01785,-0.00351,-0.01526,-0.0322,0.09369,-0.03372,-0.03555,-0.02228,0.00687,-0.0412
5.885,0.01419,-0.05539,-0.03662,0.06027,-0.03372,0.01526,-0.01923,-0.00397,-0.01678,-0.02945,0.10376,0.00671,-0.03586,-0.0209,0.00763,-0.03998
5.8855,0.0119,-0.05707,-0.03952,0.01999,-0.03616,0.01617,-0.02136,-0.00549,-0.01877,-0.02426,0.10925,0.01526,-0.0351,-0.02075,0.00732,-0.03998
5.886,0.01038,-0.05783,-0.04135,-0.02762,-0.03723,-0.0415,-0.02197,-0.00549,-0.01984,-0.01648,0.12222,-0.00687,-0.03311,-0.01999,0.00778,-0.04135
5.8865,0.00702,-0.05768,-0.04135,-0.03418,-0.03937,-0.15091,-0.02075,-0.00488,-0.01923,-0.00839,0.13748,-0.03616,-0.02975,-0.01938,0.00778,-0.04013
5.887,0.00565,-0.05692,-0.04089,0.00015,-0.04013,-0.22263,-0.01938,-0.00549,-0.01648,-0.00412,0.13443,-0.05524,-0.0264,-0.01984,0.00809,-0.0383
5.8875,0.00717,-0.05539,-0.04105,0.03937,-0.03922,-0.18188,-0.01892,-0.00549,-0.01434,-0.00473,0.11063,-0.05997,-0.02411,-0.02197,0.00809,-0.03799
5.888,0.01251,-0.05325,-0.04166,0.05905,-0.03433,-0.06912,-0.01785,-0.00565,-0.01328,-0.00916,0.08148,-0.05341,-0.0238,-0.0235,0.0087,-0.03922
5.8885,0.01587,-0.05096,-0.04211,0.06271,-0.02823,0.00854,-0.01587,-0.00504,-0.01343,-0.01343,0.0679,-0.03708,-0.02762,-0.02289,0.0087,-0.04044
5.889,0.01389,-0.05066,-0.04135,0.07065,-0.02304,0.00656,-0.01404,-0.00458,-0.01404,-0.01495,0.07401,-0.0058,-0.03174,-0.02106,0.00854,-0.04059
5.8895,0.00977,-0.04883,-0.03845,0.09384,-0.01877,-0.02823,-0.01129,-0.00412,-0.01434,-0.01282,0.09537,0.03555,-0.03372,-0.01862,0.009,-0.03998
5.89,0.00732,-0.04669,-0.0351,0.1181,-0.01556,-0.04944,-0.01099,-0.00427,-0.0145,-0.00916,0.12634,0.07217,-0.0322,-0.01526,0.00992,-0.03906
5.8905,0.00702,-0.04395,-0.03357,0.11017,-0.01587,-0.06256,-0.01373,-0.00519,-0.01358,-0.00778,0.16632,0.09247,-0.03159,-0.01373,0.01083,-0.03922
5.891,0.00488,-0.04333,-0.03281,0.05219,-0.02167,-0.08194,-0.01678,-0.00687,-0.01312,-0.00885,0.21179,0.10635,-0.0351,-0.01358,0.01099,-0.03967
5.8915,0.00214,-0.04486,-0.03342,-0.03265,-0.0296,-0.09506,-0.01877,-0.00702,-0.0148,-0.01205,0.25681,0.11917,-0.03967,-0.01526,0.01068,-0.03906
5.892,0.00092,-0.04608,-0.03296,-0.09613,-0.03372,-0.08698,-0.01785,-0.00626,-0.01907,-0.01495,0.29007,0.11383,-0.04013,-0.01831,0.00961,-0.03815
5.8925,0.00076,-0.04608,-0.03036,-0.10574,-0.03357,-0.06683,-0.01602,-0.00626,-0.02304,-0.01785,0.30655,0.07278,-0.03525,-0.01923,0.00885,-0.03723
5.893,-0.00046,-0.04425,-0.02747,-0.07111,-0.03113,-0.05386,-0.0145,-0.0061,-0.02457,-0.02213,0.3096,0.01465,-0.03021,-0.01984,0.0087,-0.03632
5.8935,-0.00229,-0.0441,-0.02762,-0.02884,-0.03128,-0.05341,-0.0145,-0.00534,-0.02319,-0.02563,0.31006,-0.02869,-0.02853,-0.01999,0.00778,-0.0354
5.894,-0.00366,-0.04364,-0.03021,-0.00626,-0.03189,-0.05539,-0.01495,-0.00366,-0.01877,-0.02701,0.31525,-0.05173,-0.03082,-0.01892,0.00702,-0.03647
5.8945,-0.00259,-0.0441,-0.03082,-0.00549,-0.03113,-0.05188,-0.01648,-0.00076,-0.01541,-0.02579,0.32654,-0.07156,-0.03281,-0.0177,0.00702,-0.03708
5.895,-0.00168,-0.04272,-0.02762,-0.01373,-0.02701,-0.04593,-0.01724,0.00061,-0.01526,-0.02335,0.33554,-0.09308,-0.03235,-0.01831,0.009,-0.03723
5.8955,-0.00107,-0.04044,-0.0238,-0.01938,-0.02335,-0.04395,-0.01648,0.00198,-0.01556,-0.01923,0.33707,-0.10529,-0.03174,-0.02045,0.00977,-0.03815
5.896,-0.00061,-0.03876,-0.02258,-0.01495,-0.02213,-0.04791,-0.01419,0.00244,-0.01373,-0.01465,0.3363,-0.103,-0.03204,-0.02258,0.009,-0.03952
5.8965,-0.00061,-0.03845,-0.02274,0.0061,-0.02441,-0.05524,-0.0119,0.00183,-0.01007,-0.01083,0.33707,-0.08865,-0.03235,-0.02182,0.00824,-0.0412
5.897,-0.00107,-0.03815,-0.02396,0.03311,-0.02991,-0.05966,-0.01114,0.00122,-0.00656,-0.00854,0.33859,-0.06668,-0.03204,-0.02014,0.00793,-0.04166
5.8975,-0.00381,-0.03937,-0.02441,0.03891,-0.03601,-0.06012,-0.01251,-0.00183,-0.0058,-0.00809,0.34027,-0.03342,-0.03159,-0.01923,0.00793,-0.04105
5.898,-0.00702,-0.03983,-0.02502,0.01266,-0.04181,-0.05814,-0.01328,-0.00809,-0.00732,-0.009,0.33997,0.01495,-0.03174,-0.01862,0.00763,-0.04028
5.8985,-0.01007,-0.04013,-0.0264,-0.0209,-0.04593,-0.05722,-0.01236,-0.0145,-0.00977,-0.00992,0.33615,0.06683,-0.03265,-0.01602,0.00763,-0.03967
5.899,-0.01236,-0.03967,-0.02914,-0.03632,-0.04761,-0.05569,-0.00992,-0.01633,-0.01099,-0.0116,0.32471,0.10345,-0.03326,-0.01282,0.00854,-0.03952
5.8995,-0.01328,-0.03891,-0.03204,-0.03983,-0.04974,-0.05234,-0.00961,-0.01175,-0.01022,-0.01312,0.30975,0.11246,-0.03281,-0.0119,0.00946,-0.04013
5.9,-0.01205,-0.03876,-0.03311,-0.04288,-0.05188,-0.04837,-0.01083,-0.00519,-0.00977,-0.01312,0.29373,0.10422,-0.03311,-0.01465,0.0087,-0.04044
5.9005,-0.00931,-0.03937,-0.03326,-0.04333,-0.05295,-0.04608,-0.01373,-0.00244,-0.01175,-0.01495,0.27725,0.09308,-0.03433,-0.01816,0.00885,-0.04318
5.901,-0.00885,-0.04028,-0.03372,-0.03494,-0.05112,-0.04776,-0.01419,-0.00305,-0.01526,-0.01617,0.25818,0.08316,-0.03387,-0.01923,0.009,-0.04517
5.9015,-0.00977,-0.03998,-0.03494,-0.02274,-0.05157,-0.04913,-0.01343,-0.00427,-0.01801,-0.01801,0.23636,0.0708,-0.03235,-0.01755,0.01007,-0.04501
5.902,-0.01175,-0.03998,-0.03815,-0.0119,-0.04974,-0.04929,-0.01312,-0.00427,-0.01755,-0.01968,0.21164,0.05371,-0.0322,-0.01709,0.0119,-0.04395
5.9025,-0.01251,-0.04013,-0.04318,-0.0061,-0.04669,-0.0473,-0.01358,-0.0032,-0.01648,-0.02106,0.18707,0.03906,-0.03403,-0.01923,0.01236,-0.04303
5.903,-0.01297,-0.04089,-0.04684,-0.01907,-0.03983,-0.04379,-0.01389,-0.00336,-0.01617,-0.0235,0.16876,0.03036,-0.03738,-0.02121,0.01129,-0.04303
5.9035,-0.01328,-0.04105,-0.04532,-0.05569,-0.03235,-0.04105,-0.01251,-0.00336,-0.01434,-0.02777,0.15503,0.0267,-0.03876,-0.02121,0.00931,-0.04303
5.904,-0.01328,-0.04196,-0.04105,-0.0914,-0.02686,-0.03876,-0.01007,-0.00229,-0.01236,-0.03143,0.1387,0.0238,-0.03723,-0.01801,0.00824,-0.04333
5.9045,-0.01328,-0.04318,-0.03525,-0.09384,-0.02289,-0.04425,-0.00778,-0.00092,-0.01144,-0.03143,0.11566,0.0206,-0.0351,-0.01648,0.0087,-0.04242
5.905,-0.01083,-0.04395,-0.03128,-0.06271,-0.01938,-0.05783,-0.00763,0.00015,-0.01251,-0.02823,0.08835,0.01999,-0.03372,-0.01602,0.009,-0.03983
5.9055,-0.00793,-0.04288,-0.02792,-0.03113,-0.01587,-0.06775,-0.00854,0.0,-0.0148,-0.02411,0.05936,0.02228,-0.03387,-0.01617,0.00809,-0.03784
5.906,-0.00732,-0.04181,-0.02686,-0.01846,-0.01297,-0.06332,-0.01099,0.00015,-0.01709,-0.01816,0.03082,0.02579,-0.03387,-0.01709,0.00763,-0.0383
5.9065,-0.00839,-0.04105,-0.02747,-0.01694,-0.0145,-0.04883,-0.01221,0.00015,-0.01755,-0.01038,0.00214,0.02441,-0.0322,-0.01663,0.00885,-0.04105
5.907,-0.00931,-0.04028,-0.0296,-0.01343,-0.01892,-0.04059,-0.01419,-0.00092,-0.0177,-0.00214,-0.0267,0.01831,-0.03036,-0.01419,0.00916,-0.04181
5.9075,-0.00854,-0.0415,-0.03159,-0.00839,-0.02487,-0.04257,-0.01678,-0.0029,-0.01816,0.00229,-0.05493,0.01068,-0.0296,-0.0116,0.01022,-0.04181
5.908,-0.00565,-0.04196,-0.03281,-0.00946,-0.02869,-0.04501,-0.01953,-0.00427,-0.01953,0.00061,-0.08057,0.00687,-0.02975,-0.01144,0.00961,-0.04333
5.9085,-0.00153,-0.04303,-0.03189,-0.01465,-0.0293,-0.04074,-0.02106,-0.00549,-0.0206,-0.00473,-0.10483,0.00687,-0.03098,-0.01602,0.00809,-0.04578
5.909,0.00061,-0.04181,-0.02991,-0.01846,-0.02701,-0.02869,-0.02014,-0.00412,-0.01999,-0.00854,-0.12665,0.0087,-0.03342,-0.0209,0.00854,-0.047
5.9095,0.00092,-0.04196,-0.02762,-0.01694,-0.02472,-0.01297,-0.01617,0.00046,-0.01801,-0.01038,-0.14618,0.01022,-0.03342,-0.02106,0.00992,-0.04608
5.91,-0.00031,-0.04303,-0.02655,-0.01266,-0.02396,0.0032,-0.01328,0.00534,-0.01602,-0.01373,-0.16312,0.0145,-0.03418,-0.01877,0.01083,-0.04318
5.9105,0.00015,-0.04333,-0.02686,-0.01114,-0.02441,0.0145,-0.0119,0.00656,-0.01495,-0.01801,-0.1796,0.01846,-0.03571,-0.01785,0.01038,-0.04135
5.911,0.00092,-0.04303,-0.02838,-0.01724,-0.02579,0.01923,-0.01297,0.00305,-0.01404,-0.01999,-0.19531,0.01831,-0.03937,-0.01953,0.01053,-0.04089
5.9115,0.00198,-0.04166,-0.03006,-0.02197,-0.0264,0.01419,-0.0145,-0.00259,-0.01495,-0.01678,-0.20844,0.00992,-0.04059,-0.0206,0.01266,-0.04135
5.912,0.00229,-0.04028,-0.03021,-0.0209,-0.0264,-0.00748,-0.01572,-0.00641,-0.01648,-0.01358,-0.21988,-0.00229,-0.03708,-0.01953,0.01343,-0.04089
5.9125,0.00031,-0.04089,-0.03067,-0.00931,-0.02594,-0.0499,-0.01663,-0.00732,-0.0174,-0.01297,-0.22873,-0.0116,-0.02808,-0.01801,0.01328,-0.04028
5.913,-0.00351,-0.04089,-0.0322,-0.00061,-0.02686,-0.09506,-0.01602,-0.0058,-0.01678,-0.01587,-0.23834,-0.01266,-0.02106,-0.01724,0.01053,-0.04059
5.9135,-0.009,-0.04135,-0.03235,-0.00534,-0.02869,-0.11658,-0.01511,-0.00519,-0.01541,-0.01831,-0.25009,-0.01144,-0.02197,-0.01755,0.00809,-0.04105
5.914,-0.01236,-0.0412,-0.03387,-0.01678,-0.03204,-0.11017,-0.01419,-0.00534,-0.01389,-0.01999,-0.26352,-0.01816,-0.02792,-0.01755,0.0058,-0.04379
5.9145,-0.01251,-0.04333,-0.03326,-0.01984,-0.03174,-0.09491,-0.01282,-0.00488,-0.01297,-0.02014,-0.27328,-0.03281,-0.03189,-0.01724,0.00504,-0.04776
5.915,-0.009,-0.04456,-0.03204,-0.01038,-0.03006,-0.0882,-0.01129,-0.00397,-0.01312,-0.02106,-0.27786,-0.04898,-0.03296,-0.0174,0.00427,-0.0499
5.9155,-0.00565,-0.04486,-0.03174,0.00336,-0.02747,-0.0882,-0.01175,-0.00244,-0.01434,-0.0235,-0.27908,-0.0563,-0.03357,-0.01892,0.00244,-0.04959
5.916,-0.00397,-0.04425,-0.03098,0.01114,-0.02655,-0.0853,-0.01389,-0.00244,-0.01663,-0.02625,-0.28152,-0.05325,-0.0354,-0.02014,0.0029,-0.04715
5.9165,-0.00397,-0.04303,-0.03204,0.01221,-0.02945,-0.07294,-0.01572,-0.00305,-0.01663,-0.0264,-0.28687,-0.04425,-0.03677,-0.01984,0.00458,-0.04715
5.917,-0.00504,-0.04395,-0.03036,0.00992,-0.03326,-0.05508,-0.01511,-0.00351,-0.01404,-0.02747,-0.29343,-0.03326,-0.03433,-0.02014,0.00641,-0.04623
5.9175,-0.00549,-0.04532,-0.02792,0.00687,-0.03632,-0.0441,-0.01343,-0.00336,-0.01282,-0.02609,-0.29785,-0.02121,-0.02945,-0.02121,0.00763,-0.04623
5.918,-0.00473,-0.04608,-0.02716,-0.00046,-0.03464,-0.04272,-0.0119,-0.0032,-0.01251,-0.02411,-0.3006,-0.00916,-0.02777,-0.02426,0.00641,-0.04684
5.9185,-0.00412,-0.04486,-0.02792,-0.01434,-0.03159,-0.04318,-0.01221,-0.0032,-0.01404,-0.02167,-0.30258,0.00168,-0.0293,-0.0267,0.00641,-0.04669
5.919,-0.00244,-0.04456,-0.0293,-0.03632,-0.02777,-0.04105,-0.01266,-0.00305,-0.01358,-0.02045,-0.30685,0.0061,-0.03296,-0.02838,0.00565,-0.04608
5.9195,-0.00076,-0.04517,-0.02884,-0.06516,-0.02457,-0.04013,-0.01175,-0.00366,-0.01144,-0.01968,-0.3093,-0.00244,-0.03464,-0.02869,0.00717,-0.0441
5.92,-0.00046,-0.04501,-0.02777,-0.08987,-0.02472,-0.04196,-0.01114,-0.00534,-0.00992,-0.01877,-0.30884,-0.02289,-0.03326,-0.02853,0.00717,-0.04196
5.9205,-0.00137,-0.04364,-0.02899,-0.10406,-0.02594,-0.04456,-0.01038,-0.00778,-0.00992,-0.0174,-0.30716,-0.03448,-0.03128,-0.02914,0.00702,-0.04059
5.921,-0.00229,-0.04288,-0.03067,-0.10864,-0.02731,-0.04501,-0.01099,-0.00885,-0.01038,-0.01526,-0.30548,-0.02533,-0.02991,-0.02838,0.00778,-0.03983
5.9215,-0.00412,-0.04272,-0.03036,-0.10468,-0.02808,-0.04379,-0.01038,-0.00549,-0.0116,-0.01251,-0.30304,-0.00717,-0.03036,-0.0267,0.01007,-0.03922
5.922,-0.00656,-0.04456,-0.02792,-0.08759,-0.02808,-0.04517,-0.00763,0.00046,-0.01297,-0.00931,-0.29938,-0.00427,-0.0322,-0.0238,0.01068,-0.03891
5.9225,-0.00916,-0.0441,-0.02609,-0.0563,-0.02808,-0.04501,-0.00534,0.0061,-0.01434,-0.00748,-0.29587,-0.02121,-0.0325,-0.02045,0.00931,-0.04028
5.923,-0.01068,-0.04272,-0.02655,-0.0145,-0.03021,-0.0415,-0.0058,0.00687,-0.01419,-0.00687,-0.29297,-0.03937,-0.03067,-0.01221,0.00748,-0.04211
5.9235,-0.01022,-0.04166,-0.02823,0.03265,-0.03525,-0.03571,-0.00885,0.00198,-0.01404,-0.00824,-0.29099,-0.04501,-0.0293,-0.00122,0.00824,-0.04379
5.924,-0.00763,-0.04242,-0.03098,0.08286,-0.04196,-0.03357,-0.01114,-0.00397,-0.01434,-0.01129,-0.28702,-0.03952,-0.03036,0.00381,0.00839,-0.04395
5.9245,-0.00488,-0.04318,-0.03189,0.13336,-0.04501,-0.03845,-0.01144,-0.00641,-0.01617,-0.01297,-0.27664,-0.03006,-0.03296,-0.00458,0.00763,-0.04272
5.925,-0.00458,-0.04272,-0.03281,0.16861,-0.04318,-0.04562,-0.01007,-0.00534,-0.01923,-0.01205,-0.26352,-0.01892,-0.03571,-0.02197,0.00626,-0.04227
5.9255,-0.0061,-0.04181,-0.03372,0.16342,-0.0383,-0.04929,-0.01022,-0.00351,-0.02029,-0.00946,-0.25192,-0.00671,-0.03677,-0.03555,0.00656,-0.04227
5.926,-0.00732,-0.04181,-0.03586,0.11047,-0.03403,-0.04913,-0.01312,-0.00244,-0.01923,-0.00809,-0.24979,0.00504,-0.03677,-0.04059,0.00793,-0.04257
5.9265,-0.00732,-0.04272,-0.03784,0.04211,-0.03189,-0.04807,-0.01602,-0.00168,-0.01862,-0.01038,-0.26459,0.01358,-0.03799,-0.04349,0.00839,-0.04211
5.927,-0.00763,-0.04242,-0.0386,0.00168,-0.03265,-0.04929,-0.0174,-0.0032,-0.01953,-0.01373,-0.29053,0.0145,-0.03967,-0.04852,0.00854,-0.04013
5.9275,-0.00793,-0.04181,-0.03952,-0.00229,-0.03326,-0.04974,-0.01678,-0.00488,-0.01968,-0.01755,-0.31265,0.00549,-0.04196,-0.05188,0.00824,-0.03891
5.928,-0.00992,-0.04135,-0.04105,0.00931,-0.03326,-0.04868,-0.01572,-0.00626,-0.01862,-0.01892,-0.31723,-0.00687,-0.04196,-0.05295,0.009,-0.03906
5.9285,-0.01251,-0.0415,-0.04288,0.0145,-0.03326,-0.04913,-0.01633,-0.00549,-0.01816,-0.02029,-0.30411,-0.0058,-0.03845,-0.05325,0.01007,-0.04059
5.929,-0.01419,-0.04181,-0.04608,0.01282,-0.03265,-0.04898,-0.01678,-0.00366,-0.01892,-0.02182,-0.28275,0.01556,-0.02884,-0.05249,0.01038,-0.04166
5.9295,-0.01297,-0.04135,-0.04944,0.00671,-0.03448,-0.04807,-0.01633,-0.00229,-0.02151,-0.02228,-0.2597,0.0415,-0.01755,-0.04105,0.00961,-0.04135
5.93,-0.0087,-0.04105,-0.05234,-0.00748,-0.03677,-0.04807,-0.01328,-0.00229,-0.02457,-0.01984,-0.23315,0.04608,-0.01434,-0.01022,0.00992,-0.03952
5.9305,-0.00488,-0.04028,-0.05234,-0.03265,-0.03952,-0.0499,-0.01312,-0.00275,-0.02747,-0.01694,-0.20538,0.0264,-0.02136,0.03098,0.00977,-0.03784
5.931,-0.00259,-0.04089,-0.04883,-0.06027,-0.04288,-0.05463,-0.01648,-0.00275,-0.02686,-0.0145,-0.18127,0.00534,-0.02945,0.06195,0.00854,-0.03845
5.9315,-0.00092,-0.04074,-0.04517,-0.08087,-0.04852,-0.05936,-0.0209,-0.00275,-0.02365,-0.01282,-0.1651,-0.00763,-0.03128,0.06393,0.00809,-0.03891
5.932,0.00046,-0.04028,-0.04196,-0.08484,-0.05173,-0.06165,-0.02243,-0.00397,-0.02319,-0.01251,-0.15396,-0.02213,-0.02777,0.03983,0.009,-0.0412
5.9325,0.00092,-0.03952,-0.03998,-0.06088,-0.04852,-0.06012,-0.02136,-0.00427,-0.02655,-0.01343,-0.14633,-0.04547,-0.02533,0.01007,0.00885,-0.04227
5.933,-0.00015,-0.03998,-0.03754,-0.00839,-0.03769,-0.05692,-0.01938,-0.00259,-0.0296,-0.01541,-0.14343,-0.06973,-0.02945,-0.00961,0.00839,-0.04166
5.9335,-0.00183,-0.04028,-0.03464,0.04517,-0.02319,-0.05569,-0.01923,0.0,-0.02625,-0.01846,-0.14832,-0.08957,-0.03586,-0.01602,0.00748,-0.04105
5.934,-0.00259,-0.04028,-0.03143,0.06973,-0.00488,-0.05707,-0.01938,0.00015,-0.01831,-0.02106,-0.15411,-0.10651,-0.03754,-0.01617,0.00717,-0.04074
5.9345,-0.00275,-0.03983,-0.02975,0.07477,0.01846,-0.06042,-0.01862,-0.00168,-0.0116,-0.02411,-0.15503,-0.10696,-0.03571,-0.0148,0.00671,-0.04135
5.935,-0.0029,-0.03937,-0.0296,0.08362,0.03326,-0.0621,-0.01907,-0.00397,-0.00793,-0.02655,-0.15366,-0.05539,-0.03571,-0.01312,0.00748,-0.04135
5.9355,-0.00336,-0.03922,-0.0296,0.08606,0.02106,-0.056,-0.01907,-0.0061,-0.00793,-0.02716,-0.16098,0.05066,-0.03967,-0.0145,0.00824,-0.04013
5.936,-0.00473,-0.03845,-0.03006,0.05539,-0.01617,-0.03967,-0.0174,-0.00824,-0.00824,-0.02411,-0.18738,0.14343,-0.047,-0.0177,0.00839,-0.03998
5.9365,-0.00519,-0.03784,-0.03113,0.00076,-0.05249,-0.02579,-0.0145,-0.00732,-0.00793,-0.02029,-0.22476,0.1503,-0.05585,-0.02121,0.00671,-0.04044
5.937,-0.00641,-0.03891,-0.03281,-0.03677,-0.0676,-0.03021,-0.01312,-0.0058,-0.009,-0.01663,-0.25803,0.0824,-0.06287,-0.02136,0.00641,-0.0415
5.9375,-0.00717,-0.04135,-0.03479,-0.03983,-0.06958,-0.05005,-0.01465,-0.00427,-0.01007,-0.01694,-0.27237,0.01358,-0.06073,-0.01999,0.00809,-0.04135
5.938,-0.00839,-0.04318,-0.03571,-0.0267,-0.06897,-0.06424,-0.01617,-0.00519,-0.01144,-0.01999,-0.27359,-0.01251,-0.0499,-0.01801,0.01007,-0.04013
5.9385,-0.01144,-0.04364,-0.03571,-0.0206,-0.05859,-0.0618,-0.01801,-0.00641,-0.01221,-0.02533,-0.27252,-0.00549,-0.03784,-0.0148,0.01022,-0.03906
5.939,-0.01587,-0.04456,-0.03189,-0.02426,-0.03448,-0.04898,-0.01999,-0.00565,-0.01282,-0.02808,-0.27664,0.01556,-0.03174,-0.009,0.00977,-0.03952
5.9395,-0.01877,-0.04501,-0.02441,-0.02975,-0.01282,-0.03433,-0.01968,-0.00275,-0.01221,-0.0264,-0.28244,0.04318,-0.03067,-0.00397,0.00977,-0.04074
5.94,-0.01862,-0.04425,-0.01633,-0.02747,-0.01114,-0.01205,-0.01694,0.00046,-0.01068,-0.0238,-0.28091,0.06897,-0.03082,-0.00412,0.01038,-0.04196
5.9405,-0.01572,-0.03998,-0.0119,-0.01785,-0.02594,0.0174,-0.01587,0.00259,-0.01007,-0.02289,-0.27176,0.08026,-0.03296,-0.00946,0.01007,-0.04272
5.941,-0.01144,-0.0322,-0.01221,-0.00748,-0.03738,0.04074,-0.01465,0.00183,-0.01114,-0.02365,-0.26077,0.07156,-0.03632,-0.0145,0.00809,-0.04257
5.9415,-0.00778,-0.02319,-0.01312,-0.0029,-0.03677,0.03693,-0.01358,-0.00031,-0.01251,-0.02411,-0.2507,0.05264,-0.03998,-0.01556,0.00732,-0.04227
5.942,-0.00656,-0.01617,-0.01404,-0.00534,-0.03128,0.00641,-0.01282,-0.00153,-0.01358,-0.0238,-0.23895,0.03677,-0.04364,-0.01297,0.00671,-0.04318
5.9425,-0.00534,-0.01495,-0.01511,-0.00992,-0.02899,-0.02701,-0.01266,-0.00168,-0.01236,-0.02441,-0.22263,0.02579,-0.04608,-0.00885,0.00641,-0.04456
5.943,-0.00443,-0.01831,-0.01846,-0.01572,-0.02975,-0.04532,-0.01175,-0.00122,-0.01068,-0.02533,-0.20432,0.01419,-0.04562,-0.00763,0.00641,-0.04501
5.9435,-0.00198,-0.02411,-0.02548,-0.02121,-0.03189,-0.05234,-0.01083,-0.00275,-0.01068,-0.02457,-0.18875,0.00397,-0.04349,-0.01114,0.00671,-0.04456
5.944,0.00107,-0.03052,-0.0351,-0.02289,-0.03448,-0.06363,-0.01236,-0.00504,-0.01221,-0.02441,-0.17471,0.00229,-0.04135,-0.01938,0.00671,-0.04349
5.9445,0.0029,-0.03708,-0.04425,-0.0174,-0.03662,-0.07797,-0.0145,-0.00397,-0.01251,-0.02472,-0.15961,0.00778,-0.03952,-0.03128,0.00687,-0.0412
5.945,0.00397,-0.04364,-0.0502,-0.00992,-0.03555,-0.07874,-0.01648,-0.00259,-0.01022,-0.02426,-0.14557,0.01175,-0.03647,-0.04471,0.00824,-0.04135
5.9455,0.00397,-0.04807,-0.0531,-0.00809,-0.03021,-0.06287,-0.01846,-0.00671,-0.00763,-0.02426,-0.13519,0.00916,-0.03235,-0.05585,0.00885,-0.04288
5.946,0.00336,-0.05127,-0.05463,-0.01404,-0.02472,-0.04547,-0.02182,-0.01434,-0.00534,-0.02274,-0.1265,0.00183,-0.02914,-0.05753,0.0087,-0.04517
5.9465,0.00305,-0.05432,-0.05707,-0.02167,-0.02106,-0.04089,-0.0238,-0.01846,-0.00366,-0.02136,-0.11398,-0.00778,-0.02899,-0.04776,0.0087,-0.04654
5.947,0.00244,-0.05829,-0.05768,-0.02533,-0.01892,-0.04608,-0.02289,-0.01511,-0.00214,-0.01953,-0.09277,-0.01938,-0.02914,-0.03479,0.00885,-0.04547
5.9475,0.00168,-0.06042,-0.05585,-0.0235,-0.01877,-0.0499,-0.01877,-0.01007,-0.00137,-0.01877,-0.06424,-0.03113,-0.02899,-0.02625,0.00961,-0.04333
5.948,0.00198,-0.06241,-0.0528,-0.02197,-0.01968,-0.04883,-0.01526,-0.00793,-0.00107,-0.01816,-0.03418,-0.03662,-0.02991,-0.02655,0.01053,-0.04242
5.9485,0.00397,-0.06531,-0.05035,-0.02701,-0.02365,-0.04807,-0.01221,-0.00824,-0.00137,-0.01709,-0.01419,-0.03372,-0.03204,-0.0296,0.01114,-0.04288
5.949,0.00626,-0.06882,-0.04883,-0.03708,-0.02609,-0.04791,-0.009,-0.00732,-0.00168,-0.01541,-0.00656,-0.02502,-0.03067,-0.03036,0.01038,-0.04333
5.9495,0.00687,-0.07004,-0.04837,-0.04623,-0.01877,-0.04761,-0.00565,-0.00427,-0.00259,-0.0145,-0.00626,-0.0177,-0.02365,-0.02701,0.01114,-0.04318
5.95,0.00763,-0.06622,-0.04623,-0.04715,0.00473,-0.04684,-0.00397,-0.00092,-0.00366,-0.01434,-0.00565,-0.0119,-0.01495,-0.02075,0.01205,-0.04318
5.9505,0.00916,-0.06012,-0.04318,-0.04272,0.05432,-0.04807,-0.00534,0.00031,-0.00473,-0.01251,-0.0032,-0.00534,-0.01114,-0.01663,0.01312,-0.04395
5.951,0.01022,-0.05493,-0.04044,-0.03983,0.12482,-0.05051,-0.00839,0.00153,-0.00549,-0.00992,0.00015,-0.00076,-0.01328,-0.01801,0.01129,-0.04471
5.9515,0.0087,-0.05188,-0.03815,-0.04028,0.18936,-0.05234,-0.01007,0.00488,-0.00549,-0.00824,0.00702,-0.00031,-0.01678,-0.02289,0.00916,-0.04456
5.952,0.00473,-0.0502,-0.03662,-0.04196,0.21271,-0.0531,-0.01221,0.0087,-0.00656,-0.00809,0.0148,-0.00275,-0.01816,-0.02594,0.009,-0.04364
5.9525,0.00153,-0.04715,-0.03586,-0.03906,0.18021,-0.05585,-0.01266,0.00809,-0.01022,-0.00839,0.01862,-0.0032,-0.01755,-0.02426,0.00992,-0.04379
5.953,0.00198,-0.04471,-0.03326,-0.0322,0.09048,-0.06027,-0.01251,0.00275,-0.01541,-0.009,0.0177,-0.00107,-0.01831,-0.02045,0.00885,-0.04288
5.9535,0.00229,-0.04364,-0.0322,-0.02518,-0.05203,-0.06348,-0.01358,-0.00229,-0.02151,-0.01114,0.01511,0.0,-0.02655,-0.01801,0.00793,-0.0415
5.954,0.00168,-0.04303,-0.03113,-0.01892,-0.21408,-0.06104,-0.01434,-0.00549,-0.02853,-0.0145,0.01678,-0.00259,-0.04181,-0.01709,0.00854,-0.03952
5.9545,-0.00076,-0.04211,-0.02975,-0.01511,-0.31708,-0.05493,-0.01328,-0.00671,-0.03525,-0.01862,0.02335,-0.00732,-0.05585,-0.01297,0.01038,-0.03922
5.955,-0.00305,-0.04013,-0.02762,-0.01373,-0.30029,-0.04807,-0.01205,-0.00824,-0.03937,-0.02121,0.03281,-0.01083,-0.05661,-0.00549,0.01129,-0.04028
5.9555,-0.00473,-0.03815,-0.02579,-0.01434,-0.19897,-0.04181,-0.0119,-0.01099,-0.03677,-0.02228,0.04211,-0.01175,-0.0473,-0.00305,0.01007,-0.04059
5.956,-0.00519,-0.03708,-0.0267,-0.01419,-0.10345,-0.03647,-0.01419,-0.01007,-0.02945,-0.02167,0.05081,-0.01129,-0.03632,-0.01419,0.00809,-0.04013
5.9565,-0.00732,-0.03799,-0.02991,-0.0119,-0.06332,-0.0322,-0.01526,-0.00397,-0.02243,-0.02151,0.0621,-0.01099,-0.03006,-0.04227,0.0058,-0.04196
5.957,-0.00992,-0.0386,-0.03265,-0.00885,-0.06302,-0.03372,-0.01282,0.0029,-0.02167,-0.02136,0.07675,-0.01083,-0.02625,-0.07263,0.00366,-0.04593
5.9575,-0.0119,-0.0383,-0.0322,-0.00549,-0.07751,-0.04211,-0.00824,0.00641,-0.02472,-0.0235,0.08698,-0.00992,-0.02258,-0.0856,0.0032,-0.04959
5.958,-0.0119,-0.03784,-0.02945,-0.00214,-0.10498,-0.05386,-0.00458,0.00687,-0.02609,-0.02884,0.08545,-0.009,-0.0177,-0.06729,0.00397,-0.0502
5.9585,-0.00977,-0.03632,-0.02853,0.00076,-0.12466,-0.05951,-0.00534,0.00748,-0.02502,-0.03387,0.07889,-0.0087,-0.01144,-0.02441,0.00488,-0.04807
5.959,-0.00671,-0.03464,-0.02625,0.00107,-0.10757,-0.05539,-0.00885,0.01068,-0.02396,-0.03632,0.08316,-0.00839,-0.00732,0.01755,0.00626,-0.04532
5.9595,-0.00397,-0.03281,-0.02655,0.0,-0.05585,-0.04684,-0.01083,0.01343,-0.02594,-0.0351,0.10361,-0.00702,-0.009,0.0322,0.00839,-0.04272
5.96,-0.0029,-0.03281,-0.02731,-0.00183,-0.01053,-0.04456,-0.01175,0.0119,-0.02747,-0.03067,0.12939,-0.00549,-0.01511,0.01511,0.00809,-0.04272
5.9605,-0.00473,-0.03342,-0.0293,-0.00305,0.0029,-0.05005,-0.01251,0.00748,-0.02914,-0.02625,0.14618,-0.00473,-0.01999,-0.01266,0.00641,-0.04395
5.961,-0.00595,-0.03403,-0.03235,-0.00366,-0.00336,-0.05524,-0.01511,0.00549,-0.03098,-0.02472,0.14908,-0.00458,-0.02289,-0.02747,0.00626,-0.04486
5.9615,-0.0061,-0.03403,-0.03418,-0.0029,-0.00092,-0.05524,-0.01938,0.0087,-0.03265,-0.02472,0.14313,-0.00275,-0.02518,-0.02487,0.00763,-0.04456
5.962,-0.00595,-0.03326,-0.03433,-0.00336,0.01556,-0.05249,-0.02228,0.01419,-0.03189,-0.02563,0.1358,-0.00061,-0.02808,-0.01923,0.0087,-0.04349
5.9625,-0.00656,-0.03204,-0.03311,-0.00412,0.0264,-0.05295,-0.02151,0.01511,-0.02655,-0.02701,0.13275,-0.00015,-0.03174,-0.02106,0.00824,-0.04166
5.963,-0.00656,-0.02899,-0.03235,-0.00366,0.01129,-0.05295,-0.01892,0.00687,-0.01846,-0.02747,0.1387,0.0,-0.03433,-0.02823,0.00748,-0.04089
5.9635,-0.00504,-0.02609,-0.03021,-0.00214,-0.02823,-0.04929,-0.01801,-0.009,-0.01434,-0.0267,0.15091,0.00076,-0.03662,-0.03265,0.00809,-0.04059
5.964,-0.00351,-0.0264,-0.02884,-0.00122,-0.07172,-0.04257,-0.01984,-0.02365,-0.01541,-0.02625,0.15884,0.00366,-0.04074,-0.03189,0.00961,-0.04181
5.9645,-0.00397,-0.02823,-0.02762,-0.00122,-0.10452,-0.03891,-0.02213,-0.02731,-0.01602,-0.0264,0.15808,0.00488,-0.0444,-0.02426,0.01007,-0.04089
5.965,-0.00443,-0.02991,-0.02838,-0.00153,-0.12222,-0.0412,-0.02228,-0.01892,-0.01373,-0.02518,0.15533,0.00443,-0.04242,-0.00992,0.00885,-0.03891
5.9655,-0.00473,-0.02991,-0.03006,-0.00137,-0.12451,-0.05112,-0.01984,-0.00565,-0.01068,-0.02274,0.1564,0.00351,-0.03555,0.00977,0.00702,-0.03815
5.966,-0.00305,-0.02975,-0.03098,-0.00214,-0.11307,-0.06195,-0.01785,0.00137,-0.01022,-0.02136,0.16037,0.00381,-0.0235,0.02762,0.00702,-0.03967
5.9665,-0.00153,-0.03143,-0.03204,-0.00443,-0.08957,-0.06546,-0.01709,0.00153,-0.01129,-0.01831,0.16068,0.00473,-0.01175,0.0354,0.00809,-0.04196
5.967,-0.00229,-0.03418,-0.03189,-0.00763,-0.06012,-0.06165,-0.01587,0.00015,-0.01129,-0.01541,0.15915,0.00305,-0.00778,0.03052,0.00793,-0.04181
5.9675,-0.00565,-0.03632,-0.0322,-0.00916,-0.0354,-0.05646,-0.01511,-0.00168,-0.01053,-0.01434,0.15884,-0.00046,-0.01587,0.01541,0.00702,-0.03952
5.968,-0.01053,-0.03754,-0.03281,-0.00839,-0.02441,-0.05386,-0.01434,-0.00687,-0.00977,-0.01556,0.15976,-0.00229,-0.03311,-0.00854,0.00565,-0.03723
5.9685,-0.01419,-0.03708,-0.03265,-0.00748,-0.02655,-0.05661,-0.01495,-0.01328,-0.01129,-0.01907,0.15839,-0.00061,-0.04684,-0.03647,0.00687,-0.03647
5.969,-0.01373,-0.03723,-0.03311,-0.00778,-0.03693,-0.06271,-0.01572,-0.01465,-0.0119,-0.02151,0.15472,0.00244,-0.04929,-0.05096,0.00839,-0.03647
5.9695,-0.01038,-0.03586,-0.03403,-0.00748,-0.04852,-0.06821,-0.01617,-0.01144,-0.01266,-0.02167,0.15152,0.00534,-0.04639,-0.04272,0.00977,-0.03448
5.97,-0.00748,-0.03326,-0.03525,-0.0061,-0.05585,-0.06531,-0.01572,-0.00824,-0.0119,-0.01923,0.14999,0.00504,-0.05112,-0.02502,0.01083,-0.03326
5.9705,-0.00565,-0.0322,-0.03525,-0.00549,-0.05753,-0.05768,-0.01434,-0.01007,-0.01083,-0.01846,0.14847,0.00381,-0.06699,-0.01862,0.01129,-0.03418
5.971,-0.00473,-0.0351,-0.03571,-0.00687,-0.05585,-0.05219,-0.01312,-0.01389,-0.00885,-0.01923,0.14297,0.00275,-0.08118,-0.02167,0.01038,-0.03662
5.9715,-0.00336,-0.04089,-0.03632,-0.009,-0.05356,-0.05463,-0.0116,-0.01343,-0.00702,-0.02213,0.12924,0.00183,-0.07919,-0.02228,0.01053,-0.0386
5.972,-0.00229,-0.04593,-0.03738,-0.00946,-0.04868,-0.06165,-0.01129,-0.00977,-0.00458,-0.02319,0.10986,-0.00061,-0.05997,-0.02289,0.00916,-0.03891
5.9725,-0.00122,-0.04654,-0.03708,-0.00885,-0.04257,-0.06577,-0.0116,-0.00595,-0.00275,-0.02274,0.09277,-0.00259,-0.03708,-0.03479,0.00885,-0.03922
5.973,-0.00046,-0.04471,-0.03357,-0.00946,-0.03723,-0.06439,-0.01083,-0.00305,-0.00183,-0.02106,0.08347,-0.00153,-0.02487,-0.05402,0.0087,-0.03891
5.9735,-0.00076,-0.0441,-0.02945,-0.01083,-0.02914,-0.05966,-0.00854,-0.00259,-0.00137,-0.01862,0.08118,0.00046,-0.02396,-0.05875,0.01038,-0.03891
5.974,-0.00305,-0.04486,-0.02686,-0.0116,-0.01419,-0.05569,-0.00854,-0.00183,-0.00229,-0.01724,0.08011,0.00229,-0.0264,-0.04333,0.01236,-0.03723
5.9745,-0.00626,-0.04578,-0.0264,-0.01114,0.00931,-0.05249,-0.01007,0.00229,-0.00458,-0.01587,0.07462,0.00183,-0.02426,-0.02365,0.01221,-0.03662
5.975,-0.00732,-0.04562,-0.02701,-0.00992,0.03281,-0.05219,-0.01114,0.01083,-0.00824,-0.01495,0.065,0.00092,-0.02045,-0.01587,0.01022,-0.03738
5.9755,-0.00793,-0.04639,-0.02792,-0.01022,0.04028,-0.05417,-0.00931,0.01678,-0.0119,-0.01389,0.05447,0.00137,-0.01709,-0.01877,0.00931,-0.03891
5.976,-0.00717,-0.04745,-0.0293,-0.01114,0.03098,-0.05615,-0.00732,0.01465,-0.0145,-0.01266,0.04333,0.0029,-0.01663,-0.02106,0.00916,-0.04105
5.9765,-0.00519,-0.04883,-0.03128,-0.01205,0.0148,-0.05463,-0.00748,0.00732,-0.01556,-0.01251,0.03021,0.00305,-0.01801,-0.02121,0.00839,-0.04196
5.977,-0.00412,-0.04944,-0.0325,-0.01114,0.0061,-0.04395,-0.00931,0.00061,-0.01434,-0.01297,0.01831,0.00229,-0.01999,-0.02319,0.00473,-0.04135
5.9775,-0.00427,-0.04929,-0.03189,-0.01068,0.00534,-0.02197,-0.01175,-0.0032,-0.01328,-0.01297,0.01144,0.00153,-0.02151,-0.02701,0.00366,-0.04089
5.978,-0.0032,-0.04715,-0.02899,-0.01144,0.0061,0.00473,-0.0145,-0.0058,-0.01266,-0.01526,0.00946,0.00275,-0.02335,-0.0296,0.00778,-0.03998
5.9785,-0.00259,-0.04364,-0.02563,-0.0116,0.00107,0.01755,-0.01938,-0.009,-0.01266,-0.01633,0.00778,0.00412,-0.02701,-0.03036,0.01343,-0.04059
5.979,-0.00198,-0.04181,-0.02472,-0.01007,-0.00977,0.00656,-0.02243,-0.01083,-0.0148,-0.01663,0.00519,0.0029,-0.03021,-0.03113,0.01404,-0.04242
5.9795,-0.00137,-0.04227,-0.02533,-0.00885,-0.0206,-0.01907,-0.02106,-0.00961,-0.01816,-0.01556,0.00137,0.00015,-0.03082,-0.03174,0.01251,-0.04257
5.98,0.00046,-0.04242,-0.02548,-0.00839,-0.0264,-0.03876,-0.01694,-0.0061,-0.01968,-0.01526,0.00015,-0.00092,-0.03036,-0.03052,0.01144,-0.04044
5.9805,0.0032,-0.04089,-0.02655,-0.00916,-0.02518,-0.04562,-0.01175,-0.00427,-0.01953,-0.01694,0.00076,0.00031,-0.0296,-0.02777,0.01297,-0.0386
5.981,0.00504,-0.03815,-0.0296,-0.01038,-0.01633,-0.04349,-0.00702,-0.00809,-0.01923,-0.01801,0.00031,0.00229,-0.02853,-0.02563,0.01297,-0.03815
5.9815,0.00565,-0.03632,-0.03204,-0.00961,0.00931,-0.04272,-0.00412,-0.01343,-0.02045,-0.01785,-0.0032,0.00305,-0.02838,-0.02411,0.01251,-0.03922
5.982,0.00549,-0.0351,-0.03387,-0.00793,0.06256,-0.04608,-0.00214,-0.01678,-0.02075,-0.0174,-0.00565,0.00183,-0.02853,-0.02197,0.01068,-0.03891
5.9825,0.00397,-0.0351,-0.03448,-0.00717,0.1326,-0.05127,-0.00397,-0.01633,-0.01953,-0.01724,-0.00427,-0.00122,-0.02899,-0.01862,0.01221,-0.03677
5.983,0.00122,-0.03616,-0.03662,-0.00763,0.18448,-0.05447,-0.00977,-0.01221,-0.01633,-0.01633,-0.00183,-0.0058,-0.0293,-0.01419,0.01404,-0.03555
5.9835,-0.00198,-0.0383,-0.04013,-0.009,0.18036,-0.05493,-0.01999,-0.00916,-0.01236,-0.01617,-0.00015,-0.00839,-0.02991,-0.00916,0.01602,-0.03693
5.984,-0.00381,-0.04059,-0.04425,-0.01068,0.11322,-0.05371,-0.0296,-0.00732,-0.01205,-0.01816,-0.00031,-0.00778,-0.03113,-0.00595,0.01617,-0.0386
5.9845,-0.00519,-0.04166,-0.04547,-0.01007,0.0029,-0.05203,-0.03265,-0.00763,-0.01419,-0.02106,-0.00244,-0.0058,-0.03357,-0.00427,0.01465,-0.03967
5.985,-0.00687,-0.04211,-0.0444,-0.00931,-0.11993,-0.04929,-0.03052,-0.00748,-0.01541,-0.02274,-0.01205,-0.00504,-0.03342,-0.00153,0.0116,-0.04044
5.9855,-0.00992,-0.04318,-0.04257,-0.00885,-0.22095,-0.04623,-0.02716,-0.00473,-0.01373,-0.02319,-0.03937,-0.0061,-0.03189,0.00458,0.00793,-0.04059
5.986,-0.01419,-0.04318,-0.04181,-0.00977,-0.26672,-0.04242,-0.02594,-0.00153,-0.01083,-0.02365,-0.08652,-0.00565,-0.02899,0.00854,0.00534,-0.04059
5.9865,-0.01907,-0.04318,-0.03967,-0.0119,-0.2478,-0.03937,-0.02533,0.00244,-0.009,-0.02441,-0.14267,-0.00397,-0.02686,0.00565,0.00336,-0.04013
5.987,-0.02197,-0.04303,-0.03555,-0.01404,-0.18875,-0.0386,-0.02182,0.00305,-0.01053,-0.02441,-0.19409,-0.00229,-0.02213,-0.00168,0.0029,-0.03738
5.9875,-0.0209,-0.0415,-0.02792,-0.0145,-0.13153,-0.04425,-0.01602,0.00031,-0.01343,-0.02319,-0.24277,-0.00168,-0.01328,-0.00595,0.00336,-0.03326
5.988,-0.01602,-0.04044,-0.01923,-0.01282,-0.09659,-0.05814,-0.01068,-0.00183,-0.01526,-0.02136,-0.29449,-0.00214,-0.00473,-0.0061,0.00351,-0.0293
5.9885,-0.01328,-0.03983,-0.01328,-0.01053,-0.07492,-0.07172,-0.00748,-0.00137,-0.01602,-0.01938,-0.3392,-0.00259,-0.00427,-0.0087,0.0058,-0.02884
5.989,-0.01495,-0.04013,-0.01144,-0.009,-0.04837,-0.07538,-0.0061,-0.00061,-0.01556,-0.01694,-0.35873,-0.00122,-0.01343,-0.01343,0.00702,-0.02884
5.9895,-0.01831,-0.03845,-0.01434,-0.00717,-0.01785,-0.07034,-0.0058,-0.00488,-0.01556,-0.01419,-0.3511,0.00198,-0.0264,-0.01526,0.00885,-0.02762
5.99,-0.01709,-0.03586,-0.01877,-0.00549,0.00168,-0.06836,-0.00763,-0.01328,-0.01495,-0.01114,-0.33325,0.00473,-0.03464,-0.0148,0.0087,-0.02594
5.9905,-0.01175,-0.03571,-0.02655,-0.00443,0.00427,-0.07019,-0.01312,-0.0209,-0.01389,-0.01144,-0.31693,0.00519,-0.03769,-0.01465,0.00565,-0.02945
5.991,-0.0058,-0.03754,-0.03555,-0.00397,-0.00885,-0.06378,-0.01938,-0.02182,-0.01236,-0.01282,-0.30075,0.00366,-0.03754,-0.01526,0.00244,-0.03937
5.9915,-0.00244,-0.03815,-0.04578,-0.00504,-0.02945,-0.04745,-0.02243,-0.01602,-0.0116,-0.01419,-0.28152,0.00229,-0.03754,-0.01373,0.00076,-0.04913
5.992,-0.00168,-0.03723,-0.05432,-0.00534,-0.04913,-0.03647,-0.02075,-0.00671,-0.01312,-0.0145,-0.26321,0.00137,-0.03937,-0.0119,0.00046,-0.05203
5.9925,-0.0029,-0.03693,-0.06042,-0.00473,-0.05646,-0.03723,-0.01724,0.00076,-0.01633,-0.01312,-0.24536,0.00198,-0.0412,-0.01221,0.00336,-0.04761
5.993,-0.00473,-0.0383,-0.06439,-0.00381,-0.04974,-0.04242,-0.01587,0.00443,-0.01938,-0.01144,-0.22614,0.00504,-0.04074,-0.01266,0.00626,-0.04227
5.9935,-0.00656,-0.04028,-0.0676,-0.00458,-0.03769,-0.04166,-0.01724,0.00687,-0.01984,-0.0119,-0.20279,0.00839,-0.03754,-0.01328,0.00748,-0.04303
5.994,-0.00732,-0.04181,-0.07141,-0.00763,-0.02991,-0.03754,-0.0174,0.00931,-0.01968,-0.01373,-0.17868,0.00916,-0.03448,-0.01297,0.00763,-0.04761
5.9945,-0.00595,-0.04272,-0.07233,-0.00931,-0.03235,-0.03586,-0.01205,0.00946,-0.01785,-0.01465,-0.15549,0.00885,-0.03265,-0.01343,0.00687,-0.04852
5.995,-0.00427,-0.04318,-0.06622,-0.00931,-0.03677,-0.03983,-0.00412,0.00473,-0.01633,-0.0148,-0.1329,0.00961,-0.02975,-0.01389,0.00549,-0.04608
5.9955,-0.00198,-0.04364,-0.05585,-0.0087,-0.03967,-0.047,0.00275,0.00198,-0.01556,-0.01602,-0.11414,0.01068,-0.02579,-0.01419,0.00549,-0.04196
5.996,0.00031,-0.04456,-0.04547,-0.00809,-0.0386,-0.05341,0.00702,0.00763,-0.01526,-0.01572,-0.09842,0.01038,-0.02182,-0.01465,0.00641,-0.04135
5.9965,0.0032,-0.04379,-0.03937,-0.00946,-0.03281,-0.05569,0.00549,0.01511,-0.0145,-0.01465,-0.08301,0.00961,-0.01984,-0.01587,0.00854,-0.04227
5.997,0.00381,-0.04272,-0.03815,-0.01175,-0.02365,-0.05692,-0.00183,0.01572,-0.01404,-0.01282,-0.06363,0.00839,-0.01892,-0.0177,0.00916,-0.0444
5.9975,0.00397,-0.0412,-0.03677,-0.01328,-0.01266,-0.05966,-0.00748,0.00961,-0.01282,-0.01221,-0.04013,0.00671,-0.01862,-0.01892,0.009,-0.04654
5.998,0.00168,-0.03906,-0.03387,-0.01328,-0.00626,-0.06256,-0.00824,0.00519,-0.01404,-0.01144,-0.01938,0.00504,-0.01877,-0.01877,0.00977,-0.04669
5.9985,-0.00015,-0.03906,-0.03098,-0.01389,-0.00992,-0.06241,-0.00763,0.00565,-0.01602,-0.01083,-0.00366,0.00473,-0.02014,-0.01709,0.01053,-0.04532
5.999,-0.00107,-0.04044,-0.0296,-0.01419,-0.02045,-0.06012,-0.00809,0.00687,-0.01602,-0.01114,0.00809,0.00473,-0.02121,-0.01617,0.01022,-0.04349
5.9995,-0.00122,-0.04105,-0.02991,-0.01312,-0.02823,-0.05692,-0.0087,0.00534,-0.01373,-0.00946,0.01724,0.00473,-0.02121,-0.01587,0.00977,-0.04181
6.0,-0.00122,-0.03906,-0.02991,-0.01129,-0.02975,-0.05463,-0.00763,0.00305,-0.0116,-0.00626,0.02686,0.00168,-0.0209,-0.01724,0.01053,-0.03922
6.0005,-0.00122,-0.03693,-0.03036,-0.01068,-0.02914,-0.05356,-0.00549,0.00076,-0.01205,-0.00763,0.03799,-0.00259,-0.02426,-0.01862,0.01358,-0.03494
6.001,-0.00198,-0.03571,-0.02975,-0.01038,-0.03265,-0.05188,-0.00488,-0.00122,-0.01511,-0.0119,0.05112,-0.0061,-0.02701,-0.01892,0.01587,-0.02899
6.0015,-0.00183,-0.03784,-0.0293,-0.01007,-0.03815,-0.0499,-0.00565,-0.00427,-0.01785,-0.0148,0.06073,-0.00778,-0.02869,-0.01755,0.01404,-0.02563
6.002,-0.00122,-0.03922,-0.02869,-0.01099,-0.03677,-0.04776,-0.00702,-0.01053,-0.01968,-0.01495,0.06531,-0.00656,-0.03128,-0.01678,0.01038,-0.02655
6.0025,-0.00153,-0.03891,-0.02853,-0.01358,-0.02823,-0.04745,-0.00961,-0.01663,-0.02182,-0.01587,0.07004,-0.00488,-0.03525,-0.01816,0.00748,-0.02945
6.003,-0.00122,-0.03799,-0.02899,-0.01465,-0.01556,-0.04593,-0.01114,-0.01953,-0.02472,-0.01862,0.07996,-0.00168,-0.03662,-0.01968,0.00778,-0.03387
6.0035,-0.00183,-0.03784,-0.03021,-0.0148,-0.00549,-0.0444,-0.01236,-0.01526,-0.0264,-0.02167,0.09323,-0.00031,-0.03265,-0.01877,0.00671,-0.03906
6.004,-0.00336,-0.03784,-0.03036,-0.01251,0.00214,-0.0441,-0.0145,-0.00961,-0.02594,-0.02243,0.10864,0.00031,-0.02838,-0.01862,0.00519,-0.04364
6.0045,-0.00443,-0.03769,-0.03021,-0.01022,0.01068,-0.04639,-0.0177,-0.00641,-0.02365,-0.02213,0.12482,-0.00076,-0.02838,-0.01999,0.00397,-0.04501
6.005,-0.00458,-0.03738,-0.0293,-0.00977,0.02213,-0.05005,-0.01984,-0.00626,-0.02106,-0.02274,0.1413,-0.00153,-0.02991,-0.02106,0.00504,-0.04456
6.0055,-0.00488,-0.03876,-0.02945,-0.01053,0.02991,-0.0502,-0.01862,-0.00748,-0.01785,-0.02396,0.15869,-0.00198,-0.02609,-0.02014,0.00824,-0.04486
6.006,-0.00366,-0.04059,-0.03204,-0.01129,0.01831,-0.04623,-0.01526,-0.00824,-0.01526,-0.0235,0.17578,-0.00214,-0.00916,-0.01816,0.01099,-0.04471
6.0065,-0.00259,-0.04227,-0.0354,-0.01022,-0.01144,-0.04044,-0.00885,-0.00732,-0.01434,-0.02243,0.18875,-0.00198,0.01892,-0.01801,0.01312,-0.03906
6.007,-0.00168,-0.04272,-0.03586,-0.00854,-0.03876,-0.03464,-0.00137,-0.00412,-0.01495,-0.02106,0.19302,-0.00275,0.04654,-0.0209,0.01297,-0.03326
6.0075,-0.00092,-0.04257,-0.03525,-0.00946,-0.04532,-0.02594,0.00305,-0.00168,-0.01419,-0.01984,0.19287,-0.0029,0.05814,-0.02258,0.01114,-0.0351
6.008,-0.00122,-0.04272,-0.0351,-0.01114,-0.04074,-0.0145,-0.00137,-0.00153,-0.01282,-0.01846,0.19272,-0.00275,0.04608,-0.02396,0.00778,-0.04242
6.0085,-0.00244,-0.04364,-0.03418,-0.01083,-0.04288,-0.0058,-0.01221,-0.00061,-0.01114,-0.01785,0.19363,-0.00137,0.01709,-0.02548,0.00671,-0.04898
6.009,-0.00473,-0.04425,-0.03326,-0.01022,-0.0499,0.00198,-0.01984,0.00244,-0.01099,-0.01587,0.19547,-0.00046,-0.0177,-0.02899,0.00595,-0.05096
6.0095,-0.00793,-0.04425,-0.03387,-0.01083,-0.0473,0.01465,-0.01907,0.00473,-0.01236,-0.01419,0.19562,-0.00092,-0.04898,-0.03128,0.00458,-0.05051
6.01,-0.0116,-0.04318,-0.03326,-0.01083,-0.03586,0.02502,-0.01434,0.00229,-0.01297,-0.009,0.19455,-0.00412,-0.07813,-0.03082,0.00122,-0.0499
6.0105,-0.01328,-0.04517,-0.0322,-0.01144,-0.02914,0.00092,-0.01389,-0.00336,-0.01328,-0.00671,0.19455,-0.0058,-0.1088,-0.02869,-0.00305,-0.04944
6.011,-0.01175,-0.0528,-0.03067,-0.01053,-0.03448,-0.07294,-0.0177,-0.00916,-0.01236,-0.00656,0.19714,-0.00366,-0.13245,-0.02838,-0.00366,-0.047
6.0115,-0.00778,-0.06165,-0.0296,-0.00977,-0.04364,-0.15152,-0.02045,-0.01221,-0.0119,-0.009,0.19989,0.00046,-0.12573,-0.02945,-0.00046,-0.04196
6.012,-0.00305,-0.06424,-0.03052,-0.00992,-0.04715,-0.16403,-0.02029,-0.0145,-0.01312,-0.01251,0.19806,0.00229,-0.07721,-0.02808,0.00504,-0.03906
6.0125,-0.00183,-0.05905,-0.03128,-0.01068,-0.04425,-0.10727,-0.02136,-0.01541,-0.01556,-0.01389,0.19119,0.00229,-0.01312,-0.0238,0.00793,-0.0386
6.013,-0.0032,-0.04974,-0.03204,-0.01129,-0.0412,-0.04883,-0.02548,-0.01099,-0.01633,-0.01358,0.18036,0.00153,0.03036,-0.02075,0.00809,-0.04044
6.0135,-0.00565,-0.04379,-0.03036,-0.01038,-0.04089,-0.03998,-0.02899,-0.00443,-0.01541,-0.01221,0.1712,0.00153,0.04562,-0.02121,0.00702,-0.04272
6.014,-0.00595,-0.03952,-0.03006,-0.00778,-0.03876,-0.06073,-0.02686,0.00153,-0.01328,-0.01205,0.16556,0.00061,0.04944,-0.02151,0.0061,-0.04486
6.0145,-0.00595,-0.03525,-0.03098,-0.00763,-0.0293,-0.06638,-0.02014,0.00366,-0.01099,-0.01389,0.16342,-0.00122,0.05386,-0.01678,0.00702,-0.04532
6.015,-0.00702,-0.03036,-0.03128,-0.009,-0.01526,-0.05188,-0.01572,0.0,-0.0116,-0.01572,0.16144,-0.00107,0.04349,-0.00809,0.00809,-0.04318
6.0155,-0.00793,-0.02716,-0.02975,-0.01053,-0.00519,-0.03891,-0.02075,-0.01068,-0.01343,-0.01633,0.15762,0.00198,0.00305,-0.00168,0.00854,-0.04059
6.016,-0.00671,-0.02563,-0.02838,-0.01083,-0.00656,-0.03937,-0.03372,-0.02258,-0.01602,-0.01678,0.15152,0.00381,-0.0589,0.00137,0.00824,-0.03906
6.0165,-0.00366,-0.02426,-0.02777,-0.01083,-0.01526,-0.04257,-0.03799,-0.02869,-0.01709,-0.0174,0.14435,0.00397,-0.11551,0.00519,0.00854,-0.0386
6.017,-0.00244,-0.02457,-0.0296,-0.01129,-0.0238,-0.04196,-0.02136,-0.02747,-0.01709,-0.01968,0.1384,0.00183,-0.14542,0.01129,0.00946,-0.03952
6.0175,-0.0032,-0.02563,-0.03204,-0.01068,-0.02853,-0.04028,0.00336,-0.02441,-0.01587,-0.02243,0.13443,0.00137,-0.14862,0.01343,0.00916,-0.03983
6.018,-0.00427,-0.02899,-0.03189,-0.00931,-0.0322,-0.04089,0.01694,-0.02396,-0.01633,-0.02396,0.13168,0.00305,-0.13748,0.00809,0.00809,-0.04059
6.0185,-0.00397,-0.03159,-0.03113,-0.00793,-0.03479,-0.04013,0.01572,-0.02258,-0.01617,-0.02716,0.12894,0.00351,-0.12848,-0.00061,0.00763,-0.04166
6.019,-0.00458,-0.03342,-0.03113,-0.00793,-0.03799,-0.03571,0.01434,-0.01434,-0.01755,-0.0325,0.12695,0.00244,-0.12543,-0.00809,0.0058,-0.04318
6.0195,-0.00458,-0.03418,-0.03204,-0.00824,-0.03891,-0.02762,0.0177,-0.00183,-0.01587,-0.03708,0.12833,0.00061,-0.11627,-0.01251,0.00549,-0.04333
6.02,-0.00488,-0.03387,-0.03265,-0.00763,-0.03815,-0.01862,0.01801,0.00961,-0.01205,-0.03815,0.13031,0.00122,-0.09369,-0.01526,0.00626,-0.04135
6.0205,-0.00366,-0.0322,-0.03204,-0.0061,-0.03586,-0.01328,0.0119,0.01389,-0.00778,-0.03525,0.13031,0.00214,-0.06454,-0.01587,0.00717,-0.04135
6.021,-0.00214,-0.03128,-0.0322,-0.00519,-0.03204,-0.01251,0.00717,0.01373,-0.00626,-0.03006,0.12878,0.00229,-0.0441,-0.01434,0.00717,-0.04242
6.0215,-0.00137,-0.03052,-0.03281,-0.00488,-0.02945,-0.01511,0.00778,0.01678,-0.00641,-0.02579,0.12939,0.00168,-0.0386,-0.01221,0.0061,-0.04425
6.022,-0.00275,-0.03326,-0.03479,-0.0061,-0.02213,-0.01984,0.00641,0.02243,-0.00702,-0.02335,0.13504,0.00107,-0.04456,-0.01251,0.00488,-0.04593
6.0225,-0.00534,-0.03754,-0.03906,-0.00885,-0.0058,-0.03021,-0.00076,0.02579,-0.00763,-0.02258,0.14496,0.00061,-0.05692,-0.01465,0.00443,-0.04608
6.023,-0.00824,-0.03983,-0.04211,-0.01022,0.01663,-0.04379,-0.00854,0.02289,-0.00778,-0.02075,0.1564,-0.00122,-0.07278,-0.0174,0.00381,-0.04578
6.0235,-0.00931,-0.04059,-0.04196,-0.00931,0.03281,-0.05829,-0.0116,0.01785,-0.00809,-0.01999,0.16418,-0.00168,-0.08453,-0.01907,0.00397,-0.04471
6.024,-0.00748,-0.04135,-0.03983,-0.00702,0.03403,-0.07126,-0.01038,0.01328,-0.00854,-0.02075,0.1683,-0.00092,-0.08087,-0.02029,0.00534,-0.04395
6.0245,-0.00366,-0.0415,-0.03784,-0.00549,0.02579,-0.08011,-0.00916,0.00717,-0.00961,-0.02197,0.17136,0.00031,-0.05859,-0.02121,0.0058,-0.04074
6.025,-0.00259,-0.0415,-0.03586,-0.00473,0.01816,-0.08163,-0.00977,-0.00229,-0.01068,-0.02243,0.17487,0.00198,-0.02853,-0.0209,0.00595,-0.03586
6.0255,-0.00504,-0.04196,-0.03387,-0.0058,0.00549,-0.07492,-0.01251,-0.01312,-0.01099,-0.02136,0.17639,0.0029,-0.00763,-0.02075,0.00687,-0.03174
6.026,-0.00687,-0.04257,-0.03281,-0.0061,-0.03387,-0.06561,-0.01434,-0.01633,-0.01038,-0.02045,0.17487,0.00397,-0.00458,-0.02136,0.01038,-0.02975
6.0265,-0.00656,-0.04227,-0.0322,-0.00549,-0.09827,-0.05997,-0.01541,-0.01144,-0.01068,-0.01938,0.17532,0.00397,-0.01373,-0.02182,0.0148,-0.03036
6.027,-0.00488,-0.04105,-0.03174,-0.00595,-0.14221,-0.05569,-0.01678,-0.0058,-0.01266,-0.01877,0.18143,0.00381,-0.02304,-0.02274,0.01648,-0.03326
6.0275,-0.00381,-0.03937,-0.03021,-0.0061,-0.13275,-0.04562,-0.01877,-0.00259,-0.01404,-0.0174,0.19257,0.00259,-0.02777,-0.02304,0.01343,-0.03738
6.028,-0.0029,-0.03922,-0.02945,-0.00656,-0.0943,-0.02731,-0.01892,-0.00137,-0.01389,-0.01358,0.20111,0.00214,-0.03067,-0.02258,0.00778,-0.04486
6.0285,-0.0029,-0.04028,-0.0296,-0.00717,-0.07568,-0.00916,-0.01999,-0.00046,-0.01282,-0.009,0.20187,0.00076,-0.03357,-0.02243,0.00381,-0.05402
6.029,-0.00534,-0.04227,-0.03052,-0.00809,-0.08133,-0.0032,-0.02197,-0.00092,-0.01282,-0.00168,0.19501,-0.00214,-0.03723,-0.02106,0.00275,-0.05692
6.0295,-0.00839,-0.04364,-0.03128,-0.00977,-0.08255,-0.01282,-0.02563,-0.00259,-0.01328,0.00092,0.18829,-0.00473,-0.03967,-0.0209,0.00626,-0.05066
6.03,-0.00793,-0.04471,-0.0325,-0.0119,-0.05997,-0.02472,-0.02808,-0.00351,-0.01434,-0.00031,0.1915,-0.00473,-0.04074,-0.0206,0.01099,-0.04028
6.0305,-0.00595,-0.04456,-0.03265,-0.01221,-0.02975,-0.02258,-0.02747,-0.00381,-0.01511,-0.00641,0.20645,-0.00229,-0.04105,-0.02121,0.01511,-0.03342
6.031,-0.00443,-0.04349,-0.03189,-0.01129,-0.01236,-0.00732,-0.02701,-0.00397,-0.01465,-0.0119,0.23117,0.00015,-0.03922,-0.02289,0.0174,-0.03464
6.0315,-0.00336,-0.04196,-0.03052,-0.00977,-0.01328,0.00687,-0.02625,-0.00427,-0.01434,-0.01541,0.25284,-0.00046,-0.03403,-0.02411,0.01846,-0.03998
6.032,-0.0029,-0.03998,-0.03052,-0.00839,-0.01968,0.00793,-0.02335,-0.00427,-0.01419,-0.01984,0.26367,-0.00275,-0.02655,-0.02487,0.01984,-0.04379
6.0325,-0.00214,-0.04074,-0.0322,-0.00885,-0.0264,0.00046,-0.01709,-0.00397,-0.01373,-0.02472,0.26398,-0.00336,-0.02151,-0.02487,0.01953,-0.04288
6.033,-0.00137,-0.04211,-0.03326,-0.01099,-0.03159,-0.00198,-0.01053,-0.00443,-0.01266,-0.02502,0.2597,-0.0029,-0.01999,-0.02472,0.01572,-0.04181
6.0335,-0.00107,-0.04211,-0.03357,-0.01328,-0.03708,0.00275,-0.00732,-0.00641,-0.0119,-0.02274,0.25253,-0.00061,-0.02106,-0.02472,0.01175,-0.04196
6.034,-0.00153,-0.04318,-0.03357,-0.01266,-0.04227,0.00565,-0.00946,-0.00717,-0.01175,-0.02258,0.24277,0.00046,-0.02289,-0.02502,0.00885,-0.04288
6.0345,-0.00244,-0.04349,-0.03403,-0.00992,-0.0444,-0.00229,-0.01465,-0.00885,-0.01389,-0.02548,0.23224,0.00122,-0.02411,-0.02731,0.00778,-0.04303
6.035,-0.00275,-0.04364,-0.03448,-0.00763,-0.04181,-0.01724,-0.01785,-0.01129,-0.01694,-0.02716,0.21912,0.00137,-0.0238,-0.03036,0.00671,-0.0444
6.0355,-0.0029,-0.04349,-0.03342,-0.00595,-0.03799,-0.03204,-0.01953,-0.01266,-0.01938,-0.02731,0.20355,0.00092,-0.02197,-0.03159,0.00626,-0.0473
6.036,-0.00305,-0.04379,-0.03357,-0.0061,-0.03693,-0.04898,-0.02396,-0.01129,-0.01938,-0.02716,0.18753,0.0,-0.01999,-0.02869,0.00549,-0.05051
6.0365,-0.00412,-0.04364,-0.03418,-0.00626,-0.03693,-0.07294,-0.03922,-0.00839,-0.01709,-0.02655,0.17029,-0.00107,-0.01999,-0.02579,0.00366,-0.05234
6.037,-0.0058,-0.04181,-0.03494,-0.00519,-0.03983,-0.10239,-0.06699,-0.00748,-0.01495,-0.02655,0.1503,-0.00275,-0.02304,-0.02579,0.00229,-0.05325
6.0375,-0.00656,-0.03967,-0.03571,-0.00504,-0.04257,-0.12085,-0.09705,-0.00916,-0.01358,-0.02594,0.12802,-0.00305,-0.02548,-0.02625,0.00381,-0.05234
6.038,-0.00748,-0.04044,-0.03525,-0.00595,-0.03632,-0.11078,-0.11261,-0.00946,-0.0116,-0.02548,0.10101,-0.00153,-0.02548,-0.01968,0.00763,-0.05035
6.0385,-0.00641,-0.04105,-0.03479,-0.00793,-0.01862,-0.08163,-0.11368,-0.00748,-0.00885,-0.02579,0.06088,0.0,-0.02396,-0.00671,0.01053,-0.04852
6.039,-0.00565,-0.04135,-0.03311,-0.01144,-0.00397,-0.06989,-0.10925,-0.00549,-0.00702,-0.02625,0.00473,0.00076,-0.02579,0.00183,0.01068,-0.04761
6.0395,-0.00488,-0.03983,-0.03098,-0.0119,-0.00763,-0.09659,-0.09781,-0.00351,-0.00763,-0.02609,-0.05173,0.00061,-0.03021,-0.0029,0.01038,-0.04654
6.04,-0.00351,-0.03784,-0.02899,-0.01129,-0.02365,-0.13229,-0.06516,-0.00122,-0.00916,-0.02365,-0.08301,0.00092,-0.03357,-0.01511,0.01114,-0.04395
6.0405,-0.00153,-0.03876,-0.02899,-0.00992,-0.02777,-0.1326,-0.01068,0.00351,-0.009,-0.02075,-0.08347,0.00107,-0.03204,-0.02304,0.01221,-0.04105
6.041,0.00015,-0.03937,-0.0296,-0.01022,-0.01282,-0.09613,0.04593,0.01053,-0.00916,-0.01633,-0.07004,0.00076,-0.02686,-0.02304,0.01175,-0.04044
6.0415,0.00015,-0.03922,-0.03036,-0.01007,0.00931,-0.06287,0.08087,0.01511,-0.01205,-0.01175,-0.0592,0.00076,-0.02396,-0.01953,0.01114,-0.04135
6.042,-0.00122,-0.04059,-0.03159,-0.00992,0.02014,-0.05707,0.09064,0.01373,-0.01587,-0.00504,-0.05325,0.00168,-0.02335,-0.01633,0.01144,-0.04349
6.0425,-0.00244,-0.04257,-0.03296,-0.00824,0.01892,-0.06378,0.08438,0.00885,-0.01724,-0.00168,-0.04791,0.00137,-0.02243,-0.01572,0.01129,-0.0444
6.043,-0.00259,-0.04333,-0.03448,-0.00717,0.0148,-0.05798,0.07507,0.0029,-0.01587,-0.00504,-0.0441,-0.00061,-0.01984,-0.01617,0.00961,-0.04623
6.0435,-0.00183,-0.04242,-0.0351,-0.00778,0.01083,-0.03448,0.06989,0.00244,-0.01389,-0.01419,-0.04654,-0.00214,-0.01709,-0.01831,0.00809,-0.04471
6.044,-0.00153,-0.04211,-0.03662,-0.00854,0.00183,-0.00351,0.065,0.00595,-0.01526,-0.02213,-0.05234,-0.00214,-0.0174,-0.01999,0.00793,-0.04135
6.0445,-0.00168,-0.04288,-0.03677,-0.00732,-0.01495,0.02472,0.05539,0.00748,-0.01846,-0.02441,-0.05997,0.00122,-0.01923,-0.02106,0.0087,-0.03845
6.045,-0.00153,-0.04318,-0.0354,-0.00443,-0.03098,0.03784,0.04181,0.0,-0.0235,-0.02365,-0.07095,0.00504,-0.01999,-0.02167,0.01053,-0.03799
6.0455,-0.00046,-0.04364,-0.0351,-0.00305,-0.03128,0.03113,0.03036,-0.01907,-0.02502,-0.02289,-0.0885,0.00763,-0.02029,-0.02045,0.01068,-0.03952
6.046,0.00153,-0.04395,-0.03586,-0.00488,-0.01328,0.0116,0.01938,-0.03998,-0.02335,-0.02335,-0.10727,0.00732,-0.02258,-0.01633,0.00839,-0.0412
6.0465,0.00153,-0.04471,-0.03571,-0.00824,0.00076,-0.00488,0.00732,-0.05478,-0.02075,-0.02609,-0.12192,0.00473,-0.02792,-0.01007,0.00504,-0.04211
6.047,0.00015,-0.04547,-0.03448,-0.0087,-0.01663,-0.01389,-0.00305,-0.0592,-0.02014,-0.02853,-0.13306,0.00168,-0.03723,-0.00504,0.00198,-0.04303
6.0475,-0.00214,-0.04471,-0.03494,-0.00717,-0.06744,-0.02289,-0.01083,-0.05096,-0.02121,-0.02686,-0.14465,0.00046,-0.0473,-0.00534,0.00031,-0.04379
6.048,-0.00412,-0.04379,-0.03754,-0.00687,-0.10956,-0.03937,-0.01892,-0.02579,-0.02182,-0.02472,-0.15686,0.00046,-0.0528,-0.0148,0.00153,-0.04486
6.0485,-0.00519,-0.0444,-0.03906,-0.00885,-0.10788,-0.06165,-0.03128,0.0061,-0.02121,-0.02426,-0.16876,-0.00076,-0.05005,-0.03357,0.00305,-0.04669
6.049,-0.0061,-0.04517,-0.03815,-0.01205,-0.06958,-0.08652,-0.04761,0.02396,-0.01999,-0.02411,-0.17929,-0.00351,-0.0444,-0.05493,0.00412,-0.04852
6.0495,-0.00641,-0.04425,-0.03616,-0.01389,-0.02853,-0.11139,-0.06378,0.01328,-0.01724,-0.0238,-0.18768,-0.00595,-0.04044,-0.06927,0.00549,-0.04929
6.05,-0.00565,-0.04379,-0.03387,-0.01328,-0.00565,-0.12955,-0.0737,-0.01114,-0.01404,-0.02258,-0.19241,-0.00626,-0.0386,-0.07004,0.00641,-0.04944
6.0505,-0.00381,-0.04272,-0.03403,-0.01099,0.00351,-0.13245,-0.07431,-0.02548,-0.01083,-0.02167,-0.19333,-0.00488,-0.03586,-0.06256,0.00732,-0.04974
