time,RectFemL,VastusMedL,VastusLatL,TibAntL,HamMedL,HamLatL,GastroMedL,GastroLatL,RectFemR,VastusMedR,VastusLatR,TibAntR,HamMedR,HamLatR,GastroMedR,GastroLatR
3.49,-0.01556,-0.09201,-0.08163,-0.07339,-0.01846,-0.04181,-0.01343,-0.00305,-0.04578,-0.09445,0.0972,0.05783,-0.0322,-0.02365,0.0058,-0.04425
3.4905,-0.00427,-0.08286,-0.12802,-0.10406,-0.01862,-0.03983,-0.01129,-0.00092,-0.04089,-0.12665,0.07065,0.05768,-0.03036,-0.0209,0.00687,-0.04242
3.491,0.00656,-0.06683,-0.17349,-0.04395,-0.01953,-0.03952,-0.01099,0.00137,-0.03265,-0.13046,0.03845,0.07751,-0.02808,-0.01923,0.00885,-0.0415
3.4915,0.01556,-0.04791,-0.20569,0.08835,-0.01923,-0.03998,-0.01251,0.00168,-0.02625,-0.10437,0.00824,0.06607,-0.0267,-0.01663,0.0116,-0.03845
3.492,0.0206,-0.03052,-0.21805,0.19379,-0.01923,-0.04074,-0.01511,-0.00107,-0.0235,-0.06714,-0.01617,0.01862,-0.02655,-0.01389,0.01312,-0.03464
3.4925,0.02182,-0.01678,-0.21317,0.16724,-0.01907,-0.04166,-0.01755,-0.00488,-0.01999,-0.03769,-0.03006,-0.009,-0.02716,-0.01251,0.01343,-0.03342
3.493,0.02243,-0.00565,-0.18677,0.01083,-0.02045,-0.04257,-0.01846,-0.00687,-0.0119,-0.02167,-0.03326,0.02304,-0.02792,-0.01251,0.01251,-0.03525
3.4935,0.02319,0.00031,-0.11902,-0.159,-0.02213,-0.04425,-0.01785,-0.00641,-0.00214,-0.02411,-0.02975,0.07736,-0.02777,-0.01282,0.0116,-0.03769
3.494,0.02274,-0.00046,0.0058,-0.23743,-0.02472,-0.04456,-0.01511,-0.00473,0.00427,-0.05096,-0.0235,0.07751,-0.02792,-0.01236,0.01144,-0.03937
3.4945,0.02045,-0.00549,0.14938,-0.25543,-0.0267,-0.04395,-0.01312,-0.0029,0.00519,-0.0946,-0.01709,0.00336,-0.02853,-0.01129,0.01022,-0.04074
3.495,0.01801,-0.0087,0.224,-0.30716,-0.02609,-0.0441,-0.01099,-0.00046,0.00336,-0.11932,-0.01266,-0.09079,-0.02975,-0.01099,0.00687,-0.04196
3.4955,0.01678,-0.00763,0.16891,-0.34912,-0.02686,-0.04456,-0.01099,0.00229,-0.00259,-0.09735,-0.01556,-0.14648,-0.03098,-0.01144,0.00565,-0.04333
3.496,0.01877,-0.0058,0.01648,-0.23041,-0.02853,-0.04547,-0.01251,0.00381,-0.01022,-0.04684,-0.02396,-0.14893,-0.03143,-0.01236,0.00656,-0.04288
3.4965,0.02289,-0.00534,-0.14313,0.03922,-0.03082,-0.04517,-0.01373,0.00381,-0.01526,-0.00824,-0.02945,-0.11292,-0.03265,-0.01205,0.00839,-0.04227
3.497,0.02884,-0.00488,-0.2417,0.23514,-0.03174,-0.04532,-0.01526,0.00061,-0.01572,-0.00137,-0.02747,-0.06897,-0.03326,-0.01312,0.00793,-0.04242
3.4975,0.03464,-0.00412,-0.2742,0.20889,-0.03296,-0.04593,-0.01556,-0.00458,-0.0145,-0.00931,-0.02136,-0.0415,-0.03235,-0.01541,0.00656,-0.04272
3.498,0.03799,-0.00488,-0.2626,0.04822,-0.03494,-0.04974,-0.01434,-0.00793,-0.01724,-0.01022,-0.01678,-0.01785,-0.03189,-0.01907,0.00671,-0.04211
3.4985,0.03586,-0.00977,-0.22858,-0.07599,-0.03494,-0.05219,-0.01328,-0.00656,-0.02304,0.00183,-0.01709,0.04669,-0.03235,-0.0206,0.0087,-0.04028
3.499,0.02884,-0.01801,-0.18509,-0.09262,-0.03464,-0.05157,-0.01328,-0.00259,-0.02625,0.02121,-0.01984,0.16113,-0.03372,-0.01877,0.00961,-0.04044
3.4995,0.02319,-0.02335,-0.14114,-0.02319,-0.03311,-0.04929,-0.01404,-0.00137,-0.02319,0.04501,-0.0235,0.25833,-0.03296,-0.01633,0.00824,-0.04196
3.5,0.02182,-0.02426,-0.0943,0.0795,-0.03067,-0.0473,-0.01434,-0.00244,-0.01648,0.07248,-0.02228,0.2626,-0.03113,-0.01511,0.00595,-0.04395
3.5005,0.02121,-0.02243,-0.03387,0.17471,-0.03067,-0.04745,-0.01541,-0.00366,-0.00961,0.09613,-0.00992,0.18478,-0.03052,-0.01541,0.00565,-0.04593
3.501,0.0145,-0.02167,0.03448,0.24841,-0.03265,-0.04913,-0.01648,-0.0032,-0.00214,0.10788,0.01297,0.09674,-0.03174,-0.01465,0.00687,-0.04669
3.5015,0.00244,-0.02167,0.07172,0.31189,-0.03571,-0.0499,-0.01602,-0.00198,0.0032,0.09857,0.03616,0.03311,-0.0325,-0.01511,0.00885,-0.04593
3.502,-0.00687,-0.02289,0.04486,0.36865,-0.03769,-0.04822,-0.01389,-0.00015,0.00443,0.07401,0.05051,-0.0267,-0.03281,-0.01556,0.00778,-0.04471
3.5025,-0.00778,-0.02075,-0.02792,0.41656,-0.03799,-0.04639,-0.01068,0.00244,0.00336,0.04913,0.05524,-0.09491,-0.03189,-0.01526,0.00778,-0.04364
3.503,-0.00229,-0.01251,-0.09735,0.43335,-0.03891,-0.04578,-0.00885,0.00488,0.00183,0.03494,0.04822,-0.14511,-0.03082,-0.01495,0.00885,-0.04318
3.5035,0.00351,-0.00259,-0.12726,0.35248,-0.03906,-0.04578,-0.00961,0.00458,-0.00046,0.02243,0.02731,-0.15457,-0.03159,-0.01694,0.01007,-0.04349
3.504,0.00565,0.00198,-0.11322,0.13611,-0.0383,-0.04593,-0.01328,0.00092,-0.0061,-0.00076,-0.01022,-0.14145,-0.03265,-0.02106,0.01022,-0.04471
3.5045,0.00473,-0.00229,-0.07065,-0.12375,-0.03769,-0.04608,-0.01724,-0.00214,-0.01389,-0.03357,-0.06424,-0.1358,-0.03464,-0.0238,0.00977,-0.04593
3.505,0.00015,-0.01419,-0.02625,-0.27649,-0.03983,-0.04868,-0.01999,-0.00427,-0.02014,-0.05814,-0.13855,-0.13428,-0.03616,-0.02319,0.00854,-0.04623
3.5055,-0.00519,-0.03098,-0.0058,-0.271,-0.04242,-0.0499,-0.01862,-0.00534,-0.01968,-0.0676,-0.24017,-0.0972,-0.03571,-0.02213,0.00763,-0.04578
3.506,-0.0087,-0.047,-0.0119,-0.17685,-0.04333,-0.05035,-0.01404,-0.00458,-0.01602,-0.06821,-0.33966,0.0087,-0.03571,-0.02151,0.00641,-0.0441
3.5065,-0.00854,-0.05798,-0.02731,-0.08911,-0.04166,-0.05066,-0.01099,-0.0029,-0.01251,-0.06927,-0.37643,0.16617,-0.03525,-0.02075,0.00656,-0.04272
3.507,-0.00778,-0.0621,-0.03662,-0.08347,-0.03906,-0.05142,-0.01251,-0.00122,-0.0087,-0.07278,-0.32532,0.30746,-0.03525,-0.01968,0.00839,-0.04135
3.5075,-0.01144,-0.06165,-0.03632,-0.16541,-0.03662,-0.05249,-0.01678,-0.00275,-0.00397,-0.07599,-0.23499,0.36026,-0.03479,-0.01785,0.01007,-0.03998
3.508,-0.01892,-0.06073,-0.02747,-0.21866,-0.03464,-0.05264,-0.01938,-0.00641,-0.00214,-0.07843,-0.15457,0.30426,-0.03357,-0.01587,0.01129,-0.03799
3.5085,-0.02365,-0.06042,0.00015,-0.12131,-0.03418,-0.05325,-0.01877,-0.00778,-0.00626,-0.08087,-0.07645,0.19119,-0.03311,-0.01526,0.01129,-0.0383
3.509,-0.0174,-0.06149,0.05936,0.07843,-0.03464,-0.05325,-0.01526,-0.00488,-0.01389,-0.08072,0.02487,0.09872,-0.03342,-0.01663,0.01205,-0.04074
3.5095,0.00198,-0.06332,0.12894,0.20859,-0.03464,-0.05325,-0.01297,-0.00046,-0.02075,-0.07889,0.1329,0.05722,-0.03387,-0.01709,0.0116,-0.04456
3.51,0.02731,-0.06485,0.16327,0.19531,-0.03418,-0.05356,-0.01297,0.00305,-0.02472,-0.07629,0.20386,0.04318,-0.03418,-0.01785,0.00977,-0.04562
3.5105,0.04379,-0.06653,0.13901,0.12253,-0.03418,-0.05386,-0.01373,0.00229,-0.02762,-0.07233,0.2211,0.02899,-0.03311,-0.01892,0.00763,-0.04471
3.511,0.04013,-0.06943,0.08087,0.07324,-0.03387,-0.0528,-0.01495,-0.00031,-0.03021,-0.06027,0.19806,0.01266,-0.03174,-0.02167,0.00626,-0.04257
3.5115,0.01938,-0.07599,0.02808,0.03052,-0.0325,-0.05081,-0.0148,-0.00397,-0.03128,-0.04364,0.15121,0.00198,-0.03082,-0.02258,0.00748,-0.04105
3.512,-0.00504,-0.08408,-0.0087,-0.0444,-0.03159,-0.04883,-0.01526,-0.00519,-0.02975,-0.03357,0.08896,-0.00229,-0.03021,-0.02167,0.00778,-0.04044
3.5125,-0.02853,-0.08728,-0.03784,-0.1268,-0.03159,-0.04745,-0.01572,-0.00427,-0.02716,-0.03647,0.02563,-0.00702,-0.02975,-0.01953,0.00763,-0.04074
3.513,-0.04974,-0.07889,-0.0647,-0.16296,-0.03204,-0.04807,-0.01434,-0.0029,-0.02762,-0.04623,-0.01663,-0.01495,-0.03006,-0.02029,0.00809,-0.0415
3.5135,-0.06622,-0.06073,-0.06973,-0.13199,-0.03159,-0.04837,-0.01419,-0.00229,-0.03067,-0.056,-0.02365,-0.02243,-0.03052,-0.02045,0.00854,-0.04242
3.514,-0.07523,-0.04578,-0.02136,-0.0563,-0.02945,-0.04791,-0.01312,-0.00244,-0.03204,-0.06348,-0.0029,-0.02731,-0.03098,-0.02014,0.00992,-0.04547
3.5145,-0.0798,-0.04745,0.07721,0.00763,-0.02869,-0.0473,-0.01236,-0.0032,-0.02853,-0.06866,0.02106,-0.03098,-0.03052,-0.01846,0.00961,-0.04761
3.515,-0.08636,-0.07034,0.15045,0.02747,-0.02777,-0.04791,-0.01175,-0.0029,-0.0209,-0.06897,0.03311,-0.03433,-0.03067,-0.01785,0.00809,-0.04944
3.5155,-0.09201,-0.10315,0.1059,0.04532,-0.0267,-0.04761,-0.01205,-0.00214,-0.01434,-0.06516,0.04379,-0.01511,-0.03189,-0.01862,0.0061,-0.04868
3.516,-0.09186,-0.13519,-0.05646,0.13397,-0.02518,-0.04578,-0.01236,-0.00061,-0.01038,-0.05905,0.07416,0.04486,-0.03296,-0.0206,0.00595,-0.04593
3.5165,-0.08286,-0.16434,-0.23651,0.2626,-0.02548,-0.04211,-0.01389,0.00153,-0.00946,-0.05295,0.121,0.09995,-0.0325,-0.02151,0.00717,-0.04272
3.517,-0.06531,-0.18936,-0.34134,0.28473,-0.02594,-0.04044,-0.01602,0.00381,-0.01251,-0.04608,0.16403,0.05875,-0.03113,-0.02151,0.00778,-0.04074
3.5175,-0.03571,-0.20111,-0.34103,0.12589,-0.02457,-0.04105,-0.0177,0.00473,-0.01846,-0.04257,0.18951,-0.10544,-0.03128,-0.02213,0.00778,-0.04028
3.518,0.00351,-0.19196,-0.25879,-0.10071,-0.02365,-0.04181,-0.01785,0.00305,-0.02319,-0.04608,0.19791,-0.30243,-0.0322,-0.02289,0.00778,-0.04059
3.5185,0.0354,-0.16556,-0.14847,-0.23727,-0.02457,-0.04227,-0.01724,-0.00046,-0.0264,-0.05447,0.19409,-0.42267,-0.03342,-0.02396,0.00809,-0.04044
3.519,0.04547,-0.12741,-0.07706,-0.2565,-0.0264,-0.04288,-0.01755,-0.0032,-0.02899,-0.06653,0.17822,-0.44296,-0.03357,-0.0238,0.00824,-0.03708
3.5195,0.04166,-0.07828,-0.07111,-0.24353,-0.02853,-0.04227,-0.01678,-0.00488,-0.03189,-0.08209,0.159,-0.40909,-0.03326,-0.02289,0.009,-0.03235
3.52,0.04578,-0.02243,-0.08026,-0.25543,-0.02945,-0.0415,-0.01419,-0.00473,-0.03616,-0.09399,0.15167,-0.36819,-0.03174,-0.02106,0.01038,-0.03098
3.5205,0.06104,0.03128,-0.01877,-0.25467,-0.02975,-0.04166,-0.01144,-0.00244,-0.04272,-0.09064,0.16144,-0.33829,-0.03174,-0.01862,0.01114,-0.03174
3.521,0.07065,0.0708,0.12894,-0.19592,-0.02899,-0.04349,-0.00946,-0.00046,-0.04715,-0.06577,0.17044,-0.30899,-0.03265,-0.0174,0.01297,-0.03418
3.5215,0.0618,0.09216,0.26886,-0.09964,-0.03052,-0.04486,-0.00916,0.00046,-0.04715,-0.02853,0.15945,-0.24185,-0.03281,-0.01816,0.01282,-0.03677
3.522,0.04349,0.10544,0.28503,-0.01205,-0.03265,-0.0473,-0.00931,-0.00092,-0.04059,0.00809,0.13687,-0.0885,-0.03159,-0.02014,0.00961,-0.03937
3.5225,0.02945,0.11749,0.17029,0.03586,-0.03479,-0.04837,-0.01007,-0.00183,-0.03021,0.03372,0.13016,0.15793,-0.0293,-0.02197,0.00656,-0.04196
3.523,0.0206,0.121,0.01755,0.00916,-0.03479,-0.04959,-0.01144,-0.00198,-0.01923,0.04501,0.14725,0.40588,-0.02823,-0.02167,0.00427,-0.04456
3.5235,0.01099,0.10178,-0.08682,-0.09567,-0.03479,-0.05035,-0.01404,-0.0029,-0.00702,0.0444,0.16357,0.522,-0.02823,-0.0209,0.00336,-0.04623
3.524,-0.00015,0.06195,-0.12665,-0.20493,-0.03525,-0.0502,-0.01617,-0.00595,0.0029,0.04257,0.15991,0.47729,-0.02853,-0.01984,0.00275,-0.0473
3.5245,-0.01053,0.02121,-0.12634,-0.24048,-0.0351,-0.04974,-0.0174,-0.00916,0.00885,0.04898,0.14526,0.37689,-0.0293,-0.02075,0.00366,-0.04684
3.525,-0.01801,-0.0029,-0.10513,-0.20355,-0.03372,-0.0499,-0.01724,-0.01007,0.01114,0.06592,0.1326,0.30746,-0.02991,-0.02243,0.00641,-0.04486
3.5255,-0.02075,-0.00961,-0.0766,-0.13107,-0.03326,-0.05157,-0.01694,-0.00824,0.01007,0.08163,0.12482,0.24246,-0.03113,-0.0238,0.00732,-0.04303
3.526,-0.02075,-0.00229,-0.05417,-0.0322,-0.03403,-0.05295,-0.01617,-0.0058,0.00916,0.08667,0.12161,0.1268,-0.03189,-0.02396,0.00763,-0.04318
3.5265,-0.02151,0.01572,-0.04257,0.07309,-0.03479,-0.05234,-0.01801,-0.00473,0.00992,0.08194,0.12283,-0.00443,-0.03296,-0.02365,0.00854,-0.04272
3.527,-0.02625,0.04379,-0.03799,0.12573,-0.03586,-0.0502,-0.02106,-0.00656,0.01144,0.06729,0.12207,-0.07721,-0.03311,-0.02396,0.01068,-0.04166
3.5275,-0.03403,0.07217,-0.04059,0.08316,-0.03601,-0.05035,-0.02289,-0.00809,0.0116,0.04486,0.10635,-0.08926,-0.0325,-0.02472,0.01236,-0.04013
3.528,-0.04318,0.09109,-0.06897,-0.02045,-0.03601,-0.05295,-0.0209,-0.00702,0.00946,0.02045,0.0705,-0.11063,-0.03235,-0.02579,0.01114,-0.04059
3.5285,-0.05249,0.09644,-0.12787,-0.10651,-0.03632,-0.05417,-0.01633,-0.00366,0.00961,0.00214,0.01709,-0.16998,-0.03296,-0.02579,0.00916,-0.04333
3.529,-0.05478,0.08911,-0.18921,-0.12695,-0.03693,-0.0528,-0.01434,-0.00076,0.01419,-0.00549,-0.04868,-0.20966,-0.03403,-0.02625,0.00656,-0.04715
3.5295,-0.04425,0.07339,-0.21133,-0.09583,-0.03616,-0.05157,-0.01389,-0.00046,0.02258,-0.00443,-0.11154,-0.18188,-0.03479,-0.02594,0.00458,-0.04868
3.53,-0.02441,0.05371,-0.18036,-0.02945,-0.03601,-0.05234,-0.01419,-0.00015,0.02792,-0.00168,-0.15396,-0.13153,-0.03464,-0.02289,0.00443,-0.04913
3.5305,-0.00473,0.03296,-0.1004,0.07553,-0.0354,-0.05356,-0.01312,0.00229,0.02472,-0.00397,-0.16037,-0.14587,-0.0325,-0.0206,0.00565,-0.04745
3.531,0.01083,0.01297,0.01068,0.19226,-0.0354,-0.0528,-0.01297,0.00275,0.01465,-0.02747,-0.12527,-0.23148,-0.02991,-0.01968,0.00763,-0.04456
3.5315,0.02518,-0.0061,0.1268,0.25284,-0.0354,-0.05142,-0.0145,-0.00061,0.00702,-0.08759,-0.06744,-0.29404,-0.0296,-0.02121,0.00885,-0.04242
3.532,0.03677,-0.02304,0.21622,0.19913,-0.03357,-0.05173,-0.01648,-0.0058,0.00916,-0.17395,-0.02167,-0.25452,-0.03235,-0.02258,0.00961,-0.04272
3.5325,0.03601,-0.03586,0.26535,0.04456,-0.03189,-0.05112,-0.01556,-0.00656,0.01648,-0.2272,0.00061,-0.14648,-0.03464,-0.0238,0.01083,-0.04227
3.533,0.02197,-0.04639,0.29724,-0.07019,-0.03113,-0.04974,-0.01266,-0.00275,0.01984,-0.19867,0.01175,-0.05005,-0.0354,-0.02472,0.01129,-0.04059
3.5335,0.0032,-0.05585,0.33371,0.02579,-0.03128,-0.04929,-0.009,0.00122,0.01495,-0.10239,0.02396,0.00641,-0.03494,-0.02563,0.01083,-0.03723
3.534,-0.01114,-0.06516,0.3418,0.29587,-0.03174,-0.05142,-0.00854,0.00031,0.00473,0.00275,0.03326,0.05035,-0.03525,-0.02548,0.00916,-0.03693
3.5345,-0.01724,-0.07294,0.25513,0.48141,-0.03098,-0.05325,-0.01114,-0.0029,-0.00473,0.07599,0.03082,0.08926,-0.03616,-0.02472,0.00931,-0.03967
3.535,-0.01785,-0.07553,0.06058,0.41,-0.03021,-0.05081,-0.01526,-0.00351,-0.01038,0.11612,0.01907,0.09293,-0.03723,-0.02457,0.0087,-0.04364
3.5355,-0.01923,-0.07141,-0.15778,0.17654,-0.03036,-0.04715,-0.01572,-0.00412,-0.01404,0.13565,0.00519,0.04272,-0.03754,-0.02609,0.00946,-0.04715
3.536,-0.02274,-0.06302,-0.29007,-0.01968,-0.03113,-0.04562,-0.01419,-0.00687,-0.01694,0.13824,-0.0058,-0.03281,-0.03784,-0.02792,0.00809,-0.04761
3.5365,-0.02472,-0.05402,-0.29434,-0.09476,-0.0293,-0.04639,-0.01221,-0.00992,-0.01938,0.12314,-0.0116,-0.08545,-0.03754,-0.0267,0.00717,-0.0473
3.537,-0.02365,-0.04822,-0.20493,-0.10284,-0.02853,-0.04684,-0.01068,-0.01068,-0.02121,0.0975,-0.01266,-0.09048,-0.03708,-0.02411,0.00763,-0.04654
3.5375,-0.01862,-0.0502,-0.08057,-0.1265,-0.02899,-0.04593,-0.00992,-0.00809,-0.02365,0.06622,-0.01221,-0.05447,-0.03601,-0.0206,0.00824,-0.04654
3.538,-0.01175,-0.05676,0.02853,-0.17563,-0.03159,-0.0441,-0.00977,-0.00702,-0.03143,0.03662,-0.01663,-0.00809,-0.03555,-0.01862,0.00854,-0.04761
3.5385,-0.00351,-0.06531,0.1001,-0.18784,-0.03464,-0.04257,-0.01144,-0.00839,-0.04364,0.0116,-0.02716,0.01755,-0.03632,-0.01877,0.00885,-0.04959
3.539,0.00687,-0.06851,0.13123,-0.12756,-0.03571,-0.04456,-0.01526,-0.01068,-0.05188,-0.00748,-0.03799,0.0351,-0.03723,-0.02029,0.00885,-0.04898
3.5395,0.01633,-0.06851,0.13336,-0.02563,-0.03448,-0.04623,-0.0174,-0.01083,-0.04913,-0.0235,-0.04456,0.09338,-0.03662,-0.01999,0.01022,-0.04684
3.54,0.01801,-0.07095,0.11215,0.06012,-0.03311,-0.04684,-0.01816,-0.00977,-0.03799,-0.04089,-0.04608,0.20309,-0.03448,-0.01724,0.01129,-0.04425
3.5405,0.00931,-0.07935,0.07263,0.08575,-0.03235,-0.04608,-0.01877,-0.00961,-0.0267,-0.05722,-0.04349,0.30258,-0.03403,-0.0148,0.01175,-0.04349
3.541,-0.00626,-0.08804,0.02701,0.03586,-0.0322,-0.04593,-0.01953,-0.00931,-0.0174,-0.06638,-0.04089,0.33386,-0.03448,-0.01404,0.01175,-0.04257
3.5415,-0.02136,-0.09262,-0.01114,-0.05707,-0.03189,-0.04608,-0.02045,-0.00656,-0.0087,-0.06134,-0.05264,0.31113,-0.03479,-0.01434,0.01205,-0.04227
3.542,-0.02747,-0.09201,-0.03754,-0.12344,-0.03204,-0.04517,-0.02014,-0.0029,-0.00061,-0.04288,-0.08835,0.29572,-0.03448,-0.01526,0.01297,-0.04196
3.5425,-0.02243,-0.08652,-0.05707,-0.12955,-0.03159,-0.04517,-0.01877,-0.00137,0.00488,-0.02075,-0.13733,0.31204,-0.03479,-0.01648,0.01266,-0.04242
3.543,-0.01312,-0.07675,-0.07156,-0.11185,-0.03082,-0.0473,-0.01663,-0.00229,0.00763,-0.00259,-0.17944,0.32242,-0.03433,-0.01816,0.01022,-0.04318
3.5435,-0.00595,-0.06622,-0.07095,-0.10941,-0.02823,-0.04761,-0.01572,-0.00259,0.009,0.01175,-0.20615,0.28748,-0.03418,-0.01938,0.0087,-0.04395
3.544,-0.0032,-0.06134,-0.04486,-0.1149,-0.02594,-0.04623,-0.01602,-0.00107,0.00992,0.02762,-0.2269,0.22568,-0.03342,-0.01938,0.00854,-0.04486
3.5445,0.00031,-0.06165,0.00885,-0.10803,-0.02533,-0.04364,-0.01541,0.00107,0.00671,0.047,-0.24857,0.177,-0.03143,-0.01877,0.00854,-0.04623
3.545,0.00793,-0.06226,0.06393,-0.08362,-0.02716,-0.04211,-0.01434,0.00076,-0.00153,0.06073,-0.27145,0.14343,-0.02869,-0.01923,0.00656,-0.04837
3.5455,0.01495,-0.05981,0.08484,-0.03006,-0.0293,-0.04364,-0.01373,0.00046,-0.00992,0.06363,-0.29037,0.09521,-0.02853,-0.01999,0.0029,-0.05142
3.546,0.01724,-0.05661,0.05875,0.06805,-0.03128,-0.04623,-0.01404,0.00046,-0.01602,0.05707,-0.29037,0.01816,-0.02975,-0.01953,0.00183,-0.05417
3.5465,0.01678,-0.05829,0.01358,0.17532,-0.03235,-0.0473,-0.01373,0.00092,-0.02319,0.04562,-0.24811,-0.06668,-0.03067,-0.01785,0.00366,-0.05386
3.547,0.01968,-0.07004,-0.01495,0.2034,-0.03433,-0.04669,-0.01282,-0.00015,-0.03143,0.03326,-0.16571,-0.12833,-0.03067,-0.0174,0.00702,-0.0499
3.5475,0.02747,-0.08728,-0.0174,0.10498,-0.03448,-0.04593,-0.0119,-0.00336,-0.03784,0.02075,-0.08163,-0.15091,-0.03128,-0.01953,0.00885,-0.04654
3.548,0.03403,-0.09705,-0.00565,-0.0499,-0.03464,-0.04654,-0.01129,-0.00519,-0.03906,0.0061,-0.0322,-0.14252,-0.03174,-0.02167,0.009,-0.04486
3.5485,0.03418,-0.09338,0.00443,-0.15198,-0.0351,-0.04745,-0.0119,-0.0061,-0.0386,-0.01114,-0.02167,-0.11185,-0.03189,-0.02106,0.00793,-0.04425
3.549,0.02762,-0.08041,-0.0029,-0.15533,-0.03632,-0.04852,-0.0119,-0.00549,-0.03952,-0.02823,-0.02777,-0.07202,-0.03082,-0.01923,0.00854,-0.04318
3.5495,0.0177,-0.06607,-0.03555,-0.06714,-0.03601,-0.04883,-0.01175,-0.00473,-0.04379,-0.04074,-0.03555,-0.05615,-0.03113,-0.01862,0.00946,-0.04196
3.55,0.00443,-0.05142,-0.08163,0.09155,-0.03311,-0.0499,-0.01068,-0.0032,-0.04898,-0.0444,-0.04303,-0.10422,-0.03128,-0.01846,0.0119,-0.04089
3.5505,-0.00702,-0.0351,-0.12604,0.23804,-0.0322,-0.05035,-0.01144,-0.00259,-0.05142,-0.04105,-0.05524,-0.20233,-0.03143,-0.01526,0.01221,-0.04044
3.551,-0.01251,-0.01999,-0.15839,0.26993,-0.03265,-0.05035,-0.01282,-0.00214,-0.04807,-0.03601,-0.07034,-0.27527,-0.03113,-0.01114,0.01236,-0.03906
3.5515,-0.01038,-0.01282,-0.17456,0.18204,-0.03418,-0.04913,-0.01419,-0.00046,-0.04288,-0.03647,-0.07935,-0.27252,-0.02991,-0.00885,0.01236,-0.03677
3.552,-0.00366,-0.01816,-0.16739,0.04089,-0.03479,-0.04822,-0.01404,-0.00107,-0.04135,-0.05157,-0.07919,-0.21317,-0.02777,-0.00946,0.01312,-0.03616
3.5525,0.00687,-0.02914,-0.14618,-0.11871,-0.03418,-0.04776,-0.01373,-0.0029,-0.04395,-0.08438,-0.07492,-0.13824,-0.02686,-0.01099,0.01175,-0.03754
3.553,0.02258,-0.04013,-0.13321,-0.26093,-0.03281,-0.04684,-0.01312,-0.00549,-0.04745,-0.1178,-0.07355,-0.06699,-0.02594,-0.0119,0.00931,-0.0386
3.5535,0.0351,-0.04898,-0.13947,-0.30701,-0.0322,-0.04395,-0.01297,-0.00534,-0.04486,-0.11841,-0.07736,-0.01221,-0.0267,-0.01205,0.00687,-0.03815
3.554,0.0322,-0.05798,-0.15274,-0.23956,-0.03113,-0.0444,-0.01312,-0.00336,-0.03448,-0.07385,-0.08377,0.01404,-0.02762,-0.0119,0.00519,-0.03784
3.5545,0.01297,-0.0679,-0.14771,-0.16312,-0.02975,-0.04639,-0.01373,-0.00031,-0.02121,-0.00824,-0.08682,0.0058,-0.02823,-0.0116,0.0061,-0.03647
3.555,-0.01068,-0.07706,-0.12131,-0.17776,-0.03189,-0.04837,-0.01282,0.00076,-0.01144,0.04166,-0.08774,-0.03967,-0.0267,-0.0116,0.00916,-0.03464
3.5555,-0.02609,-0.08438,-0.10544,-0.24734,-0.03464,-0.05051,-0.01144,0.00076,-0.00809,0.06195,-0.09186,-0.10315,-0.02457,-0.01175,0.01083,-0.03265
3.556,-0.03708,-0.09064,-0.13336,-0.27557,-0.03586,-0.05295,-0.00854,-0.00015,-0.00641,0.056,-0.10895,-0.13382,-0.0238,-0.01282,0.01129,-0.0322
3.5565,-0.04745,-0.09705,-0.20462,-0.23132,-0.0351,-0.05493,-0.00854,-0.00122,-0.00366,0.0267,-0.13153,-0.10574,-0.02548,-0.0145,0.01099,-0.03174
3.557,-0.05478,-0.10239,-0.2803,-0.14999,-0.03342,-0.05508,-0.00992,-0.00107,-0.00183,-0.02441,-0.13855,-0.06409,-0.02686,-0.01556,0.01083,-0.03159
3.5575,-0.05234,-0.10361,-0.31662,-0.05951,-0.03143,-0.05051,-0.00961,0.00061,-0.00153,-0.09094,-0.12115,-0.0589,-0.02594,-0.01556,0.01007,-0.03311
3.558,-0.04425,-0.1004,-0.29053,0.05234,-0.03098,-0.04578,-0.00748,0.00168,-0.00366,-0.14801,-0.0972,-0.07217,-0.02563,-0.01694,0.00809,-0.03571
3.5585,-0.0325,-0.09476,-0.19821,0.20187,-0.02945,-0.04364,-0.0061,0.00168,-0.0061,-0.16876,-0.10345,-0.04242,-0.02625,-0.01923,0.00565,-0.03738
3.559,-0.01465,-0.08759,-0.06821,0.34943,-0.02777,-0.04364,-0.00748,0.00046,-0.00549,-0.13931,-0.15289,0.0502,-0.02777,-0.02167,0.00397,-0.0383
3.5595,0.00763,-0.07889,0.03113,0.40756,-0.02441,-0.04242,-0.00977,-0.00061,-0.00504,-0.07828,-0.20844,0.159,-0.02838,-0.02319,0.00336,-0.03906
3.56,0.01801,-0.0679,0.04486,0.31876,-0.02258,-0.04211,-0.01099,0.00015,-0.00641,-0.02029,-0.21042,0.22675,-0.02808,-0.02335,0.00412,-0.03937
3.5605,0.00443,-0.05417,-0.01495,0.11673,-0.02396,-0.04349,-0.01129,0.00137,-0.01175,0.0145,-0.13138,0.24704,-0.02823,-0.0238,0.00412,-0.0386
3.561,-0.02319,-0.04227,-0.0882,-0.09583,-0.02625,-0.04578,-0.01328,-0.00015,-0.01846,0.02838,-0.0029,0.24078,-0.0293,-0.02411,0.00427,-0.03754
3.5615,-0.04486,-0.03326,-0.1265,-0.21484,-0.0264,-0.04623,-0.01709,-0.00427,-0.02365,0.03433,0.12512,0.21255,-0.0322,-0.02426,0.00519,-0.03586
3.562,-0.05219,-0.02686,-0.12558,-0.20767,-0.02457,-0.04349,-0.02045,-0.00946,-0.02365,0.03708,0.22537,0.14282,-0.03494,-0.02396,0.00534,-0.0351
3.5625,-0.04715,-0.02289,-0.09598,-0.11398,-0.02304,-0.0412,-0.02151,-0.01175,-0.01678,0.03845,0.2916,0.00839,-0.03525,-0.0235,0.00488,-0.03647
3.563,-0.03098,-0.02151,-0.0351,-0.00656,-0.02151,-0.0415,-0.0206,-0.01083,-0.00549,0.03799,0.3186,-0.18295,-0.03357,-0.0235,0.00412,-0.03708
3.5635,-0.00656,-0.02304,0.06134,0.04105,-0.0206,-0.04211,-0.0177,-0.00854,0.00275,0.03616,0.3035,-0.36438,-0.03372,-0.02426,0.00443,-0.03723
3.564,0.01404,-0.02518,0.16602,-0.01633,-0.02121,-0.04379,-0.01343,-0.00671,0.00519,0.03448,0.25513,-0.44952,-0.03418,-0.02411,0.00549,-0.03677
3.5645,0.01709,-0.02579,0.22324,-0.15244,-0.02365,-0.04425,-0.01114,-0.00565,0.00443,0.0267,0.19089,-0.40253,-0.0351,-0.02228,0.00671,-0.03586
3.565,0.00061,-0.02716,0.2037,-0.28992,-0.02518,-0.04517,-0.01251,-0.00504,0.00412,0.0145,0.12161,-0.24979,-0.03586,-0.01801,0.00717,-0.03571
3.5655,-0.02228,-0.03128,0.14755,-0.37231,-0.02686,-0.04745,-0.01556,-0.0061,0.00275,0.00412,0.047,-0.04974,-0.03464,-0.01434,0.00641,-0.03632
3.566,-0.03647,-0.03906,0.11963,-0.38025,-0.02731,-0.04929,-0.01862,-0.00717,-0.00153,-0.00092,-0.02731,0.13153,-0.03281,-0.01556,0.0061,-0.03677
3.5665,-0.03616,-0.05066,0.12192,-0.29968,-0.02838,-0.05005,-0.01755,-0.00595,-0.00793,-0.00031,-0.08148,0.24048,-0.03281,-0.01831,0.00687,-0.03632
3.567,-0.02594,-0.06241,0.10376,-0.13641,-0.03036,-0.05051,-0.01373,-0.00214,-0.0177,0.00107,-0.10132,0.24963,-0.03479,-0.02121,0.00839,-0.03571
3.5675,-0.01175,-0.07355,0.03845,0.01144,-0.03174,-0.05234,-0.00992,0.00076,-0.03265,0.00046,-0.09644,0.16403,-0.03571,-0.02274,0.00809,-0.03494
3.568,0.00656,-0.08179,-0.0444,0.01144,-0.03342,-0.05402,-0.00824,0.00214,-0.0502,-0.00153,-0.09308,0.03464,-0.0351,-0.02365,0.00687,-0.03586
3.5685,0.02762,-0.08682,-0.10529,-0.13138,-0.0354,-0.05478,-0.00946,0.00168,-0.0618,-0.00534,-0.10345,-0.04929,-0.03464,-0.02365,0.00565,-0.03662
3.569,0.04242,-0.08453,-0.13687,-0.25406,-0.03815,-0.05402,-0.0119,0.00046,-0.06149,-0.01129,-0.12192,-0.03723,-0.03403,-0.02365,0.0058,-0.03632
3.5695,0.03922,-0.07553,-0.15945,-0.22263,-0.0386,-0.05402,-0.01465,-0.00015,-0.04913,-0.01801,-0.14252,0.03159,-0.03311,-0.02228,0.00748,-0.03448
3.57,0.01923,-0.06516,-0.18158,-0.04883,-0.03723,-0.05386,-0.01526,-0.00061,-0.03265,-0.02213,-0.16968,0.09125,-0.0325,-0.02136,0.0087,-0.0354
3.5705,-0.00778,-0.05554,-0.19882,0.19836,-0.03723,-0.05493,-0.01328,0.00107,-0.01968,-0.02655,-0.19592,0.14587,-0.03326,-0.02274,0.00748,-0.03738
3.571,-0.03143,-0.04623,-0.20493,0.46661,-0.03891,-0.05661,-0.01038,0.00351,-0.01282,-0.02899,-0.20096,0.24323,-0.03433,-0.02594,0.00656,-0.0386
3.5715,-0.04318,-0.03311,-0.20264,0.6749,-0.04059,-0.05692,-0.00931,0.00473,-0.01068,-0.0322,-0.17181,0.36301,-0.03616,-0.02579,0.00641,-0.03708
3.572,-0.03906,-0.01862,-0.19638,0.7106,-0.04059,-0.05692,-0.01099,0.0032,-0.01114,-0.03586,-0.11215,0.41809,-0.03571,-0.02228,0.00687,-0.03616
3.5725,-0.02167,-0.00717,-0.18372,0.53345,-0.04105,-0.056,-0.01389,0.00015,-0.01495,-0.03906,-0.03952,0.38132,-0.03403,-0.01877,0.00763,-0.03754
3.573,0.00168,0.0,-0.16342,0.23727,-0.0412,-0.05463,-0.01465,-0.00214,-0.02167,-0.04272,0.02792,0.31296,-0.03189,-0.01724,0.00839,-0.03952
3.5735,0.0177,0.00595,-0.13885,-0.0444,-0.04089,-0.05356,-0.01251,-0.00122,-0.02762,-0.04608,0.07462,0.25116,-0.03143,-0.01877,0.00931,-0.03998
3.574,0.02136,0.01129,-0.11551,-0.22812,-0.03906,-0.05264,-0.01038,0.00061,-0.02548,-0.04852,0.09048,0.18021,-0.0325,-0.01892,0.01129,-0.03876
3.5745,0.0174,0.01678,-0.0914,-0.28336,-0.03723,-0.05173,-0.0087,0.00092,-0.01617,-0.04929,0.08041,0.09796,-0.03296,-0.01755,0.01129,-0.03723
3.575,0.01389,0.02151,-0.05936,-0.21835,-0.03723,-0.0499,-0.00778,0.00031,-0.00763,-0.04532,0.05585,0.0264,-0.03159,-0.01526,0.01038,-0.03647
3.5755,0.01648,0.0264,-0.00977,-0.11841,-0.0386,-0.04944,-0.00778,-0.0029,-0.00763,-0.0386,0.02563,-0.03845,-0.02869,-0.01465,0.00885,-0.03754
3.576,0.02151,0.03067,0.06073,-0.08026,-0.03998,-0.0499,-0.01007,-0.00458,-0.0119,-0.03326,-0.00809,-0.11902,-0.02655,-0.01434,0.00824,-0.03876
3.5765,0.02396,0.03159,0.13199,-0.07538,-0.03967,-0.04974,-0.01221,-0.00443,-0.01175,-0.03159,-0.04242,-0.21378,-0.02731,-0.01526,0.00824,-0.04059
3.577,0.01968,0.02548,0.17136,0.00076,-0.03876,-0.0473,-0.01389,-0.00397,-0.00549,-0.02747,-0.07553,-0.29984,-0.02884,-0.01617,0.00717,-0.04211
3.5775,0.00732,0.00824,0.16769,0.13657,-0.03754,-0.04456,-0.01465,-0.00473,0.00076,-0.01953,-0.10315,-0.3598,-0.02991,-0.01755,0.00656,-0.04196
3.578,-0.00839,-0.0174,0.13763,0.22507,-0.03632,-0.04242,-0.01556,-0.00656,0.00275,-0.00931,-0.12695,-0.39581,-0.02823,-0.01953,0.00656,-0.03983
3.5785,-0.02304,-0.04578,0.09796,0.24002,-0.03418,-0.04089,-0.01617,-0.00748,-0.00076,0.00183,-0.15015,-0.40741,-0.02762,-0.01999,0.00885,-0.03693
3.579,-0.03143,-0.07233,0.05203,0.23926,-0.03174,-0.03845,-0.01724,-0.00687,-0.00198,0.009,-0.17166,-0.36026,-0.02762,-0.01968,0.01099,-0.03479
3.5795,-0.03708,-0.10132,0.00916,0.22476,-0.03021,-0.03708,-0.01648,-0.00626,0.00259,0.01099,-0.1889,-0.21576,-0.02716,-0.01892,0.01251,-0.03326
3.58,-0.04288,-0.13367,-0.00427,0.14374,-0.02884,-0.03845,-0.01495,-0.00427,0.00931,0.0116,-0.19821,0.00153,-0.02594,-0.01709,0.01434,-0.03128
3.5805,-0.04547,-0.15945,0.03235,0.00473,-0.02762,-0.04028,-0.01312,-0.00305,0.01114,0.01801,-0.20508,0.18692,-0.02518,-0.01633,0.01465,-0.0296
3.581,-0.03326,-0.16342,0.08698,-0.11993,-0.02579,-0.04105,-0.01419,-0.00122,0.00656,0.02899,-0.2182,0.23514,-0.02594,-0.01633,0.01434,-0.02899
3.5815,-0.00916,-0.1442,0.09247,-0.19485,-0.0238,-0.04074,-0.01526,-0.00061,0.0,0.03555,-0.23605,0.15213,-0.0264,-0.01678,0.0119,-0.02991
3.582,0.00854,-0.10696,0.0174,-0.22858,-0.02365,-0.0412,-0.01556,-0.00229,-0.00824,0.03281,-0.24597,0.0412,-0.02777,-0.01892,0.01022,-0.03159
3.5825,0.00717,-0.05371,-0.103,-0.21332,-0.02335,-0.04181,-0.01556,-0.00488,-0.0174,0.0238,-0.2301,-0.02167,-0.02945,-0.02182,0.00793,-0.03372
3.583,-0.00305,0.00687,-0.20172,-0.14175,-0.02411,-0.0415,-0.01602,-0.00549,-0.02426,0.01312,-0.18097,-0.04684,-0.03159,-0.02441,0.00702,-0.03677
3.5835,-0.00443,0.06058,-0.23376,-0.04211,-0.02655,-0.04074,-0.01694,-0.00473,-0.0264,0.00412,-0.11551,-0.07065,-0.03265,-0.02548,0.00656,-0.0383
3.584,0.00336,0.09598,-0.18967,0.04745,-0.02884,-0.04044,-0.0177,-0.00366,-0.02548,-0.00412,-0.05814,-0.09094,-0.03265,-0.02625,0.00687,-0.03738
3.5845,0.009,0.11642,-0.09109,0.11551,-0.03052,-0.04227,-0.0174,-0.00473,-0.02518,-0.01007,-0.01144,-0.08652,-0.0325,-0.02655,0.00626,-0.03525
3.585,0.0061,0.12939,0.00214,0.14832,-0.03113,-0.04562,-0.01724,-0.00549,-0.02609,-0.0145,0.03845,-0.06653,-0.03204,-0.02609,0.00732,-0.03464
3.5855,0.00183,0.13138,0.02808,0.11612,-0.03113,-0.04761,-0.01511,-0.00412,-0.02411,-0.02045,0.09537,-0.06058,-0.03281,-0.02426,0.00839,-0.03403
3.586,0.00259,0.11612,-0.02014,0.03433,-0.03204,-0.04959,-0.01282,-0.00305,-0.01999,-0.0325,0.1413,-0.08286,-0.03342,-0.02213,0.00946,-0.03464
3.5865,0.01328,0.0853,-0.0943,-0.02853,-0.0325,-0.05112,-0.01129,-0.00397,-0.01755,-0.04837,0.16235,-0.11139,-0.03387,-0.02182,0.01068,-0.03448
3.587,0.03387,0.04837,-0.14908,-0.04578,-0.03265,-0.05203,-0.01129,-0.00473,-0.01785,-0.05554,0.15991,-0.11063,-0.03479,-0.02365,0.01312,-0.03433
3.5875,0.05875,0.0145,-0.16907,-0.04425,-0.03159,-0.05264,-0.01266,-0.00412,-0.02243,-0.04883,0.14359,-0.04974,-0.03632,-0.0267,0.01221,-0.03418
3.588,0.07187,-0.01221,-0.15411,-0.02426,-0.0293,-0.05249,-0.01312,-0.00259,-0.03052,-0.03494,0.12024,0.08026,-0.03693,-0.02808,0.0116,-0.03387
3.5885,0.05859,-0.03021,-0.10422,0.02579,-0.02762,-0.05234,-0.01419,-0.00107,-0.0386,-0.0264,0.09232,0.23163,-0.03708,-0.02945,0.00977,-0.03433
3.589,0.02319,-0.03784,-0.03296,0.05768,-0.02655,-0.05173,-0.0148,-0.00122,-0.03906,-0.02701,0.06042,0.30411,-0.0386,-0.03143,0.00793,-0.03555
3.5895,-0.01495,-0.04013,0.0296,0.01892,-0.02777,-0.05005,-0.0148,-0.00092,-0.02548,-0.03372,0.02304,0.2475,-0.03876,-0.03357,0.00702,-0.03723
3.59,-0.0383,-0.04303,0.05646,-0.03204,-0.02777,-0.04913,-0.01434,-0.00153,-0.00519,-0.0444,-0.01465,0.13397,-0.03723,-0.03235,0.00732,-0.03769
3.5905,-0.04562,-0.05005,0.05386,-0.01892,-0.02701,-0.04715,-0.01434,-0.00259,0.00778,-0.05463,-0.04318,0.06927,-0.03448,-0.02914,0.00687,-0.0383
3.591,-0.04608,-0.05417,0.04471,0.01114,-0.02625,-0.04639,-0.01511,-0.00458,0.01328,-0.06134,-0.05539,0.07141,-0.03326,-0.02441,0.00763,-0.03906
3.5915,-0.04837,-0.0502,0.05081,-0.03082,-0.02579,-0.04562,-0.01785,-0.0061,0.01572,-0.06287,-0.04913,0.08484,-0.03387,-0.02167,0.00549,-0.03876
3.592,-0.05142,-0.03998,0.08087,-0.10971,-0.02548,-0.04364,-0.01938,-0.00656,0.01801,-0.06271,-0.03159,0.07843,-0.03616,-0.02243,0.00671,-0.03677
3.5925,-0.04684,-0.03372,0.12817,-0.10391,-0.02625,-0.04364,-0.02075,-0.0058,0.01373,-0.06638,-0.01694,0.06546,-0.03738,-0.02487,0.00885,-0.03479
3.593,-0.03662,-0.03922,0.16769,-0.00153,-0.02975,-0.04608,-0.02106,-0.00427,0.00488,-0.08209,-0.01877,0.05554,-0.03769,-0.02792,0.01053,-0.03418
3.5935,-0.02884,-0.05524,0.19363,0.06409,-0.03235,-0.04761,-0.01923,-0.00381,-0.00244,-0.1152,-0.03098,0.02991,-0.0383,-0.02945,0.01144,-0.03647
3.594,-0.02457,-0.07645,0.24261,0.0148,-0.03204,-0.04852,-0.01755,-0.00458,-0.00626,-0.16068,-0.01877,-0.03601,-0.03906,-0.02884,0.00977,-0.0383
3.5945,-0.01663,-0.103,0.33203,-0.06393,-0.02899,-0.04807,-0.0174,-0.00687,-0.01007,-0.19516,0.03311,-0.15106,-0.03876,-0.02594,0.00992,-0.03983
3.595,-0.00336,-0.14053,0.38757,-0.06226,-0.02563,-0.04608,-0.01785,-0.00717,-0.01877,-0.1857,0.09338,-0.27847,-0.03723,-0.02441,0.01038,-0.04059
3.5955,0.00839,-0.1857,0.2919,-0.00961,-0.02289,-0.04562,-0.01862,-0.00793,-0.03128,-0.12939,0.11703,-0.354,-0.03708,-0.0238,0.01083,-0.04028
3.596,0.01312,-0.22598,0.03342,0.00412,-0.02289,-0.04318,-0.01907,-0.00793,-0.0441,-0.06699,0.09949,-0.34363,-0.03555,-0.02213,0.01099,-0.04059
3.5965,0.01572,-0.25101,-0.26825,-0.02502,-0.02304,-0.04242,-0.01785,-0.00839,-0.05066,-0.03998,0.06638,-0.26688,-0.03326,-0.01785,0.00946,-0.04135
3.597,0.02167,-0.25391,-0.48248,-0.04593,-0.02304,-0.04486,-0.0174,-0.01022,-0.0531,-0.04868,0.03036,-0.15594,-0.03204,-0.01328,0.00961,-0.0412
3.5975,0.03113,-0.22598,-0.54504,-0.06088,-0.02472,-0.04791,-0.01785,-0.0116,-0.05066,-0.06149,-0.00992,-0.02426,-0.03311,-0.0116,0.00809,-0.04166
3.598,0.0354,-0.16281,-0.44922,-0.10483,-0.02563,-0.04929,-0.01846,-0.00961,-0.0441,-0.056,-0.04074,0.10895,-0.03433,-0.01251,0.00885,-0.04288
3.5985,0.02304,-0.07172,-0.22888,-0.14526,-0.02686,-0.04807,-0.01892,-0.00626,-0.0322,-0.02655,-0.0293,0.1947,-0.03464,-0.01358,0.00839,-0.04547
3.599,-0.00778,0.02502,-0.00061,-0.10056,-0.0296,-0.04669,-0.01801,-0.00412,-0.01923,0.01892,0.03448,0.186,-0.03357,-0.01266,0.00824,-0.04669
3.5995,-0.04562,0.11353,0.09979,0.03494,-0.03159,-0.04654,-0.01648,-0.00336,-0.01343,0.06836,0.12726,0.09399,-0.03403,-0.01144,0.00824,-0.04593
3.6,-0.07263,0.18219,0.03464,0.16525,-0.03098,-0.04578,-0.01343,-0.00397,-0.01541,0.10498,0.21393,-0.01343,-0.03616,-0.01175,0.00748,-0.04425
3.6005,-0.08026,0.22552,-0.11551,0.21317,-0.03036,-0.04349,-0.01175,-0.00336,-0.02136,0.11963,0.27008,-0.07584,-0.0386,-0.0119,0.00671,-0.04395
3.601,-0.07538,0.23575,-0.25467,0.20172,-0.02991,-0.03998,-0.01114,-0.00244,-0.02579,0.11703,0.2832,-0.09796,-0.04013,-0.0116,0.00702,-0.04288
3.6015,-0.06424,0.21576,-0.33844,0.18829,-0.03235,-0.03937,-0.01297,-0.00275,-0.02777,0.1062,0.25818,-0.13245,-0.04181,-0.01129,0.00824,-0.04211
3.602,-0.04562,0.18066,-0.35843,0.16724,-0.03387,-0.04318,-0.01266,-0.00214,-0.02243,0.08835,0.21164,-0.20844,-0.04364,-0.01266,0.01129,-0.03983
3.6025,-0.01938,0.14313,-0.31677,0.06866,-0.03586,-0.04868,-0.00916,-0.00076,-0.01221,0.065,0.15854,-0.29709,-0.04379,-0.01328,0.01236,-0.03891
3.603,0.0087,0.10605,-0.233,-0.11963,-0.03784,-0.05188,-0.00656,0.00168,-0.0029,0.04044,0.09933,-0.35217,-0.04257,-0.01358,0.01114,-0.03723
3.6035,0.02991,0.0705,-0.1384,-0.28534,-0.03967,-0.05234,-0.00595,0.00275,-0.00504,0.02106,0.03281,-0.36438,-0.04257,-0.01404,0.01236,-0.03616
3.604,0.04013,0.03525,-0.06485,-0.31418,-0.03937,-0.05219,-0.00839,0.00153,-0.01801,0.00885,-0.03143,-0.34378,-0.04242,-0.01511,0.01251,-0.03632
3.6045,0.04135,-0.00305,-0.03998,-0.2356,-0.03891,-0.05219,-0.01083,-0.00122,-0.02823,0.00076,-0.07797,-0.27435,-0.04242,-0.01511,0.01328,-0.03708
3.605,0.03784,-0.04791,-0.08087,-0.16342,-0.03632,-0.05127,-0.01068,-0.00137,-0.02808,-0.00092,-0.10025,-0.11917,-0.04105,-0.01282,0.01129,-0.03738
3.6055,0.03433,-0.09842,-0.15289,-0.12909,-0.0351,-0.04807,-0.01022,0.00229,-0.01984,-0.00092,-0.09705,0.11215,-0.03998,-0.00931,0.00992,-0.03708
3.606,0.03479,-0.14526,-0.17822,-0.07935,-0.03418,-0.04654,-0.01114,0.00519,-0.00977,-0.00549,-0.07553,0.32394,-0.04013,-0.00626,0.00931,-0.03708
3.6065,0.03784,-0.17899,-0.11322,-0.01877,-0.03265,-0.04562,-0.01312,0.00458,-0.00076,-0.03021,-0.04883,0.41794,-0.04028,-0.00565,0.00977,-0.03906
3.607,0.04059,-0.1944,0.00626,-0.02869,-0.03098,-0.04547,-0.01389,0.00198,0.009,-0.06653,-0.02304,0.3981,-0.03845,-0.00763,0.00748,-0.04074
3.6075,0.04166,-0.19974,0.1239,-0.12009,-0.02884,-0.04501,-0.01282,0.00031,0.01663,-0.09186,0.00458,0.34302,-0.03769,-0.01114,0.00504,-0.04227
3.608,0.03937,-0.20401,0.22491,-0.20126,-0.02731,-0.04242,-0.01251,0.0,0.01587,-0.08972,0.03021,0.29572,-0.03784,-0.0148,0.00244,-0.04288
3.6085,0.02991,-0.2095,0.32303,-0.21133,-0.02686,-0.03906,-0.0148,-0.00214,0.00641,-0.06989,0.0444,0.24277,-0.03906,-0.01755,0.00137,-0.04303
3.609,0.01923,-0.20935,0.40497,-0.17853,-0.02747,-0.03815,-0.0174,-0.00549,-0.00214,-0.04105,0.04639,0.17487,-0.03876,-0.01862,0.00107,-0.04288
3.6095,0.01495,-0.19699,0.43121,-0.14984,-0.02777,-0.03983,-0.01831,-0.00626,-0.00153,-0.00732,0.04059,0.13046,-0.03662,-0.01755,0.00198,-0.04181
3.61,0.01648,-0.17746,0.37613,-0.12085,-0.02899,-0.04166,-0.01846,-0.00656,0.00351,0.02838,0.0351,0.14877,-0.03479,-0.0174,0.00427,-0.03998
3.6105,0.01724,-0.15533,0.2626,-0.05157,-0.03021,-0.04288,-0.01785,-0.00504,0.00061,0.0528,0.02808,0.19897,-0.03464,-0.01877,0.00656,-0.03922
3.611,0.01053,-0.12772,0.13306,0.05478,-0.03159,-0.04242,-0.01617,-0.00443,-0.01633,0.05692,0.01785,0.21805,-0.03494,-0.02045,0.00626,-0.03998
3.6115,-0.00092,-0.09247,0.01877,0.12665,-0.03143,-0.04227,-0.01419,-0.00275,-0.03555,0.0444,0.00565,0.20081,-0.03448,-0.02045,0.00427,-0.0412
3.612,-0.01297,-0.05478,-0.07126,0.10849,-0.03174,-0.04074,-0.01343,-0.00305,-0.04547,0.02518,-0.00443,0.18463,-0.03357,-0.02136,0.00275,-0.04303
3.6125,-0.02243,-0.01968,-0.13062,0.04395,-0.03281,-0.04074,-0.01541,-0.0032,-0.04486,0.00229,-0.01022,0.16129,-0.03372,-0.02396,0.00351,-0.04395
3.613,-0.03006,0.00946,-0.14816,0.00458,-0.03311,-0.04196,-0.0177,-0.0029,-0.04242,-0.0238,-0.0209,0.09033,-0.03433,-0.0264,0.0061,-0.04364
3.6135,-0.03708,0.03174,-0.12192,0.00107,-0.03525,-0.04379,-0.01648,-0.0032,-0.0415,-0.04761,-0.05661,-0.009,-0.03265,-0.02701,0.0087,-0.04272
3.614,-0.04242,0.04364,-0.08179,-0.00458,-0.03647,-0.04517,-0.01358,-0.00412,-0.04044,-0.06302,-0.12207,-0.06592,-0.03006,-0.02625,0.01007,-0.04074
3.6145,-0.04532,0.04333,-0.06241,-0.02838,-0.0386,-0.0473,-0.01312,-0.00534,-0.03799,-0.07172,-0.18616,-0.05402,-0.02762,-0.02396,0.01038,-0.0383
3.615,-0.04257,0.03738,-0.07492,-0.05081,-0.03952,-0.04913,-0.01404,-0.00366,-0.03601,-0.08118,-0.20279,-0.03342,-0.02701,-0.02121,0.00824,-0.03983
3.6155,-0.03586,0.03357,-0.09918,-0.04883,-0.03937,-0.05142,-0.01526,-0.00198,-0.03799,-0.09445,-0.14938,-0.05981,-0.02579,-0.01953,0.00748,-0.03967
3.616,-0.02762,0.03662,-0.12299,-0.00763,-0.03891,-0.05112,-0.01389,-0.00153,-0.04089,-0.10574,-0.04379,-0.12558,-0.02487,-0.01907,0.00977,-0.04089
3.6165,-0.01785,0.04288,-0.14481,0.07553,-0.03891,-0.04868,-0.01205,-0.00198,-0.03952,-0.11063,0.06744,-0.19196,-0.02197,-0.01846,0.01129,-0.0412
3.617,-0.00809,0.04868,-0.16724,0.16876,-0.03738,-0.04639,-0.01282,-0.00351,-0.03159,-0.10422,0.13718,-0.2388,-0.02029,-0.01678,0.01251,-0.04013
3.6175,-0.00015,0.05417,-0.18143,0.21286,-0.0351,-0.04593,-0.01587,-0.00366,-0.01816,-0.08026,0.14511,-0.26703,-0.01953,-0.01358,0.0119,-0.0383
3.618,0.00595,0.05798,-0.16281,0.16495,-0.0325,-0.04761,-0.01831,-0.0029,-0.00275,-0.0386,0.09689,-0.27008,-0.01923,-0.01068,0.01068,-0.03876
3.6185,0.01068,0.05463,-0.08743,0.04318,-0.03189,-0.04776,-0.01816,-0.00137,0.01038,0.00977,0.00977,-0.24292,-0.0174,-0.00931,0.00961,-0.03983
3.619,0.01343,0.04089,0.02319,-0.08728,-0.03281,-0.04715,-0.01572,-0.00092,0.01953,0.04608,-0.08453,-0.18631,-0.01556,-0.00748,0.00854,-0.04074
3.6195,0.01556,0.0177,0.09689,-0.16693,-0.03433,-0.0473,-0.01434,-0.00092,0.02457,0.06226,-0.1413,-0.11795,-0.01526,-0.00473,0.00809,-0.03967
3.62,0.01633,-0.00824,0.0824,-0.17136,-0.03418,-0.04761,-0.01511,-0.00107,0.02319,0.05966,-0.13245,-0.06393,-0.01633,-0.00198,0.009,-0.03891
3.6205,0.01495,-0.02869,-0.00656,-0.10406,-0.03387,-0.04791,-0.01556,-0.00061,0.01724,0.04852,-0.06866,-0.02533,-0.01923,-0.00259,0.00778,-0.04044
3.621,0.01266,-0.0412,-0.11078,0.00366,-0.03189,-0.04654,-0.01556,0.0,0.00748,0.03647,0.01541,0.02487,-0.02213,-0.0058,0.00778,-0.04333
3.6215,0.01175,-0.04959,-0.18402,0.10147,-0.0293,-0.04578,-0.01526,0.00031,0.00092,0.02701,0.0943,0.09109,-0.02563,-0.00992,0.00702,-0.0444
3.622,0.0148,-0.05646,-0.20035,0.16083,-0.02731,-0.04501,-0.01556,0.00153,-0.00275,0.01953,0.15594,0.14114,-0.02899,-0.01282,0.00702,-0.04333
3.6225,0.01602,-0.06088,-0.15228,0.1857,-0.02747,-0.04547,-0.01663,0.00046,-0.00839,0.01022,0.19653,0.1683,-0.03189,-0.01633,0.00916,-0.04181
3.623,0.01419,-0.06058,-0.05478,0.16998,-0.03006,-0.04517,-0.01648,-0.00153,-0.02029,-0.00168,0.21515,0.18433,-0.03296,-0.02029,0.01114,-0.03937
3.6235,0.01083,-0.05798,0.05646,0.103,-0.03296,-0.04547,-0.01572,-0.00412,-0.03326,-0.01633,0.21027,0.17441,-0.03403,-0.02243,0.01297,-0.03693
3.624,0.01266,-0.05814,0.15015,0.02014,-0.03418,-0.04532,-0.01404,-0.00641,-0.04166,-0.03174,0.18387,0.11734,-0.03387,-0.02197,0.01221,-0.03601
3.6245,0.01816,-0.06104,0.2269,-0.03326,-0.03311,-0.04486,-0.01175,-0.00763,-0.0412,-0.04745,0.1416,0.03098,-0.03189,-0.01938,0.01114,-0.03754
3.625,0.02136,-0.06622,0.29633,-0.0618,-0.03265,-0.04471,-0.01053,-0.00839,-0.03708,-0.06241,0.08682,-0.04074,-0.03036,-0.01816,0.009,-0.04166
3.6255,0.01724,-0.07248,0.34409,-0.08514,-0.03311,-0.04608,-0.01007,-0.00732,-0.03342,-0.07202,0.03082,-0.08362,-0.02945,-0.01755,0.00687,-0.04608
3.626,0.00931,-0.08041,0.33585,-0.07965,-0.03464,-0.04883,-0.01038,-0.00656,-0.02869,-0.07462,-0.01801,-0.11292,-0.02991,-0.01709,0.00473,-0.04745
3.6265,0.00015,-0.09415,0.26474,-0.0293,-0.03357,-0.05096,-0.0119,-0.00549,-0.02274,-0.07019,-0.05402,-0.14053,-0.02899,-0.01648,0.0029,-0.04715
3.627,-0.00809,-0.11353,0.16403,0.02731,-0.03128,-0.05203,-0.01251,-0.00519,-0.01694,-0.05707,-0.0705,-0.15762,-0.02731,-0.01587,0.00443,-0.04684
3.6275,-0.01633,-0.13062,0.06912,0.06241,-0.0296,-0.04944,-0.01297,-0.0058,-0.01083,-0.04257,-0.06439,-0.14084,-0.02701,-0.01556,0.00565,-0.0473
3.628,-0.02502,-0.14114,-0.01404,0.09308,-0.03021,-0.04822,-0.01129,-0.0058,-0.00351,-0.03845,-0.04349,-0.08743,-0.02808,-0.01648,0.00626,-0.04669
3.6285,-0.0325,-0.14572,-0.09872,0.1268,-0.03098,-0.04944,-0.01083,-0.00488,0.00397,-0.05188,-0.0267,-0.03876,-0.03021,-0.01816,0.00656,-0.0441
3.629,-0.03891,-0.14877,-0.18021,0.13321,-0.03281,-0.05203,-0.01053,-0.00458,0.00565,-0.07294,-0.01892,-0.0441,-0.03265,-0.01938,0.00656,-0.04181
3.6295,-0.04456,-0.15198,-0.24216,0.09995,-0.03464,-0.05447,-0.01221,-0.00504,0.00015,-0.0882,-0.00168,-0.08423,-0.03342,-0.01953,0.00854,-0.0386
3.63,-0.04959,-0.15289,-0.27191,0.05936,-0.03586,-0.05569,-0.01465,-0.00443,-0.00916,-0.09048,0.03464,-0.08591,-0.03326,-0.01923,0.01175,-0.03662
3.6305,-0.05356,-0.15259,-0.27573,0.04425,-0.03586,-0.05661,-0.01633,-0.00351,-0.01694,-0.08255,0.06607,-0.01389,-0.03372,-0.01877,0.01175,-0.03647
3.631,-0.05554,-0.1535,-0.26672,0.04684,-0.03372,-0.05585,-0.01633,-0.00244,-0.02075,-0.065,0.06699,0.09583,-0.0354,-0.01892,0.01099,-0.0383
3.6315,-0.05295,-0.15106,-0.25589,0.03723,-0.03143,-0.05356,-0.01434,-0.00137,-0.02167,-0.03906,0.04456,0.1886,-0.03815,-0.01892,0.01099,-0.04059
3.632,-0.04395,-0.14008,-0.24811,0.00687,-0.03128,-0.05264,-0.01083,-0.00122,-0.02228,-0.01419,0.02701,0.24246,-0.04059,-0.01923,0.01022,-0.04288
3.6325,-0.03082,-0.12085,-0.24475,-0.01648,-0.03189,-0.0531,-0.009,-0.0029,-0.01984,0.00412,0.0209,0.25177,-0.04135,-0.02213,0.00885,-0.04211
3.633,-0.01663,-0.09781,-0.24246,-0.00977,-0.03265,-0.05478,-0.01007,-0.0061,-0.01099,0.01846,0.00992,0.2095,-0.03952,-0.02472,0.00839,-0.04089
3.6335,-0.00381,-0.07553,-0.23605,0.01511,-0.03296,-0.05737,-0.01373,-0.00809,0.00412,0.03311,-0.02304,0.12192,-0.03586,-0.02609,0.00916,-0.04074
3.634,0.00458,-0.05463,-0.22079,0.02594,-0.03265,-0.05905,-0.01587,-0.00824,0.01907,0.04669,-0.07996,0.02869,-0.03281,-0.02548,0.01022,-0.04166
3.6345,0.00702,-0.03479,-0.18555,0.02106,-0.03311,-0.05875,-0.01587,-0.00671,0.02472,0.05341,-0.14923,-0.02716,-0.03159,-0.02441,0.00992,-0.04349
3.635,0.00244,-0.01953,-0.12466,0.03723,-0.03479,-0.05783,-0.01602,-0.00412,0.02304,0.05051,-0.21347,-0.04379,-0.03372,-0.02289,0.00885,-0.04257
3.6355,-0.00504,-0.01144,-0.05447,0.08484,-0.03571,-0.05539,-0.01816,-0.00153,0.02151,0.04395,-0.24658,-0.0528,-0.03586,-0.02258,0.00778,-0.04242
3.636,-0.01312,-0.01099,-0.01389,0.09552,-0.03647,-0.0531,-0.02167,-0.00046,0.02594,0.03555,-0.23758,-0.07111,-0.03708,-0.02304,0.00839,-0.04303
3.6365,-0.01694,-0.01373,-0.0267,-0.01083,-0.0351,-0.0502,-0.02289,-0.00092,0.03448,0.02502,-0.19699,-0.09079,-0.03708,-0.02609,0.00763,-0.04196
3.637,-0.01724,-0.0174,-0.08011,-0.21027,-0.03448,-0.04837,-0.02213,-0.00061,0.0354,0.01434,-0.14938,-0.11414,-0.03754,-0.03067,0.00732,-0.04211
3.6375,-0.01678,-0.02563,-0.14099,-0.34195,-0.03418,-0.04745,-0.02014,0.00092,0.01984,0.00458,-0.1123,-0.14786,-0.03876,-0.03235,0.00687,-0.04257
3.638,-0.01755,-0.04089,-0.18585,-0.22675,-0.03555,-0.04852,-0.01953,0.00107,-0.00839,-0.00336,-0.08896,-0.16251,-0.03891,-0.03143,0.00656,-0.04379
3.6385,-0.01801,-0.05844,-0.20691,0.1088,-0.03693,-0.04974,-0.0206,-0.00046,-0.03662,-0.01236,-0.08118,-0.09216,-0.03891,-0.02884,0.00717,-0.04395
3.639,-0.01694,-0.07248,-0.19928,0.35721,-0.03571,-0.0499,-0.02106,-0.00244,-0.05173,-0.02518,-0.09674,0.0737,-0.03723,-0.02701,0.009,-0.04471
3.6395,-0.01389,-0.07843,-0.15961,0.25452,-0.03159,-0.04807,-0.01953,-0.00336,-0.05493,-0.04044,-0.1384,0.22964,-0.03632,-0.02533,0.00778,-0.04532
3.64,-0.01068,-0.07416,-0.08469,-0.06714,-0.02777,-0.04578,-0.01846,-0.00153,-0.05447,-0.05737,-0.18997,0.24323,-0.03525,-0.02228,0.00839,-0.04562
3.6405,-0.00992,-0.0647,0.03143,-0.23666,-0.02441,-0.04425,-0.01831,-0.00137,-0.05447,-0.06943,-0.21088,0.112,-0.03555,-0.01953,0.0061,-0.0441
3.641,-0.00946,-0.05692,0.17975,-0.13824,-0.0209,-0.04257,-0.01801,-0.00107,-0.05768,-0.06927,-0.168,-0.0235,-0.03586,-0.01846,0.00519,-0.0415
3.6415,-0.00702,-0.06073,0.30609,-0.00595,-0.01862,-0.0412,-0.01541,0.00015,-0.06165,-0.05264,-0.07233,-0.04532,-0.03555,-0.01755,0.00595,-0.04105
3.642,0.0,-0.0824,0.34271,-0.03189,-0.01923,-0.03891,-0.01068,0.00198,-0.06271,-0.02884,0.02579,0.0119,-0.03525,-0.01724,0.00717,-0.0415
3.6425,0.00793,-0.11658,0.27191,-0.14236,-0.0209,-0.03708,-0.00656,0.00183,-0.05676,-0.01419,0.08377,0.03891,-0.03433,-0.01785,0.00809,-0.04227
3.643,0.01831,-0.14771,0.14114,-0.19485,-0.02243,-0.03464,-0.00763,-0.00137,-0.04578,-0.01389,0.09506,0.01572,-0.03296,-0.01938,0.00702,-0.04288
3.6435,0.03067,-0.16251,0.00641,-0.17303,-0.02182,-0.03372,-0.01358,-0.00549,-0.03647,-0.01816,0.07629,0.01556,-0.03235,-0.01938,0.00488,-0.04593
3.644,0.04105,-0.15854,-0.09903,-0.13809,-0.02121,-0.03555,-0.01923,-0.00763,-0.03143,-0.01999,0.04562,0.06119,-0.03296,-0.01831,0.00488,-0.04761
3.6445,0.04105,-0.13962,-0.15671,-0.11734,-0.02228,-0.03784,-0.01999,-0.00641,-0.03067,-0.0148,0.01602,0.07828,-0.03326,-0.0174,0.00565,-0.0473
3.645,0.0264,-0.1059,-0.15289,-0.10178,-0.02487,-0.03906,-0.01694,-0.00397,-0.03006,-0.0061,-0.00366,0.01511,-0.03174,-0.01648,0.00687,-0.04608
3.6455,0.00641,-0.05722,-0.09659,-0.07141,-0.02579,-0.03876,-0.01404,-0.00214,-0.02823,0.00153,-0.01282,-0.07141,-0.03067,-0.01511,0.0087,-0.04608
3.646,-0.00702,0.00488,-0.01877,-0.00275,-0.02472,-0.03815,-0.0148,-0.00198,-0.02426,0.00504,-0.01877,-0.10162,-0.03036,-0.0116,0.00763,-0.047
3.6465,-0.01099,0.07553,0.05325,0.09689,-0.02396,-0.03937,-0.0148,-0.00259,-0.01755,0.00259,-0.02701,-0.08545,-0.02914,-0.00809,0.00839,-0.04745
3.647,-0.01099,0.14908,0.09933,0.16144,-0.02319,-0.04272,-0.01389,-0.00397,-0.00671,-0.0029,-0.04059,-0.0972,-0.02792,-0.00824,0.01099,-0.04517
3.6475,-0.01129,0.21317,0.10956,0.11551,-0.02289,-0.04608,-0.0119,-0.00519,0.00565,-0.00778,-0.0618,-0.16464,-0.02777,-0.00992,0.01236,-0.04349
3.648,-0.00931,0.25421,0.08514,-0.01953,-0.02274,-0.04822,-0.01175,-0.00427,0.01587,-0.00778,-0.09644,-0.25894,-0.02762,-0.01251,0.01297,-0.04227
3.6485,-0.00366,0.26505,0.04196,-0.12512,-0.02426,-0.04944,-0.0119,-0.00397,0.02243,-0.00153,-0.14084,-0.35797,-0.02808,-0.01251,0.01175,-0.04196
3.649,-0.00076,0.25574,-0.00015,-0.13321,-0.02563,-0.04959,-0.01205,-0.00412,0.02151,0.00397,-0.17609,-0.44632,-0.02808,-0.01205,0.00946,-0.04257
3.6495,-0.00427,0.23743,-0.03876,-0.10452,-0.02548,-0.0502,-0.0119,-0.00488,0.01434,0.00183,-0.19135,-0.4541,-0.0267,-0.01144,0.00885,-0.04227
3.65,-0.01083,0.21118,-0.07797,-0.11734,-0.02579,-0.05051,-0.01175,-0.00397,0.00443,-0.00488,-0.20615,-0.29953,-0.02457,-0.01007,0.00992,-0.04105
3.6505,-0.01556,0.177,-0.10925,-0.15152,-0.02548,-0.05005,-0.00961,-0.00122,-0.00397,-0.00961,-0.24521,-0.01175,-0.02365,-0.009,0.00992,-0.04059
3.651,-0.0174,0.13916,-0.11978,-0.16144,-0.02609,-0.04883,-0.00824,0.00076,-0.01114,-0.00946,-0.29419,0.24139,-0.02518,-0.00946,0.00854,-0.04227
3.6515,-0.01907,0.10864,-0.1059,-0.15884,-0.02563,-0.04684,-0.00824,0.00229,-0.01709,-0.01022,-0.29434,0.32196,-0.02777,-0.01114,0.00732,-0.04456
3.652,-0.01923,0.08743,-0.08469,-0.13855,-0.02396,-0.04379,-0.01068,0.00183,-0.02563,-0.01541,-0.21011,0.27069,-0.02899,-0.01114,0.00641,-0.04639
3.6525,-0.01678,0.07248,-0.07019,-0.03815,-0.02457,-0.04211,-0.01373,0.0,-0.0383,-0.02319,-0.07751,0.21942,-0.03052,-0.01038,0.00473,-0.04745
3.653,-0.01221,0.0589,-0.06149,0.14526,-0.02716,-0.04242,-0.01587,-0.00275,-0.05356,-0.03204,0.0354,0.22232,-0.03326,-0.01099,0.00366,-0.04837
3.6535,-0.01114,0.04517,-0.05203,0.2861,-0.03143,-0.04456,-0.01663,-0.00443,-0.06622,-0.04318,0.09125,0.2475,-0.03571,-0.01328,0.00397,-0.04868
3.654,-0.01297,0.02899,-0.04486,0.27512,-0.03326,-0.04608,-0.01694,-0.00534,-0.07141,-0.04761,0.09552,0.26337,-0.03677,-0.01724,0.00732,-0.04791
3.6545,-0.01419,0.00687,-0.04654,0.15244,-0.0325,-0.04623,-0.01862,-0.00839,-0.06683,-0.03693,0.08087,0.26108,-0.03571,-0.01846,0.00961,-0.04532
3.655,-0.01328,-0.02075,-0.05539,0.0528,-0.03098,-0.04395,-0.01999,-0.01068,-0.05417,-0.01495,0.08392,0.21866,-0.03479,-0.01816,0.01068,-0.04181
3.6555,-0.01465,-0.05081,-0.06119,0.06058,-0.03082,-0.04272,-0.01984,-0.01022,-0.03952,0.00244,0.11627,0.1268,-0.03372,-0.01678,0.01007,-0.04059
3.656,-0.01846,-0.07629,-0.06271,0.14511,-0.03235,-0.04379,-0.01801,-0.0061,-0.02502,0.00702,0.16251,0.01846,-0.03204,-0.01572,0.009,-0.0415
3.6565,-0.02274,-0.0972,-0.06241,0.20065,-0.03326,-0.04761,-0.01648,-0.00214,-0.01495,0.00504,0.19257,-0.05447,-0.03128,-0.01541,0.00824,-0.04395
3.657,-0.02335,-0.11597,-0.05554,0.15366,-0.03342,-0.05173,-0.01709,-0.00137,-0.01129,0.00443,0.18707,-0.06714,-0.03174,-0.01404,0.00793,-0.04623
3.6575,-0.02228,-0.13428,-0.02289,0.04135,-0.03296,-0.05325,-0.01846,-0.00183,-0.01221,0.00473,0.15396,-0.03189,-0.03113,-0.01328,0.00748,-0.04745
3.658,-0.01877,-0.15091,0.04135,-0.03433,-0.03311,-0.05295,-0.01862,-0.00198,-0.01297,0.00031,0.10941,0.02274,-0.02975,-0.01343,0.00839,-0.04684
3.6585,-0.01175,-0.16708,0.10925,-0.02045,-0.03296,-0.05157,-0.01724,-0.00259,-0.01099,-0.00671,0.06836,0.06119,-0.02853,-0.01541,0.00854,-0.04517
3.659,-0.00092,-0.18326,0.13977,0.03143,-0.03326,-0.05035,-0.0148,-0.00412,-0.00885,-0.01541,0.04257,0.06882,-0.02777,-0.01465,0.00839,-0.04425
3.6595,0.01007,-0.19592,0.1181,0.047,-0.03296,-0.04929,-0.01328,-0.00458,-0.00824,-0.02304,0.03204,0.06104,-0.02731,-0.01205,0.00931,-0.04425
3.66,0.01465,-0.20172,0.05768,0.01099,-0.03159,-0.04807,-0.01266,-0.00275,-0.00885,-0.02945,0.0267,0.06287,-0.02716,-0.01068,0.00885,-0.0444
3.6605,0.01068,-0.20325,-0.01816,-0.03418,-0.03128,-0.04761,-0.01404,-0.00046,-0.0087,-0.03525,0.01587,0.05722,-0.02686,-0.01144,0.0087,-0.04379
3.661,0.00534,-0.20111,-0.07492,-0.05112,-0.03159,-0.04852,-0.0145,-0.00092,-0.00656,-0.04501,-0.00168,0.00519,-0.02731,-0.0116,0.01053,-0.04196
3.6615,0.00687,-0.1918,-0.06546,-0.04135,-0.0322,-0.04852,-0.01389,-0.0032,-0.00153,-0.05905,-0.01892,-0.09613,-0.02701,-0.01099,0.01266,-0.0383
3.662,0.01419,-0.17487,0.03159,-0.02869,-0.03281,-0.04669,-0.01221,-0.00412,0.00107,-0.07401,-0.0351,-0.18829,-0.02655,-0.01083,0.01343,-0.0351
3.6625,0.01999,-0.15015,0.1622,-0.03571,-0.03296,-0.04471,-0.01144,-0.00275,0.0032,-0.08087,-0.05463,-0.20523,-0.0267,-0.01282,0.01312,-0.0354
3.663,0.01968,-0.11856,0.23315,-0.0676,-0.03525,-0.04501,-0.01236,-0.00229,0.00778,-0.08118,-0.07828,-0.13275,-0.02853,-0.0148,0.0116,-0.03769
3.6635,0.01709,-0.08347,0.18997,-0.09613,-0.03647,-0.04761,-0.01373,-0.00305,0.01541,-0.08774,-0.103,-0.02853,-0.02991,-0.01556,0.00977,-0.03967
3.664,0.01709,-0.04807,0.04852,-0.08347,-0.03891,-0.05096,-0.01328,-0.00366,0.02289,-0.11002,-0.12665,0.03937,-0.03006,-0.01434,0.00809,-0.03952
3.6645,0.01907,-0.01755,-0.15533,-0.02853,-0.04135,-0.05219,-0.01129,-0.00229,0.02365,-0.14008,-0.14648,0.0502,-0.03052,-0.01511,0.00595,-0.03922
3.665,0.02487,0.00244,-0.37582,0.01953,-0.04303,-0.05127,-0.01083,0.00046,0.01831,-0.1506,-0.16769,0.02869,-0.03189,-0.01587,0.00443,-0.03998
3.6655,0.03235,0.00961,-0.53268,0.02136,-0.04303,-0.05081,-0.01175,0.00168,0.01099,-0.11856,-0.19745,0.00702,-0.03235,-0.01694,0.00366,-0.04105
3.666,0.0386,0.00443,-0.55634,-0.01083,-0.04288,-0.05157,-0.01175,0.00137,0.00763,-0.05737,-0.23453,0.00748,-0.0325,-0.01709,0.00488,-0.04013
3.6665,0.03845,-0.00977,-0.45258,-0.03937,-0.04272,-0.05341,-0.01083,0.00092,0.00702,-0.01587,-0.26627,0.0441,-0.03235,-0.01663,0.00595,-0.03983
3.667,0.03067,-0.02426,-0.29922,-0.0528,-0.04135,-0.05524,-0.01053,0.0,0.00244,-0.02045,-0.27695,0.1004,-0.03296,-0.01617,0.00641,-0.04044
3.6675,0.01785,-0.03479,-0.16235,-0.06699,-0.04166,-0.05585,-0.01038,-0.00092,-0.0119,-0.05371,-0.26031,0.13168,-0.03326,-0.01602,0.00595,-0.04272
3.668,0.00443,-0.03983,-0.04471,-0.09781,-0.04227,-0.05585,-0.01053,-0.00198,-0.0267,-0.08118,-0.21255,0.10483,-0.03281,-0.01617,0.00565,-0.04364
3.6685,-0.00854,-0.03998,0.07217,-0.14481,-0.04303,-0.05493,-0.01083,-0.00244,-0.03174,-0.09735,-0.12833,0.03906,-0.03159,-0.01663,0.0061,-0.0444
3.669,-0.01663,-0.03876,0.18066,-0.18005,-0.04333,-0.05432,-0.01144,-0.0029,-0.02579,-0.10818,-0.02075,-0.01282,-0.0296,-0.01816,0.00626,-0.04471
3.6695,-0.02014,-0.04227,0.25177,-0.14832,-0.04288,-0.05341,-0.01114,-0.0032,-0.01678,-0.09201,0.07721,-0.02609,-0.02731,-0.01938,0.00839,-0.0444
3.67,-0.02167,-0.05722,0.25848,-0.04272,-0.0415,-0.05295,-0.01053,-0.00412,-0.01083,-0.03174,0.13702,-0.0174,-0.02594,-0.01907,0.01022,-0.04364
3.6705,-0.02426,-0.08575,0.19073,0.0473,-0.03967,-0.05295,-0.00931,-0.00443,-0.01053,0.04761,0.14694,-0.00656,-0.02655,-0.01877,0.01068,-0.04303
3.671,-0.02655,-0.12192,0.05112,0.04333,-0.03784,-0.05341,-0.01022,-0.00381,-0.01572,0.10086,0.11169,0.0058,-0.02808,-0.01938,0.01022,-0.04257
3.6715,-0.02792,-0.15381,-0.14557,-0.00717,-0.03632,-0.05432,-0.01175,-0.00427,-0.02945,0.11856,0.04623,0.02228,-0.02762,-0.0235,0.00839,-0.04181
3.672,-0.02914,-0.18021,-0.34348,-0.01419,-0.03448,-0.05478,-0.01221,-0.00549,-0.04288,0.12466,-0.02121,0.03647,-0.02716,-0.02823,0.01022,-0.04074
3.6725,-0.03006,-0.20325,-0.43076,0.03189,-0.0325,-0.05386,-0.01053,-0.00534,-0.04562,0.13931,-0.05951,0.04074,-0.02716,-0.03021,0.0116,-0.03876
3.673,-0.02884,-0.22034,-0.30777,0.07675,-0.03143,-0.0528,-0.00885,-0.00381,-0.03433,0.15488,-0.04807,0.0322,-0.02747,-0.02899,0.01053,-0.03647
3.6735,-0.02472,-0.22461,0.00702,0.08698,-0.03021,-0.05173,-0.00824,-0.00198,-0.01953,0.15671,-0.00473,0.00626,-0.02777,-0.02777,0.00778,-0.03616
3.674,-0.02182,-0.21606,0.35843,0.06332,-0.02945,-0.05127,-0.00961,-0.00259,-0.00854,0.13672,0.03876,-0.03586,-0.02701,-0.02838,0.0058,-0.0383
3.6745,-0.02304,-0.19989,0.57281,0.01862,-0.02823,-0.04868,-0.00961,-0.00549,-0.00259,0.10132,0.06073,-0.07919,-0.02792,-0.02991,0.00748,-0.03967
3.675,-0.02518,-0.17471,0.5719,-0.01907,-0.02838,-0.04623,-0.00916,-0.00504,-0.00214,0.06439,0.06363,-0.10208,-0.03006,-0.03082,0.009,-0.03815
3.6755,-0.02502,-0.13367,0.39063,-0.02625,-0.02777,-0.04532,-0.00916,-0.00244,-0.00717,0.03738,0.05966,-0.10132,-0.03098,-0.02914,0.00946,-0.03555
3.676,-0.02151,-0.0824,0.10941,-0.01328,-0.02792,-0.047,-0.01099,-0.00046,-0.01633,0.01831,0.05463,-0.0946,-0.03036,-0.02884,0.00793,-0.03555
3.6765,-0.01694,-0.03677,-0.18219,-0.00946,-0.02823,-0.04807,-0.0116,-0.00137,-0.02319,0.00443,0.04562,-0.09369,-0.02975,-0.02823,0.00763,-0.03922
3.677,-0.01556,-0.00748,-0.39978,-0.01953,-0.02884,-0.04761,-0.01053,-0.00351,-0.02472,-0.00488,0.02716,-0.10361,-0.03036,-0.02731,0.0087,-0.0444
3.6775,-0.01709,0.01312,-0.49484,-0.02151,-0.02792,-0.04593,-0.00977,-0.00458,-0.02197,-0.00931,-0.00031,-0.14191,-0.03052,-0.02579,0.00977,-0.04883
3.678,-0.01999,0.03754,-0.47501,-0.00977,-0.02716,-0.04547,-0.01007,-0.00473,-0.02045,-0.01709,-0.02579,-0.2092,-0.03067,-0.02502,0.01022,-0.05081
3.6785,-0.02258,0.06485,-0.38651,-0.00595,-0.02777,-0.04547,-0.0119,-0.00549,-0.02045,-0.03128,-0.03876,-0.25375,-0.03113,-0.02502,0.01007,-0.04944
3.679,-0.02441,0.08881,-0.27756,-0.02243,-0.02869,-0.04608,-0.01389,-0.00549,-0.01984,-0.04395,-0.0354,-0.2356,-0.03128,-0.02411,0.01007,-0.04776
3.6795,-0.02548,0.10513,-0.17487,-0.03998,-0.02777,-0.04578,-0.01587,-0.00504,-0.01617,-0.04181,-0.02701,-0.20508,-0.03021,-0.02228,0.00977,-0.04745
3.68,-0.02701,0.1207,-0.08865,-0.02823,-0.02411,-0.04684,-0.01617,-0.00397,-0.0116,-0.02487,-0.02426,-0.22598,-0.02823,-0.0206,0.00778,-0.04684
3.6805,-0.02838,0.13504,-0.02197,0.01389,-0.0209,-0.04745,-0.0148,-0.00275,-0.01038,-0.00443,-0.02731,-0.2597,-0.02747,-0.02151,0.00687,-0.04654
3.681,-0.02975,0.14343,0.02472,0.0351,-0.01984,-0.04639,-0.01266,-0.00168,-0.01389,0.01022,-0.0235,-0.18768,-0.02914,-0.02533,0.00641,-0.04623
3.6815,-0.03128,0.14481,0.05478,-0.00458,-0.02045,-0.04333,-0.01175,-0.00168,-0.01465,0.01755,-0.00427,0.03036,-0.03143,-0.03159,0.00732,-0.04639
3.682,-0.03052,0.14008,0.07401,-0.06607,-0.0206,-0.04135,-0.01175,-0.00168,-0.01144,0.01648,0.02533,0.28412,-0.03235,-0.03815,0.00839,-0.04654
3.6825,-0.0238,0.12848,0.08453,-0.07874,-0.01984,-0.0415,-0.01221,-0.00092,-0.01099,0.00534,0.05508,0.41916,-0.03265,-0.03967,0.009,-0.047
3.683,-0.00809,0.1088,0.08621,-0.0386,-0.01877,-0.04242,-0.01251,-0.00031,-0.01862,-0.00931,0.07904,0.3801,-0.03418,-0.03754,0.00916,-0.04608
3.6835,0.01617,0.08591,0.08377,-0.00549,-0.01892,-0.04257,-0.0119,-0.00305,-0.02838,-0.01846,0.09201,0.23148,-0.03723,-0.03174,0.0087,-0.04471
3.684,0.04333,0.06683,0.08682,-0.01297,-0.02274,-0.04227,-0.0116,-0.00671,-0.03143,-0.02151,0.09521,0.07614,-0.03967,-0.0264,0.00824,-0.04272
3.6845,0.0621,0.05386,0.12131,-0.03448,-0.02655,-0.04181,-0.01221,-0.00732,-0.02563,-0.02884,0.09064,-0.01587,-0.03998,-0.02243,0.00839,-0.04135
3.685,0.05905,0.04227,0.19913,-0.03922,-0.02869,-0.0412,-0.01343,-0.00488,-0.01526,-0.05035,0.08545,-0.03235,-0.03876,-0.02045,0.009,-0.03983
3.6855,0.03555,0.03006,0.29236,-0.0325,-0.02853,-0.04074,-0.0145,-0.0032,-0.00549,-0.07919,0.08499,-0.0058,-0.03708,-0.01923,0.00885,-0.04044
3.686,0.01053,0.01663,0.35141,-0.03708,-0.02899,-0.03983,-0.01511,-0.00458,0.00443,-0.09583,0.09171,0.02731,-0.03586,-0.01923,0.00763,-0.0415
3.6865,-0.00214,-0.00137,0.34729,-0.05722,-0.03036,-0.04013,-0.0148,-0.00824,0.01389,-0.0882,0.10162,0.06989,-0.0354,-0.02106,0.00824,-0.04349
3.687,-0.00671,-0.02747,0.29785,-0.07477,-0.03143,-0.0415,-0.01358,-0.00916,0.02228,-0.06317,0.10284,0.13916,-0.03448,-0.02625,0.00809,-0.04562
3.6875,-0.01266,-0.06058,0.23102,-0.07538,-0.03311,-0.04379,-0.0119,-0.00671,0.02625,-0.03632,0.08789,0.21286,-0.03235,-0.03265,0.00839,-0.04654
3.688,-0.01907,-0.09399,0.15503,-0.05646,-0.03296,-0.04501,-0.01083,-0.00305,0.02731,-0.01251,0.06119,0.23361,-0.03021,-0.03677,0.00717,-0.04562
3.6885,-0.01907,-0.1207,0.06516,-0.03128,-0.03189,-0.04456,-0.01068,-0.00198,0.0293,0.00519,0.02792,0.17761,-0.0296,-0.03494,0.0061,-0.04364
3.689,-0.01328,-0.14114,-0.02808,-0.0174,-0.03067,-0.04227,-0.01175,-0.00305,0.03143,0.01511,-0.01099,0.0914,-0.02869,-0.02579,0.00549,-0.04196
3.6895,-0.00549,-0.1532,-0.09598,-0.00854,-0.03098,-0.04044,-0.01266,-0.00381,0.02808,0.01633,-0.03693,0.03693,-0.02853,-0.01038,0.00626,-0.04135
3.69,0.00046,-0.15427,-0.10834,0.02716,-0.03098,-0.03937,-0.01373,-0.0029,0.0174,0.01419,-0.02197,0.02731,-0.02792,0.00214,0.00793,-0.04257
3.6905,0.0032,-0.13809,-0.06897,0.09079,-0.02808,-0.03937,-0.01434,-0.00107,0.00458,0.01083,0.02396,0.02777,-0.02609,0.00259,0.00732,-0.04486
3.691,0.0032,-0.10788,-0.02274,0.11612,-0.02625,-0.04013,-0.01434,0.00137,-0.00214,0.00427,0.04562,0.01663,-0.0238,-0.00916,0.00641,-0.04547
3.6915,0.00092,-0.06958,-0.0177,0.05203,-0.02472,-0.03998,-0.01511,0.00153,-0.00351,-0.00549,0.00504,0.00595,-0.02319,-0.02426,0.00702,-0.04532
3.692,0.00046,-0.03281,-0.07568,-0.05066,-0.02594,-0.03693,-0.01602,-0.00092,-0.00443,-0.01511,-0.07523,0.00229,-0.02518,-0.03281,0.00778,-0.04395
3.6925,0.00366,-0.00595,-0.17853,-0.09903,-0.02594,-0.0354,-0.01709,-0.00397,-0.00885,-0.02045,-0.14816,0.00107,-0.02975,-0.0351,0.0087,-0.04227
3.693,0.00763,0.0061,-0.28732,-0.08148,-0.02686,-0.03815,-0.01663,-0.0058,-0.01587,-0.02274,-0.19592,-0.00443,-0.03662,-0.03662,0.00809,-0.04211
3.6935,0.01114,0.00275,-0.36942,-0.06805,-0.02945,-0.04288,-0.01587,-0.00671,-0.02182,-0.02335,-0.21454,-0.0145,-0.04639,-0.03922,0.00732,-0.04272
3.694,0.01312,-0.01083,-0.41031,-0.10483,-0.03128,-0.047,-0.01694,-0.00778,-0.02274,-0.02563,-0.19714,-0.03036,-0.05981,-0.0386,0.00763,-0.04272
3.6945,0.0148,-0.03082,-0.40512,-0.16464,-0.0325,-0.04959,-0.01938,-0.00778,-0.01862,-0.02869,-0.14557,-0.04974,-0.07385,-0.03372,0.00885,-0.04089
3.695,0.01816,-0.05447,-0.35828,-0.19241,-0.03281,-0.04929,-0.02029,-0.00534,-0.01358,-0.03113,-0.07736,-0.05264,-0.0853,-0.02625,0.00931,-0.0383
3.6955,0.02243,-0.08011,-0.28671,-0.16586,-0.0322,-0.04913,-0.01862,-0.00198,-0.01465,-0.03265,-0.01663,-0.00626,-0.08575,-0.01968,0.00946,-0.03693
3.696,0.02853,-0.10483,-0.2211,-0.09979,-0.0322,-0.04807,-0.01663,-0.00015,-0.02319,-0.03189,0.03326,0.0827,-0.07431,-0.01144,0.00961,-0.0386
3.6965,0.0354,-0.13,-0.18021,-0.00717,-0.03174,-0.04807,-0.01434,0.00046,-0.03815,-0.03067,0.0766,0.13763,-0.05814,0.00092,0.00992,-0.0412
3.697,0.04333,-0.15427,-0.15823,0.11948,-0.03128,-0.04913,-0.01297,0.00076,-0.05249,-0.02991,0.10345,0.08118,-0.04639,0.01404,0.01022,-0.04196
3.6975,0.04913,-0.17365,-0.13962,0.27039,-0.03021,-0.05096,-0.0119,0.00229,-0.06058,-0.03372,0.09521,-0.05753,-0.04257,0.01587,0.0116,-0.04257
3.698,0.05127,-0.18051,-0.11765,0.36499,-0.0293,-0.05157,-0.01144,0.00366,-0.05844,-0.04395,0.05539,-0.17471,-0.0412,0.00488,0.01068,-0.04196
3.6985,0.0502,-0.17288,-0.09888,0.3157,-0.03052,-0.05035,-0.0116,0.00458,-0.04974,-0.05585,0.009,-0.20538,-0.04013,-0.00778,0.00916,-0.04303
3.699,0.04791,-0.15381,-0.08331,0.14557,-0.0325,-0.0502,-0.01266,0.00366,-0.04272,-0.0618,-0.02304,-0.17471,-0.03754,-0.01343,0.00626,-0.04456
3.6995,0.04364,-0.13,-0.07126,-0.01511,-0.03326,-0.05081,-0.01358,0.00229,-0.0386,-0.06012,-0.04227,-0.13031,-0.03418,-0.01389,0.00641,-0.0444
3.7,0.03525,-0.11002,-0.06531,-0.07782,-0.03265,-0.05051,-0.01419,0.0,-0.03494,-0.05402,-0.05737,-0.0882,-0.03235,-0.01572,0.00717,-0.04333
3.7005,0.0235,-0.0943,-0.06317,-0.07858,-0.0322,-0.04913,-0.01419,-0.00122,-0.03143,-0.04974,-0.07675,-0.03479,-0.03113,-0.01999,0.00839,-0.04272
3.701,0.01221,-0.07813,-0.06088,-0.08896,-0.03235,-0.04837,-0.01282,-0.00015,-0.02747,-0.0473,-0.10315,0.03448,-0.02975,-0.02121,0.00778,-0.04272
3.7015,0.00458,-0.05951,-0.0528,-0.10498,-0.03433,-0.04959,-0.01038,0.00137,-0.02075,-0.04822,-0.13855,0.09552,-0.0267,-0.01907,0.0087,-0.04303
3.702,0.00015,-0.04456,-0.04608,-0.08713,-0.03418,-0.05127,-0.00854,0.00061,-0.01236,-0.05341,-0.1857,0.10895,-0.02411,-0.01648,0.00931,-0.0441
3.7025,-0.00366,-0.04257,-0.04242,-0.03738,-0.03616,-0.05112,-0.009,-0.00168,-0.00702,-0.0618,-0.23987,0.05829,-0.02365,-0.01724,0.00931,-0.04425
3.703,-0.00839,-0.05463,-0.03998,0.00549,-0.0386,-0.0499,-0.01099,-0.00534,-0.00519,-0.06699,-0.2858,-0.02716,-0.02487,-0.02029,0.00824,-0.04501
3.7035,-0.01434,-0.07248,-0.03342,0.01968,-0.04013,-0.0499,-0.01343,-0.00916,-0.00641,-0.06622,-0.2977,-0.09567,-0.02777,-0.02167,0.00687,-0.04425
3.704,-0.02075,-0.08331,-0.02625,0.00305,-0.04135,-0.05005,-0.01526,-0.0119,-0.00778,-0.06866,-0.26169,-0.11642,-0.03113,-0.02365,0.00656,-0.04456
3.7045,-0.03159,-0.0798,-0.02487,-0.02914,-0.0415,-0.04913,-0.01587,-0.01251,-0.00702,-0.08301,-0.18707,-0.103,-0.03387,-0.02487,0.00671,-0.0441
3.705,-0.04227,-0.06454,-0.03036,-0.04684,-0.0415,-0.04807,-0.01709,-0.01083,-0.00778,-0.09781,-0.10254,-0.08942,-0.03479,-0.02777,0.00717,-0.0441
3.7055,-0.0502,-0.03967,-0.03342,-0.03174,-0.04242,-0.0499,-0.01892,-0.00839,-0.01312,-0.09842,-0.02884,-0.09399,-0.03387,-0.03006,0.00717,-0.04288
3.706,-0.05173,-0.00977,-0.03189,-0.00381,-0.04486,-0.05066,-0.02106,-0.00565,-0.02335,-0.08636,0.02701,-0.11017,-0.03418,-0.03159,0.00702,-0.04196
3.7065,-0.05142,0.02319,-0.02686,0.009,-0.047,-0.05051,-0.02213,-0.00534,-0.03174,-0.07706,0.06378,-0.13428,-0.03464,-0.03159,0.00565,-0.04013
3.707,-0.04883,0.05463,-0.02472,0.00748,-0.04669,-0.04822,-0.02289,-0.00671,-0.03403,-0.07828,0.0766,-0.16159,-0.03525,-0.02975,0.00641,-0.03815
3.7075,-0.04547,0.08163,-0.01526,0.01068,-0.04532,-0.04639,-0.0235,-0.00732,-0.03265,-0.08224,0.06302,-0.15732,-0.0351,-0.02777,0.00824,-0.03723
3.708,-0.04028,0.10254,0.0206,0.02579,-0.04272,-0.04608,-0.02411,-0.0061,-0.03098,-0.07889,0.03311,-0.06454,-0.03479,-0.02655,0.00931,-0.03769
3.7085,-0.03479,0.11536,0.09995,0.03738,-0.04105,-0.04684,-0.02548,-0.00412,-0.02747,-0.06317,0.0061,0.1062,-0.03494,-0.02548,0.00931,-0.03922
3.709,-0.02945,0.12161,0.21637,0.03799,-0.04044,-0.04715,-0.0238,-0.00412,-0.02274,-0.04105,-0.00443,0.23956,-0.03525,-0.02411,0.00793,-0.04181
3.7095,-0.0235,0.12253,0.33249,0.02853,-0.04166,-0.04715,-0.02197,-0.0061,-0.01907,-0.01831,0.00061,0.22064,-0.03448,-0.02136,0.00626,-0.04395
3.71,-0.01831,0.11993,0.40207,0.01068,-0.0412,-0.04578,-0.01923,-0.00656,-0.01953,-0.00061,0.01221,0.06866,-0.0322,-0.01923,0.00504,-0.04562
3.7105,-0.01312,0.11444,0.38788,-0.01312,-0.03937,-0.04578,-0.01846,-0.00534,-0.02258,0.01038,0.02457,-0.08102,-0.03036,-0.01907,0.00488,-0.04608
3.711,-0.00946,0.10605,0.28992,-0.03418,-0.03738,-0.04486,-0.0206,-0.00351,-0.02487,0.02075,0.03525,-0.11642,-0.02853,-0.01953,0.00565,-0.04654
3.7115,-0.0058,0.09583,0.13626,-0.04623,-0.03754,-0.04562,-0.02106,-0.00366,-0.02487,0.03265,0.04364,-0.0235,-0.02808,-0.01999,0.00702,-0.04608
3.712,-0.00244,0.08057,-0.02792,-0.04944,-0.03815,-0.04669,-0.02029,-0.00595,-0.02274,0.04181,0.04288,0.11871,-0.02777,-0.01999,0.00839,-0.04395
3.7125,0.00015,0.05478,-0.15808,-0.04822,-0.03738,-0.047,-0.01953,-0.00916,-0.01831,0.04471,0.03448,0.20035,-0.02762,-0.01953,0.009,-0.04074
3.713,0.00183,0.01572,-0.23041,-0.04242,-0.03448,-0.04593,-0.02045,-0.01114,-0.01404,0.04349,0.0235,0.16235,-0.02716,-0.01785,0.009,-0.03708
3.7135,0.00153,-0.02853,-0.2478,-0.03189,-0.03281,-0.04654,-0.02121,-0.00916,-0.01328,0.0444,0.01511,0.047,-0.02655,-0.01541,0.00946,-0.03555
3.714,-0.00137,-0.07324,-0.23575,-0.02411,-0.0322,-0.04944,-0.02014,-0.00473,-0.01343,0.05005,0.01358,-0.05173,-0.02655,-0.01297,0.01022,-0.03601
3.7145,-0.00595,-0.11749,-0.22247,-0.02716,-0.03265,-0.0528,-0.0177,-0.00076,-0.00793,0.05554,0.01877,-0.08011,-0.02609,-0.01053,0.01038,-0.03769
3.715,-0.01144,-0.15869,-0.21667,-0.04257,-0.03174,-0.05356,-0.01617,0.00015,0.0032,0.05539,0.0267,-0.0531,-0.02441,-0.00946,0.0087,-0.03922
3.7155,-0.01465,-0.18478,-0.21149,-0.05814,-0.03174,-0.05234,-0.01724,-0.00122,0.0119,0.0441,0.03128,-0.01129,-0.02213,-0.00885,0.00702,-0.03952
3.716,-0.01404,-0.18616,-0.1944,-0.04623,-0.03372,-0.05081,-0.0177,-0.0029,0.01083,0.02579,0.02762,0.01541,-0.02167,-0.01175,0.00763,-0.04044
3.7165,-0.01343,-0.16632,-0.16006,0.00687,-0.03616,-0.04959,-0.01724,-0.00305,0.0029,0.00626,0.01801,0.0174,-0.02487,-0.01465,0.00809,-0.0412
3.717,-0.01541,-0.13657,-0.10941,0.06256,-0.03891,-0.05035,-0.01526,-0.00122,-0.00458,-0.00244,0.00717,0.00183,-0.02899,-0.01663,0.00839,-0.04105
3.7175,-0.02045,-0.09995,-0.05554,0.06897,-0.04105,-0.05219,-0.01343,0.00168,-0.00961,0.00183,-0.00122,-0.02014,-0.03098,-0.01648,0.00656,-0.04105
3.718,-0.02502,-0.0592,-0.01343,0.04227,-0.04471,-0.05402,-0.01373,0.00458,-0.01236,0.01053,-0.01083,-0.05737,-0.02991,-0.01587,0.00656,-0.04059
3.7185,-0.02655,-0.01694,0.0116,0.04105,-0.04532,-0.05554,-0.0148,0.00549,-0.01709,0.0148,-0.02182,-0.11414,-0.02853,-0.01617,0.00702,-0.03845
3.719,-0.02579,0.02213,0.03098,0.06439,-0.04318,-0.05432,-0.01434,0.00519,-0.02563,0.01038,-0.03159,-0.15472,-0.02823,-0.01526,0.00961,-0.03738
3.7195,-0.0209,0.05371,0.04974,0.04623,-0.03677,-0.05341,-0.01266,0.00519,-0.03677,0.00549,-0.03662,-0.13382,-0.02945,-0.01282,0.00977,-0.03754
3.72,-0.01236,0.07156,0.05844,-0.02609,-0.02975,-0.05157,-0.01114,0.0061,-0.04211,0.00565,-0.03723,-0.07309,-0.02747,-0.01099,0.00793,-0.03906
3.7205,-0.00229,0.07126,0.04242,-0.08972,-0.02441,-0.05096,-0.01175,0.00793,-0.03906,0.01236,-0.03769,-0.05173,-0.02487,-0.00992,0.00748,-0.04135
3.721,0.00168,0.05524,-0.01053,-0.09995,-0.02563,-0.04959,-0.01297,0.00839,-0.02853,0.01999,-0.04379,-0.09903,-0.02258,-0.00839,0.00839,-0.04211
3.7215,-0.00122,0.03143,-0.08835,-0.07446,-0.03311,-0.04791,-0.01434,0.00351,-0.01724,0.02197,-0.05508,-0.15854,-0.02274,-0.00717,0.01007,-0.04227
3.722,-0.01007,0.00443,-0.14084,-0.04791,-0.04044,-0.04623,-0.01541,-0.00656,-0.00732,0.0177,-0.06714,-0.15991,-0.02411,-0.00778,0.01068,-0.04227
3.7225,-0.01907,-0.02243,-0.10956,-0.0325,-0.04211,-0.0444,-0.01556,-0.01434,0.00015,0.00931,-0.08087,-0.09171,-0.02625,-0.01007,0.00992,-0.04379
3.723,-0.02457,-0.0473,0.00229,-0.02533,-0.03632,-0.04089,-0.01373,-0.01297,0.00504,0.00153,-0.09552,0.02396,-0.02686,-0.01114,0.00885,-0.04547
3.7235,-0.02533,-0.07019,0.12207,-0.02228,-0.0267,-0.03815,-0.01099,-0.00534,0.0058,-0.00916,-0.10056,0.159,-0.02686,-0.01144,0.00824,-0.04578
3.724,-0.02396,-0.09415,0.19623,-0.01602,-0.02136,-0.03738,-0.00977,-0.00107,0.00458,-0.02045,-0.08957,0.27756,-0.02686,-0.01282,0.00854,-0.0444
3.7245,-0.02304,-0.11826,0.25269,-0.00183,-0.02029,-0.0386,-0.01083,-0.00244,0.00214,-0.03036,-0.07339,0.3363,-0.02792,-0.01328,0.00809,-0.04227
3.725,-0.02151,-0.13382,0.33524,0.01892,-0.02197,-0.04044,-0.01205,-0.0058,-0.00061,-0.03357,-0.07431,0.32364,-0.02823,-0.01251,0.00778,-0.04059
3.7255,-0.01709,-0.13794,0.41901,0.04166,-0.02167,-0.04089,-0.01068,-0.00656,-0.00473,-0.0325,-0.10071,0.27237,-0.02777,-0.01114,0.00732,-0.03952
3.726,-0.00839,-0.13626,0.43045,0.05875,-0.01877,-0.04074,-0.00763,-0.00488,-0.01114,-0.03159,-0.14603,0.22034,-0.02853,-0.01205,0.00702,-0.04059
3.7265,0.00229,-0.13474,0.32974,0.06378,-0.01678,-0.04074,-0.0061,-0.00504,-0.01526,-0.03311,-0.18799,0.17151,-0.03052,-0.0148,0.00595,-0.04105
3.727,0.0119,-0.13519,0.13687,0.05081,-0.01633,-0.04074,-0.00793,-0.00565,-0.01495,-0.03647,-0.20538,0.11734,-0.0325,-0.01724,0.00565,-0.04074
3.7275,0.01694,-0.13153,-0.10345,0.01892,-0.01633,-0.04059,-0.01022,-0.00549,-0.01053,-0.0386,-0.18234,0.07065,-0.03296,-0.01938,0.00549,-0.04105
3.728,0.01907,-0.1207,-0.33752,-0.03036,-0.0174,-0.04074,-0.00992,-0.00198,-0.0058,-0.03708,-0.12207,0.04944,-0.0325,-0.01953,0.0058,-0.04288
3.7285,0.02106,-0.10193,-0.51147,-0.08148,-0.01907,-0.04135,-0.00748,0.00259,-0.00534,-0.03326,-0.0444,0.04349,-0.03143,-0.01984,0.0058,-0.04471
3.729,0.02243,-0.08026,-0.58563,-0.10223,-0.02213,-0.04257,-0.0061,0.00488,-0.00748,-0.02625,0.03082,0.02853,-0.03113,-0.02075,0.00549,-0.04532
3.7295,0.01938,-0.0589,-0.56625,-0.06622,-0.02472,-0.04379,-0.00595,0.00534,-0.00793,-0.01678,0.09399,0.00397,-0.03113,-0.02136,0.00763,-0.04501
3.73,0.00854,-0.03983,-0.49713,0.02213,-0.02579,-0.04517,-0.00793,0.00519,-0.00687,-0.00397,0.14221,-0.01144,-0.03036,-0.02151,0.009,-0.04364
3.7305,-0.00565,-0.02472,-0.41916,0.08682,-0.02594,-0.04684,-0.01068,0.00412,-0.00793,0.00351,0.168,-0.01175,-0.02945,-0.02213,0.00931,-0.04242
3.731,-0.01633,-0.0148,-0.3508,0.0296,-0.02548,-0.04868,-0.01312,-0.00061,-0.01266,-0.00229,0.16174,-0.01251,-0.0293,-0.02167,0.00961,-0.04242
3.7315,-0.02029,-0.0119,-0.29297,-0.13611,-0.02304,-0.04944,-0.01328,-0.00565,-0.01633,-0.02029,0.11978,-0.02121,-0.02792,-0.01984,0.01144,-0.04196
3.732,-0.01923,-0.01801,-0.24109,-0.2652,-0.01846,-0.04974,-0.01236,-0.00885,-0.01526,-0.03448,0.06165,-0.02945,-0.02686,-0.01907,0.01251,-0.04089
3.7325,-0.01495,-0.03296,-0.19333,-0.22842,-0.01419,-0.05066,-0.01144,-0.00977,-0.01114,-0.03677,0.02151,-0.02869,-0.02655,-0.01923,0.0119,-0.03952
3.733,-0.00778,-0.05417,-0.14816,-0.05615,-0.01282,-0.04974,-0.009,-0.00916,-0.00839,-0.03174,0.01541,-0.01862,-0.02655,-0.01968,0.01083,-0.03906
3.7335,0.00046,-0.07614,-0.10818,0.10544,-0.01526,-0.04852,-0.00778,-0.00641,-0.00992,-0.02716,0.03143,-0.00595,-0.02731,-0.01801,0.00977,-0.03891
3.734,0.00626,-0.09277,-0.08728,0.15732,-0.02075,-0.04807,-0.00656,-0.00336,-0.01709,-0.02502,0.04715,0.00351,-0.02747,-0.01495,0.01083,-0.0386
3.7345,0.00793,-0.09964,-0.112,0.11444,-0.0238,-0.047,-0.00763,-0.00061,-0.02625,-0.03006,0.04959,0.00626,-0.02701,-0.01373,0.01053,-0.03922
3.735,0.0087,-0.09735,-0.19455,0.04364,-0.02396,-0.04517,-0.00977,-0.00061,-0.0322,-0.05066,0.04227,0.00427,-0.02701,-0.01541,0.00931,-0.04089
3.7355,0.00854,-0.08972,-0.28076,-0.0058,-0.02228,-0.04303,-0.01373,-0.00229,-0.03082,-0.08438,0.03448,0.00214,-0.02838,-0.01816,0.00885,-0.04105
3.736,0.00778,-0.07767,-0.28229,-0.01251,-0.02182,-0.04303,-0.01709,-0.00427,-0.02457,-0.11261,0.03143,0.00107,-0.03082,-0.01938,0.00809,-0.04013
3.7365,0.0061,-0.0647,-0.17151,0.01678,-0.02289,-0.04425,-0.01877,-0.00488,-0.0206,-0.11734,0.03067,-0.00336,-0.03174,-0.02182,0.00916,-0.0386
3.737,0.00427,-0.05371,-0.01541,0.04471,-0.02396,-0.04593,-0.01801,-0.00504,-0.02106,-0.10132,0.02869,-0.01617,-0.03174,-0.02548,0.01007,-0.03815
3.7375,0.00458,-0.04807,0.10696,0.03494,-0.02396,-0.047,-0.01465,-0.00504,-0.02167,-0.0853,0.03098,-0.03433,-0.03174,-0.02853,0.01068,-0.03891
3.738,0.00763,-0.04837,0.17715,-0.01205,-0.02274,-0.047,-0.01114,-0.00412,-0.01953,-0.0824,0.04135,-0.05066,-0.03296,-0.02762,0.01007,-0.03952
3.7385,0.00977,-0.04852,0.21652,-0.06699,-0.02197,-0.047,-0.01129,-0.00412,-0.01389,-0.09003,0.05295,-0.06012,-0.03387,-0.02457,0.00824,-0.03937
3.739,0.01205,-0.04471,0.23849,-0.10437,-0.02106,-0.04608,-0.01511,-0.00534,-0.00778,-0.10376,0.05768,-0.06393,-0.03479,-0.02045,0.00687,-0.03952
3.7395,0.01419,-0.04105,0.23773,-0.10681,-0.01953,-0.0441,-0.0177,-0.00763,-0.00458,-0.12833,0.05188,-0.06409,-0.0325,-0.01816,0.00671,-0.0386
3.74,0.01602,-0.04883,0.21744,-0.06409,-0.0174,-0.04196,-0.01694,-0.00656,-0.00595,-0.1564,0.03403,-0.06287,-0.03082,-0.01617,0.00778,-0.03891
3.7405,0.01419,-0.0766,0.18616,0.00534,-0.01633,-0.04181,-0.01511,-0.00381,-0.01129,-0.1561,0.00488,-0.06577,-0.03052,-0.01389,0.00824,-0.03998
3.741,0.00763,-0.1181,0.15091,0.04883,-0.01526,-0.04288,-0.01663,0.00076,-0.01602,-0.10269,-0.02472,-0.07645,-0.03021,-0.01236,0.00854,-0.0412
3.7415,-0.00107,-0.15533,0.11429,0.02823,-0.01541,-0.04517,-0.01938,0.00366,-0.01572,-0.0177,-0.02975,-0.10513,-0.02899,-0.01129,0.0087,-0.04089
3.742,-0.00763,-0.18539,0.0795,-0.02579,-0.0177,-0.04684,-0.01999,0.00397,-0.01038,0.04776,0.00061,-0.16602,-0.02686,-0.00946,0.00839,-0.03952
3.7425,-0.01175,-0.21713,0.04593,-0.05219,-0.02106,-0.04913,-0.01709,0.00336,-0.0029,0.06729,0.0415,-0.24704,-0.02426,-0.00488,0.00717,-0.03967
3.743,-0.01328,-0.25452,0.01205,-0.03067,-0.02441,-0.05188,-0.01373,0.00229,0.00229,0.05081,0.04837,-0.30121,-0.02289,0.00275,0.0087,-0.04013
3.7435,-0.01343,-0.28214,-0.01862,0.00687,-0.02686,-0.05402,-0.01297,0.00137,0.00488,0.02579,-0.00153,-0.29236,-0.02243,0.00931,0.00946,-0.04135
3.744,-0.01251,-0.27756,-0.04257,0.02945,-0.03159,-0.05569,-0.01404,0.00061,0.00259,0.01251,-0.08743,-0.23361,-0.02167,0.01175,0.00977,-0.04105
3.7445,-0.01221,-0.23529,-0.05783,0.04303,-0.04303,-0.05493,-0.01419,0.00168,-0.0058,0.01572,-0.1683,-0.15533,-0.02228,0.00809,0.00961,-0.0412
3.745,-0.01343,-0.16434,-0.06424,0.06287,-0.05707,-0.05386,-0.01312,0.00244,-0.0148,0.02182,-0.21042,-0.07645,-0.02335,0.00198,0.01083,-0.04044
3.7455,-0.01526,-0.07904,-0.06485,0.07401,-0.06668,-0.05447,-0.01221,0.00153,-0.01785,0.01373,-0.20386,-0.01282,-0.02411,-0.00336,0.01251,-0.03967
3.746,-0.01694,0.009,-0.06119,0.05463,-0.06744,-0.05539,-0.01175,-0.00198,-0.0145,-0.00839,-0.15808,0.01038,-0.02365,-0.00763,0.01205,-0.03815
3.7465,-0.01938,0.08942,-0.05768,0.02258,-0.06073,-0.05615,-0.01205,-0.00656,-0.01022,-0.02411,-0.08591,-0.00504,-0.02121,-0.0119,0.01129,-0.03723
3.747,-0.02274,0.15503,-0.05081,0.01465,-0.0531,-0.05661,-0.01312,-0.00885,-0.00748,-0.0206,-0.00488,-0.01572,-0.01816,-0.01587,0.01038,-0.03891
3.7475,-0.02625,0.19821,-0.0386,0.03098,-0.04883,-0.05798,-0.01465,-0.00534,-0.00656,-0.02151,0.06683,0.02304,-0.01846,-0.01953,0.00839,-0.04166
3.748,-0.02838,0.2182,-0.01831,0.03937,-0.04654,-0.0589,-0.01541,0.00259,-0.00702,-0.0473,0.11307,0.10941,-0.02014,-0.02075,0.0058,-0.04242
3.7485,-0.02762,0.22278,0.00641,0.02701,-0.04349,-0.05768,-0.01434,0.00961,-0.01068,-0.07248,0.13367,0.1947,-0.0209,-0.02121,0.00366,-0.04074
3.749,-0.02625,0.21774,0.03067,0.01175,-0.03891,-0.05508,-0.01251,0.01205,-0.02106,-0.06073,0.14206,0.2272,-0.02167,-0.02075,0.00351,-0.03967
3.7495,-0.02472,0.20477,0.04837,0.00885,-0.03494,-0.05295,-0.01297,0.01175,-0.0354,-0.01511,0.15091,0.21103,-0.02243,-0.02121,0.00488,-0.04013
3.75,-0.02304,0.18326,0.05692,0.00748,-0.03479,-0.05157,-0.01541,0.00946,-0.04608,0.02731,0.14801,0.19287,-0.02396,-0.02151,0.00671,-0.03967
3.7505,-0.01892,0.15564,0.05646,-0.01007,-0.03738,-0.05096,-0.01755,0.00641,-0.04929,0.04364,0.11551,0.19196,-0.02563,-0.02121,0.00763,-0.03876
3.751,-0.01312,0.13306,0.05203,-0.04105,-0.03876,-0.05081,-0.01709,0.00214,-0.04822,0.04883,0.06668,0.18372,-0.0296,-0.02213,0.00702,-0.03677
3.7515,-0.00443,0.12238,0.04883,-0.05585,-0.03708,-0.05066,-0.01617,-0.00137,-0.04547,0.06012,0.03464,0.1503,-0.03571,-0.02365,0.00687,-0.03693
3.752,0.00488,0.1207,0.04944,-0.03479,-0.03311,-0.0502,-0.01556,-0.00549,-0.04395,0.07431,0.02869,0.10178,-0.04242,-0.02518,0.00626,-0.04074
3.7525,0.0145,0.12115,0.05386,-0.00214,-0.02808,-0.04807,-0.0148,-0.00916,-0.04257,0.08057,0.02579,0.04684,-0.04944,-0.02411,0.00565,-0.04547
3.753,0.02365,0.11612,0.05676,0.00061,-0.02594,-0.04425,-0.01404,-0.01175,-0.04135,0.0769,0.00946,-0.01007,-0.05753,-0.02533,0.00671,-0.04929
3.7535,0.03143,0.10162,0.05753,-0.03387,-0.02625,-0.04227,-0.0148,-0.01297,-0.03845,0.06958,-0.01144,-0.04761,-0.06531,-0.02533,0.00763,-0.04898
3.754,0.03571,0.07858,0.05539,-0.07599,-0.02441,-0.04196,-0.01709,-0.01251,-0.03052,0.06348,-0.02441,-0.03662,-0.07019,-0.02563,0.00809,-0.04761
3.7545,0.03494,0.05188,0.05005,-0.09567,-0.01846,-0.04181,-0.01801,-0.00977,-0.01862,0.05905,-0.03021,0.03525,-0.06989,-0.02548,0.00748,-0.04639
3.755,0.03189,0.02502,0.04089,-0.09369,-0.01053,-0.04242,-0.01678,-0.00732,-0.00626,0.05661,-0.03311,0.13138,-0.0621,-0.02579,0.00732,-0.04593
3.7555,0.02991,0.00107,0.02823,-0.08255,-0.00626,-0.04211,-0.0148,-0.00671,0.00229,0.05615,-0.03265,0.17365,-0.05005,-0.02609,0.00595,-0.04517
3.756,0.02731,-0.02045,0.01511,-0.06989,-0.00626,-0.04211,-0.01312,-0.0087,0.00626,0.05936,-0.02884,0.12909,-0.04044,-0.02487,0.00534,-0.04425
3.7565,0.02396,-0.04166,0.00504,-0.03601,-0.00946,-0.04166,-0.0116,-0.01221,0.01007,0.06409,-0.02823,0.05142,-0.03693,-0.02136,0.00519,-0.0444
3.757,0.01984,-0.06088,-0.00107,0.04303,-0.01434,-0.04166,-0.01282,-0.01617,0.0148,0.06424,-0.03342,0.00809,-0.03586,-0.01923,0.00397,-0.04562
3.7575,0.01617,-0.07553,0.00198,0.1532,-0.02014,-0.04227,-0.01541,-0.01907,0.01938,0.05615,-0.04059,0.00763,-0.0351,-0.01938,0.00458,-0.04745
3.758,0.01434,-0.08545,0.02701,0.21545,-0.0267,-0.0415,-0.01816,-0.01694,0.02228,0.04654,-0.04654,0.0177,-0.03418,-0.02045,0.00473,-0.04669
3.7585,0.01312,-0.09583,0.09094,0.16556,-0.02899,-0.03967,-0.01984,-0.01404,0.02426,0.04547,-0.05219,0.0209,-0.03372,-0.02167,0.00656,-0.04562
3.759,0.00961,-0.11093,0.21698,0.04547,-0.02594,-0.03677,-0.02045,-0.0119,0.02487,0.05295,-0.0589,0.01907,-0.03571,-0.02396,0.0087,-0.04562
3.7595,0.0029,-0.12543,0.41656,-0.03693,-0.0209,-0.03555,-0.02029,-0.01053,0.0235,0.0589,-0.05905,0.00748,-0.03647,-0.02502,0.01038,-0.04623
3.76,-0.00549,-0.13184,0.63629,-0.0383,-0.02457,-0.03616,-0.01938,-0.009,0.02136,0.0528,-0.04517,-0.01877,-0.03616,-0.02655,0.01099,-0.047
3.7605,-0.01114,-0.1297,0.76111,-0.01526,-0.04486,-0.03891,-0.0177,-0.00687,0.02182,0.03296,-0.02243,-0.05173,-0.03677,-0.02762,0.01083,-0.04578
3.761,-0.01175,-0.12848,0.68756,-0.01907,-0.07385,-0.04028,-0.01663,-0.00519,0.02136,0.00824,-0.00381,-0.07767,-0.03693,-0.02899,0.01053,-0.04349
3.7615,-0.01099,-0.13458,0.41382,-0.0354,-0.09201,-0.04074,-0.0177,-0.0058,0.01755,-0.00793,0.00137,-0.0885,-0.03784,-0.03021,0.01053,-0.0412
3.762,-0.01053,-0.14343,0.03601,-0.03601,-0.08713,-0.03983,-0.01755,-0.0061,0.00763,-0.01801,-0.00534,-0.08972,-0.03845,-0.03174,0.00885,-0.03952
3.7625,-0.01175,-0.1413,-0.31815,-0.02243,-0.06653,-0.03967,-0.01694,-0.00641,-0.00473,-0.02655,-0.02014,-0.08392,-0.03723,-0.03448,0.0061,-0.03983
3.763,-0.01404,-0.12314,-0.5629,-0.01404,-0.04807,-0.03922,-0.01724,-0.00534,-0.01465,-0.03967,-0.03983,-0.06409,-0.03586,-0.03738,0.00504,-0.03998
3.7635,-0.01663,-0.09491,-0.67673,-0.01495,-0.03906,-0.03952,-0.01785,-0.00427,-0.01755,-0.05386,-0.06271,-0.02136,-0.03525,-0.03906,0.00595,-0.04089
3.764,-0.01984,-0.065,-0.67505,-0.01801,-0.03723,-0.04059,-0.01785,-0.00366,-0.01755,-0.06653,-0.08301,0.0415,-0.03571,-0.0383,0.0058,-0.04227
3.7645,-0.02289,-0.03967,-0.59189,-0.01877,-0.03693,-0.04349,-0.01617,-0.00504,-0.01846,-0.07568,-0.09521,0.09872,-0.03601,-0.03616,0.00702,-0.04242
3.765,-0.02243,-0.02457,-0.46844,-0.01892,-0.03647,-0.04517,-0.01373,-0.00504,-0.0235,-0.08072,-0.09552,0.11429,-0.03769,-0.03433,0.00793,-0.04242
3.7655,-0.0206,-0.02167,-0.34454,-0.02121,-0.03693,-0.04562,-0.01205,-0.00366,-0.03052,-0.08179,-0.07736,0.08072,-0.03906,-0.03326,0.00931,-0.04242
3.766,-0.01785,-0.03036,-0.25391,-0.02274,-0.03815,-0.04562,-0.01221,-0.00259,-0.03479,-0.08545,-0.03555,0.03128,-0.0386,-0.03311,0.00824,-0.04364
3.7665,-0.01251,-0.04395,-0.20844,-0.02319,-0.04074,-0.047,-0.01343,-0.00214,-0.03433,-0.09689,0.0206,-0.00214,-0.03632,-0.0354,0.0058,-0.04456
3.767,-0.00641,-0.06012,-0.19745,-0.02289,-0.04364,-0.05371,-0.01434,-0.00198,-0.0325,-0.11139,0.06699,-0.01999,-0.03372,-0.03677,0.00443,-0.04395
3.7675,-0.00107,-0.0795,-0.20203,-0.02258,-0.04868,-0.06516,-0.0148,-0.00183,-0.03372,-0.11871,0.08392,-0.03922,-0.03235,-0.03738,0.00381,-0.04288
3.768,0.00168,-0.10056,-0.20218,-0.02304,-0.05157,-0.07492,-0.01465,-0.00153,-0.03784,-0.10788,0.06744,-0.05798,-0.03189,-0.03647,0.00381,-0.04303
3.7685,0.00031,-0.11887,-0.18478,-0.0209,-0.04883,-0.0769,-0.0145,-0.00122,-0.04135,-0.08118,0.02594,-0.06638,-0.03052,-0.03235,0.00366,-0.0444
3.769,-0.0058,-0.12741,-0.15701,-0.01846,-0.04044,-0.07095,-0.0145,-0.00122,-0.04242,-0.05585,-0.02914,-0.06775,-0.02808,-0.02625,0.00565,-0.04471
3.7695,-0.01282,-0.12665,-0.13779,-0.01709,-0.03159,-0.06241,-0.01434,-0.00076,-0.04181,-0.04593,-0.08865,-0.07858,-0.02502,-0.01831,0.01038,-0.04181
3.77,-0.01678,-0.12848,-0.13885,-0.0174,-0.02563,-0.05676,-0.0148,0.00046,-0.03952,-0.05371,-0.14023,-0.10956,-0.02151,-0.009,0.01465,-0.0383
3.7705,-0.01602,-0.14359,-0.14984,-0.01968,-0.0209,-0.0563,-0.01373,-0.00046,-0.03601,-0.07278,-0.16266,-0.14893,-0.01694,-0.0032,0.01495,-0.03708
3.771,-0.01236,-0.16769,-0.14633,-0.02243,-0.01648,-0.05707,-0.01236,-0.00412,-0.03265,-0.09094,-0.13931,-0.1683,-0.01236,-0.00366,0.01343,-0.0383
3.7715,-0.009,-0.18295,-0.12009,-0.03326,-0.01053,-0.05508,-0.01175,-0.00595,-0.02991,-0.09613,-0.07217,-0.14267,-0.01175,-0.00854,0.0116,-0.03998
3.772,-0.00885,-0.17303,-0.07614,-0.05219,-0.00259,-0.04898,-0.01083,-0.0061,-0.02899,-0.08621,0.02335,-0.08041,-0.01526,-0.01221,0.00961,-0.04044
3.7725,-0.01205,-0.14603,-0.02258,-0.05966,0.00351,-0.0415,-0.01038,-0.00534,-0.02853,-0.06714,0.12497,-0.01953,-0.02075,-0.01251,0.009,-0.04028
3.773,-0.01709,-0.11871,0.03601,-0.04578,0.00931,-0.03647,-0.01022,-0.00504,-0.0264,-0.04929,0.20569,0.00488,-0.02502,-0.01221,0.00839,-0.03967
3.7735,-0.01877,-0.09521,0.09323,-0.02731,0.0145,-0.03464,-0.01236,-0.00458,-0.02304,-0.03693,0.24338,-0.00427,-0.0267,-0.01297,0.00793,-0.04059
3.774,-0.0148,-0.06424,0.14404,-0.0206,0.01999,-0.03494,-0.01541,-0.0032,-0.02182,-0.0267,0.23331,-0.01862,-0.02777,-0.01373,0.00977,-0.04257
3.7745,-0.00687,-0.01602,0.18173,0.0,0.0209,-0.03555,-0.01678,-0.00168,-0.02304,-0.01907,0.19348,-0.00824,-0.02991,-0.01556,0.00961,-0.0444
3.775,0.0,0.04547,0.20859,0.05981,0.01694,-0.0351,-0.01526,-0.00107,-0.02365,-0.01343,0.14984,0.04044,-0.0322,-0.01755,0.00977,-0.04532
3.7755,-0.00107,0.10345,0.21561,0.11703,0.00977,-0.03616,-0.01205,-0.00275,-0.02426,-0.00946,0.11642,0.11719,-0.03571,-0.02151,0.00854,-0.04562
3.776,-0.00839,0.14053,0.18188,0.09109,0.00427,-0.0383,-0.00885,-0.00427,-0.02747,-0.00046,0.09659,0.17853,-0.03922,-0.02686,0.00809,-0.04532
3.7765,-0.01663,0.14954,0.0853,-0.01755,-0.00275,-0.03952,-0.00717,-0.00427,-0.03235,0.01129,0.0853,0.17456,-0.04227,-0.03113,0.00824,-0.04532
3.777,-0.02151,0.13351,-0.06638,-0.112,-0.01221,-0.03998,-0.00549,-0.00153,-0.03571,0.01953,0.0766,0.10391,-0.04456,-0.03387,0.00961,-0.04349
3.7775,-0.02304,0.10406,-0.22339,-0.10742,-0.02823,-0.04181,-0.00443,-0.00046,-0.03326,0.01785,0.06393,0.02136,-0.04547,-0.03494,0.00931,-0.04196
3.778,-0.0235,0.06775,-0.32928,-0.03174,-0.05035,-0.04379,-0.0058,-0.00137,-0.0264,0.00839,0.04562,-0.02747,-0.04593,-0.03479,0.00839,-0.04257
3.7785,-0.02518,0.02701,-0.36011,0.01358,-0.07263,-0.04532,-0.00946,-0.00244,-0.01953,-0.00427,0.02457,-0.04822,-0.04562,-0.03418,0.00778,-0.04272
3.779,-0.02747,-0.01587,-0.33997,-0.01617,-0.08087,-0.04776,-0.0116,-0.0032,-0.01114,-0.01373,0.0032,-0.0737,-0.04456,-0.03357,0.00671,-0.04303
3.7795,-0.02716,-0.05249,-0.29968,-0.0705,-0.07095,-0.04868,-0.01038,-0.0032,-0.00092,-0.02045,-0.02213,-0.11368,-0.04257,-0.03204,0.00778,-0.04288
3.78,-0.0206,-0.07584,-0.23911,-0.09018,-0.0499,-0.04913,-0.00732,-0.00412,0.0087,-0.02747,-0.05615,-0.15579,-0.03937,-0.02823,0.00885,-0.04303
3.7805,-0.01068,-0.08453,-0.14984,-0.08575,-0.03494,-0.04791,-0.00549,-0.00336,0.0116,-0.03677,-0.09598,-0.18616,-0.03342,-0.02304,0.00977,-0.04425
3.781,-0.0029,-0.07904,-0.05737,-0.09644,-0.0325,-0.04868,-0.00641,-0.00214,0.00778,-0.04395,-0.12985,-0.18448,-0.02899,-0.01907,0.00946,-0.04501
3.7815,0.00015,-0.06516,-0.00488,-0.11398,-0.03387,-0.05035,-0.00778,-0.00031,0.00229,-0.04547,-0.15121,-0.11078,-0.02808,-0.01602,0.0087,-0.0441
3.782,0.00183,-0.06119,-0.00168,-0.10437,-0.03418,-0.0528,-0.00961,0.0,-0.00122,-0.04456,-0.16327,0.04929,-0.02975,-0.01526,0.00778,-0.04379
3.7825,0.00397,-0.07935,-0.0116,-0.08072,-0.03464,-0.05356,-0.00961,-0.00031,-0.00244,-0.0444,-0.1622,0.22919,-0.03204,-0.01709,0.00763,-0.0444
3.783,0.00565,-0.10788,-0.00534,-0.09201,-0.03799,-0.05341,-0.00763,0.00046,-0.00198,-0.04593,-0.14099,0.30563,-0.03464,-0.01968,0.00977,-0.04471
3.7835,0.00458,-0.12238,0.01251,-0.11398,-0.04211,-0.05325,-0.00549,0.00153,-0.00076,-0.0444,-0.09872,0.23453,-0.03571,-0.0206,0.01022,-0.0441
3.784,-0.00137,-0.11017,0.01953,-0.0351,-0.04501,-0.05356,-0.00427,0.00107,-0.00031,-0.03937,-0.04959,0.09872,-0.03632,-0.01419,0.01083,-0.04272
3.7845,-0.00809,-0.08453,0.01022,0.16037,-0.04715,-0.05646,-0.0061,0.00031,-0.00336,-0.03357,-0.0116,0.01038,-0.03555,0.00015,0.01022,-0.04257
3.785,-0.01038,-0.06317,0.00015,0.29739,-0.04807,-0.05875,-0.00916,-0.00107,-0.00931,-0.03281,0.00671,-0.00397,-0.03189,0.01465,0.00946,-0.04242
3.7855,-0.00702,-0.0499,0.0119,0.23254,-0.0502,-0.06165,-0.01099,-0.00107,-0.01434,-0.03464,0.00839,0.00824,-0.02777,0.01694,0.00946,-0.04364
3.786,-0.00244,-0.03952,0.06104,0.05753,-0.05203,-0.06546,-0.0116,-0.00137,-0.01785,-0.03418,-0.00198,0.00916,-0.02808,0.00412,0.009,-0.04501
3.7865,-0.00015,-0.02396,0.13809,-0.05081,-0.05234,-0.07004,-0.01175,-0.00107,-0.02228,-0.02914,-0.01816,-0.00336,-0.0325,-0.01343,0.00839,-0.047
3.787,-0.00153,-0.00244,0.2037,-0.05386,-0.05157,-0.06973,-0.01266,-0.00168,-0.02853,-0.0238,-0.03479,-0.02304,-0.03906,-0.02319,0.00763,-0.04684
3.7875,-0.00305,0.01602,0.22308,-0.02792,-0.0473,-0.06454,-0.01297,-0.00153,-0.03357,-0.01999,-0.047,-0.04974,-0.04532,-0.02472,0.00854,-0.04486
3.788,-0.00366,0.02716,0.19699,-0.00931,-0.04288,-0.05859,-0.01419,-0.00168,-0.03632,-0.0174,-0.05661,-0.07477,-0.05051,-0.02609,0.00854,-0.0444
3.7885,-0.00504,0.03113,0.14755,0.0235,-0.03891,-0.05432,-0.01694,-0.00168,-0.03891,-0.0148,-0.06271,-0.08026,-0.05508,-0.0293,0.00839,-0.04562
3.789,-0.00671,0.03082,0.09506,0.0647,-0.03769,-0.05203,-0.01953,-0.00153,-0.04166,-0.01312,-0.06287,-0.0589,-0.05905,-0.03204,0.0087,-0.047
3.7895,-0.00565,0.03036,0.05951,0.07401,-0.03693,-0.04852,-0.0209,-0.00046,-0.04364,-0.01373,-0.05569,-0.02136,-0.056,-0.02884,0.00824,-0.047
3.79,-0.00046,0.03021,0.06348,0.03204,-0.03403,-0.04333,-0.02014,0.00015,-0.04028,-0.01236,-0.04761,0.01373,-0.0441,-0.02228,0.009,-0.04456
3.7905,0.00397,0.02777,0.12024,-0.03082,-0.03265,-0.04135,-0.01862,0.00046,-0.03281,-0.00931,-0.04379,0.03662,-0.02747,-0.01617,0.01099,-0.04272
3.791,0.00443,0.02014,0.19943,-0.06424,-0.03296,-0.04257,-0.01617,0.0,-0.02411,-0.00748,-0.0444,0.04715,-0.01495,-0.01373,0.0116,-0.04135
3.7915,0.00107,0.00977,0.23895,-0.05051,-0.03433,-0.04364,-0.0145,0.0,-0.0177,-0.00916,-0.04547,0.04349,-0.00992,-0.01465,0.01129,-0.04089
3.792,-0.00214,0.00092,0.19226,-0.01923,-0.03662,-0.0444,-0.0148,0.00092,-0.01266,-0.00992,-0.04883,0.02808,-0.009,-0.01694,0.00977,-0.04211
3.7925,-0.0029,-0.00473,0.06271,-0.00305,-0.03784,-0.04654,-0.01755,0.00183,-0.00778,-0.00763,-0.05356,0.01556,-0.00748,-0.01923,0.00778,-0.04379
3.793,-0.00198,-0.01068,-0.10635,-0.00275,-0.0383,-0.04791,-0.01923,0.00061,-0.00366,-0.00214,-0.05722,0.01526,-0.0058,-0.01999,0.00748,-0.0441
3.7935,0.00122,-0.01801,-0.25925,-0.0061,-0.03662,-0.04807,-0.0174,-0.00076,0.0,0.00397,-0.05219,0.01312,-0.00671,-0.01907,0.00717,-0.04227
3.794,0.00488,-0.02716,-0.37491,-0.00824,-0.03387,-0.04868,-0.01617,-0.00153,0.00183,0.01038,-0.03738,-0.01236,-0.01083,-0.01984,0.00824,-0.03952
3.7945,0.00641,-0.03418,-0.48157,-0.01144,-0.02914,-0.05096,-0.01678,-0.00122,0.00229,0.01862,-0.01968,-0.05798,-0.01617,-0.0209,0.01083,-0.03769
3.795,0.00549,-0.03723,-0.59174,-0.01587,-0.02548,-0.05295,-0.01846,-0.00076,0.00244,0.02655,-0.00885,-0.09323,-0.02258,-0.02182,0.01114,-0.03723
3.7955,0.00397,-0.03922,-0.64377,-0.02045,-0.02243,-0.0531,-0.01801,0.00046,0.00214,0.03342,-0.00381,-0.09491,-0.0293,-0.02014,0.00885,-0.03769
3.796,0.00275,-0.04593,-0.56198,-0.02335,-0.02426,-0.05234,-0.01831,0.00244,0.00198,0.03586,-0.00351,-0.056,-0.03952,-0.0116,0.00656,-0.03784
3.7965,0.00397,-0.05676,-0.35812,-0.02426,-0.02533,-0.0531,-0.01801,0.00351,-0.00031,0.03708,-0.00931,0.00702,-0.05173,0.00473,0.00565,-0.03967
3.797,0.00595,-0.06683,-0.13336,-0.02243,-0.02716,-0.05371,-0.01648,0.00443,-0.00458,0.03815,-0.02396,0.06012,-0.06302,0.01862,0.00641,-0.0412
3.7975,0.00717,-0.07599,0.03036,-0.01831,-0.0264,-0.05249,-0.0145,0.00458,-0.01053,0.03632,-0.03876,0.07629,-0.06668,0.0174,0.00732,-0.04074
3.798,0.00961,-0.08514,0.12192,-0.00931,-0.02625,-0.05081,-0.01328,0.00443,-0.01434,0.03342,-0.03876,0.06622,-0.06073,0.00031,0.00717,-0.03815
3.7985,0.01083,-0.09735,0.16846,0.00473,-0.02625,-0.04898,-0.01404,0.00198,-0.01556,0.0354,-0.02243,0.0676,-0.05096,-0.01724,0.00732,-0.03708
3.799,0.01129,-0.11215,0.1796,0.02625,-0.02762,-0.04761,-0.01495,-0.00046,-0.01678,0.04318,-0.00168,0.09369,-0.04532,-0.02533,0.00687,-0.0386
3.7995,0.00839,-0.12863,0.15793,0.05783,-0.02975,-0.04639,-0.01526,-0.00046,-0.01892,0.05051,0.01114,0.11948,-0.04715,-0.02472,0.00656,-0.04089
3.8,0.00397,-0.14832,0.11795,0.09506,-0.0322,-0.04471,-0.0148,0.00229,-0.01953,0.05264,0.01648,0.11902,-0.05127,-0.0238,0.0058,-0.0412
3.8005,-0.00153,-0.16968,0.0737,0.11398,-0.03494,-0.04562,-0.01617,0.0032,-0.02182,0.0502,0.02213,0.09491,-0.05051,-0.02502,0.00595,-0.03983
3.801,-0.009,-0.18692,0.03586,0.08621,-0.03693,-0.04715,-0.01755,0.00183,-0.02548,0.05112,0.03006,0.05966,-0.04333,-0.02701,0.00687,-0.0383
3.8015,-0.01419,-0.19302,0.00641,0.01709,-0.03693,-0.04913,-0.01755,-0.00122,-0.03113,0.05371,0.03128,0.01312,-0.0351,-0.02594,0.00763,-0.04028
3.802,-0.01648,-0.18707,-0.01297,-0.03998,-0.03662,-0.05295,-0.0177,-0.00519,-0.03708,0.04425,0.01572,-0.04791,-0.0296,-0.02274,0.00885,-0.04196
3.8025,-0.0174,-0.17197,-0.02701,-0.0499,-0.03494,-0.05341,-0.01373,-0.01007,-0.04181,0.01541,-0.00793,-0.10208,-0.02701,-0.01984,0.00931,-0.04181
3.803,-0.01923,-0.15091,-0.0412,-0.04684,-0.03128,-0.04929,-0.01266,-0.009,-0.04532,-0.02274,-0.01205,-0.12589,-0.02731,-0.01678,0.00946,-0.03876
3.8035,-0.0177,-0.12283,-0.05447,-0.07263,-0.02609,-0.04242,-0.01328,-0.00732,-0.04715,-0.0528,0.01816,-0.12772,-0.02823,-0.01434,0.00839,-0.03662
3.804,-0.01495,-0.0882,-0.05966,-0.09323,-0.02197,-0.03769,-0.01633,-0.00519,-0.04761,-0.065,0.06927,-0.13092,-0.03067,-0.01389,0.00809,-0.03784
3.8045,-0.00839,-0.04959,-0.05707,-0.05829,-0.01785,-0.03632,-0.01953,-0.00427,-0.04623,-0.06592,0.11475,-0.13092,-0.0322,-0.01556,0.00824,-0.03876
3.805,-0.00107,-0.01495,-0.05051,0.00046,-0.01419,-0.03754,-0.01892,-0.00443,-0.04364,-0.06409,0.13428,-0.0853,-0.03143,-0.01755,0.009,-0.03922
3.8055,0.00305,0.01083,-0.04028,0.01709,-0.01053,-0.03845,-0.0177,-0.00595,-0.03876,-0.06577,0.11658,0.02472,-0.0267,-0.0174,0.00931,-0.04044
3.806,0.00351,0.02716,-0.02869,-0.01755,-0.01129,-0.03769,-0.01709,-0.00854,-0.03326,-0.06805,0.06149,0.14175,-0.0206,-0.01526,0.00702,-0.04105
3.8065,0.00336,0.03754,-0.0177,-0.06393,-0.01648,-0.03647,-0.01694,-0.01114,-0.02731,-0.06958,-0.01999,0.17059,-0.01923,-0.0119,0.0058,-0.04135
3.807,0.00412,0.04227,-0.00626,-0.09521,-0.02243,-0.03433,-0.01709,-0.01266,-0.02258,-0.07355,-0.11108,0.0975,-0.02472,-0.00717,0.0061,-0.03998
3.8075,0.00381,0.03906,0.00671,-0.10193,-0.02701,-0.03235,-0.01694,-0.01205,-0.01678,-0.0766,-0.19241,0.00885,-0.03372,-0.00244,0.00717,-0.03784
3.808,0.00076,0.02548,0.01953,-0.07919,-0.02991,-0.02808,-0.01648,-0.01007,-0.01038,-0.08194,-0.2388,-0.01816,-0.0412,-0.00153,0.00763,-0.03799
3.8085,-0.00397,0.00504,0.02228,-0.03998,-0.03128,-0.02289,-0.01709,-0.00763,-0.00763,-0.08347,-0.233,0.00443,-0.04333,-0.00626,0.00656,-0.04013
3.809,-0.00732,-0.01511,0.01053,-0.0119,-0.03143,-0.01572,-0.01785,-0.00687,-0.01068,-0.07996,-0.16373,0.0235,-0.04089,-0.01175,0.00519,-0.0412
3.8095,-0.01053,-0.02777,-0.00687,-0.01114,-0.03128,-0.00793,-0.01877,-0.00763,-0.01633,-0.07385,-0.04242,0.01648,-0.03342,-0.01343,0.0058,-0.04089
3.81,-0.01434,-0.03143,-0.0177,-0.02472,-0.0325,-0.00275,-0.01968,-0.00885,-0.01999,-0.0708,0.09415,-0.01038,-0.02533,-0.00931,0.00778,-0.03967
3.8105,-0.02045,-0.03006,-0.02335,-0.03738,-0.03464,-0.00916,-0.01923,-0.00961,-0.02045,-0.06714,0.19547,-0.04898,-0.01678,-0.00244,0.00977,-0.03876
3.811,-0.02441,-0.02823,-0.03128,-0.04364,-0.0354,-0.03036,-0.01785,-0.01038,-0.01923,-0.05905,0.23911,-0.09125,-0.00839,0.00046,0.01099,-0.03906
3.8115,-0.02213,-0.03021,-0.03876,-0.04608,-0.03525,-0.05463,-0.01572,-0.01236,-0.01678,-0.04974,0.23163,-0.121,-0.00092,0.0,0.01053,-0.04105
3.812,-0.01587,-0.03479,-0.03754,-0.04562,-0.03296,-0.06485,-0.01419,-0.01373,-0.01373,-0.04333,0.1944,-0.13504,0.00366,-0.00122,0.01144,-0.04211
3.8125,-0.01053,-0.04272,-0.02014,-0.04272,-0.03189,-0.06012,-0.01343,-0.01221,-0.009,-0.03891,0.14572,-0.14328,0.00702,-0.00153,0.0119,-0.04227
3.813,-0.01022,-0.04974,0.01221,-0.03265,-0.03021,-0.05234,-0.01404,-0.00885,-0.00336,-0.03448,0.09964,-0.14847,0.01221,-0.00153,0.01144,-0.04089
3.8135,-0.01358,-0.05585,0.05173,-0.00153,-0.03006,-0.05142,-0.01511,-0.00534,0.00244,-0.02991,0.05554,-0.13977,0.01816,-0.00351,0.01053,-0.0415
3.814,-0.01785,-0.05646,0.08224,0.05768,-0.02808,-0.05615,-0.01556,-0.00381,0.0087,-0.02441,0.00168,-0.11719,0.02274,-0.00778,0.01099,-0.04288
3.8145,-0.0209,-0.04959,0.08743,0.11322,-0.02899,-0.05783,-0.01556,-0.00427,0.0145,-0.01953,-0.06195,-0.0946,0.02411,-0.0116,0.00961,-0.04471
3.815,-0.0209,-0.0386,0.0708,0.1091,-0.03036,-0.05585,-0.0148,-0.00641,0.02075,-0.01297,-0.11322,-0.07813,0.02121,-0.01389,0.00977,-0.04501
3.8155,-0.02045,-0.02686,0.05096,0.03189,-0.0351,-0.05493,-0.01511,-0.00748,0.02472,-0.00702,-0.13489,-0.06424,0.01251,-0.01602,0.00885,-0.04395
3.816,-0.02014,-0.01938,0.03845,-0.06531,-0.03983,-0.05463,-0.01587,-0.00641,0.02579,-0.00565,-0.13138,-0.0531,-0.00549,-0.01831,0.00824,-0.04181
3.8165,-0.01831,-0.01251,0.03082,-0.11414,-0.04211,-0.05569,-0.01617,-0.00397,0.02243,-0.01816,-0.11932,-0.03448,-0.03052,-0.02258,0.00839,-0.03922
3.817,-0.01556,-0.00305,0.0209,-0.09567,-0.04242,-0.05417,-0.0145,-0.00153,0.01617,-0.04608,-0.11444,0.01846,-0.0592,-0.02609,0.00885,-0.03799
3.8175,-0.01328,0.00565,0.01251,-0.05249,-0.04257,-0.05371,-0.01312,-0.00107,0.00992,-0.0769,-0.11749,0.09979,-0.08606,-0.02792,0.00961,-0.03693
3.818,-0.01129,0.01266,0.00992,-0.04791,-0.04089,-0.05386,-0.01328,-0.00275,0.00763,-0.09232,-0.11765,0.15091,-0.1059,-0.02762,0.01053,-0.03586
3.8185,-0.00854,0.01816,0.01602,-0.10239,-0.04013,-0.05692,-0.0148,-0.00351,0.00824,-0.08698,-0.10483,0.13,-0.11169,-0.02716,0.01007,-0.03693
3.819,-0.00443,0.02655,0.03204,-0.16739,-0.04059,-0.05829,-0.01495,-0.00519,0.00671,-0.07278,-0.07339,0.06119,-0.10284,-0.02625,0.00885,-0.03937
3.8195,0.00046,0.03983,0.05249,-0.17212,-0.04272,-0.05859,-0.0119,-0.00534,0.00076,-0.05447,-0.0264,-0.01099,-0.08301,-0.0235,0.00763,-0.04135
3.82,0.00534,0.0528,0.06363,-0.09491,-0.04456,-0.05753,-0.00885,-0.00473,-0.00641,-0.03403,0.02518,-0.06699,-0.0618,-0.01938,0.00671,-0.04211
3.8205,0.00992,0.06195,0.05676,0.02243,-0.04242,-0.05615,-0.00732,-0.0029,-0.00916,-0.01022,0.07599,-0.08286,-0.04913,-0.01755,0.00534,-0.04272
3.821,0.01343,0.06577,0.0354,0.14145,-0.03815,-0.05569,-0.00732,-0.00198,-0.0087,0.00641,0.12253,-0.0206,-0.04501,-0.01907,0.00534,-0.04242
3.8215,0.0145,0.06424,0.00854,0.27115,-0.03281,-0.05692,-0.00732,-0.00076,-0.00778,0.01114,0.16342,0.1091,-0.04364,-0.02274,0.00534,-0.0412
3.822,0.01511,0.05432,-0.0174,0.40558,-0.02899,-0.05646,-0.00641,-0.00046,-0.00916,0.00778,0.19348,0.22217,-0.0415,-0.02472,0.00549,-0.04181
3.8225,0.0145,0.03448,-0.0383,0.4631,-0.02411,-0.05524,-0.00534,0.00015,-0.01099,0.00473,0.20889,0.23392,-0.03906,-0.02579,0.00534,-0.04318
3.823,0.01236,0.00854,-0.03677,0.36591,-0.02213,-0.05096,-0.00549,0.00061,-0.01175,0.00153,0.20874,0.14694,-0.03937,-0.02838,0.0058,-0.04456
3.8235,0.00763,-0.01709,0.0032,0.15411,-0.02289,-0.04623,-0.00916,-0.00031,-0.01251,-0.00961,0.19302,0.03662,-0.03983,-0.03098,0.00732,-0.04242
3.824,0.00015,-0.04288,0.08087,-0.04837,-0.02441,-0.0444,-0.01282,-0.00259,-0.01434,-0.0238,0.1622,-0.03494,-0.03937,-0.03265,0.00763,-0.04074
3.8245,-0.00748,-0.06683,0.16006,-0.16815,-0.02502,-0.0444,-0.01434,-0.00534,-0.01724,-0.03159,0.12344,-0.06165,-0.04059,-0.03281,0.0087,-0.04074
3.825,-0.01251,-0.08087,0.19028,-0.2002,-0.0238,-0.04425,-0.01373,-0.00778,-0.02121,-0.0325,0.08499,-0.06714,-0.0415,-0.03311,0.00717,-0.0415
3.8255,-0.01389,-0.0798,0.14816,-0.15259,-0.01953,-0.04135,-0.0119,-0.00732,-0.02579,-0.03922,0.05264,-0.06561,-0.03983,-0.03265,0.00717,-0.04272
3.826,-0.01541,-0.07904,0.05753,-0.05875,-0.01312,-0.03845,-0.01221,-0.00458,-0.02884,-0.05447,0.02121,-0.05951,-0.03586,-0.03174,0.00732,-0.04272
3.8265,-0.02029,-0.09628,-0.05142,-0.00076,-0.00839,-0.03952,-0.01434,-0.0029,-0.02716,-0.06699,-0.01404,-0.05829,-0.03189,-0.03189,0.00839,-0.04272
3.827,-0.02762,-0.13428,-0.1619,-0.02731,-0.00641,-0.04288,-0.0177,-0.00397,-0.02106,-0.06271,-0.05325,-0.07721,-0.03113,-0.03052,0.00839,-0.04425
3.8275,-0.03372,-0.1767,-0.25681,-0.09048,-0.01251,-0.04608,-0.01846,-0.00626,-0.01358,-0.04105,-0.0946,-0.10941,-0.03006,-0.02853,0.00824,-0.04517
3.828,-0.03616,-0.20889,-0.31952,-0.11642,-0.02106,-0.04654,-0.01648,-0.00412,-0.009,-0.0148,-0.13504,-0.12024,-0.02792,-0.02518,0.00549,-0.04578
3.8285,-0.03708,-0.22125,-0.33936,-0.09094,-0.02808,-0.04578,-0.01541,-0.00061,-0.00473,0.00732,-0.16769,-0.0882,-0.02625,-0.02304,0.00687,-0.04395
3.829,-0.03769,-0.21057,-0.3273,-0.05615,-0.02975,-0.04593,-0.01511,0.00214,-0.00259,0.02335,-0.18494,-0.0322,-0.02472,-0.02304,0.00839,-0.04196
3.8295,-0.03815,-0.18143,-0.30334,-0.04166,-0.03021,-0.04501,-0.01587,0.00244,-0.0029,0.02869,-0.18539,0.02029,-0.02396,-0.02243,0.01007,-0.04105
3.83,-0.03922,-0.14572,-0.28732,-0.04211,-0.03342,-0.04517,-0.01572,0.00137,-0.00824,0.02335,-0.16937,0.06317,-0.02197,-0.0206,0.01007,-0.04135
3.8305,-0.03998,-0.11337,-0.28793,-0.04318,-0.03845,-0.04684,-0.01633,0.00092,-0.01801,0.01892,-0.14114,0.10544,-0.02014,-0.01816,0.00916,-0.04257
3.831,-0.03845,-0.08102,-0.30151,-0.05295,-0.03952,-0.05005,-0.01587,0.00137,-0.02869,0.02914,-0.10254,0.14969,-0.01953,-0.01602,0.00854,-0.04288
3.8315,-0.03235,-0.04089,-0.31509,-0.09323,-0.03418,-0.0502,-0.01511,0.00198,-0.03479,0.04303,-0.05936,0.1828,-0.01999,-0.01587,0.00793,-0.0415
3.832,-0.02213,0.00534,-0.3157,-0.15884,-0.02701,-0.05066,-0.01404,0.00183,-0.03494,0.04852,-0.02289,0.19531,-0.01968,-0.01556,0.009,-0.04044
3.8325,-0.01297,0.04959,-0.29556,-0.21301,-0.02319,-0.05142,-0.01297,0.00183,-0.03098,0.04761,-0.00183,0.18692,-0.01923,-0.01495,0.01083,-0.03967
3.833,-0.00656,0.08194,-0.25665,-0.22705,-0.02289,-0.05173,-0.01175,0.00336,-0.02853,0.05051,0.00366,0.16144,-0.01862,-0.01282,0.01236,-0.03891
3.8335,-0.00198,0.09842,-0.20752,-0.20309,-0.01968,-0.05188,-0.01038,0.00595,-0.02823,0.05646,0.00641,0.10773,-0.01892,-0.01038,0.01144,-0.03876
3.834,0.0032,0.09827,-0.15625,-0.15167,-0.01801,-0.05005,-0.00931,0.0061,-0.03052,0.0528,0.01068,0.02243,-0.01862,-0.00885,0.00946,-0.04074
3.8345,0.01038,0.08575,-0.10559,-0.06851,-0.01816,-0.04227,-0.00854,0.00443,-0.03128,0.04166,0.01526,-0.07187,-0.01938,-0.00732,0.00748,-0.04318
3.835,0.01785,0.06805,-0.0592,0.04929,-0.01877,-0.03265,-0.00992,0.00153,-0.02945,0.04166,0.01312,-0.13367,-0.01968,-0.00595,0.00687,-0.04456
3.8355,0.02625,0.0444,-0.00946,0.16144,-0.01846,-0.02335,-0.01312,0.00046,-0.02472,0.06195,0.00473,-0.13885,-0.01984,-0.00687,0.00641,-0.04456
3.836,0.03464,0.01236,0.05936,0.20309,-0.01755,-0.01923,-0.01617,0.00031,-0.01923,0.08209,-0.00763,-0.10071,-0.01892,-0.01007,0.00656,-0.04379
3.8365,0.04211,-0.02472,0.17639,0.17242,-0.01755,-0.0177,-0.01617,0.00076,-0.01663,0.07217,-0.02136,-0.04379,-0.01923,-0.01511,0.00717,-0.04211
3.837,0.04303,-0.05829,0.36102,0.14694,-0.01968,-0.01907,-0.01511,0.0,-0.02029,0.03281,-0.03754,0.01251,-0.02121,-0.01999,0.00778,-0.04211
3.8375,0.03632,-0.08316,0.5838,0.17136,-0.02151,-0.02075,-0.01572,-0.00153,-0.02838,-0.00885,-0.05981,0.04883,-0.0238,-0.02426,0.00763,-0.04272
3.838,0.0267,-0.10376,0.75317,0.17838,-0.02151,-0.0238,-0.01724,-0.00366,-0.03586,-0.02747,-0.08804,0.04684,-0.02655,-0.02747,0.00641,-0.04349
3.8385,0.0209,-0.1236,0.78384,0.09125,-0.01999,-0.02731,-0.01877,-0.00595,-0.03723,-0.02533,-0.12268,0.0145,-0.02823,-0.02853,0.00565,-0.0444
3.839,0.01785,-0.13824,0.64972,-0.0621,-0.01923,-0.03006,-0.01755,-0.00549,-0.03387,-0.01541,-0.16251,-0.02045,-0.02884,-0.0267,0.00671,-0.0444
3.8395,0.01709,-0.14465,0.38315,-0.17624,-0.02045,-0.03113,-0.01465,-0.00336,-0.02899,-0.01205,-0.19669,-0.04272,-0.02731,-0.02411,0.00809,-0.04349
3.84,0.01526,-0.14404,0.03967,-0.18875,-0.02319,-0.02991,-0.0116,-0.00092,-0.02686,-0.01343,-0.20325,-0.06744,-0.02502,-0.02411,0.00961,-0.04379
3.8405,0.01297,-0.13962,-0.3125,-0.13458,-0.02747,-0.02899,-0.00885,-0.00046,-0.0296,-0.01541,-0.16861,-0.10437,-0.02426,-0.02502,0.00992,-0.0444
3.841,0.01083,-0.13062,-0.59021,-0.07751,-0.03357,-0.02777,-0.00793,-0.00137,-0.03418,-0.01404,-0.10544,-0.13336,-0.02441,-0.02533,0.00961,-0.0444
3.8415,0.01053,-0.11688,-0.7312,-0.04013,-0.03937,-0.02762,-0.00793,-0.00153,-0.03677,-0.01053,-0.04074,-0.10635,-0.02472,-0.02411,0.01068,-0.04257
3.842,0.01053,-0.09857,-0.7338,0.00275,-0.04425,-0.03128,-0.009,-0.00275,-0.03693,-0.01053,0.0061,0.01266,-0.02289,-0.02411,0.01068,-0.04135
3.8425,0.00778,-0.07706,-0.64514,0.06241,-0.04822,-0.04288,-0.00916,-0.0032,-0.03586,-0.01648,0.02777,0.18707,-0.0206,-0.02457,0.01068,-0.04257
3.843,0.00153,-0.0528,-0.52414,0.11581,-0.05096,-0.06119,-0.00931,-0.00336,-0.03662,-0.03098,0.03067,0.3064,-0.01923,-0.02289,0.00992,-0.04532
3.8435,-0.00748,-0.02823,-0.40588,0.13382,-0.05249,-0.0795,-0.01099,-0.0032,-0.03799,-0.04318,0.02716,0.28625,-0.01801,-0.0206,0.00916,-0.04608
3.844,-0.01755,-0.00504,-0.30304,0.11703,-0.05356,-0.09079,-0.01541,-0.00427,-0.03708,-0.04242,0.03036,0.16205,-0.01785,-0.0174,0.00809,-0.04456
3.8445,-0.02701,0.01724,-0.21896,0.07553,-0.05417,-0.09506,-0.01862,-0.00656,-0.03387,-0.02991,0.04852,0.04333,-0.01495,-0.01602,0.009,-0.04303
3.845,-0.03601,0.03983,-0.15549,0.01282,-0.05829,-0.09583,-0.01892,-0.00687,-0.02838,-0.01755,0.0824,-0.0029,-0.01114,-0.01572,0.00946,-0.04196
3.8455,-0.04272,0.05829,-0.11475,-0.05219,-0.06134,-0.09445,-0.01633,-0.00504,-0.02304,-0.01251,0.12131,0.00198,-0.00885,-0.01724,0.00961,-0.04211
3.846,-0.04517,0.06866,-0.11215,-0.08575,-0.05951,-0.08926,-0.01251,-0.00275,-0.01633,-0.01099,0.15167,0.00824,-0.00748,-0.01892,0.01007,-0.04135
3.8465,-0.04379,0.06912,-0.15594,-0.08102,-0.05127,-0.08301,-0.01205,-0.00183,-0.00885,-0.00671,0.16464,-0.00168,-0.00549,-0.02121,0.01007,-0.04089
3.847,-0.0386,0.06271,-0.19699,-0.06409,-0.03998,-0.0766,-0.01419,-0.00168,-0.00473,0.00015,0.16327,-0.01328,-0.00259,-0.0235,0.00992,-0.04059
3.8475,-0.02808,0.05157,-0.15793,-0.04227,-0.03036,-0.07278,-0.01709,-0.00153,-0.00397,-0.00076,0.15106,-0.01511,-0.00153,-0.02396,0.00992,-0.04059
3.848,-0.01419,0.03586,-0.01816,0.01205,-0.02274,-0.07095,-0.01999,-0.00214,-0.0029,-0.01373,0.13229,-0.01251,-0.00504,-0.02228,0.01007,-0.04074
3.8485,0.00015,0.01266,0.15625,0.09216,-0.02075,-0.07065,-0.02213,-0.0032,-0.00031,-0.03815,0.11459,-0.01343,-0.01312,-0.01984,0.00931,-0.04135
3.849,0.01053,-0.01862,0.28458,0.1239,-0.02426,-0.07187,-0.02426,-0.00595,0.0029,-0.05371,0.09644,-0.01984,-0.02594,-0.01907,0.00916,-0.04227
3.8495,0.01617,-0.05493,0.33371,0.05356,-0.0293,-0.07278,-0.02396,-0.00656,0.00244,-0.0473,0.07568,-0.02823,-0.04242,-0.02029,0.01007,-0.04166
3.85,0.02045,-0.08484,0.30975,-0.06912,-0.03128,-0.0705,-0.02182,-0.00534,-0.00229,-0.0293,0.04791,-0.03036,-0.06134,-0.02151,0.0116,-0.03967
3.8505,0.02365,-0.10147,0.23224,-0.15549,-0.02853,-0.06332,-0.01877,-0.00427,-0.01022,-0.02121,0.00778,-0.01907,-0.07736,-0.02182,0.01068,-0.0383
3.851,0.02563,-0.1062,0.13535,-0.17441,-0.02167,-0.05112,-0.01892,-0.00427,-0.01938,-0.03326,-0.03784,0.00092,-0.0885,-0.02258,0.00824,-0.03799
3.8515,0.02502,-0.10483,0.07034,-0.16434,-0.01816,-0.03922,-0.01923,-0.00427,-0.02609,-0.05249,-0.07874,0.01511,-0.0943,-0.02289,0.00732,-0.03876
3.852,0.0209,-0.09491,0.07767,-0.16006,-0.01663,-0.03159,-0.02014,-0.0029,-0.02548,-0.05997,-0.11078,0.00443,-0.09674,-0.0238,0.00717,-0.03922
3.8525,0.0116,-0.07187,0.16113,-0.13245,-0.01877,-0.02808,-0.01831,-0.00168,-0.01968,-0.04852,-0.13809,-0.03754,-0.09521,-0.0235,0.00839,-0.03891
3.853,-0.00198,-0.03433,0.28473,-0.01129,-0.02121,-0.02747,-0.01648,-0.00168,-0.01312,-0.02487,-0.1564,-0.09628,-0.09125,-0.02197,0.00824,-0.03876
3.8535,-0.0119,0.01007,0.40054,0.18265,-0.02182,-0.02899,-0.01633,-0.00275,-0.00931,-0.00336,-0.15442,-0.14648,-0.08759,-0.02167,0.00854,-0.0383
3.854,-0.0174,0.04852,0.48782,0.30869,-0.02014,-0.03204,-0.01678,-0.00244,-0.00854,0.00107,-0.1268,-0.16968,-0.08804,-0.02243,0.00809,-0.0383
3.8545,-0.01938,0.0705,0.54214,0.27832,-0.01602,-0.0351,-0.01709,-0.00244,-0.00763,-0.01266,-0.08545,-0.16678,-0.08881,-0.02304,0.0087,-0.03708
3.855,-0.02258,0.0705,0.54108,0.19684,-0.01175,-0.03723,-0.01663,-0.0029,-0.0032,-0.03281,-0.04959,-0.15244,-0.08575,-0.02289,0.00916,-0.03586
3.8555,-0.02441,0.05081,0.45059,0.20554,-0.00778,-0.03632,-0.0174,-0.0029,-0.00015,-0.0499,-0.03052,-0.13809,-0.07599,-0.02075,0.00992,-0.03586
3.856,-0.02197,0.0235,0.27802,0.26001,-0.00656,-0.03372,-0.01831,-0.00198,0.00061,-0.05936,-0.02731,-0.11536,-0.06165,-0.01984,0.01007,-0.03494
3.8565,-0.01648,-0.00229,0.06866,0.21759,-0.01114,-0.03265,-0.01816,-0.00046,-0.00153,-0.06653,-0.03754,-0.06363,-0.04883,-0.01831,0.00946,-0.03571
3.857,-0.00977,-0.02502,-0.13336,0.07126,-0.02319,-0.03525,-0.01511,-0.00046,-0.0029,-0.07431,-0.05402,0.02075,-0.04166,-0.0174,0.00916,-0.0383
3.8575,-0.00488,-0.0473,-0.30823,-0.05829,-0.04242,-0.03983,-0.01068,0.00122,-0.00381,-0.08057,-0.0679,0.10651,-0.0386,-0.0174,0.00809,-0.04196
3.858,-0.00275,-0.06744,-0.44281,-0.12009,-0.05737,-0.04303,-0.00671,0.00381,-0.00473,-0.08133,-0.0679,0.14923,-0.03525,-0.01617,0.00565,-0.04395
3.8585,-0.00259,-0.08377,-0.52322,-0.15472,-0.06546,-0.04776,-0.00488,0.00519,-0.00549,-0.07828,-0.04883,0.13245,-0.03143,-0.01328,0.0032,-0.04425
3.859,-0.00336,-0.09598,-0.56503,-0.19424,-0.06424,-0.05188,-0.00565,0.00366,-0.00519,-0.0737,-0.02197,0.08942,-0.02853,-0.01038,0.00443,-0.04288
3.8595,-0.00259,-0.10361,-0.61478,-0.24704,-0.05905,-0.05829,-0.00732,0.00092,-0.00397,-0.06866,-0.00992,0.06973,-0.0267,-0.00977,0.00473,-0.04089
3.86,0.0,-0.10696,-0.6871,-0.30426,-0.05402,-0.0621,-0.00839,-0.00015,-0.00229,-0.06348,-0.02167,0.0766,-0.02411,-0.00854,0.00549,-0.04028
3.8605,0.00168,-0.10559,-0.70694,-0.30731,-0.04898,-0.06226,-0.00992,-0.00092,-0.00214,-0.05661,-0.04166,0.07446,-0.0206,-0.00702,0.00595,-0.03998
3.861,0.00397,-0.10468,-0.58807,-0.19684,-0.04593,-0.06195,-0.01114,-0.00366,-0.00229,-0.0441,-0.05463,0.05066,-0.01663,-0.00656,0.00626,-0.04028
3.8615,0.00412,-0.10605,-0.34988,-0.01678,-0.04303,-0.06546,-0.01312,-0.00595,-0.00061,-0.02747,-0.06027,0.03555,-0.0116,-0.00824,0.00671,-0.04028
3.862,0.0029,-0.10818,-0.10452,0.1059,-0.04028,-0.07065,-0.01434,-0.0058,0.00137,-0.01297,-0.06119,0.03937,-0.00687,-0.01129,0.00626,-0.04074
3.8625,0.00198,-0.10788,0.0621,0.09613,-0.03723,-0.07507,-0.01526,-0.00519,0.00351,-0.00824,-0.04868,0.02731,-0.00183,-0.01389,0.00671,-0.0415
3.863,0.00488,-0.10345,0.1413,0.00717,-0.03281,-0.07828,-0.01617,-0.00565,0.00381,-0.01389,-0.00961,-0.02884,0.00244,-0.01602,0.00763,-0.04196
3.8635,0.00793,-0.09674,0.1593,-0.04623,-0.03143,-0.08087,-0.01617,-0.00702,0.00244,-0.02289,0.04959,-0.09903,0.0058,-0.01694,0.00793,-0.04181
3.864,0.01007,-0.09018,0.13794,-0.02106,-0.03128,-0.08087,-0.01526,-0.00748,-0.00198,-0.02686,0.10513,-0.13428,0.01099,-0.01663,0.00824,-0.04242
3.8645,0.01404,-0.08423,0.09781,0.01648,-0.0325,-0.0737,-0.01282,-0.00671,-0.00763,-0.02518,0.13718,-0.13123,0.01587,-0.01663,0.00809,-0.04196
3.865,0.0206,-0.07721,0.0621,-0.00137,-0.03387,-0.06042,-0.01221,-0.00626,-0.01404,-0.02304,0.14053,-0.11902,0.01862,-0.01678,0.01053,-0.03998
3.8655,0.02884,-0.06561,0.04211,-0.05417,-0.03662,-0.04517,-0.01404,-0.00549,-0.01801,-0.02335,0.12253,-0.11398,0.0174,-0.0177,0.01068,-0.03799
3.866,0.03296,-0.05203,0.03372,-0.0798,-0.03937,-0.03113,-0.01724,-0.00504,-0.01984,-0.02228,0.09155,-0.10864,0.01129,-0.01831,0.01053,-0.03769
3.8665,0.03113,-0.0415,0.02747,-0.06485,-0.04211,-0.01831,-0.0177,-0.00504,-0.01724,-0.01724,0.04974,-0.08926,0.00061,-0.01709,0.00992,-0.03922
3.867,0.02655,-0.03616,0.02518,-0.04242,-0.04333,-0.00961,-0.01511,-0.00412,-0.0119,-0.01099,0.00519,-0.05203,-0.0174,-0.01511,0.00854,-0.0412
3.8675,0.01953,-0.03281,0.02792,-0.01831,-0.04517,-0.00183,-0.01251,-0.00244,-0.0058,-0.01068,-0.03036,0.00061,-0.04364,-0.01434,0.00702,-0.04227
3.868,0.0116,-0.02945,0.03937,0.03006,-0.04639,0.00412,-0.01328,-0.00259,-0.00229,-0.01373,-0.05219,0.05402,-0.07187,-0.0148,0.00565,-0.04227
3.8685,0.00412,-0.02747,0.06348,0.09674,-0.04547,0.00748,-0.01495,-0.00504,-0.00168,-0.01083,-0.06287,0.08301,-0.08698,-0.01511,0.00443,-0.04257
3.869,0.00092,-0.02853,0.10223,0.13794,-0.04166,0.00412,-0.01495,-0.00702,-0.00336,-0.00076,-0.0679,0.07141,-0.07813,-0.01511,0.00397,-0.04395
3.8695,0.00046,-0.03448,0.1503,0.13397,-0.03784,-0.00412,-0.0145,-0.00702,-0.00656,0.00793,-0.06958,0.03052,-0.05432,-0.01358,0.00473,-0.04486
3.87,-0.00092,-0.04486,0.19043,0.09476,-0.03662,-0.01236,-0.01297,-0.00412,-0.00992,-0.00107,-0.06989,-0.0116,-0.03235,-0.01343,0.00595,-0.04486
3.8705,-0.00534,-0.05844,0.20584,0.02945,-0.03845,-0.01968,-0.01205,-0.00214,-0.01221,-0.03113,-0.07004,-0.0267,-0.01923,-0.01434,0.00717,-0.04272
3.871,-0.01114,-0.07141,0.18906,-0.04807,-0.04257,-0.02777,-0.01175,-0.00305,-0.01434,-0.06226,-0.07385,0.00854,-0.01144,-0.01511,0.00809,-0.04013
3.8715,-0.01419,-0.08255,0.15503,-0.09583,-0.04593,-0.03983,-0.01144,-0.00565,-0.01648,-0.06607,-0.08911,0.09476,-0.00473,-0.01465,0.00763,-0.03799
3.872,-0.01373,-0.09277,0.11658,-0.0766,-0.04532,-0.0531,-0.01328,-0.00671,-0.01785,-0.04028,-0.11337,0.18097,-0.00244,-0.01602,0.00748,-0.03845
3.8725,-0.01007,-0.10361,0.08072,-0.01801,-0.04272,-0.06271,-0.01465,-0.00473,-0.01801,-0.00397,-0.14084,0.19257,-0.00381,-0.01984,0.00656,-0.04028
3.873,-0.00656,-0.11276,0.04593,-0.00061,-0.04074,-0.06531,-0.01495,-0.00214,-0.01785,0.0238,-0.16434,0.11688,-0.00763,-0.0238,0.0061,-0.04181
3.8735,-0.00397,-0.11322,0.01282,-0.06363,-0.03952,-0.06424,-0.01587,-0.00046,-0.01511,0.04333,-0.17654,0.02243,-0.01221,-0.02579,0.00519,-0.04211
3.874,-0.00259,-0.10071,-0.01495,-0.12558,-0.03754,-0.06042,-0.01755,-0.00153,-0.0116,0.05432,-0.16556,-0.02411,-0.02243,-0.0264,0.00549,-0.04166
3.8745,-0.00107,-0.07797,-0.03647,-0.0795,-0.03586,-0.05692,-0.01678,-0.00366,-0.00641,0.04776,-0.12375,-0.02487,-0.0383,-0.02716,0.00687,-0.04211
3.875,0.0,-0.05585,-0.05417,0.05386,-0.03372,-0.05463,-0.01343,-0.00458,-0.00137,0.02136,-0.05676,-0.01404,-0.05814,-0.02777,0.009,-0.04288
3.8755,0.00076,-0.04578,-0.07233,0.15182,-0.03326,-0.05295,-0.01114,-0.00336,0.00031,-0.01312,0.01343,-0.00885,-0.07614,-0.02792,0.00824,-0.04333
3.876,0.00122,-0.04639,-0.09476,0.15564,-0.03204,-0.05173,-0.01144,-0.00137,-0.00381,-0.0386,0.06271,-0.0116,-0.08987,-0.02747,0.00687,-0.04395
3.8765,-0.00046,-0.0441,-0.12177,0.11292,-0.02823,-0.04868,-0.01129,-0.00031,-0.01236,-0.04593,0.08484,-0.01709,-0.09491,-0.02716,0.00656,-0.04456
3.877,-0.00534,-0.02808,-0.15121,0.08224,-0.02487,-0.04578,-0.01083,-0.00015,-0.02182,-0.0383,0.0882,-0.01724,-0.08652,-0.02487,0.00778,-0.0444
3.8775,-0.01404,0.00046,-0.18219,0.06363,-0.02396,-0.04456,-0.00885,-0.00229,-0.02884,-0.02548,0.07278,-0.00687,-0.06622,-0.02289,0.00961,-0.0441
3.878,-0.02487,0.0322,-0.21881,0.02686,-0.02609,-0.04532,-0.00809,-0.00504,-0.03174,-0.01923,0.0322,0.01328,-0.04333,-0.02197,0.01022,-0.04242
3.8785,-0.03418,0.06058,-0.25558,-0.04517,-0.02823,-0.047,-0.01022,-0.00793,-0.03342,-0.02411,-0.01083,0.03708,-0.02945,-0.0206,0.00961,-0.0441
3.879,-0.03891,0.08499,-0.27878,-0.12665,-0.02777,-0.04623,-0.01465,-0.01038,-0.03555,-0.03372,-0.01129,0.05615,-0.02686,-0.01846,0.00931,-0.04532
3.8795,-0.0354,0.10651,-0.27802,-0.15625,-0.02487,-0.0412,-0.01877,-0.01114,-0.03601,-0.04211,0.04852,0.06226,-0.03342,-0.01587,0.00916,-0.0441
3.88,-0.02701,0.12161,-0.25726,-0.1059,-0.02151,-0.03708,-0.01968,-0.01099,-0.03571,-0.04608,0.13901,0.05524,-0.0444,-0.01358,0.00946,-0.04181
3.8805,-0.01907,0.12314,-0.23224,-0.02228,-0.01892,-0.03738,-0.01846,-0.00931,-0.03204,-0.04822,0.21759,0.03494,-0.05325,-0.01312,0.01068,-0.03891
3.881,-0.0148,0.1123,-0.21164,0.02533,-0.01633,-0.04379,-0.01801,-0.00793,-0.02838,-0.04654,0.25833,0.00015,-0.05249,-0.01282,0.01022,-0.03799
3.8815,-0.01312,0.09476,-0.19592,0.02136,-0.01434,-0.05371,-0.01785,-0.00885,-0.02579,-0.0412,0.25375,-0.04608,-0.04288,-0.01312,0.01053,-0.0383
3.882,-0.0145,0.07202,-0.17654,-0.00687,-0.01434,-0.06271,-0.01755,-0.01068,-0.02533,-0.0325,0.20721,-0.09048,-0.03372,-0.01312,0.00977,-0.03876
3.8825,-0.01907,0.0441,-0.15381,-0.04135,-0.01694,-0.06241,-0.01755,-0.01038,-0.02625,-0.02396,0.1355,-0.11398,-0.03021,-0.01282,0.0087,-0.04044
3.883,-0.02533,0.01022,-0.13321,-0.07141,-0.01846,-0.05646,-0.01831,-0.00839,-0.02609,-0.01968,0.06042,-0.11047,-0.03067,-0.01114,0.00839,-0.04303
3.8835,-0.03159,-0.02457,-0.1207,-0.07523,-0.0174,-0.05112,-0.01831,-0.00565,-0.02304,-0.0206,-0.00168,-0.09491,-0.03021,-0.00961,0.0087,-0.0444
3.884,-0.03448,-0.05646,-0.11154,-0.047,-0.01434,-0.05234,-0.01541,-0.0032,-0.01907,-0.01999,-0.0415,-0.08759,-0.02777,-0.00931,0.00992,-0.0441
3.8845,-0.03265,-0.08286,-0.0914,-0.01434,-0.0119,-0.05615,-0.01129,-0.00137,-0.01709,-0.01236,-0.05417,-0.09277,-0.02487,-0.01022,0.01129,-0.04288
3.885,-0.02731,-0.10452,-0.05478,-0.00381,-0.00824,-0.05936,-0.01007,-0.00015,-0.01831,-0.00412,-0.05249,-0.09689,-0.02014,-0.01114,0.01114,-0.04105
3.8855,-0.02274,-0.12283,-0.00687,-0.00839,-0.00122,-0.05753,-0.01343,-0.00076,-0.01892,-0.00137,-0.05768,-0.08652,-0.01526,-0.01297,0.01144,-0.0415
3.886,-0.01907,-0.13763,0.03693,-0.00153,0.00595,-0.05386,-0.01953,-0.00366,-0.01648,-0.00259,-0.07431,-0.04791,-0.01144,-0.01404,0.01083,-0.04288
3.8865,-0.01541,-0.14969,0.06516,0.01709,0.01144,-0.04944,-0.02258,-0.00595,-0.01312,-0.00198,-0.08667,0.02243,-0.01007,-0.01526,0.01099,-0.04318
3.887,-0.01175,-0.15549,0.07401,0.02502,0.00534,-0.04196,-0.0235,-0.0058,-0.01022,0.00168,-0.07736,0.10727,-0.01114,-0.01663,0.0119,-0.04227
3.8875,-0.00702,-0.15396,0.06973,-0.00015,-0.01785,-0.03143,-0.02151,-0.00427,-0.00763,0.00351,-0.05173,0.16129,-0.01221,-0.01862,0.01053,-0.04257
3.888,-0.00137,-0.14206,0.06699,-0.04639,-0.05341,-0.0238,-0.01938,-0.00366,-0.00488,0.00092,-0.02808,0.15106,-0.01282,-0.01862,0.01007,-0.04456
3.8885,0.00504,-0.12115,0.08621,-0.08636,-0.08423,-0.02335,-0.01892,-0.00336,-0.00336,-0.0058,-0.02228,0.09781,-0.01434,-0.01694,0.00793,-0.04684
3.889,0.00916,-0.09415,0.14221,-0.10757,-0.09262,-0.03067,-0.02045,-0.00351,-0.00198,-0.01236,-0.02945,0.05692,-0.0174,-0.01694,0.00626,-0.04684
3.8895,0.00732,-0.06683,0.22919,-0.12756,-0.07813,-0.03845,-0.0209,-0.0029,0.00168,-0.01617,-0.02914,0.04913,-0.02136,-0.01785,0.00687,-0.04379
3.89,-0.00061,-0.04562,0.32135,-0.15747,-0.05768,-0.0415,-0.01785,-0.00092,0.00824,-0.01801,-0.01038,0.03708,-0.02655,-0.01846,0.00961,-0.04074
3.8905,-0.00839,-0.03708,0.39383,-0.17349,-0.04684,-0.04074,-0.01495,0.00107,0.01282,-0.02167,0.01373,-0.01114,-0.03357,-0.01862,0.01114,-0.03983
3.891,-0.01144,-0.05096,0.43488,-0.15106,-0.04578,-0.03815,-0.01419,0.00214,0.01251,-0.02548,0.0238,-0.06882,-0.04089,-0.01892,0.00946,-0.04044
3.8915,-0.00778,-0.09766,0.44189,-0.12192,-0.04456,-0.03647,-0.01404,0.00214,0.00687,-0.02731,0.01419,-0.08804,-0.04852,-0.02045,0.00763,-0.04044
3.892,-0.00275,-0.16861,0.40756,-0.14008,-0.04028,-0.03448,-0.01511,0.00076,0.00061,-0.02502,-0.00595,-0.06332,-0.0563,-0.02243,0.00763,-0.03998
3.8925,-0.00168,-0.23529,0.32394,-0.18829,-0.03586,-0.03403,-0.0145,0.00015,-0.00168,-0.01953,-0.02655,-0.02563,-0.06317,-0.02411,0.00809,-0.04013
3.893,-0.00183,-0.27588,0.18753,-0.19623,-0.03342,-0.03693,-0.01389,-0.00046,-0.00168,-0.01556,-0.04166,0.00565,-0.06546,-0.02502,0.00732,-0.04196
3.8935,-0.00214,-0.29114,0.00351,-0.13382,-0.03403,-0.04242,-0.01404,-0.00061,0.00031,-0.01038,-0.05096,0.0267,-0.05859,-0.02365,0.00656,-0.04272
3.894,-0.00336,-0.28473,-0.20157,-0.03006,-0.03174,-0.04822,-0.0145,-0.00122,0.00031,-0.00275,-0.06287,0.0351,-0.04578,-0.02289,0.00824,-0.04196
3.8945,-0.0058,-0.24261,-0.383,0.09109,-0.02853,-0.05142,-0.01434,-0.00031,-0.00351,0.0087,-0.08286,0.03189,-0.03342,-0.02335,0.00931,-0.03983
3.895,-0.00839,-0.15396,-0.49347,0.22186,-0.02487,-0.05554,-0.01144,0.00137,-0.009,0.02228,-0.10406,0.02228,-0.02472,-0.02472,0.00916,-0.03891
3.8955,-0.01068,-0.03448,-0.51666,0.33783,-0.02228,-0.06577,-0.00885,0.0029,-0.01251,0.03296,-0.11673,0.01358,-0.01877,-0.02426,0.00748,-0.04028
3.896,-0.01389,0.08209,-0.47318,0.38376,-0.02167,-0.08423,-0.00916,0.0032,-0.01175,0.03876,-0.11765,0.00946,-0.01587,-0.0238,0.0061,-0.04242
3.8965,-0.01938,0.17792,-0.40527,0.31906,-0.0238,-0.10208,-0.0116,0.00259,-0.01007,0.03891,-0.10895,0.00885,-0.01419,-0.02396,0.0058,-0.0412
3.897,-0.02792,0.2504,-0.34546,0.1828,-0.02594,-0.10605,-0.01389,0.00076,-0.0119,0.03464,-0.08804,0.00916,-0.01694,-0.02411,0.00656,-0.04105
3.8975,-0.03632,0.2977,-0.3038,0.08347,-0.02792,-0.09216,-0.01373,-0.00259,-0.01556,0.02777,-0.04593,0.00839,-0.01968,-0.0238,0.00717,-0.04181
3.898,-0.04181,0.30746,-0.27435,0.07599,-0.02808,-0.06775,-0.01434,-0.00626,-0.01617,0.02304,0.01099,0.0061,-0.02075,-0.02182,0.00641,-0.0441
3.8985,-0.04349,0.27817,-0.24292,0.09048,-0.02823,-0.04929,-0.01678,-0.00824,-0.01328,0.02365,0.06332,0.00076,-0.02274,-0.0209,0.00687,-0.0441
3.899,-0.04196,0.2272,-0.19257,0.03799,-0.02808,-0.04364,-0.01694,-0.00809,-0.00992,0.02441,0.09537,-0.00336,-0.02777,-0.02045,0.00641,-0.04166
3.8995,-0.03448,0.17136,-0.1297,-0.06943,-0.02975,-0.05264,-0.0148,-0.00748,-0.00916,0.02182,0.09644,-0.00565,-0.03265,-0.01892,0.00671,-0.03952
3.9,-0.01999,0.11734,-0.07538,-0.15594,-0.03204,-0.06516,-0.01236,-0.00732,-0.00809,0.01678,0.06165,-0.0061,-0.03357,-0.01785,0.00626,-0.04044
3.9005,-0.00076,0.06409,-0.05707,-0.18188,-0.03143,-0.07309,-0.0116,-0.00854,-0.00488,0.01038,0.00519,-0.00748,-0.02838,-0.01816,0.00748,-0.0415
3.901,0.01678,0.01953,-0.10162,-0.15549,-0.02975,-0.06699,-0.01343,-0.00809,-0.00183,0.00626,-0.04639,-0.00854,-0.02441,-0.02014,0.00885,-0.04211
3.9015,0.0264,-0.00748,-0.21912,-0.06882,-0.0264,-0.04944,-0.01434,-0.00717,-0.00183,0.00259,-0.07919,-0.00839,-0.02701,-0.02258,0.01022,-0.04105
3.902,0.02457,-0.01373,-0.35751,0.08087,-0.0235,-0.03189,-0.01266,-0.00443,-0.00366,-0.00473,-0.09552,-0.00656,-0.03418,-0.02319,0.01038,-0.04044
3.9025,0.01816,-0.00732,-0.40543,0.20874,-0.02411,-0.02151,-0.01175,-0.00351,-0.00626,-0.01495,-0.10239,-0.0029,-0.0383,-0.02289,0.00961,-0.04379
3.903,0.01343,0.00031,-0.29449,0.20065,-0.02869,-0.0177,-0.01099,-0.00351,-0.00977,-0.02396,-0.09964,0.00153,-0.03433,-0.02243,0.00839,-0.04471
3.9035,0.01404,0.00153,-0.06836,0.06775,-0.03494,-0.01511,-0.00992,-0.00336,-0.01511,-0.0386,-0.08133,0.00153,-0.02457,-0.02228,0.0087,-0.04318
3.904,0.01785,-0.00305,0.15915,-0.04761,-0.0386,-0.01221,-0.00824,-0.00198,-0.02167,-0.06134,-0.04929,-0.01083,-0.01663,-0.02289,0.01007,-0.04044
3.9045,0.02136,-0.00748,0.30838,-0.04517,-0.03738,-0.0116,-0.00656,-0.00015,-0.02609,-0.08957,-0.01343,-0.03174,-0.01266,-0.02365,0.00992,-0.03983
