time,RectFemL,VastusMedL,VastusLatL,TibAntL,HamMedL,HamLatL,GastroMedL,GastroLatL,RectFemR,VastusMedR,VastusLatR,TibAntR,HamMedR,HamLatR,GastroMedR,GastroLatR
3.92,0.00717,-0.11002,-0.2533,-0.16479,-0.03281,-0.04807,-0.01068,-0.00381,-0.00854,0.02777,0.1152,0.04379,-0.03021,-0.01892,0.01114,-0.04242
3.9205,0.01907,-0.1236,-0.31906,-0.18051,-0.03143,-0.04852,-0.01389,-0.00397,-0.00854,0.04318,0.0975,-0.03433,-0.03113,-0.01968,0.01053,-0.04456
3.921,0.02777,-0.13336,-0.32196,0.01816,-0.03128,-0.04974,-0.01495,-0.0032,-0.01022,0.04684,0.06714,-0.12405,-0.03357,-0.01999,0.00809,-0.04623
3.9215,0.03052,-0.13046,-0.28595,0.24155,-0.03189,-0.05096,-0.01266,-0.00214,-0.01022,0.04471,0.02914,-0.20004,-0.03418,-0.01999,0.00549,-0.04669
3.922,0.02396,-0.1149,-0.23468,0.33249,-0.03448,-0.05188,-0.01007,-0.00153,-0.00626,0.04059,-0.00977,-0.2298,-0.03403,-0.02075,0.0058,-0.04532
3.9225,0.00854,-0.09262,-0.17426,0.28412,-0.03494,-0.05173,-0.01038,-0.00076,-0.00046,0.03891,-0.04166,-0.18112,-0.03296,-0.02045,0.00671,-0.04333
3.923,-0.00763,-0.06622,-0.10147,0.18158,-0.03448,-0.0499,-0.01312,-0.00015,0.00565,0.04135,-0.06241,-0.07462,-0.03235,-0.0177,0.00702,-0.04181
3.9235,-0.01846,-0.03525,-0.02655,0.09766,-0.03174,-0.04776,-0.01434,0.00031,0.01038,0.04349,-0.0769,0.01862,-0.03174,-0.01602,0.00717,-0.04181
3.924,-0.02121,-0.00214,0.02213,0.06607,-0.02808,-0.047,-0.01419,-0.00137,0.01343,0.04272,-0.10117,0.05341,-0.03098,-0.01663,0.00748,-0.04288
3.9245,-0.01999,0.02609,0.02197,0.08301,-0.02686,-0.04608,-0.01465,-0.00397,0.01419,0.04074,-0.14603,0.06012,-0.03052,-0.01968,0.0087,-0.0441
3.925,-0.01923,0.04608,-0.00977,0.0824,-0.02716,-0.04364,-0.01755,-0.00748,0.01419,0.03845,-0.19196,0.08057,-0.03281,-0.01999,0.01053,-0.04318
3.9255,-0.0177,0.05981,-0.04028,-0.00793,-0.02792,-0.04166,-0.02014,-0.00977,0.01114,0.03143,-0.19974,0.11719,-0.03479,-0.01968,0.01007,-0.04395
3.926,-0.01099,0.06958,-0.05127,-0.13992,-0.02884,-0.04059,-0.02136,-0.00961,0.00504,0.02014,-0.16159,0.14862,-0.03403,-0.01953,0.00885,-0.04364
3.9265,0.00015,0.07324,-0.04181,-0.17212,-0.02762,-0.04166,-0.02136,-0.0087,-0.00214,0.00381,-0.10284,0.16785,-0.03143,-0.01953,0.00763,-0.04242
3.927,0.01007,0.07034,-0.01587,-0.07797,-0.02808,-0.04272,-0.02167,-0.00824,-0.00977,-0.0119,-0.04929,0.16739,-0.03128,-0.02029,0.00641,-0.04227
3.9275,0.0116,0.06409,0.02762,0.01617,-0.02899,-0.04196,-0.02228,-0.0087,-0.01892,-0.02457,-0.00595,0.13748,-0.03387,-0.02136,0.00595,-0.04318
3.928,0.0032,0.05402,0.09552,0.02228,-0.03235,-0.04196,-0.02136,-0.00916,-0.0296,-0.03494,0.02762,0.08514,-0.03479,-0.02228,0.00626,-0.04456
3.9285,-0.00534,0.03738,0.15457,-0.00504,-0.03555,-0.04379,-0.01984,-0.00839,-0.03494,-0.04883,0.04776,0.03494,-0.0351,-0.02396,0.00656,-0.04456
3.929,-0.00656,0.01602,0.15152,0.01434,-0.03616,-0.04654,-0.01694,-0.00656,-0.03128,-0.07111,0.05203,-0.01724,-0.03479,-0.02274,0.00687,-0.04379
3.9295,0.00061,-0.00427,0.07065,0.05676,-0.03616,-0.04791,-0.01389,-0.00443,-0.02167,-0.09216,0.04608,-0.09583,-0.0351,-0.02106,0.00732,-0.04242
3.93,0.01541,-0.02045,-0.03983,0.05447,-0.03418,-0.04684,-0.01175,-0.00275,-0.01312,-0.09659,0.03479,-0.19211,-0.03525,-0.01892,0.00732,-0.04135
3.9305,0.0386,-0.03174,-0.11765,0.00992,-0.03128,-0.04486,-0.01144,-0.00122,-0.00763,-0.07996,0.01923,-0.25558,-0.03479,-0.01846,0.00748,-0.04044
3.931,0.06561,-0.04242,-0.14313,-0.03677,-0.02808,-0.04379,-0.0116,-0.00122,-0.00259,-0.05264,-0.00046,-0.24414,-0.03403,-0.01892,0.00854,-0.03922
3.9315,0.08331,-0.0528,-0.13321,-0.07828,-0.02731,-0.0441,-0.01266,-0.00168,0.00214,-0.0296,-0.02289,-0.17258,-0.03342,-0.01846,0.01007,-0.03815
3.932,0.08118,-0.06241,-0.09094,-0.10773,-0.02777,-0.04501,-0.01328,-0.00351,0.00137,-0.01831,-0.047,-0.08789,-0.03357,-0.0177,0.01129,-0.03769
3.9325,0.06287,-0.06668,0.01572,-0.10101,-0.02777,-0.04471,-0.01312,-0.00626,-0.00549,-0.01343,-0.07309,-0.02151,-0.03326,-0.01678,0.01282,-0.03799
3.933,0.03662,-0.06561,0.20004,-0.07309,-0.02625,-0.04456,-0.01282,-0.00565,-0.01694,-0.00778,-0.10803,0.01801,-0.0325,-0.01709,0.01099,-0.03876
3.9335,0.00565,-0.06348,0.38879,-0.08636,-0.02686,-0.04501,-0.01328,-0.00244,-0.02777,0.00076,-0.16235,0.03128,-0.0322,-0.01816,0.01053,-0.04059
3.934,-0.02792,-0.06226,0.48141,-0.13672,-0.02777,-0.04639,-0.01373,-0.00061,-0.03769,0.0087,-0.23331,0.02914,-0.03372,-0.01892,0.00992,-0.0412
3.9345,-0.05508,-0.05905,0.44846,-0.1384,-0.02869,-0.04745,-0.01358,-0.0029,-0.04913,0.01434,-0.29114,0.03494,-0.03494,-0.01923,0.01022,-0.04105
3.935,-0.06882,-0.05112,0.31815,-0.04257,-0.02914,-0.04822,-0.01251,-0.00793,-0.06073,0.02365,-0.2861,0.06165,-0.03586,-0.02029,0.01053,-0.04059
3.9355,-0.06973,-0.04166,0.11414,0.07446,-0.02975,-0.05142,-0.01251,-0.01068,-0.07233,0.03372,-0.19363,0.09735,-0.03601,-0.02182,0.00977,-0.04227
3.936,-0.07019,-0.03784,-0.13474,0.08865,-0.03128,-0.0528,-0.01297,-0.00778,-0.07889,0.02197,-0.0502,0.11871,-0.03464,-0.02197,0.00961,-0.0441
3.9365,-0.07217,-0.04257,-0.35156,-0.00748,-0.03296,-0.05386,-0.01312,-0.00443,-0.0795,-0.02579,0.07828,0.11093,-0.0322,-0.01923,0.00961,-0.0441
3.937,-0.06943,-0.0528,-0.46341,-0.09201,-0.03525,-0.05447,-0.01007,-0.00229,-0.07538,-0.08575,0.1503,0.08163,-0.03036,-0.01541,0.00961,-0.04211
3.9375,-0.0502,-0.06027,-0.46417,-0.12497,-0.03708,-0.05463,-0.00549,-0.00168,-0.06729,-0.11597,0.17319,0.0618,-0.03036,-0.0145,0.00961,-0.04059
3.938,-0.01404,-0.06012,-0.40344,-0.22324,-0.03876,-0.05417,-0.00214,-0.00031,-0.05386,-0.10345,0.16693,0.05997,-0.03006,-0.01434,0.00931,-0.04227
3.9385,0.02823,-0.05188,-0.32669,-0.41702,-0.03952,-0.05478,-0.00351,0.00061,-0.0354,-0.06821,0.13855,0.03784,-0.02853,-0.01282,0.0087,-0.04425
3.939,0.06073,-0.04089,-0.25238,-0.50552,-0.04074,-0.05417,-0.00641,-0.00046,-0.01999,-0.03357,0.09048,-0.0354,-0.02808,-0.0119,0.00748,-0.04501
3.9395,0.07538,-0.0296,-0.18158,-0.30975,-0.0415,-0.05295,-0.009,-0.0029,-0.01251,-0.0087,0.03708,-0.12604,-0.02869,-0.01144,0.00732,-0.04333
3.94,0.07706,-0.01862,-0.12146,0.05066,-0.0412,-0.05219,-0.01022,-0.00412,-0.0119,0.00458,-0.00473,-0.16632,-0.02914,-0.01129,0.00931,-0.04074
3.9405,0.07568,-0.01343,-0.07874,0.28534,-0.04074,-0.05264,-0.0116,-0.00305,-0.01053,0.00717,-0.02823,-0.13443,-0.02853,-0.01053,0.01114,-0.03937
3.941,0.07401,-0.01663,-0.05707,0.26535,-0.04181,-0.05356,-0.01312,-0.00229,-0.00336,0.00168,-0.03769,-0.07095,-0.02823,-0.00961,0.01129,-0.03967
3.9415,0.065,-0.0325,-0.04959,0.08255,-0.04272,-0.05356,-0.01541,-0.00305,0.00916,-0.00671,-0.03784,-0.01587,-0.02945,-0.00961,0.009,-0.04013
3.942,0.04166,-0.05737,-0.04669,-0.10254,-0.04272,-0.05325,-0.01862,-0.00519,0.01999,-0.01953,-0.03098,0.04456,-0.03036,-0.01236,0.00778,-0.04044
3.9425,0.00473,-0.08179,-0.04272,-0.17914,-0.04333,-0.05234,-0.02213,-0.0061,0.02411,-0.03967,-0.01709,0.14236,-0.02991,-0.01587,0.00809,-0.03998
3.943,-0.03036,-0.09766,-0.04059,-0.11719,-0.04486,-0.05264,-0.0235,-0.00473,0.0235,-0.06149,-0.00107,0.25803,-0.0296,-0.0177,0.01038,-0.04089
3.9435,-0.04974,-0.10651,-0.04166,0.01129,-0.04623,-0.0528,-0.02258,-0.00244,0.02502,-0.07629,0.01251,0.33691,-0.02914,-0.01724,0.00977,-0.0415
3.944,-0.05173,-0.11642,-0.04654,0.10147,-0.04486,-0.05249,-0.02167,-0.00214,0.0293,-0.08072,0.01999,0.35461,-0.0293,-0.01862,0.00702,-0.04257
3.9445,-0.04898,-0.13016,-0.05295,0.13199,-0.04288,-0.05188,-0.02289,-0.00443,0.03052,-0.07767,0.02167,0.32898,-0.03021,-0.02182,0.0032,-0.04288
3.945,-0.05066,-0.1416,-0.05692,0.17685,-0.04242,-0.05112,-0.02487,-0.00671,0.02655,-0.07065,0.02289,0.28,-0.03143,-0.02502,0.00198,-0.04395
3.9455,-0.0563,-0.14359,-0.05646,0.27313,-0.04196,-0.05096,-0.02579,-0.00778,0.01984,-0.05737,0.02243,0.22018,-0.03174,-0.02579,0.00412,-0.04593
3.946,-0.05585,-0.1387,-0.04791,0.34378,-0.04059,-0.0499,-0.0238,-0.00534,0.01312,-0.03143,0.00137,0.16968,-0.03128,-0.02411,0.00717,-0.04547
3.9465,-0.04593,-0.1329,-0.03433,0.29175,-0.03967,-0.04868,-0.02136,-0.00214,0.0061,-0.00351,-0.05661,0.14343,-0.03082,-0.02319,0.00793,-0.04425
3.947,-0.03098,-0.1297,-0.01541,0.12558,-0.03876,-0.04807,-0.02014,-0.00137,0.00031,0.0087,-0.12024,0.13184,-0.03067,-0.02289,0.00702,-0.04364
3.9475,-0.01312,-0.12268,0.00641,-0.03586,-0.03769,-0.04868,-0.02121,-0.00275,-0.00473,0.00198,-0.14084,0.11444,-0.03128,-0.02365,0.00717,-0.04471
3.948,0.00931,-0.10818,0.02686,-0.07843,-0.0351,-0.04868,-0.02289,-0.00534,-0.0058,-0.00839,-0.10941,0.08896,-0.03143,-0.02426,0.00824,-0.04562
3.9485,0.03494,-0.08301,0.04105,0.0061,-0.03128,-0.04669,-0.02426,-0.00504,-0.00381,-0.00824,-0.0621,0.06454,-0.03265,-0.02441,0.009,-0.0441
3.949,0.05493,-0.04669,0.04791,0.11169,-0.02853,-0.04532,-0.02167,-0.00305,-0.00381,-0.00153,-0.02533,0.04013,-0.03281,-0.02426,0.00854,-0.04318
3.9495,0.05951,-0.00351,0.04974,0.10956,-0.02731,-0.04425,-0.01816,-0.00214,-0.00824,-0.00015,0.00885,0.01297,-0.0325,-0.02304,0.00839,-0.04333
3.95,0.04868,0.03754,0.05096,-0.02487,-0.02701,-0.04333,-0.01404,-0.00275,-0.0145,-0.00427,0.05386,-0.01907,-0.0322,-0.02258,0.00778,-0.0441
3.9505,0.03113,0.06546,0.05585,-0.17471,-0.02716,-0.04395,-0.01266,-0.00336,-0.01556,-0.0087,0.10742,-0.06485,-0.03311,-0.02213,0.00793,-0.04318
3.951,0.01633,0.07599,0.06226,-0.21301,-0.02762,-0.0441,-0.01129,-0.00168,-0.00977,-0.00977,0.15335,-0.12375,-0.03296,-0.02197,0.00885,-0.03922
3.9515,0.00763,0.07324,0.0679,-0.14435,-0.02747,-0.0444,-0.00992,0.00092,-0.00427,-0.01328,0.18936,-0.17548,-0.03235,-0.01862,0.01007,-0.03677
3.952,0.00336,0.06256,0.07767,-0.05203,-0.0264,-0.04395,-0.00961,0.00122,-0.00488,-0.01907,0.22675,-0.2124,-0.03082,-0.01556,0.01083,-0.03693
3.9525,0.00015,0.04761,0.09644,0.04669,-0.02426,-0.04196,-0.01083,0.00031,-0.00854,-0.02335,0.27527,-0.26459,-0.03021,-0.01434,0.01038,-0.03876
3.953,-0.00229,0.02792,0.11261,0.19241,-0.02289,-0.03952,-0.01251,-0.00107,-0.01083,-0.01831,0.32608,-0.35583,-0.03128,-0.01511,0.00946,-0.03845
3.9535,-0.00473,0.00412,0.10773,0.34149,-0.02274,-0.03815,-0.01465,-0.0029,-0.01129,-0.00275,0.3653,-0.45853,-0.03326,-0.01831,0.01022,-0.03693
3.954,-0.00427,-0.01892,0.07187,0.35141,-0.02243,-0.0383,-0.01755,-0.00534,-0.01312,0.01755,0.38223,-0.5159,-0.03448,-0.02106,0.01343,-0.03433
3.9545,-0.00656,-0.03494,0.02472,0.17365,-0.02213,-0.03967,-0.01984,-0.00717,-0.01495,0.0322,0.37537,-0.50446,-0.0354,-0.02304,0.01511,-0.03311
3.955,-0.01236,-0.03952,-0.00336,-0.04028,-0.0209,-0.04028,-0.02029,-0.00793,-0.01541,0.0325,0.3479,-0.43091,-0.03433,-0.02441,0.01465,-0.03403
3.9555,-0.01907,-0.03754,0.00168,-0.12268,-0.01968,-0.03967,-0.01968,-0.00656,-0.01877,0.02304,0.30899,-0.31799,-0.03464,-0.02426,0.01282,-0.03662
3.956,-0.02121,-0.03784,0.03067,-0.08759,-0.01877,-0.03967,-0.0177,-0.00412,-0.02838,0.00717,0.26688,-0.18738,-0.03571,-0.02533,0.01129,-0.03891
3.9565,-0.01419,-0.04288,0.05478,-0.04929,-0.0174,-0.04105,-0.01648,-0.0029,-0.0383,-0.01083,0.22614,-0.02914,-0.03632,-0.02563,0.00824,-0.03998
3.957,0.00687,-0.04761,0.05753,-0.06195,-0.0177,-0.04181,-0.01633,-0.00351,-0.03693,-0.02869,0.18356,0.17334,-0.03693,-0.02411,0.0061,-0.04028
3.9575,0.03754,-0.04593,0.04669,-0.12024,-0.01862,-0.04242,-0.01633,-0.00488,-0.02243,-0.04318,0.14801,0.3537,-0.03769,-0.02029,0.00534,-0.04074
3.958,0.06378,-0.03464,0.03571,-0.2269,-0.01968,-0.04105,-0.0174,-0.00488,-0.0029,-0.0528,0.12772,0.39612,-0.03647,-0.01678,0.00748,-0.04135
3.9585,0.07385,-0.01953,0.03128,-0.33859,-0.02121,-0.04135,-0.01816,-0.00443,0.01053,-0.05539,0.12283,0.28473,-0.03387,-0.01434,0.009,-0.04288
3.959,0.06592,-0.00488,0.03021,-0.36179,-0.02136,-0.04288,-0.01892,-0.00534,0.01617,-0.05188,0.11993,0.14404,-0.03143,-0.01083,0.00793,-0.0444
3.9595,0.04669,0.00946,0.04135,-0.25391,-0.02213,-0.04349,-0.0174,-0.00534,0.01648,-0.04211,0.09796,0.09872,-0.0293,-0.00671,0.00534,-0.04517
3.96,0.02808,0.02548,0.09094,-0.07874,-0.02197,-0.04395,-0.01221,-0.00244,0.0174,-0.0325,0.05676,0.14465,-0.02716,-0.00473,0.00473,-0.04532
3.9605,0.01907,0.04105,0.20081,0.08072,-0.02396,-0.04395,-0.00717,0.00061,0.01862,-0.02472,0.01328,0.19424,-0.02625,-0.0061,0.00504,-0.04562
3.961,0.02319,0.05066,0.32837,0.1825,-0.02625,-0.04471,-0.00427,0.00351,0.01602,-0.01831,-0.01663,0.19119,-0.02579,-0.009,0.00397,-0.04745
3.9615,0.02548,0.04822,0.36316,0.20935,-0.02777,-0.04608,-0.00381,0.00519,0.00977,-0.00305,-0.03052,0.1413,-0.02548,-0.01129,0.00244,-0.04868
3.962,0.00961,0.03204,0.23773,0.15732,-0.03021,-0.04745,-0.00641,0.00595,0.0061,0.02762,-0.03616,0.07233,-0.02625,-0.01205,0.00244,-0.04761
3.9625,-0.0235,0.00336,0.00259,0.04578,-0.03281,-0.04776,-0.00916,0.00305,0.00488,0.06561,-0.03754,0.00458,-0.02747,-0.01221,0.00458,-0.04517
3.963,-0.05569,-0.02975,-0.22919,-0.07858,-0.03387,-0.04791,-0.01053,-0.00244,0.00092,0.09766,-0.03296,-0.04929,-0.02899,-0.01434,0.00717,-0.04242
3.9635,-0.0769,-0.05585,-0.383,-0.15182,-0.0354,-0.04837,-0.00824,-0.00732,-0.01144,0.10834,-0.01877,-0.08087,-0.03006,-0.01572,0.00946,-0.0415
3.964,-0.09216,-0.06775,-0.45456,-0.14618,-0.03799,-0.04944,-0.00443,-0.00793,-0.02777,0.09705,0.00214,-0.09964,-0.03006,-0.01602,0.01083,-0.04105
3.9645,-0.10452,-0.06821,-0.47012,-0.1059,-0.04105,-0.05112,-0.00031,-0.00549,-0.03616,0.06592,0.0238,-0.13535,-0.03082,-0.01587,0.01068,-0.04105
3.965,-0.10712,-0.06561,-0.43747,-0.05539,-0.0441,-0.05066,0.00259,-0.00259,-0.03098,0.01541,0.03784,-0.21347,-0.03204,-0.01648,0.01068,-0.03967
3.9655,-0.09552,-0.06638,-0.35126,0.05356,-0.04608,-0.05035,0.0032,-0.00092,-0.01526,-0.03601,0.03647,-0.31235,-0.03372,-0.01907,0.00824,-0.03983
3.966,-0.07843,-0.07065,-0.21835,0.22003,-0.04822,-0.04974,0.00076,-0.00015,0.00076,-0.06989,0.01892,-0.36011,-0.03342,-0.02014,0.00748,-0.03983
3.9665,-0.06836,-0.08133,-0.06149,0.28732,-0.05035,-0.05051,-0.00565,-0.00229,0.00854,-0.0798,-0.00504,-0.289,-0.03204,-0.01923,0.0087,-0.03891
3.967,-0.06851,-0.09918,0.09491,0.11993,-0.05249,-0.05142,-0.0148,-0.00671,0.00259,-0.07401,-0.02502,-0.11215,-0.03174,-0.01678,0.01053,-0.03723
3.9675,-0.07202,-0.12314,0.21881,-0.17014,-0.05356,-0.05203,-0.02319,-0.0116,-0.01221,-0.06271,-0.0383,0.06958,-0.03326,-0.0145,0.01083,-0.03525
3.968,-0.07278,-0.14984,0.27618,-0.31815,-0.05035,-0.05219,-0.02731,-0.01266,-0.02457,-0.0499,-0.05112,0.14496,-0.03586,-0.01389,0.01236,-0.0354
3.9685,-0.07111,-0.17456,0.2446,-0.21194,-0.04761,-0.05463,-0.02441,-0.00977,-0.02899,-0.04059,-0.06851,0.08835,-0.03586,-0.01541,0.01175,-0.03586
3.969,-0.0705,-0.1915,0.14191,-0.00397,-0.047,-0.05676,-0.0206,-0.00488,-0.02884,-0.03342,-0.08774,-0.02777,-0.03387,-0.0174,0.01175,-0.03998
3.9695,-0.06882,-0.1947,0.01541,0.0737,-0.0473,-0.05661,-0.01694,-0.00153,-0.02975,-0.02625,-0.11047,-0.10696,-0.03113,-0.01892,0.00916,-0.04593
3.97,-0.065,-0.18311,-0.09369,-0.02502,-0.04639,-0.05447,-0.01495,-0.00031,-0.0293,-0.01556,-0.13779,-0.09384,-0.02945,-0.01801,0.00671,-0.05096
3.9705,-0.0621,-0.16022,-0.17059,-0.14404,-0.04486,-0.05478,-0.0148,0.00015,-0.02625,-0.00885,-0.1622,0.01038,-0.02914,-0.01648,0.00656,-0.05005
3.971,-0.06454,-0.12985,-0.21957,-0.12772,-0.04166,-0.05478,-0.01526,0.0,-0.02335,-0.01541,-0.17563,0.1712,-0.0296,-0.01556,0.00488,-0.04639
3.9715,-0.07187,-0.09308,-0.24857,0.02197,-0.03845,-0.05264,-0.01511,0.00076,-0.02563,-0.03876,-0.17776,0.34531,-0.03067,-0.01678,0.00534,-0.04349
3.972,-0.07736,-0.04868,-0.26001,0.19302,-0.0354,-0.05035,-0.01587,0.00107,-0.02853,-0.06439,-0.17532,0.4892,-0.03113,-0.01923,0.00656,-0.04349
3.9725,-0.07294,0.00107,-0.25558,0.28046,-0.03311,-0.04807,-0.01633,0.00076,-0.02441,-0.0705,-0.17334,0.55298,-0.03174,-0.01938,0.00702,-0.04456
3.973,-0.05661,0.05005,-0.23849,0.25314,-0.03143,-0.04837,-0.01709,0.00122,-0.01785,-0.05188,-0.17609,0.49255,-0.03143,-0.01938,0.00626,-0.04517
3.9735,-0.03799,0.08789,-0.21408,0.16327,-0.0293,-0.04822,-0.01587,-0.00015,-0.0206,-0.01984,-0.1857,0.31326,-0.03159,-0.01984,0.00534,-0.0441
3.974,-0.02487,0.10818,-0.18265,0.09766,-0.0264,-0.04776,-0.01495,-0.00229,-0.03281,0.00824,-0.2002,0.07507,-0.03326,-0.02121,0.00565,-0.04242
3.9745,-0.01633,0.11276,-0.14359,0.06897,-0.0238,-0.0473,-0.01419,-0.00443,-0.04364,0.0267,-0.20844,-0.14374,-0.03448,-0.02258,0.00671,-0.04074
3.975,-0.009,0.10178,-0.09903,0.00244,-0.02228,-0.04608,-0.01389,-0.00473,-0.04501,0.03265,-0.20004,-0.28778,-0.03403,-0.02182,0.00748,-0.03845
3.9755,0.00137,0.07904,-0.06149,-0.13092,-0.02136,-0.04318,-0.01175,-0.00473,-0.03998,0.02258,-0.177,-0.33356,-0.03326,-0.02213,0.009,-0.03738
3.976,0.01572,0.05173,-0.03891,-0.23071,-0.01953,-0.0412,-0.01053,-0.00595,-0.03403,-0.00412,-0.14908,-0.298,-0.03296,-0.0209,0.00946,-0.03738
3.9765,0.03387,0.02579,-0.02167,-0.19135,-0.01831,-0.0412,-0.01144,-0.00763,-0.03525,-0.03418,-0.12543,-0.23132,-0.03357,-0.01984,0.00961,-0.03967
3.977,0.05768,0.00336,0.00183,-0.06027,-0.01892,-0.04242,-0.01434,-0.00717,-0.04257,-0.05188,-0.11154,-0.17426,-0.03464,-0.02029,0.00885,-0.04166
3.9775,0.08575,-0.01495,0.04562,0.0235,-0.01938,-0.04395,-0.01373,-0.00488,-0.04959,-0.05737,-0.11398,-0.10925,-0.03464,-0.02228,0.00671,-0.0415
3.978,0.10574,-0.03143,0.13153,0.01968,-0.01892,-0.04395,-0.00946,-0.00122,-0.05005,-0.06165,-0.13596,-0.00641,-0.03357,-0.02487,0.00641,-0.0386
3.9785,0.10178,-0.04852,0.28534,0.0174,-0.01938,-0.04288,-0.0058,0.00046,-0.04623,-0.06531,-0.17563,0.10559,-0.03311,-0.02502,0.00687,-0.03632
3.979,0.07095,-0.07156,0.50323,0.0972,-0.02014,-0.0412,-0.00473,-0.00076,-0.04318,-0.05295,-0.23132,0.1828,-0.03372,-0.02426,0.00732,-0.03632
3.9795,0.03189,-0.0975,0.72464,0.2124,-0.02335,-0.04105,-0.00687,-0.00107,-0.04013,-0.02213,-0.29556,0.22415,-0.03479,-0.02365,0.00854,-0.03769
3.98,0.00504,-0.1207,0.83359,0.21301,-0.02655,-0.04211,-0.00793,-0.00046,-0.03693,0.01053,-0.33981,0.24261,-0.03372,-0.02289,0.00916,-0.03845
3.9805,-0.00595,-0.14008,0.72342,0.02136,-0.02701,-0.04318,-0.01099,0.00015,-0.03479,0.02899,-0.32516,0.20981,-0.03265,-0.02182,0.00885,-0.0383
3.981,-0.01068,-0.15564,0.39307,-0.23773,-0.02808,-0.04349,-0.01495,-0.00137,-0.03433,0.03525,-0.23895,0.09644,-0.0325,-0.02151,0.00854,-0.0383
3.9815,-0.01831,-0.16632,-0.0412,-0.35812,-0.02914,-0.04333,-0.01709,-0.00549,-0.0354,0.03555,-0.11459,-0.05173,-0.0325,-0.02151,0.00839,-0.04074
3.982,-0.0322,-0.16693,-0.44189,-0.29358,-0.0296,-0.0441,-0.01663,-0.00778,-0.03387,0.03174,0.00046,-0.15091,-0.03159,-0.02228,0.00732,-0.04272
3.9825,-0.04684,-0.1535,-0.74829,-0.18768,-0.03021,-0.04593,-0.01343,-0.00702,-0.02747,0.02136,0.07416,-0.1857,-0.03204,-0.02319,0.00687,-0.04288
3.983,-0.05768,-0.13107,-0.94528,-0.15457,-0.03098,-0.04715,-0.01068,-0.00549,-0.01648,0.00717,0.10086,-0.22247,-0.03387,-0.02258,0.00778,-0.0415
3.9835,-0.06165,-0.10757,-1.02722,-0.15793,-0.03189,-0.04868,-0.009,-0.00412,-0.00687,-0.00641,0.09186,-0.29648,-0.03586,-0.02304,0.00824,-0.04105
3.984,-0.06226,-0.08072,-0.99136,-0.10574,-0.03326,-0.05081,-0.00839,-0.00229,-0.00336,-0.02045,0.07004,-0.32776,-0.0351,-0.02228,0.00946,-0.04089
3.9845,-0.05798,-0.04166,-0.85175,0.00977,-0.03387,-0.05234,-0.00854,-0.00122,-0.0032,-0.047,0.04822,-0.21988,-0.03464,-0.0206,0.01022,-0.03967
3.985,-0.0415,0.00931,-0.6282,0.11078,-0.03555,-0.0528,-0.00916,-0.00076,-0.0032,-0.08179,0.03143,-0.01144,-0.03571,-0.01923,0.01175,-0.03815
3.9855,-0.00687,0.0589,-0.34912,0.1178,-0.03693,-0.05295,-0.00931,0.0,-0.00443,-0.10483,0.01831,0.15015,-0.03708,-0.01831,0.0116,-0.03616
3.986,0.0386,0.0975,-0.0769,0.0058,-0.03738,-0.0531,-0.00839,0.00046,-0.00809,-0.09293,0.00458,0.17273,-0.03708,-0.01785,0.01083,-0.03494
3.9865,0.07538,0.12161,0.09644,-0.177,-0.03632,-0.05249,-0.00961,0.00168,-0.01373,-0.05722,-0.02365,0.0972,-0.03662,-0.01694,0.01038,-0.03647
3.987,0.08408,0.13184,0.1207,-0.30685,-0.03494,-0.0499,-0.0116,0.00214,-0.01892,-0.0235,-0.07309,0.01862,-0.03769,-0.01556,0.01129,-0.03708
3.9875,0.06821,0.12527,0.03448,-0.26855,-0.03403,-0.04807,-0.01343,-0.00046,-0.02136,-0.01312,-0.12833,-0.0174,-0.03876,-0.0145,0.01297,-0.03693
3.988,0.05219,0.10574,-0.0795,-0.09796,-0.03494,-0.04807,-0.01373,-0.00397,-0.01938,-0.02441,-0.15488,-0.02731,-0.03876,-0.01465,0.01541,-0.03494
3.9885,0.05341,0.08133,-0.16357,0.02869,-0.03601,-0.05096,-0.01144,-0.00534,-0.01007,-0.03937,-0.12497,-0.03036,-0.03632,-0.01526,0.01755,-0.03372
3.989,0.06531,0.05981,-0.20767,0.03555,-0.03586,-0.05234,-0.00793,-0.00183,0.00412,-0.0441,-0.05051,-0.03464,-0.03403,-0.01648,0.01556,-0.03571
3.9895,0.0679,0.03891,-0.21637,0.05203,-0.03708,-0.05478,-0.00381,0.00351,0.01328,-0.03616,0.02533,-0.056,-0.03464,-0.01846,0.01038,-0.04074
3.99,0.05524,0.0206,-0.2002,0.15594,-0.03723,-0.05386,-0.00015,0.00778,0.01266,-0.02304,0.06363,-0.09628,-0.03601,-0.01892,0.00519,-0.04623
3.9905,0.0386,0.00397,-0.16663,0.19989,-0.03754,-0.05432,-0.00137,0.00793,0.00504,-0.01068,0.05768,-0.11795,-0.03601,-0.0177,0.00092,-0.04913
3.991,0.02655,-0.01923,-0.12222,0.09171,-0.03586,-0.05447,-0.00702,0.0032,-0.00366,0.00031,0.02213,-0.08362,-0.03479,-0.01312,-0.00031,-0.04944
3.9915,0.0209,-0.05692,-0.06485,0.009,-0.03265,-0.05234,-0.01251,-0.00275,-0.009,0.01099,-0.02136,-0.00183,-0.03387,-0.00885,0.00092,-0.047
3.992,0.01663,-0.10544,-0.00092,0.09781,-0.0296,-0.04944,-0.01526,-0.00671,-0.01083,0.01816,-0.05203,0.09964,-0.03418,-0.00961,0.00336,-0.04517
3.9925,0.0148,-0.14893,0.0563,0.20523,-0.02838,-0.04684,-0.01556,-0.00641,-0.00824,0.01892,-0.05386,0.21454,-0.03464,-0.01266,0.0058,-0.04318
3.993,0.01602,-0.17776,0.1001,0.12589,-0.02747,-0.04562,-0.01602,-0.00473,-0.00549,0.01419,-0.02792,0.32761,-0.03387,-0.01602,0.00702,-0.03937
3.9935,0.02182,-0.19592,0.13443,-0.06897,-0.0267,-0.04379,-0.01495,-0.00381,-0.00687,0.00931,0.0029,0.39474,-0.03235,-0.01694,0.00824,-0.03754
3.994,0.03174,-0.20508,0.1651,-0.16418,-0.02502,-0.04288,-0.01282,-0.00473,-0.01205,0.01068,0.02136,0.37323,-0.03128,-0.01556,0.00961,-0.03845
3.9945,0.04654,-0.20218,0.19226,-0.12161,-0.02365,-0.04318,-0.01297,-0.00504,-0.01892,0.02106,0.02823,0.26245,-0.03036,-0.01373,0.00931,-0.03937
3.995,0.06042,-0.18219,0.21469,-0.07996,-0.02426,-0.0441,-0.01587,-0.00351,-0.02594,0.03418,0.02975,0.1149,-0.0296,-0.01358,0.00687,-0.04044
3.9955,0.06485,-0.14496,0.2327,-0.11765,-0.02533,-0.0444,-0.01877,-0.00305,-0.03159,0.04166,0.0264,0.00763,-0.02914,-0.01556,0.00504,-0.04089
3.996,0.05585,-0.09186,0.24658,-0.15884,-0.02579,-0.04623,-0.01984,-0.00519,-0.03311,0.04227,0.01694,-0.01617,-0.02899,-0.01678,0.00549,-0.04089
3.9965,0.03616,-0.03159,0.25253,-0.13092,-0.0267,-0.04807,-0.01862,-0.00778,-0.02792,0.04059,0.00488,0.01602,-0.02884,-0.01587,0.0061,-0.04211
3.997,0.0116,0.02548,0.25696,-0.07065,-0.02579,-0.0502,-0.01755,-0.00931,-0.01724,0.03952,-0.01175,0.04547,-0.02853,-0.01251,0.00641,-0.04333
3.9975,-0.01053,0.07126,0.26764,-0.03067,-0.0264,-0.05142,-0.01816,-0.00885,-0.00854,0.0386,-0.03708,0.03586,-0.02716,-0.01022,0.00656,-0.04349
3.998,-0.02625,0.09903,0.28839,0.02228,-0.02777,-0.05234,-0.02151,-0.0087,-0.00595,0.0354,-0.06271,0.00031,-0.02625,-0.00992,0.00687,-0.04257
3.9985,-0.03082,0.10559,0.32623,0.12619,-0.03128,-0.05356,-0.02319,-0.00809,-0.00809,0.03036,-0.06668,-0.03326,-0.02701,-0.01236,0.00717,-0.04333
3.999,-0.02411,0.08881,0.37262,0.21973,-0.03296,-0.05539,-0.02319,-0.00793,-0.01144,0.01892,-0.04166,-0.06699,-0.02808,-0.01373,0.00534,-0.04486
3.9995,-0.01114,0.05371,0.38193,0.20187,-0.03296,-0.05417,-0.02121,-0.00671,-0.01266,0.00412,-0.00381,-0.11536,-0.02747,-0.01266,0.00504,-0.04684
4.0,0.00381,0.00717,0.30457,0.06439,-0.03067,-0.05127,-0.01831,-0.00412,-0.01373,-0.01053,0.0235,-0.15717,-0.02655,-0.01236,0.00656,-0.04715
4.0005,0.01968,-0.03769,0.14725,-0.10345,-0.03098,-0.04852,-0.01694,-0.00076,-0.01373,-0.01877,0.03738,-0.15396,-0.02716,-0.01343,0.0087,-0.04578
4.001,0.03296,-0.07172,-0.02426,-0.23544,-0.03189,-0.04745,-0.01709,-0.00031,-0.01373,-0.02335,0.04166,-0.11383,-0.02991,-0.01587,0.00992,-0.04227
4.0015,0.03494,-0.09338,-0.14877,-0.3447,-0.03098,-0.04654,-0.01831,-0.00198,-0.01556,-0.02258,0.0441,-0.08759,-0.03311,-0.01831,0.01114,-0.03922
4.002,0.0209,-0.11017,-0.21515,-0.44235,-0.02792,-0.04532,-0.02014,-0.00397,-0.01953,-0.0209,0.04303,-0.09735,-0.03479,-0.02029,0.01221,-0.03632
4.0025,-0.00015,-0.12177,-0.24643,-0.46051,-0.02502,-0.04471,-0.02045,-0.0029,-0.02609,-0.02243,0.04257,-0.12039,-0.0351,-0.02167,0.01205,-0.03586
4.003,-0.01175,-0.12268,-0.2623,-0.30289,-0.02396,-0.04456,-0.02029,-0.00183,-0.03357,-0.02533,0.0386,-0.13809,-0.03387,-0.02228,0.01221,-0.03555
4.0035,-0.01221,-0.11154,-0.26855,0.03571,-0.02518,-0.04471,-0.01907,-0.00107,-0.04135,-0.03357,0.01144,-0.16586,-0.03387,-0.0235,0.01175,-0.03616
4.004,-0.01328,-0.09125,-0.2684,0.39627,-0.02548,-0.04395,-0.0177,-0.00092,-0.04501,-0.04684,-0.04852,-0.21576,-0.03448,-0.02426,0.01282,-0.03632
4.0045,-0.01801,-0.06943,-0.26749,0.55328,-0.02625,-0.04166,-0.01556,0.0,-0.04013,-0.06851,-0.12466,-0.27374,-0.03387,-0.02472,0.01312,-0.03632
4.005,-0.02304,-0.05081,-0.25208,0.44052,-0.0267,-0.04074,-0.01541,-0.00031,-0.02762,-0.09232,-0.18997,-0.30273,-0.0322,-0.02289,0.01175,-0.03738
4.0055,-0.02441,-0.03433,-0.17395,0.24338,-0.02487,-0.04059,-0.01709,-0.00107,-0.01343,-0.10315,-0.23026,-0.26337,-0.02945,-0.01999,0.00809,-0.04044
4.006,-0.0264,-0.01633,0.00931,0.1709,-0.02426,-0.04089,-0.01816,-0.00137,0.00031,-0.09064,-0.25024,-0.16235,-0.0293,-0.01816,0.00381,-0.0444
4.0065,-0.03296,0.0,0.23804,0.18097,-0.02502,-0.04211,-0.01785,-0.00076,0.0119,-0.05585,-0.25803,-0.05051,-0.03082,-0.01678,0.00015,-0.04883
4.007,-0.04013,0.01266,0.36285,0.09659,-0.02609,-0.04364,-0.0174,-0.00046,0.02151,-0.01282,-0.25909,0.03815,-0.03174,-0.01633,-0.00092,-0.04959
4.0075,-0.04288,0.01907,0.28595,-0.07019,-0.02701,-0.04333,-0.01572,-0.00168,0.02686,0.01938,-0.25452,0.13214,-0.03067,-0.01785,0.00046,-0.04761
4.008,-0.03616,0.01709,0.07004,-0.11734,-0.02808,-0.04272,-0.0145,-0.00122,0.0293,0.03189,-0.24841,0.26627,-0.02853,-0.02121,0.00214,-0.04471
4.0085,-0.02487,-0.00046,-0.14481,0.04623,-0.03128,-0.04181,-0.01465,-0.00183,0.03357,0.03098,-0.24811,0.40649,-0.02823,-0.02289,0.00229,-0.04349
4.009,-0.01404,-0.03998,-0.27527,0.26581,-0.03204,-0.04333,-0.01511,-0.00092,0.0412,0.0267,-0.25436,0.46249,-0.02975,-0.02365,0.00137,-0.04425
4.0095,-0.00717,-0.0946,-0.31189,0.33997,-0.03036,-0.04456,-0.01328,0.00137,0.04929,0.02274,-0.25528,0.38635,-0.03159,-0.02441,0.00229,-0.04517
4.01,-0.00916,-0.14938,-0.27496,0.21988,-0.02838,-0.04532,-0.01144,0.00412,0.05096,0.0177,-0.23895,0.22049,-0.03128,-0.02655,0.0058,-0.04333
4.0105,-0.01984,-0.19226,-0.19806,-0.00946,-0.03052,-0.04471,-0.01099,0.00519,0.04166,0.00519,-0.20081,0.03815,-0.03082,-0.02838,0.00854,-0.04044
4.011,-0.03357,-0.21942,-0.13641,-0.23621,-0.03265,-0.04486,-0.01236,0.0032,0.0206,-0.01862,-0.15213,-0.1152,-0.03174,-0.02884,0.01007,-0.03693
4.0115,-0.04303,-0.23193,-0.12375,-0.36514,-0.03387,-0.04623,-0.01389,-0.00015,-0.0061,-0.05386,-0.112,-0.21973,-0.03265,-0.02975,0.01022,-0.03464
4.012,-0.04684,-0.22766,-0.14862,-0.34683,-0.03387,-0.04623,-0.01648,-0.00275,-0.03174,-0.08713,-0.10391,-0.26428,-0.03433,-0.03082,0.01068,-0.03464
4.0125,-0.0444,-0.20279,-0.17807,-0.21637,-0.03555,-0.0441,-0.01907,-0.00595,-0.0502,-0.09781,-0.14145,-0.22308,-0.03555,-0.03189,0.01083,-0.03616
4.013,-0.03815,-0.15656,-0.19028,-0.06592,-0.03677,-0.04166,-0.01999,-0.00824,-0.06027,-0.07553,-0.21545,-0.07843,-0.03571,-0.03128,0.01099,-0.03815
4.0135,-0.03082,-0.09155,-0.18463,0.05463,-0.03586,-0.04044,-0.01724,-0.00824,-0.06088,-0.03983,-0.29922,0.11383,-0.0351,-0.02945,0.01114,-0.03983
4.014,-0.02747,-0.01541,-0.16739,0.14999,-0.03326,-0.04089,-0.01282,-0.00504,-0.05463,-0.01694,-0.35614,0.22491,-0.03525,-0.02777,0.01266,-0.0415
4.0145,-0.02747,0.05905,-0.14053,0.19409,-0.0322,-0.04333,-0.00977,-0.00183,-0.04959,-0.01709,-0.37064,0.18463,-0.03448,-0.02563,0.01358,-0.04303
4.015,-0.0264,0.12115,-0.10971,0.14465,-0.03235,-0.04471,-0.01099,-0.00122,-0.05096,-0.02625,-0.34286,0.06302,-0.03418,-0.02502,0.01373,-0.04395
4.0155,-0.02258,0.16541,-0.07736,0.04059,-0.03113,-0.04395,-0.01572,-0.00397,-0.05768,-0.03372,-0.27954,-0.0206,-0.0351,-0.02533,0.01266,-0.04333
4.016,-0.01373,0.19043,-0.04761,-0.03738,-0.02914,-0.04211,-0.01938,-0.00595,-0.06439,-0.03693,-0.18707,-0.03662,-0.03647,-0.02731,0.01099,-0.04227
4.0165,-0.00259,0.1973,-0.02441,-0.0737,-0.02838,-0.04089,-0.01923,-0.00626,-0.06805,-0.03998,-0.08408,-0.03708,-0.03708,-0.02869,0.00977,-0.03952
4.017,0.00626,0.18936,-0.00824,-0.10788,-0.02808,-0.04105,-0.01709,-0.00549,-0.06866,-0.04333,-0.00183,-0.0705,-0.03723,-0.02777,0.0087,-0.03876
4.0175,0.01114,0.17151,0.00885,-0.13519,-0.02975,-0.04318,-0.01602,-0.00366,-0.06729,-0.04608,0.04913,-0.12939,-0.03555,-0.02563,0.00885,-0.03952
4.018,0.01373,0.14572,0.04028,-0.11047,-0.03235,-0.04379,-0.01389,-0.00122,-0.06149,-0.04669,0.08347,-0.17227,-0.03311,-0.02182,0.009,-0.04135
4.0185,0.01602,0.11429,0.09216,-0.02472,-0.03387,-0.04456,-0.01007,0.00031,-0.05264,-0.04349,0.12802,-0.16296,-0.03189,-0.01984,0.00824,-0.04257
4.019,0.02426,0.07843,0.15305,0.08041,-0.03372,-0.04654,-0.00671,0.00031,-0.04303,-0.03448,0.18463,-0.10437,-0.03128,-0.01999,0.00748,-0.04257
4.0195,0.04684,0.04059,0.20096,0.14923,-0.03326,-0.04944,-0.00549,-0.00229,-0.03494,-0.01877,0.2388,-0.02594,-0.02975,-0.01892,0.00778,-0.03937
4.02,0.08133,0.00259,0.22919,0.15106,-0.03265,-0.0502,-0.00809,-0.00488,-0.02747,-0.00351,0.2774,0.05356,-0.02747,-0.01678,0.00946,-0.03586
4.0205,0.10773,-0.03204,0.25192,0.11108,-0.03159,-0.04929,-0.01083,-0.00656,-0.01755,0.00641,0.30396,0.13947,-0.02487,-0.01404,0.01053,-0.03479
4.021,0.11047,-0.05966,0.29755,0.07431,-0.0296,-0.04822,-0.01266,-0.00565,-0.00626,0.00534,0.32303,0.22034,-0.02365,-0.01236,0.01068,-0.0351
4.0215,0.09399,-0.07675,0.37949,0.03525,-0.02808,-0.0473,-0.01297,-0.00549,0.00397,-0.00122,0.3302,0.24445,-0.02472,-0.01099,0.01083,-0.03616
4.022,0.07263,-0.08316,0.46005,-0.05508,-0.02747,-0.04715,-0.01328,-0.00671,0.01007,-0.0061,0.31998,0.17212,-0.02472,-0.01022,0.01114,-0.0354
4.0225,0.04807,-0.08179,0.46097,-0.20996,-0.02853,-0.04684,-0.01343,-0.00931,0.01144,-0.00443,0.30289,0.05081,-0.0238,-0.00931,0.00946,-0.03433
4.023,0.01648,-0.07736,0.33966,-0.35583,-0.02914,-0.04608,-0.01297,-0.00977,0.01068,-0.00061,0.29312,-0.03281,-0.02518,-0.01068,0.00763,-0.03525
4.0235,-0.01968,-0.07477,0.13336,-0.37292,-0.02945,-0.04501,-0.01389,-0.009,0.01251,-0.00381,0.29388,-0.05402,-0.02747,-0.01129,0.00534,-0.03799
4.024,-0.05219,-0.07614,-0.07385,-0.23331,-0.02945,-0.04288,-0.01663,-0.00931,0.01465,-0.02579,0.30045,-0.05783,-0.0296,-0.01038,0.00458,-0.04105
4.0245,-0.07706,-0.08316,-0.22034,-0.04654,-0.02975,-0.04089,-0.01816,-0.01053,0.01297,-0.07294,0.30807,-0.07843,-0.0296,-0.0087,0.00534,-0.04318
4.025,-0.09567,-0.09583,-0.28992,0.07462,-0.03036,-0.04227,-0.02029,-0.01251,0.00732,-0.13214,0.31876,-0.10178,-0.02991,-0.00793,0.00687,-0.04486
4.0255,-0.10864,-0.11078,-0.29755,0.11307,-0.0322,-0.04501,-0.02121,-0.01343,0.00198,-0.16861,0.3331,-0.11353,-0.03021,-0.00854,0.00687,-0.04501
4.026,-0.11887,-0.12192,-0.26535,0.08453,-0.03387,-0.047,-0.02045,-0.01328,0.00076,-0.15869,0.34454,-0.13062,-0.03036,-0.00977,0.00595,-0.04379
4.0265,-0.12802,-0.12527,-0.22629,-0.01343,-0.03464,-0.04944,-0.01999,-0.01236,-0.00031,-0.11124,0.34195,-0.16846,-0.03021,-0.01221,0.00641,-0.04181
4.027,-0.13641,-0.12466,-0.1976,-0.15656,-0.03616,-0.05127,-0.0177,-0.00992,-0.00351,-0.0563,0.31952,-0.2063,-0.03067,-0.01556,0.00717,-0.04044
4.0275,-0.13962,-0.12329,-0.19073,-0.28641,-0.03769,-0.05264,-0.01465,-0.00671,-0.00397,-0.02029,0.28351,-0.21545,-0.03235,-0.01831,0.00702,-0.0412
4.028,-0.12909,-0.12177,-0.21561,-0.33493,-0.03967,-0.05356,-0.01236,-0.00504,-0.00031,-0.00122,0.24536,-0.19241,-0.03494,-0.01984,0.00626,-0.04196
4.0285,-0.10056,-0.11505,-0.28534,-0.23956,-0.0412,-0.05127,-0.01343,-0.00351,0.00122,0.00931,0.21164,-0.15808,-0.03708,-0.02289,0.00717,-0.04196
4.029,-0.06516,-0.10101,-0.3746,-0.00824,-0.04181,-0.0502,-0.01587,-0.00198,-0.00366,0.01419,0.18845,-0.12314,-0.03769,-0.02563,0.00992,-0.04074
4.0295,-0.03738,-0.0827,-0.41718,0.23224,-0.04211,-0.05157,-0.01694,-0.00183,-0.01114,0.00977,0.18005,-0.07141,-0.03723,-0.02808,0.01175,-0.03906
4.03,-0.02335,-0.06897,-0.37567,0.32867,-0.0415,-0.05356,-0.01602,-0.0029,-0.01434,-0.00137,0.18356,0.02029,-0.03769,-0.02899,0.01083,-0.03891
4.0305,-0.01678,-0.06058,-0.27725,0.25467,-0.04166,-0.05478,-0.01678,-0.00504,-0.01022,-0.01343,0.18326,0.14526,-0.04013,-0.03021,0.00839,-0.03983
4.031,-0.01099,-0.05127,-0.17426,0.11871,-0.03983,-0.05447,-0.01801,-0.0061,0.00244,-0.0174,0.17105,0.26657,-0.04288,-0.03174,0.00839,-0.03998
4.0315,-0.00702,-0.03799,-0.08865,0.05249,-0.03784,-0.05249,-0.01816,-0.00473,0.01999,-0.01419,0.15091,0.345,-0.04333,-0.03082,0.00977,-0.0412
4.032,-0.00671,-0.02121,-0.01724,0.07111,-0.03494,-0.05035,-0.01678,-0.00183,0.03479,-0.00931,0.13382,0.35675,-0.04272,-0.02838,0.0119,-0.04257
4.0325,-0.00687,-0.00626,0.03845,0.06073,-0.03265,-0.04929,-0.01572,-0.00046,0.03555,-0.00351,0.11505,0.29938,-0.0412,-0.02533,0.01129,-0.04318
4.033,-0.00519,0.00046,0.0737,-0.05157,-0.03067,-0.04898,-0.01633,-0.00153,0.01923,0.00504,0.0827,0.20142,-0.0412,-0.02365,0.01114,-0.04272
4.0335,-0.00748,-0.00732,0.09583,-0.16571,-0.0293,-0.04929,-0.01755,-0.00427,-0.00305,0.01923,0.04608,0.11078,-0.0412,-0.02213,0.01114,-0.04105
4.034,-0.01587,-0.03082,0.11459,-0.13382,-0.02625,-0.05066,-0.01938,-0.00549,-0.01724,0.03601,0.03464,0.06058,-0.04013,-0.0206,0.01038,-0.04059
4.0345,-0.0235,-0.05905,0.1326,0.03632,-0.02579,-0.05142,-0.01923,-0.00488,-0.02014,0.04868,0.06729,0.03326,-0.03769,-0.01892,0.00854,-0.04181
4.035,-0.01907,-0.07889,0.16113,0.18097,-0.02625,-0.05051,-0.01831,-0.00427,-0.01709,0.05096,0.11505,-0.01877,-0.0351,-0.0174,0.00671,-0.04318
4.0355,0.0,-0.09079,0.22598,0.15808,-0.02716,-0.04913,-0.01892,-0.00443,-0.01083,0.03845,0.13565,-0.12451,-0.03433,-0.01602,0.00641,-0.04532
4.036,0.02075,-0.10468,0.32852,-0.02014,-0.02777,-0.04868,-0.01968,-0.00504,-0.00214,0.01099,0.11353,-0.26001,-0.03403,-0.01373,0.00534,-0.047
4.0365,0.02945,-0.12466,0.42435,-0.21027,-0.02975,-0.05081,-0.01953,-0.00473,0.00275,-0.02151,0.06287,-0.37003,-0.03281,-0.01221,0.00473,-0.0473
4.037,0.02762,-0.14297,0.45853,-0.2655,-0.03265,-0.05295,-0.01663,-0.00244,-0.00366,-0.04425,0.00259,-0.40176,-0.03159,-0.01053,0.00381,-0.04532
4.0375,0.02502,-0.15198,0.41046,-0.15823,-0.03342,-0.05356,-0.01205,0.00183,-0.01633,-0.04593,-0.05814,-0.31906,-0.03082,-0.00854,0.00549,-0.04349
4.038,0.02548,-0.14694,0.29602,0.00153,-0.03586,-0.05295,-0.0087,0.0061,-0.02335,-0.03372,-0.10834,-0.12939,-0.03098,-0.00443,0.01007,-0.04318
4.0385,0.02609,-0.12726,0.14511,0.09262,-0.03708,-0.05341,-0.00931,0.00595,-0.01846,-0.02396,-0.14008,0.07095,-0.03067,-0.00092,0.01373,-0.04333
4.039,0.02274,-0.09415,-0.00229,0.10178,-0.03967,-0.05463,-0.01297,0.00275,-0.01114,-0.02228,-0.14969,0.16464,-0.03067,0.00031,0.01297,-0.04318
4.0395,0.01495,-0.05188,-0.10284,0.07477,-0.04196,-0.05478,-0.01526,0.00015,-0.01083,-0.03098,-0.13763,0.13351,-0.03067,0.00046,0.01175,-0.04288
4.04,0.00488,-0.00931,-0.1297,0.02151,-0.0441,-0.05447,-0.01602,0.00015,-0.01541,-0.04486,-0.10895,0.0766,-0.03006,-0.00015,0.01099,-0.04272
4.0405,-0.00641,0.0235,-0.10223,-0.04242,-0.04608,-0.05417,-0.01495,0.00107,-0.02014,-0.05219,-0.07477,0.06989,-0.03052,-0.00229,0.00977,-0.04379
4.041,-0.01587,0.04059,-0.08469,-0.04456,-0.04578,-0.05417,-0.01373,0.00153,-0.02106,-0.03891,-0.04929,0.08133,-0.03113,-0.00595,0.00916,-0.04333
4.0415,-0.01968,0.04074,-0.12558,0.03632,-0.04456,-0.0528,-0.01251,0.00076,-0.02304,-0.01068,-0.03967,0.06012,-0.03113,-0.0087,0.00824,-0.04166
4.042,-0.01648,0.02991,-0.20279,0.1033,-0.04257,-0.05127,-0.01175,0.00061,-0.02747,0.01099,-0.04517,0.0267,-0.03189,-0.00931,0.00717,-0.04059
4.0425,-0.01205,0.01343,-0.25452,0.08774,-0.04013,-0.04974,-0.0119,0.00107,-0.03448,0.02625,-0.06348,0.02686,-0.03113,-0.00961,0.00748,-0.04181
4.043,-0.0119,-0.00061,-0.24826,0.05722,-0.03738,-0.04929,-0.01068,0.00229,-0.04364,0.04669,-0.09583,0.04608,-0.03036,-0.00931,0.00809,-0.04227
4.0435,-0.01404,-0.00656,-0.2211,0.08453,-0.03494,-0.04837,-0.00931,0.00412,-0.05646,0.07172,-0.14252,0.05005,-0.03052,-0.01053,0.00854,-0.04074
4.044,-0.0119,-0.00305,-0.22308,0.12863,-0.03418,-0.04837,-0.00763,0.00412,-0.07156,0.08484,-0.19135,0.04807,-0.03143,-0.01343,0.00916,-0.03738
4.0445,-0.00305,0.00824,-0.26077,0.11169,-0.03265,-0.0499,-0.00931,0.00244,-0.08163,0.07416,-0.21484,0.08179,-0.03464,-0.01556,0.00809,-0.0351
4.045,0.00763,0.02335,-0.29388,0.04517,-0.03143,-0.05081,-0.01205,0.00076,-0.07996,0.05051,-0.18723,0.15991,-0.03738,-0.01709,0.00793,-0.03662
4.0455,0.01236,0.03693,-0.27832,-0.00076,-0.03189,-0.05112,-0.01236,-0.00092,-0.06851,0.03403,-0.11627,0.24094,-0.03845,-0.01724,0.00763,-0.03967
4.046,0.00977,0.04639,-0.22049,-0.00473,-0.03311,-0.0502,-0.01114,-0.00107,-0.05325,0.03372,-0.04532,0.25864,-0.03876,-0.01816,0.00824,-0.04135
4.0465,0.00565,0.04745,-0.16296,-0.00122,-0.03479,-0.05081,-0.01038,-0.00046,-0.04242,0.04089,-0.02258,0.18494,-0.03952,-0.01968,0.00809,-0.04013
4.047,0.00443,0.03937,-0.13977,-0.01785,-0.03311,-0.05157,-0.0119,-0.00015,-0.03571,0.04395,-0.04135,0.08255,-0.04089,-0.02167,0.00732,-0.04044
4.0475,0.00702,0.02213,-0.15976,-0.04898,-0.02914,-0.05142,-0.01373,-0.00107,-0.03418,0.02945,-0.06042,0.05798,-0.04105,-0.02411,0.00519,-0.04105
4.048,0.01099,-0.00092,-0.20523,-0.09201,-0.02686,-0.04898,-0.01465,-0.00244,-0.03372,-0.00931,-0.05707,0.11795,-0.03983,-0.02747,0.00351,-0.04395
4.0485,0.01587,-0.02411,-0.24368,-0.16922,-0.02579,-0.04578,-0.01434,-0.00351,-0.03326,-0.0618,-0.04654,0.13397,-0.03891,-0.02991,0.00336,-0.04547
4.049,0.02548,-0.04196,-0.26184,-0.28931,-0.02655,-0.04471,-0.01373,-0.00427,-0.02899,-0.10666,-0.04761,0.01266,-0.03845,-0.03021,0.00443,-0.04501
4.0495,0.03906,-0.05219,-0.2858,-0.40375,-0.0264,-0.04578,-0.0116,-0.00519,-0.01892,-0.12543,-0.04944,-0.16815,-0.0386,-0.02777,0.0061,-0.0415
4.05,0.04974,-0.05661,-0.33646,-0.45547,-0.02655,-0.04654,-0.01022,-0.00519,-0.00488,-0.11978,-0.03326,-0.27512,-0.03799,-0.02533,0.00854,-0.03754
4.0505,0.0502,-0.05722,-0.37415,-0.42755,-0.02853,-0.04791,-0.00977,-0.00366,0.00626,-0.10513,0.00015,-0.2774,-0.03677,-0.0235,0.01053,-0.03464
4.051,0.04333,-0.0531,-0.3302,-0.32074,-0.0296,-0.04715,-0.009,-0.00122,0.01083,-0.08896,0.0351,-0.23575,-0.0354,-0.02274,0.01175,-0.03494
4.0515,0.04059,-0.04684,-0.20081,-0.14984,-0.02853,-0.04547,-0.00717,0.00153,0.00748,-0.07187,0.05859,-0.1947,-0.0351,-0.02182,0.01083,-0.03601
4.052,0.04532,-0.04272,-0.05753,0.03281,-0.02701,-0.04395,-0.00702,0.00137,-0.00092,-0.05569,0.06516,-0.15671,-0.03555,-0.02121,0.01083,-0.03693
4.0525,0.04562,-0.04333,0.04288,0.15656,-0.02579,-0.0444,-0.01114,-0.00183,-0.00641,-0.04181,0.05493,-0.11612,-0.03616,-0.02289,0.00916,-0.03677
4.053,0.02762,-0.04562,0.09827,0.22324,-0.02701,-0.04578,-0.01556,-0.00504,-0.00732,-0.03098,0.02472,-0.06027,-0.03677,-0.02487,0.00809,-0.03738
4.0535,0.00015,-0.04715,0.13123,0.29861,-0.02808,-0.04715,-0.0177,-0.00671,-0.00259,-0.02213,-0.0206,0.0238,-0.03784,-0.02579,0.00763,-0.03952
4.054,-0.01785,-0.05142,0.15091,0.3833,-0.03006,-0.04684,-0.0174,-0.00656,0.00153,-0.0148,-0.0647,0.13046,-0.03891,-0.02701,0.00717,-0.04181
4.0545,-0.02121,-0.05981,0.15961,0.40131,-0.0296,-0.0444,-0.0145,-0.00519,0.0,-0.00992,-0.08606,0.21393,-0.03799,-0.02731,0.00732,-0.04211
4.055,-0.02289,-0.07568,0.16464,0.33981,-0.02686,-0.04242,-0.01221,-0.0029,-0.00534,-0.00854,-0.07782,0.23087,-0.03662,-0.02518,0.00717,-0.04242
4.0555,-0.03479,-0.09476,0.17822,0.29266,-0.02487,-0.04379,-0.01053,-0.00229,-0.00717,-0.00992,-0.05234,0.18585,-0.03632,-0.02319,0.00671,-0.04227
4.056,-0.05478,-0.11215,0.20157,0.30685,-0.02441,-0.04623,-0.01144,-0.00244,0.00061,-0.01053,-0.03128,0.12375,-0.03571,-0.02121,0.00641,-0.04257
4.0565,-0.07065,-0.12695,0.215,0.29877,-0.02563,-0.0473,-0.01053,-0.00336,0.01114,-0.00946,-0.02167,0.0705,-0.03357,-0.02106,0.00595,-0.04272
4.057,-0.07324,-0.13885,0.1947,0.18356,-0.02701,-0.04623,-0.01053,-0.00336,0.01511,-0.00946,-0.02441,0.01053,-0.03098,-0.02289,0.00732,-0.04227
4.0575,-0.06134,-0.14587,0.13275,-0.00092,-0.02686,-0.04486,-0.01083,-0.00488,0.00809,-0.01328,-0.0383,-0.06622,-0.03021,-0.02426,0.009,-0.04074
4.058,-0.0444,-0.14359,0.04425,-0.16052,-0.02686,-0.0441,-0.01099,-0.00549,-0.0029,-0.01877,-0.06714,-0.13123,-0.03113,-0.02533,0.0087,-0.03967
4.0585,-0.03036,-0.12848,-0.05096,-0.26474,-0.02808,-0.04333,-0.01144,-0.00427,-0.01144,-0.0209,-0.10544,-0.14603,-0.03189,-0.02594,0.00854,-0.04089
4.059,-0.02151,-0.103,-0.13809,-0.31219,-0.02914,-0.04105,-0.01083,-0.00244,-0.01526,-0.01953,-0.14008,-0.11734,-0.03159,-0.02594,0.00854,-0.04333
4.0595,-0.01389,-0.07217,-0.20401,-0.27496,-0.0293,-0.03845,-0.00916,-0.00015,-0.01648,-0.01892,-0.16113,-0.08438,-0.03021,-0.02548,0.009,-0.04532
4.06,-0.00778,-0.03937,-0.24231,-0.16647,-0.02869,-0.03342,-0.00824,0.00137,-0.01785,-0.02258,-0.16464,-0.06927,-0.02899,-0.02441,0.00931,-0.04547
4.0605,-0.00107,-0.00809,-0.25223,-0.09674,-0.02777,-0.02731,-0.00885,0.00107,-0.02258,-0.02869,-0.15289,-0.05615,-0.02853,-0.0235,0.00977,-0.04501
4.061,0.01358,0.01663,-0.23575,-0.13916,-0.02777,-0.02319,-0.01221,-0.00137,-0.02945,-0.03189,-0.13107,-0.02045,-0.02716,-0.02335,0.00977,-0.0444
4.0615,0.04364,0.03387,-0.19714,-0.18784,-0.02533,-0.02243,-0.01587,-0.00458,-0.0351,-0.02777,-0.10406,0.03006,-0.0264,-0.02136,0.00885,-0.04395
4.062,0.08133,0.04303,-0.1413,-0.09094,-0.02426,-0.02457,-0.01984,-0.00687,-0.0351,-0.01801,-0.07339,0.05707,-0.02655,-0.01862,0.009,-0.04349
4.0625,0.11322,0.04669,-0.07416,0.10635,-0.02426,-0.02853,-0.02136,-0.00656,-0.02945,-0.00916,-0.03983,0.04242,-0.02686,-0.01465,0.0087,-0.04288
4.063,0.13214,0.04791,-0.00687,0.23438,-0.02533,-0.03265,-0.0206,-0.00412,-0.02228,-0.0087,0.00015,0.00534,-0.02716,-0.01205,0.01022,-0.04105
4.0635,0.13916,0.04654,0.05371,0.24414,-0.0264,-0.03784,-0.01801,-0.00259,-0.0177,-0.01831,0.04395,-0.0264,-0.0267,-0.01251,0.01175,-0.04089
4.064,0.13092,0.03891,0.10452,0.2005,-0.0264,-0.04288,-0.01587,-0.00351,-0.01556,-0.02655,0.0679,-0.04364,-0.02655,-0.01373,0.01251,-0.04288
4.0645,0.10498,0.02029,0.13702,0.12939,-0.02731,-0.04883,-0.01633,-0.00549,-0.01434,-0.02487,0.04486,-0.05661,-0.02594,-0.0145,0.01129,-0.04517
4.065,0.06668,-0.01099,0.14023,0.04288,-0.03006,-0.05295,-0.01724,-0.00763,-0.01297,-0.01587,-0.02258,-0.08606,-0.02594,-0.01373,0.009,-0.04547
4.0655,0.02853,-0.04852,0.11475,0.00824,-0.03128,-0.05722,-0.01801,-0.00854,-0.01251,-0.00931,-0.103,-0.14328,-0.02518,-0.01236,0.00885,-0.04517
4.066,0.00046,-0.08286,0.07538,0.04379,-0.03143,-0.06104,-0.01724,-0.00809,-0.0119,-0.01297,-0.16846,-0.20416,-0.02396,-0.01221,0.00885,-0.04517
4.0665,-0.01892,-0.10956,0.04135,0.0499,-0.03113,-0.0618,-0.01724,-0.00671,-0.009,-0.02548,-0.20767,-0.23651,-0.02167,-0.01236,0.0087,-0.04684
4.067,-0.03357,-0.13,0.02899,-0.04608,-0.03174,-0.05951,-0.01923,-0.00549,-0.00336,-0.03555,-0.21805,-0.224,-0.0206,-0.01358,0.00626,-0.04898
4.0675,-0.04501,-0.14297,0.04562,-0.18082,-0.03113,-0.0563,-0.02014,-0.00671,0.00519,-0.03357,-0.2066,-0.14832,-0.01984,-0.01541,0.0029,-0.05051
4.068,-0.04852,-0.14542,0.07538,-0.24567,-0.0296,-0.05417,-0.01801,-0.00671,0.01144,-0.01663,-0.19165,0.00488,-0.01968,-0.01678,0.00275,-0.05142
4.0685,-0.04059,-0.13519,0.08652,-0.22125,-0.02747,-0.05295,-0.01419,-0.00534,0.01083,0.00229,-0.18997,0.1886,-0.01999,-0.02075,0.00366,-0.05081
4.069,-0.02747,-0.11246,0.06851,-0.15762,-0.02563,-0.05127,-0.01083,-0.00092,0.00366,0.01694,-0.20294,0.2887,-0.01968,-0.02411,0.00565,-0.04837
4.0695,-0.01846,-0.07843,0.02838,-0.11078,-0.02594,-0.04807,-0.01114,0.00092,-0.0061,0.01907,-0.21774,0.24612,-0.01968,-0.02548,0.00809,-0.04684
4.07,-0.01801,-0.03525,-0.02701,-0.10864,-0.0267,-0.04669,-0.01312,0.00076,-0.01343,0.00107,-0.2272,0.14145,-0.02167,-0.02502,0.00931,-0.047
4.0705,-0.02533,0.00473,-0.09262,-0.14008,-0.02747,-0.04761,-0.01663,-0.00244,-0.01831,-0.03357,-0.23651,0.09857,-0.02518,-0.0238,0.0087,-0.04837
4.071,-0.03906,0.0293,-0.1442,-0.15228,-0.02777,-0.0499,-0.01923,-0.00565,-0.02213,-0.06348,-0.25452,0.13138,-0.02792,-0.02274,0.00671,-0.04883
4.0715,-0.05463,0.03632,-0.1561,-0.08591,-0.02792,-0.05096,-0.01907,-0.00717,-0.02777,-0.07492,-0.27847,0.16281,-0.02777,-0.02075,0.00504,-0.0473
4.072,-0.05981,0.02777,-0.13,0.04807,-0.02808,-0.05066,-0.01862,-0.00641,-0.03769,-0.07874,-0.29205,0.14343,-0.02777,-0.01892,0.00473,-0.04562
4.0725,-0.04776,0.00549,-0.09079,0.1535,-0.03067,-0.05188,-0.01892,-0.00488,-0.047,-0.09018,-0.29129,0.09491,-0.02975,-0.01846,0.0058,-0.0441
4.073,-0.02548,-0.03098,-0.06042,0.14191,-0.03372,-0.05402,-0.02014,-0.00397,-0.04944,-0.10147,-0.28015,0.05173,-0.0322,-0.01877,0.00839,-0.04135
4.0735,-0.00717,-0.07019,-0.02869,0.0235,-0.03555,-0.05585,-0.02014,-0.00443,-0.04547,-0.0946,-0.26276,0.0119,-0.03265,-0.01678,0.0116,-0.03769
4.074,0.00137,-0.09552,0.02472,-0.09338,-0.03571,-0.05539,-0.0174,-0.00519,-0.03967,-0.06607,-0.23758,-0.04929,-0.03159,-0.01389,0.01404,-0.03464
4.0745,0.00626,-0.10132,0.10132,-0.09872,-0.0354,-0.05234,-0.01572,-0.00397,-0.03555,-0.0293,-0.20111,-0.13763,-0.03113,-0.01129,0.01526,-0.03464
4.075,0.01312,-0.10025,0.17548,0.02289,-0.03311,-0.04883,-0.01312,-0.00214,-0.03342,0.00427,-0.14999,-0.23178,-0.03143,-0.01038,0.01389,-0.03647
4.0755,0.02182,-0.09796,0.20721,0.15717,-0.03235,-0.04807,-0.00992,-0.00061,-0.03174,0.03235,-0.08896,-0.29984,-0.03235,-0.01022,0.01205,-0.03891
4.076,0.03036,-0.09445,0.17456,0.16998,-0.03143,-0.04852,-0.00778,-0.00046,-0.02823,0.04959,-0.02853,-0.3125,-0.03311,-0.00992,0.01175,-0.04166
4.0765,0.03555,-0.08301,0.0798,0.06027,-0.03006,-0.04913,-0.00824,-0.00198,-0.02243,0.04257,0.02106,-0.24429,-0.03281,-0.00916,0.00839,-0.04547
4.077,0.03265,-0.06561,-0.03098,-0.04913,-0.03082,-0.04929,-0.01205,-0.00336,-0.01663,0.00854,0.05249,-0.10529,-0.03235,-0.00824,0.00702,-0.04745
4.0775,0.01862,-0.04166,-0.08591,-0.06332,-0.03021,-0.04807,-0.01511,-0.00443,-0.01404,-0.03311,0.05997,0.03555,-0.03265,-0.00824,0.00458,-0.0473
4.078,-0.00061,-0.01205,-0.04379,0.00107,-0.0296,-0.04684,-0.01663,-0.00595,-0.01389,-0.05051,0.03662,0.10376,-0.0354,-0.00961,0.00397,-0.04669
4.0785,-0.01541,0.01984,0.06012,0.06882,-0.03113,-0.04486,-0.01663,-0.00702,-0.01389,-0.03372,-0.01526,0.10254,-0.03754,-0.01205,0.00336,-0.04745
4.079,-0.0206,0.04517,0.14023,0.0853,-0.03265,-0.04242,-0.01678,-0.00549,-0.01328,-0.00107,-0.08423,0.09811,-0.03799,-0.01328,0.00458,-0.04822
4.0795,-0.01999,0.05066,0.13657,0.05386,-0.03235,-0.04303,-0.01602,-0.00305,-0.01434,0.01923,-0.16052,0.11719,-0.03723,-0.0145,0.00534,-0.04776
4.08,-0.02335,0.02625,0.04578,0.01175,-0.0325,-0.04517,-0.01434,-0.00198,-0.02045,0.01678,-0.23392,0.13153,-0.03693,-0.01663,0.00687,-0.04593
4.0805,-0.02899,-0.02594,-0.08789,-0.02182,-0.03342,-0.04745,-0.01251,-0.00183,-0.02975,-0.00259,-0.27237,0.11398,-0.03815,-0.02014,0.00748,-0.04395
4.081,-0.03143,-0.08362,-0.21927,-0.05981,-0.03784,-0.04822,-0.01083,-0.00214,-0.03738,-0.02792,-0.22797,0.07111,-0.04013,-0.02319,0.00778,-0.04303
4.0815,-0.02853,-0.12131,-0.30579,-0.10452,-0.04028,-0.04715,-0.01083,-0.00061,-0.04333,-0.04807,-0.09552,0.01572,-0.04089,-0.02319,0.00809,-0.04501
4.082,-0.02823,-0.13367,-0.3215,-0.13321,-0.04105,-0.04639,-0.01236,0.00153,-0.05005,-0.05737,0.06958,-0.04852,-0.04044,-0.02014,0.00839,-0.047
4.0825,-0.03448,-0.13168,-0.25558,-0.14328,-0.04028,-0.04761,-0.01328,0.00244,-0.05524,-0.06195,0.19928,-0.09735,-0.03998,-0.01709,0.00931,-0.04822
4.083,-0.04227,-0.12222,-0.11688,-0.16632,-0.04089,-0.04776,-0.01358,0.00259,-0.05371,-0.06165,0.26688,-0.08972,-0.04028,-0.01709,0.00977,-0.04639
4.0835,-0.05005,-0.10208,0.0528,-0.21606,-0.04227,-0.04898,-0.01373,0.00015,-0.04379,-0.056,0.27649,-0.03479,-0.04135,-0.0206,0.00992,-0.04425
4.084,-0.06027,-0.06683,0.1825,-0.24582,-0.04288,-0.05051,-0.01495,-0.00336,-0.03098,-0.04349,0.23911,-0.0145,-0.0415,-0.02289,0.01053,-0.04349
4.0845,-0.07385,-0.02228,0.21057,-0.21255,-0.04242,-0.05249,-0.01587,-0.00549,-0.02228,-0.02487,0.17151,-0.06744,-0.04028,-0.02289,0.01144,-0.04318
4.085,-0.08316,0.02792,0.13504,-0.13824,-0.04028,-0.0531,-0.0174,-0.00626,-0.01923,-0.0032,0.11353,-0.10895,-0.03708,-0.0209,0.0116,-0.04425
4.0855,-0.07889,0.08392,0.0,-0.06653,-0.04074,-0.05157,-0.01923,-0.00534,-0.02151,0.01602,0.09613,-0.03723,-0.03357,-0.01968,0.01099,-0.04364
4.086,-0.0621,0.13992,-0.13733,0.0,-0.04135,-0.05081,-0.01968,-0.00412,-0.02121,0.02686,0.11292,0.112,-0.03204,-0.01968,0.01068,-0.04333
4.0865,-0.04501,0.18021,-0.23773,0.07324,-0.04028,-0.05112,-0.01892,-0.0029,-0.01175,0.02548,0.12741,0.19958,-0.03281,-0.01938,0.01007,-0.04349
4.087,-0.03967,0.18906,-0.28152,0.10773,-0.03784,-0.05142,-0.01709,-0.00275,0.00549,0.01862,0.11932,0.15457,-0.03372,-0.01877,0.01129,-0.04318
4.0875,-0.04227,0.16983,-0.27161,0.05219,-0.03586,-0.05035,-0.01541,-0.00412,0.01984,0.01358,0.09598,0.04898,-0.03403,-0.01801,0.01144,-0.04242
4.088,-0.04517,0.13428,-0.22049,-0.04059,-0.0351,-0.04822,-0.01434,-0.00687,0.02533,0.0145,0.06989,0.00153,-0.03372,-0.01816,0.01236,-0.04013
4.0885,-0.04196,0.09644,-0.15366,-0.05142,-0.03448,-0.04517,-0.01312,-0.00671,0.02487,0.01694,0.04349,0.04562,-0.03372,-0.01907,0.01221,-0.03876
4.089,-0.03235,0.06378,-0.09918,0.0473,-0.03235,-0.0415,-0.01068,-0.00549,0.02609,0.01694,0.01846,0.11963,-0.03464,-0.0206,0.01083,-0.03754
4.0895,-0.02274,0.03922,-0.07813,0.16708,-0.02808,-0.0386,-0.00763,-0.0029,0.02777,0.01602,-0.00534,0.15305,-0.03433,-0.02197,0.01083,-0.0386
4.09,-0.01831,0.02289,-0.09125,0.20767,-0.02304,-0.03754,-0.00671,-0.00107,0.02899,0.01099,-0.03235,0.13458,-0.03342,-0.02151,0.01099,-0.03922
4.0905,-0.01801,0.01114,-0.12848,0.13458,-0.01953,-0.03815,-0.00946,-0.00214,0.02884,0.00092,-0.06012,0.09842,-0.03235,-0.02045,0.01144,-0.04013
4.091,-0.01495,-0.00137,-0.17288,-0.01022,-0.01923,-0.0386,-0.01389,-0.00259,0.0296,-0.01175,-0.08621,0.07675,-0.03189,-0.01953,0.00946,-0.04074
4.0915,-0.00549,-0.01495,-0.21927,-0.12283,-0.01846,-0.0386,-0.01526,-0.0032,0.02869,-0.02197,-0.10117,0.07034,-0.03143,-0.01999,0.00778,-0.04333
4.092,0.00824,-0.02899,-0.27115,-0.11337,-0.01892,-0.03876,-0.01495,-0.00214,0.02167,-0.02686,-0.09338,0.04929,-0.03143,-0.02151,0.00748,-0.04608
4.0925,0.02548,-0.04135,-0.30502,-0.01724,-0.01938,-0.04074,-0.01373,-0.00092,0.00885,-0.02487,-0.05981,-0.01328,-0.03189,-0.02289,0.00763,-0.04547
4.093,0.04578,-0.05539,-0.26443,0.04578,-0.01907,-0.04288,-0.01358,-0.00046,-0.00458,-0.01953,-0.01266,-0.11276,-0.03174,-0.02441,0.00702,-0.04333
4.0935,0.06424,-0.07339,-0.11765,0.0354,-0.01968,-0.0441,-0.01266,-0.00137,-0.01465,-0.01511,0.02945,-0.21729,-0.03098,-0.02533,0.00717,-0.04333
4.094,0.07065,-0.09552,0.07904,0.01755,-0.02121,-0.04272,-0.01205,-0.00229,-0.02136,-0.01678,0.0531,-0.30518,-0.03143,-0.02625,0.00824,-0.04303
4.0945,0.06287,-0.11322,0.23209,0.04486,-0.02274,-0.04196,-0.01221,-0.00153,-0.02548,-0.02762,0.05707,-0.37125,-0.03281,-0.02457,0.00885,-0.0412
4.095,0.0473,-0.11948,0.29266,0.08331,-0.02411,-0.04166,-0.01526,-0.00092,-0.02686,-0.03906,0.0499,-0.39352,-0.03311,-0.02304,0.01114,-0.03754
4.0955,0.02975,-0.12009,0.27771,0.08194,-0.02533,-0.04196,-0.01892,-0.00198,-0.02594,-0.03937,0.03525,-0.32944,-0.0322,-0.02289,0.01328,-0.03555
4.096,0.01328,-0.12573,0.21667,0.05219,-0.02655,-0.04318,-0.02045,-0.00458,-0.0238,-0.02792,0.01205,-0.1857,-0.03113,-0.02396,0.01434,-0.03448
4.0965,-0.00305,-0.1358,0.12863,0.03632,-0.02899,-0.04501,-0.01755,-0.00549,-0.02258,-0.01831,-0.01572,-0.03769,-0.03128,-0.02426,0.01419,-0.03448
4.097,-0.0174,-0.1416,0.03784,0.03571,-0.03235,-0.04684,-0.01511,-0.00427,-0.02411,-0.02747,-0.03708,0.03799,-0.0325,-0.02472,0.01221,-0.03464
4.0975,-0.02792,-0.14023,-0.02533,0.02975,-0.03326,-0.05051,-0.01297,-0.00244,-0.02625,-0.05493,-0.04257,0.03784,-0.03372,-0.02747,0.00916,-0.0386
4.098,-0.03311,-0.1384,-0.04028,0.02502,-0.03281,-0.05219,-0.01221,0.00015,-0.0238,-0.0824,-0.03586,0.02609,-0.03357,-0.03235,0.00595,-0.0441
4.0985,-0.0351,-0.14053,-0.00366,0.0354,-0.03052,-0.05264,-0.01266,0.00229,-0.0148,-0.08713,-0.02289,0.07996,-0.03372,-0.03448,0.00366,-0.04654
4.099,-0.03143,-0.14313,0.07904,0.02472,-0.03113,-0.0528,-0.01266,0.00244,-0.00427,-0.0676,-0.01495,0.22491,-0.03357,-0.03387,0.00259,-0.04547
4.0995,-0.02258,-0.13763,0.17883,-0.03662,-0.03235,-0.05173,-0.01129,0.00076,0.00183,-0.03845,-0.0087,0.40161,-0.03311,-0.03204,0.00366,-0.04486
4.1,-0.00793,-0.12131,0.24963,-0.10178,-0.03204,-0.0502,-0.01053,-0.00061,0.0032,-0.01511,0.01343,0.50659,-0.03357,-0.03052,0.00488,-0.04593
4.1005,0.00641,-0.0975,0.25589,-0.0972,-0.0322,-0.05142,-0.01114,-0.00153,0.00748,-0.00534,0.06607,0.47028,-0.03372,-0.03006,0.00427,-0.047
4.101,0.01846,-0.07248,0.2066,-0.02487,-0.03448,-0.05264,-0.0116,-0.00183,0.01694,-0.01358,0.13763,0.32578,-0.03281,-0.02975,0.00473,-0.04562
4.1015,0.0296,-0.05493,0.14496,0.03387,-0.03708,-0.05463,-0.01175,-0.00259,0.03021,-0.03342,0.19333,0.17242,-0.03128,-0.02777,0.00595,-0.04303
4.102,0.03799,-0.05157,0.10559,0.02457,-0.03754,-0.05646,-0.01175,-0.0029,0.03967,-0.04623,0.21103,0.07797,-0.03067,-0.02594,0.00656,-0.04196
4.1025,0.03662,-0.05783,0.09399,-0.02151,-0.03662,-0.05753,-0.01373,-0.00397,0.04425,-0.0383,0.19043,0.02686,-0.03113,-0.02502,0.00732,-0.04196
4.103,0.02518,-0.06226,0.09354,-0.04608,-0.03647,-0.05615,-0.01633,-0.00488,0.04303,-0.02167,0.1503,-0.01862,-0.03128,-0.02426,0.00809,-0.04074
4.1035,0.01328,-0.0592,0.09186,-0.03937,-0.03677,-0.05554,-0.01892,-0.00473,0.03525,-0.01404,0.09933,-0.05905,-0.02991,-0.02289,0.00931,-0.04013
4.104,0.01114,-0.05432,0.08041,-0.02747,-0.03616,-0.05432,-0.01923,-0.00259,0.0238,-0.02151,0.0386,-0.07477,-0.02975,-0.0209,0.00839,-0.0415
4.1045,0.02045,-0.0563,0.04959,-0.02548,-0.0351,-0.05295,-0.01755,-0.00092,0.01282,-0.03265,-0.01953,-0.0824,-0.02991,-0.01877,0.00809,-0.04318
4.105,0.03067,-0.06531,-0.00519,-0.02701,-0.03448,-0.05264,-0.01617,-0.00031,0.00427,-0.0322,-0.04471,-0.11765,-0.03036,-0.01526,0.00778,-0.0441
4.1055,0.03265,-0.07629,-0.07889,-0.02609,-0.0354,-0.05356,-0.01678,-0.00198,-0.00412,-0.01434,-0.02121,-0.18036,-0.03021,-0.00992,0.00793,-0.04364
4.106,0.02625,-0.07797,-0.15594,-0.02274,-0.03738,-0.05295,-0.01801,-0.00397,-0.01389,0.0116,0.02701,-0.23376,-0.03052,-0.0029,0.00687,-0.04272
4.1065,0.01617,-0.06531,-0.22217,-0.01831,-0.03784,-0.05066,-0.01846,-0.00549,-0.02289,0.03067,0.06851,-0.2507,-0.03128,0.00198,0.00641,-0.04272
4.107,0.00748,-0.04303,-0.26672,-0.01694,-0.03754,-0.04715,-0.01709,-0.00565,-0.02975,0.03418,0.09521,-0.22141,-0.03235,0.00366,0.00519,-0.04242
4.1075,-0.00168,-0.0238,-0.28915,-0.02762,-0.03479,-0.04654,-0.01587,-0.00443,-0.03448,0.02716,0.10666,-0.12253,-0.0322,-0.00046,0.00565,-0.04303
4.108,-0.01083,-0.01495,-0.29297,-0.05692,-0.03235,-0.04654,-0.01694,-0.00336,-0.0354,0.01266,0.09689,0.05554,-0.03204,-0.00595,0.00458,-0.04105
4.1085,-0.01846,-0.01709,-0.29968,-0.09247,-0.03296,-0.04623,-0.01755,-0.00351,-0.03586,-0.00854,0.06302,0.24384,-0.03342,-0.0116,0.0058,-0.03723
4.109,-0.02151,-0.02426,-0.34378,-0.11032,-0.03479,-0.04532,-0.01755,-0.00458,-0.03906,-0.03448,0.01511,0.31677,-0.0351,-0.01572,0.00854,-0.03403
4.1095,-0.01541,-0.03036,-0.42389,-0.09644,-0.03448,-0.04501,-0.01678,-0.00519,-0.04959,-0.04929,-0.03464,0.23239,-0.03494,-0.01877,0.01129,-0.0322
4.11,-0.00412,-0.03418,-0.4631,-0.05325,-0.03189,-0.0444,-0.01495,-0.00656,-0.06302,-0.04288,-0.08331,0.08606,-0.03448,-0.0209,0.01297,-0.02975
4.1105,0.0029,-0.0415,-0.37216,0.00977,-0.0296,-0.04578,-0.01541,-0.00778,-0.07385,-0.01938,-0.1297,-0.00702,-0.03357,-0.02182,0.01328,-0.02853
4.111,-0.00015,-0.05585,-0.14755,0.07858,-0.03021,-0.04669,-0.01495,-0.00778,-0.07751,0.00122,-0.15991,-0.02579,-0.03326,-0.02014,0.01282,-0.02869
4.1115,-0.01419,-0.07523,0.10513,0.12131,-0.03189,-0.04837,-0.01343,-0.00534,-0.07675,0.00214,-0.1622,-0.02136,-0.03296,-0.01846,0.0119,-0.03113
4.112,-0.03204,-0.09445,0.28091,0.10864,-0.03204,-0.0499,-0.01221,-0.0029,-0.07431,-0.01236,-0.14557,-0.02762,-0.03204,-0.01968,0.01099,-0.03494
4.1125,-0.04715,-0.11032,0.33646,0.05753,-0.03235,-0.04974,-0.01175,-0.00183,-0.06897,-0.02533,-0.13107,-0.04059,-0.03296,-0.02289,0.00916,-0.0383
4.113,-0.05661,-0.12512,0.29434,0.0174,-0.03296,-0.04807,-0.01236,-0.00168,-0.05615,-0.0264,-0.12756,-0.04623,-0.03357,-0.02563,0.00931,-0.04318
4.1135,-0.06134,-0.13397,0.19592,0.00595,-0.03265,-0.04593,-0.0119,-0.00061,-0.03586,-0.02136,-0.11963,-0.04074,-0.03448,-0.02609,0.00809,-0.04654
4.114,-0.06424,-0.13351,0.0827,-0.01205,-0.0322,-0.04532,-0.01114,0.00046,-0.01266,-0.01694,-0.08545,-0.03601,-0.03418,-0.02411,0.00763,-0.04822
4.1145,-0.06516,-0.12115,-0.00351,-0.04837,-0.03128,-0.04532,-0.01038,0.00015,0.00488,-0.01099,-0.0235,-0.05844,-0.03403,-0.02121,0.00671,-0.04776
4.115,-0.0621,-0.09933,-0.01785,-0.04181,-0.03113,-0.04608,-0.01175,-0.00183,0.01373,-0.00305,0.04868,-0.12482,-0.03433,-0.01877,0.0058,-0.04547
4.1155,-0.05341,-0.07599,0.04623,0.03235,-0.03265,-0.04745,-0.01282,-0.00473,0.01526,0.00458,0.10834,-0.20416,-0.03479,-0.01801,0.00656,-0.04501
4.116,-0.03769,-0.05783,0.14023,0.07019,-0.03281,-0.04715,-0.01434,-0.00549,0.01541,0.01022,0.1416,-0.22675,-0.03387,-0.01724,0.00732,-0.04547
4.1165,-0.01785,-0.04562,0.19547,-0.00992,-0.03067,-0.04608,-0.01617,-0.00565,0.01663,0.0148,0.14786,-0.17578,-0.03281,-0.01724,0.00671,-0.04608
4.117,0.00015,-0.03616,0.1796,-0.09003,-0.02747,-0.04456,-0.0177,-0.00595,0.01877,0.01862,0.13657,-0.12726,-0.03174,-0.01831,0.00641,-0.04425
4.1175,0.01465,-0.03174,0.10895,-0.0264,-0.02533,-0.04211,-0.01648,-0.0058,0.01648,0.02167,0.13229,-0.1445,-0.03189,-0.02045,0.00671,-0.04303
4.118,0.02655,-0.03525,0.01526,0.10208,-0.02533,-0.04044,-0.01556,-0.00549,0.00931,0.02441,0.15472,-0.18112,-0.03067,-0.02274,0.00778,-0.04211
4.1185,0.03418,-0.04242,-0.08072,0.1059,-0.02579,-0.03937,-0.01617,-0.00641,0.00031,0.02472,0.18753,-0.14557,-0.02838,-0.02258,0.00778,-0.04135
4.119,0.03494,-0.04181,-0.15991,-0.01831,-0.02594,-0.03845,-0.01877,-0.00854,-0.00458,0.02045,0.17395,-0.02563,-0.0264,-0.02274,0.00687,-0.0412
4.1195,0.0325,-0.02762,-0.19836,-0.10773,-0.02518,-0.03769,-0.02045,-0.00946,-0.00381,0.01007,0.08652,0.09949,-0.02579,-0.02167,0.00793,-0.04105
4.12,0.03616,-0.00198,-0.18829,-0.08957,-0.02274,-0.0383,-0.01877,-0.00732,0.00092,-0.00656,-0.03418,0.15823,-0.02609,-0.02136,0.01144,-0.04013
4.1205,0.0473,0.03098,-0.14191,-0.04105,-0.02182,-0.04074,-0.01541,-0.00305,0.00565,-0.02762,-0.12207,0.14755,-0.02472,-0.02167,0.01297,-0.03815
4.121,0.05692,0.06744,-0.0798,-0.03616,-0.02411,-0.04425,-0.01282,-0.00168,0.01038,-0.04807,-0.14862,0.1088,-0.02502,-0.02213,0.01099,-0.03693
4.1215,0.05692,0.09796,-0.02029,-0.05341,-0.02686,-0.04715,-0.01373,-0.00336,0.01099,-0.05707,-0.1297,0.07614,-0.02548,-0.02151,0.00778,-0.03922
4.122,0.05219,0.11108,0.01526,-0.05188,-0.0296,-0.04807,-0.01617,-0.00595,0.00641,-0.05112,-0.0885,0.05188,-0.02701,-0.02136,0.00519,-0.04181
4.1225,0.04883,0.10513,0.01328,-0.03586,-0.03098,-0.04944,-0.01678,-0.00748,-0.00015,-0.03998,-0.03784,0.0264,-0.02609,-0.02228,0.00397,-0.04456
4.123,0.04715,0.08881,-0.02686,-0.0264,-0.03204,-0.04944,-0.01587,-0.0061,-0.00595,-0.03555,0.01404,0.00809,-0.02472,-0.02258,0.00275,-0.04578
4.1235,0.04135,0.07111,-0.09384,-0.02121,-0.03311,-0.05188,-0.0148,-0.0029,-0.01175,-0.03815,0.05722,0.00336,-0.02441,-0.02319,0.00397,-0.04562
4.124,0.03265,0.05203,-0.16998,-0.00992,-0.0325,-0.05432,-0.01572,0.0,-0.01831,-0.03922,0.08255,0.00946,-0.02563,-0.02396,0.00626,-0.04578
4.1245,0.02289,0.02945,-0.242,0.00214,-0.03189,-0.05524,-0.01526,0.0,-0.02579,-0.03815,0.08713,0.01999,-0.02808,-0.02426,0.00824,-0.047
4.125,0.01495,0.00534,-0.30136,0.00763,-0.03265,-0.05554,-0.01419,-0.00031,-0.03082,-0.04196,0.07263,0.02274,-0.03113,-0.02304,0.0087,-0.0473
4.1255,0.00717,-0.01389,-0.34134,0.00427,-0.03357,-0.05478,-0.0116,-0.00107,-0.03448,-0.056,0.04684,-0.00824,-0.03342,-0.02029,0.00916,-0.04562
4.126,0.00168,-0.02563,-0.36285,-0.00092,-0.03296,-0.05417,-0.00961,0.00061,-0.03876,-0.07233,0.0209,-0.09018,-0.03342,-0.01968,0.01022,-0.04044
4.1265,0.00076,-0.02853,-0.36392,-0.0058,-0.03067,-0.05295,-0.00793,0.00504,-0.04379,-0.07904,0.00397,-0.19684,-0.03296,-0.02121,0.01144,-0.03769
4.127,0.00412,-0.02548,-0.34317,-0.01221,-0.02792,-0.05035,-0.00732,0.00717,-0.04852,-0.07492,-0.01053,-0.28122,-0.03204,-0.02365,0.0116,-0.03723
4.1275,0.00595,-0.01831,-0.30685,-0.01709,-0.02625,-0.04593,-0.00763,0.00641,-0.05463,-0.06348,-0.0322,-0.31418,-0.03113,-0.02563,0.01175,-0.03784
4.128,0.0061,-0.00961,-0.26978,-0.01785,-0.02563,-0.04288,-0.01083,0.00198,-0.06317,-0.04822,-0.04776,-0.28061,-0.02899,-0.02716,0.01251,-0.03891
4.1285,0.00595,0.0,-0.24002,-0.0148,-0.02563,-0.04028,-0.01282,-0.00397,-0.06882,-0.03021,-0.02716,-0.15961,-0.0267,-0.02823,0.01404,-0.03845
4.129,0.0061,0.01053,-0.21317,-0.0116,-0.02594,-0.04044,-0.01343,-0.00916,-0.06516,-0.01572,0.03647,0.03311,-0.02411,-0.02823,0.01404,-0.03967
4.1295,0.00473,0.02167,-0.18539,-0.00992,-0.02701,-0.0415,-0.01221,-0.0119,-0.05142,-0.00916,0.10544,0.2298,-0.02228,-0.0267,0.01144,-0.04135
4.13,0.00305,0.02808,-0.1622,-0.00946,-0.02853,-0.04379,-0.01297,-0.00916,-0.03494,-0.00504,0.13397,0.37064,-0.02045,-0.02426,0.00793,-0.04135
4.1305,0.00214,0.02701,-0.13763,-0.01175,-0.0296,-0.04608,-0.01587,-0.00473,-0.0238,0.00259,0.11871,0.44952,-0.01953,-0.02228,0.00626,-0.04227
4.131,0.00244,0.01999,-0.10056,-0.01404,-0.02792,-0.04608,-0.01801,-0.00183,-0.01892,0.01465,0.08942,0.45792,-0.02045,-0.02136,0.00427,-0.04562
4.1315,0.00259,0.00977,-0.04562,-0.01312,-0.02716,-0.04517,-0.01801,-0.00275,-0.01755,0.02518,0.06653,0.36774,-0.02365,-0.02167,0.00275,-0.04898
4.132,0.0032,0.00122,0.02029,-0.00992,-0.02762,-0.0441,-0.01617,-0.00534,-0.01709,0.03021,0.05157,0.21042,-0.02609,-0.02151,0.00137,-0.05035
4.1325,0.00565,-0.00732,0.09506,-0.00595,-0.02792,-0.04333,-0.01541,-0.00702,-0.01892,0.02823,0.03998,0.0856,-0.0264,-0.02121,0.00122,-0.04959
4.133,0.00961,-0.01999,0.19775,-0.00061,-0.02884,-0.04532,-0.01572,-0.00519,-0.02289,0.02594,0.03143,0.04898,-0.0264,-0.01984,0.00305,-0.04791
4.1335,0.01083,-0.03799,0.34042,0.00534,-0.03036,-0.04745,-0.01617,-0.00198,-0.02548,0.02762,0.01785,0.0592,-0.0267,-0.01602,0.00488,-0.04639
4.134,0.00473,-0.05692,0.50217,0.01083,-0.03189,-0.04822,-0.01541,0.00137,-0.0267,0.03372,-0.00381,0.05981,-0.02625,-0.0058,0.00534,-0.0444
4.1345,-0.00336,-0.07278,0.62378,0.01297,-0.0325,-0.04807,-0.01465,0.00153,-0.02792,0.0351,-0.02792,0.04318,-0.02686,0.01007,0.00504,-0.0444
4.135,-0.00961,-0.08286,0.63538,0.01312,-0.0325,-0.04639,-0.01404,0.00076,-0.03204,0.02777,-0.05173,0.02426,-0.02853,0.02304,0.00565,-0.0444
4.1355,-0.01282,-0.09155,0.50079,0.01297,-0.03479,-0.04578,-0.01221,0.00092,-0.03464,0.0061,-0.08041,0.00137,-0.03128,0.0235,0.00656,-0.04395
4.136,-0.01801,-0.10605,0.24323,0.01221,-0.03906,-0.0473,-0.00992,-0.00031,-0.03067,-0.01541,-0.10925,-0.0296,-0.03204,0.01038,0.00717,-0.04196
4.1365,-0.02533,-0.12405,-0.05829,0.00793,-0.04333,-0.05081,-0.009,-0.00214,-0.01923,-0.02594,-0.11246,-0.05661,-0.03235,-0.00534,0.00854,-0.04013
4.137,-0.03525,-0.13824,-0.31082,-0.0032,-0.04578,-0.05432,-0.01053,-0.00412,-0.00458,-0.0267,-0.08118,-0.06271,-0.03372,-0.01205,0.01053,-0.03983
4.1375,-0.0444,-0.14603,-0.45303,-0.02396,-0.04562,-0.05798,-0.0116,-0.00443,0.00702,-0.02792,-0.03708,-0.04227,-0.0351,-0.00595,0.01144,-0.0412
4.138,-0.05142,-0.14984,-0.47653,-0.04898,-0.04532,-0.05951,-0.0116,-0.00427,0.01358,-0.03281,-0.01541,-0.00656,-0.03632,0.00397,0.01053,-0.04181
4.1385,-0.05692,-0.14893,-0.41412,-0.06897,-0.04654,-0.05905,-0.01282,-0.00732,0.01511,-0.03342,-0.02319,0.01343,-0.03769,0.00687,0.00839,-0.04196
4.139,-0.06393,-0.13763,-0.31067,-0.07523,-0.04883,-0.05936,-0.0148,-0.01114,0.01587,-0.02457,-0.03616,-0.00778,-0.03922,-0.00198,0.00824,-0.04044
4.1395,-0.07248,-0.11169,-0.20721,-0.06638,-0.05051,-0.06027,-0.01633,-0.01236,0.0148,-0.01343,-0.02335,-0.04974,-0.03967,-0.01495,0.01068,-0.03967
4.14,-0.07858,-0.07477,-0.12985,-0.04517,-0.05081,-0.0618,-0.01602,-0.01038,0.00931,-0.00946,0.00977,-0.06256,-0.04105,-0.02243,0.01282,-0.03967
4.1405,-0.07446,-0.03754,-0.08347,-0.0174,-0.05005,-0.06287,-0.01434,-0.00778,0.00214,-0.01602,0.03632,-0.03586,-0.04242,-0.02441,0.01068,-0.04211
4.141,-0.05768,-0.01556,-0.06073,0.01266,-0.04959,-0.06271,-0.01221,-0.00626,-0.00488,-0.02808,0.04745,-0.00656,-0.04379,-0.02533,0.009,-0.04471
4.1415,-0.03433,-0.01755,-0.05219,0.03708,-0.04868,-0.06119,-0.01068,-0.00519,-0.00946,-0.04059,0.06989,-0.00076,-0.0444,-0.02457,0.00839,-0.04486
4.142,-0.01083,-0.03784,-0.05814,0.05066,-0.04395,-0.05829,-0.01129,-0.00427,-0.01434,-0.04868,0.11246,-0.00839,-0.04532,-0.0206,0.00946,-0.04272
4.1425,0.00656,-0.06165,-0.07385,0.03677,-0.04013,-0.05615,-0.01358,-0.00275,-0.01938,-0.056,0.14435,-0.0148,-0.04547,-0.01709,0.01038,-0.04074
4.143,0.01175,-0.08347,-0.08759,-0.01007,-0.03784,-0.05432,-0.01373,-0.00198,-0.02289,-0.06378,0.12817,-0.01923,-0.04532,-0.01709,0.01022,-0.03922
4.1435,0.00168,-0.1059,-0.08835,-0.06454,-0.03616,-0.05173,-0.01221,-0.00244,-0.02151,-0.06744,0.05936,-0.02747,-0.0444,-0.02151,0.009,-0.04074
4.144,-0.01343,-0.12573,-0.07736,-0.09064,-0.03387,-0.05005,-0.01068,-0.00305,-0.01953,-0.06378,-0.03555,-0.03662,-0.04272,-0.02579,0.00839,-0.0415
4.1445,-0.0177,-0.13489,-0.05966,-0.08453,-0.03082,-0.04944,-0.01099,-0.00381,-0.0209,-0.05569,-0.13519,-0.04913,-0.04135,-0.02777,0.00778,-0.04135
4.145,-0.00641,-0.12665,-0.04166,-0.06805,-0.02808,-0.04822,-0.01251,-0.00366,-0.02518,-0.0528,-0.22079,-0.07034,-0.04044,-0.02838,0.00824,-0.03891
4.1455,0.01053,-0.10071,-0.02579,-0.03922,-0.02563,-0.04623,-0.01343,-0.00275,-0.02472,-0.06271,-0.27176,-0.09689,-0.03998,-0.02701,0.00671,-0.03769
4.146,0.02136,-0.06409,-0.01694,0.02533,-0.02335,-0.04288,-0.01343,-0.00092,-0.01724,-0.0795,-0.26596,-0.11292,-0.03922,-0.02167,0.00534,-0.03677
4.1465,0.02563,-0.03159,-0.01511,0.12283,-0.02121,-0.04044,-0.01251,0.00015,-0.009,-0.09094,-0.21072,-0.11093,-0.0383,-0.01328,0.00488,-0.03708
4.147,0.02655,-0.02182,-0.01144,0.18692,-0.01892,-0.03937,-0.01266,0.00061,-0.00961,-0.08301,-0.13672,-0.09903,-0.03784,-0.00671,0.0058,-0.03632
4.1475,0.02777,-0.03433,0.00641,0.13306,-0.01785,-0.0383,-0.01358,-0.00153,-0.02045,-0.05692,-0.07294,-0.08194,-0.03876,-0.00519,0.00687,-0.03677
4.148,0.02991,-0.05005,0.0444,-0.03082,-0.01602,-0.0354,-0.01678,-0.00366,-0.03525,-0.02655,-0.03571,-0.05615,-0.03906,-0.00778,0.00717,-0.0386
4.1485,0.0322,-0.05569,0.07401,-0.16174,-0.01541,-0.03326,-0.01709,-0.00427,-0.04486,-0.00671,-0.02899,-0.01968,-0.03754,-0.01144,0.00595,-0.04105
4.149,0.03555,-0.05356,0.05417,-0.1326,-0.01556,-0.03326,-0.01526,-0.00412,-0.04211,-0.00031,-0.03998,0.0148,-0.0354,-0.01465,0.00565,-0.04196
4.1495,0.0386,-0.056,-0.01541,0.0061,-0.01587,-0.03479,-0.01358,-0.0032,-0.02609,0.00092,-0.04868,0.03265,-0.03448,-0.01633,0.00702,-0.04105
4.15,0.04105,-0.06195,-0.06943,0.10376,-0.01663,-0.03555,-0.01236,-0.00137,-0.00443,0.00656,-0.04501,0.03922,-0.0351,-0.01724,0.00763,-0.04044
4.1505,0.04074,-0.06149,-0.05478,0.11841,-0.01846,-0.03479,-0.01114,0.00153,0.00717,0.01648,-0.03159,0.0499,-0.03632,-0.01678,0.00809,-0.04105
4.151,0.0386,-0.05051,0.01556,0.11826,-0.01953,-0.03799,-0.01022,0.00305,-0.00031,0.02945,-0.00778,0.05936,-0.03571,-0.01556,0.0087,-0.04272
4.1515,0.0354,-0.03021,0.08728,0.12878,-0.01907,-0.04089,-0.00931,0.00214,-0.01938,0.04364,0.02884,0.047,-0.03464,-0.01724,0.01038,-0.04425
4.152,0.03128,-0.00259,0.13611,0.09888,-0.01801,-0.04303,-0.00793,0.00092,-0.02884,0.05035,0.07919,0.00183,-0.03296,-0.02045,0.01251,-0.04456
4.1525,0.02686,0.02472,0.16403,0.01678,-0.01846,-0.04257,-0.009,0.00244,-0.02335,0.03738,0.13092,-0.05997,-0.03189,-0.02243,0.01373,-0.04501
4.153,0.02441,0.0415,0.17776,-0.05341,-0.02106,-0.04135,-0.00916,0.00458,-0.01083,0.00092,0.16998,-0.11078,-0.03235,-0.02258,0.01373,-0.04395
4.1535,0.02533,0.0412,0.17807,-0.05081,-0.02319,-0.04166,-0.00854,0.00565,-0.00534,-0.03906,0.18265,-0.13046,-0.03326,-0.02106,0.01114,-0.04211
4.154,0.02686,0.02991,0.17441,0.00626,-0.02426,-0.04379,-0.00778,0.00549,-0.00763,-0.05981,0.15747,-0.121,-0.03342,-0.01953,0.0087,-0.04318
4.1545,0.02151,0.01938,0.186,0.03036,-0.02808,-0.04608,-0.009,0.00305,-0.01404,-0.04501,0.09476,-0.09735,-0.03296,-0.01877,0.00809,-0.04623
4.155,0.00916,0.0174,0.21378,-0.02808,-0.02945,-0.04745,-0.0116,-0.00031,-0.01572,-0.00107,0.01587,-0.07599,-0.0325,-0.0177,0.00748,-0.04669
4.1555,-0.00473,0.02457,0.22995,-0.10361,-0.03204,-0.04715,-0.01312,-0.00534,-0.00534,0.04944,-0.04822,-0.07019,-0.03281,-0.01678,0.00595,-0.04471
4.156,-0.01434,0.03494,0.20584,-0.10712,-0.03372,-0.047,-0.01266,-0.00931,0.01282,0.08057,-0.08316,-0.06927,-0.03174,-0.01663,0.00778,-0.04211
4.1565,-0.02151,0.04181,0.13123,-0.04929,-0.03616,-0.0473,-0.0116,-0.00977,0.02808,0.08484,-0.09293,-0.04303,-0.03006,-0.01617,0.01099,-0.04089
4.157,-0.02716,0.04059,0.01785,-0.00778,-0.03937,-0.0473,-0.0119,-0.00778,0.03464,0.06744,-0.07813,0.0386,-0.02853,-0.01694,0.01373,-0.03998
4.1575,-0.0322,0.03021,-0.10773,-0.01114,-0.0412,-0.04745,-0.01282,-0.00748,0.03448,0.03952,-0.03708,0.15808,-0.02945,-0.02045,0.01266,-0.03815
4.158,-0.03387,0.01572,-0.20218,-0.02197,-0.04242,-0.04745,-0.01495,-0.00778,0.02899,0.00916,0.01221,0.24963,-0.02899,-0.02426,0.01022,-0.03769
4.1585,-0.03464,0.00031,-0.21469,-0.01434,-0.0412,-0.04898,-0.01755,-0.00748,0.02014,-0.01266,0.02502,0.25391,-0.02792,-0.02686,0.00717,-0.03876
4.159,-0.03494,-0.02136,-0.121,-0.00183,-0.04089,-0.05051,-0.01999,-0.00595,0.01175,-0.01999,-0.02365,0.18204,-0.02609,-0.02991,0.00519,-0.04135
4.1595,-0.03433,-0.05203,0.03311,-0.0029,-0.03906,-0.05081,-0.0206,-0.00458,0.00946,-0.01495,-0.10483,0.10406,-0.02533,-0.03326,0.00717,-0.04257
4.16,-0.03098,-0.08682,0.15228,-0.01297,-0.03845,-0.05051,-0.01907,-0.00687,0.01465,-0.00595,-0.15518,0.07019,-0.02335,-0.03555,0.009,-0.04196
4.1605,-0.02457,-0.11383,0.16983,-0.02197,-0.03723,-0.05112,-0.01816,-0.01038,0.02487,-0.00076,-0.1387,0.06592,-0.02274,-0.03769,0.01022,-0.03967
4.161,-0.01801,-0.12283,0.09857,-0.02853,-0.03601,-0.05157,-0.01816,-0.01175,0.03159,0.00061,-0.07828,0.05722,-0.02243,-0.03723,0.01053,-0.03708
4.1615,-0.0145,-0.11551,-0.0029,-0.0293,-0.03662,-0.05173,-0.01663,-0.0061,0.02716,-0.00137,-0.02655,0.03479,-0.02121,-0.0351,0.01083,-0.03647
4.162,-0.01083,-0.09979,-0.08408,-0.02243,-0.03494,-0.05005,-0.0145,0.00275,0.01282,-0.00549,-0.00763,0.00992,-0.01862,-0.03387,0.01144,-0.03723
4.1625,-0.00748,-0.08026,-0.12756,-0.01343,-0.03265,-0.04883,-0.01526,0.01114,-0.00305,-0.01389,-0.01404,-0.0061,-0.01831,-0.03479,0.01236,-0.03784
4.163,-0.00504,-0.06546,-0.13718,-0.01312,-0.03143,-0.04761,-0.01816,0.0148,-0.01801,-0.02884,-0.02853,-0.01251,-0.02106,-0.03433,0.01343,-0.03723
4.1635,-0.0032,-0.0589,-0.11749,-0.03006,-0.03189,-0.04761,-0.01938,0.01373,-0.03128,-0.0473,-0.04349,-0.01526,-0.0264,-0.03235,0.0145,-0.0351
4.164,-0.00458,-0.05615,-0.07538,-0.05051,-0.03464,-0.04883,-0.01785,0.00961,-0.04166,-0.05875,-0.05737,-0.01755,-0.03098,-0.03021,0.01495,-0.03311
4.1645,-0.00717,-0.04608,-0.02029,-0.04471,-0.03799,-0.04807,-0.01511,0.00748,-0.04608,-0.0618,-0.06683,-0.0206,-0.03693,-0.02777,0.01404,-0.03189
4.165,-0.00412,-0.0267,0.04471,-0.01678,-0.03937,-0.04593,-0.01389,0.0061,-0.04761,-0.06195,-0.06897,-0.0116,-0.047,-0.02411,0.01175,-0.03265
4.1655,0.00671,-0.00824,0.11292,-0.0087,-0.03738,-0.0441,-0.0145,0.00259,-0.0473,-0.07034,-0.06378,0.02396,-0.0618,-0.02075,0.01038,-0.03433
4.166,0.0174,0.00656,0.15579,-0.01663,-0.03418,-0.04303,-0.0174,-0.00717,-0.04181,-0.08728,-0.05402,0.08301,-0.07401,-0.01877,0.01007,-0.03433
4.1665,0.01389,0.01968,0.12589,0.0296,-0.03128,-0.04166,-0.02045,-0.02182,-0.02518,-0.1001,-0.04501,0.13657,-0.07599,-0.01877,0.00916,-0.03372
4.167,-0.00031,0.03616,0.00046,0.13718,-0.02975,-0.04013,-0.02136,-0.03036,-0.00015,-0.10284,-0.04456,0.1564,-0.06516,-0.01923,0.00931,-0.0351
4.1675,-0.01511,0.05417,-0.21027,0.20264,-0.02945,-0.04135,-0.01846,-0.02563,0.02365,-0.09521,-0.05203,0.13733,-0.04837,-0.01984,0.00854,-0.03799
4.168,-0.02518,0.0647,-0.45273,0.15121,-0.03067,-0.04364,-0.01419,-0.01282,0.03586,-0.08347,-0.05402,0.09445,-0.03662,-0.02045,0.00671,-0.04333
4.1685,-0.03464,0.05859,-0.63263,0.0238,-0.03281,-0.0444,-0.01373,-0.00702,0.03464,-0.06836,-0.04761,0.02747,-0.03113,-0.01938,0.00534,-0.04852
4.169,-0.04532,0.03464,-0.65933,-0.09445,-0.03281,-0.04425,-0.01862,-0.00946,0.02853,-0.05219,-0.0351,-0.07935,-0.02808,-0.01678,0.00626,-0.05066
4.1695,-0.05356,0.00153,-0.53802,-0.16205,-0.03067,-0.04456,-0.02197,-0.01221,0.02457,-0.04425,-0.01968,-0.21942,-0.02579,-0.01358,0.00793,-0.04807
4.17,-0.05447,-0.03296,-0.35751,-0.17578,-0.02716,-0.04486,-0.02106,-0.01144,0.0209,-0.05508,0.00259,-0.33966,-0.02426,-0.01099,0.01007,-0.04257
4.1705,-0.047,-0.0708,-0.19974,-0.14709,-0.02579,-0.04486,-0.01724,-0.009,0.01266,-0.07782,0.0235,-0.38025,-0.0238,-0.01083,0.01129,-0.03891
4.171,-0.03403,-0.11292,-0.08926,-0.1001,-0.02533,-0.04395,-0.01419,-0.00824,0.0029,-0.08987,0.03448,-0.336,-0.02304,-0.01099,0.01083,-0.03967
4.1715,-0.01984,-0.15289,-0.01816,-0.05829,-0.02411,-0.04486,-0.01266,-0.009,-0.00671,-0.07782,0.04257,-0.24689,-0.0235,-0.00885,0.00839,-0.04288
4.172,-0.00488,-0.18066,0.01831,-0.03342,-0.02289,-0.04776,-0.01099,-0.00977,-0.01694,-0.04944,0.06424,-0.15854,-0.02563,-0.00778,0.00702,-0.04532
4.1725,0.01022,-0.1886,0.02975,-0.01511,-0.02335,-0.04868,-0.01114,-0.00839,-0.02502,-0.02045,0.09064,-0.08255,-0.02747,-0.00793,0.00763,-0.04333
4.173,0.02289,-0.1767,0.03296,0.00687,-0.02563,-0.04929,-0.01007,-0.00549,-0.02884,0.00015,0.08911,-0.00595,-0.02731,-0.00946,0.01007,-0.04242
4.1735,0.02899,-0.14969,0.03693,0.02655,-0.02777,-0.05005,-0.00946,-0.00092,-0.02869,0.01434,0.04196,0.07233,-0.02609,-0.01205,0.01022,-0.04166
4.174,0.02686,-0.11612,0.04486,0.02029,-0.02853,-0.05066,-0.01144,0.00214,-0.02686,0.02441,-0.02502,0.11612,-0.02747,-0.01389,0.00916,-0.0444
4.1745,0.01663,-0.08286,0.05966,-0.02502,-0.02975,-0.04959,-0.01556,0.00076,-0.02045,0.02518,-0.08469,0.09048,-0.03067,-0.0148,0.00656,-0.04684
4.175,0.0029,-0.05402,0.08286,-0.0827,-0.03036,-0.04791,-0.01892,-0.00122,-0.00671,0.01602,-0.13123,0.01007,-0.03311,-0.0148,0.0032,-0.0473
4.1755,-0.00778,-0.02975,0.10391,-0.12238,-0.03159,-0.04852,-0.02075,-0.00366,0.00916,0.00473,-0.16464,-0.0705,-0.0351,-0.01526,0.00183,-0.04761
4.176,-0.01511,-0.01266,0.10757,-0.13397,-0.03143,-0.04868,-0.01968,-0.00336,0.01785,0.00061,-0.17227,-0.11963,-0.03601,-0.01755,0.00244,-0.04944
4.1765,-0.01968,-0.00519,0.09415,-0.11871,-0.03098,-0.0473,-0.01678,-0.00061,0.01511,0.00412,-0.14603,-0.14252,-0.03586,-0.02014,0.00351,-0.05005
4.177,-0.02167,-0.00793,0.06836,-0.07599,-0.03021,-0.04517,-0.01495,0.00031,0.00031,0.00824,-0.09537,-0.13885,-0.03571,-0.0209,0.00351,-0.04883
4.1775,-0.01785,-0.01694,0.04364,-0.01419,-0.02991,-0.04364,-0.01434,-0.00137,-0.01816,0.01114,-0.04288,-0.0943,-0.0351,-0.02106,0.00366,-0.04639
4.178,-0.00809,-0.02472,0.0238,0.03662,-0.02975,-0.04196,-0.01465,-0.00717,-0.03632,0.01144,-0.01205,-0.02457,-0.0351,-0.02167,0.00427,-0.04517
4.1785,0.00259,-0.0293,0.01022,0.04654,-0.02991,-0.04105,-0.01526,-0.0145,-0.05051,0.00259,-0.01663,0.0238,-0.03494,-0.02213,0.00656,-0.04456
4.179,0.01099,-0.03448,0.00061,0.01434,-0.03098,-0.03967,-0.01465,-0.01816,-0.05875,-0.01862,-0.04898,0.04578,-0.03525,-0.02289,0.00702,-0.04395
4.1795,0.0177,-0.03967,-0.00824,-0.02838,-0.0322,-0.0412,-0.01495,-0.01419,-0.0621,-0.03891,-0.08453,0.10101,-0.03464,-0.02151,0.00626,-0.04349
4.18,0.02441,-0.04501,-0.01572,-0.04517,-0.03235,-0.0412,-0.01556,-0.00473,-0.06271,-0.03769,-0.10818,0.23071,-0.03311,-0.01953,0.00443,-0.04318
4.1805,0.02869,-0.04837,-0.0235,-0.02899,-0.03326,-0.04135,-0.01617,0.00275,-0.05966,-0.01144,-0.11917,0.36133,-0.03189,-0.0177,0.00381,-0.04288
4.181,0.0293,-0.05066,-0.02777,-0.0032,-0.03372,-0.04227,-0.01694,0.00595,-0.05249,0.01816,-0.12299,0.37521,-0.03113,-0.01633,0.00412,-0.04227
4.1815,0.02716,-0.05219,-0.0293,0.01312,-0.03525,-0.04349,-0.01724,0.00641,-0.04196,0.0351,-0.12009,0.25757,-0.03113,-0.01633,0.00458,-0.0415
4.182,0.02533,-0.05219,-0.03357,0.01801,-0.03647,-0.04593,-0.01846,0.00427,-0.03387,0.03723,-0.1088,0.11673,-0.03143,-0.01801,0.00504,-0.04089
4.1825,0.02319,-0.05112,-0.03876,0.01816,-0.03677,-0.04745,-0.0177,0.00092,-0.02914,0.03494,-0.08957,0.0441,-0.03265,-0.01999,0.00458,-0.04166
4.183,0.01923,-0.04913,-0.03967,0.01617,-0.0383,-0.04791,-0.01511,-0.00076,-0.0267,0.02655,-0.06775,0.03036,-0.03311,-0.02045,0.00656,-0.04059
4.1835,0.01404,-0.04761,-0.03845,0.01328,-0.0383,-0.04837,-0.01389,0.00031,-0.02411,0.009,-0.04898,0.02151,-0.03342,-0.01877,0.00854,-0.04028
4.184,0.01053,-0.04807,-0.03525,0.01205,-0.03876,-0.04761,-0.01495,0.00381,-0.02075,-0.00824,-0.03815,0.00031,-0.03296,-0.01511,0.00961,-0.04166
4.1845,0.00931,-0.04883,-0.03036,0.00977,-0.03937,-0.04883,-0.01694,0.00595,-0.01816,-0.02014,-0.03662,-0.0148,-0.03235,-0.01175,0.01083,-0.04318
4.185,0.00854,-0.0502,-0.02655,0.00717,-0.03998,-0.05035,-0.01694,0.00626,-0.01648,-0.02472,-0.0473,-0.01587,-0.03067,-0.01083,0.00916,-0.04379
4.1855,0.00565,-0.05112,-0.02472,0.00229,-0.0386,-0.05173,-0.01404,0.00443,-0.0148,-0.02686,-0.06851,-0.01221,-0.02899,-0.01022,0.01022,-0.04349
4.186,0.00244,-0.05203,-0.02304,-0.00076,-0.03677,-0.05035,-0.01175,0.0,-0.01434,-0.03143,-0.08957,-0.01175,-0.02777,-0.01038,0.00961,-0.0444
4.1865,0.00015,-0.05249,-0.02014,-0.00122,-0.03616,-0.04959,-0.01221,-0.00626,-0.01862,-0.03937,-0.09644,-0.00854,-0.02731,-0.0116,0.00671,-0.04395
4.187,-0.00122,-0.05341,-0.01602,-0.00076,-0.03754,-0.0502,-0.01602,-0.01328,-0.02472,-0.04593,-0.08209,0.00397,-0.0293,-0.01511,0.00458,-0.04166
4.1875,-0.0029,-0.05356,-0.01328,0.00046,-0.03937,-0.05112,-0.01938,-0.01633,-0.03143,-0.04181,-0.05203,0.0206,-0.02991,-0.01923,0.00458,-0.04028
4.188,-0.00473,-0.05173,-0.01205,0.00229,-0.03784,-0.05157,-0.01999,-0.01511,-0.03662,-0.02991,-0.01526,0.02884,-0.03082,-0.02258,0.00717,-0.04059
4.1885,-0.00565,-0.04868,-0.01053,0.00153,-0.03693,-0.05081,-0.01846,-0.01114,-0.03906,-0.01633,0.01785,0.02716,-0.03143,-0.02274,0.00824,-0.04196
4.189,-0.0058,-0.0473,-0.01038,0.0,-0.03693,-0.05112,-0.01709,-0.00763,-0.03876,-0.00183,0.04074,0.02716,-0.03113,-0.01999,0.00793,-0.04135
4.1895,-0.00626,-0.04578,-0.01068,-0.00046,-0.03754,-0.05096,-0.01556,-0.00595,-0.03433,0.01434,0.05219,0.03632,-0.02914,-0.0177,0.00839,-0.03876
4.19,-0.00916,-0.04333,-0.0116,0.00061,-0.03845,-0.05066,-0.01328,-0.0058,-0.0296,0.02441,0.05539,0.04456,-0.02625,-0.01648,0.00992,-0.03723
4.1905,-0.01434,-0.04089,-0.01205,0.00153,-0.03677,-0.05112,-0.01068,-0.00595,-0.02716,0.0238,0.0563,0.03754,-0.02625,-0.0174,0.01129,-0.03647
4.191,-0.01846,-0.04013,-0.01129,0.00214,-0.03525,-0.05203,-0.00916,-0.00504,-0.02686,0.01862,0.05753,0.0145,-0.02777,-0.01907,0.01099,-0.03632
4.1915,-0.02014,-0.04044,-0.0119,0.00275,-0.03525,-0.0531,-0.00885,-0.00244,-0.02777,0.01678,0.05829,-0.01328,-0.02777,-0.01907,0.01099,-0.03708
4.192,-0.01923,-0.03906,-0.00977,0.00168,-0.03616,-0.05295,-0.00885,-0.00061,-0.02869,0.01617,0.05585,-0.03403,-0.02625,-0.01862,0.01053,-0.03738
4.1925,-0.01663,-0.03647,0.00839,-0.00031,-0.03571,-0.0531,-0.00946,0.0,-0.02914,0.01114,0.05188,-0.04532,-0.02487,-0.01907,0.01022,-0.03891
4.193,-0.01389,-0.03418,0.06348,-0.00153,-0.03616,-0.05249,-0.01007,0.0,-0.0296,-0.00031,0.04791,-0.05508,-0.02579,-0.02106,0.00946,-0.03876
4.1935,-0.01343,-0.03296,0.15091,-0.00229,-0.03677,-0.05249,-0.01022,0.00015,-0.03021,-0.01389,0.0444,-0.0679,-0.0267,-0.02304,0.009,-0.04059
4.194,-0.01526,-0.0322,0.22552,-0.009,-0.03723,-0.05112,-0.00961,-0.00015,-0.03235,-0.02747,0.03784,-0.08179,-0.02655,-0.02441,0.00946,-0.04318
4.1945,-0.01495,-0.03281,0.23987,-0.03021,-0.03769,-0.05127,-0.00961,-0.00122,-0.03357,-0.03326,0.0235,-0.09583,-0.02472,-0.02228,0.00916,-0.04395
4.195,-0.01083,-0.0386,0.18509,-0.06393,-0.03784,-0.05188,-0.01083,-0.00229,-0.03143,-0.03326,0.00061,-0.10849,-0.02167,-0.01816,0.00824,-0.04364
4.1955,-0.00671,-0.05356,0.09613,-0.08835,-0.03784,-0.05386,-0.01328,-0.00214,-0.02716,-0.03128,-0.0267,-0.11765,-0.01953,-0.01511,0.00595,-0.04333
4.196,-0.00778,-0.07385,0.0174,-0.08301,-0.03662,-0.05478,-0.01648,-0.00153,-0.01862,-0.03174,-0.04562,-0.10498,-0.01877,-0.01465,0.00549,-0.04257
4.1965,-0.01236,-0.08896,-0.02029,-0.05035,-0.0354,-0.05386,-0.01694,-0.00153,-0.00549,-0.0325,-0.04272,-0.0444,-0.01907,-0.01343,0.00809,-0.04227
4.197,-0.01678,-0.09521,-0.01587,-0.00061,-0.0354,-0.05417,-0.01678,-0.00229,0.01053,-0.02838,-0.01755,0.06378,-0.01862,-0.01129,0.01114,-0.04211
4.1975,-0.01892,-0.09583,-0.00076,0.05859,-0.0354,-0.05554,-0.01724,-0.0029,0.02151,-0.02121,0.01755,0.15823,-0.01724,-0.00931,0.01221,-0.04257
4.198,-0.01831,-0.09003,-0.01282,0.11154,-0.03632,-0.05676,-0.0177,-0.00183,0.02167,-0.01648,0.04959,0.16693,-0.01846,-0.00885,0.01175,-0.04196
4.1985,-0.01511,-0.07614,-0.06241,0.1239,-0.03616,-0.05615,-0.01801,-0.00168,0.01495,-0.01648,0.07156,0.09796,-0.01892,-0.0119,0.01038,-0.04166
4.199,-0.01099,-0.05554,-0.13733,0.07889,-0.03586,-0.05478,-0.01678,-0.00092,0.00717,-0.02121,0.07584,0.02075,-0.01999,-0.01511,0.00977,-0.04379
4.1995,-0.00687,-0.0325,-0.21454,0.0087,-0.0351,-0.05463,-0.01556,-0.00092,0.00214,-0.0264,0.05661,-0.02731,-0.02228,-0.01938,0.01083,-0.04562
4.2,-0.00549,-0.00793,-0.2742,-0.03067,-0.03464,-0.05539,-0.01495,-0.00046,0.00168,-0.02991,0.02548,-0.06653,-0.02426,-0.02289,0.01404,-0.04501
4.2005,-0.00671,0.01526,-0.29404,-0.02655,-0.03403,-0.05554,-0.01511,-0.00092,-0.00046,-0.0293,-0.00198,-0.11475,-0.02747,-0.02441,0.0148,-0.04257
4.201,-0.01328,0.02945,-0.24811,-0.0177,-0.0322,-0.05508,-0.01419,-0.00031,-0.00458,-0.02777,-0.01846,-0.15976,-0.03159,-0.02655,0.01251,-0.04074
4.2015,-0.02319,0.03006,-0.13046,-0.04761,-0.0296,-0.05447,-0.01312,0.0,-0.009,-0.03021,-0.02655,-0.186,-0.03494,-0.02884,0.00732,-0.04074
4.202,-0.03647,0.02213,0.009,-0.11734,-0.02853,-0.05402,-0.01038,-0.00061,-0.01129,-0.03632,-0.03006,-0.19409,-0.03784,-0.02975,0.00107,-0.04257
4.2025,-0.047,0.01251,0.09781,-0.16602,-0.02777,-0.05249,-0.00763,-0.00229,-0.01236,-0.04623,-0.0296,-0.18784,-0.04181,-0.02853,-0.0032,-0.04303
4.203,-0.05478,0.0,0.09186,-0.12222,-0.02731,-0.05173,-0.0061,-0.00305,-0.01633,-0.05707,-0.02472,-0.15991,-0.04517,-0.02655,-0.00305,-0.04257
4.2035,-0.06165,-0.02487,0.00259,-0.00168,-0.02838,-0.04944,-0.00763,-0.0029,-0.02106,-0.06668,-0.02029,-0.09964,-0.04791,-0.0264,0.00015,-0.04242
4.204,-0.06729,-0.05905,-0.12833,0.07339,-0.03235,-0.04761,-0.00946,-0.00198,-0.02213,-0.07248,-0.02472,-0.00076,-0.04959,-0.02792,0.00427,-0.04181
4.2045,-0.06973,-0.08652,-0.25665,0.03418,-0.03815,-0.04623,-0.00961,-0.00214,-0.02014,-0.07889,-0.04135,0.11612,-0.04974,-0.02823,0.00565,-0.04211
4.205,-0.06653,-0.09033,-0.34332,0.00809,-0.04074,-0.04623,-0.009,-0.0029,-0.02319,-0.08835,-0.05493,0.18585,-0.0473,-0.02609,0.00504,-0.04272
4.2055,-0.06104,-0.07172,-0.35934,0.14465,-0.03738,-0.04562,-0.01068,-0.00366,-0.03052,-0.10071,-0.03967,0.15793,-0.04059,-0.02457,0.00366,-0.04379
4.206,-0.05478,-0.04211,-0.29999,0.33615,-0.02991,-0.04486,-0.01251,-0.0029,-0.03769,-0.10483,0.00717,0.07126,-0.03296,-0.02594,0.00473,-0.04379
4.2065,-0.05096,-0.01297,-0.18661,0.31342,-0.02396,-0.04318,-0.01343,-0.0029,-0.03845,-0.09125,0.05402,0.02853,-0.02579,-0.02762,0.00717,-0.04318
4.207,-0.04745,0.01068,-0.06424,0.05035,-0.0206,-0.04074,-0.01389,-0.00549,-0.03479,-0.06592,0.06424,0.07599,-0.02182,-0.02777,0.00916,-0.04257
4.2075,-0.0444,0.02853,0.04593,-0.1738,-0.01862,-0.03845,-0.01465,-0.00763,-0.03281,-0.04211,0.02731,0.14725,-0.01999,-0.02609,0.01099,-0.04196
4.208,-0.04303,0.03799,0.14282,-0.16083,-0.01663,-0.0383,-0.01587,-0.00732,-0.03204,-0.0206,-0.03464,0.14862,-0.01984,-0.02365,0.01022,-0.04349
4.2085,-0.04379,0.03494,0.2269,-0.02151,-0.0177,-0.04089,-0.01633,-0.0061,-0.03098,0.00275,-0.08499,0.07187,-0.02274,-0.02441,0.00732,-0.04593
4.209,-0.04379,0.02197,0.27832,0.04333,-0.01953,-0.04211,-0.01511,-0.00458,-0.02777,0.02777,-0.09399,0.00488,-0.02655,-0.0267,0.00488,-0.04654
4.2095,-0.04059,0.00793,0.26367,0.0119,-0.01801,-0.04074,-0.01328,-0.00275,-0.0238,0.04791,-0.0563,0.01801,-0.03036,-0.02747,0.0061,-0.04471
4.21,-0.03433,0.00168,0.17807,-0.02106,-0.01434,-0.03922,-0.01175,0.00031,-0.02045,0.05966,0.00626,0.07675,-0.03555,-0.02701,0.00854,-0.04211
4.2105,-0.02548,0.00076,0.04776,-0.02426,-0.01282,-0.0383,-0.01053,0.0032,-0.01785,0.07126,0.06439,0.09735,-0.04288,-0.02518,0.01068,-0.04135
4.211,-0.01389,-0.00366,-0.07889,-0.03998,-0.01373,-0.03677,-0.00992,0.00336,-0.01587,0.07782,0.10193,0.05676,-0.05173,-0.02502,0.0116,-0.03998
4.2115,0.00046,-0.01312,-0.14938,-0.06973,-0.01328,-0.0354,-0.01022,0.00244,-0.01419,0.0705,0.11581,0.00992,-0.05905,-0.02838,0.01175,-0.03784
4.212,0.01358,-0.02029,-0.13672,-0.0708,-0.01083,-0.03433,-0.01083,0.00198,-0.01297,0.04715,0.11063,0.00336,-0.06012,-0.03143,0.01129,-0.03616
4.2125,0.02365,-0.01877,-0.06592,-0.03418,-0.00488,-0.03342,-0.01038,0.00275,-0.00916,0.01984,0.08759,0.02502,-0.05356,-0.03082,0.01129,-0.03616
4.213,0.03204,-0.01022,0.00427,0.00168,-0.00031,-0.03265,-0.01022,0.00473,-0.00351,0.00168,0.04547,0.03677,-0.04303,-0.0238,0.01099,-0.03677
4.2135,0.03891,-0.00015,0.02701,0.00931,0.00107,-0.03159,-0.01266,0.00534,0.00076,-0.00931,-0.00732,0.02411,-0.03632,-0.00961,0.01099,-0.03738
4.214,0.04333,0.00549,-0.00687,-0.00809,0.0,-0.03143,-0.01709,0.00458,0.00244,-0.02213,-0.05295,0.00168,-0.03464,0.00565,0.01083,-0.03845
4.2145,0.04669,0.00168,-0.08331,-0.03128,-0.00412,-0.03113,-0.02029,0.00305,0.00351,-0.03738,-0.06882,-0.01617,-0.03555,0.01343,0.00977,-0.04044
4.215,0.05081,-0.01404,-0.17807,-0.04028,-0.00717,-0.03128,-0.01953,0.00183,0.0058,-0.04242,-0.05386,-0.03601,-0.03571,0.00748,0.00854,-0.04257
4.2155,0.05493,-0.03601,-0.25879,-0.02258,-0.01068,-0.03235,-0.0174,-0.00092,0.00565,-0.02655,-0.04059,-0.07507,-0.03464,-0.00671,0.00763,-0.04318
4.216,0.05508,-0.05905,-0.3067,0.00824,-0.01236,-0.03448,-0.01541,-0.00305,-0.00214,0.00427,-0.06531,-0.13153,-0.03403,-0.0174,0.00702,-0.04257
4.2165,0.04944,-0.08392,-0.33905,0.02563,-0.01297,-0.03738,-0.01495,-0.00488,-0.01617,0.02792,-0.12756,-0.18005,-0.03479,-0.01984,0.00824,-0.04166
4.217,0.03922,-0.11444,-0.39185,0.0177,-0.01511,-0.0386,-0.0148,-0.00366,-0.02991,0.0235,-0.18875,-0.19287,-0.03708,-0.0206,0.00946,-0.0415
4.2175,0.02823,-0.14999,-0.45105,-0.00656,-0.01877,-0.03952,-0.01495,-0.0029,-0.03723,-0.00702,-0.2124,-0.16632,-0.03891,-0.02441,0.00977,-0.04135
4.218,0.01968,-0.18753,-0.44647,-0.03708,-0.02304,-0.04181,-0.01587,-0.00412,-0.03937,-0.04059,-0.20828,-0.12482,-0.04028,-0.02838,0.01007,-0.04028
4.2185,0.01541,-0.21927,-0.34348,-0.06271,-0.02609,-0.04288,-0.01694,-0.0061,-0.04089,-0.05585,-0.21393,-0.09613,-0.04166,-0.02716,0.00931,-0.03906
4.219,0.0177,-0.24017,-0.18539,-0.06805,-0.02655,-0.04364,-0.01678,-0.00656,-0.04166,-0.04944,-0.24765,-0.07385,-0.04166,-0.02289,0.00961,-0.03876
4.2195,0.02472,-0.2536,-0.04868,-0.0499,-0.0235,-0.04349,-0.0145,-0.00336,-0.03998,-0.0322,-0.28946,-0.01877,-0.03906,-0.01877,0.00977,-0.03906
4.22,0.02884,-0.25711,0.03525,-0.02609,-0.02075,-0.0441,-0.01282,0.00244,-0.03464,-0.01465,-0.30258,0.07401,-0.0354,-0.0177,0.0116,-0.03952
4.2205,0.02518,-0.24307,0.07568,-0.01709,-0.02075,-0.04395,-0.01114,0.01038,-0.02518,-0.00198,-0.2623,0.14832,-0.03311,-0.01709,0.01236,-0.0383
4.221,0.01373,-0.20294,0.08408,-0.0235,-0.02151,-0.04303,-0.00809,0.01968,-0.01114,0.0087,-0.17624,0.15656,-0.03189,-0.01648,0.01221,-0.0386
4.2215,0.00427,-0.13763,0.07141,-0.02975,-0.02121,-0.04364,-0.00351,0.02716,0.00244,0.01724,-0.06516,0.12283,-0.03082,-0.01648,0.00946,-0.03998
4.222,0.00214,-0.05737,0.05905,-0.02792,-0.01877,-0.04562,0.0,0.03052,0.01114,0.02274,0.05341,0.09293,-0.03006,-0.01755,0.00717,-0.04211
4.2225,0.0058,0.01373,0.07797,-0.02457,-0.01556,-0.04654,0.00259,0.02853,0.01495,0.02243,0.16418,0.07004,-0.0296,-0.01999,0.00717,-0.04227
4.223,0.00641,0.05249,0.13824,-0.02563,-0.01236,-0.04486,0.00427,0.02731,0.01785,0.02045,0.25314,0.0415,-0.02991,-0.0206,0.00809,-0.04089
4.2235,0.00107,0.05417,0.21271,-0.02716,-0.00961,-0.04242,0.0032,0.02777,0.0209,0.02258,0.31204,0.02197,-0.02991,-0.0209,0.00916,-0.03922
4.224,-0.00473,0.03998,0.25574,-0.02472,-0.00854,-0.04333,-0.00061,0.02487,0.02136,0.02716,0.34698,0.02869,-0.03021,-0.01923,0.00885,-0.03754
4.2245,-0.00916,0.02533,0.24689,-0.01877,-0.01129,-0.04684,-0.0087,0.01251,0.01617,0.02182,0.36255,0.04868,-0.03036,-0.0174,0.00885,-0.03708
4.225,-0.0148,0.00259,0.19943,-0.0145,-0.02182,-0.05096,-0.0174,-0.00961,0.01007,-0.00427,0.35461,0.05783,-0.03052,-0.01572,0.01007,-0.0386
4.2255,-0.0235,-0.03174,0.13458,-0.01312,-0.04105,-0.05264,-0.02472,-0.03296,0.00793,-0.03738,0.32166,0.05295,-0.03174,-0.0148,0.01022,-0.04074
4.226,-0.03174,-0.06149,0.06363,-0.01053,-0.06027,-0.05325,-0.02808,-0.04715,0.00946,-0.04913,0.28061,0.04745,-0.03235,-0.0148,0.00839,-0.04211
4.2265,-0.03616,-0.06592,-0.00946,-0.00732,-0.07141,-0.05188,-0.02777,-0.04532,0.01114,-0.02472,0.24567,0.04471,-0.03265,-0.01465,0.00687,-0.04196
4.227,-0.03723,-0.03983,-0.07507,-0.00626,-0.06821,-0.05035,-0.02411,-0.03143,0.01129,0.01678,0.21225,0.03616,-0.03113,-0.01633,0.00748,-0.04105
4.2275,-0.03494,0.00763,-0.12375,-0.00778,-0.05753,-0.05096,-0.0206,-0.01846,0.00961,0.04669,0.16037,0.01831,-0.02853,-0.01694,0.00793,-0.03967
4.228,-0.03098,0.06622,-0.15884,-0.009,-0.04898,-0.05295,-0.01923,-0.01404,0.00504,0.04745,0.09399,-0.00229,-0.02731,-0.01648,0.00809,-0.04028
4.2285,-0.02502,0.12527,-0.18387,-0.00946,-0.04791,-0.05569,-0.02045,-0.01633,-0.00137,0.01862,0.04623,-0.0148,-0.02975,-0.01602,0.00824,-0.04257
4.229,-0.01892,0.17044,-0.18936,-0.00961,-0.05096,-0.05661,-0.02045,-0.01724,-0.01129,-0.02869,0.0322,-0.01572,-0.03311,-0.01831,0.00809,-0.04364
4.2295,-0.01419,0.19501,-0.168,-0.00916,-0.05234,-0.05554,-0.0177,-0.01358,-0.02106,-0.07416,0.02716,-0.00824,-0.03555,-0.02075,0.01007,-0.04395
4.23,-0.01022,0.19989,-0.13077,-0.00488,-0.05051,-0.05341,-0.01495,-0.00687,-0.02869,-0.09796,-0.00015,-0.00305,-0.0351,-0.02151,0.0119,-0.0441
4.2305,-0.00687,0.19028,-0.09613,-0.00061,-0.047,-0.05264,-0.01541,-0.00244,-0.03754,-0.09689,-0.05814,-0.00534,-0.03326,-0.01968,0.01266,-0.04364
4.231,-0.00198,0.16754,-0.07156,0.00214,-0.04593,-0.05234,-0.01755,-0.0029,-0.04929,-0.07996,-0.13351,-0.01297,-0.03403,-0.01785,0.0119,-0.04272
4.2315,0.0029,0.13611,-0.05554,0.0032,-0.04654,-0.05112,-0.01923,-0.00778,-0.06012,-0.06042,-0.20523,-0.0174,-0.03586,-0.01617,0.01053,-0.03983
4.232,0.00687,0.10147,-0.04913,0.00641,-0.04807,-0.05096,-0.0174,-0.01404,-0.06348,-0.047,-0.2504,-0.01663,-0.0351,-0.01526,0.00946,-0.03937
4.2325,0.01038,0.07126,-0.05219,0.01068,-0.04959,-0.05219,-0.01358,-0.01587,-0.06073,-0.04059,-0.25223,-0.01587,-0.03281,-0.0145,0.00717,-0.03937
4.233,0.01221,0.047,-0.0531,0.0116,-0.0502,-0.05356,-0.01068,-0.01465,-0.05569,-0.04318,-0.20737,-0.01694,-0.0293,-0.01434,0.0061,-0.03922
4.2335,0.01343,0.02808,-0.04196,0.00366,-0.04761,-0.05417,-0.0116,-0.01099,-0.05371,-0.05219,-0.1326,-0.01785,-0.02823,-0.0148,0.00671,-0.03891
4.234,0.01617,0.01099,-0.02182,-0.01205,-0.04517,-0.05249,-0.0148,-0.00702,-0.0528,-0.06577,-0.05905,-0.01526,-0.02884,-0.01556,0.00931,-0.03784
4.2345,0.02075,-0.00671,-0.00595,-0.02625,-0.04349,-0.05112,-0.01846,-0.00412,-0.04745,-0.07797,-0.01755,-0.01251,-0.03128,-0.01678,0.01221,-0.03616
4.235,0.02563,-0.02579,-0.00259,-0.03326,-0.04272,-0.05081,-0.0206,-0.00336,-0.03784,-0.08087,-0.01511,-0.01221,-0.03387,-0.01785,0.01419,-0.03372
4.2355,0.03006,-0.0444,-0.0087,-0.03281,-0.0412,-0.05051,-0.02014,-0.00702,-0.02808,-0.07706,-0.0293,-0.01312,-0.03372,-0.01862,0.01434,-0.0322
4.236,0.03174,-0.0592,-0.01907,-0.02899,-0.03845,-0.05112,-0.01953,-0.01221,-0.01953,-0.07217,-0.03098,-0.01266,-0.03143,-0.01755,0.01389,-0.03159
4.2365,0.03067,-0.06958,-0.02777,-0.02487,-0.03647,-0.05081,-0.01999,-0.01572,-0.01144,-0.07156,-0.01419,-0.01114,-0.02853,-0.01556,0.01373,-0.03159
4.237,0.0267,-0.07553,-0.0354,-0.02014,-0.03647,-0.05157,-0.0209,-0.01755,-0.00214,-0.07278,0.01282,-0.00931,-0.02731,-0.01465,0.01236,-0.0322
4.2375,0.02045,-0.08041,-0.04013,-0.01541,-0.03647,-0.05234,-0.02258,-0.01831,0.00656,-0.07019,0.04852,-0.00854,-0.02808,-0.01434,0.01129,-0.0325
4.238,0.01358,-0.08636,-0.04242,-0.01266,-0.03571,-0.05356,-0.02533,-0.01923,0.01114,-0.06241,0.08667,-0.01114,-0.02899,-0.0148,0.01053,-0.03403
4.2385,0.00961,-0.09384,-0.04044,-0.01099,-0.0351,-0.05325,-0.02518,-0.01816,0.01083,-0.05051,0.1033,-0.01373,-0.02914,-0.0148,0.00763,-0.03952
4.239,0.00702,-0.10651,-0.03235,-0.0087,-0.03677,-0.05203,-0.02151,-0.01465,0.00732,-0.03952,0.08789,-0.01648,-0.02884,-0.01526,0.00427,-0.04578
4.2395,0.00427,-0.12222,-0.01038,-0.00061,-0.03952,-0.05081,-0.01556,-0.00992,0.00427,-0.0325,0.06287,-0.01434,-0.02899,-0.01587,0.00076,-0.04929
4.24,-0.00122,-0.13611,0.03525,0.01038,-0.03967,-0.05066,-0.01221,-0.00656,0.00275,-0.0264,0.05081,-0.00916,-0.02914,-0.01511,0.00031,-0.04959
4.2405,-0.00916,-0.14221,0.10773,0.01846,-0.04013,-0.05264,-0.01343,-0.00488,0.00305,-0.01907,0.04379,-0.0061,-0.02899,-0.01419,0.0032,-0.0499
4.241,-0.01541,-0.13855,0.1947,0.01709,-0.04135,-0.05295,-0.01602,-0.0029,0.00412,-0.00992,0.02396,-0.00565,-0.02777,-0.01373,0.00641,-0.05096
4.2415,-0.01923,-0.12741,0.28687,0.00946,-0.04135,-0.05325,-0.01633,-0.00046,0.00351,0.00015,-0.00763,-0.00595,-0.02792,-0.0148,0.00809,-0.05188
4.242,-0.02411,-0.11139,0.36453,0.00229,-0.04089,-0.05478,-0.01373,0.00015,-0.00031,0.01007,-0.03464,-0.00366,-0.02838,-0.0177,0.00778,-0.05157
4.2425,-0.02823,-0.09003,0.38483,0.00031,-0.04105,-0.05569,-0.01053,0.00031,-0.00702,0.01846,-0.04654,-0.00168,-0.02899,-0.01968,0.0087,-0.05142
4.243,-0.02884,-0.06653,0.30701,0.00214,-0.04211,-0.05447,-0.00839,0.0,-0.01236,0.02457,-0.03815,-0.0032,-0.02853,-0.01999,0.00885,-0.05188
4.2435,-0.0267,-0.04578,0.12466,0.00259,-0.04288,-0.05264,-0.0087,0.00153,-0.01389,0.02563,-0.01389,-0.00809,-0.02792,-0.01923,0.00931,-0.05127
4.244,-0.02701,-0.03052,-0.12634,-0.00046,-0.04272,-0.05341,-0.01022,0.00351,-0.01312,0.01541,0.01221,-0.01312,-0.02838,-0.01862,0.00809,-0.04883
4.2445,-0.03265,-0.02487,-0.37643,-0.00473,-0.04242,-0.05722,-0.01251,0.00504,-0.01328,-0.00916,0.02731,-0.01358,-0.0293,-0.01816,0.00595,-0.04608
4.245,-0.04059,-0.02853,-0.5217,-0.009,-0.04288,-0.05997,-0.01389,0.00381,-0.01541,-0.04028,0.0264,-0.00977,-0.03036,-0.01816,0.00717,-0.04486
4.2455,-0.04578,-0.0383,-0.47165,-0.01312,-0.04349,-0.05951,-0.01328,0.00137,-0.01587,-0.06042,0.0087,-0.0032,-0.0325,-0.01923,0.00824,-0.04486
4.246,-0.04623,-0.04959,-0.24857,-0.01587,-0.04349,-0.05722,-0.01144,-0.00092,-0.0145,-0.05615,-0.02441,0.00275,-0.03693,-0.02121,0.00763,-0.04578
4.2465,-0.0412,-0.06088,0.01099,-0.01678,-0.03922,-0.05676,-0.00961,-0.0029,-0.01419,-0.0325,-0.06699,0.00534,-0.0412,-0.02258,0.00519,-0.047
4.247,-0.03326,-0.07263,0.17151,-0.0145,-0.03708,-0.05859,-0.009,-0.00488,-0.01724,-0.00275,-0.11017,0.00427,-0.04425,-0.02151,0.00443,-0.04761
4.2475,-0.02365,-0.08286,0.20096,-0.01205,-0.03571,-0.05951,-0.00961,-0.00656,-0.02548,0.02182,-0.14923,0.00305,-0.04486,-0.02151,0.00549,-0.04852
4.248,-0.01633,-0.08942,0.14709,-0.00992,-0.03387,-0.05661,-0.01083,-0.00656,-0.03357,0.03677,-0.17624,0.00137,-0.04379,-0.02304,0.0058,-0.04868
4.2485,-0.01419,-0.09399,0.06256,-0.00778,-0.03326,-0.05249,-0.0119,-0.00443,-0.03906,0.04135,-0.18387,-0.00107,-0.0415,-0.02518,0.00656,-0.04913
4.249,-0.0145,-0.09918,-0.0296,-0.00381,-0.03387,-0.04868,-0.01511,-0.00259,-0.0386,0.0383,-0.17685,-0.00381,-0.0386,-0.0264,0.00549,-0.04669
4.2495,-0.0119,-0.1091,-0.11597,0.00275,-0.03418,-0.04288,-0.01785,-0.00275,-0.03342,0.02548,-0.16129,-0.00732,-0.03571,-0.0267,0.0061,-0.04471
4.25,-0.00595,-0.1236,-0.18143,0.00931,-0.03418,-0.03357,-0.0174,-0.00229,-0.02548,0.00366,-0.14481,-0.0119,-0.03311,-0.02426,0.00641,-0.04333
4.2505,0.00092,-0.13763,-0.2121,0.00504,-0.03326,-0.02579,-0.01556,-0.00061,-0.01633,-0.02029,-0.12787,-0.01801,-0.03143,-0.02136,0.00687,-0.04227
4.251,0.00656,-0.14679,-0.20615,-0.01862,-0.03159,-0.02579,-0.01373,0.0029,-0.00671,-0.03159,-0.10361,-0.02197,-0.02914,-0.0174,0.00717,-0.04089
4.2515,0.0119,-0.14679,-0.17517,-0.05966,-0.02884,-0.03281,-0.01312,0.00641,0.00443,-0.0322,-0.07294,-0.01877,-0.02655,-0.01572,0.00778,-0.03952
4.252,0.01602,-0.13947,-0.13596,-0.10025,-0.02609,-0.04089,-0.01373,0.0061,0.01495,-0.03113,-0.04242,-0.00916,-0.02396,-0.01511,0.00793,-0.03952
4.2525,0.0177,-0.12772,-0.10376,-0.11063,-0.02686,-0.04395,-0.01389,0.00305,0.02106,-0.02914,-0.01633,0.00275,-0.02167,-0.01587,0.00793,-0.04074
4.253,0.01678,-0.11444,-0.08301,-0.06561,-0.02975,-0.04318,-0.01373,-0.00122,0.01755,-0.01434,0.00259,0.01434,-0.01953,-0.01556,0.00732,-0.04074
4.2535,0.01526,-0.09979,-0.07004,0.02167,-0.03189,-0.0412,-0.01419,-0.00366,0.00671,0.01389,0.01587,0.02731,-0.01694,-0.0148,0.00748,-0.04044
4.254,0.01602,-0.08377,-0.05768,0.09308,-0.0293,-0.04089,-0.01572,-0.00397,-0.0061,0.04028,0.0238,0.03815,-0.01648,-0.01495,0.00641,-0.03983
4.2545,0.01923,-0.06577,-0.04211,0.10193,-0.02594,-0.04196,-0.01694,-0.00381,-0.0174,0.05142,0.0238,0.03693,-0.0174,-0.01587,0.00519,-0.04059
4.255,0.01968,-0.04684,-0.02502,0.06836,-0.02426,-0.04471,-0.01633,-0.00381,-0.02701,0.04532,0.01511,0.02029,-0.02151,-0.01663,0.0058,-0.04196
4.2555,0.0145,-0.03128,-0.0116,0.04166,-0.02548,-0.04684,-0.01465,-0.00443,-0.0351,0.02472,-0.00427,-0.00412,-0.02548,-0.0174,0.00702,-0.04135
4.256,0.00488,-0.02151,-0.00137,0.02457,-0.02747,-0.04715,-0.01419,-0.00214,-0.04135,-0.00351,-0.0351,-0.02151,-0.02945,-0.01816,0.00717,-0.0383
4.2565,-0.00427,-0.01846,0.01114,-0.01602,-0.02792,-0.04654,-0.01297,0.0,-0.0441,-0.0264,-0.07401,-0.0293,-0.03464,-0.01755,0.00641,-0.03525
4.257,-0.01038,-0.02197,0.02731,-0.07202,-0.02792,-0.04639,-0.01221,0.00061,-0.04181,-0.03052,-0.11017,-0.03647,-0.04059,-0.01495,0.00656,-0.03494
4.2575,-0.0119,-0.03021,0.03769,-0.0914,-0.02853,-0.04562,-0.01144,-0.00076,-0.03784,-0.01801,-0.13901,-0.05173,-0.04654,-0.01068,0.00839,-0.03845
4.258,-0.01053,-0.04074,0.03632,-0.05783,-0.02823,-0.04517,-0.01114,-0.00168,-0.03601,-0.00336,-0.16174,-0.07324,-0.05173,-0.00778,0.01007,-0.04166
4.2585,-0.00656,-0.04822,0.02396,-0.01602,-0.02792,-0.04623,-0.01144,-0.00122,-0.03693,0.00458,-0.17578,-0.08362,-0.05264,-0.00854,0.00961,-0.04303
4.259,-0.0032,-0.04929,0.00931,-0.00458,-0.02808,-0.04776,-0.01175,0.00076,-0.03662,0.00778,-0.17273,-0.06424,-0.04913,-0.01266,0.00916,-0.04196
4.2595,-0.00015,-0.04715,0.00153,-0.01511,-0.03006,-0.04868,-0.01022,0.00214,-0.03571,0.00931,-0.14725,-0.00732,-0.0415,-0.0148,0.00992,-0.0386
4.26,0.00183,-0.04364,-0.00046,-0.0206,-0.0325,-0.04807,-0.00748,0.00229,-0.03632,0.00763,-0.10315,0.06165,-0.03281,-0.0148,0.01175,-0.03571
4.2605,0.00183,-0.04272,-0.00137,-0.01556,-0.0325,-0.04593,-0.00748,0.00092,-0.03845,0.00015,-0.04639,0.09918,-0.02838,-0.01434,0.01205,-0.03784
4.261,0.00031,-0.04364,-0.00549,-0.0119,-0.03433,-0.04318,-0.01038,-0.00275,-0.03769,-0.00824,0.0119,0.08942,-0.02731,-0.0145,0.00931,-0.04181
4.2615,-0.00336,-0.04517,-0.01038,-0.01328,-0.03342,-0.03983,-0.01465,-0.00732,-0.03265,-0.01312,0.06226,0.06271,-0.02899,-0.01389,0.00732,-0.04425
4.262,-0.00717,-0.04761,-0.0119,-0.01678,-0.03174,-0.03922,-0.01755,-0.01068,-0.02838,-0.0145,0.10101,0.05356,-0.03296,-0.01434,0.00702,-0.04379
4.2625,-0.0116,-0.05341,-0.009,-0.01648,-0.02945,-0.04013,-0.01755,-0.01038,-0.0296,-0.01892,0.13168,0.05661,-0.03571,-0.01862,0.00702,-0.04196
4.263,-0.01572,-0.06195,-0.00275,-0.01205,-0.02609,-0.04166,-0.01648,-0.00626,-0.0322,-0.03159,0.15213,0.04181,-0.03555,-0.02289,0.00656,-0.0412
4.2635,-0.01999,-0.06958,0.00275,-0.00671,-0.02396,-0.04196,-0.01495,-0.00092,-0.03098,-0.04471,0.15778,0.00656,-0.03433,-0.02319,0.00671,-0.04166
4.264,-0.02228,-0.07034,0.00381,-0.00748,-0.02426,-0.04089,-0.01465,0.00351,-0.02487,-0.0473,0.15121,-0.02426,-0.03372,-0.01984,0.00748,-0.0412
4.2645,-0.02518,-0.06119,-0.00244,-0.01892,-0.02625,-0.04196,-0.01511,0.00626,-0.01877,-0.04242,0.13824,-0.03296,-0.0351,-0.01724,0.00824,-0.04013
4.265,-0.02884,-0.04791,-0.01099,-0.03098,-0.02594,-0.04471,-0.01663,0.0087,-0.01968,-0.03815,0.12405,-0.02411,-0.03494,-0.01785,0.00854,-0.0412
4.2655,-0.03036,-0.03616,-0.02136,-0.03189,-0.02365,-0.0499,-0.01633,0.00961,-0.02441,-0.03448,0.11124,-0.00763,-0.03357,-0.01862,0.00763,-0.04242
4.266,-0.02655,-0.02686,-0.0293,-0.02502,-0.02167,-0.05783,-0.01556,0.00931,-0.02808,-0.03128,0.103,0.00793,-0.03128,-0.01877,0.00885,-0.04379
4.2665,-0.01785,-0.01968,-0.03448,-0.02136,-0.02136,-0.06638,-0.01465,0.00732,-0.02686,-0.02625,0.09537,0.01846,-0.03036,-0.01907,0.01022,-0.04318
4.267,-0.00916,-0.01572,-0.03372,-0.02319,-0.02335,-0.07034,-0.01556,0.00305,-0.02319,-0.02304,0.08041,0.01984,-0.03143,-0.02075,0.01053,-0.04272
4.2675,-0.00458,-0.01465,-0.02823,-0.02029,-0.02457,-0.06699,-0.01709,-0.00183,-0.02014,-0.02441,0.05676,0.01648,-0.03174,-0.02029,0.009,-0.04379
4.268,-0.00534,-0.01541,-0.02243,-0.00458,-0.02457,-0.05966,-0.01785,-0.0058,-0.0174,-0.02884,0.03448,0.01083,-0.03052,-0.01953,0.00793,-0.04517
4.2685,-0.00717,-0.01541,-0.02014,0.01404,-0.02472,-0.05264,-0.01755,-0.00839,-0.01373,-0.03189,0.02106,0.00259,-0.02869,-0.01953,0.00702,-0.04639
4.269,-0.00656,-0.01434,-0.02243,0.02167,-0.02579,-0.04898,-0.01709,-0.00809,-0.01251,-0.0322,0.01633,-0.00595,-0.02747,-0.01968,0.00671,-0.04578
4.2695,-0.0029,-0.01297,-0.02533,0.01419,-0.0264,-0.04623,-0.01694,-0.00656,-0.01358,-0.0325,0.01617,-0.0119,-0.02655,-0.01984,0.00732,-0.04456
4.27,0.00229,-0.01144,-0.0267,0.00168,-0.02472,-0.04349,-0.01617,-0.00519,-0.01343,-0.03296,0.01648,-0.01205,-0.02594,-0.01938,0.00702,-0.04456
4.2705,0.00565,-0.01129,-0.02563,-0.00717,-0.02457,-0.04242,-0.01465,-0.00473,-0.01022,-0.03326,0.01419,-0.01068,-0.02655,-0.01862,0.00565,-0.0441
4.271,0.00671,-0.01236,-0.02502,-0.01556,-0.02502,-0.04272,-0.01343,-0.00519,-0.00443,-0.03189,0.00809,-0.00961,-0.02502,-0.01785,0.00565,-0.04135
4.2715,0.00763,-0.0119,-0.02701,-0.02625,-0.02457,-0.04333,-0.01266,-0.00397,0.00092,-0.03143,-0.00061,-0.00885,-0.02258,-0.01678,0.00748,-0.0386
4.272,0.00946,-0.009,-0.0296,-0.03464,-0.02563,-0.04333,-0.01328,-0.00214,0.00397,-0.03174,-0.0119,-0.00763,-0.01999,-0.01724,0.00854,-0.03815
4.2725,0.01099,-0.00275,-0.02914,-0.03464,-0.0264,-0.04364,-0.01328,0.0,0.00381,-0.03036,-0.02167,-0.00671,-0.01831,-0.01755,0.009,-0.03937
4.273,0.01053,0.00534,-0.01709,-0.03006,-0.02823,-0.04318,-0.01389,0.00015,0.00443,-0.02716,-0.03006,-0.00519,-0.01663,-0.0174,0.00885,-0.04044
4.2735,0.00641,0.01404,0.02518,-0.02625,-0.02975,-0.04364,-0.01434,-0.00061,0.00641,-0.0235,-0.03326,-0.00504,-0.01389,-0.0174,0.00992,-0.04074
4.274,-0.00076,0.02029,0.11322,-0.01373,-0.0293,-0.0444,-0.01404,-0.00107,0.01022,-0.02243,-0.02869,-0.00671,-0.01282,-0.01831,0.01099,-0.04196
4.2745,-0.00778,0.01709,0.22629,0.02045,-0.02823,-0.04684,-0.01251,-0.00198,0.01297,-0.02808,-0.01785,-0.01175,-0.0145,-0.0206,0.0119,-0.04272
4.275,-0.01099,-0.00031,0.30258,0.07004,-0.02869,-0.0502,-0.01343,-0.00305,0.01114,-0.03128,-0.00946,-0.0177,-0.01633,-0.02228,0.01328,-0.04272
4.2755,-0.00824,-0.02487,0.29465,0.08652,-0.02899,-0.05295,-0.01541,-0.00366,0.00504,-0.02808,-0.01511,-0.02487,-0.0174,-0.02319,0.01236,-0.04105
4.276,-0.0032,-0.04318,0.20172,0.03708,-0.02945,-0.05493,-0.01633,-0.00381,-0.00336,-0.02243,-0.03128,-0.03128,-0.01816,-0.02243,0.01129,-0.04089
4.2765,-0.00107,-0.05249,0.04745,-0.0386,-0.02899,-0.0563,-0.0148,-0.00336,-0.01099,-0.02304,-0.03571,-0.03922,-0.0206,-0.02243,0.01053,-0.04166
4.277,-0.00397,-0.05661,-0.13275,-0.06729,-0.02701,-0.05615,-0.01434,-0.00168,-0.01404,-0.02838,-0.01266,-0.04868,-0.02533,-0.02243,0.01022,-0.04303
4.2775,-0.00946,-0.06104,-0.29831,-0.02762,-0.02411,-0.05356,-0.01404,-0.00107,-0.01343,-0.0322,0.0267,-0.05997,-0.0322,-0.02167,0.00961,-0.04395
4.278,-0.01358,-0.06561,-0.40802,0.03464,-0.02045,-0.05142,-0.01526,-0.00046,-0.01129,-0.0325,0.05234,-0.0705,-0.04135,-0.0209,0.00885,-0.04486
4.2785,-0.0145,-0.06592,-0.44647,0.05737,-0.01648,-0.04868,-0.01648,-0.00061,-0.00992,-0.02991,0.05386,-0.07187,-0.05096,-0.0206,0.00839,-0.04532
4.279,-0.01251,-0.05814,-0.42435,0.01068,-0.01312,-0.04578,-0.01755,-0.00137,-0.00946,-0.0264,0.03891,-0.04486,-0.06195,-0.02228,0.00854,-0.0441
4.2795,-0.01007,-0.04242,-0.36469,-0.06439,-0.01419,-0.04288,-0.01801,-0.00305,-0.00931,-0.02182,0.01587,0.03021,-0.07187,-0.02457,0.009,-0.04059
4.28,-0.01266,-0.02365,-0.28519,-0.10468,-0.01617,-0.03952,-0.01938,-0.00412,-0.0061,-0.01816,-0.01755,0.12924,-0.07721,-0.02548,0.00931,-0.03693
4.2805,-0.01877,-0.00809,-0.2002,-0.09674,-0.01831,-0.03677,-0.02045,-0.00549,-0.00031,-0.01495,-0.05249,0.17838,-0.07568,-0.02518,0.01114,-0.03601
4.281,-0.02777,0.00183,-0.11856,-0.07843,-0.01953,-0.03372,-0.02014,-0.00549,0.00626,-0.00916,-0.07446,0.13672,-0.06638,-0.02487,0.01251,-0.03784
4.2815,-0.0351,0.00641,-0.04562,-0.08087,-0.01694,-0.02838,-0.01801,-0.00427,0.00748,0.00015,-0.07782,0.05447,-0.05402,-0.0238,0.01312,-0.03906
4.282,-0.03937,0.00839,0.01999,-0.10345,-0.01114,-0.02563,-0.01572,-0.00366,-0.00031,0.00488,-0.06866,0.00641,-0.04395,-0.02197,0.01144,-0.03769
4.2825,-0.03815,0.0087,0.08652,-0.1178,-0.00656,-0.02655,-0.01495,-0.00427,-0.01282,0.0,-0.05417,0.00381,-0.03906,-0.01923,0.01053,-0.03525
4.283,-0.03036,0.00381,0.16266,-0.10086,-0.0087,-0.03113,-0.01434,-0.00412,-0.02548,-0.01038,-0.03464,0.01099,-0.03815,-0.01694,0.00946,-0.03464
4.2835,-0.01831,-0.01007,0.24139,-0.05524,-0.0267,-0.03677,-0.01251,-0.0032,-0.03555,-0.01648,-0.00916,0.00778,-0.03708,-0.01694,0.00885,-0.03571
4.284,-0.00641,-0.03769,0.29755,-0.00473,-0.0563,-0.04227,-0.0116,-0.00153,-0.04196,-0.01587,0.01282,0.00183,-0.03387,-0.01907,0.00824,-0.03586
4.2845,0.00076,-0.07126,0.30838,0.03876,-0.08209,-0.04623,-0.01114,-0.00137,-0.04166,-0.01068,0.02548,-0.00015,-0.02975,-0.02014,0.00763,-0.03601
4.285,0.00534,-0.09735,0.26794,0.07706,-0.08591,-0.04929,-0.01312,-0.00351,-0.03708,-0.00595,0.0296,-0.00244,-0.02808,-0.01846,0.00763,-0.03708
4.2855,0.00778,-0.11017,0.17319,0.10239,-0.0705,-0.05219,-0.0145,-0.00641,-0.03281,-0.00229,0.03204,-0.0058,-0.02777,-0.01556,0.00885,-0.03876
4.286,0.0087,-0.1152,0.0296,0.09247,-0.05234,-0.05356,-0.01343,-0.00839,-0.03036,0.00107,0.0351,-0.00809,-0.02838,-0.01236,0.00931,-0.04044
4.2865,0.00687,-0.11841,-0.12985,0.04944,-0.0412,-0.05356,-0.01312,-0.00961,-0.02869,0.00504,0.03418,-0.00717,-0.02792,-0.01007,0.00748,-0.04074
4.287,0.00351,-0.11673,-0.25681,0.00488,-0.03433,-0.05219,-0.01389,-0.01068,-0.02441,0.0087,0.0264,-0.00473,-0.02625,-0.00732,0.0061,-0.04105
4.2875,0.00015,-0.10361,-0.32455,-0.01205,-0.0264,-0.05295,-0.0145,-0.01053,-0.01953,0.01251,0.01862,-0.00412,-0.02457,-0.00549,0.00687,-0.04181
4.288,-0.00046,-0.0798,-0.34393,-0.00854,-0.02045,-0.05417,-0.01419,-0.00824,-0.01663,0.01495,0.01404,-0.00244,-0.02411,-0.00519,0.00931,-0.04196
4.2885,0.00183,-0.04944,-0.33936,-0.00473,-0.01923,-0.05508,-0.01389,-0.00519,-0.01556,0.00748,0.00702,0.00183,-0.02502,-0.00885,0.01007,-0.04333
4.289,0.00275,-0.01266,-0.32379,-0.0061,-0.02426,-0.05447,-0.01648,-0.00336,-0.01511,-0.01251,-0.00778,0.00748,-0.02441,-0.01312,0.01022,-0.04211
4.2895,0.00183,0.02686,-0.29358,-0.00641,-0.03006,-0.0528,-0.01846,-0.00381,-0.01251,-0.04486,-0.02533,0.00977,-0.0235,-0.01556,0.01007,-0.03937
4.29,-0.00061,0.06393,-0.24643,-0.00366,-0.03342,-0.05081,-0.01648,-0.00427,-0.00916,-0.07889,-0.03723,0.00809,-0.02121,-0.01602,0.01129,-0.03769
4.2905,-0.00107,0.09216,-0.18539,-0.00351,-0.0351,-0.0502,-0.01266,-0.00458,-0.00793,-0.09979,-0.04776,0.00458,-0.01999,-0.01663,0.01083,-0.03891
4.291,0.00259,0.10452,-0.11902,-0.00732,-0.03616,-0.05051,-0.01144,-0.00412,-0.00946,-0.09293,-0.05646,0.00092,-0.02014,-0.01663,0.01022,-0.04166
4.2915,0.00763,0.09949,-0.05005,-0.01205,-0.03799,-0.05051,-0.0119,-0.00351,-0.01343,-0.06302,-0.06332,-0.00107,-0.0206,-0.01602,0.00854,-0.04578
4.292,0.00717,0.07996,0.0145,-0.01282,-0.03967,-0.05066,-0.01312,-0.00076,-0.01694,-0.03113,-0.06744,-0.00229,-0.02014,-0.01602,0.00763,-0.04807
4.2925,0.00137,0.05142,0.05707,-0.01114,-0.03906,-0.05127,-0.01282,0.00259,-0.01984,-0.01404,-0.06882,-0.00214,-0.02075,-0.01801,0.00717,-0.04868
4.293,-0.00259,0.01236,0.06042,-0.00824,-0.03708,-0.0528,-0.01099,0.00656,-0.01846,-0.0058,-0.06897,-0.00336,-0.0235,-0.02075,0.00565,-0.04684
4.2935,-0.00076,-0.03677,0.02228,-0.00214,-0.03265,-0.05478,-0.01007,0.00916,-0.01328,0.0032,-0.07294,-0.00443,-0.02625,-0.02167,0.00443,-0.04562
4.294,0.00473,-0.08636,-0.04593,0.00336,-0.02899,-0.05325,-0.00992,0.00809,-0.00656,0.01404,-0.08759,-0.00473,-0.02655,-0.02182,0.00534,-0.0444
4.2945,0.0087,-0.12497,-0.12466,0.00702,-0.02777,-0.05005,-0.0119,0.00595,-0.00153,0.0206,-0.10834,-0.00397,-0.02701,-0.02213,0.00748,-0.04395
4.295,0.00595,-0.15381,-0.17807,0.0061,-0.02838,-0.04684,-0.01343,0.00381,0.00153,0.02228,-0.1297,-0.00458,-0.02991,-0.02258,0.00854,-0.04364
4.2955,-0.00168,-0.17883,-0.1683,0.00183,-0.0293,-0.04425,-0.01312,0.00305,0.00351,0.02655,-0.14847,-0.00656,-0.03632,-0.0235,0.00748,-0.04547
4.296,-0.0087,-0.20264,-0.09186,-0.00458,-0.02945,-0.04242,-0.01068,0.0029,0.0032,0.03845,-0.16159,-0.00717,-0.04395,-0.02365,0.00626,-0.04654
4.2965,-0.01022,-0.21729,0.00961,-0.01175,-0.02914,-0.04135,-0.00946,0.00504,-0.00092,0.047,-0.16693,-0.0058,-0.05173,-0.02258,0.00595,-0.04639
4.297,-0.00656,-0.21194,0.08286,-0.01678,-0.03036,-0.04257,-0.01038,0.009,-0.00839,0.03616,-0.16541,-0.00427,-0.05585,-0.02274,0.00641,-0.0441
4.2975,-0.00244,-0.18417,0.10437,-0.0177,-0.03326,-0.04578,-0.01312,0.01099,-0.01602,0.0058,-0.15549,-0.00565,-0.05447,-0.02441,0.00778,-0.04364
4.298,-0.00031,-0.14496,0.0769,-0.01633,-0.03479,-0.04745,-0.01633,0.00702,-0.0209,-0.02777,-0.12711,-0.00946,-0.05005,-0.02609,0.00732,-0.04272
4.2985,0.00153,-0.1149,0.01556,-0.01556,-0.03677,-0.04929,-0.01846,-0.00229,-0.02136,-0.04608,-0.06775,-0.01053,-0.04364,-0.02563,0.00626,-0.04105
4.299,0.00275,-0.10025,-0.05692,-0.0174,-0.03845,-0.05066,-0.01846,-0.00961,-0.01984,-0.04425,0.01724,-0.00839,-0.0351,-0.0238,0.00809,-0.03937
4.2995,0.0029,-0.0914,-0.11337,-0.01938,-0.0386,-0.05173,-0.01709,-0.0087,-0.01724,-0.03174,0.1004,-0.00702,-0.0264,-0.02106,0.01038,-0.03891
4.3,0.00229,-0.07584,-0.1355,-0.0209,-0.03677,-0.0502,-0.01663,-0.00137,-0.01358,-0.02777,0.14587,-0.0058,-0.0209,-0.01938,0.01389,-0.0383
4.3005,0.00275,-0.05325,-0.12939,-0.01938,-0.03418,-0.04761,-0.01709,0.0058,-0.01099,-0.0415,0.14038,-0.00534,-0.02213,-0.01923,0.01694,-0.03586
4.301,0.00351,-0.03296,-0.11276,-0.0145,-0.03281,-0.04532,-0.01846,0.00763,-0.00916,-0.06149,0.10559,-0.0029,-0.02869,-0.01953,0.01938,-0.03159
4.3015,0.0058,-0.0174,-0.09827,-0.009,-0.03326,-0.04471,-0.01801,0.00565,-0.009,-0.0708,0.07462,-0.00015,-0.03738,-0.01984,0.01999,-0.02991
4.302,0.00793,0.00137,-0.08606,-0.00488,-0.03082,-0.04364,-0.01633,-0.00031,-0.01038,-0.06378,0.06439,-0.00031,-0.04486,-0.01968,0.01816,-0.03174
4.3025,0.01053,0.0296,-0.07233,-0.00534,-0.02594,-0.04013,-0.01541,-0.01129,-0.01312,-0.04974,0.07172,-0.00458,-0.04654,-0.01892,0.01663,-0.03342
4.303,0.01495,0.06134,-0.05951,-0.00748,-0.02487,-0.03571,-0.01678,-0.02441,-0.01709,-0.04196,0.08286,-0.00992,-0.04471,-0.01999,0.01495,-0.03311
4.3035,0.02075,0.08942,-0.05173,-0.00824,-0.02548,-0.03342,-0.0206,-0.03067,-0.02167,-0.03952,0.07813,-0.01144,-0.0415,-0.01953,0.01205,-0.03281
4.304,0.02243,0.10651,-0.06561,-0.00778,-0.02686,-0.03387,-0.0206,-0.02426,-0.0235,-0.0325,0.04684,-0.01053,-0.03708,-0.01999,0.00671,-0.03387
4.3045,0.01984,0.11246,-0.13031,-0.00671,-0.02914,-0.03403,-0.01587,-0.01144,-0.02029,-0.01541,0.00458,-0.00687,-0.03113,-0.01892,0.00061,-0.03479
4.305,0.01801,0.10422,-0.25146,-0.00717,-0.03189,-0.03387,-0.0116,-0.00397,-0.01526,-0.00015,-0.01724,-0.00397,-0.02579,-0.01923,-0.00412,-0.03433
4.3055,0.01907,0.08606,-0.35797,-0.00748,-0.0354,-0.0354,-0.01205,-0.00626,-0.01236,-0.00031,-0.00275,-0.00305,-0.02411,-0.02167,-0.00626,-0.03433
4.306,0.02213,0.06439,-0.34561,-0.00671,-0.03555,-0.03876,-0.01556,-0.01221,-0.01205,-0.01129,0.03021,-0.00229,-0.02365,-0.02319,-0.00366,-0.03403
4.3065,0.02319,0.04379,-0.1947,-0.00641,-0.0354,-0.04211,-0.01755,-0.01419,-0.0119,-0.01694,0.05569,-0.00153,-0.02014,-0.02396,0.00183,-0.03296
4.307,0.01984,0.02411,0.00961,-0.00702,-0.0354,-0.04333,-0.01755,-0.01236,-0.01175,-0.00717,0.06531,-0.00107,-0.0145,-0.02411,0.00595,-0.03311
4.3075,0.01236,0.00412,0.16922,-0.00809,-0.03754,-0.04303,-0.01694,-0.00916,-0.01312,0.0119,0.065,-0.00061,-0.0116,-0.02365,0.00534,-0.03677
4.308,0.00565,-0.01389,0.25223,-0.00717,-0.03601,-0.04303,-0.01556,-0.00366,-0.01694,0.0296,0.05341,0.0,-0.0148,-0.0238,0.00305,-0.04517
4.3085,0.00183,-0.02686,0.2739,-0.00336,-0.03326,-0.04364,-0.01465,0.00122,-0.02411,0.04288,0.02747,0.00137,-0.02243,-0.02411,0.00183,-0.05203
4.309,0.00168,-0.03403,0.25818,-0.00046,-0.02991,-0.04303,-0.01419,0.00305,-0.03067,0.05661,-0.0087,0.00214,-0.02975,-0.02426,0.00275,-0.05295
4.3095,0.00351,-0.03738,0.21423,-0.00061,-0.0293,-0.04303,-0.01236,-0.00122,-0.03571,0.06592,-0.03784,0.00275,-0.03448,-0.02411,0.00504,-0.05051
4.31,0.0058,-0.03891,0.16403,-0.00168,-0.02853,-0.04181,-0.01068,-0.00763,-0.03586,0.05478,-0.04929,0.0029,-0.03876,-0.02182,0.00748,-0.04852
4.3105,0.00732,-0.03723,0.11673,-0.00214,-0.02869,-0.04196,-0.00885,-0.01022,-0.03372,0.0174,-0.0499,0.0029,-0.04578,-0.02014,0.00763,-0.04807
4.311,0.00961,-0.03296,0.08026,-0.00168,-0.02808,-0.04135,-0.00824,-0.00732,-0.03098,-0.02533,-0.05356,0.00244,-0.05264,-0.01999,0.00778,-0.04684
4.3115,0.01266,-0.03036,0.05615,-0.00244,-0.02914,-0.04105,-0.00839,-0.00244,-0.0296,-0.04883,-0.06104,0.00061,-0.05402,-0.01923,0.00946,-0.04349
4.312,0.01587,-0.03845,0.04654,-0.00519,-0.03128,-0.0412,-0.009,0.00046,-0.03021,-0.04959,-0.05478,-0.00031,-0.0473,-0.01785,0.01083,-0.04028
4.3125,0.01648,-0.07156,0.05249,-0.00519,-0.03387,-0.04318,-0.01068,0.00031,-0.03098,-0.04593,-0.02182,-0.00092,-0.03662,-0.01633,0.01251,-0.0383
4.313,0.01068,-0.1355,0.07309,-0.00305,-0.03647,-0.04791,-0.01343,-0.00259,-0.02823,-0.05219,0.02792,-0.00122,-0.0293,-0.01526,0.01205,-0.03723
4.3135,0.00107,-0.2153,0.10788,-0.00214,-0.03906,-0.05234,-0.01328,-0.00427,-0.02167,-0.06607,0.07431,-0.00275,-0.02838,-0.0145,0.01129,-0.0383
4.314,-0.00763,-0.27542,0.14725,-0.00229,-0.03937,-0.05615,-0.01083,-0.0032,-0.01526,-0.07996,0.10635,-0.00534,-0.03021,-0.01419,0.01007,-0.0412
4.3145,-0.01266,-0.29221,0.17532,-0.00275,-0.03952,-0.05829,-0.00732,0.00092,-0.01038,-0.08759,0.12634,-0.0061,-0.03098,-0.0119,0.00763,-0.04486
4.315,-0.01236,-0.26932,0.18799,-0.00275,-0.03983,-0.0589,-0.00534,0.0029,-0.00641,-0.09171,0.13763,-0.00397,-0.03067,-0.00977,0.00488,-0.0473
4.3155,-0.00961,-0.22629,0.19348,-0.00412,-0.0386,-0.05981,-0.00504,-0.00046,-0.00183,-0.09125,0.13489,-0.00122,-0.03204,-0.00824,0.00366,-0.04623
4.316,-0.00717,-0.17136,0.19928,-0.0061,-0.03387,-0.05966,-0.00504,-0.00443,0.00259,-0.0882,0.11871,0.00015,-0.03281,-0.00763,0.00473,-0.04395
4.3165,-0.00473,-0.10391,0.19424,-0.00732,-0.02945,-0.05875,-0.00458,-0.00336,0.00656,-0.0827,0.09415,-0.00046,-0.03235,-0.00916,0.00778,-0.04227
4.317,-0.00351,-0.02396,0.15778,-0.00687,-0.03021,-0.05768,-0.00275,0.00336,0.00992,-0.0766,0.07004,-0.00076,-0.0296,-0.01022,0.00931,-0.04364
4.3175,-0.00183,0.06104,0.08102,-0.00702,-0.0383,-0.05478,-0.00137,0.00778,0.01343,-0.07187,0.05112,-0.00092,-0.02762,-0.01022,0.00977,-0.04471
4.318,-0.00214,0.13443,-0.02655,-0.00839,-0.04684,-0.0502,-0.00168,0.00488,0.01724,-0.06805,0.03876,-0.00046,-0.02579,-0.01099,0.00809,-0.04395
4.3185,-0.00534,0.18082,-0.14282,-0.01114,-0.05142,-0.04562,-0.00198,-0.00092,0.0209,-0.0621,0.03326,-0.00122,-0.02411,-0.01175,0.00763,-0.04196
4.319,-0.01022,0.19196,-0.24109,-0.01343,-0.05188,-0.04395,-0.00427,-0.00641,0.02274,-0.05463,0.02884,-0.00244,-0.02365,-0.0119,0.00854,-0.04181
4.3195,-0.01556,0.16693,-0.30487,-0.01343,-0.05035,-0.04761,-0.00732,-0.01144,0.02548,-0.04486,0.01892,-0.00061,-0.02518,-0.01266,0.01022,-0.04135
4.32,-0.02029,0.11612,-0.33142,-0.01129,-0.04807,-0.05249,-0.01236,-0.01587,0.03052,-0.03403,0.00351,0.00305,-0.02701,-0.01343,0.01099,-0.03922
4.3205,-0.02457,0.05768,-0.32471,-0.00977,-0.04593,-0.0563,-0.01663,-0.01663,0.03693,-0.02151,-0.01312,0.00565,-0.0293,-0.01434,0.009,-0.03754
4.321,-0.02823,0.01328,-0.29633,-0.00946,-0.04532,-0.05737,-0.01968,-0.01068,0.04028,-0.00824,-0.02441,0.00336,-0.03143,-0.01495,0.00519,-0.03922
4.3215,-0.03159,-0.00732,-0.2562,-0.01022,-0.04608,-0.05585,-0.01755,-0.00458,0.03799,-0.00076,-0.0296,0.0,-0.03357,-0.01572,0.00153,-0.04257
4.322,-0.03311,-0.00992,-0.21637,-0.00946,-0.04608,-0.05447,-0.01251,-0.00137,0.03174,-0.00275,-0.0325,-0.00183,-0.03433,-0.01846,0.00198,-0.04288
4.3225,-0.0325,-0.00244,-0.18448,-0.00717,-0.04562,-0.05295,-0.00824,0.0,0.02472,-0.00946,-0.04028,-0.00244,-0.03464,-0.02258,0.00427,-0.04013
4.323,-0.03174,0.00946,-0.15808,-0.00549,-0.04089,-0.05356,-0.00992,0.0032,0.01785,-0.01312,-0.05737,-0.00244,-0.03403,-0.02411,0.00748,-0.03769
4.3235,-0.03128,0.02136,-0.12787,-0.00626,-0.03418,-0.05463,-0.01663,0.0029,0.01083,-0.01556,-0.08118,-0.00244,-0.03296,-0.0235,0.00931,-0.03723
4.324,-0.02914,0.03296,-0.09201,-0.009,-0.02609,-0.05402,-0.02289,-0.00229,0.00275,-0.02747,-0.1059,-0.00183,-0.02838,-0.02213,0.00961,-0.03998
4.3245,-0.02365,0.04562,-0.05478,-0.0119,-0.01694,-0.05386,-0.02396,-0.00916,-0.00778,-0.04349,-0.13168,-0.00183,-0.02106,-0.02197,0.01007,-0.04471
4.325,-0.01541,0.05646,-0.02655,-0.0119,-0.00458,-0.05035,-0.01984,-0.01343,-0.01892,-0.0444,-0.15778,-0.0032,-0.01465,-0.02197,0.01236,-0.04852
4.3255,-0.00885,0.05676,-0.01923,-0.00977,0.01099,-0.04623,-0.01617,-0.01266,-0.02731,-0.02884,-0.18341,-0.00473,-0.01343,-0.02151,0.01389,-0.05051
4.326,-0.00641,0.04181,-0.06195,-0.00916,0.02396,-0.04547,-0.01617,-0.0119,-0.03433,-0.00839,-0.20126,-0.00549,-0.01755,-0.02197,0.01312,-0.04791
4.3265,-0.01007,0.01709,-0.19089,-0.00946,0.0322,-0.04715,-0.01724,-0.00931,-0.04166,0.00092,-0.20477,-0.00549,-0.02335,-0.02411,0.01007,-0.04288
4.327,-0.0177,-0.009,-0.36911,-0.00916,0.03418,-0.0499,-0.01709,-0.00732,-0.04913,0.00137,-0.18906,-0.00595,-0.02777,-0.02701,0.00763,-0.04028
4.3275,-0.02884,-0.03372,-0.45685,-0.00885,0.03113,-0.05188,-0.01724,-0.00595,-0.0563,0.00092,-0.14755,-0.0061,-0.03098,-0.02777,0.01007,-0.03998
4.328,-0.03876,-0.05859,-0.33188,-0.01038,0.0267,-0.05081,-0.0177,-0.0061,-0.06348,0.00229,-0.0798,-0.00626,-0.03479,-0.02853,0.01343,-0.04059
4.3285,-0.04425,-0.08331,-0.04028,-0.01373,0.02411,-0.047,-0.01907,-0.0061,-0.07095,0.00214,0.00305,-0.00595,-0.03922,-0.03052,0.01709,-0.03998
4.329,-0.04318,-0.10315,0.24139,-0.01465,0.02747,-0.0412,-0.02029,-0.00488,-0.07248,-0.00046,0.08087,-0.00412,-0.04333,-0.03143,0.01862,-0.0383
4.3295,-0.0386,-0.11444,0.38101,-0.0119,0.03052,-0.03479,-0.02182,-0.00412,-0.06653,-0.00381,0.13306,-0.00214,-0.04501,-0.02914,0.0174,-0.03998
4.33,-0.03342,-0.11749,0.37231,-0.00931,0.01831,-0.02823,-0.02243,-0.00519,-0.05447,-0.00259,0.15045,-0.00153,-0.04562,-0.02426,0.01389,-0.04364
4.3305,-0.02731,-0.11749,0.27451,-0.01022,-0.02411,-0.02258,-0.02213,-0.00534,-0.0444,0.00107,0.13153,-0.00168,-0.04715,-0.02136,0.00977,-0.04639
4.331,-0.0209,-0.11703,0.14954,-0.01266,-0.09476,-0.01694,-0.01938,-0.00397,-0.0386,0.00534,0.08347,-0.00168,-0.04974,-0.02182,0.0061,-0.04562
4.3315,-0.01511,-0.11322,0.03677,-0.01343,-0.15793,-0.0116,-0.01633,-0.00092,-0.03418,0.0087,0.02304,-0.00046,-0.05234,-0.02411,0.00412,-0.04318
4.332,-0.01205,-0.10376,-0.04242,-0.0116,-0.17349,-0.01389,-0.01587,0.00244,-0.02975,0.01358,-0.02945,-0.00015,-0.05463,-0.02563,0.00244,-0.0444
4.3325,-0.01175,-0.08881,-0.08377,-0.00961,-0.14008,-0.03021,-0.01678,0.00534,-0.0264,0.02136,-0.06683,-0.00015,-0.05554,-0.02518,0.00031,-0.0473
4.333,-0.01144,-0.07385,-0.09247,-0.00931,-0.09781,-0.05539,-0.01663,0.0087,-0.02396,0.03159,-0.08804,0.00031,-0.05203,-0.02396,-0.00122,-0.04669
4.3335,-0.01022,-0.06302,-0.07385,-0.00946,-0.07751,-0.07309,-0.01175,0.01373,-0.02029,0.04425,-0.09644,0.00107,-0.0444,-0.0206,-0.00046,-0.04425
4.334,-0.01038,-0.0563,-0.03708,-0.01022,-0.07263,-0.07492,-0.00824,0.01816,-0.0148,0.05554,-0.09842,0.00183,-0.03586,-0.01755,0.00412,-0.04181
4.3345,-0.01083,-0.05234,0.00458,-0.01282,-0.06439,-0.06714,-0.01038,0.01923,-0.00916,0.05905,-0.09735,0.00168,-0.02884,-0.01572,0.01053,-0.03952
