time,RectFemL,VastusMedL,VastusLatL,TibAntL,HamMedL,HamLatL,GastroMedL,GastroLatL,RectFemR,VastusMedR,VastusLatR,TibAntR,HamMedR,HamLatR,GastroMedR,GastroLatR
7.35,0.00275,0.05081,0.01724,-0.01266,-0.03235,-0.04456,-0.01389,-0.00458,-0.04074,-0.02762,-0.01144,-0.0116,-0.02914,-0.02945,-0.13626,-0.06073
7.3505,0.01663,0.0502,-0.09003,-0.01236,-0.0296,-0.0444,-0.01328,-0.00809,-0.03815,-0.02411,-0.00717,-0.00824,-0.03159,-0.03479,-0.13916,-0.06165
7.351,0.03204,0.03983,-0.14954,-0.01175,-0.0264,-0.047,-0.01495,-0.01068,-0.03601,-0.01862,-0.0032,-0.00671,-0.03311,-0.04074,-0.12177,-0.05905
7.3515,0.0473,0.02472,-0.16922,-0.01205,-0.0267,-0.0528,-0.01709,-0.01114,-0.03296,-0.01343,-0.00046,-0.00595,-0.03357,-0.04303,-0.08972,-0.05188
7.352,0.05432,0.00763,-0.16556,-0.01419,-0.02914,-0.05966,-0.01831,-0.00946,-0.02731,-0.01022,0.00076,-0.00534,-0.03296,-0.03906,-0.03143,-0.03937
7.3525,0.04379,-0.01297,-0.16724,-0.01633,-0.03159,-0.0647,-0.01816,-0.00702,-0.02289,-0.00626,0.00107,-0.00473,-0.03265,-0.03174,0.04288,-0.02594
7.353,0.01999,-0.03998,-0.19547,-0.01572,-0.03113,-0.06622,-0.0174,-0.00534,-0.02182,-0.0032,0.00015,-0.00473,-0.0325,-0.02518,0.09735,-0.01572
7.3535,-0.00366,-0.06683,-0.23849,-0.01495,-0.02884,-0.06546,-0.01694,-0.00229,-0.02335,-0.00061,-0.00137,-0.00778,-0.03204,-0.02167,0.09628,-0.01099
7.354,-0.0206,-0.0824,-0.28534,-0.0145,-0.02625,-0.06378,-0.01572,-0.00031,-0.0235,0.00153,-0.00458,-0.00992,-0.03281,-0.01953,0.05493,-0.01282
7.3545,-0.03418,-0.07965,-0.31662,-0.01511,-0.02472,-0.0618,-0.01526,-0.00122,-0.02258,0.00366,-0.00732,-0.01053,-0.03387,-0.01816,0.02975,-0.02274
7.355,-0.04807,-0.06256,-0.33005,-0.01602,-0.02518,-0.05966,-0.01541,-0.00336,-0.02136,0.00565,-0.00671,-0.01007,-0.0354,-0.01678,0.05554,-0.03571
7.3555,-0.05859,-0.04089,-0.3186,-0.01648,-0.02838,-0.05768,-0.01633,-0.00671,-0.01999,0.00748,-0.00732,-0.00977,-0.0354,-0.0119,0.1091,-0.04333
7.356,-0.06165,-0.02396,-0.26474,-0.0174,-0.0325,-0.05539,-0.01617,-0.00992,-0.01755,0.00763,-0.01114,-0.00916,-0.03387,-0.00107,0.14069,-0.04211
7.3565,-0.05905,-0.02014,-0.15488,-0.01633,-0.03586,-0.05478,-0.01617,-0.01083,-0.0177,0.00549,-0.01892,-0.00641,-0.03021,0.01541,0.11383,-0.03708
7.357,-0.05585,-0.03342,-0.00549,-0.01633,-0.03784,-0.05493,-0.01602,-0.00992,-0.01877,0.00031,-0.02777,-0.00336,-0.0267,0.03128,0.04578,-0.03677
7.3575,-0.056,-0.05844,0.14328,-0.01602,-0.03983,-0.05386,-0.01541,-0.00626,-0.01938,-0.00595,-0.04044,0.00092,-0.02487,0.03464,-0.01968,-0.0415
7.358,-0.05402,-0.08362,0.2475,-0.01663,-0.04181,-0.05188,-0.01434,-0.00183,-0.01709,-0.01205,-0.06058,0.00671,-0.02487,0.02441,-0.05219,-0.04578
7.3585,-0.04852,-0.09949,0.27725,-0.01755,-0.04288,-0.04883,-0.01312,0.00015,-0.01358,-0.0145,-0.08621,0.01205,-0.02396,0.00656,-0.03998,-0.04578
7.359,-0.03998,-0.10513,0.2301,-0.01755,-0.0412,-0.04654,-0.01297,0.00198,-0.01129,-0.01434,-0.10651,0.01495,-0.02228,-0.00427,-0.00397,-0.04044
7.3595,-0.03235,-0.10483,0.13672,-0.01602,-0.03723,-0.04715,-0.01221,0.00259,-0.01053,-0.01251,-0.10849,0.01419,-0.01984,-0.00031,0.02609,-0.03357
7.36,-0.02701,-0.10376,0.0441,-0.01495,-0.03342,-0.04868,-0.01114,0.0032,-0.00763,-0.01129,-0.09064,0.0116,-0.01724,0.01129,0.0386,-0.03082
7.3605,-0.02441,-0.103,-0.01678,-0.01434,-0.03143,-0.0499,-0.01022,0.00244,-0.00381,-0.01358,-0.05737,0.00946,-0.01541,0.02029,0.01251,-0.03204
7.361,-0.02151,-0.10056,-0.04257,-0.01434,-0.0296,-0.04807,-0.01022,0.00214,-0.0029,-0.01724,-0.01312,0.0058,-0.01602,0.01984,-0.02167,-0.03113
7.3615,-0.01663,-0.09552,-0.047,-0.0119,-0.02762,-0.04471,-0.01282,0.00275,-0.00549,-0.01877,0.03769,-0.00137,-0.02106,0.01266,-0.0209,-0.02579
7.362,-0.00732,-0.08759,-0.0412,-0.00809,-0.02487,-0.04181,-0.01465,0.00061,-0.01083,-0.0177,0.07828,-0.01648,-0.02686,0.00397,0.02655,-0.0209
7.3625,0.00702,-0.07675,-0.02655,-0.00595,-0.02228,-0.03922,-0.01526,-0.00046,-0.0119,-0.01709,0.0975,-0.0354,-0.03036,-0.00092,0.1004,-0.02304
7.363,0.02121,-0.06836,-0.0058,-0.00702,-0.01923,-0.03708,-0.01526,-0.00122,-0.01053,-0.02029,0.09888,-0.05783,-0.03067,-0.00458,0.13947,-0.03143
7.3635,0.02945,-0.06165,0.01434,-0.00763,-0.01526,-0.03479,-0.01434,-0.00259,-0.00824,-0.02487,0.09155,-0.08606,-0.0296,-0.00595,0.11948,-0.0386
7.364,0.02914,-0.05539,0.02502,-0.009,-0.0119,-0.03342,-0.01465,-0.00275,-0.00763,-0.02777,0.07782,-0.10651,-0.03006,-0.00565,0.06378,-0.04196
7.3645,0.02304,-0.04745,0.02396,-0.01144,-0.00946,-0.03281,-0.01587,-0.00397,-0.0087,-0.02853,0.05585,-0.09384,-0.03311,0.00183,0.01755,-0.04379
7.365,0.01648,-0.03815,0.01297,-0.01526,-0.00824,-0.03204,-0.01831,-0.00488,-0.01068,-0.02808,0.02899,-0.03204,-0.04044,0.02411,0.00153,-0.04471
7.3655,0.01251,-0.02701,-0.00183,-0.01755,-0.00854,-0.03159,-0.02167,-0.00366,-0.01175,-0.02701,0.00824,0.04822,-0.04837,0.05264,0.00473,-0.04623
7.366,0.01068,-0.01541,-0.02228,-0.01526,-0.00961,-0.03098,-0.02335,-0.00061,-0.01175,-0.02747,-0.00534,0.09262,-0.05402,0.05234,0.00122,-0.04623
7.3665,0.00992,-0.00793,-0.05051,-0.01129,-0.01129,-0.03021,-0.02197,0.00214,-0.01083,-0.02792,-0.01175,0.08514,-0.05508,-0.00778,-0.01984,-0.04379
7.367,0.00748,-0.01068,-0.08499,-0.00854,-0.01465,-0.03082,-0.0177,0.00427,-0.01083,-0.02808,-0.0145,0.0499,-0.05081,-0.11093,-0.05035,-0.03815
7.3675,0.00229,-0.02762,-0.11108,-0.009,-0.01816,-0.03189,-0.01434,0.00412,-0.00916,-0.02716,-0.01755,0.02151,-0.0444,-0.18906,-0.0824,-0.02609
7.368,-0.0032,-0.06088,-0.13153,-0.0119,-0.02365,-0.03494,-0.01419,0.00107,-0.00565,-0.02594,-0.0209,0.01022,-0.03693,-0.18494,-0.09598,-0.00931
7.3685,-0.00687,-0.09933,-0.15869,-0.01404,-0.02792,-0.03784,-0.01556,-0.0029,-0.00366,-0.02365,-0.02518,0.01175,-0.02701,-0.11597,-0.06317,0.00748
7.369,-0.00748,-0.12344,-0.20065,-0.01404,-0.02594,-0.04028,-0.01602,-0.0061,-0.00443,-0.01495,-0.02472,0.01892,-0.01434,-0.04761,0.02792,0.01419
7.3695,-0.00687,-0.11658,-0.2243,-0.01221,-0.02258,-0.04135,-0.01434,-0.00824,-0.00626,0.00549,-0.02274,0.0238,-0.00214,-0.01724,0.14435,0.00687
7.37,-0.00824,-0.08408,-0.20386,-0.01068,-0.02197,-0.04333,-0.01221,-0.00839,-0.00809,0.03876,-0.02045,0.02411,0.00732,-0.01266,0.22705,-0.00687
7.3705,-0.01022,-0.04395,-0.1384,-0.01114,-0.02655,-0.04471,-0.01282,-0.00916,-0.00916,0.06836,-0.02075,0.02151,0.01129,-0.00916,0.2478,-0.01663
7.371,-0.01282,-0.00595,-0.047,-0.01251,-0.03357,-0.0444,-0.01465,-0.01068,-0.01022,0.07034,-0.02045,0.02075,0.009,-0.00336,0.23193,-0.02213
7.3715,-0.01572,0.02701,0.0415,-0.01404,-0.03571,-0.04242,-0.01617,-0.01221,-0.01144,0.03906,-0.01968,0.02197,0.00092,-0.00153,0.20172,-0.02945
7.372,-0.02014,0.05157,0.11063,-0.01373,-0.0351,-0.0415,-0.01617,-0.01114,-0.01221,-0.00473,-0.01999,0.02258,-0.01205,-0.00565,0.14664,-0.04227
7.3725,-0.02487,0.06165,0.14572,-0.01236,-0.03357,-0.04272,-0.01541,-0.0087,-0.01297,-0.03586,-0.01953,0.02014,-0.02548,-0.01465,0.06165,-0.0499
7.373,-0.02716,0.05737,0.15839,-0.0116,-0.03159,-0.04501,-0.01266,-0.00549,-0.01434,-0.05264,-0.01999,0.0177,-0.03555,-0.02472,-0.0177,-0.047
7.3735,-0.02426,0.04242,0.15457,-0.0119,-0.03021,-0.04715,-0.01099,-0.00458,-0.01526,-0.0737,-0.02014,0.01541,-0.04166,-0.0296,-0.04288,-0.03677
7.374,-0.01801,0.02182,0.15335,-0.01236,-0.03159,-0.047,-0.01053,-0.00397,-0.01663,-0.1091,-0.02136,0.01144,-0.04623,-0.02502,-0.00778,-0.02762
7.3745,-0.01114,-0.00183,0.14969,-0.01175,-0.03342,-0.04822,-0.01282,-0.00549,-0.01816,-0.13657,-0.02151,0.00809,-0.04929,-0.01678,0.03174,-0.02502
7.375,-0.0058,-0.02365,0.13718,-0.01068,-0.03342,-0.04959,-0.01373,-0.00595,-0.01938,-0.13321,-0.02121,0.00732,-0.05035,-0.01297,0.03296,-0.02853
7.3755,-0.00275,-0.0412,0.11414,-0.01083,-0.03174,-0.05325,-0.01297,-0.00488,-0.01923,-0.10223,-0.02213,0.00916,-0.04837,-0.01526,0.01678,-0.03494
7.376,0.00153,-0.05615,0.08621,-0.01266,-0.03113,-0.05554,-0.01038,-0.00549,-0.01801,-0.06882,-0.02502,0.0116,-0.04639,-0.02045,0.01053,-0.04013
7.3765,0.00854,-0.07309,0.05875,-0.01282,-0.03342,-0.05508,-0.01007,-0.00687,-0.01602,-0.04837,-0.02777,0.01266,-0.04623,-0.02502,0.02151,-0.0441
7.377,0.01724,-0.09262,0.03433,-0.01312,-0.0354,-0.05295,-0.01175,-0.00717,-0.01389,-0.03479,-0.02945,0.01282,-0.04791,-0.02411,0.03113,-0.04578
7.3775,0.02487,-0.10849,0.01541,-0.01358,-0.03311,-0.05142,-0.01266,-0.00793,-0.01221,-0.01968,-0.02808,0.01251,-0.0499,-0.01907,0.0206,-0.04593
7.378,0.03189,-0.11353,0.0032,-0.01404,-0.02945,-0.05173,-0.01251,-0.00778,-0.01083,-0.0029,-0.02701,0.01022,-0.05219,-0.01648,0.00153,-0.04425
7.3785,0.03662,-0.1062,-0.00504,-0.01373,-0.03052,-0.05051,-0.0116,-0.00732,-0.01114,0.00717,-0.02594,0.00626,-0.05585,-0.0235,-0.01862,-0.04364
7.379,0.04105,-0.09125,-0.02106,-0.01236,-0.03525,-0.04822,-0.01251,-0.00732,-0.01205,0.00977,-0.02625,0.00275,-0.06531,-0.04166,-0.03082,-0.04501
7.3795,0.04684,-0.07614,-0.05066,-0.01144,-0.0386,-0.0473,-0.0119,-0.00549,-0.01221,0.00977,-0.02563,0.00076,-0.07935,-0.0705,-0.0351,-0.04501
7.38,0.05234,-0.06348,-0.08102,-0.01144,-0.03876,-0.0499,-0.01312,-0.00519,-0.01068,0.00732,-0.02518,0.00092,-0.09018,-0.10269,-0.0354,-0.04349
7.3805,0.0563,-0.05402,-0.10635,-0.01022,-0.03677,-0.05341,-0.01358,-0.00259,-0.00931,0.0029,-0.0264,0.00061,-0.09247,-0.11581,-0.02975,-0.0412
7.381,0.05615,-0.04974,-0.11948,-0.00854,-0.03494,-0.0563,-0.01312,-0.00168,-0.01068,-0.00015,-0.03006,0.00046,-0.08392,-0.08835,-0.03265,-0.04135
7.3815,0.05219,-0.05066,-0.1236,-0.00793,-0.03082,-0.05676,-0.01083,-0.00046,-0.01312,-0.00137,-0.02991,0.00183,-0.07172,-0.03235,-0.0444,-0.04059
7.382,0.04333,-0.05402,-0.12726,-0.00763,-0.0267,-0.05524,-0.009,0.00031,-0.01541,-0.00153,-0.03174,0.00122,-0.06149,0.01038,-0.05157,-0.03784
7.3825,0.03387,-0.05676,-0.12375,-0.00687,-0.02533,-0.05203,-0.01007,-0.00076,-0.01801,-0.00626,-0.0322,-0.00244,-0.05447,0.01541,-0.05417,-0.03464
7.383,0.02838,-0.05798,-0.12115,-0.00626,-0.0264,-0.04898,-0.01251,-0.00229,-0.01923,-0.01419,-0.03067,-0.00656,-0.04776,-0.00092,-0.05005,-0.03494
7.3835,0.02289,-0.06439,-0.11734,-0.0061,-0.02762,-0.04654,-0.01343,-0.00381,-0.01938,-0.02014,-0.02701,-0.00854,-0.04135,-0.01205,-0.0444,-0.03922
7.384,0.0116,-0.07431,-0.1152,-0.0061,-0.02487,-0.04547,-0.01312,-0.00427,-0.01617,-0.02228,-0.02396,-0.0119,-0.03647,-0.00763,-0.03891,-0.04547
7.3845,-0.0061,-0.0824,-0.11276,-0.0061,-0.02167,-0.04852,-0.01419,-0.00336,-0.01236,-0.02106,-0.02258,-0.01389,-0.03372,0.00046,-0.03082,-0.0499
7.385,-0.02701,-0.0856,-0.11108,-0.00595,-0.01923,-0.05234,-0.01572,-0.00244,-0.01144,-0.01923,-0.02197,-0.01312,-0.02975,0.00443,-0.02762,-0.04929
7.3855,-0.047,-0.09018,-0.10452,-0.00626,-0.01862,-0.05539,-0.01602,-0.00168,-0.01221,-0.01801,-0.01877,-0.00977,-0.02533,0.00702,-0.03677,-0.04379
7.386,-0.06409,-0.09628,-0.09384,-0.00641,-0.01877,-0.05814,-0.0145,-0.0029,-0.01419,-0.0177,-0.01175,-0.00565,-0.02136,0.01068,-0.05051,-0.04135
7.3865,-0.07294,-0.09293,-0.08026,-0.00641,-0.02151,-0.06058,-0.01343,-0.0029,-0.01602,-0.01678,-0.00671,-0.00504,-0.01953,0.01572,-0.0499,-0.04517
7.387,-0.07004,-0.07019,-0.06958,-0.00671,-0.02655,-0.06119,-0.01465,-0.00366,-0.01633,-0.01633,-0.00671,-0.00778,-0.01968,0.01755,-0.04425,-0.06439
7.3875,-0.05814,-0.03265,-0.06317,-0.00763,-0.0296,-0.05951,-0.01526,-0.00427,-0.01556,-0.01724,-0.009,-0.00977,-0.02136,0.0148,-0.06134,-0.10635
7.388,-0.0441,0.00443,-0.05981,-0.00854,-0.02701,-0.05676,-0.01541,-0.00488,-0.0145,-0.01862,-0.01083,-0.01007,-0.02625,0.00977,-0.10208,-0.15518
7.3885,-0.0322,0.03067,-0.05768,-0.00793,-0.02167,-0.05508,-0.01511,-0.00397,-0.01541,-0.01953,-0.01266,-0.01022,-0.03098,0.0032,-0.13382,-0.16357
7.389,-0.02304,0.04044,-0.05539,-0.00671,-0.02136,-0.05188,-0.01541,-0.00259,-0.01663,-0.01938,-0.01678,-0.00885,-0.03464,-0.0029,-0.15015,-0.10544
7.3895,-0.01465,0.03464,-0.05554,-0.00626,-0.02777,-0.0444,-0.01404,-0.00214,-0.01724,-0.01755,-0.02243,-0.00671,-0.03708,-0.00824,-0.16693,-0.01251
7.39,-0.00595,0.01968,-0.06424,-0.00702,-0.03601,-0.03296,-0.01297,-0.00183,-0.01556,-0.01495,-0.02594,-0.0061,-0.03876,-0.01236,-0.17227,0.05157
7.3905,0.00198,0.00336,-0.07675,-0.009,-0.04059,-0.0235,-0.01526,-0.00244,-0.01312,-0.01266,-0.0264,-0.00763,-0.03769,-0.01312,-0.12222,0.06775
7.391,0.00809,-0.00992,-0.09018,-0.01007,-0.04211,-0.01984,-0.01831,-0.00458,-0.0119,-0.01221,-0.02487,-0.0087,-0.03326,-0.01144,-0.00763,0.05661
7.3915,0.01022,-0.02457,-0.09979,-0.00961,-0.04654,-0.02075,-0.01892,-0.00549,-0.01312,-0.01282,-0.02533,-0.00885,-0.02899,-0.01114,0.11902,0.0383
7.392,0.00931,-0.0383,-0.10376,-0.00763,-0.05539,-0.02365,-0.01678,-0.00595,-0.01602,-0.01358,-0.03113,-0.00931,-0.0264,-0.01373,0.19806,0.01617
7.3925,0.00809,-0.03754,-0.10284,-0.00549,-0.06149,-0.0264,-0.01511,-0.00458,-0.0174,-0.01297,-0.04166,-0.0116,-0.02792,-0.01419,0.20935,-0.01007
7.393,0.00839,-0.01968,-0.09842,-0.00366,-0.05737,-0.03021,-0.0148,-0.00351,-0.01663,-0.01007,-0.0499,-0.01312,-0.03143,-0.00946,0.16174,-0.03708
7.3935,0.01129,0.00229,-0.09796,-0.0032,-0.0473,-0.03647,-0.01541,-0.00336,-0.01633,-0.00366,-0.04944,-0.01114,-0.02914,-0.00336,0.0914,-0.05737
7.394,0.01572,0.01251,-0.09918,-0.00473,-0.03906,-0.04242,-0.01617,-0.00412,-0.01968,0.00275,-0.03906,-0.00656,-0.01526,-0.00015,0.04562,-0.06531
7.3945,0.01923,0.01129,-0.10315,-0.00595,-0.03799,-0.04517,-0.01724,-0.00458,-0.02396,0.00198,-0.02899,0.00015,0.00534,-0.00015,0.04532,-0.06226
7.395,0.01831,0.00992,-0.10559,-0.00763,-0.04013,-0.04456,-0.01694,-0.00443,-0.02518,-0.00671,-0.02274,0.00504,0.02213,0.00275,0.06393,-0.05249
7.3955,0.01266,0.01373,-0.10422,-0.00824,-0.03998,-0.04471,-0.01541,-0.00458,-0.02502,-0.01968,-0.01892,0.00671,0.02686,0.00809,0.06363,-0.04257
7.396,0.00626,0.01648,-0.09201,-0.00946,-0.03845,-0.04639,-0.01251,-0.00488,-0.02396,-0.02945,-0.01053,0.00656,0.02441,0.01312,0.04745,-0.03632
7.3965,-0.00107,0.01404,-0.07141,-0.01236,-0.03784,-0.04745,-0.01114,-0.00458,-0.02304,-0.03159,0.00443,0.0058,0.02289,0.01801,0.02747,-0.03799
7.397,-0.01038,0.00931,-0.04105,-0.01434,-0.03891,-0.04715,-0.01175,-0.00427,-0.02228,-0.02975,0.02518,0.00488,0.01938,0.02106,0.00092,-0.04913
7.3975,-0.02014,0.00214,-0.009,-0.01389,-0.03845,-0.04608,-0.01343,-0.00397,-0.02289,-0.02808,0.04471,0.00031,0.00641,0.02502,-0.05585,-0.06317
7.398,-0.02914,-0.0116,0.02792,-0.01129,-0.03479,-0.04623,-0.01434,-0.00259,-0.02304,-0.02884,0.05386,-0.00717,-0.01785,0.02319,-0.1207,-0.0679
7.3985,-0.03799,-0.03052,0.07401,-0.00885,-0.02823,-0.04745,-0.01541,-0.00168,-0.02243,-0.03052,0.047,-0.01465,-0.04349,0.00397,-0.13138,-0.06241
7.399,-0.04639,-0.05005,0.11398,-0.00992,-0.02151,-0.04807,-0.01617,-0.00183,-0.01892,-0.03006,0.03189,-0.01923,-0.06104,-0.04074,-0.06943,-0.05447
7.3995,-0.05264,-0.06714,0.12726,-0.01236,-0.01816,-0.04776,-0.01648,-0.00244,-0.01434,-0.02655,0.01602,-0.02167,-0.07065,-0.0946,0.01099,-0.05081
7.4,-0.05554,-0.07965,0.11261,-0.01434,-0.01709,-0.04929,-0.01663,-0.00366,-0.0119,-0.02457,0.00061,-0.02441,-0.0769,-0.11993,0.04959,-0.04929
7.4005,-0.05585,-0.08759,0.08713,-0.01465,-0.01801,-0.0499,-0.01617,-0.00458,-0.01282,-0.02472,-0.01846,-0.02747,-0.08011,-0.10284,0.04807,-0.04471
7.401,-0.05142,-0.0972,0.05936,-0.01358,-0.02029,-0.05096,-0.01541,-0.00519,-0.01526,-0.02411,-0.0351,-0.03067,-0.08011,-0.06638,0.03448,-0.03784
7.4015,-0.04196,-0.12253,0.02457,-0.01221,-0.02121,-0.05051,-0.01328,-0.00397,-0.01678,-0.02136,-0.04105,-0.03281,-0.07523,-0.04135,0.02197,-0.0354
7.402,-0.03036,-0.16998,-0.02914,-0.01205,-0.02106,-0.04944,-0.01312,-0.00183,-0.01572,-0.01923,-0.03876,-0.03387,-0.0679,-0.03296,0.0087,-0.03784
7.4025,-0.01938,-0.21896,-0.09003,-0.01175,-0.02136,-0.04898,-0.01495,-0.00137,-0.01404,-0.01968,-0.04028,-0.03433,-0.06165,-0.03082,-0.00412,-0.03555
7.403,-0.01129,-0.23773,-0.1506,-0.01221,-0.02213,-0.04944,-0.01678,-0.00107,-0.01236,-0.02274,-0.04944,-0.03387,-0.0563,-0.02686,-0.00443,-0.02548
7.4035,-0.0061,-0.20844,-0.20187,-0.0119,-0.02411,-0.05081,-0.01755,-0.00061,-0.01205,-0.02396,-0.05676,-0.03464,-0.04791,-0.0209,0.00732,-0.01221
7.404,-0.00168,-0.14862,-0.23727,-0.01022,-0.02609,-0.05188,-0.01633,-0.00168,-0.0119,-0.02502,-0.05539,-0.03693,-0.03571,-0.01236,0.01907,-0.00122
7.4045,0.00214,-0.08286,-0.25085,-0.00702,-0.02777,-0.05295,-0.01526,-0.00305,-0.01221,-0.03174,-0.04318,-0.04211,-0.02502,-0.00259,0.01709,0.00381
7.405,0.00595,-0.02548,-0.23697,-0.00534,-0.02792,-0.05417,-0.01465,-0.00366,-0.01312,-0.04318,-0.03311,-0.04486,-0.02045,0.00397,-0.00076,0.00519
7.4055,0.00809,0.0206,-0.19592,-0.0058,-0.02777,-0.05493,-0.01343,-0.0032,-0.01373,-0.05188,-0.03235,-0.0415,-0.02106,0.00519,-0.02136,0.00366
7.406,0.00961,0.05173,-0.13458,-0.00793,-0.02823,-0.05661,-0.01343,-0.00275,-0.01419,-0.0528,-0.03998,-0.03448,-0.02274,0.00153,-0.02853,0.00275
7.4065,0.00946,0.0647,-0.06195,-0.0087,-0.03098,-0.05798,-0.01511,-0.00336,-0.01373,-0.0473,-0.05173,-0.02747,-0.02274,-0.00168,-0.02258,-0.00046
7.407,0.00687,0.06317,0.00565,-0.00717,-0.03555,-0.05875,-0.01663,-0.00381,-0.01373,-0.047,-0.06363,-0.01984,-0.02319,-0.00397,-0.0293,-0.00732
7.4075,0.00076,0.05447,0.06104,-0.00626,-0.04013,-0.0592,-0.01602,-0.00229,-0.01266,-0.056,-0.07156,-0.01297,-0.02625,-0.00992,-0.06668,-0.01968
7.408,-0.00351,0.04211,0.10117,-0.00732,-0.047,-0.05829,-0.01465,-0.00122,-0.01282,-0.0705,-0.07065,-0.00702,-0.02991,-0.0235,-0.09506,-0.0322
7.4085,-0.00381,0.02579,0.12787,-0.00809,-0.05508,-0.05432,-0.01297,-0.00061,-0.0148,-0.07462,-0.06058,-0.00366,-0.03479,-0.0412,-0.06012,-0.03693
7.409,-0.00061,0.00778,0.13336,-0.00732,-0.05844,-0.04456,-0.01144,-0.00107,-0.0174,-0.05814,-0.03952,0.00061,-0.03937,-0.05539,0.02625,-0.03357
7.4095,0.00183,-0.00778,0.11353,-0.00702,-0.05447,-0.03067,-0.00992,-0.00198,-0.01846,-0.02716,-0.00443,0.00885,-0.04242,-0.05951,0.09384,-0.02655
7.41,0.00183,-0.01801,0.07675,-0.00626,-0.04593,-0.02228,-0.00824,-0.00153,-0.01709,0.00458,0.0325,0.0177,-0.04257,-0.05341,0.1033,-0.02487
7.4105,0.00046,-0.02701,0.03754,-0.00549,-0.03952,-0.02426,-0.00656,0.00015,-0.01617,0.02747,0.05127,0.02213,-0.04349,-0.04593,0.08469,-0.03204
7.411,0.00076,-0.03601,0.01083,-0.00427,-0.03632,-0.03174,-0.00732,0.00153,-0.01465,0.04196,0.04333,0.02136,-0.04837,-0.04181,0.07828,-0.04288
7.4115,0.00412,-0.04227,0.00397,-0.00534,-0.03372,-0.03784,-0.0087,0.00137,-0.01114,0.04745,0.02167,0.01816,-0.04929,-0.03937,0.0853,-0.04944
7.412,0.00946,-0.04547,0.01312,-0.009,-0.03036,-0.0386,-0.01053,0.00137,-0.00687,0.04532,0.00137,0.0177,-0.03632,-0.03174,0.08499,-0.0499
7.4125,0.01465,-0.04791,0.03159,-0.0116,-0.02792,-0.0354,-0.01083,0.0,-0.00275,0.03937,-0.00809,0.0174,-0.01602,-0.01419,0.07324,-0.04898
7.413,0.01862,-0.05661,0.04456,-0.0119,-0.0293,-0.03189,-0.00931,-0.00046,-0.00183,0.03738,-0.01053,0.01617,-0.00473,0.00748,0.06058,-0.05066
7.4135,0.02136,-0.07462,0.04929,-0.01038,-0.03067,-0.02945,-0.00748,-0.00107,-0.00366,0.04059,-0.01038,0.01617,-0.01129,0.02411,0.04837,-0.05173
7.414,0.02213,-0.09964,0.03891,-0.01099,-0.02884,-0.03036,-0.00702,-0.00183,-0.00565,0.03754,-0.00763,0.0174,-0.02487,0.02335,0.03906,-0.05051
7.4145,0.01938,-0.12711,0.01343,-0.01328,-0.02213,-0.03357,-0.00854,-0.00214,-0.00473,0.02502,-0.00687,0.0206,-0.0296,0.00565,0.03159,-0.0473
7.415,0.01434,-0.14893,-0.01923,-0.01556,-0.01404,-0.03845,-0.00931,-0.00168,-0.00427,0.01144,-0.01266,0.02365,-0.02441,-0.01801,0.02762,-0.04669
7.4155,0.00763,-0.15656,-0.04974,-0.01511,-0.01114,-0.04395,-0.01022,-0.00046,-0.0087,0.00793,-0.02441,0.02502,-0.01404,-0.03204,0.02106,-0.0502
7.416,0.00137,-0.14664,-0.06546,-0.0116,-0.01373,-0.05005,-0.01144,0.00092,-0.01587,0.01526,-0.03464,0.02502,0.00488,-0.03235,0.01266,-0.05417
7.4165,-0.00244,-0.12482,-0.05692,-0.009,-0.01862,-0.05661,-0.01251,0.00137,-0.0206,0.01907,-0.03769,0.02457,0.03128,-0.02716,0.00519,-0.05615
7.417,-0.00473,-0.09827,-0.03052,-0.00824,-0.02365,-0.06134,-0.01434,0.00092,-0.02106,0.01373,-0.03677,0.02441,0.05676,-0.02487,-0.00076,-0.05615
7.4175,-0.00381,-0.07004,0.00046,-0.0087,-0.03052,-0.06058,-0.01663,-0.00214,-0.01846,0.00183,-0.03601,0.02396,0.0737,-0.02518,-0.00214,-0.05814
7.418,-0.00122,-0.03952,0.01678,-0.00793,-0.03876,-0.05295,-0.01831,-0.00412,-0.01587,-0.00885,-0.03403,0.02182,0.08804,-0.02518,0.00046,-0.0589
7.4185,0.00198,-0.00732,0.01648,-0.00717,-0.04395,-0.04166,-0.01907,-0.00305,-0.01526,-0.01663,-0.02838,0.01801,0.09857,-0.02396,0.00748,-0.05951
7.419,0.00488,0.02197,0.00443,-0.00687,-0.04242,-0.03021,-0.01831,-0.00229,-0.01923,-0.02502,-0.02121,0.01465,0.08942,-0.02274,0.0087,-0.0589
7.4195,0.00687,0.04196,-0.00809,-0.00656,-0.03708,-0.02502,-0.01801,-0.00168,-0.02457,-0.03738,-0.02502,0.01251,0.05356,-0.01556,0.0061,-0.05859
7.42,0.00763,0.0531,-0.01816,-0.0058,-0.0322,-0.02914,-0.01801,-0.00244,-0.0296,-0.04929,-0.04532,0.01251,0.0087,0.00336,-0.00076,-0.05508
7.4205,0.00397,0.05783,-0.01877,-0.00549,-0.02991,-0.04105,-0.01877,-0.00488,-0.03098,-0.05753,-0.07172,0.01419,-0.02441,0.0264,-0.01587,-0.05173
7.421,-0.00626,0.06042,0.0,-0.00641,-0.03052,-0.05264,-0.0174,-0.00671,-0.03021,-0.05447,-0.09415,0.01404,-0.047,0.0441,-0.03799,-0.04974
7.4215,-0.01968,0.05585,0.04059,-0.00809,-0.03204,-0.05737,-0.01511,-0.00656,-0.0267,-0.04456,-0.11215,0.01144,-0.07217,0.04852,-0.05966,-0.05096
7.422,-0.03143,0.03311,0.08026,-0.00916,-0.03372,-0.05859,-0.01221,-0.00458,-0.02457,-0.03647,-0.12466,0.01022,-0.10529,0.04562,-0.05844,-0.05478
7.4225,-0.03876,-0.00839,0.08408,-0.00793,-0.03418,-0.05859,-0.01251,-0.0032,-0.02548,-0.03723,-0.1178,0.01205,-0.14221,0.04379,-0.02365,-0.05951
7.423,-0.03784,-0.05386,0.0415,-0.0058,-0.03448,-0.05859,-0.01373,-0.00534,-0.02747,-0.04181,-0.07828,0.01404,-0.17365,0.04654,0.02762,-0.06302
7.4235,-0.03021,-0.08209,-0.0325,-0.0032,-0.03525,-0.05737,-0.01404,-0.00732,-0.02716,-0.04639,-0.0177,0.01602,-0.19562,0.0528,0.06516,-0.06241
7.424,-0.01953,-0.0856,-0.11642,-0.00214,-0.03601,-0.0563,-0.01175,-0.00671,-0.02487,-0.04486,0.03418,0.01572,-0.20172,0.05508,0.06714,-0.05936
7.4245,-0.01328,-0.07065,-0.19806,-0.00061,-0.03662,-0.05508,-0.00946,-0.00366,-0.02411,-0.04105,0.05463,0.01541,-0.1918,0.04364,0.02777,-0.05905
7.425,-0.01282,-0.04898,-0.24857,0.00229,-0.03738,-0.05569,-0.00946,-0.00183,-0.02777,-0.03571,0.05203,0.01724,-0.1709,0.00671,-0.02975,-0.06378
7.4255,-0.01648,-0.02502,-0.23071,0.00504,-0.0386,-0.05539,-0.01038,-0.00229,-0.03311,-0.03128,0.05356,0.0206,-0.14679,-0.065,-0.07141,-0.06866
7.426,-0.01923,-0.00275,-0.13046,0.00458,-0.04074,-0.05585,-0.01129,-0.00259,-0.03448,-0.02533,0.07202,0.02487,-0.11917,-0.14404,-0.07233,-0.06775
7.4265,-0.01694,0.01358,0.01205,0.0029,-0.04196,-0.05554,-0.01312,-0.00183,-0.03098,-0.02106,0.09735,0.03281,-0.08499,-0.17136,-0.03784,-0.06302
7.427,-0.01068,0.01953,0.1297,0.00244,-0.04013,-0.05539,-0.01572,-0.00198,-0.02747,-0.01694,0.10651,0.04242,-0.04303,-0.11154,0.00015,-0.05798
7.4275,-0.00351,0.0145,0.1712,0.00717,-0.0383,-0.05508,-0.01617,-0.00336,-0.02655,-0.01007,0.09216,0.0441,0.0029,-0.00671,0.01724,-0.05539
7.428,0.00259,0.00259,0.12634,0.00931,-0.03632,-0.05554,-0.01511,-0.00427,-0.0264,0.00198,0.06058,0.03448,0.04623,0.05936,0.02396,-0.05402
7.4285,0.00519,-0.00961,0.02899,-0.00244,-0.03662,-0.05539,-0.01236,-0.00336,-0.02579,0.01282,0.02243,0.01816,0.08072,0.05936,0.02914,-0.05356
7.429,0.00549,-0.01984,-0.0708,-0.03021,-0.03723,-0.05539,-0.01175,-0.00259,-0.02258,0.01007,-0.01999,0.00595,0.09628,0.03006,0.02884,-0.05341
7.4295,0.00488,-0.02777,-0.13855,-0.05539,-0.03632,-0.0528,-0.01343,-0.00214,-0.01617,-0.0058,-0.06348,-0.00198,0.09094,0.01068,0.0116,-0.05356
7.43,0.00259,-0.03372,-0.17197,-0.05386,-0.03525,-0.05051,-0.01511,-0.00275,-0.00717,-0.02258,-0.09613,-0.00641,0.07111,0.00076,-0.00702,-0.0531
7.4305,0.0,-0.04242,-0.18265,-0.0293,-0.0351,-0.04974,-0.01495,-0.00336,-0.00092,-0.02914,-0.11093,-0.00977,0.04837,-0.01038,-0.00427,-0.05463
7.431,-0.0029,-0.05554,-0.177,-0.00885,-0.03448,-0.05035,-0.01465,-0.0029,0.00275,-0.02777,-0.112,-0.01175,0.02365,-0.02319,0.02686,-0.05768
7.4315,-0.0029,-0.06943,-0.15106,-0.00626,-0.03342,-0.04974,-0.01495,-0.00275,0.00275,-0.02472,-0.10651,-0.01312,-0.00656,-0.03647,0.06516,-0.05981
7.432,-0.00168,-0.07614,-0.11139,-0.01389,-0.03006,-0.04868,-0.01709,-0.00259,-0.00092,-0.02426,-0.09628,-0.01511,-0.04257,-0.05646,0.0882,-0.05981
7.4325,0.0,-0.07141,-0.06897,-0.01694,-0.02792,-0.04837,-0.01617,-0.00122,-0.0058,-0.02502,-0.07782,-0.01755,-0.07751,-0.08377,0.08713,-0.0589
7.433,0.00107,-0.05707,-0.03693,-0.01434,-0.02655,-0.04944,-0.01465,-0.00061,-0.009,-0.02518,-0.04684,-0.01968,-0.10345,-0.10773,0.07309,-0.05707
7.4335,0.00137,-0.03845,-0.01846,-0.01282,-0.02625,-0.05112,-0.01099,-0.00061,-0.00931,-0.02289,-0.00153,-0.01968,-0.1152,-0.12329,0.06393,-0.05341
7.434,0.00244,-0.01968,-0.00641,-0.01404,-0.02563,-0.05173,-0.00992,-0.00137,-0.00824,-0.02396,0.05127,-0.0206,-0.112,-0.1355,0.06317,-0.04898
7.4345,0.00443,-0.00977,0.00061,-0.01617,-0.0238,-0.04852,-0.01083,-0.00137,-0.01007,-0.04181,0.10239,-0.02029,-0.0946,-0.14526,0.05569,-0.04486
7.435,0.00443,-0.01221,-0.00229,-0.01755,-0.02106,-0.04623,-0.01236,-0.00137,-0.01465,-0.08224,0.13504,-0.01846,-0.07111,-0.13565,0.02411,-0.04211
7.4355,0.00244,-0.02441,-0.01801,-0.01816,-0.02289,-0.04654,-0.01389,-0.00046,-0.0209,-0.12299,0.14496,-0.01556,-0.05417,-0.09811,-0.02609,-0.03922
7.436,-0.00198,-0.03784,-0.03677,-0.01709,-0.03006,-0.04868,-0.01541,0.00031,-0.02625,-0.13306,0.13641,-0.01175,-0.05051,-0.05066,-0.06943,-0.03616
7.4365,-0.00626,-0.04578,-0.04135,-0.01526,-0.03769,-0.04944,-0.01709,0.00046,-0.03113,-0.10468,0.11398,-0.00717,-0.05478,-0.02029,-0.08621,-0.03647
7.437,-0.00961,-0.0528,-0.02914,-0.0145,-0.03845,-0.04837,-0.01968,-0.00183,-0.0322,-0.06805,0.07492,-0.00198,-0.0563,-0.0119,-0.07797,-0.03967
7.4375,-0.01007,-0.05997,-0.00778,-0.01312,-0.03265,-0.04593,-0.02029,-0.0061,-0.02686,-0.05371,0.02396,0.00015,-0.05219,-0.01297,-0.05737,-0.04303
7.438,-0.00778,-0.06653,0.0087,-0.01236,-0.02731,-0.04517,-0.02136,-0.00931,-0.01663,-0.06409,-0.02441,0.00031,-0.04791,-0.01144,-0.03372,-0.04578
7.4385,-0.00595,-0.0679,0.01343,-0.01144,-0.02884,-0.04761,-0.02228,-0.00992,-0.00702,-0.07645,-0.05478,-0.00061,-0.04471,-0.00427,-0.00732,-0.04578
7.439,-0.00717,-0.06485,0.01053,-0.01007,-0.03143,-0.04959,-0.02106,-0.00854,-0.00244,-0.07156,-0.06424,-0.00046,-0.04257,0.00137,0.02228,-0.04364
7.4395,-0.00793,-0.06592,0.00824,-0.009,-0.03052,-0.05051,-0.01846,-0.00717,-0.00168,-0.04822,-0.05875,0.00015,-0.03891,0.00534,0.05737,-0.04044
7.44,-0.00443,-0.08148,0.00763,-0.00931,-0.02716,-0.05081,-0.01678,-0.0061,-0.00351,-0.01801,-0.04578,-0.00229,-0.03159,0.00641,0.09125,-0.03891
7.4405,0.00168,-0.11169,0.00748,-0.00748,-0.0238,-0.05188,-0.01678,-0.00458,-0.00671,0.00748,-0.03204,-0.00732,-0.02197,0.00473,0.10239,-0.03967
7.441,0.00702,-0.14328,0.00763,-0.00168,-0.02289,-0.05341,-0.01663,-0.00305,-0.00961,0.02365,-0.02289,-0.01221,-0.009,0.00412,0.08148,-0.04242
7.4415,0.01221,-0.1564,0.00778,0.00458,-0.02289,-0.05447,-0.0174,-0.0032,-0.01068,0.03357,-0.01907,-0.01541,0.00427,0.00702,0.0473,-0.04547
7.442,0.01831,-0.14481,0.00824,0.01022,-0.02167,-0.05524,-0.01892,-0.00519,-0.01114,0.04059,-0.01633,-0.01678,0.01144,0.01144,0.02625,-0.04684
7.4425,0.0264,-0.112,0.00671,0.01144,-0.01968,-0.05554,-0.01862,-0.0061,-0.01251,0.04486,-0.01083,-0.01678,0.01221,0.0148,0.02762,-0.04791
7.443,0.03326,-0.07309,0.00381,0.01114,-0.01755,-0.05615,-0.0177,-0.00397,-0.01389,0.04669,-0.0058,-0.01587,0.00885,0.01495,0.03937,-0.04898
7.4435,0.03601,-0.03601,-0.0029,0.00824,-0.01801,-0.05432,-0.01602,-0.00076,-0.01328,0.03998,-0.00549,-0.01617,0.00641,0.01282,0.04272,-0.05051
7.444,0.03479,-0.00595,-0.01205,0.00443,-0.02151,-0.05295,-0.01495,0.00031,-0.01266,0.02853,-0.01328,-0.01785,0.00778,0.01312,0.02975,-0.05173
7.4445,0.03067,0.01205,-0.02228,0.00046,-0.02594,-0.05173,-0.0148,-0.00183,-0.01236,0.01755,-0.02075,-0.01663,0.01953,0.01434,0.00763,-0.05264
7.445,0.02182,0.01938,-0.0325,-0.00214,-0.02975,-0.05173,-0.01511,-0.00397,-0.01282,0.01175,-0.02335,-0.01266,0.04639,0.01511,-0.01343,-0.05127
7.4455,0.00824,0.01968,-0.04257,-0.0032,-0.03098,-0.05173,-0.01663,-0.00504,-0.0119,0.01144,-0.02243,-0.00854,0.07614,0.01602,-0.02472,-0.04929
7.446,-0.01083,0.01816,-0.05508,-0.00305,-0.02991,-0.05127,-0.01709,-0.00427,-0.00946,0.01694,-0.0206,-0.00824,0.08484,0.01526,-0.02563,-0.05005
7.4465,-0.0293,0.01511,-0.06989,-0.00076,-0.02747,-0.0499,-0.01831,-0.00259,-0.0087,0.03647,-0.01968,-0.01068,0.06012,0.01373,-0.0177,-0.05219
7.447,-0.04074,0.00656,-0.08438,0.00473,-0.02655,-0.0499,-0.01831,-0.00092,-0.00946,0.07019,-0.01755,-0.01282,0.01602,0.00992,-0.00885,-0.0531
7.4475,-0.04211,-0.00656,-0.09247,0.00717,-0.02884,-0.0502,-0.01877,-0.00107,-0.00778,0.09598,-0.01389,-0.01312,-0.02731,0.0061,-0.00641,-0.05142
7.448,-0.03555,-0.02243,-0.09567,0.0032,-0.03006,-0.0499,-0.01862,-0.0032,0.00061,0.08621,-0.01083,-0.01099,-0.05997,0.0032,-0.00946,-0.05035
7.4485,-0.02731,-0.03586,-0.09552,-0.00549,-0.03067,-0.04807,-0.01892,-0.00504,0.01297,0.04471,-0.00504,-0.00946,-0.08316,0.00076,-0.01053,-0.05112
7.449,-0.02258,-0.04547,-0.09491,-0.01083,-0.03021,-0.04578,-0.01968,-0.00656,0.02029,-0.00061,0.00259,-0.00885,-0.09872,-0.00229,-0.00488,-0.05127
7.4495,-0.02121,-0.05035,-0.09262,-0.01144,-0.0296,-0.04379,-0.01862,-0.00656,0.01984,-0.02502,0.01144,-0.00854,-0.1033,-0.00732,-0.00092,-0.05051
7.45,-0.01968,-0.04974,-0.0885,-0.00854,-0.02869,-0.04272,-0.01678,-0.00488,0.01572,-0.03067,0.01495,-0.0058,-0.09521,-0.01114,-0.00351,-0.04883
7.4505,-0.01633,-0.04471,-0.0827,-0.00595,-0.02655,-0.04166,-0.01511,-0.0032,0.01068,-0.0322,0.00977,-0.00336,-0.0798,-0.01221,-0.00916,-0.04761
7.451,-0.01251,-0.04028,-0.07599,-0.00534,-0.02319,-0.04105,-0.01526,-0.00305,0.00214,-0.03632,0.0032,-0.00137,-0.06546,-0.01175,-0.01068,-0.04608
7.4515,-0.01007,-0.03677,-0.06973,-0.00641,-0.01984,-0.04013,-0.0174,-0.0058,-0.01266,-0.0383,-0.00107,0.00092,-0.05402,-0.01389,-0.00839,-0.04303
7.452,-0.00778,-0.03708,-0.065,-0.00946,-0.01801,-0.04044,-0.01755,-0.00748,-0.03082,-0.0383,-0.00854,0.00183,-0.04654,-0.01999,-0.00534,-0.03906
7.4525,-0.0061,-0.0386,-0.06119,-0.01129,-0.02106,-0.04028,-0.01511,-0.00671,-0.04562,-0.04028,-0.02289,0.00107,-0.04303,-0.02899,-0.00137,-0.03494
7.453,-0.0058,-0.03952,-0.05753,-0.01083,-0.02335,-0.04089,-0.01205,-0.00427,-0.04822,-0.04669,-0.03647,0.00031,-0.03876,-0.03616,0.00198,-0.02777
7.4535,-0.0058,-0.03754,-0.05356,-0.00961,-0.02487,-0.04196,-0.01038,-0.00229,-0.03601,-0.056,-0.03952,0.00015,-0.03113,-0.0386,0.0029,-0.01938
7.454,-0.00687,-0.03235,-0.04913,-0.00977,-0.0264,-0.04395,-0.01053,-0.00214,-0.01556,-0.06531,-0.03372,0.00153,-0.02213,-0.03723,-0.00107,-0.0145
7.4545,-0.00702,-0.02411,-0.04517,-0.0116,-0.02975,-0.04562,-0.01068,-0.00381,0.00443,-0.07019,-0.03082,0.00336,-0.0148,-0.03632,-0.00778,-0.0174
7.455,-0.00626,-0.01724,-0.04364,-0.01434,-0.03098,-0.04608,-0.01221,-0.00595,0.02106,-0.07034,-0.03601,0.00534,-0.00946,-0.03571,-0.01709,-0.0235
7.4555,-0.0061,-0.01587,-0.04364,-0.01633,-0.03006,-0.047,-0.01205,-0.00671,0.03204,-0.06485,-0.04395,0.00656,-0.00534,-0.03601,-0.02914,-0.02777
7.456,-0.00626,-0.01846,-0.04349,-0.01572,-0.02899,-0.04684,-0.01251,-0.00656,0.03448,-0.0592,-0.05173,0.00519,-0.00381,-0.03403,-0.03632,-0.03052
7.4565,-0.00702,-0.02518,-0.0415,-0.01266,-0.02899,-0.04639,-0.01221,-0.00565,0.0267,-0.05493,-0.05478,0.00244,-0.0058,-0.03098,-0.02792,-0.03616
7.457,-0.00641,-0.03143,-0.0383,-0.0116,-0.0296,-0.04669,-0.01282,-0.00473,0.00839,-0.05432,-0.05157,0.00168,-0.00916,-0.02869,-0.00092,-0.04425
7.4575,-0.0058,-0.03571,-0.03647,-0.0116,-0.03082,-0.04715,-0.0116,-0.00443,-0.02106,-0.05798,-0.04211,0.00305,-0.00961,-0.02747,0.03906,-0.0499
7.458,-0.00626,-0.03723,-0.03479,-0.01282,-0.03159,-0.04791,-0.01205,-0.0029,-0.05554,-0.05722,-0.02899,0.00748,-0.00504,-0.02655,0.0769,-0.04944
7.4585,-0.00809,-0.03616,-0.03433,-0.01266,-0.03342,-0.04898,-0.01282,-0.00244,-0.08408,-0.05173,-0.01114,0.01358,-0.00153,-0.02472,0.10284,-0.04532
7.459,-0.009,-0.03464,-0.03403,-0.01266,-0.0354,-0.04974,-0.01328,-0.00305,-0.09628,-0.04471,0.00687,0.02151,0.0,-0.02502,0.10117,-0.04074
7.4595,-0.00778,-0.03433,-0.0325,-0.01373,-0.03525,-0.05157,-0.01282,-0.00412,-0.09506,-0.03967,0.01678,0.02899,-0.00259,-0.02457,0.05386,-0.0383
7.46,-0.00641,-0.03296,-0.03235,-0.01328,-0.03403,-0.05371,-0.01328,-0.00504,-0.09201,-0.03738,0.01663,0.03296,-0.00916,-0.02487,-0.03067,-0.03647
7.4605,-0.0058,-0.03113,-0.0322,-0.01144,-0.03403,-0.05386,-0.01389,-0.00443,-0.08942,-0.03555,0.01297,0.03189,-0.02045,-0.02548,-0.11276,-0.03632
7.461,-0.00626,-0.0293,-0.03113,-0.00946,-0.03601,-0.05539,-0.01389,-0.00443,-0.08301,-0.03571,0.01312,0.02838,-0.03128,-0.02655,-0.14664,-0.03922
7.4615,-0.00427,-0.02655,-0.03067,-0.00793,-0.03693,-0.05569,-0.01236,-0.00397,-0.06744,-0.03693,0.01358,0.02594,-0.03387,-0.02777,-0.11261,-0.04211
7.462,-0.00107,-0.02304,-0.03021,-0.00839,-0.03571,-0.05478,-0.01175,-0.0032,-0.04684,-0.03784,0.00763,0.0267,-0.02991,-0.02914,-0.02975,-0.04501
7.4625,0.00092,-0.02151,-0.03006,-0.00916,-0.03433,-0.05295,-0.01389,-0.00275,-0.03235,-0.03387,-0.00443,0.02991,-0.02319,-0.02991,0.04745,-0.04745
7.463,-0.00015,-0.02075,-0.02975,-0.00946,-0.03372,-0.05035,-0.01404,-0.00412,-0.0293,-0.02686,-0.02075,0.03143,-0.01785,-0.02701,0.0621,-0.04791
7.4635,-0.00244,-0.02228,-0.02853,-0.01053,-0.03403,-0.04974,-0.0148,-0.00427,-0.0325,-0.01907,-0.04272,0.03113,-0.01328,-0.02502,0.00351,-0.0499
7.464,-0.00397,-0.02411,-0.02853,-0.01266,-0.03571,-0.04929,-0.01526,-0.00244,-0.03372,-0.00946,-0.06714,0.02838,-0.01083,-0.02472,-0.08392,-0.05005
7.4645,-0.00336,-0.02472,-0.02686,-0.01389,-0.0383,-0.04791,-0.01801,-0.00153,-0.03006,0.00076,-0.08667,0.02899,-0.01175,-0.02838,-0.12833,-0.04837
7.465,-0.00229,-0.02365,-0.02411,-0.01312,-0.03937,-0.04761,-0.01801,-0.00427,-0.02441,0.00702,-0.09689,0.03311,-0.01434,-0.0322,-0.08621,-0.04379
7.4655,-0.00168,-0.01999,-0.02365,-0.01175,-0.03815,-0.04822,-0.01678,-0.01266,-0.01984,0.00549,-0.09903,0.03586,-0.01648,-0.03326,0.01541,-0.03677
7.466,-0.00168,-0.0174,-0.02533,-0.01251,-0.03632,-0.04868,-0.01572,-0.02136,-0.01678,-0.00397,-0.09384,0.0354,-0.01633,-0.03113,0.08713,-0.02716
7.4665,-0.00168,-0.01709,-0.02548,-0.0145,-0.03571,-0.04868,-0.01602,-0.02441,-0.01358,-0.01419,-0.0769,0.03311,-0.01846,-0.02853,0.06653,-0.01938
7.467,-0.00183,-0.01892,-0.02609,-0.01572,-0.03677,-0.04898,-0.01617,-0.02106,-0.00977,-0.02304,-0.05005,0.0293,-0.02335,-0.02518,-0.02029,-0.01694
7.4675,-0.00244,-0.02151,-0.02563,-0.01373,-0.03647,-0.04974,-0.01572,-0.01526,-0.00763,-0.02914,-0.01633,0.0267,-0.02686,-0.02335,-0.09369,-0.0209
7.468,-0.00259,-0.02319,-0.02731,-0.01099,-0.03479,-0.05066,-0.01511,-0.01297,-0.00641,-0.03036,0.0238,0.02686,-0.02853,-0.01907,-0.09964,-0.02884
7.4685,-0.0032,-0.02518,-0.0293,-0.00885,-0.03143,-0.05051,-0.01343,-0.01221,-0.00473,-0.02853,0.06866,0.02853,-0.03036,-0.0148,-0.06149,-0.03754
7.469,-0.00336,-0.02747,-0.03067,-0.01083,-0.02777,-0.04929,-0.01343,-0.00916,-0.00366,-0.02518,0.11047,0.02975,-0.03464,-0.00961,-0.03311,-0.04623
7.4695,-0.00229,-0.0296,-0.0296,-0.01648,-0.02426,-0.04745,-0.01373,-0.00488,-0.00366,-0.02167,0.13351,0.03006,-0.04105,-0.00351,-0.03021,-0.04837
7.47,-0.00046,-0.03128,-0.02701,-0.02213,-0.02396,-0.04684,-0.01312,-0.00275,-0.00488,-0.01877,0.13397,0.03143,-0.04532,0.00565,-0.01968,-0.04288
7.4705,0.00015,-0.0325,-0.02411,-0.02594,-0.02777,-0.04684,-0.01129,-0.00473,-0.00732,-0.01678,0.1149,0.03143,-0.04684,0.01602,0.02213,-0.03754
7.471,0.00214,-0.03265,-0.02274,-0.02457,-0.03387,-0.04501,-0.00931,-0.00626,-0.00671,-0.01617,0.08881,0.02899,-0.04593,0.0177,0.07767,-0.03616
7.4715,0.00381,-0.03357,-0.02396,-0.01907,-0.03479,-0.04288,-0.00992,-0.00275,-0.00336,-0.0174,0.056,0.02426,-0.04623,-0.00183,0.11902,-0.0415
7.472,0.00427,-0.03693,-0.02609,-0.01404,-0.0293,-0.04166,-0.01251,0.00381,0.0,-0.01755,0.02274,0.01999,-0.05005,-0.0444,0.13382,-0.04395
7.4725,0.00244,-0.03952,-0.02823,-0.01099,-0.0238,-0.04303,-0.01495,0.009,0.00092,-0.01541,-0.00244,0.01617,-0.05417,-0.08408,0.12985,-0.04211
7.473,-0.00092,-0.04105,-0.02777,-0.00961,-0.02304,-0.04517,-0.01663,0.01114,0.00015,-0.01175,-0.0148,0.01266,-0.05554,-0.08621,0.11978,-0.04135
7.4735,-0.0029,-0.04135,-0.02533,-0.01022,-0.02609,-0.04593,-0.01724,0.01038,0.00015,-0.00702,-0.01724,0.00885,-0.05432,-0.05234,0.1091,-0.04395
7.474,-0.00153,-0.04242,-0.02884,-0.01114,-0.03113,-0.04623,-0.0174,0.00793,0.00076,-0.00443,-0.02029,0.00534,-0.05188,-0.01907,0.09872,-0.04532
7.4745,-0.00015,-0.04456,-0.02914,-0.01266,-0.0351,-0.04562,-0.01755,0.00504,0.00076,-0.00366,-0.02548,0.00122,-0.04807,-0.01266,0.07706,-0.04288
7.475,-0.00259,-0.0473,-0.03098,-0.01358,-0.0386,-0.04532,-0.01572,0.00565,-0.00061,-0.00397,-0.02274,-0.00519,-0.0412,-0.02151,0.05127,-0.0415
7.4755,-0.0061,-0.05005,-0.03006,-0.01434,-0.04303,-0.04501,-0.01144,0.01526,-0.00336,-0.00381,-0.01801,-0.0119,-0.02792,-0.02777,0.0296,-0.04288
7.476,-0.00732,-0.05096,-0.03067,-0.01617,-0.047,-0.04639,-0.00687,0.03113,-0.0058,-0.00214,-0.01709,-0.0174,-0.00656,-0.02731,0.02289,-0.04562
7.4765,-0.00504,-0.04944,-0.0325,-0.01846,-0.04669,-0.04745,-0.00473,0.04181,-0.00641,0.00183,-0.02289,-0.01892,0.0235,-0.02853,0.02365,-0.04501
7.477,-0.00275,-0.04883,-0.03281,-0.02029,-0.04257,-0.04852,-0.00488,0.03464,-0.00534,0.01419,-0.03479,-0.01709,0.05844,-0.03067,0.02319,-0.04272
7.4775,-0.00259,-0.04898,-0.03235,-0.01907,-0.04089,-0.04898,-0.0061,0.01541,-0.00397,0.04318,-0.04593,-0.01511,0.0853,-0.03143,0.01938,-0.04105
7.478,-0.00595,-0.05035,-0.03128,-0.01495,-0.04333,-0.04852,-0.00763,-0.00092,-0.00565,0.07843,-0.05386,-0.01633,0.08743,-0.02991,0.01587,-0.04166
7.4785,-0.00977,-0.0531,-0.03143,-0.01053,-0.04745,-0.04868,-0.009,-0.00565,-0.00626,0.09308,-0.06042,-0.0209,0.05478,-0.02777,0.01404,-0.04303
7.479,-0.01068,-0.05554,-0.03143,-0.00961,-0.04883,-0.04852,-0.00992,-0.00473,-0.00595,0.06912,-0.06531,-0.02563,-0.0032,-0.02594,0.01099,-0.04196
7.4795,-0.00824,-0.05692,-0.03082,-0.01083,-0.04593,-0.04822,-0.00992,-0.00351,-0.00397,0.02396,-0.05478,-0.0296,-0.06546,-0.02594,0.00702,-0.03433
7.48,-0.00549,-0.05585,-0.03281,-0.01328,-0.04211,-0.0473,-0.00946,-0.00046,0.00031,-0.01144,-0.02487,-0.03174,-0.11673,-0.02655,0.0032,-0.02106
7.4805,-0.00565,-0.05493,-0.03387,-0.01389,-0.04044,-0.04761,-0.00885,0.00549,0.00748,-0.02579,0.01129,-0.03342,-0.15182,-0.02838,0.0029,-0.01312
7.481,-0.00626,-0.05554,-0.0354,-0.01434,-0.03937,-0.04944,-0.00748,0.00916,0.01465,-0.02777,0.03418,-0.03448,-0.16815,-0.02975,0.00381,-0.02502
7.4815,-0.00717,-0.05661,-0.03479,-0.01419,-0.03693,-0.05035,-0.00702,0.00824,0.01724,-0.02762,0.03128,-0.0354,-0.16815,-0.03174,0.00046,-0.05478
7.482,-0.00702,-0.05585,-0.03357,-0.01511,-0.0351,-0.05051,-0.00656,0.00412,0.01373,-0.02792,0.01282,-0.04028,-0.15457,-0.03021,0.00168,-0.07385
7.4825,-0.00565,-0.05417,-0.03372,-0.01511,-0.0351,-0.05066,-0.00656,0.0,0.00641,-0.0267,-0.00656,-0.05157,-0.13351,-0.02045,0.01892,-0.05936
7.483,-0.00549,-0.05325,-0.03357,-0.01358,-0.03723,-0.05157,-0.00549,-0.00336,-0.00046,-0.02289,-0.01816,-0.06561,-0.10529,-0.00092,0.04745,-0.02228
7.4835,-0.00534,-0.05417,-0.03326,-0.00992,-0.03967,-0.05188,-0.00504,-0.00763,-0.0061,-0.02121,-0.02167,-0.07233,-0.065,0.01587,0.0592,-0.00885
7.484,-0.00565,-0.05493,-0.0325,-0.00732,-0.0415,-0.05096,-0.00687,-0.01251,-0.01144,-0.02762,-0.02426,-0.07339,-0.01373,0.02029,0.03052,-0.04181
7.4845,-0.00397,-0.05371,-0.03235,-0.00763,-0.04242,-0.0502,-0.01114,-0.01526,-0.01633,-0.03784,-0.02594,-0.07263,0.03143,0.01892,-0.02213,-0.09293
7.485,-0.00305,-0.05234,-0.03174,-0.009,-0.04181,-0.05096,-0.01587,-0.01877,-0.02045,-0.04379,-0.02975,-0.07294,0.04898,0.01968,-0.05539,-0.10956
7.4855,-0.00229,-0.05264,-0.03311,-0.00916,-0.0412,-0.05142,-0.0206,-0.02304,-0.02304,-0.03815,-0.02899,-0.06943,0.03342,0.02167,-0.05569,-0.07706
7.486,-0.00122,-0.0531,-0.03265,-0.00854,-0.04074,-0.0502,-0.02594,-0.02472,-0.02502,-0.02609,-0.02533,-0.0589,-0.00092,0.01572,-0.03708,-0.02975
7.4865,-0.00015,-0.05325,-0.03204,-0.00793,-0.03815,-0.04807,-0.02975,-0.01938,-0.02563,-0.01984,-0.0238,-0.04257,-0.03189,0.00427,-0.01709,-0.00626
7.487,0.0,-0.0528,-0.03326,-0.00885,-0.03311,-0.04639,-0.02914,-0.01022,-0.02518,-0.02106,-0.02457,-0.0267,-0.0412,-0.00443,0.00061,-0.01434
7.4875,-0.00122,-0.05249,-0.03479,-0.00977,-0.02792,-0.04654,-0.02411,-0.00443,-0.02426,-0.02716,-0.0354,-0.01389,-0.02182,-0.0061,0.01968,-0.03677
7.488,-0.00229,-0.05188,-0.03586,-0.00916,-0.02533,-0.04654,-0.0177,-0.00381,-0.02304,-0.03403,-0.047,-0.00504,0.00778,-0.00504,0.03006,-0.05463
7.4885,-0.00122,-0.05127,-0.03525,-0.00732,-0.02319,-0.04532,-0.01373,-0.00626,-0.0238,-0.03799,-0.05371,-0.00381,0.01556,-0.00626,0.03021,-0.06531
7.489,0.00092,-0.05035,-0.03372,-0.00717,-0.01923,-0.04364,-0.01266,-0.00839,-0.02457,-0.03693,-0.05692,-0.00992,-0.01358,-0.00671,0.02655,-0.07355
7.4895,0.00122,-0.04929,-0.03326,-0.00854,-0.01343,-0.04181,-0.01038,-0.00839,-0.02457,-0.03128,-0.04807,-0.01343,-0.0621,-0.00305,0.02716,-0.08011
7.49,0.00168,-0.04974,-0.03342,-0.01068,-0.00946,-0.0412,-0.00824,-0.00839,-0.02167,-0.02777,-0.03555,-0.00198,-0.10483,0.00397,0.02762,-0.07874
7.4905,0.00214,-0.05157,-0.03357,-0.01053,-0.01022,-0.04074,-0.00778,-0.01007,-0.01801,-0.02716,-0.0267,0.0206,-0.12985,0.00839,0.02106,-0.07004
7.491,0.00427,-0.05249,-0.03311,-0.009,-0.01419,-0.04059,-0.01038,-0.00977,-0.01602,-0.02441,-0.01984,0.03647,-0.14297,0.00946,0.01053,-0.05966
7.4915,0.00549,-0.05112,-0.03281,-0.00854,-0.01999,-0.03983,-0.01419,-0.00595,-0.01709,-0.01877,-0.01755,0.03311,-0.15091,0.00854,0.00519,-0.0563
7.492,0.00534,-0.05005,-0.03235,-0.00946,-0.02335,-0.03876,-0.01709,0.00137,-0.01938,-0.01434,-0.0119,0.01709,-0.15198,0.00641,0.00671,-0.0589
7.4925,0.00366,-0.05081,-0.03372,-0.01007,-0.02411,-0.03662,-0.01999,0.01205,-0.02045,-0.01511,-0.00641,0.00519,-0.14023,0.00259,0.009,-0.06058
7.493,0.00305,-0.05234,-0.03403,-0.00931,-0.02304,-0.03632,-0.02396,0.02304,-0.02045,-0.01648,-0.0058,0.00366,-0.11322,-0.00061,0.00809,-0.05875
7.4935,0.00153,-0.05249,-0.03403,-0.00885,-0.02243,-0.03891,-0.02838,0.03006,-0.01953,-0.01495,-0.01266,0.00702,-0.08362,-0.00366,0.00534,-0.056
7.494,-0.00015,-0.05081,-0.03418,-0.00992,-0.0235,-0.04425,-0.0296,0.03052,-0.01755,-0.00992,-0.03113,0.009,-0.06683,-0.00641,0.00229,-0.056
7.4945,-0.00259,-0.04959,-0.03342,-0.0116,-0.02701,-0.05173,-0.02808,0.02548,-0.01434,-0.00412,-0.05493,0.0087,-0.05753,-0.0087,0.00122,-0.05768
7.495,-0.00504,-0.0499,-0.03204,-0.01282,-0.03143,-0.0592,-0.02533,0.01877,-0.0116,0.00031,-0.07797,0.0058,-0.03754,-0.01068,0.00259,-0.05661
7.4955,-0.00763,-0.05173,-0.03128,-0.01266,-0.03555,-0.06226,-0.02151,0.00885,-0.00916,0.0032,-0.08728,0.00443,0.00259,-0.01282,0.00641,-0.05447
7.496,-0.00977,-0.05219,-0.03296,-0.01175,-0.03738,-0.05676,-0.01785,-0.00565,-0.00626,0.00504,-0.07813,0.00259,0.04089,-0.01465,0.01038,-0.05569
7.4965,-0.01099,-0.05234,-0.03555,-0.01053,-0.03845,-0.04883,-0.0148,-0.02289,-0.00458,0.00427,-0.06638,0.00122,0.04242,-0.01343,0.01114,-0.0592
7.497,-0.01144,-0.05173,-0.03647,-0.00854,-0.03738,-0.0444,-0.01373,-0.03662,-0.00549,0.00214,-0.056,0.00214,0.00336,-0.01144,0.00748,-0.0621
7.4975,-0.0119,-0.0502,-0.03571,-0.00595,-0.03342,-0.04517,-0.01312,-0.03174,-0.00824,0.00046,-0.0499,0.00168,-0.04364,-0.0119,0.00259,-0.06012
7.498,-0.01221,-0.04913,-0.03387,-0.0058,-0.02945,-0.047,-0.01266,-0.00137,-0.01022,-0.00244,-0.0415,0.0,-0.06592,-0.01312,0.00137,-0.05676
7.4985,-0.01221,-0.04944,-0.03342,-0.00809,-0.02655,-0.047,-0.01511,0.0293,-0.01114,-0.00671,-0.03159,0.00015,-0.06561,-0.01389,0.00305,-0.05508
7.499,-0.01175,-0.05096,-0.03357,-0.01053,-0.02625,-0.04745,-0.02197,0.03036,-0.01038,-0.01099,-0.02762,0.00244,-0.07095,-0.01328,0.00565,-0.05493
7.4995,-0.01144,-0.05096,-0.03342,-0.01068,-0.02808,-0.04868,-0.02853,0.00824,-0.0087,-0.01373,-0.02609,0.00519,-0.09048,-0.0119,0.00809,-0.05447
7.5,-0.01099,-0.05005,-0.03357,-0.00687,-0.03021,-0.04974,-0.02731,-0.00534,-0.00702,-0.01389,-0.02579,0.00854,-0.11124,-0.01099,0.01068,-0.05219
7.5005,-0.01114,-0.04807,-0.03479,-0.0032,-0.0322,-0.04883,-0.01755,-0.00092,-0.00885,-0.01633,-0.02365,0.00992,-0.12466,-0.01007,0.01434,-0.04944
7.501,-0.01053,-0.04684,-0.03647,-0.00015,-0.03448,-0.04684,-0.00656,0.00961,-0.01373,-0.02106,-0.01785,0.01114,-0.13031,-0.00793,0.01572,-0.04501
7.5015,-0.00839,-0.04639,-0.03647,-0.00015,-0.03723,-0.04578,0.00031,0.01556,-0.01587,-0.02594,-0.00687,0.01083,-0.13489,-0.00565,0.01465,-0.04074
7.502,-0.00641,-0.04608,-0.03448,-0.00153,-0.03555,-0.047,0.0032,0.0145,-0.0148,-0.02823,0.01312,0.01022,-0.13931,-0.00595,0.01038,-0.03784
7.5025,-0.00641,-0.04639,-0.03357,-0.0029,-0.02899,-0.05096,0.00427,-0.00214,-0.01373,-0.02701,0.0383,0.00931,-0.13702,-0.01007,0.00641,-0.03738
7.503,-0.00717,-0.04608,-0.03403,-0.00412,-0.02197,-0.05722,-0.00046,-0.04929,-0.01602,-0.02548,0.06607,0.00809,-0.11932,-0.01495,0.0058,-0.03891
7.5035,-0.00961,-0.04562,-0.03403,-0.00458,-0.01999,-0.0647,-0.01221,-0.11734,-0.01907,-0.02655,0.08316,0.00534,-0.08469,-0.01877,0.00854,-0.04471
7.504,-0.0116,-0.04608,-0.03357,-0.00565,-0.02487,-0.07065,-0.0264,-0.16418,-0.0206,-0.03189,0.07843,0.00244,-0.04044,-0.01755,0.01282,-0.05112
7.5045,-0.01114,-0.04761,-0.03235,-0.00443,-0.03113,-0.07248,-0.03342,-0.14893,-0.02029,-0.03693,0.06165,0.00015,0.0032,-0.0116,0.01801,-0.05249
7.505,-0.00885,-0.04791,-0.03021,-0.00458,-0.03265,-0.0708,-0.03082,-0.06546,-0.01892,-0.0415,0.04227,0.00122,0.04318,-0.00519,0.02365,-0.04623
7.5055,-0.00717,-0.04654,-0.02884,-0.01022,-0.02991,-0.0676,-0.02197,0.03922,-0.01694,-0.04349,0.02228,0.00488,0.08209,-0.00168,0.03448,-0.03998
7.506,-0.00839,-0.04395,-0.02991,-0.02167,-0.02701,-0.06424,-0.01068,0.09277,-0.01602,-0.04181,0.00519,0.00793,0.11414,-0.00412,0.04578,-0.04044
7.5065,-0.01099,-0.04395,-0.0325,-0.03311,-0.02518,-0.05966,-0.00137,0.06424,-0.01587,-0.03784,-0.01633,0.00885,0.1236,-0.01038,0.04318,-0.04471
7.507,-0.01282,-0.04562,-0.03281,-0.03815,-0.02609,-0.04822,0.00092,-0.01007,-0.01678,-0.03433,-0.03189,0.00824,0.09796,-0.01785,0.01709,-0.0502
7.5075,-0.01022,-0.04639,-0.03189,-0.03662,-0.0296,-0.0322,-0.00153,-0.07263,-0.01755,-0.0322,-0.03632,0.00961,0.0441,-0.02335,-0.02701,-0.05188
7.508,-0.00687,-0.04562,-0.03021,-0.03052,-0.03326,-0.01938,-0.00351,-0.09323,-0.01785,-0.03113,-0.03189,0.01129,-0.02289,-0.02731,-0.06958,-0.05417
7.5085,-0.00488,-0.04517,-0.03021,-0.0235,-0.03418,-0.01968,-0.00214,-0.08514,-0.01663,-0.03021,-0.02319,0.01144,-0.08743,-0.03174,-0.09308,-0.06958
7.509,-0.00443,-0.04593,-0.03235,-0.01602,-0.03265,-0.03326,-0.00015,-0.07904,-0.01572,-0.02808,-0.01755,0.01053,-0.13794,-0.03632,-0.08591,-0.11063
7.5095,-0.00305,-0.0473,-0.03235,-0.01129,-0.03113,-0.04837,-0.00168,-0.08774,-0.01633,-0.02487,-0.01312,0.01022,-0.16617,-0.04166,-0.03952,-0.1535
7.51,-0.00046,-0.0473,-0.03235,-0.00732,-0.03296,-0.05432,-0.00824,-0.0885,-0.01495,-0.02136,-0.01266,0.01053,-0.16953,-0.04639,0.02472,-0.15457
7.5105,0.00107,-0.04654,-0.03174,-0.00626,-0.03784,-0.05249,-0.01419,-0.05249,-0.01343,-0.0174,-0.01221,0.00793,-0.15594,-0.05112,0.06134,-0.09918
7.511,0.00183,-0.04654,-0.03342,-0.0061,-0.04196,-0.05081,-0.01862,0.00916,-0.01251,-0.01175,-0.01373,0.00381,-0.1329,-0.05432,0.04852,-0.0267
7.5115,0.00168,-0.04684,-0.0351,-0.0058,-0.04303,-0.05127,-0.02243,0.05035,-0.01251,-0.0058,-0.01572,0.00137,-0.10361,-0.0563,0.01358,0.02151
7.512,0.00122,-0.04745,-0.03738,-0.00519,-0.04379,-0.05219,-0.02365,0.047,-0.01328,-0.00397,-0.01221,0.0029,-0.07767,-0.05707,-0.00488,0.03784
7.5125,0.00122,-0.047,-0.03906,-0.00488,-0.04333,-0.0502,-0.02319,0.01984,-0.01266,-0.00641,-0.0119,0.00443,-0.05188,-0.05676,-0.00336,0.03891
7.513,0.00381,-0.04486,-0.04013,-0.00351,-0.04242,-0.04669,-0.02106,0.00702,-0.01099,-0.00809,-0.01389,0.00305,-0.01007,-0.05508,0.0032,0.03708
7.5135,0.00671,-0.0441,-0.0412,-0.00214,-0.04013,-0.04471,-0.0177,0.02029,-0.00793,-0.00519,-0.00961,0.00153,0.05157,-0.05325,0.00595,0.03265
7.514,0.009,-0.04501,-0.04181,-0.00214,-0.0383,-0.04395,-0.01328,0.04562,-0.00519,0.00015,-0.00244,0.00153,0.10452,-0.04852,0.00824,0.02167
7.5145,0.01114,-0.04745,-0.04303,-0.00381,-0.03723,-0.04227,-0.00656,0.06653,-0.00381,0.00397,0.00412,0.00214,0.12039,-0.03525,0.01266,0.00214
7.515,0.01221,-0.04807,-0.04242,-0.00366,-0.03586,-0.04044,0.0,0.07813,-0.00366,0.00458,0.00488,0.0032,0.10208,-0.01328,0.01465,-0.01877
7.5155,0.01221,-0.04562,-0.04044,-0.00076,-0.0325,-0.0386,0.00214,0.07538,-0.00488,-0.00275,-0.00336,0.00229,0.07401,0.00198,0.01083,-0.03204
7.516,0.00839,-0.04242,-0.03952,0.00168,-0.02838,-0.03784,-0.00122,0.05524,-0.00778,-0.01938,-0.01587,0.00046,0.05356,-0.00061,0.00427,-0.03571
7.5165,0.00122,-0.04044,-0.04089,0.0029,-0.02762,-0.03769,-0.00626,0.02747,-0.0119,-0.04196,-0.03586,0.00107,0.0325,-0.01282,-0.00504,-0.03418
7.517,-0.00565,-0.04044,-0.04013,0.00229,-0.02701,-0.03815,-0.01007,0.01068,-0.01678,-0.05188,-0.056,0.00351,-0.00076,-0.01831,-0.00916,-0.03174
7.5175,-0.01022,-0.03876,-0.0386,0.00076,-0.02701,-0.03922,-0.01297,0.0145,-0.02197,-0.04562,-0.0827,0.00473,-0.047,-0.0174,-0.00198,-0.03082
7.518,-0.01114,-0.03799,-0.03845,-0.00153,-0.02731,-0.03998,-0.0145,0.0264,-0.02655,-0.0383,-0.10956,0.00412,-0.09277,-0.0209,0.01389,-0.03128
7.5185,-0.01007,-0.03708,-0.03906,-0.00687,-0.02884,-0.04196,-0.01816,0.03265,-0.03113,-0.04242,-0.13351,0.00458,-0.12344,-0.02853,0.02518,-0.0322
7.519,-0.00656,-0.03769,-0.03769,-0.01266,-0.02914,-0.0444,-0.01785,0.02625,-0.03616,-0.04913,-0.15137,0.0058,-0.13611,-0.02991,0.02411,-0.0325
7.5195,-0.00244,-0.03845,-0.03448,-0.01678,-0.02579,-0.04623,-0.01465,0.00763,-0.04044,-0.0441,-0.14908,0.00626,-0.13809,-0.02502,0.01511,-0.03036
7.52,0.00107,-0.03769,-0.03143,-0.02045,-0.02045,-0.04517,-0.01114,-0.02106,-0.04242,-0.03174,-0.12634,0.00381,-0.12695,-0.01984,0.00977,-0.02625
7.5205,0.00198,-0.0383,-0.03067,-0.02411,-0.01633,-0.04059,-0.009,-0.05035,-0.04379,-0.02258,-0.08102,0.0,-0.09567,-0.01862,0.01022,-0.02045
7.521,0.00092,-0.03983,-0.03143,-0.02548,-0.01373,-0.03601,-0.00793,-0.06897,-0.04639,-0.0209,-0.01953,-0.00351,-0.03677,-0.01862,0.01282,-0.01511
7.5215,-0.00183,-0.03998,-0.03464,-0.02335,-0.01205,-0.03448,-0.00778,-0.06927,-0.05051,-0.01892,0.05188,-0.0061,0.03586,-0.01801,0.01633,-0.01251
7.522,-0.00458,-0.0383,-0.03723,-0.01709,-0.01083,-0.03525,-0.00809,-0.04822,-0.04959,-0.01266,0.11932,-0.00778,0.09491,-0.01419,0.02075,-0.01434
7.5225,-0.00671,-0.03693,-0.03845,-0.01175,-0.01175,-0.03693,-0.01068,-0.01617,-0.04044,-0.00549,0.16602,-0.00992,0.11658,-0.0058,0.02136,-0.01953
7.523,-0.00656,-0.03662,-0.03754,-0.01343,-0.01556,-0.03632,-0.01358,0.01373,-0.02533,-0.00092,0.18112,-0.01312,0.10254,0.00519,0.01541,-0.02487
7.5235,-0.00626,-0.03754,-0.0354,-0.01862,-0.01938,-0.03494,-0.01526,0.02914,-0.0119,0.00076,0.16541,-0.01663,0.06897,0.00885,0.00824,-0.03113
7.524,-0.00641,-0.03723,-0.03296,-0.02167,-0.02426,-0.03342,-0.01465,0.02518,-0.00504,0.00153,0.13504,-0.01633,0.03311,-0.00839,0.00626,-0.03586
7.5245,-0.00778,-0.03647,-0.03357,-0.0206,-0.02914,-0.03525,-0.01297,0.00992,-0.00443,0.00092,0.1033,-0.01312,-0.00305,-0.04883,0.00931,-0.03586
7.525,-0.00839,-0.03693,-0.03387,-0.01266,-0.03296,-0.03922,-0.01038,0.00458,-0.00534,-0.00183,0.0737,-0.00916,-0.04288,-0.09399,0.01465,-0.0351
7.5255,-0.00717,-0.0386,-0.03311,0.00412,-0.03296,-0.04135,-0.00885,0.02487,-0.00565,-0.00534,0.04227,-0.00656,-0.08148,-0.11551,0.01358,-0.03998
7.526,-0.00488,-0.03952,-0.0322,0.02579,-0.03235,-0.04227,-0.00916,0.05814,-0.00397,-0.00488,0.01678,-0.00519,-0.10681,-0.10376,0.01236,-0.05234
7.5265,-0.0029,-0.04013,-0.03189,0.03815,-0.03387,-0.04608,-0.00946,0.07507,-0.00214,-0.00305,-0.0058,-0.00626,-0.11261,-0.07492,0.01297,-0.06714
7.527,-0.00275,-0.03998,-0.03143,0.03311,-0.03693,-0.05325,-0.01144,0.06561,-0.00153,-0.00366,-0.01953,-0.00778,-0.103,-0.05051,0.01511,-0.07889
7.5275,-0.0029,-0.04059,-0.03128,0.01709,-0.04028,-0.05814,-0.01221,0.04929,-0.00168,-0.00885,-0.02731,-0.01038,-0.08255,-0.03922,0.01617,-0.0827
7.528,-0.00381,-0.04059,-0.03296,-0.00473,-0.04257,-0.05753,-0.01343,0.04227,-0.00259,-0.01694,-0.02533,-0.01038,-0.0499,-0.03326,0.01297,-0.08041
7.5285,-0.00549,-0.04135,-0.03387,-0.03204,-0.04318,-0.0528,-0.0148,0.0386,-0.00473,-0.02365,-0.02258,-0.01038,-0.00641,-0.03021,0.00793,-0.07523
7.529,-0.00626,-0.0415,-0.03464,-0.07156,-0.04456,-0.04944,-0.0174,0.0296,-0.00702,-0.02945,-0.02487,-0.01083,0.03632,-0.0296,0.00641,-0.07217
7.5295,-0.00458,-0.04028,-0.03479,-0.1207,-0.04517,-0.0499,-0.0177,0.01709,-0.00854,-0.0325,-0.02686,-0.0119,0.0621,-0.02991,0.00977,-0.06744
7.53,-0.00381,-0.03967,-0.03418,-0.15503,-0.04654,-0.05157,-0.01602,0.00717,-0.00931,-0.03281,-0.0293,-0.01358,0.06958,-0.02747,0.01343,-0.05951
7.5305,-0.00534,-0.03922,-0.03326,-0.14114,-0.04837,-0.05386,-0.01389,0.00168,-0.01114,-0.03357,-0.02777,-0.01389,0.06638,-0.02411,0.01236,-0.0499
7.531,-0.00824,-0.0386,-0.03326,-0.0795,-0.04944,-0.05478,-0.01221,-0.00092,-0.01221,-0.03326,-0.02472,-0.01221,0.05447,-0.02396,0.00778,-0.04562
7.5315,-0.01053,-0.0383,-0.03342,-0.03265,-0.05005,-0.05478,-0.00977,-0.00107,-0.01343,-0.03174,-0.0238,-0.01114,0.03174,-0.02808,0.00458,-0.04807
7.532,-0.01266,-0.03754,-0.03326,-0.06409,-0.05112,-0.05371,-0.00626,-0.0029,-0.01373,-0.02884,-0.02441,-0.01221,0.0058,-0.02991,0.00641,-0.05066
7.5325,-0.01526,-0.04074,-0.0325,-0.1535,-0.05188,-0.05157,-0.00473,-0.00671,-0.01358,-0.0264,-0.0267,-0.01297,-0.01022,-0.02228,0.00977,-0.04944
7.533,-0.0174,-0.04852,-0.03281,-0.22049,-0.04959,-0.04974,-0.00748,-0.0119,-0.01236,-0.02472,-0.02884,-0.01251,-0.00824,-0.00809,0.00885,-0.04654
7.5335,-0.01785,-0.06317,-0.03357,-0.23041,-0.04639,-0.04883,-0.00992,-0.01251,-0.01144,-0.0238,-0.02487,-0.01068,0.00153,0.00259,-0.00061,-0.04471
7.534,-0.01678,-0.07935,-0.03525,-0.2063,-0.04486,-0.04868,-0.01083,-0.0087,-0.0119,-0.02151,-0.02045,-0.01175,0.00839,0.00198,-0.01419,-0.04425
7.5345,-0.01556,-0.08652,-0.03464,-0.15045,-0.04593,-0.04913,-0.009,-0.00519,-0.01297,-0.01709,-0.01434,-0.01511,0.00839,-0.00671,-0.02762,-0.04532
7.535,-0.01511,-0.08133,-0.0325,-0.03235,-0.04822,-0.04883,-0.00778,-0.00626,-0.01297,-0.0116,-0.01282,-0.01785,0.00778,-0.01343,-0.04105,-0.04807
7.5355,-0.01266,-0.06683,-0.03128,0.12848,-0.04761,-0.04837,-0.01053,-0.00946,-0.0119,-0.00793,-0.01251,-0.01755,0.01389,-0.01556,-0.05219,-0.0502
7.536,-0.00824,-0.0502,-0.03189,0.25223,-0.04501,-0.04822,-0.01343,-0.01251,-0.01129,-0.00534,-0.01221,-0.01633,0.03494,-0.01541,-0.05081,-0.0499
7.5365,-0.00381,-0.03265,-0.03357,0.28717,-0.04242,-0.04791,-0.01602,-0.01495,-0.01083,-0.00351,-0.01328,-0.01419,0.06912,-0.01587,-0.03403,-0.04883
7.537,-0.00168,-0.01831,-0.03494,0.24338,-0.0415,-0.04883,-0.01602,-0.01602,-0.01022,-0.00443,-0.01007,-0.01175,0.09872,-0.01694,-0.00931,-0.05066
7.5375,-0.00168,-0.00687,-0.03494,0.16998,-0.04089,-0.0499,-0.01785,-0.01572,-0.00916,-0.00595,-0.01205,-0.01205,0.10574,-0.01724,0.01511,-0.05646
7.538,-0.00092,-0.00061,-0.0354,0.12192,-0.03952,-0.05127,-0.02029,-0.0145,-0.009,-0.00687,-0.01724,-0.01297,0.0914,-0.01648,0.04471,-0.06317
7.5385,0.0,0.00092,-0.03693,0.11337,-0.03876,-0.05157,-0.02197,-0.01389,-0.01129,-0.0061,-0.01465,-0.01419,0.06485,-0.01343,0.0824,-0.06561
7.539,0.00122,-0.00122,-0.03708,0.10147,-0.03647,-0.05157,-0.02029,-0.01434,-0.01328,-0.00809,-0.0119,-0.01556,0.03311,-0.01068,0.11505,-0.06134
7.5395,0.00153,-0.00488,-0.03632,0.0531,-0.03448,-0.05066,-0.02136,-0.01541,-0.01205,-0.01373,-0.01328,-0.01419,-0.00443,-0.00809,0.12741,-0.04791
7.54,0.00031,-0.00946,-0.03448,-0.01312,-0.03082,-0.04974,-0.0206,-0.01541,-0.00778,-0.0238,-0.01816,-0.01144,-0.04333,-0.0087,0.1178,-0.02548
7.5405,0.0,-0.01373,-0.03403,-0.065,-0.02945,-0.04883,-0.0206,-0.01511,-0.00519,-0.03418,-0.02747,-0.00763,-0.07614,-0.01022,0.0882,-0.00656
7.541,-0.00046,-0.01724,-0.03479,-0.08698,-0.03128,-0.04822,-0.02045,-0.01434,-0.00519,-0.04044,-0.03265,-0.00793,-0.09796,-0.00992,0.04135,-0.00519
7.5415,-0.00107,-0.02014,-0.03662,-0.05249,-0.03387,-0.04776,-0.02029,-0.01312,-0.00717,-0.04074,-0.0322,-0.00885,-0.1088,-0.01022,-0.00824,-0.01968
7.542,-0.00214,-0.02243,-0.03632,0.06592,-0.03494,-0.0473,-0.01785,-0.01068,-0.00916,-0.03754,-0.02792,-0.01038,-0.09918,-0.01511,-0.03769,-0.02792
7.5425,-0.00336,-0.0264,-0.03662,0.21881,-0.03357,-0.047,-0.0174,-0.00793,-0.01038,-0.03494,-0.03159,-0.01282,-0.06729,-0.02396,-0.03448,-0.01648
7.543,-0.00443,-0.03021,-0.03677,0.29434,-0.03265,-0.04608,-0.01663,-0.00565,-0.01297,-0.03082,-0.03525,-0.01465,-0.03128,-0.03235,-0.01236,0.00198
7.5435,-0.00687,-0.03281,-0.03708,0.23788,-0.03143,-0.04608,-0.01663,-0.00565,-0.01541,-0.02777,-0.04532,-0.01495,-0.01205,-0.0354,0.01144,0.00885
7.544,-0.01038,-0.03387,-0.03616,0.11795,-0.03052,-0.04761,-0.01572,-0.00702,-0.01602,-0.02991,-0.05127,-0.0148,-0.0119,-0.0354,0.03006,0.00031
7.5445,-0.01328,-0.03433,-0.03571,0.03403,-0.03052,-0.04868,-0.01465,-0.00793,-0.0119,-0.03494,-0.05188,-0.01694,-0.01923,-0.03357,0.03693,-0.01389
7.545,-0.01602,-0.03632,-0.0351,0.01953,-0.03143,-0.04868,-0.01312,-0.00977,-0.00717,-0.0386,-0.04623,-0.01984,-0.02548,-0.03143,0.02563,-0.02731
7.5455,-0.01831,-0.03937,-0.03464,0.04379,-0.03281,-0.04822,-0.01343,-0.01129,-0.00595,-0.03677,-0.03769,-0.0238,-0.02609,-0.0293,0.00397,-0.0386
7.546,-0.0206,-0.04272,-0.03342,0.06851,-0.03372,-0.04822,-0.01404,-0.0119,-0.00977,-0.03021,-0.02686,-0.02594,-0.02121,-0.0293,-0.01129,-0.04395
7.5465,-0.0235,-0.0444,-0.03342,0.06287,-0.03403,-0.04868,-0.01205,-0.0119,-0.01541,-0.02045,-0.02182,-0.02609,-0.02045,-0.03052,-0.01526,-0.04044
7.547,-0.02487,-0.04532,-0.03479,0.02014,-0.03601,-0.04959,-0.01205,-0.0116,-0.01968,-0.01251,-0.01526,-0.02472,-0.03143,-0.03189,-0.01221,-0.02914
7.5475,-0.02243,-0.04578,-0.0351,-0.03448,-0.03891,-0.04944,-0.0116,-0.01144,-0.02197,-0.00992,-0.01419,-0.02182,-0.04852,-0.03067,-0.00687,-0.01724
7.548,-0.01755,-0.04486,-0.03448,-0.07477,-0.04044,-0.04807,-0.01556,-0.01129,-0.02106,-0.01251,-0.01663,-0.01801,-0.06012,-0.02762,0.00076,-0.00992
7.5485,-0.0119,-0.04364,-0.03311,-0.1004,-0.0383,-0.0473,-0.01785,-0.01282,-0.01755,-0.01968,-0.01678,-0.01511,-0.06958,-0.0235,0.00397,-0.01205
7.549,-0.00549,-0.04272,-0.03311,-0.11566,-0.03494,-0.04654,-0.02029,-0.01541,-0.01266,-0.0238,-0.00961,-0.01617,-0.08926,-0.01968,0.0,-0.02029
7.5495,0.00015,-0.04318,-0.03281,-0.11017,-0.03296,-0.04593,-0.02045,-0.01648,-0.00916,-0.02228,0.01602,-0.01526,-0.12512,-0.01602,-0.00748,-0.02563
7.55,0.00458,-0.04349,-0.0322,-0.0824,-0.03128,-0.04517,-0.01678,-0.01572,-0.00839,-0.01709,0.0528,-0.01205,-0.16708,-0.01053,-0.01038,-0.02075
7.5505,0.00656,-0.0444,-0.03082,-0.05371,-0.02975,-0.04379,-0.01434,-0.01266,-0.00977,-0.01251,0.07645,-0.009,-0.19852,-0.00443,-0.01038,-0.00824
7.551,0.00641,-0.04547,-0.03098,-0.04257,-0.02777,-0.04349,-0.01495,-0.00992,-0.01129,-0.00916,0.07385,-0.00916,-0.2066,0.00153,-0.01114,0.00229
7.5515,0.00626,-0.04639,-0.03265,-0.04654,-0.02472,-0.04333,-0.01724,-0.00824,-0.01389,-0.00549,0.04776,-0.01144,-0.18768,0.00351,-0.01144,0.00031
7.552,0.00565,-0.04562,-0.03433,-0.04929,-0.02228,-0.04471,-0.01648,-0.00778,-0.01587,0.0,0.01938,-0.0116,-0.15259,-0.00137,-0.00763,-0.01144
7.5525,0.00381,-0.04425,-0.03433,-0.04959,-0.02151,-0.04486,-0.01526,-0.00687,-0.01587,0.00687,0.00122,-0.00961,-0.11581,-0.01175,0.00198,-0.02213
7.553,0.00153,-0.04379,-0.03265,-0.05768,-0.02075,-0.04532,-0.01297,-0.00366,-0.01282,0.01129,-0.00809,-0.00778,-0.09109,-0.02121,0.01099,-0.02518
7.5535,-0.00031,-0.04395,-0.03098,-0.08408,-0.02045,-0.04684,-0.01297,0.00031,-0.01022,0.01007,-0.01572,-0.00595,-0.0769,-0.02655,0.01099,-0.01938
7.554,-0.00092,-0.04532,-0.03174,-0.12009,-0.02274,-0.04974,-0.01038,0.00046,-0.00977,0.00397,-0.01709,-0.00183,-0.06409,-0.03143,0.00229,-0.01068
7.5545,-0.00107,-0.04639,-0.03479,-0.15396,-0.02533,-0.05249,-0.00977,-0.00259,-0.01144,-0.00229,-0.01404,0.00275,-0.03906,-0.03922,-0.01144,-0.00443
7.555,-0.00183,-0.047,-0.03616,-0.18768,-0.02792,-0.05371,-0.01205,-0.00626,-0.01282,-0.0061,-0.01221,0.00488,0.00854,-0.04547,-0.02701,-0.00473
7.5555,-0.00229,-0.0473,-0.0354,-0.23193,-0.02808,-0.05341,-0.01282,-0.00763,-0.01282,-0.00839,-0.00977,0.00519,0.07187,-0.04883,-0.04517,-0.01358
7.556,-0.00198,-0.04608,-0.03357,-0.27573,-0.02747,-0.0528,-0.01282,-0.00687,-0.01175,-0.01083,-0.01266,0.0061,0.12512,-0.05096,-0.06317,-0.02441
7.5565,-0.0029,-0.04456,-0.03296,-0.29053,-0.02884,-0.05249,-0.01175,-0.00626,-0.01129,-0.01129,-0.01297,0.01053,0.14435,-0.04593,-0.0676,-0.03387
7.557,-0.00641,-0.04333,-0.03387,-0.25528,-0.03036,-0.0531,-0.01114,-0.00595,-0.01312,-0.00076,-0.01266,0.01633,0.13565,-0.02731,-0.04776,-0.04547
7.5575,-0.01221,-0.04425,-0.03479,-0.16647,-0.03006,-0.05188,-0.01205,-0.00549,-0.01434,0.02625,-0.00916,0.02106,0.11795,0.00961,-0.00671,-0.06134
7.558,-0.01495,-0.04486,-0.03525,-0.02396,-0.02823,-0.05035,-0.01236,-0.00381,-0.0145,0.06165,-0.00565,0.0235,0.09796,0.05478,0.0325,-0.07751
7.5585,-0.01205,-0.04547,-0.03464,0.14481,-0.02701,-0.04944,-0.01144,-0.00229,-0.01434,0.07782,-0.0029,0.02747,0.06271,0.08179,0.04379,-0.08331
7.559,-0.00656,-0.04547,-0.03342,0.25574,-0.02655,-0.05051,-0.0119,-0.00153,-0.01389,0.05707,-0.00214,0.03189,0.0058,0.06836,0.02533,-0.07706
7.5595,-0.0032,-0.04379,-0.03281,0.25253,-0.02533,-0.05127,-0.0145,-0.00229,-0.01144,0.01419,-0.00198,0.03464,-0.0563,0.02274,0.00549,-0.06119
7.56,-0.00259,-0.04196,-0.03342,0.1738,-0.02258,-0.05051,-0.01617,-0.00443,-0.00778,-0.02335,-0.00122,0.03418,-0.10269,-0.01846,0.00427,-0.04333
7.5605,-0.0029,-0.04181,-0.03235,0.08713,-0.0209,-0.04883,-0.0174,-0.00717,-0.0061,-0.03815,-0.0029,0.03403,-0.13107,-0.03204,0.009,-0.03067
7.561,-0.00137,-0.04272,-0.03403,0.00778,-0.01968,-0.04929,-0.01923,-0.00931,-0.00824,-0.03952,-0.00259,0.03677,-0.15137,-0.02625,0.00336,-0.02533
7.5615,0.00092,-0.04272,-0.03525,-0.06866,-0.01938,-0.04959,-0.01938,-0.00946,-0.01083,-0.0441,-0.00504,0.03937,-0.16647,-0.01785,-0.01343,-0.02914
7.562,0.00229,-0.04105,-0.03571,-0.12131,-0.01846,-0.0502,-0.01801,-0.00931,-0.01129,-0.04639,-0.00229,0.03799,-0.16876,-0.01236,-0.02563,-0.03464
7.5625,0.00198,-0.03891,-0.03494,-0.12497,-0.01755,-0.04929,-0.01694,-0.00824,-0.01114,-0.04532,-0.0029,0.03601,-0.1535,-0.00076,-0.02808,-0.0264
7.563,0.00214,-0.03845,-0.03342,-0.09003,-0.01678,-0.04807,-0.01587,-0.00717,-0.01144,-0.03922,-0.0029,0.03571,-0.11688,0.01678,-0.02228,-0.00671
7.5635,0.00198,-0.03906,-0.0325,-0.04959,-0.0148,-0.04715,-0.01495,-0.00595,-0.01297,-0.03769,-0.00565,0.03616,-0.06805,0.0293,-0.00168,0.00412
7.564,0.00015,-0.0383,-0.03204,-0.02365,-0.01007,-0.04776,-0.01526,-0.00443,-0.01434,-0.04318,-0.00931,0.03799,-0.03036,0.02991,0.04089,-0.00549
7.5645,-0.00229,-0.03769,-0.03326,-0.01801,-0.00763,-0.04791,-0.01678,-0.00473,-0.01694,-0.05081,-0.01373,0.04303,-0.02335,0.02213,0.09109,-0.02792
7.565,-0.00458,-0.03876,-0.03448,-0.0267,-0.00626,-0.04807,-0.01938,-0.00549,-0.02045,-0.05081,-0.01907,0.0499,-0.04211,0.01068,0.11719,-0.04501
7.5655,-0.00732,-0.04105,-0.03448,-0.04364,-0.00946,-0.04913,-0.02075,-0.00671,-0.02533,-0.03845,-0.02319,0.05524,-0.06454,-0.00305,0.10345,-0.05585
7.566,-0.01038,-0.04272,-0.03525,-0.04745,-0.01328,-0.05066,-0.02151,-0.00717,-0.02777,-0.02472,-0.0267,0.05692,-0.07614,-0.02472,0.07217,-0.07095
7.5665,-0.01556,-0.0444,-0.03387,0.00076,-0.01465,-0.05203,-0.02213,-0.00656,-0.02701,-0.01816,-0.02823,0.0563,-0.07828,-0.05142,0.05142,-0.09628
7.567,-0.01953,-0.04517,-0.03357,0.11917,-0.01587,-0.0531,-0.01801,-0.00412,-0.02441,-0.02167,-0.02548,0.0528,-0.08286,-0.06699,0.05096,-0.11444
7.5675,-0.02243,-0.04562,-0.03403,0.24796,-0.01862,-0.05417,-0.01541,-0.00061,-0.0206,-0.02594,-0.02441,0.04684,-0.09888,-0.06454,0.0531,-0.11993
7.568,-0.02151,-0.04715,-0.03479,0.29617,-0.02121,-0.05508,-0.01434,0.00061,-0.01724,-0.02655,-0.02335,0.04211,-0.12741,-0.06088,0.03464,-0.12283
7.5685,-0.0206,-0.04776,-0.03555,0.23697,-0.02426,-0.05463,-0.01663,-0.00214,-0.01556,-0.02747,-0.0235,0.04135,-0.15472,-0.0621,-0.01114,-0.12283
7.569,-0.01999,-0.04837,-0.03555,0.12619,-0.02655,-0.05234,-0.02075,-0.00732,-0.01495,-0.03113,-0.02396,0.04425,-0.16525,-0.05463,-0.065,-0.10406
7.5695,-0.01755,-0.047,-0.03433,0.02502,-0.02792,-0.05005,-0.01984,-0.01053,-0.01465,-0.03586,-0.02426,0.0441,-0.1506,-0.03555,-0.09842,-0.06683
7.57,-0.0148,-0.04364,-0.03204,-0.04303,-0.02945,-0.04852,-0.01541,-0.00931,-0.01358,-0.03616,-0.02518,0.04089,-0.10345,-0.01862,-0.09521,-0.03723
7.5705,-0.01175,-0.04105,-0.03174,-0.06836,-0.03036,-0.04761,-0.01312,-0.00626,-0.01205,-0.03036,-0.02563,0.04044,-0.0209,-0.01038,-0.07004,-0.03113
7.571,-0.009,-0.03998,-0.03326,-0.0528,-0.03021,-0.04715,-0.01266,-0.00534,-0.01205,-0.0206,-0.02716,0.04929,0.08636,-0.01083,-0.04929,-0.0444
7.5715,-0.00717,-0.04105,-0.03433,-0.0267,-0.03067,-0.04608,-0.01251,-0.00504,-0.01175,-0.01404,-0.02945,0.06195,0.17609,-0.01007,-0.04593,-0.06912
7.572,-0.0061,-0.04105,-0.03342,-0.01373,-0.03098,-0.04684,-0.01175,-0.00336,-0.01144,-0.01373,-0.03372,0.07187,0.20264,-0.00778,-0.04745,-0.10559
7.5725,-0.00565,-0.03876,-0.03082,-0.00107,-0.03235,-0.04745,-0.01038,-0.00229,-0.01038,-0.01617,-0.03571,0.07462,0.15472,-0.0061,-0.03708,-0.13977
7.573,-0.00534,-0.03723,-0.03021,0.02167,-0.03311,-0.04807,-0.00916,-0.00244,-0.01083,-0.01892,-0.03586,0.07141,0.05722,-0.00305,-0.0116,-0.15121
7.5735,-0.00519,-0.03616,-0.03113,0.02975,-0.0296,-0.04684,-0.01038,-0.00305,-0.01236,-0.02075,-0.03464,0.06454,-0.05295,0.00031,0.01892,-0.13702
7.574,-0.00671,-0.03403,-0.03342,0.0119,-0.0267,-0.04532,-0.01099,-0.0029,-0.0145,-0.02457,-0.03403,0.05753,-0.14572,0.00381,0.047,-0.11032
7.5745,-0.00977,-0.03128,-0.03479,0.01007,-0.02335,-0.04364,-0.009,-0.00244,-0.0148,-0.02792,-0.03647,0.05524,-0.20187,0.00153,0.07278,-0.08484
7.575,-0.01236,-0.02853,-0.03418,0.05722,-0.02136,-0.04303,-0.00793,-0.00397,-0.01389,-0.0296,-0.0383,0.05676,-0.21301,-0.00458,0.09048,-0.06363
7.5755,-0.01312,-0.02731,-0.03357,0.11215,-0.0206,-0.04272,-0.00839,-0.0061,-0.01282,-0.0296,-0.04028,0.0589,-0.18585,-0.00961,0.08514,-0.04761
7.576,-0.01343,-0.02625,-0.03326,0.11368,-0.02075,-0.04318,-0.01129,-0.00839,-0.01144,-0.02808,-0.04028,0.05463,-0.1413,-0.00916,0.05432,-0.03983
7.5765,-0.01358,-0.02563,-0.03433,0.05539,-0.02167,-0.0444,-0.01678,-0.01022,-0.01022,-0.02686,-0.03983,0.04425,-0.10284,-0.00763,0.01312,-0.04318
7.577,-0.01282,-0.02396,-0.03387,-0.02029,-0.02136,-0.04517,-0.02045,-0.01297,-0.00916,-0.02533,-0.03708,0.03418,-0.08286,-0.00381,-0.02197,-0.05692
7.5775,-0.00916,-0.02182,-0.03464,-0.07843,-0.01984,-0.04745,-0.02213,-0.01465,-0.00854,-0.02365,-0.03479,0.02655,-0.07538,-0.00046,-0.04257,-0.0798
7.578,-0.00778,-0.02029,-0.03601,-0.11993,-0.0209,-0.04868,-0.02289,-0.01434,-0.00916,-0.0235,-0.03769,0.0206,-0.07095,-0.00244,-0.04379,-0.10635
7.5785,-0.00839,-0.01816,-0.03769,-0.17685,-0.02319,-0.05066,-0.02197,-0.01205,-0.01053,-0.02579,-0.04501,0.0148,-0.06287,-0.01587,-0.02319,-0.13794
7.579,-0.0061,-0.01801,-0.03799,-0.26215,-0.02426,-0.05112,-0.02228,-0.00946,-0.01221,-0.02731,-0.05463,0.01221,-0.05219,-0.03906,0.00488,-0.17212
7.5795,-0.00061,-0.01831,-0.03723,-0.33478,-0.02258,-0.04959,-0.02197,-0.00824,-0.01282,-0.02914,-0.05997,0.01343,-0.03723,-0.05051,0.01587,-0.19409
7.58,0.00351,-0.01709,-0.03601,-0.35217,-0.02182,-0.04745,-0.02106,-0.0061,-0.01312,-0.02808,-0.065,0.01541,-0.01877,-0.03632,0.00061,-0.17685
7.5805,0.00458,-0.01587,-0.03448,-0.33356,-0.02396,-0.047,-0.01816,-0.00336,-0.01282,-0.0238,-0.06516,0.01404,0.00122,-0.01297,-0.02258,-0.11948
7.581,0.00565,-0.01572,-0.0325,-0.31937,-0.0264,-0.04807,-0.01556,-0.00183,-0.01282,-0.01694,-0.06149,0.0087,0.02502,-0.00229,-0.0322,-0.05829
7.5815,0.00824,-0.01892,-0.03082,-0.29358,-0.03006,-0.04837,-0.01434,-0.00183,-0.01282,-0.01068,-0.05798,0.00259,0.06226,-0.00443,-0.02396,-0.02289
7.582,0.00977,-0.02289,-0.03082,-0.19699,-0.03342,-0.04898,-0.0145,-0.00244,-0.01282,-0.00824,-0.05753,-0.00092,0.11597,-0.00626,-0.0029,-0.0087
7.5825,0.009,-0.02655,-0.03128,-0.02121,-0.03677,-0.04929,-0.01587,-0.00168,-0.01404,-0.01205,-0.06271,-0.00366,0.17319,-0.00351,0.02823,0.00137
7.583,0.00519,-0.02823,-0.0322,0.14374,-0.03815,-0.04913,-0.01831,-0.00107,-0.01648,-0.01572,-0.06821,-0.00458,0.20767,0.0032,0.05997,0.01266
7.5835,-0.00015,-0.02747,-0.0322,0.18906,-0.03922,-0.04929,-0.02167,-0.00214,-0.01633,-0.01724,-0.07507,-0.00473,0.19638,0.00076,0.07675,0.01816
7.584,-0.0058,-0.0267,-0.03235,0.08987,-0.03998,-0.04868,-0.02319,-0.00565,-0.01389,-0.01587,-0.08072,-0.00366,0.13824,-0.0061,0.06577,0.01251
7.5845,-0.01144,-0.02808,-0.03174,-0.06607,-0.0415,-0.04898,-0.02167,-0.009,-0.01114,-0.01602,-0.08453,-0.00458,0.05539,-0.01373,0.04349,-0.0029
7.585,-0.01541,-0.03021,-0.03036,-0.14908,-0.04166,-0.04898,-0.01846,-0.00916,-0.01099,-0.01617,-0.07721,-0.0058,-0.02655,-0.01801,0.03128,-0.02014
7.5855,-0.01572,-0.03006,-0.03006,-0.08957,-0.04013,-0.04929,-0.01602,-0.00732,-0.01312,-0.01511,-0.06119,-0.00763,-0.09445,-0.01907,0.03815,-0.03036
7.586,-0.0119,-0.02914,-0.02975,0.06378,-0.03784,-0.04883,-0.01526,-0.00397,-0.0148,-0.01221,-0.0386,-0.00763,-0.14832,-0.0177,0.05127,-0.03326
7.5865,-0.00656,-0.03036,-0.03067,0.19989,-0.03677,-0.04761,-0.01343,-0.00198,-0.0148,-0.01068,-0.01328,-0.00671,-0.19028,-0.0148,0.0528,-0.03464
7.587,-0.00214,-0.03647,-0.0322,0.25101,-0.0383,-0.04807,-0.01312,-0.00092,-0.01465,-0.01251,0.01282,-0.00717,-0.22263,-0.01602,0.04028,-0.03891
7.5875,0.00092,-0.04364,-0.03265,0.23758,-0.04135,-0.04883,-0.01389,-0.00046,-0.01495,-0.0145,0.0354,-0.00961,-0.24841,-0.02213,0.02304,-0.04257
7.588,0.00198,-0.04776,-0.0325,0.20569,-0.04425,-0.04944,-0.01572,-0.00015,-0.01572,-0.01495,0.04593,-0.01221,-0.25925,-0.03067,0.01236,-0.04379
7.5885,0.00351,-0.04745,-0.03372,0.17197,-0.0473,-0.04837,-0.01709,-0.00122,-0.01526,-0.01541,0.04395,-0.0145,-0.23392,-0.03311,0.00946,-0.04105
7.589,0.00381,-0.04684,-0.03342,0.13275,-0.04974,-0.04868,-0.01678,-0.00366,-0.01495,-0.01572,0.03494,-0.01755,-0.16998,-0.0238,0.01312,-0.03922
7.5895,0.00641,-0.04791,-0.03342,0.09674,-0.04883,-0.05005,-0.01633,-0.00565,-0.01587,-0.0174,0.0238,-0.02243,-0.10025,-0.00427,0.01892,-0.04288
7.59,0.00656,-0.0499,-0.03281,0.07462,-0.04608,-0.05127,-0.01495,-0.00671,-0.01709,-0.01633,0.01022,-0.02716,-0.05569,0.01328,0.01846,-0.05005
7.5905,0.0058,-0.05051,-0.03311,0.05508,-0.04242,-0.05051,-0.01389,-0.0058,-0.01816,-0.01266,-0.00671,-0.03067,-0.03845,0.02106,0.00854,-0.05524
7.591,0.00473,-0.04929,-0.0325,0.02472,-0.04044,-0.04852,-0.01175,-0.00458,-0.01801,-0.00717,-0.0206,-0.03296,-0.03052,0.01816,-0.00488,-0.05234
7.5915,0.00488,-0.04807,-0.03296,-0.01236,-0.04013,-0.04684,-0.00977,-0.00046,-0.01862,-0.00412,-0.02899,-0.03784,-0.02335,0.01312,-0.01724,-0.04395
7.592,0.00687,-0.04852,-0.03555,-0.04471,-0.04227,-0.04684,-0.00778,0.00244,-0.01938,-0.00641,-0.03586,-0.04501,-0.0177,0.00992,-0.02823,-0.03616
7.5925,0.01144,-0.05112,-0.0386,-0.0676,-0.04318,-0.04669,-0.00809,0.00275,-0.0209,-0.0116,-0.03937,-0.05203,-0.01282,0.00824,-0.03693,-0.03189
7.593,0.01938,-0.05402,-0.03937,-0.07736,-0.0441,-0.04684,-0.009,0.0,-0.02029,-0.01755,-0.03677,-0.05493,-0.00427,0.00626,-0.03876,-0.03067
7.5935,0.02655,-0.05478,-0.03799,-0.07172,-0.04517,-0.04669,-0.01022,-0.00214,-0.01862,-0.02106,-0.03311,-0.05371,0.01312,0.00137,-0.03311,-0.02975
7.594,0.03082,-0.0531,-0.03616,-0.05737,-0.04501,-0.04608,-0.01144,-0.00229,-0.01923,-0.02228,-0.03052,-0.04974,0.03998,-0.01434,-0.02426,-0.02899
7.5945,0.03052,-0.05096,-0.03586,-0.04761,-0.0441,-0.04532,-0.0116,-0.00336,-0.0206,-0.02151,-0.03052,-0.04883,0.06668,-0.04822,-0.01297,-0.02853
7.595,0.02625,-0.04929,-0.03677,-0.05417,-0.04242,-0.04471,-0.01144,-0.00687,-0.02213,-0.02304,-0.03021,-0.05005,0.07507,-0.0853,0.00717,-0.0293
7.5955,0.02045,-0.04883,-0.03906,-0.06699,-0.04028,-0.0444,-0.01099,-0.01038,-0.02243,-0.02396,-0.02914,-0.04974,0.05737,-0.09918,0.02945,-0.0325
7.596,0.01205,-0.04913,-0.03983,-0.06607,-0.04044,-0.0441,-0.00977,-0.01129,-0.02304,-0.02579,-0.02808,-0.047,0.02808,-0.08408,0.0415,-0.03754
7.5965,0.0032,-0.05142,-0.04013,-0.04395,-0.04059,-0.04501,-0.00916,-0.00916,-0.02335,-0.02792,-0.02762,-0.04349,0.00473,-0.05875,0.03647,-0.04105
7.597,-0.00412,-0.05325,-0.03998,-0.0148,-0.04074,-0.04669,-0.0087,-0.00793,-0.02411,-0.0293,-0.02747,-0.04196,-0.00595,-0.03677,0.02701,-0.03998
7.5975,-0.00931,-0.05219,-0.04074,0.00107,-0.03876,-0.04761,-0.00824,-0.00687,-0.02319,-0.03021,-0.02579,-0.04181,-0.00977,-0.02121,0.02319,-0.03784
7.598,-0.01358,-0.05112,-0.0412,0.00519,-0.03616,-0.04745,-0.00916,-0.00397,-0.02274,-0.03021,-0.02258,-0.04288,-0.01358,-0.01175,0.02533,-0.03799
7.5985,-0.02029,-0.05035,-0.0412,0.01907,-0.03571,-0.0473,-0.00916,-0.00076,-0.02319,-0.03189,-0.02151,-0.04364,-0.01877,-0.00778,0.02472,-0.04013
7.599,-0.02777,-0.05112,-0.04074,0.05478,-0.03632,-0.04745,-0.01053,0.00015,-0.02411,-0.03525,-0.01877,-0.04257,-0.01862,-0.00687,0.02106,-0.04242
7.5995,-0.0325,-0.05142,-0.03891,0.09674,-0.03754,-0.0473,-0.01297,-0.00137,-0.02365,-0.03647,-0.01266,-0.04089,-0.00076,-0.00793,0.0177,-0.04013
7.6,-0.03311,-0.05219,-0.03662,0.12299,-0.03754,-0.04684,-0.01633,-0.00351,-0.02136,-0.03403,-0.00381,-0.03769,0.04013,-0.01038,0.01678,-0.03464
7.6005,-0.03204,-0.05234,-0.03448,0.12833,-0.03601,-0.04776,-0.01587,-0.00443,-0.01862,-0.03113,0.0032,-0.0354,0.09491,-0.01938,0.01862,-0.03067
7.601,-0.03036,-0.05219,-0.03326,0.11703,-0.03586,-0.04852,-0.01465,-0.00443,-0.01663,-0.0296,0.00732,-0.0351,0.14435,-0.03525,0.02365,-0.03036
7.6015,-0.02777,-0.05173,-0.03342,0.09094,-0.03769,-0.04837,-0.01495,-0.0032,-0.01709,-0.02731,0.00809,-0.03479,0.17075,-0.05295,0.02747,-0.0325
7.602,-0.0209,-0.05356,-0.03265,0.05051,-0.03998,-0.047,-0.01709,-0.00229,-0.01907,-0.0267,0.0061,-0.03372,0.16129,-0.06638,0.02335,-0.03159
7.6025,-0.0145,-0.05676,-0.03082,0.01663,-0.04059,-0.04669,-0.01984,-0.00275,-0.02075,-0.02441,0.00305,-0.03143,0.11139,-0.06882,0.01434,-0.02914
7.603,-0.01022,-0.06058,-0.02914,0.00015,-0.0386,-0.04684,-0.01923,-0.00397,-0.02045,-0.02365,0.00259,-0.0296,0.03021,-0.06104,0.00702,-0.02777
7.6035,-0.00931,-0.06317,-0.0293,-0.01495,-0.03586,-0.0473,-0.01602,-0.00458,-0.01953,-0.02243,0.00458,-0.0293,-0.06302,-0.04532,0.00427,-0.02792
7.604,-0.00854,-0.06607,-0.03082,-0.05463,-0.03403,-0.04608,-0.01495,-0.00259,-0.01984,-0.02136,0.0058,-0.02884,-0.14374,-0.02609,0.00305,-0.02686
7.6045,-0.00397,-0.06958,-0.03143,-0.11673,-0.03372,-0.04623,-0.01709,-0.00015,-0.0206,-0.01984,0.00626,-0.02625,-0.19623,-0.00946,-0.00061,-0.02533
7.605,0.00305,-0.07278,-0.03113,-0.16693,-0.03403,-0.04807,-0.01831,0.00183,-0.02136,-0.01907,0.00641,-0.02197,-0.21423,0.00122,-0.00809,-0.0264
7.6055,0.00885,-0.07599,-0.03052,-0.17334,-0.03265,-0.04868,-0.01709,0.00244,-0.02136,-0.01846,0.00656,-0.01648,-0.19379,0.01587,-0.01633,-0.02716
7.606,0.01099,-0.07874,-0.02991,-0.13504,-0.03067,-0.04822,-0.01328,0.0029,-0.01984,-0.01968,0.00778,-0.01205,-0.14221,0.04303,-0.02304,-0.02731
7.6065,0.00931,-0.08163,-0.03082,-0.08179,-0.02777,-0.04684,-0.01205,0.0032,-0.01938,-0.02151,0.00916,-0.01099,-0.08728,0.05569,-0.02533,-0.02533
7.607,0.00595,-0.08255,-0.03265,-0.0441,-0.02655,-0.04623,-0.01251,0.00351,-0.0206,-0.02289,0.00839,-0.01099,-0.05859,0.02106,-0.0209,-0.02213
7.6075,0.00229,-0.08087,-0.03479,-0.03647,-0.0264,-0.047,-0.01312,0.00305,-0.02289,-0.02457,0.0061,-0.01038,-0.0589,-0.04486,-0.00549,-0.02014
7.608,0.00107,-0.07721,-0.03571,-0.04547,-0.02792,-0.04791,-0.01144,0.00305,-0.02319,-0.02411,0.00549,-0.00916,-0.06638,-0.07813,0.01831,-0.02029
7.6085,0.00214,-0.07477,-0.03479,-0.0386,-0.03067,-0.047,-0.01038,0.00366,-0.02106,-0.02396,0.00763,-0.00732,-0.06393,-0.04959,0.03723,-0.01953
7.609,0.00458,-0.07523,-0.03464,0.00641,-0.03143,-0.04623,-0.01129,0.00412,-0.01801,-0.02213,0.00931,-0.00702,-0.05493,-0.00046,0.04074,-0.01923
7.6095,0.00687,-0.0769,-0.03235,0.06775,-0.03128,-0.04517,-0.0119,0.00381,-0.0177,-0.02243,0.01022,-0.00702,-0.04578,0.01862,0.02991,-0.02045
7.61,0.01007,-0.0769,-0.03159,0.1004,-0.02838,-0.04486,-0.0119,0.00122,-0.01862,-0.0235,0.0119,-0.00656,-0.03357,0.01221,0.01816,-0.02136
7.6105,0.01312,-0.07614,-0.03128,0.09094,-0.02655,-0.04608,-0.01129,-0.00092,-0.01755,-0.02441,0.01236,-0.00534,-0.00488,0.01343,0.01038,-0.02243
7.611,0.01404,-0.0766,-0.03113,0.05539,-0.02823,-0.04608,-0.01053,-0.00351,-0.01541,-0.02533,0.01266,-0.00458,0.047,0.03235,0.00885,-0.02136
7.6115,0.01343,-0.07813,-0.03067,0.00931,-0.02975,-0.04684,-0.00992,-0.00656,-0.01266,-0.02594,0.01175,-0.00275,0.09964,0.04486,0.00916,-0.02136
7.612,0.0116,-0.07782,-0.03143,-0.03754,-0.02914,-0.04608,-0.00839,-0.00977,-0.01312,-0.02518,0.01389,-0.00046,0.11368,0.03433,0.00687,-0.02167
7.6125,0.00885,-0.07629,-0.0322,-0.06973,-0.02869,-0.04456,-0.00671,-0.00656,-0.01419,-0.02533,0.01511,0.00168,0.07233,0.01816,0.00336,-0.02151
7.613,0.00595,-0.07584,-0.03418,-0.07584,-0.0296,-0.0444,-0.00458,0.00336,-0.01465,-0.02518,0.01678,0.00229,0.00381,0.02686,0.00153,-0.02136
7.6135,0.00198,-0.07721,-0.03555,-0.07721,-0.03387,-0.04608,-0.00198,0.01236,-0.01266,-0.02396,0.01587,0.00153,-0.04517,0.06302,0.00153,-0.02029
7.614,-0.00168,-0.08026,-0.03586,-0.09796,-0.03586,-0.04852,-0.00107,0.01297,-0.00946,-0.02365,0.0148,0.00198,-0.06073,0.09598,0.00381,-0.0209
7.6145,-0.00397,-0.08224,-0.03479,-0.11887,-0.03525,-0.0502,-0.00259,0.00732,-0.00702,-0.02213,0.01511,0.00381,-0.06241,0.09369,0.00793,-0.0206
7.615,-0.00458,-0.08102,-0.03479,-0.09537,-0.03204,-0.04959,-0.00504,0.00336,-0.00641,-0.02121,0.01663,0.00397,-0.06561,0.03845,0.01221,-0.01984
7.6155,-0.00519,-0.07813,-0.03464,-0.02609,-0.02884,-0.04852,-0.00473,0.00381,-0.00641,-0.02243,0.01694,0.00351,-0.05646,-0.07233,0.01495,-0.01892
7.616,-0.00656,-0.07599,-0.03555,0.03906,-0.02777,-0.04868,-0.00351,0.00412,-0.00626,-0.02563,0.0177,0.00168,-0.02686,-0.19287,0.01587,-0.01785
7.6165,-0.009,-0.07568,-0.0354,0.05661,-0.02899,-0.04913,-0.00275,0.00031,-0.00549,-0.02411,0.01785,0.0029,0.00107,-0.23865,0.01465,-0.0177
7.617,-0.00992,-0.07599,-0.03586,0.03204,-0.03006,-0.05081,-0.00473,-0.00626,-0.00519,-0.02029,0.01923,0.00473,0.00488,-0.1738,0.01221,-0.0174
7.6175,-0.00854,-0.07721,-0.03647,-0.00183,-0.03143,-0.05249,-0.00626,-0.01099,-0.00504,-0.01541,0.02228,0.0058,-0.01221,-0.07034,0.00626,-0.01862
7.618,-0.00565,-0.0766,-0.03662,-0.02197,-0.03235,-0.05371,-0.0061,-0.01282,-0.00641,-0.01526,0.02716,0.00473,-0.02884,-0.02243,-0.00122,-0.02121
7.6185,-0.00565,-0.07629,-0.03662,-0.02396,-0.03418,-0.05325,-0.00549,-0.01114,-0.00748,-0.01617,0.03021,0.00366,-0.03723,-0.04395,-0.0058,-0.02319
7.619,-0.00732,-0.07629,-0.03601,-0.01633,-0.03601,-0.05325,-0.00504,-0.00702,-0.00839,-0.01801,0.0296,0.00458,-0.03998,-0.08026,-0.00458,-0.02121
7.6195,-0.00916,-0.07492,-0.03693,-0.00702,-0.03677,-0.05295,-0.00549,-0.00107,-0.009,-0.01923,0.02655,0.00595,-0.03265,-0.09308,0.00076,-0.01602
7.62,-0.00946,-0.07294,-0.03647,0.00153,-0.03525,-0.05219,-0.0061,0.00366,-0.01007,-0.01892,0.02426,0.00702,-0.01022,-0.08698,0.0029,-0.01236
7.6205,-0.00809,-0.07065,-0.03723,0.01083,-0.03357,-0.0502,-0.00824,0.00504,-0.01099,-0.0177,0.02335,0.00793,0.01755,-0.07874,0.00198,-0.01236
7.621,-0.00473,-0.06973,-0.0386,0.02457,-0.03113,-0.04837,-0.01114,0.0032,-0.01282,-0.01587,0.02304,0.00916,0.03464,-0.06821,0.00153,-0.01572
7.6215,-0.00122,-0.06866,-0.03952,0.0415,-0.02869,-0.04669,-0.0116,0.00305,-0.01526,-0.01526,0.02045,0.00931,0.0296,-0.0531,0.00519,-0.01968
7.622,0.00168,-0.0679,-0.03891,0.05844,-0.02625,-0.04608,-0.01068,0.00549,-0.01816,-0.01343,0.01434,0.00885,0.00931,-0.04227,0.00885,-0.02365
7.6225,0.00488,-0.06714,-0.03799,0.06699,-0.0238,-0.04471,-0.01068,0.00763,-0.01938,-0.01251,0.00763,0.00793,-0.01129,-0.04608,0.00824,-0.02518
7.623,0.00732,-0.06668,-0.03784,0.05859,-0.02319,-0.04395,-0.01236,0.00519,-0.01862,-0.01328,0.00168,0.00748,-0.01556,-0.06042,0.00595,-0.02487
7.6235,0.00854,-0.06622,-0.03815,0.03357,-0.02441,-0.04425,-0.01434,0.00214,-0.01755,-0.01205,-0.00275,0.00717,0.0029,-0.07065,0.00534,-0.02441
7.624,0.0087,-0.06424,-0.03876,0.00458,-0.02426,-0.04593,-0.0145,0.00046,-0.01617,-0.01221,-0.00656,0.00763,0.03036,-0.06165,0.00732,-0.02426
7.6245,0.00763,-0.06027,-0.03952,-0.01678,-0.02167,-0.04517,-0.01541,0.0,-0.01373,-0.0174,-0.01175,0.00732,0.03998,-0.03418,0.01038,-0.02487
7.625,0.00717,-0.05707,-0.03754,-0.0264,-0.01953,-0.04456,-0.01938,-0.00137,-0.01099,-0.02411,-0.01404,0.00641,0.01312,0.00214,0.01129,-0.02411
7.6255,0.00717,-0.05539,-0.03647,-0.03235,-0.01892,-0.04547,-0.02319,-0.00275,-0.00885,-0.03006,-0.01389,0.0058,-0.03998,0.03448,0.00961,-0.01923
7.626,0.00565,-0.05432,-0.03555,-0.0383,-0.01953,-0.04761,-0.0238,-0.0032,-0.00793,-0.03372,-0.01297,0.00427,-0.09552,0.05585,0.00717,-0.01129
7.6265,0.0029,-0.05188,-0.03525,-0.04196,-0.02029,-0.04959,-0.02106,-0.0029,-0.009,-0.03479,-0.01221,0.00198,-0.13565,0.05844,0.01251,-0.00183
7.627,0.00229,-0.04654,-0.03555,-0.04044,-0.02151,-0.05005,-0.01877,-0.00488,-0.0119,-0.03693,-0.0116,0.00153,-0.15671,0.03983,0.03082,0.00671
7.6275,0.00336,-0.04059,-0.03494,-0.03601,-0.02319,-0.04913,-0.01617,-0.00595,-0.01434,-0.03708,-0.00839,0.00351,-0.16113,0.00412,0.0592,0.00839
7.628,0.0029,-0.03525,-0.03403,-0.03113,-0.02502,-0.04929,-0.01572,-0.00641,-0.01572,-0.03708,-0.00702,0.00595,-0.15396,-0.03403,0.07965,0.00366
7.6285,0.00061,-0.03036,-0.03418,-0.02792,-0.0264,-0.0502,-0.0174,-0.00565,-0.01495,-0.03479,-0.00687,0.00717,-0.13382,-0.05402,0.07294,-0.00626
7.629,-0.00259,-0.02609,-0.03479,-0.02426,-0.02716,-0.05081,-0.02014,-0.00473,-0.01465,-0.03159,-0.00671,0.00793,-0.09369,-0.04654,0.03693,-0.0177
7.6295,-0.0032,-0.02075,-0.03555,-0.02167,-0.0296,-0.05066,-0.01923,-0.00336,-0.01541,-0.0296,-0.00458,0.00946,-0.0351,-0.02243,-0.01068,-0.02838
7.63,-0.00046,-0.01541,-0.03479,-0.02121,-0.03143,-0.0499,-0.01709,-0.00229,-0.01602,-0.0267,-0.00229,0.01266,0.01663,-0.00092,-0.0499,-0.03677
7.6305,0.00107,-0.01099,-0.03387,-0.02182,-0.03143,-0.04852,-0.01556,-0.00244,-0.01526,-0.0238,-0.0029,0.01373,0.04013,0.00488,-0.06638,-0.04318
7.631,-0.00061,-0.00687,-0.0322,-0.02304,-0.02991,-0.04715,-0.01694,-0.00366,-0.01312,-0.01968,-0.00381,0.01205,0.04242,-0.00259,-0.06165,-0.04929
7.6315,-0.00473,-0.00153,-0.03189,-0.02365,-0.02777,-0.04608,-0.01877,-0.00473,-0.0119,-0.01663,-0.00534,0.01007,0.04791,-0.01526,-0.04364,-0.05478
7.632,-0.00778,0.00259,-0.0322,-0.02396,-0.0264,-0.047,-0.01877,-0.00473,-0.01266,-0.0148,-0.00641,0.00809,0.06104,-0.02304,-0.02167,-0.05936
7.6325,-0.00809,0.00641,-0.03342,-0.02319,-0.02701,-0.0473,-0.0174,-0.00473,-0.0148,-0.01343,-0.00961,0.00519,0.06241,-0.02411,-0.00153,-0.0589
7.633,-0.00687,0.01099,-0.03372,-0.02197,-0.0293,-0.047,-0.01556,-0.00458,-0.01572,-0.01312,-0.01526,0.00031,0.0386,-0.01785,0.00916,-0.05386
7.6335,-0.00443,0.01648,-0.03387,-0.02136,-0.0293,-0.04669,-0.01556,-0.00443,-0.01602,-0.01312,-0.02258,-0.0061,0.0061,-0.00412,0.0087,-0.04944
7.634,-0.00397,0.02106,-0.03265,-0.02106,-0.02823,-0.04593,-0.01526,-0.00397,-0.01587,-0.01328,-0.02701,-0.00854,-0.01404,0.01328,-0.00153,-0.05005
7.6345,-0.0032,0.02487,-0.0325,-0.02197,-0.02731,-0.04608,-0.0148,-0.00427,-0.01648,-0.01312,-0.02884,-0.00839,-0.02335,0.02151,-0.01755,-0.05219
7.635,-0.00229,0.02899,-0.03387,-0.02487,-0.0267,-0.04745,-0.01373,-0.00473,-0.01755,-0.01297,-0.03098,-0.00961,-0.03632,0.0145,-0.03494,-0.04974
7.6355,-0.00031,0.03265,-0.03494,-0.02731,-0.02548,-0.0499,-0.01389,-0.00549,-0.01846,-0.01083,-0.03677,-0.01175,-0.05768,-0.00153,-0.0444,-0.04059
7.636,-0.00137,0.03448,-0.03403,-0.02335,-0.02533,-0.05035,-0.01434,-0.00626,-0.01877,-0.00946,-0.04333,-0.01297,-0.07584,-0.01495,-0.03555,-0.02975
7.6365,-0.00641,0.03448,-0.03174,-0.01297,-0.02472,-0.05005,-0.01511,-0.00824,-0.01938,-0.00809,-0.04959,-0.01312,-0.07324,-0.01984,-0.01175,-0.02487
7.637,-0.01343,0.0354,-0.03113,0.0,-0.0264,-0.04852,-0.01617,-0.01205,-0.01923,-0.00778,-0.05554,-0.0119,-0.04578,-0.01816,0.01129,-0.02838
7.6375,-0.01846,0.03799,-0.03235,0.00793,-0.02762,-0.04868,-0.0174,-0.01678,-0.01907,-0.00641,-0.06104,-0.00946,-0.00656,-0.01511,0.03006,-0.03922
7.638,-0.02029,0.03967,-0.03311,0.00793,-0.02945,-0.04974,-0.01938,-0.01999,-0.01892,-0.0058,-0.06149,-0.00458,0.02335,-0.01251,0.05768,-0.05188
7.6385,-0.02045,0.03922,-0.0322,0.00168,-0.0322,-0.05081,-0.02335,-0.02167,-0.01984,-0.00641,-0.05234,-0.00122,0.0354,-0.01175,0.09506,-0.06226
7.639,-0.01984,0.0383,-0.03235,-0.00534,-0.03448,-0.04974,-0.02518,-0.02167,-0.01968,-0.00702,-0.02869,-0.00183,0.03784,-0.0116,0.10666,-0.06714
7.6395,-0.01816,0.0383,-0.0322,-0.01053,-0.03448,-0.04715,-0.02502,-0.02075,-0.01862,-0.00519,0.00534,-0.0032,0.04044,-0.00626,0.07172,-0.06638
7.64,-0.01526,0.03952,-0.03281,-0.01404,-0.03357,-0.0444,-0.02289,-0.01602,-0.01602,-0.00031,0.03174,-0.00351,0.03708,0.00168,0.01343,-0.0618
7.6405,-0.01205,0.04059,-0.03311,-0.01541,-0.03098,-0.04272,-0.02121,-0.00641,-0.01526,0.00519,0.0354,-0.0032,0.02075,0.00427,-0.02502,-0.05798
7.641,-0.009,0.0386,-0.03387,-0.01587,-0.0293,-0.0441,-0.02014,0.00473,-0.01526,0.00809,0.01785,-0.00351,-0.00244,0.00259,-0.02518,-0.05737
7.6415,-0.00778,0.03571,-0.03326,-0.01587,-0.02823,-0.0444,-0.01907,0.00702,-0.01678,0.00687,-0.00595,-0.00458,-0.0174,0.00748,-0.00687,-0.05753
7.642,-0.00839,0.03387,-0.03296,-0.01572,-0.02792,-0.04425,-0.01877,-0.00351,-0.01923,0.00748,-0.02319,-0.00534,-0.0174,0.02106,0.00778,-0.05661
7.6425,-0.00961,0.03357,-0.0322,-0.0145,-0.02777,-0.04242,-0.01663,-0.01633,-0.02228,0.00504,-0.03006,-0.00381,-0.01144,0.03281,0.0145,-0.05173
7.643,-0.01068,0.03342,-0.0322,-0.01389,-0.02716,-0.04211,-0.01343,-0.02075,-0.02365,0.00366,-0.03128,-0.00168,-0.01068,0.02197,0.01923,-0.04791
7.6435,-0.0119,0.0325,-0.03235,-0.01434,-0.0235,-0.04288,-0.01053,-0.01938,-0.02335,0.00183,-0.03632,0.00061,-0.01556,-0.02579,0.02319,-0.04364
7.644,-0.01419,0.02945,-0.03387,-0.01541,-0.02213,-0.04486,-0.01114,-0.01694,-0.02289,0.00046,-0.04745,0.00244,-0.0177,-0.09918,0.02167,-0.03937
7.6445,-0.01724,0.02518,-0.03525,-0.01556,-0.02411,-0.04547,-0.01282,-0.0032,-0.02365,-0.00092,-0.065,0.00275,-0.01068,-0.1474,0.01541,-0.0351
7.645,-0.01953,0.02243,-0.03555,-0.0145,-0.02747,-0.04456,-0.01297,0.0293,-0.02457,-0.00107,-0.07996,0.00214,0.00092,-0.12238,0.00717,-0.03174
7.6455,-0.01999,0.02075,-0.03662,-0.01328,-0.02945,-0.04288,-0.01221,0.05615,-0.0235,-0.00122,-0.08545,0.00183,0.01053,-0.04227,-0.00259,-0.03159
7.646,-0.02014,0.01831,-0.03799,-0.01297,-0.03067,-0.04166,-0.01541,0.04883,-0.02106,-0.00046,-0.08392,0.00107,0.01602,0.02029,-0.01343,-0.03098
7.6465,-0.0209,0.01373,-0.03937,-0.01343,-0.03128,-0.04242,-0.02167,0.0174,-0.01923,-0.0032,-0.0827,0.0,0.01938,0.02594,-0.02411,-0.03159
7.647,-0.02182,0.00931,-0.0412,-0.01343,-0.03174,-0.04318,-0.02625,-0.00381,-0.01846,-0.00336,-0.0853,-0.00244,0.01968,-0.00214,-0.02945,-0.03433
7.6475,-0.02304,0.00671,-0.0412,-0.01236,-0.0325,-0.04349,-0.02487,-0.00229,-0.01862,-0.00702,-0.08789,-0.00336,0.00916,-0.02472,-0.02548,-0.03784
7.648,-0.02472,0.00519,-0.03998,-0.01114,-0.03235,-0.04303,-0.02045,0.00565,-0.01709,-0.00748,-0.08255,-0.00244,-0.01007,-0.03174,-0.01633,-0.03891
7.6485,-0.02487,0.00183,-0.03922,-0.01068,-0.03403,-0.04257,-0.01831,0.00427,-0.01312,-0.00793,-0.07309,-0.00092,-0.02502,-0.03387,-0.00458,-0.03967
7.649,-0.02289,-0.0029,-0.03845,-0.01175,-0.03693,-0.04395,-0.01923,-0.0032,-0.01083,-0.00778,-0.06378,0.00046,-0.02518,-0.0354,0.00992,-0.03967
7.6495,-0.01938,-0.0058,-0.03738,-0.01236,-0.04044,-0.04471,-0.01831,-0.00763,-0.01068,-0.00916,-0.05814,0.00305,-0.01648,-0.03098,0.02792,-0.03952
7.65,-0.0145,-0.00641,-0.03525,-0.01114,-0.04059,-0.0441,-0.01648,-0.00549,-0.0119,-0.01282,-0.04974,0.00702,-0.01587,-0.0235,0.0441,-0.03983
7.6505,-0.01007,-0.00641,-0.03281,-0.01129,-0.03876,-0.04364,-0.01572,-0.00076,-0.01266,-0.01221,-0.03616,0.00931,-0.03525,-0.02121,0.05142,-0.04013
7.651,-0.00595,-0.0087,-0.03311,-0.01236,-0.0386,-0.04349,-0.01801,0.00107,-0.01312,-0.01312,-0.0174,0.00809,-0.06485,-0.02228,0.05173,-0.04044
7.6515,-0.00198,-0.01297,-0.03387,-0.0119,-0.04059,-0.0444,-0.01984,0.00061,-0.01587,-0.01556,0.00473,0.00565,-0.08148,-0.02243,0.05035,-0.04105
7.652,0.00137,-0.01755,-0.03464,-0.01083,-0.04288,-0.04562,-0.01862,-0.00061,-0.01938,-0.01953,0.03159,0.00458,-0.06409,-0.01724,0.04944,-0.04044
7.6525,0.00259,-0.02075,-0.03494,-0.00992,-0.04288,-0.04654,-0.01617,-0.0032,-0.0209,-0.02396,0.06241,0.00504,-0.01648,-0.0119,0.047,-0.03754
7.653,0.00244,-0.02304,-0.03479,-0.01007,-0.04028,-0.04623,-0.01465,-0.00641,-0.0209,-0.02365,0.09171,0.00549,0.02243,-0.00641,0.03891,-0.03372
7.6535,0.00229,-0.02594,-0.03433,-0.01175,-0.03723,-0.04379,-0.0148,-0.00931,-0.02121,-0.02121,0.11154,0.00565,0.00931,0.00412,0.02716,-0.02975
7.654,0.00183,-0.03052,-0.03448,-0.01236,-0.03647,-0.04242,-0.01602,-0.00977,-0.02243,-0.02151,0.11185,0.00687,-0.05981,0.03403,0.02014,-0.02899
7.6545,0.00107,-0.03448,-0.03479,-0.01221,-0.03784,-0.04257,-0.01831,-0.00946,-0.02335,-0.02228,0.08865,0.00839,-0.14481,0.07599,0.01877,-0.03128
7.655,0.00107,-0.03616,-0.03433,-0.0119,-0.03922,-0.04211,-0.02045,-0.00977,-0.02274,-0.01984,0.05417,0.00717,-0.20416,0.09644,0.01678,-0.0383
7.6555,0.00046,-0.03601,-0.03281,-0.01175,-0.03937,-0.04318,-0.02136,-0.01053,-0.02121,-0.02075,0.02426,0.00412,-0.22842,0.0592,0.01053,-0.05341
7.656,-0.00046,-0.03815,-0.03159,-0.01343,-0.03723,-0.04211,-0.01877,-0.01053,-0.01907,-0.0235,0.00778,0.00214,-0.21912,-0.01114,0.00259,-0.06912
7.6565,-0.00015,-0.04196,-0.03098,-0.01587,-0.03647,-0.04196,-0.01587,-0.00793,-0.01846,-0.0267,-0.00092,0.00275,-0.17899,-0.0499,-0.0032,-0.07462
7.657,-0.00076,-0.04471,-0.03235,-0.01816,-0.03601,-0.04242,-0.0145,-0.00443,-0.01862,-0.02838,-0.00931,0.00473,-0.12497,-0.03525,-0.00198,-0.06439
7.6575,-0.00229,-0.04517,-0.03342,-0.01801,-0.03708,-0.0444,-0.01312,-0.00092,-0.0174,-0.02518,-0.01984,0.00519,-0.08362,-0.01007,0.00214,-0.04852
7.658,-0.00427,-0.04333,-0.03311,-0.01541,-0.03738,-0.0444,-0.01282,-0.00198,-0.01755,-0.02258,-0.02731,0.00504,-0.06622,-0.01999,0.00534,-0.03937
7.6585,-0.00732,-0.04333,-0.03174,-0.01205,-0.03479,-0.0441,-0.01266,-0.00427,-0.01663,-0.01846,-0.03036,0.00381,-0.0618,-0.05524,0.00626,-0.03952
7.659,-0.01221,-0.04547,-0.02991,-0.01068,-0.03281,-0.04425,-0.01343,-0.00626,-0.01526,-0.01541,-0.03098,0.00122,-0.05676,-0.07492,0.00458,-0.04425
7.6595,-0.01587,-0.047,-0.02731,-0.01053,-0.03189,-0.04257,-0.01373,-0.00732,-0.01358,-0.01678,-0.02991,-0.00076,-0.04944,-0.06393,-0.00031,-0.04837
7.66,-0.01755,-0.04593,-0.02411,-0.01343,-0.02975,-0.04257,-0.01312,-0.00763,-0.01236,-0.01709,-0.03021,0.0,-0.04837,-0.04379,-0.01083,-0.04974
7.6605,-0.01678,-0.04471,-0.0238,-0.01587,-0.0267,-0.04074,-0.01266,-0.00931,-0.01236,-0.01831,-0.0325,0.00168,-0.05859,-0.03479,-0.02335,-0.04776
7.661,-0.01617,-0.04471,-0.02777,-0.01648,-0.02319,-0.04135,-0.01221,-0.01068,-0.01205,-0.01724,-0.03571,0.00336,-0.07263,-0.03326,-0.0238,-0.04578
7.6615,-0.01633,-0.04715,-0.03052,-0.01358,-0.01968,-0.04044,-0.01129,-0.01144,-0.01022,-0.01663,-0.0386,0.00031,-0.07767,-0.02808,-0.00244,-0.04562
7.662,-0.01541,-0.04807,-0.03067,-0.00763,-0.01801,-0.04227,-0.01083,-0.01099,-0.00763,-0.01358,-0.03906,-0.01053,-0.07233,-0.01663,0.02396,-0.04913
7.6625,-0.01266,-0.04807,-0.02884,-0.00015,-0.01862,-0.04349,-0.00977,-0.01114,-0.00671,-0.01495,-0.03754,-0.02502,-0.06882,-0.00549,0.02365,-0.05234
7.663,-0.01053,-0.04807,-0.02838,0.00656,-0.02121,-0.04395,-0.009,-0.01175,-0.00778,-0.01312,-0.03632,-0.03418,-0.07294,-0.00107,-0.00656,-0.05234
7.6635,-0.00961,-0.04745,-0.03036,0.00961,-0.02518,-0.04608,-0.00793,-0.01144,-0.01022,-0.0119,-0.03662,-0.03433,-0.07782,0.00031,-0.03677,-0.04929
7.664,-0.00854,-0.047,-0.03265,0.00793,-0.03036,-0.04623,-0.00854,-0.01083,-0.01297,-0.01343,-0.03754,-0.0296,-0.07751,0.00443,-0.03845,-0.04501
7.6645,-0.00641,-0.04562,-0.03357,0.00412,-0.03418,-0.0473,-0.00854,-0.00992,-0.01572,-0.01144,-0.03662,-0.02228,-0.07385,0.01434,-0.0174,-0.04303
7.665,-0.00198,-0.04486,-0.0325,0.00275,-0.03677,-0.04745,-0.00854,-0.0116,-0.01801,-0.01099,-0.03357,-0.01328,-0.06958,0.02609,0.00198,-0.04272
7.6655,0.00305,-0.04517,-0.03128,0.00519,-0.03967,-0.04837,-0.00916,-0.01678,-0.0206,-0.01251,-0.03036,-0.00168,-0.06058,0.03479,0.01266,-0.0441
7.666,0.00717,-0.04623,-0.0322,0.00824,-0.0415,-0.04898,-0.01022,-0.02502,-0.02228,-0.01282,-0.02792,0.0119,-0.04517,0.03662,0.02472,-0.04395
7.6665,0.0116,-0.04639,-0.03311,0.00366,-0.04242,-0.04761,-0.01083,-0.03189,-0.02289,-0.01389,-0.02686,0.02274,-0.03204,0.03357,0.04135,-0.04181
7.667,0.01434,-0.04639,-0.03448,-0.01831,-0.04196,-0.04532,-0.01175,-0.03296,-0.02441,-0.0116,-0.02563,0.02625,-0.03174,0.0267,0.04837,-0.03922
7.6675,0.01358,-0.04608,-0.03464,-0.0531,-0.04333,-0.04593,-0.01144,-0.02625,-0.0267,-0.01587,-0.02563,0.01892,-0.04257,0.0177,0.03571,-0.03952
7.668,0.0087,-0.04684,-0.03647,-0.0766,-0.04578,-0.04745,-0.01129,-0.01465,-0.0293,-0.01434,-0.02731,0.00702,-0.05447,0.00549,0.01541,-0.04257
7.6685,0.00336,-0.04807,-0.03815,-0.07248,-0.04715,-0.04944,-0.00916,-0.00122,-0.03098,-0.01587,-0.03006,0.00351,-0.06058,-0.01526,0.00717,-0.04364
7.669,0.00198,-0.04807,-0.03998,-0.05051,-0.04623,-0.04761,-0.00595,0.01022,-0.03128,-0.01907,-0.03342,0.02014,-0.0589,-0.05371,0.0148,-0.04349
7.6695,0.0032,-0.04669,-0.03952,-0.03235,-0.04364,-0.04761,-0.00443,0.0174,-0.03021,-0.01526,-0.03693,0.04791,-0.04547,-0.10757,0.02228,-0.04227
7.67,0.00534,-0.04379,-0.0383,-0.02548,-0.0412,-0.04822,-0.00793,0.01877,-0.02991,-0.01556,-0.04135,0.0618,-0.0119,-0.14648,0.02304,-0.0415
7.6705,0.00565,-0.04272,-0.03693,-0.0235,-0.03891,-0.04745,-0.01251,0.01495,-0.02777,-0.01038,-0.04684,0.05096,0.04471,-0.13916,0.01709,-0.0415
7.671,0.00381,-0.04349,-0.03586,-0.02106,-0.03616,-0.04669,-0.01419,0.00961,-0.02502,0.00061,-0.04852,0.0293,0.09933,-0.09476,0.01068,-0.0415
7.6715,0.00275,-0.04425,-0.03601,-0.01801,-0.03342,-0.04578,-0.01205,0.00778,-0.02319,0.00198,-0.047,0.01556,0.10406,-0.04898,0.00687,-0.04089
7.672,0.00214,-0.04303,-0.03738,-0.01526,-0.02945,-0.04715,-0.0087,0.00687,-0.02258,-0.0032,-0.04684,0.01328,0.04105,-0.02487,0.00427,-0.03967
7.6725,0.00092,-0.04089,-0.03799,-0.01358,-0.02686,-0.04669,-0.0061,0.00595,-0.02274,-0.02029,-0.05096,0.01404,-0.04456,-0.01526,0.00366,-0.03906
7.673,-0.00046,-0.03952,-0.03601,-0.0119,-0.02502,-0.0473,-0.00534,0.00595,-0.02167,-0.02686,-0.05768,0.01358,-0.08957,-0.00763,0.00687,-0.03922
7.6735,-0.00351,-0.04013,-0.03311,-0.01007,-0.02502,-0.04593,-0.00519,0.00656,-0.01923,-0.02975,-0.06271,0.01251,-0.08041,0.00031,0.01221,-0.04013
7.674,-0.00763,-0.04028,-0.03235,-0.0087,-0.02533,-0.047,-0.00687,0.00793,-0.01633,-0.02838,-0.0676,0.009,-0.05157,0.00351,0.01419,-0.03983
7.6745,-0.0119,-0.03967,-0.03387,-0.00839,-0.02563,-0.04807,-0.00839,0.00824,-0.01389,-0.02823,-0.07828,0.00488,-0.02533,-0.00122,0.01266,-0.0386
7.675,-0.01266,-0.03967,-0.03586,-0.00778,-0.02457,-0.05005,-0.01373,0.00366,-0.0119,-0.02625,-0.09003,0.00183,0.01389,-0.01236,0.00916,-0.03799
7.6755,-0.01022,-0.04089,-0.03723,-0.00778,-0.02289,-0.05112,-0.0238,-0.00732,-0.01007,-0.0267,-0.0972,0.00015,0.08087,-0.0235,0.00793,-0.03677
7.676,-0.00717,-0.04196,-0.03693,-0.00702,-0.0209,-0.05386,-0.03586,-0.01465,-0.00793,-0.02792,-0.09109,-0.00122,0.14679,-0.02869,0.00763,-0.03632
7.6765,-0.00534,-0.04089,-0.03433,-0.00488,-0.02121,-0.05188,-0.04364,-0.00412,-0.00671,-0.0235,-0.06805,-0.00336,0.16602,-0.02579,0.0058,-0.03738
7.677,-0.00595,-0.03876,-0.03326,-0.00381,-0.02335,-0.05051,-0.04547,0.02472,-0.00656,-0.02213,-0.03403,-0.00443,0.11917,-0.01892,0.00275,-0.03708
7.6775,-0.00702,-0.03906,-0.03433,-0.00259,-0.0238,-0.0502,-0.04333,0.05127,-0.00687,-0.01038,0.00488,-0.00488,0.02457,-0.0177,0.00046,-0.03769
7.678,-0.00702,-0.04181,-0.0351,-0.00076,-0.02289,-0.05035,-0.03998,0.06683,-0.00565,-0.01038,0.04044,-0.00656,-0.08316,-0.02548,-0.00015,-0.03922
7.6785,-0.00565,-0.0444,-0.0351,0.0,-0.02213,-0.05112,-0.03708,0.06805,-0.00336,-0.00397,0.06424,-0.00916,-0.18448,-0.03357,-0.00137,-0.03815
7.679,-0.00412,-0.04517,-0.03494,0.00031,-0.02167,-0.04974,-0.03189,0.04211,0.00046,-0.00641,0.06912,-0.01068,-0.26672,-0.01999,0.0,-0.03601
7.6795,-0.0029,-0.0444,-0.03479,0.00092,-0.01953,-0.04593,-0.01831,-0.0235,0.00549,-0.00046,0.06454,-0.01114,-0.31601,0.02548,0.00092,-0.03357
7.68,-0.0029,-0.04257,-0.03479,0.00259,-0.01663,-0.04593,-0.00046,-0.10239,0.00824,0.01541,0.06012,-0.01053,-0.31387,0.07462,0.0032,-0.03586
7.6805,-0.00504,-0.04196,-0.03403,0.00519,-0.0148,-0.04608,0.009,-0.15503,0.00763,0.04166,0.06149,-0.01099,-0.25681,0.07111,0.00275,-0.056
7.681,-0.00595,-0.04181,-0.03479,0.00671,-0.0148,-0.04715,0.00397,-0.17456,0.00473,0.05875,0.06424,-0.00992,-0.16541,0.01099,0.00198,-0.09598
7.6815,-0.0061,-0.04364,-0.03281,0.00641,-0.01694,-0.04776,-0.00534,-0.15762,0.00107,0.03876,0.06195,-0.00763,-0.07919,-0.04181,0.00092,-0.12787
7.682,-0.00641,-0.04608,-0.03235,0.00443,-0.01968,-0.04715,-0.00885,-0.07858,-0.0032,-0.0116,0.05325,-0.0061,-0.02731,-0.04211,0.00214,-0.11658
7.6825,-0.0061,-0.04913,-0.03189,0.0029,-0.0235,-0.04562,-0.00107,0.0386,-0.00778,-0.07248,0.03738,-0.0061,-0.01556,-0.01663,0.00336,-0.06058
7.683,-0.00702,-0.05142,-0.03433,0.00336,-0.02731,-0.047,0.00824,0.09338,-0.01205,-0.09384,0.01923,-0.00656,-0.03128,-0.01343,0.00763,0.00458
7.6835,-0.009,-0.05188,-0.0351,0.00534,-0.0293,-0.04745,0.00931,0.03906,-0.01419,-0.08331,0.00168,-0.00702,-0.05936,-0.03006,0.01221,0.04776
7.684,-0.01129,-0.05188,-0.03464,0.00641,-0.02991,-0.05096,0.00168,-0.03937,-0.01465,-0.06805,-0.00992,-0.00732,-0.08636,-0.03769,0.01617,0.06744
7.6845,-0.01129,-0.05188,-0.03281,0.00778,-0.03052,-0.04974,-0.00793,-0.05157,-0.01678,-0.06073,-0.0145,-0.00671,-0.10986,-0.02808,0.01633,0.0766
7.685,-0.00854,-0.05234,-0.03265,0.01068,-0.03098,-0.04974,-0.0148,-0.0209,-0.02167,-0.05463,-0.01892,-0.00549,-0.13153,-0.02106,0.00992,0.07965
7.6855,-0.00763,-0.0528,-0.03265,0.01373,-0.03174,-0.0499,-0.01602,-0.0209,-0.02731,-0.04349,-0.0293,-0.00519,-0.14755,-0.03372,-0.00336,0.06744
7.686,-0.00671,-0.05447,-0.0325,0.01511,-0.03265,-0.04807,-0.01328,-0.05417,-0.02655,-0.03479,-0.04761,-0.00671,-0.14847,-0.06058,-0.01907,0.02686
7.6865,-0.00656,-0.05493,-0.03265,0.01419,-0.03204,-0.0473,-0.00946,-0.06119,-0.01602,-0.03235,-0.07294,-0.00717,-0.1265,-0.07156,-0.0322,-0.03799
7.687,-0.00687,-0.05493,-0.0325,0.01358,-0.03128,-0.04776,-0.00641,-0.01343,0.00137,-0.04303,-0.09583,-0.00687,-0.08408,-0.05188,-0.03479,-0.10147
7.6875,-0.00671,-0.05402,-0.03311,0.01358,-0.03067,-0.04898,-0.00443,0.06149,0.01785,-0.05341,-0.11063,-0.00504,-0.0354,-0.01816,-0.02594,-0.12589
7.688,-0.0061,-0.05386,-0.03479,0.01358,-0.03113,-0.04868,-0.00351,0.11932,0.02823,-0.06653,-0.11032,-0.0058,0.00168,0.00549,-0.00931,-0.09888
7.6885,-0.00519,-0.05508,-0.03677,0.01358,-0.03098,-0.05051,-0.00443,0.13153,0.03311,-0.06424,-0.09262,-0.00656,0.01572,0.02228,0.00916,-0.04929
7.689,-0.0061,-0.05676,-0.03708,0.01297,-0.03067,-0.05051,-0.00793,0.09476,0.03067,-0.0499,-0.06561,-0.00671,0.01373,0.0473,0.02304,-0.01984
7.6895,-0.00626,-0.05844,-0.03586,0.01205,-0.03052,-0.05112,-0.0116,0.04044,0.01892,-0.03082,-0.04227,-0.00412,0.01022,0.06363,0.02884,-0.01846
7.69,-0.0061,-0.05829,-0.03403,0.01221,-0.03128,-0.05157,-0.01556,0.00793,0.00031,-0.01556,-0.03418,-0.00046,0.01434,0.03372,0.02884,-0.02411
7.6905,-0.00488,-0.05814,-0.03326,0.01251,-0.03265,-0.05081,-0.02075,0.00687,-0.01862,-0.01617,-0.03891,0.00061,0.0174,-0.0383,0.03311,-0.02243
7.691,-0.00473,-0.05981,-0.03357,0.0119,-0.03418,-0.04913,-0.02563,0.01617,-0.03296,-0.01953,-0.04501,-0.00015,0.01312,-0.0943,0.03952,-0.0206
7.6915,-0.00504,-0.06165,-0.03342,0.01129,-0.03494,-0.04837,-0.02502,0.01587,-0.04059,-0.02228,-0.04044,-0.00168,0.00549,-0.09537,0.03815,-0.03342
7.692,-0.00473,-0.06317,-0.03189,0.00931,-0.03769,-0.04959,-0.02045,0.00763,-0.04318,-0.02121,-0.02762,-0.00092,0.00183,-0.06714,0.02396,-0.06317
7.6925,-0.00275,-0.06393,-0.03174,0.00763,-0.03922,-0.04944,-0.01633,0.0029,-0.04242,-0.01968,-0.01663,0.0,0.00137,-0.05478,0.01572,-0.0972
7.693,0.00076,-0.06531,-0.03235,0.00717,-0.03952,-0.04791,-0.01617,0.00458,-0.04059,-0.0206,-0.01022,0.00031,0.00015,-0.05478,0.02823,-0.12039
7.6935,0.00381,-0.06714,-0.0325,0.00763,-0.03876,-0.04639,-0.0174,0.00671,-0.03922,-0.02319,-0.00854,-0.00015,-0.00549,-0.04395,0.04745,-0.12375
7.694,0.00381,-0.0679,-0.0325,0.00778,-0.0383,-0.04837,-0.01724,0.00763,-0.04059,-0.02411,-0.00793,-0.00168,-0.01099,-0.02243,0.0502,-0.11124
7.6945,0.00381,-0.06775,-0.03387,0.00839,-0.03891,-0.04944,-0.01572,0.00702,-0.04333,-0.0209,-0.00809,-0.00549,-0.01099,-0.00946,0.02945,-0.09109
7.695,0.00412,-0.06805,-0.03448,0.00732,-0.03708,-0.05173,-0.01495,0.0061,-0.04318,-0.01801,-0.00839,-0.00824,-0.00565,-0.00946,-0.00229,-0.07141
7.6955,0.00473,-0.06927,-0.03464,0.00519,-0.03464,-0.05173,-0.01465,0.00732,-0.0383,-0.0206,-0.0116,-0.00793,0.00046,-0.01312,-0.03525,-0.05722
7.696,0.00427,-0.06973,-0.03448,0.00443,-0.0322,-0.05188,-0.01312,0.00885,-0.03082,-0.02213,-0.01266,-0.00443,0.00168,-0.0177,-0.07889,-0.0528
7.6965,0.00305,-0.06851,-0.03464,0.00504,-0.02945,-0.05096,-0.01282,0.009,-0.02441,-0.02625,-0.01022,0.0,-0.00137,-0.0267,-0.13702,-0.056
7.697,0.00168,-0.06866,-0.03448,0.00641,-0.02777,-0.0502,-0.01511,0.00671,-0.02197,-0.02686,-0.00793,0.00244,-0.00702,-0.03662,-0.17578,-0.05966
7.6975,0.00046,-0.0705,-0.03403,0.00519,-0.02716,-0.04745,-0.01678,0.00397,-0.02136,-0.02914,-0.00381,0.00427,-0.01266,-0.0351,-0.1503,-0.05905
7.698,-0.00092,-0.07263,-0.03387,0.0032,-0.02747,-0.04562,-0.01984,0.00076,-0.02121,-0.03479,-0.00397,0.00519,-0.01495,-0.01877,-0.06622,-0.05646
7.6985,-0.00137,-0.07324,-0.03342,0.00168,-0.0264,-0.04425,-0.02151,0.00046,-0.02075,-0.03189,-0.00381,0.00381,-0.01572,0.00031,0.01511,-0.05539
7.699,-0.00275,-0.07248,-0.03281,0.00092,-0.0238,-0.04257,-0.02167,-0.00092,-0.0206,-0.03235,-0.00336,0.00046,-0.01755,0.01022,0.0528,-0.05447
7.6995,-0.00458,-0.07202,-0.0322,0.00046,-0.02136,-0.04135,-0.02136,-0.00107,-0.01923,-0.02655,-0.00122,-0.00153,-0.01846,0.01419,0.06256,-0.05234
7.7,-0.00504,-0.07111,-0.0322,0.00061,-0.02121,-0.04272,-0.02106,0.0,-0.01648,-0.02136,0.00137,-0.00061,-0.01511,0.02472,0.07416,-0.04944
7.7005,-0.00488,-0.07141,-0.03265,0.00137,-0.02426,-0.04379,-0.01892,0.00046,-0.0148,-0.01892,0.00183,0.00198,-0.00549,0.04761,0.08743,-0.04807
7.701,-0.00366,-0.07248,-0.03281,0.00244,-0.02533,-0.04318,-0.01648,0.0,-0.01465,-0.01816,0.00107,0.00153,0.00809,0.07431,0.08987,-0.04715
7.7015,-0.0032,-0.07233,-0.03296,0.00259,-0.02411,-0.04562,-0.01343,-0.00168,-0.01465,-0.01587,-0.00214,-0.00046,0.01862,0.08896,0.07965,-0.04745
7.702,-0.00366,-0.07111,-0.03281,0.00198,-0.02258,-0.04562,-0.01404,-0.00275,-0.01312,-0.01205,-0.00702,-0.00229,0.01892,0.08209,0.06592,-0.04761
7.7025,-0.00427,-0.07004,-0.03204,0.00198,-0.02487,-0.04471,-0.01862,-0.00305,-0.01114,-0.00595,-0.01175,-0.00137,0.009,0.06119,0.05386,-0.04562
7.703,-0.00488,-0.06958,-0.03296,0.00244,-0.02899,-0.04425,-0.02121,-0.00351,-0.00885,-0.00122,-0.01617,-0.00015,0.0029,0.03983,0.03937,-0.04456
7.7035,-0.00687,-0.07019,-0.03387,0.00336,-0.03235,-0.04501,-0.02029,-0.00366,-0.00656,0.00092,-0.01663,0.00015,0.01663,0.01907,0.02457,-0.04486
7.704,-0.00885,-0.07004,-0.03632,0.00458,-0.03387,-0.04593,-0.01678,-0.00214,-0.00534,0.00351,-0.01373,-0.00076,0.04822,-0.01022,0.01511,-0.04532
7.7045,-0.01068,-0.06744,-0.03632,0.00534,-0.03479,-0.04669,-0.0145,0.00137,-0.00626,0.0032,-0.01038,-0.00107,0.06973,-0.05157,0.01404,-0.04318
7.705,-0.00992,-0.06577,-0.03448,0.00336,-0.03571,-0.04593,-0.01495,0.00488,-0.00763,0.00092,-0.01022,0.00015,0.05386,-0.08484,0.01617,-0.04105
7.7055,-0.00885,-0.065,-0.03418,-0.00122,-0.03693,-0.04654,-0.01572,0.00549,-0.00732,-0.00504,-0.01236,0.00015,0.00259,-0.09201,0.01633,-0.03967
7.706,-0.0087,-0.06683,-0.0351,-0.00641,-0.03754,-0.04852,-0.01724,0.00305,-0.00595,-0.00961,-0.01266,0.00031,-0.05249,-0.08362,0.01373,-0.03983
7.7065,-0.00885,-0.06607,-0.03647,-0.00809,-0.0354,-0.04929,-0.01709,0.00061,-0.00366,-0.00931,-0.00854,0.00076,-0.08759,-0.08316,0.01083,-0.03967
7.707,-0.00854,-0.06393,-0.03616,-0.00641,-0.03159,-0.0473,-0.01709,-0.00122,-0.00305,-0.00488,-0.00168,0.00046,-0.10635,-0.09811,0.01068,-0.03754
7.7075,-0.00732,-0.06241,-0.03525,-0.00336,-0.02716,-0.04745,-0.01678,-0.00412,-0.00244,-0.00656,0.00595,-0.00046,-0.12115,-0.11581,0.01205,-0.03555
7.708,-0.00732,-0.06165,-0.03586,-0.00198,-0.02426,-0.0441,-0.01801,-0.009,-0.0032,-0.00977,0.01541,-0.00122,-0.12848,-0.13062,0.01373,-0.03464
7.7085,-0.00717,-0.06134,-0.03708,-0.00244,-0.02396,-0.0444,-0.01923,-0.01694,-0.00565,-0.01434,0.02518,-0.00122,-0.11429,-0.14282,0.01358,-0.03357
7.709,-0.00534,-0.05981,-0.0383,-0.00443,-0.02426,-0.04425,-0.01984,-0.02747,-0.00854,-0.01572,0.03052,0.00015,-0.08057,-0.14359,0.01297,-0.03204
7.7095,-0.0032,-0.05814,-0.03815,-0.00671,-0.02411,-0.04578,-0.01831,-0.04074,-0.00961,-0.01205,0.02716,-0.00061,-0.04745,-0.12466,0.01312,-0.03067
7.71,-0.00137,-0.05737,-0.03601,-0.00656,-0.0209,-0.04456,-0.01663,-0.05402,-0.00641,-0.01343,0.01816,-0.00244,-0.02884,-0.08774,0.0148,-0.03021
7.7105,-0.0029,-0.05844,-0.03448,-0.00809,-0.0174,-0.04562,-0.01526,-0.06439,-0.00366,-0.01175,0.00992,-0.0032,-0.0235,-0.05112,0.01328,-0.03113
7.711,-0.00656,-0.06073,-0.03433,-0.01312,-0.01602,-0.04883,-0.01312,-0.07202,-0.00336,-0.01282,0.00732,-0.00107,-0.02472,-0.0293,0.00412,-0.03082
7.7115,-0.00916,-0.0618,-0.03555,-0.01938,-0.01923,-0.0528,-0.0116,-0.07416,-0.00458,-0.01526,0.0087,0.00137,-0.02884,-0.01755,-0.0087,-0.03036
7.712,-0.00839,-0.06149,-0.03601,-0.0238,-0.02594,-0.05646,-0.01236,-0.06699,-0.00793,-0.0145,0.01297,0.00214,-0.03296,0.00504,-0.01938,-0.03067
7.7125,-0.00809,-0.06058,-0.03601,-0.02304,-0.0325,-0.0592,-0.01511,-0.04807,-0.01236,-0.01953,0.01648,0.00244,-0.03403,0.03494,-0.02167,-0.03174
7.713,-0.00931,-0.0592,-0.03571,-0.01816,-0.03891,-0.05936,-0.01755,-0.02243,-0.01541,-0.01541,0.01984,0.00244,-0.02884,0.04364,-0.01221,-0.03571
7.7135,-0.01099,-0.05905,-0.03647,-0.01328,-0.04089,-0.05905,-0.01938,-0.00046,-0.01587,-0.01556,0.01953,0.00137,-0.02121,0.01251,0.00717,-0.03937
7.714,-0.01144,-0.05936,-0.03632,-0.01007,-0.04211,-0.0647,-0.01999,0.01083,-0.01419,-0.01434,0.01572,0.00137,-0.01709,-0.03281,0.02945,-0.04059
7.7145,-0.00977,-0.05875,-0.03555,-0.00992,-0.04364,-0.07584,-0.01968,0.01221,-0.0116,-0.01282,0.01282,0.00397,-0.01511,-0.0528,0.04089,-0.03891
7.715,-0.00763,-0.05875,-0.03387,-0.01205,-0.04745,-0.0824,-0.01801,0.01343,-0.01022,-0.01526,0.01205,0.00961,-0.0116,-0.03922,0.03708,-0.03815
7.7155,-0.00671,-0.05829,-0.03235,-0.0145,-0.05157,-0.08255,-0.01556,0.02563,-0.01022,-0.01526,0.01114,0.01404,-0.0058,-0.01465,0.02808,-0.03967
7.716,-0.00763,-0.05692,-0.03265,-0.01648,-0.05051,-0.07446,-0.01511,0.04105,-0.0119,-0.01297,0.00763,0.01541,-0.00259,-0.00168,0.02625,-0.04318
7.7165,-0.00839,-0.05447,-0.03372,-0.01633,-0.04517,-0.06271,-0.01572,0.04013,-0.0119,-0.01465,0.00443,0.01297,-0.00717,0.00061,0.02594,-0.04395
7.717,-0.00931,-0.05325,-0.0354,-0.01678,-0.04242,-0.05692,-0.01587,0.01877,-0.00977,-0.01602,0.00473,0.01099,-0.01785,0.00259,0.01297,-0.04044
7.7175,-0.00946,-0.05463,-0.03723,-0.01678,-0.04196,-0.0528,-0.01465,-0.00214,-0.00824,-0.01511,0.00656,0.01114,-0.02777,0.0058,-0.01495,-0.03433
7.718,-0.009,-0.05646,-0.0386,-0.01648,-0.04532,-0.04974,-0.01175,-0.00824,-0.00763,-0.01801,0.00977,0.01358,-0.03586,0.00809,-0.04089,-0.03036
7.7185,-0.01038,-0.05539,-0.0386,-0.0177,-0.04868,-0.03876,-0.00839,-0.00534,-0.00763,-0.01556,0.01343,0.0145,-0.04242,0.00732,-0.04333,-0.03098
7.719,-0.01068,-0.05295,-0.03677,-0.02243,-0.05112,-0.02502,-0.00778,-0.00427,-0.00793,-0.01663,0.01511,0.01175,-0.04486,0.00626,-0.02548,-0.03372
7.7195,-0.00961,-0.05005,-0.03418,-0.02884,-0.05325,-0.00763,-0.00793,-0.00519,-0.00626,-0.01663,0.01526,0.00687,-0.03891,0.00656,-0.00565,-0.03433
7.72,-0.00641,-0.04822,-0.03265,-0.03265,-0.05478,0.00015,-0.00763,-0.00305,-0.00397,-0.01663,0.01129,0.00381,-0.03036,0.00656,0.00122,-0.03403
7.7205,-0.00427,-0.04807,-0.03433,-0.0354,-0.05432,-0.00641,-0.00595,0.00275,-0.00107,-0.01648,0.00443,0.00275,-0.02655,0.00336,-0.00244,-0.03418
7.721,-0.00412,-0.04944,-0.03494,-0.03555,-0.05142,-0.0235,-0.00381,0.00671,0.00015,-0.01678,-0.00122,0.00275,-0.02747,-0.00061,-0.0087,-0.03632
7.7215,-0.00534,-0.05005,-0.03479,-0.03357,-0.04807,-0.03876,-0.00381,0.00671,-0.00015,-0.01953,-0.00427,0.00214,-0.02716,-0.00473,-0.01266,-0.03876
7.722,-0.00534,-0.04959,-0.03311,-0.03021,-0.04517,-0.04074,-0.00626,0.00259,-0.00153,-0.01984,-0.00259,0.00153,-0.02396,-0.00671,-0.01495,-0.0415
7.7225,-0.00595,-0.04822,-0.03204,-0.02808,-0.04303,-0.0383,-0.00977,-0.00259,-0.00473,-0.01999,-0.00153,0.00259,-0.01862,-0.00671,-0.01221,-0.04181
7.723,-0.00504,-0.04684,-0.0322,-0.02838,-0.03906,-0.03738,-0.01602,-0.00351,-0.00778,-0.01724,-0.00107,0.00336,-0.01465,-0.00534,0.00107,-0.0412
7.7235,-0.0058,-0.04547,-0.03418,-0.03586,-0.03342,-0.03906,-0.02441,-0.00275,-0.01038,-0.01923,-0.00046,0.00336,-0.01099,0.00076,0.02518,-0.04013
7.724,-0.00732,-0.04395,-0.03647,-0.05417,-0.02792,-0.04639,-0.0296,-0.00168,-0.01328,-0.02197,0.00183,0.00229,-0.00778,0.01389,0.04303,-0.04059
7.7245,-0.00671,-0.04333,-0.03754,-0.07401,-0.0267,-0.05325,-0.02686,-0.00458,-0.01526,-0.02411,0.00427,0.00076,-0.00595,0.03555,0.0444,-0.04242
7.725,-0.00412,-0.0441,-0.03662,-0.0795,-0.0293,-0.05432,-0.02045,-0.00977,-0.01572,-0.02533,0.00565,-0.00061,-0.00488,0.05692,0.02914,-0.04425
7.7255,-0.0029,-0.04456,-0.03555,-0.06805,-0.03281,-0.0531,-0.01617,-0.01297,-0.01633,-0.02487,0.00534,-0.00153,-0.00259,0.06638,0.01129,-0.04639
7.726,-0.00458,-0.04486,-0.03555,-0.04974,-0.03174,-0.05295,-0.01511,-0.01266,-0.01785,-0.02777,0.00534,-0.00092,0.00153,0.06348,-0.00076,-0.04745
7.7265,-0.00504,-0.04547,-0.03571,-0.03281,-0.02869,-0.05585,-0.01373,-0.01205,-0.01831,-0.02472,0.00809,0.00107,0.00488,0.05615,-0.01129,-0.04684
7.727,-0.00336,-0.04623,-0.03571,-0.01328,-0.02716,-0.05615,-0.01114,-0.01251,-0.01953,-0.02594,0.01297,0.00122,0.00336,0.05554,-0.01907,-0.04501
7.7275,-0.00046,-0.04639,-0.0351,0.01099,-0.02853,-0.05356,-0.009,-0.01465,-0.01984,-0.01968,0.0174,0.0,-0.00137,0.05341,-0.01526,-0.04318
7.728,0.00076,-0.04547,-0.03403,0.03555,-0.02884,-0.04852,-0.00854,-0.01419,-0.02045,-0.02213,0.01801,-0.00092,-0.0061,0.02151,0.00473,-0.04074
7.7285,0.00015,-0.04349,-0.03311,0.05188,-0.02686,-0.04578,-0.00854,-0.0087,-0.02106,-0.02228,0.01221,0.0,-0.01144,-0.07095,0.02747,-0.03952
7.729,-0.00198,-0.04272,-0.03296,0.0502,-0.02411,-0.03708,-0.00793,-0.00107,-0.02136,-0.0235,0.00427,0.00092,-0.01633,-0.18768,0.03983,-0.03998
7.7295,-0.00275,-0.04242,-0.03326,0.03067,-0.02045,-0.0351,-0.00763,0.00534,-0.02075,-0.02258,-0.0029,0.00244,-0.01953,-0.22614,0.04288,-0.0415
7.73,-0.00031,-0.04013,-0.03235,0.00565,-0.02014,-0.0322,-0.00916,0.00778,-0.01953,-0.02167,-0.00977,0.00305,-0.01816,-0.14175,0.0415,-0.0415
7.7305,0.00076,-0.03708,-0.0325,-0.01038,-0.0209,-0.03006,-0.01083,0.00748,-0.01968,-0.02151,-0.01709,0.00458,-0.01602,-0.02319,0.03235,-0.03922
7.731,-0.00092,-0.03555,-0.03342,-0.01205,-0.02106,-0.03372,-0.01312,0.0058,-0.0209,-0.02319,-0.0264,0.00763,-0.01755,0.03036,0.01846,-0.03647
7.7315,-0.00595,-0.03693,-0.03555,-0.00626,-0.01938,-0.04181,-0.01434,0.00259,-0.01999,-0.02228,-0.03082,0.0087,-0.02167,0.01556,0.00656,-0.03494
7.732,-0.00977,-0.03815,-0.03632,-0.00214,-0.0177,-0.04547,-0.01511,-0.00305,-0.01877,-0.02289,-0.03372,0.00778,-0.02258,-0.01251,0.00107,-0.0351
7.7325,-0.00992,-0.03815,-0.0354,-0.0032,-0.01694,-0.05035,-0.01648,-0.00641,-0.0174,-0.01862,-0.03326,0.00641,-0.02289,-0.03098,0.00259,-0.03601
7.733,-0.00626,-0.03632,-0.03357,-0.00854,-0.0174,-0.05783,-0.01755,-0.00519,-0.0177,-0.01938,-0.03616,0.00565,-0.02197,-0.05051,0.00687,-0.03616
7.7335,-0.00504,-0.03494,-0.0322,-0.01297,-0.01831,-0.0676,-0.01755,-0.00122,-0.01678,-0.01953,-0.04578,0.00397,-0.02335,-0.06882,0.01129,-0.03601
7.734,-0.00504,-0.03601,-0.03342,-0.01251,-0.0209,-0.07324,-0.01678,0.00198,-0.01465,-0.01907,-0.05814,0.00198,-0.02609,-0.06912,0.01236,-0.03738
7.7345,-0.00732,-0.03769,-0.03479,-0.0119,-0.02182,-0.07797,-0.01572,0.00473,-0.0116,-0.01816,-0.06805,0.00046,-0.03143,-0.05371,0.01144,-0.03906
7.735,-0.00961,-0.03784,-0.0351,-0.02274,-0.02151,-0.07538,-0.0148,0.00839,-0.01068,-0.01511,-0.06882,0.00122,-0.03906,-0.03494,0.01114,-0.0415
7.7355,-0.01129,-0.03693,-0.03418,-0.047,-0.01938,-0.07553,-0.01373,0.01343,-0.01083,-0.01465,-0.05707,0.00381,-0.04288,-0.01221,0.01068,-0.0415
7.736,-0.01266,-0.03616,-0.03433,-0.06622,-0.01724,-0.07263,-0.01251,0.01663,-0.01175,-0.01556,-0.03601,0.00656,-0.04074,0.0209,0.009,-0.03937
7.7365,-0.01266,-0.03662,-0.03265,-0.05829,-0.01511,-0.07324,-0.01251,0.01129,-0.01297,-0.0174,0.00031,0.00885,-0.03311,0.06119,0.00748,-0.03601
7.737,-0.01144,-0.03647,-0.03342,-0.03189,-0.01328,-0.06943,-0.01648,-0.00015,-0.01465,-0.01694,0.03479,0.00946,-0.02304,0.09079,0.00534,-0.03387
7.7375,-0.00992,-0.0354,-0.03479,-0.00885,-0.01328,-0.06454,-0.02045,-0.00687,-0.01755,-0.01907,0.04501,0.01007,-0.01038,0.10468,0.00519,-0.03265
7.738,-0.00854,-0.03281,-0.03693,-0.00092,-0.01572,-0.06287,-0.01938,-0.00443,-0.02014,-0.02243,0.02228,0.00977,0.00504,0.11108,0.00504,-0.03418
7.7385,-0.00641,-0.03082,-0.03616,0.00046,-0.01968,-0.06638,-0.01404,0.00122,-0.02045,-0.02335,-0.01816,0.00961,0.01511,0.12466,0.00443,-0.03723
7.739,-0.00626,-0.03128,-0.03601,0.00031,-0.02548,-0.06668,-0.00702,-0.00061,-0.01892,-0.02838,-0.05905,0.00824,0.01144,0.14526,0.00488,-0.03967
7.7395,-0.00656,-0.03235,-0.03571,-0.00214,-0.0322,-0.06363,-0.00412,-0.00732,-0.01755,-0.03021,-0.08652,0.00671,-0.00244,0.14862,0.00549,-0.0386
7.74,-0.00458,-0.03357,-0.03464,-0.01328,-0.0412,-0.05966,-0.00488,-0.00534,-0.01541,-0.0293,-0.1001,0.0058,-0.01877,0.09003,0.00565,-0.03693
7.7405,0.00031,-0.03448,-0.03372,-0.0296,-0.04791,-0.05508,-0.0058,0.01389,-0.01297,-0.02808,-0.0972,0.00412,-0.0293,-0.0322,0.00458,-0.03647
7.741,0.00351,-0.03433,-0.0322,-0.0441,-0.04913,-0.04944,-0.00458,0.04166,-0.01083,-0.02502,-0.0769,-0.00137,-0.03387,-0.14282,0.00458,-0.03708
7.7415,0.00473,-0.03204,-0.0322,-0.0499,-0.0473,-0.04395,-0.00244,0.05875,-0.00961,-0.02579,-0.03998,-0.00946,-0.03601,-0.17303,0.00458,-0.03708
7.742,0.0058,-0.03204,-0.03357,-0.04929,-0.04608,-0.0412,-0.0029,0.05096,-0.01068,-0.0209,0.00565,-0.01389,-0.03662,-0.14893,0.00626,-0.03723
7.7425,0.00793,-0.03403,-0.03601,-0.04486,-0.04578,-0.04395,-0.00549,0.02884,-0.01373,-0.0238,0.05051,-0.01419,-0.04089,-0.14145,0.00687,-0.03769
7.743,0.00977,-0.03616,-0.03708,-0.04044,-0.04807,-0.04578,-0.00763,0.01205,-0.01526,-0.02472,0.08698,-0.01587,-0.04944,-0.15945,0.00656,-0.0383
7.7435,0.01099,-0.0354,-0.03723,-0.03952,-0.0502,-0.04532,-0.00946,0.00671,-0.01556,-0.02029,0.10544,-0.0174,-0.05249,-0.16174,0.00488,-0.03967
7.744,0.01068,-0.03357,-0.03647,-0.04395,-0.05188,-0.04456,-0.0116,0.00519,-0.01572,-0.0206,0.09766,-0.01495,-0.0502,-0.1416,0.00488,-0.04211
7.7445,0.00793,-0.03281,-0.03738,-0.04791,-0.05066,-0.04715,-0.01404,0.00153,-0.01694,-0.02045,0.06989,-0.00534,-0.04852,-0.13687,0.00641,-0.04501
7.745,0.0032,-0.03281,-0.03754,-0.04562,-0.04852,-0.05051,-0.01694,-0.00046,-0.01694,-0.02289,0.03845,0.00778,-0.05585,-0.16998,0.00824,-0.04623
7.7455,-0.00183,-0.03311,-0.03708,-0.03799,-0.047,-0.05493,-0.01709,-0.00092,-0.01572,-0.02213,0.02029,0.01999,-0.06439,-0.21545,0.00946,-0.04532
7.746,-0.00519,-0.0322,-0.03586,-0.03265,-0.04623,-0.05615,-0.01663,-0.00153,-0.0145,-0.02411,0.00992,0.02655,-0.05493,-0.22964,0.00946,-0.04379
7.7465,-0.00565,-0.03113,-0.03571,-0.03433,-0.04349,-0.05402,-0.01633,-0.00259,-0.01465,-0.02289,-0.00122,0.02441,-0.02625,-0.19577,0.00641,-0.04242
7.747,-0.00626,-0.03113,-0.03632,-0.03983,-0.03952,-0.05325,-0.01694,-0.00458,-0.01541,-0.02533,-0.0145,0.01816,0.00702,-0.13443,-0.00137,-0.04105
7.7475,-0.00793,-0.03174,-0.03616,-0.04288,-0.03693,-0.05066,-0.01709,-0.00458,-0.01587,-0.02365,-0.02228,0.01465,0.02869,-0.07797,-0.01434,-0.04166
7.748,-0.0087,-0.03204,-0.03525,-0.04105,-0.03738,-0.04929,-0.0174,-0.00351,-0.01709,-0.0235,-0.02396,0.01694,0.03906,-0.04517,-0.03036,-0.04364
7.7485,-0.00916,-0.03189,-0.03448,-0.03693,-0.03723,-0.04745,-0.01724,-0.00397,-0.02075,-0.01999,-0.02747,0.02106,0.05722,-0.02945,-0.03998,-0.04501
7.749,-0.00732,-0.03159,-0.03464,-0.03448,-0.03632,-0.04562,-0.01785,-0.00626,-0.02548,-0.01801,-0.04105,0.01923,0.08301,-0.01282,-0.0386,-0.04608
7.7495,-0.00717,-0.03067,-0.03387,-0.03387,-0.0325,-0.04547,-0.01785,-0.00839,-0.02777,-0.01709,-0.06012,0.01495,0.10132,0.01465,-0.02548,-0.0441
7.75,-0.00595,-0.0293,-0.0322,-0.02991,-0.0293,-0.04608,-0.01556,-0.009,-0.02548,-0.01633,-0.07477,0.01144,0.0943,0.04562,-0.00977,-0.04211
7.7505,-0.00443,-0.02731,-0.03113,-0.0238,-0.02777,-0.04669,-0.01144,-0.00687,-0.0209,-0.01114,-0.08347,0.00931,0.06775,0.0766,0.00473,-0.04181
7.751,-0.00153,-0.02686,-0.03082,-0.01907,-0.02853,-0.047,-0.00702,-0.00443,-0.01785,-0.01068,-0.09644,0.00671,0.03555,0.12772,0.01862,-0.04364
7.7515,0.00076,-0.02777,-0.03067,-0.01709,-0.03082,-0.04623,-0.00427,-0.00229,-0.01877,-0.00946,-0.11429,0.00427,0.00748,0.21271,0.03494,-0.04562
7.752,0.00015,-0.03036,-0.03143,-0.01602,-0.03433,-0.04715,-0.00534,-0.00198,-0.02167,-0.01617,-0.12299,0.00259,-0.02655,0.29099,0.04776,-0.0473
7.7525,-0.00122,-0.03128,-0.03204,-0.01373,-0.03632,-0.04959,-0.00793,-0.00244,-0.0238,-0.02106,-0.10757,0.00259,-0.05997,0.29617,0.0502,-0.04929
7.753,-0.00244,-0.03098,-0.03281,-0.01114,-0.03632,-0.05081,-0.01068,-0.00153,-0.02304,-0.02716,-0.06546,0.00153,-0.07935,0.22034,0.0444,-0.05035
7.7535,-0.00366,-0.03098,-0.03296,-0.00931,-0.03387,-0.04929,-0.01358,-0.00076,-0.01892,-0.02579,-0.01007,-0.00092,-0.08469,0.13016,0.03876,-0.05035
7.754,-0.00336,-0.0322,-0.03265,-0.00809,-0.02975,-0.04776,-0.01862,-0.00031,-0.01404,-0.0235,0.04471,-0.00336,-0.08774,0.0705,0.03616,-0.05096
7.7545,-0.00168,-0.03342,-0.03281,-0.00565,-0.02869,-0.04654,-0.02502,-0.00122,-0.01175,-0.0177,0.09064,-0.00443,-0.10284,0.02869,0.03326,-0.05219
7.755,0.00259,-0.03342,-0.03204,-0.00259,-0.02869,-0.04807,-0.02853,-0.00412,-0.01068,-0.01572,0.12054,-0.00427,-0.12314,-0.02151,0.02518,-0.05417
7.7555,0.0119,-0.03326,-0.03159,-0.00244,-0.0296,-0.04852,-0.02625,-0.00931,-0.01114,-0.0116,0.13092,-0.00366,-0.13367,-0.07645,0.01572,-0.0528
7.756,0.02121,-0.03464,-0.03174,-0.00336,-0.02945,-0.04837,-0.0206,-0.0116,-0.0119,-0.00854,0.12863,-0.0032,-0.13077,-0.13077,0.01328,-0.0499
7.7565,0.02548,-0.0354,-0.03174,-0.00565,-0.02914,-0.04761,-0.01602,-0.0148,-0.01709,-0.00961,0.11993,-0.0029,-0.12909,-0.17517,0.01526,-0.047
7.757,0.02197,-0.03571,-0.03204,-0.00763,-0.03036,-0.04715,-0.01297,-0.02014,-0.02563,-0.01114,0.1062,-0.00275,-0.13306,-0.18768,0.01587,-0.047
7.7575,0.01389,-0.03601,-0.03098,-0.00778,-0.03128,-0.04684,-0.00977,-0.02884,-0.03418,-0.00992,0.08606,-0.00168,-0.13046,-0.1593,0.01266,-0.0499
7.758,0.00656,-0.03662,-0.03006,-0.0058,-0.03113,-0.04623,-0.00565,-0.03555,-0.03769,-0.01038,0.05859,0.00229,-0.10864,-0.1178,0.00885,-0.05341
7.7585,0.00244,-0.03738,-0.03143,-0.00412,-0.03006,-0.04578,-0.00427,-0.03571,-0.03693,-0.01816,0.02502,0.00931,-0.08377,-0.09293,0.00763,-0.05447
7.759,0.0,-0.03616,-0.03326,-0.00381,-0.02808,-0.04364,-0.00732,-0.03006,-0.03418,-0.03021,-0.00961,0.01572,-0.07278,-0.08072,0.00824,-0.0528
7.7595,-0.00153,-0.03494,-0.0354,-0.00336,-0.02609,-0.04105,-0.01297,-0.02151,-0.0296,-0.03845,-0.03815,0.0206,-0.07278,-0.06134,0.0087,-0.0499
7.76,-0.00412,-0.0351,-0.03601,-0.00214,-0.02457,-0.03983,-0.01678,-0.01358,-0.02274,-0.04623,-0.05325,0.02289,-0.06989,-0.0296,0.0116,-0.04684
7.7605,-0.00717,-0.03555,-0.0354,0.00015,-0.02365,-0.03998,-0.01785,-0.00809,-0.01831,-0.04776,-0.05524,0.02151,-0.05783,0.00137,0.01358,-0.04593
7.761,-0.00977,-0.03601,-0.03601,0.00183,-0.02563,-0.04044,-0.01556,-0.00565,-0.01678,-0.05081,-0.05463,0.01984,-0.0444,0.01968,0.01434,-0.04639
7.7615,-0.01038,-0.03601,-0.03662,0.00244,-0.02731,-0.04044,-0.01343,-0.00549,-0.01892,-0.05173,-0.0589,0.01846,-0.03754,0.01846,0.0116,-0.04654
7.762,-0.00839,-0.0354,-0.0383,0.00046,-0.02762,-0.04028,-0.01312,-0.00778,-0.02213,-0.05127,-0.07004,0.01678,-0.03372,-0.00198,0.009,-0.04623
