time,RectFemL,VastusMedL,VastusLatL,TibAntL,HamMedL,HamLatL,GastroMedL,GastroLatL,RectFemR,VastusMedR,VastusLatR,TibAntR,HamMedR,HamLatR,GastroMedR,GastroLatR
10.43,-0.00351,-0.03769,-0.03403,-0.00397,-0.02731,-0.04684,-0.02121,-0.02441,-0.00809,-0.0264,-0.09247,0.03235,-0.01282,0.10178,0.01236,-0.02747
10.4305,-0.00443,-0.03586,-0.03586,-0.00397,-0.02747,-0.04471,-0.01999,-0.01953,-0.01083,-0.02502,-0.08423,0.00076,-0.01358,0.06271,0.0116,-0.02731
10.431,-0.00565,-0.03754,-0.03662,-0.00519,-0.02686,-0.04486,-0.01907,-0.00961,-0.01373,-0.02304,-0.09445,-0.00198,-0.01144,0.02594,0.01114,-0.02731
10.4315,-0.00626,-0.03906,-0.03799,-0.00702,-0.02838,-0.04532,-0.0174,-0.00092,-0.01602,-0.01923,-0.12527,0.03708,-0.01144,0.01144,0.00992,-0.0264
10.432,-0.00595,-0.03891,-0.03693,-0.00961,-0.03021,-0.04639,-0.01434,0.00198,-0.01816,-0.01526,-0.15778,0.0885,-0.01358,0.01068,0.0087,-0.0264
10.4325,-0.00626,-0.03906,-0.0351,-0.01205,-0.03143,-0.04654,-0.01175,-0.00015,-0.02121,-0.00931,-0.16647,0.11017,-0.01495,0.00946,0.00732,-0.02747
10.433,-0.00519,-0.03937,-0.03159,-0.01419,-0.03082,-0.04822,-0.01007,-0.0029,-0.02396,-0.0061,-0.1355,0.08896,-0.0148,0.01038,0.00687,-0.03098
10.4335,-0.00443,-0.04059,-0.03143,-0.01373,-0.03021,-0.04913,-0.01129,-0.00244,-0.0238,-0.00671,-0.07538,0.05234,-0.01755,0.02213,0.00748,-0.03235
10.434,-0.00488,-0.04059,-0.03143,-0.01236,-0.03021,-0.04913,-0.01297,-0.00031,-0.02167,-0.01129,-0.02182,0.02563,-0.0267,0.03998,0.00671,-0.03143
10.4345,-0.00534,-0.04028,-0.03021,-0.01099,-0.03036,-0.04868,-0.01556,-0.00107,-0.01846,-0.01648,0.00122,0.01053,-0.03998,0.04822,0.00565,-0.03036
10.435,-0.00534,-0.03967,-0.02899,-0.01221,-0.03113,-0.04913,-0.01953,-0.00473,-0.01465,-0.01816,-0.00015,-0.00122,-0.05219,0.03571,0.00595,-0.03098
10.4355,-0.00458,-0.03937,-0.02899,-0.01282,-0.03098,-0.04913,-0.02136,-0.00778,-0.01144,-0.01709,-0.01038,-0.01648,-0.05951,0.00183,0.00793,-0.0296
10.436,-0.00443,-0.04028,-0.03082,-0.01236,-0.03174,-0.04974,-0.02045,-0.00656,-0.00854,-0.01587,-0.02884,-0.03632,-0.0589,-0.03998,0.00946,-0.02838
10.4365,-0.00412,-0.04013,-0.03143,-0.01007,-0.03296,-0.0502,-0.0177,-0.00244,-0.00732,-0.01678,-0.05753,-0.05127,-0.0531,-0.06592,0.01038,-0.0293
10.437,-0.0032,-0.03922,-0.03143,-0.00854,-0.03296,-0.05081,-0.01663,-0.00183,-0.00748,-0.01892,-0.09125,-0.05035,-0.04425,-0.05966,0.01053,-0.03036
10.4375,-0.00275,-0.03906,-0.03159,-0.00946,-0.03204,-0.05051,-0.01724,-0.00641,-0.00793,-0.02258,-0.12329,-0.03235,-0.03891,-0.03387,0.01099,-0.03098
10.438,-0.00458,-0.03906,-0.03098,-0.01099,-0.03113,-0.04852,-0.01862,-0.00977,-0.00748,-0.02533,-0.1561,-0.00946,-0.03677,-0.01923,0.01022,-0.03052
10.4385,-0.0058,-0.03952,-0.03128,-0.01328,-0.03021,-0.047,-0.01892,-0.01022,-0.00488,-0.02594,-0.19409,0.00763,-0.03571,-0.03006,0.00916,-0.02884
10.439,-0.00595,-0.04013,-0.03143,-0.01465,-0.03113,-0.0473,-0.0209,-0.00763,-0.00305,-0.02548,-0.23712,0.01648,-0.03448,-0.04913,0.00885,-0.02792
10.4395,-0.00488,-0.03952,-0.03128,-0.01419,-0.03113,-0.04822,-0.02213,-0.00687,-0.0032,-0.02625,-0.28397,0.01938,-0.03525,-0.05371,0.00992,-0.02777
10.44,-0.00488,-0.03876,-0.03143,-0.01343,-0.03174,-0.04868,-0.02182,-0.00732,-0.00458,-0.0264,-0.33997,0.02136,-0.03738,-0.03922,0.01099,-0.02792
10.4405,-0.00504,-0.03891,-0.03052,-0.01282,-0.03265,-0.04807,-0.02197,-0.00732,-0.00778,-0.02655,-0.40054,0.02625,-0.04089,-0.01846,0.01022,-0.02899
10.441,-0.00473,-0.03906,-0.02945,-0.01114,-0.03296,-0.04761,-0.02045,-0.00366,-0.009,-0.02487,-0.45593,0.02869,-0.04562,-0.00702,0.00824,-0.02899
10.4415,-0.00473,-0.03876,-0.0296,-0.00793,-0.0322,-0.04715,-0.0177,0.00076,-0.00961,-0.01816,-0.50156,0.02411,-0.05173,-0.01556,0.00824,-0.02884
10.442,-0.00534,-0.03922,-0.03174,-0.00473,-0.03052,-0.04623,-0.01404,0.0061,-0.01053,0.00137,-0.53757,0.01572,-0.05829,-0.04593,0.00854,-0.02853
10.4425,-0.00641,-0.03998,-0.03479,-0.00275,-0.03113,-0.04547,-0.01221,0.0087,-0.01389,0.03586,-0.56549,0.00778,-0.06287,-0.08911,0.00854,-0.02884
10.443,-0.00549,-0.03998,-0.03754,-0.00412,-0.03311,-0.04623,-0.01221,0.00763,-0.01785,0.065,-0.59341,-0.00626,-0.06485,-0.12177,0.00748,-0.02991
10.4435,-0.00458,-0.03983,-0.03769,-0.00717,-0.03403,-0.04745,-0.0145,0.00153,-0.01892,0.06195,-0.63339,-0.02731,-0.06271,-0.12955,0.00732,-0.0322
10.444,-0.00504,-0.04028,-0.03738,-0.01022,-0.03418,-0.04623,-0.01617,-0.0058,-0.0174,0.02502,-0.69305,-0.0444,-0.05661,-0.11551,0.00763,-0.03387
10.4445,-0.00595,-0.04105,-0.03647,-0.01083,-0.03372,-0.04486,-0.01541,-0.01144,-0.01465,-0.02029,-0.76447,-0.05066,-0.05066,-0.09552,0.00854,-0.03311
10.445,-0.0061,-0.04333,-0.03555,-0.01083,-0.03387,-0.04364,-0.0116,-0.01236,-0.01373,-0.0502,-0.83008,-0.04761,-0.0441,-0.07782,0.00839,-0.03036
10.4455,-0.0061,-0.04532,-0.03494,-0.01114,-0.03357,-0.04562,-0.00931,-0.01236,-0.01419,-0.06195,-0.8783,-0.04089,-0.03616,-0.06577,0.00824,-0.0296
10.446,-0.00595,-0.04654,-0.03448,-0.01083,-0.03342,-0.04501,-0.00977,-0.00961,-0.0145,-0.06287,-0.91232,-0.0354,-0.03113,-0.0589,0.00809,-0.03098
10.4465,-0.00595,-0.04532,-0.03464,-0.009,-0.03265,-0.04456,-0.01038,-0.00717,-0.01282,-0.05875,-0.93063,-0.03952,-0.03036,-0.05035,0.0087,-0.03189
10.447,-0.0061,-0.04364,-0.03479,-0.00732,-0.03265,-0.04379,-0.01114,-0.00412,-0.01068,-0.05066,-0.92667,-0.04974,-0.03555,-0.02869,0.00916,-0.03174
10.4475,-0.00565,-0.04272,-0.03403,-0.00549,-0.03265,-0.04456,-0.01114,-0.00046,-0.0087,-0.04196,-0.90302,-0.05371,-0.04257,0.01419,0.00946,-0.03143
10.448,-0.00504,-0.04227,-0.03403,-0.00458,-0.03174,-0.04578,-0.01099,0.00153,-0.00809,-0.0354,-0.87143,-0.04623,-0.04669,0.06042,0.00885,-0.03326
10.4485,-0.00595,-0.04166,-0.03464,-0.00565,-0.0293,-0.04852,-0.01266,0.00198,-0.00824,-0.03052,-0.83618,-0.0444,-0.04776,0.0769,0.00824,-0.03616
10.449,-0.00702,-0.04135,-0.03571,-0.00626,-0.02762,-0.0502,-0.01556,-0.00092,-0.00916,-0.02625,-0.79361,-0.05829,-0.04868,0.05081,0.00793,-0.03845
10.4495,-0.00748,-0.04166,-0.03632,-0.00656,-0.02762,-0.04974,-0.01801,-0.00336,-0.00992,-0.0238,-0.74295,-0.07416,-0.0473,0.01328,0.00732,-0.03799
10.45,-0.00641,-0.04044,-0.03601,-0.00977,-0.02869,-0.05005,-0.01907,-0.00336,-0.01007,-0.02289,-0.6752,-0.07034,-0.03998,-0.00412,0.00809,-0.0354
10.4505,-0.00565,-0.04059,-0.0351,-0.01358,-0.02945,-0.04868,-0.01846,-0.00137,-0.00961,-0.02197,-0.58167,-0.04547,-0.02747,-0.00671,0.00946,-0.03342
10.451,-0.00504,-0.04181,-0.03281,-0.01633,-0.03052,-0.04791,-0.01785,0.00046,-0.00961,-0.02167,-0.46585,-0.01602,-0.01678,-0.01968,0.00946,-0.03342
10.4515,-0.00458,-0.04303,-0.03403,-0.01541,-0.03143,-0.04776,-0.01709,0.00229,-0.01266,-0.0206,-0.35187,0.0058,-0.01343,-0.03922,0.01007,-0.0351
10.452,-0.00381,-0.04272,-0.03479,-0.01328,-0.03143,-0.04929,-0.01572,0.00275,-0.01801,-0.0209,-0.25085,0.01724,-0.01541,-0.04379,0.00916,-0.03632
10.4525,-0.00473,-0.04333,-0.03433,-0.01236,-0.03265,-0.04898,-0.01373,0.00275,-0.02045,-0.02029,-0.15991,0.01892,-0.02014,-0.02823,0.00839,-0.03693
10.453,-0.00412,-0.04349,-0.03342,-0.01053,-0.03098,-0.04929,-0.0148,0.0032,-0.01724,-0.01663,-0.07202,0.00839,-0.02869,-0.00931,0.00702,-0.03662
10.4535,-0.0029,-0.04211,-0.03342,-0.00854,-0.03052,-0.04898,-0.01572,0.00397,-0.01053,-0.01099,0.00854,-0.01968,-0.04044,-0.00076,0.00549,-0.03723
10.454,-0.00198,-0.04211,-0.03296,-0.00839,-0.0296,-0.04807,-0.01694,0.00366,-0.00549,-0.00702,0.08194,-0.05783,-0.05234,-0.00031,0.00305,-0.03876
10.4545,-0.00198,-0.04181,-0.03265,-0.009,-0.03159,-0.04898,-0.01892,0.0,-0.00366,-0.0061,0.15717,-0.08972,-0.06073,-0.00046,0.00214,-0.04074
10.455,-0.00351,-0.04242,-0.03189,-0.01007,-0.0325,-0.047,-0.01907,-0.00671,-0.00656,-0.00702,0.23849,-0.10544,-0.06744,-0.00092,0.0029,-0.04089
10.4555,-0.00473,-0.04272,-0.0322,-0.00992,-0.03281,-0.04639,-0.01755,-0.01007,-0.01343,-0.01053,0.32379,-0.11292,-0.0708,-0.00565,0.00443,-0.03967
10.456,-0.00458,-0.04257,-0.03296,-0.00885,-0.03128,-0.04715,-0.0145,-0.00717,-0.02304,-0.01373,0.40848,-0.11597,-0.06744,-0.01068,0.0058,-0.03815
10.4565,-0.00397,-0.04181,-0.03296,-0.00671,-0.0293,-0.04883,-0.01221,-0.00137,-0.03433,-0.01495,0.48889,-0.09796,-0.05264,-0.01389,0.0058,-0.03677
10.457,-0.00458,-0.04196,-0.03357,-0.00504,-0.02975,-0.04852,-0.01175,0.00122,-0.04318,-0.01175,0.55893,-0.04791,-0.03922,-0.01602,0.00656,-0.03586
10.4575,-0.00565,-0.0415,-0.03342,-0.00504,-0.03098,-0.04807,-0.01282,0.00076,-0.04639,-0.0087,0.61722,0.00381,-0.03357,-0.01831,0.00687,-0.0351
10.458,-0.0061,-0.03998,-0.03387,-0.00626,-0.0325,-0.04761,-0.01495,-0.00153,-0.04471,-0.00748,0.6723,0.01083,-0.03403,-0.01984,0.00702,-0.03632
10.4585,-0.00687,-0.03891,-0.03387,-0.00793,-0.03311,-0.04883,-0.01694,-0.00275,-0.0415,-0.00732,0.73364,-0.01846,-0.03311,-0.02121,0.00671,-0.03769
10.459,-0.00702,-0.03952,-0.03494,-0.00839,-0.03326,-0.04837,-0.0174,-0.00351,-0.03876,-0.00961,0.80002,-0.03128,-0.02975,-0.02045,0.00549,-0.03967
10.4595,-0.0061,-0.03998,-0.03525,-0.00885,-0.03281,-0.04578,-0.01724,-0.00443,-0.03601,-0.01343,0.85953,0.00229,-0.02563,-0.01694,0.00458,-0.04166
10.46,-0.00504,-0.04044,-0.03326,-0.00977,-0.03113,-0.04395,-0.01633,-0.00565,-0.03143,-0.01953,0.9021,0.06454,-0.02411,-0.01083,0.00473,-0.04257
10.4605,-0.00412,-0.04044,-0.03311,-0.00946,-0.02975,-0.04333,-0.01617,-0.00443,-0.02472,-0.0238,0.93491,0.1413,-0.02319,-0.00885,0.00671,-0.04349
10.461,-0.00519,-0.04089,-0.03311,-0.00824,-0.02975,-0.04257,-0.01602,-0.00122,-0.01724,-0.02472,0.97229,0.22354,-0.02335,-0.01465,0.00763,-0.04364
10.4615,-0.0058,-0.04135,-0.03281,-0.00748,-0.0293,-0.04242,-0.01526,0.00229,-0.01022,-0.02716,1.01395,0.27237,-0.0235,-0.01877,0.00595,-0.04456
10.462,-0.00626,-0.04105,-0.03296,-0.00732,-0.02945,-0.04089,-0.01434,0.00153,-0.00534,-0.0293,1.05316,0.24719,-0.02213,-0.01068,0.00427,-0.04608
10.4625,-0.0061,-0.03983,-0.03326,-0.00916,-0.0293,-0.03998,-0.01282,-0.00183,-0.00198,-0.03128,1.08688,0.16663,-0.01953,0.00397,0.00381,-0.04761
10.463,-0.00549,-0.0386,-0.03372,-0.00992,-0.02869,-0.04089,-0.01373,-0.00549,0.00092,-0.0267,1.11115,0.07629,-0.0174,0.00931,0.00427,-0.04593
10.4635,-0.00565,-0.0383,-0.03326,-0.01022,-0.02899,-0.04242,-0.01633,-0.00748,0.00443,-0.01923,1.12869,-0.00443,-0.01694,0.00458,0.00519,-0.04303
10.464,-0.00656,-0.03937,-0.03326,-0.00946,-0.03021,-0.04379,-0.01755,-0.0061,0.00793,-0.01419,1.15036,-0.07462,-0.01892,0.00046,0.00504,-0.04074
10.4645,-0.00702,-0.04135,-0.03464,-0.00931,-0.03265,-0.04639,-0.01511,-0.00275,0.00809,-0.01373,1.17996,-0.10788,-0.02014,0.00244,0.00397,-0.04089
10.465,-0.00717,-0.04166,-0.03418,-0.00977,-0.03403,-0.04608,-0.01129,-0.00031,0.00458,-0.01511,1.21094,-0.07782,-0.02213,0.00702,0.00534,-0.04166
10.4655,-0.00702,-0.04089,-0.03387,-0.00946,-0.03555,-0.04684,-0.01022,-0.00061,-0.00092,-0.01923,1.24008,-0.01511,-0.02365,0.01038,0.00702,-0.0415
10.466,-0.00626,-0.03937,-0.03387,-0.009,-0.03693,-0.04898,-0.01282,-0.00275,-0.00519,-0.02487,1.26984,0.01465,-0.02655,0.01358,0.00931,-0.04105
10.4665,-0.0058,-0.03922,-0.0325,-0.01007,-0.03754,-0.04974,-0.01511,-0.00412,-0.0058,-0.0322,1.29303,-0.01694,-0.03006,0.01358,0.00763,-0.04013
10.467,-0.00504,-0.03967,-0.03265,-0.01099,-0.03708,-0.04868,-0.01419,-0.00366,-0.0061,-0.03662,1.29242,-0.07446,-0.03464,0.00183,0.00839,-0.04135
10.4675,-0.00412,-0.04013,-0.03448,-0.0116,-0.03708,-0.04807,-0.0119,-0.00336,-0.00946,-0.03799,1.26617,-0.1088,-0.03876,-0.03021,0.00839,-0.04272
10.468,-0.00366,-0.04028,-0.03433,-0.01205,-0.03693,-0.04822,-0.0116,-0.00458,-0.01648,-0.03662,1.23123,-0.11444,-0.04211,-0.07111,0.00763,-0.04486
10.4685,-0.00366,-0.03983,-0.03418,-0.01205,-0.03677,-0.04608,-0.01236,-0.0061,-0.01846,-0.03448,1.19858,-0.12085,-0.04288,-0.08682,0.00595,-0.0473
10.469,-0.00458,-0.04028,-0.03433,-0.01114,-0.03677,-0.04593,-0.01389,-0.00687,-0.01556,-0.03479,1.1615,-0.13992,-0.04089,-0.06348,0.0058,-0.04822
10.4695,-0.00504,-0.04089,-0.03525,-0.00977,-0.03555,-0.04669,-0.01373,-0.00656,-0.009,-0.04044,1.11023,-0.14709,-0.03769,-0.02533,0.00656,-0.04852
10.47,-0.00488,-0.04074,-0.03464,-0.00763,-0.03372,-0.05035,-0.01236,-0.00381,-0.0032,-0.04959,1.05362,-0.11108,-0.03448,-0.00946,0.00732,-0.04776
10.4705,-0.00381,-0.04059,-0.03494,-0.00641,-0.03342,-0.05157,-0.01282,0.00031,0.00122,-0.05692,1.00906,-0.01907,-0.03204,-0.01984,0.00778,-0.04929
10.471,-0.00366,-0.03906,-0.03571,-0.00702,-0.03265,-0.05096,-0.0145,0.00336,0.00473,-0.05432,0.97443,0.12634,-0.03265,-0.03708,0.00824,-0.0502
10.4715,-0.00427,-0.03738,-0.03647,-0.00824,-0.03113,-0.05127,-0.01572,0.00641,0.00488,-0.04379,0.92697,0.28534,-0.03586,-0.04639,0.00793,-0.05005
10.472,-0.00397,-0.03754,-0.03693,-0.00961,-0.02899,-0.05219,-0.01587,0.00595,0.00366,-0.03189,0.85144,0.38284,-0.03967,-0.047,0.00916,-0.04959
10.4725,-0.00336,-0.03845,-0.03693,-0.00885,-0.02777,-0.05356,-0.0148,0.00305,0.00183,-0.02167,0.7576,0.36636,-0.04272,-0.04242,0.00839,-0.04791
10.473,-0.00244,-0.03876,-0.03677,-0.00763,-0.02777,-0.05295,-0.01404,-0.00214,0.00031,-0.01312,0.65765,0.2652,-0.04272,-0.03601,0.00824,-0.04593
10.4735,-0.00168,-0.03906,-0.03586,-0.00717,-0.02853,-0.05234,-0.01404,-0.00961,-0.00153,-0.00732,0.55298,0.15747,-0.04211,-0.03036,0.00824,-0.04395
10.474,-0.00229,-0.03967,-0.03479,-0.00687,-0.02914,-0.04974,-0.01434,-0.01328,-0.00565,-0.00397,0.44281,0.09232,-0.04181,-0.02762,0.00885,-0.04318
10.4745,-0.00351,-0.04074,-0.03525,-0.00702,-0.0296,-0.04578,-0.01373,-0.01068,-0.00992,-0.00153,0.33035,0.0592,-0.04242,-0.02869,0.01083,-0.04425
10.475,-0.0058,-0.04166,-0.03616,-0.00778,-0.03021,-0.04288,-0.01343,-0.00488,-0.01328,0.00214,0.2095,0.03235,-0.04593,-0.03143,0.01068,-0.04517
10.4755,-0.00687,-0.04181,-0.03677,-0.01007,-0.03204,-0.04242,-0.01312,-0.00336,-0.01678,0.0058,0.07523,0.00885,-0.04837,-0.03326,0.01053,-0.04608
10.476,-0.00565,-0.0415,-0.03708,-0.01251,-0.03311,-0.04272,-0.01495,-0.00549,-0.02472,0.00809,-0.06104,-0.00534,-0.04837,-0.03189,0.01053,-0.04868
10.4765,-0.00458,-0.04196,-0.03708,-0.01205,-0.03342,-0.04196,-0.01358,-0.00885,-0.03525,0.00854,-0.17822,-0.01404,-0.0444,-0.02579,0.01038,-0.05157
10.477,-0.00366,-0.04288,-0.03632,-0.01053,-0.03311,-0.04166,-0.01251,-0.00946,-0.04288,0.00702,-0.25269,-0.02884,-0.04044,-0.01419,0.00824,-0.05417
10.4775,-0.00473,-0.04425,-0.03525,-0.00885,-0.0322,-0.04013,-0.01144,-0.00732,-0.0412,0.00504,-0.27847,-0.05249,-0.03784,-0.00092,0.00488,-0.05539
10.478,-0.00656,-0.04547,-0.03525,-0.00885,-0.03189,-0.0412,-0.01205,-0.00488,-0.03342,0.00275,-0.27466,-0.08133,-0.03418,0.01144,0.00351,-0.05478
10.4785,-0.00565,-0.04486,-0.03677,-0.01099,-0.03326,-0.04181,-0.01358,-0.00305,-0.02716,-0.00046,-0.26321,-0.11322,-0.02991,0.02167,0.00458,-0.05432
10.479,-0.00427,-0.04318,-0.03708,-0.01099,-0.0354,-0.04349,-0.01572,-0.00168,-0.02548,-0.00046,-0.25299,-0.14496,-0.02609,0.0322,0.00549,-0.05402
10.4795,-0.00275,-0.0415,-0.03525,-0.00961,-0.03601,-0.04807,-0.01511,-0.00061,-0.02762,0.00275,-0.23773,-0.16098,-0.02457,0.04715,0.00549,-0.05219
10.48,-0.0029,-0.03983,-0.03342,-0.009,-0.03601,-0.05371,-0.01343,-0.00183,-0.03098,0.00549,-0.21469,-0.1445,-0.02335,0.0679,0.0061,-0.04974
10.4805,-0.00305,-0.03998,-0.03494,-0.00977,-0.03586,-0.0592,-0.01282,-0.00458,-0.03464,0.00107,-0.19211,-0.1033,-0.02228,0.08759,0.0087,-0.04776
10.481,-0.00366,-0.04074,-0.03677,-0.01022,-0.03708,-0.06134,-0.01328,-0.0058,-0.03601,-0.00946,-0.17761,-0.0647,-0.02243,0.08896,0.01205,-0.04791
10.4815,-0.00336,-0.04105,-0.03647,-0.00916,-0.03464,-0.05859,-0.01373,-0.00519,-0.03128,-0.02167,-0.18188,-0.04318,-0.02304,0.04669,0.0145,-0.04761
10.482,-0.00244,-0.04181,-0.03342,-0.00824,-0.03067,-0.05432,-0.01465,-0.00458,-0.01999,-0.02747,-0.22125,-0.02823,-0.02579,-0.04395,0.01373,-0.0473
10.4825,-0.00229,-0.04242,-0.03113,-0.00885,-0.02747,-0.05524,-0.01587,-0.00458,-0.00717,-0.02518,-0.29526,-0.01785,-0.02747,-0.13092,0.01175,-0.04715
10.483,-0.00397,-0.04288,-0.03159,-0.01083,-0.02655,-0.056,-0.01602,-0.00458,0.00168,-0.02014,-0.35797,-0.02731,-0.02716,-0.14633,0.00961,-0.04791
10.4835,-0.00488,-0.04227,-0.03387,-0.01221,-0.02747,-0.05402,-0.01389,-0.00198,0.00565,-0.01541,-0.35706,-0.05493,-0.0267,-0.09933,0.00748,-0.04944
10.484,-0.00488,-0.0415,-0.03555,-0.01236,-0.02838,-0.05264,-0.01068,0.00183,0.00565,-0.01328,-0.3064,-0.06516,-0.02731,-0.06607,0.00565,-0.0502
10.4845,-0.00443,-0.04044,-0.03464,-0.0119,-0.02808,-0.05081,-0.0087,0.00458,0.00381,-0.01068,-0.2742,-0.03784,-0.02899,-0.07904,0.00397,-0.0502
10.485,-0.00427,-0.04074,-0.03326,-0.01129,-0.02808,-0.04822,-0.00839,0.00351,0.00061,-0.00931,-0.28442,-0.00092,-0.02853,-0.09323,0.0029,-0.0502
10.4855,-0.00504,-0.04242,-0.03464,-0.01099,-0.02853,-0.04578,-0.00839,0.00076,-0.0029,-0.00763,-0.30182,0.0029,-0.02747,-0.06699,0.00214,-0.05325
10.486,-0.00458,-0.04379,-0.03586,-0.01236,-0.0296,-0.04471,-0.00992,-0.00244,-0.00702,-0.00961,-0.29953,-0.0412,-0.02884,-0.0177,0.00168,-0.05661
10.4865,-0.00366,-0.04349,-0.03616,-0.01282,-0.03098,-0.04288,-0.01129,-0.00595,-0.01129,-0.01556,-0.29465,-0.11505,-0.03265,0.00412,0.00031,-0.05905
10.487,-0.00336,-0.04257,-0.03448,-0.01266,-0.03296,-0.03937,-0.01251,-0.00626,-0.01572,-0.02258,-0.31616,-0.19241,-0.03647,-0.02029,0.00061,-0.05707
10.4875,-0.0029,-0.0412,-0.03326,-0.01312,-0.03448,-0.03769,-0.0119,-0.00427,-0.01862,-0.02808,-0.37354,-0.26062,-0.03906,-0.06744,0.00214,-0.05325
10.488,-0.00259,-0.04059,-0.03372,-0.01389,-0.03571,-0.03586,-0.01099,-0.0029,-0.01907,-0.03357,-0.44998,-0.30563,-0.04044,-0.103,0.00397,-0.05096
10.4885,-0.00137,-0.04013,-0.03448,-0.01373,-0.0354,-0.03601,-0.01099,-0.00381,-0.02075,-0.03738,-0.49362,-0.30762,-0.04349,-0.11444,0.00488,-0.05112
10.489,-0.00076,-0.03922,-0.03433,-0.01251,-0.03448,-0.03601,-0.01068,-0.0029,-0.02441,-0.04181,-0.45639,-0.26993,-0.04562,-0.10803,0.00412,-0.05249
10.4895,-0.00153,-0.03906,-0.03464,-0.01175,-0.03387,-0.03738,-0.00854,-0.00061,-0.02731,-0.04501,-0.36469,-0.23087,-0.0444,-0.09033,0.00549,-0.05112
10.49,-0.00153,-0.03967,-0.03326,-0.01022,-0.03326,-0.03998,-0.00519,-0.00061,-0.02518,-0.04471,-0.32074,-0.21072,-0.04181,-0.06531,0.00793,-0.04837
10.4905,-0.00137,-0.04059,-0.0322,-0.00839,-0.03281,-0.04089,-0.00412,-0.00458,-0.01953,-0.04242,-0.36469,-0.18829,-0.03601,-0.03937,0.01068,-0.04608
10.491,-0.00122,-0.04074,-0.03235,-0.00671,-0.03052,-0.04013,-0.00519,-0.00656,-0.01282,-0.03769,-0.41946,-0.13855,-0.03174,-0.02106,0.0119,-0.04547
10.4915,-0.00198,-0.04028,-0.03204,-0.00626,-0.02777,-0.03952,-0.00702,-0.00473,-0.00977,-0.03021,-0.41199,-0.05417,-0.02899,-0.01282,0.01129,-0.04578
10.492,-0.00381,-0.04028,-0.0325,-0.00885,-0.02579,-0.04059,-0.00839,-0.00031,-0.00946,-0.02335,-0.37048,0.07385,-0.02808,-0.00854,0.009,-0.04486
10.4925,-0.0058,-0.04135,-0.03113,-0.01251,-0.02502,-0.04166,-0.0116,0.00366,-0.00977,-0.01709,-0.35522,0.22095,-0.02777,-0.00626,0.00809,-0.04318
10.493,-0.00687,-0.04166,-0.03098,-0.01556,-0.02487,-0.04333,-0.01572,0.00641,-0.00931,-0.01236,-0.38071,0.30869,-0.02701,-0.00854,0.00763,-0.04318
10.4935,-0.00595,-0.04181,-0.03159,-0.01511,-0.02686,-0.04517,-0.01755,0.00763,-0.00992,-0.009,-0.44952,0.29343,-0.02502,-0.01404,0.00885,-0.04471
10.494,-0.00458,-0.04089,-0.03311,-0.0119,-0.03052,-0.04456,-0.01526,0.00458,-0.01251,-0.0061,-0.56046,0.24033,-0.02487,-0.01938,0.00839,-0.04669
10.4945,-0.00488,-0.04089,-0.0351,-0.00839,-0.03464,-0.04395,-0.01068,-0.0029,-0.01938,-0.00504,-0.65063,0.23972,-0.02625,-0.0206,0.00671,-0.047
10.495,-0.0058,-0.04089,-0.03448,-0.00595,-0.03601,-0.04272,-0.00702,-0.00885,-0.02533,-0.00549,-0.62637,0.28976,-0.02838,-0.01541,0.00443,-0.04883
10.4955,-0.00565,-0.04181,-0.03403,-0.00443,-0.03464,-0.04257,-0.00473,-0.00931,-0.02914,-0.00702,-0.50034,0.32806,-0.02991,-0.00595,0.00244,-0.05188
10.496,-0.00397,-0.04318,-0.03448,-0.00519,-0.03265,-0.04486,-0.00412,-0.00427,-0.03067,-0.00809,-0.40527,0.33783,-0.03036,0.0032,0.00168,-0.05386
10.4965,-0.00336,-0.0441,-0.03632,-0.00702,-0.03265,-0.04623,-0.0058,0.00061,-0.03189,-0.00854,-0.43655,0.33859,-0.03113,0.0061,0.00153,-0.0528
10.497,-0.00351,-0.04333,-0.03677,-0.00854,-0.0322,-0.04791,-0.0087,0.00031,-0.03159,-0.00992,-0.53802,0.32181,-0.03235,0.0058,0.0029,-0.05096
10.4975,-0.00351,-0.04089,-0.03525,-0.00778,-0.03021,-0.05356,-0.01129,-0.0061,-0.02975,-0.01236,-0.60364,0.27267,-0.03174,0.00473,0.0058,-0.05035
10.498,-0.00351,-0.03967,-0.03387,-0.00626,-0.02716,-0.05966,-0.01251,-0.01236,-0.02625,-0.01617,-0.62576,0.2092,-0.03006,0.00626,0.00687,-0.05005
10.4985,-0.00412,-0.03983,-0.03296,-0.00519,-0.02319,-0.06363,-0.01358,-0.01419,-0.02304,-0.01785,-0.67184,0.15549,-0.02747,0.00946,0.00687,-0.04807
10.499,-0.00381,-0.04135,-0.03464,-0.0061,-0.01907,-0.06088,-0.01404,-0.01343,-0.0209,-0.01678,-0.75302,0.1123,-0.02609,0.01358,0.00748,-0.04471
10.4995,-0.0032,-0.04196,-0.0354,-0.00626,-0.0148,-0.05264,-0.01312,-0.00977,-0.02029,-0.01511,-0.82291,0.07813,-0.02609,0.0148,0.00916,-0.04227
10.5,-0.00198,-0.03998,-0.03494,-0.00595,-0.01419,-0.04532,-0.00946,-0.00443,-0.02014,-0.01511,-0.8667,0.0473,-0.02716,0.0116,0.01114,-0.04166
10.5005,-0.00305,-0.03876,-0.03342,-0.00565,-0.01678,-0.04288,-0.00839,0.00076,-0.0177,-0.01297,-0.90759,-0.00092,-0.02899,0.00549,0.01175,-0.04135
10.501,-0.00412,-0.03815,-0.0325,-0.00793,-0.02274,-0.04471,-0.01038,0.00458,-0.01389,-0.01129,-0.96283,-0.0824,-0.03067,-0.00229,0.01175,-0.04089
10.5015,-0.00443,-0.03876,-0.03265,-0.00977,-0.03006,-0.04623,-0.01251,0.00565,-0.01068,-0.00916,-1.03424,-0.16556,-0.03204,-0.01068,0.01099,-0.03922
10.502,-0.00336,-0.0386,-0.03357,-0.01099,-0.03418,-0.04456,-0.01266,0.00488,-0.00946,-0.00687,-1.10687,-0.19638,-0.03571,-0.0209,0.01083,-0.0383
10.5025,-0.0029,-0.0386,-0.03387,-0.01144,-0.03693,-0.0441,-0.01129,0.00244,-0.01114,-0.00351,-1.15158,-0.16663,-0.03906,-0.03052,0.01129,-0.03738
10.503,-0.0032,-0.03922,-0.03311,-0.01083,-0.03769,-0.04486,-0.00977,-0.00031,-0.01236,0.00122,-1.15311,-0.11887,-0.04074,-0.03677,0.01236,-0.03754
10.5035,-0.0029,-0.03998,-0.03342,-0.01068,-0.03876,-0.04517,-0.01083,-0.00153,-0.01404,0.00488,-1.13464,-0.08728,-0.04105,-0.03845,0.01236,-0.03784
10.504,-0.00183,-0.04105,-0.03479,-0.01114,-0.03876,-0.04578,-0.01251,-0.00244,-0.01556,0.00275,-1.11511,-0.06775,-0.04135,-0.03784,0.00992,-0.04135
10.5045,-0.00107,-0.04196,-0.03555,-0.01175,-0.03708,-0.04898,-0.01419,-0.00443,-0.01907,-0.0058,-1.08597,-0.04486,-0.04211,-0.03815,0.00732,-0.0444
10.505,-0.00153,-0.04242,-0.03418,-0.01343,-0.03494,-0.05234,-0.01678,-0.00702,-0.02136,-0.01678,-1.04919,-0.02167,-0.04242,-0.04028,0.00748,-0.04715
10.5055,-0.00229,-0.0415,-0.03326,-0.01434,-0.03296,-0.05432,-0.01907,-0.00854,-0.01953,-0.02747,-1.01837,-0.00351,-0.04242,-0.0412,0.00885,-0.04684
10.506,-0.0029,-0.0415,-0.03296,-0.01434,-0.03189,-0.05447,-0.01984,-0.00931,-0.01358,-0.03235,-0.98862,0.02151,-0.04211,-0.03632,0.01022,-0.04456
10.5065,-0.00351,-0.0415,-0.03265,-0.01328,-0.03265,-0.05417,-0.01892,-0.00977,-0.00763,-0.03036,-0.93063,0.07965,-0.04211,-0.02609,0.01251,-0.0415
10.507,-0.00381,-0.04044,-0.0322,-0.01175,-0.03296,-0.05234,-0.0177,-0.00977,-0.00443,-0.02548,-0.83633,0.16464,-0.0412,-0.0145,0.01373,-0.0386
10.5075,-0.00381,-0.03983,-0.03326,-0.01099,-0.03311,-0.05157,-0.01694,-0.00748,-0.00366,-0.02197,-0.72678,0.22781,-0.03952,-0.00946,0.01389,-0.03555
10.508,-0.00397,-0.03922,-0.03387,-0.01129,-0.03357,-0.05081,-0.01556,-0.00336,-0.00488,-0.02167,-0.62363,0.21225,-0.03891,-0.01038,0.01358,-0.03357
10.5085,-0.00443,-0.03922,-0.03525,-0.0116,-0.03418,-0.05112,-0.01358,0.00061,-0.00763,-0.02182,-0.52414,0.1181,-0.03998,-0.01266,0.01328,-0.0354
10.509,-0.00519,-0.03967,-0.0351,-0.01144,-0.03479,-0.04898,-0.01266,0.00458,-0.01328,-0.01938,-0.42496,0.00687,-0.03983,-0.01328,0.01236,-0.0383
10.5095,-0.0061,-0.03967,-0.03494,-0.01068,-0.03433,-0.04837,-0.01434,0.00732,-0.01877,-0.01495,-0.32761,-0.06119,-0.0386,-0.01236,0.01144,-0.04013
10.51,-0.00671,-0.04028,-0.03464,-0.01083,-0.0325,-0.04822,-0.01801,0.0061,-0.02075,-0.01312,-0.23346,-0.08804,-0.03555,-0.00961,0.0119,-0.03922
10.5105,-0.00702,-0.04181,-0.03479,-0.01007,-0.0322,-0.04852,-0.02106,0.00397,-0.01938,-0.01495,-0.13916,-0.11383,-0.03326,-0.00778,0.01221,-0.03677
10.511,-0.00717,-0.04333,-0.03387,-0.00931,-0.03281,-0.04883,-0.02106,0.00198,-0.01724,-0.01831,-0.04044,-0.15671,-0.03128,-0.00687,0.01373,-0.03342
10.5115,-0.00641,-0.04364,-0.03235,-0.009,-0.03311,-0.05157,-0.01892,0.00107,-0.0177,-0.01984,0.05219,-0.19638,-0.02899,-0.00595,0.0145,-0.03052
10.512,-0.00473,-0.04288,-0.03235,-0.01129,-0.03296,-0.04761,-0.01923,-0.00244,-0.02106,-0.01831,0.12436,-0.21011,-0.02747,-0.00534,0.01465,-0.02777
10.5125,-0.00336,-0.0412,-0.03204,-0.01419,-0.0322,-0.04883,-0.0235,-0.01099,-0.02289,-0.01709,0.17258,-0.19531,-0.02838,-0.00656,0.01297,-0.02792
10.513,-0.0032,-0.04044,-0.03372,-0.01373,-0.03235,-0.04822,-0.02594,-0.01755,-0.02335,-0.01495,0.20981,-0.15656,-0.03052,-0.009,0.01129,-0.03113
10.5135,-0.00412,-0.0412,-0.03479,-0.01251,-0.03265,-0.04761,-0.02243,-0.01709,-0.02335,-0.01358,0.24582,-0.09064,-0.03128,-0.00931,0.01083,-0.03372
10.514,-0.00412,-0.04257,-0.0351,-0.01068,-0.03204,-0.0473,-0.01434,-0.0116,-0.02396,-0.01389,0.27924,0.00015,-0.03006,-0.00641,0.0116,-0.03571
10.5145,-0.00336,-0.04242,-0.03494,-0.00961,-0.03174,-0.04791,-0.00824,-0.00488,-0.02518,-0.01511,0.30167,0.08636,-0.02823,-0.00427,0.01099,-0.03738
10.515,-0.0029,-0.04135,-0.03571,-0.00946,-0.03189,-0.04807,-0.00717,-0.00214,-0.02411,-0.01862,0.31143,0.13046,-0.02731,-0.0058,0.01068,-0.03998
10.5155,-0.00336,-0.04166,-0.03586,-0.01007,-0.03174,-0.04776,-0.00824,-0.00168,-0.02029,-0.02029,0.30899,0.12497,-0.02731,-0.00717,0.01007,-0.04044
10.516,-0.00458,-0.04211,-0.03693,-0.01068,-0.03067,-0.04791,-0.00854,-0.00229,-0.01495,-0.01923,0.30151,0.09537,-0.02808,-0.00656,0.01068,-0.03891
10.5165,-0.0058,-0.04211,-0.03723,-0.01236,-0.03098,-0.047,-0.01068,-0.00305,-0.01022,-0.01801,0.29709,0.06958,-0.02808,-0.00397,0.01053,-0.03616
10.517,-0.00656,-0.0415,-0.03738,-0.01373,-0.03204,-0.04669,-0.01511,-0.00412,-0.00595,-0.01938,0.30487,0.05569,-0.02808,-0.00397,0.01007,-0.03647
10.5175,-0.00671,-0.04196,-0.03738,-0.01526,-0.0325,-0.04639,-0.02151,-0.00488,-0.00259,-0.02075,0.32471,0.04135,-0.02808,-0.00458,0.00824,-0.03937
10.518,-0.0058,-0.04196,-0.03662,-0.0148,-0.03235,-0.04623,-0.02365,-0.00366,-0.00107,-0.01999,0.35751,0.00824,-0.02823,-0.00351,0.00732,-0.04074
10.5185,-0.00504,-0.0415,-0.0351,-0.01129,-0.03128,-0.04578,-0.01892,-0.00198,-0.00137,-0.01709,0.3923,-0.0441,-0.0267,-0.00214,0.00687,-0.04074
10.519,-0.00381,-0.0415,-0.03433,-0.009,-0.03143,-0.04532,-0.0116,-0.00046,-0.00336,-0.01297,0.4158,-0.09979,-0.02686,-0.00275,0.00732,-0.04074
10.5195,-0.00366,-0.04196,-0.03357,-0.0087,-0.03143,-0.04501,-0.00732,0.00015,-0.00473,-0.0116,0.42938,-0.14435,-0.02716,-0.00397,0.00732,-0.04074
10.52,-0.00381,-0.04242,-0.03403,-0.00977,-0.03143,-0.04562,-0.00854,-0.00107,-0.00443,-0.01343,0.44403,-0.17502,-0.02686,-0.00458,0.00732,-0.04059
10.5205,-0.0029,-0.04211,-0.03403,-0.00977,-0.03098,-0.04517,-0.01205,-0.00565,-0.00305,-0.0177,0.46021,-0.1947,-0.02762,-0.0058,0.00793,-0.0415
10.521,-0.0029,-0.0412,-0.03387,-0.00702,-0.03052,-0.0444,-0.01495,-0.00961,-0.00244,-0.02136,0.466,-0.19974,-0.02853,-0.00839,0.00717,-0.04074
10.5215,-0.00305,-0.03998,-0.03296,-0.00595,-0.03067,-0.04272,-0.01587,-0.00854,-0.00488,-0.02563,0.44907,-0.18967,-0.02991,-0.01236,0.00748,-0.04059
10.522,-0.0032,-0.04013,-0.03296,-0.00656,-0.03006,-0.0415,-0.01556,-0.00412,-0.01129,-0.02762,0.41245,-0.16632,-0.03098,-0.01556,0.00732,-0.04181
10.5225,-0.00351,-0.0412,-0.03418,-0.009,-0.03098,-0.0441,-0.0177,-0.00275,-0.0177,-0.02899,0.36591,-0.13245,-0.03082,-0.01617,0.00854,-0.04379
10.523,-0.0032,-0.04211,-0.03647,-0.01129,-0.03098,-0.04669,-0.01877,-0.00626,-0.01968,-0.02747,0.32089,-0.1004,-0.0293,-0.01617,0.01038,-0.04456
10.5235,-0.00351,-0.04272,-0.03616,-0.01007,-0.03052,-0.04807,-0.01678,-0.00992,-0.01831,-0.02472,0.28229,-0.0798,-0.02716,-0.01694,0.01099,-0.04333
10.524,-0.00351,-0.04257,-0.03479,-0.00839,-0.03082,-0.04639,-0.01282,-0.01007,-0.01511,-0.02533,0.2449,-0.04837,-0.02655,-0.01724,0.00977,-0.04303
10.5245,-0.00305,-0.04196,-0.03418,-0.009,-0.03052,-0.04425,-0.01175,-0.00839,-0.01221,-0.02716,0.20218,0.02823,-0.02563,-0.01709,0.00931,-0.0444
10.525,-0.00275,-0.04089,-0.03555,-0.01099,-0.03082,-0.0415,-0.01358,-0.00885,-0.00992,-0.02762,0.16495,0.1384,-0.02533,-0.01541,0.01007,-0.04623
10.5255,-0.00336,-0.04074,-0.03647,-0.0116,-0.03159,-0.04456,-0.01572,-0.00885,-0.01007,-0.02396,0.15549,0.22461,-0.02426,-0.01404,0.01099,-0.0473
10.526,-0.00473,-0.04105,-0.03586,-0.01083,-0.0322,-0.04364,-0.0145,-0.00595,-0.01144,-0.01755,0.1796,0.2446,-0.02289,-0.01236,0.01205,-0.04593
10.5265,-0.00626,-0.04074,-0.03433,-0.01099,-0.03159,-0.04318,-0.01251,-0.00137,-0.01022,-0.01266,0.22308,0.20279,-0.02151,-0.01175,0.01266,-0.04486
10.527,-0.00671,-0.04059,-0.0351,-0.01129,-0.03006,-0.0441,-0.01144,0.00031,-0.00565,-0.01099,0.26443,0.12436,-0.02106,-0.01068,0.01236,-0.04456
10.5275,-0.00595,-0.04013,-0.03632,-0.0119,-0.0296,-0.04532,-0.01129,-0.00214,0.00046,-0.01083,0.29343,0.02563,-0.02121,-0.009,0.01068,-0.04608
10.528,-0.00427,-0.03998,-0.03662,-0.0116,-0.03098,-0.04608,-0.01129,-0.00519,0.00519,-0.00946,0.31677,-0.0827,-0.01999,-0.00656,0.0087,-0.04807
10.5285,-0.00427,-0.04089,-0.03616,-0.01068,-0.03143,-0.04623,-0.01236,-0.00656,0.00763,-0.00885,0.33813,-0.17639,-0.01938,-0.00519,0.00854,-0.04807
10.529,-0.00458,-0.04272,-0.03525,-0.01221,-0.03067,-0.04532,-0.01556,-0.00549,0.0061,-0.01068,0.35141,-0.23163,-0.01953,-0.00687,0.009,-0.04959
10.5295,-0.00397,-0.0441,-0.03494,-0.0119,-0.02884,-0.04364,-0.01755,-0.00427,0.00153,-0.01434,0.35309,-0.24261,-0.02243,-0.00931,0.00992,-0.05127
10.53,-0.0029,-0.04349,-0.03448,-0.01099,-0.02914,-0.04623,-0.01755,-0.00366,-0.00473,-0.01831,0.34378,-0.22232,-0.02487,-0.01114,0.01038,-0.05463
10.5305,-0.0032,-0.0412,-0.03311,-0.00946,-0.03067,-0.04623,-0.01755,-0.00198,-0.00961,-0.02243,0.32303,-0.15717,-0.02747,-0.01389,0.01083,-0.05768
10.531,-0.00427,-0.04089,-0.03143,-0.00931,-0.03159,-0.04852,-0.01724,-0.00015,-0.00992,-0.02655,0.29831,-0.00214,-0.02853,-0.01724,0.00946,-0.05844
10.5315,-0.00534,-0.04028,-0.0322,-0.00931,-0.03174,-0.04868,-0.01648,0.00153,-0.00961,-0.03418,0.2887,0.23224,-0.02853,-0.01999,0.00717,-0.05814
10.532,-0.00549,-0.04089,-0.03235,-0.00824,-0.03113,-0.04852,-0.01587,0.00153,-0.01495,-0.04379,0.30579,0.41412,-0.0293,-0.02106,0.00473,-0.05661
10.5325,-0.00458,-0.0412,-0.03372,-0.00626,-0.03082,-0.04898,-0.0148,0.00244,-0.0238,-0.05157,0.34409,0.41656,-0.03006,-0.0209,0.0032,-0.05585
10.533,-0.00366,-0.04196,-0.03387,-0.00504,-0.0322,-0.04929,-0.01389,0.00397,-0.03036,-0.05203,0.39139,0.27771,-0.0296,-0.02045,0.00366,-0.05646
10.5335,-0.0032,-0.04272,-0.03372,-0.00549,-0.03418,-0.04944,-0.01282,0.00732,-0.02777,-0.04562,0.44022,0.14313,-0.02655,-0.01999,0.00534,-0.05753
10.534,-0.00275,-0.04242,-0.03464,-0.00656,-0.03403,-0.04791,-0.01236,0.00961,-0.02136,-0.03799,0.4834,0.07538,-0.02457,-0.01938,0.00778,-0.05692
10.5345,-0.00488,-0.04242,-0.03433,-0.00732,-0.03311,-0.04654,-0.01297,0.01099,-0.0177,-0.03326,0.51239,0.0209,-0.02396,-0.0177,0.00946,-0.05478
10.535,-0.00656,-0.04272,-0.03311,-0.00824,-0.03174,-0.047,-0.0145,0.01114,-0.01938,-0.02243,0.52399,-0.05951,-0.02533,-0.01541,0.00961,-0.05295
10.5355,-0.00748,-0.04349,-0.03159,-0.00885,-0.03311,-0.04807,-0.01587,0.01007,-0.02243,0.00015,0.51941,-0.12619,-0.02487,-0.01251,0.00885,-0.0499
10.536,-0.00824,-0.0444,-0.03143,-0.00946,-0.03464,-0.04944,-0.01816,0.00748,-0.02213,0.02991,0.50583,-0.14008,-0.02365,-0.00992,0.0061,-0.04623
10.5365,-0.00809,-0.04395,-0.03189,-0.01007,-0.03494,-0.04944,-0.02228,0.00183,-0.01846,0.0415,0.49683,-0.11673,-0.02319,-0.00854,0.00519,-0.04501
10.537,-0.00732,-0.04349,-0.03174,-0.01251,-0.03494,-0.04868,-0.02655,-0.00351,-0.01312,0.01862,0.50339,-0.08957,-0.0238,-0.00824,0.00595,-0.04517
10.5375,-0.00626,-0.04242,-0.03143,-0.0145,-0.03479,-0.04883,-0.02686,-0.00549,-0.00793,-0.02319,0.51849,-0.06104,-0.02563,-0.00824,0.00824,-0.04608
10.538,-0.00595,-0.04196,-0.03281,-0.01465,-0.03418,-0.04883,-0.02258,-0.00259,-0.00473,-0.05798,0.52612,-0.01495,-0.02762,-0.00961,0.00854,-0.04501
10.5385,-0.00549,-0.0412,-0.03464,-0.01419,-0.03235,-0.05066,-0.01694,-0.00153,-0.00504,-0.07202,0.52261,0.05066,-0.02853,-0.01251,0.0061,-0.0444
10.539,-0.00412,-0.03922,-0.03403,-0.0116,-0.03082,-0.04791,-0.01236,-0.00671,-0.00839,-0.07294,0.5249,0.11429,-0.02975,-0.0148,0.00458,-0.04364
10.5395,-0.00244,-0.03738,-0.03235,-0.00702,-0.03143,-0.04593,-0.01144,-0.01221,-0.01266,-0.06989,0.53909,0.14999,-0.02899,-0.01495,0.00626,-0.04196
10.54,-0.00137,-0.03647,-0.03098,-0.00366,-0.03281,-0.04562,-0.01511,-0.01144,-0.01526,-0.06439,0.55832,0.14511,-0.02838,-0.01465,0.00748,-0.03937
10.5405,-0.00214,-0.03754,-0.03159,-0.00427,-0.03372,-0.04425,-0.02106,-0.01022,-0.01785,-0.05768,0.57587,0.10086,-0.0296,-0.0145,0.00717,-0.03799
10.541,-0.00336,-0.03967,-0.03204,-0.00839,-0.03265,-0.04501,-0.02716,-0.01251,-0.02075,-0.05325,0.58777,0.0412,-0.03113,-0.01434,0.00641,-0.03799
10.5415,-0.00397,-0.03937,-0.03098,-0.01144,-0.03052,-0.04593,-0.02884,-0.01495,-0.02319,-0.05081,0.60104,-0.00534,-0.03113,-0.01511,0.00717,-0.0383
10.542,-0.00305,-0.03769,-0.02991,-0.01129,-0.02869,-0.04761,-0.02441,-0.01114,-0.02426,-0.04684,0.61768,-0.02731,-0.03006,-0.01709,0.00702,-0.03845
10.5425,-0.00153,-0.03769,-0.03036,-0.00763,-0.02945,-0.04807,-0.01648,-0.00275,-0.02319,-0.0415,0.63675,-0.03616,-0.0296,-0.02045,0.00626,-0.03952
10.543,-0.00031,-0.03845,-0.03342,-0.00565,-0.02975,-0.04761,-0.01236,-0.00168,-0.01938,-0.03326,0.65308,-0.04639,-0.0322,-0.02075,0.00504,-0.04105
10.5435,-0.00214,-0.04028,-0.03265,-0.00549,-0.03113,-0.04669,-0.01328,-0.01312,-0.01404,-0.02625,0.65903,-0.06271,-0.03433,-0.01785,0.00397,-0.04242
10.544,-0.00275,-0.0415,-0.03174,-0.00504,-0.03204,-0.04654,-0.01862,-0.02731,-0.01053,-0.02167,0.64346,-0.07721,-0.03464,-0.01389,0.00351,-0.04456
10.5445,-0.00427,-0.04227,-0.03159,-0.00381,-0.03265,-0.04745,-0.02182,-0.03143,-0.01266,-0.01663,0.61081,-0.08499,-0.03418,-0.01404,0.00366,-0.04578
10.545,-0.00397,-0.04196,-0.03098,-0.00259,-0.03128,-0.0473,-0.02121,-0.02304,-0.01953,-0.01053,0.58533,-0.08469,-0.03326,-0.01785,0.00397,-0.04456
10.5455,-0.00366,-0.04089,-0.03235,-0.00229,-0.03036,-0.04852,-0.01907,-0.01083,-0.02594,-0.00473,0.57114,-0.07782,-0.03311,-0.02213,0.00427,-0.04196
10.546,-0.00381,-0.03967,-0.03342,-0.00259,-0.02991,-0.0499,-0.01617,-0.00305,-0.03036,-0.00397,0.55954,-0.06927,-0.03418,-0.02533,0.0032,-0.04044
10.5465,-0.00427,-0.04013,-0.03403,-0.00427,-0.03174,-0.05035,-0.01419,-0.00061,-0.0354,-0.00626,0.55191,-0.06546,-0.03647,-0.0267,0.00061,-0.04013
10.547,-0.00427,-0.04089,-0.03357,-0.0058,-0.03326,-0.04883,-0.01205,-0.00214,-0.04028,-0.00946,0.55634,-0.07004,-0.03708,-0.02686,-0.00214,-0.04242
10.5475,-0.00443,-0.0415,-0.03235,-0.0058,-0.03296,-0.04425,-0.01266,-0.0032,-0.04181,-0.01144,0.56686,-0.08972,-0.03723,-0.02609,-0.00427,-0.04486
10.548,-0.00443,-0.04181,-0.0325,-0.00473,-0.03143,-0.04456,-0.01511,-0.00366,-0.04074,-0.01266,0.56854,-0.12817,-0.03784,-0.02594,-0.00519,-0.04715
10.5485,-0.00488,-0.04166,-0.03296,-0.00381,-0.02991,-0.04669,-0.01831,-0.00229,-0.0386,-0.01266,0.56152,-0.18158,-0.03738,-0.02518,-0.00519,-0.04608
10.549,-0.00626,-0.04028,-0.03555,-0.00473,-0.03067,-0.04807,-0.01999,0.0,-0.03494,-0.00946,0.55984,-0.24231,-0.03555,-0.02228,-0.00305,-0.04379
10.5495,-0.00702,-0.03922,-0.03616,-0.00656,-0.03036,-0.04807,-0.01999,0.00198,-0.02808,-0.00137,0.56763,-0.30563,-0.03159,-0.01862,0.0029,-0.03967
10.55,-0.00626,-0.03906,-0.03601,-0.00793,-0.02975,-0.04745,-0.02151,0.00107,-0.02167,0.00763,0.57678,-0.34546,-0.02869,-0.01801,0.00977,-0.03708
10.5505,-0.00626,-0.03967,-0.03464,-0.00992,-0.03021,-0.04623,-0.02502,-0.00046,-0.01907,0.0145,0.57968,-0.3157,-0.02853,-0.01877,0.01709,-0.03738
10.551,-0.00687,-0.04028,-0.03342,-0.01144,-0.03021,-0.04547,-0.02701,-0.00137,-0.01785,0.01541,0.57632,-0.18875,-0.03098,-0.01785,0.02167,-0.03906
10.5515,-0.00717,-0.04059,-0.03311,-0.0119,-0.03021,-0.04608,-0.02289,0.00031,-0.01648,0.01266,0.56854,0.01129,-0.03296,-0.01633,0.02304,-0.04089
10.552,-0.00793,-0.04074,-0.03296,-0.01129,-0.02884,-0.047,-0.01465,0.00107,-0.01266,0.00961,0.5571,0.22385,-0.03433,-0.01678,0.02258,-0.04272
10.5525,-0.00809,-0.04166,-0.03387,-0.01038,-0.02869,-0.04654,-0.00793,0.00031,-0.00778,0.0087,0.53909,0.38712,-0.03754,-0.01968,0.02731,-0.04562
10.553,-0.00717,-0.04211,-0.03433,-0.01038,-0.02838,-0.04547,-0.00671,-0.00092,-0.0029,0.00763,0.52338,0.44983,-0.04272,-0.02441,0.03937,-0.04822
10.5535,-0.0058,-0.04181,-0.03357,-0.01266,-0.02762,-0.04471,-0.00854,-0.00137,-0.00061,0.0032,0.52216,0.39139,-0.04639,-0.03052,0.05432,-0.04959
10.554,-0.00641,-0.04013,-0.03265,-0.01434,-0.02777,-0.04608,-0.00854,0.0,-0.00412,-0.00275,0.53314,0.25436,-0.04532,-0.03448,0.05737,-0.04974
10.5545,-0.00656,-0.03952,-0.0322,-0.01434,-0.02716,-0.04745,-0.00519,0.00351,-0.00763,-0.00534,0.54977,0.12085,-0.04196,-0.03311,0.04272,-0.0499
10.555,-0.0061,-0.04013,-0.03342,-0.01282,-0.02808,-0.04791,-0.00061,0.00748,-0.00732,-0.00641,0.57587,0.0415,-0.03891,-0.02686,0.01724,-0.05005
10.5555,-0.00656,-0.04166,-0.03464,-0.01328,-0.0296,-0.04776,0.00229,0.00839,-0.00412,-0.00946,0.61127,0.00351,-0.03708,-0.02304,-0.0058,-0.0499
10.556,-0.00626,-0.04135,-0.03662,-0.01358,-0.03036,-0.04761,0.00153,0.00381,-0.00687,-0.0148,0.63965,-0.02289,-0.03662,-0.02319,-0.02029,-0.04837
10.5565,-0.00717,-0.04074,-0.03784,-0.01312,-0.0293,-0.04791,-0.00198,-0.00702,-0.01602,-0.01968,0.65155,-0.03632,-0.03601,-0.02441,-0.02716,-0.047
10.557,-0.00565,-0.03998,-0.03616,-0.01312,-0.02792,-0.04852,-0.00671,-0.01877,-0.02884,-0.02029,0.65704,-0.01801,-0.03586,-0.02396,-0.03021,-0.04593
10.5575,-0.00595,-0.03983,-0.03464,-0.01328,-0.02686,-0.04913,-0.01053,-0.02319,-0.0386,-0.01984,0.65842,0.02396,-0.03571,-0.0235,-0.02655,-0.04669
10.558,-0.00626,-0.04105,-0.03342,-0.01312,-0.02731,-0.04898,-0.01221,-0.01877,-0.04684,-0.02182,0.64102,0.06577,-0.03616,-0.02457,-0.01785,-0.04807
10.5585,-0.00595,-0.04272,-0.03326,-0.01251,-0.02884,-0.05035,-0.01358,-0.01022,-0.05219,-0.02777,0.59723,0.09171,-0.03647,-0.02762,-0.00687,-0.04837
10.559,-0.00534,-0.04318,-0.03372,-0.01221,-0.03006,-0.05157,-0.0174,-0.00488,-0.05386,-0.03159,0.54001,0.10208,-0.03555,-0.02853,0.00076,-0.04791
10.5595,-0.00443,-0.04227,-0.03357,-0.01266,-0.02884,-0.05066,-0.01831,-0.00305,-0.05234,-0.02899,0.48172,0.09766,-0.03326,-0.0238,0.00473,-0.04532
10.56,-0.00504,-0.03983,-0.03326,-0.01205,-0.02762,-0.04913,-0.01434,-0.00061,-0.04974,-0.01953,0.42465,0.07965,-0.03082,-0.0174,0.00595,-0.04303
10.5605,-0.00488,-0.0386,-0.03372,-0.01114,-0.02792,-0.04745,-0.00656,0.00351,-0.04669,-0.00809,0.36224,0.05402,-0.02975,-0.01373,0.00656,-0.04272
10.561,-0.00305,-0.03876,-0.03464,-0.01007,-0.02914,-0.04822,-0.00244,0.00641,-0.04196,0.00092,0.28732,0.03601,-0.02975,-0.01358,0.00687,-0.04456
10.5615,-0.00259,-0.03937,-0.03479,-0.01114,-0.02975,-0.04852,-0.00275,0.00687,-0.03403,0.00183,0.19379,0.03998,-0.03128,-0.01678,0.00748,-0.04623
10.562,-0.0029,-0.04059,-0.03494,-0.01282,-0.03006,-0.04745,-0.00702,0.00458,-0.02716,-0.00397,0.08194,0.05722,-0.03342,-0.01801,0.00992,-0.04684
10.5625,-0.00381,-0.0412,-0.03525,-0.01434,-0.03021,-0.04684,-0.01114,0.0,-0.02441,-0.01312,-0.0383,0.06241,-0.03632,-0.0174,0.01114,-0.04776
10.563,-0.00473,-0.04166,-0.0354,-0.01526,-0.03189,-0.047,-0.01511,-0.00885,-0.02533,-0.01892,-0.16068,0.0386,-0.03799,-0.01617,0.01221,-0.04807
10.5635,-0.00458,-0.04181,-0.03601,-0.0145,-0.03235,-0.04791,-0.01526,-0.01801,-0.02731,-0.01617,-0.28641,-0.00153,-0.03738,-0.01541,0.01312,-0.04776
10.564,-0.00443,-0.04105,-0.03586,-0.01221,-0.03281,-0.04837,-0.01389,-0.01892,-0.02899,-0.00931,-0.43549,-0.03098,-0.03723,-0.01633,0.01358,-0.04822
10.5645,-0.00397,-0.03967,-0.03616,-0.01022,-0.03235,-0.04883,-0.01068,-0.01343,-0.03082,-0.00214,-0.61661,-0.0351,-0.03754,-0.01785,0.01343,-0.04837
10.565,-0.00366,-0.03876,-0.03662,-0.01053,-0.03265,-0.04959,-0.01099,-0.00763,-0.03128,0.00046,-0.80902,-0.01587,-0.03769,-0.01892,0.0119,-0.0499
10.5655,-0.00443,-0.0383,-0.03662,-0.01251,-0.03357,-0.05035,-0.01221,-0.00641,-0.03006,0.00061,-0.95734,0.0177,-0.03616,-0.01862,0.01068,-0.05096
10.566,-0.00473,-0.03998,-0.0354,-0.01282,-0.03387,-0.04837,-0.01266,-0.00793,-0.02533,-0.00061,-0.99319,0.05447,-0.03387,-0.01755,0.00961,-0.04929
10.5665,-0.00488,-0.04196,-0.0354,-0.0116,-0.0325,-0.04654,-0.01038,-0.00809,-0.01846,-0.00244,-0.90988,0.07477,-0.03342,-0.01633,0.01129,-0.04807
10.567,-0.00443,-0.04395,-0.0354,-0.01053,-0.03143,-0.04654,-0.00885,-0.00687,-0.0116,-0.00534,-0.78186,0.06226,-0.03433,-0.01572,0.0119,-0.04669
10.5675,-0.00381,-0.04501,-0.03571,-0.01083,-0.03113,-0.04715,-0.00717,-0.00519,-0.00671,-0.00992,-0.69565,0.02823,-0.03555,-0.01526,0.01282,-0.04593
10.568,-0.00534,-0.0444,-0.03677,-0.01053,-0.03036,-0.0473,-0.00748,-0.00427,-0.00336,-0.01617,-0.66391,0.00443,-0.03464,-0.01556,0.01373,-0.04425
10.5685,-0.00656,-0.04379,-0.03815,-0.01068,-0.02869,-0.047,-0.00687,-0.00504,0.0,-0.02319,-0.65018,-0.00092,-0.0325,-0.01709,0.01434,-0.04242
10.569,-0.00626,-0.04242,-0.03845,-0.01175,-0.0296,-0.0473,-0.00854,-0.00549,0.00519,-0.04089,-0.63904,-0.01328,-0.03128,-0.01892,0.0145,-0.04181
10.5695,-0.00305,-0.0412,-0.03723,-0.01144,-0.02945,-0.04807,-0.00992,-0.00534,0.01022,-0.07187,-0.64758,-0.04608,-0.03387,-0.02029,0.01434,-0.04242
10.57,-0.00168,-0.03937,-0.03601,-0.01022,-0.02945,-0.04715,-0.01007,-0.00366,0.01282,-0.09857,-0.68863,-0.07507,-0.03677,-0.02121,0.01419,-0.0444
10.5705,-0.00259,-0.0386,-0.0351,-0.00916,-0.02838,-0.04532,-0.00885,-0.00153,0.01526,-0.09842,-0.76508,-0.07614,-0.03754,-0.02167,0.01465,-0.04593
10.571,-0.00381,-0.03998,-0.03571,-0.00946,-0.02853,-0.0444,-0.00717,-0.00015,0.01724,-0.07202,-0.8963,-0.06104,-0.03677,-0.02136,0.0148,-0.04608
10.5715,-0.00275,-0.04196,-0.03601,-0.00977,-0.0296,-0.04547,-0.0061,0.00015,0.01968,-0.03967,-1.11771,-0.05524,-0.03647,-0.02014,0.01419,-0.04593
10.572,-0.00229,-0.04257,-0.03555,-0.00946,-0.03113,-0.04715,-0.00763,-0.00259,0.02243,-0.01831,-1.44135,-0.06439,-0.03754,-0.02136,0.01358,-0.04578
10.5725,-0.00259,-0.04242,-0.03494,-0.00946,-0.03159,-0.04669,-0.01144,-0.0061,0.02365,-0.00946,-1.81152,-0.07858,-0.03845,-0.02213,0.01221,-0.047
10.573,-0.00351,-0.04196,-0.03418,-0.01068,-0.03204,-0.04623,-0.01343,-0.00824,0.02411,-0.00412,-2.11395,-0.09552,-0.0383,-0.02243,0.01038,-0.04959
10.5735,-0.00473,-0.04211,-0.03479,-0.01114,-0.03159,-0.04654,-0.01358,-0.00916,0.02594,0.00275,-2.23953,-0.11673,-0.03693,-0.02136,0.0087,-0.05325
10.574,-0.00519,-0.04181,-0.0351,-0.01053,-0.03113,-0.04745,-0.01251,-0.00961,0.03006,0.01328,-2.17758,-0.13977,-0.03601,-0.01984,0.00778,-0.05447
10.5745,-0.00504,-0.04028,-0.03479,-0.01022,-0.03143,-0.04913,-0.01221,-0.01007,0.03159,0.02441,-2.02454,-0.13855,-0.03555,-0.01801,0.00763,-0.05463
10.575,-0.00443,-0.03967,-0.03525,-0.01114,-0.03174,-0.04761,-0.01221,-0.00977,0.0293,0.03342,-1.8869,-0.07706,-0.03586,-0.01587,0.00641,-0.05432
10.5755,-0.00412,-0.04013,-0.0354,-0.01175,-0.03326,-0.04669,-0.01251,-0.00946,0.02609,0.03922,-1.78711,0.03693,-0.03693,-0.01358,0.00626,-0.05386
10.576,-0.00534,-0.04288,-0.03494,-0.01282,-0.03479,-0.04578,-0.01221,-0.00916,0.02441,0.03906,-1.69266,0.121,-0.03815,-0.01205,0.00732,-0.0531
10.5765,-0.00534,-0.04303,-0.03403,-0.01312,-0.03479,-0.04684,-0.01282,-0.00809,0.02274,0.03281,-1.58981,0.10315,-0.03769,-0.01251,0.00778,-0.05157
10.577,-0.00504,-0.04211,-0.03372,-0.01282,-0.03418,-0.047,-0.01251,-0.00534,0.01755,0.01968,-1.49536,0.01862,-0.03754,-0.01251,0.00763,-0.05112
10.5775,-0.00397,-0.04044,-0.0351,-0.01175,-0.03326,-0.04593,-0.01007,-0.00275,0.0087,0.00427,-1.42532,-0.03769,-0.03799,-0.0119,0.00778,-0.05188
10.578,-0.0032,-0.04044,-0.03662,-0.01038,-0.03281,-0.04562,-0.00809,-0.00137,-0.00015,-0.00702,-1.37283,-0.0296,-0.03876,-0.01266,0.00885,-0.0528
10.5785,-0.00412,-0.04227,-0.03662,-0.00885,-0.03433,-0.04669,-0.00748,-0.00305,-0.00748,-0.01221,-1.31393,0.0029,-0.03952,-0.01511,0.00992,-0.05264
10.579,-0.00458,-0.04379,-0.03418,-0.00732,-0.03571,-0.04669,-0.009,-0.00504,-0.01587,-0.01602,-1.23322,0.02304,-0.03998,-0.01923,0.0116,-0.05234
10.5795,-0.00351,-0.04333,-0.03128,-0.00793,-0.0351,-0.04623,-0.01068,-0.00443,-0.02563,-0.02396,-1.13373,0.03372,-0.03967,-0.02319,0.0116,-0.05219
10.58,-0.00198,-0.04211,-0.02991,-0.00992,-0.03418,-0.04593,-0.01022,-0.0032,-0.03448,-0.0354,-1.03241,0.05905,-0.03876,-0.02594,0.0119,-0.05112
10.5805,-0.00137,-0.0415,-0.03052,-0.01236,-0.03296,-0.04684,-0.00854,-0.00381,-0.03967,-0.0499,-0.93582,0.09918,-0.03998,-0.02762,0.01343,-0.04868
10.581,-0.00107,-0.04166,-0.03235,-0.01343,-0.03143,-0.04745,-0.00809,-0.00366,-0.03754,-0.0618,-0.84518,0.13535,-0.04028,-0.02701,0.01572,-0.04593
10.5815,-0.00137,-0.04135,-0.03281,-0.01328,-0.03036,-0.04684,-0.0087,-0.00214,-0.02975,-0.06546,-0.76767,0.15274,-0.0386,-0.0238,0.01709,-0.04456
10.582,-0.00092,-0.04028,-0.03265,-0.01282,-0.03159,-0.04715,-0.00778,-0.00015,-0.02014,-0.06042,-0.70648,0.14542,-0.03662,-0.02014,0.0148,-0.04379
10.5825,-0.00046,-0.04013,-0.03372,-0.01236,-0.03357,-0.0473,-0.00824,0.0,-0.01251,-0.04852,-0.65384,0.10437,-0.0354,-0.0174,0.01266,-0.04272
10.583,-0.00015,-0.0415,-0.03494,-0.01236,-0.03418,-0.04608,-0.00839,-0.00137,-0.00702,-0.03571,-0.60333,0.02884,-0.03586,-0.01663,0.01205,-0.03937
10.5835,-0.00046,-0.04318,-0.03601,-0.01221,-0.03342,-0.04532,-0.00839,-0.0029,-0.00214,-0.02426,-0.55191,-0.06104,-0.03662,-0.01709,0.01205,-0.0354
10.584,-0.00092,-0.04349,-0.03632,-0.01282,-0.03265,-0.04501,-0.00732,-0.00336,0.00351,-0.01724,-0.50095,-0.14236,-0.03571,-0.0174,0.0119,-0.03204
10.5845,-0.00092,-0.04257,-0.03632,-0.0148,-0.03387,-0.04501,-0.0058,-0.00214,0.00717,-0.0148,-0.457,-0.21454,-0.03494,-0.01633,0.01007,-0.03189
10.585,-0.00214,-0.0412,-0.03555,-0.01556,-0.03387,-0.04639,-0.00565,-0.00076,0.00793,-0.01556,-0.41519,-0.27512,-0.03387,-0.01602,0.00946,-0.03189
10.5855,-0.0029,-0.04074,-0.03571,-0.01465,-0.03281,-0.04669,-0.00687,-0.00107,0.00504,-0.02014,-0.35599,-0.29663,-0.03281,-0.01495,0.01053,-0.03021
10.586,-0.0032,-0.04105,-0.03616,-0.01373,-0.03235,-0.04593,-0.00885,-0.00214,0.00092,-0.02533,-0.26932,-0.23483,-0.03159,-0.01663,0.01068,-0.02731
10.5865,-0.00305,-0.04028,-0.03586,-0.01236,-0.03296,-0.04547,-0.00992,-0.00397,-0.00107,-0.02686,-0.16418,-0.08316,-0.03159,-0.0177,0.00961,-0.0238
10.587,-0.00198,-0.03906,-0.03601,-0.01114,-0.03372,-0.04471,-0.01022,-0.00519,-0.00229,-0.02075,-0.05386,0.08072,-0.03204,-0.01846,0.00778,-0.02243
10.5875,-0.00076,-0.0386,-0.03525,-0.01053,-0.0322,-0.04456,-0.00992,-0.0058,-0.00381,-0.01114,0.05402,0.15427,-0.03296,-0.01785,0.00565,-0.02289
10.588,-0.00061,-0.03967,-0.0351,-0.01175,-0.02975,-0.0444,-0.00992,-0.00519,-0.00793,-0.00702,0.14755,0.12878,-0.03342,-0.01846,0.00595,-0.02319
10.5885,0.0,-0.0415,-0.03525,-0.01221,-0.02914,-0.04501,-0.01022,-0.00427,-0.01236,-0.01099,0.22125,0.09247,-0.03204,-0.02045,0.00748,-0.02167
10.589,-0.00046,-0.04211,-0.0351,-0.01053,-0.03189,-0.04578,-0.01007,-0.00351,-0.01648,-0.02075,0.28305,0.10468,-0.03296,-0.02426,0.01068,-0.01984
10.5895,-0.00061,-0.04227,-0.03448,-0.00977,-0.03433,-0.04654,-0.01007,-0.00275,-0.01968,-0.02792,0.34409,0.13779,-0.03403,-0.0267,0.01328,-0.01755
10.59,-0.00046,-0.04181,-0.03342,-0.01068,-0.03326,-0.04684,-0.009,-0.00107,-0.02121,-0.02899,0.40298,0.13474,-0.03387,-0.02655,0.01495,-0.01678
10.5905,0.0,-0.04166,-0.03296,-0.0116,-0.03098,-0.04684,-0.00763,0.00122,-0.02197,-0.02686,0.45807,0.09216,-0.03387,-0.02457,0.01495,-0.01801
10.591,-0.00046,-0.04059,-0.03403,-0.01236,-0.02991,-0.0473,-0.00671,0.00305,-0.02167,-0.02579,0.51086,0.04791,-0.03372,-0.02396,0.01389,-0.02014
10.5915,-0.00107,-0.03891,-0.03494,-0.01282,-0.03159,-0.047,-0.00687,0.00397,-0.02274,-0.02594,0.56091,0.01984,-0.03418,-0.02411,0.0119,-0.02045
10.592,-0.00214,-0.03799,-0.03479,-0.01266,-0.03235,-0.04715,-0.00916,0.00259,-0.02487,-0.02747,0.60181,-0.00244,-0.03479,-0.02472,0.01129,-0.02045
10.5925,-0.00183,-0.03876,-0.03418,-0.01312,-0.03235,-0.04745,-0.01053,-0.00031,-0.02731,-0.02853,0.63507,-0.03616,-0.03342,-0.02533,0.01129,-0.01984
10.593,-0.00153,-0.04028,-0.03235,-0.01266,-0.03067,-0.04745,-0.0116,-0.00275,-0.02914,-0.0296,0.66284,-0.07416,-0.0322,-0.02655,0.01251,-0.01801
10.5935,-0.00183,-0.03983,-0.03189,-0.01114,-0.03021,-0.047,-0.01099,-0.00275,-0.02747,-0.03067,0.68542,-0.0882,-0.03296,-0.02838,0.01312,-0.01785
10.594,-0.00259,-0.03876,-0.03174,-0.01007,-0.03281,-0.04715,-0.01083,-0.00168,-0.02106,-0.03281,0.69992,-0.06165,-0.03418,-0.02945,0.01434,-0.01984
10.5945,-0.00336,-0.03891,-0.03113,-0.01022,-0.03433,-0.04852,-0.0116,-0.00076,-0.0119,-0.03662,0.70877,-0.02319,-0.03464,-0.02853,0.01282,-0.02243
10.595,-0.00427,-0.03906,-0.03113,-0.01129,-0.03311,-0.04883,-0.01266,0.0,-0.00595,-0.04013,0.7196,-0.01816,-0.03418,-0.0264,0.01038,-0.02533
10.5955,-0.0058,-0.03952,-0.03281,-0.01221,-0.03067,-0.04868,-0.01282,-0.00107,-0.00412,-0.04303,0.73975,-0.04654,-0.03281,-0.02243,0.00809,-0.02975
10.596,-0.00748,-0.03952,-0.03372,-0.01221,-0.02899,-0.04745,-0.01129,-0.00153,-0.00443,-0.04303,0.76874,-0.07416,-0.0322,-0.01877,0.0058,-0.0351
10.5965,-0.00748,-0.03891,-0.03311,-0.01221,-0.03036,-0.04654,-0.01114,-0.00214,-0.00351,-0.03922,0.79788,-0.0798,-0.03128,-0.01755,0.00671,-0.03891
10.597,-0.00656,-0.0386,-0.03296,-0.0119,-0.03159,-0.04593,-0.01328,-0.00229,-0.00122,-0.03159,0.82413,-0.06058,-0.02991,-0.01968,0.00885,-0.03922
10.5975,-0.00565,-0.03906,-0.03342,-0.01099,-0.03159,-0.04578,-0.01511,-0.00305,0.00076,-0.02258,0.84686,-0.01465,-0.0296,-0.02151,0.01022,-0.03632
10.598,-0.00473,-0.03952,-0.03403,-0.01053,-0.03113,-0.04547,-0.01617,-0.00305,0.00259,-0.01495,0.86243,0.04196,-0.03113,-0.02289,0.01083,-0.03525
10.5985,-0.00549,-0.03998,-0.03403,-0.0087,-0.03021,-0.04639,-0.01709,-0.0032,0.00168,-0.00946,0.86945,0.07401,-0.03342,-0.02335,0.009,-0.03784
10.599,-0.00595,-0.0386,-0.03311,-0.00793,-0.03006,-0.04593,-0.01495,-0.0029,-0.00305,-0.0061,0.87494,0.07172,-0.03464,-0.02472,0.00595,-0.04135
10.5995,-0.00488,-0.03754,-0.03281,-0.00748,-0.02869,-0.04547,-0.01328,-0.00183,-0.01175,-0.00336,0.87967,0.06485,-0.0351,-0.02502,0.00229,-0.04242
10.6,-0.00412,-0.03754,-0.03235,-0.00702,-0.02731,-0.04425,-0.01114,0.00031,-0.02182,0.00031,0.87723,0.07675,-0.03555,-0.02487,-0.00092,-0.0415
10.6005,-0.00351,-0.03799,-0.03174,-0.00732,-0.02655,-0.04379,-0.00961,0.00168,-0.03128,0.0029,0.86502,0.09399,-0.03571,-0.02808,-0.00046,-0.04028
10.601,-0.00397,-0.03815,-0.03143,-0.00687,-0.0264,-0.0444,-0.01007,0.00214,-0.03723,0.00397,0.84976,0.09903,-0.03632,-0.03113,0.00275,-0.0386
10.6015,-0.00366,-0.0383,-0.03052,-0.00671,-0.02762,-0.04562,-0.01068,0.00198,-0.03876,0.00778,0.83191,0.09872,-0.03601,-0.03128,0.00748,-0.03738
10.602,-0.00336,-0.03967,-0.03143,-0.00687,-0.02823,-0.04623,-0.01205,0.00168,-0.03738,0.01297,0.81009,0.10925,-0.03601,-0.02701,0.01053,-0.03723
10.6025,-0.00351,-0.04166,-0.03235,-0.00595,-0.02838,-0.04745,-0.01099,0.00122,-0.03296,0.01785,0.78598,0.12726,-0.03433,-0.02319,0.01175,-0.03876
10.603,-0.00229,-0.04242,-0.03296,-0.0058,-0.02838,-0.04837,-0.01022,0.0,-0.02838,0.02335,0.76355,0.13519,-0.03296,-0.02197,0.01236,-0.03952
10.6035,-0.00107,-0.04181,-0.03159,-0.0061,-0.02853,-0.04898,-0.009,-0.00031,-0.02838,0.03357,0.73502,0.12299,-0.03143,-0.0238,0.01236,-0.03723
10.604,-0.00107,-0.04105,-0.03113,-0.00641,-0.02869,-0.04944,-0.00854,-0.00015,-0.03387,0.04242,0.68893,0.09323,-0.0322,-0.02762,0.00931,-0.03403
10.6045,-0.0029,-0.04181,-0.03204,-0.00793,-0.02945,-0.04883,-0.01022,0.00153,-0.03998,0.03784,0.6044,0.05066,-0.03525,-0.03128,0.00565,-0.03525
10.605,-0.00534,-0.04211,-0.03159,-0.00854,-0.03159,-0.04883,-0.0119,0.00229,-0.04486,0.01495,0.44846,-0.00488,-0.03616,-0.03281,0.00504,-0.03754
10.6055,-0.0061,-0.04089,-0.03067,-0.0061,-0.03296,-0.04822,-0.01236,0.00107,-0.04745,-0.01358,0.19455,-0.06348,-0.03342,-0.03265,0.00656,-0.04013
10.606,-0.00565,-0.04044,-0.03021,0.00061,-0.03387,-0.04761,-0.01251,-0.00015,-0.04456,-0.0351,-0.14786,-0.11826,-0.02975,-0.03143,0.00854,-0.04227
10.6065,-0.00519,-0.04105,-0.03113,0.00702,-0.03357,-0.04669,-0.01266,-0.00153,-0.03769,-0.04791,-0.52414,-0.17136,-0.02899,-0.02853,0.01114,-0.04242
10.607,-0.00519,-0.04196,-0.03311,0.0119,-0.03189,-0.04639,-0.01236,-0.00183,-0.03296,-0.05661,-0.8606,-0.22156,-0.02991,-0.02579,0.01434,-0.04272
10.6075,-0.00549,-0.04181,-0.03418,0.01175,-0.03036,-0.04761,-0.01205,-0.00183,-0.03311,-0.06378,-1.12381,-0.25162,-0.03113,-0.02579,0.01831,-0.0412
10.608,-0.00565,-0.04135,-0.03433,0.00809,-0.03082,-0.04944,-0.01175,-0.00244,-0.03403,-0.06577,-1.32996,-0.23941,-0.03082,-0.02563,0.01785,-0.04135
10.6085,-0.00519,-0.04105,-0.03448,0.00031,-0.03189,-0.05051,-0.01144,-0.0032,-0.03098,-0.06241,-1.48697,-0.16876,-0.03082,-0.02487,0.01373,-0.03998
10.609,-0.00458,-0.0412,-0.03403,-0.00763,-0.03342,-0.05081,-0.01312,-0.00305,-0.02655,-0.05569,-1.56219,-0.0415,-0.03189,-0.02365,0.00946,-0.0415
10.6095,-0.00412,-0.04089,-0.03494,-0.0148,-0.03418,-0.05096,-0.0148,-0.0029,-0.02426,-0.04868,-1.54755,0.10483,-0.03265,-0.0235,0.00763,-0.04303
10.61,-0.00336,-0.04105,-0.03464,-0.02014,-0.03387,-0.05005,-0.01434,-0.00183,-0.0235,-0.04135,-1.49002,0.19592,-0.03143,-0.02213,0.0087,-0.04379
10.6105,-0.00336,-0.04105,-0.03632,-0.02457,-0.03326,-0.04837,-0.01282,-0.00229,-0.0209,-0.03326,-1.42441,0.1886,-0.02884,-0.01892,0.00961,-0.04364
10.611,-0.00336,-0.04242,-0.03693,-0.02502,-0.03342,-0.0473,-0.01251,-0.00351,-0.01511,-0.02594,-1.32843,0.11703,-0.02792,-0.01801,0.00931,-0.04318
10.6115,-0.00381,-0.04257,-0.03708,-0.01862,-0.03372,-0.04684,-0.01297,-0.00336,-0.01099,-0.02045,-1.19507,0.04929,-0.03021,-0.01923,0.00443,-0.04242
10.612,-0.00366,-0.04257,-0.03769,-0.00351,-0.03326,-0.04822,-0.01495,-0.00351,-0.00992,-0.01541,-1.07864,0.01602,-0.03143,-0.01968,-0.00275,-0.04379
10.6125,-0.00427,-0.04242,-0.03708,0.00977,-0.03265,-0.04868,-0.01541,-0.00381,-0.01007,-0.00961,-1.03012,0.00381,-0.03143,-0.01923,-0.00931,-0.04501
10.613,-0.00519,-0.04196,-0.03754,0.00656,-0.03174,-0.04715,-0.01465,-0.00473,-0.00854,-0.00656,-1.03256,-0.00153,-0.03021,-0.01801,-0.00824,-0.04303
10.6135,-0.00641,-0.0415,-0.03632,-0.0206,-0.03098,-0.04578,-0.01312,-0.0058,-0.00687,-0.00641,-1.02982,-0.00214,-0.02945,-0.01801,-0.00229,-0.03876
10.614,-0.00641,-0.04074,-0.03647,-0.05859,-0.03128,-0.04578,-0.01114,-0.00595,-0.00595,-0.0087,-0.97824,0.00031,-0.0293,-0.0177,0.0032,-0.03616
10.6145,-0.00702,-0.04074,-0.03555,-0.07858,-0.03235,-0.047,-0.0116,-0.00534,-0.00488,-0.01007,-0.88165,-0.00549,-0.03006,-0.01709,0.00473,-0.03632
10.615,-0.00717,-0.04242,-0.03525,-0.06485,-0.03281,-0.04776,-0.01358,-0.00488,-0.00473,-0.01221,-0.79636,-0.0238,-0.03067,-0.01633,0.00397,-0.03662
10.6155,-0.00702,-0.04318,-0.03632,-0.03281,-0.03265,-0.04883,-0.01419,-0.00458,-0.00626,-0.01602,-0.7785,-0.04929,-0.03189,-0.01633,0.00351,-0.03738
10.616,-0.0058,-0.04303,-0.03738,-0.01526,-0.03265,-0.04929,-0.01343,-0.00443,-0.00397,-0.02014,-0.80612,-0.06653,-0.03311,-0.01694,0.0029,-0.03693
10.6165,-0.00412,-0.04181,-0.03738,-0.02655,-0.03265,-0.04898,-0.01389,-0.00443,0.0032,-0.01831,-0.80444,-0.07019,-0.03265,-0.01511,0.00183,-0.03601
10.617,-0.00412,-0.0412,-0.03632,-0.05127,-0.03204,-0.04868,-0.01511,-0.00504,0.0116,-0.01175,-0.755,-0.0705,-0.03143,-0.01251,-0.00015,-0.03586
10.6175,-0.00565,-0.0412,-0.03525,-0.06836,-0.03098,-0.04852,-0.01465,-0.00641,0.0148,-0.00549,-0.69626,-0.07874,-0.03067,-0.00977,-0.00031,-0.03555
10.618,-0.00763,-0.04044,-0.03479,-0.0705,-0.03067,-0.05051,-0.01556,-0.00687,0.01114,-0.00595,-0.62439,-0.09262,-0.03098,-0.0087,-0.00046,-0.03494
10.6185,-0.00839,-0.04044,-0.03342,-0.06226,-0.03052,-0.05219,-0.01572,-0.00732,0.00305,-0.01358,-0.48935,-0.10773,-0.03128,-0.01038,-0.00061,-0.03433
10.619,-0.00916,-0.0415,-0.0322,-0.0528,-0.03036,-0.05219,-0.01587,-0.00763,-0.00671,-0.01907,-0.29205,-0.12909,-0.03128,-0.01251,0.00046,-0.03387
10.6195,-0.009,-0.04227,-0.03189,-0.04257,-0.03098,-0.05142,-0.01556,-0.0058,-0.01907,-0.01877,-0.10178,-0.15823,-0.03189,-0.01389,0.00305,-0.03403
10.62,-0.00809,-0.04227,-0.0325,-0.0264,-0.03113,-0.04913,-0.01495,-0.00427,-0.03311,-0.01526,0.02533,-0.17929,-0.03235,-0.01556,0.00549,-0.0354
10.6205,-0.00702,-0.04166,-0.03311,-0.00351,-0.03052,-0.04837,-0.01556,-0.00458,-0.04562,-0.0119,0.09949,-0.17761,-0.03143,-0.01755,0.00778,-0.03845
10.621,-0.00595,-0.04211,-0.03387,0.02594,-0.02914,-0.04898,-0.01495,-0.00519,-0.0563,-0.01022,0.16464,-0.14862,-0.03052,-0.01831,0.00793,-0.0412
10.6215,-0.00519,-0.04166,-0.03448,0.05615,-0.02777,-0.0499,-0.01343,-0.00473,-0.06378,-0.01053,0.2417,-0.08835,-0.02853,-0.01678,0.00732,-0.04181
10.622,-0.00412,-0.0412,-0.03387,0.07858,-0.02762,-0.05096,-0.01236,-0.00259,-0.06393,-0.01099,0.31387,0.00885,-0.02747,-0.01389,0.00717,-0.03937
10.6225,-0.00443,-0.04059,-0.03433,0.08499,-0.02853,-0.05112,-0.01144,-0.00092,-0.05875,-0.01205,0.37018,0.11948,-0.02563,-0.01175,0.00793,-0.03647
10.623,-0.00458,-0.04135,-0.03433,0.07019,-0.0296,-0.05081,-0.01205,-0.00061,-0.05295,-0.01404,0.42099,0.19547,-0.02472,-0.01297,0.00916,-0.03403
10.6235,-0.00427,-0.0415,-0.03418,0.03799,-0.0296,-0.04913,-0.01266,-0.00183,-0.04929,-0.02029,0.47165,0.21667,-0.0238,-0.01465,0.00992,-0.0322
10.624,-0.00336,-0.04028,-0.03296,0.00443,-0.0296,-0.04791,-0.01358,-0.00153,-0.0441,-0.02716,0.52612,0.20248,-0.02426,-0.01511,0.01038,-0.03098
10.6245,-0.00259,-0.0383,-0.03265,-0.01038,-0.02975,-0.04715,-0.0148,-0.00229,-0.03693,-0.03143,0.59174,0.17044,-0.02502,-0.01465,0.01007,-0.02808
10.625,-0.0032,-0.03815,-0.03326,-0.00687,-0.02884,-0.04623,-0.01663,-0.00351,-0.02869,-0.03006,0.65826,0.11322,-0.02579,-0.01526,0.00977,-0.02502
10.6255,-0.00443,-0.03998,-0.03555,0.00137,-0.02914,-0.04715,-0.01648,-0.00458,-0.02121,-0.02441,0.69977,0.0415,-0.02579,-0.01648,0.009,-0.02579
10.626,-0.00458,-0.04196,-0.03754,0.00351,-0.03189,-0.04837,-0.01495,-0.00351,-0.01556,-0.02075,0.71533,-0.00168,-0.0264,-0.01785,0.00763,-0.03082
10.6265,-0.00412,-0.04044,-0.03784,0.00244,-0.03357,-0.05005,-0.01373,-0.00061,-0.01236,-0.02182,0.72845,0.01038,-0.02594,-0.01709,0.00549,-0.03647
10.627,-0.00275,-0.03906,-0.03677,0.00305,-0.03448,-0.05081,-0.01434,0.00046,-0.00931,-0.02594,0.7489,0.05936,-0.02441,-0.01358,0.00473,-0.03662
10.6275,-0.00336,-0.03937,-0.03708,0.00443,-0.03464,-0.0502,-0.01663,0.00015,-0.00351,-0.02975,0.76019,0.1033,-0.02106,-0.00916,0.00671,-0.03281
10.628,-0.00504,-0.04059,-0.03799,0.00183,-0.03387,-0.04669,-0.01999,0.0,0.00504,-0.03067,0.74951,0.11856,-0.01892,-0.00793,0.00885,-0.02884
10.6285,-0.00671,-0.04059,-0.03922,-0.00778,-0.03418,-0.0441,-0.02182,-0.00046,0.01373,-0.02823,0.72433,0.10864,-0.01831,-0.00961,0.00946,-0.0296
10.629,-0.00778,-0.04013,-0.0383,-0.02167,-0.03342,-0.04471,-0.0206,-0.00153,0.01907,-0.02426,0.69809,0.08865,-0.0209,-0.01266,0.00916,-0.03311
10.6295,-0.00717,-0.04089,-0.03662,-0.02701,-0.03357,-0.04532,-0.01801,-0.00229,0.02014,-0.02121,0.6723,0.06149,-0.02289,-0.01404,0.00946,-0.03738
10.63,-0.00534,-0.0415,-0.03448,-0.00687,-0.03342,-0.04669,-0.0174,-0.00153,0.01907,-0.02075,0.64407,0.02228,-0.02441,-0.01511,0.00839,-0.04242
10.6305,-0.00381,-0.04166,-0.03433,0.03632,-0.03296,-0.04623,-0.01755,-0.00092,0.01633,-0.02319,0.61676,-0.02838,-0.02609,-0.01495,0.0061,-0.04562
10.631,-0.00488,-0.04257,-0.03479,0.07339,-0.03311,-0.04547,-0.0177,-0.00122,0.01205,-0.0209,0.59662,-0.07416,-0.02762,-0.01495,0.00443,-0.04486
10.6315,-0.00748,-0.04379,-0.03571,0.06989,-0.03448,-0.04562,-0.01602,-0.00092,0.0032,-0.00137,0.58365,-0.09247,-0.02747,-0.01633,0.0058,-0.04044
10.632,-0.00992,-0.04456,-0.03586,0.02228,-0.03586,-0.04532,-0.0148,-0.00122,-0.00916,0.03967,0.5719,-0.05417,-0.02838,-0.01862,0.00885,-0.03555
10.6325,-0.01083,-0.0441,-0.03525,-0.02731,-0.03647,-0.04684,-0.0148,-0.00061,-0.02213,0.0795,0.55878,0.04608,-0.0296,-0.0209,0.01099,-0.03433
10.633,-0.00992,-0.04395,-0.03418,-0.04333,-0.03586,-0.04807,-0.01312,0.00076,-0.03189,0.08606,0.54703,0.1413,-0.03067,-0.02075,0.00977,-0.03662
10.6335,-0.00732,-0.04379,-0.03159,-0.03342,-0.03616,-0.04883,-0.01205,0.00137,-0.03799,0.05157,0.53833,0.14771,-0.02975,-0.0177,0.00641,-0.04181
10.634,-0.0058,-0.04318,-0.03098,-0.02975,-0.03586,-0.04791,-0.01297,0.00015,-0.0415,0.00061,0.52872,0.06638,-0.0267,-0.01556,0.00519,-0.04547
10.6345,-0.00519,-0.04074,-0.03113,-0.03998,-0.03555,-0.047,-0.01541,-0.00305,-0.0415,-0.03754,0.51773,-0.03021,-0.02487,-0.01434,0.0061,-0.04593
10.635,-0.00412,-0.03891,-0.03143,-0.05096,-0.03525,-0.04776,-0.01526,-0.00397,-0.04044,-0.05707,0.50766,-0.10513,-0.0238,-0.01358,0.00717,-0.04395
10.6355,-0.00412,-0.03845,-0.03174,-0.05432,-0.03464,-0.04761,-0.01236,-0.00214,-0.04303,-0.06882,0.49683,-0.16571,-0.02487,-0.0148,0.00687,-0.04166
10.636,-0.00427,-0.03937,-0.03159,-0.05417,-0.03448,-0.04684,-0.01007,0.00061,-0.04791,-0.07614,0.48416,-0.19791,-0.02625,-0.01709,0.00626,-0.0412
10.6365,-0.00458,-0.0415,-0.03265,-0.05951,-0.03311,-0.04456,-0.01022,0.00076,-0.05005,-0.07782,0.47211,-0.17807,-0.02701,-0.02045,0.00458,-0.04257
10.637,-0.00565,-0.04242,-0.03418,-0.07233,-0.03204,-0.0444,-0.00977,0.00137,-0.04807,-0.07477,0.46555,-0.13611,-0.02716,-0.02258,0.00443,-0.04364
10.6375,-0.00656,-0.04181,-0.03525,-0.08957,-0.03113,-0.04623,-0.009,0.00214,-0.0412,-0.06973,0.46677,-0.12329,-0.0264,-0.0235,0.00519,-0.04318
10.638,-0.00641,-0.04059,-0.03555,-0.09094,-0.03235,-0.04822,-0.00809,0.00427,-0.03113,-0.06668,0.46906,-0.14221,-0.02594,-0.02121,0.00641,-0.04105
10.6385,-0.00671,-0.04044,-0.03616,-0.04959,-0.0322,-0.04852,-0.00809,0.00687,-0.02045,-0.06104,0.46021,-0.15305,-0.0267,-0.01907,0.00824,-0.04044
10.639,-0.00702,-0.04242,-0.03601,0.03754,-0.03036,-0.04883,-0.00854,0.00748,-0.01205,-0.05035,0.4422,-0.13718,-0.02655,-0.01892,0.00885,-0.03906
10.6395,-0.00732,-0.04395,-0.03571,0.13443,-0.0293,-0.04944,-0.00977,0.00763,-0.00687,-0.03525,0.42999,-0.11322,-0.02579,-0.01907,0.00839,-0.03922
10.64,-0.00641,-0.04333,-0.03479,0.186,-0.02975,-0.04868,-0.01022,0.00641,-0.00763,-0.02167,0.43274,-0.09811,-0.02548,-0.01999,0.00824,-0.0412
10.6405,-0.00504,-0.04333,-0.03387,0.168,-0.03113,-0.04791,-0.01114,0.00397,-0.01556,-0.0116,0.43808,-0.09369,-0.02731,-0.02167,0.00809,-0.04288
10.641,-0.00427,-0.04395,-0.03418,0.09811,-0.0322,-0.04745,-0.01144,0.00198,-0.02533,-0.00778,0.43427,-0.07278,-0.02869,-0.02289,0.00717,-0.04166
10.6415,-0.00473,-0.04364,-0.03479,0.02075,-0.03281,-0.04761,-0.0116,0.00259,-0.02853,-0.00641,0.41885,0.01984,-0.03036,-0.02365,0.00687,-0.03937
10.642,-0.00504,-0.04379,-0.03479,-0.02563,-0.03189,-0.04837,-0.0119,0.00427,-0.02365,-0.00488,0.40237,0.18814,-0.03067,-0.02167,0.00641,-0.03723
10.6425,-0.00595,-0.0444,-0.03387,-0.03479,-0.03159,-0.04684,-0.0119,0.00626,-0.01862,-0.00534,0.39581,0.32837,-0.03113,-0.02075,0.00671,-0.03601
10.643,-0.0061,-0.04471,-0.03387,-0.02991,-0.03189,-0.04776,-0.0119,0.00687,-0.0174,-0.01312,0.39871,0.33035,-0.03174,-0.01968,0.00732,-0.03571
10.6435,-0.00534,-0.04333,-0.03326,-0.03448,-0.03311,-0.04715,-0.0116,0.0058,-0.01923,-0.02655,0.40771,0.21912,-0.03372,-0.0206,0.00748,-0.03616
10.644,-0.00443,-0.04196,-0.03281,-0.05035,-0.03372,-0.04669,-0.01205,0.00565,-0.01816,-0.03738,0.4213,0.10559,-0.03479,-0.02182,0.00916,-0.03784
10.6445,-0.00351,-0.0412,-0.03403,-0.06714,-0.03372,-0.04578,-0.01144,0.00534,-0.01419,-0.04044,0.43991,0.04959,-0.03464,-0.02274,0.00961,-0.04013
10.645,-0.00351,-0.04028,-0.03387,-0.08148,-0.03235,-0.04349,-0.01099,0.00443,-0.00748,-0.03983,0.45807,0.0267,-0.03403,-0.02274,0.00916,-0.04089
10.6455,-0.00275,-0.0415,-0.03632,-0.0943,-0.02884,-0.04333,-0.00977,0.00244,-0.00137,-0.03876,0.46753,0.00763,-0.03433,-0.02136,0.00687,-0.04211
10.646,-0.00229,-0.04303,-0.03586,-0.09094,-0.02563,-0.04272,-0.00977,0.00198,0.00198,-0.03738,0.46585,-0.00443,-0.03418,-0.01785,0.00534,-0.0441
10.6465,-0.00229,-0.04272,-0.03464,-0.04227,-0.02609,-0.0415,-0.01068,0.00092,0.00366,-0.0325,0.44464,-0.00107,-0.03418,-0.01236,0.00534,-0.04456
10.647,-0.00381,-0.04089,-0.03296,0.04089,-0.02655,-0.04181,-0.01083,0.00107,0.0032,-0.0264,0.40024,0.00931,-0.03326,-0.00854,0.00763,-0.04349
10.6475,-0.00534,-0.03937,-0.03159,0.09552,-0.02914,-0.0441,-0.01266,0.00031,0.00168,-0.02151,0.34561,0.01404,-0.03387,-0.00732,0.00931,-0.04089
10.648,-0.00748,-0.04059,-0.03326,0.06973,-0.0293,-0.047,-0.01587,-0.00137,-0.00092,-0.02014,0.30472,0.00778,-0.03418,-0.00961,0.00992,-0.03937
10.6485,-0.00854,-0.04272,-0.03525,-0.01282,-0.02991,-0.04852,-0.0206,-0.00198,-0.00458,-0.01694,0.28336,-0.01038,-0.03479,-0.00961,0.00839,-0.03937
10.649,-0.009,-0.04227,-0.03448,-0.08362,-0.03082,-0.04807,-0.02151,-0.00305,-0.00809,-0.00977,0.2713,-0.03769,-0.03311,-0.01038,0.00671,-0.03906
10.6495,-0.00809,-0.04028,-0.03189,-0.1001,-0.03082,-0.04547,-0.01877,-0.00443,-0.01083,0.00092,0.25894,-0.06149,-0.03143,-0.01205,0.0087,-0.03754
10.65,-0.00687,-0.03891,-0.03036,-0.07065,-0.03098,-0.04456,-0.01602,-0.00519,-0.0119,0.01144,0.24948,-0.08041,-0.03036,-0.01511,0.01022,-0.03632
10.6505,-0.00443,-0.03906,-0.03174,-0.02975,-0.0322,-0.04456,-0.01526,-0.00519,-0.01205,0.01907,0.24796,-0.10941,-0.03052,-0.01846,0.01282,-0.03647
10.651,-0.00397,-0.03937,-0.03296,-0.00778,-0.03326,-0.0441,-0.01572,-0.00412,-0.00854,0.02258,0.24933,-0.15945,-0.03296,-0.02014,0.01572,-0.03784
10.6515,-0.00443,-0.03937,-0.0322,-0.02106,-0.03372,-0.04456,-0.01465,-0.00305,-0.00092,0.02182,0.24719,-0.21118,-0.0354,-0.01984,0.01694,-0.03876
10.652,-0.00549,-0.03983,-0.03143,-0.0531,-0.03189,-0.04501,-0.01297,-0.00137,0.00916,0.01129,0.24094,-0.22446,-0.03601,-0.01755,0.01617,-0.03952
10.6525,-0.00595,-0.04044,-0.03174,-0.07843,-0.03052,-0.04486,-0.01266,-0.00122,0.01755,-0.01343,0.23666,-0.17349,-0.0351,-0.01511,0.01221,-0.04028
10.653,-0.00534,-0.03983,-0.03143,-0.08392,-0.03036,-0.04395,-0.0145,-0.00351,0.02289,-0.047,0.24002,-0.07278,-0.03418,-0.01328,0.00992,-0.04227
10.6535,-0.00504,-0.03922,-0.03098,-0.06271,-0.03082,-0.04379,-0.0174,-0.00687,0.02304,-0.07446,0.24231,0.04074,-0.03372,-0.01251,0.01053,-0.04395
10.654,-0.00534,-0.03876,-0.03143,-0.00626,-0.03082,-0.04486,-0.01923,-0.00931,0.01938,-0.08072,0.23163,0.14435,-0.03342,-0.01282,0.01129,-0.04654
10.6545,-0.00504,-0.03983,-0.03326,0.08209,-0.02975,-0.04669,-0.01877,-0.00961,0.01434,-0.065,0.20447,0.21484,-0.03326,-0.01434,0.01099,-0.04974
10.655,-0.00351,-0.04059,-0.03387,0.16037,-0.02762,-0.04837,-0.01801,-0.00809,0.01038,-0.04349,0.17319,0.22018,-0.03418,-0.01724,0.00839,-0.05264
10.6555,-0.00214,-0.04089,-0.03418,0.16937,-0.02823,-0.04898,-0.01694,-0.00824,0.00488,-0.03021,0.15152,0.14923,-0.03586,-0.01923,0.00534,-0.05356
10.656,-0.00229,-0.04074,-0.03418,0.09903,-0.03082,-0.04715,-0.01633,-0.00885,-0.00305,-0.02518,0.14572,0.05936,-0.03586,-0.02106,0.00381,-0.05402
10.6565,-0.00275,-0.03998,-0.03464,0.00488,-0.03128,-0.04578,-0.01556,-0.009,-0.01297,-0.0235,0.15076,0.03372,-0.03464,-0.0209,0.00504,-0.05386
10.657,-0.00183,-0.0386,-0.03387,-0.05005,-0.03052,-0.04562,-0.01572,-0.00931,-0.0238,-0.02289,0.14877,0.09018,-0.03342,-0.01984,0.00626,-0.05203
10.6575,-0.00031,-0.03799,-0.03296,-0.06149,-0.03052,-0.0473,-0.01556,-0.00839,-0.03235,-0.02151,0.12665,0.17029,-0.03311,-0.01907,0.00809,-0.04974
10.658,0.00076,-0.03723,-0.03296,-0.05951,-0.0293,-0.0473,-0.01495,-0.0061,-0.03815,-0.01633,0.08698,0.21561,-0.03281,-0.0174,0.0087,-0.04837
10.6585,0.0,-0.03799,-0.03372,-0.05661,-0.03082,-0.04684,-0.01465,-0.00488,-0.03983,-0.00702,0.04593,0.21057,-0.03265,-0.01694,0.00778,-0.04837
10.659,-0.00092,-0.03952,-0.03525,-0.04425,-0.03235,-0.04684,-0.0148,-0.0029,-0.03616,0.00504,0.02136,0.16144,-0.03326,-0.01678,0.00534,-0.04898
10.6595,-0.00168,-0.04059,-0.03708,-0.01633,-0.03342,-0.04593,-0.01541,-0.00092,-0.02747,0.01465,0.01236,0.0827,-0.03113,-0.01373,0.00443,-0.05127
10.66,-0.00198,-0.04135,-0.03708,0.01328,-0.03326,-0.04578,-0.0174,-0.00107,-0.01755,0.01816,0.00076,0.00061,-0.02823,-0.01144,0.00519,-0.056
10.6605,-0.00229,-0.03998,-0.03586,0.02945,-0.03342,-0.04578,-0.01892,-0.00198,-0.01282,0.01648,-0.0293,-0.05585,-0.02792,-0.01144,0.00641,-0.05936
10.661,-0.0029,-0.03845,-0.03372,0.03372,-0.03052,-0.04639,-0.01923,-0.0032,-0.01175,0.01495,-0.07233,-0.08957,-0.03036,-0.01404,0.00763,-0.05936
10.6615,-0.00275,-0.03784,-0.03311,0.03265,-0.03021,-0.04745,-0.01984,-0.00275,-0.0119,0.01526,-0.10941,-0.12909,-0.03265,-0.01617,0.00931,-0.05768
10.662,-0.00259,-0.03708,-0.03418,0.03372,-0.03098,-0.04883,-0.02136,-0.00244,-0.01038,0.01755,-0.13138,-0.19089,-0.03357,-0.01617,0.00946,-0.05814
10.6625,-0.00229,-0.03662,-0.03418,0.04684,-0.02945,-0.04776,-0.02289,-0.00351,-0.00885,0.01755,-0.14725,-0.25406,-0.03418,-0.01511,0.00824,-0.05966
10.663,-0.00168,-0.03693,-0.03433,0.07309,-0.02594,-0.04684,-0.02289,-0.00458,-0.00763,0.01389,-0.16663,-0.28137,-0.03479,-0.01419,0.00732,-0.0592
10.6635,-0.00107,-0.03815,-0.03464,0.09232,-0.0235,-0.04776,-0.02121,-0.00549,-0.00732,0.01068,-0.19516,-0.25467,-0.03494,-0.01419,0.00824,-0.05722
10.664,-0.00168,-0.03891,-0.03494,0.08118,-0.02472,-0.04791,-0.02029,-0.00595,-0.00671,0.00992,-0.23132,-0.19257,-0.03418,-0.01465,0.00961,-0.05402
10.6645,-0.00275,-0.03967,-0.0351,0.03998,-0.02609,-0.04639,-0.02045,-0.00656,-0.00702,0.01099,-0.25925,-0.12436,-0.03326,-0.01556,0.01099,-0.05249
10.665,-0.0032,-0.03845,-0.03632,-0.01022,-0.0296,-0.04623,-0.02045,-0.00626,-0.00916,0.00992,-0.25879,-0.06027,-0.03387,-0.01724,0.01083,-0.05035
10.6655,-0.00229,-0.03845,-0.03754,-0.05341,-0.03082,-0.04761,-0.01984,-0.00504,-0.01175,0.00519,-0.23743,-0.00519,-0.03571,-0.01923,0.01083,-0.04883
10.666,-0.00107,-0.03799,-0.0383,-0.08514,-0.03021,-0.04898,-0.01953,-0.00427,-0.0119,-0.00381,-0.2095,0.0264,-0.03677,-0.01968,0.01221,-0.04807
10.6665,-0.00076,-0.03662,-0.0383,-0.10147,-0.02991,-0.0499,-0.01862,-0.00504,-0.00916,-0.01266,-0.17487,0.02823,-0.03555,-0.01938,0.01251,-0.04898
10.667,-0.00137,-0.03464,-0.03754,-0.09674,-0.0296,-0.0502,-0.01785,-0.0058,-0.00504,-0.01907,-0.12726,0.02533,-0.03479,-0.01846,0.01251,-0.04944
10.6675,-0.00259,-0.03357,-0.03815,-0.07904,-0.03189,-0.04883,-0.01724,-0.00641,-0.00275,-0.02274,-0.07202,0.03372,-0.03464,-0.01709,0.01099,-0.04883
10.668,-0.00366,-0.03464,-0.03784,-0.06607,-0.03281,-0.04791,-0.01617,-0.00641,-0.0061,-0.02457,-0.02426,0.03265,-0.0354,-0.01755,0.01022,-0.04974
10.6685,-0.00565,-0.03693,-0.03998,-0.06989,-0.0325,-0.04868,-0.01617,-0.00534,-0.01343,-0.02716,0.00732,-0.00061,-0.03647,-0.01999,0.00809,-0.05234
10.669,-0.00626,-0.03845,-0.03967,-0.08118,-0.03159,-0.0499,-0.01801,-0.00366,-0.01984,-0.02808,0.01297,-0.04257,-0.03738,-0.02151,0.00549,-0.05417
10.6695,-0.00549,-0.03784,-0.03815,-0.08255,-0.03128,-0.04944,-0.01862,-0.00381,-0.02167,-0.02975,-0.01785,-0.04318,-0.03693,-0.02075,0.00412,-0.05402
10.67,-0.00443,-0.03708,-0.03616,-0.06531,-0.03235,-0.04974,-0.01907,-0.00427,-0.02075,-0.02991,-0.08453,0.00732,-0.03555,-0.02014,0.00519,-0.04852
10.6705,-0.00412,-0.03815,-0.0354,-0.03265,-0.03357,-0.0473,-0.01862,-0.0058,-0.0206,-0.0293,-0.16953,0.07141,-0.03494,-0.02151,0.00687,-0.0444
10.671,-0.00519,-0.03998,-0.03448,0.01434,-0.03464,-0.04639,-0.01801,-0.00717,-0.01877,-0.02243,-0.25528,0.11841,-0.03525,-0.02289,0.00854,-0.04318
10.6715,-0.00549,-0.04135,-0.03311,0.06897,-0.03418,-0.04791,-0.01724,-0.00763,-0.01297,-0.00946,-0.32684,0.14008,-0.03555,-0.02274,0.00961,-0.04364
10.672,-0.00549,-0.04196,-0.0325,0.1033,-0.03387,-0.05035,-0.01648,-0.00732,-0.00427,0.00397,-0.37552,0.12283,-0.03632,-0.02151,0.00946,-0.0444
10.6725,-0.00519,-0.04318,-0.03296,0.08759,-0.03464,-0.05173,-0.01572,-0.00687,0.00122,0.01083,-0.39703,0.05478,-0.0383,-0.02106,0.0087,-0.04517
10.673,-0.00504,-0.04471,-0.03387,0.02472,-0.03571,-0.05005,-0.01434,-0.00656,0.00046,0.009,-0.39993,-0.02136,-0.03876,-0.0235,0.0087,-0.04562
10.6735,-0.00626,-0.04486,-0.0354,-0.03967,-0.0351,-0.04929,-0.01389,-0.00671,-0.00488,0.00168,-0.39688,-0.03128,-0.03937,-0.02716,0.00961,-0.04562
10.674,-0.00839,-0.04608,-0.03708,-0.06165,-0.03311,-0.04974,-0.01587,-0.00778,-0.00977,-0.00458,-0.39764,0.03448,-0.03967,-0.02899,0.00977,-0.04623
10.6745,-0.00961,-0.04715,-0.03799,-0.04807,-0.03204,-0.05051,-0.01862,-0.00793,-0.01129,-0.00778,-0.39825,0.10529,-0.03922,-0.02853,0.00916,-0.04623
10.675,-0.00977,-0.04761,-0.03784,-0.02899,-0.03235,-0.04898,-0.02014,-0.00778,-0.00916,-0.01129,-0.38925,0.12589,-0.03754,-0.02563,0.00717,-0.04654
10.6755,-0.00748,-0.04807,-0.03708,-0.01923,-0.03296,-0.04776,-0.01938,-0.00748,-0.00702,-0.01587,-0.36865,0.11856,-0.03647,-0.02167,0.00793,-0.047
10.676,-0.00534,-0.04913,-0.03586,-0.01068,-0.03281,-0.04761,-0.01862,-0.0061,-0.00702,-0.01877,-0.34027,0.12024,-0.03738,-0.01862,0.00916,-0.04684
10.6765,-0.00458,-0.05051,-0.03433,0.00366,-0.03265,-0.04471,-0.01831,-0.00793,-0.0087,-0.02167,-0.30792,0.13092,-0.03891,-0.01862,0.0087,-0.04639
10.677,-0.00412,-0.05096,-0.03479,0.02243,-0.03387,-0.0441,-0.01892,-0.00961,-0.00809,-0.02594,-0.27069,0.13138,-0.03967,-0.02121,0.00839,-0.04639
10.6775,-0.00427,-0.04974,-0.03357,0.03296,-0.03326,-0.04578,-0.01923,-0.01114,-0.0061,-0.03433,-0.23285,0.12344,-0.03922,-0.0238,0.00824,-0.04776
10.678,-0.00397,-0.04852,-0.03342,0.02518,-0.03204,-0.04425,-0.01984,-0.01083,-0.00381,-0.04654,-0.19913,0.10849,-0.0383,-0.02457,0.00839,-0.04807
10.6785,-0.00473,-0.04868,-0.03265,0.00839,-0.03067,-0.04456,-0.02029,-0.00839,-0.00305,-0.05508,-0.17365,0.07996,-0.03815,-0.02274,0.00763,-0.04684
10.679,-0.00626,-0.04929,-0.03448,0.0029,-0.03067,-0.04791,-0.02136,-0.00595,-0.00519,-0.05707,-0.16373,0.03998,-0.03815,-0.02167,0.0058,-0.04379
10.6795,-0.00565,-0.04715,-0.03464,0.01511,-0.03128,-0.04852,-0.02029,-0.00381,-0.00824,-0.05249,-0.16327,0.00854,-0.03769,-0.01999,0.00519,-0.04288
10.68,-0.00427,-0.0441,-0.03433,0.02518,-0.03052,-0.0499,-0.01785,-0.00366,-0.0116,-0.0441,-0.15106,-0.00504,-0.03723,-0.02014,0.00687,-0.04318
10.6805,-0.00305,-0.04181,-0.03342,0.01633,-0.02914,-0.0473,-0.01678,-0.00443,-0.01221,-0.03677,-0.12253,-0.01419,-0.03784,-0.02151,0.0087,-0.04395
10.681,-0.00305,-0.04181,-0.03189,-0.00824,-0.02869,-0.04639,-0.01495,-0.00458,-0.0119,-0.03204,-0.08667,-0.02548,-0.03723,-0.02243,0.01068,-0.04349
10.6815,-0.0032,-0.04181,-0.03082,-0.03326,-0.0296,-0.04684,-0.01358,-0.00366,-0.01343,-0.02838,-0.05432,-0.0264,-0.03586,-0.02136,0.009,-0.0444
10.682,-0.00381,-0.04196,-0.03082,-0.05127,-0.02853,-0.05005,-0.0116,-0.00305,-0.01999,-0.02792,-0.02548,-0.00107,-0.03555,-0.02029,0.00793,-0.04745
10.6825,-0.00443,-0.04242,-0.0296,-0.0647,-0.02747,-0.04883,-0.01175,-0.00305,-0.0267,-0.03021,0.00046,0.0412,-0.03632,-0.01984,0.00641,-0.0502
10.683,-0.00519,-0.04181,-0.03113,-0.07187,-0.02701,-0.05112,-0.01236,-0.00458,-0.03052,-0.03204,0.02365,0.07507,-0.03754,-0.02045,0.00778,-0.0502
10.6835,-0.00519,-0.0412,-0.0325,-0.06638,-0.02914,-0.0473,-0.01465,-0.00641,-0.02808,-0.03342,0.04364,0.08636,-0.03799,-0.0209,0.00961,-0.04898
10.684,-0.00626,-0.04089,-0.0322,-0.05173,-0.03128,-0.04654,-0.01724,-0.00656,-0.02167,-0.03128,0.05173,0.08286,-0.03784,-0.02167,0.01007,-0.04898
10.6845,-0.00687,-0.04181,-0.03174,-0.03906,-0.03265,-0.04852,-0.01984,-0.00519,-0.01633,-0.02731,0.05219,0.07538,-0.03769,-0.02167,0.01053,-0.04822
10.685,-0.00748,-0.04227,-0.03296,-0.03738,-0.03235,-0.04883,-0.01923,-0.00427,-0.01465,-0.02502,0.05692,0.06485,-0.03815,-0.02121,0.01068,-0.04684
10.6855,-0.00717,-0.04089,-0.03555,-0.04272,-0.03189,-0.04837,-0.01846,-0.00381,-0.01663,-0.02411,0.0798,0.04395,-0.03952,-0.02167,0.01129,-0.04471
10.686,-0.0061,-0.03906,-0.03616,-0.04807,-0.03189,-0.04639,-0.01877,-0.00473,-0.01984,-0.02426,0.1236,0.01221,-0.04135,-0.02197,0.01328,-0.04288
10.6865,-0.00519,-0.03876,-0.03433,-0.04791,-0.03082,-0.04684,-0.02045,-0.00641,-0.02014,-0.02533,0.17044,-0.02625,-0.04196,-0.02319,0.01343,-0.04166
10.687,-0.00488,-0.03998,-0.0322,-0.04242,-0.03082,-0.04745,-0.0206,-0.00717,-0.01434,-0.02518,0.20569,-0.06012,-0.04105,-0.02365,0.01358,-0.04196
10.6875,-0.00488,-0.04074,-0.03189,-0.03525,-0.03036,-0.04761,-0.01984,-0.00824,-0.00488,-0.02563,0.233,-0.08362,-0.04105,-0.02411,0.01358,-0.04318
10.688,-0.00473,-0.03983,-0.03372,-0.02808,-0.03189,-0.04761,-0.01877,-0.00885,0.0032,-0.02396,0.26321,-0.09567,-0.04196,-0.0235,0.01404,-0.04501
10.6885,-0.00504,-0.03845,-0.03433,-0.01968,-0.03174,-0.04837,-0.01892,-0.00977,0.00641,-0.02228,0.29587,-0.09827,-0.04318,-0.02487,0.01434,-0.04471
10.689,-0.00443,-0.03845,-0.03403,-0.0087,-0.03265,-0.04822,-0.01938,-0.00977,0.00702,-0.02182,0.32089,-0.08667,-0.04257,-0.02563,0.01312,-0.04318
10.6895,-0.00351,-0.03891,-0.03311,0.00305,-0.03189,-0.04745,-0.01953,-0.00854,0.00778,-0.0206,0.3331,-0.065,-0.0412,-0.02426,0.01068,-0.04272
10.69,-0.00244,-0.03922,-0.03204,0.0087,-0.02975,-0.04669,-0.01907,-0.00702,0.00839,-0.01801,0.3363,-0.05249,-0.0383,-0.02167,0.00916,-0.04349
10.6905,-0.0029,-0.0383,-0.03143,0.00732,-0.02853,-0.04593,-0.01801,-0.00549,0.00488,-0.0145,0.33997,-0.06912,-0.03586,-0.01968,0.00809,-0.04517
10.691,-0.00504,-0.03738,-0.03235,0.00076,-0.02823,-0.04456,-0.01663,-0.00504,-0.00198,-0.01358,0.34271,-0.10422,-0.0354,-0.01862,0.0087,-0.04532
10.6915,-0.00549,-0.03738,-0.03357,-0.00671,-0.02853,-0.04562,-0.01511,-0.0058,-0.01144,-0.0145,0.34561,-0.12726,-0.0354,-0.01953,0.01022,-0.04379
10.692,-0.00504,-0.03784,-0.03479,-0.01465,-0.0296,-0.04379,-0.01328,-0.00732,-0.01938,-0.01434,0.34592,-0.12802,-0.03601,-0.02014,0.01175,-0.04211
10.6925,-0.00381,-0.03922,-0.03555,-0.02319,-0.03052,-0.04608,-0.01328,-0.009,-0.02548,-0.01221,0.33981,-0.12924,-0.03571,-0.02045,0.01266,-0.04181
10.693,-0.0032,-0.04028,-0.0351,-0.02991,-0.0322,-0.04257,-0.01419,-0.01068,-0.03113,-0.01068,0.32333,-0.14236,-0.03479,-0.01938,0.01144,-0.04242
10.6935,-0.00259,-0.03998,-0.0351,-0.03296,-0.03403,-0.04486,-0.01556,-0.01068,-0.03754,-0.00839,0.30518,-0.12909,-0.03418,-0.01785,0.0116,-0.04272
10.694,-0.00198,-0.03922,-0.03418,-0.03418,-0.03433,-0.04501,-0.0174,-0.00946,-0.04425,-0.00824,0.28214,-0.0618,-0.03387,-0.01694,0.01053,-0.04303
10.6945,-0.00137,-0.03876,-0.03281,-0.03174,-0.0325,-0.04745,-0.01999,-0.00793,-0.04898,-0.00977,0.2478,0.0029,-0.03387,-0.01694,0.01038,-0.04242
10.695,-0.00168,-0.03937,-0.03265,-0.02594,-0.03143,-0.04456,-0.02197,-0.00595,-0.04913,-0.01205,0.19989,-0.01923,-0.03448,-0.01785,0.00961,-0.04272
10.6955,-0.00168,-0.03983,-0.03326,-0.01801,-0.03159,-0.04578,-0.02289,-0.00519,-0.04562,-0.01633,0.14877,-0.11581,-0.03616,-0.01862,0.00931,-0.04318
10.696,-0.00153,-0.03967,-0.03387,-0.01236,-0.03265,-0.04791,-0.02411,-0.00443,-0.04135,-0.01907,0.10513,-0.18311,-0.03708,-0.0206,0.00992,-0.04288
10.6965,-0.00107,-0.03906,-0.03281,-0.01282,-0.03357,-0.04822,-0.02518,-0.00687,-0.03662,-0.02014,0.07446,-0.15106,-0.03708,-0.02319,0.01053,-0.04272
10.697,-0.00061,-0.03937,-0.0322,-0.01511,-0.03296,-0.04837,-0.02655,-0.00763,-0.03235,-0.01923,0.05905,-0.03998,-0.03571,-0.02365,0.01007,-0.04318
10.6975,-0.00046,-0.03922,-0.03311,-0.01358,-0.03143,-0.04562,-0.02625,-0.00778,-0.03098,-0.01953,0.0563,0.07492,-0.03555,-0.02167,0.00793,-0.04456
10.698,-0.00061,-0.04013,-0.03464,-0.00732,-0.02899,-0.04654,-0.02472,-0.00656,-0.03098,-0.02075,0.05432,0.12711,-0.0354,-0.01816,0.00717,-0.04578
10.6985,-0.00153,-0.04211,-0.03586,-0.00183,-0.02762,-0.04852,-0.02213,-0.00504,-0.03174,-0.01968,0.03983,0.09842,-0.03479,-0.01633,0.00671,-0.04654
10.699,-0.00076,-0.04227,-0.03616,-0.00275,-0.02731,-0.047,-0.02121,-0.00412,-0.02914,-0.01694,0.00916,0.03662,-0.03296,-0.01511,0.00763,-0.04654
10.6995,-0.00076,-0.04013,-0.03571,-0.00854,-0.02853,-0.04745,-0.02182,-0.00427,-0.02563,-0.01266,-0.02701,0.01694,-0.0293,-0.0145,0.00824,-0.04532
10.7,-0.00107,-0.0383,-0.03418,-0.01709,-0.02914,-0.04791,-0.0209,-0.00427,-0.02258,-0.00809,-0.05905,0.06104,-0.02777,-0.01312,0.00839,-0.04364
10.7005,-0.00183,-0.03815,-0.03265,-0.0354,-0.02899,-0.04654,-0.02014,-0.00427,-0.02319,-0.0058,-0.08255,0.11993,-0.02792,-0.01328,0.00702,-0.04395
10.701,-0.00351,-0.03876,-0.03174,-0.06271,-0.02823,-0.04959,-0.01907,-0.00458,-0.02533,-0.00336,-0.10605,0.13779,-0.0296,-0.01465,0.00534,-0.04501
10.7015,-0.00458,-0.03998,-0.03326,-0.07584,-0.02853,-0.04883,-0.01877,-0.00626,-0.02747,-0.00504,-0.14481,0.11078,-0.03174,-0.01587,0.00443,-0.04791
10.702,-0.00443,-0.04074,-0.03342,-0.04593,-0.02945,-0.04791,-0.01801,-0.00732,-0.02762,-0.0116,-0.19989,0.06805,-0.03235,-0.01663,0.0029,-0.05066
10.7025,-0.00305,-0.03983,-0.03357,0.02274,-0.03189,-0.04822,-0.0177,-0.00763,-0.02563,-0.01938,-0.26077,0.02426,-0.0322,-0.01709,0.00259,-0.04929
10.703,-0.00244,-0.03937,-0.03326,0.08606,-0.03311,-0.047,-0.01755,-0.00763,-0.02426,-0.02533,-0.31754,-0.01617,-0.03006,-0.0174,0.00397,-0.04318
10.7035,-0.0029,-0.03845,-0.03326,0.09995,-0.03372,-0.04547,-0.01587,-0.00763,-0.02563,-0.02792,-0.36987,-0.04089,-0.02792,-0.01694,0.00748,-0.03601
10.704,-0.00427,-0.03952,-0.0325,0.06592,-0.03418,-0.04501,-0.01434,-0.00656,-0.02716,-0.02808,-0.43198,-0.03876,-0.02777,-0.01648,0.01251,-0.0354
10.7045,-0.00504,-0.04059,-0.03159,0.02258,-0.03418,-0.04517,-0.01282,-0.00549,-0.02777,-0.02914,-0.51804,-0.02213,-0.02777,-0.01511,0.01968,-0.03998
10.705,-0.00473,-0.04074,-0.03113,0.00397,-0.03403,-0.04395,-0.01373,-0.00595,-0.02625,-0.02975,-0.62531,-0.00824,-0.02899,-0.0119,0.02884,-0.04562
10.7055,-0.00351,-0.04211,-0.03265,0.00885,-0.03372,-0.04379,-0.01556,-0.00748,-0.02411,-0.0293,-0.73486,0.0,-0.02975,-0.01144,0.03677,-0.04837
10.706,-0.00259,-0.04364,-0.03296,0.01846,-0.03387,-0.04349,-0.01663,-0.00839,-0.02197,-0.02563,-0.81909,0.00839,-0.03113,-0.01175,0.0351,-0.04639
10.7065,-0.00229,-0.0444,-0.03281,0.01923,-0.03616,-0.04654,-0.01633,-0.00687,-0.02106,-0.02228,-0.84793,0.01923,-0.03174,-0.01343,0.01984,-0.04272
10.707,-0.0032,-0.04486,-0.03372,0.01465,-0.03799,-0.047,-0.01556,-0.00565,-0.02136,-0.02106,-0.81696,0.02686,-0.03113,-0.01358,-0.00153,-0.03891
10.7075,-0.00366,-0.04486,-0.03403,0.01129,-0.03952,-0.04852,-0.01495,-0.00626,-0.02136,-0.02182,-0.76157,0.02899,-0.0296,-0.01282,-0.01923,-0.03632
10.708,-0.0029,-0.04349,-0.03433,0.00977,-0.04044,-0.04852,-0.01541,-0.00809,-0.0206,-0.01938,-0.7225,0.02579,-0.02899,-0.01297,-0.0264,-0.03448
10.7085,-0.0032,-0.04288,-0.0354,0.01175,-0.0412,-0.05112,-0.01755,-0.00824,-0.01968,-0.01434,-0.70526,0.02014,-0.0293,-0.01556,-0.02213,-0.0325
10.709,-0.00488,-0.04303,-0.03571,0.01434,-0.04089,-0.05051,-0.01953,-0.00702,-0.01846,-0.01251,-0.68771,0.01343,-0.02869,-0.0174,-0.00977,-0.03265
10.7095,-0.0058,-0.04227,-0.0354,0.01373,-0.03922,-0.04944,-0.01923,-0.00656,-0.01602,-0.01328,-0.65659,0.00748,-0.02884,-0.0177,0.00565,-0.03525
10.71,-0.00427,-0.0415,-0.03418,0.01053,-0.0354,-0.04852,-0.01831,-0.00732,-0.01358,-0.01419,-0.61996,0.00458,-0.02762,-0.01541,0.01907,-0.03708
10.7105,-0.0032,-0.04166,-0.03204,0.00626,-0.03326,-0.04639,-0.01785,-0.00732,-0.00992,-0.01297,-0.5838,0.00885,-0.02716,-0.01297,0.0267,-0.03601
10.711,-0.00381,-0.04211,-0.03281,0.00397,-0.03128,-0.04654,-0.01694,-0.00549,-0.00336,-0.01053,-0.55176,0.02029,-0.02747,-0.0116,0.02274,-0.03433
10.7115,-0.00595,-0.04135,-0.0325,0.00107,-0.03021,-0.04684,-0.01587,-0.00473,0.00473,-0.009,-0.522,0.03586,-0.02869,-0.0119,0.01389,-0.03448
10.712,-0.00671,-0.04028,-0.0322,-0.0029,-0.02914,-0.04944,-0.01465,-0.00397,0.0116,-0.00839,-0.49393,0.04547,-0.03113,-0.01328,0.0061,-0.03677
10.7125,-0.00504,-0.03952,-0.03159,-0.00748,-0.02853,-0.047,-0.01343,-0.00488,0.01343,-0.0058,-0.4657,0.04425,-0.0322,-0.01465,0.00458,-0.03708
10.713,-0.00244,-0.03952,-0.03189,-0.00931,-0.02823,-0.04745,-0.01236,-0.0058,0.01114,0.00305,-0.43198,0.03372,-0.03128,-0.01602,0.00687,-0.0351
10.7135,-0.00244,-0.03952,-0.03326,-0.00778,-0.02792,-0.047,-0.01266,-0.00641,0.00641,0.01785,-0.39612,0.02335,-0.0296,-0.01633,0.00809,-0.03357
10.714,-0.00458,-0.03998,-0.03387,-0.00473,-0.02777,-0.04944,-0.01328,-0.00656,0.0,0.02716,-0.36255,0.02197,-0.0293,-0.01801,0.00519,-0.03387
10.7145,-0.00488,-0.03906,-0.03418,-0.00412,-0.02884,-0.0502,-0.01434,-0.00488,-0.0087,0.02029,-0.33554,0.03021,-0.03128,-0.01907,-0.00198,-0.03281
10.715,-0.00534,-0.03784,-0.03433,-0.00534,-0.02914,-0.04761,-0.01526,-0.00275,-0.01877,0.00076,-0.31082,0.03143,-0.0322,-0.01984,-0.00595,-0.03143
10.7155,-0.00397,-0.03723,-0.03418,-0.00549,-0.02991,-0.04822,-0.01587,-0.00214,-0.02899,-0.01816,-0.2829,0.00122,-0.03128,-0.01968,-0.00397,-0.03067
10.716,-0.00443,-0.03769,-0.03372,-0.00626,-0.03189,-0.047,-0.01556,-0.0032,-0.03906,-0.03143,-0.25177,-0.06088,-0.02975,-0.01831,0.00259,-0.03387
10.7165,-0.00443,-0.03845,-0.03357,-0.00809,-0.0351,-0.04807,-0.01389,-0.00473,-0.04898,-0.04044,-0.22095,-0.12634,-0.0296,-0.0177,0.00763,-0.03983
10.717,-0.00351,-0.03952,-0.03372,-0.00961,-0.03708,-0.04562,-0.01297,-0.00488,-0.056,-0.04837,-0.18829,-0.16602,-0.0296,-0.01801,0.00519,-0.04578
10.7175,-0.00198,-0.04013,-0.03586,-0.01022,-0.03738,-0.04608,-0.01404,-0.00397,-0.05905,-0.05219,-0.15305,-0.1712,-0.02975,-0.0206,0.00015,-0.05005
10.718,-0.00168,-0.03983,-0.03799,-0.0087,-0.03372,-0.04608,-0.01602,-0.00381,-0.05951,-0.05112,-0.12009,-0.15182,-0.0293,-0.02197,-0.00076,-0.05295
10.7185,-0.00259,-0.03952,-0.03754,-0.00778,-0.03052,-0.04807,-0.01648,-0.00336,-0.05814,-0.04807,-0.09308,-0.12787,-0.02853,-0.02289,0.00931,-0.05173
10.719,-0.00519,-0.03876,-0.03464,-0.00793,-0.02899,-0.04852,-0.01495,-0.00198,-0.05325,-0.04959,-0.06607,-0.11765,-0.02838,-0.02335,0.02686,-0.04654
10.7195,-0.00656,-0.03876,-0.03281,-0.0119,-0.02914,-0.0499,-0.01312,0.00031,-0.04486,-0.05142,-0.03723,-0.12497,-0.02853,-0.02289,0.04105,-0.03647
10.72,-0.00565,-0.03922,-0.03235,-0.01694,-0.0296,-0.04929,-0.01434,0.00275,-0.03586,-0.05219,-0.00656,-0.13184,-0.02823,-0.02045,0.04425,-0.02502
10.7205,-0.00427,-0.03891,-0.03281,-0.02121,-0.03036,-0.04807,-0.01617,0.00229,-0.02823,-0.04807,0.02884,-0.11337,-0.02808,-0.01801,0.03769,-0.0145
10.721,-0.00381,-0.03876,-0.03326,-0.02457,-0.02945,-0.04822,-0.01724,-0.00015,-0.02411,-0.04166,0.06592,-0.0676,-0.02899,-0.0174,0.03006,-0.00687
10.7215,-0.00458,-0.0383,-0.03296,-0.0293,-0.02869,-0.0473,-0.01678,-0.00137,-0.02274,-0.03448,0.0972,-0.01038,-0.02899,-0.01755,0.02487,-0.00443
10.722,-0.00565,-0.04028,-0.03189,-0.0351,-0.02823,-0.04807,-0.01633,-0.00198,-0.02029,-0.02808,0.11948,0.04593,-0.02777,-0.01755,0.02029,-0.00885
10.7225,-0.00534,-0.04181,-0.03143,-0.03693,-0.02853,-0.04883,-0.01617,-0.00092,-0.01587,-0.02533,0.13321,0.09491,-0.02747,-0.01724,0.01266,-0.01892
10.723,-0.00519,-0.04242,-0.0322,-0.03174,-0.02975,-0.0502,-0.01587,0.00046,-0.01068,-0.02579,0.13977,0.13351,-0.02808,-0.0174,0.0029,-0.0325
10.7235,-0.00534,-0.04242,-0.03281,-0.01282,-0.03036,-0.04868,-0.01526,0.00122,-0.00824,-0.02686,0.14252,0.1619,-0.02823,-0.01831,-0.0087,-0.04501
10.724,-0.00671,-0.0412,-0.03494,0.01953,-0.03098,-0.04852,-0.01541,0.00061,-0.00687,-0.02869,0.14267,0.17914,-0.02701,-0.0177,-0.02182,-0.05493
10.7245,-0.00717,-0.04211,-0.03708,0.04883,-0.03189,-0.04929,-0.01572,-0.00092,-0.00366,-0.02777,0.13779,0.17181,-0.02701,-0.01648,-0.03082,-0.05829
10.725,-0.00732,-0.04288,-0.03647,0.05112,-0.03311,-0.04883,-0.01511,-0.00168,-0.00092,-0.02457,0.12802,0.13504,-0.02762,-0.01572,-0.02884,-0.0563
10.7255,-0.00534,-0.04364,-0.0354,0.02426,-0.03479,-0.04791,-0.01389,-0.00244,0.0,-0.02121,0.12497,0.08224,-0.02762,-0.01648,-0.01724,-0.05295
10.726,-0.00351,-0.04349,-0.03494,-0.01114,-0.03525,-0.04776,-0.01419,-0.00229,-0.00046,-0.01785,0.13565,0.02991,-0.02686,-0.0174,-0.00412,-0.05112
10.7265,-0.00381,-0.04349,-0.03464,-0.03098,-0.03433,-0.04745,-0.01404,-0.0029,-0.00153,-0.01663,0.15503,-0.02411,-0.02701,-0.01816,0.00397,-0.05173
10.727,-0.00412,-0.0441,-0.03525,-0.03143,-0.03204,-0.04776,-0.01495,-0.00412,-0.00366,-0.01495,0.17044,-0.08591,-0.02792,-0.01953,0.00549,-0.05157
10.7275,-0.00443,-0.04425,-0.03601,-0.02426,-0.03082,-0.04883,-0.01648,-0.00427,-0.00626,-0.01419,0.17838,-0.14252,-0.02899,-0.01999,0.00702,-0.05081
10.728,-0.00412,-0.0441,-0.03616,-0.01877,-0.0296,-0.04868,-0.01846,-0.00336,-0.00671,-0.01266,0.17838,-0.17181,-0.02869,-0.02014,0.00931,-0.0502
10.7285,-0.00473,-0.04333,-0.03647,-0.01648,-0.03098,-0.04868,-0.01953,-0.00305,-0.00366,-0.01114,0.1741,-0.15427,-0.02899,-0.01953,0.01007,-0.05173
10.729,-0.00519,-0.04272,-0.03632,-0.01389,-0.03159,-0.04974,-0.01892,-0.00458,0.00061,-0.00763,0.16907,-0.08041,-0.02823,-0.01907,0.00565,-0.05203
10.7295,-0.00427,-0.04181,-0.03632,-0.01114,-0.03281,-0.04868,-0.01678,-0.00565,0.00412,-0.00351,0.1683,0.0415,-0.02762,-0.01785,-0.00824,-0.05112
10.73,-0.00336,-0.04196,-0.03555,-0.00839,-0.0325,-0.04868,-0.01495,-0.00549,0.00595,-0.00015,0.16769,0.16754,-0.02731,-0.01587,-0.03159,-0.04929
10.7305,-0.00305,-0.04257,-0.03494,-0.00793,-0.03326,-0.0499,-0.01511,-0.00366,0.00702,0.00107,0.16281,0.24323,-0.02731,-0.01556,-0.0502,-0.04852
10.731,-0.00473,-0.04318,-0.0354,-0.00824,-0.03265,-0.04913,-0.01511,-0.00214,0.00717,0.0,0.15518,0.24261,-0.02747,-0.01755,-0.04547,-0.04913
10.7315,-0.00549,-0.04303,-0.0354,-0.009,-0.03281,-0.04807,-0.0148,-0.00244,0.0061,-0.00153,0.14694,0.17502,-0.02777,-0.01892,-0.01938,-0.05051
10.732,-0.00534,-0.04349,-0.0351,-0.01053,-0.03403,-0.04898,-0.01358,-0.00275,0.00412,-0.00305,0.14038,0.07446,-0.02853,-0.01938,0.00595,-0.05005
10.7325,-0.00412,-0.0444,-0.03479,-0.01083,-0.0351,-0.04684,-0.01343,-0.00366,0.00214,-0.00351,0.14221,-0.00214,-0.02808,-0.01877,0.01801,-0.04761
10.733,-0.00351,-0.04395,-0.03387,-0.01068,-0.03479,-0.04776,-0.01495,-0.00336,0.00305,-0.00229,0.1474,-0.02487,-0.02792,-0.01877,0.02319,-0.04379
10.7335,-0.00381,-0.04272,-0.03418,-0.01038,-0.03372,-0.04791,-0.01511,-0.0029,0.00519,-0.00153,0.15198,-0.01907,-0.02884,-0.01938,0.03067,-0.04135
10.734,-0.00336,-0.04196,-0.0351,-0.01038,-0.03342,-0.04715,-0.01495,-0.00198,0.00687,-0.00168,0.15671,-0.02655,-0.03128,-0.0209,0.04059,-0.04135
10.7345,-0.00305,-0.04166,-0.03448,-0.009,-0.03342,-0.04761,-0.0148,-0.00168,0.00778,-0.00229,0.15808,-0.0531,-0.03296,-0.02197,0.04135,-0.04242
10.735,-0.00305,-0.0412,-0.03418,-0.00763,-0.03143,-0.04837,-0.0148,-0.00244,0.00931,-0.00259,0.15518,-0.06943,-0.03296,-0.02258,0.02945,-0.04425
10.7355,-0.00336,-0.04135,-0.03418,-0.00778,-0.02991,-0.0473,-0.0148,-0.00443,0.01114,-0.00183,0.14984,-0.0618,-0.0325,-0.02304,0.01556,-0.0441
10.736,-0.00366,-0.04135,-0.03433,-0.00916,-0.02899,-0.04654,-0.01511,-0.00702,0.00839,-0.00092,0.14587,-0.04074,-0.03281,-0.02075,0.01633,-0.04349
10.7365,-0.00366,-0.04166,-0.03342,-0.01038,-0.03021,-0.047,-0.01495,-0.00931,0.00275,-0.00107,0.14023,-0.02441,-0.03357,-0.01907,0.03296,-0.04242
10.737,-0.00336,-0.04211,-0.03342,-0.01068,-0.0322,-0.0473,-0.01465,-0.01251,-0.00397,-0.00366,0.12756,-0.01862,-0.03326,-0.01923,0.04822,-0.0415
10.7375,-0.00366,-0.04135,-0.03479,-0.01053,-0.03342,-0.04959,-0.01465,-0.01709,-0.0087,-0.00748,0.10986,-0.01709,-0.03281,-0.02029,0.04181,-0.04181
10.738,-0.0029,-0.04074,-0.03586,-0.00992,-0.03387,-0.05005,-0.01724,-0.02335,-0.01266,-0.01099,0.09171,-0.00626,-0.03387,-0.01999,0.02243,-0.0412
10.7385,-0.0032,-0.04074,-0.0351,-0.00809,-0.03418,-0.04929,-0.02045,-0.02563,-0.0177,-0.01648,0.07477,0.01587,-0.0351,-0.01862,0.01251,-0.03906
10.739,-0.00366,-0.04181,-0.0354,-0.00671,-0.03387,-0.04791,-0.02075,-0.0209,-0.02151,-0.02335,0.05371,0.03647,-0.03616,-0.01724,0.01755,-0.03525
10.7395,-0.00305,-0.0412,-0.0354,-0.00641,-0.03204,-0.04761,-0.01862,-0.01038,-0.02167,-0.0293,0.02899,0.03983,-0.03479,-0.0148,0.01663,-0.02945
10.74,-0.0032,-0.03998,-0.03494,-0.00626,-0.03067,-0.04669,-0.01572,0.00107,-0.02075,-0.03098,0.0087,0.03067,-0.0322,-0.01282,-0.00336,-0.02289
10.7405,-0.00443,-0.04059,-0.03357,-0.0058,-0.02975,-0.04807,-0.01419,0.01022,-0.02304,-0.02991,0.00198,0.02426,-0.03006,-0.01099,-0.02731,-0.02045
10.741,-0.00488,-0.04227,-0.03128,-0.00595,-0.0296,-0.0502,-0.01343,0.0148,-0.02838,-0.03098,0.00275,0.0235,-0.02991,-0.0116,-0.0325,-0.02411
10.7415,-0.00427,-0.04333,-0.02869,-0.00732,-0.02991,-0.05081,-0.01236,0.01511,-0.03204,-0.03555,-0.00458,0.01984,-0.03082,-0.01297,-0.0148,-0.03326
10.742,-0.00336,-0.04303,-0.02716,-0.0087,-0.02975,-0.05051,-0.01007,0.01343,-0.03342,-0.03967,-0.02213,0.00763,-0.03082,-0.0145,0.00809,-0.04242
10.7425,-0.00412,-0.04288,-0.02808,-0.00839,-0.02899,-0.04974,-0.00946,0.01389,-0.03174,-0.03677,-0.03677,-0.01282,-0.03067,-0.01572,0.02121,-0.04715
10.743,-0.00488,-0.04166,-0.02991,-0.00443,-0.02884,-0.04898,-0.00946,0.01755,-0.02747,-0.0267,-0.03876,-0.03952,-0.0296,-0.01633,0.02487,-0.04578
10.7435,-0.00473,-0.04059,-0.03204,0.0,-0.02914,-0.04776,-0.01099,0.01846,-0.01968,-0.01694,-0.03326,-0.06058,-0.03052,-0.01709,0.02731,-0.04364
10.744,-0.00504,-0.04105,-0.03296,-0.00046,-0.02884,-0.04608,-0.01343,0.01236,-0.01251,-0.01038,-0.02502,-0.05249,-0.03189,-0.01587,0.03357,-0.04379
10.7445,-0.00565,-0.04227,-0.03342,-0.01205,-0.02823,-0.04623,-0.0148,0.00534,-0.00839,-0.00641,-0.01053,0.00458,-0.03189,-0.01358,0.04013,-0.04562
10.745,-0.00595,-0.04303,-0.03342,-0.02884,-0.02792,-0.04807,-0.01389,0.00381,-0.00732,-0.00305,0.0058,0.08621,-0.03113,-0.0119,0.04166,-0.04562
10.7455,-0.00641,-0.04227,-0.03525,-0.03632,-0.02991,-0.047,-0.01358,0.00702,-0.00687,-0.00229,0.01358,0.13168,-0.03067,-0.0116,0.03433,-0.04257
10.746,-0.00687,-0.04242,-0.03616,-0.02701,-0.03159,-0.04593,-0.01328,0.00763,-0.00732,-0.00336,0.01083,0.10269,-0.03235,-0.01312,0.02167,-0.0386
10.7465,-0.00748,-0.04318,-0.03525,-0.00763,-0.03159,-0.04623,-0.0148,0.00412,-0.01129,-0.00504,0.00336,0.03036,-0.03464,-0.01511,0.01282,-0.03677
10.747,-0.00717,-0.0444,-0.03265,0.00488,-0.02975,-0.04562,-0.0145,0.00092,-0.01923,-0.00641,-0.00137,-0.02472,-0.03571,-0.01724,0.0119,-0.03799
10.7475,-0.0058,-0.04379,-0.0325,0.0058,-0.0293,-0.04501,-0.01343,0.00046,-0.02991,-0.01038,-0.00015,-0.03586,-0.03616,-0.01923,0.01526,-0.03998
10.748,-0.00549,-0.04181,-0.03372,0.00168,-0.03159,-0.04562,-0.01221,0.00183,-0.0386,-0.01862,0.00076,-0.01862,-0.03647,-0.0209,0.01678,-0.04074
10.7485,-0.00717,-0.04044,-0.03525,0.0,-0.0325,-0.04715,-0.01175,0.0032,-0.04166,-0.02792,-0.0032,0.00198,-0.03571,-0.02167,0.01419,-0.03998
10.749,-0.00885,-0.0415,-0.0354,-0.00015,-0.03235,-0.04807,-0.01266,0.0032,-0.03754,-0.03403,-0.00351,0.01785,-0.03586,-0.02274,0.01495,-0.03769
10.7495,-0.00809,-0.04211,-0.0354,-0.00244,-0.03052,-0.04929,-0.01343,0.00412,-0.03418,-0.03769,0.01404,0.02808,-0.03586,-0.0235,0.01846,-0.03464
10.75,-0.00626,-0.04227,-0.0351,-0.00534,-0.02869,-0.04868,-0.01236,0.00519,-0.03494,-0.04288,0.04532,0.01831,-0.03662,-0.02335,0.02045,-0.03342
10.7505,-0.00565,-0.04196,-0.03647,-0.01129,-0.02792,-0.0473,-0.01068,0.00565,-0.03769,-0.05188,0.06912,-0.01892,-0.03677,-0.02197,0.01663,-0.03586
10.751,-0.00656,-0.04181,-0.03754,-0.0206,-0.0293,-0.04608,-0.00992,0.00549,-0.0383,-0.05875,0.06821,-0.06454,-0.0351,-0.02014,0.00961,-0.03815
10.7515,-0.00702,-0.04333,-0.03708,-0.03189,-0.03006,-0.04532,-0.01038,0.00458,-0.03525,-0.05981,0.05081,-0.09552,-0.0325,-0.01572,0.00473,-0.03906
10.752,-0.0061,-0.04318,-0.03586,-0.03967,-0.02991,-0.047,-0.01236,0.00443,-0.03052,-0.05417,0.03464,-0.11948,-0.03113,-0.01053,0.00214,-0.03876
10.7525,-0.00534,-0.04242,-0.03448,-0.04013,-0.0296,-0.0473,-0.01297,0.00305,-0.02518,-0.04913,0.02274,-0.16327,-0.03021,-0.00732,0.00031,-0.03708
10.753,-0.00565,-0.04166,-0.03403,-0.03601,-0.0296,-0.0473,-0.01144,0.00214,-0.0209,-0.04547,0.00595,-0.23102,-0.03036,-0.01007,0.00015,-0.03632
10.7535,-0.00595,-0.04074,-0.03479,-0.03387,-0.02945,-0.04715,-0.01022,0.00336,-0.0174,-0.03922,-0.01663,-0.30045,-0.03159,-0.01587,-0.00015,-0.03616
10.754,-0.00717,-0.0412,-0.03479,-0.03754,-0.03082,-0.04761,-0.01144,0.00427,-0.01572,-0.02914,-0.03754,-0.35645,-0.03372,-0.01968,0.00046,-0.03479
10.7545,-0.00839,-0.04105,-0.03479,-0.04211,-0.03143,-0.04715,-0.0119,0.0032,-0.01099,-0.01678,-0.05234,-0.39551,-0.0351,-0.02014,0.00092,-0.03464
10.755,-0.00809,-0.0415,-0.03494,-0.04028,-0.03067,-0.047,-0.01343,0.00061,-0.00198,-0.00885,-0.06622,-0.39124,-0.03586,-0.01923,0.00183,-0.0351
10.7555,-0.00748,-0.0412,-0.03387,-0.02304,-0.03036,-0.04562,-0.01434,-0.00107,0.00793,-0.00717,-0.0795,-0.2771,-0.03708,-0.0206,0.00122,-0.03601
10.756,-0.00687,-0.04105,-0.03387,0.0116,-0.02777,-0.04501,-0.01556,-0.00107,0.0119,-0.01038,-0.08575,-0.01099,-0.03876,-0.02319,0.00076,-0.03754
10.7565,-0.00809,-0.04074,-0.0325,0.05417,-0.03143,-0.04501,-0.01617,-0.00061,0.01205,-0.01556,-0.08057,0.3273,-0.04028,-0.02533,-0.00061,-0.03754
10.757,-0.00961,-0.03998,-0.03174,0.08011,-0.03281,-0.04547,-0.01617,-0.00137,0.01572,-0.01862,-0.07172,0.53345,-0.03967,-0.0238,-0.00107,-0.03815
10.7575,-0.00961,-0.03998,-0.03189,0.07416,-0.03387,-0.04547,-0.01328,-0.00198,0.02396,-0.01831,-0.06195,0.46951,-0.03799,-0.01953,-0.0029,-0.04059
10.758,-0.00824,-0.03922,-0.03372,0.04333,-0.03159,-0.0444,-0.01175,-0.00168,0.0293,-0.01511,-0.05005,0.2179,-0.03647,-0.01556,-0.00458,-0.04318
10.7585,-0.00626,-0.0383,-0.0351,0.01205,-0.02884,-0.04456,-0.01266,-0.00168,0.02457,-0.01221,-0.0386,-0.0116,-0.03616,-0.01434,-0.00641,-0.04349
10.759,-0.00565,-0.0383,-0.03479,-0.00549,-0.02899,-0.04486,-0.01404,-0.00198,0.01221,-0.0087,-0.03067,-0.10956,-0.03571,-0.01556,-0.00565,-0.04272
10.7595,-0.00519,-0.04028,-0.03281,-0.01251,-0.02701,-0.04501,-0.01312,-0.00275,0.00168,-0.00275,-0.02655,-0.12314,-0.03464,-0.0177,-0.00427,-0.04349
10.76,-0.00443,-0.04318,-0.03159,-0.01709,-0.02777,-0.0444,-0.01221,-0.00275,-0.00198,0.00229,-0.02884,-0.11642,-0.03357,-0.01846,-0.00458,-0.04303
10.7605,-0.00351,-0.04532,-0.03113,-0.02304,-0.02762,-0.04318,-0.01007,-0.00229,-0.00031,0.00183,-0.03403,-0.08331,-0.03235,-0.01816,-0.00534,-0.04013
10.761,-0.00168,-0.04517,-0.0322,-0.02792,-0.02823,-0.04257,-0.00946,-0.00229,0.00244,-0.00519,-0.03082,-0.00153,-0.0322,-0.01923,-0.00397,-0.03586
10.7615,-0.00122,-0.04379,-0.03235,-0.02914,-0.02594,-0.04181,-0.01038,-0.0029,0.0029,-0.01236,-0.02121,0.09125,-0.03357,-0.02136,0.00031,-0.03281
10.762,-0.00107,-0.04242,-0.03235,-0.02579,-0.02686,-0.04272,-0.00961,-0.00427,-0.00107,-0.01587,-0.01556,0.13306,-0.03418,-0.02274,0.00214,-0.03403
10.7625,-0.00031,-0.0412,-0.03235,-0.02106,-0.02731,-0.04517,-0.009,-0.00534,-0.00885,-0.01495,-0.01816,0.10849,-0.03448,-0.02228,-0.00031,-0.03738
10.763,0.0,-0.04028,-0.03281,-0.01846,-0.02686,-0.04715,-0.00885,-0.00458,-0.01678,-0.01297,-0.02396,0.05249,-0.03464,-0.01999,-0.00183,-0.03967
10.7635,-0.00031,-0.03998,-0.03479,-0.01831,-0.02625,-0.04669,-0.00931,-0.00473,-0.02258,-0.01129,-0.02625,0.00122,-0.03525,-0.01831,-0.00061,-0.03845
10.764,-0.00122,-0.03967,-0.03479,-0.0177,-0.02686,-0.04517,-0.01022,-0.00809,-0.02762,-0.00717,-0.0209,-0.02808,-0.03601,-0.01968,0.00275,-0.03693
10.7645,-0.00183,-0.04044,-0.03586,-0.01541,-0.02731,-0.0441,-0.01129,-0.01175,-0.02914,-0.00336,-0.00961,-0.03235,-0.03784,-0.02258,0.00412,-0.0351
10.765,-0.00015,-0.04074,-0.03693,-0.01266,-0.02747,-0.04333,-0.01038,-0.01144,-0.02518,-0.00153,-0.00336,-0.02197,-0.03967,-0.02365,0.00519,-0.03403
10.7655,0.00183,-0.0415,-0.03693,-0.01083,-0.02747,-0.04379,-0.01022,-0.00854,-0.01755,-0.00275,-0.00534,-0.00549,-0.03998,-0.02319,0.0061,-0.03372
10.766,0.00275,-0.04028,-0.03632,-0.01099,-0.02777,-0.0441,-0.00977,-0.00824,-0.01236,-0.00534,-0.00793,0.02136,-0.03876,-0.02213,0.00656,-0.0351
10.7665,0.00198,-0.03906,-0.03586,-0.01129,-0.02991,-0.04547,-0.00946,-0.00977,-0.01297,-0.00702,-0.00565,0.06531,-0.0383,-0.02167,0.00565,-0.03876
10.767,0.00122,-0.0386,-0.03464,-0.01129,-0.03052,-0.04532,-0.00885,-0.01099,-0.0177,-0.00931,-0.00031,0.10132,-0.03891,-0.02106,0.00351,-0.04181
10.7675,0.00076,-0.03937,-0.03372,-0.00961,-0.03036,-0.04562,-0.00824,-0.00931,-0.02029,-0.01038,0.00443,0.09247,-0.03937,-0.01953,0.00336,-0.04288
10.768,0.00122,-0.03967,-0.03296,-0.00732,-0.03128,-0.04593,-0.009,-0.00732,-0.01816,-0.01175,0.00443,0.03937,-0.03845,-0.01892,0.00473,-0.04318
10.7685,-0.00015,-0.04013,-0.03387,-0.00381,-0.03387,-0.04395,-0.00916,-0.00671,-0.01251,-0.01312,-0.0029,-0.0177,-0.03891,-0.01953,0.00504,-0.04333
10.769,-0.00076,-0.04028,-0.0351,0.00046,-0.03326,-0.04364,-0.00839,-0.00671,-0.00687,-0.00961,-0.01602,-0.05096,-0.03845,-0.01953,0.00534,-0.04272
10.7695,-0.00122,-0.04013,-0.03571,0.00565,-0.03296,-0.04395,-0.00793,-0.00519,-0.00412,-0.00183,-0.01999,-0.05585,-0.03693,-0.01923,0.00626,-0.0412
10.77,-0.00168,-0.03983,-0.03632,0.0087,-0.03342,-0.04471,-0.00854,-0.00275,-0.00534,0.01038,-0.0029,-0.01816,-0.03464,-0.01923,0.00824,-0.03998
10.7705,-0.00198,-0.03906,-0.03723,0.00534,-0.03204,-0.04364,-0.00916,-0.00275,-0.00793,0.02151,0.02533,0.07263,-0.03342,-0.01801,0.00946,-0.03998
10.771,-0.0029,-0.03937,-0.03632,0.00031,-0.03052,-0.04318,-0.01022,-0.00397,-0.00977,0.02853,0.05524,0.16495,-0.03357,-0.01617,0.009,-0.04105
10.7715,-0.00381,-0.03967,-0.03403,-0.00305,-0.03174,-0.04349,-0.0119,-0.00549,-0.01175,0.02716,0.08514,0.16663,-0.03342,-0.01404,0.00793,-0.04257
10.772,-0.00549,-0.03906,-0.03296,-0.00412,-0.03113,-0.04471,-0.01465,-0.00641,-0.01495,0.01907,0.11612,0.06439,-0.03418,-0.01236,0.00534,-0.04395
10.7725,-0.00595,-0.03815,-0.0351,-0.009,-0.03021,-0.04593,-0.01633,-0.00702,-0.01892,0.00671,0.13916,-0.04593,-0.03433,-0.01312,0.00366,-0.04532
10.773,-0.0061,-0.03815,-0.03601,-0.01968,-0.02914,-0.04715,-0.01617,-0.00687,-0.02151,-0.00809,0.13855,-0.0795,-0.0351,-0.01755,0.00473,-0.04715
10.7735,-0.00565,-0.03952,-0.03372,-0.0322,-0.0293,-0.04761,-0.01587,-0.00687,-0.02472,-0.02457,0.10727,-0.05005,-0.03632,-0.02258,0.00687,-0.04852
10.774,-0.00488,-0.03967,-0.03098,-0.04074,-0.03052,-0.04929,-0.01663,-0.0061,-0.03006,-0.04288,0.06348,-0.01129,-0.0386,-0.02335,0.01022,-0.04868
10.7745,-0.00488,-0.03922,-0.03143,-0.03983,-0.03128,-0.0502,-0.01678,-0.00595,-0.0383,-0.06134,0.03159,0.00793,-0.04135,-0.02258,0.01205,-0.04547
10.775,-0.00504,-0.03906,-0.03265,-0.03372,-0.03204,-0.04868,-0.01678,-0.00519,-0.0473,-0.07889,0.01083,0.00549,-0.04288,-0.02197,0.01175,-0.0415
10.7755,-0.00534,-0.04013,-0.03479,-0.02777,-0.0322,-0.04852,-0.01511,-0.00519,-0.05035,-0.09186,-0.02655,-0.00214,-0.0412,-0.02151,0.0119,-0.03876
10.776,-0.00458,-0.0412,-0.03418,-0.03052,-0.03128,-0.04761,-0.0119,-0.00336,-0.04761,-0.09598,-0.08301,0.01465,-0.03738,-0.02014,0.01328,-0.03738
10.7765,-0.00381,-0.04181,-0.03265,-0.04059,-0.03082,-0.0473,-0.00809,0.00061,-0.04395,-0.08804,-0.12482,0.06104,-0.03433,-0.02014,0.01556,-0.03616
10.777,-0.00336,-0.04257,-0.03235,-0.05188,-0.03464,-0.047,-0.0061,0.00336,-0.04486,-0.07263,-0.11948,0.09491,-0.03372,-0.02075,0.01801,-0.03632
10.7775,-0.00351,-0.04303,-0.03387,-0.06653,-0.03738,-0.04639,-0.00671,0.00198,-0.04639,-0.05508,-0.08286,0.07385,-0.03296,-0.02045,0.0148,-0.03769
10.778,-0.00366,-0.04272,-0.03448,-0.08652,-0.03647,-0.04547,-0.00854,-0.00183,-0.0412,-0.04105,-0.05432,-0.00351,-0.03235,-0.01999,0.01221,-0.04013
10.7785,-0.0032,-0.04211,-0.03357,-0.10117,-0.03418,-0.04562,-0.00885,-0.00412,-0.02975,-0.03571,-0.05417,-0.11185,-0.03067,-0.01907,0.01083,-0.04288
10.779,-0.00336,-0.04288,-0.0322,-0.08881,-0.03387,-0.04623,-0.00839,-0.00397,-0.01984,-0.03647,-0.06851,-0.21362,-0.02899,-0.01877,0.01099,-0.04456
10.7795,-0.00443,-0.04272,-0.03113,-0.03922,-0.0354,-0.04593,-0.00854,-0.0029,-0.01526,-0.03571,-0.08347,-0.26871,-0.02747,-0.01862,0.01221,-0.04425
10.78,-0.00534,-0.0412,-0.03098,0.01938,-0.03632,-0.04379,-0.00854,-0.00198,-0.0148,-0.02548,-0.09109,-0.25391,-0.02838,-0.01694,0.01266,-0.04303
10.7805,-0.00519,-0.03891,-0.03265,0.03906,-0.03357,-0.04227,-0.00916,-0.00122,-0.01404,-0.00778,-0.09369,-0.18692,-0.02899,-0.01511,0.01297,-0.04166
10.781,-0.00473,-0.03876,-0.03601,0.0087,-0.03342,-0.04364,-0.00885,-0.00107,-0.01205,0.00961,-0.09415,-0.09384,-0.02747,-0.01266,0.01373,-0.04196
10.7815,-0.00412,-0.03967,-0.03876,-0.0238,-0.03342,-0.04532,-0.009,-0.00259,-0.00977,0.01785,-0.10025,0.02167,-0.02579,-0.01266,0.0145,-0.04211
10.782,-0.00381,-0.04166,-0.03967,-0.01221,-0.03418,-0.04578,-0.00916,-0.00534,-0.01068,0.01556,-0.10956,0.16068,-0.0264,-0.01495,0.01358,-0.04166
10.7825,-0.00336,-0.0415,-0.0386,0.02335,-0.03571,-0.04395,-0.0087,-0.00717,-0.01358,0.00732,-0.10864,0.30106,-0.0293,-0.01938,0.01144,-0.04227
10.783,-0.00366,-0.03937,-0.03693,0.02808,-0.03403,-0.04211,-0.00916,-0.00778,-0.01709,-0.00153,-0.09003,0.39764,-0.03204,-0.02319,0.00854,-0.04272
10.7835,-0.00351,-0.03937,-0.03601,-0.00092,-0.03372,-0.04318,-0.0087,-0.0061,-0.01938,-0.009,-0.06699,0.40192,-0.0322,-0.02304,0.00702,-0.04379
10.784,-0.00351,-0.0412,-0.03632,-0.01434,-0.03143,-0.0441,-0.00946,-0.00458,-0.01801,-0.01251,-0.05234,0.29724,-0.03189,-0.02167,0.00732,-0.04349
10.7845,-0.00336,-0.04211,-0.03693,0.01022,-0.03143,-0.04486,-0.01099,-0.0058,-0.01404,-0.01205,-0.03815,0.12741,-0.03067,-0.02029,0.00763,-0.04333
10.785,-0.0032,-0.04044,-0.03601,0.0354,-0.03113,-0.04532,-0.01251,-0.00977,-0.00732,-0.01144,-0.01495,-0.0264,-0.03082,-0.01999,0.00732,-0.04333
10.7855,-0.0032,-0.03845,-0.03525,0.02701,-0.03098,-0.04593,-0.01282,-0.01511,0.00046,-0.01083,0.00473,-0.10849,-0.02975,-0.02014,0.00793,-0.04227
10.786,-0.00427,-0.03784,-0.03448,-0.00214,-0.03052,-0.04501,-0.01114,-0.01678,0.00717,-0.01266,0.00793,-0.12192,-0.02869,-0.02045,0.00885,-0.04105
10.7865,-0.00549,-0.03891,-0.03433,-0.00763,-0.03006,-0.04562,-0.00946,-0.01694,0.01022,-0.01602,0.00015,-0.10452,-0.02823,-0.01877,0.00824,-0.04059
10.787,-0.00519,-0.03998,-0.03448,0.03555,-0.03143,-0.047,-0.00916,-0.01511,0.00885,-0.0209,-0.00687,-0.08453,-0.02975,-0.01785,0.00778,-0.04105
10.7875,-0.00458,-0.03906,-0.03433,0.1004,-0.03098,-0.04715,-0.0116,-0.01556,0.00168,-0.0264,-0.00626,-0.06058,-0.03128,-0.01785,0.00702,-0.04349
10.788,-0.00534,-0.03738,-0.03387,0.13275,-0.02899,-0.047,-0.01633,-0.01877,-0.00748,-0.03006,-0.00198,-0.00549,-0.03281,-0.02014,0.00656,-0.04562
10.7885,-0.00656,-0.03586,-0.03326,0.11017,-0.02991,-0.04608,-0.01984,-0.0177,-0.01328,-0.02991,-0.00366,0.10406,-0.03265,-0.02167,0.0058,-0.04669
10.789,-0.00671,-0.03723,-0.03372,0.05463,-0.02792,-0.04639,-0.01999,-0.00549,-0.01083,-0.02792,-0.00931,0.23392,-0.03296,-0.02121,0.00534,-0.04623
10.7895,-0.00595,-0.03952,-0.03464,0.00153,-0.02884,-0.0473,-0.02014,0.0116,-0.00275,-0.02258,-0.00748,0.28687,-0.03235,-0.01907,0.00717,-0.04395
10.79,-0.00534,-0.04044,-0.0351,-0.02914,-0.02747,-0.04791,-0.0209,0.02014,0.00305,-0.0116,0.00519,0.19638,-0.03174,-0.01816,0.01007,-0.04013
10.7905,-0.00443,-0.04028,-0.03342,-0.03418,-0.03006,-0.0473,-0.02121,0.01373,0.00259,-0.00061,0.01755,0.00671,-0.03036,-0.01968,0.01328,-0.03616
10.791,-0.00397,-0.04059,-0.03235,-0.02472,-0.02823,-0.04608,-0.0177,0.00076,-0.00275,0.00687,0.01724,-0.17914,-0.03052,-0.02045,0.01373,-0.03342
10.7915,-0.00549,-0.04227,-0.03204,-0.01602,-0.02884,-0.04517,-0.01419,-0.00488,-0.00671,0.00656,0.00946,-0.29907,-0.03082,-0.02289,0.01373,-0.0322
10.792,-0.00656,-0.04333,-0.03357,-0.01389,-0.03174,-0.04578,-0.009,-0.00198,-0.00504,0.00015,0.00793,-0.34515,-0.03067,-0.02335,0.01434,-0.03281
10.7925,-0.00626,-0.04395,-0.03464,-0.01175,-0.03143,-0.04547,-0.00427,0.00305,-0.00015,-0.0058,0.01984,-0.33569,-0.03052,-0.02121,0.01404,-0.03418
10.793,-0.00595,-0.04364,-0.03403,-0.0029,-0.03387,-0.04532,-0.00122,0.00443,0.00626,-0.00763,0.03448,-0.28717,-0.03036,-0.01648,0.01328,-0.03815
10.7935,-0.00656,-0.04318,-0.03387,0.00931,-0.03189,-0.04456,-0.00244,0.00153,0.01053,-0.00458,0.03784,-0.20203,-0.02945,-0.0145,0.01297,-0.04257
10.794,-0.00778,-0.04272,-0.03448,0.01465,-0.03281,-0.04425,-0.00626,-0.00031,0.00793,-0.00259,0.02319,-0.06561,-0.02945,-0.01541,0.01129,-0.04578
10.7945,-0.00824,-0.04227,-0.03525,0.00824,-0.03189,-0.0444,-0.00946,0.00183,0.00046,-0.00854,-0.00275,0.13138,-0.03052,-0.0174,0.00946,-0.04913
10.795,-0.00824,-0.04211,-0.03479,-0.00473,-0.02869,-0.04486,-0.01221,0.00687,-0.00885,-0.03159,-0.02441,0.34149,-0.03174,-0.01831,0.00778,-0.05142
10.7955,-0.0087,-0.04227,-0.0351,-0.01556,-0.03067,-0.04639,-0.0148,0.01129,-0.0177,-0.05875,-0.03372,0.4538,-0.0325,-0.02014,0.00595,-0.05325
10.796,-0.00839,-0.04303,-0.03586,-0.02136,-0.02853,-0.04623,-0.01633,0.01175,-0.02945,-0.0708,-0.03159,0.39673,-0.0325,-0.02228,0.00473,-0.05493
10.7965,-0.00748,-0.04272,-0.03632,-0.01877,-0.02884,-0.04501,-0.01694,0.00732,-0.04654,-0.0621,-0.02533,0.23315,-0.03403,-0.02548,0.0029,-0.05539
10.797,-0.0061,-0.04272,-0.03479,-0.01068,-0.02945,-0.0444,-0.01678,0.00046,-0.065,-0.04288,-0.01587,0.09308,-0.03693,-0.02625,0.00336,-0.05325
10.7975,-0.00534,-0.04181,-0.03296,-0.00824,-0.03128,-0.04395,-0.01617,-0.00488,-0.08041,-0.02731,-0.0029,0.02975,-0.03799,-0.02625,0.00504,-0.0499
10.798,-0.00504,-0.0415,-0.03235,-0.01846,-0.03067,-0.04272,-0.01511,-0.00549,-0.08545,-0.0148,0.01831,0.00214,-0.03693,-0.02426,0.00809,-0.04822
10.7985,-0.00687,-0.04074,-0.03281,-0.03082,-0.03006,-0.04272,-0.01389,-0.00412,-0.07813,-0.00275,0.04456,-0.02823,-0.03311,-0.02075,0.01022,-0.04852
10.799,-0.00778,-0.03937,-0.03464,-0.03113,-0.02899,-0.04364,-0.0145,-0.00336,-0.06104,0.00641,0.06454,-0.056,-0.02884,-0.01801,0.01068,-0.04959
10.7995,-0.00732,-0.03876,-0.03586,-0.0177,-0.02975,-0.04578,-0.01648,-0.00305,-0.03906,0.01129,0.07294,-0.06302,-0.02625,-0.01556,0.0119,-0.04837
10.8,-0.00595,-0.03693,-0.03555,-0.00824,-0.0296,-0.04593,-0.0177,-0.00229,-0.01648,0.01205,0.07156,-0.05737,-0.02487,-0.01373,0.01297,-0.04684
10.8005,-0.00534,-0.03647,-0.03494,-0.01694,-0.02716,-0.04547,-0.01724,-0.00214,0.00473,0.01328,0.06516,-0.05585,-0.02502,-0.01404,0.01282,-0.047
10.801,-0.00488,-0.03723,-0.03433,-0.04028,-0.02686,-0.0444,-0.01724,-0.00427,0.02274,0.01312,0.06073,-0.05768,-0.02579,-0.01663,0.01129,-0.04929
10.8015,-0.00504,-0.03754,-0.03342,-0.06775,-0.02579,-0.0444,-0.01953,-0.00488,0.03418,0.00992,0.06546,-0.04776,-0.02579,-0.01862,0.01022,-0.05127
10.802,-0.00412,-0.03876,-0.03403,-0.09293,-0.02823,-0.0441,-0.02029,-0.00366,0.03601,0.00656,0.07294,-0.0206,-0.02609,-0.0177,0.0087,-0.05112
10.8025,-0.00412,-0.03967,-0.03464,-0.11337,-0.02838,-0.04486,-0.01984,-0.00336,0.02975,0.00992,0.06989,0.00687,-0.02686,-0.0174,0.0087,-0.04913
10.803,-0.00534,-0.03952,-0.03571,-0.12573,-0.02914,-0.04562,-0.01816,-0.00244,0.0174,0.0238,0.05035,0.0177,-0.02869,-0.01938,0.00824,-0.04822
10.8035,-0.00565,-0.03967,-0.03586,-0.12207,-0.02609,-0.04608,-0.01495,-0.00153,0.00458,0.03586,0.02319,0.01175,-0.0296,-0.02121,0.00717,-0.04837
10.804,-0.00595,-0.04013,-0.03464,-0.1001,-0.02243,-0.04639,-0.01205,0.0,-0.00702,0.02853,-0.00412,-0.00992,-0.03082,-0.02106,0.00778,-0.0473
10.8045,-0.00381,-0.03952,-0.03387,-0.07172,-0.02533,-0.04623,-0.01266,0.00076,-0.01541,0.00153,-0.0293,-0.04608,-0.03006,-0.01892,0.00717,-0.04868
10.805,-0.00366,-0.03876,-0.0325,-0.05081,-0.0209,-0.04517,-0.01373,-0.00092,-0.02411,-0.02975,-0.04623,-0.07065,-0.02991,-0.01755,0.00687,-0.04974
10.8055,-0.00549,-0.03845,-0.03464,-0.03677,-0.02884,-0.04562,-0.01343,-0.00366,-0.03326,-0.04852,-0.04944,-0.06302,-0.03006,-0.01678,0.00641,-0.05035
10.806,-0.00717,-0.03876,-0.03494,-0.00977,-0.02884,-0.04593,-0.01373,-0.00488,-0.03983,-0.05478,-0.04135,-0.04425,-0.02884,-0.01556,0.00687,-0.04944
10.8065,-0.00671,-0.03998,-0.03555,0.03937,-0.02899,-0.04623,-0.01343,-0.00443,-0.04425,-0.05219,-0.02426,-0.05569,-0.02792,-0.01434,0.009,-0.04608
10.807,-0.00443,-0.04044,-0.03723,0.09293,-0.03006,-0.04654,-0.01404,-0.00473,-0.0473,-0.05157,0.00107,-0.10544,-0.02731,-0.01343,0.01221,-0.04288
10.8075,-0.00229,-0.04089,-0.03647,0.11581,-0.02838,-0.047,-0.01434,-0.00595,-0.04669,-0.05249,0.0293,-0.16693,-0.02762,-0.01282,0.01526,-0.03983
10.808,-0.00168,-0.0412,-0.03372,0.09888,-0.02731,-0.04776,-0.01358,-0.00717,-0.04135,-0.05188,0.0473,-0.21255,-0.02762,-0.01343,0.01724,-0.0386
10.8085,-0.0032,-0.04089,-0.03296,0.07141,-0.02731,-0.04761,-0.01373,-0.00793,-0.03265,-0.05096,0.04623,-0.23239,-0.02838,-0.01617,0.0177,-0.03922
10.809,-0.00534,-0.04044,-0.03296,0.05402,-0.02884,-0.04715,-0.01419,-0.00626,-0.02472,-0.05035,0.03342,-0.23651,-0.02747,-0.01999,0.0145,-0.04211
10.8095,-0.00595,-0.04044,-0.03433,0.03448,-0.02914,-0.04639,-0.01358,-0.00366,-0.01846,-0.05081,0.02075,-0.22827,-0.02777,-0.02014,0.01114,-0.04639
10.81,-0.00549,-0.04074,-0.03601,-0.00519,-0.02853,-0.04639,-0.01205,-0.00168,-0.01495,-0.05051,0.02014,-0.16647,-0.02777,-0.0174,0.00885,-0.04959
10.8105,-0.00397,-0.0415,-0.03647,-0.04639,-0.02899,-0.04822,-0.0116,-0.00061,-0.01221,-0.04669,0.02579,-0.02411,-0.02808,-0.01526,0.00763,-0.04974
10.811,-0.00305,-0.04105,-0.03647,-0.04913,-0.0296,-0.04898,-0.01053,0.00183,-0.00916,-0.03952,0.02777,0.12878,-0.02838,-0.01434,0.00839,-0.04898
10.8115,-0.00305,-0.0412,-0.0351,-0.00351,-0.03082,-0.05005,-0.01022,0.00519,-0.00381,-0.03235,0.02121,0.1767,-0.02869,-0.01556,0.0087,-0.04883
10.812,-0.00366,-0.04257,-0.03448,0.04868,-0.03036,-0.05188,-0.01053,0.00717,0.00092,-0.02563,0.01389,0.12375,-0.02914,-0.01526,0.0087,-0.04913
10.8125,-0.00412,-0.04395,-0.03418,0.05188,-0.03113,-0.05295,-0.01114,0.00748,0.0032,-0.02365,0.00824,0.08926,-0.03036,-0.01328,0.00809,-0.04898
10.813,-0.00397,-0.04471,-0.03479,-0.00534,-0.03372,-0.05219,-0.01205,0.00534,0.00305,-0.01755,0.00305,0.14328,-0.03082,-0.01373,0.00793,-0.04669
10.8135,-0.00427,-0.04379,-0.03784,-0.07614,-0.03464,-0.04974,-0.01236,0.00214,0.00137,-0.00443,-0.00092,0.22339,-0.03036,-0.01556,0.00946,-0.04547
10.814,-0.00473,-0.04257,-0.0383,-0.10971,-0.03586,-0.04761,-0.01373,-0.00473,-0.00076,0.01602,-0.00229,0.23972,-0.03036,-0.01801,0.01068,-0.04486
10.8145,-0.00412,-0.04242,-0.03784,-0.1001,-0.03464,-0.04807,-0.01526,-0.01541,-0.0029,0.03326,-0.00153,0.17746,-0.03098,-0.01862,0.01236,-0.04562
10.815,-0.00275,-0.04242,-0.03693,-0.07828,-0.03235,-0.04913,-0.01526,-0.02228,-0.00656,0.03479,0.00458,0.09064,-0.03159,-0.01892,0.01343,-0.04745
10.8155,-0.00183,-0.04333,-0.0351,-0.0705,-0.03448,-0.04929,-0.01251,-0.01923,-0.01114,0.01846,0.0145,0.03326,-0.03143,-0.01984,0.01282,-0.04791
10.816,-0.00259,-0.04395,-0.03494,-0.07507,-0.03265,-0.04898,-0.00992,-0.01022,-0.01343,-0.00458,0.02045,0.00214,-0.03143,-0.01999,0.01221,-0.04776
10.8165,-0.00336,-0.04395,-0.03662,-0.07797,-0.03098,-0.0499,-0.0087,-0.00305,-0.01236,-0.01968,0.01892,-0.04089,-0.03113,-0.0209,0.01297,-0.04593
10.817,-0.00397,-0.04562,-0.0383,-0.0679,-0.03204,-0.04883,-0.00977,-0.0032,-0.00992,-0.02167,0.01266,-0.1004,-0.03143,-0.02151,0.01068,-0.04425
10.8175,-0.00351,-0.04593,-0.03876,-0.03967,-0.03128,-0.04898,-0.01251,-0.00519,-0.01068,-0.02029,0.0087,-0.13535,-0.03281,-0.02365,0.01053,-0.04272
10.818,-0.00229,-0.04517,-0.03723,0.00793,-0.02823,-0.05051,-0.0148,-0.00443,-0.01389,-0.02518,0.00687,-0.12543,-0.03235,-0.02594,0.00854,-0.04364
10.8185,-0.00259,-0.04456,-0.03601,0.06012,-0.03128,-0.05234,-0.01511,-0.0032,-0.01923,-0.03296,0.00366,-0.103,-0.03174,-0.02701,0.00717,-0.04547
10.819,-0.00351,-0.04456,-0.03464,0.09186,-0.03143,-0.05173,-0.01495,-0.00305,-0.02563,-0.04044,-0.00244,-0.09506,-0.0325,-0.02655,0.00671,-0.04807
10.8195,-0.00443,-0.04456,-0.03357,0.08575,-0.03296,-0.0502,-0.01511,-0.00458,-0.03006,-0.04379,-0.00778,-0.08926,-0.03418,-0.02441,0.00641,-0.04654
10.82,-0.00443,-0.04364,-0.03387,0.05722,-0.03143,-0.04898,-0.01526,-0.00458,-0.0296,-0.04639,-0.00961,-0.07324,-0.03387,-0.02151,0.00687,-0.04318
10.8205,-0.00412,-0.0412,-0.0322,0.04211,-0.03159,-0.04974,-0.0148,-0.00381,-0.02533,-0.05035,-0.01083,-0.0705,-0.03265,-0.0206,0.00763,-0.04105
10.821,-0.00534,-0.04044,-0.03098,0.05798,-0.03159,-0.05371,-0.01144,-0.00351,-0.01999,-0.05463,-0.01038,-0.0946,-0.03189,-0.02213,0.00809,-0.03983
10.8215,-0.0058,-0.04013,-0.03021,0.07935,-0.03296,-0.05646,-0.00824,-0.00488,-0.01541,-0.05249,-0.00702,-0.10788,-0.03159,-0.02289,0.01007,-0.03891
10.822,-0.00504,-0.03906,-0.03189,0.06699,-0.03418,-0.05829,-0.00793,-0.00671,-0.01053,-0.04288,0.00473,-0.05356,-0.03174,-0.02151,0.0119,-0.03708
10.8225,-0.00412,-0.03937,-0.03418,0.01068,-0.03265,-0.05646,-0.01068,-0.00763,-0.00549,-0.03311,0.01923,0.07019,-0.03174,-0.01846,0.01175,-0.0386
10.823,-0.00336,-0.04044,-0.0354,-0.05188,-0.03128,-0.05447,-0.01129,-0.0061,-0.00214,-0.02457,0.02686,0.18845,-0.03265,-0.01602,0.01007,-0.03952
10.8235,-0.00443,-0.0412,-0.03464,-0.07889,-0.02899,-0.0531,-0.01007,-0.00549,-0.00336,-0.0174,0.0264,0.22522,-0.03235,-0.01587,0.00763,-0.03876
10.824,-0.00519,-0.03952,-0.03448,-0.06714,-0.0293,-0.05234,-0.01022,-0.00519,-0.00549,-0.01236,0.02274,0.17441,-0.03159,-0.01633,0.00687,-0.03769
10.8245,-0.00443,-0.03754,-0.03418,-0.04303,-0.0322,-0.05096,-0.01328,-0.00473,-0.00732,-0.009,0.01511,0.05966,-0.0296,-0.01724,0.0061,-0.03815
10.825,-0.00336,-0.03815,-0.03387,-0.02884,-0.03174,-0.04852,-0.01877,-0.00443,-0.01022,-0.00687,0.00763,-0.10284,-0.03006,-0.01816,0.00458,-0.03983
10.8255,-0.00305,-0.03952,-0.03342,-0.02609,-0.03372,-0.04333,-0.02228,-0.00473,-0.01572,-0.00519,0.00122,-0.27481,-0.0325,-0.01846,0.00122,-0.04242
10.826,-0.00366,-0.0412,-0.03311,-0.02655,-0.03387,-0.0354,-0.02228,-0.00702,-0.02228,-0.00458,-0.00977,-0.38239,-0.03342,-0.01892,0.00031,-0.04456
10.8265,-0.00458,-0.04028,-0.03265,-0.02426,-0.03479,-0.02808,-0.02167,-0.00732,-0.02747,-0.00458,-0.02701,-0.38391,-0.03265,-0.01877,0.00076,-0.04623
10.827,-0.00565,-0.0386,-0.03311,-0.02396,-0.03052,-0.0267,-0.02228,-0.00641,-0.02808,-0.00473,-0.04837,-0.29633,-0.03265,-0.01846,0.00153,-0.047
10.8275,-0.0058,-0.0383,-0.03372,-0.02548,-0.03082,-0.03464,-0.02411,-0.00412,-0.02686,-0.0032,-0.07309,-0.1442,-0.03311,-0.01816,0.0029,-0.04745
10.828,-0.00565,-0.04089,-0.03357,-0.02747,-0.03204,-0.04623,-0.02151,-0.00229,-0.02365,-0.00366,-0.10178,0.05035,-0.03296,-0.01846,0.0058,-0.04578
10.8285,-0.0061,-0.0412,-0.0322,-0.02792,-0.03036,-0.05325,-0.01404,-0.00275,-0.01923,-0.00809,-0.12314,0.23544,-0.03281,-0.01892,0.00931,-0.04196
10.829,-0.00671,-0.04028,-0.03189,-0.0267,-0.03021,-0.05173,-0.009,-0.00519,-0.01587,-0.01205,-0.12527,0.34912,-0.03403,-0.01877,0.01007,-0.03937
10.8295,-0.00732,-0.03891,-0.03159,-0.02563,-0.03021,-0.04898,-0.00946,-0.00702,-0.01404,-0.01205,-0.10773,0.383,-0.03555,-0.01617,0.00824,-0.03845
10.83,-0.00656,-0.03906,-0.03281,-0.02502,-0.03235,-0.04898,-0.01282,-0.00641,-0.01282,-0.009,-0.0795,0.38269,-0.03464,-0.01328,0.00641,-0.03906
10.8305,-0.00565,-0.04028,-0.03464,-0.02563,-0.03265,-0.04929,-0.01389,-0.00381,-0.01007,-0.00793,-0.05569,0.37613,-0.03372,-0.01266,0.00687,-0.04044
10.831,-0.00443,-0.04059,-0.0351,-0.02533,-0.03433,-0.04974,-0.01007,-0.00168,-0.00534,-0.01129,-0.04669,0.34775,-0.03403,-0.0145,0.00824,-0.03922
10.8315,-0.00488,-0.04074,-0.03433,-0.02411,-0.03326,-0.04883,-0.00046,0.0,0.00244,-0.01862,-0.05005,0.28229,-0.03494,-0.01633,0.00717,-0.03769
10.832,-0.00549,-0.04028,-0.03525,-0.02014,-0.03311,-0.04761,0.00992,-0.00198,0.01053,-0.02548,-0.05615,0.20493,-0.03571,-0.0174,0.00656,-0.03708
10.8325,-0.00549,-0.04135,-0.0351,-0.01434,-0.03204,-0.04883,0.01434,-0.00397,0.01709,-0.03036,-0.05768,0.15411,-0.03555,-0.01694,0.00626,-0.03769
10.833,-0.0058,-0.04211,-0.03448,-0.00656,-0.03204,-0.04974,0.01068,-0.00412,0.0209,-0.03082,-0.05844,0.13474,-0.0351,-0.01724,0.00687,-0.04044
10.8335,-0.00534,-0.04288,-0.03281,0.00214,-0.03174,-0.04929,0.00381,-0.00366,0.02304,-0.02853,-0.05737,0.11642,-0.03464,-0.01831,0.0058,-0.04196
10.834,-0.00534,-0.04425,-0.0322,0.01114,-0.03143,-0.04776,-0.00122,-0.00381,0.02533,-0.02518,-0.05478,0.06882,-0.03448,-0.01984,0.00565,-0.0415
10.8345,-0.0058,-0.04562,-0.03296,0.01633,-0.03189,-0.04684,-0.00504,-0.00397,0.0267,-0.01999,-0.05417,-0.00168,-0.03586,-0.01968,0.00565,-0.03937
10.835,-0.00641,-0.04593,-0.03265,0.01923,-0.03082,-0.04532,-0.00931,-0.00427,0.02563,-0.01221,-0.0563,-0.07095,-0.03662,-0.01709,0.00671,-0.03754
10.8355,-0.00656,-0.04501,-0.03159,0.02396,-0.03052,-0.04456,-0.01541,-0.00534,0.02167,-0.00351,-0.06348,-0.13138,-0.03662,-0.01556,0.00824,-0.0354
10.836,-0.00687,-0.0444,-0.03159,0.03143,-0.03082,-0.0441,-0.02701,-0.0058,0.01724,0.00092,-0.0737,-0.19012,-0.03708,-0.01678,0.01007,-0.03448
10.8365,-0.00763,-0.04425,-0.03296,0.03113,-0.03235,-0.04456,-0.04578,-0.0058,0.00946,-0.00046,-0.08545,-0.23102,-0.0386,-0.02045,0.0116,-0.03571
10.837,-0.00732,-0.0444,-0.03433,0.01175,-0.03143,-0.04501,-0.06638,-0.00397,-0.00305,-0.00519,-0.09201,-0.21667,-0.04028,-0.02243,0.01221,-0.03677
