time,RectFemL,VastusMedL,VastusLatL,TibAntL,HamMedL,HamLatL,GastroMedL,GastroLatL,RectFemR,VastusMedR,VastusLatR,TibAntR,HamMedR,HamLatR,GastroMedR,GastroLatR
9.92,-0.00687,-0.04257,-0.03296,-0.00778,-0.0322,-0.05035,0.0354,0.02304,-0.009,0.05371,-0.27847,0.05966,0.01785,-0.04517,0.01236,-0.00992
9.9205,-0.0058,-0.04211,-0.03159,-0.00778,-0.03326,-0.04959,0.0444,0.01175,-0.01083,0.08133,-0.2861,0.08347,0.02762,-0.04501,0.01282,-0.009
9.921,-0.00595,-0.04349,-0.03036,-0.00793,-0.0325,-0.04776,0.04944,0.01144,-0.01038,0.06989,-0.30182,0.10315,0.01709,-0.04089,0.01328,-0.00854
9.9215,-0.00748,-0.04242,-0.03052,-0.01022,-0.03128,-0.04761,0.05066,0.00595,-0.00992,0.02319,-0.32425,0.10834,-0.00885,-0.03448,0.01266,-0.00916
9.922,-0.00748,-0.04211,-0.0296,-0.01266,-0.02853,-0.04822,0.0412,-0.00839,-0.01144,-0.02441,-0.36133,0.09338,-0.03906,-0.02365,0.01114,-0.00931
9.9225,-0.00595,-0.04196,-0.03128,-0.01266,-0.02731,-0.04807,0.02243,-0.02258,-0.01617,-0.05219,-0.40359,0.06638,-0.0676,-0.00931,0.00992,-0.009
9.923,-0.00519,-0.04166,-0.03296,-0.01083,-0.0267,-0.04761,-0.00092,-0.02655,-0.01862,-0.0621,-0.43396,0.03372,-0.09598,0.00412,0.00961,-0.00778
9.9235,-0.00595,-0.04135,-0.03464,-0.01007,-0.02716,-0.04639,-0.02213,-0.02197,-0.01724,-0.0647,-0.44388,-0.00458,-0.12512,0.01465,0.01022,-0.00595
9.924,-0.00717,-0.0412,-0.03525,-0.01251,-0.02747,-0.047,-0.03586,-0.01724,-0.01572,-0.06668,-0.44495,-0.04913,-0.14404,0.01907,0.01083,-0.00351
9.9245,-0.00732,-0.0415,-0.03418,-0.01495,-0.02792,-0.04761,-0.04044,-0.00992,-0.01648,-0.06531,-0.45151,-0.08759,-0.13687,0.01373,0.01175,-0.00122
9.925,-0.00717,-0.04196,-0.03265,-0.01511,-0.02777,-0.04807,-0.03876,0.00122,-0.01938,-0.05875,-0.46402,-0.11307,-0.10452,-0.00107,0.01251,-0.00046
9.9255,-0.00641,-0.04211,-0.03174,-0.01266,-0.02609,-0.04761,-0.0354,0.0058,-0.01999,-0.05142,-0.47028,-0.1265,-0.06592,-0.01297,0.01266,-0.00168
9.926,-0.00565,-0.04181,-0.03113,-0.00931,-0.02869,-0.04745,-0.03738,-0.00809,-0.02014,-0.04364,-0.46173,-0.12985,-0.0415,-0.0061,0.01129,-0.00366
9.9265,-0.00488,-0.04089,-0.03174,-0.00595,-0.03159,-0.04776,-0.04791,-0.03281,-0.02106,-0.03799,-0.44052,-0.11963,-0.03204,0.01633,0.00961,-0.00504
9.927,-0.00473,-0.04013,-0.03281,-0.00229,-0.03342,-0.04791,-0.06256,-0.04929,-0.02182,-0.03464,-0.41382,-0.09125,-0.03006,0.02792,0.00977,-0.00641
9.9275,-0.00473,-0.04074,-0.03403,-0.00107,-0.03357,-0.04868,-0.07111,-0.04745,-0.01999,-0.03265,-0.38483,-0.05234,-0.03006,0.00183,0.01053,-0.00565
9.928,-0.00443,-0.04181,-0.03494,-0.00229,-0.03387,-0.04929,-0.07034,-0.03235,-0.01648,-0.02823,-0.34973,-0.02197,-0.03342,-0.04669,0.01038,-0.00549
9.9285,-0.00534,-0.04196,-0.03708,-0.00595,-0.03174,-0.04929,-0.06668,-0.01343,-0.01465,-0.0264,-0.30441,-0.01297,-0.03845,-0.06989,0.00809,-0.00519
9.929,-0.00595,-0.04303,-0.03723,-0.00793,-0.03296,-0.04959,-0.06302,0.00107,-0.01572,-0.02472,-0.25192,-0.01404,-0.03922,-0.0499,0.00534,-0.00366
9.9295,-0.00549,-0.04395,-0.03586,-0.00931,-0.03433,-0.04929,-0.05905,0.00885,-0.01877,-0.02533,-0.19516,-0.00641,-0.03342,-0.0148,0.00519,-0.00259
9.93,-0.00381,-0.04318,-0.03204,-0.01083,-0.03525,-0.05005,-0.05249,0.009,-0.02121,-0.02594,-0.13901,0.01816,-0.02609,0.00122,0.00778,-0.00092
9.9305,-0.00366,-0.04181,-0.03189,-0.01266,-0.0351,-0.04837,-0.04318,0.00397,-0.02167,-0.02533,-0.09781,0.05569,-0.02274,-0.00229,0.00946,-0.00198
9.931,-0.00519,-0.04105,-0.03281,-0.01495,-0.03342,-0.047,-0.03418,-0.00107,-0.01968,-0.02029,-0.07339,0.09766,-0.02319,-0.01038,0.00977,-0.00244
9.9315,-0.0061,-0.0412,-0.03296,-0.01617,-0.03143,-0.047,-0.02731,-0.00153,-0.01801,-0.01495,-0.06348,0.13153,-0.02548,-0.01892,0.00946,-0.00336
9.932,-0.00534,-0.0412,-0.0351,-0.01587,-0.03143,-0.04761,-0.01907,0.00565,-0.0177,-0.01205,-0.06134,0.14267,-0.02716,-0.03174,0.00839,-0.00702
9.9325,-0.00305,-0.0412,-0.03418,-0.01511,-0.03128,-0.04822,-0.01221,0.01572,-0.01709,-0.01114,-0.06348,0.13535,-0.02884,-0.05112,0.00793,-0.00931
9.933,-0.0029,-0.04105,-0.03433,-0.01526,-0.03204,-0.04684,-0.01663,0.02136,-0.01587,-0.00839,-0.06439,0.11856,-0.03159,-0.08118,0.00824,-0.00916
9.9335,-0.0029,-0.04028,-0.03326,-0.0148,-0.03265,-0.04745,-0.03494,0.01923,-0.01495,-0.00488,-0.06454,0.09537,-0.03586,-0.11871,0.00839,-0.00809
9.934,-0.00397,-0.03952,-0.03479,-0.01251,-0.03357,-0.04944,-0.05386,0.01556,-0.01617,-0.00229,-0.06882,0.0618,-0.04166,-0.14603,0.00931,-0.009
9.9345,-0.00473,-0.03906,-0.03571,-0.00992,-0.03403,-0.05051,-0.05661,0.01068,-0.01862,-0.00259,-0.0795,0.01984,-0.04822,-0.14313,0.01038,-0.01068
9.935,-0.00504,-0.03952,-0.03708,-0.00763,-0.03098,-0.05051,-0.03983,0.00259,-0.01923,-0.00443,-0.09018,-0.0235,-0.05249,-0.11261,0.01053,-0.01221
9.9355,-0.00504,-0.03922,-0.03784,-0.00641,-0.03235,-0.05096,-0.01801,-0.0116,-0.0206,-0.0058,-0.09476,-0.06378,-0.05219,-0.0827,0.01083,-0.01312
9.936,-0.00458,-0.03967,-0.0383,-0.0058,-0.03098,-0.05096,-0.00076,-0.0235,-0.02411,-0.00702,-0.09094,-0.1004,-0.04684,-0.06943,0.00977,-0.01343
9.9365,-0.00397,-0.03937,-0.03799,-0.00519,-0.03189,-0.05142,0.01251,-0.0264,-0.02747,-0.00946,-0.08652,-0.13077,-0.03799,-0.06866,0.00885,-0.0148
9.937,-0.00397,-0.04074,-0.03662,-0.00473,-0.03189,-0.04883,0.02319,-0.02289,-0.03021,-0.01526,-0.08286,-0.15091,-0.02899,-0.06607,0.01007,-0.01633
9.9375,-0.00443,-0.04105,-0.0351,-0.00336,-0.03082,-0.04822,0.0293,-0.01907,-0.03082,-0.02167,-0.06973,-0.16083,-0.02441,-0.05875,0.01083,-0.01831
9.938,-0.00443,-0.04059,-0.03372,-0.00427,-0.03098,-0.04944,0.02655,-0.01633,-0.03113,-0.02487,-0.03952,-0.16022,-0.02335,-0.05219,0.01007,-0.02014
9.9385,-0.00381,-0.03937,-0.03296,-0.00671,-0.03021,-0.05157,0.01129,-0.01358,-0.03189,-0.02365,-0.00137,-0.15289,-0.02213,-0.05203,0.00885,-0.02182
9.939,-0.00397,-0.03815,-0.03265,-0.00793,-0.0325,-0.05051,-0.01846,-0.01068,-0.03128,-0.02289,0.03204,-0.14328,-0.02075,-0.05539,0.00931,-0.02289
9.9395,-0.00534,-0.03891,-0.03235,-0.00824,-0.02914,-0.04913,-0.05554,-0.00824,-0.0264,-0.0238,0.05417,-0.13641,-0.01892,-0.05844,0.00977,-0.02472
9.94,-0.00626,-0.03983,-0.03235,-0.00595,-0.02869,-0.04684,-0.07919,-0.00443,-0.01862,-0.02579,0.06973,-0.12726,-0.01617,-0.0592,0.00931,-0.02625
9.9405,-0.00549,-0.04135,-0.03174,-0.00534,-0.02853,-0.04623,-0.07172,-0.00061,-0.01251,-0.02609,0.08682,-0.1033,-0.01328,-0.05402,0.00793,-0.02853
9.941,-0.0058,-0.04135,-0.03189,-0.00626,-0.02914,-0.04532,-0.04318,0.00275,-0.00931,-0.02167,0.10941,-0.06012,-0.01007,-0.04501,0.00656,-0.03021
9.9415,-0.0061,-0.04105,-0.03342,-0.00839,-0.02945,-0.04501,-0.02121,0.00153,-0.00473,-0.01663,0.1384,-0.01587,-0.00839,-0.0322,0.0061,-0.03265
9.942,-0.00671,-0.04059,-0.03555,-0.00961,-0.02945,-0.04639,-0.01907,0.00076,0.00092,-0.01236,0.16785,0.01053,-0.009,-0.01511,0.00549,-0.03418
9.9425,-0.00687,-0.0415,-0.03555,-0.00946,-0.02823,-0.04822,-0.01907,0.00305,0.00412,-0.00946,0.19318,0.01266,-0.01083,0.00504,0.00549,-0.03464
9.943,-0.0061,-0.04211,-0.03464,-0.00778,-0.03098,-0.04837,-0.00107,0.01038,0.00153,-0.00763,0.21729,-0.00031,-0.01434,0.02457,0.00748,-0.03387
9.9435,-0.0061,-0.04074,-0.03403,-0.00534,-0.03128,-0.047,0.03555,0.01801,-0.00443,-0.00626,0.23682,-0.01099,-0.01877,0.03708,0.00946,-0.03189
9.944,-0.00565,-0.03952,-0.03387,-0.00534,-0.03235,-0.04623,0.06912,0.0235,-0.00748,-0.00656,0.24933,-0.00351,-0.02289,0.03632,0.01022,-0.03098
9.9445,-0.00565,-0.03876,-0.03418,-0.00748,-0.03342,-0.04684,0.07935,0.02502,-0.00732,-0.009,0.27054,0.02243,-0.02258,0.02426,0.01007,-0.03067
9.945,-0.00488,-0.03937,-0.03418,-0.00885,-0.03433,-0.04654,0.0647,0.02304,-0.00732,-0.01099,0.31128,0.04913,-0.02075,0.01465,0.00824,-0.02869
9.9455,-0.00305,-0.04044,-0.03418,-0.00946,-0.03387,-0.04639,0.04486,0.01648,-0.00931,-0.00992,0.35782,0.06058,-0.02075,0.01892,0.0087,-0.02762
9.946,-0.00107,-0.04044,-0.03387,-0.00992,-0.0354,-0.04654,0.03159,0.0061,-0.01251,-0.00427,0.39871,0.05508,-0.02441,0.03342,0.00961,-0.02823
9.9465,-0.00046,-0.04074,-0.03342,-0.00824,-0.03571,-0.04684,0.02579,-0.00458,-0.01633,0.00168,0.43915,0.04105,-0.03159,0.03845,0.00931,-0.03113
9.947,-0.00122,-0.04074,-0.03448,-0.00763,-0.0354,-0.04776,0.01755,-0.0145,-0.01953,0.00443,0.48309,0.02777,-0.03632,0.02472,0.00732,-0.03448
9.9475,-0.00275,-0.03998,-0.0354,-0.00809,-0.03387,-0.0473,0.00397,-0.0235,-0.02304,0.00168,0.52383,0.02258,-0.03448,0.00427,0.00473,-0.03738
9.948,-0.00473,-0.03891,-0.0351,-0.01038,-0.03342,-0.04852,-0.00717,-0.02701,-0.02289,-0.00366,0.55588,0.02686,-0.0267,-0.00854,0.00443,-0.03845
9.9485,-0.00534,-0.03952,-0.0351,-0.01251,-0.0325,-0.04883,-0.00992,-0.01724,-0.01938,-0.00504,0.58044,0.02762,-0.01892,-0.01144,0.00473,-0.03952
9.949,-0.00458,-0.04105,-0.03433,-0.01328,-0.03189,-0.04868,-0.00504,-0.00168,-0.01434,-0.00565,0.59891,0.01144,-0.01724,-0.01205,0.00549,-0.03922
9.9495,-0.00397,-0.04196,-0.03525,-0.01312,-0.03082,-0.04761,-0.00061,0.01007,-0.00916,-0.009,0.60898,-0.0264,-0.01999,-0.00809,0.00702,-0.03906
9.95,-0.0029,-0.0415,-0.03433,-0.01221,-0.02838,-0.047,-0.00168,0.01007,-0.00763,-0.01755,0.61066,-0.07126,-0.02182,0.00641,0.00702,-0.03815
9.9505,-0.00229,-0.03983,-0.03403,-0.01358,-0.02686,-0.04868,-0.00885,0.00076,-0.00916,-0.0264,0.59921,-0.10757,-0.0209,0.0235,0.00549,-0.03891
9.951,-0.0032,-0.03815,-0.03387,-0.0145,-0.02975,-0.0473,-0.01755,-0.00824,-0.01144,-0.03067,0.5722,-0.12756,-0.01999,0.02655,0.00519,-0.04044
9.9515,-0.00534,-0.03769,-0.03418,-0.01465,-0.02914,-0.04562,-0.02396,-0.0116,-0.01129,-0.02838,0.53589,-0.13809,-0.02304,0.01175,0.00565,-0.04105
9.952,-0.00717,-0.03937,-0.03387,-0.01343,-0.02808,-0.04318,-0.02563,-0.01251,-0.00992,-0.02777,0.50476,-0.14343,-0.0264,-0.00916,0.00534,-0.04074
9.9525,-0.00732,-0.0415,-0.03342,-0.01053,-0.02563,-0.04257,-0.02365,-0.01785,-0.01114,-0.02701,0.49164,-0.13901,-0.02762,-0.02045,0.00534,-0.04013
9.953,-0.00687,-0.04303,-0.03372,-0.00977,-0.02625,-0.04318,-0.02289,-0.02808,-0.01419,-0.02731,0.50003,-0.11719,-0.02655,-0.01816,0.00443,-0.04166
9.9535,-0.00671,-0.04227,-0.03311,-0.01007,-0.0293,-0.04272,-0.02487,-0.03433,-0.01755,-0.02625,0.51849,-0.07462,-0.02655,-0.01434,0.00366,-0.04379
9.954,-0.00687,-0.04211,-0.03235,-0.00977,-0.03006,-0.04379,-0.02441,-0.03067,-0.01892,-0.02686,0.53375,-0.01678,-0.02884,-0.01495,0.00381,-0.04517
9.9545,-0.00809,-0.04166,-0.03143,-0.01007,-0.02869,-0.04456,-0.01984,-0.01816,-0.02045,-0.02899,0.54108,0.03723,-0.03113,-0.0177,0.00351,-0.04471
9.955,-0.00809,-0.04333,-0.03098,-0.01099,-0.02686,-0.04578,-0.01389,-0.00656,-0.02182,-0.03189,0.54794,0.06622,-0.0322,-0.02045,0.00412,-0.0444
9.9555,-0.00778,-0.04379,-0.03113,-0.01358,-0.02655,-0.04654,-0.01114,0.00061,-0.02213,-0.03403,0.55939,0.06531,-0.03372,-0.02075,0.00473,-0.04562
9.956,-0.00687,-0.04364,-0.03159,-0.01434,-0.02838,-0.04684,-0.00977,0.00214,-0.02121,-0.03601,0.56961,0.05219,-0.03433,-0.02136,0.00473,-0.04807
9.9565,-0.00443,-0.04318,-0.03143,-0.01236,-0.03021,-0.04837,-0.00687,0.00107,-0.01892,-0.03571,0.57083,0.06104,-0.03296,-0.02274,0.00534,-0.04868
9.957,-0.00336,-0.04333,-0.03265,-0.00839,-0.0293,-0.05249,-0.00412,0.00092,-0.0148,-0.0322,0.56335,0.11185,-0.03128,-0.0235,0.00656,-0.04822
9.9575,-0.00412,-0.04303,-0.03342,-0.00671,-0.0296,-0.05447,-0.00381,0.00122,-0.00977,-0.02441,0.55252,0.18448,-0.03052,-0.02258,0.0087,-0.04578
9.958,-0.00565,-0.04349,-0.03418,-0.00778,-0.02823,-0.05508,-0.0058,0.00015,-0.00626,-0.01419,0.54489,0.22003,-0.03235,-0.02136,0.00931,-0.04547
9.9585,-0.00565,-0.04364,-0.03448,-0.01022,-0.03021,-0.05524,-0.00809,-0.00336,-0.00641,-0.00504,0.54138,0.17914,-0.03326,-0.02045,0.00885,-0.04364
9.959,-0.00443,-0.04272,-0.03555,-0.01022,-0.03265,-0.05508,-0.01099,-0.00793,-0.00748,-0.00061,0.53482,0.09354,-0.03357,-0.0206,0.00885,-0.04135
9.9595,-0.00275,-0.04105,-0.03601,-0.009,-0.03494,-0.05203,-0.01373,-0.01099,-0.00534,-0.00229,0.52567,0.02579,-0.0325,-0.01938,0.00885,-0.0386
9.96,-0.0032,-0.03952,-0.03586,-0.00763,-0.03723,-0.04791,-0.01831,-0.01099,-0.00168,-0.00778,0.51956,0.00214,-0.03311,-0.01816,0.00946,-0.03754
9.9605,-0.00412,-0.03876,-0.03403,-0.00732,-0.03845,-0.04425,-0.02548,-0.00885,0.00046,-0.01419,0.51804,-0.00366,-0.03479,-0.01816,0.00885,-0.03922
9.961,-0.00595,-0.03952,-0.03159,-0.0087,-0.03799,-0.04242,-0.03479,-0.00519,0.00092,-0.01984,0.51987,-0.02014,-0.03738,-0.01846,0.00778,-0.0412
9.9615,-0.00671,-0.0412,-0.03006,-0.00885,-0.03693,-0.04257,-0.04074,-0.00229,-0.00092,-0.02197,0.52429,-0.03845,-0.03738,-0.01938,0.00671,-0.04135
9.962,-0.00671,-0.04181,-0.03021,-0.00839,-0.03677,-0.04395,-0.04059,-0.00107,-0.00443,-0.01801,0.53375,-0.02777,-0.03723,-0.01968,0.00534,-0.04227
9.9625,-0.00549,-0.0412,-0.03235,-0.00748,-0.03662,-0.04578,-0.03296,-0.00137,-0.00916,-0.00916,0.54504,0.01663,-0.03693,-0.02075,0.00504,-0.04333
9.963,-0.00381,-0.03967,-0.03387,-0.00702,-0.03876,-0.04608,-0.02274,-0.00122,-0.01709,-0.00229,0.55328,0.05539,-0.03555,-0.02167,0.00626,-0.04547
9.9635,-0.00229,-0.04028,-0.03525,-0.00763,-0.03571,-0.04608,-0.01678,-0.00168,-0.02579,-0.00015,0.55161,0.03586,-0.03448,-0.02335,0.00748,-0.04532
9.964,-0.00168,-0.0412,-0.03494,-0.00916,-0.03418,-0.04669,-0.01419,-0.00443,-0.03357,-0.00458,0.53696,-0.05707,-0.03326,-0.02502,0.0061,-0.04517
9.9645,-0.00153,-0.04166,-0.03372,-0.01068,-0.0322,-0.04715,-0.01083,-0.00626,-0.0351,-0.0145,0.51346,-0.16251,-0.03372,-0.02625,0.00397,-0.04776
9.965,-0.00229,-0.04013,-0.03311,-0.0116,-0.03265,-0.04791,-0.00595,-0.00427,-0.03296,-0.02472,0.49332,-0.19547,-0.03555,-0.02777,0.0029,-0.05081
9.9655,-0.00305,-0.03815,-0.03357,-0.0119,-0.03113,-0.04761,-0.00214,-0.00183,-0.02914,-0.03281,0.48325,-0.13641,-0.03662,-0.0293,0.00183,-0.05386
9.966,-0.00366,-0.03799,-0.03433,-0.0116,-0.02808,-0.04761,-0.00198,-0.00092,-0.02777,-0.0383,0.47684,-0.0618,-0.03677,-0.02975,0.00137,-0.05692
9.9665,-0.00412,-0.04135,-0.03479,-0.01144,-0.02396,-0.04883,-0.00336,-0.00183,-0.02609,-0.04105,0.46768,-0.03815,-0.0351,-0.02823,0.00046,-0.05844
9.967,-0.00443,-0.04318,-0.0351,-0.01282,-0.02167,-0.04913,-0.00641,-0.00198,-0.02045,-0.04105,0.45334,-0.0383,-0.03235,-0.02502,0.00015,-0.05981
9.9675,-0.00412,-0.04303,-0.03586,-0.01373,-0.02258,-0.04959,-0.01389,0.00015,-0.01282,-0.04135,0.43228,0.00336,-0.03006,-0.0209,-0.00031,-0.05966
9.968,-0.00381,-0.04211,-0.03464,-0.01312,-0.0267,-0.04898,-0.02518,0.00183,-0.00534,-0.04166,0.40298,0.08102,-0.02777,-0.0177,0.00046,-0.05951
9.9685,-0.00351,-0.04227,-0.03357,-0.0119,-0.02975,-0.04791,-0.03448,0.00275,0.00046,-0.0415,0.37018,0.12238,-0.02655,-0.01404,0.00275,-0.05997
9.969,-0.00443,-0.04227,-0.03464,-0.01068,-0.03036,-0.04654,-0.03647,0.00168,0.00565,-0.03983,0.34836,0.08774,-0.02655,-0.01099,0.00443,-0.0592
9.9695,-0.00427,-0.04105,-0.03555,-0.01053,-0.02838,-0.04608,-0.03082,0.00137,0.00992,-0.03754,0.33829,0.02625,-0.0267,-0.00839,0.00488,-0.05692
9.97,-0.00351,-0.03983,-0.03616,-0.00916,-0.02762,-0.04486,-0.02396,-0.00015,0.01099,-0.03555,0.3186,0.0119,-0.02518,-0.00732,0.00458,-0.05417
9.9705,-0.00153,-0.03952,-0.03479,-0.00748,-0.02655,-0.04318,-0.01892,0.00198,0.00809,-0.03342,0.26474,0.07477,-0.02533,-0.00793,0.00473,-0.0531
9.971,-0.00107,-0.03983,-0.03433,-0.00732,-0.02823,-0.0415,-0.01617,0.00732,0.00336,-0.02945,0.17624,0.18845,-0.02686,-0.00992,0.00351,-0.05417
9.9715,-0.00137,-0.03891,-0.03372,-0.00885,-0.02869,-0.04196,-0.01434,0.01205,-0.00198,-0.02747,0.0856,0.28412,-0.02777,-0.01205,0.00427,-0.05478
9.972,-0.00168,-0.0383,-0.03342,-0.01022,-0.03036,-0.04379,-0.01312,0.01175,-0.009,-0.03052,0.03372,0.29678,-0.02899,-0.01328,0.00504,-0.05585
9.9725,-0.00275,-0.03799,-0.03403,-0.01068,-0.03174,-0.04425,-0.01236,0.00854,-0.01633,-0.03937,0.01968,0.22552,-0.03021,-0.01282,0.00656,-0.05646
9.973,-0.00351,-0.03937,-0.03479,-0.01038,-0.03113,-0.04349,-0.01266,0.00076,-0.01953,-0.05005,0.009,0.13229,-0.0325,-0.00748,0.0087,-0.05722
9.9735,-0.00412,-0.04074,-0.03601,-0.01053,-0.0293,-0.04227,-0.01495,-0.00992,-0.01724,-0.05615,-0.02396,0.06943,-0.03326,0.00412,0.01083,-0.05569
9.974,-0.00443,-0.04074,-0.03876,-0.01175,-0.02975,-0.04257,-0.01862,-0.0206,-0.01328,-0.05463,-0.05493,0.02777,-0.03525,0.01801,0.01129,-0.05341
9.9745,-0.00458,-0.03998,-0.04074,-0.01205,-0.03143,-0.04364,-0.02151,-0.02335,-0.01205,-0.05157,-0.04379,-0.02747,-0.03784,0.01968,0.00961,-0.05219
9.975,-0.00504,-0.03922,-0.04196,-0.0116,-0.03448,-0.04547,-0.02045,-0.0145,-0.01297,-0.05035,-0.00854,-0.10056,-0.04028,-0.00259,0.00839,-0.05295
9.9755,-0.00473,-0.03906,-0.04028,-0.01053,-0.03372,-0.04578,-0.01541,-0.00153,-0.01297,-0.04471,-0.00458,-0.16281,-0.04135,-0.03571,0.00763,-0.05493
9.976,-0.00443,-0.03952,-0.03876,-0.00977,-0.03143,-0.04486,-0.00946,0.00687,-0.01114,-0.03525,-0.05676,-0.18799,-0.03967,-0.05188,0.00809,-0.05661
9.9765,-0.00473,-0.04013,-0.03677,-0.01099,-0.02823,-0.04456,-0.00595,0.00717,-0.01114,-0.02136,-0.14542,-0.16205,-0.03723,-0.04105,0.01007,-0.05646
9.977,-0.00488,-0.03922,-0.03662,-0.01236,-0.03021,-0.04684,-0.0058,0.0032,-0.01297,-0.01053,-0.23926,-0.09445,-0.03586,-0.02197,0.01144,-0.05539
9.9775,-0.00381,-0.03799,-0.03632,-0.01282,-0.03311,-0.04822,-0.00702,0.0,-0.01358,-0.00229,-0.30823,-0.01526,-0.03708,-0.01373,0.01114,-0.05447
9.978,-0.00259,-0.03738,-0.03647,-0.01175,-0.03387,-0.04807,-0.00793,-0.00061,-0.01007,0.00412,-0.34103,0.03784,-0.03815,-0.01785,0.00931,-0.05341
9.9785,-0.0032,-0.03769,-0.03586,-0.01053,-0.03372,-0.04623,-0.00946,-0.00153,-0.00549,0.01068,-0.35583,0.0473,-0.0383,-0.02182,0.0087,-0.05249
9.979,-0.00443,-0.03967,-0.03616,-0.01022,-0.03281,-0.04578,-0.01129,-0.00259,-0.00336,0.0209,-0.37659,0.02426,-0.03784,-0.02106,0.00916,-0.05234
9.9795,-0.00534,-0.04044,-0.03525,-0.01007,-0.03128,-0.04639,-0.01266,-0.00153,-0.00305,0.04486,-0.3923,-0.01312,-0.03799,-0.01923,0.01083,-0.05157
9.98,-0.00412,-0.04013,-0.03464,-0.01007,-0.02975,-0.04684,-0.01236,-0.00061,-0.00244,0.08896,-0.39276,-0.03723,-0.03784,-0.01938,0.01114,-0.05173
9.9805,-0.00336,-0.03891,-0.03387,-0.01038,-0.03036,-0.04639,-0.0116,-0.00061,-0.00366,0.13168,-0.38925,-0.02136,-0.03922,-0.02319,0.01068,-0.05234
9.981,-0.00305,-0.03952,-0.03281,-0.01083,-0.03128,-0.04471,-0.01083,-0.00153,-0.00626,0.13885,-0.42328,0.04013,-0.0412,-0.03265,0.00809,-0.05325
9.9815,-0.00336,-0.03998,-0.03265,-0.01083,-0.0325,-0.04395,-0.01205,-0.00259,-0.00778,0.09827,-0.47989,0.11658,-0.04211,-0.047,0.0058,-0.05524
9.982,-0.00458,-0.03983,-0.03296,-0.00946,-0.03448,-0.04395,-0.01266,-0.00183,-0.00839,0.03708,-0.50735,0.16861,-0.04227,-0.05646,0.00488,-0.05707
9.9825,-0.00519,-0.04044,-0.03326,-0.00809,-0.03525,-0.04379,-0.0116,-0.00259,-0.00809,-0.00748,-0.47363,0.1796,-0.0412,-0.05142,0.00504,-0.0589
9.983,-0.00443,-0.04059,-0.03387,-0.00809,-0.03479,-0.04318,-0.0116,-0.00275,-0.00961,-0.02762,-0.40787,0.15793,-0.03998,-0.03479,0.0061,-0.05997
9.9835,-0.00259,-0.04211,-0.03479,-0.00916,-0.0354,-0.04242,-0.01404,-0.00427,-0.01282,-0.03159,-0.35843,0.12238,-0.04089,-0.02045,0.00702,-0.05997
9.984,-0.00107,-0.04425,-0.03632,-0.01053,-0.03571,-0.04044,-0.01465,-0.00519,-0.01541,-0.02411,-0.34271,0.08591,-0.04105,-0.01877,0.00732,-0.0592
9.9845,-0.00183,-0.04486,-0.03647,-0.01038,-0.0351,-0.03876,-0.01312,-0.00687,-0.0177,0.00275,-0.35156,0.05295,-0.0412,-0.02197,0.00778,-0.05707
9.985,-0.00259,-0.04379,-0.03555,-0.01022,-0.03433,-0.03784,-0.01099,-0.00687,-0.02243,0.04379,-0.35751,0.02747,-0.04089,-0.02274,0.00916,-0.05386
9.9855,-0.00336,-0.04257,-0.03433,-0.01053,-0.03235,-0.03784,-0.01144,-0.00595,-0.0325,0.06592,-0.34592,0.01358,-0.0412,-0.02197,0.01083,-0.05203
9.986,-0.00366,-0.04303,-0.03372,-0.0116,-0.03159,-0.0386,-0.01251,-0.00488,-0.04257,0.04074,-0.33127,0.01129,-0.04242,-0.0235,0.01053,-0.05112
9.9865,-0.00504,-0.0444,-0.03387,-0.01251,-0.03098,-0.04074,-0.01266,-0.0029,-0.04776,-0.01968,-0.33218,0.01465,-0.04395,-0.02686,0.00992,-0.05035
9.987,-0.00671,-0.04333,-0.03525,-0.01144,-0.03036,-0.04395,-0.0116,-0.00076,-0.04669,-0.07523,-0.34317,0.01801,-0.04333,-0.02853,0.00961,-0.04974
9.9875,-0.00732,-0.0412,-0.03464,-0.00977,-0.03021,-0.04669,-0.0119,-0.00061,-0.04517,-0.10208,-0.34683,0.01465,-0.04089,-0.02686,0.0087,-0.04837
9.988,-0.0061,-0.03891,-0.03342,-0.0087,-0.02991,-0.04929,-0.01389,-0.00061,-0.04379,-0.10818,-0.34866,-0.00397,-0.03769,-0.02396,0.0087,-0.04501
9.9885,-0.00565,-0.03891,-0.03281,-0.00977,-0.02762,-0.05112,-0.01556,-0.00107,-0.03998,-0.10788,-0.3685,-0.0351,-0.03464,-0.0209,0.00946,-0.04105
9.989,-0.00427,-0.03998,-0.03311,-0.01022,-0.02762,-0.05234,-0.01678,-0.00031,-0.0325,-0.10468,-0.42404,-0.06409,-0.03143,-0.01785,0.01053,-0.03845
9.9895,-0.00336,-0.0412,-0.03357,-0.00992,-0.02808,-0.05173,-0.01785,0.00153,-0.02228,-0.09628,-0.4985,-0.0795,-0.02991,-0.0148,0.01175,-0.03647
9.99,-0.00229,-0.0415,-0.03418,-0.00824,-0.02975,-0.05157,-0.01801,0.00351,-0.01434,-0.08469,-0.55527,-0.08179,-0.0296,-0.0119,0.0119,-0.0354
9.9905,-0.00229,-0.04242,-0.0351,-0.00854,-0.03281,-0.05508,-0.01633,0.00443,-0.00992,-0.07233,-0.56778,-0.08041,-0.03082,-0.01022,0.01114,-0.03571
9.991,-0.0032,-0.04181,-0.03525,-0.00793,-0.03342,-0.05997,-0.01556,0.00229,-0.00748,-0.06104,-0.54642,-0.0795,-0.03128,-0.0087,0.01099,-0.03571
9.9915,-0.00427,-0.04166,-0.03357,-0.00687,-0.03296,-0.06058,-0.01556,-0.00015,-0.00641,-0.04761,-0.51132,-0.07858,-0.03159,-0.009,0.01068,-0.0325
9.992,-0.00488,-0.04196,-0.03174,-0.0058,-0.03143,-0.05768,-0.01633,-0.00015,-0.00595,-0.0351,-0.47699,-0.07797,-0.03189,-0.01114,0.01053,-0.02853
9.9925,-0.00473,-0.04211,-0.03204,-0.00626,-0.03235,-0.05569,-0.01633,0.00061,-0.00534,-0.02625,-0.46265,-0.07965,-0.03113,-0.01236,0.01038,-0.02533
9.993,-0.00458,-0.04059,-0.0322,-0.00793,-0.03189,-0.05478,-0.0148,-0.00015,-0.00504,-0.0235,-0.47867,-0.08209,-0.02914,-0.01129,0.01114,-0.02518
9.9935,-0.00458,-0.03967,-0.03235,-0.00885,-0.02991,-0.05402,-0.01419,-0.00351,-0.0061,-0.0235,-0.51498,-0.0853,-0.02747,-0.01053,0.0116,-0.0264
9.994,-0.00626,-0.04105,-0.03311,-0.00885,-0.02945,-0.05219,-0.0145,-0.00565,-0.0087,-0.02228,-0.54245,-0.09125,-0.0264,-0.01007,0.01144,-0.0293
9.9945,-0.00748,-0.04333,-0.03403,-0.00793,-0.02838,-0.04959,-0.0148,-0.00641,-0.01083,-0.02258,-0.5481,-0.10147,-0.02502,-0.01099,0.01068,-0.03113
9.995,-0.00717,-0.04456,-0.03479,-0.00702,-0.02808,-0.04898,-0.01587,-0.00626,-0.01068,-0.02441,-0.53604,-0.11353,-0.02319,-0.01083,0.01022,-0.02975
9.9955,-0.00504,-0.04379,-0.03632,-0.00763,-0.03021,-0.04959,-0.01633,-0.00809,-0.00977,-0.02869,-0.50446,-0.12009,-0.02258,-0.00916,0.01038,-0.02609
9.996,-0.00427,-0.0444,-0.03799,-0.009,-0.02792,-0.04883,-0.01556,-0.00961,-0.00885,-0.03067,-0.45441,-0.10513,-0.0235,-0.0058,0.01053,-0.02396
9.9965,-0.00488,-0.04562,-0.03815,-0.00854,-0.02731,-0.04837,-0.01389,-0.00885,-0.00793,-0.0296,-0.40268,-0.04379,-0.02289,-0.00229,0.01083,-0.02502
9.997,-0.00534,-0.04517,-0.03662,-0.00626,-0.02716,-0.04776,-0.01114,-0.00412,-0.00626,-0.02777,-0.36255,0.06439,-0.02121,-0.00061,0.01068,-0.0267
9.9975,-0.00443,-0.04486,-0.03372,-0.00473,-0.03006,-0.04654,-0.00946,0.00153,-0.00366,-0.02808,-0.34286,0.15793,-0.01984,-0.00305,0.01053,-0.0267
9.998,-0.0032,-0.04547,-0.0325,-0.00504,-0.03067,-0.04608,-0.00854,0.00381,-0.00351,-0.02945,-0.34195,0.168,-0.01999,-0.00793,0.01007,-0.02594
9.9985,-0.00336,-0.04639,-0.03403,-0.00687,-0.0296,-0.0473,-0.00992,0.00137,-0.00732,-0.03067,-0.35614,0.10376,-0.02228,-0.0116,0.00931,-0.02579
9.999,-0.00305,-0.04669,-0.0351,-0.00839,-0.02762,-0.04822,-0.01297,-0.0032,-0.01358,-0.0293,-0.37216,0.03738,-0.02426,-0.0148,0.00961,-0.02747
9.9995,-0.00137,-0.04501,-0.03525,-0.00885,-0.02869,-0.04883,-0.01434,-0.00656,-0.0206,-0.02655,-0.37933,0.01389,-0.02548,-0.01785,0.00885,-0.02808
10.0,0.00046,-0.04379,-0.0354,-0.00702,-0.02869,-0.04791,-0.01526,-0.00687,-0.02579,-0.02258,-0.36789,0.01419,-0.02609,-0.01968,0.00916,-0.02792
10.0005,0.0,-0.04333,-0.03403,-0.00549,-0.03113,-0.04791,-0.01495,-0.00595,-0.0267,-0.0206,-0.34134,0.00732,-0.02548,-0.01999,0.01007,-0.02914
10.001,-0.00229,-0.04227,-0.03265,-0.00534,-0.02945,-0.04807,-0.0148,-0.00473,-0.02655,-0.01678,-0.30655,-0.00534,-0.02518,-0.01892,0.00992,-0.03052
10.0015,-0.0032,-0.04059,-0.03189,-0.0058,-0.02762,-0.04761,-0.01465,-0.00381,-0.02792,-0.01053,-0.26642,-0.01373,-0.02533,-0.01694,0.00992,-0.03098
10.002,-0.0029,-0.04044,-0.03265,-0.00626,-0.02838,-0.04608,-0.01556,-0.00305,-0.03174,-0.0029,-0.23407,-0.02045,-0.02533,-0.01572,0.01053,-0.0322
10.0025,-0.00122,-0.04044,-0.03479,-0.0058,-0.03098,-0.04593,-0.01602,-0.00214,-0.03265,0.00137,-0.22049,-0.03387,-0.02594,-0.01831,0.01221,-0.03311
10.003,-0.00183,-0.04013,-0.0351,-0.00504,-0.03281,-0.04532,-0.01419,-0.00214,-0.02869,0.00198,-0.22766,-0.05341,-0.02747,-0.01938,0.0119,-0.03311
10.0035,-0.00275,-0.03983,-0.03342,-0.00412,-0.03448,-0.04547,-0.01022,-0.00229,-0.02457,0.00275,-0.23407,-0.06912,-0.02747,-0.01953,0.01144,-0.03326
10.004,-0.0032,-0.03952,-0.03174,-0.00412,-0.03525,-0.04608,-0.00824,-0.00275,-0.02609,0.00626,-0.23209,-0.07355,-0.02777,-0.01968,0.01129,-0.03418
10.0045,-0.00198,-0.03922,-0.03143,-0.00549,-0.03464,-0.04517,-0.01053,-0.00336,-0.03159,0.00641,-0.22324,-0.06592,-0.02625,-0.01968,0.01053,-0.03586
10.005,-0.00107,-0.03952,-0.03174,-0.00732,-0.03235,-0.0441,-0.01419,-0.00458,-0.03586,-0.00031,-0.21774,-0.04807,-0.02625,-0.02167,0.01053,-0.03754
10.0055,-0.00183,-0.03952,-0.03296,-0.00977,-0.03113,-0.04288,-0.01541,-0.00595,-0.03693,-0.01236,-0.21332,-0.01694,-0.02792,-0.0238,0.01007,-0.03769
10.006,-0.00244,-0.04059,-0.03342,-0.01251,-0.0322,-0.04303,-0.01297,-0.00656,-0.03754,-0.02121,-0.19989,0.02426,-0.03036,-0.02563,0.00961,-0.03677
10.0065,-0.00351,-0.04181,-0.03357,-0.01389,-0.03296,-0.04333,-0.01144,-0.0058,-0.03769,-0.02167,-0.17426,0.0647,-0.03174,-0.02441,0.009,-0.03632
10.007,-0.00473,-0.04196,-0.03204,-0.01236,-0.03036,-0.04486,-0.0119,-0.00381,-0.03738,-0.01694,-0.14481,0.09354,-0.03052,-0.02045,0.00931,-0.03723
10.0075,-0.0061,-0.04227,-0.03189,-0.00977,-0.02701,-0.04669,-0.01236,-0.00351,-0.03647,-0.01495,-0.11978,0.10574,-0.02914,-0.01526,0.009,-0.03784
10.008,-0.00549,-0.04028,-0.03128,-0.00793,-0.02502,-0.04669,-0.01175,-0.00183,-0.03342,-0.01251,-0.11047,0.09811,-0.02853,-0.01144,0.00809,-0.03876
10.0085,-0.00504,-0.03784,-0.03159,-0.00732,-0.02563,-0.04684,-0.0116,-0.00107,-0.02518,-0.00732,-0.11444,0.07126,-0.02853,-0.01129,0.00748,-0.04166
10.009,-0.00366,-0.03616,-0.03342,-0.00778,-0.02579,-0.04791,-0.01312,-0.00092,-0.01495,0.0,-0.1268,0.03906,-0.02823,-0.01297,0.00595,-0.0444
10.0095,-0.00351,-0.03662,-0.03601,-0.00824,-0.02594,-0.04898,-0.01526,-0.00229,-0.00778,0.0058,-0.14374,0.01221,-0.02838,-0.01312,0.0061,-0.04486
10.01,-0.00351,-0.0383,-0.03708,-0.0087,-0.0264,-0.04959,-0.01633,-0.00397,-0.0058,0.01038,-0.16541,-0.01511,-0.02899,-0.01221,0.00671,-0.04425
10.0105,-0.00427,-0.03876,-0.03418,-0.01068,-0.02716,-0.04959,-0.01541,-0.00458,-0.00809,0.01068,-0.18509,-0.05585,-0.03052,-0.01144,0.00778,-0.04364
10.011,-0.00488,-0.0383,-0.03159,-0.01236,-0.02838,-0.04944,-0.01434,-0.00351,-0.01251,0.00656,-0.19363,-0.10757,-0.03082,-0.01175,0.00748,-0.04501
10.0115,-0.00565,-0.03769,-0.03128,-0.01312,-0.02914,-0.05066,-0.01358,-0.00076,-0.01816,-0.00031,-0.18768,-0.14664,-0.02914,-0.01221,0.00549,-0.04791
10.012,-0.00595,-0.03845,-0.03204,-0.01236,-0.03311,-0.05295,-0.01328,0.00122,-0.02304,-0.00748,-0.17838,-0.14313,-0.02823,-0.01068,0.00595,-0.04974
10.0125,-0.00565,-0.0386,-0.0322,-0.01144,-0.03998,-0.05295,-0.01144,0.00275,-0.02487,-0.01022,-0.177,-0.07187,-0.02808,-0.00763,0.00549,-0.05051
10.013,-0.00443,-0.03937,-0.03281,-0.01129,-0.04578,-0.0499,-0.009,0.00198,-0.02243,-0.009,-0.18906,0.04791,-0.02869,-0.00427,0.00595,-0.04883
10.0135,-0.00381,-0.03998,-0.0325,-0.0116,-0.04608,-0.047,-0.00839,0.00107,-0.02075,-0.00748,-0.20569,0.13672,-0.02731,-0.00275,0.00412,-0.04776
10.014,-0.00336,-0.03906,-0.0325,-0.01022,-0.04105,-0.0444,-0.01007,0.00015,-0.02243,-0.00687,-0.22568,0.1178,-0.02686,-0.00412,0.00275,-0.04883
10.0145,-0.00443,-0.03754,-0.0322,-0.00992,-0.03601,-0.04425,-0.01129,-0.00076,-0.02594,-0.00778,-0.24796,0.00351,-0.02701,-0.00687,0.00275,-0.05173
10.015,-0.0058,-0.03616,-0.03357,-0.009,-0.03174,-0.04593,-0.01083,-0.00473,-0.03189,-0.00153,-0.27405,-0.12009,-0.02777,-0.0087,0.00275,-0.05371
10.0155,-0.00687,-0.03708,-0.03403,-0.0087,-0.02899,-0.04715,-0.00916,-0.01038,-0.03891,0.00885,-0.29266,-0.18784,-0.02838,-0.00992,0.00214,-0.05356
10.016,-0.00656,-0.03784,-0.03418,-0.00854,-0.02747,-0.04684,-0.00824,-0.01434,-0.04608,0.01694,-0.3009,-0.21057,-0.03036,-0.01358,0.00397,-0.05173
10.0165,-0.0058,-0.03815,-0.03342,-0.00992,-0.02686,-0.04578,-0.009,-0.01602,-0.05035,0.01648,-0.30518,-0.22842,-0.0322,-0.0174,0.00427,-0.05096
10.017,-0.00473,-0.0386,-0.03387,-0.01129,-0.02716,-0.04349,-0.009,-0.01495,-0.04944,0.00687,-0.33005,-0.24612,-0.03357,-0.02106,0.00076,-0.05234
10.0175,-0.00443,-0.03922,-0.0354,-0.01114,-0.02792,-0.04349,-0.00717,-0.01282,-0.04471,-0.0087,-0.40009,-0.23071,-0.03342,-0.02319,-0.00153,-0.05478
10.018,-0.00351,-0.03906,-0.03601,-0.01068,-0.02869,-0.04517,-0.00732,-0.01144,-0.04074,-0.02716,-0.51651,-0.17426,-0.03128,-0.02533,-0.00122,-0.056
10.0185,-0.00366,-0.0386,-0.03387,-0.01099,-0.02899,-0.04532,-0.01129,-0.0116,-0.03983,-0.0444,-0.64835,-0.10986,-0.03098,-0.02655,0.00046,-0.05493
10.019,-0.00458,-0.03784,-0.03235,-0.01282,-0.03082,-0.04517,-0.01526,-0.01022,-0.04044,-0.05524,-0.74966,-0.06317,-0.03189,-0.02533,0.00168,-0.05417
10.0195,-0.00504,-0.03708,-0.03235,-0.01404,-0.03067,-0.04471,-0.01648,-0.00656,-0.03571,-0.05829,-0.79865,-0.01602,-0.03204,-0.02289,0.00183,-0.05295
10.02,-0.00595,-0.03738,-0.03326,-0.01328,-0.03036,-0.04532,-0.01617,-0.00351,-0.02487,-0.056,-0.80734,0.05081,-0.02975,-0.01938,0.00275,-0.05051
10.0205,-0.00778,-0.03845,-0.03387,-0.01236,-0.02975,-0.047,-0.0174,-0.00381,-0.01144,-0.05051,-0.7988,0.12924,-0.02655,-0.01846,0.00412,-0.04898
10.021,-0.00992,-0.03952,-0.03326,-0.01144,-0.03098,-0.04822,-0.01968,-0.00687,-0.00259,-0.04547,-0.78598,0.20248,-0.02563,-0.01831,0.00534,-0.04654
10.0215,-0.00793,-0.03891,-0.03311,-0.00977,-0.0325,-0.04807,-0.01984,-0.00595,-0.00031,-0.04211,-0.75882,0.25955,-0.02686,-0.0206,0.00473,-0.04623
10.022,-0.00702,-0.03799,-0.03265,-0.00793,-0.03296,-0.04837,-0.01724,-0.00305,-0.00183,-0.04196,-0.69778,0.28229,-0.02808,-0.02533,0.00259,-0.04852
10.0225,-0.0061,-0.03937,-0.03311,-0.00793,-0.03296,-0.05005,-0.01694,-0.0029,-0.0032,-0.0415,-0.59921,0.26093,-0.02899,-0.02975,0.00092,-0.05157
10.023,-0.00687,-0.04105,-0.03448,-0.00809,-0.0325,-0.05005,-0.02045,-0.00641,-0.00381,-0.03922,-0.48035,0.20691,-0.0293,-0.0296,0.0,-0.05417
10.0235,-0.00748,-0.04211,-0.03616,-0.00702,-0.03235,-0.04913,-0.02411,-0.00763,-0.00381,-0.0383,-0.36484,0.13809,-0.0296,-0.02594,-0.00015,-0.0563
10.024,-0.00778,-0.04211,-0.03479,-0.00595,-0.03098,-0.04761,-0.02457,-0.00443,-0.00198,-0.03952,-0.26276,0.04883,-0.03067,-0.02213,0.00214,-0.05737
10.0245,-0.00885,-0.04196,-0.03632,-0.00595,-0.03021,-0.04669,-0.02121,-0.00198,0.00061,-0.04028,-0.16739,-0.06378,-0.03174,-0.02121,0.00504,-0.05753
10.025,-0.00946,-0.04272,-0.03616,-0.00748,-0.03143,-0.047,-0.01923,-0.00183,0.00137,-0.04013,-0.07675,-0.1709,-0.03311,-0.02197,0.0061,-0.05814
10.0255,-0.00961,-0.04288,-0.03571,-0.01099,-0.03128,-0.04837,-0.01968,-0.00275,0.00046,-0.03693,0.00793,-0.23895,-0.03433,-0.02228,0.00397,-0.05875
10.026,-0.00992,-0.04242,-0.03433,-0.01358,-0.02823,-0.0499,-0.02045,-0.00061,0.0,-0.03464,0.08972,-0.27054,-0.03433,-0.02365,0.00107,-0.05997
10.0265,-0.009,-0.04303,-0.03342,-0.01404,-0.02869,-0.05096,-0.01999,0.00214,-0.00153,-0.0322,0.16525,-0.28488,-0.03494,-0.02365,0.00031,-0.06226
10.027,-0.00824,-0.04486,-0.03387,-0.01205,-0.0293,-0.05096,-0.01846,0.00153,-0.00214,-0.03067,0.24002,-0.27679,-0.03632,-0.02335,0.00153,-0.06378
10.0275,-0.00793,-0.04623,-0.03403,-0.01068,-0.03006,-0.0499,-0.01923,-0.00092,-0.00153,-0.0267,0.3154,-0.21805,-0.03784,-0.02228,0.00046,-0.06439
10.028,-0.00717,-0.04578,-0.03342,-0.01007,-0.03021,-0.05035,-0.01877,0.00031,0.00107,-0.01923,0.38605,-0.10101,-0.03784,-0.02213,-0.00046,-0.06561
10.0285,-0.0058,-0.04395,-0.03311,-0.00992,-0.03143,-0.05127,-0.01633,0.00626,0.00336,-0.00656,0.4454,0.03021,-0.03769,-0.02274,-0.00153,-0.06729
10.029,-0.00595,-0.04333,-0.03418,-0.00992,-0.03143,-0.05066,-0.01465,0.01175,0.00305,0.00458,0.50003,0.12085,-0.03769,-0.02151,-0.00031,-0.0679
10.0295,-0.00565,-0.0415,-0.03586,-0.0119,-0.03052,-0.05051,-0.01419,0.01221,0.00122,0.01205,0.55817,0.15945,-0.03876,-0.02136,0.0029,-0.06851
10.03,-0.00549,-0.03906,-0.03571,-0.01297,-0.03006,-0.05081,-0.01282,0.00854,-0.00092,0.01373,0.61829,0.17899,-0.03952,-0.02045,0.00519,-0.06897
10.0305,-0.0058,-0.03815,-0.03479,-0.01358,-0.03113,-0.04944,-0.01068,0.00565,-0.00092,0.01236,0.67657,0.20462,-0.04044,-0.02029,0.00656,-0.06882
10.031,-0.00595,-0.04044,-0.03448,-0.01266,-0.03235,-0.04623,-0.00748,0.0058,0.00137,0.00992,0.72906,0.23209,-0.04211,-0.0206,0.00671,-0.06943
10.0315,-0.00549,-0.04471,-0.03494,-0.0116,-0.03296,-0.04166,-0.00702,0.00641,0.00305,0.00748,0.77667,0.24612,-0.04349,-0.0206,0.00687,-0.07126
10.032,-0.00565,-0.04639,-0.03403,-0.01007,-0.03189,-0.03937,-0.00977,0.00473,0.00244,0.00519,0.81314,0.24384,-0.04395,-0.0206,0.00626,-0.07431
10.0325,-0.00641,-0.0444,-0.03159,-0.00992,-0.03098,-0.04135,-0.01404,0.00229,-0.00076,0.00015,0.83984,0.22308,-0.04303,-0.02136,0.00671,-0.0769
10.033,-0.00763,-0.04196,-0.03113,-0.0119,-0.03082,-0.04349,-0.01678,-0.00031,-0.00549,-0.00854,0.86655,0.18784,-0.04242,-0.02289,0.00702,-0.07675
10.0335,-0.00732,-0.04089,-0.0322,-0.01221,-0.03128,-0.04608,-0.01877,-0.00702,-0.01129,-0.02029,0.89539,0.14587,-0.04395,-0.02441,0.00748,-0.0766
10.034,-0.00641,-0.04181,-0.03357,-0.01129,-0.03189,-0.04623,-0.01953,-0.01785,-0.01892,-0.03296,0.92636,0.10696,-0.04654,-0.02502,0.00748,-0.07843
10.0345,-0.00565,-0.04272,-0.03311,-0.00854,-0.03281,-0.04639,-0.01831,-0.02319,-0.02655,-0.04547,0.9523,0.07019,-0.04776,-0.02533,0.00809,-0.08087
10.035,-0.0061,-0.04242,-0.03296,-0.00763,-0.03342,-0.04593,-0.01556,-0.01785,-0.0296,-0.05859,0.97427,0.03616,-0.04807,-0.02609,0.00977,-0.08331
10.0355,-0.00748,-0.04135,-0.03494,-0.00793,-0.03387,-0.04639,-0.01572,-0.01083,-0.02426,-0.06653,0.99579,0.009,-0.04715,-0.02716,0.01221,-0.0853
10.036,-0.009,-0.04105,-0.03677,-0.00763,-0.03494,-0.04669,-0.01968,-0.01038,-0.01572,-0.06439,1.02371,-0.01297,-0.04547,-0.02533,0.01389,-0.08759
10.0365,-0.009,-0.04135,-0.03738,-0.00671,-0.03555,-0.04852,-0.02319,-0.01465,-0.00992,-0.05081,1.06644,-0.03708,-0.04303,-0.02197,0.01419,-0.08774
10.037,-0.00778,-0.0415,-0.03738,-0.00626,-0.03494,-0.0502,-0.02274,-0.01602,-0.01144,-0.03387,1.11923,-0.06073,-0.04135,-0.01755,0.0148,-0.08774
10.0375,-0.00641,-0.04181,-0.0386,-0.00656,-0.03479,-0.05081,-0.01831,-0.01373,-0.01633,-0.02243,1.1734,-0.07034,-0.04044,-0.01312,0.01526,-0.08682
10.038,-0.00595,-0.04196,-0.03906,-0.00793,-0.03525,-0.05066,-0.01541,-0.01068,-0.01862,-0.01801,1.20621,-0.06638,-0.04013,-0.01007,0.0148,-0.08789
10.0385,-0.00626,-0.04211,-0.03891,-0.00824,-0.03479,-0.0502,-0.01328,-0.01129,-0.01511,-0.01633,1.21475,-0.065,-0.03937,-0.00854,0.01389,-0.08728
10.039,-0.00595,-0.04135,-0.03708,-0.009,-0.03387,-0.04868,-0.00992,-0.01114,-0.00763,-0.01556,1.20834,-0.07095,-0.03891,-0.00839,0.01343,-0.0882
10.0395,-0.00443,-0.03967,-0.03616,-0.01007,-0.03098,-0.04761,-0.00549,-0.00641,-0.00046,-0.01358,1.20514,-0.06363,-0.0386,-0.00793,0.01389,-0.08957
10.04,-0.00198,-0.03845,-0.03616,-0.01083,-0.03036,-0.04745,-0.00244,0.00244,0.00275,-0.01175,1.20987,-0.03067,-0.03723,-0.0087,0.01556,-0.09201
10.0405,-0.00046,-0.03876,-0.03662,-0.01007,-0.0325,-0.04532,-0.00214,0.01175,0.00214,-0.01221,1.21857,0.01053,-0.03738,-0.01144,0.01633,-0.09415
10.041,-0.00061,-0.03998,-0.0383,-0.00809,-0.03387,-0.04471,-0.00244,0.01633,0.00061,-0.01129,1.22559,0.03937,-0.0383,-0.01526,0.01587,-0.09583
10.0415,-0.00275,-0.0412,-0.03998,-0.0087,-0.03479,-0.04654,-0.0029,0.01373,-0.00015,-0.00687,1.22284,0.05554,-0.03815,-0.01755,0.01511,-0.09552
10.042,-0.00412,-0.04135,-0.04089,-0.01053,-0.03387,-0.0499,-0.00839,0.00443,0.00015,-0.00015,1.20743,0.06302,-0.03754,-0.01755,0.01419,-0.09293
10.0425,-0.00305,-0.0412,-0.04028,-0.01205,-0.03311,-0.05173,-0.01877,-0.00687,-0.00076,0.00458,1.18546,0.06104,-0.03723,-0.0174,0.01282,-0.08987
10.043,-0.00107,-0.04181,-0.03876,-0.01038,-0.03265,-0.05051,-0.0264,-0.01266,-0.00427,0.00473,1.16379,0.04974,-0.03677,-0.01877,0.01282,-0.0856
10.0435,0.00015,-0.04211,-0.03662,-0.00854,-0.03036,-0.04807,-0.02686,-0.0148,-0.00732,0.00153,1.13937,0.03983,-0.03677,-0.01999,0.01511,-0.08423
10.044,-0.00061,-0.04318,-0.03525,-0.00748,-0.02869,-0.04791,-0.02426,-0.01633,-0.00961,-0.00107,1.10443,0.03662,-0.03815,-0.02228,0.01694,-0.08438
10.0445,-0.00153,-0.04395,-0.03418,-0.00702,-0.02777,-0.04837,-0.02655,-0.0174,-0.01389,0.0,1.05438,0.04059,-0.03983,-0.02457,0.01862,-0.08636
10.045,-0.00168,-0.04486,-0.03311,-0.00595,-0.02914,-0.04868,-0.03174,-0.01602,-0.02045,0.00275,0.98709,0.04486,-0.04105,-0.02609,0.01862,-0.08835
10.0455,-0.00137,-0.04486,-0.03433,-0.00519,-0.03204,-0.04868,-0.03281,-0.0087,-0.02808,0.00687,0.90256,0.04379,-0.0415,-0.02472,0.01678,-0.08682
10.046,-0.00137,-0.04364,-0.0351,-0.00473,-0.03281,-0.04807,-0.02655,0.00214,-0.03281,0.01129,0.80261,0.03662,-0.04288,-0.02365,0.01526,-0.08408
10.0465,-0.00214,-0.04242,-0.03555,-0.00504,-0.03281,-0.04852,-0.01785,0.00931,-0.03311,0.0145,0.68832,0.0267,-0.04486,-0.02289,0.0148,-0.08194
10.047,-0.0029,-0.04166,-0.03372,-0.00641,-0.03235,-0.04944,-0.01373,0.01129,-0.0322,0.01328,0.56198,0.01678,-0.0502,-0.02197,0.01541,-0.08301
10.0475,-0.00412,-0.04089,-0.03235,-0.00778,-0.0322,-0.04929,-0.01572,0.0087,-0.03082,0.00366,0.42526,0.00534,-0.05615,-0.02151,0.01617,-0.08469
10.048,-0.00397,-0.04028,-0.03159,-0.00824,-0.03265,-0.04791,-0.01724,0.00504,-0.02823,-0.00885,0.28381,-0.00488,-0.05875,-0.02258,0.01495,-0.08591
10.0485,-0.00244,-0.03922,-0.0325,-0.00839,-0.03174,-0.04807,-0.01694,0.00137,-0.02487,-0.01526,0.13809,-0.00916,-0.05264,-0.02213,0.01404,-0.08575
10.049,-0.00168,-0.03891,-0.0322,-0.009,-0.03098,-0.04929,-0.0148,-0.00275,-0.02151,-0.01144,0.00015,-0.01144,-0.0415,-0.02182,0.01205,-0.08469
10.0495,-0.00168,-0.0386,-0.03143,-0.00916,-0.0293,-0.0502,-0.01358,-0.00656,-0.02121,-0.00763,-0.12161,-0.02533,-0.0354,-0.02304,0.01373,-0.08133
10.05,-0.00198,-0.03891,-0.0322,-0.009,-0.02853,-0.04974,-0.01312,-0.00824,-0.02563,-0.00565,-0.23376,-0.05325,-0.03464,-0.02609,0.01556,-0.07751
10.0505,-0.00168,-0.03784,-0.03372,-0.00885,-0.0293,-0.04944,-0.0148,-0.00885,-0.03143,-0.00763,-0.3537,-0.07782,-0.03525,-0.02762,0.01663,-0.07477
10.051,-0.00214,-0.03769,-0.03448,-0.00885,-0.03052,-0.04745,-0.01709,-0.00793,-0.03677,-0.00992,-0.47791,-0.0885,-0.03204,-0.02502,0.01511,-0.07111
10.0515,-0.00214,-0.03891,-0.03464,-0.00885,-0.03036,-0.04593,-0.01923,-0.00824,-0.04059,-0.0116,-0.5867,-0.09216,-0.02441,-0.02075,0.01511,-0.0708
10.052,-0.00259,-0.03906,-0.03433,-0.00946,-0.03067,-0.04669,-0.01846,-0.00839,-0.0441,-0.01282,-0.6691,-0.10162,-0.01694,-0.0174,0.01511,-0.07034
10.0525,-0.00351,-0.0386,-0.0351,-0.01099,-0.02991,-0.04745,-0.01617,-0.0058,-0.04517,-0.01312,-0.72922,-0.11124,-0.01602,-0.01663,0.01434,-0.06973
10.053,-0.00473,-0.0383,-0.03479,-0.01144,-0.02991,-0.047,-0.01389,-0.00046,-0.04227,-0.01343,-0.78156,-0.09384,-0.02243,-0.01617,0.01175,-0.07034
10.0535,-0.00565,-0.03906,-0.03342,-0.0119,-0.02975,-0.04807,-0.01297,0.00427,-0.03555,-0.01434,-0.83679,-0.03098,-0.02991,-0.01572,0.01099,-0.06989
10.054,-0.00595,-0.04013,-0.0322,-0.01083,-0.02991,-0.04929,-0.01328,0.00565,-0.03098,-0.01968,-0.89294,0.04883,-0.03265,-0.01602,0.01068,-0.06973
10.0545,-0.0061,-0.03998,-0.0322,-0.01053,-0.03067,-0.04883,-0.01526,0.00381,-0.02808,-0.02945,-0.93842,0.0853,-0.03113,-0.01724,0.01144,-0.06836
10.055,-0.00671,-0.03922,-0.03265,-0.01083,-0.03113,-0.04745,-0.01907,0.00168,-0.02747,-0.04028,-0.97275,0.06378,-0.03082,-0.01892,0.0119,-0.06577
10.0555,-0.00549,-0.03983,-0.03311,-0.01144,-0.03204,-0.04654,-0.0238,-0.00229,-0.02655,-0.04883,-1.00403,0.03891,-0.03281,-0.02014,0.01114,-0.06363
10.056,-0.00443,-0.03952,-0.03372,-0.01129,-0.03281,-0.04745,-0.0264,-0.01022,-0.02396,-0.05066,-1.03683,0.05707,-0.03265,-0.0209,0.01114,-0.06058
10.0565,-0.00381,-0.04074,-0.03342,-0.0116,-0.03204,-0.0499,-0.02625,-0.02029,-0.0209,-0.04822,-1.06323,0.10117,-0.03052,-0.01999,0.01083,-0.05966
10.057,-0.00443,-0.04105,-0.03326,-0.0116,-0.03159,-0.0499,-0.02441,-0.02487,-0.01602,-0.04227,-1.07407,0.13016,-0.02731,-0.01999,0.01114,-0.05722
10.0575,-0.00488,-0.04135,-0.03296,-0.01068,-0.03082,-0.04761,-0.02151,-0.02106,-0.01038,-0.03677,-1.07101,0.13016,-0.02579,-0.02014,0.01099,-0.05463
10.058,-0.00381,-0.0415,-0.03296,-0.00992,-0.03021,-0.04608,-0.01831,-0.01053,-0.00336,-0.03357,-1.06308,0.11017,-0.02609,-0.01968,0.00961,-0.05356
10.0585,-0.00244,-0.04227,-0.03342,-0.00916,-0.02991,-0.04669,-0.01495,-0.00366,0.00595,-0.03189,-1.05713,0.08484,-0.02579,-0.0177,0.01007,-0.05432
10.059,-0.00259,-0.04074,-0.03479,-0.00839,-0.03128,-0.04837,-0.0119,-0.00061,0.01587,-0.03143,-1.04843,0.06332,-0.02533,-0.01617,0.00977,-0.05234
10.0595,-0.00153,-0.03967,-0.03571,-0.00824,-0.03067,-0.04913,-0.0116,0.00031,0.02121,-0.02945,-1.03165,0.05157,-0.02502,-0.01633,0.01053,-0.04715
10.06,0.00076,-0.03967,-0.03571,-0.00824,-0.0293,-0.047,-0.01282,0.00061,0.02243,-0.02716,-1.00937,0.04837,-0.02457,-0.01724,0.01129,-0.04074
10.0605,0.00275,-0.04028,-0.03448,-0.00916,-0.02899,-0.04547,-0.01602,-0.0032,0.02258,-0.02472,-0.9816,0.04791,-0.02411,-0.01816,0.01114,-0.03571
10.061,0.00092,-0.04211,-0.0322,-0.01038,-0.03006,-0.0444,-0.01755,-0.00839,0.02716,-0.02106,-0.94543,0.04364,-0.0235,-0.01907,0.01038,-0.0325
10.0615,-0.00198,-0.0415,-0.0322,-0.01053,-0.03143,-0.04456,-0.01617,-0.00946,0.03357,-0.01785,-0.91141,0.03662,-0.02258,-0.02029,0.00961,-0.02945
10.062,-0.00351,-0.0415,-0.03357,-0.01007,-0.03174,-0.04562,-0.01373,-0.00748,0.03754,-0.0148,-0.89264,0.02731,-0.02182,-0.02121,0.01038,-0.0264
10.0625,-0.00366,-0.04089,-0.03357,-0.00946,-0.03021,-0.04684,-0.01236,-0.0061,0.03769,-0.01678,-0.88608,0.01892,-0.02228,-0.02243,0.00977,-0.02335
10.063,-0.00381,-0.04196,-0.03281,-0.01129,-0.02991,-0.04761,-0.01343,-0.00549,0.03738,-0.02045,-0.86487,0.01038,-0.02365,-0.02228,0.00992,-0.01923
10.0635,-0.00397,-0.04303,-0.03342,-0.01358,-0.03021,-0.04776,-0.01511,-0.00427,0.03952,-0.02228,-0.82077,0.00061,-0.02502,-0.02151,0.01053,-0.01511
10.064,-0.00412,-0.04333,-0.03433,-0.01404,-0.03036,-0.04791,-0.01465,-0.0029,0.04074,-0.0235,-0.76889,-0.01099,-0.02701,-0.02121,0.01129,-0.01297
10.0645,-0.00397,-0.04196,-0.03632,-0.01282,-0.03036,-0.04761,-0.01312,-0.00336,0.04013,-0.02594,-0.71991,-0.02441,-0.02808,-0.02121,0.0116,-0.01038
10.065,-0.00473,-0.04059,-0.03448,-0.01328,-0.03143,-0.04639,-0.01358,-0.00473,0.03555,-0.03815,-0.67123,-0.03708,-0.02884,-0.02151,0.01144,-0.00793
10.0655,-0.0058,-0.04089,-0.03403,-0.01343,-0.03265,-0.04654,-0.01495,-0.00488,0.02823,-0.06348,-0.62088,-0.04745,-0.02884,-0.02243,0.01053,-0.00687
10.066,-0.00549,-0.04196,-0.03326,-0.01328,-0.03174,-0.04791,-0.01587,-0.00351,0.02151,-0.09186,-0.56854,-0.05341,-0.02975,-0.0235,0.00809,-0.00702
10.0665,-0.00534,-0.04257,-0.03281,-0.01236,-0.03082,-0.04944,-0.01541,-0.00198,0.01877,-0.1033,-0.51193,-0.05768,-0.03189,-0.02533,0.00687,-0.00732
10.067,-0.00565,-0.04272,-0.03281,-0.01144,-0.03098,-0.04898,-0.0148,-0.00198,0.01801,-0.08545,-0.44922,-0.05768,-0.0325,-0.02563,0.00641,-0.00519
10.0675,-0.0061,-0.04166,-0.03372,-0.00977,-0.03159,-0.04837,-0.01511,-0.00214,0.01709,-0.05142,-0.38193,-0.05356,-0.03204,-0.02533,0.00671,-0.00183
10.068,-0.0061,-0.04059,-0.03494,-0.009,-0.03189,-0.04761,-0.01526,-0.00351,0.01434,-0.01846,-0.31235,-0.04532,-0.03082,-0.02228,0.00626,0.00031
10.0685,-0.00565,-0.04105,-0.03403,-0.00931,-0.03082,-0.04654,-0.01297,-0.00565,0.01328,0.00488,-0.24338,-0.03616,-0.0293,-0.01831,0.00687,0.0
10.069,-0.00458,-0.04166,-0.0322,-0.00992,-0.03036,-0.04654,-0.00885,-0.00626,0.01541,0.02136,-0.17502,-0.02975,-0.03021,-0.01495,0.00748,-0.00046
10.0695,-0.00397,-0.04196,-0.03159,-0.01068,-0.02991,-0.04715,-0.00458,-0.0061,0.01724,0.03311,-0.10956,-0.02487,-0.03113,-0.01404,0.00824,-0.00229
10.07,-0.00397,-0.04211,-0.03189,-0.01068,-0.02945,-0.04715,-0.00351,-0.00427,0.0174,0.04013,-0.04959,-0.02228,-0.03113,-0.01297,0.009,-0.00336
10.0705,-0.00443,-0.04227,-0.0325,-0.01144,-0.03052,-0.047,-0.00595,-0.00168,0.0145,0.03799,0.00763,-0.01892,-0.03021,-0.01205,0.00961,-0.00214
10.071,-0.00305,-0.04227,-0.03204,-0.01282,-0.03159,-0.04608,-0.00931,0.00031,0.01175,0.03006,0.06546,-0.01251,-0.02792,-0.01221,0.01022,0.00046
10.0715,-0.00092,-0.04211,-0.0322,-0.01328,-0.0325,-0.04547,-0.01175,0.00153,0.01053,0.01694,0.12009,-0.00656,-0.02747,-0.01389,0.00946,0.00259
10.072,-0.00061,-0.04105,-0.03235,-0.01282,-0.03174,-0.04425,-0.01343,-0.00137,0.00992,0.00473,0.16815,-0.00443,-0.02808,-0.01602,0.009,0.00198
10.0725,-0.00214,-0.04044,-0.03189,-0.01221,-0.03067,-0.04333,-0.01465,-0.0087,0.00687,-0.00702,0.21866,-0.00763,-0.0296,-0.0174,0.00916,0.00137
10.073,-0.0032,-0.03983,-0.03098,-0.01251,-0.02975,-0.04349,-0.01602,-0.01541,0.00198,-0.01953,0.2774,-0.01389,-0.03143,-0.01755,0.01053,0.00259
10.0735,-0.00336,-0.04044,-0.0296,-0.01282,-0.02914,-0.04471,-0.01678,-0.01572,-0.00214,-0.0267,0.33615,-0.02136,-0.03342,-0.0174,0.01129,0.00244
10.074,-0.0032,-0.0415,-0.03036,-0.01282,-0.03036,-0.04623,-0.01877,-0.00977,-0.00336,-0.02182,0.38269,-0.02762,-0.03342,-0.01846,0.01022,0.00122
10.0745,-0.00412,-0.04242,-0.03311,-0.01282,-0.03159,-0.04593,-0.0206,-0.0032,-0.0032,-0.00381,0.41763,-0.03082,-0.03143,-0.01984,0.00916,0.00015
10.075,-0.00427,-0.04364,-0.03479,-0.01175,-0.03265,-0.04608,-0.02045,0.00015,-0.00595,0.01129,0.4512,-0.03265,-0.03052,-0.0209,0.00809,0.0
10.0755,-0.00427,-0.04288,-0.03448,-0.01068,-0.03265,-0.0473,-0.01663,0.00031,-0.01251,0.00671,0.48965,-0.03311,-0.03235,-0.02075,0.00793,0.00031
10.076,-0.00397,-0.04227,-0.03281,-0.00916,-0.03372,-0.04944,-0.01129,0.00061,-0.02106,-0.01419,0.52902,-0.03281,-0.03479,-0.02075,0.00671,-0.00137
10.0765,-0.00351,-0.0412,-0.03204,-0.0087,-0.03448,-0.05051,-0.00854,0.00336,-0.02975,-0.03616,0.56412,-0.02777,-0.03494,-0.02121,0.00504,-0.00336
10.077,-0.00229,-0.04013,-0.03265,-0.00916,-0.03571,-0.05005,-0.00885,0.00565,-0.03494,-0.04501,0.58792,-0.01587,-0.03357,-0.02121,0.00473,-0.0058
10.0775,-0.0029,-0.04105,-0.03403,-0.01007,-0.03677,-0.04868,-0.01053,0.00366,-0.03601,-0.0412,0.59875,-0.00259,-0.03067,-0.01999,0.00534,-0.00839
10.078,-0.00381,-0.04242,-0.0354,-0.01221,-0.03693,-0.04761,-0.01312,-0.00244,-0.03372,-0.03571,0.60516,0.0061,-0.0296,-0.01953,0.00595,-0.01099
10.0785,-0.00397,-0.04196,-0.03708,-0.01373,-0.03372,-0.04761,-0.01373,-0.00763,-0.0322,-0.0325,0.61493,0.00671,-0.02975,-0.0209,0.00641,-0.01419
10.079,-0.00244,-0.03998,-0.03601,-0.01511,-0.03281,-0.04761,-0.01312,-0.009,-0.0296,-0.0293,0.62256,0.00305,-0.03036,-0.02182,0.00687,-0.01587
10.0795,0.0,-0.03769,-0.03479,-0.01434,-0.03128,-0.0473,-0.01053,-0.00656,-0.02426,-0.02121,0.62668,0.0032,-0.03067,-0.02167,0.00595,-0.0148
10.08,0.00015,-0.03677,-0.03372,-0.0119,-0.03021,-0.04654,-0.00931,-0.00336,-0.01633,-0.0145,0.62943,0.0058,-0.03128,-0.02045,0.0061,-0.01587
10.0805,0.00061,-0.03708,-0.03357,-0.01083,-0.03036,-0.04486,-0.01007,-0.00183,-0.01068,-0.00946,0.63293,0.00397,-0.03098,-0.02106,0.00595,-0.01892
10.081,0.00031,-0.03952,-0.03403,-0.01114,-0.02899,-0.04364,-0.01144,-0.00183,-0.00977,-0.00488,0.63736,-0.00397,-0.03021,-0.02243,0.00519,-0.02228
10.0815,-0.00092,-0.0412,-0.0354,-0.01236,-0.02808,-0.04272,-0.01236,-0.00153,-0.01205,0.00076,0.63263,-0.01205,-0.03021,-0.02167,0.00443,-0.02304
10.082,-0.00183,-0.04105,-0.03647,-0.01266,-0.02899,-0.04395,-0.01312,0.00076,-0.01465,0.00488,0.60959,-0.01404,-0.03174,-0.01953,0.00427,-0.02304
10.0825,-0.0032,-0.03922,-0.03693,-0.01297,-0.0296,-0.04562,-0.01312,0.00336,-0.01678,0.00671,0.57327,-0.01099,-0.03265,-0.01968,0.00381,-0.02335
10.083,-0.00351,-0.03983,-0.03555,-0.01282,-0.03006,-0.04654,-0.01236,0.00275,-0.01938,0.00671,0.54489,-0.00717,-0.0325,-0.02136,0.00397,-0.02518
10.0835,-0.00275,-0.04074,-0.03494,-0.0116,-0.03021,-0.04639,-0.01205,0.00046,-0.02014,0.00595,0.52261,-0.00549,-0.03067,-0.02136,0.00336,-0.02655
10.084,-0.00214,-0.04089,-0.03403,-0.01114,-0.03021,-0.04684,-0.0119,-0.00122,-0.01877,0.00427,0.4657,-0.00488,-0.03067,-0.02075,0.00259,-0.02762
10.0845,-0.00214,-0.04059,-0.03464,-0.01099,-0.03006,-0.04776,-0.01297,-0.00214,-0.01724,0.00092,0.33783,-0.00595,-0.03113,-0.01984,0.00229,-0.02716
10.085,-0.00244,-0.04089,-0.0351,-0.01266,-0.03265,-0.04807,-0.01282,-0.00229,-0.01709,-0.00381,0.15945,-0.00885,-0.03311,-0.01938,0.00305,-0.02548
10.0855,-0.00168,-0.04135,-0.03494,-0.01511,-0.03067,-0.04852,-0.01251,-0.00198,-0.02151,-0.00992,-0.02365,-0.01251,-0.03387,-0.01831,0.00366,-0.02396
10.086,-0.00076,-0.04105,-0.03387,-0.01511,-0.02869,-0.05112,-0.01297,-0.0029,-0.02792,-0.0174,-0.19012,-0.01511,-0.03403,-0.01602,0.00504,-0.02319
10.0865,-0.00107,-0.0415,-0.03326,-0.01328,-0.03067,-0.05554,-0.01221,-0.0032,-0.0322,-0.02655,-0.34073,-0.01801,-0.03281,-0.01434,0.0058,-0.02258
10.087,-0.00168,-0.04028,-0.03311,-0.01221,-0.03021,-0.05814,-0.01099,-0.00381,-0.03281,-0.03311,-0.46555,-0.02136,-0.03143,-0.01419,0.00565,-0.02304
10.0875,-0.00198,-0.03967,-0.03342,-0.01251,-0.03189,-0.05753,-0.00946,-0.0029,-0.02899,-0.03387,-0.56183,-0.02502,-0.03098,-0.01541,0.00458,-0.0235
10.088,-0.00198,-0.03906,-0.03448,-0.01343,-0.0293,-0.05371,-0.01129,-0.00244,-0.02563,-0.02991,-0.65323,-0.02853,-0.03326,-0.01648,0.00351,-0.0235
10.0885,-0.00214,-0.04028,-0.03494,-0.01404,-0.03174,-0.05112,-0.01373,-0.0029,-0.02441,-0.02441,-0.74722,-0.02869,-0.03555,-0.01709,0.00336,-0.02228
10.089,-0.00214,-0.04013,-0.03479,-0.01343,-0.03174,-0.04929,-0.01282,-0.00229,-0.02319,-0.02228,-0.82001,-0.02808,-0.03494,-0.01694,0.00336,-0.02213
10.0895,-0.00244,-0.0386,-0.03296,-0.01205,-0.03174,-0.0502,-0.01022,-0.00137,-0.01984,-0.02228,-0.85449,-0.02991,-0.03235,-0.0174,0.00504,-0.02335
10.09,-0.00259,-0.03632,-0.03098,-0.01022,-0.03189,-0.04929,-0.00839,-0.00061,-0.01663,-0.02365,-0.85434,-0.03189,-0.03006,-0.01785,0.00488,-0.02579
10.0905,-0.00229,-0.03586,-0.02945,-0.009,-0.03067,-0.04684,-0.00687,-0.00092,-0.01434,-0.0267,-0.82687,-0.03036,-0.03113,-0.01801,0.00488,-0.02869
10.091,-0.00061,-0.03693,-0.02914,-0.00916,-0.03296,-0.04517,-0.0058,-0.00244,-0.0119,-0.0322,-0.79269,-0.0267,-0.03036,-0.01816,0.00595,-0.02914
10.0915,0.00031,-0.03845,-0.03036,-0.01007,-0.03189,-0.04562,-0.00519,-0.00366,-0.01068,-0.0351,-0.78339,-0.02335,-0.03006,-0.0206,0.00534,-0.0267
10.092,0.0,-0.03983,-0.03052,-0.00946,-0.03357,-0.04715,-0.00565,-0.00412,-0.01236,-0.03281,-0.80154,-0.0235,-0.03036,-0.02411,0.00488,-0.02487
10.0925,-0.00168,-0.04028,-0.02991,-0.01007,-0.03143,-0.04745,-0.00702,-0.00214,-0.01801,-0.02701,-0.82733,-0.0267,-0.03052,-0.02533,0.00504,-0.02487
10.093,-0.00275,-0.03983,-0.03098,-0.01068,-0.03128,-0.04623,-0.00763,0.0,-0.02396,-0.01892,-0.83603,-0.03128,-0.02975,-0.02441,0.00595,-0.02655
10.0935,-0.00305,-0.03906,-0.03189,-0.01144,-0.03006,-0.04517,-0.00748,0.00046,-0.03143,-0.01251,-0.81299,-0.03448,-0.02655,-0.0209,0.00687,-0.02792
10.094,-0.00198,-0.03876,-0.03357,-0.01205,-0.03098,-0.04517,-0.009,0.00076,-0.03799,-0.00946,-0.76553,-0.03494,-0.02487,-0.01694,0.00839,-0.02777
10.0945,-0.00168,-0.03891,-0.03433,-0.01114,-0.03159,-0.047,-0.01083,0.00183,-0.04425,-0.01099,-0.71518,-0.03143,-0.02411,-0.01358,0.0087,-0.02487
10.095,-0.00198,-0.03815,-0.03326,-0.01007,-0.03311,-0.04684,-0.01236,0.0029,-0.04883,-0.01434,-0.67062,-0.02426,-0.02274,-0.01099,0.0087,-0.0238
10.0955,-0.00153,-0.03693,-0.03265,-0.00977,-0.03387,-0.04639,-0.01236,0.00214,-0.05066,-0.00885,-0.62927,-0.01602,-0.02151,-0.00809,0.00809,-0.02502
10.096,-0.00122,-0.03662,-0.03189,-0.01114,-0.03342,-0.04593,-0.01068,0.0,-0.05066,0.01587,-0.60471,-0.00824,-0.0209,-0.00809,0.00824,-0.02823
10.0965,-0.00214,-0.03876,-0.03204,-0.01236,-0.03494,-0.04562,-0.00931,-0.00122,-0.04944,0.0444,-0.60928,-0.00305,-0.0209,-0.00946,0.00916,-0.0296
10.097,-0.00351,-0.0412,-0.03342,-0.01358,-0.03479,-0.04532,-0.00946,-0.00259,-0.04761,0.05112,-0.61844,-0.00336,-0.0209,-0.01144,0.01114,-0.02945
10.0975,-0.0058,-0.04089,-0.03448,-0.01389,-0.03326,-0.04623,-0.0119,-0.00381,-0.04623,0.02518,-0.58701,-0.0061,-0.02136,-0.01312,0.01205,-0.02777
10.098,-0.00778,-0.03967,-0.03525,-0.01312,-0.03159,-0.04898,-0.0148,-0.00443,-0.04547,-0.0119,-0.50537,-0.00702,-0.0235,-0.01419,0.01175,-0.02823
10.0985,-0.00778,-0.0386,-0.03662,-0.01083,-0.03082,-0.05051,-0.01404,-0.00244,-0.04257,-0.03387,-0.40054,-0.0058,-0.02594,-0.01511,0.01114,-0.03067
10.099,-0.00778,-0.03937,-0.03738,-0.009,-0.03113,-0.04944,-0.01312,0.00153,-0.03418,-0.04013,-0.29602,-0.00427,-0.02686,-0.01541,0.01099,-0.03418
10.0995,-0.00778,-0.0412,-0.03784,-0.00809,-0.03387,-0.04684,-0.0116,0.00473,-0.02441,-0.04242,-0.20477,-0.00473,-0.02563,-0.01434,0.01221,-0.03525
10.1,-0.00763,-0.04318,-0.03754,-0.009,-0.03342,-0.04517,-0.01144,0.00412,-0.01923,-0.04715,-0.1384,-0.0061,-0.02319,-0.01221,0.01419,-0.03464
10.1005,-0.00763,-0.04486,-0.03616,-0.01053,-0.03281,-0.04562,-0.01221,0.00015,-0.02151,-0.05066,-0.10498,-0.00916,-0.02304,-0.0119,0.0148,-0.03433
10.101,-0.00732,-0.04486,-0.0354,-0.01114,-0.03387,-0.047,-0.01251,-0.0029,-0.02823,-0.04898,-0.09232,-0.01129,-0.02502,-0.01236,0.0145,-0.0351
10.1015,-0.00732,-0.04395,-0.03387,-0.01022,-0.03357,-0.04745,-0.01099,-0.00351,-0.03372,-0.04425,-0.08087,-0.01373,-0.02777,-0.01358,0.01419,-0.03647
10.102,-0.00748,-0.04379,-0.03403,-0.00961,-0.03403,-0.04791,-0.01007,-0.00214,-0.03677,-0.03876,-0.05661,-0.01678,-0.02884,-0.01495,0.01419,-0.03677
10.1025,-0.00885,-0.04501,-0.03296,-0.00946,-0.03448,-0.04761,-0.01068,-0.00168,-0.03815,-0.03525,-0.01953,-0.01892,-0.02899,-0.01617,0.01419,-0.03647
10.103,-0.00885,-0.0444,-0.03387,-0.00961,-0.03204,-0.04715,-0.01251,-0.00168,-0.03891,-0.0325,0.01587,-0.01877,-0.02869,-0.01556,0.01312,-0.03876
10.1035,-0.00854,-0.04303,-0.03479,-0.009,-0.0325,-0.04623,-0.01175,-0.00183,-0.03967,-0.03143,0.04181,-0.01572,-0.02808,-0.0148,0.01175,-0.04105
10.104,-0.00931,-0.04211,-0.03586,-0.00946,-0.03265,-0.04608,-0.01007,-0.00275,-0.03998,-0.0325,0.06439,-0.01099,-0.02762,-0.01602,0.0116,-0.04211
10.1045,-0.00977,-0.0412,-0.0354,-0.01053,-0.03296,-0.04761,-0.00946,-0.00381,-0.03845,-0.03235,0.09033,-0.0061,-0.02869,-0.01938,0.01175,-0.0412
10.105,-0.01022,-0.0412,-0.0354,-0.01099,-0.0322,-0.04776,-0.01007,-0.00381,-0.03662,-0.02914,0.12146,-0.00412,-0.03052,-0.02197,0.01266,-0.04074
10.1055,-0.00946,-0.04089,-0.03647,-0.01205,-0.0322,-0.04776,-0.01068,-0.00488,-0.03357,-0.02289,0.14847,-0.00351,-0.03143,-0.02258,0.01312,-0.04166
10.106,-0.00839,-0.04135,-0.03769,-0.01343,-0.03235,-0.04745,-0.01068,-0.00641,-0.03235,-0.01999,0.16403,-0.0032,-0.02991,-0.02228,0.0119,-0.0412
10.1065,-0.00839,-0.04227,-0.03769,-0.01328,-0.03326,-0.04791,-0.01144,-0.00839,-0.03326,-0.02213,0.17258,-0.00244,-0.02884,-0.02274,0.00931,-0.04044
10.107,-0.00885,-0.04318,-0.03677,-0.01114,-0.03326,-0.04868,-0.01175,-0.00946,-0.03357,-0.02716,0.18036,-0.00122,-0.02975,-0.02365,0.00656,-0.04105
10.1075,-0.009,-0.04364,-0.03632,-0.00809,-0.03143,-0.04944,-0.01068,-0.00916,-0.03265,-0.03067,0.18448,-0.00244,-0.03098,-0.02441,0.00626,-0.04105
10.108,-0.00854,-0.04364,-0.0351,-0.00702,-0.02975,-0.04791,-0.009,-0.00763,-0.03021,-0.03082,0.18631,-0.00351,-0.03159,-0.02396,0.00763,-0.03967
10.1085,-0.00763,-0.04349,-0.03433,-0.00824,-0.02991,-0.04608,-0.00916,-0.00595,-0.03021,-0.02853,0.19073,-0.00244,-0.03006,-0.02426,0.009,-0.03738
10.109,-0.00641,-0.04288,-0.03448,-0.01114,-0.03113,-0.04517,-0.01053,-0.00595,-0.03113,-0.02731,0.20172,0.00015,-0.03113,-0.0238,0.01205,-0.03296
10.1095,-0.00412,-0.04135,-0.03464,-0.0119,-0.03128,-0.04456,-0.01022,-0.0058,-0.03113,-0.02975,0.21591,0.00412,-0.03296,-0.02365,0.01236,-0.0296
10.11,-0.0029,-0.03998,-0.03433,-0.0119,-0.03067,-0.04547,-0.00854,-0.00549,-0.02991,-0.03555,0.22949,0.00793,-0.03433,-0.0238,0.01282,-0.0267
10.1105,-0.00229,-0.03906,-0.03418,-0.01114,-0.03006,-0.04578,-0.00732,-0.00488,-0.02914,-0.03937,0.23956,0.0116,-0.03387,-0.02396,0.01236,-0.02457
10.111,-0.00275,-0.0386,-0.03387,-0.01114,-0.03036,-0.04562,-0.00641,-0.00458,-0.03036,-0.03586,0.25284,0.01358,-0.03159,-0.02335,0.01282,-0.02365
10.1115,-0.00259,-0.03937,-0.03387,-0.00992,-0.0322,-0.04501,-0.00702,-0.00381,-0.03159,-0.02731,0.27298,0.01389,-0.03113,-0.0209,0.01236,-0.02472
10.112,-0.00305,-0.04059,-0.03448,-0.00931,-0.03281,-0.04532,-0.00778,-0.00305,-0.03159,-0.0206,0.28946,0.01266,-0.03296,-0.01816,0.01114,-0.02655
10.1125,-0.00397,-0.04089,-0.03433,-0.00992,-0.03174,-0.04669,-0.00763,-0.00351,-0.03067,-0.01801,0.2919,0.01251,-0.03296,-0.01816,0.01007,-0.02731
10.113,-0.0058,-0.04013,-0.03265,-0.00992,-0.03067,-0.04639,-0.00824,-0.00488,-0.03113,-0.0174,0.27969,0.01572,-0.03052,-0.01877,0.00839,-0.02808
10.1135,-0.00595,-0.03906,-0.03159,-0.01083,-0.03128,-0.04562,-0.00946,-0.00641,-0.03387,-0.01633,0.26428,0.02106,-0.02884,-0.01999,0.00671,-0.02884
10.114,-0.00473,-0.03922,-0.03159,-0.00992,-0.03052,-0.04425,-0.01068,-0.00671,-0.03677,-0.01389,0.2565,0.02548,-0.03021,-0.02045,0.00519,-0.02838
10.1145,-0.00244,-0.03906,-0.03281,-0.00992,-0.02914,-0.04456,-0.01175,-0.00519,-0.0351,-0.01068,0.25604,0.02502,-0.03311,-0.01877,0.00336,-0.02808
10.115,-0.00076,-0.03906,-0.03479,-0.01007,-0.02747,-0.0444,-0.01373,-0.00443,-0.03174,-0.00793,0.25497,0.0209,-0.03387,-0.0177,0.00183,-0.02625
10.1155,-0.00168,-0.03906,-0.03586,-0.01129,-0.02716,-0.04517,-0.01495,-0.00519,-0.02777,-0.01068,0.24429,0.01678,-0.03403,-0.01877,0.00153,-0.02365
10.116,-0.00351,-0.04059,-0.03632,-0.01373,-0.02731,-0.04639,-0.0148,-0.00534,-0.0264,-0.0145,0.22461,0.01602,-0.03571,-0.01999,0.00259,-0.02045
10.1165,-0.00443,-0.04318,-0.03479,-0.01404,-0.02731,-0.04654,-0.01419,-0.00504,-0.02518,-0.01633,0.20691,0.01572,-0.03555,-0.0209,0.00153,-0.01938
10.117,-0.0061,-0.04486,-0.03433,-0.01297,-0.02731,-0.04593,-0.01389,-0.00443,-0.02441,-0.01511,0.20172,0.01282,-0.03479,-0.02136,0.00229,-0.02014
10.1175,-0.00793,-0.04456,-0.03418,-0.01144,-0.02823,-0.04501,-0.01312,-0.00443,-0.02594,-0.01251,0.20828,0.0087,-0.03418,-0.02228,0.00244,-0.02106
10.118,-0.00839,-0.04211,-0.03571,-0.009,-0.02869,-0.04501,-0.0119,-0.00488,-0.02853,-0.00946,0.21576,0.00671,-0.03616,-0.02228,0.0029,-0.01999
10.1185,-0.00854,-0.04044,-0.03616,-0.00793,-0.02823,-0.04425,-0.00992,-0.00519,-0.0293,-0.00885,0.21545,0.01022,-0.03769,-0.02228,0.00427,-0.01801
10.119,-0.00732,-0.04059,-0.0354,-0.00809,-0.02884,-0.04501,-0.0087,-0.00473,-0.02838,-0.01495,0.21133,0.01511,-0.03769,-0.02228,0.00397,-0.01846
10.1195,-0.00641,-0.04181,-0.03448,-0.00931,-0.02884,-0.04471,-0.00885,-0.00427,-0.02808,-0.0235,0.21637,0.01663,-0.03571,-0.02167,0.00275,-0.02121
10.12,-0.0061,-0.0412,-0.03525,-0.01007,-0.0293,-0.04532,-0.01038,-0.00366,-0.02899,-0.02991,0.24612,0.01297,-0.03418,-0.02014,0.00381,-0.0238
10.1205,-0.00534,-0.03952,-0.03433,-0.01007,-0.02945,-0.04578,-0.01282,-0.00305,-0.03113,-0.03036,0.29556,0.00671,-0.03448,-0.01831,0.00381,-0.02472
10.121,-0.00412,-0.03891,-0.03296,-0.00931,-0.03021,-0.04623,-0.0145,-0.00244,-0.03601,-0.02747,0.34424,0.00198,-0.0351,-0.01709,0.0032,-0.0235
10.1215,-0.00259,-0.03937,-0.03174,-0.00778,-0.03098,-0.04486,-0.01312,-0.0032,-0.04028,-0.02777,0.3862,0.00565,-0.03616,-0.01694,0.00229,-0.02213
10.122,-0.00092,-0.04013,-0.03159,-0.00809,-0.03036,-0.04379,-0.01083,-0.00259,-0.04395,-0.03098,0.42145,0.01465,-0.03723,-0.01755,0.00137,-0.02151
10.1225,0.0,-0.04013,-0.03143,-0.01068,-0.02884,-0.04364,-0.01022,-0.00137,-0.04471,-0.03113,0.44937,0.02365,-0.03723,-0.0174,0.00076,-0.02228
10.123,-0.00031,-0.04013,-0.03174,-0.01282,-0.02777,-0.04456,-0.01297,-0.00015,-0.04242,-0.02594,0.45059,0.02808,-0.03571,-0.01709,0.0,-0.02228
10.1235,-0.00198,-0.04013,-0.0322,-0.01221,-0.02853,-0.04608,-0.01617,-0.00061,-0.0351,-0.01495,0.42175,0.02914,-0.03357,-0.0174,-0.00031,-0.02228
10.124,-0.00351,-0.04074,-0.03387,-0.01083,-0.03036,-0.04776,-0.01648,-0.0029,-0.02304,-0.00473,0.3772,0.02899,-0.0322,-0.01846,0.00076,-0.02258
10.1245,-0.00381,-0.04089,-0.03387,-0.00992,-0.03189,-0.05005,-0.01434,-0.00443,-0.01114,0.00183,0.33646,0.02869,-0.03265,-0.01648,0.00244,-0.02258
10.125,-0.00381,-0.04059,-0.03479,-0.009,-0.0325,-0.05035,-0.01373,-0.00305,-0.00275,0.00153,0.30655,0.03082,-0.03494,-0.01465,0.00336,-0.02182
10.1255,-0.00473,-0.04196,-0.0351,-0.01022,-0.0325,-0.04837,-0.01633,0.0,0.00107,-0.00458,0.27969,0.03815,-0.03571,-0.01251,0.00259,-0.01907
10.126,-0.0061,-0.04318,-0.03464,-0.01114,-0.03143,-0.04593,-0.01953,0.00183,0.00443,-0.01007,0.25421,0.04776,-0.03479,-0.01343,0.00198,-0.01709
10.1265,-0.00732,-0.04379,-0.0351,-0.01068,-0.03082,-0.04547,-0.02045,0.00229,0.00763,-0.01526,0.23636,0.0531,-0.03448,-0.01617,0.00275,-0.01724
10.127,-0.00763,-0.04349,-0.0351,-0.00916,-0.03036,-0.04639,-0.01831,0.00046,0.00961,-0.01968,0.23254,0.04349,-0.03479,-0.01862,0.00427,-0.01938
10.1275,-0.00717,-0.04181,-0.03479,-0.00763,-0.02975,-0.04852,-0.01617,-0.00122,0.00626,-0.02411,0.23499,0.01343,-0.03555,-0.01907,0.00641,-0.02121
10.128,-0.00671,-0.04028,-0.03479,-0.00748,-0.0296,-0.04852,-0.01556,-0.00168,0.00031,-0.02594,0.23697,-0.02304,-0.03494,-0.01923,0.00748,-0.02151
10.1285,-0.00809,-0.04074,-0.03601,-0.00793,-0.03159,-0.04745,-0.01633,0.00061,-0.0061,-0.02335,0.23163,-0.03891,-0.03342,-0.01877,0.00824,-0.02182
10.129,-0.01114,-0.04089,-0.03647,-0.00946,-0.03143,-0.0473,-0.0174,0.00305,-0.01038,-0.01694,0.22003,-0.02243,-0.03418,-0.01801,0.00916,-0.02243
10.1295,-0.01358,-0.04227,-0.03647,-0.01038,-0.03372,-0.04684,-0.01755,0.0029,-0.01114,-0.01434,0.20477,0.00519,-0.03525,-0.01801,0.00946,-0.02365
10.13,-0.01312,-0.04364,-0.03433,-0.00992,-0.03418,-0.047,-0.01678,0.00061,-0.00916,-0.01709,0.19211,0.01755,-0.03387,-0.01801,0.00992,-0.02472
10.1305,-0.01144,-0.04364,-0.03387,-0.00931,-0.03525,-0.0473,-0.01511,-0.00046,-0.00793,-0.02411,0.18723,0.01434,-0.03159,-0.0177,0.00793,-0.02701
10.131,-0.01022,-0.04242,-0.0354,-0.00778,-0.03387,-0.047,-0.01465,0.00092,-0.00717,-0.02914,0.18417,0.01083,-0.02899,-0.01694,0.00824,-0.02945
10.1315,-0.00992,-0.04181,-0.03571,-0.00778,-0.03403,-0.04837,-0.0148,0.00229,-0.00671,-0.0296,0.17807,0.0174,-0.02792,-0.01556,0.00732,-0.03113
10.132,-0.00931,-0.04105,-0.03647,-0.0087,-0.03082,-0.04684,-0.01617,0.00275,-0.00732,-0.02655,0.1712,0.02716,-0.0293,-0.01465,0.00824,-0.03128
10.1325,-0.00824,-0.04044,-0.03769,-0.00977,-0.02869,-0.04562,-0.01633,0.00214,-0.00687,-0.02426,0.16754,0.02914,-0.03113,-0.01617,0.00885,-0.03159
10.133,-0.00763,-0.03906,-0.0383,-0.00854,-0.02792,-0.04623,-0.01602,0.00259,-0.00473,-0.02411,0.16479,0.01495,-0.0322,-0.01709,0.00961,-0.03265
10.1335,-0.00824,-0.03815,-0.03754,-0.00671,-0.02777,-0.04593,-0.01434,0.00351,0.0,-0.02045,0.16373,-0.01129,-0.03235,-0.01678,0.01022,-0.03494
10.134,-0.00809,-0.03784,-0.03799,-0.00687,-0.03098,-0.04608,-0.01465,0.00168,0.0058,-0.01114,0.16617,-0.03448,-0.03204,-0.01495,0.009,-0.03677
10.1345,-0.00748,-0.03937,-0.03708,-0.00702,-0.03067,-0.04715,-0.01648,0.00015,0.01053,-0.00137,0.16922,-0.04608,-0.03265,-0.01373,0.00854,-0.03677
10.135,-0.00595,-0.04089,-0.0354,-0.00778,-0.03021,-0.04669,-0.01862,-0.00031,0.01221,0.00381,0.17044,-0.05432,-0.03342,-0.0148,0.00885,-0.0383
10.1355,-0.0061,-0.04288,-0.0351,-0.00702,-0.03098,-0.04791,-0.02014,0.0,0.01175,0.00519,0.17014,-0.07294,-0.03372,-0.01694,0.01022,-0.03922
10.136,-0.00671,-0.04456,-0.03525,-0.00641,-0.03265,-0.04791,-0.01968,0.00061,0.00931,0.00595,0.16953,-0.09781,-0.03479,-0.01862,0.01068,-0.0412
10.1365,-0.00717,-0.04456,-0.03571,-0.00824,-0.0354,-0.04837,-0.02045,0.00046,0.00732,0.00809,0.16266,-0.11246,-0.03571,-0.02014,0.01144,-0.04272
10.137,-0.00641,-0.04364,-0.03784,-0.01038,-0.03616,-0.04913,-0.02167,0.00092,0.00641,0.00916,0.15152,-0.10788,-0.03571,-0.02167,0.01144,-0.04395
10.1375,-0.0058,-0.04395,-0.0383,-0.00885,-0.03418,-0.05127,-0.02274,0.00092,0.00702,0.00671,0.13763,-0.08896,-0.03448,-0.02167,0.01221,-0.04532
10.138,-0.00549,-0.04517,-0.03723,-0.00854,-0.03174,-0.05112,-0.02304,0.00031,0.0087,0.00137,0.11932,-0.06317,-0.03326,-0.01968,0.01114,-0.04501
10.1385,-0.00549,-0.04471,-0.03662,-0.00854,-0.03021,-0.05051,-0.02411,-0.00015,0.00977,-0.00488,0.09872,-0.03708,-0.03235,-0.01862,0.01038,-0.04547
10.139,-0.00488,-0.04272,-0.03525,-0.00824,-0.03006,-0.04898,-0.02319,-0.00244,0.0061,-0.01221,0.08041,-0.02151,-0.03311,-0.01846,0.00992,-0.0473
10.1395,-0.00351,-0.04044,-0.03204,-0.00671,-0.02869,-0.04807,-0.02228,-0.00366,-0.00259,-0.01923,0.07278,-0.01129,-0.03387,-0.0177,0.00992,-0.0473
10.14,-0.00336,-0.03891,-0.03036,-0.00488,-0.02853,-0.04791,-0.02106,-0.00443,-0.01373,-0.02182,0.08331,0.01495,-0.03342,-0.01617,0.01068,-0.04593
10.1405,-0.00381,-0.0386,-0.0322,-0.00519,-0.03098,-0.04639,-0.01984,-0.0032,-0.02197,-0.02136,0.10666,0.06256,-0.03265,-0.01709,0.01129,-0.04578
10.141,-0.00427,-0.03937,-0.03189,-0.00519,-0.03189,-0.04623,-0.01923,-0.00122,-0.0267,-0.01999,0.12299,0.09933,-0.03281,-0.01877,0.01083,-0.04822
10.1415,-0.00198,-0.03906,-0.03174,-0.00549,-0.03067,-0.04623,-0.01862,0.00122,-0.02441,-0.0209,0.1181,0.09964,-0.03143,-0.01831,0.01007,-0.05249
10.142,-0.00015,-0.03815,-0.0322,-0.00549,-0.02792,-0.04456,-0.01846,0.00168,-0.01862,-0.02396,0.09827,0.07996,-0.03113,-0.01602,0.01068,-0.05508
10.1425,0.00122,-0.03784,-0.03372,-0.00717,-0.02747,-0.04501,-0.01709,0.00046,-0.0119,-0.02716,0.07553,0.06882,-0.02975,-0.01389,0.01053,-0.05539
10.143,0.00168,-0.03876,-0.03464,-0.00854,-0.02899,-0.04715,-0.01587,-0.00031,-0.0061,-0.02609,0.05981,0.06927,-0.0296,-0.01434,0.01038,-0.05417
10.1435,0.00244,-0.03876,-0.03479,-0.00885,-0.02884,-0.04929,-0.01633,0.00031,-0.00305,-0.01984,0.0502,0.06241,-0.03128,-0.01678,0.00931,-0.05417
10.144,0.0029,-0.03845,-0.03403,-0.0087,-0.02838,-0.05051,-0.01785,0.00092,-0.00275,-0.01663,0.04562,0.04364,-0.03342,-0.01968,0.00885,-0.0563
10.1445,0.00198,-0.0386,-0.03296,-0.00931,-0.02777,-0.0499,-0.01907,-0.00137,-0.00519,-0.01816,0.04227,0.02533,-0.0351,-0.02304,0.01007,-0.05875
10.145,0.00168,-0.03998,-0.03265,-0.01038,-0.02914,-0.04913,-0.02029,-0.00443,-0.00671,-0.02151,0.03586,0.02197,-0.03571,-0.0267,0.01022,-0.06058
10.1455,0.00076,-0.04028,-0.03372,-0.01038,-0.02991,-0.04822,-0.02014,-0.00412,-0.00381,-0.02304,0.02457,0.03296,-0.0351,-0.02777,0.0119,-0.05905
10.146,0.00107,-0.04028,-0.03448,-0.00931,-0.03036,-0.04929,-0.01907,-0.00198,0.00549,-0.02365,0.00992,0.04059,-0.03479,-0.02625,0.0119,-0.05875
10.1465,0.00046,-0.03906,-0.03403,-0.00839,-0.0293,-0.04898,-0.01984,-0.00153,0.01617,-0.02365,0.00122,0.02808,-0.03342,-0.02335,0.01007,-0.05661
10.147,0.00046,-0.03967,-0.03311,-0.00854,-0.02853,-0.04791,-0.01892,-0.00183,0.0235,-0.02472,0.0029,-0.00153,-0.03235,-0.02274,0.01068,-0.0563
10.1475,-0.00031,-0.04074,-0.03189,-0.00824,-0.02686,-0.047,-0.01801,-0.00183,0.02548,-0.02716,0.00626,-0.02991,-0.03311,-0.0235,0.01114,-0.05585
10.148,0.0,-0.04105,-0.03128,-0.00778,-0.02655,-0.04562,-0.01602,-0.00061,0.02533,-0.02838,-0.00977,-0.04623,-0.0351,-0.02289,0.01144,-0.05615
10.1485,-0.00015,-0.04059,-0.03326,-0.00824,-0.02731,-0.04684,-0.01419,0.00015,0.0235,-0.02548,-0.03845,-0.05585,-0.03632,-0.02197,0.01038,-0.05737
10.149,-0.00214,-0.03983,-0.0351,-0.01038,-0.02884,-0.04852,-0.01358,0.00015,0.01984,-0.02014,-0.05234,-0.06638,-0.03555,-0.02106,0.009,-0.06027
10.1495,-0.00458,-0.03876,-0.03693,-0.01114,-0.03021,-0.04822,-0.01328,0.0,0.01617,-0.0145,-0.05066,-0.07507,-0.03403,-0.02075,0.00931,-0.06149
10.15,-0.00412,-0.03967,-0.03616,-0.00992,-0.03098,-0.04639,-0.01434,0.00137,0.01495,-0.01205,-0.05081,-0.07141,-0.0322,-0.01984,0.01205,-0.06622
10.1505,-0.00488,-0.04013,-0.03403,-0.00885,-0.03159,-0.04654,-0.01495,0.00259,0.01434,-0.01114,-0.06439,-0.05524,-0.03189,-0.01984,0.01389,-0.08713
10.151,-0.00687,-0.04044,-0.03296,-0.00977,-0.0322,-0.047,-0.01389,0.0029,0.01358,-0.01236,-0.08255,-0.03677,-0.03265,-0.01938,0.01282,-0.13336
10.1515,-0.01007,-0.04074,-0.03418,-0.01114,-0.03403,-0.04654,-0.01266,0.00198,0.01175,-0.01617,-0.09369,-0.02823,-0.0325,-0.01999,0.01099,-0.18158
10.152,-0.01175,-0.04227,-0.03662,-0.01099,-0.03586,-0.04639,-0.01114,-0.00015,0.00916,-0.02014,-0.09628,-0.02518,-0.03174,-0.01862,0.00916,-0.18616
10.1525,-0.01129,-0.04318,-0.03754,-0.00992,-0.03555,-0.04684,-0.0116,-0.00107,0.00854,-0.02151,-0.0972,-0.00671,-0.02945,-0.01648,0.00885,-0.13092
10.153,-0.00916,-0.04364,-0.03616,-0.00854,-0.03448,-0.04837,-0.01251,-0.00031,0.01007,-0.02335,-0.10635,0.03815,-0.02777,-0.01511,0.00931,-0.05127
10.1535,-0.00824,-0.04257,-0.03464,-0.00656,-0.03342,-0.04929,-0.01312,0.0,0.01312,-0.02487,-0.11856,0.09033,-0.02808,-0.01389,0.00931,0.00626
10.154,-0.00885,-0.0412,-0.03448,-0.00549,-0.0354,-0.05051,-0.01266,0.00015,0.01633,-0.02609,-0.12543,0.1236,-0.03021,-0.01358,0.00946,0.0267
10.1545,-0.00961,-0.04089,-0.03479,-0.0058,-0.03662,-0.05035,-0.01266,0.0,0.01648,-0.02441,-0.12451,0.12146,-0.0322,-0.01511,0.009,0.02579
10.155,-0.00931,-0.04059,-0.03616,-0.00626,-0.03616,-0.04913,-0.01419,0.00046,0.01312,-0.02274,-0.11353,0.09079,-0.03174,-0.01694,0.01053,0.01755
10.1555,-0.00793,-0.04196,-0.03662,-0.00763,-0.03357,-0.04791,-0.01587,-0.00015,0.00565,-0.02274,-0.1004,0.0528,-0.03098,-0.01724,0.01053,0.00565
10.156,-0.00626,-0.04166,-0.03632,-0.00839,-0.0354,-0.04898,-0.01724,-0.00275,-0.00336,-0.02609,-0.08835,0.0238,-0.03113,-0.01694,0.00916,-0.00946
10.1565,-0.0058,-0.0412,-0.03571,-0.00854,-0.03647,-0.05081,-0.01831,-0.00397,-0.0119,-0.03052,-0.08499,0.00916,-0.03174,-0.01709,0.00687,-0.02701
10.157,-0.00656,-0.04059,-0.0354,-0.00961,-0.03693,-0.05157,-0.0177,-0.00336,-0.0177,-0.03326,-0.08911,0.00305,-0.03174,-0.01785,0.00595,-0.04471
10.1575,-0.0061,-0.04074,-0.03494,-0.01022,-0.03632,-0.05112,-0.01648,-0.00214,-0.02045,-0.03433,-0.09232,-0.00122,-0.03174,-0.01892,0.00473,-0.05615
10.158,-0.00366,-0.0415,-0.03372,-0.01083,-0.03616,-0.04898,-0.0148,-0.00275,-0.02182,-0.03403,-0.08972,-0.00778,-0.03311,-0.02045,0.00443,-0.06027
10.1585,-0.00137,-0.04074,-0.0322,-0.00961,-0.03586,-0.04852,-0.01541,-0.00336,-0.02136,-0.03082,-0.08911,-0.01221,-0.03342,-0.02045,0.00412,-0.05951
10.159,-0.00122,-0.04044,-0.03235,-0.00824,-0.0351,-0.04929,-0.01648,-0.00153,-0.01938,-0.02441,-0.09766,-0.0145,-0.03342,-0.02136,0.00504,-0.05646
10.1595,-0.00229,-0.03906,-0.03357,-0.00656,-0.03372,-0.04807,-0.01785,0.00122,-0.01709,-0.01678,-0.11002,-0.01495,-0.03265,-0.02304,0.00687,-0.05463
10.16,-0.0029,-0.03769,-0.03281,-0.00549,-0.03265,-0.0473,-0.01648,0.0032,-0.01556,-0.01434,-0.12375,-0.01572,-0.0322,-0.02396,0.01007,-0.05676
10.1605,-0.0029,-0.03784,-0.03098,-0.00504,-0.03296,-0.047,-0.01526,0.00397,-0.01877,-0.01129,-0.12955,-0.0209,-0.03189,-0.02319,0.01144,-0.05859
10.161,-0.00275,-0.04028,-0.03067,-0.00473,-0.0322,-0.04669,-0.01526,0.00351,-0.02441,-0.00595,-0.12436,-0.03098,-0.03143,-0.02075,0.00992,-0.0592
10.1615,-0.00183,-0.04211,-0.03265,-0.00473,-0.03174,-0.04639,-0.01678,0.00137,-0.0296,0.00153,-0.11612,-0.04379,-0.03143,-0.01892,0.0087,-0.05829
10.162,-0.00198,-0.04181,-0.03601,-0.00488,-0.03189,-0.04593,-0.01801,0.00092,-0.0296,0.00534,-0.1088,-0.03799,-0.0322,-0.01816,0.00717,-0.05676
10.1625,-0.00305,-0.0412,-0.03632,-0.00397,-0.03098,-0.04608,-0.01755,-0.00076,-0.02243,0.00214,-0.10162,0.01694,-0.0325,-0.01709,0.00732,-0.05524
10.163,-0.00381,-0.04059,-0.03464,-0.00336,-0.03082,-0.04669,-0.01602,-0.00183,-0.00778,-0.0029,-0.09705,0.11505,-0.03311,-0.01465,0.00748,-0.0589
10.1635,-0.00458,-0.04105,-0.03296,-0.0032,-0.03189,-0.04654,-0.01465,-0.0029,0.0087,-0.00519,-0.09827,0.18509,-0.03372,-0.01419,0.00656,-0.0592
10.164,-0.00519,-0.04242,-0.03326,-0.00336,-0.03265,-0.04761,-0.01617,-0.00351,0.02151,-0.00153,-0.10162,0.16937,-0.03433,-0.01709,0.00549,-0.05951
10.1645,-0.00504,-0.04242,-0.03601,-0.00427,-0.03265,-0.04837,-0.01801,-0.00412,0.02869,0.00351,-0.09857,0.09521,-0.03464,-0.02029,0.00519,-0.05844
10.165,-0.00488,-0.04257,-0.03769,-0.00427,-0.03265,-0.04822,-0.01907,-0.00443,0.03128,0.00748,-0.09445,0.03738,-0.0351,-0.02045,0.00641,-0.06073
10.1655,-0.00488,-0.04211,-0.03723,-0.00565,-0.03174,-0.04822,-0.01801,-0.00534,0.02701,0.00854,-0.09338,0.01205,-0.03311,-0.01801,0.00778,-0.06378
10.166,-0.00534,-0.04166,-0.03571,-0.00793,-0.03174,-0.04776,-0.0174,-0.00443,0.01541,0.00519,-0.08804,-0.01694,-0.03159,-0.01556,0.00809,-0.06516
10.1665,-0.00504,-0.04166,-0.03479,-0.00931,-0.03189,-0.047,-0.0174,-0.00412,-0.00168,-0.00107,-0.08453,-0.05722,-0.03159,-0.01495,0.00809,-0.06699
10.167,-0.00504,-0.04166,-0.03387,-0.00961,-0.03235,-0.04715,-0.01755,-0.00397,-0.01862,-0.0061,-0.08743,-0.07889,-0.03296,-0.01602,0.00809,-0.06638
10.1675,-0.00412,-0.04242,-0.03433,-0.0087,-0.03159,-0.04776,-0.0177,-0.00351,-0.03174,-0.009,-0.10086,-0.06744,-0.03403,-0.01724,0.00916,-0.06577
10.168,-0.0029,-0.04227,-0.0351,-0.00931,-0.03067,-0.04807,-0.0174,-0.00381,-0.04395,-0.01038,-0.11475,-0.04227,-0.03525,-0.01862,0.00809,-0.06699
10.1685,-0.0029,-0.04089,-0.03433,-0.01175,-0.02975,-0.04837,-0.01709,-0.00412,-0.0563,-0.01129,-0.12253,-0.02274,-0.03555,-0.01892,0.00732,-0.06882
10.169,-0.00259,-0.04074,-0.03403,-0.01495,-0.02838,-0.04868,-0.01617,-0.00519,-0.06714,-0.01282,-0.12512,-0.0061,-0.03464,-0.01907,0.00656,-0.07019
10.1695,-0.00229,-0.03952,-0.03265,-0.01816,-0.02747,-0.04761,-0.01465,-0.00565,-0.07416,-0.01419,-0.14069,0.00763,-0.03403,-0.01862,0.00778,-0.06744
10.17,-0.00153,-0.03876,-0.03204,-0.01678,-0.0264,-0.04837,-0.01419,-0.00549,-0.07629,-0.0145,-0.16953,0.00839,-0.03342,-0.01831,0.01038,-0.06393
10.1705,-0.00153,-0.03769,-0.03235,-0.01526,-0.02609,-0.04868,-0.01465,-0.00519,-0.07019,-0.01251,-0.19821,-0.00671,-0.03433,-0.01862,0.01068,-0.06241
10.171,-0.00107,-0.03799,-0.03281,-0.01282,-0.02441,-0.04807,-0.01495,-0.00504,-0.05402,-0.00992,-0.21271,-0.0174,-0.03525,-0.01892,0.01068,-0.06073
10.1715,-0.00076,-0.03876,-0.0325,-0.01099,-0.02319,-0.04898,-0.01511,-0.0058,-0.03235,-0.01083,-0.21423,0.00076,-0.03372,-0.01755,0.01114,-0.05905
10.172,-0.00061,-0.03876,-0.03189,-0.01053,-0.02411,-0.04883,-0.0145,-0.00656,-0.01221,-0.01373,-0.20935,0.04822,-0.0322,-0.01648,0.01114,-0.05783
10.1725,-0.00122,-0.03891,-0.03204,-0.01205,-0.02609,-0.04852,-0.01511,-0.00595,0.0,-0.01633,-0.19791,0.09369,-0.03052,-0.01663,0.01007,-0.05814
10.173,-0.00259,-0.03998,-0.03159,-0.01572,-0.02594,-0.04868,-0.01495,-0.00488,0.00168,-0.01785,-0.18127,0.10452,-0.03021,-0.01556,0.00977,-0.05859
10.1735,-0.00381,-0.04135,-0.0322,-0.01938,-0.02487,-0.0473,-0.01541,-0.00473,-0.00366,-0.02014,-0.16769,0.07553,-0.03006,-0.01434,0.01038,-0.06165
10.174,-0.00473,-0.04135,-0.03281,-0.02075,-0.02319,-0.04791,-0.01694,-0.00473,-0.01175,-0.02472,-0.15182,0.03601,-0.03021,-0.01404,0.01099,-0.06088
10.1745,-0.00427,-0.04059,-0.03342,-0.01755,-0.02319,-0.04807,-0.02029,-0.00397,-0.01831,-0.03036,-0.12283,0.01602,-0.03143,-0.01617,0.01022,-0.05875
10.175,-0.00397,-0.0386,-0.03403,-0.01022,-0.02594,-0.04791,-0.02258,-0.00473,-0.02441,-0.03632,-0.09369,0.01892,-0.03235,-0.01816,0.01068,-0.0563
10.1755,-0.00488,-0.03845,-0.0351,-0.00351,-0.02731,-0.04898,-0.02151,-0.00549,-0.03067,-0.0415,-0.07828,0.02518,-0.03174,-0.01892,0.01099,-0.05524
10.176,-0.00595,-0.03937,-0.03754,-0.00473,-0.02747,-0.04837,-0.01938,-0.00626,-0.03769,-0.04486,-0.07294,0.02136,-0.03143,-0.01892,0.01099,-0.05447
10.1765,-0.0058,-0.0415,-0.03876,-0.01099,-0.02655,-0.04822,-0.01801,-0.00641,-0.04257,-0.0473,-0.06348,0.00626,-0.0322,-0.01877,0.01022,-0.05371
10.177,-0.00397,-0.0415,-0.03815,-0.0116,-0.0267,-0.04654,-0.01907,-0.00534,-0.0444,-0.04669,-0.04913,-0.0174,-0.03296,-0.01816,0.00854,-0.05478
10.1775,-0.00336,-0.0412,-0.03571,-0.00183,-0.02884,-0.04578,-0.01923,-0.00519,-0.04501,-0.04288,-0.03311,-0.04776,-0.03281,-0.01755,0.00748,-0.05676
10.178,-0.00427,-0.04059,-0.03433,0.0087,-0.03082,-0.04608,-0.01816,-0.00534,-0.04761,-0.03571,-0.02243,-0.07904,-0.03128,-0.01846,0.009,-0.05814
10.1785,-0.00519,-0.03967,-0.03387,0.01175,-0.03082,-0.04684,-0.01801,-0.00671,-0.05295,-0.0267,-0.01266,-0.09949,-0.03036,-0.01892,0.009,-0.05539
10.179,-0.00549,-0.03906,-0.03326,0.00946,-0.03052,-0.047,-0.01755,-0.00763,-0.05646,-0.0177,-0.00793,-0.1123,-0.03067,-0.01862,0.0087,-0.05219
10.1795,-0.00565,-0.03891,-0.03174,0.00885,-0.03067,-0.04562,-0.01663,-0.00687,-0.05539,-0.01068,-0.02289,-0.12848,-0.03189,-0.0177,0.00854,-0.05096
10.18,-0.00626,-0.03922,-0.03067,0.00931,-0.03052,-0.04395,-0.01633,-0.00641,-0.05203,-0.00748,-0.06683,-0.14252,-0.03174,-0.01755,0.01099,-0.0499
10.1805,-0.00748,-0.03998,-0.03067,-0.00214,-0.03128,-0.04364,-0.01602,-0.0061,-0.04776,-0.0058,-0.12115,-0.14023,-0.03174,-0.01801,0.01373,-0.04929
10.181,-0.00702,-0.03952,-0.03128,-0.02914,-0.03052,-0.04364,-0.01526,-0.00656,-0.04303,-0.00519,-0.15625,-0.12085,-0.03174,-0.0174,0.01419,-0.04654
10.1815,-0.00534,-0.04028,-0.03281,-0.0618,-0.03006,-0.04364,-0.01404,-0.00595,-0.03845,-0.00351,-0.16846,-0.10223,-0.03128,-0.01633,0.01373,-0.04684
10.182,-0.0061,-0.0415,-0.03433,-0.08194,-0.03143,-0.04425,-0.01251,-0.00488,-0.03464,-0.00381,-0.17044,-0.09293,-0.02991,-0.0148,0.01266,-0.04837
10.1825,-0.00702,-0.04196,-0.03571,-0.08209,-0.03143,-0.04425,-0.01419,-0.00473,-0.03281,-0.00687,-0.17395,-0.07202,-0.03098,-0.01358,0.01144,-0.04852
10.183,-0.00732,-0.04028,-0.03647,-0.06393,-0.03174,-0.04379,-0.01602,-0.00534,-0.03281,-0.01083,-0.17883,-0.01999,-0.03311,-0.01205,0.01328,-0.04669
10.1835,-0.0058,-0.04044,-0.03586,-0.047,-0.0322,-0.04364,-0.01633,-0.00641,-0.03265,-0.01282,-0.18982,0.05035,-0.03433,-0.01266,0.01282,-0.04379
10.184,-0.00504,-0.04074,-0.03433,-0.05508,-0.03265,-0.04486,-0.0148,-0.00732,-0.03098,-0.01404,-0.20294,0.10651,-0.03357,-0.01526,0.01205,-0.04257
10.1845,-0.00473,-0.04211,-0.03418,-0.09796,-0.03281,-0.04669,-0.01373,-0.00732,-0.02655,-0.0174,-0.20523,0.12299,-0.03418,-0.01877,0.01022,-0.04318
10.185,-0.00427,-0.04257,-0.03357,-0.14648,-0.03403,-0.04745,-0.01373,-0.00732,-0.02045,-0.02579,-0.19485,0.10147,-0.03448,-0.02014,0.00839,-0.04532
10.1855,-0.0029,-0.04105,-0.03372,-0.14755,-0.03403,-0.04639,-0.01541,-0.00671,-0.0145,-0.03555,-0.19623,0.06348,-0.03433,-0.01907,0.00793,-0.04593
10.186,-0.00137,-0.03998,-0.03372,-0.07889,-0.03342,-0.04532,-0.01678,-0.00641,-0.00946,-0.0444,-0.21057,0.03403,-0.03265,-0.01755,0.00732,-0.04517
10.1865,-0.00122,-0.04135,-0.03357,0.03143,-0.03281,-0.04517,-0.0177,-0.0058,-0.00717,-0.04822,-0.2269,0.02228,-0.03159,-0.01907,0.00717,-0.047
10.187,-0.00153,-0.04288,-0.03098,0.12375,-0.03235,-0.04456,-0.01678,-0.00351,-0.009,-0.04837,-0.22568,0.01862,-0.03296,-0.02136,0.00626,-0.04807
10.1875,-0.00198,-0.04272,-0.03189,0.16586,-0.0322,-0.04227,-0.01617,-0.00122,-0.01556,-0.04501,-0.20981,0.01373,-0.03571,-0.02197,0.00732,-0.04852
10.188,-0.00183,-0.04211,-0.03174,0.17365,-0.03311,-0.04074,-0.01633,-0.00168,-0.02319,-0.0412,-0.19424,0.00961,-0.03662,-0.01999,0.00824,-0.04807
10.1885,-0.0029,-0.04196,-0.03235,0.17944,-0.03265,-0.04166,-0.0174,-0.0029,-0.02914,-0.03937,-0.18921,0.01083,-0.03632,-0.01801,0.00778,-0.0473
10.189,-0.00229,-0.04303,-0.03342,0.18555,-0.03281,-0.04456,-0.0177,-0.00458,-0.03006,-0.03998,-0.18677,0.01358,-0.0351,-0.01953,0.00717,-0.04318
10.1895,-0.00214,-0.04349,-0.03448,0.16876,-0.03204,-0.04593,-0.01801,-0.00687,-0.02716,-0.04166,-0.18021,0.01358,-0.03342,-0.02136,0.00702,-0.04135
10.19,-0.00168,-0.04181,-0.03418,0.11429,-0.03204,-0.04578,-0.01862,-0.0087,-0.02502,-0.04379,-0.16998,0.01083,-0.0322,-0.02335,0.00748,-0.04013
10.1905,-0.00122,-0.03967,-0.03387,0.04089,-0.03326,-0.04517,-0.0206,-0.01038,-0.02792,-0.04303,-0.16388,0.00809,-0.03052,-0.02258,0.0087,-0.04318
10.191,-0.00214,-0.03784,-0.03403,-0.01114,-0.03357,-0.04608,-0.02014,-0.01038,-0.03052,-0.03738,-0.1622,0.00534,-0.0296,-0.0206,0.00977,-0.04547
10.1915,-0.00381,-0.03799,-0.03296,-0.03113,-0.03326,-0.04715,-0.01846,-0.00992,-0.02945,-0.02411,-0.15701,0.00183,-0.02884,-0.01816,0.00977,-0.04623
10.192,-0.00626,-0.03967,-0.03311,-0.03571,-0.03357,-0.04791,-0.01556,-0.00809,-0.02487,-0.00488,-0.14999,-0.00061,-0.02823,-0.0174,0.01007,-0.04501
10.1925,-0.0087,-0.04166,-0.03357,-0.04776,-0.03448,-0.04959,-0.01373,-0.00763,-0.02121,0.01343,-0.14282,-0.00046,-0.02762,-0.01755,0.00931,-0.04272
10.193,-0.01007,-0.0415,-0.0354,-0.06454,-0.03448,-0.05051,-0.01389,-0.00763,-0.01907,0.01999,-0.13962,0.00122,-0.02808,-0.01968,0.00992,-0.04181
10.1935,-0.01053,-0.0415,-0.03738,-0.07538,-0.03342,-0.05112,-0.01465,-0.00732,-0.01923,0.01297,-0.13779,0.00397,-0.02945,-0.02136,0.00961,-0.04303
10.194,-0.01099,-0.04196,-0.03738,-0.07614,-0.03265,-0.05051,-0.01511,-0.00641,-0.01953,-0.00168,-0.13351,0.00656,-0.0322,-0.02228,0.0087,-0.0412
10.1945,-0.01007,-0.04227,-0.03723,-0.07019,-0.03174,-0.0499,-0.01556,-0.0058,-0.01831,-0.01511,-0.12527,0.00641,-0.03311,-0.02167,0.00931,-0.03983
10.195,-0.00854,-0.04211,-0.03632,-0.05753,-0.03143,-0.04974,-0.01633,-0.00671,-0.01511,-0.02213,-0.11612,0.00168,-0.03159,-0.02014,0.00977,-0.03677
10.1955,-0.00549,-0.04166,-0.03601,-0.03708,-0.03159,-0.04913,-0.01617,-0.00702,-0.01221,-0.0238,-0.10666,-0.00549,-0.03052,-0.01907,0.00946,-0.04013
10.196,-0.00427,-0.04166,-0.03464,-0.01434,-0.03235,-0.04944,-0.01541,-0.00778,-0.01144,-0.02319,-0.09552,-0.00778,-0.03052,-0.01877,0.00809,-0.04318
10.1965,-0.00488,-0.04211,-0.03479,0.00427,-0.03281,-0.04959,-0.01572,-0.00793,-0.01282,-0.01968,-0.08606,0.0,-0.03143,-0.0177,0.00656,-0.04562
10.197,-0.0061,-0.04181,-0.03555,0.01724,-0.03098,-0.04929,-0.01663,-0.00778,-0.01465,-0.01236,-0.07629,0.00992,-0.03082,-0.01587,0.00763,-0.04425
10.1975,-0.00702,-0.04089,-0.03571,0.01648,-0.03052,-0.04807,-0.01862,-0.00839,-0.01358,-0.0061,-0.06851,0.01129,-0.03006,-0.01465,0.00717,-0.04456
10.198,-0.00702,-0.04181,-0.0351,-0.01038,-0.03189,-0.04623,-0.01923,-0.00916,-0.00931,-0.00427,-0.05493,0.0058,-0.03052,-0.01541,0.00732,-0.04684
10.1985,-0.00565,-0.04333,-0.03326,-0.05829,-0.03296,-0.04623,-0.01984,-0.01038,-0.00473,-0.00656,-0.04257,0.0,-0.03174,-0.01663,0.00732,-0.04883
10.199,-0.00473,-0.04364,-0.03265,-0.10345,-0.03281,-0.04654,-0.02045,-0.0116,-0.00351,-0.01068,-0.03571,-0.00717,-0.03342,-0.01816,0.00702,-0.047
10.1995,-0.00366,-0.04181,-0.03281,-0.12054,-0.03296,-0.04593,-0.02213,-0.01236,-0.00717,-0.0119,-0.03189,-0.02304,-0.03418,-0.01892,0.00626,-0.04669
10.2,-0.00214,-0.03967,-0.03326,-0.1062,-0.03326,-0.04623,-0.02136,-0.01114,-0.01282,-0.00916,-0.02487,-0.04822,-0.03372,-0.02106,0.0061,-0.04547
10.2005,0.0,-0.03952,-0.03159,-0.06943,-0.03311,-0.04929,-0.01877,-0.00931,-0.01694,-0.00397,-0.01465,-0.07294,-0.03235,-0.02396,0.0058,-0.04562
10.201,0.00122,-0.04013,-0.03098,-0.02609,-0.03265,-0.05035,-0.01648,-0.00763,-0.01923,-0.00046,-0.00153,-0.09003,-0.03082,-0.0264,0.00565,-0.04456
10.2015,0.00198,-0.04089,-0.03204,0.01099,-0.03204,-0.04974,-0.0148,-0.00626,-0.02228,-0.0029,0.01205,-0.10208,-0.02899,-0.02686,0.00626,-0.04379
10.202,0.00122,-0.04074,-0.03342,0.0351,-0.03174,-0.04852,-0.01373,-0.00626,-0.02548,-0.01205,0.0235,-0.1088,-0.02808,-0.02533,0.00793,-0.04349
10.2025,-0.00046,-0.0412,-0.0351,0.03815,-0.03174,-0.04852,-0.01266,-0.00671,-0.02594,-0.02258,0.03082,-0.10834,-0.02914,-0.02319,0.00885,-0.04471
10.203,-0.00122,-0.04181,-0.0351,0.01694,-0.03159,-0.04822,-0.0116,-0.00473,-0.02182,-0.02899,0.04044,-0.09933,-0.03052,-0.02106,0.00885,-0.04669
10.2035,-0.00076,-0.04242,-0.03525,-0.01587,-0.03143,-0.04761,-0.01099,-0.00183,-0.01526,-0.03006,0.05692,-0.08148,-0.02945,-0.01877,0.00931,-0.047
10.204,0.00092,-0.04196,-0.03525,-0.03601,-0.03052,-0.04807,-0.01053,0.0,-0.01038,-0.02914,0.07401,-0.05585,-0.02762,-0.0177,0.00992,-0.04547
10.2045,0.00183,-0.04211,-0.03387,-0.02609,-0.03098,-0.04837,-0.01038,0.00015,-0.009,-0.02899,0.08789,-0.01678,-0.02747,-0.01801,0.00992,-0.04501
10.205,0.00015,-0.04272,-0.03281,0.00839,-0.03204,-0.04822,-0.01038,-0.00046,-0.00946,-0.03082,0.09628,0.03693,-0.02914,-0.01862,0.00992,-0.04395
10.2055,-0.00198,-0.04395,-0.03265,0.0589,-0.03372,-0.04791,-0.01053,0.0,-0.01282,-0.03159,0.09933,0.09109,-0.03052,-0.01923,0.00961,-0.04288
10.206,-0.0032,-0.04333,-0.03265,0.11551,-0.03357,-0.04822,-0.01083,-0.00031,-0.01831,-0.02914,0.09964,0.12299,-0.03174,-0.01877,0.00885,-0.04303
10.2065,-0.00443,-0.04181,-0.03265,0.15991,-0.0325,-0.04822,-0.01144,-0.00153,-0.02243,-0.0267,0.10162,0.12222,-0.03296,-0.01816,0.00809,-0.04181
10.207,-0.00443,-0.04044,-0.03159,0.16113,-0.03143,-0.04898,-0.0119,-0.00305,-0.02319,-0.02533,0.1059,0.10086,-0.03387,-0.01953,0.00748,-0.04028
10.2075,-0.00427,-0.04105,-0.03189,0.1059,-0.03296,-0.04944,-0.01175,-0.00427,-0.01999,-0.02655,0.11017,0.07889,-0.03372,-0.01968,0.00763,-0.04044
10.208,-0.00443,-0.0412,-0.03357,0.02747,-0.03525,-0.04852,-0.0119,-0.00534,-0.01633,-0.02594,0.11246,0.06607,-0.03143,-0.01953,0.00885,-0.04059
10.2085,-0.00427,-0.04089,-0.03464,-0.02686,-0.03616,-0.04791,-0.01297,-0.00656,-0.01083,-0.02319,0.11139,0.05859,-0.02975,-0.01862,0.00916,-0.0412
10.209,-0.00504,-0.04044,-0.03525,-0.05325,-0.03647,-0.04776,-0.01465,-0.00809,-0.00336,-0.01984,0.10925,0.0528,-0.02899,-0.01724,0.00732,-0.04074
10.2095,-0.00595,-0.0415,-0.03601,-0.07523,-0.03448,-0.04807,-0.01526,-0.00885,0.00351,-0.01968,0.10834,0.04486,-0.0293,-0.01633,0.00626,-0.04105
10.21,-0.00702,-0.04318,-0.03418,-0.08896,-0.03387,-0.04837,-0.01404,-0.00809,0.00687,-0.01968,0.10849,0.02716,-0.02991,-0.01541,0.00732,-0.03922
10.2105,-0.00763,-0.04257,-0.0325,-0.0769,-0.0322,-0.04883,-0.01144,-0.00763,0.01068,-0.01678,0.1091,-0.00397,-0.03036,-0.01572,0.00931,-0.03677
10.211,-0.00778,-0.04059,-0.03235,-0.04471,-0.03128,-0.04868,-0.00885,-0.00641,0.0119,-0.0119,0.11063,-0.03052,-0.03159,-0.01663,0.01022,-0.03326
10.2115,-0.00687,-0.03967,-0.0325,-0.01892,-0.03082,-0.04959,-0.00778,-0.00565,0.00961,-0.00839,0.11444,-0.03021,-0.03311,-0.01907,0.01099,-0.03189
10.212,-0.00534,-0.04028,-0.03342,-0.00992,-0.03128,-0.05005,-0.00824,-0.00534,0.00351,-0.00687,0.11841,-0.00778,-0.03387,-0.02045,0.01053,-0.03098
10.2125,-0.00504,-0.04135,-0.03403,-0.0058,-0.03159,-0.05066,-0.00916,-0.00519,-0.0058,-0.00854,0.11887,0.01144,-0.03479,-0.01968,0.00946,-0.03052
10.213,-0.00549,-0.04135,-0.03387,0.00107,-0.0325,-0.04959,-0.00992,-0.0061,-0.01633,-0.01114,0.12085,0.01236,-0.03616,-0.01877,0.00931,-0.0293
10.2135,-0.0058,-0.04074,-0.03571,0.00641,-0.03281,-0.04852,-0.01129,-0.00641,-0.02716,-0.01358,0.12817,0.00641,-0.03815,-0.01785,0.00717,-0.02777
10.214,-0.0061,-0.04059,-0.03571,0.00702,-0.03357,-0.04852,-0.0119,-0.00473,-0.03754,-0.01602,0.1358,0.0061,-0.0383,-0.01785,0.00595,-0.02838
10.2145,-0.00656,-0.04089,-0.03342,0.00504,-0.03403,-0.05005,-0.01236,-0.00244,-0.04639,-0.01816,0.14206,0.01099,-0.03876,-0.01755,0.00549,-0.02792
10.215,-0.00656,-0.04089,-0.03143,-0.00275,-0.03403,-0.05142,-0.0119,-0.0029,-0.05051,-0.01877,0.14206,0.01099,-0.03983,-0.01709,0.00641,-0.02747
10.2155,-0.00534,-0.04028,-0.03036,-0.01984,-0.0322,-0.05173,-0.01144,-0.00427,-0.04745,-0.01968,0.13199,0.00351,-0.04013,-0.01816,0.00763,-0.02792
10.216,-0.00381,-0.03967,-0.03326,-0.04883,-0.03067,-0.0502,-0.01205,-0.00504,-0.03799,-0.0235,0.11459,-0.0058,-0.04028,-0.02014,0.00839,-0.03082
10.2165,-0.0029,-0.03922,-0.03494,-0.07462,-0.02975,-0.04959,-0.01358,-0.00488,-0.02609,-0.03006,0.09888,-0.01404,-0.04013,-0.02106,0.00854,-0.03067
10.217,-0.00305,-0.03952,-0.03555,-0.08072,-0.02899,-0.05005,-0.01358,-0.00381,-0.01785,-0.0351,0.09354,-0.02182,-0.03937,-0.02121,0.00839,-0.02731
10.2175,-0.00397,-0.03922,-0.03448,-0.06577,-0.02869,-0.05081,-0.01266,-0.00305,-0.01221,-0.03494,0.09415,-0.03082,-0.03815,-0.02014,0.0087,-0.02411
10.218,-0.00473,-0.04028,-0.03342,-0.0444,-0.0293,-0.05127,-0.0119,-0.00244,-0.00946,-0.03174,0.1004,-0.03754,-0.03555,-0.01953,0.009,-0.02487
10.2185,-0.00565,-0.04135,-0.03296,-0.02731,-0.0293,-0.05127,-0.01129,-0.00366,-0.00885,-0.02762,0.10895,-0.03632,-0.0325,-0.02029,0.00763,-0.02762
10.219,-0.00488,-0.0415,-0.03357,-0.00977,-0.02869,-0.05081,-0.01099,-0.00488,-0.00992,-0.02411,0.11719,-0.02975,-0.03174,-0.0209,0.00702,-0.02792
10.2195,-0.00336,-0.04059,-0.03403,0.00809,-0.02716,-0.05051,-0.00977,-0.00397,-0.01022,-0.02213,0.11902,-0.02365,-0.03265,-0.01968,0.00641,-0.0296
10.22,-0.00244,-0.03891,-0.03616,0.01434,-0.0267,-0.0502,-0.00977,-0.00305,-0.00946,-0.02182,0.11902,-0.01938,-0.03143,-0.01663,0.00717,-0.02838
10.2205,-0.00229,-0.03693,-0.03708,-0.00229,-0.0264,-0.04913,-0.01053,-0.00229,-0.0087,-0.02258,0.12238,-0.01801,-0.03052,-0.0148,0.00839,-0.02716
10.221,-0.0029,-0.03693,-0.03571,-0.03326,-0.02686,-0.04929,-0.01144,-0.00534,-0.00824,-0.02426,0.13428,-0.01755,-0.03128,-0.01556,0.00732,-0.02823
10.2215,-0.00412,-0.0383,-0.03372,-0.04257,-0.02655,-0.04929,-0.01144,-0.00885,-0.0058,-0.0267,0.1445,-0.01785,-0.03235,-0.01694,0.00687,-0.0293
10.222,-0.00473,-0.03906,-0.03265,-0.00305,-0.02655,-0.0499,-0.01144,-0.01144,-0.00504,-0.02762,0.14786,-0.01755,-0.03265,-0.01678,0.00687,-0.03067
10.2225,-0.00473,-0.03983,-0.03387,0.06775,-0.02853,-0.0502,-0.0119,-0.01083,-0.00641,-0.02579,0.14267,-0.01587,-0.03235,-0.01511,0.00702,-0.03067
10.223,-0.00534,-0.04013,-0.03418,0.11185,-0.03113,-0.04959,-0.01205,-0.00839,-0.00946,-0.02045,0.13062,-0.0148,-0.03189,-0.01434,0.00763,-0.0325
10.2235,-0.00671,-0.04074,-0.03418,0.08926,-0.03342,-0.04913,-0.01221,-0.00641,-0.00961,-0.01602,0.11246,-0.01434,-0.03204,-0.01587,0.00626,-0.03342
10.224,-0.00702,-0.04044,-0.03433,0.02304,-0.0354,-0.04868,-0.0116,-0.0061,-0.00839,-0.01373,0.08652,-0.01282,-0.03204,-0.01617,0.00549,-0.03265
10.2245,-0.00732,-0.03998,-0.03479,-0.02747,-0.03494,-0.04761,-0.01068,-0.00717,-0.00626,-0.0145,0.05905,-0.0116,-0.03143,-0.01587,0.00549,-0.03143
10.225,-0.00641,-0.03922,-0.03555,-0.03372,-0.03448,-0.04776,-0.01068,-0.00656,-0.00504,-0.0145,0.04288,-0.01114,-0.03143,-0.01404,0.00641,-0.02884
10.2255,-0.00565,-0.03952,-0.03372,-0.01648,-0.03433,-0.04837,-0.01022,-0.00412,-0.00412,-0.01434,0.03784,-0.0116,-0.0322,-0.01389,0.00717,-0.02991
10.226,-0.00626,-0.03998,-0.0325,-0.00961,-0.03372,-0.04807,-0.00992,-0.00381,-0.00565,-0.01328,0.04059,-0.01373,-0.03326,-0.01633,0.00732,-0.03113
10.2265,-0.00626,-0.04013,-0.03357,-0.02228,-0.03281,-0.04684,-0.01099,-0.00549,-0.01022,-0.01221,0.04715,-0.0148,-0.03372,-0.01785,0.00717,-0.03128
10.227,-0.00656,-0.03998,-0.03464,-0.03967,-0.03235,-0.04684,-0.01083,-0.00717,-0.01511,-0.01144,0.05524,-0.01114,-0.0325,-0.01785,0.00732,-0.0293
10.2275,-0.00656,-0.03952,-0.03677,-0.05005,-0.03159,-0.04562,-0.00961,-0.00763,-0.01846,-0.009,0.05203,-0.00229,-0.03143,-0.01785,0.00671,-0.02777
10.228,-0.00549,-0.03998,-0.03677,-0.05325,-0.03174,-0.04639,-0.00854,-0.009,-0.01968,-0.00793,0.03906,0.00809,-0.03189,-0.01877,0.00793,-0.02838
10.2285,-0.00565,-0.04028,-0.0354,-0.05081,-0.03204,-0.04822,-0.00916,-0.00931,-0.02045,-0.00793,0.0206,0.01511,-0.03372,-0.02136,0.0087,-0.03036
10.229,-0.00519,-0.04013,-0.03448,-0.04776,-0.03204,-0.04868,-0.01129,-0.00854,-0.02182,-0.00961,0.00519,0.01541,-0.03555,-0.02319,0.00916,-0.03204
10.2295,-0.00427,-0.03906,-0.03326,-0.04333,-0.03052,-0.04776,-0.01312,-0.00504,-0.02167,-0.01114,0.00443,0.01022,-0.03555,-0.02289,0.00885,-0.03128
10.23,-0.00275,-0.03784,-0.03235,-0.03647,-0.02899,-0.04761,-0.01312,-0.00229,-0.01678,-0.01343,0.01938,0.00351,-0.03433,-0.02014,0.00885,-0.03098
10.2305,-0.00168,-0.03784,-0.03387,-0.02777,-0.0296,-0.04868,-0.01175,-0.00046,-0.00687,-0.01465,0.03418,-0.00244,-0.03235,-0.01709,0.00916,-0.03159
10.231,-0.00168,-0.0386,-0.03616,-0.02151,-0.03143,-0.04929,-0.00977,-0.00198,0.00351,-0.0148,0.03189,-0.00702,-0.03128,-0.01648,0.00961,-0.03128
10.2315,-0.00275,-0.03998,-0.03815,-0.02045,-0.0325,-0.04822,-0.00839,-0.00351,0.01129,-0.01389,0.01495,-0.01175,-0.03113,-0.01602,0.01022,-0.03326
10.232,-0.00412,-0.04135,-0.03784,-0.02029,-0.03159,-0.04684,-0.00763,-0.00443,0.0145,-0.01373,-0.00534,-0.02014,-0.03372,-0.01724,0.00931,-0.0351
10.2325,-0.00259,-0.04242,-0.03601,-0.01678,-0.03052,-0.04684,-0.00992,-0.00458,0.01404,-0.01373,-0.02167,-0.03326,-0.03662,-0.01923,0.00824,-0.03525
10.233,-0.00153,-0.04196,-0.03403,-0.01221,-0.03143,-0.04745,-0.0116,-0.00458,0.01068,-0.0119,-0.0322,-0.04532,-0.0383,-0.02075,0.00748,-0.03433
10.2335,-0.00153,-0.04135,-0.03311,-0.00992,-0.0325,-0.04837,-0.01114,-0.00412,0.00778,-0.0087,-0.03723,-0.05188,-0.03769,-0.02197,0.00931,-0.03433
10.234,-0.00351,-0.04135,-0.03311,-0.01221,-0.03296,-0.04913,-0.00977,-0.0032,0.009,-0.00641,-0.03906,-0.05173,-0.03632,-0.02136,0.00992,-0.03387
10.2345,-0.00473,-0.0415,-0.03403,-0.01495,-0.03235,-0.0499,-0.00885,-0.00305,0.01358,-0.00229,-0.03784,-0.04379,-0.03525,-0.01968,0.00854,-0.03174
10.235,-0.00473,-0.04181,-0.03555,-0.01556,-0.03296,-0.04974,-0.01007,-0.00305,0.01663,0.00107,-0.03693,-0.02563,-0.03448,-0.01785,0.00809,-0.02899
10.2355,-0.00473,-0.04105,-0.03708,-0.01419,-0.03265,-0.04761,-0.01343,-0.00198,0.01511,0.00275,-0.03815,-0.00122,-0.03403,-0.0177,0.00763,-0.02701
10.236,-0.00458,-0.04089,-0.03815,-0.01221,-0.03296,-0.04715,-0.01694,-0.00137,0.009,-0.00031,-0.03998,0.01709,-0.03479,-0.01755,0.00732,-0.02487
10.2365,-0.00443,-0.04059,-0.03693,-0.00977,-0.03265,-0.047,-0.01755,-0.00229,0.00305,-0.00534,-0.03616,0.02335,-0.03479,-0.01785,0.00824,-0.02548
10.237,-0.00397,-0.04135,-0.03693,-0.00824,-0.03342,-0.04745,-0.01648,-0.00351,-0.00092,-0.01099,-0.02258,0.02121,-0.03525,-0.01877,0.00931,-0.0267
10.2375,-0.0029,-0.04196,-0.03784,-0.00778,-0.0325,-0.047,-0.01434,-0.00412,-0.00519,-0.01846,-0.0058,0.02045,-0.03464,-0.01984,0.01022,-0.02716
10.238,-0.00259,-0.04166,-0.03983,-0.00839,-0.03265,-0.04517,-0.01251,-0.00534,-0.01053,-0.02975,0.00626,0.02518,-0.03403,-0.01999,0.00961,-0.02716
10.2385,-0.00275,-0.04166,-0.03983,-0.00916,-0.03433,-0.04578,-0.01236,-0.00793,-0.01633,-0.04227,0.01205,0.03052,-0.03326,-0.01923,0.00778,-0.02762
10.239,-0.00336,-0.04135,-0.03967,-0.01022,-0.03571,-0.04593,-0.01236,-0.01007,-0.02304,-0.04822,0.00992,0.03082,-0.03387,-0.0177,0.00748,-0.02899
10.2395,-0.00351,-0.0412,-0.04028,-0.00885,-0.03403,-0.04471,-0.01328,-0.01038,-0.03052,-0.0473,0.00031,0.02487,-0.03372,-0.01602,0.00839,-0.02899
10.24,-0.0032,-0.0415,-0.04013,-0.00717,-0.03189,-0.0415,-0.01434,-0.00854,-0.03632,-0.0415,-0.00702,0.01785,-0.03403,-0.01572,0.00946,-0.02792
10.2405,-0.00275,-0.04181,-0.03891,-0.00687,-0.03082,-0.04105,-0.01434,-0.0061,-0.03693,-0.03632,-0.00366,0.01389,-0.0325,-0.01648,0.00809,-0.02884
10.241,-0.00183,-0.04135,-0.03662,-0.00793,-0.0322,-0.04288,-0.01358,-0.00549,-0.03418,-0.03418,0.00229,0.01282,-0.03021,-0.0177,0.00641,-0.03052
10.2415,-0.00153,-0.04089,-0.03555,-0.01022,-0.03326,-0.04532,-0.01312,-0.00656,-0.03067,-0.03311,0.0029,0.0119,-0.02808,-0.01831,0.00717,-0.03113
10.242,-0.00275,-0.04028,-0.03555,-0.01038,-0.03372,-0.04501,-0.01328,-0.00702,-0.02716,-0.0293,-0.00168,0.00992,-0.02716,-0.01801,0.00946,-0.03143
10.2425,-0.00473,-0.04089,-0.03616,-0.00916,-0.03464,-0.04532,-0.01373,-0.0061,-0.02457,-0.02396,-0.00687,0.00732,-0.02853,-0.01785,0.01053,-0.03311
10.243,-0.00519,-0.04059,-0.03708,-0.00778,-0.03708,-0.04593,-0.01404,-0.00473,-0.02411,-0.02106,-0.01221,0.00473,-0.02991,-0.01892,0.0119,-0.03647
10.2435,-0.00397,-0.03952,-0.03693,-0.00565,-0.03723,-0.04608,-0.0145,-0.00534,-0.02625,-0.02274,-0.01877,0.00198,-0.03128,-0.0209,0.01114,-0.03784
10.244,-0.00305,-0.03906,-0.03616,-0.00427,-0.03616,-0.04669,-0.01511,-0.00656,-0.03113,-0.02838,-0.03098,-0.00015,-0.03082,-0.02304,0.01007,-0.03845
10.2445,-0.00351,-0.04059,-0.0354,-0.00397,-0.03555,-0.04761,-0.01511,-0.00687,-0.03433,-0.03098,-0.04166,-0.00092,-0.0296,-0.02441,0.00839,-0.0383
10.245,-0.00458,-0.04272,-0.03601,-0.00565,-0.03632,-0.04883,-0.01602,-0.00488,-0.03174,-0.02823,-0.03662,0.00046,-0.0293,-0.0238,0.00839,-0.03754
10.2455,-0.00412,-0.04364,-0.0351,-0.00824,-0.03555,-0.04837,-0.01694,-0.00397,-0.0267,-0.02533,-0.01465,0.00168,-0.02914,-0.0206,0.00778,-0.03677
10.246,-0.0029,-0.04364,-0.03494,-0.00885,-0.03326,-0.04745,-0.01755,-0.00488,-0.02243,-0.02274,0.01129,0.00168,-0.02792,-0.01907,0.0087,-0.03601
10.2465,-0.0032,-0.04349,-0.0351,-0.00778,-0.03036,-0.04669,-0.0174,-0.00504,-0.02029,-0.02289,0.0293,0.00015,-0.02777,-0.01968,0.00916,-0.03632
10.247,-0.00473,-0.04303,-0.03342,-0.00839,-0.0296,-0.04578,-0.01694,-0.00244,-0.01923,-0.02151,0.03937,-0.00092,-0.02853,-0.02045,0.00885,-0.03708
10.2475,-0.00549,-0.04272,-0.03281,-0.0119,-0.02914,-0.04608,-0.01587,0.00061,-0.01785,-0.02045,0.04395,-0.00153,-0.02914,-0.01999,0.00793,-0.03906
10.248,-0.00488,-0.0415,-0.0325,-0.0148,-0.02838,-0.047,-0.01389,0.00107,-0.01602,-0.02014,0.04013,-0.00137,-0.02869,-0.01862,0.00671,-0.04013
10.2485,-0.00473,-0.04089,-0.03174,-0.01511,-0.02808,-0.04745,-0.01266,-0.00092,-0.01312,-0.01907,0.02609,-0.0032,-0.02762,-0.01694,0.00275,-0.04074
10.249,-0.00488,-0.04105,-0.03113,-0.01389,-0.02838,-0.04593,-0.01236,-0.00183,-0.009,-0.0145,0.00793,-0.00519,-0.02792,-0.01617,0.00214,-0.03906
10.2495,-0.00488,-0.04181,-0.03113,-0.01297,-0.02899,-0.04456,-0.01236,-0.00046,-0.00549,-0.00946,-0.0119,-0.00427,-0.02914,-0.01556,0.00458,-0.03616
10.25,-0.00473,-0.04242,-0.03143,-0.01205,-0.02975,-0.04425,-0.01205,0.00061,-0.00397,-0.00671,-0.03265,-0.00168,-0.02975,-0.01404,0.00885,-0.03296
10.2505,-0.00504,-0.04272,-0.03113,-0.01022,-0.02975,-0.04578,-0.01129,0.0,-0.0058,-0.00748,-0.05478,0.00107,-0.03052,-0.01404,0.01114,-0.03281
10.251,-0.00641,-0.04257,-0.03067,-0.00732,-0.03006,-0.04639,-0.00961,-0.00229,-0.00992,-0.00809,-0.06882,0.00168,-0.03098,-0.01312,0.01221,-0.03357
10.2515,-0.00671,-0.04211,-0.03052,-0.00458,-0.02991,-0.04608,-0.009,-0.00305,-0.0148,-0.01114,-0.06607,0.00015,-0.03067,-0.0145,0.01221,-0.03525
10.252,-0.00565,-0.04135,-0.03128,-0.00183,-0.03006,-0.04593,-0.00977,-0.00244,-0.01709,-0.01266,-0.04807,-0.00092,-0.03082,-0.01404,0.01038,-0.03632
10.2525,-0.00565,-0.04196,-0.0325,0.00015,-0.0293,-0.04532,-0.01053,-0.00183,-0.01556,-0.01495,-0.03082,-0.00061,-0.03021,-0.01511,0.01068,-0.03632
10.253,-0.00656,-0.04181,-0.03357,0.00168,-0.02884,-0.04395,-0.01129,-0.0032,-0.01251,-0.01419,-0.02243,-0.00015,-0.03052,-0.01633,0.00916,-0.03693
10.2535,-0.00687,-0.0415,-0.03265,0.00122,-0.02884,-0.04379,-0.01099,-0.00519,-0.01022,-0.0116,-0.0209,0.00061,-0.03128,-0.01862,0.00748,-0.03967
10.254,-0.0058,-0.03998,-0.03265,-0.00336,-0.03021,-0.04349,-0.00931,-0.00427,-0.00977,-0.00702,-0.02228,0.00015,-0.03296,-0.01968,0.0061,-0.04318
10.2545,-0.00504,-0.04059,-0.0325,-0.00992,-0.03159,-0.04349,-0.009,-0.00183,-0.00946,-0.00778,-0.02655,-0.00137,-0.03357,-0.02045,0.00702,-0.0444
10.255,-0.00565,-0.04257,-0.03235,-0.01389,-0.03113,-0.04272,-0.00824,0.0,-0.01038,-0.01251,-0.02548,-0.00305,-0.03464,-0.02014,0.00854,-0.04425
10.2555,-0.00626,-0.04333,-0.03387,-0.01221,-0.03372,-0.04303,-0.009,-0.00183,-0.01175,-0.00854,-0.01602,-0.00305,-0.03372,-0.0177,0.01038,-0.04196
10.256,-0.00656,-0.04364,-0.03601,-0.00778,-0.03723,-0.04456,-0.00854,-0.00412,-0.01038,-0.00534,-0.00351,-0.00092,-0.03418,-0.01572,0.01007,-0.04074
10.2565,-0.00732,-0.04425,-0.03616,-0.00458,-0.03677,-0.04654,-0.009,-0.00381,-0.00763,0.00061,0.0032,0.00259,-0.03555,-0.01587,0.0087,-0.04074
10.257,-0.00732,-0.04486,-0.03296,-0.00473,-0.03525,-0.04654,-0.00977,-0.00229,-0.0058,0.00183,0.00534,0.00473,-0.03677,-0.01724,0.00839,-0.04181
10.2575,-0.00626,-0.0444,-0.03143,-0.00549,-0.03357,-0.04593,-0.01022,-0.00214,-0.00656,0.00168,0.00458,0.00687,-0.03525,-0.01801,0.009,-0.04562
10.258,-0.00534,-0.04303,-0.03342,-0.00702,-0.03372,-0.04547,-0.00977,-0.0032,-0.00488,0.00107,-0.00702,0.00885,-0.03479,-0.01938,0.00839,-0.05005
10.2585,-0.00519,-0.04135,-0.03357,-0.00854,-0.03403,-0.04593,-0.01068,-0.00275,0.00061,-0.00641,-0.03067,0.01083,-0.03525,-0.02075,0.00763,-0.05188
10.259,-0.00656,-0.03967,-0.03159,-0.00946,-0.03311,-0.04578,-0.01236,-0.00031,0.00702,-0.01465,-0.05585,0.01312,-0.03632,-0.02167,0.00748,-0.04929
10.2595,-0.00656,-0.03922,-0.03159,-0.01022,-0.03265,-0.04501,-0.01297,0.00076,0.00961,-0.01633,-0.07584,0.01221,-0.03693,-0.02136,0.00687,-0.04547
10.26,-0.0061,-0.03922,-0.03174,-0.00824,-0.03113,-0.04395,-0.01068,0.00061,0.01007,-0.01404,-0.09735,0.00946,-0.03601,-0.02029,0.0061,-0.04303
10.2605,-0.0058,-0.03906,-0.03204,-0.0058,-0.0296,-0.04425,-0.00671,-0.00061,0.01068,-0.01526,-0.12634,0.00671,-0.0354,-0.01816,0.00534,-0.04395
10.261,-0.00656,-0.03845,-0.0322,-0.00366,-0.0293,-0.04532,-0.00488,0.00015,0.01083,-0.01221,-0.15335,0.00565,-0.03403,-0.01617,0.00595,-0.04562
10.2615,-0.00671,-0.03784,-0.03174,-0.00275,-0.02838,-0.04517,-0.0058,0.00168,0.00443,-0.01297,-0.16052,0.00458,-0.03464,-0.01633,0.00778,-0.04639
10.262,-0.00549,-0.0386,-0.03098,-0.00305,-0.02869,-0.0444,-0.00763,0.00183,-0.00916,-0.01572,-0.14084,0.00458,-0.03586,-0.0174,0.00854,-0.04517
10.2625,-0.00458,-0.03967,-0.03235,-0.00397,-0.02823,-0.0444,-0.00809,0.00153,-0.02396,-0.01556,-0.10101,0.0058,-0.03647,-0.02014,0.00854,-0.04318
10.263,-0.00534,-0.04074,-0.03342,-0.00717,-0.02747,-0.04517,-0.00885,0.00168,-0.03754,-0.01328,-0.0563,0.00885,-0.03601,-0.02258,0.00763,-0.0412
10.2635,-0.00656,-0.04074,-0.03281,-0.01724,-0.03189,-0.04608,-0.00931,0.0032,-0.04974,-0.0145,-0.01999,0.01053,-0.03571,-0.02319,0.00839,-0.04028
10.264,-0.00717,-0.03952,-0.03387,-0.03174,-0.03479,-0.047,-0.00732,0.00351,-0.05829,-0.01297,-0.0058,0.00977,-0.03632,-0.02243,0.00977,-0.03952
10.2645,-0.00702,-0.03906,-0.03311,-0.0412,-0.03525,-0.04761,-0.00504,0.00244,-0.05966,-0.00381,-0.01083,0.00671,-0.03632,-0.02228,0.00854,-0.03952
10.265,-0.00626,-0.04059,-0.03189,-0.04684,-0.03403,-0.04868,-0.00443,0.0029,-0.05325,0.01251,-0.02609,0.00534,-0.0354,-0.02365,0.0061,-0.04181
10.2655,-0.00595,-0.04166,-0.03098,-0.05936,-0.03448,-0.04959,-0.00534,0.00397,-0.04425,0.02716,-0.03403,0.00687,-0.03494,-0.02426,0.00534,-0.04242
10.266,-0.00595,-0.04364,-0.0325,-0.08209,-0.03708,-0.04959,-0.00748,0.00412,-0.03784,0.02945,-0.03342,0.00854,-0.03357,-0.02228,0.00504,-0.04181
10.2665,-0.00595,-0.04379,-0.03418,-0.09125,-0.0383,-0.04868,-0.01099,0.0029,-0.03235,0.01343,-0.03006,0.00961,-0.03235,-0.01816,0.00641,-0.04028
10.267,-0.00473,-0.04349,-0.03448,-0.06714,-0.03616,-0.04852,-0.01297,0.00046,-0.02762,-0.00656,-0.02548,0.01114,-0.03113,-0.01556,0.00809,-0.03922
10.2675,-0.00458,-0.04242,-0.03372,-0.01862,-0.03616,-0.04837,-0.01236,0.00015,-0.02441,-0.0206,-0.01984,0.01205,-0.02991,-0.01633,0.00946,-0.03937
10.268,-0.00549,-0.04166,-0.0322,0.02533,-0.03799,-0.04852,-0.00854,0.00031,-0.02396,-0.02411,-0.01724,0.01129,-0.03021,-0.01846,0.00992,-0.03952
10.2685,-0.00656,-0.04181,-0.03113,0.05264,-0.03998,-0.04929,-0.00427,0.00183,-0.02228,-0.02197,-0.01343,0.00885,-0.03113,-0.02014,0.00961,-0.04013
10.269,-0.00595,-0.04196,-0.03113,0.06912,-0.03922,-0.0499,-0.00275,0.00275,-0.02075,-0.02563,-0.00656,0.00534,-0.03372,-0.02045,0.00809,-0.04028
10.2695,-0.00397,-0.04272,-0.03296,0.07614,-0.03769,-0.04959,-0.00397,0.0029,-0.02045,-0.03311,-0.00397,0.00183,-0.0351,-0.01816,0.00977,-0.03876
10.27,-0.00198,-0.04242,-0.03311,0.06775,-0.03601,-0.04837,-0.00504,0.00305,-0.01816,-0.04395,-0.01404,-0.00031,-0.03265,-0.01572,0.01129,-0.03891
10.2705,-0.00137,-0.04196,-0.03311,0.04288,-0.03357,-0.047,-0.00626,0.00412,-0.01282,-0.06073,-0.0264,0.00046,-0.0296,-0.01511,0.01129,-0.04105
10.271,-0.00076,-0.03998,-0.03342,0.01663,-0.02975,-0.04593,-0.00702,0.00381,-0.00534,-0.07782,-0.03052,0.00229,-0.02792,-0.01541,0.01068,-0.04257
10.2715,-0.00092,-0.0383,-0.03464,0.00381,-0.02747,-0.04593,-0.00748,0.00412,-0.00137,-0.08514,-0.02472,0.00366,-0.02884,-0.01511,0.01129,-0.04379
10.272,-0.00122,-0.03891,-0.03418,0.00275,-0.02747,-0.04684,-0.00656,0.00443,-0.00214,-0.08743,-0.01465,0.00381,-0.03052,-0.01434,0.01129,-0.04456
10.2725,-0.00015,-0.04044,-0.03387,0.00366,-0.02762,-0.04761,-0.00626,0.00519,-0.00458,-0.08072,-0.0061,0.0032,-0.03204,-0.01404,0.01129,-0.04608
10.273,0.00031,-0.04303,-0.03464,0.00107,-0.02731,-0.04959,-0.00671,0.00488,-0.0058,-0.07523,-0.00137,0.00381,-0.0325,-0.01556,0.00931,-0.04654
10.2735,-0.00092,-0.04196,-0.03357,-0.00336,-0.02548,-0.04913,-0.00916,0.00351,-0.00549,-0.0679,-0.00046,0.00641,-0.03296,-0.01663,0.00748,-0.047
10.274,-0.0029,-0.0415,-0.03342,-0.00534,-0.02518,-0.04807,-0.01175,0.0029,-0.00565,-0.06058,0.0,0.00931,-0.0325,-0.01877,0.00641,-0.04807
10.2745,-0.00275,-0.04166,-0.03448,-0.00458,-0.02548,-0.04791,-0.01251,0.0029,-0.00565,-0.05371,0.00092,0.01358,-0.03311,-0.01892,0.00916,-0.04745
10.275,-0.00198,-0.04227,-0.03555,-0.00504,-0.02655,-0.04822,-0.01328,0.00305,-0.00732,-0.04639,0.00153,0.01465,-0.03418,-0.01999,0.01373,-0.04456
10.2755,-0.00183,-0.0415,-0.03555,-0.00656,-0.02655,-0.04837,-0.01389,0.00229,-0.00885,-0.03708,0.00046,0.01053,-0.03433,-0.01968,0.01297,-0.04059
10.276,-0.0029,-0.03998,-0.03464,-0.00809,-0.02609,-0.04745,-0.0145,0.00122,-0.009,-0.03067,-0.00046,0.00381,-0.03433,-0.01999,0.01495,-0.03876
10.2765,-0.00412,-0.03891,-0.03601,-0.00992,-0.02518,-0.04822,-0.01434,0.00031,-0.00717,-0.02289,-0.00137,-0.00046,-0.03311,-0.02045,0.01236,-0.04089
10.277,-0.00397,-0.03952,-0.03571,-0.01053,-0.02609,-0.05035,-0.01358,-0.00046,-0.00626,-0.0119,-0.00092,0.0,-0.03204,-0.01953,0.01404,-0.04425
10.2775,-0.00381,-0.03906,-0.03693,-0.01083,-0.02777,-0.05157,-0.01312,-0.00153,-0.00824,-0.00748,-0.00259,0.00229,-0.0322,-0.01968,0.01297,-0.04562
10.278,-0.00427,-0.03845,-0.03662,-0.01099,-0.02914,-0.05219,-0.01282,-0.0029,-0.00992,-0.00702,-0.01053,0.00336,-0.03281,-0.02075,0.00809,-0.04501
10.2785,-0.00366,-0.03891,-0.03632,-0.01373,-0.02899,-0.05112,-0.01221,-0.00397,-0.00961,-0.00824,-0.02121,0.00137,-0.03342,-0.02136,0.00107,-0.04471
10.279,-0.00504,-0.03967,-0.03448,-0.01816,-0.02777,-0.05112,-0.00992,-0.00366,-0.009,-0.00763,-0.02701,-0.00061,-0.03387,-0.01999,-0.00336,-0.04562
10.2795,-0.00549,-0.04013,-0.0325,-0.02289,-0.02747,-0.05051,-0.00778,-0.00168,-0.00916,-0.0058,-0.0264,0.00092,-0.03326,-0.01892,-0.00214,-0.04715
10.28,-0.00565,-0.03983,-0.03281,-0.02396,-0.02808,-0.04883,-0.00793,-0.00061,-0.00824,-0.00458,-0.02258,0.00641,-0.03143,-0.0174,0.00336,-0.05096
10.2805,-0.00443,-0.03952,-0.03326,-0.0209,-0.02823,-0.04684,-0.01053,-0.00061,-0.00549,-0.00381,-0.0145,0.01129,-0.03052,-0.01816,0.00748,-0.05508
10.281,-0.0032,-0.03952,-0.03494,-0.01633,-0.02747,-0.04562,-0.01312,-0.00198,-0.00565,-0.00214,-0.0058,0.01175,-0.03067,-0.01709,0.00641,-0.05676
10.2815,-0.00229,-0.03937,-0.03586,-0.01404,-0.02563,-0.04669,-0.01404,-0.00275,-0.00885,-0.00031,-0.00488,0.00854,-0.03067,-0.01541,0.00641,-0.05432
10.282,-0.0029,-0.03876,-0.03571,-0.01419,-0.02487,-0.04761,-0.01389,-0.0032,-0.01419,-0.00092,-0.01083,0.00458,-0.02991,-0.01541,0.00854,-0.04974
10.2825,-0.00351,-0.03876,-0.03479,-0.01801,-0.02533,-0.04822,-0.01404,-0.00305,-0.01831,-0.00107,-0.01678,0.00031,-0.03052,-0.01648,0.00992,-0.04623
10.283,-0.00443,-0.0383,-0.03479,-0.02197,-0.02579,-0.04761,-0.0145,-0.00198,-0.0206,-0.00214,-0.01907,-0.00336,-0.0325,-0.01801,0.00931,-0.04623
10.2835,-0.00412,-0.0386,-0.03494,-0.02441,-0.02579,-0.04745,-0.01556,-0.00137,-0.02197,-0.00122,-0.01724,-0.00519,-0.03433,-0.01785,0.00885,-0.04501
10.284,-0.00397,-0.03937,-0.03448,-0.02289,-0.0267,-0.04852,-0.01633,-0.00153,-0.02045,-0.0029,-0.01343,-0.00458,-0.03357,-0.01694,0.00641,-0.04532
10.2845,-0.00366,-0.03952,-0.03403,-0.01694,-0.02747,-0.04974,-0.01617,-0.00183,-0.01404,-0.00549,-0.00992,-0.0029,-0.0322,-0.01633,0.00732,-0.04486
10.285,-0.00458,-0.04013,-0.03403,-0.00656,-0.02884,-0.05081,-0.01648,-0.00259,-0.00641,-0.00641,-0.00824,-0.00259,-0.03128,-0.01785,0.00961,-0.04532
10.2855,-0.00534,-0.04028,-0.03494,0.00366,-0.02975,-0.05081,-0.01541,-0.00214,-0.00198,-0.00656,-0.00793,-0.00366,-0.03082,-0.01938,0.01068,-0.04608
10.286,-0.00626,-0.04044,-0.03555,0.00885,-0.03052,-0.04913,-0.01419,-0.00137,-0.00046,-0.00671,-0.009,-0.00443,-0.03159,-0.01953,0.00946,-0.04883
10.2865,-0.0061,-0.04044,-0.0351,0.00824,-0.03067,-0.04868,-0.01282,-0.00198,0.00305,-0.00809,-0.01343,-0.00366,-0.03067,-0.01923,0.00809,-0.04959
10.287,-0.0058,-0.04089,-0.03357,0.00565,-0.0296,-0.04883,-0.01343,-0.0029,0.01114,-0.00778,-0.0209,-0.00381,-0.03082,-0.01938,0.00671,-0.04929
10.2875,-0.00549,-0.0415,-0.03326,0.00168,-0.02853,-0.04883,-0.01495,-0.00351,0.01968,-0.00977,-0.02609,-0.00534,-0.03204,-0.02167,0.00778,-0.047
10.288,-0.00504,-0.04181,-0.03448,-0.00488,-0.02792,-0.04868,-0.01724,-0.00305,0.02502,-0.0087,-0.02655,-0.00793,-0.03342,-0.02304,0.00839,-0.04501
10.2885,-0.00458,-0.04211,-0.0354,-0.01221,-0.02655,-0.04852,-0.01892,-0.00214,0.02701,-0.00565,-0.02457,-0.00931,-0.03403,-0.02136,0.00809,-0.047
10.289,-0.00458,-0.04211,-0.0354,-0.01801,-0.02579,-0.04776,-0.01862,-0.00305,0.03021,-0.00229,-0.02365,-0.00824,-0.03464,-0.01877,0.00931,-0.05936
10.2895,-0.00412,-0.04196,-0.0325,-0.02182,-0.02747,-0.04684,-0.01587,-0.00519,0.02975,-0.00214,-0.02396,-0.00778,-0.03448,-0.01801,0.00793,-0.09216
10.29,-0.00336,-0.0415,-0.03098,-0.02457,-0.02762,-0.04623,-0.01114,-0.0061,0.01892,-0.00046,-0.03159,-0.00748,-0.03464,-0.01923,0.00854,-0.13733
10.2905,-0.00229,-0.04074,-0.02945,-0.02502,-0.02838,-0.04562,-0.0087,-0.00671,-0.00473,0.00183,-0.0502,-0.00717,-0.03433,-0.02151,0.0087,-0.15533
10.291,-0.00183,-0.04059,-0.03342,-0.02365,-0.02716,-0.04517,-0.00931,-0.00717,-0.03006,-0.00122,-0.07568,-0.00702,-0.03403,-0.0235,0.00778,-0.11948
10.2915,-0.00153,-0.03998,-0.03464,-0.02136,-0.0267,-0.04501,-0.0116,-0.00717,-0.04822,-0.00427,-0.09521,-0.00702,-0.03281,-0.02319,0.00961,-0.04944
10.292,-0.00244,-0.03967,-0.03372,-0.01862,-0.02777,-0.04562,-0.01358,-0.00656,-0.05966,-0.00671,-0.0972,-0.00565,-0.03281,-0.02136,0.0087,0.00732
10.2925,-0.00427,-0.03952,-0.03265,-0.01678,-0.02991,-0.04639,-0.01434,-0.00641,-0.06622,-0.00641,-0.08347,-0.00305,-0.03281,-0.01877,0.00763,0.02884
10.293,-0.00565,-0.04074,-0.02991,-0.01602,-0.03067,-0.0473,-0.01511,-0.00656,-0.07416,-0.00168,-0.05997,-0.00092,-0.03113,-0.01511,0.00885,0.0267
10.2935,-0.00641,-0.04105,-0.03174,-0.01755,-0.03128,-0.04639,-0.01877,-0.00717,-0.0824,0.00519,-0.02899,0.00046,-0.03036,-0.01251,0.00992,0.01877
10.294,-0.0061,-0.04028,-0.03281,-0.01984,-0.03067,-0.04593,-0.02258,-0.00717,-0.08942,0.00397,0.01175,0.00046,-0.03098,-0.01328,0.01053,0.01129
10.2945,-0.0058,-0.04074,-0.03464,-0.02014,-0.02975,-0.04608,-0.02487,-0.00687,-0.08865,0.00031,0.06058,-0.00031,-0.03265,-0.01587,0.01038,0.00259
10.295,-0.00519,-0.04074,-0.03342,-0.01831,-0.0296,-0.04684,-0.02533,-0.00702,-0.0766,-0.00732,0.09842,-0.00137,-0.03357,-0.01862,0.00946,-0.00977
10.2955,-0.00504,-0.04059,-0.03265,-0.01617,-0.03067,-0.04684,-0.02563,-0.0058,-0.05508,-0.01617,0.11139,-0.0029,-0.03113,-0.02014,0.00839,-0.0235
10.296,-0.00488,-0.04074,-0.03281,-0.01526,-0.03174,-0.04669,-0.02548,-0.00458,-0.03479,-0.02487,0.09933,-0.00305,-0.02914,-0.01968,0.00839,-0.03616
10.2965,-0.00519,-0.04166,-0.03326,-0.01556,-0.03265,-0.04745,-0.0238,-0.00381,-0.0235,-0.03021,0.06683,-0.00366,-0.03067,-0.01999,0.00839,-0.04364
10.297,-0.00504,-0.04227,-0.03372,-0.01389,-0.0322,-0.047,-0.02167,-0.00412,-0.02045,-0.03082,0.02014,-0.00259,-0.03387,-0.02106,0.00839,-0.04623
10.2975,-0.00534,-0.04272,-0.03403,-0.00687,-0.03082,-0.04547,-0.02014,-0.00443,-0.0177,-0.02594,-0.0322,-0.00046,-0.03525,-0.02151,0.00732,-0.04639
10.298,-0.00519,-0.04196,-0.03281,0.00275,-0.03143,-0.04379,-0.01984,-0.00427,-0.01282,-0.0235,-0.07996,0.00061,-0.03387,-0.0209,0.00565,-0.04654
10.2985,-0.00534,-0.0412,-0.03189,0.00916,-0.03281,-0.04288,-0.01846,-0.00397,-0.009,-0.02716,-0.10956,-0.00122,-0.03311,-0.02121,0.00473,-0.04623
10.299,-0.0061,-0.0415,-0.03235,0.00534,-0.0325,-0.04288,-0.01587,-0.00366,-0.00961,-0.03723,-0.11398,-0.00381,-0.0351,-0.02289,0.0058,-0.04379
10.2995,-0.00595,-0.04059,-0.0322,-0.00397,-0.03036,-0.04379,-0.01312,-0.0029,-0.01129,-0.0502,-0.0975,-0.00427,-0.03632,-0.02289,0.00809,-0.04089
10.3,-0.00534,-0.03952,-0.03235,-0.01099,-0.02777,-0.04456,-0.01129,-0.00137,-0.01114,-0.06653,-0.07187,-0.00259,-0.03632,-0.02182,0.00809,-0.03876
10.3005,-0.00534,-0.03998,-0.03174,-0.01373,-0.02701,-0.0444,-0.01144,-0.00122,-0.00885,-0.09842,-0.05249,0.0,-0.03479,-0.02136,0.00687,-0.03891
10.301,-0.0058,-0.04089,-0.03174,-0.01831,-0.02625,-0.04425,-0.01282,-0.00122,-0.00885,-0.13138,-0.04257,0.00092,-0.03494,-0.02258,0.00488,-0.03967
10.3015,-0.00504,-0.04089,-0.03326,-0.02884,-0.02716,-0.04501,-0.01389,-0.00092,-0.01221,-0.15106,-0.03586,-0.00259,-0.03494,-0.02487,0.00443,-0.04166
10.302,-0.00366,-0.03983,-0.0351,-0.04715,-0.02823,-0.04532,-0.0145,-0.00153,-0.01785,-0.1413,-0.02823,-0.01251,-0.03357,-0.02533,0.00534,-0.04425
10.3025,-0.00351,-0.03922,-0.03662,-0.07034,-0.02899,-0.04654,-0.01556,-0.00244,-0.02335,-0.10468,-0.02045,-0.02625,-0.03265,-0.02441,0.00793,-0.04562
10.303,-0.00488,-0.04074,-0.0354,-0.0946,-0.03021,-0.04593,-0.01495,-0.00366,-0.02426,-0.06317,-0.01526,-0.03662,-0.03235,-0.02014,0.00885,-0.04776
10.3035,-0.0061,-0.04272,-0.03403,-0.10513,-0.03036,-0.04608,-0.01343,-0.00458,-0.01999,-0.02655,-0.00854,-0.03906,-0.03174,-0.01663,0.0087,-0.04959
10.304,-0.00687,-0.04272,-0.03021,-0.07294,-0.03082,-0.04547,-0.01251,-0.00458,-0.0148,-0.00534,0.00671,-0.03403,-0.03098,-0.0145,0.00595,-0.05295
10.3045,-0.00748,-0.0412,-0.03357,0.00748,-0.03082,-0.04501,-0.01099,-0.00549,-0.01144,0.00793,0.02609,-0.02533,-0.02945,-0.01373,0.00595,-0.05508
10.305,-0.00595,-0.03998,-0.0325,0.09247,-0.03204,-0.04669,-0.01175,-0.00626,-0.01038,0.01755,0.03799,-0.01617,-0.02777,-0.01343,0.00778,-0.05554
10.3055,-0.00534,-0.03998,-0.03555,0.12039,-0.03265,-0.04639,-0.01236,-0.00626,-0.00977,0.02533,0.03952,-0.00153,-0.02609,-0.01328,0.00977,-0.05341
10.306,-0.0061,-0.04166,-0.03784,0.07477,-0.03235,-0.04562,-0.01221,-0.00732,-0.00839,0.03326,0.03616,0.01556,-0.02655,-0.01328,0.01022,-0.05035
10.3065,-0.00687,-0.04196,-0.03998,-0.00214,-0.03204,-0.04532,-0.01251,-0.00763,-0.00687,0.03098,0.02548,0.02716,-0.02838,-0.01358,0.01083,-0.04822
10.307,-0.00687,-0.04074,-0.04105,-0.05157,-0.03128,-0.04593,-0.01373,-0.00839,-0.00519,0.02518,0.0029,0.02472,-0.02914,-0.01434,0.01099,-0.04715
10.3075,-0.00565,-0.03998,-0.03937,-0.05051,-0.03052,-0.047,-0.01572,-0.00793,-0.00214,0.01678,-0.02701,0.01389,-0.02823,-0.01511,0.01007,-0.04761
10.308,-0.00381,-0.03967,-0.03723,-0.02197,-0.02945,-0.04761,-0.01663,-0.00854,-0.00092,0.00961,-0.05447,0.01358,-0.02731,-0.01511,0.009,-0.05051
10.3085,-0.00305,-0.04074,-0.03708,-0.00046,-0.0293,-0.04654,-0.01541,-0.00885,-0.00275,0.0029,-0.07324,0.03159,-0.02838,-0.0148,0.00702,-0.05447
10.309,-0.00366,-0.04181,-0.03571,0.00031,-0.0293,-0.04669,-0.01404,-0.00793,-0.00687,0.00046,-0.07858,0.05417,-0.03006,-0.0145,0.00458,-0.05539
10.3095,-0.00458,-0.04074,-0.03403,-0.01053,-0.0296,-0.04517,-0.01358,-0.00534,-0.009,0.0,-0.07111,0.05585,-0.02899,-0.01373,0.00366,-0.05295
10.31,-0.00458,-0.03906,-0.03281,-0.00961,-0.02975,-0.04379,-0.0148,-0.00275,-0.00549,0.00198,-0.06256,0.03418,-0.02747,-0.01282,0.0058,-0.04959
10.3105,-0.00397,-0.03937,-0.03357,0.01205,-0.03052,-0.04379,-0.01709,-0.00305,0.00076,0.00229,-0.05798,0.00931,-0.02716,-0.01282,0.00763,-0.04791
10.311,-0.00336,-0.04166,-0.03479,0.03571,-0.03128,-0.04425,-0.01831,-0.00443,0.0061,0.00748,-0.05417,0.00061,-0.02838,-0.01434,0.00961,-0.04761
10.3115,-0.00381,-0.04395,-0.0354,0.03098,-0.03113,-0.04562,-0.02029,-0.00412,0.00839,0.01678,-0.05035,0.00275,-0.02899,-0.0145,0.00992,-0.04807
10.312,-0.00397,-0.04517,-0.03555,0.00565,-0.03159,-0.04761,-0.02151,-0.00214,0.00595,0.02167,-0.04822,0.00122,-0.02884,-0.01617,0.00885,-0.04807
10.3125,-0.00473,-0.04501,-0.03601,0.00534,-0.03143,-0.04929,-0.02213,-0.00046,0.00275,0.02655,-0.04547,-0.0058,-0.02945,-0.01785,0.00732,-0.04868
10.313,-0.00504,-0.0444,-0.03601,0.04654,-0.03189,-0.04944,-0.0206,-0.00031,0.00137,0.02335,-0.03799,-0.01266,-0.02991,-0.01877,0.00687,-0.04807
10.3135,-0.00534,-0.04242,-0.03662,0.07462,-0.03128,-0.05005,-0.01877,-0.00183,0.00473,0.02121,-0.02609,-0.0145,-0.0293,-0.01938,0.00778,-0.04639
10.314,-0.00549,-0.04089,-0.03723,0.04013,-0.03052,-0.05051,-0.0177,-0.00244,0.00885,0.01724,-0.01282,-0.01419,-0.02914,-0.01984,0.00854,-0.04578
10.3145,-0.00595,-0.04089,-0.03738,-0.02838,-0.03052,-0.05173,-0.01678,-0.00229,0.00931,0.01221,-0.00015,-0.01343,-0.03052,-0.02045,0.00778,-0.04623
10.315,-0.00549,-0.04227,-0.03677,-0.06577,-0.03098,-0.05356,-0.01633,-0.00229,0.00458,0.00504,0.00931,-0.01251,-0.03265,-0.02075,0.00763,-0.04669
10.3155,-0.00519,-0.04227,-0.03494,-0.05371,-0.03143,-0.05249,-0.01587,-0.0029,-0.00122,-0.00259,0.0148,-0.01053,-0.03418,-0.01938,0.00824,-0.04562
10.316,-0.00534,-0.04166,-0.03723,-0.02686,-0.03021,-0.05005,-0.01678,-0.00397,-0.00626,-0.00778,0.0174,-0.00977,-0.03433,-0.01862,0.00763,-0.04471
10.3165,-0.00534,-0.04135,-0.03525,-0.01068,-0.03082,-0.04745,-0.01724,-0.00427,-0.01083,-0.01434,0.01801,-0.00992,-0.03372,-0.01831,0.00656,-0.04532
10.317,-0.00565,-0.04135,-0.03448,0.00244,-0.03601,-0.04257,-0.01648,-0.00397,-0.01373,-0.01938,0.01907,-0.01038,-0.03372,-0.01877,0.00412,-0.04654
10.3175,-0.00549,-0.04181,-0.03464,0.02197,-0.0412,-0.03754,-0.01495,-0.0029,-0.01663,-0.02243,0.02045,-0.0116,-0.0351,-0.01907,0.00381,-0.04761
10.318,-0.00534,-0.0412,-0.03601,0.03784,-0.04288,-0.0354,-0.0148,-0.00275,-0.01892,-0.0235,0.02182,-0.01038,-0.03555,-0.01938,0.00488,-0.04837
10.3185,-0.00488,-0.03983,-0.03769,0.04013,-0.03891,-0.03754,-0.0148,-0.0029,-0.02029,-0.02655,0.01587,-0.00946,-0.0354,-0.0209,0.00809,-0.04837
10.319,-0.00488,-0.03922,-0.03799,0.03342,-0.03235,-0.04379,-0.0148,-0.00336,-0.02167,-0.03082,0.00473,-0.00931,-0.03418,-0.02106,0.01022,-0.04852
10.3195,-0.00473,-0.03891,-0.03647,0.02579,-0.02945,-0.04898,-0.01389,-0.00366,-0.02319,-0.0322,-0.00107,-0.00961,-0.03372,-0.0209,0.01419,-0.04532
10.32,-0.00381,-0.03998,-0.03494,0.01816,-0.03128,-0.04929,-0.01343,-0.00381,-0.02533,-0.0296,0.00381,-0.0087,-0.03326,-0.02136,0.01572,-0.0412
10.3205,-0.0029,-0.03952,-0.03281,0.009,-0.03326,-0.047,-0.01343,-0.00412,-0.02731,-0.0264,0.01541,-0.00687,-0.0322,-0.02335,0.01556,-0.03937
10.321,-0.0032,-0.03906,-0.03174,-0.00656,-0.03357,-0.04547,-0.0145,-0.00351,-0.03021,-0.02151,0.02701,-0.00504,-0.03052,-0.02518,0.01343,-0.04013
10.3215,-0.00412,-0.03952,-0.0322,-0.03204,-0.0322,-0.04623,-0.01434,-0.00305,-0.03342,-0.01938,0.03265,-0.00336,-0.03021,-0.02609,0.01373,-0.0415
10.322,-0.00504,-0.0412,-0.03357,-0.06729,-0.03021,-0.04593,-0.0145,-0.00366,-0.03403,-0.02258,0.0293,-0.00214,-0.03082,-0.02441,0.01434,-0.04196
10.3225,-0.00519,-0.04272,-0.03601,-0.10269,-0.03143,-0.04654,-0.01312,-0.00412,-0.03098,-0.02808,0.01831,-0.00381,-0.03082,-0.02243,0.01297,-0.0386
10.323,-0.00565,-0.04166,-0.03647,-0.12619,-0.0322,-0.04684,-0.01221,-0.00336,-0.02502,-0.03082,0.0061,-0.00549,-0.03052,-0.02106,0.01129,-0.03555
10.3235,-0.00534,-0.03998,-0.03723,-0.13733,-0.03143,-0.04715,-0.01297,-0.00107,-0.01801,-0.03235,-0.00259,-0.00702,-0.02777,-0.01907,0.01053,-0.03479
10.324,-0.00595,-0.03891,-0.03708,-0.14191,-0.03143,-0.04715,-0.01602,-0.00076,-0.01022,-0.03235,0.00015,-0.00641,-0.02655,-0.01587,0.01083,-0.03479
10.3245,-0.00565,-0.03922,-0.03693,-0.14771,-0.0322,-0.04547,-0.0174,-0.00275,-0.00305,-0.02853,0.01358,-0.00443,-0.0264,-0.01251,0.01099,-0.03464
10.325,-0.00488,-0.04074,-0.03754,-0.15335,-0.03326,-0.04593,-0.01663,-0.00488,0.00046,-0.02335,0.02563,-0.00244,-0.02716,-0.01205,0.01068,-0.03372
10.3255,-0.00412,-0.04135,-0.03738,-0.14954,-0.03159,-0.04822,-0.01785,-0.00443,-0.00092,-0.01999,0.02136,-0.00153,-0.02823,-0.01373,0.00977,-0.03159
10.326,-0.00412,-0.04105,-0.03769,-0.12405,-0.03128,-0.04959,-0.01938,-0.00244,-0.00443,-0.01907,0.00443,-0.00412,-0.0293,-0.01633,0.009,-0.03159
10.3265,-0.00412,-0.04044,-0.03662,-0.07614,-0.03143,-0.04974,-0.02075,-0.00229,-0.0061,-0.02197,-0.01053,-0.00809,-0.03204,-0.01984,0.0087,-0.03281
10.327,-0.00366,-0.03952,-0.03708,-0.01587,-0.03204,-0.04791,-0.01999,-0.00412,-0.00732,-0.02319,-0.01816,-0.01068,-0.03357,-0.02075,0.00946,-0.03632
10.3275,-0.0029,-0.03952,-0.03464,0.03967,-0.03204,-0.04471,-0.01816,-0.00427,-0.00748,-0.02274,-0.02304,-0.00763,-0.03357,-0.02029,0.009,-0.04028
10.328,-0.00244,-0.03998,-0.0322,0.07431,-0.02914,-0.04501,-0.01602,-0.00381,-0.00549,-0.02197,-0.02808,-0.00549,-0.03174,-0.01831,0.0058,-0.04776
