time,RectFemL,VastusMedL,VastusLatL,TibAntL,HamMedL,HamLatL,GastroMedL,GastroLatL,RectFemR,VastusMedR,VastusLatR,TibAntR,HamMedR,HamLatR,GastroMedR,GastroLatR
4.41,-0.01678,-0.00549,0.09872,0.0621,-0.03494,-0.04532,-0.01373,-0.00153,-0.04837,-0.03586,-0.03525,-0.05051,-0.02426,-0.01755,0.009,-0.04486
4.4105,-0.01099,-0.0116,0.06393,0.03265,-0.03632,-0.04318,-0.01526,-0.00198,-0.05219,-0.02945,-0.05875,-0.07507,-0.02548,-0.01556,0.00748,-0.04471
4.411,-0.00488,-0.01633,-0.00992,0.00061,-0.03586,-0.04166,-0.0177,-0.00381,-0.05051,-0.0386,-0.08057,-0.09491,-0.02899,-0.01511,0.00732,-0.04501
4.4115,-0.00168,-0.02258,-0.10223,-0.00595,-0.03403,-0.04288,-0.01984,-0.00534,-0.04623,-0.0473,-0.09796,-0.09674,-0.03113,-0.01709,0.00641,-0.04517
4.412,-0.00076,-0.02899,-0.18997,-0.00183,-0.03235,-0.0444,-0.01923,-0.00702,-0.04059,-0.04974,-0.11765,-0.05981,-0.03174,-0.01816,0.00671,-0.04517
4.4125,0.00076,-0.0322,-0.25131,-0.01877,-0.0322,-0.04669,-0.01556,-0.00641,-0.03387,-0.05981,-0.1384,0.03265,-0.03311,-0.01785,0.00717,-0.04425
4.413,0.00397,-0.0325,-0.27237,-0.05493,-0.03189,-0.04684,-0.01144,-0.00427,-0.02869,-0.07874,-0.14847,0.14496,-0.03479,-0.01785,0.00748,-0.04272
4.4135,0.00824,-0.03387,-0.25818,-0.07965,-0.03098,-0.04517,-0.01022,-0.00305,-0.02167,-0.08148,-0.13062,0.19318,-0.0354,-0.0177,0.00793,-0.04211
4.414,0.01129,-0.03677,-0.22308,-0.0708,-0.02777,-0.04257,-0.01129,-0.00214,-0.01068,-0.05203,-0.08316,0.14496,-0.03326,-0.01709,0.00702,-0.04333
4.4145,0.01373,-0.03845,-0.18402,-0.04211,-0.02274,-0.04166,-0.01312,-0.00168,0.00092,-0.00824,-0.02319,0.06577,-0.03052,-0.01587,0.00748,-0.0444
4.415,0.01602,-0.03815,-0.14999,-0.01923,-0.0174,-0.04242,-0.01434,-0.00153,0.00839,0.01541,0.02731,0.02396,-0.02899,-0.01495,0.00702,-0.04486
4.4155,0.02029,-0.03983,-0.12253,-0.01404,-0.01572,-0.04395,-0.01358,-0.00107,0.00992,0.00732,0.05768,0.01678,-0.0293,-0.01419,0.00641,-0.04318
4.416,0.02426,-0.04272,-0.09903,-0.01862,-0.0177,-0.04471,-0.01282,-0.00076,0.00992,-0.01251,0.07095,0.00946,-0.03052,-0.0148,0.0058,-0.04242
4.4165,0.02365,-0.04639,-0.07477,-0.01678,-0.02167,-0.04578,-0.01236,0.00015,0.01099,-0.0206,0.07156,-0.01404,-0.03204,-0.01633,0.00702,-0.04303
4.417,0.01602,-0.04807,-0.047,0.00244,-0.02533,-0.04745,-0.0145,0.00061,0.01297,-0.01343,0.06165,-0.05035,-0.0322,-0.01846,0.009,-0.04364
4.4175,0.0032,-0.0473,-0.01953,0.03128,-0.02853,-0.047,-0.01663,0.00092,0.01312,-0.0058,0.04272,-0.09811,-0.03235,-0.01923,0.01038,-0.04303
4.418,-0.00931,-0.047,-0.00122,0.04044,-0.03143,-0.04532,-0.01648,0.00107,0.01297,-0.00397,0.02106,-0.14084,-0.03281,-0.02045,0.01114,-0.04089
4.4185,-0.01694,-0.05356,0.00412,0.01587,-0.03342,-0.04364,-0.0148,0.00198,0.01007,-0.00351,0.0029,-0.15152,-0.03326,-0.02182,0.01129,-0.03983
4.419,-0.01862,-0.07141,0.00122,-0.02533,-0.02975,-0.04257,-0.01465,0.00168,0.00549,0.00015,-0.00824,-0.11749,-0.03296,-0.02258,0.01175,-0.03952
4.4195,-0.01312,-0.09445,0.0,-0.05325,-0.01816,-0.04318,-0.01587,0.00168,-0.00351,0.00885,-0.01312,-0.06409,-0.03113,-0.02075,0.01068,-0.03952
4.42,-0.00534,-0.11124,0.00443,-0.04639,-0.00366,-0.04379,-0.01602,0.00015,-0.01465,0.0174,-0.01541,-0.03036,-0.02884,-0.01602,0.01007,-0.04074
4.4205,0.0,-0.11581,0.01343,-0.0032,0.01144,-0.04578,-0.01495,-0.00092,-0.02289,0.02121,-0.0206,-0.01816,-0.02655,-0.01404,0.00931,-0.04211
4.421,0.00259,-0.10864,0.02472,0.03342,0.02304,-0.04761,-0.01572,-0.00214,-0.02548,0.02136,-0.03143,0.00397,-0.02289,-0.01526,0.00977,-0.04257
4.4215,0.00412,-0.09293,0.03967,0.0206,0.03159,-0.04822,-0.01709,-0.00229,-0.02609,0.02075,-0.0441,0.04547,-0.01816,-0.01663,0.01022,-0.0412
4.422,0.0029,-0.07248,0.06882,-0.01938,0.03693,-0.04791,-0.01816,-0.00168,-0.03235,0.01953,-0.05386,0.07797,-0.01434,-0.01434,0.01068,-0.04013
4.4225,-0.00198,-0.04883,0.12207,-0.01877,0.03418,-0.04852,-0.01724,-0.00244,-0.04578,0.01587,-0.05707,0.09811,-0.01236,-0.0119,0.01038,-0.04105
4.423,-0.01068,-0.02045,0.18265,0.03738,0.01328,-0.05051,-0.01556,-0.00275,-0.05783,0.01266,-0.05951,0.14542,-0.01221,-0.01083,0.00916,-0.04272
4.4235,-0.02243,0.01007,0.22018,0.08606,-0.03036,-0.05249,-0.01404,-0.00336,-0.05844,0.01022,-0.06485,0.22049,-0.01572,-0.01129,0.009,-0.0444
4.424,-0.03128,0.03647,0.2124,0.07263,-0.08743,-0.05402,-0.01495,-0.00443,-0.04791,0.00961,-0.07034,0.25284,-0.0235,-0.01175,0.00839,-0.04288
4.4245,-0.03586,0.05615,0.15778,0.0267,-0.13397,-0.05417,-0.0174,-0.00504,-0.03632,0.01205,-0.06775,0.18875,-0.03677,-0.01358,0.00916,-0.04196
4.425,-0.03891,0.07034,0.06729,0.01282,-0.14542,-0.05096,-0.0209,-0.00473,-0.03006,0.01846,-0.05325,0.07462,-0.056,-0.01678,0.00931,-0.04135
4.4255,-0.04059,0.0795,-0.04456,0.04303,-0.11795,-0.04807,-0.02289,-0.00427,-0.02747,0.02472,-0.03235,-0.00214,-0.07858,-0.01984,0.00778,-0.04166
4.426,-0.0412,0.07889,-0.15076,0.0647,-0.07599,-0.04669,-0.02197,-0.00458,-0.02029,0.02426,-0.01434,-0.00778,-0.09476,-0.02243,0.00595,-0.04272
4.4265,-0.04242,0.06332,-0.22079,0.03738,-0.05219,-0.04959,-0.0209,-0.0058,-0.00534,0.01358,-0.00412,0.01297,-0.09415,-0.02396,0.00534,-0.04257
4.427,-0.04608,0.03265,-0.23087,-0.01007,-0.04929,-0.0531,-0.01968,-0.00748,0.01099,-0.0061,0.00229,0.01556,-0.07889,-0.02411,0.00504,-0.04272
4.4275,-0.04959,-0.01068,-0.18051,-0.0296,-0.05066,-0.05539,-0.02029,-0.00748,0.01999,-0.03403,0.00977,0.00519,-0.0618,-0.02396,0.00519,-0.0444
4.428,-0.05035,-0.06149,-0.09583,-0.02975,-0.04684,-0.05737,-0.02045,-0.00702,0.02151,-0.06165,0.01862,0.01297,-0.05219,-0.02365,0.00504,-0.04486
4.4285,-0.04684,-0.10696,-0.0174,-0.05081,-0.04318,-0.06027,-0.01953,-0.00687,0.01907,-0.07294,0.02792,0.04547,-0.04913,-0.0238,0.0058,-0.0441
4.429,-0.0383,-0.13702,0.02731,-0.09018,-0.0444,-0.06027,-0.01663,-0.00626,0.01648,-0.06287,0.02975,0.07584,-0.047,-0.02304,0.00671,-0.04257
4.4295,-0.02792,-0.15045,0.02686,-0.09781,-0.04257,-0.05737,-0.01297,-0.00565,0.01633,-0.04349,0.02121,0.08072,-0.04379,-0.02197,0.0061,-0.0415
4.43,-0.01617,-0.15045,-0.01617,-0.05417,-0.02975,-0.0531,-0.009,-0.00397,0.01923,-0.03311,-0.00412,0.06378,-0.04044,-0.0206,0.00702,-0.04227
4.4305,-0.00488,-0.13596,-0.08484,0.01144,-0.0119,-0.0499,-0.00473,-0.00198,0.02243,-0.03845,-0.03784,0.04013,-0.03723,-0.0209,0.00778,-0.0444
4.431,0.0058,-0.10925,-0.1561,0.08362,-0.00458,-0.04669,-0.00168,0.00168,0.02457,-0.04868,-0.06561,0.01633,-0.03479,-0.02182,0.00839,-0.04395
4.4315,0.01526,-0.07858,-0.20813,0.17303,-0.01266,-0.04364,0.00168,0.00641,0.02365,-0.04745,-0.07507,-0.01129,-0.03357,-0.02243,0.00854,-0.04135
4.432,0.02258,-0.05295,-0.23499,0.23972,-0.02182,-0.04288,0.0032,0.00778,0.0209,-0.02838,-0.06607,-0.03983,-0.03342,-0.02106,0.00809,-0.03952
4.4325,0.02701,-0.03647,-0.24094,0.18173,-0.01816,-0.04257,0.00351,0.00504,0.01465,-0.00214,-0.03937,-0.05997,-0.03448,-0.01846,0.00809,-0.04044
4.433,0.03204,-0.02426,-0.23148,-0.02563,-0.00534,-0.04105,0.00183,0.0,0.00732,0.0148,0.00656,-0.06577,-0.03418,-0.0177,0.00824,-0.04211
4.4335,0.03906,-0.0174,-0.20905,-0.24689,0.00259,-0.03769,-0.0032,-0.00275,-0.00259,0.02029,0.06622,-0.06287,-0.03342,-0.01846,0.00793,-0.0441
4.434,0.04913,-0.01617,-0.17883,-0.30746,0.00275,-0.0351,-0.00839,-0.00412,-0.01404,0.02213,0.11871,-0.05783,-0.03235,-0.01999,0.0087,-0.04532
4.4345,0.05875,-0.02335,-0.14877,-0.19577,0.00107,-0.03418,-0.01297,-0.00641,-0.02655,0.02747,0.14481,-0.05661,-0.03174,-0.02075,0.00885,-0.04623
4.435,0.06241,-0.03479,-0.12512,-0.065,0.00076,-0.03464,-0.01541,-0.00916,-0.03677,0.02838,0.14603,-0.05951,-0.03174,-0.02151,0.0087,-0.04669
4.4355,0.05951,-0.04547,-0.10971,-0.03265,-0.00153,-0.0354,-0.01801,-0.00992,-0.04242,0.02121,0.13962,-0.06424,-0.03159,-0.02258,0.00961,-0.04654
4.436,0.05173,-0.05417,-0.10239,-0.06729,-0.00626,-0.03708,-0.02151,-0.00824,-0.04547,0.01358,0.13641,-0.07385,-0.03113,-0.02197,0.00916,-0.04425
4.4365,0.04303,-0.06134,-0.10605,-0.08362,-0.01068,-0.03967,-0.02396,-0.00656,-0.04852,0.01404,0.13763,-0.08987,-0.02975,-0.02121,0.00931,-0.04318
4.437,0.03403,-0.06775,-0.12283,-0.06348,-0.01511,-0.04135,-0.02213,-0.00626,-0.0531,0.02213,0.13458,-0.10864,-0.02808,-0.01984,0.01053,-0.04196
4.4375,0.02319,-0.07126,-0.14542,-0.04318,-0.01755,-0.04196,-0.01709,-0.00366,-0.05905,0.02625,0.11902,-0.11948,-0.02609,-0.0174,0.01129,-0.04196
4.438,0.01282,-0.07126,-0.16708,-0.03906,-0.01984,-0.04272,-0.01404,-0.00137,-0.06592,0.0206,0.08514,-0.1181,-0.02441,-0.01511,0.01022,-0.04166
4.4385,0.00641,-0.07248,-0.18372,-0.03738,-0.02319,-0.04288,-0.01282,0.00015,-0.07095,0.00793,0.03952,-0.10498,-0.02335,-0.01389,0.00702,-0.04166
4.439,0.00763,-0.0769,-0.19424,-0.02869,-0.02716,-0.04181,-0.01373,0.00031,-0.07095,-0.00565,-0.00992,-0.07629,-0.02289,-0.01419,0.00565,-0.04135
4.4395,0.01678,-0.08301,-0.19562,-0.02045,-0.03082,-0.04089,-0.01358,0.00168,-0.06088,-0.01587,-0.06042,-0.02716,-0.02228,-0.01389,0.00809,-0.04242
4.44,0.02975,-0.08743,-0.17532,-0.01999,-0.0322,-0.03906,-0.01358,0.00412,-0.04089,-0.02213,-0.11551,0.03693,-0.02029,-0.01175,0.01129,-0.04318
4.4405,0.04333,-0.09308,-0.12375,-0.02411,-0.03082,-0.03937,-0.01343,0.00519,-0.02045,-0.02594,-0.16586,0.09491,-0.01846,-0.00977,0.01205,-0.04425
4.441,0.05585,-0.09888,-0.04196,-0.02655,-0.02975,-0.04028,-0.01556,0.00381,-0.00793,-0.02731,-0.20615,0.11902,-0.0174,-0.01022,0.01053,-0.04517
4.4415,0.06287,-0.09933,0.05417,-0.0267,-0.03036,-0.0415,-0.01862,0.00061,-0.00656,-0.03143,-0.24384,0.09644,-0.0174,-0.01221,0.00748,-0.04578
4.442,0.05783,-0.09018,0.15717,-0.02228,-0.03113,-0.04166,-0.02106,-0.00397,-0.00931,-0.04272,-0.27451,0.0502,-0.0177,-0.01328,0.00687,-0.04608
4.4425,0.03983,-0.07629,0.25299,-0.01205,-0.03265,-0.04135,-0.02182,-0.00809,-0.01007,-0.05264,-0.26978,0.02197,-0.01907,-0.01266,0.00687,-0.04532
4.443,0.01617,-0.06516,0.31296,0.0029,-0.03448,-0.04257,-0.02167,-0.01389,-0.00778,-0.04807,-0.2153,0.02335,-0.01938,-0.01282,0.00824,-0.04333
4.4435,-0.00473,-0.05768,0.31204,0.01602,-0.03555,-0.0444,-0.02045,-0.0174,-0.0087,-0.02884,-0.13535,0.02945,-0.0206,-0.01617,0.00961,-0.04211
4.444,-0.02167,-0.04761,0.25696,0.01907,-0.03784,-0.04761,-0.01785,-0.01617,-0.01282,-0.00473,-0.06714,0.02213,-0.02029,-0.01938,0.00946,-0.04242
4.4445,-0.03891,-0.02853,0.18341,0.01511,-0.03754,-0.0499,-0.01587,-0.01129,-0.01633,0.0119,-0.02319,0.0087,-0.01907,-0.0209,0.00824,-0.04181
4.445,-0.05844,-0.00504,0.11734,0.01022,-0.03708,-0.05219,-0.01495,-0.00748,-0.01694,0.01984,-0.00031,0.00443,-0.01892,-0.02106,0.00748,-0.04089
4.4455,-0.07721,0.01373,0.07126,0.00702,-0.0354,-0.05447,-0.01526,-0.00778,-0.01755,0.02716,-0.00336,0.00977,-0.0209,-0.02197,0.0087,-0.03983
4.446,-0.0882,0.02487,0.04608,-0.00031,-0.0354,-0.05585,-0.01572,-0.00809,-0.02228,0.04211,-0.03906,0.01526,-0.02396,-0.02365,0.00916,-0.03922
4.4465,-0.08682,0.03067,0.03937,-0.01617,-0.03693,-0.05478,-0.01587,-0.00702,-0.02991,0.06546,-0.10498,0.02197,-0.02502,-0.02411,0.00931,-0.04028
4.447,-0.07263,0.03296,0.04242,-0.03708,-0.03937,-0.05341,-0.01526,-0.00565,-0.03784,0.07828,-0.18784,0.03571,-0.02533,-0.02258,0.00885,-0.04074
4.4475,-0.05188,0.0325,0.04517,-0.05966,-0.04211,-0.05341,-0.01404,-0.00595,-0.03983,0.06485,-0.27222,0.0528,-0.02579,-0.01953,0.00839,-0.04044
4.448,-0.03357,0.02869,0.04349,-0.08148,-0.04517,-0.056,-0.0148,-0.00641,-0.03418,0.02304,-0.33722,0.06165,-0.02792,-0.01678,0.00717,-0.04211
4.4485,-0.02365,0.02289,0.03494,-0.08911,-0.04898,-0.05814,-0.01816,-0.00519,-0.02701,-0.03067,-0.36469,0.05569,-0.03113,-0.01495,0.00717,-0.04486
4.449,-0.01862,0.01694,0.02106,-0.06561,-0.05249,-0.05859,-0.01938,-0.00412,-0.02899,-0.07431,-0.33936,0.04211,-0.03311,-0.0177,0.00717,-0.04532
4.4495,-0.01358,0.01144,0.01144,-0.01877,-0.05173,-0.05783,-0.01755,-0.00305,-0.04166,-0.08499,-0.24704,0.02563,-0.0325,-0.02167,0.00687,-0.04333
4.45,-0.01022,0.00275,0.01892,0.01556,-0.04883,-0.05676,-0.01511,-0.00198,-0.05569,-0.06577,-0.08469,0.00702,-0.03067,-0.02411,0.0058,-0.04089
4.4505,-0.01083,-0.01389,0.03738,0.01816,-0.04715,-0.05707,-0.01602,-0.00061,-0.06134,-0.04425,0.12589,-0.01541,-0.0296,-0.02396,0.00565,-0.04044
4.451,-0.0148,-0.03723,0.05371,0.0087,-0.04715,-0.05646,-0.01831,-0.00031,-0.05722,-0.04974,0.33295,-0.03632,-0.02869,-0.02045,0.00671,-0.04059
4.4515,-0.01877,-0.05875,0.05981,0.01312,-0.0499,-0.05508,-0.01877,-0.00122,-0.04852,-0.07736,0.48416,-0.04593,-0.02853,-0.01633,0.00885,-0.04013
4.452,-0.01907,-0.06943,0.05585,0.03052,-0.0499,-0.05493,-0.01755,-0.00168,-0.04089,-0.10376,0.54749,-0.04135,-0.0267,-0.01312,0.00839,-0.0383
4.4525,-0.01678,-0.06836,0.04501,0.03845,-0.04883,-0.05615,-0.01495,-0.00122,-0.03464,-0.11398,0.522,-0.03082,-0.02426,-0.01251,0.00519,-0.03693
4.453,-0.01205,-0.0647,0.02808,0.02838,-0.04807,-0.05737,-0.01297,-0.00031,-0.02884,-0.11505,0.42953,-0.02182,-0.02258,-0.01221,0.0032,-0.03418
4.4535,-0.00656,-0.06683,0.01068,0.02426,-0.04654,-0.0563,-0.01129,0.00046,-0.02426,-0.1152,0.30655,-0.01205,-0.02258,-0.01205,0.00427,-0.03143
4.454,-0.00214,-0.0737,-0.00336,0.0444,-0.04486,-0.05325,-0.01053,0.00229,-0.02106,-0.11749,0.19058,0.00366,-0.02304,-0.01053,0.00565,-0.02914
4.4545,0.00122,-0.07935,-0.0174,0.05814,-0.04211,-0.05051,-0.01114,0.00397,-0.0209,-0.12115,0.10651,0.0116,-0.02411,-0.01068,0.00565,-0.03159
4.455,0.00412,-0.07645,-0.03418,0.02136,-0.03906,-0.04837,-0.01038,0.00305,-0.0206,-0.12726,0.06042,-0.01053,-0.02426,-0.01114,0.00519,-0.03525
4.4555,0.00824,-0.07019,-0.05249,-0.04349,-0.03632,-0.04562,-0.00778,0.00183,-0.0177,-0.13824,0.04028,-0.06104,-0.02457,-0.01175,0.00626,-0.03876
4.456,0.01343,-0.06638,-0.06744,-0.07462,-0.03281,-0.04349,-0.0061,0.00229,-0.0116,-0.14801,0.03403,-0.10422,-0.02579,-0.00961,0.00839,-0.03983
4.4565,0.01846,-0.06577,-0.0769,-0.05936,-0.03113,-0.04257,-0.00687,0.0032,-0.00671,-0.14786,0.03326,-0.11703,-0.02762,-0.00732,0.00992,-0.03906
4.457,0.02136,-0.06592,-0.08347,-0.03632,-0.03082,-0.04288,-0.00885,0.00137,-0.00259,-0.13596,0.03845,-0.12604,-0.02914,-0.00549,0.01007,-0.0386
4.4575,0.02045,-0.06302,-0.08804,-0.02701,-0.03143,-0.04227,-0.00809,-0.00046,-0.00137,-0.11673,0.04501,-0.16708,-0.02991,-0.0061,0.00961,-0.04028
4.458,0.01648,-0.05676,-0.08804,-0.02228,-0.03021,-0.04089,-0.00626,0.00076,-0.00076,-0.0946,0.04288,-0.23575,-0.0293,-0.00931,0.0087,-0.04272
4.4585,0.01389,-0.04837,-0.08408,-0.01343,-0.03021,-0.03998,-0.00626,0.00076,0.00092,-0.07248,0.02777,-0.29877,-0.02899,-0.01282,0.00763,-0.04364
4.459,0.01205,-0.04074,-0.07736,-0.0061,-0.03036,-0.04028,-0.00809,0.00031,0.00702,-0.05127,0.00244,-0.32135,-0.0296,-0.01434,0.00687,-0.04272
4.4595,0.01251,-0.0351,-0.07095,-0.00519,-0.03143,-0.04166,-0.00748,0.00168,0.01648,-0.03738,-0.02167,-0.26474,-0.02884,-0.01312,0.00961,-0.0412
4.46,0.01251,-0.03174,-0.06378,-0.00549,-0.03204,-0.04105,-0.00443,0.0032,0.02426,-0.02991,-0.03403,-0.08774,-0.02686,-0.01038,0.01266,-0.03922
4.4605,0.01007,-0.03067,-0.0592,-0.00504,-0.03189,-0.03967,-0.00351,0.00015,0.02716,-0.02151,-0.03204,0.16937,-0.02365,-0.009,0.01556,-0.03769
4.461,0.00458,-0.03143,-0.05264,-0.00473,-0.03204,-0.03922,-0.00809,-0.0058,0.02716,-0.00717,-0.02396,0.34988,-0.02121,-0.01007,0.01495,-0.03586
4.4615,-0.00244,-0.03357,-0.04562,-0.00504,-0.03128,-0.03876,-0.01556,-0.00916,0.0293,0.00778,-0.02731,0.3186,-0.02106,-0.01266,0.01221,-0.0354
4.462,-0.00992,-0.03632,-0.03891,-0.00443,-0.03052,-0.0383,-0.01801,-0.00656,0.03174,0.01541,-0.04471,0.13031,-0.02319,-0.01465,0.00916,-0.03769
4.4625,-0.01709,-0.03784,-0.03647,-0.00259,-0.02914,-0.03723,-0.01633,-0.00122,0.03143,0.01709,-0.06439,-0.03143,-0.02548,-0.01602,0.00763,-0.04074
4.463,-0.02182,-0.03906,-0.0354,-0.00168,-0.02716,-0.03616,-0.01434,0.00046,0.02762,0.01678,-0.07339,-0.06744,-0.02686,-0.01724,0.00748,-0.04364
4.4635,-0.02167,-0.03967,-0.03342,-0.00275,-0.02625,-0.0354,-0.01404,-0.00092,0.02228,0.01801,-0.07462,-0.03387,-0.02823,-0.01892,0.00778,-0.04562
4.464,-0.01877,-0.03876,-0.02426,-0.00427,-0.02655,-0.03693,-0.01373,-0.00198,0.01617,0.01999,-0.07492,-0.00565,-0.02899,-0.02029,0.00687,-0.04456
4.4645,-0.01419,-0.03357,0.00397,-0.00336,-0.02609,-0.03723,-0.01221,-0.00122,0.01129,0.02213,-0.07996,0.03098,-0.02899,-0.02151,0.00656,-0.04272
4.465,-0.01144,-0.02563,0.03891,-0.00137,-0.02472,-0.0386,-0.01022,0.00015,0.00687,0.02472,-0.09338,0.10986,-0.02716,-0.02243,0.00641,-0.04074
4.4655,-0.00992,-0.01923,0.02335,-0.00092,-0.02365,-0.03998,-0.00946,0.00168,0.00626,0.02563,-0.11734,0.18524,-0.0264,-0.02518,0.00687,-0.04013
4.466,-0.00885,-0.0174,-0.09674,-0.00259,-0.02365,-0.04166,-0.00977,0.00061,0.00656,0.02365,-0.14465,0.18494,-0.02823,-0.02777,0.00656,-0.04227
4.4665,-0.00748,-0.01877,-0.27267,-0.00443,-0.02487,-0.04257,-0.009,-0.00381,0.00488,0.01877,-0.16663,0.11795,-0.03326,-0.02914,0.0058,-0.0444
4.467,-0.00748,-0.0206,-0.35812,-0.00412,-0.02792,-0.04349,-0.00931,-0.01251,0.00092,0.01297,-0.1796,0.06073,-0.03891,-0.03021,0.00549,-0.04578
4.4675,-0.00977,-0.01953,-0.25955,-0.00305,-0.03113,-0.04364,-0.0116,-0.01968,-0.00305,0.00671,-0.18417,0.05127,-0.04532,-0.03082,0.00565,-0.04623
4.468,-0.01556,-0.0145,-0.04074,-0.00244,-0.03418,-0.04364,-0.01419,-0.01923,-0.0058,-0.00031,-0.17349,0.05859,-0.05157,-0.03128,0.00565,-0.04608
4.4685,-0.02121,-0.00961,0.15244,-0.0029,-0.03326,-0.04608,-0.01419,-0.0119,-0.00702,-0.00702,-0.13962,0.047,-0.05783,-0.03082,0.0058,-0.04639
4.469,-0.02457,-0.00809,0.23941,-0.00381,-0.03113,-0.04776,-0.01221,-0.00443,-0.00946,-0.009,-0.08652,0.01373,-0.06363,-0.03113,0.00565,-0.04608
4.4695,-0.02441,-0.01343,0.23071,-0.00275,-0.02884,-0.04822,-0.00992,-0.00092,-0.01144,-0.00763,-0.03204,-0.03525,-0.06607,-0.0325,0.00702,-0.04456
4.47,-0.02106,-0.02609,0.1683,0.00046,-0.02747,-0.0499,-0.01099,0.00031,-0.01129,-0.00351,0.00793,-0.10178,-0.06332,-0.03326,0.00885,-0.04303
4.4705,-0.01923,-0.04364,0.07996,0.00275,-0.02625,-0.05203,-0.01205,0.00046,-0.00809,-0.00198,0.02853,-0.16617,-0.05692,-0.03235,0.00992,-0.04166
4.471,-0.01938,-0.05737,-0.01266,0.00214,-0.02594,-0.05371,-0.01358,0.00046,-0.00275,-0.0029,0.0322,-0.18631,-0.05112,-0.03036,0.01022,-0.04089
4.4715,-0.02075,-0.06317,-0.09323,0.00092,-0.02899,-0.05341,-0.0145,-0.00092,0.00092,-0.00351,0.02319,-0.13565,-0.04852,-0.0296,0.01297,-0.0412
4.472,-0.0235,-0.06454,-0.14542,0.0029,-0.03189,-0.05142,-0.01526,-0.00168,0.00366,-0.0029,0.0087,-0.03021,-0.04852,-0.02945,0.01328,-0.04211
4.4725,-0.02609,-0.07019,-0.16525,0.00854,-0.03571,-0.04944,-0.01602,-0.00122,0.00488,0.00015,-0.00488,0.07401,-0.04791,-0.02991,0.01236,-0.04349
4.473,-0.02716,-0.08148,-0.15823,0.01785,-0.03906,-0.0499,-0.01465,-0.00015,0.00443,0.0061,-0.01282,0.11765,-0.04669,-0.02792,0.01038,-0.04562
4.4735,-0.02655,-0.09094,-0.13763,0.02777,-0.04181,-0.05051,-0.01526,0.00076,0.00107,0.0177,-0.01266,0.09079,-0.04532,-0.02579,0.00916,-0.04639
4.474,-0.02396,-0.09094,-0.11642,0.03113,-0.04166,-0.05051,-0.01755,0.00061,-0.00504,0.03326,-0.00839,0.04471,-0.04501,-0.02533,0.0087,-0.0444
4.4745,-0.01694,-0.07858,-0.10254,0.02121,-0.04028,-0.0502,-0.02075,-0.00168,-0.0116,0.0444,-0.0087,0.02319,-0.04471,-0.02686,0.00946,-0.04196
4.475,-0.00763,-0.06027,-0.09171,0.00061,-0.03677,-0.05051,-0.0206,-0.00473,-0.01602,0.04257,-0.01129,0.01694,-0.04333,-0.02701,0.00992,-0.04105
4.4755,0.00504,-0.04288,-0.07767,-0.02747,-0.03281,-0.05081,-0.01877,-0.00656,-0.01846,0.03204,-0.01266,0.01114,-0.04059,-0.02563,0.00946,-0.04257
4.476,0.01526,-0.03021,-0.06226,-0.05859,-0.03143,-0.05005,-0.01709,-0.00626,-0.02029,0.02518,-0.01343,0.03723,-0.03922,-0.02472,0.00854,-0.04395
4.4765,0.02029,-0.02228,-0.04898,-0.07645,-0.03189,-0.04974,-0.01694,-0.00549,-0.02274,0.02914,-0.01892,0.12482,-0.03845,-0.02502,0.00809,-0.0441
4.477,0.0206,-0.01831,-0.03967,-0.05508,-0.03342,-0.04944,-0.01816,-0.00504,-0.02411,0.03494,-0.02823,0.21835,-0.03693,-0.02472,0.00854,-0.04303
4.4775,0.01984,-0.01694,-0.03494,0.00565,-0.0351,-0.04791,-0.01892,-0.00366,-0.02258,0.03326,-0.03387,0.22217,-0.03586,-0.02441,0.01038,-0.04196
4.478,0.02182,-0.01343,-0.03464,0.05508,-0.03494,-0.04745,-0.01892,-0.00061,-0.02014,0.02533,-0.03586,0.12726,-0.03586,-0.02304,0.01068,-0.03967
4.4785,0.02396,-0.00351,-0.03876,0.03296,-0.03387,-0.04776,-0.01709,0.00351,-0.01877,0.01587,-0.04013,0.0293,-0.03601,-0.02365,0.01083,-0.03708
4.479,0.02274,0.00702,-0.04242,-0.04349,-0.03342,-0.04868,-0.01312,0.00519,-0.01587,0.01526,-0.05173,-0.00687,-0.03616,-0.02396,0.01022,-0.03372
4.4795,0.01862,0.00443,-0.04745,-0.09293,-0.03082,-0.04929,-0.01129,0.00458,-0.00641,0.01251,-0.06378,-0.00275,-0.03616,-0.02426,0.01312,-0.03021
4.48,0.01434,-0.02075,-0.05142,-0.06775,-0.03021,-0.05005,-0.01282,0.00305,0.0087,0.01053,-0.0705,-0.00046,-0.03738,-0.0235,0.01282,-0.02838
4.4805,0.00946,-0.06134,-0.0473,-0.01144,-0.03235,-0.0499,-0.01648,0.00214,0.02045,0.01007,-0.06943,-0.00061,-0.03891,-0.02243,0.01221,-0.02945
4.481,0.00473,-0.09689,-0.02731,0.01312,-0.0351,-0.04959,-0.02045,0.0,0.0206,0.01755,-0.05722,0.00443,-0.03922,-0.02228,0.01083,-0.03128
4.4815,-0.00092,-0.11276,0.00549,0.00092,-0.03494,-0.04929,-0.01953,-0.00427,0.00916,0.02197,-0.03387,0.0087,-0.03738,-0.02228,0.01022,-0.03403
4.482,-0.00366,-0.10864,0.03738,-0.01205,-0.03159,-0.04852,-0.01694,-0.00977,-0.00641,0.01038,-0.00946,0.0061,-0.03387,-0.0209,0.00916,-0.03845
4.4825,-0.00565,-0.08987,0.05615,-0.00351,-0.03052,-0.04868,-0.01511,-0.01465,-0.01923,-0.01266,0.01114,0.00122,-0.02914,-0.01923,0.00809,-0.04562
4.483,-0.00748,-0.06058,0.06546,0.01297,-0.03159,-0.04974,-0.0145,-0.01755,-0.02518,-0.0351,0.02808,0.0029,-0.02289,-0.01755,0.00717,-0.05157
4.4835,-0.01251,-0.02625,0.07126,0.01663,-0.03189,-0.05051,-0.01541,-0.0174,-0.03006,-0.05188,0.04364,0.01282,-0.01617,-0.01617,0.00717,-0.05341
4.484,-0.01907,0.00259,0.07294,-0.00458,-0.03006,-0.05142,-0.01602,-0.01404,-0.03571,-0.07141,0.05524,0.01877,-0.00946,-0.01556,0.00687,-0.04974
4.4845,-0.02441,0.01648,0.06744,-0.05615,-0.02594,-0.05188,-0.01587,-0.00824,-0.04211,-0.10284,0.05844,0.00931,-0.00381,-0.01404,0.00534,-0.04654
4.485,-0.02655,0.0148,0.05173,-0.12619,-0.02457,-0.05234,-0.01556,-0.0032,-0.04608,-0.13809,0.05478,-0.01465,0.00122,-0.01343,0.00443,-0.04547
4.4855,-0.02472,0.00458,0.02838,-0.18433,-0.02777,-0.0531,-0.01419,-0.00107,-0.04745,-0.14648,0.05341,-0.03357,0.00458,-0.01328,0.00504,-0.04578
4.486,-0.02029,-0.00656,-0.00458,-0.20386,-0.03418,-0.05432,-0.01358,-0.00061,-0.04959,-0.11383,0.05966,-0.03128,0.00778,-0.01465,0.00641,-0.0444
4.4865,-0.01175,-0.01251,-0.04776,-0.18234,-0.03632,-0.05554,-0.01343,0.00107,-0.05051,-0.05722,0.06577,-0.01617,0.01144,-0.01755,0.00641,-0.04257
4.487,-0.00168,-0.0145,-0.09491,-0.13748,-0.03357,-0.05569,-0.01373,0.00244,-0.0499,-0.01678,0.06622,-0.00504,0.01389,-0.01938,0.00656,-0.04181
4.4875,0.00763,-0.01572,-0.1326,-0.07355,-0.02853,-0.05585,-0.0145,0.00107,-0.04883,-0.00809,0.0618,-0.00809,0.01297,-0.01968,0.00732,-0.04196
4.488,0.01175,-0.02579,-0.15488,0.01617,-0.0238,-0.05463,-0.01419,-0.00046,-0.04608,-0.01953,0.05508,-0.02167,0.00763,-0.01755,0.01007,-0.04211
4.4885,0.01099,-0.04623,-0.16296,0.10437,-0.02472,-0.05356,-0.01587,-0.00153,-0.04257,-0.02853,0.04654,-0.03937,-0.00443,-0.01633,0.01068,-0.04257
4.489,0.00656,-0.0708,-0.16144,0.12817,-0.02731,-0.05341,-0.01785,-0.00076,-0.0386,-0.02533,0.03372,-0.06088,-0.02762,-0.01556,0.00961,-0.04211
4.4895,0.00015,-0.0885,-0.15442,0.06683,-0.02823,-0.0528,-0.01785,0.00076,-0.03601,-0.01541,0.0209,-0.08743,-0.06226,-0.01556,0.00687,-0.04089
4.49,-0.00916,-0.09689,-0.14618,-0.00641,-0.02945,-0.05142,-0.01678,0.00137,-0.03403,-0.00427,0.00977,-0.11551,-0.0943,-0.01526,0.00549,-0.03998
4.4905,-0.02029,-0.09613,-0.13931,-0.00809,-0.02655,-0.04974,-0.01572,-0.00168,-0.03311,0.00656,-0.00198,-0.12192,-0.10788,-0.01526,0.00504,-0.04074
4.491,-0.03113,-0.08636,-0.13321,0.06271,-0.02182,-0.04852,-0.01633,-0.00626,-0.03159,0.0177,-0.02014,-0.09369,-0.10117,-0.01511,0.00504,-0.04288
4.4915,-0.03754,-0.06561,-0.12589,0.14603,-0.01923,-0.04562,-0.01556,-0.00885,-0.02747,0.03036,-0.04318,-0.05722,-0.08698,-0.01389,0.00549,-0.04166
4.492,-0.03876,-0.04257,-0.11765,0.21118,-0.01831,-0.04379,-0.01434,-0.00687,-0.02151,0.03937,-0.06424,-0.05325,-0.07462,-0.01144,0.00671,-0.04028
4.4925,-0.03754,-0.02121,-0.11108,0.2475,-0.01892,-0.04288,-0.01297,-0.00259,-0.01389,0.0415,-0.07248,-0.07721,-0.06256,-0.00931,0.0087,-0.03998
4.493,-0.03433,-0.00626,-0.10605,0.21286,-0.01724,-0.04211,-0.01266,0.0,-0.00702,0.03677,-0.06882,-0.0827,-0.0499,-0.00671,0.01099,-0.04028
4.4935,-0.0267,0.00183,-0.10223,0.09903,-0.01648,-0.04211,-0.01236,0.00137,-0.00366,0.02792,-0.06851,-0.03723,-0.03876,-0.00732,0.0119,-0.0415
4.494,-0.01511,0.00641,-0.09964,0.03021,-0.01617,-0.0415,-0.01129,0.00229,-0.00412,0.01984,-0.07782,0.03067,-0.03357,-0.01007,0.01251,-0.04135
4.4945,-0.00137,0.00885,-0.10208,0.11169,-0.01633,-0.04074,-0.01205,0.00198,-0.00687,0.01328,-0.08408,0.0647,-0.03143,-0.0119,0.0116,-0.04105
4.495,0.00778,0.00885,-0.11414,0.21927,-0.01663,-0.04089,-0.01419,0.00046,-0.00824,0.00961,-0.07233,0.04761,-0.0296,-0.01312,0.01022,-0.04013
4.4955,0.01221,-0.00336,-0.12848,0.13977,-0.01663,-0.0415,-0.01526,-0.00198,-0.00717,0.00809,-0.03906,0.01831,-0.02579,-0.01282,0.00824,-0.04059
4.496,0.0145,-0.0386,-0.13382,-0.10406,-0.01831,-0.04044,-0.01389,-0.00366,-0.00488,0.00702,0.00259,0.01389,-0.02045,-0.0148,0.00687,-0.04227
4.4965,0.01541,-0.09583,-0.12054,-0.26581,-0.02045,-0.04028,-0.01434,-0.00443,-0.00427,-0.00153,0.03708,0.02411,-0.01785,-0.01587,0.00687,-0.04486
4.497,0.01648,-0.15015,-0.09781,-0.21606,-0.01968,-0.04105,-0.01694,-0.00656,-0.00565,-0.02472,0.05615,0.02701,-0.0177,-0.01633,0.00702,-0.04654
4.4975,0.01663,-0.17807,-0.07431,-0.08377,-0.01709,-0.0444,-0.01892,-0.00946,-0.0061,-0.0592,0.05936,0.02914,-0.01938,-0.01617,0.0061,-0.04578
4.498,0.01343,-0.18219,-0.04974,-0.02502,-0.01511,-0.04532,-0.01984,-0.0119,-0.00183,-0.08377,0.04837,0.04364,-0.02121,-0.01694,0.0058,-0.04471
4.4985,0.00488,-0.1738,-0.0209,-0.03952,-0.01389,-0.04379,-0.02029,-0.01358,0.00565,-0.08438,0.03311,0.06302,-0.02258,-0.01831,0.00412,-0.04486
4.499,-0.0087,-0.15182,0.00519,-0.05234,-0.01465,-0.04013,-0.02029,-0.01251,0.00946,-0.06607,0.0177,0.06699,-0.02502,-0.01801,0.00397,-0.04608
4.4995,-0.02029,-0.10422,0.02274,-0.04303,-0.01343,-0.03906,-0.01846,-0.00839,0.00427,-0.04456,0.00351,0.05753,-0.02991,-0.01678,0.0058,-0.04745
4.5,-0.02609,-0.03632,0.03189,-0.03616,-0.00977,-0.03845,-0.01572,-0.00336,-0.0058,-0.03189,-0.00671,0.04669,-0.04059,-0.01678,0.00824,-0.04486
4.5005,-0.0238,0.03174,0.03784,-0.04044,-0.00839,-0.0386,-0.01556,0.0,-0.01678,-0.02518,-0.01495,0.03937,-0.05737,-0.0206,0.009,-0.0415
4.501,-0.01785,0.08408,0.04379,-0.04456,-0.00824,-0.04044,-0.01724,0.00061,-0.02808,-0.02167,-0.02335,0.03021,-0.07156,-0.02411,0.009,-0.04059
4.5015,-0.0148,0.11627,0.04623,-0.04486,-0.01236,-0.04242,-0.01755,-0.00122,-0.0386,-0.01999,-0.03235,0.01862,-0.07233,-0.02518,0.01007,-0.04211
4.502,-0.01556,0.1297,0.04135,-0.04105,-0.02563,-0.04562,-0.01663,-0.00488,-0.04684,-0.02136,-0.04059,0.00488,-0.06027,-0.02441,0.01099,-0.04349
4.5025,-0.01709,0.12772,0.03113,-0.03494,-0.04959,-0.04822,-0.01846,-0.0061,-0.04883,-0.02762,-0.04562,-0.00717,-0.04639,-0.02426,0.01038,-0.04395
4.503,-0.01785,0.11337,0.02563,-0.03616,-0.07233,-0.04913,-0.02106,-0.0061,-0.04395,-0.03418,-0.047,-0.01312,-0.03998,-0.02365,0.00854,-0.04395
4.5035,-0.01694,0.09003,0.02731,-0.05508,-0.07355,-0.05051,-0.02243,-0.00504,-0.03479,-0.03647,-0.04593,-0.01541,-0.03845,-0.0235,0.00519,-0.04379
4.504,-0.01617,0.05905,0.03922,-0.07965,-0.05417,-0.05386,-0.02121,-0.00427,-0.02457,-0.03311,-0.04318,-0.01984,-0.03845,-0.02151,0.00427,-0.04425
4.5045,-0.01587,0.02701,0.05722,-0.08392,-0.0415,-0.05798,-0.01999,-0.00366,-0.01633,-0.02655,-0.04166,-0.03204,-0.03677,-0.01923,0.00534,-0.0441
4.505,-0.01602,-0.00244,0.07294,-0.05768,-0.05219,-0.05966,-0.0206,-0.00259,-0.01144,-0.02106,-0.04303,-0.04684,-0.03372,-0.01907,0.00595,-0.04349
4.5055,-0.01633,-0.02777,0.07721,-0.02747,-0.07248,-0.05722,-0.02258,-0.00092,-0.00961,-0.0177,-0.04684,-0.05371,-0.02975,-0.01953,0.00565,-0.04227
4.506,-0.01602,-0.04913,0.06012,-0.0209,-0.0766,-0.0531,-0.02426,0.0,-0.00824,-0.01495,-0.05112,-0.04822,-0.02655,-0.01801,0.00473,-0.04181
4.5065,-0.01175,-0.06531,0.01801,-0.01831,-0.06302,-0.04791,-0.0238,0.00015,-0.00519,-0.01144,-0.056,-0.03876,-0.02502,-0.01526,0.00519,-0.04196
4.507,-0.00443,-0.07477,-0.04532,0.0209,-0.04562,-0.04349,-0.02319,-0.00031,-0.00153,-0.00748,-0.06104,-0.03662,-0.02548,-0.01419,0.00549,-0.04257
4.5075,0.00214,-0.08026,-0.11826,0.07813,-0.03555,-0.04059,-0.02075,-0.00122,0.00137,-0.00488,-0.06531,-0.0415,-0.02792,-0.01404,0.00671,-0.04242
4.508,0.00763,-0.08484,-0.18448,0.08789,-0.03006,-0.04044,-0.01816,-0.00275,0.00092,-0.00031,-0.06668,-0.04318,-0.02899,-0.0145,0.00839,-0.04257
4.5085,0.01343,-0.09232,-0.22797,0.05753,-0.02502,-0.04059,-0.01724,-0.00168,-0.00061,0.00473,-0.06546,-0.03387,-0.02869,-0.01266,0.00946,-0.04272
4.509,0.01846,-0.10376,-0.242,0.07477,-0.01831,-0.04044,-0.01724,-0.00061,-0.00076,0.00244,-0.0621,-0.01877,-0.02838,-0.01175,0.00946,-0.04166
4.5095,0.02289,-0.11459,-0.22842,0.14984,-0.01312,-0.03952,-0.0174,-0.00137,0.00198,-0.01968,-0.06073,-0.00977,-0.02869,-0.01129,0.0087,-0.03998
4.51,0.02563,-0.11841,-0.19241,0.1799,-0.00809,-0.04028,-0.01648,-0.00305,0.00565,-0.05936,-0.06256,-0.01022,-0.02808,-0.0116,0.00793,-0.03922
4.5105,0.02457,-0.112,-0.13428,0.10529,-0.00687,-0.04196,-0.01389,-0.00519,0.0058,-0.08835,-0.0618,-0.01389,-0.02548,-0.01251,0.00946,-0.03876
4.511,0.01892,-0.10101,-0.05615,-0.00839,-0.00961,-0.0444,-0.0119,-0.00641,0.0032,-0.08179,-0.05569,-0.01709,-0.02167,-0.01373,0.01038,-0.03799
4.5115,0.01114,-0.08911,0.02548,-0.08301,-0.01572,-0.04593,-0.00946,-0.00671,-0.00031,-0.04425,-0.05173,-0.01709,-0.02014,-0.01556,0.01022,-0.03784
4.512,0.00626,-0.0769,0.09216,-0.10712,-0.02197,-0.04623,-0.00916,-0.00717,-0.00519,-0.00214,-0.05768,-0.01495,-0.01938,-0.01602,0.00885,-0.04074
4.5125,0.00656,-0.06363,0.13245,-0.11322,-0.02548,-0.04639,-0.00931,-0.00748,-0.01068,0.01907,-0.07767,-0.00839,-0.01831,-0.01556,0.00809,-0.04349
4.513,0.00946,-0.04959,0.14999,-0.1329,-0.02625,-0.04761,-0.00854,-0.00748,-0.01678,0.01236,-0.10864,0.00076,-0.01617,-0.01404,0.00916,-0.04486
4.5135,0.01053,-0.0386,0.15884,-0.17395,-0.02533,-0.04868,-0.00687,-0.00656,-0.02319,-0.00961,-0.14221,0.00595,-0.01434,-0.01251,0.01053,-0.04395
4.514,0.00824,-0.03006,0.16632,-0.19913,-0.02182,-0.04868,-0.00595,-0.00702,-0.03082,-0.02396,-0.16678,0.00244,-0.01343,-0.01114,0.00992,-0.04318
4.5145,0.00381,-0.02487,0.17212,-0.17227,-0.01724,-0.0473,-0.0058,-0.00748,-0.03998,-0.01999,-0.17059,-0.00427,-0.01221,-0.0116,0.00824,-0.04349
4.515,0.00076,-0.02304,0.17426,-0.11993,-0.01358,-0.04623,-0.00488,-0.00626,-0.04807,-0.0087,-0.14755,-0.00732,-0.01038,-0.01282,0.00839,-0.04364
4.5155,0.00046,-0.02487,0.17792,-0.09201,-0.01678,-0.047,-0.00305,-0.0032,-0.05096,-0.00305,-0.09918,-0.00305,-0.01099,-0.01556,0.00931,-0.04349
4.516,0.00198,-0.03082,0.19531,-0.07111,-0.02686,-0.04913,-0.00275,-0.00168,-0.04684,-0.00565,-0.04013,0.00397,-0.01312,-0.01709,0.00992,-0.04272
4.5165,0.00336,-0.04547,0.23987,0.00244,-0.03281,-0.0531,-0.00534,-0.00198,-0.0386,-0.01114,0.01205,0.00427,-0.01511,-0.01633,0.00961,-0.04257
4.517,0.00137,-0.07019,0.30624,0.10788,-0.02441,-0.05508,-0.00778,-0.00153,-0.03189,-0.01602,0.04623,-0.01129,-0.01633,-0.01633,0.01007,-0.04242
4.5175,-0.00214,-0.09415,0.36728,0.14771,-0.00702,-0.05493,-0.00916,0.00031,-0.02975,-0.02167,0.06302,-0.03815,-0.01968,-0.01617,0.01068,-0.04349
4.518,-0.00565,-0.10864,0.39001,0.09247,-0.00565,-0.05341,-0.01114,0.00168,-0.03052,-0.02792,0.07034,-0.06363,-0.02609,-0.01694,0.00992,-0.04425
4.5185,-0.00961,-0.11307,0.36118,0.01816,-0.03616,-0.05219,-0.01541,0.00031,-0.03159,-0.03433,0.07813,-0.07675,-0.03693,-0.01831,0.009,-0.04456
4.519,-0.01602,-0.10971,0.27908,0.0,-0.08942,-0.05356,-0.01968,-0.00336,-0.0296,-0.03632,0.1001,-0.0766,-0.04913,-0.0209,0.00931,-0.04379
4.5195,-0.02274,-0.10025,0.1503,0.03464,-0.13214,-0.05478,-0.0209,-0.00366,-0.02701,-0.03159,0.13763,-0.06912,-0.05707,-0.02289,0.01068,-0.04272
4.52,-0.02701,-0.08484,-0.009,0.07324,-0.13153,-0.05493,-0.0174,-0.00183,-0.0235,-0.02213,0.17807,-0.05188,-0.056,-0.0235,0.01251,-0.0415
4.5205,-0.02884,-0.06744,-0.17303,0.06821,-0.09277,-0.05478,-0.01251,0.00107,-0.01953,-0.01343,0.20096,-0.01816,-0.04745,-0.02258,0.01251,-0.03998
4.521,-0.02975,-0.04898,-0.3186,0.01022,-0.05203,-0.05569,-0.01068,0.0029,-0.01648,-0.00793,0.19836,0.03082,-0.03815,-0.02167,0.01251,-0.03799
4.5215,-0.02991,-0.03128,-0.42465,-0.05371,-0.03586,-0.05661,-0.00992,0.00275,-0.0119,-0.00671,0.16495,0.08774,-0.03342,-0.01923,0.01022,-0.03723
4.522,-0.02808,-0.01556,-0.48309,-0.07324,-0.03769,-0.05798,-0.00931,0.00244,-0.00961,-0.01083,0.09933,0.13458,-0.03296,-0.01694,0.00854,-0.03754
4.5225,-0.02396,-0.00671,-0.49591,-0.05569,-0.03998,-0.05997,-0.00732,0.00046,-0.01221,-0.02747,0.01617,0.14313,-0.03326,-0.01755,0.00854,-0.03784
4.523,-0.01617,-0.0032,-0.47897,-0.04105,-0.03662,-0.06088,-0.00732,-0.00107,-0.01801,-0.06195,-0.05203,0.1059,-0.03265,-0.01877,0.00916,-0.03632
4.5235,-0.00748,-0.00107,-0.44601,-0.04044,-0.03159,-0.05997,-0.00885,-0.00122,-0.02396,-0.10269,-0.08453,0.05371,-0.03174,-0.02121,0.01144,-0.03601
4.524,-0.00153,0.00122,-0.40497,-0.03601,-0.02991,-0.05905,-0.01144,0.00153,-0.02747,-0.1207,-0.08316,0.02274,-0.03098,-0.02411,0.01266,-0.03799
4.5245,-0.00046,0.00015,-0.35767,-0.02472,-0.03006,-0.05875,-0.01251,0.00397,-0.03052,-0.09735,-0.05798,0.01801,-0.03189,-0.02563,0.01221,-0.04211
4.525,-0.00122,-0.0061,-0.30777,-0.01678,-0.02945,-0.05951,-0.01282,0.00397,-0.03281,-0.04822,-0.01831,0.02197,-0.03342,-0.02777,0.01083,-0.04471
4.5255,0.00031,-0.0145,-0.26245,-0.01633,-0.03265,-0.0592,-0.01205,0.00198,-0.03418,-0.00732,0.02701,0.02335,-0.03342,-0.02975,0.00977,-0.047
4.526,0.00366,-0.02472,-0.22705,-0.01694,-0.04684,-0.0592,-0.01129,-0.00076,-0.03616,0.01221,0.06424,0.02563,-0.03326,-0.03067,0.00977,-0.04837
4.5265,0.00595,-0.03906,-0.19684,-0.01434,-0.06943,-0.05814,-0.01083,-0.00137,-0.03738,0.0174,0.0824,0.02945,-0.03296,-0.02945,0.01022,-0.04868
4.527,0.00595,-0.05661,-0.16571,-0.01007,-0.0856,-0.05829,-0.01205,-0.00168,-0.03754,0.01709,0.07767,0.02869,-0.03326,-0.02579,0.01007,-0.04944
4.5275,0.00504,-0.0679,-0.12894,-0.00793,-0.08102,-0.05768,-0.01297,0.0,-0.03586,0.01282,0.06104,0.0235,-0.0325,-0.02411,0.00916,-0.04913
4.528,0.00626,-0.06409,-0.09277,-0.00916,-0.06058,-0.05737,-0.01404,0.00153,-0.03357,0.00565,0.05173,0.01541,-0.03189,-0.02625,0.00702,-0.04791
4.5285,0.00931,-0.04608,-0.05905,-0.01236,-0.04227,-0.05524,-0.01343,0.00076,-0.03281,-0.00198,0.06363,0.00931,-0.02945,-0.02716,0.00473,-0.04578
4.529,0.01389,-0.02182,-0.01999,-0.01511,-0.03296,-0.05173,-0.01266,0.00015,-0.03311,-0.00732,0.08072,0.00732,-0.02502,-0.02441,0.00534,-0.04349
4.5295,0.0177,0.00153,0.03403,-0.01648,-0.02808,-0.04883,-0.01282,0.00046,-0.03235,-0.00916,0.07584,0.00763,-0.01984,-0.02167,0.00824,-0.04303
4.53,0.01831,0.02243,0.09613,-0.01373,-0.02213,-0.04547,-0.01511,0.00046,-0.03021,-0.00763,0.04333,0.01068,-0.01633,-0.0206,0.01053,-0.04349
4.5305,0.01617,0.03983,0.14359,-0.00824,-0.01663,-0.04288,-0.01877,-0.00259,-0.02792,-0.00763,-0.00061,0.0148,-0.01633,-0.02106,0.01068,-0.04379
4.531,0.01541,0.04822,0.16083,-0.00046,-0.01587,-0.04044,-0.0238,-0.00839,-0.02502,-0.01785,-0.0383,0.01953,-0.0177,-0.01846,0.00931,-0.04333
4.5315,0.01785,0.04166,0.14893,0.00687,-0.01816,-0.0383,-0.02686,-0.0116,-0.02075,-0.03967,-0.06485,0.0209,-0.01801,-0.01297,0.00854,-0.04166
4.532,0.02106,0.01968,0.11475,0.01236,-0.0174,-0.03647,-0.02533,-0.00992,-0.01251,-0.0618,-0.07843,0.01938,-0.01724,-0.00854,0.00839,-0.04028
4.5325,0.02289,-0.0087,0.06607,0.01556,-0.01205,-0.0351,-0.01907,-0.00473,-0.00214,-0.07019,-0.07446,0.01709,-0.01602,-0.00763,0.00885,-0.04074
4.533,0.0206,-0.03647,0.00916,0.01495,-0.00275,-0.03311,-0.01343,-0.00153,0.00427,-0.0647,-0.06348,0.01373,-0.01633,-0.00809,0.01007,-0.04105
4.5335,0.01511,-0.06424,-0.04669,0.00854,0.009,-0.03159,-0.0116,-0.00107,0.00519,-0.05112,-0.07523,0.0,-0.01755,-0.00809,0.01129,-0.04105
4.534,0.009,-0.09094,-0.09293,-0.009,0.01724,-0.03143,-0.01434,-0.00259,0.0029,-0.03296,-0.1326,-0.03372,-0.02274,-0.00916,0.01022,-0.04211
4.5345,0.0061,-0.10956,-0.12512,-0.03357,0.0148,-0.03159,-0.01785,-0.00595,0.00183,-0.01282,-0.21835,-0.08102,-0.02991,-0.00977,0.01022,-0.04303
4.535,0.00549,-0.11444,-0.14557,-0.04623,-0.00031,-0.03174,-0.01892,-0.00961,0.00443,0.00565,-0.29007,-0.11841,-0.03906,-0.00839,0.01007,-0.0444
4.5355,0.00702,-0.10651,-0.15793,-0.03204,-0.01846,-0.03281,-0.01755,-0.0119,0.01083,0.01862,-0.32806,-0.12695,-0.04135,-0.00549,0.00961,-0.04562
4.536,0.00702,-0.09506,-0.16129,-0.00748,-0.02533,-0.03525,-0.01419,-0.01114,0.01862,0.02686,-0.34439,-0.10956,-0.03006,-0.0029,0.00977,-0.04532
4.5365,0.00626,-0.08514,-0.14862,0.0032,-0.01862,-0.03708,-0.01251,-0.00793,0.02365,0.0293,-0.336,-0.08286,-0.0087,-0.00244,0.00931,-0.04303
4.537,0.00488,-0.08102,-0.11688,-0.00198,-0.00809,-0.03799,-0.01251,-0.00519,0.02319,0.02884,-0.27161,-0.05829,0.01236,-0.00427,0.00778,-0.04059
4.5375,0.00443,-0.0798,-0.07568,-0.00763,-0.00122,-0.03876,-0.01114,-0.00046,0.01877,0.02838,-0.13596,-0.02792,0.02258,-0.00809,0.00854,-0.03891
4.538,0.00381,-0.08331,-0.03769,-0.00839,-0.00214,-0.03952,-0.00961,0.0032,0.01465,0.02655,0.03372,0.02487,0.02075,-0.01175,0.009,-0.03952
4.5385,0.00229,-0.09079,-0.0087,-0.00854,-0.00656,-0.04074,-0.009,0.00305,0.01328,0.02167,0.17853,0.09415,0.00412,-0.01526,0.00916,-0.03891
4.539,0.00122,-0.09705,0.01633,-0.01038,-0.01083,-0.04181,-0.01282,0.00015,0.01282,0.01465,0.25833,0.14282,-0.02731,-0.01831,0.00839,-0.03952
4.5395,0.00137,-0.09399,0.04181,-0.00961,-0.01389,-0.04242,-0.01816,-0.00214,0.01038,0.01175,0.2652,0.14099,-0.0647,-0.01923,0.00885,-0.0412
4.54,0.00076,-0.07706,0.06439,-0.00626,-0.01144,-0.04242,-0.0209,-0.00092,0.0061,0.01572,0.20935,0.10437,-0.09048,-0.02075,0.0087,-0.04227
4.5405,-0.00214,-0.04745,0.07706,-0.00351,-0.00397,-0.04364,-0.01984,0.00336,0.00076,0.01862,0.11414,0.07095,-0.09399,-0.02274,0.0087,-0.04242
4.541,-0.00473,-0.01556,0.0769,-0.00458,0.00641,-0.04517,-0.01511,0.00885,-0.00427,0.01434,0.01282,0.05402,-0.08041,-0.02441,0.00717,-0.0415
4.5415,-0.00504,0.00748,0.07294,-0.00595,0.01373,-0.04761,-0.01129,0.01434,-0.00702,0.00244,-0.05966,0.04013,-0.06409,-0.02487,0.00626,-0.04089
4.542,-0.00137,0.01785,0.07278,-0.00458,0.00488,-0.0502,-0.01068,0.01724,-0.00793,-0.01251,-0.07721,0.02014,-0.05249,-0.02441,0.00626,-0.04166
4.5425,0.00168,0.02197,0.07401,-0.00061,-0.03342,-0.05096,-0.01144,0.01526,-0.0087,-0.02609,-0.02991,0.00366,-0.04669,-0.02396,0.00702,-0.04211
4.543,0.00198,0.0267,0.06592,0.00458,-0.0914,-0.0499,-0.01221,0.00854,-0.01068,-0.03281,0.05737,-0.00092,-0.04425,-0.02472,0.00687,-0.04135
4.5435,-0.00153,0.03372,0.04471,0.0116,-0.13397,-0.04913,-0.0116,-0.00046,-0.01373,-0.0386,0.1416,0.00397,-0.04395,-0.02533,0.0061,-0.04044
4.544,-0.00534,0.03632,0.00046,0.01846,-0.12711,-0.04929,-0.00946,-0.00458,-0.01511,-0.04608,0.18738,0.01221,-0.04333,-0.02548,0.00504,-0.04013
4.5445,-0.00732,0.02914,-0.09232,0.01907,-0.08621,-0.04883,-0.00854,-0.00473,-0.01404,-0.05737,0.18646,0.01999,-0.04196,-0.02579,0.00473,-0.0415
4.545,-0.00687,0.01755,-0.22934,0.0119,-0.05447,-0.04776,-0.01007,-0.00626,-0.0119,-0.06989,0.14984,0.02243,-0.03937,-0.02579,0.00549,-0.04211
4.5455,-0.00961,0.00656,-0.31998,0.00031,-0.04852,-0.04623,-0.01282,-0.0119,-0.00854,-0.07675,0.09216,0.01663,-0.03738,-0.02548,0.00534,-0.04272
4.546,-0.01328,-0.00153,-0.26123,-0.0145,-0.05417,-0.04639,-0.01556,-0.01938,-0.00702,-0.07553,0.03265,0.0061,-0.03616,-0.02502,0.00397,-0.04166
4.5465,-0.01877,-0.01343,-0.06027,-0.02838,-0.05249,-0.0473,-0.01633,-0.02396,-0.00702,-0.06882,-0.01465,-0.00244,-0.0354,-0.02472,0.0032,-0.03983
4.547,-0.02319,-0.03098,0.15732,-0.03494,-0.04211,-0.0502,-0.01755,-0.02396,-0.00824,-0.06332,-0.04456,-0.00946,-0.03342,-0.02533,0.00366,-0.03967
4.5475,-0.03021,-0.04959,0.2832,-0.0354,-0.03082,-0.05371,-0.01938,-0.02136,-0.00854,-0.06256,-0.0621,-0.01816,-0.03296,-0.02716,0.00488,-0.03998
4.548,-0.03784,-0.06226,0.30197,-0.03586,-0.02533,-0.05661,-0.02136,-0.01862,-0.00717,-0.06119,-0.07385,-0.02991,-0.03143,-0.02884,0.00717,-0.04105
4.5485,-0.04272,-0.06073,0.25711,-0.04059,-0.02914,-0.05814,-0.02319,-0.01541,-0.00336,-0.056,-0.08026,-0.03998,-0.02792,-0.02899,0.009,-0.03967
4.549,-0.04272,-0.04852,0.1918,-0.04242,-0.03693,-0.05798,-0.02365,-0.01312,-0.00015,-0.04654,-0.07874,-0.04562,-0.02197,-0.02884,0.00992,-0.03754
4.5495,-0.04181,-0.03799,0.13,-0.03357,-0.04211,-0.05539,-0.0209,-0.01144,0.00153,-0.03601,-0.07278,-0.04272,-0.01617,-0.02747,0.009,-0.03754
4.55,-0.04105,-0.03662,0.08575,-0.0174,-0.04135,-0.05341,-0.01633,-0.00931,0.00076,-0.02502,-0.0737,-0.02655,-0.01266,-0.02426,0.00916,-0.03952
4.5505,-0.04059,-0.04456,0.05859,-0.00336,-0.03754,-0.05219,-0.01358,-0.00687,-0.00305,-0.01297,-0.09079,0.00061,-0.00992,-0.01999,0.0087,-0.04074
4.551,-0.03708,-0.05325,0.03738,0.0061,-0.03326,-0.05112,-0.01373,-0.00549,-0.00977,0.00076,-0.11917,0.02472,-0.00702,-0.01724,0.00732,-0.04074
4.5515,-0.0296,-0.05966,0.01434,0.01205,-0.03021,-0.04852,-0.01434,-0.00656,-0.01724,0.01083,-0.14343,0.03326,-0.00931,-0.0174,0.00641,-0.04013
4.552,-0.02151,-0.06378,-0.00717,0.01297,-0.02686,-0.04593,-0.01434,-0.00488,-0.02228,0.01022,-0.15198,0.02823,-0.01999,-0.01953,0.00565,-0.03922
4.5525,-0.01587,-0.065,-0.02441,0.00671,-0.02411,-0.04379,-0.01251,-0.00183,-0.02167,-0.00275,-0.14725,0.0206,-0.03891,-0.02106,0.00519,-0.03952
4.553,-0.01266,-0.06378,-0.03784,-0.00092,-0.02258,-0.04196,-0.01053,0.00092,-0.01648,-0.01724,-0.13229,0.01373,-0.06256,-0.02365,0.00641,-0.03983
4.5535,-0.01083,-0.06256,-0.05005,-0.00504,-0.02319,-0.04028,-0.00946,0.00229,-0.009,-0.02319,-0.10101,0.00626,-0.08224,-0.02579,0.00809,-0.03876
4.554,-0.01053,-0.06424,-0.06317,-0.00626,-0.02319,-0.03983,-0.00946,0.00076,-0.00381,-0.02136,-0.04318,-0.00015,-0.08804,-0.02716,0.009,-0.03799
4.5545,-0.0119,-0.06897,-0.07614,-0.00763,-0.02228,-0.03967,-0.009,0.00092,-0.00092,-0.01801,0.03143,-0.00351,-0.07553,-0.02609,0.009,-0.03815
4.555,-0.01511,-0.07553,-0.08575,-0.00778,-0.02136,-0.04044,-0.009,0.00229,-0.00076,-0.01541,0.09659,-0.00778,-0.0563,-0.02365,0.00748,-0.03983
4.5555,-0.01663,-0.07919,-0.0885,-0.00565,-0.02136,-0.04074,-0.00793,0.00336,-0.00336,-0.01251,0.12665,-0.01526,-0.04318,-0.02182,0.00656,-0.04181
4.556,-0.01587,-0.07996,-0.08148,-0.00275,-0.02167,-0.0415,-0.00732,-0.00046,-0.00977,-0.00259,0.12009,-0.02029,-0.04013,-0.02182,0.00473,-0.04272
4.5565,-0.01511,-0.07843,-0.06744,-0.00153,-0.02258,-0.04074,-0.00854,-0.01175,-0.01877,0.01373,0.09384,-0.0174,-0.04074,-0.02182,0.00549,-0.04166
4.557,-0.01358,-0.07507,-0.05295,-0.00381,-0.0238,-0.03952,-0.01221,-0.02548,-0.02502,0.0296,0.06271,-0.0119,-0.03845,-0.01999,0.00656,-0.04059
4.5575,-0.01114,-0.07141,-0.0415,-0.00748,-0.02411,-0.03876,-0.01617,-0.0322,-0.02396,0.03052,0.02823,-0.01373,-0.03479,-0.01755,0.00793,-0.03967
4.558,-0.00717,-0.06851,-0.03632,-0.00977,-0.02243,-0.03922,-0.01633,-0.02563,-0.01694,0.01587,-0.01068,-0.02533,-0.03235,-0.01724,0.00854,-0.04044
4.5585,0.0,-0.06653,-0.03403,-0.01022,-0.0209,-0.04196,-0.01266,-0.01389,-0.01251,-0.00351,-0.04578,-0.03754,-0.03296,-0.01831,0.0087,-0.04059
4.559,0.00763,-0.06332,-0.03571,-0.009,-0.01877,-0.04318,-0.01053,-0.00717,-0.0145,-0.01297,-0.06638,-0.04364,-0.03433,-0.02014,0.00916,-0.03998
4.5595,0.01465,-0.05722,-0.03815,-0.00763,-0.01892,-0.04471,-0.00946,-0.00916,-0.01709,-0.01389,-0.07172,-0.04181,-0.03448,-0.02014,0.01053,-0.03799
4.56,0.01862,-0.05127,-0.03937,-0.00656,-0.02151,-0.04456,-0.00931,-0.01068,-0.01694,-0.01282,-0.06973,-0.03433,-0.03372,-0.02014,0.01175,-0.03662
4.5605,0.01801,-0.05081,-0.0412,-0.00839,-0.02457,-0.04486,-0.00931,-0.00732,-0.0145,-0.01343,-0.05905,-0.02426,-0.03342,-0.02014,0.01221,-0.03647
4.561,0.01602,-0.0531,-0.04196,-0.01144,-0.02533,-0.04471,-0.00946,-0.00198,-0.01251,-0.0148,-0.03189,-0.0145,-0.03403,-0.02182,0.01251,-0.03754
4.5615,0.01556,-0.05219,-0.03738,-0.01282,-0.02304,-0.04471,-0.00916,0.00137,-0.0145,-0.01541,0.01221,-0.01007,-0.0351,-0.02289,0.01221,-0.03906
4.562,0.01587,-0.04456,-0.01694,-0.01328,-0.01984,-0.04547,-0.0087,0.00076,-0.01953,-0.01602,0.0621,-0.01221,-0.03586,-0.02304,0.01343,-0.03937
4.5625,0.01419,-0.03998,0.01862,-0.01312,-0.01678,-0.04654,-0.00977,-0.00046,-0.02533,-0.01633,0.10406,-0.02151,-0.03586,-0.02319,0.0119,-0.03891
4.563,0.01038,-0.0528,0.04654,-0.01282,-0.01678,-0.0473,-0.01312,-0.00046,-0.03098,-0.01434,0.12527,-0.03159,-0.03647,-0.02441,0.00992,-0.04028
4.5635,0.00565,-0.08133,0.04135,-0.01236,-0.02151,-0.04898,-0.01587,0.00153,-0.03784,-0.00443,0.11139,-0.03891,-0.03754,-0.02655,0.00702,-0.04181
4.564,-0.00046,-0.11108,-0.00427,-0.01038,-0.02716,-0.05127,-0.01648,0.00458,-0.04425,0.01617,0.06424,-0.0444,-0.03815,-0.02762,0.00534,-0.04364
4.5645,-0.00748,-0.12039,-0.07492,-0.00885,-0.03128,-0.05402,-0.01572,0.00488,-0.05112,0.03571,0.00671,-0.06226,-0.03632,-0.02579,0.00504,-0.04227
4.565,-0.01556,-0.1059,-0.15076,-0.00916,-0.0325,-0.05417,-0.01511,-0.00046,-0.05798,0.02823,-0.04196,-0.1001,-0.03372,-0.02319,0.00458,-0.04089
4.5655,-0.02243,-0.08087,-0.21561,-0.01053,-0.03677,-0.05341,-0.01648,-0.00793,-0.06439,-0.00839,-0.07675,-0.14053,-0.03128,-0.0206,0.00641,-0.04227
4.566,-0.0296,-0.06317,-0.25604,-0.01282,-0.04578,-0.0528,-0.01694,-0.01038,-0.06409,-0.04425,-0.09705,-0.15488,-0.02945,-0.02029,0.00885,-0.04196
4.5665,-0.03647,-0.05249,-0.26382,-0.01328,-0.05341,-0.0531,-0.01648,-0.00626,-0.05768,-0.05081,-0.09613,-0.12741,-0.02792,-0.02106,0.01175,-0.04044
4.567,-0.04166,-0.03998,-0.24139,-0.01297,-0.05249,-0.05417,-0.01648,-0.00076,-0.04913,-0.03616,-0.0708,-0.05722,-0.0264,-0.02151,0.01068,-0.03906
4.5675,-0.04517,-0.02304,-0.20172,-0.0119,-0.04578,-0.05417,-0.01831,0.0032,-0.04379,-0.0264,-0.03189,0.04608,-0.02487,-0.0209,0.00885,-0.03983
4.568,-0.04776,-0.00977,-0.15656,-0.01083,-0.03677,-0.0531,-0.01877,0.00534,-0.04105,-0.02853,0.00702,0.14526,-0.02289,-0.01892,0.00763,-0.04135
4.5685,-0.05066,-0.00107,-0.11017,-0.01083,-0.03357,-0.0528,-0.01678,0.00748,-0.03754,-0.02884,0.03159,0.17853,-0.0238,-0.01801,0.0087,-0.04364
4.569,-0.05173,0.0116,-0.06393,-0.01221,-0.0354,-0.05188,-0.01373,0.00946,-0.03082,-0.01785,0.02899,0.14282,-0.02686,-0.01709,0.00977,-0.04471
4.5695,-0.04852,0.03433,-0.02319,-0.01404,-0.03799,-0.05157,-0.01114,0.01129,-0.02167,0.00259,-0.00381,0.09949,-0.02899,-0.01541,0.01068,-0.0441
4.57,-0.04059,0.0621,-0.00046,-0.01434,-0.0383,-0.0499,-0.00916,0.01328,-0.01587,0.01984,-0.05081,0.0827,-0.03021,-0.01282,0.01114,-0.04166
4.5705,-0.03006,0.08087,-0.00214,-0.0119,-0.03647,-0.04913,-0.00809,0.01373,-0.01572,0.02228,-0.09247,0.05875,-0.03082,-0.01251,0.01175,-0.03998
4.571,-0.02121,0.08179,-0.01572,-0.0087,-0.03372,-0.04761,-0.009,0.01266,-0.0209,0.00793,-0.11902,0.01556,-0.0322,-0.01419,0.01099,-0.04013
4.5715,-0.0148,0.06851,-0.02197,-0.0058,-0.03067,-0.04623,-0.01205,0.01083,-0.02487,-0.01419,-0.12619,-0.00641,-0.03342,-0.01678,0.01007,-0.04089
4.572,-0.00916,0.04883,-0.01297,-0.00504,-0.0296,-0.04547,-0.01602,0.00778,-0.02594,-0.03204,-0.1123,0.01419,-0.03372,-0.01892,0.00946,-0.0412
4.5725,-0.00153,0.02884,0.00259,-0.00793,-0.03189,-0.04654,-0.0174,0.00519,-0.02518,-0.0441,-0.07629,0.04929,-0.03281,-0.01923,0.00946,-0.04135
4.573,0.01022,0.00854,0.01617,-0.01266,-0.03326,-0.0473,-0.01862,0.00015,-0.0235,-0.05203,-0.02991,0.06653,-0.03204,-0.01724,0.00854,-0.04074
4.5735,0.02167,-0.01175,0.02777,-0.01541,-0.03372,-0.04578,-0.01923,-0.009,-0.02182,-0.06119,0.00778,0.06912,-0.03189,-0.01602,0.00748,-0.03952
4.574,0.02869,-0.03021,0.0386,-0.01572,-0.03418,-0.04364,-0.01816,-0.01846,-0.01877,-0.06989,0.02747,0.07172,-0.03159,-0.01495,0.00656,-0.03891
4.5745,0.03098,-0.04929,0.04456,-0.01129,-0.03448,-0.04227,-0.01862,-0.02365,-0.01404,-0.07416,0.02991,0.06897,-0.02838,-0.01297,0.00885,-0.03876
4.575,0.02899,-0.07431,0.04059,-0.00519,-0.03403,-0.04318,-0.01801,-0.01999,-0.0087,-0.0708,0.02243,0.05005,-0.0238,-0.01114,0.01144,-0.03845
4.5755,0.0293,-0.103,0.02579,0.00153,-0.03403,-0.04532,-0.01831,-0.01205,-0.00366,-0.06363,0.009,0.01968,-0.02106,-0.0116,0.01266,-0.03784
4.576,0.03632,-0.12589,0.00641,0.0058,-0.03601,-0.04608,-0.01907,-0.00626,0.00046,-0.05417,-0.00122,-0.00259,-0.01968,-0.01144,0.01236,-0.0383
4.5765,0.04822,-0.13535,-0.01175,0.00504,-0.0386,-0.04593,-0.01862,-0.00549,0.00259,-0.04517,-0.00046,-0.01282,-0.01907,-0.01068,0.01038,-0.03876
4.577,0.05753,-0.13184,-0.02365,-0.00046,-0.03998,-0.04669,-0.01846,-0.00656,0.00305,-0.03784,0.01114,-0.0235,-0.01831,-0.01038,0.00809,-0.03998
4.5775,0.05661,-0.11795,-0.03586,-0.00916,-0.0386,-0.04837,-0.01907,-0.00763,0.00275,-0.03403,0.02518,-0.03937,-0.01938,-0.01053,0.00671,-0.04074
4.578,0.04745,-0.09415,-0.08545,-0.02869,-0.03876,-0.04837,-0.01953,-0.00595,0.00412,-0.03036,0.03281,-0.05188,-0.02167,-0.01038,0.00702,-0.04013
4.5785,0.03693,-0.06088,-0.22995,-0.06866,-0.03693,-0.04822,-0.02243,-0.00351,0.00671,-0.02716,0.03387,-0.05814,-0.02457,-0.01083,0.00809,-0.04028
4.579,0.02945,-0.02319,-0.45151,-0.12085,-0.03571,-0.04791,-0.02304,-0.00229,0.00793,-0.01968,0.03174,-0.06943,-0.0267,-0.01251,0.00946,-0.04135
4.5795,0.02365,0.01099,-0.59036,-0.15396,-0.03662,-0.04883,-0.02136,-0.00183,0.009,-0.01053,0.02625,-0.08896,-0.02747,-0.01297,0.00961,-0.04288
4.58,0.01648,0.03281,-0.4866,-0.1442,-0.03662,-0.04913,-0.01755,-0.00275,0.01114,-0.00397,0.0148,-0.09476,-0.02838,-0.01099,0.00977,-0.04227
4.5805,0.00641,0.0383,-0.16815,-0.0914,-0.03418,-0.04837,-0.01572,-0.00397,0.01328,-0.00427,-0.00137,-0.05829,-0.02869,-0.00916,0.009,-0.04089
4.581,-0.0061,0.03159,0.16953,-0.00641,-0.02975,-0.04868,-0.01556,-0.00443,0.01389,-0.00717,-0.01694,0.01556,-0.02899,-0.009,0.009,-0.04028
4.5815,-0.02075,0.02014,0.36255,0.0885,-0.02548,-0.05096,-0.0148,-0.00244,0.01251,-0.00717,-0.02991,0.08759,-0.02899,-0.00992,0.00854,-0.03998
4.582,-0.03448,0.01022,0.38528,0.15366,-0.02228,-0.05295,-0.01144,0.00046,0.00977,-0.00427,-0.04318,0.1152,-0.03021,-0.0119,0.0087,-0.03937
4.5825,-0.04303,-0.00046,0.30884,0.15961,-0.01877,-0.05371,-0.00916,0.00076,0.00519,-0.00244,-0.05798,0.09033,-0.03113,-0.01343,0.00717,-0.03952
4.583,-0.04105,-0.01556,0.21729,0.13199,-0.01297,-0.0528,-0.0119,-0.00229,0.00092,-0.00351,-0.07431,0.03937,-0.03098,-0.01694,0.00671,-0.04089
4.5835,-0.03189,-0.03387,0.16174,0.11185,-0.00412,-0.05203,-0.01877,-0.00671,0.0032,-0.00946,-0.09033,-0.00488,-0.03174,-0.01709,0.00656,-0.04211
4.584,-0.02258,-0.0502,0.1442,0.09308,0.00168,-0.05173,-0.02625,-0.00839,0.01724,-0.01785,-0.09674,-0.0293,-0.03296,-0.01663,0.00687,-0.04135
4.5845,-0.01755,-0.06241,0.13901,0.03159,-0.00397,-0.05112,-0.02975,-0.00458,0.03693,-0.02975,-0.07492,-0.03403,-0.03357,-0.01602,0.00717,-0.04028
4.585,-0.01389,-0.06805,0.11719,-0.06973,-0.02869,-0.05096,-0.02975,-0.00015,0.04745,-0.04791,-0.02075,-0.02426,-0.03357,-0.01678,0.00809,-0.04028
4.5855,-0.00961,-0.06821,0.07248,-0.14328,-0.05997,-0.05066,-0.0267,0.00214,0.03876,-0.06683,0.04532,-0.00931,-0.0322,-0.01846,0.00977,-0.04211
4.586,-0.00458,-0.06058,0.01083,-0.13763,-0.07446,-0.05051,-0.02365,0.00366,0.0148,-0.07599,0.08942,0.00092,-0.03036,-0.01862,0.01038,-0.0444
4.5865,0.00183,-0.0473,-0.05707,-0.08423,-0.06393,-0.0502,-0.02182,0.00366,-0.01282,-0.06577,0.09644,0.00381,-0.02991,-0.0174,0.009,-0.04547
4.587,0.00748,-0.03235,-0.11902,-0.04181,-0.04227,-0.04944,-0.02151,0.00153,-0.03632,-0.04608,0.07172,0.00809,-0.03204,-0.01724,0.00626,-0.04562
4.5875,0.01053,-0.02075,-0.1593,-0.01556,-0.02991,-0.04959,-0.01846,0.00015,-0.05127,-0.03006,0.03494,0.01648,-0.03494,-0.01617,0.00549,-0.04501
4.588,0.01083,-0.01526,-0.16693,0.02228,-0.02975,-0.0502,-0.01389,0.0,-0.05859,-0.02411,0.00412,0.02167,-0.03525,-0.01709,0.00671,-0.0444
4.5885,0.00916,-0.01709,-0.14633,0.04669,-0.03555,-0.05112,-0.01007,0.00122,-0.05951,-0.02579,-0.00946,0.00992,-0.03296,-0.01892,0.00778,-0.04379
4.589,0.00565,-0.02457,-0.10941,0.01419,-0.03967,-0.05081,-0.00946,0.00168,-0.05402,-0.02869,-0.00397,-0.0119,-0.03174,-0.02075,0.00793,-0.04456
4.5895,0.00031,-0.0354,-0.0737,-0.04501,-0.03845,-0.04837,-0.01144,-0.00061,-0.04211,-0.02884,0.01724,-0.02792,-0.03189,-0.02289,0.00778,-0.0444
4.59,-0.00443,-0.04929,-0.04959,-0.05615,-0.03464,-0.0444,-0.01282,-0.00244,-0.02335,-0.02655,0.04333,-0.03784,-0.03174,-0.0238,0.00916,-0.04303
4.5905,-0.00702,-0.06332,-0.03693,-0.01099,-0.02914,-0.04227,-0.01328,-0.00351,-0.00702,-0.02502,0.0618,-0.05646,-0.03036,-0.02319,0.01083,-0.04196
4.591,-0.00839,-0.07187,-0.03128,0.01587,-0.02396,-0.04028,-0.01312,-0.00305,-0.00244,-0.03082,0.06531,-0.09018,-0.02792,-0.01999,0.01038,-0.04333
4.5915,-0.00931,-0.07385,-0.02808,-0.01236,-0.01694,-0.04074,-0.01282,-0.00168,-0.00702,-0.04776,0.05524,-0.11581,-0.02457,-0.01602,0.00839,-0.04501
4.592,-0.0087,-0.07324,-0.02579,-0.03723,-0.00977,-0.04288,-0.01251,0.00046,-0.01282,-0.06653,0.03723,-0.09888,-0.0206,-0.01038,0.00778,-0.04456
4.5925,-0.00443,-0.07431,-0.02716,0.00793,-0.00854,-0.04471,-0.01205,0.00168,-0.01465,-0.06897,0.01968,-0.0296,-0.01572,-0.00778,0.00778,-0.04333
4.593,0.00412,-0.08057,-0.03906,0.09476,-0.01282,-0.04425,-0.01099,-0.00031,-0.01389,-0.04791,0.00504,0.05539,-0.01114,-0.00839,0.00977,-0.04349
4.5935,0.01495,-0.08911,-0.06104,0.13184,-0.01953,-0.04318,-0.00916,-0.00443,-0.01495,-0.00778,-0.00778,0.09644,-0.00824,-0.0119,0.00931,-0.04364
4.594,0.02319,-0.09506,-0.08453,0.0885,-0.02274,-0.04318,-0.00778,-0.00839,-0.01648,0.0386,-0.01862,0.0708,-0.00763,-0.01434,0.00778,-0.0444
4.5945,0.02701,-0.09521,-0.09949,0.02228,-0.02151,-0.0441,-0.009,-0.00961,-0.01846,0.08072,-0.02457,0.01648,-0.00854,-0.01572,0.00732,-0.04471
4.595,0.02731,-0.08575,-0.103,-0.00778,-0.02213,-0.0441,-0.00946,-0.0087,-0.01862,0.09964,-0.02411,-0.01312,-0.00824,-0.01617,0.00702,-0.0441
4.5955,0.02609,-0.07034,-0.09842,-0.00717,-0.02747,-0.04379,-0.00778,-0.00595,-0.01572,0.09125,-0.01785,-0.00519,-0.00778,-0.01816,0.00748,-0.04211
4.596,0.02243,-0.05508,-0.08972,-0.01846,-0.03174,-0.04318,-0.00534,-0.00229,-0.01022,0.06851,-0.00931,0.01068,-0.00946,-0.02029,0.00778,-0.04059
4.5965,0.01526,-0.04044,-0.07767,-0.05707,-0.02884,-0.04272,-0.00458,-0.00137,-0.00626,0.05188,-0.00198,0.0119,-0.01404,-0.01968,0.00671,-0.04059
4.597,0.00565,-0.02563,-0.06958,-0.1033,-0.02304,-0.04196,-0.00641,-0.00137,-0.0061,0.04913,-0.00092,0.00351,-0.01846,-0.01755,0.00595,-0.04227
4.5975,-0.00198,-0.01633,-0.06775,-0.1384,-0.02182,-0.04135,-0.00763,-0.00229,-0.009,0.05295,-0.00427,0.00076,-0.02197,-0.01648,0.00336,-0.0444
4.598,-0.00687,-0.01404,-0.07141,-0.16052,-0.02731,-0.04303,-0.00839,-0.00229,-0.01205,0.05112,-0.00793,0.00443,-0.02625,-0.01648,0.00381,-0.04395
4.5985,-0.01053,-0.01724,-0.07446,-0.1561,-0.0325,-0.04623,-0.01022,-0.00244,-0.01251,0.03906,-0.01236,0.00626,-0.03021,-0.01785,0.00534,-0.04318
4.599,-0.01465,-0.01968,-0.07385,-0.10178,-0.03235,-0.04745,-0.0145,-0.00214,-0.01114,0.01862,-0.02258,0.00198,-0.0354,-0.01923,0.00504,-0.04242
4.5995,-0.02029,-0.0209,-0.0708,-0.01526,-0.02716,-0.04623,-0.01785,-0.00153,-0.00946,-0.00168,-0.04196,-0.00305,-0.04135,-0.01938,0.00565,-0.04227
4.6,-0.02777,-0.02365,-0.05951,0.03937,-0.02289,-0.0441,-0.01648,-0.00046,-0.00961,-0.02228,-0.06149,-0.00458,-0.04547,-0.01816,0.00656,-0.04227
4.6005,-0.03677,-0.02731,-0.02731,0.0441,-0.02777,-0.04501,-0.0119,-0.00031,-0.0119,-0.04471,-0.0705,-0.00412,-0.04639,-0.01648,0.00916,-0.04211
4.601,-0.04456,-0.0296,0.02182,0.05386,-0.03937,-0.04745,-0.00793,-0.00137,-0.0148,-0.06439,-0.07095,-0.00488,-0.04608,-0.01602,0.0116,-0.04074
4.6015,-0.04822,-0.03052,0.06165,0.09903,-0.0499,-0.04929,-0.00717,-0.00076,-0.01694,-0.06866,-0.07004,-0.00427,-0.0528,-0.01709,0.0119,-0.04028
4.602,-0.04807,-0.03052,0.07324,0.12436,-0.04745,-0.04974,-0.00854,0.00076,-0.01892,-0.05692,-0.07187,0.00015,-0.07141,-0.01801,0.01144,-0.0412
4.6025,-0.04745,-0.02899,0.05875,0.08286,-0.03113,-0.05051,-0.00961,0.00229,-0.02411,-0.03952,-0.07492,0.00504,-0.09308,-0.01785,0.01083,-0.04227
4.603,-0.0473,-0.02899,0.02777,0.01144,-0.01617,-0.05096,-0.01053,0.00183,-0.03128,-0.02777,-0.07706,0.00534,-0.10101,-0.0177,0.01038,-0.04272
4.6035,-0.04501,-0.03204,-0.01205,-0.03021,-0.01709,-0.05188,-0.0119,0.00046,-0.03723,-0.02502,-0.07523,0.0029,-0.0856,-0.01816,0.009,-0.04196
4.604,-0.03952,-0.03952,-0.05157,-0.03479,-0.03387,-0.05051,-0.01343,0.00061,-0.03952,-0.02823,-0.06561,0.00137,-0.05981,-0.02014,0.00885,-0.04089
4.6045,-0.03281,-0.04562,-0.07919,-0.03082,-0.05127,-0.04837,-0.0119,0.00351,-0.04028,-0.03372,-0.05051,0.00305,-0.03952,-0.0209,0.00839,-0.04318
4.605,-0.0293,-0.04974,-0.09705,-0.03281,-0.0618,-0.0473,-0.00885,0.00687,-0.04272,-0.03708,-0.03494,0.00381,-0.03128,-0.01892,0.00763,-0.04791
4.6055,-0.0296,-0.05325,-0.11505,-0.03311,-0.06714,-0.04944,-0.00641,0.00809,-0.04562,-0.03555,-0.02686,0.00305,-0.02808,-0.01709,0.0058,-0.05219
4.606,-0.03021,-0.05569,-0.13306,-0.02167,-0.06989,-0.05096,-0.00641,0.00671,-0.0502,-0.02884,-0.02563,0.00244,-0.02594,-0.01678,0.00519,-0.05096
4.6065,-0.02869,-0.05585,-0.13275,-0.00168,-0.06927,-0.05035,-0.00854,0.00351,-0.0528,-0.01587,-0.03372,0.0029,-0.02441,-0.0177,0.00595,-0.04456
4.607,-0.02487,-0.0528,-0.09491,0.01572,-0.0621,-0.04776,-0.01205,0.00015,-0.05417,-0.00427,-0.06012,0.00275,-0.02411,-0.01999,0.00763,-0.04013
4.6075,-0.02014,-0.04929,-0.02869,0.02304,-0.04486,-0.04608,-0.01358,-0.00229,-0.05234,-0.00046,-0.11002,-0.00107,-0.02487,-0.02167,0.009,-0.03677
4.608,-0.0145,-0.04562,0.03052,0.02014,-0.02487,-0.04425,-0.01541,-0.00244,-0.04562,-0.01022,-0.16724,-0.00504,-0.02701,-0.02106,0.00992,-0.03647
4.6085,-0.00778,-0.04456,0.05554,0.01175,-0.01038,-0.04532,-0.01862,-0.0029,-0.03342,-0.02777,-0.20477,-0.00717,-0.03159,-0.01877,0.00992,-0.03693
4.609,-0.00076,-0.05203,0.04822,0.00244,-0.00626,-0.04669,-0.01999,-0.00656,-0.0206,-0.04227,-0.20691,-0.00702,-0.04044,-0.01907,0.00931,-0.03937
4.6095,0.00626,-0.06531,0.02563,-0.00366,-0.00717,-0.04776,-0.01831,-0.01068,-0.01144,-0.04761,-0.17288,-0.00641,-0.05081,-0.02121,0.00992,-0.04013
4.61,0.01251,-0.07538,-0.00443,-0.00656,-0.01053,-0.04837,-0.0145,-0.0119,-0.00366,-0.04593,-0.1033,-0.0061,-0.056,-0.02319,0.01175,-0.04135
4.6105,0.01617,-0.07782,-0.03479,-0.00824,-0.01251,-0.04715,-0.01144,-0.00992,0.00275,-0.03891,-0.00656,-0.00458,-0.05203,-0.02274,0.01312,-0.04105
4.611,0.0174,-0.07416,-0.05157,-0.01038,-0.01373,-0.04608,-0.01114,-0.00702,0.00778,-0.02853,0.10773,-0.00229,-0.04425,-0.02182,0.01251,-0.03937
4.6115,0.0174,-0.06424,-0.04715,-0.01251,-0.01678,-0.04745,-0.01205,-0.00458,0.00961,-0.01541,0.22308,-0.00092,-0.03937,-0.01999,0.01083,-0.03754
4.612,0.0148,-0.04211,-0.03082,-0.0145,-0.02121,-0.05005,-0.01511,-0.00565,0.00687,-0.00549,0.3006,0.00015,-0.03784,-0.01923,0.00717,-0.03799
4.6125,0.00946,-0.00809,-0.01572,-0.01633,-0.02518,-0.05173,-0.01831,-0.00809,0.00168,-0.00229,0.29251,0.00229,-0.03586,-0.01862,0.00275,-0.04242
4.613,0.00259,0.02838,-0.00839,-0.01648,-0.0267,-0.0531,-0.01968,-0.00885,-0.00336,0.00092,0.19638,0.00549,-0.03265,-0.02045,0.00015,-0.04639
4.6135,-0.00168,0.05524,-0.00412,-0.01587,-0.02594,-0.05478,-0.01862,-0.00748,-0.00931,0.01297,0.06943,0.00671,-0.02945,-0.0235,0.00061,-0.04501
4.614,-0.00061,0.06531,0.00015,-0.0148,-0.02579,-0.05432,-0.01495,-0.0058,-0.01556,0.02563,-0.02396,0.0061,-0.02853,-0.02701,0.00259,-0.04059
4.6145,0.00549,0.05539,-0.00183,-0.01419,-0.02777,-0.05417,-0.01068,-0.00504,-0.0209,0.02548,-0.06943,0.00504,-0.02716,-0.02853,0.00549,-0.03815
4.615,0.01297,0.02945,-0.01831,-0.01373,-0.03052,-0.05478,-0.00717,-0.00458,-0.0238,0.01602,-0.07767,0.00534,-0.02701,-0.0293,0.00824,-0.03723
4.6155,0.01801,-0.00778,-0.04791,-0.01404,-0.03235,-0.05478,-0.00687,-0.00412,-0.02548,0.00793,-0.05692,0.00671,-0.0267,-0.03006,0.01083,-0.03876
4.616,0.01907,-0.04715,-0.08179,-0.01572,-0.0293,-0.05432,-0.00809,-0.00534,-0.02747,-0.00244,-0.01526,0.009,-0.02686,-0.03021,0.01022,-0.03937
4.6165,0.01511,-0.08392,-0.10803,-0.01923,-0.02182,-0.0528,-0.00977,-0.00916,-0.03113,-0.02747,0.02319,0.00946,-0.02731,-0.02991,0.00839,-0.03952
4.617,0.00885,-0.11475,-0.12253,-0.02121,-0.01404,-0.05066,-0.0119,-0.01282,-0.03586,-0.05875,0.04166,0.009,-0.02686,-0.02853,0.00458,-0.03922
4.6175,0.00488,-0.13855,-0.12543,-0.02197,-0.01495,-0.04929,-0.01434,-0.01434,-0.04089,-0.07721,0.04059,0.00748,-0.02655,-0.02655,0.00351,-0.03922
4.618,0.00549,-0.15396,-0.11826,-0.02167,-0.03021,-0.04715,-0.01541,-0.01205,-0.04669,-0.08163,0.03632,0.00412,-0.0267,-0.02533,0.00336,-0.03952
4.6185,0.00931,-0.15808,-0.10864,-0.0206,-0.0499,-0.04456,-0.01663,-0.00961,-0.04913,-0.08301,0.03479,0.0029,-0.02808,-0.0238,0.00504,-0.03998
4.619,0.01266,-0.14572,-0.10071,-0.01892,-0.05417,-0.04135,-0.01526,-0.0058,-0.04303,-0.08224,0.03357,0.00259,-0.02899,-0.02365,0.00763,-0.03967
4.6195,0.0148,-0.11459,-0.09354,-0.01709,-0.03448,-0.03967,-0.01511,0.00015,-0.02838,-0.07294,0.03159,0.00259,-0.02823,-0.02396,0.01038,-0.04074
4.62,0.01556,-0.06683,-0.08606,-0.01648,-0.00854,-0.03967,-0.0145,0.00519,-0.0119,-0.05783,0.02869,0.0032,-0.02701,-0.0238,0.01144,-0.04089
4.6205,0.01648,-0.01083,-0.08011,-0.01541,-0.00244,-0.04028,-0.01221,0.00671,-0.00031,-0.05173,0.02213,0.00366,-0.02655,-0.02289,0.01144,-0.04105
4.621,0.0177,0.03845,-0.07797,-0.01404,-0.01846,-0.04028,-0.00992,0.00595,0.00488,-0.056,0.01251,0.00458,-0.0267,-0.02151,0.00977,-0.04044
4.6215,0.01877,0.06958,-0.07935,-0.01221,-0.03601,-0.04059,-0.01022,0.00412,0.01007,-0.05402,0.00504,0.00488,-0.02747,-0.02014,0.00946,-0.04044
4.622,0.01953,0.07935,-0.08209,-0.0119,-0.03967,-0.04135,-0.01312,0.00183,0.0174,-0.02884,0.00397,0.00351,-0.0293,-0.01862,0.01053,-0.03906
4.6225,0.01999,0.07156,-0.08179,-0.01328,-0.03036,-0.04257,-0.01495,-0.00153,0.0235,0.00687,0.00168,-0.00046,-0.02914,-0.01678,0.01022,-0.03754
4.623,0.01968,0.05051,-0.07675,-0.01434,-0.01831,-0.04227,-0.01419,-0.00244,0.02518,0.02762,-0.00854,-0.0058,-0.02731,-0.01663,0.00931,-0.03769
4.6235,0.01541,0.02014,-0.08453,-0.01602,-0.0058,-0.04105,-0.01389,-0.00214,0.02228,0.02213,-0.02548,-0.00961,-0.02548,-0.01678,0.00977,-0.04028
4.624,0.00824,-0.01282,-0.14313,-0.0174,0.00443,-0.03906,-0.01617,-0.00168,0.01709,0.00931,-0.04028,-0.01114,-0.02518,-0.01678,0.01129,-0.04105
4.6245,0.00122,-0.04578,-0.23361,-0.01968,0.00809,-0.03815,-0.02029,-0.00198,0.01022,0.00397,-0.04868,-0.01144,-0.02487,-0.01678,0.01328,-0.04181
4.625,-0.00473,-0.07523,-0.24475,-0.02121,0.00275,-0.03845,-0.02106,-0.00244,0.00229,0.00076,-0.05035,-0.01053,-0.02319,-0.01572,0.01129,-0.04242
4.6255,-0.01083,-0.0943,-0.08774,-0.01984,-0.01236,-0.03906,-0.01831,-0.00153,-0.00595,-0.00992,-0.05127,-0.01007,-0.02289,-0.0148,0.00748,-0.04242
4.626,-0.01801,-0.09644,0.16342,-0.0174,-0.03113,-0.04059,-0.01495,0.00122,-0.01266,-0.02228,-0.05981,-0.00809,-0.02457,-0.01541,0.00534,-0.04211
4.6265,-0.02548,-0.08347,0.34866,-0.01541,-0.04898,-0.0441,-0.01266,0.00534,-0.01678,-0.02411,-0.08987,-0.00549,-0.02914,-0.01801,0.00473,-0.04181
4.627,-0.03082,-0.06226,0.38284,-0.01465,-0.06256,-0.04776,-0.01312,0.00885,-0.01877,-0.01343,-0.14038,-0.00168,-0.03311,-0.02045,0.00336,-0.0441
4.6275,-0.0325,-0.04257,0.29373,-0.01633,-0.06561,-0.04761,-0.01785,0.00916,-0.02014,0.00275,-0.19424,0.00412,-0.0354,-0.02182,0.00275,-0.04684
4.628,-0.02792,-0.02762,0.15137,-0.01602,-0.05844,-0.04562,-0.02396,0.00717,-0.02045,0.02045,-0.23849,0.01099,-0.03479,-0.02106,0.00458,-0.04639
4.6285,-0.01862,-0.01862,0.01633,-0.0145,-0.04883,-0.04318,-0.02747,0.00534,-0.02136,0.03616,-0.27725,0.0174,-0.03464,-0.01968,0.00854,-0.0444
4.629,-0.00549,-0.01343,-0.06699,-0.01205,-0.04105,-0.04257,-0.02686,0.00259,-0.02396,0.04044,-0.30533,0.02029,-0.03647,-0.01938,0.01282,-0.04318
4.6295,0.00519,-0.0087,-0.07721,-0.01053,-0.03525,-0.04364,-0.02411,-0.00046,-0.02747,0.02884,-0.30594,0.01816,-0.0386,-0.02075,0.01312,-0.04257
4.63,0.00992,-0.00641,-0.02945,-0.01114,-0.0322,-0.04623,-0.02274,-0.00595,-0.03174,0.00977,-0.26657,0.0145,-0.03983,-0.02426,0.0116,-0.0444
4.6305,0.00854,-0.009,0.03357,-0.01251,-0.03036,-0.04913,-0.02365,-0.01205,-0.03296,-0.0032,-0.19119,0.01312,-0.03967,-0.02625,0.01114,-0.04608
4.631,0.00687,-0.01419,0.07813,-0.01266,-0.02899,-0.05142,-0.02502,-0.01343,-0.02792,-0.0087,-0.0853,0.01221,-0.04074,-0.02655,0.01205,-0.04669
4.6315,0.00793,-0.0174,0.09781,-0.01083,-0.02914,-0.05127,-0.02609,-0.01251,-0.01892,-0.01236,0.03983,0.00427,-0.04242,-0.02625,0.01389,-0.04501
4.632,0.00977,-0.01907,0.10284,-0.0087,-0.02899,-0.0502,-0.02533,-0.01099,-0.01114,-0.01999,0.15274,-0.01541,-0.04288,-0.02487,0.01373,-0.04303
4.6325,0.01221,-0.02182,0.09521,-0.00687,-0.0322,-0.04959,-0.0238,-0.01022,-0.00793,-0.02853,0.22034,-0.03525,-0.04333,-0.0235,0.01221,-0.04181
4.633,0.01404,-0.02731,0.07416,-0.00458,-0.03616,-0.04944,-0.02319,-0.01022,-0.00931,-0.03281,0.24323,-0.03952,-0.04364,-0.02258,0.00946,-0.04333
4.6335,0.01251,-0.03342,0.04471,-0.00488,-0.04181,-0.05112,-0.02441,-0.01053,-0.0119,-0.03265,0.24857,-0.02686,-0.04303,-0.02197,0.00565,-0.0441
4.634,0.00565,-0.03799,0.01511,-0.00595,-0.04974,-0.05096,-0.02548,-0.01099,-0.01389,-0.03403,0.25543,-0.01328,-0.04135,-0.02106,0.00198,-0.0441
4.6345,-0.00336,-0.04303,-0.01175,-0.00717,-0.0592,-0.05066,-0.02518,-0.00992,-0.0148,-0.03723,0.25833,-0.01038,-0.04044,-0.02075,0.00031,-0.04364
4.635,-0.01114,-0.05142,-0.03891,-0.00549,-0.06531,-0.05112,-0.02182,-0.00763,-0.01495,-0.04379,0.24612,-0.01389,-0.03845,-0.01984,0.00259,-0.04333
4.6355,-0.0148,-0.06332,-0.06683,-0.00397,-0.06638,-0.05249,-0.01846,-0.0058,-0.01389,-0.04639,0.21591,-0.01251,-0.03632,-0.01923,0.00534,-0.04257
4.636,-0.01495,-0.07584,-0.09521,-0.00443,-0.06302,-0.05081,-0.01709,-0.00443,-0.0116,-0.04074,0.17731,-0.00351,-0.03464,-0.01953,0.00748,-0.04349
4.6365,-0.01404,-0.08224,-0.11993,-0.00565,-0.05539,-0.04929,-0.01617,-0.00275,-0.00916,-0.01999,0.13809,0.00504,-0.03403,-0.01984,0.00748,-0.04501
4.637,-0.01511,-0.08209,-0.13428,-0.0061,-0.04654,-0.04837,-0.01617,-0.00275,-0.00839,0.01312,0.10178,0.00778,-0.03387,-0.01877,0.00809,-0.04517
4.6375,-0.01709,-0.07858,-0.13733,-0.0061,-0.04013,-0.0473,-0.01587,-0.00259,-0.00839,0.04257,0.07431,0.00504,-0.03387,-0.01678,0.00854,-0.04395
4.638,-0.01877,-0.07568,-0.13336,-0.00702,-0.03723,-0.04837,-0.01389,-0.00305,-0.00946,0.05066,0.05905,0.0,-0.03418,-0.01556,0.00916,-0.04318
4.6385,-0.01846,-0.07446,-0.12939,-0.009,-0.03632,-0.04868,-0.01297,-0.0029,-0.01266,0.03113,0.05112,-0.0029,-0.03479,-0.01556,0.00717,-0.0444
4.639,-0.01755,-0.0705,-0.12741,-0.01022,-0.03632,-0.04929,-0.01221,-0.00229,-0.01984,-0.00259,0.03342,-0.00473,-0.03342,-0.01541,0.0061,-0.04745
4.6395,-0.0174,-0.06393,-0.12299,-0.01083,-0.03799,-0.04852,-0.0119,-0.00275,-0.02914,-0.0351,-0.00443,-0.00488,-0.03021,-0.01556,0.00671,-0.04883
4.64,-0.01785,-0.05249,-0.11993,-0.01083,-0.0386,-0.0473,-0.01114,-0.00381,-0.03189,-0.06073,-0.05219,-0.00336,-0.02625,-0.01511,0.00702,-0.04807
4.6405,-0.01892,-0.04105,-0.13046,-0.01144,-0.03708,-0.047,-0.01007,-0.00565,-0.02289,-0.07858,-0.09277,-0.00061,-0.02518,-0.01526,0.00641,-0.04486
4.641,-0.01816,-0.03143,-0.15381,-0.01007,-0.0351,-0.047,-0.00763,-0.0061,-0.00702,-0.08621,-0.12466,0.00046,-0.0267,-0.0145,0.00641,-0.04257
4.6415,-0.01633,-0.02777,-0.17487,-0.00717,-0.03357,-0.047,-0.0061,-0.0058,0.00626,-0.08087,-0.16037,-0.00015,-0.02701,-0.01221,0.0061,-0.0415
4.642,-0.01694,-0.03479,-0.17685,-0.0061,-0.03387,-0.04547,-0.00671,-0.00427,0.01175,-0.06561,-0.20645,-0.00275,-0.02701,-0.01007,0.00671,-0.04196
4.6425,-0.02045,-0.05356,-0.16006,-0.00763,-0.03647,-0.04486,-0.00854,-0.00214,0.01358,-0.05478,-0.25375,-0.00549,-0.02777,-0.00992,0.00702,-0.04257
4.643,-0.02502,-0.07813,-0.13062,-0.00839,-0.03769,-0.04456,-0.01083,0.00076,0.01648,-0.05142,-0.2803,-0.00458,-0.0293,-0.01144,0.00763,-0.0415
4.6435,-0.0267,-0.1059,-0.09033,-0.00824,-0.03693,-0.04517,-0.01053,0.00259,0.02106,-0.0528,-0.27084,0.00031,-0.02899,-0.01266,0.00778,-0.03937
4.644,-0.02609,-0.1413,-0.03799,-0.00732,-0.0354,-0.04654,-0.00931,0.00214,0.01938,-0.05234,-0.23453,0.00305,-0.02884,-0.0145,0.00763,-0.03815
4.6445,-0.02487,-0.18829,0.0206,-0.0087,-0.0354,-0.04807,-0.00656,0.0,0.00671,-0.04684,-0.19119,0.0029,-0.02914,-0.01617,0.00824,-0.03845
4.645,-0.02411,-0.23254,0.07584,-0.00977,-0.03555,-0.04883,-0.0058,-0.00168,-0.01373,-0.03998,-0.14526,0.00122,-0.02884,-0.0174,0.00992,-0.03891
4.6455,-0.02213,-0.24475,0.11719,-0.01144,-0.03265,-0.05051,-0.00671,-0.00229,-0.03235,-0.04639,-0.08392,0.00198,-0.02747,-0.0177,0.01083,-0.0386
4.646,-0.02029,-0.21332,0.14633,-0.01175,-0.02823,-0.05173,-0.00732,-0.00137,-0.04318,-0.06744,-0.00778,0.0029,-0.02563,-0.01678,0.01007,-0.03769
4.6465,-0.01617,-0.14908,0.16205,-0.01175,-0.02579,-0.05432,-0.00641,0.00061,-0.04684,-0.08789,0.05508,0.00305,-0.02441,-0.01434,0.00839,-0.03738
4.647,-0.01236,-0.07004,0.16922,-0.01129,-0.02777,-0.05722,-0.00732,0.00183,-0.04532,-0.08316,0.06927,0.00229,-0.02411,-0.01221,0.00793,-0.03845
4.6475,-0.00916,0.00961,0.1741,-0.0119,-0.0296,-0.05783,-0.01022,0.00076,-0.04166,-0.05203,0.03052,0.0032,-0.02533,-0.01144,0.00916,-0.03937
4.648,-0.009,0.07599,0.18234,-0.01221,-0.03143,-0.05783,-0.01114,-0.00031,-0.03769,-0.01678,-0.03174,0.00473,-0.02594,-0.01297,0.01007,-0.03845
4.6485,-0.01083,0.11642,0.18631,-0.01266,-0.03525,-0.05646,-0.00916,-0.00122,-0.03418,0.00488,-0.08469,0.00671,-0.02563,-0.01526,0.01007,-0.03708
4.649,-0.01068,0.12833,0.17212,-0.01205,-0.04272,-0.0563,-0.00458,-0.00122,-0.03204,0.01282,-0.11887,0.00687,-0.02472,-0.01755,0.009,-0.03555
4.6495,-0.00885,0.12131,0.12741,-0.01144,-0.04974,-0.05722,-0.0029,0.00092,-0.02945,0.01709,-0.13596,0.00488,-0.02533,-0.0174,0.00854,-0.03555
4.65,-0.00824,0.10498,0.05524,-0.01129,-0.04929,-0.0589,-0.00549,0.00275,-0.02579,0.02045,-0.12573,0.00183,-0.02701,-0.01495,0.00763,-0.03632
4.6505,-0.00961,0.08362,-0.02899,-0.01266,-0.04166,-0.06058,-0.01129,0.00275,-0.02289,0.0238,-0.08224,-0.00244,-0.02838,-0.0119,0.00885,-0.03922
4.651,-0.01144,0.05554,-0.11047,-0.01404,-0.03235,-0.06012,-0.01572,0.00046,-0.01892,0.0264,-0.01114,-0.00397,-0.02853,-0.01144,0.01099,-0.0412
4.6515,-0.01312,0.02609,-0.17487,-0.01251,-0.02441,-0.05859,-0.01709,-0.00305,-0.0148,0.03281,0.06317,-0.0032,-0.02808,-0.01083,0.01328,-0.04196
4.652,-0.01328,0.00015,-0.2179,-0.00809,-0.01205,-0.05646,-0.01633,-0.00717,-0.01236,0.04028,0.112,-0.00183,-0.0293,-0.01083,0.01312,-0.04242
4.6525,-0.01114,-0.01907,-0.23651,-0.0058,0.00229,-0.05249,-0.01373,-0.01129,-0.01175,0.04486,0.11887,-0.00259,-0.03174,-0.01053,0.0119,-0.04242
4.653,-0.00671,-0.03265,-0.22781,-0.0058,0.0148,-0.04807,-0.01038,-0.0145,-0.01144,0.04471,0.08896,-0.00519,-0.03494,-0.01129,0.01114,-0.04135
4.6535,-0.00229,-0.04379,-0.19714,-0.00549,0.0238,-0.04486,-0.00839,-0.01419,-0.009,0.03845,0.04349,-0.00702,-0.03601,-0.01297,0.01099,-0.03906
4.654,0.00153,-0.05341,-0.15671,-0.00427,0.03494,-0.04318,-0.00748,-0.00946,-0.00549,0.02548,0.00153,-0.00519,-0.03464,-0.01297,0.01175,-0.03662
4.6545,0.0058,-0.06119,-0.11887,-0.00412,0.05249,-0.04135,-0.00626,-0.0029,-0.00198,0.01251,-0.02243,-0.00198,-0.03082,-0.01175,0.01205,-0.03754
4.655,0.01099,-0.06638,-0.09216,-0.00641,0.0676,-0.03738,-0.00488,-0.00076,0.00137,-0.00137,-0.01648,-0.00015,-0.02594,-0.01297,0.01129,-0.03967
4.6555,0.0148,-0.06882,-0.07355,-0.01022,0.08194,-0.03418,-0.00473,-0.00565,0.00366,-0.01312,0.02319,0.00061,-0.02182,-0.01801,0.01053,-0.04044
4.656,0.01709,-0.06943,-0.05722,-0.01251,0.09216,-0.03342,-0.00595,-0.01328,0.00656,-0.02365,0.07828,0.00122,-0.01816,-0.02197,0.01114,-0.03952
4.6565,0.01816,-0.06912,-0.04059,-0.0119,0.07904,-0.03525,-0.00809,-0.0177,0.00839,-0.03174,0.12177,0.00198,-0.01465,-0.02335,0.01266,-0.03876
4.657,0.02151,-0.06897,-0.02365,-0.00992,0.02243,-0.03922,-0.01114,-0.0174,0.00931,-0.0351,0.14282,0.00244,-0.01312,-0.02182,0.01251,-0.04074
4.6575,0.02319,-0.0647,-0.00748,-0.01038,-0.05768,-0.04242,-0.01404,-0.01572,0.00854,-0.03342,0.14923,0.00229,-0.01328,-0.02151,0.0119,-0.04196
4.658,0.02228,-0.05493,-0.00076,-0.01175,-0.11871,-0.04501,-0.01511,-0.01526,0.00595,-0.03006,0.14816,0.00305,-0.01862,-0.02228,0.00992,-0.04333
4.6585,0.01801,-0.04242,-0.01068,-0.01251,-0.14816,-0.04349,-0.01511,-0.01648,0.00198,-0.02731,0.13962,0.00366,-0.02655,-0.02228,0.00961,-0.04333
4.659,0.01282,-0.0325,-0.03891,-0.01205,-0.16174,-0.03998,-0.01434,-0.01801,-0.00153,-0.02655,0.12482,0.00366,-0.03448,-0.02106,0.00885,-0.04257
4.6595,0.00931,-0.02792,-0.07477,-0.01007,-0.16052,-0.03662,-0.01129,-0.01617,-0.00351,-0.02762,0.10788,0.00259,-0.03983,-0.02045,0.009,-0.04105
4.66,0.00824,-0.03067,-0.10956,-0.00671,-0.13321,-0.03311,-0.00732,-0.01022,-0.00443,-0.03265,0.08881,0.0,-0.0412,-0.01984,0.00854,-0.03952
4.6605,0.00778,-0.03998,-0.13794,-0.00366,-0.08728,-0.03281,-0.00458,-0.00244,-0.00427,-0.0412,0.06531,-0.00473,-0.03891,-0.02045,0.00824,-0.03952
4.661,0.00504,-0.05798,-0.15274,-0.00336,-0.05234,-0.03326,-0.00443,0.00183,-0.00366,-0.04776,0.03876,-0.01038,-0.03586,-0.02319,0.00778,-0.03983
4.6615,-0.00137,-0.0856,-0.14572,-0.00595,-0.03891,-0.03433,-0.0061,0.00198,-0.00488,-0.04913,0.01434,-0.01282,-0.03586,-0.02487,0.00717,-0.03937
4.662,-0.00885,-0.12024,-0.11459,-0.00931,-0.03067,-0.03586,-0.00778,-0.00031,-0.00595,-0.04547,-0.00488,-0.01343,-0.04272,-0.02518,0.00717,-0.04105
4.6625,-0.01343,-0.14648,-0.07034,-0.01099,-0.01602,-0.03677,-0.00793,-0.00092,-0.00793,-0.03891,-0.0209,-0.01297,-0.05585,-0.02518,0.00656,-0.04318
4.663,-0.01556,-0.15182,-0.0238,-0.0119,0.00046,-0.03937,-0.01007,-0.00061,-0.009,-0.02899,-0.03265,-0.01312,-0.07202,-0.02518,0.00656,-0.04379
4.6635,-0.01755,-0.13672,0.01511,-0.01297,0.00549,-0.04364,-0.01266,0.0,-0.01099,-0.01633,-0.03922,-0.01038,-0.08316,-0.02548,0.00641,-0.0441
4.664,-0.01938,-0.1123,0.03571,-0.01541,-0.00137,-0.04837,-0.01389,-0.00015,-0.01373,-0.00748,-0.04089,-0.0029,-0.08087,-0.02701,0.00702,-0.04501
4.6645,-0.02014,-0.08087,0.03494,-0.01724,-0.01495,-0.05325,-0.01343,0.00031,-0.01694,-0.00519,-0.03967,0.00595,-0.06714,-0.02808,0.00732,-0.04547
4.665,-0.01694,-0.03418,0.02075,-0.01801,-0.02502,-0.05585,-0.01282,0.0029,-0.01923,-0.00839,-0.04028,0.01007,-0.0502,-0.02914,0.00717,-0.0441
4.6655,-0.01205,0.02518,0.0,-0.01724,-0.02594,-0.05722,-0.01297,0.00443,-0.01831,-0.00977,-0.04349,0.00732,-0.03906,-0.02884,0.00656,-0.04303
4.666,-0.00778,0.08163,-0.02228,-0.01633,-0.01846,-0.05783,-0.01526,0.00504,-0.01709,-0.00854,-0.04944,0.00153,-0.03433,-0.02808,0.00641,-0.04364
4.6665,-0.00488,0.11795,-0.0415,-0.01617,-0.00778,-0.05875,-0.0177,0.00381,-0.01831,-0.00748,-0.05478,-0.00168,-0.03326,-0.02777,0.00809,-0.04547
4.667,-0.00229,0.12726,-0.05341,-0.01495,-0.00137,-0.06073,-0.01846,0.00305,-0.01938,-0.01022,-0.05814,-0.00259,-0.03372,-0.02747,0.00748,-0.04608
4.6675,0.00107,0.10666,-0.05219,-0.01312,-0.00092,-0.05951,-0.01709,0.00259,-0.01923,-0.01068,-0.05783,-0.00061,-0.03403,-0.02731,0.00702,-0.04501
4.668,0.00427,0.05844,-0.03616,-0.01114,-0.00305,-0.05737,-0.01511,0.00107,-0.01938,-0.01068,-0.05676,0.00107,-0.03204,-0.02853,0.00778,-0.04333
4.6685,0.00626,-0.00443,-0.01251,-0.01038,-0.00977,-0.05432,-0.01648,-0.00031,-0.02029,-0.0174,-0.05783,0.00214,-0.02853,-0.02853,0.00824,-0.04303
4.669,0.00656,-0.06088,0.00763,-0.01068,-0.02411,-0.05234,-0.01877,-0.00183,-0.02243,-0.03464,-0.06058,0.00336,-0.02655,-0.02731,0.00763,-0.04425
4.6695,0.00565,-0.09918,0.01984,-0.01083,-0.05173,-0.05066,-0.01999,-0.00397,-0.02472,-0.05539,-0.06256,0.00504,-0.02518,-0.02441,0.00732,-0.04486
4.67,0.00488,-0.11414,0.02533,-0.01068,-0.08575,-0.04959,-0.01831,-0.0058,-0.02533,-0.06271,-0.06393,0.00626,-0.02502,-0.02121,0.00854,-0.04364
4.6705,0.0061,-0.10773,0.03067,-0.01007,-0.1059,-0.04776,-0.01816,-0.00519,-0.02274,-0.05173,-0.0676,0.00504,-0.02533,-0.02106,0.00885,-0.04227
4.671,0.00595,-0.08759,0.03769,-0.01114,-0.10117,-0.04608,-0.01999,-0.00244,-0.01709,-0.0383,-0.06836,0.00458,-0.02777,-0.02274,0.00824,-0.04013
4.6715,0.00412,-0.06104,0.04364,-0.0119,-0.08179,-0.04425,-0.02365,-0.00076,-0.01175,-0.03723,-0.0621,0.00397,-0.03189,-0.0235,0.00931,-0.03891
4.672,-0.00015,-0.03784,0.04471,-0.00946,-0.06134,-0.04333,-0.02533,-0.00046,-0.01099,-0.03998,-0.05096,0.00305,-0.03769,-0.02335,0.01053,-0.0383
4.6725,-0.00488,-0.02609,0.03357,-0.00183,-0.04456,-0.04425,-0.02411,-0.00031,-0.01297,-0.02808,-0.03998,0.00092,-0.04684,-0.02426,0.00854,-0.03738
4.673,-0.00687,-0.02838,0.00778,0.00702,-0.0238,-0.04623,-0.02045,-0.00031,-0.0145,0.00031,-0.03189,-0.00336,-0.05814,-0.02563,0.00473,-0.03784
4.6735,-0.00839,-0.03922,-0.02167,0.01129,0.00488,-0.04807,-0.0174,-0.00107,-0.01389,0.02884,-0.02716,-0.00504,-0.06348,-0.02655,0.00259,-0.03815
4.674,-0.01038,-0.04608,-0.04791,0.00717,0.02823,-0.04944,-0.01617,-0.00046,-0.01495,0.04654,-0.02411,-0.00595,-0.05981,-0.02701,0.00305,-0.03998
4.6745,-0.01312,-0.0412,-0.07477,-0.00229,0.01968,-0.04852,-0.01633,0.00183,-0.0177,0.05219,-0.02136,-0.00671,-0.04913,-0.02731,0.00473,-0.03998
4.675,-0.01541,-0.03006,-0.10345,-0.01099,-0.03052,-0.04654,-0.01724,0.00366,-0.01968,0.05157,-0.01587,-0.0061,-0.0383,-0.02701,0.00443,-0.03998
4.6755,-0.01572,-0.02487,-0.12802,-0.01678,-0.09232,-0.04333,-0.01663,0.00381,-0.01968,0.04761,-0.00992,-0.0058,-0.03174,-0.02548,0.00504,-0.03876
4.676,-0.01312,-0.03052,-0.1387,-0.01877,-0.11261,-0.04257,-0.0174,0.00153,-0.01831,0.03983,-0.0087,-0.00671,-0.02869,-0.02213,0.00443,-0.03876
4.6765,-0.00931,-0.03662,-0.13199,-0.01923,-0.07629,-0.0444,-0.01862,-0.00061,-0.01495,0.03265,-0.01266,-0.0087,-0.02716,-0.01755,0.00534,-0.04028
4.677,-0.0061,-0.03281,-0.11505,-0.02304,-0.02686,-0.04547,-0.0206,-0.00031,-0.01129,0.02579,-0.02121,-0.009,-0.02441,-0.00946,0.00732,-0.04242
4.6775,-0.00275,-0.01877,-0.09079,-0.03036,-0.00549,-0.04578,-0.02151,0.00259,-0.00504,0.0174,-0.03098,-0.00366,-0.02075,-0.00031,0.00763,-0.04211
4.678,0.00076,-0.00916,-0.06027,-0.03662,-0.01724,-0.04608,-0.02014,0.00183,0.00275,0.0087,-0.03693,0.00626,-0.01953,0.00626,0.00656,-0.04166
4.6785,0.0029,-0.00793,-0.02609,-0.03464,-0.03479,-0.04593,-0.01801,-0.00397,0.01022,0.00336,-0.03601,0.01923,-0.01999,0.00626,0.00519,-0.04257
4.679,0.00183,-0.01282,0.00626,-0.02502,-0.03433,-0.04486,-0.0177,-0.01175,0.01389,0.00275,-0.02594,0.02792,-0.0206,0.00381,0.00641,-0.04257
4.6795,-0.00137,-0.01617,0.02838,-0.01434,-0.01831,-0.0444,-0.01831,-0.0148,0.0119,0.00275,-0.01297,0.03113,-0.02075,0.00214,0.00854,-0.04135
4.68,-0.00473,-0.01648,0.04196,-0.01022,-0.00122,-0.04501,-0.01709,-0.01144,0.00641,0.00183,-0.00778,0.03067,-0.02075,0.00015,0.01053,-0.04044
4.6805,-0.00763,-0.01526,0.047,-0.01144,0.00259,-0.04532,-0.01541,-0.00626,-0.00137,0.00458,-0.01816,0.03128,-0.01999,-0.00366,0.00992,-0.0412
4.681,-0.00946,-0.01129,0.04501,-0.01434,-0.01389,-0.04654,-0.01312,-0.00549,-0.01328,0.02075,-0.04425,0.03174,-0.01724,-0.00793,0.00931,-0.04242
4.6815,-0.00961,-0.00565,0.03662,-0.01465,-0.04974,-0.04776,-0.01251,-0.00763,-0.0264,0.04227,-0.08209,0.02625,-0.01251,-0.009,0.00839,-0.04333
4.682,-0.00626,-0.00443,0.02396,-0.01495,-0.08209,-0.04959,-0.01419,-0.009,-0.03677,0.05264,-0.11642,0.01404,-0.00717,-0.00717,0.00916,-0.04379
4.6825,-0.00214,-0.0116,0.01419,-0.01312,-0.09109,-0.05142,-0.01495,-0.00931,-0.04196,0.04333,-0.13168,-0.0029,-0.00381,-0.0061,0.00946,-0.0441
4.683,-0.00214,-0.02563,0.01678,-0.01099,-0.07507,-0.0502,-0.01465,-0.00793,-0.04456,0.01709,-0.12466,-0.01831,-0.00351,-0.00824,0.00839,-0.04333
4.6835,-0.009,-0.03891,0.03403,-0.00885,-0.05508,-0.04807,-0.01633,-0.0032,-0.0502,-0.01984,-0.10803,-0.03326,-0.00381,-0.00977,0.00763,-0.04318
4.684,-0.01801,-0.04456,0.06012,-0.00732,-0.0473,-0.04822,-0.01816,0.0,-0.06195,-0.0618,-0.09048,-0.04303,-0.0032,-0.01129,0.00656,-0.04242
4.6845,-0.02167,-0.04272,0.08377,-0.00778,-0.047,-0.04822,-0.01968,0.00046,-0.07568,-0.09933,-0.06607,-0.04395,0.00046,-0.01236,0.00534,-0.04257
4.685,-0.01633,-0.04044,0.0943,-0.00854,-0.04028,-0.04654,-0.02075,-0.00214,-0.08759,-0.12161,-0.02487,-0.03662,0.00488,-0.01358,0.00458,-0.04349
4.6855,-0.00626,-0.04669,0.09033,-0.00748,-0.02747,-0.04501,-0.02182,-0.0061,-0.09415,-0.12283,0.0235,-0.02686,0.00763,-0.01541,0.00443,-0.04379
4.686,-0.00031,-0.0621,0.07416,-0.00381,-0.01526,-0.04456,-0.0235,-0.00626,-0.09277,-0.11566,0.06271,-0.01633,0.00748,-0.01801,0.00519,-0.04333
4.6865,0.00305,-0.0766,0.0499,-0.00076,-0.01022,-0.04349,-0.02289,-0.00397,-0.08789,-0.10971,0.08728,-0.00473,0.00717,-0.02029,0.00732,-0.04242
4.687,0.00305,-0.08255,0.02289,-0.00015,-0.01358,-0.04288,-0.02213,-0.00275,-0.08347,-0.10315,0.10513,0.0032,0.00687,-0.02319,0.00778,-0.04257
4.6875,0.00381,-0.08133,-0.00595,-0.00122,-0.02045,-0.04425,-0.02106,-0.00259,-0.07721,-0.09384,0.11658,0.00549,0.00198,-0.02487,0.00671,-0.04501
4.688,0.00351,-0.07584,-0.04318,-0.00366,-0.03036,-0.04593,-0.01999,-0.00214,-0.065,-0.0827,0.11337,0.00534,-0.00824,-0.0238,0.00473,-0.04562
4.6885,0.00351,-0.06882,-0.09415,-0.00519,-0.03784,-0.047,-0.01816,-0.00031,-0.04578,-0.07324,0.08575,0.00626,-0.02655,-0.02121,0.00443,-0.04593
4.689,0.00397,-0.05859,-0.15549,-0.00717,-0.04562,-0.04776,-0.01617,0.00137,-0.02777,-0.06592,0.04333,0.00687,-0.04791,-0.01968,0.00549,-0.04196
4.6895,0.0029,-0.04471,-0.21301,-0.00839,-0.05066,-0.04837,-0.01465,0.00427,-0.01953,-0.06119,0.00443,0.00549,-0.06287,-0.02045,0.00717,-0.03952
4.69,-0.00122,-0.02975,-0.25635,-0.00916,-0.056,-0.04883,-0.01389,0.00702,-0.0206,-0.05493,-0.0177,0.00397,-0.06668,-0.02182,0.00809,-0.03922
4.6905,-0.00717,-0.01831,-0.27924,-0.00824,-0.05676,-0.05173,-0.01373,0.00793,-0.02258,-0.03815,-0.01266,0.00275,-0.06241,-0.02121,0.00641,-0.03983
4.691,-0.01144,-0.01801,-0.2803,-0.00717,-0.04852,-0.05402,-0.01297,0.00809,-0.02228,-0.01053,0.0264,0.00183,-0.05997,-0.01953,0.00565,-0.04089
4.6915,-0.01251,-0.03387,-0.25589,-0.0087,-0.02853,-0.05386,-0.01099,0.00916,-0.02014,0.01434,0.08331,0.00031,-0.05997,-0.01602,0.00671,-0.04181
4.692,-0.01022,-0.06378,-0.20859,-0.0119,-0.00031,-0.0528,-0.00824,0.00839,-0.01755,0.02304,0.11871,-0.00229,-0.05707,-0.01404,0.0087,-0.04257
4.6925,-0.00809,-0.09567,-0.14969,-0.01282,0.03159,-0.05219,-0.0061,0.00198,-0.01572,0.02319,0.10864,-0.0029,-0.04852,-0.0145,0.00946,-0.04211
4.693,-0.00687,-0.11642,-0.09109,-0.01205,0.05295,-0.05112,-0.00702,-0.00916,-0.01419,0.03159,0.06638,0.00259,-0.0444,-0.01572,0.009,-0.03983
4.6935,-0.00366,-0.11963,-0.03799,-0.01068,0.05875,-0.04913,-0.00809,-0.01831,-0.01343,0.04791,0.01816,0.01007,-0.05386,-0.0174,0.01038,-0.0386
4.694,0.00031,-0.10605,0.01251,-0.0119,0.05722,-0.04532,-0.00885,-0.01801,-0.0119,0.04364,-0.0238,0.01312,-0.07751,-0.02045,0.01144,-0.03906
4.6945,0.00259,-0.07996,0.05493,-0.01205,0.05096,-0.04181,-0.00885,-0.00946,-0.00702,-0.00336,-0.056,0.00977,-0.10162,-0.02502,0.01144,-0.03998
4.695,0.00198,-0.04349,0.08316,-0.01007,0.0264,-0.04074,-0.00916,-0.00229,0.00183,-0.07401,-0.07217,0.00504,-0.10895,-0.02792,0.0087,-0.0412
4.6955,-0.00061,-0.00702,0.09689,-0.00916,-0.0238,-0.03937,-0.01144,-0.00229,0.01114,-0.1207,-0.07263,0.00381,-0.09521,-0.0267,0.00763,-0.04272
4.696,-0.00549,0.02365,0.07538,-0.00992,-0.07721,-0.03738,-0.01556,-0.00809,0.01801,-0.12024,-0.06454,0.00519,-0.07172,-0.0238,0.00916,-0.04456
4.6965,-0.01175,0.04135,-0.04501,-0.00946,-0.10315,-0.03784,-0.01923,-0.01389,0.01877,-0.0885,-0.05478,0.00427,-0.05417,-0.02304,0.0119,-0.04547
4.697,-0.01678,0.0444,-0.28748,-0.00519,-0.1004,-0.04013,-0.02289,-0.01511,0.01678,-0.05768,-0.0444,0.00122,-0.0473,-0.02533,0.01404,-0.04562
4.6975,-0.01953,0.03708,-0.53421,-0.00015,-0.09094,-0.04486,-0.02472,-0.01373,0.01633,-0.04044,-0.02853,-0.00031,-0.0444,-0.03006,0.0145,-0.04578
4.698,-0.01846,0.02563,-0.59052,0.00183,-0.08698,-0.04822,-0.02304,-0.00885,0.01938,-0.03036,-0.00946,0.00061,-0.0415,-0.03342,0.01282,-0.04654
4.6985,-0.01694,0.00916,-0.39108,0.00107,-0.0769,-0.05005,-0.01678,-0.00214,0.02579,-0.02029,0.00183,0.00244,-0.03738,-0.03311,0.0116,-0.04807
4.699,-0.01404,-0.00992,-0.08087,0.00031,-0.0563,-0.05081,-0.01038,0.00397,0.03464,-0.00473,-0.01022,0.00305,-0.03494,-0.03189,0.01114,-0.04852
4.6995,-0.01053,-0.0322,0.14099,0.00092,-0.03876,-0.05035,-0.00763,0.0058,0.04257,0.01465,-0.04761,0.0029,-0.03357,-0.03098,0.0119,-0.04791
4.7,-0.00366,-0.05493,0.16937,0.0029,-0.03601,-0.04883,-0.00809,0.00458,0.04379,0.03387,-0.09827,0.0029,-0.03113,-0.03052,0.01266,-0.047
4.7005,0.00198,-0.07431,0.02396,0.00351,-0.04196,-0.04684,-0.00961,0.00107,0.0386,0.04913,-0.15015,0.0029,-0.02655,-0.02975,0.01221,-0.04639
4.701,0.00519,-0.08728,-0.17059,-0.00015,-0.04059,-0.04593,-0.01038,-0.00259,0.03159,0.0531,-0.19287,0.00198,-0.02136,-0.02884,0.0119,-0.04532
4.7015,0.0032,-0.09201,-0.24643,-0.01205,-0.03235,-0.04562,-0.01038,-0.00565,0.02487,0.03937,-0.22156,0.00031,-0.01617,-0.02808,0.01328,-0.04532
4.702,-0.00305,-0.09216,-0.12878,-0.02548,-0.02914,-0.04562,-0.00885,-0.00641,0.01984,0.00381,-0.23514,-0.00137,-0.01373,-0.02747,0.01434,-0.04623
4.7025,-0.01343,-0.09079,0.09918,-0.02243,-0.03525,-0.04654,-0.00641,-0.00473,0.01541,-0.04364,-0.21378,-0.00336,-0.01526,-0.02716,0.0145,-0.04669
4.703,-0.02289,-0.0882,0.289,0.00015,-0.04486,-0.04883,-0.00488,-0.00259,0.01007,-0.08438,-0.13412,-0.00702,-0.01801,-0.0267,0.01373,-0.04532
4.7035,-0.02792,-0.08301,0.36499,0.02106,-0.04913,-0.05142,-0.00641,-0.0029,0.00336,-0.10513,-0.00549,-0.01175,-0.02075,-0.02777,0.01297,-0.04288
4.704,-0.02548,-0.0769,0.345,0.02579,-0.04471,-0.05249,-0.01022,-0.00458,-0.0032,-0.10788,0.12115,-0.01556,-0.0206,-0.02838,0.01266,-0.04227
4.7045,-0.0174,-0.07202,0.28366,0.01816,-0.03815,-0.05035,-0.01419,-0.00519,-0.00916,-0.10086,0.19974,-0.01556,-0.01907,-0.02701,0.0119,-0.04166
4.705,-0.00793,-0.06943,0.22079,0.00259,-0.03464,-0.04776,-0.01419,-0.00351,-0.01587,-0.09079,0.23178,-0.01389,-0.01724,-0.02487,0.01129,-0.04013
4.7055,-0.00168,-0.06683,0.17227,-0.02731,-0.03571,-0.04745,-0.01343,-0.00061,-0.0238,-0.08347,0.2449,-0.01373,-0.01572,-0.0238,0.01328,-0.03815
4.706,0.00244,-0.06439,0.13367,-0.06393,-0.03662,-0.05112,-0.01526,0.00122,-0.03067,-0.0769,0.25604,-0.01511,-0.01434,-0.02594,0.01297,-0.03677
4.7065,0.00443,-0.0618,0.09399,-0.07278,-0.03723,-0.05219,-0.01907,0.00137,-0.03265,-0.07187,0.25421,-0.01709,-0.01221,-0.02686,0.01175,-0.03708
4.707,0.00687,-0.05737,0.04852,-0.04166,-0.03677,-0.05386,-0.02151,0.00137,-0.03143,-0.06653,0.22552,-0.01755,-0.01007,-0.0267,0.0087,-0.03647
4.7075,0.00977,-0.05249,-0.00259,-0.00259,-0.0351,-0.05432,-0.02213,0.00076,-0.03098,-0.06226,0.17334,-0.0177,-0.01068,-0.02594,0.00778,-0.03387
4.708,0.01404,-0.04822,-0.05478,0.01038,-0.02899,-0.05463,-0.02121,-0.00046,-0.03098,-0.05615,0.1123,-0.01724,-0.01389,-0.02472,0.00824,-0.03021
4.7085,0.0174,-0.04684,-0.1001,0.00366,-0.02014,-0.05417,-0.01999,-0.00168,-0.02914,-0.04578,0.05447,-0.01556,-0.01877,-0.02258,0.01038,-0.02853
4.709,0.01724,-0.04974,-0.13321,0.00214,-0.01312,-0.05371,-0.02045,-0.00183,-0.02533,-0.03113,0.00412,-0.01266,-0.02594,-0.02075,0.01053,-0.02838
4.7095,0.01709,-0.05554,-0.14786,0.01251,-0.01175,-0.0528,-0.0209,-0.00061,-0.01968,-0.01144,-0.0322,-0.0116,-0.03357,-0.02014,0.0087,-0.03128
4.71,0.01755,-0.06058,-0.14389,0.0235,-0.0116,-0.05234,-0.01907,0.0,-0.01526,0.00992,-0.05417,-0.01282,-0.03952,-0.02136,0.00824,-0.03632
4.7105,0.01846,-0.06317,-0.12558,0.02823,-0.00931,-0.05203,-0.01724,0.00061,-0.01617,0.03098,-0.06287,-0.01236,-0.0412,-0.02243,0.00778,-0.04135
4.711,0.01862,-0.06042,-0.10208,0.02625,-0.00336,-0.05051,-0.01724,-0.00107,-0.01953,0.04669,-0.06943,-0.01083,-0.03922,-0.02213,0.00824,-0.0441
4.7115,0.01572,-0.05432,-0.07889,0.02213,-0.00076,-0.04868,-0.01999,-0.0029,-0.02304,0.05585,-0.07401,-0.00885,-0.03632,-0.01938,0.00748,-0.04395
4.712,0.01205,-0.04807,-0.06012,0.02045,-0.0116,-0.04745,-0.02167,-0.00473,-0.02213,0.06546,-0.07248,-0.00763,-0.03204,-0.01511,0.0061,-0.04425
4.7125,0.00916,-0.0412,-0.04593,0.01999,-0.04013,-0.04837,-0.01862,-0.00565,-0.01648,0.08362,-0.0676,-0.00824,-0.02899,-0.01114,0.00488,-0.04379
4.713,0.00793,-0.03174,-0.03723,0.01938,-0.07065,-0.04883,-0.01495,-0.0061,-0.00977,0.11017,-0.06409,-0.01007,-0.02808,-0.00824,0.00473,-0.04425
4.7135,0.00824,-0.02411,-0.03525,0.00244,-0.07965,-0.04883,-0.01236,-0.00641,-0.00671,0.13153,-0.06165,-0.0119,-0.02975,-0.00259,0.00443,-0.04547
4.714,0.00824,-0.0267,-0.04333,-0.03998,-0.06058,-0.04807,-0.01312,-0.00702,-0.00458,0.13062,-0.05905,-0.01251,-0.03235,0.00443,0.00595,-0.04761
4.7145,0.00793,-0.04196,-0.06119,-0.09094,-0.03326,-0.04852,-0.01312,-0.00702,-0.00183,0.10651,-0.05569,-0.0116,-0.03189,0.00717,0.00595,-0.04944
4.715,0.00565,-0.06042,-0.08392,-0.11017,-0.01877,-0.04837,-0.0119,-0.00656,0.0032,0.07263,-0.05722,-0.00992,-0.02808,0.00153,0.0061,-0.04822
4.7155,0.00244,-0.06927,-0.10468,-0.08301,-0.01617,-0.04684,-0.01129,-0.00717,0.00732,0.04684,-0.06256,-0.00809,-0.0235,-0.00824,0.0058,-0.0444
4.716,-0.00061,-0.06592,-0.1207,-0.04272,-0.01602,-0.04562,-0.01144,-0.00748,0.00793,0.03204,-0.06668,-0.00626,-0.02121,-0.01556,0.00641,-0.03998
4.7165,-0.00473,-0.05371,-0.12131,-0.02151,-0.01343,-0.04517,-0.01312,-0.00702,0.00488,0.02045,-0.07065,-0.00519,-0.02029,-0.01755,0.00916,-0.0386
4.717,-0.00946,-0.0351,-0.09491,-0.0209,-0.01083,-0.04517,-0.0148,-0.00443,-0.00061,0.00748,-0.08774,-0.00397,-0.01953,-0.01785,0.01038,-0.03922
4.7175,-0.01556,-0.01007,-0.04013,-0.02319,-0.01083,-0.04593,-0.01526,-0.00122,-0.00595,-0.00534,-0.12573,-0.00198,-0.01984,-0.01953,0.01038,-0.03983
4.718,-0.0209,0.01404,0.02106,-0.02182,-0.01114,-0.04486,-0.01328,0.00031,-0.00946,-0.01465,-0.17273,0.00015,-0.01968,-0.02106,0.01038,-0.03906
4.7185,-0.02411,0.02731,0.06149,-0.01862,-0.01175,-0.04395,-0.01114,-0.00107,-0.01068,-0.02045,-0.20126,0.00275,-0.02106,-0.02151,0.0119,-0.03967
4.719,-0.0238,0.02609,0.07355,-0.01602,-0.01236,-0.04471,-0.01114,-0.00122,-0.01068,-0.02777,-0.19714,0.00427,-0.02472,-0.02396,0.01328,-0.0415
4.7195,-0.02274,0.01602,0.06012,-0.01511,-0.01282,-0.04669,-0.01419,0.00046,-0.01251,-0.0351,-0.15823,0.00504,-0.02991,-0.02563,0.01312,-0.04364
4.72,-0.01877,0.00244,0.02747,-0.0145,-0.01572,-0.04761,-0.01724,0.00015,-0.01709,-0.04227,-0.08896,0.00763,-0.03433,-0.02518,0.01114,-0.04364
4.7205,-0.01282,-0.01251,-0.01572,-0.01373,-0.01663,-0.04776,-0.01953,-0.00549,-0.02106,-0.047,-0.00107,0.01099,-0.03708,-0.02441,0.00885,-0.04425
4.721,-0.00626,-0.02701,-0.05615,-0.0119,-0.0119,-0.04654,-0.01892,-0.01358,-0.02136,-0.04837,0.08194,0.01404,-0.0351,-0.02426,0.00641,-0.04654
4.7215,-0.00244,-0.03815,-0.08011,-0.01144,-0.00443,-0.04486,-0.01846,-0.01694,-0.02045,-0.04562,0.1326,0.0148,-0.02899,-0.02502,0.00366,-0.04868
4.722,-0.00259,-0.04578,-0.08499,-0.01068,-0.00198,-0.04471,-0.01923,-0.01373,-0.01999,-0.0415,0.13992,0.01526,-0.02243,-0.02548,0.00076,-0.04929
4.7225,-0.00565,-0.05569,-0.07874,-0.01038,-0.01556,-0.04684,-0.02045,-0.00732,-0.0209,-0.03983,0.11078,0.01495,-0.02106,-0.02579,-0.00092,-0.04654
4.723,-0.0087,-0.07202,-0.06958,-0.00946,-0.03876,-0.04761,-0.01968,-0.00275,-0.0209,-0.04303,0.06134,0.01526,-0.02716,-0.02487,-0.00092,-0.04425
4.7235,-0.01114,-0.0946,-0.06256,-0.00839,-0.0563,-0.04715,-0.01572,0.00061,-0.01953,-0.05096,0.00885,0.01648,-0.04288,-0.02319,0.00092,-0.0444
4.724,-0.01175,-0.11108,-0.0647,-0.00931,-0.05753,-0.04486,-0.01266,0.00397,-0.01633,-0.05905,-0.03571,0.01831,-0.06454,-0.02243,0.00183,-0.04501
4.7245,-0.01114,-0.10696,-0.07339,-0.01068,-0.04349,-0.04227,-0.01022,0.00656,-0.01495,-0.06989,-0.06424,0.02029,-0.08392,-0.02243,0.00275,-0.04486
4.725,-0.00977,-0.08636,-0.08118,-0.01175,-0.0238,-0.04074,-0.00931,0.00519,-0.01465,-0.09109,-0.07996,0.02197,-0.08972,-0.02243,0.00366,-0.04303
4.7255,-0.00824,-0.0621,-0.07584,-0.01205,-0.00839,-0.04044,-0.00793,0.00183,-0.01526,-0.11871,-0.09399,0.02167,-0.07553,-0.02106,0.00412,-0.04196
4.726,-0.00687,-0.04211,-0.05539,-0.01251,-0.00214,-0.0412,-0.00809,0.00107,-0.01526,-0.13229,-0.11368,0.01907,-0.0499,-0.01846,0.00458,-0.04074
4.7265,-0.00809,-0.02167,-0.02441,-0.01175,-0.00092,-0.04227,-0.00824,0.00412,-0.01526,-0.11566,-0.1416,0.01724,-0.02899,-0.01709,0.00504,-0.03891
4.727,-0.01083,0.00122,0.01007,-0.01083,-0.00259,-0.04318,-0.00763,0.00656,-0.01343,-0.07874,-0.16815,0.01724,-0.02319,-0.01663,0.00519,-0.03738
4.7275,-0.01114,0.02213,0.04333,-0.00961,-0.00443,-0.04227,-0.00702,0.00534,-0.00854,-0.04456,-0.18066,0.01923,-0.02701,-0.0174,0.00519,-0.03708
4.728,-0.00916,0.03265,0.06378,-0.00885,-0.00534,-0.04272,-0.00748,-0.00046,-0.00198,-0.01999,-0.18112,0.0206,-0.03036,-0.01755,0.00565,-0.03769
4.7285,-0.0061,0.03006,0.06683,-0.00793,-0.00259,-0.04562,-0.00946,-0.00778,0.00214,0.00198,-0.17914,0.02029,-0.03021,-0.01846,0.00717,-0.03876
4.729,-0.00305,0.01877,0.05524,-0.00565,-0.0029,-0.04868,-0.01083,-0.01328,0.0032,0.02838,-0.17532,0.01907,-0.03021,-0.01984,0.00854,-0.03922
4.7295,-0.00076,0.0058,0.03891,-0.00366,-0.01923,-0.04944,-0.00977,-0.01419,0.00381,0.06073,-0.1535,0.01923,-0.03098,-0.02197,0.00992,-0.04028
4.73,0.00153,-0.00854,0.02518,-0.00412,-0.0563,-0.04929,-0.00626,-0.0116,0.00336,0.09293,-0.11322,0.0174,-0.03204,-0.02335,0.00946,-0.04105
4.7305,0.00046,-0.02945,0.01526,-0.00656,-0.09415,-0.04883,-0.00305,-0.009,-0.00137,0.10559,-0.06226,0.009,-0.03281,-0.02243,0.00931,-0.04211
4.731,-0.00565,-0.06348,0.00519,-0.00931,-0.10483,-0.04852,-0.00198,-0.00748,-0.01144,0.08621,0.0061,-0.00412,-0.03326,-0.0206,0.00931,-0.04257
4.7315,-0.01541,-0.10437,-0.0061,-0.00961,-0.08514,-0.04684,-0.00214,-0.00519,-0.02228,0.04196,0.09964,-0.01266,-0.03159,-0.0209,0.00839,-0.04257
4.732,-0.02106,-0.13412,-0.0177,-0.01022,-0.05646,-0.04547,-0.00366,-0.00183,-0.02823,-0.00198,0.19302,-0.01083,-0.0293,-0.02167,0.00732,-0.04288
4.7325,-0.0209,-0.14008,-0.02716,-0.01068,-0.04074,-0.04593,-0.00534,0.00244,-0.0293,-0.02975,0.24445,-0.00076,-0.02579,-0.02289,0.00549,-0.04349
4.733,-0.01755,-0.12848,-0.03342,-0.01038,-0.04242,-0.04807,-0.00809,0.00534,-0.02975,-0.04562,0.25467,0.01083,-0.02289,-0.02213,0.00473,-0.04456
4.7335,-0.01541,-0.11017,-0.03632,-0.00839,-0.0502,-0.0502,-0.0116,0.0058,-0.0322,-0.05829,0.24979,0.02029,-0.02014,-0.02121,0.00397,-0.04349
4.734,-0.01587,-0.08804,-0.03555,-0.00702,-0.05554,-0.05127,-0.01541,0.00427,-0.03723,-0.06454,0.24887,0.02625,-0.01663,-0.01923,0.00397,-0.04227
4.7345,-0.01663,-0.05905,-0.03296,-0.00763,-0.05569,-0.05173,-0.01556,0.00366,-0.04318,-0.06271,0.24078,0.02869,-0.01312,-0.01755,0.00397,-0.04059
4.735,-0.01572,-0.02686,-0.03281,-0.00793,-0.05234,-0.05127,-0.01343,0.00763,-0.0473,-0.05417,0.21362,0.02625,-0.01175,-0.01755,0.00336,-0.03937
4.7355,-0.01465,-0.00168,-0.03616,-0.00671,-0.04669,-0.05035,-0.01129,0.01114,-0.04883,-0.04471,0.17166,0.02151,-0.01404,-0.01862,0.00519,-0.0386
4.736,-0.01236,0.00992,-0.0415,-0.0058,-0.03937,-0.04883,-0.01114,0.00946,-0.04807,-0.03647,0.12375,0.02121,-0.01846,-0.01999,0.00793,-0.03754
4.7365,-0.00854,0.00931,-0.04486,-0.00504,-0.0322,-0.04684,-0.01389,0.00061,-0.04532,-0.0325,0.0769,0.02579,-0.0264,-0.02151,0.00961,-0.03708
4.737,-0.00443,0.00626,-0.04776,-0.00488,-0.02563,-0.04654,-0.0177,-0.00854,-0.04135,-0.03967,0.03616,0.03006,-0.03662,-0.02075,0.00961,-0.03876
4.7375,-0.00473,0.00626,-0.05066,-0.00397,-0.01724,-0.04791,-0.02014,-0.01465,-0.03586,-0.05814,0.00244,0.02853,-0.0441,-0.01984,0.00885,-0.04074
4.738,-0.00854,0.00732,-0.04974,-0.00244,-0.00641,-0.05005,-0.02075,-0.01633,-0.02838,-0.07538,-0.02594,0.02289,-0.04196,-0.01984,0.00763,-0.04059
4.7385,-0.01434,0.00244,-0.04211,-0.00229,0.00137,-0.05081,-0.01968,-0.01617,-0.02029,-0.07446,-0.05203,0.01816,-0.02838,-0.02045,0.00809,-0.03998
4.739,-0.01694,-0.00839,-0.02609,-0.00473,-0.00031,-0.0499,-0.01816,-0.01495,-0.01343,-0.05325,-0.07187,0.01572,-0.01099,-0.02045,0.0087,-0.03922
4.7395,-0.01587,-0.02335,-0.00336,-0.00641,-0.01709,-0.04868,-0.01587,-0.01144,-0.00778,-0.02518,-0.08347,0.01465,0.00229,-0.0177,0.01068,-0.03998
4.74,-0.00992,-0.04608,0.02167,-0.0061,-0.0412,-0.04715,-0.01358,-0.00549,-0.00092,-0.0029,-0.08621,0.01389,0.00916,-0.01572,0.01205,-0.04211
4.7405,-0.00443,-0.07751,0.0412,-0.00565,-0.05402,-0.0473,-0.01343,-0.00244,0.00366,0.01068,-0.08575,0.01282,0.00671,-0.01465,0.01144,-0.04501
4.741,-0.0032,-0.10712,0.05219,-0.0058,-0.05112,-0.0473,-0.0148,-0.00443,0.00519,0.01831,-0.08163,0.01053,-0.00931,-0.01526,0.01007,-0.04684
4.7415,-0.00458,-0.11993,0.05157,-0.00595,-0.04288,-0.04807,-0.01556,-0.00977,0.00381,0.02136,-0.07202,0.00977,-0.0383,-0.01633,0.00992,-0.0473
4.742,-0.0058,-0.11078,0.03113,-0.00473,-0.03784,-0.04898,-0.01572,-0.01404,0.00076,0.02121,-0.05875,0.00992,-0.07187,-0.01892,0.00961,-0.04684
4.7425,-0.0032,-0.08118,-0.01541,-0.00366,-0.03555,-0.0502,-0.01633,-0.01373,-0.00229,0.01999,-0.04929,0.01099,-0.09308,-0.0206,0.01038,-0.04623
4.743,0.00168,-0.03967,-0.08148,-0.00504,-0.03052,-0.05203,-0.01862,-0.01053,-0.00488,0.01938,-0.04471,0.00977,-0.08987,-0.0206,0.01175,-0.04456
4.7435,0.00519,-0.00092,-0.14816,-0.00671,-0.02838,-0.05539,-0.02151,-0.00748,-0.00534,0.01968,-0.04181,0.00717,-0.07004,-0.01907,0.01343,-0.04303
4.744,0.00671,0.02197,-0.19897,-0.00763,-0.03036,-0.05707,-0.02274,-0.00626,-0.00458,0.02121,-0.04074,0.00641,-0.05219,-0.0177,0.01389,-0.04227
4.7445,0.00732,0.02808,-0.23071,-0.00656,-0.0354,-0.05814,-0.02182,-0.00504,-0.00473,0.02014,-0.04105,0.00641,-0.04471,-0.01587,0.01328,-0.04227
4.745,0.00549,0.03052,-0.24918,-0.00549,-0.03815,-0.05814,-0.02045,-0.00305,-0.00534,0.01633,-0.04288,0.00671,-0.04456,-0.01434,0.01236,-0.04333
4.7455,0.00076,0.03784,-0.25665,-0.00519,-0.03998,-0.06042,-0.01877,-0.00183,-0.0061,0.01175,-0.04456,0.00504,-0.04303,-0.01312,0.01053,-0.04364
4.746,-0.00488,0.03708,-0.24872,-0.00549,-0.04333,-0.06195,-0.01892,-0.00336,-0.00854,0.00549,-0.04684,0.00153,-0.03891,-0.01129,0.00977,-0.04349
4.7465,-0.00931,0.01678,-0.20966,-0.00458,-0.04639,-0.06256,-0.01862,-0.00473,-0.01221,-0.00687,-0.05234,-0.00076,-0.03265,-0.01114,0.01038,-0.04272
4.747,-0.01419,-0.01282,-0.12741,-0.00381,-0.04211,-0.06256,-0.01678,-0.00458,-0.01587,-0.03021,-0.05722,-0.00198,-0.02808,-0.0116,0.01083,-0.04303
4.7475,-0.02121,-0.03418,-0.00641,-0.00488,-0.02426,-0.06348,-0.0145,-0.00229,-0.01984,-0.05707,-0.06042,-0.00153,-0.02487,-0.01236,0.01022,-0.0441
4.748,-0.02808,-0.04364,0.1178,-0.00702,0.00229,-0.06317,-0.01328,-0.00137,-0.02151,-0.06805,-0.06058,-0.00244,-0.01938,-0.01236,0.009,-0.04456
4.7485,-0.03052,-0.04974,0.20218,-0.00809,0.0235,-0.06027,-0.01282,-0.00137,-0.01984,-0.05524,-0.05844,-0.00366,-0.009,-0.01114,0.0087,-0.04456
4.749,-0.0267,-0.05341,0.23087,-0.00824,0.02716,-0.05478,-0.01251,-0.00092,-0.01602,-0.02991,-0.0531,-0.00443,0.00458,-0.00977,0.00824,-0.04395
4.7495,-0.0206,-0.04837,0.21042,-0.00732,0.02075,-0.04547,-0.01236,-0.00061,-0.01266,-0.00717,-0.047,-0.00458,0.01556,-0.00839,0.00854,-0.0441
4.75,-0.01663,-0.03601,0.15854,-0.00824,0.01511,-0.03555,-0.01266,-0.00092,-0.01236,0.00916,-0.04288,-0.00366,0.02213,-0.00748,0.00916,-0.0444
4.7505,-0.01678,-0.02258,0.10254,-0.00809,0.01465,-0.02563,-0.01419,-0.00336,-0.01373,0.02029,-0.03693,-0.00351,0.02518,-0.00763,0.00961,-0.04456
4.751,-0.01953,-0.0119,0.06866,-0.00687,0.00504,-0.01938,-0.0148,-0.00702,-0.01358,0.02014,-0.02945,-0.00351,0.02304,-0.00916,0.00946,-0.04379
4.7515,-0.01999,-0.00122,0.06287,-0.00595,-0.03586,-0.01755,-0.01495,-0.00946,-0.0119,0.01251,-0.02304,-0.00351,0.00916,-0.01068,0.01038,-0.04135
4.752,-0.01617,0.00916,0.06363,-0.00763,-0.10391,-0.02045,-0.0145,-0.01083,-0.01251,0.01602,-0.01755,-0.00275,-0.01816,-0.01251,0.01068,-0.03983
4.7525,-0.00809,0.01495,0.04532,-0.00961,-0.15427,-0.02457,-0.01389,-0.01129,-0.01633,0.03357,-0.01266,-0.00259,-0.047,-0.01465,0.01175,-0.03906
4.753,0.00107,0.0087,-0.0029,-0.01038,-0.14252,-0.02914,-0.01221,-0.00992,-0.0206,0.04562,-0.00778,-0.00351,-0.05875,-0.01831,0.00961,-0.03937
4.7535,0.00793,-0.01114,-0.07095,-0.00778,-0.08377,-0.03525,-0.0119,-0.00748,-0.02106,0.02899,-0.00473,-0.00397,-0.05035,-0.0209,0.00748,-0.03983
4.754,0.01312,-0.03616,-0.1413,-0.00656,-0.03525,-0.0415,-0.01114,-0.00412,-0.01785,-0.00687,-0.00351,-0.00244,-0.03769,-0.0235,0.00412,-0.03937
4.7545,0.0174,-0.05722,-0.19241,-0.00595,-0.0264,-0.04547,-0.01099,-0.00183,-0.01633,-0.03387,-0.00931,0.00046,-0.0415,-0.02563,0.00534,-0.03937
4.755,0.02228,-0.06729,-0.21423,-0.00565,-0.0351,-0.04608,-0.01068,-0.00122,-0.0174,-0.04135,-0.02884,0.00214,-0.06805,-0.02731,0.00687,-0.03983
4.7555,0.02731,-0.06561,-0.20859,-0.00412,-0.03738,-0.04379,-0.00992,-0.00229,-0.02121,-0.0412,-0.06119,0.0032,-0.09933,-0.02609,0.00656,-0.04227
4.756,0.03082,-0.05356,-0.18555,-0.00427,-0.03174,-0.04227,-0.009,-0.00214,-0.02457,-0.04471,-0.09018,0.00336,-0.11246,-0.02365,0.00793,-0.04562
4.7565,0.0322,-0.03647,-0.15411,-0.00549,-0.02838,-0.04044,-0.00916,-0.00122,-0.02563,-0.0502,-0.09903,-0.00076,-0.10056,-0.0206,0.00732,-0.04745
4.757,0.03128,-0.02411,-0.12192,-0.00702,-0.02853,-0.04089,-0.00916,0.00076,-0.02655,-0.05432,-0.08362,-0.01083,-0.0769,-0.02014,0.00687,-0.04532
4.7575,0.03052,-0.02106,-0.09537,-0.00885,-0.02869,-0.04227,-0.01007,0.0032,-0.02823,-0.05722,-0.05127,-0.02701,-0.06027,-0.02045,0.00717,-0.04318
4.758,0.02808,-0.02655,-0.07874,-0.00961,-0.02579,-0.04532,-0.01205,0.00443,-0.02701,-0.05753,-0.01282,-0.03815,-0.05417,-0.01968,0.00702,-0.04395
4.7585,0.0235,-0.03754,-0.07721,-0.00961,-0.02289,-0.04868,-0.01099,0.00488,-0.02594,-0.05112,0.02518,-0.03815,-0.04944,-0.01877,0.0058,-0.04456
4.759,0.0177,-0.04974,-0.08469,-0.00946,-0.01999,-0.04959,-0.00778,0.00351,-0.02655,-0.04059,0.05081,-0.02594,-0.04364,-0.01709,0.0058,-0.04349
4.7595,0.01434,-0.06348,-0.0943,-0.01068,-0.01846,-0.04883,-0.00305,0.00275,-0.02731,-0.03357,0.05722,-0.01068,-0.03952,-0.01785,0.00671,-0.04288
4.76,0.01236,-0.07538,-0.09872,-0.01266,-0.02121,-0.04654,-0.00061,0.00381,-0.02731,-0.03479,0.04593,0.00412,-0.03906,-0.02014,0.00916,-0.04242
4.7605,0.00931,-0.08423,-0.10147,-0.01297,-0.02258,-0.04532,-0.00046,0.00427,-0.02808,-0.03952,0.02319,0.01251,-0.0383,-0.0206,0.01175,-0.04242
4.761,0.00565,-0.08789,-0.1091,-0.01068,-0.02075,-0.0441,-0.00031,0.00229,-0.02975,-0.04395,-0.01022,0.00961,-0.03448,-0.01953,0.01236,-0.04242
4.7615,0.00412,-0.08881,-0.11856,-0.00809,-0.01648,-0.04379,-0.00305,-0.00107,-0.03311,-0.04318,-0.056,-0.0032,-0.02991,-0.01801,0.01312,-0.0412
4.762,0.00412,-0.08896,-0.12039,-0.00824,-0.01266,-0.04486,-0.00916,-0.00504,-0.03601,-0.0386,-0.10422,-0.01007,-0.02533,-0.01709,0.01312,-0.04028
4.7625,0.00336,-0.08698,-0.10788,-0.00946,-0.0119,-0.04761,-0.01587,-0.00702,-0.0386,-0.03479,-0.13504,0.00519,-0.02213,-0.01617,0.01266,-0.03906
4.763,0.00092,-0.07965,-0.08789,-0.00977,-0.00992,-0.04974,-0.01862,-0.00687,-0.04318,-0.03464,-0.14084,0.0386,-0.01923,-0.01434,0.01129,-0.03876
4.7635,-0.00076,-0.06775,-0.07416,-0.009,-0.00351,-0.05081,-0.01633,-0.00366,-0.04776,-0.03418,-0.13596,0.06271,-0.01511,-0.01297,0.00916,-0.04135
4.764,0.0,-0.05554,-0.06638,-0.00839,0.00473,-0.05035,-0.01297,0.00015,-0.04669,-0.0296,-0.12863,0.05493,-0.01007,-0.01022,0.00748,-0.04379
4.7645,0.00244,-0.04639,-0.05234,-0.00885,0.01083,-0.0499,-0.01175,0.00183,-0.03708,-0.02106,-0.11002,0.0267,-0.00504,-0.00687,0.00656,-0.04578
4.765,0.00427,-0.0383,-0.02289,-0.01007,0.01328,-0.05066,-0.01266,-0.00076,-0.02167,-0.01114,-0.07813,0.00534,-0.00061,-0.00427,0.00839,-0.04669
4.7655,0.00519,-0.03052,0.01358,-0.01068,0.00641,-0.05234,-0.01404,-0.00473,-0.00839,-0.00275,-0.04379,0.0032,0.00153,-0.00137,0.00885,-0.0444
4.766,0.00641,-0.02319,0.04028,-0.00946,-0.01648,-0.05356,-0.01328,-0.00671,-0.00153,0.00488,-0.01602,0.00946,0.00259,0.00046,0.01007,-0.04135
4.7665,0.00626,-0.01999,0.047,-0.0087,-0.0528,-0.0528,-0.01221,-0.00763,-0.00122,0.01114,0.00519,0.01022,0.00015,0.00092,0.01038,-0.03845
4.767,0.00351,-0.01953,0.0386,-0.00992,-0.07751,-0.04837,-0.0119,-0.0087,-0.00427,0.01297,0.01404,0.00656,-0.00748,-0.00031,0.009,-0.0383
4.7675,-0.00168,-0.02258,0.03006,-0.0116,-0.07004,-0.04471,-0.01266,-0.00977,-0.00565,0.00839,0.00641,0.00336,-0.02304,-0.00092,0.00854,-0.03845
4.768,-0.00717,-0.0296,0.03387,-0.01144,-0.0386,-0.04211,-0.01328,-0.01007,-0.00153,0.00244,-0.00351,0.00443,-0.04669,0.00015,0.00793,-0.03937
4.7685,-0.01373,-0.03952,0.05188,-0.00839,-0.01633,-0.04318,-0.01358,-0.00793,0.00549,-0.0032,0.00229,0.00504,-0.07278,-0.00168,0.00778,-0.03952
4.769,-0.02045,-0.04944,0.07431,-0.00656,-0.01862,-0.04471,-0.01343,-0.0061,0.0116,-0.00748,0.02701,0.00427,-0.08942,-0.00824,0.00763,-0.04059
4.7695,-0.02548,-0.056,0.09064,-0.00671,-0.03143,-0.04578,-0.01404,-0.00397,0.01495,-0.01419,0.0563,0.00198,-0.08713,-0.01526,0.00702,-0.04242
4.77,-0.02625,-0.06042,0.09933,-0.00793,-0.03555,-0.04425,-0.01419,-0.00244,0.01816,-0.02335,0.08453,0.0,-0.06302,-0.01907,0.00671,-0.04288
4.7705,-0.02487,-0.07309,0.09949,-0.00763,-0.02991,-0.04227,-0.01434,-0.00275,0.02167,-0.03326,0.1088,-0.00092,-0.03006,-0.01846,0.0058,-0.04181
4.771,-0.02258,-0.10132,0.08652,-0.00549,-0.02457,-0.03952,-0.01556,-0.00244,0.02396,-0.04059,0.12009,-0.00122,-0.00366,-0.01678,0.00473,-0.04044
4.7715,-0.0206,-0.13916,0.0563,-0.00305,-0.02396,-0.03815,-0.01648,-0.00031,0.0235,-0.04257,0.10818,-0.00137,0.00793,-0.01541,0.00504,-0.03967
4.772,-0.01724,-0.16266,0.01709,-0.00259,-0.02533,-0.04059,-0.01572,0.00153,0.0206,-0.0386,0.07523,0.00015,0.00931,-0.01587,0.00443,-0.03799
4.7725,-0.01205,-0.15976,-0.01617,-0.00443,-0.02563,-0.0444,-0.01434,0.00305,0.01465,-0.03128,0.03952,0.00137,0.00732,-0.01602,0.0061,-0.03525
4.773,-0.00641,-0.14038,-0.03601,-0.00702,-0.0264,-0.04501,-0.01419,0.00183,0.00458,-0.02274,0.01892,0.00076,0.00443,-0.01724,0.00809,-0.03464
4.7735,-0.0029,-0.11963,-0.04227,-0.00854,-0.0296,-0.04059,-0.01434,0.00092,-0.009,-0.02014,0.0206,-0.00168,-0.00015,-0.01907,0.00763,-0.03601
4.774,-0.00381,-0.09888,-0.04135,-0.00916,-0.03571,-0.03448,-0.01526,0.00076,-0.02502,-0.0235,0.04715,-0.00443,-0.00992,-0.02228,0.00732,-0.03845
4.7745,-0.00824,-0.07431,-0.03098,-0.00916,-0.04349,-0.03159,-0.01892,0.00168,-0.03784,-0.02686,0.08453,-0.00381,-0.02518,-0.02457,0.00717,-0.03922
4.775,-0.0145,-0.047,-0.00961,-0.01022,-0.04883,-0.03448,-0.02213,0.00259,-0.04623,-0.02472,0.11642,-0.00229,-0.04639,-0.02579,0.00732,-0.03952
4.7755,-0.02075,-0.02167,0.02014,-0.01221,-0.0499,-0.04013,-0.02319,0.00244,-0.05096,-0.01862,0.13123,-0.00153,-0.07202,-0.02747,0.0087,-0.04074
4.776,-0.02609,0.00122,0.0499,-0.01389,-0.04883,-0.04669,-0.02182,0.00153,-0.05341,-0.01526,0.13077,-0.00305,-0.0946,-0.02991,0.00931,-0.04196
4.7765,-0.02914,0.01846,0.06821,-0.01358,-0.047,-0.05219,-0.01938,0.00076,-0.05478,-0.01434,0.12329,-0.00336,-0.10605,-0.03021,0.01083,-0.04166
4.777,-0.02777,0.02945,0.06851,-0.01221,-0.04227,-0.05783,-0.01846,-0.00046,-0.05798,-0.01221,0.10803,-0.00137,-0.10483,-0.02853,0.01022,-0.0412
4.7775,-0.02304,0.0322,0.04776,-0.0116,-0.03601,-0.06516,-0.01862,-0.00092,-0.06271,-0.01144,0.08316,0.00122,-0.09933,-0.02472,0.00839,-0.04181
4.778,-0.01877,0.02121,0.01114,-0.00961,-0.0322,-0.07385,-0.01831,-0.00046,-0.06622,-0.01495,0.05264,0.00122,-0.0943,-0.02213,0.00824,-0.04257
4.7785,-0.01556,-0.00183,-0.0354,-0.00748,-0.03372,-0.08041,-0.01892,0.00183,-0.06226,-0.01907,0.02579,-0.00015,-0.08286,-0.01892,0.00809,-0.04272
4.779,-0.01175,-0.0264,-0.08438,-0.00534,-0.03387,-0.07782,-0.01984,0.00259,-0.0528,-0.01862,0.00565,-0.00229,-0.06149,-0.01633,0.00885,-0.04242
4.7795,-0.00687,-0.04211,-0.12695,-0.00488,-0.03143,-0.06577,-0.02075,0.00137,-0.0441,-0.01816,-0.01083,-0.00443,-0.03708,-0.0145,0.00931,-0.04318
4.78,-0.00229,-0.04807,-0.15503,-0.0058,-0.03082,-0.05234,-0.02121,0.00015,-0.03967,-0.01968,-0.02563,-0.00549,-0.02136,-0.01419,0.00854,-0.0444
4.7805,-0.00046,-0.0499,-0.16418,-0.00748,-0.0386,-0.04608,-0.02075,-0.00031,-0.03845,-0.02472,-0.03754,-0.00687,-0.01663,-0.01495,0.00809,-0.04532
4.781,0.00137,-0.04898,-0.15823,-0.00992,-0.04761,-0.04837,-0.01831,-0.00076,-0.03403,-0.03082,-0.04578,-0.00763,-0.0145,-0.01389,0.00916,-0.04486
4.7815,0.00443,-0.04532,-0.14511,-0.01129,-0.04944,-0.0528,-0.01602,-0.00107,-0.02655,-0.0351,-0.05341,-0.00732,-0.00977,-0.00992,0.01083,-0.04349
4.782,0.00717,-0.03815,-0.1326,-0.01266,-0.04181,-0.05417,-0.01526,0.00031,-0.01785,-0.03708,-0.06271,-0.00732,-0.0061,-0.00549,0.00977,-0.04242
4.7825,0.00671,-0.03052,-0.12268,-0.01343,-0.02701,-0.05341,-0.01617,0.00305,-0.00885,-0.03632,-0.07278,-0.00885,-0.00519,-0.00259,0.00854,-0.04089
4.783,0.00565,-0.02502,-0.1152,-0.01282,-0.00366,-0.05173,-0.01648,0.0058,-0.00092,-0.03738,-0.0795,-0.0119,-0.00626,-0.00168,0.00885,-0.03983
4.7835,0.00565,-0.02457,-0.11139,-0.01205,0.01984,-0.05234,-0.01724,0.00717,0.00519,-0.04211,-0.07858,-0.01389,-0.00778,-0.0029,0.01083,-0.04059
4.784,0.00702,-0.02991,-0.10406,-0.01114,0.02396,-0.05417,-0.01877,0.00336,0.00793,-0.04684,-0.07233,-0.01221,-0.0116,-0.00488,0.01312,-0.04333
4.7845,0.00809,-0.03784,-0.08163,-0.01068,-0.0058,-0.05554,-0.02045,-0.00168,0.00977,-0.04486,-0.06287,-0.00931,-0.01862,-0.00717,0.01236,-0.04715
4.785,0.00763,-0.04318,-0.04257,-0.01129,-0.05417,-0.05356,-0.02014,-0.00732,0.01038,-0.03876,-0.05264,-0.00824,-0.0296,-0.00916,0.0087,-0.04883
4.7855,0.00824,-0.04898,0.0,-0.01144,-0.07996,-0.04913,-0.01831,-0.00946,0.00977,-0.03311,-0.0441,-0.01022,-0.04013,-0.01266,0.00381,-0.04807
4.786,0.01099,-0.06073,0.02716,-0.01099,-0.06699,-0.04486,-0.01633,-0.00809,0.0058,-0.03174,-0.04593,-0.01205,-0.04517,-0.01526,0.00488,-0.04593
4.7865,0.0145,-0.07919,0.03403,-0.00992,-0.0499,-0.04364,-0.01755,-0.00656,0.00214,-0.03128,-0.07095,-0.0119,-0.04135,-0.01648,0.00702,-0.04395
4.787,0.01328,-0.09201,0.03098,-0.01007,-0.06607,-0.04303,-0.01877,-0.00687,0.0029,-0.02747,-0.11856,-0.01053,-0.03189,-0.0174,0.00809,-0.04333
4.7875,0.00458,-0.08865,0.03647,-0.00916,-0.09888,-0.04242,-0.01755,-0.01022,0.00656,-0.02258,-0.17288,-0.00824,-0.02365,-0.0174,0.00763,-0.04288
4.788,-0.00946,-0.06912,0.05814,-0.00717,-0.10361,-0.0415,-0.01373,-0.01282,0.00885,-0.02289,-0.21896,-0.00595,-0.01923,-0.01755,0.00763,-0.04211
4.7885,-0.02121,-0.04242,0.08408,-0.00656,-0.06866,-0.04211,-0.0119,-0.01343,0.00763,-0.03403,-0.25055,-0.00397,-0.01831,-0.01862,0.00946,-0.03967
4.789,-0.02365,-0.01236,0.09964,-0.00687,-0.02991,-0.0441,-0.01373,-0.0119,0.00412,-0.04883,-0.25146,-0.00275,-0.01556,-0.01907,0.01007,-0.03799
4.7895,-0.01846,0.01907,0.10513,-0.00702,-0.01923,-0.04456,-0.01694,-0.00916,0.00076,-0.05203,-0.20386,-0.00153,-0.01053,-0.01923,0.00839,-0.03876
4.79,-0.00992,0.04608,0.10223,-0.0058,-0.03067,-0.04486,-0.01892,-0.00702,-0.00305,-0.03555,-0.10849,0.00046,-0.00549,-0.01831,0.00519,-0.04044
4.7905,-0.00519,0.06104,0.08331,-0.00427,-0.04105,-0.04501,-0.01984,-0.00595,-0.00656,-0.01328,0.0116,0.00229,-0.00275,-0.01816,0.00244,-0.0415
4.791,-0.00763,0.06332,0.02914,-0.0032,-0.04517,-0.04562,-0.02151,-0.00549,-0.01053,-0.00137,0.13168,0.00259,-0.00229,-0.01938,0.00305,-0.0415
4.7915,-0.01495,0.05768,-0.06363,-0.0029,-0.04669,-0.04593,-0.02396,-0.00488,-0.0116,-0.00092,0.23422,0.00137,-0.00244,-0.0209,0.00626,-0.04211
4.792,-0.02182,0.04654,-0.17288,-0.00305,-0.04761,-0.04471,-0.0267,-0.00381,-0.01022,0.00275,0.30029,0.00031,-0.00427,-0.02274,0.00732,-0.04318
4.7925,-0.02487,0.02808,-0.26321,-0.00397,-0.04227,-0.04593,-0.03021,-0.00259,-0.00854,0.0177,0.31296,0.00061,-0.00702,-0.02335,0.00854,-0.04364
4.793,-0.02411,0.00198,-0.31067,-0.00458,-0.03616,-0.04868,-0.03281,-0.00076,-0.00641,0.04242,0.27527,0.00061,-0.01144,-0.02426,0.00885,-0.04242
4.7935,-0.0206,-0.02319,-0.31418,-0.00687,-0.03723,-0.04959,-0.03235,0.00092,-0.00641,0.06409,0.20767,0.00061,-0.01633,-0.02441,0.00824,-0.04135
4.794,-0.01648,-0.04135,-0.28519,-0.01022,-0.04242,-0.04868,-0.02869,0.00061,-0.00778,0.0676,0.13947,0.00168,-0.01938,-0.02533,0.00687,-0.04074
4.7945,-0.01114,-0.05234,-0.23483,-0.01266,-0.04425,-0.04715,-0.02411,-0.00153,-0.01114,0.04837,0.08652,0.00336,-0.01968,-0.02335,0.00549,-0.04135
4.795,-0.00473,-0.06042,-0.17197,-0.01343,-0.04028,-0.04623,-0.0206,-0.00427,-0.01389,0.01556,0.05127,0.00458,-0.01938,-0.01999,0.0061,-0.04257
4.7955,0.00122,-0.06744,-0.10895,-0.01205,-0.03571,-0.04684,-0.01724,-0.00488,-0.01678,-0.01343,0.02686,0.00381,-0.02213,-0.01816,0.00763,-0.04364
4.796,0.00565,-0.07416,-0.05463,-0.01053,-0.0325,-0.04898,-0.01419,-0.00381,-0.01678,-0.02945,0.00809,0.00336,-0.0322,-0.01907,0.00778,-0.04486
4.7965,0.00839,-0.07935,-0.01312,-0.01083,-0.02808,-0.05051,-0.01297,-0.00443,-0.01602,-0.03677,-0.0058,0.00336,-0.04456,-0.02258,0.00641,-0.04425
4.797,0.00885,-0.08347,0.01617,-0.01236,-0.02518,-0.05005,-0.01373,-0.00671,-0.01434,-0.04135,-0.01434,0.00473,-0.04852,-0.02441,0.00702,-0.04105
4.7975,0.00549,-0.08591,0.0296,-0.01282,-0.02548,-0.04974,-0.01602,-0.009,-0.01266,-0.0444,-0.01984,0.00519,-0.04044,-0.02472,0.00809,-0.03845
4.798,-0.00153,-0.08759,0.02716,-0.01129,-0.02899,-0.05035,-0.01831,-0.01175,-0.00946,-0.04242,-0.02838,0.00275,-0.02747,-0.02243,0.00839,-0.03769
4.7985,-0.00809,-0.0882,0.01099,-0.01007,-0.03296,-0.05096,-0.01816,-0.01328,-0.00687,-0.03403,-0.03738,0.00046,-0.02258,-0.01968,0.00732,-0.03922
4.799,-0.0119,-0.08759,-0.01053,-0.01007,-0.03494,-0.05112,-0.01556,-0.01328,-0.00549,-0.02319,-0.03815,0.00031,-0.02686,-0.01663,0.00717,-0.04196
4.7995,-0.0119,-0.08392,-0.03235,-0.01068,-0.03036,-0.05112,-0.01236,-0.01114,-0.00839,-0.01541,-0.02319,0.00305,-0.0325,-0.01419,0.00732,-0.04303
4.8,-0.00946,-0.07736,-0.05142,-0.01038,-0.0267,-0.05096,-0.00977,-0.00793,-0.01389,-0.01373,0.00198,0.00595,-0.0354,-0.01511,0.00885,-0.04379
4.8005,-0.00793,-0.07004,-0.06653,-0.01038,-0.02106,-0.05142,-0.00931,-0.0061,-0.01999,-0.01678,0.02258,0.00549,-0.03922,-0.0174,0.00824,-0.04303
4.801,-0.00854,-0.06302,-0.07477,-0.01129,-0.01373,-0.05081,-0.00839,-0.00427,-0.02213,-0.01846,0.03128,0.00488,-0.04852,-0.02045,0.00793,-0.04242
4.8015,-0.01144,-0.06454,-0.07462,-0.0119,-0.00504,-0.04868,-0.00595,0.00031,-0.0209,-0.01419,0.03098,0.00519,-0.06119,-0.02289,0.009,-0.04044
4.802,-0.01511,-0.08362,-0.07889,-0.01282,-0.00046,-0.04608,-0.00366,0.00549,-0.02014,-0.00534,0.0264,0.00763,-0.07172,-0.0235,0.00885,-0.03922
4.8025,-0.01938,-0.1236,-0.12573,-0.01404,-0.0029,-0.04395,-0.00473,0.00717,-0.0209,0.00198,0.01984,0.00961,-0.07431,-0.02411,0.00748,-0.03937
4.803,-0.01984,-0.16953,-0.23712,-0.01343,-0.01175,-0.04242,-0.00748,0.00504,-0.02167,0.00046,0.01236,0.00961,-0.06622,-0.02228,0.00687,-0.04074
4.8035,-0.01801,-0.1944,-0.33966,-0.01129,-0.01678,-0.04242,-0.00885,0.00214,-0.0206,-0.01862,0.00626,0.00763,-0.05035,-0.01953,0.00702,-0.03906
4.804,-0.01389,-0.18372,-0.30396,-0.01038,-0.009,-0.04272,-0.00916,0.00046,-0.01816,-0.05432,0.00336,0.00473,-0.03555,-0.01587,0.00824,-0.03555
4.8045,-0.0116,-0.14496,-0.09277,-0.00916,0.01129,-0.04303,-0.00916,0.00092,-0.0174,-0.09521,-0.00259,0.0032,-0.02914,-0.01373,0.0087,-0.03372
4.805,-0.0119,-0.09689,0.1796,-0.00854,0.02838,-0.04395,-0.009,0.00244,-0.01724,-0.12482,-0.02274,0.0029,-0.0296,-0.01373,0.009,-0.03464
4.8055,-0.01434,-0.05783,0.36957,-0.00916,0.03113,-0.04776,-0.00793,0.00305,-0.01648,-0.12894,-0.06149,0.0032,-0.03052,-0.01511,0.00885,-0.03723
4.806,-0.01541,-0.03265,0.42023,-0.01099,0.02335,-0.05173,-0.00671,0.00015,-0.01373,-0.10162,-0.10681,0.00259,-0.02823,-0.01556,0.00809,-0.03815
4.8065,-0.01266,-0.01419,0.36026,-0.0116,0.02151,-0.05356,-0.00504,-0.00519,-0.01068,-0.05508,-0.13535,0.00061,-0.0235,-0.0145,0.00793,-0.03723
4.807,-0.01022,0.00595,0.24734,-0.0119,0.03067,-0.05402,-0.00351,-0.00778,-0.00946,-0.01083,-0.13596,-0.00137,-0.01816,-0.01251,0.0087,-0.03769
4.8075,-0.00946,0.02716,0.12909,-0.01221,0.0325,-0.05402,-0.00229,-0.00381,-0.01022,0.01358,-0.11993,-0.00183,-0.01038,-0.0119,0.00961,-0.03906
4.808,-0.00992,0.04425,0.03372,-0.01312,0.00488,-0.05249,-0.00305,0.00275,-0.01221,0.01984,-0.10162,0.0,-0.0029,-0.01373,0.00961,-0.04089
4.8085,-0.00763,0.05905,-0.03326,-0.01312,-0.05112,-0.04883,-0.00656,0.00381,-0.01297,0.01694,-0.07919,0.00229,0.00046,-0.01633,0.00961,-0.03967
4.809,-0.00229,0.07599,-0.07919,-0.01358,-0.10559,-0.0441,-0.0116,-0.00183,-0.01251,0.01419,-0.04364,0.00412,0.00198,-0.0177,0.00992,-0.03769
4.8095,0.00305,0.09247,-0.10803,-0.01312,-0.13077,-0.03983,-0.01495,-0.01083,-0.01221,0.01099,0.00229,0.00641,0.0032,-0.01648,0.00931,-0.03677
4.81,0.00717,0.09872,-0.11703,-0.01251,-0.1236,-0.0383,-0.01434,-0.01404,-0.01328,0.00595,0.03967,0.00671,0.00183,-0.01358,0.00839,-0.03555
4.8105,0.00946,0.08713,-0.10986,-0.01038,-0.09628,-0.03967,-0.01175,-0.0087,-0.01205,-0.00046,0.05676,0.0061,-0.00305,-0.01083,0.009,-0.03525
4.811,0.01373,0.06607,-0.0943,-0.00748,-0.06241,-0.04395,-0.00824,0.00183,-0.00854,-0.00122,0.0589,0.00504,-0.00626,-0.00931,0.01068,-0.03601
4.8115,0.0177,0.04807,-0.08133,-0.00595,-0.03174,-0.04868,-0.00717,0.01038,-0.00351,0.00595,0.05264,0.00443,-0.00656,-0.00977,0.01083,-0.03799
4.812,0.0209,0.0386,-0.07309,-0.00748,-0.01129,-0.05142,-0.00778,0.0119,-0.00046,0.01862,0.03555,0.00259,-0.00763,-0.01144,0.01053,-0.0386
4.8125,0.0238,0.02991,-0.0679,-0.01053,-0.00427,-0.05219,-0.01175,0.0061,0.00015,0.0209,-0.00015,-0.00168,-0.01373,-0.01328,0.00885,-0.03769
4.813,0.02731,0.0145,-0.06058,-0.0116,-0.00809,-0.05005,-0.01465,-0.00092,0.00107,-0.00168,-0.04044,-0.0061,-0.02335,-0.01404,0.00778,-0.03754
4.8135,0.03082,-0.00351,-0.04791,-0.01068,-0.0177,-0.04578,-0.01648,-0.00336,0.00198,-0.0383,-0.06531,-0.00977,-0.03403,-0.01465,0.00778,-0.04074
4.814,0.03128,-0.01404,-0.03006,-0.00977,-0.03006,-0.04196,-0.01694,-0.00046,0.00183,-0.05951,-0.07019,-0.01312,-0.04395,-0.01648,0.00809,-0.04349
4.8145,0.02701,-0.0145,-0.00595,-0.01053,-0.04395,-0.04013,-0.0177,0.00504,-0.00061,-0.05234,-0.06714,-0.01617,-0.0528,-0.02045,0.00839,-0.04471
4.815,0.01984,-0.01221,0.01877,-0.01144,-0.05844,-0.03952,-0.01785,0.00977,-0.00534,-0.03342,-0.05966,-0.0177,-0.05692,-0.02258,0.00977,-0.04425
4.8155,0.01038,-0.01343,0.03952,-0.01114,-0.06973,-0.03922,-0.01862,0.009,-0.00977,-0.0235,-0.0412,-0.01709,-0.056,-0.02319,0.01022,-0.04486
4.816,0.00107,-0.01434,0.04944,-0.01114,-0.07629,-0.03891,-0.01877,0.0029,-0.01373,-0.02319,-0.00641,-0.01511,-0.05508,-0.02319,0.00961,-0.04532
4.8165,-0.00443,-0.01282,0.05081,-0.01205,-0.07828,-0.0386,-0.01923,-0.00641,-0.01831,-0.01694,0.03143,-0.01282,-0.06104,-0.02441,0.00778,-0.04486
4.817,-0.00916,-0.01221,0.0473,-0.01251,-0.07599,-0.03906,-0.01877,-0.01328,-0.02197,0.00092,0.05264,-0.01129,-0.07355,-0.02518,0.0061,-0.0441
4.8175,-0.01312,-0.01907,0.04364,-0.01144,-0.06561,-0.04105,-0.01907,-0.01541,-0.0264,0.0177,0.05142,-0.01099,-0.08102,-0.02533,0.0061,-0.04395
4.818,-0.01373,-0.03372,0.03693,-0.00946,-0.03998,-0.04486,-0.01892,-0.01465,-0.03189,0.02838,0.03479,-0.01144,-0.07614,-0.02319,0.00748,-0.0444
4.8185,-0.01175,-0.05005,0.02716,-0.009,-0.00061,-0.05035,-0.01877,-0.01434,-0.03738,0.03311,0.01099,-0.01236,-0.06256,-0.02243,0.00854,-0.04517
4.819,-0.01083,-0.06058,0.01114,-0.00961,0.03845,-0.05615,-0.0174,-0.01495,-0.03998,0.0322,-0.01434,-0.01251,-0.04639,-0.02304,0.00961,-0.04547
4.8195,-0.01129,-0.06195,-0.00702,-0.01038,0.06073,-0.05859,-0.0148,-0.01343,-0.03983,0.02258,-0.03876,-0.01144,-0.03021,-0.02533,0.00992,-0.04471
4.82,-0.01328,-0.05234,-0.02518,-0.009,0.06348,-0.05783,-0.01297,-0.00824,-0.03708,0.00732,-0.06378,-0.00992,-0.01434,-0.0267,0.01007,-0.04456
4.8205,-0.01389,-0.03693,-0.04486,-0.00793,0.05432,-0.056,-0.01297,-0.00214,-0.03494,-0.00595,-0.08926,-0.00946,-0.00229,-0.02609,0.01068,-0.04593
4.821,-0.01328,-0.02228,-0.06332,-0.00763,0.04684,-0.05325,-0.01434,0.00046,-0.03143,-0.01495,-0.11429,-0.00931,0.00412,-0.02502,0.01114,-0.04776
4.8215,-0.01053,-0.01724,-0.07736,-0.00809,0.04807,-0.05203,-0.0148,-0.00183,-0.02548,-0.02533,-0.13245,-0.009,0.00671,-0.02487,0.01144,-0.04578
4.822,-0.00595,-0.0264,-0.08453,-0.00946,0.04517,-0.05127,-0.01556,-0.00626,-0.01801,-0.0444,-0.13626,-0.00702,0.00565,-0.02731,0.01129,-0.04135
4.8225,-0.00015,-0.05173,-0.08652,-0.01083,0.00916,-0.05005,-0.0145,-0.00595,-0.01282,-0.06729,-0.11871,-0.00687,0.00092,-0.03067,0.01007,-0.0383
4.823,0.00275,-0.0853,-0.0882,-0.01114,-0.07446,-0.04868,-0.01236,-0.00183,-0.01205,-0.07858,-0.08224,-0.00626,-0.00641,-0.03265,0.00885,-0.03616
4.8235,0.00153,-0.11169,-0.09094,-0.01129,-0.16769,-0.04547,-0.01205,0.00076,-0.01373,-0.06516,-0.04089,-0.00488,-0.01602,-0.03342,0.00763,-0.03479
4.824,-0.00214,-0.11917,-0.09277,-0.01266,-0.20416,-0.04242,-0.01312,0.00046,-0.01587,-0.03479,-0.00687,-0.00305,-0.02884,-0.03342,0.00687,-0.03357
