time,RectFemL,VastusMedL,VastusLatL,TibAntL,HamMedL,HamLatL,GastroMedL,GastroLatL,RectFemR,VastusMedR,VastusLatR,TibAntR,HamMedR,HamLatR,GastroMedR,GastroLatR
10.31,-0.00336,-0.04059,-0.0322,-0.0119,-0.02304,-0.05066,-0.07843,-0.07507,-0.00381,-0.01556,0.15503,0.02838,-0.04578,-0.0441,0.01221,-0.02777
10.3105,-0.00244,-0.04227,-0.03357,-0.01312,-0.02167,-0.04974,-0.06912,-0.07446,-0.00122,-0.01541,0.14282,0.0264,-0.04715,-0.0412,0.0119,-0.02914
10.311,-0.0032,-0.04333,-0.03387,-0.01022,-0.02151,-0.04898,-0.0444,-0.05844,0.00092,-0.01389,0.15671,0.0209,-0.04929,-0.02563,0.01099,-0.03006
10.3115,-0.00427,-0.04379,-0.03281,-0.00748,-0.0238,-0.04852,-0.01236,-0.03036,0.00061,-0.0119,0.17044,0.009,-0.05112,-0.00275,0.00946,-0.03082
10.312,-0.00443,-0.04227,-0.03204,-0.00763,-0.02594,-0.04715,0.01236,-0.00595,-0.00061,-0.01007,0.16937,-0.00443,-0.05203,0.01251,0.01022,-0.02884
10.3125,-0.00229,-0.0412,-0.03204,-0.01068,-0.02625,-0.04623,0.02106,0.01526,-0.00214,-0.00992,0.15503,-0.01938,-0.05402,0.01343,0.0116,-0.03036
10.313,-0.00015,-0.04105,-0.03235,-0.01266,-0.0264,-0.04578,0.0174,0.04532,-0.00198,-0.01068,0.14282,-0.04257,-0.05585,0.00717,0.01205,-0.02884
10.3135,0.00015,-0.04196,-0.03159,-0.01389,-0.02762,-0.04684,0.00671,0.07477,-0.00397,-0.01068,0.15167,-0.07645,-0.05707,0.00137,0.01053,-0.02869
10.314,-0.00168,-0.04318,-0.03128,-0.01511,-0.02808,-0.04745,-0.00839,0.07614,-0.00839,-0.0119,0.18341,-0.11292,-0.05539,-0.00198,0.00839,-0.02991
10.3145,-0.00381,-0.04395,-0.03174,-0.01678,-0.02838,-0.04822,-0.02197,0.04898,-0.01312,-0.01312,0.22629,-0.13184,-0.05249,-0.0029,0.00854,-0.03113
10.315,-0.00488,-0.04288,-0.03174,-0.01617,-0.02869,-0.04807,-0.02686,0.01999,-0.01785,-0.01434,0.26688,-0.1181,-0.04852,-0.00015,0.0087,-0.03174
10.3155,-0.00473,-0.0415,-0.03159,-0.01541,-0.0296,-0.04852,-0.02182,0.00671,-0.02029,-0.01556,0.29617,-0.07767,-0.04608,0.00519,0.00961,-0.03159
10.316,-0.00488,-0.04059,-0.03128,-0.01328,-0.03036,-0.04913,-0.01434,0.00168,-0.01953,-0.01526,0.30579,-0.03448,-0.04456,0.0061,0.00992,-0.03174
10.3165,-0.00565,-0.04089,-0.03174,-0.01312,-0.0296,-0.04959,-0.01434,-0.00031,-0.01709,-0.01358,0.29007,-0.01541,-0.0444,-0.00626,0.00839,-0.03281
10.317,-0.00488,-0.04227,-0.03281,-0.01266,-0.02853,-0.04852,-0.02258,0.00305,-0.01617,-0.01083,0.25299,-0.02365,-0.04471,-0.03036,0.00656,-0.03403
10.3175,-0.00473,-0.04318,-0.03494,-0.01251,-0.02869,-0.04608,-0.03571,0.01129,-0.01724,-0.00534,0.2005,-0.03647,-0.04669,-0.05417,0.00504,-0.03906
10.318,-0.00565,-0.0441,-0.03662,-0.01266,-0.0293,-0.04517,-0.04883,0.01724,-0.0174,0.0061,0.15671,-0.03342,-0.04837,-0.06836,0.00412,-0.04013
10.3185,-0.00702,-0.04364,-0.03586,-0.01328,-0.02945,-0.04684,-0.05341,0.01663,-0.01663,0.03036,0.15076,-0.01831,-0.04883,-0.07355,0.00473,-0.0412
10.319,-0.00778,-0.04181,-0.0351,-0.0145,-0.02884,-0.04822,-0.04974,0.01434,-0.01419,0.06287,0.186,-0.00854,-0.04623,-0.07095,0.00626,-0.04044
10.3195,-0.00732,-0.04105,-0.03296,-0.01419,-0.02808,-0.04868,-0.05219,0.01572,-0.01251,0.07813,0.23468,-0.01022,-0.04211,-0.05585,0.00885,-0.04059
10.32,-0.00565,-0.03937,-0.03189,-0.01282,-0.02808,-0.04837,-0.08286,0.01953,-0.01312,0.05554,0.2623,-0.0116,-0.0386,-0.02884,0.009,-0.03784
10.3205,-0.00351,-0.03815,-0.03235,-0.01022,-0.02945,-0.04822,-0.13504,0.02014,-0.01587,0.00473,0.25284,-0.00336,-0.03647,-0.00275,0.00824,-0.0383
10.321,-0.00305,-0.03754,-0.0322,-0.0061,-0.02899,-0.04807,-0.17212,0.01389,-0.01923,-0.03983,0.21744,0.01068,-0.03586,0.01236,0.00778,-0.03693
10.3215,-0.00336,-0.0383,-0.03159,-0.0029,-0.03021,-0.04822,-0.16861,0.00473,-0.02106,-0.05859,0.18341,0.01999,-0.03464,0.00946,0.00763,-0.03738
10.322,-0.00305,-0.03952,-0.03113,-0.00336,-0.03311,-0.04654,-0.1268,-0.00504,-0.02335,-0.06104,0.16373,0.02197,-0.03281,-0.01724,0.00748,-0.03738
10.3225,-0.00366,-0.03876,-0.03143,-0.0058,-0.03647,-0.04517,-0.06683,-0.01511,-0.02838,-0.0592,0.15457,0.01938,-0.03174,-0.06104,0.00748,-0.03876
10.323,-0.00381,-0.03738,-0.03296,-0.00778,-0.03693,-0.04745,-0.00168,-0.02838,-0.03265,-0.05798,0.1474,0.01862,-0.03296,-0.08667,0.00687,-0.03922
10.3235,-0.00366,-0.03738,-0.03418,-0.00809,-0.03586,-0.04837,0.06256,-0.04211,-0.03372,-0.05524,0.13336,0.02579,-0.03464,-0.06622,0.00565,-0.03891
10.324,-0.00366,-0.04013,-0.03433,-0.00793,-0.03632,-0.04944,0.11932,-0.04807,-0.02899,-0.04944,0.10056,0.03937,-0.0354,-0.01602,0.00488,-0.03983
10.3245,-0.00473,-0.04181,-0.03464,-0.0087,-0.03723,-0.04852,0.15854,-0.0415,-0.02319,-0.04318,0.05402,0.04929,-0.03296,0.02136,0.00488,-0.03967
10.325,-0.00626,-0.0415,-0.03525,-0.00809,-0.03738,-0.04745,0.16983,-0.02655,-0.01907,-0.0383,0.02258,0.04883,-0.03036,0.02167,0.00427,-0.04044
10.3255,-0.0061,-0.04135,-0.03479,-0.00778,-0.03525,-0.0473,0.15259,-0.0148,-0.01709,-0.03494,0.01663,0.04654,-0.03021,0.00259,0.00565,-0.04013
10.326,-0.00534,-0.04211,-0.03265,-0.00656,-0.03265,-0.04761,0.11765,-0.01022,-0.01541,-0.03204,0.00778,0.04883,-0.03174,-0.01144,0.00626,-0.04059
10.3265,-0.00458,-0.04257,-0.03143,-0.00412,-0.03189,-0.04684,0.08011,-0.00885,-0.01266,-0.02777,-0.02792,0.04379,-0.03357,-0.01221,0.00595,-0.04166
10.327,-0.00412,-0.04181,-0.03143,-0.00381,-0.03265,-0.04593,0.04944,-0.00412,-0.00992,-0.02228,-0.07355,0.009,-0.03403,-0.01038,0.00534,-0.0412
10.3275,-0.00458,-0.04028,-0.03235,-0.0061,-0.03204,-0.04608,0.02396,-0.00336,-0.0087,-0.01694,-0.10422,-0.05539,-0.03525,-0.01221,0.00473,-0.04044
10.328,-0.00488,-0.03845,-0.03235,-0.01022,-0.0293,-0.0473,0.00153,-0.01434,-0.00824,-0.01556,-0.12115,-0.13275,-0.03616,-0.01404,0.00565,-0.03922
10.3285,-0.00397,-0.03769,-0.03159,-0.01282,-0.0296,-0.04822,-0.0116,-0.03159,-0.00778,-0.01587,-0.12527,-0.20706,-0.03723,-0.01312,0.00809,-0.03967
10.329,-0.00412,-0.03723,-0.03235,-0.01434,-0.0325,-0.04898,-0.01389,-0.04044,-0.00809,-0.01328,-0.10651,-0.26672,-0.03906,-0.01282,0.00885,-0.04044
10.3295,-0.00427,-0.03708,-0.03265,-0.01328,-0.03586,-0.04944,-0.01328,-0.0322,-0.01144,-0.00977,-0.06714,-0.28122,-0.04181,-0.01526,0.00854,-0.0412
10.33,-0.00366,-0.03906,-0.03235,-0.01068,-0.03616,-0.04898,-0.01801,-0.00443,-0.01526,-0.00702,-0.03311,-0.21332,-0.04318,-0.01785,0.00854,-0.04135
10.3305,-0.0029,-0.04028,-0.03067,-0.00854,-0.03342,-0.04822,-0.02304,0.04028,-0.01572,-0.00626,-0.02396,-0.065,-0.04288,-0.01648,0.0087,-0.03983
10.331,-0.00229,-0.04044,-0.03052,-0.00534,-0.03296,-0.04944,-0.02136,0.0885,-0.01022,-0.00702,-0.02548,0.09552,-0.04181,-0.01282,0.00824,-0.04272
10.3315,-0.00229,-0.04013,-0.03204,-0.00244,-0.03311,-0.04791,-0.01328,0.11322,-0.00259,-0.01007,-0.00885,0.18814,-0.04242,-0.00763,0.00641,-0.04562
10.332,-0.00366,-0.03967,-0.03342,-0.00061,-0.03479,-0.04654,-0.00702,0.09384,0.00275,-0.01297,0.02228,0.20081,-0.04349,0.00015,0.00565,-0.04745
10.3325,-0.00443,-0.03952,-0.03494,-0.0029,-0.03387,-0.04471,-0.00549,0.03647,0.00275,-0.01343,0.03494,0.18341,-0.04333,0.00946,0.00443,-0.04684
10.333,-0.00381,-0.03922,-0.03571,-0.00702,-0.03204,-0.04471,-0.00595,-0.02563,-0.00198,-0.0116,0.02197,0.17593,-0.04349,0.01511,0.00473,-0.04913
10.3335,-0.00412,-0.04028,-0.03677,-0.00931,-0.03021,-0.04395,-0.00595,-0.04776,-0.01007,-0.0119,0.01465,0.17181,-0.04471,0.01099,0.00412,-0.0499
10.334,-0.00565,-0.04089,-0.03738,-0.0087,-0.03036,-0.04547,-0.00534,-0.02335,-0.01816,-0.01434,0.02869,0.14633,-0.04532,-0.00092,0.00641,-0.05035
10.3345,-0.00671,-0.04089,-0.03693,-0.00839,-0.0325,-0.04608,-0.00336,0.01022,-0.0206,-0.01556,0.04913,0.0943,-0.04486,-0.01053,0.00763,-0.05035
10.335,-0.00763,-0.04074,-0.03525,-0.01083,-0.03418,-0.04639,-0.00412,0.01251,-0.0209,-0.0145,0.05981,0.03265,-0.04379,-0.01297,0.00778,-0.05081
10.3355,-0.00778,-0.04074,-0.03433,-0.01266,-0.03433,-0.04593,-0.00534,-0.01511,-0.02075,-0.01312,0.06256,-0.01282,-0.04303,-0.0119,0.00687,-0.05127
10.336,-0.00671,-0.04166,-0.03693,-0.0116,-0.03281,-0.04501,-0.00702,-0.04074,-0.01907,-0.01282,0.0618,-0.03845,-0.04272,-0.01114,0.00687,-0.05051
10.3365,-0.00656,-0.04181,-0.03815,-0.00839,-0.03113,-0.0444,-0.01053,-0.04501,-0.01419,-0.01389,0.05997,-0.06287,-0.04288,-0.01144,0.00717,-0.05081
10.337,-0.00626,-0.04089,-0.03815,-0.00671,-0.03143,-0.0444,-0.01343,-0.03983,-0.0058,-0.01526,0.05722,-0.10147,-0.0412,-0.01297,0.00793,-0.05112
10.3375,-0.00656,-0.04059,-0.03784,-0.00748,-0.03052,-0.04395,-0.01572,-0.0383,-0.00198,-0.01892,0.05341,-0.13794,-0.03922,-0.01328,0.00702,-0.04929
10.338,-0.00702,-0.04028,-0.03769,-0.00916,-0.02991,-0.0444,-0.01404,-0.03372,-0.00473,-0.02655,0.05173,-0.13458,-0.03815,-0.01236,0.00626,-0.04761
10.3385,-0.00656,-0.04044,-0.03738,-0.00992,-0.0293,-0.04425,-0.0116,-0.02106,-0.0119,-0.03632,0.05524,-0.08453,-0.03693,-0.01099,0.00656,-0.04898
10.339,-0.00504,-0.04089,-0.03677,-0.00885,-0.02869,-0.04639,-0.0116,-0.00885,-0.01785,-0.04501,0.06699,-0.0238,-0.03601,-0.01053,0.00839,-0.05264
10.3395,-0.00351,-0.0415,-0.03433,-0.00702,-0.02914,-0.04807,-0.01328,-0.01251,-0.02014,-0.04929,0.08255,0.01953,-0.03418,-0.01099,0.00931,-0.05356
10.34,-0.00259,-0.04044,-0.03342,-0.00656,-0.0293,-0.04761,-0.01373,-0.02411,-0.01846,-0.04883,0.09521,0.05188,-0.03189,-0.01236,0.01144,-0.05096
10.3405,-0.00275,-0.0386,-0.03403,-0.00778,-0.02899,-0.04623,-0.01297,-0.02441,-0.01617,-0.04166,0.10559,0.0914,-0.02991,-0.01282,0.01083,-0.04684
10.341,-0.00351,-0.03693,-0.03342,-0.01022,-0.02899,-0.04532,-0.01495,-0.01099,-0.01495,-0.02838,0.11749,0.14709,-0.0293,-0.01266,0.01007,-0.04807
10.3415,-0.00443,-0.03662,-0.03311,-0.0119,-0.02899,-0.0444,-0.02045,0.00015,-0.0148,-0.01373,0.12619,0.2182,-0.02869,-0.01312,0.009,-0.05386
10.342,-0.00519,-0.03723,-0.03326,-0.01221,-0.03082,-0.04288,-0.02686,0.00015,-0.01495,-0.00549,0.12405,0.29129,-0.02899,-0.01373,0.00885,-0.05798
10.3425,-0.00473,-0.03876,-0.03357,-0.01099,-0.03098,-0.04364,-0.03036,-0.00549,-0.01617,-0.00809,0.10696,0.32806,-0.02869,-0.01297,0.00687,-0.05692
10.343,-0.00412,-0.03967,-0.03342,-0.01129,-0.0293,-0.04364,-0.03128,-0.00961,-0.01511,-0.01556,0.07874,0.2916,-0.0267,-0.0116,0.00565,-0.05615
10.3435,-0.00336,-0.04028,-0.03296,-0.01251,-0.02655,-0.04425,-0.03052,-0.00931,-0.01114,-0.02258,0.05127,0.19409,-0.0238,-0.00946,0.00763,-0.05219
10.344,-0.00412,-0.04089,-0.03403,-0.01297,-0.02762,-0.04486,-0.03036,-0.00687,-0.0061,-0.02686,0.02502,0.08896,-0.0238,-0.00732,0.00931,-0.04898
10.3445,-0.00443,-0.04211,-0.03494,-0.01312,-0.02731,-0.0473,-0.03143,-0.00443,-0.00534,-0.03082,-0.00061,0.00366,-0.02533,-0.00458,0.01099,-0.04929
10.345,-0.00488,-0.04227,-0.03708,-0.01221,-0.02731,-0.04883,-0.03143,-0.00412,-0.00916,-0.03479,-0.03082,-0.07645,-0.02609,-0.0032,0.01129,-0.047
10.3455,-0.00549,-0.0415,-0.03601,-0.0119,-0.02884,-0.0499,-0.03159,-0.00946,-0.01282,-0.03754,-0.06241,-0.16525,-0.02701,-0.00504,0.01129,-0.04639
10.346,-0.00641,-0.0415,-0.0354,-0.01312,-0.0322,-0.04868,-0.03189,-0.01663,-0.01266,-0.04272,-0.09048,-0.24811,-0.02747,-0.00656,0.01038,-0.047
10.3465,-0.00549,-0.0412,-0.03464,-0.01282,-0.0325,-0.04669,-0.03052,-0.02243,-0.00916,-0.05203,-0.10757,-0.31021,-0.02686,-0.0061,0.00809,-0.04974
10.347,-0.0032,-0.0412,-0.03448,-0.01205,-0.03189,-0.04639,-0.02808,-0.02441,-0.0058,-0.05966,-0.11505,-0.3508,-0.02411,-0.00336,0.00702,-0.05188
10.3475,-0.0029,-0.04135,-0.03571,-0.01114,-0.02991,-0.04822,-0.02686,-0.02182,-0.00275,-0.05875,-0.11932,-0.36972,-0.0235,-0.00229,0.00717,-0.05234
10.348,-0.00458,-0.04181,-0.03662,-0.00854,-0.03159,-0.04929,-0.0264,-0.01556,-0.00412,-0.04959,-0.12451,-0.35248,-0.02411,-0.00443,0.00641,-0.05188
10.3485,-0.00687,-0.04272,-0.03799,-0.00793,-0.03281,-0.04883,-0.02579,-0.009,-0.00641,-0.03693,-0.12527,-0.28778,-0.02533,-0.00778,0.00641,-0.05127
10.349,-0.00809,-0.04349,-0.03723,-0.01007,-0.03494,-0.04593,-0.02548,-0.00488,-0.009,-0.02777,-0.12177,-0.18768,-0.02563,-0.01175,0.00595,-0.04822
10.3495,-0.00748,-0.04105,-0.03769,-0.01282,-0.03479,-0.04364,-0.02533,-0.00305,-0.00916,-0.01984,-0.121,-0.07034,-0.02579,-0.01434,0.00565,-0.04837
10.35,-0.00565,-0.03876,-0.03723,-0.01282,-0.03342,-0.0441,-0.02579,-0.00168,-0.00656,-0.01358,-0.12268,0.05188,-0.02625,-0.01556,0.00641,-0.04761
10.3505,-0.00504,-0.03738,-0.03754,-0.01099,-0.03265,-0.04379,-0.02594,-0.00046,-0.0029,-0.00916,-0.12695,0.15427,-0.02579,-0.0148,0.009,-0.04898
10.351,-0.00519,-0.0386,-0.0383,-0.01022,-0.03143,-0.04379,-0.02441,-0.00031,-0.00168,-0.00793,-0.13382,0.20401,-0.02594,-0.01312,0.00961,-0.04959
10.3515,-0.00504,-0.0386,-0.0386,-0.0119,-0.03006,-0.04379,-0.02258,-0.00198,-0.00458,-0.0061,-0.14175,0.1973,-0.02716,-0.01297,0.0087,-0.04913
10.352,-0.00443,-0.03815,-0.03845,-0.01404,-0.0293,-0.04333,-0.02228,-0.00366,-0.00931,-0.00336,-0.15137,0.16602,-0.02899,-0.01404,0.00854,-0.0473
10.3525,-0.00397,-0.03845,-0.03738,-0.0148,-0.02991,-0.04379,-0.02319,-0.00168,-0.01389,-0.00015,-0.16388,0.14114,-0.02975,-0.01694,0.00824,-0.04517
10.353,-0.00397,-0.03906,-0.03464,-0.01541,-0.02975,-0.0444,-0.02274,0.00183,-0.01678,0.00305,-0.18066,0.12772,-0.0293,-0.01923,0.00931,-0.04517
10.3535,-0.00504,-0.03922,-0.03281,-0.01465,-0.03006,-0.04532,-0.02075,0.00244,-0.01648,0.00214,-0.1976,0.11688,-0.0296,-0.01968,0.00961,-0.04623
10.354,-0.0058,-0.03952,-0.03494,-0.01373,-0.02838,-0.04776,-0.01907,0.00153,-0.0116,0.00076,-0.20966,0.103,-0.02975,-0.01724,0.009,-0.04776
10.3545,-0.00595,-0.04089,-0.03632,-0.01236,-0.02945,-0.04761,-0.02014,-0.00031,-0.00473,-0.00153,-0.21591,0.08057,-0.02991,-0.01572,0.00793,-0.04944
10.355,-0.00534,-0.04074,-0.03738,-0.0116,-0.02838,-0.04593,-0.02029,-0.00137,-0.00183,-0.00397,-0.21683,0.04959,-0.03098,-0.01709,0.00824,-0.05081
10.3555,-0.00504,-0.04013,-0.03601,-0.01083,-0.02899,-0.0444,-0.01953,-0.00137,-0.0058,-0.0058,-0.21103,0.02502,-0.03159,-0.02106,0.00961,-0.05112
10.356,-0.00458,-0.03998,-0.03479,-0.00931,-0.02869,-0.04333,-0.01801,0.0,-0.0119,-0.00244,-0.19455,0.02182,-0.0325,-0.02457,0.00961,-0.04974
10.3565,-0.00412,-0.04135,-0.03357,-0.00763,-0.03098,-0.04349,-0.0177,0.00092,-0.01297,0.00656,-0.16968,0.03036,-0.03281,-0.0264,0.00992,-0.04929
10.357,-0.00336,-0.04257,-0.03372,-0.00748,-0.03143,-0.04379,-0.01602,0.00214,-0.00916,0.0145,-0.14954,0.03021,-0.03265,-0.02441,0.009,-0.0502
10.3575,-0.0032,-0.04272,-0.03357,-0.00809,-0.0322,-0.04456,-0.01556,0.00259,-0.00626,0.01312,-0.14511,0.01404,-0.03235,-0.02197,0.00824,-0.05188
10.358,-0.00351,-0.04211,-0.03387,-0.00992,-0.03281,-0.04486,-0.01389,0.00397,-0.0087,0.00595,-0.15503,-0.00961,-0.0325,-0.02243,0.00702,-0.04929
10.3585,-0.00427,-0.04288,-0.03296,-0.01053,-0.03571,-0.04517,-0.01373,0.00534,-0.01434,-0.00122,-0.16785,-0.03677,-0.03311,-0.02441,0.00732,-0.04776
10.359,-0.00412,-0.04364,-0.0322,-0.00961,-0.03677,-0.0444,-0.0145,0.0058,-0.02014,-0.00656,-0.18036,-0.06866,-0.03357,-0.02457,0.00824,-0.0499
10.3595,-0.00305,-0.04395,-0.03113,-0.009,-0.03601,-0.04349,-0.01434,0.00473,-0.02411,-0.01129,-0.19485,-0.1033,-0.03342,-0.02365,0.00946,-0.05096
10.36,-0.00168,-0.04211,-0.03052,-0.00839,-0.03479,-0.04211,-0.01328,0.00229,-0.02609,-0.01419,-0.20676,-0.12894,-0.03311,-0.02213,0.01068,-0.05081
10.3605,-0.00183,-0.0412,-0.0296,-0.00854,-0.03479,-0.04196,-0.01236,-0.00015,-0.02869,-0.01526,-0.20477,-0.13138,-0.03189,-0.02106,0.01129,-0.04837
10.361,-0.00336,-0.04166,-0.03098,-0.00961,-0.0325,-0.04288,-0.01068,-0.00183,-0.03036,-0.01465,-0.19135,-0.10834,-0.0293,-0.02136,0.01282,-0.04623
10.3615,-0.00488,-0.04196,-0.03082,-0.00946,-0.03098,-0.04303,-0.01114,-0.00076,-0.03113,-0.01541,-0.17624,-0.07797,-0.02747,-0.02136,0.01373,-0.04684
10.362,-0.00443,-0.04257,-0.03036,-0.00839,-0.0293,-0.04333,-0.01282,0.00107,-0.03342,-0.02029,-0.16403,-0.06638,-0.02747,-0.02274,0.01373,-0.04684
10.3625,-0.00351,-0.04272,-0.03113,-0.00793,-0.02792,-0.04501,-0.01389,0.00275,-0.03769,-0.02518,-0.15366,-0.07904,-0.02884,-0.0235,0.01236,-0.04639
10.363,-0.00458,-0.04257,-0.0325,-0.00931,-0.02777,-0.04898,-0.01282,0.00397,-0.04135,-0.02884,-0.14496,-0.08667,-0.0293,-0.02304,0.01007,-0.04471
10.3635,-0.00687,-0.0415,-0.03464,-0.01114,-0.02716,-0.05539,-0.01175,0.00366,-0.04135,-0.02914,-0.13763,-0.0415,-0.03067,-0.01923,0.00809,-0.04349
10.364,-0.00763,-0.04074,-0.03403,-0.01266,-0.02792,-0.05783,-0.01221,0.00336,-0.0386,-0.02548,-0.13474,0.06729,-0.03326,-0.01556,0.00748,-0.04242
10.3645,-0.00534,-0.04105,-0.03418,-0.01282,-0.02991,-0.05478,-0.01373,0.0032,-0.03616,-0.01892,-0.14099,0.17929,-0.03555,-0.01434,0.00824,-0.04166
10.365,-0.0032,-0.04074,-0.03586,-0.01205,-0.03281,-0.0499,-0.01419,0.00183,-0.0354,-0.01572,-0.15472,0.21637,-0.03662,-0.01953,0.00763,-0.04242
10.3655,-0.0032,-0.04028,-0.03876,-0.01114,-0.03418,-0.0502,-0.0145,0.00076,-0.03632,-0.01892,-0.16617,0.16983,-0.03387,-0.02716,0.00671,-0.04456
10.366,-0.00443,-0.03967,-0.03998,-0.01007,-0.03357,-0.04944,-0.01556,0.0,-0.03754,-0.02502,-0.16876,0.103,-0.03113,-0.03098,0.00595,-0.04593
10.3665,-0.00534,-0.03952,-0.03952,-0.009,-0.03189,-0.04959,-0.01511,-0.00061,-0.03769,-0.02884,-0.15976,0.06714,-0.03082,-0.02975,0.00519,-0.04684
10.367,-0.00549,-0.04105,-0.03876,-0.00961,-0.03189,-0.04868,-0.01511,-0.00198,-0.03632,-0.02777,-0.14069,0.05173,-0.03098,-0.02655,0.00549,-0.04684
10.3675,-0.00473,-0.04196,-0.03769,-0.00946,-0.0325,-0.04868,-0.01678,-0.00244,-0.03342,-0.02563,-0.12161,0.03113,-0.02975,-0.02426,0.00519,-0.047
10.368,-0.00443,-0.0441,-0.03708,-0.01053,-0.03326,-0.05035,-0.01724,-0.00183,-0.02884,-0.02502,-0.11734,0.02029,-0.02609,-0.02289,0.0061,-0.04669
10.3685,-0.00519,-0.04379,-0.03677,-0.01099,-0.03296,-0.05066,-0.01633,-0.00168,-0.02335,-0.02853,-0.12924,0.04684,-0.02335,-0.02167,0.00671,-0.04608
10.369,-0.00565,-0.04333,-0.03616,-0.01129,-0.03204,-0.0502,-0.0145,-0.00153,-0.0177,-0.03265,-0.14313,0.08102,-0.02289,-0.01984,0.00626,-0.04532
10.3695,-0.00534,-0.04135,-0.03418,-0.0116,-0.03082,-0.04944,-0.01434,-0.00122,-0.01282,-0.02853,-0.14648,0.05341,-0.02441,-0.01892,0.00641,-0.04532
10.37,-0.00381,-0.03967,-0.03464,-0.01053,-0.03006,-0.05219,-0.01495,0.0,-0.00717,-0.01526,-0.14145,-0.04715,-0.0238,-0.01801,0.0058,-0.04303
10.3705,-0.00305,-0.04013,-0.03448,-0.00946,-0.02838,-0.05386,-0.01556,0.00198,-0.00015,-0.00229,-0.13901,-0.15259,-0.02243,-0.01694,0.00824,-0.04013
10.371,-0.00397,-0.04196,-0.03464,-0.00854,-0.02655,-0.0528,-0.01556,0.0029,0.00412,0.00488,-0.14206,-0.20676,-0.02151,-0.01633,0.0116,-0.03754
10.3715,-0.00458,-0.04196,-0.03403,-0.00763,-0.02625,-0.05295,-0.01648,0.00168,0.00381,0.00336,-0.14664,-0.22552,-0.02151,-0.01617,0.01526,-0.03586
10.372,-0.00549,-0.04257,-0.03342,-0.00748,-0.02838,-0.04959,-0.01602,-0.00137,0.00015,-0.00061,-0.14175,-0.24551,-0.02167,-0.01633,0.01221,-0.03494
10.3725,-0.00519,-0.04257,-0.03403,-0.00702,-0.03006,-0.04868,-0.01297,-0.00366,-0.00275,-0.00198,-0.12222,-0.26306,-0.02243,-0.01648,0.01266,-0.03525
10.373,-0.00458,-0.04257,-0.03494,-0.00732,-0.03067,-0.04807,-0.00839,-0.00336,-0.00427,-0.00107,-0.09369,-0.24048,-0.02319,-0.01526,0.01083,-0.0354
10.3735,-0.00336,-0.04379,-0.0351,-0.00793,-0.03006,-0.04715,-0.00549,-0.00122,-0.00504,0.00122,-0.06805,-0.15259,-0.02396,-0.01678,0.01068,-0.03494
10.374,-0.00366,-0.04349,-0.03433,-0.00839,-0.03067,-0.04654,-0.00534,-0.00031,-0.00549,0.00214,-0.05081,-0.03021,-0.02411,-0.01938,0.00931,-0.03601
10.3745,-0.00397,-0.04196,-0.03387,-0.0087,-0.03113,-0.04623,-0.00626,0.00046,-0.00565,-0.00137,-0.04898,0.04074,-0.02457,-0.02167,0.00732,-0.04105
10.375,-0.00412,-0.04013,-0.03494,-0.00839,-0.03174,-0.04684,-0.00641,0.00076,-0.00641,-0.00839,-0.06104,-0.00732,-0.02502,-0.02289,0.00549,-0.04547
10.3755,-0.00305,-0.03952,-0.0354,-0.00778,-0.03113,-0.04868,-0.00717,0.00046,-0.00824,-0.01724,-0.07614,-0.15472,-0.02609,-0.02365,0.00626,-0.04425
10.376,-0.00366,-0.04044,-0.03479,-0.00778,-0.03052,-0.04913,-0.00946,0.00031,-0.00839,-0.0235,-0.08835,-0.3038,-0.0264,-0.02472,0.00839,-0.04242
10.3765,-0.00473,-0.04242,-0.03403,-0.00885,-0.03036,-0.04822,-0.01221,-0.00015,-0.00671,-0.02884,-0.09598,-0.36621,-0.0264,-0.02457,0.01083,-0.03876
10.377,-0.00549,-0.04242,-0.03448,-0.01007,-0.03021,-0.04776,-0.0119,-0.00122,-0.00443,-0.03342,-0.09918,-0.32654,-0.02701,-0.02396,0.01175,-0.03677
10.3775,-0.0058,-0.04272,-0.03555,-0.00961,-0.03174,-0.04868,-0.01053,-0.00259,-0.00519,-0.03967,-0.10132,-0.22568,-0.0267,-0.0235,0.01282,-0.03662
10.378,-0.00534,-0.04364,-0.03616,-0.00931,-0.03448,-0.0502,-0.01038,-0.00183,-0.00992,-0.0444,-0.11032,-0.09735,-0.02701,-0.0238,0.00977,-0.03784
10.3785,-0.00488,-0.04562,-0.03708,-0.00961,-0.03723,-0.05035,-0.01175,0.00076,-0.01648,-0.04578,-0.12863,0.05432,-0.02838,-0.0238,0.00519,-0.04105
10.379,-0.00397,-0.04608,-0.03693,-0.01053,-0.03799,-0.04959,-0.01266,0.00336,-0.01846,-0.04578,-0.1503,0.21271,-0.03006,-0.02563,0.00366,-0.04456
10.3795,-0.0029,-0.04425,-0.03815,-0.00946,-0.03662,-0.04623,-0.01099,0.00275,-0.01495,-0.0444,-0.16434,0.31982,-0.03036,-0.02609,0.0032,-0.04608
10.38,-0.00198,-0.04227,-0.03662,-0.00793,-0.03418,-0.04547,-0.00809,0.00076,-0.00732,-0.03784,-0.16495,0.33493,-0.03021,-0.02533,0.00504,-0.04486
10.3805,-0.00153,-0.0412,-0.0351,-0.00763,-0.03372,-0.04562,-0.00671,-0.00107,-0.00259,-0.01862,-0.15778,0.27908,-0.02884,-0.0238,0.00702,-0.04166
10.381,-0.00214,-0.03998,-0.03418,-0.00854,-0.03357,-0.047,-0.00793,-0.00198,0.00168,0.01907,-0.15076,0.21835,-0.02716,-0.02335,0.00946,-0.03876
10.3815,-0.00214,-0.03967,-0.03342,-0.01007,-0.03342,-0.04745,-0.00778,-0.00443,0.00778,0.05539,-0.14374,0.1976,-0.02731,-0.02243,0.00961,-0.03662
10.382,-0.00107,-0.03952,-0.03387,-0.01282,-0.03281,-0.04623,-0.00702,-0.01022,0.01328,0.06302,-0.12924,0.21255,-0.02884,-0.01862,0.00931,-0.03845
10.3825,-0.00046,-0.03998,-0.03403,-0.0145,-0.03174,-0.04745,-0.00549,-0.01434,0.01373,0.03204,-0.09964,0.23071,-0.0296,-0.01572,0.00702,-0.04166
10.383,-0.00122,-0.03922,-0.03342,-0.01434,-0.03204,-0.04868,-0.00427,-0.01068,0.01068,-0.01389,-0.05966,0.22125,-0.02899,-0.01389,0.00595,-0.04349
10.3835,-0.00229,-0.03891,-0.03403,-0.01312,-0.03189,-0.04868,-0.00336,0.00092,0.009,-0.04242,-0.02625,0.17776,-0.02945,-0.0145,0.00687,-0.04257
10.384,-0.00259,-0.03952,-0.0354,-0.01251,-0.03098,-0.04974,-0.00336,0.01236,0.00885,-0.04639,-0.01251,0.12039,-0.03128,-0.01511,0.00809,-0.0415
10.3845,-0.00259,-0.03998,-0.03433,-0.01251,-0.02945,-0.04959,-0.00443,0.01785,0.00793,-0.04166,-0.01541,0.08377,-0.03433,-0.01526,0.00671,-0.04059
10.385,-0.00351,-0.04181,-0.03235,-0.01129,-0.02823,-0.04898,-0.00778,0.01694,0.00473,-0.04028,-0.01892,0.08377,-0.03616,-0.0148,0.00626,-0.03952
10.3855,-0.00488,-0.04242,-0.03128,-0.00885,-0.02716,-0.04822,-0.01282,0.01083,0.00015,-0.0412,-0.01053,0.09979,-0.03632,-0.01617,0.00702,-0.04044
10.386,-0.00488,-0.04166,-0.03403,-0.00671,-0.02686,-0.04868,-0.01755,0.00092,-0.00595,-0.04196,0.00717,0.10284,-0.03616,-0.01953,0.00763,-0.04028
10.3865,-0.00397,-0.04059,-0.03479,-0.00519,-0.02609,-0.04898,-0.01953,-0.01068,-0.01343,-0.04303,0.01923,0.0885,-0.03586,-0.02304,0.009,-0.04181
10.387,-0.00259,-0.03937,-0.03357,-0.0058,-0.02609,-0.04761,-0.02106,-0.01968,-0.02151,-0.04395,0.01816,0.06638,-0.03555,-0.0238,0.00916,-0.04349
10.3875,-0.00214,-0.03967,-0.03342,-0.00717,-0.02655,-0.04791,-0.02335,-0.02396,-0.02457,-0.04471,0.01022,0.0473,-0.03403,-0.02213,0.00885,-0.04364
10.388,-0.0032,-0.04089,-0.03448,-0.00854,-0.02823,-0.04654,-0.02396,-0.02625,-0.02075,-0.04379,0.00153,0.03494,-0.03189,-0.01862,0.00916,-0.04456
10.3885,-0.00336,-0.04074,-0.03464,-0.01068,-0.03143,-0.04562,-0.02258,-0.03052,-0.01419,-0.04105,-0.00397,0.02792,-0.02975,-0.01648,0.00824,-0.04623
10.389,-0.0029,-0.0412,-0.03326,-0.01175,-0.0322,-0.04456,-0.01999,-0.03464,-0.00931,-0.03693,-0.00595,0.02075,-0.02884,-0.01663,0.00778,-0.04822
10.3895,-0.00244,-0.0412,-0.03235,-0.01144,-0.03113,-0.0444,-0.01663,-0.03387,-0.00656,-0.03067,-0.00275,0.0148,-0.02884,-0.01678,0.00778,-0.04868
10.39,-0.00198,-0.04028,-0.0325,-0.00992,-0.03006,-0.04471,-0.01266,-0.0267,-0.00351,-0.01999,-0.00214,0.01541,-0.02777,-0.01617,0.00763,-0.04822
10.3905,-0.00214,-0.03891,-0.03235,-0.00839,-0.03082,-0.04547,-0.00793,-0.01572,-0.00229,-0.0061,-0.0087,0.02396,-0.02731,-0.01526,0.00961,-0.05005
10.391,-0.00214,-0.03937,-0.03296,-0.00732,-0.03281,-0.04517,-0.00534,-0.0061,-0.00458,0.00443,-0.02228,0.03357,-0.0267,-0.0148,0.01038,-0.05264
10.3915,-0.00229,-0.03891,-0.03326,-0.00839,-0.03418,-0.04486,-0.00656,0.00183,-0.00717,0.01068,-0.03525,0.03433,-0.02655,-0.01373,0.00961,-0.05447
10.392,-0.00168,-0.03906,-0.0354,-0.01007,-0.03464,-0.0444,-0.01022,0.00824,-0.00702,0.01312,-0.03891,0.02213,-0.02747,-0.01266,0.00931,-0.05188
10.3925,-0.00137,-0.03815,-0.03601,-0.01022,-0.03372,-0.04456,-0.01328,0.0119,-0.00504,0.0119,-0.03159,-0.00061,-0.02701,-0.01221,0.00961,-0.04959
10.393,-0.00183,-0.03738,-0.03479,-0.00946,-0.03448,-0.04395,-0.01358,0.01282,-0.00473,0.01007,-0.01602,-0.02625,-0.02838,-0.01343,0.01022,-0.05066
10.3935,-0.00275,-0.03708,-0.03311,-0.00854,-0.03525,-0.04486,-0.01297,0.01099,-0.00931,0.00793,0.01373,-0.04593,-0.03082,-0.0148,0.00946,-0.05112
10.394,-0.00381,-0.03723,-0.03372,-0.00748,-0.03616,-0.04715,-0.01312,0.00885,-0.01556,0.00656,0.06027,-0.05478,-0.03265,-0.01678,0.00778,-0.04929
10.3945,-0.00397,-0.03845,-0.03586,-0.00763,-0.03525,-0.04822,-0.01434,0.00763,-0.02014,0.00778,0.11826,-0.05722,-0.03311,-0.01755,0.00778,-0.04791
10.395,-0.00351,-0.04059,-0.03616,-0.00809,-0.03448,-0.04822,-0.01602,0.0087,-0.02167,0.00977,0.16586,-0.06195,-0.03311,-0.01785,0.00778,-0.04837
10.3955,-0.00198,-0.04257,-0.03586,-0.00961,-0.03479,-0.04776,-0.01694,0.01022,-0.02167,0.01221,0.18433,-0.07599,-0.03448,-0.01678,0.00702,-0.05112
10.396,-0.00229,-0.04288,-0.03601,-0.01007,-0.03448,-0.04745,-0.01617,0.01114,-0.02258,0.01251,0.16968,-0.09491,-0.03586,-0.01587,0.00488,-0.05112
10.3965,-0.00198,-0.04196,-0.0351,-0.00931,-0.03311,-0.04807,-0.01587,0.00931,-0.02472,0.00824,0.1384,-0.11124,-0.03632,-0.01495,0.00534,-0.04913
10.397,-0.00229,-0.04044,-0.03326,-0.00885,-0.03143,-0.04868,-0.01511,0.00443,-0.02991,-0.00214,0.11993,-0.12085,-0.0354,-0.01572,0.0058,-0.04562
10.3975,-0.00351,-0.04074,-0.03204,-0.00824,-0.02945,-0.04974,-0.0148,-0.00046,-0.04044,-0.01526,0.12024,-0.11414,-0.03525,-0.01633,0.00656,-0.04456
10.398,-0.00443,-0.0412,-0.02991,-0.00824,-0.02899,-0.05051,-0.01297,-0.00275,-0.05417,-0.02899,0.11948,-0.0853,-0.0354,-0.01801,0.00626,-0.04715
10.3985,-0.00412,-0.04028,-0.03113,-0.00839,-0.03021,-0.05096,-0.01083,-0.00214,-0.06485,-0.03998,0.10056,-0.03479,-0.03571,-0.02014,0.0058,-0.04898
10.399,-0.00412,-0.0386,-0.03235,-0.00809,-0.0325,-0.05112,-0.00931,-0.00046,-0.06653,-0.04944,0.07645,0.02304,-0.03326,-0.02182,0.00397,-0.04883
10.3995,-0.00351,-0.03845,-0.03326,-0.00778,-0.03281,-0.04929,-0.00839,0.00015,-0.05905,-0.05554,0.0679,0.06897,-0.03067,-0.01999,0.00473,-0.04517
10.4,-0.00305,-0.0386,-0.03525,-0.00778,-0.0322,-0.04684,-0.00717,-0.00076,-0.04868,-0.05707,0.07111,0.08484,-0.02899,-0.01602,0.00763,-0.04089
10.4005,-0.00305,-0.03922,-0.03571,-0.00931,-0.03143,-0.04623,-0.00595,-0.00305,-0.04135,-0.056,0.07004,0.06424,-0.02777,-0.01343,0.01007,-0.03967
10.401,-0.00275,-0.03967,-0.03571,-0.01053,-0.03235,-0.04684,-0.00824,-0.00534,-0.03891,-0.05508,0.06287,0.01785,-0.02701,-0.01358,0.00916,-0.03967
10.4015,-0.00244,-0.03983,-0.0354,-0.01114,-0.03143,-0.04807,-0.01099,-0.00671,-0.03998,-0.05432,0.05875,-0.03281,-0.02731,-0.01526,0.00717,-0.03876
10.402,-0.00397,-0.04044,-0.03677,-0.01129,-0.03021,-0.0473,-0.01312,-0.00717,-0.04181,-0.05188,0.06378,-0.07416,-0.02823,-0.01633,0.00687,-0.03601
10.4025,-0.00519,-0.04013,-0.03799,-0.01129,-0.03021,-0.04715,-0.01144,-0.00565,-0.03891,-0.04715,0.06577,-0.10147,-0.02884,-0.01526,0.00946,-0.03586
10.403,-0.00641,-0.03952,-0.04059,-0.01251,-0.0293,-0.04669,-0.00992,-0.00427,-0.03159,-0.04013,0.03418,-0.11978,-0.02762,-0.01404,0.01068,-0.03479
10.4035,-0.00519,-0.03799,-0.03418,-0.01404,-0.0296,-0.04608,-0.01038,-0.00336,-0.02426,-0.03326,-0.03418,-0.13016,-0.02655,-0.01358,0.00854,-0.03235
10.404,-0.00381,-0.03784,-0.03418,-0.0148,-0.02899,-0.04532,-0.0116,-0.00366,-0.02258,-0.02518,-0.09964,-0.13,-0.02487,-0.01419,0.00504,-0.03143
10.4045,-0.00473,-0.03891,-0.03036,-0.01556,-0.02853,-0.04364,-0.01129,-0.00366,-0.0235,-0.02029,-0.14084,-0.1178,-0.02487,-0.0148,0.0029,-0.02869
10.405,-0.00687,-0.04013,-0.03159,-0.01434,-0.02731,-0.04349,-0.00977,-0.00473,-0.02258,-0.01694,-0.18997,-0.09155,-0.02609,-0.01572,0.00336,-0.02823
10.4055,-0.00763,-0.04059,-0.03387,-0.01358,-0.02747,-0.04303,-0.00885,-0.0058,-0.02136,-0.01511,-0.28687,-0.05157,-0.0293,-0.01572,0.00351,-0.02777
10.406,-0.00595,-0.03998,-0.03616,-0.01221,-0.02808,-0.04242,-0.00931,-0.00549,-0.02243,-0.0145,-0.43243,-0.00397,-0.03174,-0.01541,0.00473,-0.02777
10.4065,-0.00519,-0.03967,-0.03738,-0.01114,-0.02853,-0.04227,-0.01083,-0.0061,-0.02625,-0.01877,-0.60547,0.03433,-0.03143,-0.01663,0.00626,-0.02762
10.407,-0.00626,-0.03983,-0.03738,-0.01129,-0.03128,-0.04272,-0.01373,-0.00748,-0.02869,-0.02274,-0.79147,0.04883,-0.03098,-0.01816,0.00443,-0.02869
10.4075,-0.00671,-0.04089,-0.03708,-0.01129,-0.02823,-0.0441,-0.01602,-0.00854,-0.02777,-0.0264,-0.97824,0.04303,-0.03143,-0.01984,0.00488,-0.0322
10.408,-0.00595,-0.04181,-0.03555,-0.01068,-0.0296,-0.04517,-0.01648,-0.00839,-0.02579,-0.02777,-1.14517,0.03448,-0.03189,-0.02121,0.00458,-0.0354
10.4085,-0.00534,-0.04272,-0.0351,-0.009,-0.03036,-0.04608,-0.01663,-0.00504,-0.0235,-0.02792,-1.27411,0.03433,-0.03311,-0.02258,0.00381,-0.03555
10.409,-0.0061,-0.04318,-0.03601,-0.00717,-0.03235,-0.04608,-0.0148,0.0,-0.02151,-0.02563,-1.36963,0.03647,-0.03342,-0.02441,0.00397,-0.03342
10.4095,-0.00534,-0.04288,-0.03937,-0.00549,-0.03326,-0.04547,-0.01221,0.00595,-0.02045,-0.02319,-1.46317,0.03067,-0.03372,-0.02548,0.00412,-0.03098
10.41,-0.00458,-0.04257,-0.03662,-0.00458,-0.03448,-0.04654,-0.01068,0.00946,-0.01968,-0.02045,-1.57822,0.01587,-0.03342,-0.02457,0.00534,-0.03189
10.4105,-0.00366,-0.04211,-0.03464,-0.0061,-0.0351,-0.04898,-0.01373,0.00977,-0.02045,-0.01984,-1.69357,0.00183,-0.0322,-0.02304,0.00748,-0.03403
10.411,-0.00458,-0.04105,-0.03418,-0.00885,-0.03387,-0.05066,-0.01831,0.00854,-0.02167,-0.02228,-1.75766,-0.00626,-0.03174,-0.02121,0.00687,-0.0351
10.4115,-0.00565,-0.03967,-0.03586,-0.00946,-0.03067,-0.05234,-0.02121,0.00549,-0.02411,-0.02472,-1.76071,-0.01114,-0.03326,-0.02029,0.0058,-0.03464
10.412,-0.00702,-0.03952,-0.03632,-0.00885,-0.02991,-0.05188,-0.02014,0.00015,-0.02701,-0.02594,-1.76147,-0.01724,-0.03433,-0.02136,0.00549,-0.03418
10.4125,-0.00717,-0.03922,-0.03738,-0.00885,-0.03098,-0.05035,-0.01755,-0.00763,-0.02792,-0.02777,-1.80862,-0.02441,-0.03479,-0.02426,0.00534,-0.03433
10.413,-0.00641,-0.03967,-0.03616,-0.00854,-0.03189,-0.04791,-0.01617,-0.01602,-0.02716,-0.02884,-1.88019,-0.03006,-0.03479,-0.02533,0.00534,-0.03448
10.4135,-0.00549,-0.04059,-0.03464,-0.00916,-0.03189,-0.04532,-0.01724,-0.01877,-0.02655,-0.02731,-1.90598,-0.03357,-0.03479,-0.02472,0.00641,-0.03586
10.414,-0.00519,-0.04105,-0.03311,-0.00778,-0.03006,-0.04608,-0.01892,-0.01526,-0.02609,-0.02426,-1.83319,-0.03525,-0.03571,-0.02502,0.00641,-0.03677
10.4145,-0.00641,-0.04059,-0.03235,-0.00748,-0.03052,-0.04822,-0.02197,-0.01129,-0.02609,-0.02151,-1.66687,-0.03784,-0.03632,-0.02609,0.00488,-0.0386
10.415,-0.0058,-0.03983,-0.03235,-0.00778,-0.03296,-0.04959,-0.02487,-0.01236,-0.02792,-0.0209,-1.48087,-0.03937,-0.03586,-0.02701,0.00565,-0.03998
10.4155,-0.00534,-0.03937,-0.03418,-0.00946,-0.03494,-0.04898,-0.02731,-0.01633,-0.03326,-0.02045,-1.35757,-0.03525,-0.03479,-0.02701,0.00565,-0.04074
10.416,-0.00351,-0.03952,-0.03525,-0.01053,-0.03418,-0.0499,-0.02838,-0.0177,-0.04181,-0.02075,-1.2886,-0.02533,-0.03418,-0.02579,0.00702,-0.0415
10.4165,-0.00336,-0.04089,-0.03418,-0.00977,-0.0322,-0.04898,-0.02823,-0.01572,-0.04639,-0.02075,-1.18027,-0.01312,-0.03448,-0.02411,0.00778,-0.04105
10.417,-0.00443,-0.04074,-0.03525,-0.00778,-0.03204,-0.04883,-0.02914,-0.01175,-0.0444,-0.0209,-0.98328,-0.00671,-0.03586,-0.02289,0.00854,-0.04105
10.4175,-0.0061,-0.03952,-0.03479,-0.00778,-0.0325,-0.04715,-0.02869,-0.00854,-0.03693,-0.02472,-0.78201,-0.01068,-0.03616,-0.02487,0.00793,-0.04105
10.418,-0.00778,-0.03891,-0.03296,-0.00824,-0.0322,-0.04608,-0.02792,-0.00732,-0.03036,-0.03159,-0.70999,-0.02213,-0.03677,-0.02838,0.00977,-0.0412
10.4185,-0.00839,-0.03952,-0.0322,-0.00992,-0.03296,-0.04532,-0.02884,-0.00671,-0.02914,-0.03281,-0.79315,-0.02594,-0.03738,-0.03082,0.00824,-0.04181
10.419,-0.00854,-0.04074,-0.03143,-0.01083,-0.03036,-0.04654,-0.0322,-0.00793,-0.03036,-0.02167,-0.88364,-0.0119,-0.03769,-0.02991,0.00839,-0.04379
10.4195,-0.00778,-0.04196,-0.03235,-0.01053,-0.03128,-0.04822,-0.03342,-0.00946,-0.03052,-0.00229,-0.79529,0.0145,-0.03769,-0.02533,0.0087,-0.04654
10.42,-0.00687,-0.04242,-0.0322,-0.00931,-0.03021,-0.04791,-0.03036,-0.01022,-0.02716,0.01556,-0.50018,0.03326,-0.03693,-0.02075,0.00839,-0.04898
10.4205,-0.00626,-0.04227,-0.0322,-0.00854,-0.0293,-0.04684,-0.02457,-0.01068,-0.02243,0.02716,-0.13702,0.03403,-0.03708,-0.02014,0.00839,-0.05066
10.421,-0.00473,-0.04318,-0.03372,-0.00885,-0.03021,-0.04715,-0.02121,-0.01022,-0.0209,0.03326,0.16846,0.02335,-0.03738,-0.0235,0.00839,-0.05157
10.4215,-0.00488,-0.0441,-0.03311,-0.00717,-0.03082,-0.04715,-0.01999,-0.00702,-0.02228,0.03296,0.41122,0.00931,-0.03693,-0.02655,0.00809,-0.0531
10.422,-0.00519,-0.0444,-0.03036,-0.00488,-0.03189,-0.04593,-0.01984,-0.00412,-0.0238,0.02701,0.6424,-0.00427,-0.03723,-0.02655,0.00656,-0.05356
10.4225,-0.00519,-0.04257,-0.02777,-0.00229,-0.03098,-0.04669,-0.01816,-0.00259,-0.02487,0.01755,0.88211,-0.01556,-0.0386,-0.02594,0.00793,-0.05463
10.423,-0.00366,-0.04074,-0.02884,-0.00198,-0.0293,-0.04898,-0.01663,-0.0032,-0.0267,0.00717,1.1174,-0.02335,-0.03937,-0.0267,0.00931,-0.05402
10.4235,-0.00259,-0.03983,-0.02945,-0.00397,-0.02991,-0.05051,-0.01633,-0.0029,-0.02853,-0.00473,1.34705,-0.03082,-0.03952,-0.02884,0.00916,-0.05417
10.424,-0.00244,-0.04074,-0.03036,-0.00641,-0.03006,-0.05112,-0.0174,-0.0029,-0.03174,-0.01617,1.58234,-0.04639,-0.03937,-0.02899,0.00961,-0.05539
10.4245,-0.00397,-0.0415,-0.02914,-0.00824,-0.03159,-0.04959,-0.01846,-0.00412,-0.03754,-0.02716,1.82297,-0.06866,-0.03769,-0.02853,0.0087,-0.05569
10.425,-0.00534,-0.04181,-0.03143,-0.00961,-0.03052,-0.04745,-0.01831,-0.0058,-0.04517,-0.0383,2.05917,-0.09262,-0.03616,-0.02777,0.01022,-0.05493
10.4255,-0.00473,-0.04135,-0.03235,-0.00946,-0.02991,-0.04669,-0.01556,-0.00519,-0.04974,-0.04395,2.2905,-0.11032,-0.03525,-0.02594,0.01129,-0.05325
10.426,-0.00427,-0.0412,-0.03326,-0.00854,-0.03067,-0.04684,-0.01312,-0.00183,-0.04807,-0.04395,2.52853,-0.09811,-0.03418,-0.02243,0.0119,-0.05295
10.4265,-0.00412,-0.04059,-0.03342,-0.00641,-0.03357,-0.047,-0.0119,0.00229,-0.04196,-0.0386,2.76596,-0.0267,-0.03281,-0.0177,0.01358,-0.05493
10.427,-0.00488,-0.03922,-0.03311,-0.00534,-0.03357,-0.047,-0.0119,0.00351,-0.0351,-0.03082,2.97546,0.08392,-0.0322,-0.01465,0.01541,-0.05661
10.4275,-0.00626,-0.03845,-0.03265,-0.00565,-0.03296,-0.04669,-0.0119,0.00015,-0.03006,-0.02563,3.14102,0.15778,-0.03281,-0.0145,0.01648,-0.05829
10.428,-0.00595,-0.03906,-0.03143,-0.00717,-0.03128,-0.04745,-0.01068,-0.00397,-0.02686,-0.02441,3.26614,0.14984,-0.03464,-0.0148,0.01648,-0.05783
10.4285,-0.00458,-0.04028,-0.03189,-0.00793,-0.0293,-0.04852,-0.01175,-0.00641,-0.02472,-0.02289,3.35953,0.09644,-0.03525,-0.01465,0.01526,-0.05692
10.429,-0.00427,-0.04089,-0.03235,-0.00854,-0.02838,-0.04959,-0.01358,-0.00641,-0.02243,-0.01923,3.42514,0.0531,-0.0351,-0.01465,0.0148,-0.05615
10.4295,-0.00565,-0.04074,-0.03448,-0.00824,-0.02975,-0.04807,-0.01465,-0.00458,-0.01984,-0.01404,3.46024,0.02716,-0.03387,-0.01404,0.01068,-0.05463
10.43,-0.00793,-0.04044,-0.03403,-0.00809,-0.03082,-0.04684,-0.01266,-0.00519,-0.01999,-0.00885,3.46634,-0.00259,-0.03479,-0.01358,0.01099,-0.05432
10.4305,-0.00977,-0.04257,-0.03235,-0.00885,-0.03082,-0.04745,-0.01053,-0.00412,-0.02289,-0.00519,3.44284,-0.03571,-0.03693,-0.01373,0.01221,-0.05554
10.431,-0.00946,-0.04288,-0.03357,-0.00931,-0.03021,-0.04883,-0.00854,-0.00198,-0.02579,-0.00198,3.38943,-0.04913,-0.03784,-0.01617,0.01221,-0.05707
10.4315,-0.00793,-0.04211,-0.03265,-0.009,-0.02914,-0.05035,-0.00977,-0.0029,-0.02472,0.0,3.30612,-0.02594,-0.03784,-0.01907,0.01251,-0.05798
10.432,-0.00641,-0.0412,-0.03387,-0.00885,-0.03036,-0.04944,-0.01099,-0.00473,-0.02121,-0.00092,3.19321,0.02762,-0.0383,-0.02075,0.01144,-0.05737
10.4325,-0.00519,-0.04105,-0.03433,-0.00778,-0.03143,-0.04654,-0.01266,-0.00565,-0.01923,-0.00397,3.05298,0.08087,-0.03937,-0.0209,0.0148,-0.05661
10.433,-0.00549,-0.03952,-0.03464,-0.00916,-0.03082,-0.04501,-0.01266,-0.00259,-0.02197,-0.00641,2.88864,0.10178,-0.03845,-0.01953,0.01328,-0.0563
10.4335,-0.00626,-0.04044,-0.03494,-0.01007,-0.02884,-0.04578,-0.01343,0.00092,-0.02716,-0.00504,2.71255,0.08209,-0.03632,-0.01923,0.01404,-0.05753
10.434,-0.00763,-0.04166,-0.03616,-0.01175,-0.0293,-0.04807,-0.01434,0.0032,-0.03265,-0.00183,2.5412,0.04593,-0.03555,-0.01907,0.01312,-0.05768
10.4345,-0.00732,-0.04181,-0.03708,-0.01236,-0.03204,-0.04822,-0.01465,0.0032,-0.03815,-0.00198,2.38129,0.02136,-0.03784,-0.01984,0.01389,-0.05844
10.435,-0.0058,-0.04196,-0.03632,-0.01068,-0.03311,-0.04623,-0.01373,0.00168,-0.04303,-0.00824,2.22687,0.01907,-0.03967,-0.02075,0.0148,-0.05844
10.4355,-0.00443,-0.04364,-0.03845,-0.00885,-0.03403,-0.04593,-0.01343,0.00198,-0.04532,-0.01434,2.07108,0.0296,-0.03891,-0.02136,0.01587,-0.0592
10.436,-0.00443,-0.04547,-0.03769,-0.00885,-0.03464,-0.04715,-0.01389,0.00214,-0.04288,-0.01877,1.91116,0.03784,-0.0354,-0.02075,0.01495,-0.05966
10.4365,-0.00549,-0.04608,-0.03662,-0.01053,-0.03448,-0.04868,-0.01343,0.00153,-0.03586,-0.02258,1.74454,0.03754,-0.03403,-0.02029,0.01404,-0.06012
10.437,-0.00504,-0.04517,-0.03677,-0.01175,-0.0322,-0.0473,-0.01266,-0.00107,-0.02808,-0.02945,1.56738,0.03128,-0.03601,-0.02121,0.01358,-0.06027
10.4375,-0.00427,-0.04425,-0.0383,-0.01205,-0.03189,-0.04517,-0.01205,-0.0061,-0.02441,-0.0383,1.37619,0.02487,-0.03769,-0.0235,0.01297,-0.05981
10.438,-0.0032,-0.0441,-0.03693,-0.01236,-0.03082,-0.04395,-0.01221,-0.0116,-0.02579,-0.04623,1.16943,0.02136,-0.03769,-0.02472,0.01373,-0.06073
10.4385,-0.00381,-0.0444,-0.03693,-0.01175,-0.03098,-0.04395,-0.01343,-0.01358,-0.02625,-0.04776,0.94635,0.01984,-0.03815,-0.02335,0.01282,-0.06332
10.439,-0.00397,-0.04425,-0.03601,-0.01099,-0.03006,-0.04486,-0.01312,-0.01007,-0.02197,-0.04333,0.71411,0.0177,-0.03799,-0.02182,0.01144,-0.06592
10.4395,-0.00381,-0.04333,-0.03494,-0.01083,-0.02808,-0.04745,-0.01236,-0.00504,-0.0119,-0.0386,0.48676,0.01587,-0.03784,-0.02075,0.00946,-0.06821
10.44,-0.00275,-0.04242,-0.03616,-0.00946,-0.02548,-0.04761,-0.01205,-0.00168,-0.00244,-0.03494,0.26978,0.01419,-0.03723,-0.01877,0.009,-0.06821
10.4405,-0.00381,-0.04135,-0.03662,-0.00916,-0.02441,-0.04776,-0.0116,-0.00168,0.00122,-0.02914,0.04684,0.01266,-0.03769,-0.01877,0.00885,-0.06805
10.441,-0.00488,-0.04242,-0.03677,-0.00961,-0.02594,-0.04715,-0.01099,-0.0029,0.00046,-0.02167,-0.21088,0.01129,-0.03876,-0.01999,0.00793,-0.06866
10.4415,-0.00504,-0.04425,-0.03586,-0.01068,-0.02625,-0.04623,-0.01144,-0.00504,-0.00137,-0.01129,-0.52063,0.01053,-0.03967,-0.02197,0.01007,-0.06912
10.442,-0.00473,-0.04532,-0.03601,-0.01114,-0.02808,-0.04578,-0.01312,-0.00656,-0.00061,-0.0029,-0.84396,0.00824,-0.04013,-0.02197,0.01038,-0.06851
10.4425,-0.00412,-0.04562,-0.03479,-0.01221,-0.03204,-0.047,-0.01389,-0.00824,0.00229,0.00259,-1.09055,0.00793,-0.03983,-0.02151,0.00992,-0.06775
10.443,-0.00458,-0.04517,-0.03357,-0.01389,-0.03342,-0.04745,-0.01251,-0.00732,0.0061,0.00336,-1.20361,0.00992,-0.03967,-0.02197,0.00916,-0.06897
10.4435,-0.00458,-0.04501,-0.03235,-0.0145,-0.03784,-0.04745,-0.01175,-0.00488,0.00854,0.00214,-1.23642,0.01419,-0.03998,-0.02289,0.00839,-0.06958
10.444,-0.00351,-0.04364,-0.03296,-0.01266,-0.03769,-0.0473,-0.0119,-0.0032,0.00977,-0.00015,-1.27686,0.01999,-0.04028,-0.02365,0.00854,-0.06912
10.4445,-0.00412,-0.04272,-0.03342,-0.01144,-0.03677,-0.04791,-0.01343,-0.00214,0.01007,-0.00458,-1.34735,0.02716,-0.04013,-0.02319,0.00946,-0.06866
10.445,-0.00427,-0.0415,-0.03342,-0.01129,-0.03464,-0.0473,-0.01526,-0.00076,0.01129,-0.01099,-1.41846,0.03693,-0.03952,-0.02274,0.01129,-0.06882
10.4455,-0.00519,-0.04135,-0.03296,-0.01297,-0.03403,-0.04639,-0.01755,-0.00061,0.01389,-0.01816,-1.47385,0.04395,-0.03876,-0.02197,0.00931,-0.0705
10.446,-0.00488,-0.04227,-0.03235,-0.01389,-0.03387,-0.04608,-0.01923,-0.00122,0.01801,-0.02365,-1.52435,0.04196,-0.0383,-0.0206,0.00839,-0.07355
10.4465,-0.00488,-0.04242,-0.03082,-0.0145,-0.03555,-0.04608,-0.02029,-0.00229,0.02533,-0.02823,-1.57547,0.02731,-0.03815,-0.01877,0.00793,-0.07446
10.447,-0.00427,-0.04196,-0.03357,-0.01343,-0.03616,-0.04532,-0.0206,-0.00229,0.03464,-0.03342,-1.62048,0.00748,-0.03632,-0.01801,0.00854,-0.07126
10.4475,-0.00458,-0.04272,-0.03479,-0.01266,-0.03784,-0.04501,-0.01877,-0.00107,0.04257,-0.04089,-1.64917,-0.00748,-0.03494,-0.01755,0.01053,-0.06821
10.448,-0.00549,-0.0441,-0.03586,-0.0119,-0.03693,-0.04517,-0.01541,-0.00015,0.047,-0.04517,-1.66122,-0.01373,-0.03464,-0.01572,0.0116,-0.06363
10.4485,-0.00809,-0.04395,-0.03632,-0.0116,-0.03464,-0.04639,-0.01358,-0.00031,0.04822,-0.04395,-1.65756,-0.01877,-0.0354,-0.01526,0.01251,-0.06088
10.449,-0.00824,-0.04272,-0.0354,-0.01068,-0.03281,-0.04745,-0.01358,-0.00168,0.04532,-0.0354,-1.63818,-0.02609,-0.03616,-0.01785,0.01221,-0.05859
10.4495,-0.00687,-0.04181,-0.03387,-0.00946,-0.03128,-0.04684,-0.01434,-0.00183,0.0415,-0.02655,-1.60706,-0.02991,-0.03616,-0.02029,0.01144,-0.05692
10.45,-0.00473,-0.04166,-0.03326,-0.00931,-0.03082,-0.04608,-0.01373,-0.00183,0.03952,-0.01953,-1.56555,-0.02762,-0.03403,-0.01923,0.01068,-0.05615
10.4505,-0.00397,-0.04089,-0.03311,-0.00992,-0.03052,-0.04532,-0.01328,-0.00351,0.04059,-0.01907,-1.5184,-0.02121,-0.03265,-0.01617,0.0116,-0.05341
10.451,-0.00366,-0.04013,-0.03326,-0.00946,-0.02747,-0.04532,-0.01373,-0.00549,0.04471,-0.01923,-1.47308,-0.01602,-0.03128,-0.01358,0.0116,-0.0499
10.4515,-0.0029,-0.03906,-0.0322,-0.00946,-0.02533,-0.04562,-0.01343,-0.00504,0.04898,-0.01144,-1.43188,-0.0148,-0.03067,-0.01312,0.01022,-0.04593
10.452,-0.00168,-0.0383,-0.03525,-0.01099,-0.02487,-0.04639,-0.01099,-0.00198,0.05035,0.00351,-1.39145,-0.01266,-0.02975,-0.01312,0.00839,-0.04318
10.4525,-0.00183,-0.03784,-0.03448,-0.01373,-0.02579,-0.04654,-0.00763,0.00153,0.04852,0.01831,-1.34628,-0.00641,-0.02853,-0.01251,0.00656,-0.04044
10.453,-0.00229,-0.03754,-0.03418,-0.01404,-0.02747,-0.04654,-0.00488,0.00153,0.0441,0.02426,-1.2973,0.00244,-0.02853,-0.01282,0.00809,-0.0386
10.4535,-0.00183,-0.03876,-0.03281,-0.01328,-0.02838,-0.04822,-0.0061,0.00015,0.04089,0.02335,-1.25031,0.01175,-0.03021,-0.01495,0.00595,-0.03754
10.454,-0.00076,-0.03998,-0.03387,-0.0119,-0.02914,-0.04944,-0.00961,-0.00076,0.04181,0.01846,-1.20804,0.01907,-0.03204,-0.01724,0.00656,-0.03647
10.4545,-0.00092,-0.0412,-0.03448,-0.01205,-0.02945,-0.04944,-0.01144,-0.00046,0.04562,0.01022,-1.16028,0.02304,-0.03387,-0.02014,0.00427,-0.03357
10.455,-0.00153,-0.04181,-0.0351,-0.01266,-0.02838,-0.04791,-0.01114,-0.00275,0.04883,-0.00107,-1.09909,0.02274,-0.03464,-0.01953,0.00488,-0.03067
10.4555,-0.00214,-0.04166,-0.0351,-0.01236,-0.02945,-0.04837,-0.00977,-0.00397,0.05005,-0.01312,-1.03592,0.02029,-0.03265,-0.01648,0.0058,-0.02884
10.456,-0.00259,-0.04105,-0.03448,-0.01129,-0.03021,-0.04883,-0.00946,-0.00351,0.05005,-0.02197,-0.97763,0.01846,-0.0325,-0.01526,0.00656,-0.02747
10.4565,-0.00214,-0.04089,-0.0322,-0.01083,-0.03067,-0.0499,-0.01053,-0.00214,0.05035,-0.02792,-0.90622,0.0177,-0.03403,-0.01602,0.00732,-0.02548
10.457,-0.00214,-0.04059,-0.03159,-0.01236,-0.02975,-0.05066,-0.01144,-0.00122,0.05112,-0.03448,-0.81177,0.01907,-0.03464,-0.01587,0.00732,-0.02289
10.4575,-0.00137,-0.04044,-0.03143,-0.01389,-0.03036,-0.05096,-0.01053,-0.00168,0.05081,-0.04257,-0.70786,0.02182,-0.03281,-0.01526,0.01083,-0.01953
10.458,0.0,-0.03876,-0.0322,-0.01404,-0.03036,-0.05005,-0.01114,-0.00229,0.04654,-0.04913,-0.60959,0.01816,-0.03021,-0.01404,0.01236,-0.0177
10.4585,0.00031,-0.03799,-0.03281,-0.01221,-0.03006,-0.04929,-0.01236,-0.00168,0.03876,-0.05219,-0.51498,-0.00031,-0.03021,-0.01328,0.01175,-0.0177
10.459,-0.00168,-0.03845,-0.03235,-0.0119,-0.03021,-0.04852,-0.01343,-0.00092,0.03296,-0.05386,-0.42435,-0.03067,-0.03204,-0.01358,0.01038,-0.01862
10.4595,-0.00458,-0.0386,-0.02975,-0.01205,-0.03067,-0.04684,-0.01236,-0.00046,0.03479,-0.05249,-0.33768,-0.05112,-0.03113,-0.01266,0.0087,-0.01968
10.46,-0.00427,-0.0386,-0.03021,-0.01129,-0.03189,-0.04684,-0.01068,-0.00092,0.04532,-0.05081,-0.25177,-0.04471,-0.02899,-0.0116,0.00916,-0.01846
10.4605,-0.00198,-0.03876,-0.03265,-0.00885,-0.0325,-0.04654,-0.00961,-0.00259,0.05936,-0.04822,-0.15961,-0.02075,-0.02731,-0.00946,0.00961,-0.01831
10.461,-0.00015,-0.03952,-0.03403,-0.00748,-0.02975,-0.04761,-0.009,-0.00336,0.07004,-0.0444,-0.05981,-0.00183,-0.02808,-0.00809,0.01038,-0.02167
10.4615,0.00015,-0.03967,-0.03403,-0.00885,-0.02853,-0.04852,-0.00854,-0.00229,0.07187,-0.03937,0.03891,0.00336,-0.02975,-0.00824,0.01068,-0.0267
10.462,-0.00031,-0.03937,-0.03418,-0.00992,-0.02609,-0.04761,-0.01007,-0.00076,0.06577,-0.03555,0.13168,0.00366,-0.03021,-0.00946,0.00992,-0.03098
10.4625,-0.00076,-0.04013,-0.03342,-0.01068,-0.02731,-0.04654,-0.01053,-0.00015,0.05585,-0.03143,0.22156,0.00671,-0.03113,-0.01053,0.009,-0.03128
10.463,-0.00259,-0.04028,-0.03372,-0.00961,-0.02655,-0.04517,-0.01099,0.00031,0.04669,-0.02716,0.30762,0.0148,-0.03052,-0.01099,0.00824,-0.02808
10.4635,-0.00305,-0.04059,-0.03143,-0.00916,-0.02731,-0.04532,-0.01099,0.00031,0.04013,-0.02228,0.38269,0.02945,-0.02975,-0.01205,0.00885,-0.02441
10.464,-0.00229,-0.04013,-0.03159,-0.00763,-0.02914,-0.04639,-0.01221,0.0,0.03662,-0.02121,0.44464,0.05356,-0.02975,-0.01343,0.01007,-0.02411
10.4645,-0.00122,-0.03998,-0.03281,-0.00748,-0.03021,-0.04807,-0.01404,-0.00076,0.0351,-0.02747,0.50034,0.07538,-0.03052,-0.01556,0.009,-0.0264
10.465,-0.00137,-0.04074,-0.03326,-0.00702,-0.03067,-0.0473,-0.01495,-0.00244,0.02884,-0.03433,0.55771,0.07889,-0.03189,-0.01801,0.00961,-0.03159
10.4655,-0.00153,-0.04211,-0.03265,-0.00702,-0.03204,-0.04578,-0.01434,-0.0032,0.0174,-0.03464,0.61752,0.06088,-0.03326,-0.02029,0.00778,-0.03555
10.466,-0.00198,-0.04227,-0.03357,-0.00763,-0.03006,-0.04623,-0.01404,-0.00397,0.00366,-0.02869,0.67307,0.03647,-0.03235,-0.02075,0.00916,-0.03754
10.4665,-0.00229,-0.0412,-0.03326,-0.00961,-0.0293,-0.04715,-0.01328,-0.00397,-0.00626,-0.0209,0.72372,0.01953,-0.03098,-0.01785,0.01083,-0.03647
10.467,-0.0032,-0.03906,-0.03387,-0.01068,-0.02869,-0.04852,-0.0148,-0.00488,-0.01236,-0.01526,0.77072,0.00412,-0.03021,-0.01434,0.01236,-0.03387
10.4675,-0.00336,-0.0386,-0.03281,-0.0119,-0.03082,-0.04913,-0.01465,-0.00458,-0.01938,-0.00824,0.811,-0.0209,-0.03021,-0.01404,0.01068,-0.03326
10.468,-0.0029,-0.03967,-0.03296,-0.01175,-0.03067,-0.04852,-0.01434,-0.00427,-0.02625,-0.00061,0.84,-0.06104,-0.03021,-0.01648,0.00595,-0.03387
10.4685,-0.00351,-0.03998,-0.03357,-0.0119,-0.02991,-0.04715,-0.01175,-0.00336,-0.0293,-0.00046,0.85754,-0.10788,-0.0296,-0.01801,0.0058,-0.03479
10.469,-0.00381,-0.03967,-0.03479,-0.01297,-0.02777,-0.04715,-0.01038,-0.00305,-0.0293,-0.00732,0.8577,-0.14297,-0.02869,-0.01846,0.0061,-0.0351
10.4695,-0.00458,-0.0386,-0.03281,-0.01358,-0.02747,-0.04837,-0.00977,-0.0029,-0.02716,-0.01541,0.83496,-0.15137,-0.02655,-0.01816,0.00763,-0.03448
10.47,-0.00473,-0.03784,-0.03387,-0.01328,-0.02777,-0.04959,-0.01144,-0.00244,-0.02777,-0.01755,0.76035,-0.13489,-0.02548,-0.01831,0.00809,-0.03555
10.4705,-0.00397,-0.0383,-0.03265,-0.01282,-0.02762,-0.04837,-0.01434,-0.00183,-0.02808,-0.0145,0.55573,-0.10956,-0.02548,-0.01877,0.00824,-0.03723
10.471,-0.00275,-0.03952,-0.03159,-0.01282,-0.02853,-0.04776,-0.01724,-0.0029,-0.02945,-0.00671,0.16815,-0.08591,-0.02716,-0.01846,0.00961,-0.03922
10.4715,-0.00259,-0.03952,-0.0293,-0.01358,-0.0296,-0.04822,-0.01846,-0.00473,-0.03189,0.00702,-0.31647,-0.06531,-0.02777,-0.0177,0.00916,-0.03922
10.472,-0.00351,-0.03937,-0.0293,-0.01465,-0.02899,-0.04959,-0.01816,-0.00641,-0.03326,0.03082,-0.737,-0.0441,-0.02838,-0.01846,0.00702,-0.03799
10.4725,-0.00519,-0.03876,-0.03021,-0.01434,-0.02853,-0.05005,-0.01526,-0.00656,-0.03021,0.05493,-1.00327,-0.02319,-0.02838,-0.01862,0.00275,-0.03616
10.473,-0.00565,-0.03983,-0.03052,-0.01297,-0.02701,-0.04745,-0.0145,-0.0061,-0.02579,0.06241,-1.10306,-0.00732,-0.02808,-0.01862,0.00076,-0.0351
10.4735,-0.00534,-0.04089,-0.03235,-0.01068,-0.02777,-0.04532,-0.01633,-0.00519,-0.02274,0.04776,-1.06842,-0.00519,-0.02869,-0.01602,0.00275,-0.03418
10.474,-0.00458,-0.04181,-0.03448,-0.00854,-0.02701,-0.04471,-0.01877,-0.00488,-0.02457,0.0206,-0.96909,-0.02014,-0.02853,-0.01404,0.00854,-0.03052
10.4745,-0.00458,-0.04242,-0.0354,-0.00671,-0.0296,-0.047,-0.01801,-0.00519,-0.03235,-0.00229,-0.83176,-0.04074,-0.02762,-0.01434,0.01389,-0.02686
10.475,-0.00427,-0.04227,-0.03586,-0.00748,-0.03082,-0.04868,-0.01526,-0.00641,-0.04211,-0.01968,-0.59677,-0.04913,-0.02762,-0.01648,0.01617,-0.02457
10.4755,-0.00351,-0.04211,-0.03723,-0.00839,-0.03098,-0.04837,-0.01266,-0.00748,-0.05142,-0.0322,-0.23834,-0.03876,-0.02991,-0.01907,0.01694,-0.0235
10.476,-0.00427,-0.0415,-0.03754,-0.01068,-0.03265,-0.04837,-0.01129,-0.00717,-0.06012,-0.03937,0.12573,-0.02106,-0.03235,-0.01968,0.01862,-0.02502
10.4765,-0.0058,-0.04135,-0.03647,-0.01144,-0.03159,-0.04684,-0.0116,-0.00549,-0.0705,-0.0383,0.34042,-0.01404,-0.03296,-0.01923,0.01694,-0.03052
10.477,-0.00702,-0.04059,-0.03479,-0.01038,-0.03006,-0.04578,-0.01251,-0.00366,-0.07858,-0.0322,0.38986,-0.0209,-0.03235,-0.01984,0.0119,-0.03693
10.4775,-0.00687,-0.04028,-0.03281,-0.00931,-0.03098,-0.04593,-0.01328,-0.00275,-0.08118,-0.0322,0.37766,-0.03021,-0.03174,-0.02167,0.00549,-0.04257
10.478,-0.00473,-0.04135,-0.0322,-0.00916,-0.03296,-0.04715,-0.01465,-0.00397,-0.07935,-0.03799,0.39627,-0.0293,-0.03067,-0.02228,-0.00351,-0.04623
10.4785,-0.00473,-0.04272,-0.03265,-0.00763,-0.03448,-0.0502,-0.01678,-0.00519,-0.0769,-0.04578,0.46158,-0.01678,-0.02914,-0.02075,-0.00473,-0.04379
10.479,-0.00626,-0.04257,-0.03128,-0.0032,-0.03555,-0.05005,-0.01877,-0.0061,-0.07599,-0.04807,0.54047,0.00366,-0.02686,-0.01846,-0.00305,-0.03754
10.4795,-0.00824,-0.04105,-0.03067,0.0032,-0.03342,-0.04883,-0.01953,-0.0058,-0.07599,-0.04456,0.59158,0.02594,-0.02548,-0.01526,-0.00168,-0.03021
10.48,-0.00809,-0.03967,-0.03204,0.00534,-0.03098,-0.04715,-0.0177,-0.00473,-0.07492,-0.03967,0.59387,0.04349,-0.02441,-0.01419,-0.00046,-0.0264
10.4805,-0.00732,-0.04028,-0.03326,-0.00961,-0.03052,-0.04562,-0.01495,-0.00458,-0.0705,-0.03601,0.55252,0.06104,-0.02396,-0.01434,-0.00122,-0.02518
10.481,-0.00748,-0.04166,-0.03464,-0.04135,-0.03021,-0.04486,-0.01251,-0.00488,-0.06363,-0.03098,0.49316,0.08286,-0.02411,-0.01312,-0.00107,-0.02472
10.4815,-0.00778,-0.04227,-0.03326,-0.065,-0.03189,-0.04562,-0.01038,-0.00351,-0.05859,-0.02274,0.4332,0.09689,-0.02457,-0.01205,-0.00397,-0.02426
10.482,-0.00748,-0.04242,-0.03311,-0.05478,-0.03296,-0.047,-0.00977,-0.00259,-0.05676,-0.01328,0.3389,0.08423,-0.0267,-0.01068,-0.00732,-0.02609
10.4825,-0.00732,-0.04135,-0.03265,-0.01556,-0.03357,-0.04776,-0.01099,-0.00183,-0.05783,-0.0061,0.12421,0.04883,-0.02792,-0.01038,-0.0058,-0.02838
10.483,-0.00626,-0.04013,-0.03418,0.02014,-0.0325,-0.04715,-0.01205,-0.00244,-0.05951,-0.00244,-0.23087,0.01816,-0.02762,-0.01221,-0.00092,-0.02838
10.4835,-0.00595,-0.03891,-0.03693,0.03021,-0.03036,-0.04562,-0.01175,-0.00351,-0.0592,-0.00137,-0.5983,0.0061,-0.0264,-0.01495,0.00351,-0.02701
10.484,-0.0061,-0.04013,-0.0383,0.02151,-0.03128,-0.04501,-0.01221,-0.00381,-0.05737,-0.0029,-0.81772,0.00458,-0.02609,-0.01785,0.00366,-0.02823
10.4845,-0.00595,-0.0412,-0.03754,0.01358,-0.03326,-0.04578,-0.0116,-0.0029,-0.05371,-0.00519,-0.87265,0.00259,-0.02655,-0.01968,0.00595,-0.03235
10.485,-0.00458,-0.0415,-0.03616,0.01282,-0.03204,-0.04715,-0.01205,-0.00168,-0.05249,-0.00839,-0.86395,0.0029,-0.02853,-0.01999,0.01099,-0.03342
10.4855,-0.00351,-0.04074,-0.03296,0.01251,-0.0322,-0.04837,-0.01221,-0.00137,-0.05554,-0.01053,-0.86838,0.00626,-0.02869,-0.01709,0.01587,-0.02869
10.486,-0.00412,-0.04059,-0.03387,0.00702,-0.03006,-0.04837,-0.01373,-0.00168,-0.06058,-0.01205,-0.89676,0.00793,-0.02808,-0.01495,0.01785,-0.02151
10.4865,-0.00519,-0.03967,-0.03387,-0.00198,-0.03036,-0.04761,-0.01556,-0.00229,-0.06287,-0.01511,-0.93475,0.00168,-0.02686,-0.0148,0.01663,-0.01846
10.487,-0.00626,-0.03998,-0.03281,-0.01114,-0.03143,-0.04761,-0.0174,-0.00381,-0.06073,-0.02167,-0.9668,-0.00854,-0.02701,-0.0145,0.01511,-0.02151
10.4875,-0.00656,-0.0412,-0.03372,-0.02029,-0.0322,-0.04715,-0.01602,-0.00504,-0.05508,-0.0267,-0.97168,-0.01404,-0.02823,-0.01511,0.01144,-0.02655
10.488,-0.00656,-0.0412,-0.03448,-0.03082,-0.03128,-0.04776,-0.01343,-0.00504,-0.04883,-0.02792,-0.93658,-0.01266,-0.03006,-0.01541,0.01328,-0.0267
10.4885,-0.00671,-0.03967,-0.03571,-0.04166,-0.03113,-0.04837,-0.01114,-0.00229,-0.04333,-0.02594,-0.85663,-0.00763,-0.03067,-0.01587,0.02457,-0.02411
10.489,-0.00748,-0.03769,-0.03601,-0.04669,-0.0293,-0.04837,-0.01175,0.00031,-0.03952,-0.02243,-0.73303,-0.00305,-0.02914,-0.01755,0.04898,-0.0209
10.4895,-0.00702,-0.03662,-0.03571,-0.04379,-0.02762,-0.04761,-0.0119,0.00153,-0.03708,-0.0209,-0.5928,-0.00107,-0.02823,-0.01678,0.07065,-0.01953
10.49,-0.00565,-0.03677,-0.0354,-0.04013,-0.02655,-0.04669,-0.01175,0.00061,-0.03586,-0.02014,-0.49118,-0.00153,-0.0296,-0.01404,0.07156,-0.01816
10.4905,-0.00336,-0.03799,-0.0351,-0.04181,-0.02777,-0.047,-0.01175,-0.00061,-0.03555,-0.01923,-0.45593,-0.00229,-0.03021,-0.01083,0.04196,-0.01587
10.491,-0.00198,-0.03815,-0.03601,-0.04547,-0.0296,-0.04745,-0.01221,0.0,-0.0351,-0.0177,-0.4541,-0.0029,-0.03006,-0.01022,-0.00031,-0.01572
10.4915,-0.0032,-0.03708,-0.03815,-0.04272,-0.02884,-0.04745,-0.01266,0.00061,-0.03601,-0.01343,-0.43213,-0.00427,-0.02975,-0.01083,-0.03815,-0.0177
10.492,-0.00641,-0.03738,-0.03845,-0.03403,-0.02869,-0.04837,-0.01328,0.00046,-0.03723,-0.00931,-0.37674,-0.00732,-0.03098,-0.0119,-0.05569,-0.02045
10.4925,-0.00839,-0.03799,-0.03952,-0.02686,-0.02884,-0.04776,-0.01312,-0.00137,-0.03983,-0.00626,-0.33218,-0.00977,-0.03265,-0.01099,-0.05493,-0.02548
10.493,-0.00763,-0.04044,-0.03937,-0.02487,-0.02975,-0.04639,-0.01312,-0.00198,-0.04257,-0.00565,-0.33157,-0.0087,-0.03265,-0.01266,-0.04166,-0.03357
10.4935,-0.00549,-0.0415,-0.03876,-0.02243,-0.03159,-0.04654,-0.01373,-0.00153,-0.0444,-0.00488,-0.35645,-0.00641,-0.03082,-0.01511,-0.02823,-0.04349
10.494,-0.00488,-0.04089,-0.03784,-0.01602,-0.0325,-0.04807,-0.01282,-0.00229,-0.04379,-0.00549,-0.36484,-0.00336,-0.02975,-0.0177,-0.01816,-0.04868
10.4945,-0.00473,-0.03998,-0.03525,-0.00977,-0.03174,-0.04898,-0.01297,-0.0032,-0.04349,-0.00488,-0.35126,-0.00244,-0.02975,-0.01907,-0.01099,-0.04395
10.495,-0.00626,-0.0386,-0.03342,-0.01053,-0.02945,-0.04883,-0.01251,-0.0029,-0.04272,-0.00504,-0.33554,-0.00183,-0.03143,-0.01755,-0.00305,-0.03143
10.4955,-0.00671,-0.03876,-0.03372,-0.0177,-0.03082,-0.04791,-0.01236,-0.00153,-0.04257,-0.00626,-0.33005,-0.00015,-0.03204,-0.01465,0.0032,-0.02106
10.496,-0.00626,-0.03891,-0.03326,-0.0209,-0.03006,-0.04745,-0.01205,-0.00168,-0.04288,-0.009,-0.33401,0.00183,-0.03067,-0.01221,0.00732,-0.01831
10.4965,-0.0061,-0.03876,-0.03387,-0.00809,-0.0293,-0.04684,-0.01175,-0.00229,-0.0444,-0.01358,-0.34424,0.00351,-0.02914,-0.01266,0.00961,-0.02182
10.497,-0.00656,-0.03769,-0.03265,0.02304,-0.02869,-0.04547,-0.01022,-0.00244,-0.04425,-0.01694,-0.35843,0.00366,-0.02991,-0.0148,0.01205,-0.02625
10.4975,-0.00656,-0.03815,-0.03357,0.05997,-0.02899,-0.04486,-0.00946,-0.00198,-0.04242,-0.0235,-0.37018,0.00153,-0.03265,-0.01678,0.01358,-0.02792
10.498,-0.00565,-0.03891,-0.03479,0.07416,-0.03113,-0.04456,-0.00946,-0.00122,-0.04044,-0.02701,-0.36789,0.0,-0.03326,-0.01801,0.01495,-0.0267
10.4985,-0.00427,-0.03967,-0.03494,0.04745,-0.02991,-0.04425,-0.01053,-0.00137,-0.03998,-0.0267,-0.33417,0.00015,-0.03113,-0.01907,0.01648,-0.02487
10.499,-0.00351,-0.03952,-0.03448,-0.00092,-0.03174,-0.04349,-0.01083,-0.00259,-0.0412,-0.02243,-0.2803,0.00168,-0.0296,-0.02106,0.01892,-0.02182
10.4995,-0.00366,-0.03937,-0.03418,-0.03189,-0.03143,-0.04395,-0.01038,-0.00244,-0.04028,-0.01541,-0.23575,0.00275,-0.03036,-0.02258,0.02075,-0.01999
10.5,-0.00381,-0.03845,-0.03433,-0.02975,-0.03021,-0.04456,-0.00854,-0.0029,-0.03876,-0.00946,-0.21072,0.00427,-0.03128,-0.02335,0.02289,-0.01938
10.5005,-0.00336,-0.03906,-0.03448,-0.01343,-0.0293,-0.04517,-0.00854,-0.00336,-0.03937,-0.00977,-0.18326,0.00397,-0.03113,-0.02319,0.02487,-0.02182
10.501,-0.0032,-0.04105,-0.03342,-0.00641,-0.02853,-0.04608,-0.00961,-0.00336,-0.04181,-0.01358,-0.13718,0.00092,-0.02945,-0.0206,0.0267,-0.02487
10.5015,-0.00351,-0.04227,-0.03403,-0.009,-0.02899,-0.04684,-0.01129,-0.0029,-0.04196,-0.01862,-0.08408,-0.00198,-0.02823,-0.01801,0.02625,-0.0293
10.502,-0.00336,-0.04105,-0.03433,-0.01022,-0.02731,-0.04684,-0.01251,-0.00351,-0.0383,-0.02274,-0.04578,-0.00092,-0.02625,-0.0177,0.0235,-0.03281
10.5025,-0.00351,-0.03998,-0.03601,-0.01144,-0.02747,-0.04639,-0.01328,-0.00412,-0.03403,-0.02716,-0.01984,0.00687,-0.02563,-0.02075,0.01602,-0.0351
10.503,-0.00443,-0.04028,-0.03571,-0.01663,-0.02808,-0.04669,-0.01358,-0.00458,-0.03281,-0.03174,0.00885,0.01526,-0.02533,-0.02365,0.00839,-0.03738
10.5035,-0.00504,-0.04288,-0.03448,-0.03098,-0.02884,-0.04837,-0.01297,-0.00366,-0.03082,-0.03418,0.04028,0.01831,-0.0264,-0.02396,0.0029,-0.03952
10.504,-0.00595,-0.04517,-0.03357,-0.05035,-0.02823,-0.04944,-0.01266,-0.00229,-0.02609,-0.03174,0.06561,0.01694,-0.02808,-0.02441,0.0032,-0.03937
10.5045,-0.00519,-0.04547,-0.03418,-0.06577,-0.0296,-0.05051,-0.01266,-0.00122,-0.02014,-0.02838,0.08331,0.01541,-0.03036,-0.02777,0.00824,-0.03479
10.505,-0.00412,-0.04364,-0.03571,-0.06866,-0.03067,-0.05081,-0.01343,-0.00122,-0.01648,-0.02609,0.10254,0.01816,-0.03265,-0.03082,0.00671,-0.02914
10.5055,-0.00351,-0.04272,-0.03601,-0.05966,-0.03143,-0.05005,-0.0145,-0.00137,-0.0148,-0.02762,0.13412,0.01709,-0.03357,-0.02945,0.00504,-0.02853
10.506,-0.00427,-0.04242,-0.03494,-0.04654,-0.03174,-0.04929,-0.01587,-0.00061,-0.01022,-0.02686,0.17273,0.01053,-0.03204,-0.02625,0.0029,-0.03082
10.5065,-0.0061,-0.04288,-0.03448,-0.03754,-0.03143,-0.04913,-0.0177,-0.00198,-0.00305,-0.02335,0.21271,0.00153,-0.03036,-0.02075,0.0029,-0.03433
10.507,-0.00641,-0.04242,-0.03479,-0.02853,-0.03067,-0.04974,-0.01877,-0.00351,0.00305,-0.02075,0.25208,-0.00732,-0.02869,-0.01877,0.00244,-0.03479
10.5075,-0.00458,-0.04272,-0.03586,-0.01251,-0.03174,-0.04868,-0.01785,-0.00458,0.00244,-0.02411,0.29007,-0.01419,-0.02853,-0.02151,-0.00031,-0.03464
10.508,-0.00412,-0.04303,-0.03632,0.01266,-0.03189,-0.04761,-0.01709,-0.00595,-0.00229,-0.0325,0.32196,-0.0174,-0.02975,-0.02625,-0.00381,-0.0354
10.5085,-0.00412,-0.04242,-0.03754,0.04242,-0.03372,-0.04684,-0.01709,-0.00641,-0.00717,-0.03998,0.3479,-0.01343,-0.03174,-0.03036,-0.00549,-0.03677
10.509,-0.00473,-0.0415,-0.03754,0.06851,-0.03479,-0.04837,-0.01801,-0.00687,-0.00748,-0.04517,0.37582,-0.00671,-0.03174,-0.03143,-0.00443,-0.03784
10.5095,-0.00427,-0.04105,-0.03616,0.08072,-0.03464,-0.04944,-0.01755,-0.00702,-0.0032,-0.04532,0.40466,-0.00671,-0.0296,-0.02823,-0.00092,-0.03922
10.51,-0.00259,-0.04166,-0.03448,0.07477,-0.03403,-0.04913,-0.0148,-0.00549,0.00244,-0.04044,0.42984,-0.01282,-0.02808,-0.02441,0.00427,-0.03952
10.5105,-0.00137,-0.04211,-0.03479,0.05371,-0.03464,-0.04745,-0.01144,-0.00519,0.00565,-0.03525,0.45303,-0.01724,-0.02625,-0.02319,0.01068,-0.04059
10.511,-0.00183,-0.04242,-0.03494,0.03006,-0.03494,-0.0473,-0.01083,-0.0058,0.00565,-0.0354,0.47455,-0.01587,-0.02609,-0.02335,0.01389,-0.04135
10.5115,-0.00427,-0.04242,-0.03433,0.01602,-0.03494,-0.04654,-0.01419,-0.00641,0.00366,-0.04257,0.49408,-0.01297,-0.0267,-0.02548,0.01282,-0.04257
10.512,-0.00595,-0.04288,-0.03433,0.0116,-0.03372,-0.04547,-0.0177,-0.00549,0.00458,-0.04486,0.51392,-0.01389,-0.02823,-0.02716,0.00854,-0.04501
10.5125,-0.00565,-0.04303,-0.0351,0.00641,-0.03433,-0.04471,-0.01953,-0.00397,0.00595,-0.03998,0.52979,-0.01724,-0.02899,-0.02914,0.00549,-0.047
10.513,-0.00534,-0.04242,-0.03662,-0.00427,-0.03571,-0.04517,-0.01968,-0.00351,0.0058,-0.02899,0.53467,-0.01892,-0.0296,-0.02991,0.00656,-0.04425
10.5135,-0.00549,-0.04211,-0.03525,-0.01953,-0.03647,-0.04654,-0.01953,-0.00351,0.00015,-0.01938,0.53314,-0.01343,-0.03036,-0.02884,0.00992,-0.0383
10.514,-0.00748,-0.04288,-0.03433,-0.03326,-0.03586,-0.0473,-0.01923,-0.0032,-0.00793,-0.0148,0.53589,-0.00092,-0.03204,-0.0267,0.01083,-0.03632
10.5145,-0.00977,-0.04318,-0.03342,-0.04532,-0.03448,-0.0473,-0.01953,-0.00168,-0.01678,-0.01297,0.53986,0.00687,-0.03326,-0.02579,0.00931,-0.03586
10.515,-0.01144,-0.04272,-0.03357,-0.05295,-0.03357,-0.04593,-0.01877,-0.00092,-0.0235,-0.00977,0.53619,0.00275,-0.03357,-0.02594,0.00809,-0.03632
10.5155,-0.01053,-0.04227,-0.0351,-0.05585,-0.03555,-0.04456,-0.0174,-0.00122,-0.02609,-0.00259,0.52734,-0.00931,-0.0322,-0.02579,0.00839,-0.03448
10.516,-0.00809,-0.0412,-0.0354,-0.05081,-0.03708,-0.04517,-0.01511,-0.00214,-0.02502,0.0029,0.522,-0.01343,-0.03189,-0.0238,0.00778,-0.03143
10.5165,-0.0061,-0.04196,-0.03555,-0.03342,-0.03708,-0.04608,-0.01404,-0.0029,-0.02304,0.00473,0.52048,-0.00214,-0.0322,-0.02106,0.00717,-0.03006
10.517,-0.00427,-0.04333,-0.03494,0.00153,-0.0354,-0.04608,-0.01511,-0.00198,-0.02289,0.00275,0.52048,0.01434,-0.03143,-0.01923,0.0058,-0.03159
10.5175,-0.00397,-0.04364,-0.0322,0.04593,-0.03418,-0.04654,-0.01617,-0.00168,-0.02487,-0.00015,0.53101,0.01816,-0.03128,-0.01877,0.0058,-0.03769
10.518,-0.0061,-0.04105,-0.03311,0.07126,-0.03387,-0.04684,-0.0174,-0.00244,-0.02731,-0.00458,0.56229,0.0,-0.03128,-0.01892,0.00305,-0.04822
10.5185,-0.00717,-0.03952,-0.03296,0.05432,-0.03525,-0.04776,-0.01785,-0.00351,-0.02792,-0.01328,0.60135,-0.03098,-0.0322,-0.01923,-0.00198,-0.05539
10.519,-0.00687,-0.03952,-0.03326,0.01266,-0.0351,-0.04807,-0.01831,-0.00412,-0.02441,-0.02533,0.6189,-0.06088,-0.03281,-0.01892,-0.0032,-0.05524
10.5195,-0.00504,-0.04013,-0.03372,-0.01617,-0.03479,-0.04837,-0.0177,-0.0032,-0.01602,-0.03387,0.59723,-0.08743,-0.03052,-0.01724,0.00259,-0.04852
10.52,-0.0029,-0.0412,-0.03479,-0.01663,-0.03235,-0.04639,-0.01663,-0.00122,-0.00473,-0.03815,0.54214,-0.11902,-0.02747,-0.01389,0.00992,-0.04135
10.5205,-0.00229,-0.04181,-0.03632,-0.00839,-0.03036,-0.04486,-0.01633,-0.00122,0.00229,-0.0415,0.47348,-0.15503,-0.02594,-0.0119,0.01175,-0.03983
10.521,-0.00336,-0.0415,-0.03555,-0.00671,-0.02838,-0.0441,-0.01648,-0.00198,0.00381,-0.05264,0.40878,-0.17975,-0.02762,-0.01236,0.00931,-0.04135
10.5215,-0.00351,-0.04074,-0.0351,-0.00916,-0.02731,-0.0441,-0.01495,-0.00366,0.00137,-0.07172,0.35126,-0.17181,-0.02914,-0.01526,0.00595,-0.04211
10.522,-0.00244,-0.04059,-0.03479,-0.00687,-0.02701,-0.04547,-0.01312,-0.00366,0.00046,-0.08667,0.29999,-0.10742,-0.02884,-0.01511,0.00656,-0.04684
10.5225,-0.00076,-0.04044,-0.03632,-0.00397,-0.02838,-0.04578,-0.01144,-0.0032,0.00397,-0.08301,0.25909,0.01312,-0.02838,-0.01358,0.00748,-0.04776
10.523,0.00061,-0.0412,-0.03448,-0.00504,-0.02945,-0.04669,-0.01083,-0.00366,0.00748,-0.06317,0.2298,0.13428,-0.02899,-0.01373,0.00717,-0.05035
10.5235,-0.00015,-0.04211,-0.03281,-0.01129,-0.03021,-0.04745,-0.01083,-0.00412,0.00824,-0.03998,0.20874,0.18967,-0.02975,-0.01602,0.00641,-0.047
10.524,-0.00092,-0.04135,-0.03387,-0.01999,-0.03235,-0.04791,-0.00885,-0.00412,0.00656,-0.02289,0.19272,0.17426,-0.03021,-0.01953,0.00519,-0.04456
10.5245,-0.00214,-0.04105,-0.03479,-0.03006,-0.03403,-0.04715,-0.00656,-0.0029,0.00565,-0.01114,0.17288,0.13412,-0.02991,-0.02106,0.00626,-0.04471
10.525,-0.00229,-0.04028,-0.03571,-0.03723,-0.03571,-0.04745,-0.00534,-0.00046,0.00595,0.00168,0.1474,0.08926,-0.03098,-0.02106,0.00687,-0.04562
10.5255,-0.00214,-0.03922,-0.03494,-0.03555,-0.03418,-0.04898,-0.0061,0.00046,0.00595,0.01205,0.12405,0.0293,-0.0322,-0.02213,0.00763,-0.04425
10.526,-0.00137,-0.03952,-0.03448,-0.02686,-0.03311,-0.04776,-0.00778,0.00107,0.00748,0.0174,0.10513,-0.0322,-0.03311,-0.02151,0.00931,-0.04578
10.5265,-0.00046,-0.04089,-0.03372,-0.0177,-0.03342,-0.04898,-0.009,0.00061,0.00931,0.01877,0.08224,-0.06409,-0.03326,-0.0209,0.01007,-0.04471
10.527,0.00015,-0.04211,-0.03433,-0.0148,-0.03418,-0.0473,-0.00946,0.00015,0.01038,0.01892,0.0528,-0.05875,-0.03281,-0.01968,0.00977,-0.04425
10.5275,0.0,-0.0412,-0.03372,-0.01663,-0.03433,-0.04623,-0.00931,0.00076,0.00854,0.02029,0.0209,-0.03784,-0.03296,-0.01907,0.00946,-0.04318
10.528,-0.00107,-0.03952,-0.0325,-0.01648,-0.03296,-0.04669,-0.00992,0.00168,0.00534,0.02213,-0.01297,-0.02121,-0.03433,-0.02167,0.00977,-0.04456
10.5285,-0.00137,-0.03952,-0.0322,-0.00778,-0.03159,-0.04608,-0.00946,0.00153,0.00458,0.02396,-0.04654,-0.02182,-0.0351,-0.02441,0.01007,-0.04761
10.529,-0.00137,-0.04196,-0.03235,0.0116,-0.03189,-0.0473,-0.00763,0.00046,0.00671,0.02365,-0.07782,-0.04868,-0.0351,-0.02502,0.01221,-0.05051
10.5295,-0.00214,-0.04333,-0.0322,0.03586,-0.03098,-0.04593,-0.00504,0.00015,0.00977,0.02457,-0.10544,-0.09277,-0.03372,-0.0238,0.0119,-0.05203
10.53,-0.00229,-0.04227,-0.03235,0.05203,-0.03174,-0.04456,-0.00473,-0.00076,0.01007,0.02594,-0.13367,-0.11459,-0.03281,-0.0209,0.01175,-0.05447
10.5305,-0.00275,-0.04044,-0.03265,0.04929,-0.03082,-0.04532,-0.00641,-0.00061,0.00839,0.02655,-0.16647,-0.06775,-0.0325,-0.01816,0.0119,-0.05417
10.531,-0.00305,-0.04044,-0.03387,0.02838,-0.03082,-0.04715,-0.00702,-0.00107,0.00854,0.02121,-0.20157,0.05264,-0.03357,-0.0177,0.0145,-0.05432
10.5315,-0.0029,-0.04013,-0.03479,-0.00351,-0.03067,-0.04852,-0.00595,-0.00153,0.01007,0.00977,-0.23239,0.19394,-0.03555,-0.01724,0.01617,-0.05325
10.532,-0.00198,-0.0415,-0.03494,-0.03738,-0.03174,-0.04868,-0.00458,-0.00198,0.01129,-0.00336,-0.24673,0.27802,-0.03662,-0.01801,0.01602,-0.05478
10.5325,-0.00122,-0.04196,-0.03525,-0.05997,-0.0325,-0.04807,-0.00504,-0.00153,0.00824,-0.0087,-0.24536,0.25986,-0.03784,-0.01953,0.0148,-0.05493
10.533,-0.00122,-0.04181,-0.03494,-0.0618,-0.0325,-0.04822,-0.00656,-0.00092,-0.00015,-0.00748,-0.23941,0.16968,-0.03922,-0.0235,0.01328,-0.05798
10.5335,-0.0032,-0.0415,-0.03479,-0.05096,-0.03189,-0.04898,-0.00687,-0.00061,-0.00931,-0.00671,-0.24582,0.07874,-0.03967,-0.02457,0.01053,-0.05859
10.534,-0.00412,-0.04211,-0.03326,-0.04089,-0.03128,-0.04959,-0.00656,-0.00061,-0.01343,-0.01205,-0.26031,0.02869,-0.03906,-0.02304,0.00946,-0.05783
10.5345,-0.00381,-0.04196,-0.03311,-0.03769,-0.03204,-0.04898,-0.00702,-0.00092,-0.01266,-0.0209,-0.27267,0.01175,-0.03784,-0.01877,0.00977,-0.05615
10.535,-0.00336,-0.04105,-0.03281,-0.03677,-0.03235,-0.04807,-0.00839,0.00015,-0.01114,-0.02823,-0.28229,0.01068,-0.03647,-0.01572,0.00992,-0.05524
10.5355,-0.00412,-0.04074,-0.03342,-0.03189,-0.03235,-0.04837,-0.00931,0.0,-0.01038,-0.03082,-0.29831,0.03098,-0.0351,-0.01495,0.00854,-0.05417
10.536,-0.00443,-0.04074,-0.03418,-0.0267,-0.03326,-0.04898,-0.00977,0.00015,-0.00763,-0.02975,-0.32028,0.06973,-0.03494,-0.01511,0.00748,-0.05539
10.5365,-0.00473,-0.04044,-0.03418,-0.02579,-0.03189,-0.04974,-0.01038,-0.00015,-0.00473,-0.02625,-0.34348,0.10223,-0.03448,-0.01541,0.00824,-0.05585
10.537,-0.00397,-0.03983,-0.03387,-0.02533,-0.03281,-0.04898,-0.01068,0.00031,-0.00473,-0.02319,-0.36133,0.10681,-0.03448,-0.01663,0.01129,-0.05615
10.5375,-0.00397,-0.03922,-0.03433,-0.02594,-0.03357,-0.04745,-0.01144,0.00031,-0.01053,-0.02258,-0.37018,0.0856,-0.03403,-0.01755,0.01373,-0.056
10.538,-0.00458,-0.03876,-0.03586,-0.0264,-0.03418,-0.04684,-0.01144,-0.00092,-0.01907,-0.02441,-0.37109,0.04654,-0.03433,-0.01816,0.01373,-0.05646
10.5385,-0.00534,-0.03952,-0.0354,-0.02808,-0.03265,-0.047,-0.01099,-0.00229,-0.02396,-0.02563,-0.3624,0.0,-0.03494,-0.01877,0.01221,-0.05554
10.539,-0.00549,-0.04105,-0.03464,-0.02899,-0.03159,-0.04593,-0.01114,-0.00153,-0.02136,-0.02731,-0.34378,-0.04196,-0.03601,-0.01816,0.01205,-0.05341
10.5395,-0.00458,-0.0412,-0.03372,-0.02716,-0.03113,-0.04593,-0.01205,0.0,-0.01404,-0.02701,-0.31876,-0.06851,-0.03601,-0.01801,0.01144,-0.05325
10.54,-0.00336,-0.03937,-0.03326,-0.0235,-0.03174,-0.04578,-0.01266,0.00031,-0.00687,-0.02594,-0.29556,-0.0827,-0.03571,-0.01724,0.01022,-0.05295
10.5405,-0.00168,-0.03754,-0.03326,-0.0206,-0.03281,-0.047,-0.01373,-0.00092,-0.00244,-0.02304,-0.27832,-0.10193,-0.03387,-0.01709,0.01053,-0.05508
10.541,-0.00153,-0.03754,-0.03296,-0.01343,-0.03433,-0.04807,-0.01419,-0.00244,-0.00168,-0.01907,-0.26688,-0.13519,-0.03159,-0.01526,0.01251,-0.05463
10.5415,-0.00351,-0.03754,-0.03326,-0.00183,-0.03448,-0.0473,-0.01373,-0.00244,-0.00244,-0.01801,-0.25467,-0.16571,-0.03113,-0.01343,0.01297,-0.05142
10.542,-0.00626,-0.0383,-0.03235,0.01022,-0.03387,-0.047,-0.01404,-0.00092,-0.00366,-0.01663,-0.23926,-0.16754,-0.0325,-0.01236,0.01434,-0.04944
10.5425,-0.00702,-0.03723,-0.03235,0.01663,-0.03372,-0.047,-0.01617,0.00076,-0.00717,-0.01358,-0.22018,-0.13931,-0.03494,-0.01434,0.0148,-0.05112
10.543,-0.00641,-0.03723,-0.0322,0.01953,-0.03387,-0.04868,-0.0177,0.00229,-0.01373,-0.01038,-0.20416,-0.10513,-0.03586,-0.01724,0.01465,-0.05142
10.5435,-0.00549,-0.03815,-0.03326,0.02151,-0.03418,-0.04929,-0.01846,0.0032,-0.02258,-0.00748,-0.19897,-0.08209,-0.0354,-0.01877,0.01343,-0.05066
10.544,-0.00534,-0.03998,-0.03387,0.02167,-0.03387,-0.04959,-0.01755,0.00305,-0.03403,-0.00687,-0.19333,-0.06409,-0.03586,-0.01923,0.01022,-0.04898
10.5445,-0.0058,-0.04028,-0.03342,0.0148,-0.03403,-0.0499,-0.01755,0.00198,-0.04303,-0.009,-0.17685,-0.03738,-0.03662,-0.02167,0.00854,-0.04852
10.545,-0.00687,-0.03967,-0.0325,0.00366,-0.03479,-0.04959,-0.01968,-0.00061,-0.04959,-0.01541,-0.1506,-0.00122,-0.03906,-0.02594,0.00732,-0.04791
10.5455,-0.00702,-0.04028,-0.03342,-0.00534,-0.03326,-0.04929,-0.02167,-0.00229,-0.05371,-0.02258,-0.12802,0.03235,-0.04135,-0.02747,0.00687,-0.04974
10.546,-0.00565,-0.04059,-0.03372,-0.00763,-0.03281,-0.04898,-0.02243,-0.0029,-0.05508,-0.02686,-0.11459,0.05905,-0.04074,-0.02731,0.00717,-0.04883
10.5465,-0.00443,-0.0415,-0.03479,-0.00748,-0.0322,-0.04959,-0.02228,-0.0029,-0.05096,-0.02579,-0.09949,0.07904,-0.03998,-0.02548,0.00824,-0.04776
10.547,-0.00427,-0.04211,-0.03494,-0.00656,-0.0325,-0.04959,-0.02151,-0.00214,-0.04288,-0.01999,-0.07507,0.08606,-0.03922,-0.02426,0.0087,-0.04623
10.5475,-0.00641,-0.04135,-0.03616,-0.0058,-0.03555,-0.04776,-0.02167,-0.00061,-0.03204,-0.01526,-0.04395,0.08408,-0.03906,-0.02289,0.00717,-0.04471
10.548,-0.00778,-0.03998,-0.03601,-0.00427,-0.03448,-0.04623,-0.02243,-0.00153,-0.02289,-0.01465,-0.01862,0.09354,-0.03845,-0.01999,0.00763,-0.04623
10.5485,-0.00778,-0.03998,-0.03525,-0.00214,-0.03372,-0.04669,-0.02213,-0.00275,-0.01495,-0.01907,-0.00946,0.11566,-0.03708,-0.01648,0.0087,-0.047
10.549,-0.00687,-0.04135,-0.03296,0.00259,-0.03265,-0.04837,-0.02106,-0.00427,-0.00977,-0.02518,-0.01328,0.11993,-0.03754,-0.01572,0.0087,-0.04883
10.5495,-0.00656,-0.04166,-0.03265,0.00885,-0.03143,-0.04868,-0.01984,-0.00366,-0.00946,-0.02991,-0.01572,0.09201,-0.03845,-0.01526,0.01007,-0.04608
10.55,-0.00854,-0.04089,-0.03464,0.01694,-0.03036,-0.04684,-0.02014,-0.00198,-0.01251,-0.03296,-0.0148,0.05173,-0.0383,-0.01373,0.01099,-0.04532
10.5505,-0.00885,-0.04135,-0.03632,0.0238,-0.02975,-0.04654,-0.02075,-0.00214,-0.01511,-0.03296,-0.01694,0.03052,-0.03738,-0.01297,0.01022,-0.04562
10.551,-0.00809,-0.04242,-0.03555,0.02884,-0.02869,-0.04761,-0.02121,-0.00214,-0.01282,-0.02991,-0.02853,0.02747,-0.03662,-0.01419,0.01114,-0.04608
10.5515,-0.00687,-0.04257,-0.03448,0.02762,-0.02945,-0.04791,-0.02029,-0.00229,-0.00732,-0.02518,-0.04272,0.02701,-0.03662,-0.01633,0.01205,-0.04715
10.552,-0.00732,-0.04257,-0.03357,0.01785,-0.03067,-0.04761,-0.02014,-0.00275,-0.00259,-0.01816,-0.04089,0.02594,-0.03586,-0.01678,0.01022,-0.05173
10.5525,-0.00793,-0.04303,-0.03387,0.00504,-0.03067,-0.04623,-0.02029,-0.00336,0.00153,-0.00763,-0.00656,0.03189,-0.0351,-0.01694,0.00961,-0.05371
10.553,-0.00748,-0.04303,-0.03571,-0.00793,-0.03036,-0.04562,-0.02029,-0.00412,0.00473,0.00092,0.04517,0.04379,-0.03555,-0.0148,0.00839,-0.05203
10.5535,-0.00702,-0.04257,-0.03647,-0.01938,-0.03067,-0.04715,-0.02029,-0.00443,0.00519,0.0032,0.07919,0.05112,-0.03586,-0.01144,0.01022,-0.04486
10.554,-0.00748,-0.04181,-0.03555,-0.03357,-0.03113,-0.04822,-0.01862,-0.00473,0.00183,-0.00153,0.08759,0.04684,-0.03586,-0.00977,0.01007,-0.03906
10.5545,-0.00793,-0.0412,-0.03555,-0.05188,-0.02914,-0.04868,-0.01678,-0.00534,-0.00244,-0.00839,0.09674,0.03479,-0.03571,-0.01038,0.009,-0.03784
10.555,-0.00732,-0.0415,-0.03601,-0.07126,-0.03052,-0.04944,-0.01556,-0.00565,-0.00351,-0.01282,0.12466,0.02258,-0.03586,-0.01373,0.00931,-0.04013
10.5555,-0.00549,-0.04257,-0.0383,-0.09277,-0.03052,-0.0499,-0.01572,-0.00565,-0.00046,-0.01709,0.16052,0.01129,-0.03723,-0.01511,0.01022,-0.04105
10.556,-0.00381,-0.04395,-0.03799,-0.12421,-0.03067,-0.04959,-0.01617,-0.00656,0.00381,-0.02243,0.18768,-0.00061,-0.03754,-0.01495,0.01129,-0.04166
10.5565,-0.00458,-0.04257,-0.03662,-0.1709,-0.03021,-0.04944,-0.0174,-0.00732,0.00443,-0.02792,0.20584,-0.01419,-0.03891,-0.01541,0.0116,-0.04059
10.557,-0.00534,-0.04105,-0.03555,-0.21576,-0.0296,-0.04837,-0.01648,-0.00717,0.00015,-0.03387,0.22614,-0.02686,-0.04013,-0.01556,0.01007,-0.04135
10.5575,-0.00549,-0.0415,-0.03555,-0.20782,-0.02762,-0.04745,-0.01511,-0.00519,-0.00504,-0.03799,0.24979,-0.03769,-0.04044,-0.01694,0.00916,-0.04196
10.558,-0.00412,-0.04288,-0.03662,-0.11032,-0.02823,-0.04578,-0.01343,-0.0032,-0.01007,-0.04227,0.26947,-0.04486,-0.04013,-0.0174,0.00839,-0.04166
10.5585,-0.00397,-0.04425,-0.03754,0.05051,-0.02762,-0.04562,-0.01465,-0.00244,-0.01465,-0.04883,0.27847,-0.04837,-0.03983,-0.01785,0.00809,-0.04257
10.559,-0.0032,-0.04395,-0.03479,0.18311,-0.02777,-0.04593,-0.01785,-0.00198,-0.01831,-0.05508,0.27847,-0.04868,-0.03891,-0.0174,0.00839,-0.04456
10.5595,-0.00366,-0.04211,-0.03418,0.20844,-0.0267,-0.04593,-0.01862,-0.0029,-0.0209,-0.056,0.27252,-0.04623,-0.03769,-0.01556,0.00763,-0.04456
10.56,-0.0032,-0.04105,-0.03281,0.13733,-0.0264,-0.04562,-0.01617,-0.00473,-0.02411,-0.04974,0.25879,-0.04318,-0.03647,-0.01526,0.00839,-0.04257
10.5605,-0.00229,-0.0415,-0.03357,0.04349,-0.02914,-0.04562,-0.01343,-0.0058,-0.02899,-0.0383,0.23499,-0.0415,-0.03647,-0.01541,0.00931,-0.0415
10.561,-0.00244,-0.04227,-0.03387,-0.01129,-0.03098,-0.047,-0.01297,-0.00732,-0.0351,-0.0267,0.20706,-0.03677,-0.03632,-0.01617,0.00992,-0.04333
10.5615,-0.00397,-0.04089,-0.03387,-0.02426,-0.03265,-0.04761,-0.01373,-0.00732,-0.04166,-0.0177,0.18082,-0.02518,-0.03632,-0.01663,0.01099,-0.04654
10.562,-0.00519,-0.03983,-0.03479,-0.02579,-0.03204,-0.04761,-0.01434,-0.00671,-0.04898,-0.01205,0.15701,-0.00763,-0.03662,-0.01633,0.01282,-0.04639
10.5625,-0.00504,-0.03906,-0.03555,-0.03906,-0.03448,-0.04791,-0.01511,-0.00702,-0.05844,-0.01007,0.13885,0.00916,-0.03647,-0.0177,0.01114,-0.0444
10.563,-0.00366,-0.03998,-0.03448,-0.06042,-0.03464,-0.04822,-0.01633,-0.00702,-0.06653,-0.0116,0.12924,0.01831,-0.03601,-0.01862,0.01038,-0.04379
10.5635,-0.00214,-0.04166,-0.0351,-0.06516,-0.03403,-0.04761,-0.01511,-0.00488,-0.07202,-0.01511,0.12741,0.01968,-0.03616,-0.01968,0.00931,-0.04578
10.564,-0.00351,-0.04333,-0.03464,-0.03082,-0.03372,-0.04745,-0.01282,-0.00305,-0.07141,-0.0174,0.12512,0.01312,-0.03799,-0.02136,0.00809,-0.04807
10.5645,-0.00565,-0.04272,-0.03448,0.03204,-0.03357,-0.04868,-0.01221,-0.00305,-0.06485,-0.01862,0.11688,0.00366,-0.03967,-0.02243,0.00977,-0.04745
10.565,-0.00763,-0.0412,-0.03387,0.08469,-0.03296,-0.04837,-0.01282,-0.00443,-0.05646,-0.01923,0.0914,-0.00519,-0.0383,-0.02213,0.01175,-0.04562
10.5655,-0.00732,-0.03983,-0.03326,0.09521,-0.03372,-0.04898,-0.01373,-0.0058,-0.04898,-0.01801,0.04333,-0.01343,-0.0354,-0.01953,0.01175,-0.04547
10.566,-0.00595,-0.03952,-0.03372,0.06485,-0.03372,-0.04623,-0.01419,-0.0058,-0.04364,-0.01541,-0.02304,-0.01984,-0.03357,-0.01678,0.01099,-0.04807
10.5665,-0.00381,-0.03952,-0.03418,0.02243,-0.03387,-0.04456,-0.0148,-0.00549,-0.03937,-0.01328,-0.10025,-0.0238,-0.03479,-0.01465,0.01068,-0.04868
10.567,-0.00336,-0.03891,-0.03418,-0.00305,-0.0325,-0.04379,-0.01556,-0.00443,-0.03555,-0.01205,-0.18082,-0.02747,-0.03632,-0.0148,0.01053,-0.04791
10.5675,-0.00427,-0.03906,-0.03326,-0.00671,-0.03235,-0.04456,-0.01633,-0.00412,-0.03464,-0.01068,-0.25864,-0.03052,-0.03616,-0.01694,0.00977,-0.04654
10.568,-0.00626,-0.03952,-0.03235,-0.00153,-0.03067,-0.04578,-0.01678,-0.00443,-0.03632,-0.00626,-0.32761,-0.03174,-0.03464,-0.01709,0.00946,-0.04791
10.5685,-0.00763,-0.03922,-0.0322,-0.00259,-0.02838,-0.04639,-0.01694,-0.00534,-0.03799,-0.00198,-0.38376,-0.0293,-0.03357,-0.01495,0.00885,-0.04959
10.569,-0.00778,-0.03967,-0.03342,-0.02106,-0.02945,-0.04684,-0.01602,-0.00656,-0.03967,-0.00076,-0.43365,-0.02411,-0.03418,-0.0145,0.00702,-0.05188
10.5695,-0.00626,-0.03967,-0.03494,-0.05768,-0.03067,-0.04608,-0.01404,-0.00656,-0.03983,-0.00244,-0.48965,-0.01678,-0.03433,-0.01511,0.00626,-0.05447
10.57,-0.00381,-0.04028,-0.0354,-0.09338,-0.02899,-0.04623,-0.0119,-0.00565,-0.03799,-0.00763,-0.55435,-0.00916,-0.03357,-0.01556,0.00549,-0.05661
10.5705,-0.00198,-0.03998,-0.03464,-0.09323,-0.02991,-0.04654,-0.01205,-0.00519,-0.03448,-0.01404,-0.60471,-0.00443,-0.03265,-0.01617,0.00717,-0.05783
10.571,-0.00229,-0.04074,-0.03418,-0.03128,-0.02686,-0.04639,-0.0145,-0.00458,-0.03143,-0.01602,-0.61447,-0.00488,-0.03265,-0.01633,0.00931,-0.05615
10.5715,-0.00412,-0.04028,-0.03403,0.0618,-0.02533,-0.04547,-0.01541,-0.00412,-0.0293,-0.01251,-0.59097,-0.00839,-0.03128,-0.01801,0.01205,-0.05386
10.572,-0.00473,-0.03998,-0.03387,0.12573,-0.02502,-0.04486,-0.01404,-0.00458,-0.02747,-0.00732,-0.56229,-0.01114,-0.03067,-0.01984,0.01297,-0.05142
10.5725,-0.00534,-0.03906,-0.03311,0.13702,-0.02792,-0.0444,-0.01053,-0.00412,-0.02533,-0.00412,-0.54291,-0.01312,-0.02991,-0.0206,0.0119,-0.05173
10.573,-0.00336,-0.03891,-0.0322,0.12436,-0.02823,-0.04425,-0.01053,-0.00412,-0.02274,-0.00641,-0.52475,-0.0148,-0.03036,-0.02014,0.00961,-0.05264
10.5735,-0.00259,-0.03998,-0.03189,0.11688,-0.03082,-0.04654,-0.01175,-0.00443,-0.01953,-0.0116,-0.51132,-0.01419,-0.03128,-0.01999,0.00778,-0.05386
10.574,-0.00214,-0.04074,-0.03296,0.10239,-0.03128,-0.0473,-0.01343,-0.00687,-0.01343,-0.01984,-0.50781,-0.0087,-0.03067,-0.01984,0.00656,-0.05341
10.5745,-0.00381,-0.04105,-0.03357,0.06348,-0.02945,-0.04776,-0.01495,-0.01022,-0.00717,-0.0293,-0.50751,0.00092,-0.03113,-0.01999,0.00427,-0.05234
10.575,-0.00549,-0.04135,-0.03418,0.01053,-0.02914,-0.0473,-0.01587,-0.01144,-0.00153,-0.03784,-0.49469,0.01236,-0.03082,-0.01999,0.0029,-0.05356
10.5755,-0.00534,-0.04135,-0.03479,-0.03006,-0.0293,-0.04745,-0.01587,-0.01022,0.00336,-0.04456,-0.47089,0.0267,-0.03052,-0.01923,0.00183,-0.05493
10.576,-0.0061,-0.04044,-0.03403,-0.04791,-0.02991,-0.047,-0.01495,-0.00854,0.00809,-0.04852,-0.44571,0.04562,-0.03052,-0.01816,0.00427,-0.05432
10.5765,-0.00687,-0.03967,-0.03357,-0.04211,-0.02975,-0.04593,-0.01404,-0.00931,0.00854,-0.04929,-0.41611,0.06729,-0.03006,-0.01831,0.00671,-0.05157
10.577,-0.00732,-0.04013,-0.03143,-0.00916,-0.03281,-0.04486,-0.01389,-0.0116,0.00397,-0.0473,-0.37689,0.08026,-0.02869,-0.01846,0.00931,-0.04822
10.5775,-0.00595,-0.0415,-0.03235,0.03845,-0.03448,-0.04486,-0.01389,-0.01282,-0.00046,-0.04242,-0.33035,0.07645,-0.02701,-0.01907,0.01007,-0.04623
10.578,-0.00443,-0.04257,-0.03464,0.05539,-0.03342,-0.04608,-0.0119,-0.01205,0.00015,-0.03937,-0.28915,0.06058,-0.02579,-0.01892,0.01022,-0.04471
10.5785,-0.00366,-0.04211,-0.03677,0.00351,-0.03098,-0.04822,-0.01053,-0.01068,0.00366,-0.03586,-0.26031,0.04623,-0.0264,-0.01801,0.01114,-0.04196
10.579,-0.00397,-0.0415,-0.03662,-0.08896,-0.03113,-0.04898,-0.01099,-0.00992,0.00641,-0.0322,-0.23987,0.04288,-0.02808,-0.0174,0.01373,-0.03906
10.5795,-0.00336,-0.04028,-0.03571,-0.14633,-0.03204,-0.04715,-0.01251,-0.00778,0.00763,-0.0235,-0.21301,0.04547,-0.02899,-0.01877,0.01556,-0.03677
10.58,-0.00107,-0.03983,-0.03311,-0.13535,-0.03159,-0.04501,-0.01373,-0.00488,0.00854,-0.00366,-0.17578,0.04517,-0.02838,-0.01862,0.01602,-0.03723
10.5805,0.0,-0.03952,-0.03159,-0.09354,-0.03204,-0.04501,-0.01297,-0.00305,0.00809,0.02319,-0.13977,0.02991,-0.02686,-0.01923,0.01495,-0.03937
10.581,-0.00092,-0.03998,-0.03174,-0.06699,-0.03082,-0.04669,-0.01266,-0.00305,0.00473,0.0386,-0.10956,0.00092,-0.02731,-0.01862,0.01465,-0.04013
10.5815,-0.00198,-0.0412,-0.03204,-0.05859,-0.03265,-0.04776,-0.01144,-0.00229,0.0,0.02869,-0.08347,-0.03052,-0.02884,-0.01892,0.01358,-0.03891
10.582,-0.00275,-0.04089,-0.03372,-0.05005,-0.03235,-0.04776,-0.00931,-0.00198,-0.00336,0.00351,-0.05676,-0.05188,-0.02945,-0.01968,0.00916,-0.04044
10.5825,-0.00336,-0.04028,-0.0351,-0.03891,-0.03159,-0.04745,-0.00854,-0.00259,-0.0029,-0.01785,-0.02747,-0.06775,-0.02945,-0.0206,0.00504,-0.04196
10.583,-0.00336,-0.03998,-0.03479,-0.03052,-0.02975,-0.047,-0.00931,-0.00366,0.0,-0.0264,0.00427,-0.08545,-0.02899,-0.01999,0.00549,-0.04303
10.5835,-0.00244,-0.04044,-0.03326,-0.02548,-0.03372,-0.04639,-0.01068,-0.00427,0.00153,-0.03036,0.03983,-0.10956,-0.02884,-0.01862,0.00885,-0.04288
10.584,-0.00183,-0.04135,-0.03082,-0.02289,-0.03494,-0.04578,-0.01175,-0.00214,0.00015,-0.0351,0.07538,-0.13611,-0.02914,-0.01953,0.01129,-0.04318
10.5845,-0.00275,-0.0415,-0.03052,-0.02426,-0.03662,-0.04684,-0.01205,-0.00168,-0.00351,-0.04074,0.10651,-0.16449,-0.03067,-0.02136,0.01099,-0.04395
10.585,-0.00458,-0.04181,-0.03204,-0.03036,-0.03525,-0.0473,-0.01205,-0.00214,-0.00671,-0.04181,0.12878,-0.19409,-0.03113,-0.02289,0.00839,-0.04547
10.5855,-0.00504,-0.04166,-0.03433,-0.03967,-0.03342,-0.04852,-0.01236,-0.00443,-0.00778,-0.03998,0.14435,-0.21912,-0.02991,-0.02289,0.00595,-0.04623
10.586,-0.00381,-0.04166,-0.03555,-0.047,-0.0293,-0.04898,-0.01266,-0.00641,-0.00687,-0.03754,0.15457,-0.21729,-0.02914,-0.0235,0.00565,-0.04562
10.5865,-0.00244,-0.04044,-0.03525,-0.05112,-0.02731,-0.04761,-0.01358,-0.00793,-0.0061,-0.03586,0.16129,-0.1564,-0.02838,-0.0235,0.00458,-0.04517
10.587,-0.00305,-0.03967,-0.03372,-0.05219,-0.02457,-0.04654,-0.0148,-0.00824,-0.00549,-0.03387,0.159,-0.01099,-0.02823,-0.02228,0.00671,-0.04547
10.5875,-0.00412,-0.03967,-0.03235,-0.0473,-0.02686,-0.04654,-0.01694,-0.00641,-0.00427,-0.03311,0.14603,0.18677,-0.02899,-0.02075,0.00961,-0.04532
10.588,-0.00458,-0.03891,-0.03296,-0.0351,-0.02884,-0.04776,-0.01678,-0.00458,-0.00275,-0.0325,0.13138,0.3334,-0.02914,-0.01999,0.00946,-0.04456
10.5885,-0.00412,-0.03906,-0.03235,-0.00748,-0.03006,-0.04913,-0.01678,-0.00397,-0.00107,-0.03113,0.12955,0.33524,-0.02853,-0.01953,0.01068,-0.04456
10.589,-0.00473,-0.03876,-0.0322,0.03265,-0.02884,-0.04837,-0.01709,-0.00336,0.00015,-0.02914,0.1387,0.21759,-0.02716,-0.01862,0.00656,-0.04593
10.5895,-0.0032,-0.03815,-0.03342,0.06516,-0.03021,-0.04715,-0.01694,-0.00168,0.00076,-0.02518,0.14709,0.09384,-0.02655,-0.01617,0.0087,-0.04715
10.59,-0.00229,-0.03738,-0.03494,0.06439,-0.03067,-0.04761,-0.01495,0.00015,0.00046,-0.02213,0.15091,0.03387,-0.02716,-0.01434,0.00473,-0.04791
10.5905,-0.00229,-0.03677,-0.03738,0.03174,-0.03189,-0.04929,-0.0119,0.00031,-0.00092,-0.01785,0.15152,0.01785,-0.02853,-0.01541,0.00626,-0.04929
10.591,-0.00443,-0.03693,-0.03662,-0.00305,-0.03372,-0.0502,-0.01068,-0.00183,-0.00153,-0.01434,0.15152,0.01175,-0.03006,-0.01923,0.00427,-0.05157
10.5915,-0.00565,-0.03723,-0.03632,-0.01801,-0.03159,-0.04929,-0.01297,-0.00351,-0.00031,-0.01221,0.15472,0.00977,-0.03098,-0.02274,0.00778,-0.05447
10.592,-0.00458,-0.03738,-0.03632,-0.01434,-0.02838,-0.04822,-0.01572,-0.0061,0.00305,-0.01175,0.16464,0.01114,-0.03052,-0.0235,0.0087,-0.05524
10.5925,-0.00275,-0.03784,-0.0354,-0.01007,-0.02899,-0.04669,-0.01648,-0.00824,0.00595,-0.01129,0.18097,0.00809,-0.0293,-0.02167,0.01465,-0.05203
10.593,-0.0029,-0.03906,-0.03464,-0.01099,-0.03021,-0.04654,-0.01572,-0.00916,0.00702,-0.01068,0.20508,0.00458,-0.02853,-0.01953,0.01602,-0.04929
10.5935,-0.00443,-0.03967,-0.03433,-0.01389,-0.03357,-0.04639,-0.01633,-0.00778,0.00595,-0.00778,0.23331,0.00977,-0.02975,-0.01938,0.03403,-0.04562
10.594,-0.0061,-0.04044,-0.03494,-0.01602,-0.03204,-0.04639,-0.01846,-0.00671,0.00214,-0.00504,0.25253,0.01648,-0.03036,-0.01923,0.03464,-0.04288
10.5945,-0.0058,-0.04059,-0.03632,-0.01694,-0.03204,-0.0473,-0.0209,-0.00793,-0.00122,-0.00397,0.25742,0.01205,-0.03021,-0.01892,0.00854,-0.03952
10.595,-0.00443,-0.04044,-0.03708,-0.0174,-0.03143,-0.04745,-0.0209,-0.01007,-0.00336,-0.00488,0.25711,0.00046,-0.02945,-0.01877,-0.03204,-0.03677
10.5955,-0.00473,-0.04028,-0.03601,-0.01801,-0.03113,-0.04868,-0.01938,-0.01068,-0.00397,-0.00793,0.25818,-0.00427,-0.0293,-0.01755,-0.06195,-0.03265
10.596,-0.00458,-0.0415,-0.03494,-0.01953,-0.03036,-0.0499,-0.01831,-0.00916,-0.00381,-0.01083,0.2594,-0.00031,-0.02991,-0.01678,-0.06256,-0.03174
10.5965,-0.00458,-0.04288,-0.03601,-0.01923,-0.03067,-0.04944,-0.01923,-0.00854,-0.00412,-0.0119,0.25772,-0.00122,-0.03113,-0.01755,-0.04837,-0.03387
10.597,-0.00412,-0.04211,-0.0354,-0.01816,-0.03098,-0.05035,-0.01953,-0.00916,-0.00687,-0.01068,0.25528,-0.01358,-0.03174,-0.01938,-0.0264,-0.03876
10.5975,-0.00412,-0.0412,-0.03357,-0.01572,-0.03052,-0.05035,-0.01938,-0.00931,-0.00992,-0.0087,0.25436,-0.03723,-0.03128,-0.02014,-0.00916,-0.04349
10.598,-0.00519,-0.04105,-0.03586,-0.01511,-0.02808,-0.04929,-0.01877,-0.00793,-0.01205,-0.009,0.25391,-0.06851,-0.03036,-0.01984,0.00198,-0.04272
10.5985,-0.00427,-0.04272,-0.0351,-0.01572,-0.02625,-0.04807,-0.0174,-0.00671,-0.01129,-0.01099,0.24796,-0.08835,-0.02991,-0.01892,0.02365,-0.03998
10.599,-0.00275,-0.04272,-0.03418,-0.01572,-0.02655,-0.0473,-0.01785,-0.00656,-0.00763,-0.01328,0.24017,-0.06821,-0.03128,-0.01831,0.0528,-0.03845
10.5995,-0.00137,-0.04166,-0.03952,-0.01602,-0.02731,-0.04837,-0.01816,-0.00748,-0.00412,-0.01358,0.23193,-0.01678,-0.03143,-0.01831,0.06775,-0.03952
10.6,-0.00198,-0.04013,-0.03754,-0.01556,-0.02594,-0.04868,-0.01755,-0.00778,-0.00214,-0.01144,0.2269,0.00977,-0.03128,-0.01816,0.05478,-0.0415
10.6005,-0.00351,-0.04105,-0.03555,-0.01495,-0.0264,-0.047,-0.01724,-0.00809,-0.00366,-0.01053,0.22232,-0.02655,-0.03098,-0.01755,0.02441,-0.04318
10.601,-0.00473,-0.04227,-0.03403,-0.0145,-0.02487,-0.04395,-0.01801,-0.00854,-0.00534,-0.01038,0.215,-0.09338,-0.03052,-0.01724,-0.01694,-0.04547
10.6015,-0.00336,-0.04166,-0.03021,-0.01358,-0.02716,-0.04364,-0.01801,-0.00824,-0.00565,-0.01205,0.20401,-0.12024,-0.03052,-0.0177,-0.03204,-0.04578
10.602,-0.00229,-0.04028,-0.02945,-0.01266,-0.02945,-0.04608,-0.01724,-0.00671,-0.00443,-0.01465,0.18967,-0.07553,-0.03006,-0.01816,-0.02121,-0.04379
10.6025,-0.00137,-0.03937,-0.03342,-0.01205,-0.0322,-0.04791,-0.01648,-0.00626,-0.00397,-0.0174,0.17151,0.0058,-0.0293,-0.01862,0.00092,-0.0386
10.603,-0.00092,-0.04074,-0.03464,-0.01068,-0.03357,-0.04684,-0.01572,-0.00641,-0.00397,-0.01923,0.15457,0.07324,-0.0296,-0.01709,0.02808,-0.03357
10.6035,-0.00168,-0.0412,-0.0354,-0.01083,-0.03265,-0.04471,-0.01511,-0.00809,-0.0029,-0.01953,0.14175,0.10193,-0.03113,-0.0148,0.03922,-0.03311
10.604,-0.0029,-0.04089,-0.03448,-0.01175,-0.03082,-0.0444,-0.0148,-0.00977,-0.00366,-0.01862,0.13092,0.09995,-0.03204,-0.01343,0.04593,-0.03906
10.6045,-0.00443,-0.04135,-0.03662,-0.01266,-0.02899,-0.04486,-0.01587,-0.01099,-0.00839,-0.01755,0.11932,0.08255,-0.03082,-0.01358,0.04654,-0.04883
10.605,-0.00504,-0.04288,-0.03647,-0.01266,-0.02853,-0.04669,-0.01694,-0.01038,-0.01221,-0.01694,0.10941,0.05615,-0.03021,-0.01556,0.04425,-0.05737
10.6055,-0.00488,-0.0444,-0.03464,-0.01053,-0.02899,-0.04807,-0.01831,-0.00916,-0.01312,-0.01663,0.09644,0.03021,-0.03082,-0.0174,0.03845,-0.0618
10.606,-0.00595,-0.04532,-0.03204,-0.00824,-0.03021,-0.04837,-0.01862,-0.00778,-0.01053,-0.01694,0.07736,0.01175,-0.03296,-0.01877,0.02838,-0.05646
10.6065,-0.00732,-0.04486,-0.03235,-0.00778,-0.03006,-0.04776,-0.01846,-0.00702,-0.00763,-0.0177,0.05875,0.00153,-0.03387,-0.01999,0.02213,-0.04395
10.607,-0.00809,-0.04379,-0.03098,-0.00702,-0.0296,-0.04807,-0.01678,-0.00595,-0.00671,-0.01892,0.04639,0.00244,-0.03296,-0.02182,0.02106,-0.03204
10.6075,-0.00748,-0.04272,-0.03052,-0.00671,-0.02975,-0.04959,-0.01434,-0.00549,-0.00809,-0.01907,0.03555,0.01587,-0.0325,-0.02441,0.01633,-0.02747
10.608,-0.00717,-0.04272,-0.03113,-0.00748,-0.02975,-0.05081,-0.01312,-0.00443,-0.00916,-0.01846,0.02304,0.04074,-0.03235,-0.02716,0.01251,-0.02975
10.6085,-0.00748,-0.04227,-0.03235,-0.00687,-0.02991,-0.04974,-0.01328,-0.0032,-0.01099,-0.01877,0.00916,0.07202,-0.03296,-0.02777,0.00534,-0.03342
10.609,-0.00748,-0.04318,-0.03616,-0.00427,-0.03021,-0.04898,-0.01541,-0.00351,-0.01328,-0.01907,0.00031,0.10223,-0.03265,-0.02594,0.00519,-0.03525
10.6095,-0.00549,-0.04227,-0.03723,-0.00229,-0.03067,-0.04761,-0.01678,-0.00244,-0.0148,-0.01953,0.0,0.11002,-0.03113,-0.02319,0.01053,-0.03448
10.61,-0.00214,-0.04181,-0.03616,-0.00122,-0.0322,-0.04761,-0.01678,-0.00168,-0.01251,-0.01816,0.00427,0.07187,-0.02991,-0.0206,0.01862,-0.03265
10.6105,-0.00122,-0.0415,-0.03357,-0.00198,-0.03326,-0.04715,-0.01709,-0.00107,-0.00946,-0.01678,0.00702,-0.00504,-0.03006,-0.01831,0.02701,-0.02914
10.611,-0.00305,-0.04242,-0.03326,-0.00214,-0.03342,-0.04669,-0.01678,-0.00214,-0.01007,-0.01801,0.01007,-0.08148,-0.0296,-0.01678,0.02838,-0.02319
10.6115,-0.00443,-0.04333,-0.03403,-0.00183,-0.03189,-0.04684,-0.01678,-0.00381,-0.0148,-0.02106,0.0174,-0.121,-0.02899,-0.01755,0.01663,-0.01617
10.612,-0.00412,-0.04257,-0.03555,-0.00305,-0.0296,-0.047,-0.01617,-0.00488,-0.01846,-0.02548,0.02945,-0.11322,-0.02991,-0.01862,0.00488,-0.01419
10.6125,-0.00488,-0.04059,-0.03555,-0.00519,-0.02975,-0.047,-0.0148,-0.00473,-0.01831,-0.02823,0.0386,-0.07751,-0.03082,-0.01862,0.00137,-0.01755
10.613,-0.00519,-0.03922,-0.03433,-0.00595,-0.03052,-0.04623,-0.01389,-0.00397,-0.01648,-0.03113,0.03967,-0.04181,-0.03082,-0.01846,0.00214,-0.02304
10.6135,-0.0061,-0.04013,-0.03235,-0.00351,-0.0322,-0.04623,-0.01373,-0.00366,-0.01648,-0.03448,0.03799,-0.02396,-0.03143,-0.01923,0.00031,-0.02823
10.614,-0.00534,-0.04349,-0.03326,-0.00031,-0.03296,-0.04684,-0.01358,-0.00305,-0.01892,-0.03586,0.03906,-0.01999,-0.0322,-0.02106,-0.01862,-0.03479
10.6145,-0.00565,-0.04547,-0.03342,-0.00305,-0.03403,-0.04959,-0.01282,-0.00153,-0.02289,-0.03479,0.0444,-0.01816,-0.03326,-0.02136,-0.03571,-0.04242
10.615,-0.00626,-0.04532,-0.03296,-0.01587,-0.0351,-0.0502,-0.01297,0.0,-0.02609,-0.03143,0.0528,-0.01007,-0.03357,-0.01984,-0.04333,-0.0473
10.6155,-0.00595,-0.04395,-0.03143,-0.03098,-0.03571,-0.05051,-0.01328,-0.00046,-0.02731,-0.0267,0.06134,0.0,-0.03235,-0.0177,-0.03784,-0.04532
10.616,-0.00519,-0.04288,-0.03174,-0.03571,-0.03601,-0.04959,-0.01297,-0.00229,-0.02701,-0.02106,0.06821,0.00443,-0.03082,-0.01724,-0.02136,-0.0386
10.6165,-0.00534,-0.0415,-0.03235,-0.02563,-0.03555,-0.04929,-0.01343,-0.0029,-0.02792,-0.01724,0.07584,0.00076,-0.03113,-0.01678,-0.0058,-0.03342
10.617,-0.00641,-0.04028,-0.03113,-0.0119,-0.0354,-0.047,-0.01297,-0.00336,-0.02823,-0.01587,0.08591,-0.00214,-0.03265,-0.01633,0.00107,-0.03403
10.6175,-0.00687,-0.03952,-0.03235,-0.00427,-0.03433,-0.04669,-0.01251,-0.00427,-0.02747,-0.01617,0.09216,0.00336,-0.03464,-0.01755,-0.00275,-0.03754
10.618,-0.00687,-0.03998,-0.03342,-0.00458,-0.03403,-0.04715,-0.0119,-0.00458,-0.02472,-0.01587,0.09277,0.01892,-0.03677,-0.01831,0.00473,-0.04105
10.6185,-0.00595,-0.04044,-0.03525,-0.00458,-0.03403,-0.04776,-0.01144,-0.00336,-0.02304,-0.0148,0.09262,0.03693,-0.03815,-0.01846,0.01022,-0.04089
10.619,-0.00595,-0.03998,-0.03296,0.0,-0.03479,-0.04654,-0.01129,-0.00229,-0.02487,-0.01297,0.09232,0.04669,-0.03845,-0.01862,0.00656,-0.03647
10.6195,-0.00519,-0.03906,-0.03708,0.00519,-0.03479,-0.04639,-0.01068,-0.00061,-0.02701,-0.01251,0.09186,0.04578,-0.03815,-0.0174,-0.00443,-0.03036
10.62,-0.00381,-0.03952,-0.03311,0.00946,-0.03632,-0.04684,-0.01129,0.00076,-0.02747,-0.01312,0.09598,0.0386,-0.03693,-0.01755,-0.00778,-0.02625
10.6205,-0.00183,-0.04028,-0.03586,0.00992,-0.03784,-0.04745,-0.01221,0.00153,-0.02563,-0.01434,0.10834,0.02808,-0.0351,-0.01862,-0.00015,-0.02533
10.621,-0.00198,-0.03983,-0.03479,0.00854,-0.03647,-0.04868,-0.01343,0.00168,-0.02121,-0.01434,0.12207,0.01541,-0.03387,-0.01846,0.02136,-0.02777
10.6215,-0.00305,-0.03906,-0.03662,0.00488,-0.03601,-0.04959,-0.01511,0.00214,-0.01404,-0.01373,0.12848,-0.00061,-0.03326,-0.01694,0.03464,-0.0325
10.622,-0.00458,-0.03845,-0.03448,-0.00015,-0.03555,-0.04929,-0.01434,0.00244,-0.00732,-0.01328,0.12039,-0.02365,-0.03418,-0.01694,0.03952,-0.03601
10.6225,-0.00504,-0.03952,-0.03601,-0.00488,-0.03403,-0.04913,-0.01328,0.00275,-0.00244,-0.01556,0.10391,-0.05981,-0.03464,-0.01846,0.03174,-0.03784
10.623,-0.00473,-0.04166,-0.03403,-0.00702,-0.03342,-0.04837,-0.01404,0.00214,-0.00107,-0.01846,0.08972,-0.10269,-0.03342,-0.01923,0.02701,-0.0386
10.6235,-0.00412,-0.04333,-0.03479,-0.00977,-0.03555,-0.04807,-0.01556,0.00168,-0.00061,-0.01862,0.08652,-0.13351,-0.03265,-0.01862,0.01907,-0.03952
10.624,-0.00427,-0.04303,-0.03418,-0.01556,-0.03403,-0.0473,-0.01663,0.00015,0.00168,-0.0148,0.09369,-0.14206,-0.03204,-0.01617,0.01022,-0.03983
10.6245,-0.00366,-0.04333,-0.03571,-0.02228,-0.03387,-0.04684,-0.01511,0.0,0.00381,-0.00977,0.10101,-0.13,-0.03143,-0.01434,0.0029,-0.0383
10.625,-0.0032,-0.0444,-0.03647,-0.02625,-0.0351,-0.04593,-0.01175,0.00076,0.00229,-0.00702,0.10132,-0.10529,-0.03128,-0.01404,-0.00061,-0.03647
10.6255,-0.00351,-0.0444,-0.03647,-0.02609,-0.03799,-0.04654,-0.00946,0.00092,-0.00137,-0.00778,0.10056,-0.06897,-0.03143,-0.01389,0.00214,-0.03494
10.626,-0.00366,-0.04333,-0.03662,-0.02502,-0.03632,-0.04822,-0.00854,0.00015,-0.00534,-0.00946,0.09827,-0.02563,-0.0322,-0.01556,0.00702,-0.03418
10.6265,-0.00336,-0.04288,-0.03571,-0.02518,-0.03601,-0.04929,-0.01129,-0.00198,-0.00732,-0.01144,0.09201,0.00946,-0.03372,-0.01831,0.01068,-0.03281
10.627,-0.0029,-0.04349,-0.03464,-0.0264,-0.03662,-0.04883,-0.01389,-0.00351,-0.009,-0.01205,0.08469,0.02533,-0.03586,-0.02106,0.01114,-0.02914
10.6275,-0.00366,-0.04471,-0.03433,-0.02365,-0.03571,-0.04822,-0.01694,-0.00366,-0.0119,-0.01144,0.07874,0.02472,-0.03693,-0.02167,0.01221,-0.02609
10.628,-0.00412,-0.04395,-0.03708,-0.0177,-0.03265,-0.04807,-0.01999,-0.00244,-0.01755,-0.0116,0.0737,0.02319,-0.03464,-0.01968,0.0119,-0.02563
10.6285,-0.00504,-0.04242,-0.0354,-0.01114,-0.03326,-0.04745,-0.02365,-0.00046,-0.02426,-0.01312,0.06866,0.0322,-0.03387,-0.01816,0.00549,-0.0293
10.629,-0.0061,-0.04181,-0.03632,-0.00687,-0.03174,-0.04593,-0.02487,0.00137,-0.0296,-0.0174,0.05966,0.04623,-0.03494,-0.01846,-0.00076,-0.03494
10.6295,-0.00671,-0.0415,-0.03632,-0.00595,-0.0293,-0.04395,-0.02365,0.00259,-0.03448,-0.01999,0.04791,0.047,-0.03601,-0.01953,-0.00351,-0.03891
10.63,-0.00671,-0.0415,-0.03601,-0.00443,-0.0322,-0.0444,-0.02197,0.00168,-0.03571,-0.02075,0.04013,0.03128,-0.03677,-0.01953,-0.00153,-0.03906
10.6305,-0.00534,-0.04181,-0.0351,-0.00351,-0.03342,-0.04623,-0.02319,0.00046,-0.03281,-0.01877,0.04166,0.01129,-0.03632,-0.01938,0.00427,-0.03403
10.631,-0.00427,-0.04196,-0.03372,-0.00473,-0.0351,-0.04745,-0.02411,-0.00031,-0.02533,-0.01694,0.04456,0.00275,-0.03342,-0.01846,0.01022,-0.0293
10.6315,-0.00351,-0.04257,-0.0354,-0.00717,-0.03189,-0.04761,-0.02167,-0.00092,-0.01556,-0.0177,0.03708,0.00458,-0.03204,-0.01846,0.01144,-0.02914
10.632,-0.00504,-0.04349,-0.03525,-0.00946,-0.0322,-0.04776,-0.01923,-0.00046,-0.00778,-0.01907,0.0267,0.00534,-0.03357,-0.01999,0.00504,-0.03418
10.6325,-0.00687,-0.04349,-0.03677,-0.009,-0.03128,-0.04944,-0.01846,-0.00015,-0.00381,-0.01938,0.01892,0.0,-0.03525,-0.02045,-0.00015,-0.03967
10.633,-0.00839,-0.04211,-0.0322,-0.00671,-0.03082,-0.0502,-0.01907,0.00076,-0.00214,-0.01724,0.01083,-0.00839,-0.03555,-0.01968,-0.00198,-0.04227
10.6335,-0.00793,-0.04074,-0.03342,-0.00473,-0.03342,-0.05127,-0.01907,0.00076,-0.00107,-0.01419,0.00122,-0.0116,-0.03464,-0.01968,-0.00092,-0.04059
10.634,-0.00717,-0.03937,-0.03494,-0.00427,-0.03403,-0.05096,-0.01709,0.0,-0.00305,-0.0119,-0.00565,-0.00885,-0.03342,-0.02075,0.00168,-0.03952
10.6345,-0.00641,-0.03952,-0.03571,-0.00488,-0.03387,-0.0502,-0.01526,-0.00061,-0.00778,-0.00961,-0.00931,-0.00458,-0.03174,-0.02136,0.00778,-0.04074
10.635,-0.00488,-0.03983,-0.0351,-0.00397,-0.03403,-0.05081,-0.01404,-0.00183,-0.0119,-0.00778,-0.01694,-0.00336,-0.03128,-0.0209,0.01068,-0.0415
10.6355,-0.00336,-0.04013,-0.03326,-0.00305,-0.03326,-0.05188,-0.01373,-0.00351,-0.01282,-0.00732,-0.03357,-0.00641,-0.03204,-0.02014,0.01587,-0.03967
10.636,-0.00275,-0.03967,-0.03265,-0.0029,-0.03357,-0.05234,-0.01266,-0.00519,-0.01404,-0.00931,-0.0531,-0.0119,-0.03311,-0.02045,0.0174,-0.03662
10.6365,-0.0029,-0.03983,-0.03265,-0.00412,-0.0325,-0.05112,-0.01251,-0.00488,-0.01724,-0.01389,-0.06546,-0.01083,-0.03357,-0.02151,0.01617,-0.03494
10.637,-0.00244,-0.04135,-0.03448,-0.00488,-0.03555,-0.04944,-0.01389,-0.00488,-0.02151,-0.02029,-0.06332,0.00565,-0.03433,-0.02243,0.01129,-0.0351
10.6375,-0.00183,-0.04227,-0.03235,-0.0058,-0.03387,-0.04868,-0.0145,-0.00504,-0.02426,-0.02731,-0.05463,0.03448,-0.0354,-0.02121,0.00778,-0.03525
10.638,-0.00183,-0.04349,-0.0351,-0.00534,-0.03342,-0.0473,-0.01389,-0.0061,-0.02319,-0.03265,-0.04822,0.05875,-0.03586,-0.0209,0.00443,-0.03601
10.6385,-0.00427,-0.04364,-0.0351,-0.00488,-0.03296,-0.04623,-0.0119,-0.00641,-0.02258,-0.03403,-0.04684,0.0647,-0.03662,-0.02304,0.00107,-0.03815
10.639,-0.0061,-0.04349,-0.03387,-0.00549,-0.03372,-0.04532,-0.01114,-0.00504,-0.02304,-0.03174,-0.04837,0.05524,-0.03769,-0.02686,0.00549,-0.03906
10.6395,-0.0058,-0.04257,-0.03296,-0.00717,-0.03174,-0.04623,-0.01236,-0.00107,-0.02335,-0.02884,-0.05585,0.03998,-0.0386,-0.02884,0.00946,-0.03647
10.64,-0.00397,-0.0412,-0.03021,-0.00778,-0.03265,-0.04761,-0.01328,0.00137,-0.02197,-0.02518,-0.06409,0.02533,-0.03723,-0.02701,0.01297,-0.03372
10.6405,-0.0032,-0.04013,-0.03372,-0.00793,-0.03204,-0.04837,-0.01312,0.00153,-0.0174,-0.02167,-0.06882,0.01022,-0.03494,-0.01999,0.00931,-0.03555
10.641,-0.00351,-0.03983,-0.03189,-0.00809,-0.03036,-0.04852,-0.01205,0.00046,-0.01236,-0.02106,-0.06851,-0.00412,-0.03265,-0.0145,0.00305,-0.03998
10.6415,-0.00473,-0.03815,-0.03204,-0.009,-0.02991,-0.04791,-0.01114,0.00015,-0.00961,-0.02335,-0.07004,-0.01556,-0.03128,-0.01312,-0.01678,-0.0415
10.642,-0.00671,-0.03815,-0.03189,-0.009,-0.02945,-0.04791,-0.01205,0.0,-0.01053,-0.02609,-0.07263,-0.02197,-0.03052,-0.0148,-0.03098,-0.03632
10.6425,-0.00671,-0.0386,-0.03281,-0.0087,-0.02975,-0.04776,-0.01328,-0.00061,-0.01389,-0.02701,-0.06516,-0.01892,-0.03082,-0.01648,-0.03387,-0.03098
10.643,-0.00519,-0.03906,-0.0351,-0.00824,-0.02945,-0.04776,-0.01373,-0.00046,-0.01999,-0.02701,-0.04639,-0.00687,-0.0322,-0.01816,-0.03052,-0.02975
10.6435,-0.00397,-0.03937,-0.03448,-0.00793,-0.02869,-0.04745,-0.01434,-0.00015,-0.02991,-0.0293,-0.02869,0.00046,-0.03387,-0.01968,-0.02472,-0.03143
10.644,-0.00259,-0.03967,-0.03418,-0.00824,-0.02869,-0.04791,-0.01465,-0.00076,-0.03937,-0.03372,-0.02457,-0.01953,-0.03357,-0.02167,-0.03021,-0.03265
10.6445,-0.00259,-0.04089,-0.03525,-0.01053,-0.02884,-0.04852,-0.01495,-0.00168,-0.04333,-0.03433,-0.03815,-0.06943,-0.03357,-0.02258,-0.0351,-0.03159
10.645,-0.00275,-0.0412,-0.03448,-0.0119,-0.03036,-0.04837,-0.01495,-0.00137,-0.03922,-0.02899,-0.0592,-0.10849,-0.03418,-0.02365,-0.04196,-0.0322
10.6455,-0.00366,-0.04013,-0.03418,-0.01236,-0.03296,-0.04913,-0.01495,-0.00168,-0.03326,-0.02121,-0.07767,-0.1004,-0.03479,-0.02441,-0.02457,-0.03571
10.646,-0.00488,-0.03723,-0.03494,-0.01312,-0.03265,-0.0502,-0.01556,-0.00061,-0.03235,-0.01419,-0.09262,-0.06027,-0.03555,-0.02457,0.00839,-0.04318
10.6465,-0.00488,-0.03525,-0.03418,-0.01419,-0.03357,-0.05081,-0.01419,0.00137,-0.03525,-0.00916,-0.10788,-0.03586,-0.03586,-0.02396,0.0386,-0.04944
10.647,-0.0058,-0.03586,-0.03326,-0.01434,-0.03265,-0.04868,-0.0148,0.00305,-0.03616,-0.00717,-0.11459,-0.05112,-0.03494,-0.02106,0.04059,-0.05356
10.6475,-0.00687,-0.03693,-0.03342,-0.01389,-0.03128,-0.04684,-0.01404,0.0029,-0.03235,-0.00641,-0.10834,-0.08621,-0.03281,-0.01877,0.03021,-0.05707
10.648,-0.00702,-0.03754,-0.03525,-0.01373,-0.03326,-0.047,-0.01389,0.00061,-0.02609,-0.00488,-0.10193,-0.11215,-0.03204,-0.01816,0.02563,-0.05875
10.6485,-0.00778,-0.03876,-0.03632,-0.01556,-0.03342,-0.04532,-0.01358,-0.00122,-0.0206,-0.00259,-0.10269,-0.12497,-0.03311,-0.01846,0.03906,-0.05493
10.649,-0.00687,-0.0386,-0.03647,-0.01709,-0.03204,-0.04318,-0.01343,-0.00259,-0.01938,-0.00259,-0.10254,-0.13138,-0.03464,-0.01816,0.04669,-0.04623
10.6495,-0.00549,-0.0386,-0.03662,-0.0177,-0.03021,-0.04196,-0.01266,-0.00229,-0.02014,-0.00519,-0.09171,-0.13596,-0.03418,-0.01694,0.04181,-0.04059
10.65,-0.00427,-0.03754,-0.03662,-0.01541,-0.0293,-0.04181,-0.01144,0.00015,-0.02029,-0.01038,-0.07675,-0.13351,-0.03311,-0.01678,0.03418,-0.04211
10.6505,-0.00336,-0.03708,-0.03586,-0.01221,-0.03021,-0.04303,-0.01129,0.00336,-0.01877,-0.01343,-0.06805,-0.11108,-0.03326,-0.01709,0.03723,-0.04959
10.651,-0.00412,-0.03662,-0.03418,-0.01022,-0.03098,-0.04135,-0.01266,0.0058,-0.01602,-0.01556,-0.06638,-0.0473,-0.03418,-0.01846,0.04761,-0.05356
10.6515,-0.00534,-0.03723,-0.03387,-0.00931,-0.02914,-0.03998,-0.01358,0.0058,-0.01343,-0.01617,-0.06912,0.06516,-0.03494,-0.01907,0.04837,-0.05219
10.652,-0.0058,-0.03845,-0.03372,-0.00748,-0.02716,-0.04028,-0.01373,0.0032,-0.01328,-0.01862,-0.07187,0.18402,-0.03418,-0.02029,0.04791,-0.04745
10.6525,-0.00534,-0.04059,-0.03418,-0.00275,-0.02823,-0.04242,-0.01297,0.00015,-0.0148,-0.02014,-0.07904,0.23468,-0.03403,-0.0209,0.04257,-0.04608
10.653,-0.00412,-0.04181,-0.03357,0.00961,-0.03143,-0.04379,-0.01236,-0.00046,-0.01846,-0.0238,-0.09018,0.19821,-0.03525,-0.02045,0.03525,-0.04608
10.6535,-0.00397,-0.04166,-0.0322,0.02594,-0.0322,-0.04395,-0.01221,-0.00046,-0.02472,-0.02853,-0.10269,0.13901,-0.0354,-0.02151,0.0264,-0.0441
10.654,-0.0061,-0.04013,-0.03265,0.0351,-0.0293,-0.04456,-0.01282,-0.00244,-0.02914,-0.03143,-0.11734,0.1091,-0.0354,-0.02274,0.01541,-0.04181
10.6545,-0.00687,-0.0386,-0.0325,0.02945,-0.02792,-0.04425,-0.01266,-0.00504,-0.03067,-0.03342,-0.12863,0.09537,-0.03418,-0.02167,0.01114,-0.0415
10.655,-0.00595,-0.03815,-0.03281,0.01511,-0.0293,-0.04471,-0.01129,-0.00397,-0.02716,-0.03174,-0.13641,0.07202,-0.03296,-0.01846,0.01175,-0.04242
10.6555,-0.00351,-0.03983,-0.0325,0.00351,-0.03311,-0.04456,-0.01038,-0.00046,-0.02045,-0.02655,-0.13672,0.04913,-0.03021,-0.01648,0.01022,-0.04288
10.656,-0.00351,-0.04135,-0.03204,-0.00366,-0.03448,-0.04471,-0.00992,0.00168,-0.01373,-0.01816,-0.13168,0.04501,-0.02869,-0.01602,0.0116,-0.04135
10.6565,-0.00366,-0.04135,-0.03311,-0.01144,-0.03296,-0.04532,-0.01114,0.00153,-0.01144,-0.009,-0.12589,0.0528,-0.02823,-0.01541,0.00824,-0.03952
10.657,-0.00381,-0.04028,-0.03296,-0.02335,-0.03098,-0.04623,-0.0116,0.00015,-0.01205,-0.00412,-0.11566,0.05814,-0.02914,-0.01404,0.01038,-0.03952
10.6575,-0.00458,-0.04013,-0.03418,-0.03616,-0.03189,-0.04547,-0.01251,-0.00137,-0.01266,-0.00427,-0.09918,0.05493,-0.03098,-0.01221,0.00748,-0.03845
10.658,-0.00473,-0.0412,-0.03143,-0.04608,-0.03326,-0.04501,-0.01236,-0.00198,-0.01053,-0.00732,-0.08301,0.04578,-0.0325,-0.01221,0.00885,-0.03601
10.6585,-0.00519,-0.04089,-0.03372,-0.05096,-0.03311,-0.0441,-0.01297,-0.00183,-0.01007,-0.0116,-0.07568,0.03235,-0.03128,-0.01389,0.02045,-0.03464
10.659,-0.00488,-0.04089,-0.03586,-0.04898,-0.0325,-0.04272,-0.01297,-0.00076,-0.01526,-0.01526,-0.07065,0.02304,-0.03021,-0.01587,0.01541,-0.03555
10.6595,-0.00244,-0.04135,-0.03387,-0.03906,-0.03021,-0.0412,-0.01373,-0.00061,-0.02304,-0.01907,-0.06348,0.02563,-0.03036,-0.01755,0.01175,-0.0383
10.66,-0.00122,-0.04242,-0.03494,-0.02228,-0.0293,-0.04074,-0.01358,-0.00198,-0.02991,-0.02243,-0.05997,0.03418,-0.03159,-0.0177,0.00824,-0.03983
10.6605,-0.00183,-0.04318,-0.03159,-0.00061,-0.02975,-0.04303,-0.01266,-0.00427,-0.03113,-0.02518,-0.06317,0.03128,-0.03189,-0.01816,0.00702,-0.04105
10.661,-0.00381,-0.04196,-0.0325,0.01724,-0.03159,-0.04425,-0.01175,-0.00702,-0.02945,-0.02808,-0.07004,0.0119,-0.03128,-0.01846,0.00336,-0.04196
10.6615,-0.00381,-0.03952,-0.03342,0.02411,-0.03159,-0.04379,-0.01099,-0.009,-0.02472,-0.03204,-0.08011,-0.01389,-0.03021,-0.01801,0.00671,-0.04349
10.662,-0.00351,-0.03845,-0.02899,0.01816,-0.03143,-0.04303,-0.01038,-0.01007,-0.01923,-0.03693,-0.09262,-0.03616,-0.0293,-0.01816,0.00534,-0.04471
10.6625,-0.00244,-0.03998,-0.03021,0.00565,-0.02991,-0.04425,-0.01099,-0.00885,-0.0148,-0.04013,-0.10956,-0.05447,-0.02899,-0.01694,0.00305,-0.04517
10.663,-0.00275,-0.04135,-0.03586,-0.00626,-0.02899,-0.04379,-0.01175,-0.00473,-0.01022,-0.03952,-0.12939,-0.06912,-0.0296,-0.01663,0.00168,-0.04364
10.6635,-0.00198,-0.0415,-0.03647,-0.0145,-0.02991,-0.0444,-0.01236,-0.00168,-0.0058,-0.03647,-0.14542,-0.07126,-0.0293,-0.01709,0.00671,-0.04272
10.664,-0.00137,-0.0412,-0.03571,-0.02228,-0.0322,-0.04654,-0.01022,-0.00198,-0.00336,-0.03189,-0.15182,-0.05463,-0.02899,-0.01801,0.00519,-0.04349
10.6645,-0.00275,-0.0412,-0.03799,-0.03159,-0.03326,-0.04837,-0.00778,-0.00412,-0.00275,-0.02701,-0.15198,-0.02396,-0.03006,-0.01862,0.00565,-0.04562
10.665,-0.00488,-0.04196,-0.03738,-0.03967,-0.03143,-0.04944,-0.0087,-0.00397,-0.00488,-0.02258,-0.14618,0.00259,-0.03174,-0.01923,0.00504,-0.0473
10.6655,-0.00626,-0.04196,-0.03342,-0.04089,-0.02884,-0.04944,-0.01205,-0.00336,-0.00778,-0.01968,-0.13321,0.01053,-0.03342,-0.02014,0.00473,-0.047
10.666,-0.00534,-0.04135,-0.03098,-0.03662,-0.02686,-0.04913,-0.01419,-0.00244,-0.01175,-0.01617,-0.11093,0.00702,-0.03281,-0.01907,0.00305,-0.04471
10.6665,-0.00443,-0.04242,-0.03403,-0.03586,-0.02777,-0.04837,-0.01328,-0.00305,-0.01358,-0.01328,-0.08804,0.01678,-0.03159,-0.0177,0.00153,-0.04425
10.667,-0.00366,-0.04242,-0.03479,-0.04074,-0.02869,-0.04807,-0.01099,-0.00351,-0.01251,-0.01495,-0.07156,0.04425,-0.03174,-0.01709,0.00229,-0.04471
10.6675,-0.00412,-0.04211,-0.03387,-0.04929,-0.0293,-0.04807,-0.01038,-0.00336,-0.00748,-0.01694,-0.05814,0.06699,-0.03143,-0.01755,0.00488,-0.04578
10.668,-0.00519,-0.04105,-0.0354,-0.05615,-0.02869,-0.04852,-0.00946,-0.00244,-0.0029,-0.01526,-0.04913,0.05798,-0.03159,-0.01862,0.00565,-0.04593
10.6685,-0.00595,-0.04074,-0.03357,-0.06668,-0.02823,-0.04761,-0.009,-0.00244,-0.00031,-0.01205,-0.0473,0.01678,-0.03281,-0.01953,0.0061,-0.04486
10.669,-0.00732,-0.0415,-0.03555,-0.08072,-0.02808,-0.04593,-0.00931,-0.00397,0.00031,-0.01038,-0.04959,-0.03036,-0.03342,-0.02014,0.00626,-0.0441
10.6695,-0.00809,-0.04166,-0.03662,-0.08072,-0.02808,-0.04547,-0.01099,-0.00351,0.00061,-0.0119,-0.0441,-0.05676,-0.03494,-0.02151,0.00702,-0.04318
10.67,-0.00656,-0.0412,-0.03632,-0.04639,-0.02838,-0.0473,-0.01144,-0.00198,0.00244,-0.01434,-0.0322,-0.0499,-0.03494,-0.02121,0.00824,-0.04181
10.6705,-0.00458,-0.0412,-0.03616,0.01205,-0.02853,-0.04974,-0.0119,-0.00168,0.00198,-0.01862,-0.02701,-0.01022,-0.0351,-0.02029,0.00946,-0.04059
10.671,-0.00366,-0.04059,-0.03586,0.05661,-0.02884,-0.04959,-0.01266,-0.0032,-0.00183,-0.0206,-0.03174,0.05661,-0.03494,-0.01999,0.01007,-0.04242
10.6715,-0.00443,-0.03967,-0.03372,0.05707,-0.0293,-0.04822,-0.0119,-0.00504,-0.00854,-0.01968,-0.04471,0.11932,-0.03448,-0.02045,0.01099,-0.0444
10.672,-0.00534,-0.03845,-0.03189,0.02731,-0.02777,-0.047,-0.01083,-0.00565,-0.01663,-0.0148,-0.06027,0.13519,-0.03479,-0.02106,0.01282,-0.04562
10.6725,-0.00519,-0.04074,-0.03204,0.01373,-0.0267,-0.04822,-0.01099,-0.00519,-0.02289,-0.01205,-0.07401,0.08987,-0.03616,-0.02151,0.01266,-0.04608
10.673,-0.00488,-0.04379,-0.03311,0.04959,-0.02609,-0.04837,-0.01144,-0.00473,-0.02731,-0.01083,-0.07645,0.00946,-0.0383,-0.02335,0.0119,-0.04761
10.6735,-0.00443,-0.04395,-0.03494,0.11185,-0.02686,-0.04715,-0.0116,-0.00412,-0.02975,-0.01038,-0.05981,-0.06226,-0.03815,-0.02457,0.01022,-0.04929
10.674,-0.00473,-0.04272,-0.03647,0.14435,-0.02731,-0.04684,-0.01099,-0.00458,-0.03021,-0.00763,-0.01999,-0.10483,-0.03571,-0.02548,0.00946,-0.04913
10.6745,-0.00443,-0.04089,-0.03693,0.11551,-0.02579,-0.0473,-0.00977,-0.00473,-0.03052,-0.00015,0.02213,-0.12527,-0.03525,-0.02518,0.0087,-0.04807
10.675,-0.00534,-0.04074,-0.03677,0.04822,-0.02518,-0.04715,-0.01068,-0.00473,-0.02747,0.01434,0.04517,-0.15656,-0.03662,-0.02335,0.00778,-0.04715
10.6755,-0.00519,-0.04135,-0.03601,-0.01129,-0.02579,-0.04593,-0.01282,-0.00504,-0.0209,0.03311,0.04379,-0.23544,-0.03799,-0.02075,0.00732,-0.04822
10.676,-0.00458,-0.04044,-0.03601,-0.03784,-0.02792,-0.04486,-0.01511,-0.00458,-0.01602,0.04379,0.02899,-0.34485,-0.03799,-0.01892,0.00717,-0.05066
10.6765,-0.00244,-0.03937,-0.0351,-0.03799,-0.0293,-0.04517,-0.01495,-0.00458,-0.0145,0.0354,0.01282,-0.38895,-0.03784,-0.01923,0.00626,-0.05234
10.677,-0.00229,-0.03891,-0.03418,-0.02716,-0.02884,-0.04486,-0.01465,-0.00473,-0.01358,0.00961,0.00031,-0.25345,-0.03784,-0.0209,0.00549,-0.05203
10.6775,-0.00412,-0.03906,-0.03464,-0.01358,-0.02899,-0.04517,-0.01587,-0.00412,-0.00992,-0.01617,-0.00763,0.04379,-0.03784,-0.02335,0.00336,-0.05081
10.678,-0.00458,-0.03922,-0.03387,-0.00214,-0.03082,-0.04593,-0.01694,-0.00275,-0.00687,-0.02914,-0.01389,0.30502,-0.0383,-0.02457,0.00168,-0.0499
10.6785,-0.00366,-0.04044,-0.03418,0.00458,-0.03082,-0.04593,-0.01617,-0.00229,-0.00854,-0.03494,-0.01785,0.34073,-0.03876,-0.02365,0.00305,-0.0502
10.679,-0.00275,-0.04242,-0.03525,0.00717,-0.03006,-0.04623,-0.0148,-0.0029,-0.01404,-0.04227,-0.01633,0.17471,-0.03815,-0.02045,0.00473,-0.05219
10.6795,-0.00351,-0.04288,-0.03571,0.00916,-0.03036,-0.04578,-0.01312,-0.00504,-0.01709,-0.05295,-0.01053,-0.00992,-0.03632,-0.01602,0.00443,-0.0531
10.68,-0.00351,-0.04105,-0.03433,0.0148,-0.03098,-0.04623,-0.01373,-0.00732,-0.01511,-0.06104,-0.00412,-0.09979,-0.03342,-0.01297,0.00381,-0.05249
10.6805,-0.0032,-0.03983,-0.03326,0.02106,-0.03082,-0.04822,-0.01587,-0.00778,-0.01068,-0.06622,0.00259,-0.11261,-0.03113,-0.0119,0.00412,-0.05066
10.681,-0.00381,-0.03922,-0.03189,0.01266,-0.03082,-0.0502,-0.01648,-0.00595,-0.00977,-0.06821,0.00946,-0.09018,-0.03052,-0.01236,0.00443,-0.04959
10.6815,-0.00412,-0.03906,-0.03067,-0.02426,-0.03082,-0.05112,-0.01511,-0.00275,-0.01129,-0.06836,0.00946,-0.03174,-0.02914,-0.01144,0.00412,-0.04822
10.682,-0.00458,-0.03815,-0.03159,-0.07889,-0.03189,-0.0502,-0.01343,-0.00168,-0.01389,-0.06332,-0.00565,0.05371,-0.02777,-0.01144,0.00549,-0.04715
10.6825,-0.00488,-0.03784,-0.03113,-0.11841,-0.03296,-0.04959,-0.01419,-0.00244,-0.01312,-0.05463,-0.02655,0.11841,-0.02762,-0.01236,0.00717,-0.04639
10.683,-0.00381,-0.03906,-0.03174,-0.12146,-0.03342,-0.04822,-0.01572,-0.00458,-0.01022,-0.0444,-0.03983,0.1268,-0.02914,-0.01404,0.00702,-0.04684
10.6835,-0.00183,-0.03967,-0.03479,-0.10345,-0.03342,-0.04745,-0.01541,-0.00534,-0.00702,-0.03403,-0.04242,0.08682,-0.02899,-0.01648,0.00687,-0.04715
10.684,-0.00229,-0.04089,-0.03586,-0.09781,-0.03372,-0.04761,-0.01343,-0.0058,-0.00854,-0.02548,-0.03906,0.04425,-0.02869,-0.01755,0.00687,-0.04654
10.6845,-0.00351,-0.0415,-0.03601,-0.11673,-0.03326,-0.04807,-0.01068,-0.00595,-0.01328,-0.01907,-0.03372,0.05463,-0.02701,-0.01816,0.00748,-0.04501
10.685,-0.00381,-0.04242,-0.0351,-0.14008,-0.03235,-0.04623,-0.00931,-0.00473,-0.01999,-0.01587,-0.03067,0.1442,-0.02808,-0.0177,0.00763,-0.04333
10.6855,-0.00305,-0.04303,-0.03357,-0.14191,-0.03235,-0.04562,-0.00977,-0.00458,-0.0235,-0.01068,-0.03128,0.25696,-0.03143,-0.01816,0.00748,-0.04257
10.686,-0.00183,-0.04318,-0.03113,-0.11719,-0.03296,-0.047,-0.01129,-0.00488,-0.02243,-0.00443,-0.03006,0.28992,-0.03387,-0.01877,0.00748,-0.04242
10.6865,-0.00168,-0.04227,-0.03036,-0.07858,-0.03418,-0.04929,-0.01205,-0.00473,-0.02014,0.00214,-0.02884,0.20096,-0.03448,-0.01892,0.0087,-0.04395
10.687,-0.00305,-0.04044,-0.03143,-0.03815,-0.03326,-0.0502,-0.01175,-0.00473,-0.01999,0.00519,-0.0293,0.05859,-0.03326,-0.01801,0.00885,-0.04547
10.6875,-0.00412,-0.03906,-0.03296,-0.00702,-0.03281,-0.04944,-0.01221,-0.0029,-0.02029,0.00412,-0.02884,-0.04929,-0.03204,-0.01709,0.00839,-0.04669
10.688,-0.00443,-0.04028,-0.03525,0.00031,-0.0322,-0.04868,-0.01282,-0.00275,-0.01984,-0.00153,-0.02792,-0.09933,-0.03143,-0.01602,0.00809,-0.04501
10.6885,-0.00381,-0.0415,-0.03601,-0.01816,-0.03311,-0.04959,-0.01419,-0.00458,-0.0174,-0.00809,-0.03372,-0.09933,-0.03128,-0.01541,0.00824,-0.04395
10.689,-0.00336,-0.04196,-0.03632,-0.02991,-0.03235,-0.04974,-0.01434,-0.00763,-0.01648,-0.01526,-0.04807,-0.04684,-0.03159,-0.01755,0.00809,-0.04501
10.6895,-0.00229,-0.04013,-0.03586,0.00031,-0.03281,-0.04898,-0.01236,-0.00793,-0.0174,-0.01678,-0.05676,0.04761,-0.03128,-0.01938,0.00702,-0.04745
10.69,-0.00168,-0.03876,-0.03418,0.06927,-0.03143,-0.04745,-0.00946,-0.00488,-0.01755,-0.01495,-0.05554,0.1297,-0.03067,-0.01831,0.00671,-0.04807
10.6905,-0.00214,-0.03983,-0.03281,0.13168,-0.03052,-0.04639,-0.00854,-0.00168,-0.01801,-0.01297,-0.04883,0.13596,-0.02945,-0.01526,0.00702,-0.04868
10.691,-0.0029,-0.04028,-0.03357,0.14938,-0.02975,-0.04608,-0.00961,-0.00168,-0.01572,-0.01175,-0.04852,0.06866,-0.02838,-0.01343,0.00809,-0.04745
10.6915,-0.00229,-0.03998,-0.03418,0.12833,-0.0296,-0.04532,-0.01099,-0.00381,-0.01434,-0.01495,-0.05432,-0.00458,-0.02808,-0.01495,0.0087,-0.04608
10.692,-0.00214,-0.03967,-0.03433,0.0914,-0.02899,-0.04547,-0.01373,-0.00595,-0.01328,-0.01968,-0.05722,-0.02899,-0.02853,-0.01648,0.00854,-0.04608
10.6925,-0.00275,-0.04089,-0.03403,0.06668,-0.02899,-0.04654,-0.01617,-0.00732,-0.0119,-0.0235,-0.05188,-0.01694,-0.02991,-0.0174,0.00916,-0.04532
10.693,-0.00427,-0.04211,-0.03387,0.08209,-0.02975,-0.04776,-0.01678,-0.00595,-0.00793,-0.02396,-0.04227,-0.01312,-0.03082,-0.01785,0.00961,-0.04379
10.6935,-0.00504,-0.04059,-0.03311,0.14267,-0.03189,-0.05051,-0.01511,-0.00443,-0.0029,-0.02029,-0.03815,-0.03662,-0.03052,-0.01846,0.00854,-0.04242
10.694,-0.00534,-0.03937,-0.03372,0.1976,-0.03296,-0.05066,-0.01297,-0.00351,0.00061,-0.01587,-0.03983,-0.06653,-0.03036,-0.01801,0.00778,-0.04135
10.6945,-0.00488,-0.04044,-0.03326,0.17654,-0.03204,-0.04898,-0.01236,-0.0032,0.00061,-0.0145,-0.04089,-0.0766,-0.03036,-0.01678,0.00839,-0.04074
10.695,-0.00458,-0.04257,-0.03311,0.07996,-0.02991,-0.04684,-0.01282,-0.00473,-0.00046,-0.01495,-0.03967,-0.06317,-0.03143,-0.01572,0.00946,-0.03983
10.6955,-0.00534,-0.04379,-0.03311,-0.01572,-0.0293,-0.04532,-0.01312,-0.00641,-0.00214,-0.0145,-0.03815,-0.03754,-0.03159,-0.01602,0.01007,-0.03876
10.696,-0.00687,-0.04272,-0.03357,-0.056,-0.02991,-0.04486,-0.01434,-0.00732,-0.00198,-0.01404,-0.03708,-0.0119,-0.03204,-0.01724,0.01022,-0.0386
10.6965,-0.00732,-0.04272,-0.03433,-0.05783,-0.03143,-0.04532,-0.01556,-0.00626,-0.00122,-0.01328,-0.03494,0.00046,-0.03235,-0.0177,0.01114,-0.03708
10.697,-0.00641,-0.04425,-0.03448,-0.05692,-0.03296,-0.04486,-0.01511,-0.00519,-0.00015,-0.01434,-0.03296,-0.01633,-0.03128,-0.0177,0.0119,-0.03693
10.6975,-0.00504,-0.04456,-0.03464,-0.05386,-0.03357,-0.04623,-0.01404,-0.00473,-0.00061,-0.01755,-0.03159,-0.05936,-0.0293,-0.01755,0.01175,-0.03586
10.698,-0.00534,-0.04288,-0.03647,-0.04242,-0.03418,-0.04883,-0.01419,-0.00458,-0.0032,-0.01938,-0.02563,-0.09155,-0.02838,-0.01724,0.01251,-0.03769
10.6985,-0.0058,-0.0415,-0.03738,-0.03036,-0.03372,-0.05051,-0.01511,-0.00458,-0.00839,-0.01953,-0.01572,-0.08942,-0.0293,-0.01724,0.01297,-0.0386
10.699,-0.0058,-0.04211,-0.03769,-0.02594,-0.03311,-0.04974,-0.01572,-0.00473,-0.01419,-0.01755,-0.00504,-0.07172,-0.02991,-0.01831,0.01358,-0.03891
10.6995,-0.00458,-0.04379,-0.03555,-0.02426,-0.0322,-0.04745,-0.01389,-0.00412,-0.02014,-0.0145,0.00793,-0.07233,-0.03067,-0.01923,0.01236,-0.03906
10.7,-0.00397,-0.04364,-0.03525,-0.02029,-0.03067,-0.04684,-0.01129,-0.00259,-0.02426,-0.01312,0.02075,-0.07874,-0.02991,-0.01923,0.01022,-0.03967
10.7005,-0.00366,-0.04257,-0.03418,-0.01648,-0.03189,-0.047,-0.01083,-0.00107,-0.0267,-0.01358,0.02655,-0.03647,-0.02899,-0.01709,0.00839,-0.03937
10.701,-0.00397,-0.04089,-0.03372,-0.01846,-0.03174,-0.04791,-0.01205,0.00015,-0.02548,-0.01282,0.02594,0.06317,-0.02762,-0.01465,0.00885,-0.03738
10.7015,-0.00366,-0.04074,-0.03525,-0.0238,-0.0322,-0.04883,-0.01389,0.00076,-0.02411,-0.01465,0.02228,0.14206,-0.02808,-0.01434,0.01007,-0.0351
10.702,-0.00366,-0.04059,-0.03662,-0.03098,-0.03372,-0.04868,-0.01663,0.00076,-0.02457,-0.01785,0.01358,0.13016,-0.02914,-0.01617,0.009,-0.03601
10.7025,-0.00427,-0.04166,-0.03571,-0.03891,-0.03372,-0.04883,-0.01816,0.00031,-0.02594,-0.0174,0.00015,0.06119,-0.03098,-0.01877,0.00763,-0.03906
10.703,-0.00504,-0.04181,-0.03326,-0.05051,-0.03326,-0.04837,-0.01907,-0.00092,-0.02655,-0.01434,-0.0148,0.02762,-0.03143,-0.02151,0.00702,-0.04059
10.7035,-0.00595,-0.0415,-0.03311,-0.06241,-0.03143,-0.04822,-0.01923,-0.00351,-0.02625,-0.00961,-0.02396,0.06287,-0.03189,-0.02304,0.00687,-0.03998
10.704,-0.00565,-0.04059,-0.03326,-0.056,-0.03052,-0.04807,-0.01984,-0.00549,-0.0264,-0.00687,-0.02579,0.12329,-0.03143,-0.02243,0.00778,-0.04044
10.7045,-0.00565,-0.03906,-0.03433,-0.01846,-0.0296,-0.04837,-0.0206,-0.00626,-0.02686,-0.00702,-0.01999,0.15549,-0.03143,-0.02075,0.00916,-0.04059
10.705,-0.00549,-0.03967,-0.03555,0.02731,-0.03159,-0.04761,-0.02136,-0.00519,-0.02579,-0.01068,-0.01099,0.15839,-0.03174,-0.01846,0.01007,-0.04059
10.7055,-0.00626,-0.0415,-0.03326,0.03754,-0.0322,-0.04654,-0.01862,-0.00458,-0.02167,-0.01694,-0.00229,0.15671,-0.03067,-0.01801,0.01083,-0.03983
10.706,-0.00687,-0.04227,-0.03204,0.00153,-0.03311,-0.04593,-0.01602,-0.00381,-0.01434,-0.02289,0.00656,0.15625,-0.02975,-0.01755,0.01083,-0.0383
10.7065,-0.00687,-0.04135,-0.03296,-0.04318,-0.03204,-0.047,-0.01556,-0.00443,-0.00732,-0.02716,0.01175,0.13214,-0.0296,-0.0177,0.01007,-0.03647
10.707,-0.00626,-0.03922,-0.0351,-0.06226,-0.03128,-0.04791,-0.0177,-0.00534,-0.00412,-0.02899,0.00793,0.07309,-0.03082,-0.01801,0.01053,-0.03616
10.7075,-0.00519,-0.03876,-0.03464,-0.05936,-0.02975,-0.04898,-0.01907,-0.00626,-0.00504,-0.02899,-0.00534,0.00015,-0.0322,-0.01907,0.01022,-0.03586
10.708,-0.00519,-0.03876,-0.03448,-0.0563,-0.03021,-0.04883,-0.01907,-0.00702,-0.00397,-0.02899,-0.02319,-0.06287,-0.03189,-0.01999,0.01038,-0.03876
10.7085,-0.00641,-0.03845,-0.03479,-0.06668,-0.03006,-0.04852,-0.01663,-0.00687,0.00031,-0.02914,-0.03494,-0.1181,-0.03006,-0.02014,0.01114,-0.04044
10.709,-0.00809,-0.03906,-0.03601,-0.08667,-0.0296,-0.04929,-0.0145,-0.0058,0.00397,-0.02792,-0.04013,-0.17151,-0.03006,-0.0177,0.01099,-0.04089
10.7095,-0.00656,-0.04028,-0.03647,-0.09735,-0.03021,-0.05112,-0.01465,-0.0058,0.00671,-0.02411,-0.04227,-0.20813,-0.03006,-0.01312,0.00961,-0.04074
10.71,-0.00443,-0.04105,-0.0351,-0.08408,-0.03174,-0.05066,-0.01511,-0.00549,0.00626,-0.02167,-0.04532,-0.21805,-0.03052,-0.01083,0.0087,-0.04333
10.7105,-0.0029,-0.04059,-0.0322,-0.05539,-0.03265,-0.04944,-0.01465,-0.00519,0.00305,-0.02304,-0.04913,-0.21027,-0.03036,-0.01236,0.00854,-0.0444
10.711,-0.0029,-0.04028,-0.0325,-0.03204,-0.03311,-0.04868,-0.01175,-0.00397,-0.0032,-0.02502,-0.05142,-0.20081,-0.0296,-0.01389,0.01053,-0.04089
10.7115,-0.00412,-0.04044,-0.03311,-0.02182,-0.03204,-0.04868,-0.01068,-0.00458,-0.00916,-0.02228,-0.04761,-0.20767,-0.02899,-0.01495,0.01221,-0.03632
10.712,-0.00443,-0.04105,-0.0322,-0.01572,-0.0322,-0.04852,-0.01007,-0.00443,-0.01495,-0.01801,-0.03906,-0.2449,-0.02945,-0.01709,0.01114,-0.03647
10.7125,-0.00565,-0.04196,-0.0322,-0.00732,-0.03372,-0.04776,-0.00992,-0.00397,-0.01801,-0.0177,-0.03082,-0.29678,-0.02991,-0.01892,0.01053,-0.0412
10.713,-0.00534,-0.04257,-0.03174,-0.0029,-0.03586,-0.0473,-0.00885,-0.00214,-0.01923,-0.02151,-0.02304,-0.31403,-0.03052,-0.02014,0.00885,-0.04272
10.7135,-0.00458,-0.04135,-0.03479,-0.0058,-0.03693,-0.04791,-0.00702,-0.00076,-0.01785,-0.02579,-0.02045,-0.2681,-0.03143,-0.01907,0.00717,-0.0444
10.714,-0.00412,-0.0412,-0.03479,-0.00961,-0.03677,-0.04929,-0.00488,-0.00092,-0.01526,-0.02579,-0.02151,-0.18494,-0.03143,-0.01785,0.00626,-0.04501
10.7145,-0.00412,-0.04196,-0.03418,-0.00793,-0.03448,-0.04822,-0.0061,-0.00076,-0.01572,-0.02167,-0.02075,-0.10056,-0.03082,-0.01801,0.00641,-0.04623
10.715,-0.00427,-0.04272,-0.03357,-0.00275,-0.03067,-0.04684,-0.00763,-0.00153,-0.01862,-0.01724,-0.01556,-0.01831,-0.03021,-0.01892,0.00748,-0.04593
10.7155,-0.0032,-0.04227,-0.03616,0.00229,-0.03021,-0.04562,-0.00885,-0.0029,-0.02151,-0.01312,-0.01083,0.06393,-0.03021,-0.01877,0.00763,-0.04517
10.716,-0.00351,-0.04181,-0.03815,0.00687,-0.03189,-0.04639,-0.01022,-0.00519,-0.02426,-0.0087,-0.01144,0.12619,-0.02975,-0.0177,0.00565,-0.04349
10.7165,-0.00519,-0.04211,-0.03754,0.00916,-0.03326,-0.0473,-0.01282,-0.00946,-0.0267,-0.00671,-0.01495,0.15289,-0.02975,-0.01755,0.00397,-0.04242
