time,RectFemL,VastusMedL,VastusLatL,TibAntL,HamMedL,HamLatL,GastroMedL,GastroLatL,RectFemR,VastusMedR,VastusLatR,TibAntR,HamMedR,HamLatR,GastroMedR,GastroLatR
8.65,-0.00595,-0.04074,-0.03784,-0.00931,-0.03677,-0.04868,-0.0029,-0.01724,-0.03448,-0.08011,-0.87738,-0.05798,0.03403,0.08545,0.00931,0.00168
8.6505,-0.00565,-0.04181,-0.03723,-0.00931,-0.03677,-0.04868,0.01572,-0.01572,-0.03693,-0.0708,-0.79269,-0.03738,0.04425,0.06927,0.01068,0.00198
8.651,-0.00504,-0.04227,-0.03632,-0.0087,-0.0354,-0.04944,0.03052,-0.01038,-0.03754,-0.0589,-0.76263,-0.0415,0.03311,0.02533,0.01266,0.00259
8.6515,-0.00381,-0.04059,-0.0354,-0.00732,-0.03357,-0.0502,0.03571,-0.00549,-0.0354,-0.04745,-0.793,-0.06805,0.00656,0.00076,0.01282,0.0032
8.652,-0.00275,-0.04028,-0.03555,-0.00763,-0.03357,-0.05096,0.03006,-0.00412,-0.0322,-0.03891,-0.79697,-0.09171,-0.02319,0.00366,0.01266,0.00229
8.6525,-0.00214,-0.04242,-0.03723,-0.00961,-0.03479,-0.05096,0.01862,-0.00687,-0.02869,-0.0325,-0.72998,-0.09766,-0.04807,0.01526,0.01312,0.00137
8.653,-0.00183,-0.04364,-0.03815,-0.01083,-0.03616,-0.04898,0.00717,-0.0145,-0.02411,-0.0267,-0.62469,-0.09491,-0.0676,0.02182,0.01373,0.00092
8.6535,-0.0032,-0.04364,-0.03815,-0.00839,-0.03464,-0.04837,-0.00168,-0.02274,-0.0206,-0.02151,-0.52094,-0.09979,-0.08148,0.03143,0.0148,0.00259
8.654,-0.00458,-0.04318,-0.03632,-0.00366,-0.03448,-0.04959,-0.01022,-0.02533,-0.01877,-0.01831,-0.42267,-0.10864,-0.09155,0.04883,0.01404,0.00412
8.6545,-0.00549,-0.04532,-0.03525,-0.00092,-0.03616,-0.04791,-0.02289,-0.01923,-0.01862,-0.01892,-0.32776,-0.09674,-0.08728,0.04852,0.01312,0.00488
8.655,-0.00549,-0.04639,-0.03586,-0.00214,-0.03555,-0.04807,-0.03799,-0.0116,-0.01724,-0.02136,-0.24628,-0.05432,-0.06927,-0.00534,0.01221,0.0029
8.6555,-0.00519,-0.04684,-0.03632,-0.00488,-0.03433,-0.04898,-0.05249,-0.00656,-0.01343,-0.02228,-0.17899,-0.01419,-0.05096,-0.11612,0.01236,0.00092
8.656,-0.00534,-0.04578,-0.03494,-0.0061,-0.03357,-0.047,-0.05966,-0.00641,-0.01038,-0.01984,-0.10544,-0.01343,-0.04852,-0.22232,0.01205,-0.00031
8.6565,-0.00427,-0.04471,-0.03464,-0.00595,-0.03357,-0.04761,-0.056,-0.00763,-0.01038,-0.01678,-0.01358,-0.03433,-0.05615,-0.24261,0.01328,-0.00046
8.657,-0.00412,-0.04501,-0.03387,-0.00809,-0.03403,-0.04745,-0.04593,-0.00763,-0.01114,-0.01541,0.07965,-0.02426,-0.05707,-0.16312,0.01495,0.00015
8.6575,-0.00381,-0.04532,-0.03372,-0.01144,-0.0351,-0.04868,-0.03326,-0.00595,-0.01297,-0.01602,0.15778,0.03082,-0.04089,-0.06195,0.01434,-0.00153
8.658,-0.00244,-0.04471,-0.03296,-0.0119,-0.03372,-0.04913,-0.02045,-0.00214,-0.01404,-0.01694,0.224,0.09094,-0.01205,-0.01373,0.01373,-0.00381
8.6585,-0.00244,-0.0441,-0.03342,-0.00946,-0.0325,-0.04807,-0.01068,0.00153,-0.0145,-0.01556,0.29343,0.11887,0.01099,-0.01175,0.01343,-0.00595
8.659,-0.00122,-0.04303,-0.03281,-0.0058,-0.03235,-0.04745,-0.0032,0.00458,-0.0145,-0.01236,0.36621,0.11444,0.0116,-0.00885,0.01373,-0.00885
8.6595,-0.00076,-0.04181,-0.03372,-0.00336,-0.03204,-0.04471,0.0,0.00504,-0.01419,-0.00931,0.43396,0.09506,-0.01465,0.00702,0.01266,-0.01114
8.66,-0.00092,-0.04135,-0.03372,-0.00488,-0.03143,-0.04425,-0.00092,0.00183,-0.01282,-0.00793,0.49561,0.07126,-0.0589,0.01816,0.01099,-0.01373
8.6605,-0.00244,-0.04211,-0.03326,-0.00793,-0.03082,-0.0441,-0.00488,-0.00336,-0.01266,-0.00824,0.5542,0.04684,-0.1033,0.00839,0.00839,-0.01678
8.661,-0.00397,-0.04211,-0.03357,-0.01053,-0.03159,-0.04166,-0.01114,-0.00656,-0.01266,-0.00839,0.60379,0.02335,-0.13229,-0.01511,0.00763,-0.01755
8.6615,-0.00427,-0.04166,-0.03342,-0.01129,-0.0325,-0.04517,-0.01831,-0.00839,-0.01251,-0.00854,0.63721,0.00412,-0.13794,-0.03723,0.00839,-0.01755
8.662,-0.00275,-0.04166,-0.03342,-0.01038,-0.03281,-0.04486,-0.02563,-0.01297,-0.01175,-0.00687,0.66208,-0.01236,-0.12375,-0.04486,0.01053,-0.01511
8.6625,-0.00168,-0.04272,-0.03418,-0.00961,-0.03265,-0.04654,-0.0322,-0.01877,-0.01068,-0.00504,0.68619,-0.03189,-0.09567,-0.03799,0.0116,-0.0148
8.663,-0.00092,-0.04349,-0.03342,-0.00793,-0.03159,-0.04456,-0.03647,-0.01602,-0.009,-0.00504,0.71182,-0.0563,-0.06516,-0.02762,0.00977,-0.01602
8.6635,-0.00107,-0.04395,-0.03159,-0.00656,-0.03098,-0.04532,-0.03784,-0.00381,-0.00656,-0.0061,0.74493,-0.07584,-0.04333,-0.02319,0.00671,-0.01892
8.664,-0.00198,-0.04456,-0.03098,-0.00641,-0.03159,-0.04486,-0.03571,0.00427,-0.00534,-0.00946,0.79102,-0.08087,-0.03235,-0.02289,0.00488,-0.0206
8.6645,-0.0032,-0.04517,-0.0322,-0.00687,-0.03357,-0.04562,-0.03006,-0.00092,-0.0058,-0.01129,0.83496,-0.07156,-0.02838,-0.02274,0.0058,-0.02335
8.665,-0.0029,-0.04517,-0.03357,-0.00717,-0.03326,-0.04578,-0.02716,-0.01205,-0.00854,-0.01266,0.85342,-0.06073,-0.02777,-0.02197,0.00702,-0.02594
8.6655,-0.00244,-0.04425,-0.03372,-0.00717,-0.0322,-0.04715,-0.02808,-0.01205,-0.00977,-0.01266,0.84732,-0.05554,-0.02823,-0.02136,0.00641,-0.02716
8.666,-0.00214,-0.04349,-0.03204,-0.00641,-0.03143,-0.04807,-0.02945,-0.00137,-0.01038,-0.01297,0.83878,-0.05249,-0.02777,-0.0206,0.00595,-0.02609
8.6665,-0.00183,-0.04318,-0.03235,-0.0058,-0.0322,-0.04776,-0.02777,0.00702,-0.009,-0.01297,0.84488,-0.04623,-0.02716,-0.01755,0.00565,-0.02487
8.667,-0.00183,-0.04318,-0.03479,-0.0058,-0.03113,-0.04776,-0.02289,0.00641,-0.00641,-0.01175,0.85709,-0.03647,-0.02655,-0.01328,0.00656,-0.02502
8.6675,-0.00244,-0.04196,-0.03723,-0.00793,-0.03021,-0.04822,-0.01755,0.00107,-0.00275,-0.01068,0.86334,-0.02884,-0.02457,-0.00885,0.00793,-0.02594
8.668,-0.00381,-0.04074,-0.03845,-0.00961,-0.02808,-0.05035,-0.01434,-0.00397,0.00153,-0.01038,0.86212,-0.02319,-0.02243,-0.00748,0.00839,-0.02609
8.6685,-0.00473,-0.04105,-0.03708,-0.01129,-0.02869,-0.0499,-0.01328,-0.01022,0.00534,-0.01022,0.85251,-0.01389,-0.02014,-0.00809,0.00671,-0.02594
8.669,-0.00626,-0.04303,-0.03632,-0.01221,-0.02975,-0.04944,-0.01495,-0.01831,0.0058,-0.00916,0.83298,-0.00031,-0.01877,-0.009,0.00458,-0.02701
8.6695,-0.00702,-0.04471,-0.03448,-0.01144,-0.03021,-0.04654,-0.02289,-0.02136,0.00412,-0.00671,0.80338,0.00931,-0.01984,-0.00992,0.00458,-0.02762
8.67,-0.00595,-0.04456,-0.03479,-0.00931,-0.0296,-0.04669,-0.03662,-0.01526,0.00275,-0.00305,0.77499,0.00473,-0.02213,-0.01099,0.00565,-0.02686
8.6705,-0.00412,-0.04395,-0.0354,-0.00732,-0.0296,-0.04562,-0.04578,-0.00671,0.00443,0.00046,0.75272,-0.01221,-0.02258,-0.01266,0.00778,-0.02686
8.671,-0.00275,-0.04257,-0.03479,-0.00641,-0.03067,-0.04486,-0.0412,-0.00214,0.00534,0.00595,0.73563,-0.02777,-0.02014,-0.01358,0.00992,-0.02853
8.6715,-0.00336,-0.04166,-0.03326,-0.00656,-0.0322,-0.04471,-0.02579,-0.00366,0.0032,0.01236,0.72144,-0.03372,-0.01648,-0.01297,0.01007,-0.02914
8.672,-0.00549,-0.04166,-0.03387,-0.00824,-0.03265,-0.0444,-0.01328,-0.00534,-0.00137,0.01434,0.70496,-0.03113,-0.01465,-0.01114,0.01099,-0.02975
8.6725,-0.00702,-0.04135,-0.03464,-0.00977,-0.03143,-0.04517,-0.00793,-0.00854,-0.00336,0.00977,0.68893,-0.02853,-0.01465,-0.00854,0.01022,-0.02991
8.673,-0.00687,-0.04028,-0.03586,-0.01099,-0.03082,-0.04562,-0.0032,-0.01328,-0.00351,0.00107,0.6723,-0.02563,-0.01602,-0.00641,0.009,-0.03098
8.6735,-0.00534,-0.03983,-0.03372,-0.01083,-0.03128,-0.04608,0.00275,-0.0177,-0.00381,-0.00671,0.65308,-0.01938,-0.01801,-0.00549,0.009,-0.03296
8.674,-0.00458,-0.03998,-0.03296,-0.01022,-0.02945,-0.04669,0.00305,-0.01862,-0.00427,-0.01389,0.62958,-0.0116,-0.01953,-0.0058,0.01038,-0.03448
8.6745,-0.00473,-0.04105,-0.03357,-0.01038,-0.03098,-0.04654,-0.00366,-0.01572,-0.00473,-0.01999,0.59921,-0.00946,-0.01984,-0.00748,0.01114,-0.03372
8.675,-0.0058,-0.04074,-0.03464,-0.01099,-0.03174,-0.04868,-0.01022,-0.01297,-0.00473,-0.02579,0.56335,-0.01694,-0.02045,-0.01038,0.01022,-0.0322
8.6755,-0.00626,-0.04013,-0.0351,-0.01068,-0.03296,-0.05096,-0.00839,-0.01175,-0.00305,-0.02975,0.53146,-0.03265,-0.02045,-0.01328,0.009,-0.03113
8.676,-0.00626,-0.03967,-0.03418,-0.00916,-0.03464,-0.05142,-0.00504,-0.01053,-0.00015,-0.03021,0.50964,-0.04837,-0.02014,-0.01602,0.00778,-0.03204
8.6765,-0.00534,-0.04013,-0.03387,-0.00824,-0.03677,-0.05035,-0.00641,-0.00702,0.00275,-0.02792,0.49393,-0.05981,-0.01938,-0.01816,0.00778,-0.03525
8.677,-0.00427,-0.04028,-0.03387,-0.00824,-0.03632,-0.04868,-0.01007,-0.00397,0.00381,-0.02548,0.47806,-0.06714,-0.01862,-0.02106,0.00732,-0.03815
8.6775,-0.00397,-0.03922,-0.03326,-0.0087,-0.03525,-0.04807,-0.01251,-0.00305,0.00397,-0.02411,0.4599,-0.07141,-0.0206,-0.02441,0.00641,-0.03998
8.678,-0.00504,-0.03784,-0.03265,-0.00992,-0.03571,-0.04761,-0.01358,-0.00336,0.00443,-0.02548,0.43854,-0.07217,-0.02274,-0.02731,0.00519,-0.04105
8.6785,-0.00702,-0.03784,-0.03113,-0.01038,-0.03448,-0.04684,-0.01541,-0.00412,0.00504,-0.02716,0.41092,-0.06851,-0.02502,-0.0296,0.00351,-0.04074
8.679,-0.00793,-0.03922,-0.03204,-0.01068,-0.03433,-0.04608,-0.01862,-0.00732,0.0058,-0.02731,0.38025,-0.06012,-0.02396,-0.03021,0.00458,-0.04089
8.6795,-0.00763,-0.03967,-0.03281,-0.01083,-0.03372,-0.04715,-0.01892,-0.01205,0.00778,-0.02396,0.34561,-0.04059,-0.02167,-0.02823,0.00488,-0.04013
8.68,-0.00595,-0.03754,-0.03448,-0.01038,-0.0325,-0.04898,-0.01678,-0.01419,0.01068,-0.02029,0.31174,-0.01099,-0.02197,-0.02548,0.00626,-0.03952
8.6805,-0.00519,-0.03693,-0.0351,-0.00977,-0.03296,-0.04944,-0.0119,-0.01053,0.01251,-0.0177,0.27786,0.02228,-0.02441,-0.02182,0.00732,-0.04089
8.681,-0.00412,-0.03708,-0.03571,-0.00946,-0.03113,-0.04822,-0.01007,-0.00473,0.01297,-0.01617,0.24353,0.05707,-0.02686,-0.01877,0.00839,-0.04242
8.6815,-0.00351,-0.03784,-0.03586,-0.00992,-0.02945,-0.04608,-0.01068,-0.00198,0.01083,-0.01389,0.20874,0.09369,-0.02716,-0.01816,0.00916,-0.04272
8.682,-0.00412,-0.03876,-0.0354,-0.01007,-0.02884,-0.04684,-0.01221,-0.00305,0.00687,-0.01236,0.17502,0.12405,-0.02701,-0.01892,0.009,-0.04166
8.6825,-0.00626,-0.04044,-0.03693,-0.01007,-0.02975,-0.04669,-0.01205,-0.00412,0.00031,-0.01144,0.1442,0.13779,-0.02945,-0.01938,0.00732,-0.04135
8.683,-0.00717,-0.04242,-0.03616,-0.01068,-0.03098,-0.04425,-0.01114,-0.00412,-0.00458,-0.01236,0.11414,0.1358,-0.03265,-0.02075,0.00854,-0.04456
8.6835,-0.00595,-0.04288,-0.0354,-0.01038,-0.03021,-0.04288,-0.01038,-0.00427,-0.01007,-0.01465,0.08698,0.12939,-0.03555,-0.02274,0.00824,-0.04745
8.684,-0.00473,-0.04227,-0.03433,-0.01099,-0.02762,-0.04379,-0.01144,-0.00381,-0.01434,-0.01907,0.06485,0.12375,-0.03586,-0.02472,0.00778,-0.047
8.6845,-0.0032,-0.0415,-0.03601,-0.01175,-0.0322,-0.0473,-0.01297,-0.0032,-0.01724,-0.02533,0.04242,0.11429,-0.0351,-0.02426,0.00717,-0.04639
8.685,-0.0029,-0.04166,-0.03601,-0.01266,-0.03067,-0.04913,-0.01343,-0.00229,-0.01617,-0.03006,0.01114,0.09476,-0.03662,-0.01953,0.00732,-0.04608
8.6855,-0.00397,-0.04181,-0.03479,-0.01373,-0.03281,-0.0502,-0.01328,-0.00137,-0.01221,-0.0325,-0.02686,0.0621,-0.03906,-0.01419,0.00763,-0.04654
8.686,-0.00519,-0.04089,-0.03387,-0.01404,-0.03403,-0.05081,-0.01221,-0.00061,-0.009,-0.03082,-0.06073,0.01785,-0.04074,-0.01205,0.00931,-0.04684
8.6865,-0.00687,-0.03845,-0.03357,-0.01251,-0.03525,-0.05173,-0.0119,-0.00107,-0.01099,-0.02563,-0.09064,-0.02747,-0.04257,-0.01434,0.00824,-0.04715
8.687,-0.00839,-0.03708,-0.03372,-0.01114,-0.03387,-0.05234,-0.01282,0.00031,-0.01541,-0.02319,-0.1265,-0.05325,-0.04395,-0.01663,0.00626,-0.04684
8.6875,-0.00916,-0.03738,-0.03296,-0.01007,-0.03265,-0.05234,-0.01358,0.0029,-0.01877,-0.02884,-0.16647,-0.05249,-0.0415,-0.01617,0.00534,-0.04578
8.688,-0.0087,-0.0383,-0.03357,-0.01068,-0.03235,-0.05371,-0.0145,0.00671,-0.01801,-0.03891,-0.20203,-0.03738,-0.03708,-0.01373,0.00732,-0.04486
8.6885,-0.00748,-0.03967,-0.03494,-0.01083,-0.03036,-0.05615,-0.01465,0.00992,-0.01373,-0.04959,-0.22919,-0.0267,-0.03296,-0.01221,0.00946,-0.04379
8.689,-0.00839,-0.03952,-0.03525,-0.01022,-0.02991,-0.05951,-0.01373,0.01129,-0.00793,-0.05569,-0.25681,-0.02518,-0.02991,-0.01114,0.01114,-0.04501
8.6895,-0.00931,-0.03891,-0.03433,-0.00992,-0.03006,-0.05966,-0.01266,0.01068,-0.0029,-0.056,-0.29434,-0.02228,-0.02716,-0.00839,0.01053,-0.0473
8.69,-0.00916,-0.03922,-0.03326,-0.00992,-0.03067,-0.05661,-0.01129,0.0058,0.00122,-0.05081,-0.34103,-0.01801,-0.0235,-0.00641,0.01007,-0.04944
8.6905,-0.00702,-0.03952,-0.03174,-0.00916,-0.0267,-0.05188,-0.0119,-0.00168,0.00412,-0.04105,-0.37262,-0.02151,-0.02243,-0.0061,0.01038,-0.05035
8.691,-0.0061,-0.04013,-0.03448,-0.00916,-0.02686,-0.0473,-0.01297,-0.0058,0.00397,-0.03403,-0.36438,-0.03754,-0.02274,-0.00626,0.01114,-0.05035
8.6915,-0.00687,-0.03937,-0.0351,-0.00946,-0.0264,-0.04608,-0.01282,-0.00381,0.00137,-0.02899,-0.32059,-0.05905,-0.0209,-0.00458,0.0119,-0.05066
8.692,-0.00763,-0.03952,-0.03357,-0.00931,-0.0293,-0.04501,-0.01221,0.00061,-0.00244,-0.02625,-0.2684,-0.07492,-0.01663,-0.00366,0.01022,-0.05173
8.6925,-0.00702,-0.03983,-0.03204,-0.00992,-0.03006,-0.04364,-0.0148,0.00092,-0.00351,-0.02274,-0.23529,-0.0766,-0.01175,-0.0058,0.00763,-0.05417
8.693,-0.00626,-0.03983,-0.0325,-0.01083,-0.0293,-0.04074,-0.01923,-0.00092,-0.00061,-0.0177,-0.22583,-0.06851,-0.00961,-0.01068,0.00595,-0.05737
8.6935,-0.00549,-0.03906,-0.03418,-0.01144,-0.02869,-0.03876,-0.02151,-0.00137,0.00092,-0.01373,-0.22293,-0.06866,-0.0148,-0.01541,0.00504,-0.05859
8.694,-0.00671,-0.03891,-0.0351,-0.0116,-0.02991,-0.03891,-0.02136,0.00061,-0.00076,-0.01129,-0.21774,-0.07706,-0.02747,-0.01892,0.00412,-0.05798
8.6945,-0.00763,-0.04028,-0.03403,-0.01022,-0.02686,-0.04059,-0.02106,0.00427,-0.00244,-0.01068,-0.21805,-0.05737,-0.04395,-0.02213,0.00275,-0.05661
8.695,-0.00671,-0.0412,-0.03311,-0.00839,-0.02487,-0.04135,-0.02151,0.00702,-0.00275,-0.009,-0.24094,0.01648,-0.05997,-0.02472,0.00366,-0.05737
8.6955,-0.00565,-0.04089,-0.03326,-0.00809,-0.02609,-0.04227,-0.02182,0.00778,-0.00305,-0.00702,-0.27985,0.1004,-0.07034,-0.02686,0.00504,-0.05875
8.696,-0.00565,-0.03952,-0.03387,-0.00916,-0.02441,-0.04303,-0.01984,0.00793,-0.00473,-0.00366,-0.31845,0.11993,-0.07324,-0.02625,0.00427,-0.05875
8.6965,-0.00565,-0.0383,-0.0351,-0.00916,-0.02457,-0.04501,-0.01709,0.00656,-0.00626,0.00275,-0.3508,0.06836,-0.06683,-0.02396,0.00381,-0.0563
8.697,-0.00549,-0.03891,-0.03708,-0.01083,-0.02274,-0.04684,-0.01617,0.00214,-0.00732,0.00931,-0.37064,0.009,-0.05554,-0.02136,0.00504,-0.05356
8.6975,-0.00595,-0.04074,-0.03876,-0.01297,-0.02274,-0.04944,-0.01526,-0.00549,-0.00946,0.00565,-0.36926,-0.01114,-0.04547,-0.01984,0.00702,-0.05249
8.698,-0.00671,-0.04211,-0.03784,-0.01434,-0.02411,-0.05157,-0.01434,-0.01389,-0.0119,-0.00641,-0.35263,-0.00183,-0.03922,-0.01877,0.00824,-0.05356
8.6985,-0.00519,-0.04211,-0.03555,-0.01419,-0.02365,-0.05463,-0.01312,-0.01862,-0.01312,-0.02151,-0.34393,0.00885,-0.03418,-0.01892,0.00763,-0.05493
8.699,-0.00366,-0.0412,-0.03448,-0.01297,-0.02716,-0.056,-0.01465,-0.01877,-0.01053,-0.03128,-0.34821,0.01419,-0.03098,-0.01923,0.00656,-0.05539
8.6995,-0.00351,-0.03967,-0.03448,-0.01099,-0.03204,-0.05447,-0.01602,-0.01617,-0.00824,-0.03632,-0.34195,0.01602,-0.02823,-0.01877,0.00748,-0.05692
8.7,-0.00412,-0.0383,-0.03418,-0.00977,-0.03571,-0.05112,-0.01587,-0.01511,-0.00824,-0.03738,-0.31982,0.0061,-0.02548,-0.01785,0.00916,-0.05798
8.7005,-0.00381,-0.03922,-0.03357,-0.00931,-0.03952,-0.04745,-0.01602,-0.01282,-0.01221,-0.03601,-0.30151,-0.01846,-0.02243,-0.01694,0.01007,-0.0589
8.701,-0.00198,-0.04074,-0.03357,-0.00916,-0.03708,-0.04456,-0.01602,-0.00595,-0.01801,-0.03342,-0.30869,-0.03555,-0.02411,-0.0177,0.00977,-0.05859
8.7015,-0.00076,-0.04135,-0.03342,-0.01038,-0.03311,-0.04318,-0.01572,0.00488,-0.0238,-0.03052,-0.33447,-0.02701,-0.03174,-0.01999,0.00885,-0.05753
8.702,-0.00122,-0.04013,-0.0351,-0.01007,-0.03052,-0.04333,-0.0145,0.01617,-0.0296,-0.02838,-0.35309,-0.00549,-0.03967,-0.02197,0.00671,-0.05676
8.7025,-0.00305,-0.03937,-0.03555,-0.00931,-0.03021,-0.04318,-0.0119,0.02457,-0.03571,-0.02777,-0.35645,0.0,-0.04364,-0.02029,0.0058,-0.0563
8.703,-0.00244,-0.03906,-0.03387,-0.00793,-0.03036,-0.04364,-0.00824,0.02777,-0.04135,-0.02716,-0.36179,-0.01068,-0.0444,-0.01862,0.00702,-0.05539
8.7035,-0.00046,-0.03998,-0.03357,-0.00885,-0.03067,-0.04517,-0.0058,0.02441,-0.04349,-0.02487,-0.383,-0.02029,-0.047,-0.01877,0.00748,-0.05402
8.704,-0.00031,-0.03967,-0.03342,-0.01068,-0.03143,-0.04608,-0.00671,0.01648,-0.04181,-0.02441,-0.40787,-0.01877,-0.05035,-0.01953,0.00854,-0.05356
8.7045,-0.00061,-0.03937,-0.03235,-0.01099,-0.03387,-0.04532,-0.00961,0.00793,-0.03738,-0.02274,-0.4097,-0.01358,-0.05157,-0.02075,0.0087,-0.05295
8.705,-0.00122,-0.0386,-0.03021,-0.01114,-0.03281,-0.0444,-0.01297,0.00122,-0.03372,-0.02045,-0.39063,-0.01282,-0.0499,-0.02136,0.009,-0.05127
8.7055,-0.00076,-0.03906,-0.02853,-0.01205,-0.03113,-0.04395,-0.01541,-0.00366,-0.02975,-0.01663,-0.36911,-0.01846,-0.04745,-0.02121,0.00885,-0.04944
8.706,-0.00092,-0.04196,-0.02899,-0.01404,-0.03189,-0.04501,-0.01724,-0.00992,-0.02472,-0.01343,-0.34653,-0.02838,-0.04517,-0.0206,0.0087,-0.04807
8.7065,-0.00061,-0.04318,-0.02899,-0.0145,-0.03098,-0.04684,-0.01724,-0.01877,-0.01678,-0.01038,-0.31265,-0.04395,-0.04486,-0.01923,0.01007,-0.04471
8.707,-0.00122,-0.04227,-0.03082,-0.01343,-0.03372,-0.04562,-0.01678,-0.03128,-0.00946,-0.00809,-0.27145,-0.05859,-0.04349,-0.01801,0.01129,-0.04349
8.7075,-0.00183,-0.04089,-0.03113,-0.01175,-0.03265,-0.04425,-0.01526,-0.04471,-0.00717,-0.00732,-0.23605,-0.06821,-0.03983,-0.01724,0.01129,-0.04471
8.708,-0.00214,-0.04196,-0.03082,-0.01251,-0.03326,-0.04349,-0.01373,-0.05203,-0.00916,-0.01114,-0.20874,-0.06516,-0.0386,-0.0174,0.00977,-0.04562
8.7085,-0.00137,-0.04257,-0.03036,-0.01328,-0.03311,-0.04379,-0.01144,-0.04257,-0.00946,-0.01663,-0.18265,-0.04379,-0.03769,-0.01923,0.00793,-0.04547
8.709,0.00015,-0.04211,-0.02975,-0.0119,-0.03159,-0.0444,-0.00854,-0.0116,-0.00961,-0.01968,-0.15823,-0.01083,-0.03738,-0.0206,0.00717,-0.04501
8.7095,0.00107,-0.04105,-0.03098,-0.00885,-0.03052,-0.04501,-0.00641,0.02884,-0.0119,-0.0174,-0.14038,0.01556,-0.03769,-0.01923,0.00717,-0.04425
8.71,0.00198,-0.04074,-0.03159,-0.00748,-0.0296,-0.04547,-0.00702,0.05554,-0.01526,-0.01312,-0.12894,0.02579,-0.03738,-0.01999,0.00854,-0.04303
8.7105,0.00198,-0.04089,-0.03281,-0.00717,-0.02838,-0.04562,-0.01038,0.05051,-0.01755,-0.01175,-0.12482,0.02655,-0.03784,-0.01877,0.00931,-0.04364
8.711,0.00183,-0.04105,-0.03403,-0.00778,-0.02808,-0.04684,-0.01144,0.02747,-0.01572,-0.0148,-0.12634,0.0325,-0.03662,-0.01602,0.00916,-0.04486
8.7115,0.00107,-0.0412,-0.03418,-0.00916,-0.02945,-0.04471,-0.00809,0.01709,-0.01297,-0.01801,-0.13031,0.0441,-0.03525,-0.01328,0.00961,-0.04593
8.712,-0.00061,-0.04181,-0.03433,-0.01038,-0.03128,-0.04379,-0.00412,0.02579,-0.0116,-0.01816,-0.12878,0.0528,-0.03265,-0.01282,0.00946,-0.04654
8.7125,-0.00214,-0.04242,-0.03387,-0.01068,-0.0322,-0.04364,-0.00687,0.03265,-0.01312,-0.0148,-0.12283,0.05295,-0.03098,-0.01572,0.00839,-0.04547
8.713,-0.0029,-0.04242,-0.03342,-0.01068,-0.03235,-0.0441,-0.01236,0.02274,-0.01556,-0.00992,-0.11734,0.05005,-0.0296,-0.01877,0.00687,-0.04456
8.7135,-0.0029,-0.04135,-0.03296,-0.01099,-0.0322,-0.04456,-0.01953,0.0029,-0.02106,-0.00809,-0.11887,0.047,-0.02991,-0.01984,0.00641,-0.0444
8.714,-0.00168,-0.04059,-0.03296,-0.0119,-0.0296,-0.04578,-0.0264,-0.01541,-0.02808,-0.00961,-0.12772,0.04562,-0.03036,-0.02121,0.00626,-0.04547
8.7145,-0.00229,-0.03967,-0.03204,-0.01251,-0.03235,-0.04684,-0.03433,-0.03143,-0.03204,-0.01251,-0.13062,0.04288,-0.02991,-0.02365,0.00717,-0.0473
8.715,-0.00504,-0.03983,-0.03174,-0.01129,-0.03372,-0.04684,-0.04028,-0.04013,-0.03159,-0.0148,-0.11734,0.03769,-0.0293,-0.02502,0.0087,-0.04807
8.7155,-0.00656,-0.04028,-0.03265,-0.00885,-0.03281,-0.04761,-0.04654,-0.03387,-0.02579,-0.0145,-0.07004,0.02625,-0.02731,-0.02335,0.01007,-0.04898
8.716,-0.00565,-0.04074,-0.03372,-0.00473,-0.03082,-0.04913,-0.05402,-0.01892,-0.01862,-0.01221,0.02426,0.01251,-0.02457,-0.0174,0.00778,-0.04929
8.7165,-0.00427,-0.04044,-0.03387,-0.00458,-0.03082,-0.04852,-0.0618,-0.01022,-0.0119,-0.00992,0.15045,-0.00183,-0.02228,-0.01236,0.00626,-0.04761
8.717,-0.00427,-0.03998,-0.03418,-0.00809,-0.0296,-0.04776,-0.06653,-0.01404,-0.00763,-0.00854,0.26749,-0.0119,-0.02151,-0.01144,0.00595,-0.04364
8.7175,-0.00443,-0.04135,-0.03616,-0.01205,-0.02975,-0.04807,-0.06073,-0.0209,-0.00839,-0.00961,0.3508,-0.01785,-0.02228,-0.0148,0.00748,-0.04089
8.718,-0.00427,-0.04227,-0.03815,-0.01312,-0.03082,-0.047,-0.04532,-0.0209,-0.01419,-0.01099,0.39413,-0.01862,-0.02396,-0.0177,0.00824,-0.04166
8.7185,-0.00397,-0.04105,-0.03967,-0.0116,-0.03326,-0.04745,-0.02716,-0.01358,-0.01984,-0.00916,0.39398,-0.01694,-0.02533,-0.01709,0.00793,-0.04379
8.719,-0.00381,-0.03998,-0.03784,-0.01114,-0.03372,-0.04745,-0.0116,-0.00443,-0.02197,-0.00336,0.35843,-0.0119,-0.02563,-0.01587,0.00656,-0.0444
8.7195,-0.00412,-0.03937,-0.03494,-0.01114,-0.0325,-0.04623,0.00244,0.0029,-0.01907,0.0,0.3186,-0.0032,-0.02563,-0.01511,0.00671,-0.04333
8.72,-0.00412,-0.03952,-0.03326,-0.01099,-0.03204,-0.04349,0.02014,0.0116,-0.01587,-0.00717,0.2887,0.00748,-0.02533,-0.0148,0.00885,-0.04105
8.7205,-0.00412,-0.03967,-0.03372,-0.00961,-0.03052,-0.04211,0.03922,0.0174,-0.01648,-0.02457,0.2536,0.01114,-0.02655,-0.0148,0.009,-0.03983
8.721,-0.00458,-0.03967,-0.03433,-0.00977,-0.02975,-0.04364,0.05066,0.01663,-0.01938,-0.04013,0.20294,0.00595,-0.02853,-0.0145,0.00854,-0.03906
8.7215,-0.0061,-0.03967,-0.03403,-0.00824,-0.02945,-0.04486,0.04303,0.00763,-0.02151,-0.04379,0.14587,-0.00504,-0.03067,-0.01709,0.00854,-0.0386
8.722,-0.00687,-0.03922,-0.03464,-0.00824,-0.02991,-0.04593,0.02014,-0.00504,-0.02182,-0.03769,0.10315,-0.02213,-0.0322,-0.01999,0.00931,-0.03922
8.7225,-0.00824,-0.03845,-0.0351,-0.00961,-0.02991,-0.04623,-0.00305,-0.01526,-0.02243,-0.02533,0.06989,-0.04318,-0.0322,-0.02182,0.00946,-0.03876
8.723,-0.00839,-0.03845,-0.03418,-0.01144,-0.03143,-0.047,-0.01434,-0.01831,-0.02441,-0.01358,0.03342,-0.0621,-0.0322,-0.02243,0.00961,-0.03632
8.7235,-0.00793,-0.0383,-0.03281,-0.01114,-0.03189,-0.04822,-0.01266,-0.01572,-0.02838,-0.00656,-0.009,-0.06958,-0.0325,-0.02228,0.0087,-0.03571
8.724,-0.0061,-0.03891,-0.03265,-0.00992,-0.0322,-0.0502,-0.00473,-0.01038,-0.03082,-0.00656,-0.04837,-0.0647,-0.03235,-0.02228,0.00809,-0.03525
8.7245,-0.00534,-0.03998,-0.03265,-0.00916,-0.0322,-0.05112,0.00107,-0.00397,-0.0322,-0.00992,-0.08545,-0.05539,-0.0322,-0.02289,0.00824,-0.03372
8.725,-0.0061,-0.04166,-0.03311,-0.00885,-0.03235,-0.05295,0.00412,0.00198,-0.03143,-0.01144,-0.12283,-0.05386,-0.03036,-0.02136,0.00931,-0.03296
8.7255,-0.00687,-0.04227,-0.03479,-0.01038,-0.03372,-0.05524,0.00198,0.00748,-0.0296,-0.00839,-0.15808,-0.06378,-0.02899,-0.01923,0.0087,-0.03372
8.726,-0.00763,-0.04242,-0.03632,-0.01144,-0.03555,-0.05585,-0.00351,0.01236,-0.02655,-0.00412,-0.18433,-0.0795,-0.02777,-0.01633,0.00824,-0.03616
8.7265,-0.0087,-0.04227,-0.03815,-0.01236,-0.03738,-0.05432,-0.00717,0.01602,-0.02151,-0.00366,-0.20248,-0.09186,-0.02808,-0.0145,0.00824,-0.03769
8.727,-0.00931,-0.04272,-0.03891,-0.01129,-0.03799,-0.05127,-0.00885,0.0174,-0.01511,-0.00626,-0.22278,-0.08942,-0.02838,-0.01358,0.00931,-0.0386
8.7275,-0.00946,-0.04379,-0.0386,-0.00946,-0.03723,-0.05035,-0.01251,0.01663,-0.00992,-0.00946,-0.24811,-0.06149,-0.02899,-0.01434,0.00977,-0.03891
8.728,-0.00839,-0.04593,-0.03876,-0.00839,-0.03662,-0.0502,-0.02075,0.01373,-0.00732,-0.00931,-0.26855,-0.01312,-0.02991,-0.0145,0.00961,-0.0383
8.7285,-0.00839,-0.04684,-0.0383,-0.00977,-0.03601,-0.05188,-0.02747,0.01022,-0.00626,-0.00275,-0.27573,0.02457,-0.02884,-0.01312,0.00839,-0.03983
8.729,-0.00809,-0.04623,-0.03784,-0.01236,-0.03693,-0.0531,-0.02716,0.00687,-0.00702,0.01526,-0.27145,0.02808,-0.0267,-0.01175,0.00748,-0.0412
8.7295,-0.00763,-0.0444,-0.03571,-0.01328,-0.03479,-0.05325,-0.01984,0.00427,-0.00824,0.05035,-0.25604,0.00961,-0.02319,-0.01236,0.00702,-0.04288
8.73,-0.00595,-0.04272,-0.03433,-0.01175,-0.0351,-0.05249,-0.01465,-0.00015,-0.00809,0.09018,-0.23544,-0.00198,-0.02151,-0.01419,0.00626,-0.04379
8.7305,-0.0058,-0.04242,-0.03265,-0.01007,-0.03098,-0.05157,-0.01602,-0.01343,-0.00519,0.10391,-0.22583,-0.00626,-0.02106,-0.01617,0.00687,-0.04623
8.731,-0.00626,-0.04272,-0.03296,-0.00916,-0.02823,-0.05051,-0.0206,-0.03357,-0.0032,0.07523,-0.23163,-0.02121,-0.02151,-0.01572,0.00687,-0.04761
8.7315,-0.00626,-0.04227,-0.03403,-0.00824,-0.02563,-0.04929,-0.02426,-0.0502,-0.00443,0.01846,-0.2417,-0.04211,-0.02151,-0.01373,0.0087,-0.04745
8.732,-0.00641,-0.04272,-0.03281,-0.00687,-0.02686,-0.04944,-0.02518,-0.05219,-0.00854,-0.02914,-0.25238,-0.03296,-0.02182,-0.01282,0.00931,-0.04745
8.7325,-0.00626,-0.0441,-0.03281,-0.00504,-0.02808,-0.0499,-0.02548,-0.04211,-0.0116,-0.05386,-0.26794,0.02197,-0.02228,-0.0148,0.00931,-0.0473
8.733,-0.00626,-0.04471,-0.03418,-0.00381,-0.0296,-0.04959,-0.02487,-0.0293,-0.01175,-0.06226,-0.28961,0.09308,-0.0238,-0.01755,0.00763,-0.04898
8.7335,-0.00473,-0.04471,-0.03616,-0.00366,-0.03128,-0.04791,-0.02319,-0.02075,-0.01221,-0.06821,-0.30823,0.13351,-0.02609,-0.01938,0.00565,-0.05127
8.734,-0.00427,-0.04349,-0.03723,-0.00534,-0.03128,-0.04745,-0.02197,-0.01877,-0.01495,-0.07141,-0.3183,0.12512,-0.02777,-0.01877,0.00519,-0.05402
8.7345,-0.00519,-0.0444,-0.03464,-0.00671,-0.0325,-0.04745,-0.02045,-0.02029,-0.01816,-0.07248,-0.32288,0.08881,-0.02792,-0.01465,0.00488,-0.05539
8.735,-0.00595,-0.04471,-0.03403,-0.00778,-0.03082,-0.04868,-0.01938,-0.02304,-0.0174,-0.07111,-0.3244,0.0531,-0.02686,-0.01099,0.00549,-0.05569
8.7355,-0.00656,-0.04349,-0.03494,-0.00778,-0.02899,-0.04898,-0.02014,-0.02213,-0.01266,-0.07126,-0.32257,0.03052,-0.02686,-0.01129,0.00488,-0.05432
8.736,-0.00504,-0.04196,-0.03647,-0.00885,-0.03189,-0.04837,-0.01984,-0.01572,-0.00839,-0.07141,-0.31342,0.02106,-0.02823,-0.01419,0.00504,-0.05508
8.7365,-0.00412,-0.04196,-0.03647,-0.01068,-0.03143,-0.04883,-0.01968,-0.0087,-0.00626,-0.06485,-0.29587,0.01892,-0.03067,-0.01572,0.00534,-0.05646
8.737,-0.00351,-0.04303,-0.0354,-0.01129,-0.03082,-0.04974,-0.01968,-0.00397,-0.00656,-0.05402,-0.27832,0.01801,-0.03174,-0.01434,0.0061,-0.05829
8.7375,-0.00458,-0.04333,-0.03616,-0.01038,-0.03082,-0.0502,-0.01953,-0.00305,-0.00687,-0.04822,-0.26764,0.01221,-0.03098,-0.01251,0.0058,-0.05875
8.738,-0.00671,-0.04211,-0.03845,-0.00946,-0.03067,-0.04837,-0.01938,-0.00244,-0.00809,-0.05051,-0.25726,-0.00046,-0.03021,-0.01389,0.00717,-0.05783
8.7385,-0.00748,-0.04089,-0.04074,-0.00946,-0.03174,-0.04623,-0.01892,-0.00244,-0.00946,-0.05295,-0.23849,-0.01633,-0.03128,-0.0174,0.00702,-0.05768
8.739,-0.00626,-0.04059,-0.03922,-0.00992,-0.03235,-0.04562,-0.01892,-0.00244,-0.01221,-0.05325,-0.21011,-0.02625,-0.03342,-0.01938,0.0058,-0.05829
8.7395,-0.00397,-0.04028,-0.03662,-0.00977,-0.03036,-0.04654,-0.01816,-0.00259,-0.01617,-0.05142,-0.17929,-0.01892,-0.03311,-0.01724,0.00534,-0.05966
8.74,-0.00305,-0.04028,-0.0351,-0.009,-0.02899,-0.047,-0.01526,-0.00229,-0.0209,-0.04974,-0.15442,0.0061,-0.03189,-0.01434,0.00641,-0.05875
8.7405,-0.00458,-0.04181,-0.03647,-0.00824,-0.0293,-0.04791,-0.01328,-0.00244,-0.02304,-0.04913,-0.13779,0.04074,-0.03113,-0.0148,0.00732,-0.0563
8.741,-0.00595,-0.0415,-0.03754,-0.00854,-0.03128,-0.047,-0.01236,-0.00076,-0.02106,-0.04715,-0.12283,0.0737,-0.03235,-0.0177,0.00839,-0.05524
8.7415,-0.0058,-0.04028,-0.03662,-0.00854,-0.03067,-0.04593,-0.01266,0.00229,-0.01877,-0.04288,-0.10483,0.09918,-0.03387,-0.01938,0.00763,-0.05402
8.742,-0.00458,-0.04059,-0.03464,-0.00885,-0.02838,-0.04608,-0.01419,0.00458,-0.01846,-0.03693,-0.08438,0.11688,-0.03342,-0.01831,0.00763,-0.05295
8.7425,-0.00412,-0.04181,-0.03189,-0.01007,-0.02716,-0.04684,-0.01694,0.00275,-0.02121,-0.0293,-0.06668,0.12207,-0.03189,-0.01633,0.00839,-0.05234
8.743,-0.00534,-0.04288,-0.03204,-0.01114,-0.02594,-0.04913,-0.01877,-0.00244,-0.02518,-0.02396,-0.04852,0.11093,-0.03128,-0.01633,0.00854,-0.05249
8.7435,-0.00549,-0.04211,-0.03555,-0.01053,-0.02533,-0.04822,-0.02045,-0.01068,-0.03052,-0.02151,-0.02686,0.08865,-0.0325,-0.01709,0.00793,-0.05142
8.744,-0.00565,-0.03998,-0.03723,-0.01007,-0.02823,-0.04761,-0.02014,-0.0177,-0.03586,-0.02136,-0.00046,0.06866,-0.03357,-0.01831,0.00626,-0.04944
8.7445,-0.00473,-0.0412,-0.03708,-0.01007,-0.02869,-0.04715,-0.02014,-0.02045,-0.04044,-0.01846,0.03403,0.0563,-0.03418,-0.02121,0.00488,-0.04745
8.745,-0.00458,-0.04272,-0.03586,-0.01114,-0.02838,-0.04593,-0.01984,-0.01663,-0.04044,-0.01251,0.08057,0.04654,-0.03357,-0.02441,0.00488,-0.04745
8.7455,-0.00473,-0.04318,-0.03372,-0.01129,-0.02899,-0.04395,-0.01877,-0.00977,-0.03677,-0.00549,0.1297,0.03799,-0.03265,-0.02686,0.00366,-0.04715
8.746,-0.00412,-0.04272,-0.03281,-0.01068,-0.02975,-0.04349,-0.0174,-0.00488,-0.03128,-0.00198,0.16342,0.0293,-0.03159,-0.02808,0.0032,-0.04593
8.7465,-0.00183,-0.04196,-0.03281,-0.01038,-0.03006,-0.04395,-0.01709,-0.00107,-0.02747,-0.00351,0.17609,0.02243,-0.03067,-0.02823,0.0032,-0.04257
8.747,0.00031,-0.04196,-0.03448,-0.01007,-0.03036,-0.04562,-0.0177,0.00381,-0.02548,-0.00687,0.18021,0.01724,-0.03052,-0.02823,0.00366,-0.0383
8.7475,0.00046,-0.04181,-0.03601,-0.00977,-0.02869,-0.04517,-0.0177,0.01114,-0.02335,-0.01114,0.18692,0.01404,-0.03098,-0.02655,0.00504,-0.03555
8.748,-0.00015,-0.0412,-0.03693,-0.00961,-0.02548,-0.04471,-0.01678,0.01648,-0.02106,-0.01556,0.1947,0.01221,-0.0325,-0.02457,0.00519,-0.03296
8.7485,0.00015,-0.04089,-0.03571,-0.01038,-0.02594,-0.04623,-0.01648,0.01801,-0.01877,-0.02213,0.19852,0.01144,-0.03387,-0.0238,0.00595,-0.0322
8.749,-0.00046,-0.04105,-0.03387,-0.01144,-0.02609,-0.047,-0.01556,0.01801,-0.01755,-0.02991,0.1973,0.01007,-0.03265,-0.02441,0.00534,-0.03311
8.7495,-0.00031,-0.04242,-0.0325,-0.0119,-0.02655,-0.04623,-0.01633,0.0174,-0.01556,-0.03632,0.19485,0.00931,-0.02838,-0.02533,0.00565,-0.03448
8.75,-0.00015,-0.04333,-0.03281,-0.01038,-0.02594,-0.04471,-0.01724,0.01633,-0.01358,-0.03586,0.19333,0.0087,-0.02411,-0.02548,0.00519,-0.03586
8.7505,0.00061,-0.04211,-0.03235,-0.01053,-0.02579,-0.04395,-0.01801,0.01434,-0.01144,-0.03128,0.19455,0.00305,-0.02228,-0.02396,0.00458,-0.03494
8.751,-0.00015,-0.03967,-0.03128,-0.01053,-0.02792,-0.04578,-0.01816,0.01312,-0.01007,-0.02594,0.20401,-0.00778,-0.02319,-0.02197,0.00366,-0.03403
8.7515,-0.00305,-0.0383,-0.03204,-0.00931,-0.02808,-0.04623,-0.01831,0.01175,-0.01007,-0.02228,0.22247,-0.01877,-0.02457,-0.01831,0.00153,-0.03555
8.752,-0.00458,-0.03754,-0.03326,-0.00717,-0.02838,-0.04776,-0.0206,0.00992,-0.0119,-0.01953,0.24124,-0.02365,-0.02228,-0.01678,0.00214,-0.03815
8.7525,-0.00412,-0.03815,-0.03448,-0.00549,-0.02975,-0.04715,-0.02197,0.00763,-0.01358,-0.01602,0.25513,-0.02029,-0.0177,-0.01724,0.00122,-0.03891
8.753,-0.00275,-0.03799,-0.03464,-0.00778,-0.02945,-0.04639,-0.02136,0.00565,-0.01389,-0.01236,0.26566,-0.01266,-0.01816,-0.01953,0.00092,-0.03616
8.7535,-0.00168,-0.03738,-0.03418,-0.01083,-0.03159,-0.04623,-0.01877,0.00198,-0.01556,-0.01007,0.2774,-0.00671,-0.02228,-0.02151,0.0,-0.03494
8.754,-0.00214,-0.03708,-0.03403,-0.01144,-0.0325,-0.04807,-0.01617,-0.00244,-0.02365,-0.00839,0.28671,-0.00275,-0.02594,-0.02319,0.00092,-0.03433
8.7545,-0.0032,-0.03723,-0.03525,-0.01007,-0.03189,-0.04929,-0.01556,-0.0061,-0.03418,-0.0061,0.28778,-0.00031,-0.02731,-0.02579,0.00183,-0.03494
8.755,-0.00351,-0.0386,-0.03494,-0.00885,-0.0325,-0.04837,-0.01617,-0.00534,-0.04211,-0.00366,0.27878,0.00214,-0.02823,-0.02808,0.00198,-0.03448
8.7555,-0.00473,-0.04044,-0.03555,-0.00793,-0.03403,-0.04776,-0.01526,0.0,-0.04623,-0.00336,0.24536,0.00534,-0.0296,-0.02853,0.00183,-0.03403
8.756,-0.00549,-0.04089,-0.0351,-0.00687,-0.03372,-0.04761,-0.01205,0.00458,-0.04501,-0.00595,0.18097,0.0058,-0.03036,-0.0264,0.00244,-0.03464
8.7565,-0.00458,-0.04089,-0.03555,-0.0061,-0.03448,-0.04868,-0.00916,0.00626,-0.04227,-0.01266,0.10437,0.00427,-0.02899,-0.02289,0.00397,-0.03647
8.757,-0.00366,-0.04028,-0.03723,-0.00687,-0.03448,-0.04913,-0.00809,0.0058,-0.03769,-0.01709,0.04303,0.00092,-0.02731,-0.02014,0.00565,-0.03738
8.7575,-0.00366,-0.03906,-0.03815,-0.0087,-0.03387,-0.04883,-0.009,0.00412,-0.03418,-0.02121,0.00076,-0.00122,-0.0264,-0.01877,0.0061,-0.03738
8.758,-0.00443,-0.03906,-0.03632,-0.00992,-0.03479,-0.04715,-0.01007,0.00168,-0.03403,-0.02243,-0.03204,0.00061,-0.02716,-0.01892,0.0058,-0.03738
8.7585,-0.00565,-0.04013,-0.03372,-0.00961,-0.0351,-0.04608,-0.0119,-0.00092,-0.0354,-0.02228,-0.06775,0.00595,-0.02823,-0.0177,0.00565,-0.03799
8.759,-0.00656,-0.04059,-0.03113,-0.00885,-0.03494,-0.04776,-0.01343,-0.00366,-0.03494,-0.0206,-0.10849,0.01083,-0.02853,-0.01602,0.00626,-0.03891
8.7595,-0.00717,-0.0415,-0.03082,-0.00809,-0.03357,-0.04929,-0.01587,-0.00412,-0.03204,-0.01785,-0.14618,0.0119,-0.02747,-0.01434,0.00641,-0.03952
8.76,-0.00717,-0.04303,-0.03204,-0.00793,-0.03342,-0.04929,-0.01648,-0.00427,-0.02975,-0.0177,-0.16922,0.00656,-0.02716,-0.01343,0.00732,-0.04196
8.7605,-0.00641,-0.04364,-0.03387,-0.00656,-0.03571,-0.04791,-0.01694,-0.00092,-0.03281,-0.02121,-0.17319,-0.00412,-0.02762,-0.0119,0.00854,-0.04593
8.761,-0.00488,-0.04318,-0.03326,-0.00549,-0.03433,-0.04715,-0.01709,0.00473,-0.03754,-0.02411,-0.1683,-0.01892,-0.02838,-0.0116,0.00931,-0.0502
8.7615,-0.00519,-0.04257,-0.03281,-0.00443,-0.03418,-0.04761,-0.01877,0.01236,-0.03891,-0.0235,-0.1593,-0.03357,-0.02869,-0.01312,0.01114,-0.05295
8.762,-0.00549,-0.04196,-0.03326,-0.00519,-0.03265,-0.04822,-0.02151,0.01511,-0.03586,-0.01968,-0.14496,-0.04318,-0.03006,-0.01572,0.0119,-0.05234
8.7625,-0.00717,-0.04196,-0.03433,-0.0058,-0.03326,-0.04761,-0.02319,0.00977,-0.03296,-0.01526,-0.13397,-0.04242,-0.03174,-0.01755,0.01129,-0.05173
8.763,-0.00763,-0.04166,-0.03281,-0.00565,-0.03403,-0.04639,-0.02167,0.00076,-0.0322,-0.01099,-0.14175,-0.03143,-0.03342,-0.01709,0.01083,-0.05295
8.7635,-0.00732,-0.04135,-0.03403,-0.00641,-0.03326,-0.04547,-0.01816,-0.00595,-0.03143,-0.00809,-0.16663,-0.01755,-0.03479,-0.01709,0.01251,-0.05707
8.764,-0.00717,-0.04105,-0.03433,-0.009,-0.03235,-0.04669,-0.01587,-0.00977,-0.0296,-0.00702,-0.18951,-0.00961,-0.03601,-0.01907,0.01297,-0.06027
8.7645,-0.00732,-0.04028,-0.0351,-0.01297,-0.02838,-0.0473,-0.01526,-0.01511,-0.02838,-0.00763,-0.19302,-0.00443,-0.03693,-0.02121,0.01282,-0.06149
8.765,-0.00824,-0.03952,-0.03342,-0.01495,-0.03204,-0.04715,-0.01587,-0.02197,-0.02808,-0.01007,-0.18066,0.0061,-0.03845,-0.02213,0.01236,-0.0621
8.7655,-0.00824,-0.03952,-0.03311,-0.0145,-0.03403,-0.04517,-0.01678,-0.02396,-0.02731,-0.0119,-0.15732,0.02213,-0.03891,-0.02258,0.01236,-0.06241
8.766,-0.00671,-0.04059,-0.03372,-0.01221,-0.03311,-0.04486,-0.01801,-0.01999,-0.02426,-0.01389,-0.1149,0.03204,-0.03891,-0.0235,0.01266,-0.06256
8.7665,-0.00595,-0.04135,-0.03464,-0.01038,-0.03403,-0.04501,-0.01831,-0.01297,-0.02121,-0.01526,-0.04517,0.02884,-0.03815,-0.02228,0.01297,-0.06439
8.767,-0.00641,-0.04166,-0.03464,-0.01038,-0.03357,-0.04745,-0.01831,-0.00565,-0.01892,-0.0148,0.03754,0.01389,-0.03586,-0.01785,0.01434,-0.06668
8.7675,-0.00717,-0.04211,-0.03342,-0.01099,-0.03448,-0.04868,-0.01633,-0.00122,-0.01724,-0.01343,0.10269,-0.0061,-0.03357,-0.01404,0.01511,-0.06989
8.768,-0.00687,-0.04227,-0.03342,-0.01114,-0.03433,-0.04669,-0.01404,-0.00122,-0.01404,-0.01221,0.13672,-0.02869,-0.03174,-0.01328,0.01511,-0.06882
8.7685,-0.00641,-0.04211,-0.03479,-0.00961,-0.03632,-0.04425,-0.01205,-0.00702,-0.00977,-0.01221,0.15762,-0.04227,-0.03265,-0.01495,0.01602,-0.06836
8.769,-0.00565,-0.04196,-0.03464,-0.00793,-0.03555,-0.04486,-0.01053,-0.01404,-0.00809,-0.01236,0.1918,-0.02182,-0.03525,-0.01663,0.01587,-0.06851
8.7695,-0.0058,-0.0412,-0.03311,-0.00748,-0.0354,-0.04639,-0.00793,-0.01511,-0.00793,-0.01129,0.24307,0.04562,-0.03708,-0.01511,0.01572,-0.06973
8.77,-0.00504,-0.03998,-0.0296,-0.00824,-0.03448,-0.0473,-0.00534,-0.01099,-0.00687,-0.00732,0.29388,0.12344,-0.03723,-0.01312,0.01709,-0.07019
8.7705,-0.00504,-0.03922,-0.02747,-0.00992,-0.03403,-0.04639,-0.00504,-0.00793,-0.00473,0.0,0.32791,0.14816,-0.03723,-0.01312,0.0174,-0.06989
8.771,-0.00488,-0.0383,-0.02701,-0.01053,-0.0351,-0.04578,-0.0061,-0.009,-0.0029,0.01068,0.35583,0.10315,-0.03693,-0.01328,0.01724,-0.06958
8.7715,-0.0061,-0.03815,-0.02823,-0.00916,-0.03418,-0.04623,-0.00656,-0.00977,-0.00366,0.0209,0.39551,0.03723,-0.03662,-0.01495,0.01587,-0.07004
8.772,-0.00748,-0.0386,-0.02991,-0.00824,-0.03113,-0.04791,-0.0058,-0.00885,-0.00641,0.02579,0.44418,-0.00366,-0.03708,-0.01617,0.01556,-0.07156
8.7725,-0.00687,-0.03922,-0.03143,-0.01007,-0.02899,-0.04837,-0.00641,-0.0087,-0.01068,0.02411,0.4805,-0.01663,-0.0383,-0.01724,0.01556,-0.07278
8.773,-0.00458,-0.03998,-0.03113,-0.01282,-0.02716,-0.04852,-0.00885,-0.01007,-0.01434,0.01724,0.4921,-0.01633,-0.03967,-0.01785,0.01556,-0.07217
8.7735,-0.00381,-0.04044,-0.0322,-0.01312,-0.02762,-0.04776,-0.00992,-0.01129,-0.01785,0.0087,0.49072,-0.00534,-0.04105,-0.01892,0.01373,-0.0705
8.774,-0.00412,-0.04074,-0.03296,-0.01205,-0.02808,-0.047,-0.00732,-0.00961,-0.02151,0.00397,0.49011,0.01312,-0.04135,-0.01999,0.01373,-0.06943
8.7745,-0.00412,-0.04028,-0.03342,-0.01053,-0.02838,-0.04623,-0.00366,-0.00793,-0.02502,0.00168,0.49576,0.02838,-0.04105,-0.02075,0.01419,-0.06943
8.775,-0.00443,-0.03937,-0.0325,-0.00916,-0.02808,-0.04684,-0.00366,-0.00778,-0.02777,-0.00168,0.49637,0.03403,-0.04028,-0.02197,0.01465,-0.07034
8.7755,-0.00473,-0.03906,-0.03128,-0.00839,-0.02884,-0.0473,-0.00717,-0.00824,-0.02869,-0.00824,0.48294,0.03387,-0.04135,-0.0235,0.01373,-0.07187
8.776,-0.00549,-0.0383,-0.02991,-0.00992,-0.02762,-0.04745,-0.01068,-0.00916,-0.02853,-0.01419,0.4567,0.03937,-0.04242,-0.02533,0.01221,-0.07233
8.7765,-0.00534,-0.03784,-0.03098,-0.0119,-0.02808,-0.047,-0.01282,-0.00793,-0.02899,-0.01801,0.4245,0.04974,-0.04333,-0.02655,0.01251,-0.07278
8.777,-0.00427,-0.03708,-0.0325,-0.01312,-0.02914,-0.04593,-0.01266,-0.00504,-0.02853,-0.02289,0.39154,0.05844,-0.04288,-0.02609,0.01297,-0.07355
8.7775,-0.00305,-0.03708,-0.03326,-0.01312,-0.03067,-0.04471,-0.01251,-0.00229,-0.02533,-0.03067,0.35507,0.06027,-0.04349,-0.02457,0.01328,-0.07629
8.778,-0.00183,-0.03738,-0.0354,-0.0116,-0.03143,-0.04578,-0.01175,-0.00198,-0.02167,-0.03754,0.31845,0.05447,-0.0444,-0.02441,0.01297,-0.07874
8.7785,-0.00061,-0.0386,-0.03525,-0.01144,-0.03159,-0.0473,-0.01053,-0.00336,-0.02197,-0.03998,0.28244,0.04364,-0.04425,-0.0264,0.01343,-0.07843
8.779,-0.00015,-0.04028,-0.03464,-0.01068,-0.03235,-0.04791,-0.00916,-0.00397,-0.0267,-0.0351,0.24246,0.02991,-0.04303,-0.02899,0.01343,-0.07828
8.7795,-0.00031,-0.04166,-0.03464,-0.01007,-0.03113,-0.047,-0.00824,-0.00275,-0.0322,-0.02747,0.1918,0.01633,-0.04211,-0.02838,0.01358,-0.07996
8.78,-0.00046,-0.04059,-0.03586,-0.00763,-0.02991,-0.04547,-0.00732,-0.00183,-0.03128,-0.0235,0.13138,0.00854,-0.03998,-0.02686,0.01389,-0.08224
8.7805,-0.00092,-0.03922,-0.03723,-0.00778,-0.03052,-0.04501,-0.00824,-0.00427,-0.02396,-0.02563,0.07156,0.00473,-0.03769,-0.02411,0.01434,-0.08423
8.781,-0.00137,-0.03922,-0.03662,-0.00885,-0.03189,-0.047,-0.01007,-0.00809,-0.01312,-0.03143,0.01801,0.0032,-0.03571,-0.02167,0.01495,-0.08545
8.7815,-0.00046,-0.03952,-0.0351,-0.01038,-0.03128,-0.0499,-0.01358,-0.00824,-0.00229,-0.03586,-0.03036,0.00687,-0.03372,-0.01846,0.0148,-0.08682
8.782,0.00168,-0.03937,-0.03372,-0.01038,-0.03036,-0.05127,-0.01572,-0.0058,0.00595,-0.03677,-0.06836,0.01923,-0.03296,-0.01556,0.01297,-0.08835
8.7825,0.00244,-0.03967,-0.03342,-0.00885,-0.02884,-0.05081,-0.01526,-0.0029,0.009,-0.02975,-0.09155,0.03693,-0.03281,-0.01343,0.01129,-0.09048
8.783,0.00076,-0.04013,-0.03326,-0.00778,-0.02945,-0.04898,-0.01282,-0.00214,0.00397,-0.01724,-0.09872,0.05142,-0.03235,-0.01266,0.01068,-0.09201
8.7835,-0.00015,-0.04044,-0.03433,-0.00763,-0.03143,-0.04715,-0.01068,-0.0029,-0.00519,-0.01007,-0.09293,0.05585,-0.03265,-0.01328,0.01007,-0.09247
8.784,-0.00107,-0.03983,-0.03494,-0.00916,-0.03464,-0.04715,-0.00946,-0.00305,-0.01389,-0.02045,-0.08636,0.04852,-0.03403,-0.0145,0.00992,-0.09293
8.7845,-0.00183,-0.03998,-0.03448,-0.0116,-0.03311,-0.04883,-0.00854,-0.00183,-0.01816,-0.04852,-0.09186,0.03693,-0.03494,-0.01602,0.01114,-0.09232
8.785,-0.00305,-0.04196,-0.03357,-0.01221,-0.02975,-0.0499,-0.00885,-0.00137,-0.02121,-0.07462,-0.10895,0.03571,-0.0351,-0.01541,0.0119,-0.09247
8.7855,-0.00381,-0.04242,-0.03372,-0.01282,-0.02884,-0.04883,-0.00946,0.0,-0.02335,-0.07614,-0.12451,0.05127,-0.03525,-0.01419,0.01114,-0.09369
8.786,-0.00336,-0.04089,-0.03479,-0.01251,-0.03036,-0.04807,-0.01144,0.00076,-0.0238,-0.05356,-0.13412,0.06927,-0.03571,-0.01419,0.01099,-0.09628
8.7865,-0.0029,-0.04013,-0.03662,-0.01236,-0.03326,-0.04776,-0.01266,-0.00015,-0.0206,-0.02426,-0.15594,0.0676,-0.03555,-0.01465,0.00977,-0.09827
8.787,-0.00275,-0.04105,-0.03799,-0.01343,-0.03693,-0.04807,-0.01312,-0.00046,-0.01541,-0.00519,-0.20294,0.04578,-0.03448,-0.01495,0.00931,-0.09689
8.7875,-0.0032,-0.04181,-0.03784,-0.01434,-0.0383,-0.04776,-0.01419,-0.00092,-0.01266,0.00656,-0.26337,0.02182,-0.03296,-0.01541,0.00916,-0.09293
8.788,-0.00198,-0.0415,-0.03586,-0.01373,-0.03693,-0.04745,-0.01526,-0.00153,-0.01495,0.01373,-0.29221,0.00931,-0.0325,-0.01648,0.01007,-0.08881
8.7885,-0.00092,-0.04211,-0.03464,-0.01221,-0.03571,-0.04807,-0.01541,-0.00229,-0.01602,0.01495,-0.23911,0.00458,-0.03387,-0.01785,0.00992,-0.08698
8.789,-0.00122,-0.04349,-0.03433,-0.01083,-0.03448,-0.04791,-0.01434,-0.0032,-0.00916,0.01038,-0.11551,-0.00015,-0.03464,-0.01862,0.00916,-0.08774
8.7895,-0.00214,-0.04425,-0.03464,-0.00961,-0.03265,-0.04776,-0.01389,-0.00366,0.00473,0.0061,-0.009,-0.00519,-0.03433,-0.01663,0.00793,-0.08499
8.79,-0.00412,-0.0441,-0.03418,-0.00961,-0.03098,-0.04684,-0.01434,-0.00336,0.01709,0.00946,0.00244,-0.01205,-0.03204,-0.01404,0.00839,-0.07935
8.7905,-0.00504,-0.04456,-0.03403,-0.01007,-0.03021,-0.04547,-0.01434,-0.00214,0.02304,0.01663,-0.05615,-0.01831,-0.03067,-0.01297,0.00931,-0.07446
8.791,-0.00381,-0.04517,-0.03479,-0.01175,-0.03082,-0.04456,-0.01434,-0.00122,0.02335,0.02274,-0.10849,-0.0235,-0.03174,-0.01434,0.01129,-0.07202
8.7915,-0.0032,-0.0444,-0.03494,-0.01266,-0.03174,-0.04593,-0.01389,0.0,0.02472,0.02151,-0.13031,-0.02609,-0.0322,-0.01587,0.01099,-0.0705
8.792,-0.00336,-0.04288,-0.03479,-0.01251,-0.03418,-0.04776,-0.01526,-0.00183,0.02625,0.01648,-0.14984,-0.02258,-0.03143,-0.01587,0.00809,-0.06714
8.7925,-0.00473,-0.04227,-0.03433,-0.01175,-0.0354,-0.04883,-0.01709,-0.00473,0.02411,0.0119,-0.18387,-0.01511,-0.0296,-0.01526,0.00473,-0.06149
8.793,-0.00381,-0.04303,-0.03372,-0.01053,-0.03677,-0.04761,-0.01892,-0.00702,0.01617,0.0119,-0.21622,-0.00748,-0.02991,-0.01587,0.00381,-0.05508
8.7935,-0.0029,-0.0444,-0.0351,-0.01007,-0.03525,-0.04562,-0.01907,-0.00702,0.00534,0.01053,-0.23468,-0.0032,-0.03204,-0.01724,0.0058,-0.05051
8.794,-0.00351,-0.04425,-0.03555,-0.01022,-0.03448,-0.04562,-0.01877,-0.0058,-0.00397,0.00427,-0.2475,-0.00046,-0.03342,-0.01999,0.00778,-0.04776
8.7945,-0.00519,-0.04395,-0.03479,-0.01114,-0.03311,-0.04669,-0.01755,-0.00397,-0.00839,-0.00732,-0.26917,0.00092,-0.03357,-0.02304,0.00946,-0.0473
8.795,-0.00443,-0.04395,-0.03265,-0.01083,-0.03235,-0.04791,-0.01556,-0.00244,-0.00732,-0.01831,-0.30212,0.00137,-0.03418,-0.02502,0.00916,-0.04578
8.7955,-0.00198,-0.04379,-0.02991,-0.009,-0.03464,-0.047,-0.01328,-0.00137,0.00092,-0.02243,-0.336,0.0,-0.03433,-0.02502,0.00931,-0.04318
8.796,-0.00198,-0.04379,-0.02975,-0.00702,-0.03479,-0.04501,-0.01312,-0.00076,0.01389,-0.0177,-0.37018,-0.00183,-0.03326,-0.02304,0.00809,-0.04013
8.7965,-0.00412,-0.04318,-0.03113,-0.00717,-0.03265,-0.04471,-0.01343,-0.00168,0.02701,-0.01099,-0.40771,-0.00259,-0.03098,-0.01984,0.00824,-0.03738
8.797,-0.00671,-0.04181,-0.03281,-0.00854,-0.03082,-0.04471,-0.01312,-0.00259,0.03571,-0.00885,-0.4422,-0.00397,-0.02869,-0.01862,0.00885,-0.03525
8.7975,-0.00748,-0.0412,-0.03372,-0.00824,-0.03021,-0.04517,-0.01221,-0.00244,0.04074,-0.01129,-0.46326,-0.00946,-0.02808,-0.01907,0.00931,-0.03357
8.798,-0.00748,-0.04166,-0.03326,-0.00687,-0.03113,-0.04486,-0.01099,-0.00076,0.04105,-0.01511,-0.46829,-0.01617,-0.0296,-0.01984,0.00839,-0.03235
8.7985,-0.0061,-0.04242,-0.03311,-0.0087,-0.03296,-0.04562,-0.01099,0.00076,0.03876,-0.01419,-0.45746,-0.0209,-0.03098,-0.01999,0.00763,-0.03159
8.799,-0.0061,-0.04257,-0.03357,-0.01144,-0.03189,-0.04684,-0.0116,-0.00061,0.03693,-0.01404,-0.43686,-0.02472,-0.03189,-0.01846,0.00885,-0.03189
8.7995,-0.0061,-0.04227,-0.03403,-0.01328,-0.03036,-0.04761,-0.01205,-0.00275,0.04013,-0.01297,-0.41885,-0.02823,-0.03143,-0.0174,0.00946,-0.03235
8.8,-0.00565,-0.0415,-0.03387,-0.01144,-0.02899,-0.04791,-0.01236,-0.00351,0.04547,-0.01465,-0.41367,-0.03189,-0.03098,-0.01801,0.00946,-0.03204
8.8005,-0.00488,-0.04181,-0.03281,-0.00946,-0.0293,-0.04791,-0.01205,-0.00244,0.0473,-0.02167,-0.41595,-0.03448,-0.03082,-0.0174,0.00839,-0.03235
8.801,-0.00504,-0.04257,-0.03281,-0.00824,-0.03113,-0.04761,-0.01282,-0.00244,0.04486,-0.03418,-0.41595,-0.03647,-0.02991,-0.01663,0.00671,-0.03357
8.8015,-0.00565,-0.04242,-0.0325,-0.00824,-0.03006,-0.04761,-0.01343,-0.00381,0.04181,-0.04898,-0.41153,-0.03799,-0.03098,-0.01633,0.00534,-0.03448
8.802,-0.00641,-0.0412,-0.03281,-0.00946,-0.02975,-0.04822,-0.01373,-0.0058,0.03876,-0.06226,-0.40482,-0.04196,-0.03372,-0.01755,0.00519,-0.03448
8.8025,-0.00656,-0.04028,-0.03311,-0.01007,-0.02823,-0.04944,-0.01328,-0.00504,0.03555,-0.07355,-0.39658,-0.04532,-0.03586,-0.01785,0.00565,-0.03464
8.803,-0.00671,-0.04028,-0.03296,-0.00946,-0.02884,-0.04868,-0.01297,-0.00412,0.03342,-0.08347,-0.38361,-0.04608,-0.03601,-0.01755,0.00626,-0.03494
8.8035,-0.00793,-0.03983,-0.03174,-0.01007,-0.02762,-0.04715,-0.01419,-0.00275,0.03448,-0.09125,-0.36118,-0.04578,-0.03601,-0.01694,0.00641,-0.03494
8.804,-0.00946,-0.03891,-0.0322,-0.01022,-0.02625,-0.04791,-0.01556,-0.00229,0.03677,-0.09186,-0.32776,-0.04425,-0.03494,-0.0174,0.0061,-0.03647
8.8045,-0.00961,-0.03754,-0.03342,-0.01038,-0.02747,-0.04807,-0.01572,-0.00214,0.03479,-0.0856,-0.28824,-0.04044,-0.03403,-0.01892,0.00626,-0.03799
8.805,-0.00885,-0.03723,-0.03357,-0.01038,-0.02823,-0.04868,-0.01389,-0.00229,0.03036,-0.07462,-0.25192,-0.03632,-0.03464,-0.02045,0.00671,-0.03922
8.8055,-0.00717,-0.03799,-0.03311,-0.00977,-0.02823,-0.04822,-0.01205,-0.00229,0.02914,-0.06409,-0.22324,-0.03403,-0.0354,-0.02228,0.00641,-0.03693
8.806,-0.00626,-0.03922,-0.03235,-0.009,-0.02731,-0.04868,-0.01205,-0.00168,0.03174,-0.05539,-0.19836,-0.03525,-0.0351,-0.02213,0.00534,-0.03311
8.8065,-0.00519,-0.04013,-0.03296,-0.00763,-0.02762,-0.04761,-0.01266,-0.00198,0.03525,-0.047,-0.17258,-0.0386,-0.03387,-0.02106,0.00473,-0.03128
8.807,-0.00458,-0.04028,-0.03418,-0.00687,-0.02747,-0.04761,-0.01205,-0.00244,0.03448,-0.03937,-0.14221,-0.03906,-0.03357,-0.02045,0.00671,-0.0322
8.8075,-0.00473,-0.03983,-0.0351,-0.00702,-0.02823,-0.047,-0.01144,-0.00168,0.03113,-0.03555,-0.1088,-0.03769,-0.03372,-0.01968,0.00839,-0.03265
8.808,-0.00519,-0.03952,-0.03464,-0.00824,-0.02808,-0.0473,-0.01175,-0.00046,0.02838,-0.0325,-0.07599,-0.03494,-0.03464,-0.01892,0.00946,-0.0322
8.8085,-0.00397,-0.03922,-0.03372,-0.00946,-0.02823,-0.04807,-0.01358,0.00061,0.0267,-0.02869,-0.04333,-0.03296,-0.03342,-0.01801,0.01007,-0.03113
8.809,-0.0029,-0.03845,-0.03387,-0.01022,-0.02914,-0.04791,-0.01434,0.00137,0.02426,-0.01984,-0.00565,-0.03036,-0.0322,-0.01678,0.01022,-0.02838
8.8095,-0.00229,-0.03754,-0.03448,-0.0087,-0.02991,-0.04868,-0.01312,0.00122,0.02045,-0.00534,0.03967,-0.02945,-0.03143,-0.01587,0.009,-0.0264
8.81,-0.00229,-0.03693,-0.03357,-0.00778,-0.02869,-0.04807,-0.0119,-0.00015,0.01419,0.01129,0.08698,-0.03082,-0.03235,-0.01633,0.00778,-0.02396
8.8105,-0.00198,-0.03723,-0.0325,-0.00748,-0.02609,-0.04791,-0.01053,-0.00031,0.00946,0.02029,0.13199,-0.03357,-0.03265,-0.0174,0.00626,-0.02121
8.811,-0.00229,-0.03769,-0.03143,-0.0087,-0.02441,-0.04791,-0.01099,0.0,0.00824,0.01419,0.17212,-0.03418,-0.03342,-0.01907,0.00641,-0.01938
8.8115,-0.00168,-0.03723,-0.03159,-0.00824,-0.02472,-0.04868,-0.01221,0.00061,0.00824,0.00153,0.20401,-0.03296,-0.03281,-0.0206,0.009,-0.0174
8.812,-0.00107,-0.03784,-0.03265,-0.00778,-0.02655,-0.04684,-0.01312,0.00076,0.00671,-0.01022,0.23636,-0.03265,-0.03082,-0.02121,0.00961,-0.01541
8.8125,-0.00046,-0.03769,-0.03372,-0.00732,-0.02823,-0.047,-0.01312,0.0,0.0032,-0.01862,0.27786,-0.03296,-0.02914,-0.02167,0.00839,-0.01297
8.813,-0.00092,-0.03662,-0.03479,-0.00732,-0.02884,-0.04715,-0.01144,-0.00183,-0.00061,-0.02579,0.32394,-0.0325,-0.0293,-0.02258,0.00671,-0.01144
8.8135,-0.00198,-0.03708,-0.03616,-0.00839,-0.02869,-0.04715,-0.00961,-0.00259,-0.00412,-0.03204,0.36621,-0.03067,-0.03021,-0.0235,0.00488,-0.01022
8.814,-0.00214,-0.03906,-0.03708,-0.00916,-0.02808,-0.04745,-0.00824,-0.0029,-0.0061,-0.03464,0.40024,-0.02808,-0.03021,-0.0235,0.00549,-0.0087
8.8145,-0.00107,-0.04105,-0.03677,-0.00885,-0.02808,-0.04807,-0.00763,-0.00229,-0.00656,-0.03525,0.42984,-0.02472,-0.03006,-0.02182,0.00687,-0.00687
8.815,-0.00168,-0.04227,-0.03754,-0.00778,-0.02838,-0.04822,-0.00732,-0.00229,-0.009,-0.03448,0.45654,-0.02045,-0.02991,-0.02045,0.00778,-0.00519
8.8155,-0.00427,-0.04395,-0.03784,-0.00641,-0.02914,-0.04761,-0.00687,-0.00275,-0.01373,-0.0354,0.48203,-0.01602,-0.02991,-0.01938,0.00763,-0.00458
8.816,-0.00641,-0.0441,-0.03693,-0.00702,-0.03036,-0.04684,-0.00656,-0.00259,-0.01923,-0.0354,0.50613,-0.01251,-0.03006,-0.02029,0.00687,-0.00305
8.8165,-0.00732,-0.04196,-0.03448,-0.00763,-0.03113,-0.04639,-0.0061,-0.00305,-0.02502,-0.03342,0.52795,-0.01114,-0.03067,-0.02167,0.00839,-0.00153
8.817,-0.00839,-0.03937,-0.03601,-0.00824,-0.03174,-0.04623,-0.00534,-0.00427,-0.03067,-0.03067,0.54703,-0.01129,-0.03143,-0.02136,0.00763,-0.00015
8.8175,-0.00931,-0.0383,-0.03601,-0.00824,-0.0325,-0.04593,-0.00488,-0.00534,-0.03494,-0.03036,0.56534,-0.0116,-0.03143,-0.01923,0.00656,0.00015
8.818,-0.00824,-0.0386,-0.03448,-0.00687,-0.03174,-0.04593,-0.00565,-0.00504,-0.03693,-0.02884,0.58517,-0.01007,-0.0293,-0.01709,0.00519,0.00046
8.8185,-0.00656,-0.03967,-0.03387,-0.00549,-0.03113,-0.04745,-0.00565,-0.00336,-0.03952,-0.02151,0.60257,-0.00763,-0.0296,-0.01602,0.00565,0.00061
8.819,-0.00549,-0.04089,-0.03387,-0.00549,-0.03128,-0.04852,-0.00687,-0.00336,-0.04471,-0.01297,0.61722,-0.0058,-0.0293,-0.01678,0.00595,0.00137
8.8195,-0.00504,-0.04257,-0.03418,-0.00488,-0.03281,-0.04852,-0.00854,-0.00412,-0.05035,-0.00626,0.63019,-0.00702,-0.03052,-0.01755,0.00687,0.00275
8.82,-0.00412,-0.04257,-0.0351,-0.0058,-0.03281,-0.04593,-0.009,-0.00443,-0.05386,-0.00061,0.6424,-0.00763,-0.03113,-0.01724,0.00824,0.00427
8.8205,-0.00336,-0.04227,-0.03616,-0.00717,-0.03159,-0.04608,-0.0087,-0.00443,-0.05447,0.0061,0.6488,-0.0058,-0.03174,-0.01572,0.0087,0.00458
8.821,-0.0029,-0.04074,-0.03738,-0.00778,-0.0322,-0.04791,-0.00763,-0.00397,-0.05173,0.0119,0.63934,-0.00473,-0.03143,-0.01511,0.00931,0.00427
8.8215,-0.0032,-0.04044,-0.03693,-0.00748,-0.02991,-0.04807,-0.00824,-0.00336,-0.04898,0.0145,0.56976,-0.00732,-0.02975,-0.01556,0.00839,0.00504
8.822,-0.0032,-0.04105,-0.03632,-0.00717,-0.02914,-0.0473,-0.00992,-0.00214,-0.04807,0.01221,0.34149,-0.01358,-0.02838,-0.01617,0.00748,0.00671
8.8225,-0.00305,-0.0415,-0.0354,-0.00702,-0.02945,-0.04608,-0.01038,-0.00229,-0.04807,0.00809,-0.12634,-0.01602,-0.02823,-0.01526,0.00748,0.00824
8.823,-0.00381,-0.04181,-0.03525,-0.00854,-0.02899,-0.04669,-0.00992,-0.00198,-0.04852,0.00397,-0.74783,-0.01297,-0.03021,-0.01404,0.00702,0.00824
8.8235,-0.00351,-0.04227,-0.03601,-0.01007,-0.03098,-0.04654,-0.00992,-0.00305,-0.04807,0.00168,-1.30219,-0.00641,-0.03159,-0.01312,0.00504,0.00961
8.824,-0.00259,-0.04242,-0.03723,-0.01114,-0.03143,-0.04715,-0.01099,-0.00336,-0.04807,0.00046,-1.65817,-0.00153,-0.03342,-0.01389,0.00626,0.01083
8.8245,-0.00214,-0.04105,-0.03754,-0.01007,-0.03113,-0.04745,-0.01068,-0.00381,-0.04929,-0.00031,-1.8721,-0.00031,-0.03372,-0.01556,0.00626,0.01083
8.825,-0.00122,-0.04059,-0.03845,-0.00809,-0.02991,-0.04669,-0.01022,-0.00412,-0.05402,-0.00351,-2.04468,-0.0029,-0.03387,-0.01907,0.00732,0.00854
8.8255,-0.00107,-0.03967,-0.03891,-0.00946,-0.03082,-0.04623,-0.01007,-0.00336,-0.06058,-0.00961,-2.18445,-0.0058,-0.03342,-0.02121,0.00778,0.00381
8.826,-0.00122,-0.03922,-0.03738,-0.0119,-0.03098,-0.04593,-0.01205,-0.00381,-0.06683,-0.01785,-2.23618,-0.00824,-0.03296,-0.02197,0.009,0.00092
8.8265,-0.0029,-0.03876,-0.03555,-0.01251,-0.03159,-0.04608,-0.01434,-0.00458,-0.07034,-0.02304,-2.17926,-0.01038,-0.03296,-0.02136,0.00931,0.00137
8.827,-0.00473,-0.03891,-0.03479,-0.01114,-0.03113,-0.04639,-0.0174,-0.00565,-0.07034,-0.02228,-2.04803,-0.01099,-0.03296,-0.01999,0.00961,0.00168
8.8275,-0.00549,-0.04089,-0.03555,-0.00931,-0.02975,-0.04623,-0.01877,-0.00641,-0.06989,-0.01511,-1.87958,-0.01083,-0.03281,-0.02045,0.00931,0.00092
8.828,-0.00656,-0.04349,-0.03586,-0.01083,-0.0293,-0.04654,-0.0177,-0.00488,-0.06989,-0.00885,-1.66351,-0.01114,-0.03265,-0.02197,0.00885,-0.00122
8.8285,-0.00687,-0.0441,-0.03494,-0.01328,-0.02823,-0.04868,-0.0148,-0.0029,-0.06882,-0.00702,-1.37543,-0.01114,-0.03311,-0.02411,0.00717,-0.00412
8.829,-0.00717,-0.04471,-0.03555,-0.01343,-0.02792,-0.05051,-0.01312,-0.00183,-0.06454,-0.00687,-1.0405,-0.00885,-0.03357,-0.02533,0.00656,-0.00626
8.8295,-0.00702,-0.04471,-0.03586,-0.01205,-0.0293,-0.04852,-0.01236,-0.00183,-0.05875,-0.00778,-0.73746,-0.00473,-0.03174,-0.02396,0.00656,-0.00626
8.83,-0.00534,-0.04532,-0.03708,-0.01007,-0.02914,-0.04761,-0.0116,-0.00168,-0.05341,-0.00992,-0.53207,0.00061,-0.0296,-0.02106,0.00763,-0.00473
8.8305,-0.00549,-0.04517,-0.03769,-0.01038,-0.03067,-0.04929,-0.01022,-0.00092,-0.05096,-0.01312,-0.4155,0.00519,-0.02823,-0.01877,0.00916,-0.00519
8.831,-0.00702,-0.04562,-0.03723,-0.01099,-0.03326,-0.04898,-0.00916,-0.00137,-0.05066,-0.01923,-0.298,0.00793,-0.02823,-0.01801,0.009,-0.00854
8.8315,-0.00778,-0.04501,-0.03677,-0.01114,-0.03418,-0.04776,-0.00885,-0.00168,-0.0499,-0.02396,-0.11368,0.00916,-0.02792,-0.01694,0.00885,-0.01328
8.832,-0.00626,-0.04562,-0.03616,-0.01114,-0.03326,-0.04684,-0.01053,-0.00107,-0.04791,-0.02747,0.08133,0.00809,-0.02869,-0.01648,0.00748,-0.01724
8.8325,-0.00351,-0.04486,-0.03555,-0.01129,-0.03113,-0.04868,-0.01358,-0.00229,-0.04547,-0.02975,0.20874,0.00656,-0.03006,-0.01678,0.00717,-0.01968
8.833,-0.00229,-0.04288,-0.03448,-0.01144,-0.03082,-0.04807,-0.01602,-0.00397,-0.04196,-0.02914,0.31296,0.00534,-0.02899,-0.0177,0.00732,-0.02106
8.8335,-0.00259,-0.04044,-0.0351,-0.01221,-0.03174,-0.047,-0.0174,-0.00534,-0.03723,-0.02533,0.49606,0.00534,-0.02762,-0.01846,0.00763,-0.02136
8.834,-0.00336,-0.04013,-0.03586,-0.01266,-0.03326,-0.04868,-0.01633,-0.00626,-0.03418,-0.0206,0.75241,0.0058,-0.0264,-0.01923,0.00748,-0.02365
8.8345,-0.00336,-0.04013,-0.03555,-0.01282,-0.03281,-0.05005,-0.01404,-0.0058,-0.03403,-0.01694,0.99319,0.00397,-0.0264,-0.01846,0.00656,-0.02411
8.835,-0.0029,-0.03906,-0.03418,-0.01175,-0.0322,-0.0499,-0.01266,-0.00412,-0.03311,-0.01694,1.18591,0.00092,-0.02625,-0.01678,0.00641,-0.02411
8.8355,-0.00244,-0.03799,-0.03311,-0.01144,-0.03036,-0.05081,-0.01236,-0.00336,-0.03143,-0.01831,1.35284,-0.00259,-0.02625,-0.01526,0.0058,-0.02457
8.836,-0.00259,-0.03693,-0.03143,-0.01236,-0.03067,-0.05051,-0.01205,-0.00351,-0.03342,-0.01968,1.4856,-0.00626,-0.02609,-0.01602,0.00595,-0.0267
8.8365,-0.00259,-0.03723,-0.03082,-0.01404,-0.03189,-0.0499,-0.01236,-0.00397,-0.03967,-0.01846,1.53854,-0.00977,-0.02731,-0.01816,0.00519,-0.02914
8.837,-0.00183,-0.03815,-0.03143,-0.01465,-0.03281,-0.04959,-0.01343,-0.00473,-0.04807,-0.01617,1.49643,-0.01373,-0.02747,-0.02121,0.0058,-0.02869
8.8375,-0.00259,-0.03967,-0.03265,-0.01434,-0.03311,-0.04837,-0.0148,-0.00458,-0.05737,-0.01556,1.40305,-0.01526,-0.0296,-0.02197,0.00839,-0.0267
8.838,-0.00443,-0.04135,-0.03235,-0.01465,-0.03296,-0.04929,-0.01511,-0.00427,-0.06546,-0.01511,1.306,-0.01511,-0.03082,-0.0209,0.01129,-0.02502
8.8385,-0.00641,-0.0415,-0.03082,-0.01434,-0.03403,-0.05066,-0.01419,-0.00381,-0.07111,-0.01373,1.19034,-0.0148,-0.03113,-0.02014,0.01251,-0.02457
8.839,-0.00656,-0.03967,-0.03021,-0.01389,-0.03525,-0.04715,-0.01419,-0.00244,-0.07309,-0.01129,0.99899,-0.01343,-0.03021,-0.02335,0.01221,-0.02441
8.8395,-0.00473,-0.03754,-0.03021,-0.0119,-0.03555,-0.047,-0.0145,-0.00122,-0.07019,-0.00717,0.73486,-0.01053,-0.03036,-0.02731,0.01099,-0.02533
8.84,-0.0029,-0.03708,-0.03113,-0.00931,-0.03601,-0.04807,-0.0148,-0.00137,-0.0647,-0.00412,0.50323,-0.00778,-0.03128,-0.02869,0.01022,-0.02716
8.8405,-0.00214,-0.03815,-0.03265,-0.00839,-0.03662,-0.04593,-0.0148,-0.00122,-0.05768,-0.00366,0.39551,-0.00763,-0.03067,-0.02777,0.00931,-0.03006
8.841,-0.00275,-0.03922,-0.03296,-0.00885,-0.03662,-0.04684,-0.01373,-0.00153,-0.05219,-0.00443,0.38681,-0.00931,-0.0293,-0.02518,0.00824,-0.03296
8.8415,-0.00336,-0.03922,-0.0322,-0.01022,-0.03601,-0.04929,-0.01282,-0.00076,-0.04944,-0.0058,0.3894,-0.00946,-0.02823,-0.02304,0.009,-0.03418
8.842,-0.00473,-0.03983,-0.03235,-0.0119,-0.03632,-0.04807,-0.01282,0.00031,-0.04929,-0.00885,0.36606,-0.00793,-0.02869,-0.02197,0.01007,-0.03357
8.8425,-0.00717,-0.04105,-0.03326,-0.01266,-0.03418,-0.04959,-0.01404,0.00092,-0.04929,-0.01312,0.34042,-0.00778,-0.0293,-0.0206,0.00946,-0.03433
8.843,-0.00748,-0.04135,-0.03403,-0.01114,-0.03159,-0.04959,-0.01526,-0.00015,-0.04822,-0.01907,0.33905,-0.00824,-0.02975,-0.01999,0.00717,-0.03586
8.8435,-0.00595,-0.0415,-0.03326,-0.01007,-0.03021,-0.05157,-0.01633,-0.0029,-0.0441,-0.02197,0.354,-0.01099,-0.03036,-0.01968,0.0058,-0.03632
8.844,-0.00443,-0.04166,-0.0325,-0.01007,-0.03128,-0.04745,-0.01709,-0.00671,-0.03693,-0.02228,0.35828,-0.01389,-0.03098,-0.01923,0.00687,-0.0354
8.8445,-0.00488,-0.04242,-0.0322,-0.01068,-0.03281,-0.04639,-0.01602,-0.00732,-0.02975,-0.02182,0.34134,-0.01602,-0.0296,-0.01785,0.00732,-0.03479
8.845,-0.00671,-0.04318,-0.03281,-0.01205,-0.03326,-0.04745,-0.01572,-0.0058,-0.02762,-0.02563,0.32059,-0.01511,-0.02991,-0.01602,0.00458,-0.03464
8.8455,-0.009,-0.04272,-0.03265,-0.0119,-0.0322,-0.04639,-0.01511,-0.00443,-0.02975,-0.03296,0.32486,-0.0145,-0.03052,-0.01617,0.00046,-0.03616
8.846,-0.00977,-0.04242,-0.03235,-0.01022,-0.0325,-0.04776,-0.01434,-0.00366,-0.03311,-0.04059,0.36362,-0.01541,-0.03021,-0.01709,-0.00305,-0.03677
8.8465,-0.00702,-0.04257,-0.03418,-0.00916,-0.02991,-0.04807,-0.01343,-0.00229,-0.03555,-0.04654,0.41168,-0.01556,-0.03036,-0.01877,-0.00214,-0.03662
8.847,-0.0029,-0.0441,-0.03418,-0.009,-0.02945,-0.04959,-0.01328,-0.00214,-0.03571,-0.04852,0.42557,-0.01251,-0.0296,-0.01892,0.00107,-0.03479
8.8475,-0.00137,-0.04425,-0.03281,-0.01022,-0.03082,-0.04868,-0.01434,-0.00229,-0.03479,-0.04517,0.38223,-0.00763,-0.02899,-0.01892,0.00412,-0.03296
8.848,-0.00275,-0.04318,-0.03113,-0.01205,-0.03281,-0.0473,-0.01556,-0.0029,-0.0351,-0.03799,0.30365,-0.00351,-0.02777,-0.01816,0.00336,-0.03098
8.8485,-0.00458,-0.0415,-0.03113,-0.01389,-0.03296,-0.04684,-0.01755,-0.0032,-0.03754,-0.03082,0.22125,-0.00168,-0.02823,-0.01694,0.00031,-0.0296
8.849,-0.0058,-0.04028,-0.03281,-0.01419,-0.0322,-0.04654,-0.01984,-0.00275,-0.04135,-0.02563,0.14954,-0.00122,-0.02869,-0.01602,-0.00107,-0.02945
8.8495,-0.00519,-0.04074,-0.03357,-0.01404,-0.03159,-0.04562,-0.02045,-0.00198,-0.04227,-0.02213,0.08392,-0.00015,-0.0293,-0.01511,0.00061,-0.02731
8.85,-0.00412,-0.04211,-0.03296,-0.01297,-0.02899,-0.04517,-0.01923,-0.00229,-0.03815,-0.01999,0.02289,0.00122,-0.02716,-0.01556,0.0029,-0.02426
8.8505,-0.0029,-0.04211,-0.03296,-0.01266,-0.02747,-0.0444,-0.01923,-0.00305,-0.03189,-0.0177,-0.02792,0.00259,-0.0267,-0.01709,0.00366,-0.02274
8.851,-0.00229,-0.04242,-0.03357,-0.01282,-0.0264,-0.04532,-0.02029,-0.00427,-0.02533,-0.01343,-0.05875,0.00381,-0.02792,-0.02029,0.00244,-0.02396
8.8515,-0.00183,-0.04196,-0.03357,-0.01297,-0.02716,-0.04608,-0.02045,-0.00412,-0.01831,-0.00702,-0.07309,0.00473,-0.02945,-0.02213,0.00092,-0.02701
8.852,-0.00412,-0.0415,-0.03326,-0.0116,-0.02777,-0.05051,-0.01846,-0.00336,-0.00977,-0.00122,-0.08575,0.00519,-0.03006,-0.0235,0.00137,-0.02899
8.8525,-0.0061,-0.03998,-0.03464,-0.01022,-0.02914,-0.04944,-0.01556,-0.00275,-0.00259,0.00137,-0.09567,0.00397,-0.03052,-0.02472,0.00137,-0.02777
8.853,-0.00626,-0.03906,-0.0354,-0.01053,-0.02991,-0.05051,-0.01419,-0.00168,0.00336,0.00412,-0.0914,0.00381,-0.03235,-0.02548,0.00137,-0.02579
8.8535,-0.00473,-0.03922,-0.03525,-0.01297,-0.03036,-0.05173,-0.01419,-0.00137,0.01068,0.00565,-0.0737,0.00443,-0.03357,-0.02609,0.00244,-0.02472
8.854,-0.00473,-0.03998,-0.03708,-0.01465,-0.03082,-0.05188,-0.0145,-0.00092,0.01862,0.00687,-0.06882,0.00381,-0.03357,-0.02609,0.00229,-0.02411
8.8545,-0.00504,-0.03952,-0.03677,-0.01205,-0.03204,-0.05112,-0.01572,-0.0029,0.0238,0.00458,-0.09125,0.00259,-0.03448,-0.02625,0.00336,-0.02289
8.855,-0.0058,-0.03906,-0.03601,-0.00534,-0.0325,-0.04868,-0.01678,-0.00458,0.02304,0.00183,-0.11841,0.00275,-0.0351,-0.02579,0.00504,-0.02182
8.8555,-0.00595,-0.0386,-0.03403,0.00458,-0.03296,-0.047,-0.01724,-0.00671,0.01877,0.00015,-0.12604,0.00519,-0.03616,-0.02518,0.00595,-0.02274
8.856,-0.00504,-0.03845,-0.03357,0.01129,-0.03235,-0.04837,-0.0174,-0.00793,0.01282,-0.00443,-0.12772,0.00824,-0.03693,-0.02502,0.00702,-0.02457
8.8565,-0.00504,-0.03784,-0.03403,0.0119,-0.03159,-0.04898,-0.0174,-0.00748,0.00473,-0.0148,-0.15549,0.0116,-0.03693,-0.02747,0.00717,-0.02579
8.857,-0.00565,-0.03723,-0.03433,0.00671,-0.03113,-0.0499,-0.01709,-0.00534,-0.00549,-0.02853,-0.20203,0.01251,-0.03677,-0.02762,0.00687,-0.02777
8.8575,-0.00748,-0.03754,-0.03525,0.00229,-0.03159,-0.0499,-0.01633,-0.00305,-0.01297,-0.03952,-0.21927,0.00992,-0.03479,-0.02487,0.00717,-0.02853
8.858,-0.00809,-0.03906,-0.03632,0.00153,-0.03143,-0.0499,-0.01648,-0.00183,-0.01617,-0.04242,-0.18768,0.00717,-0.03265,-0.01953,0.00809,-0.02899
8.8585,-0.00809,-0.04044,-0.03586,0.00443,-0.03128,-0.04745,-0.01663,-0.00137,-0.01938,-0.03937,-0.13748,0.00519,-0.03052,-0.01572,0.00702,-0.02975
8.859,-0.00732,-0.04089,-0.03571,0.00885,-0.03159,-0.04578,-0.0177,-0.00168,-0.02457,-0.03693,-0.11032,0.00443,-0.02975,-0.01511,0.00656,-0.0322
8.8595,-0.00626,-0.04089,-0.0354,0.01373,-0.03143,-0.04425,-0.01785,-0.00214,-0.0293,-0.03555,-0.11032,0.00366,-0.0296,-0.01587,0.00717,-0.03494
8.86,-0.00626,-0.04044,-0.03464,0.01648,-0.02991,-0.04593,-0.01663,-0.00366,-0.03143,-0.03265,-0.11154,0.00351,-0.02884,-0.01495,0.00824,-0.03677
8.8605,-0.00702,-0.04028,-0.03342,0.01801,-0.02884,-0.04669,-0.01526,-0.00565,-0.0322,-0.0296,-0.09995,0.00153,-0.02686,-0.01343,0.00931,-0.03616
8.861,-0.00687,-0.04074,-0.03159,0.01907,-0.02853,-0.04623,-0.01404,-0.00702,-0.03342,-0.0264,-0.08118,-0.00076,-0.02548,-0.01205,0.01022,-0.03433
8.8615,-0.00443,-0.04059,-0.03036,0.01099,-0.02808,-0.04486,-0.01434,-0.00702,-0.03357,-0.02502,-0.05585,-0.00214,-0.02533,-0.01099,0.01129,-0.03326
8.862,-0.0032,-0.04013,-0.03082,-0.01953,-0.02838,-0.04562,-0.0148,-0.0058,-0.02975,-0.02472,-0.01999,-0.00153,-0.02686,-0.00946,0.01053,-0.03525
8.8625,-0.00351,-0.03967,-0.0325,-0.06882,-0.0293,-0.04684,-0.01602,-0.00458,-0.01984,-0.02396,0.0209,0.0,-0.02747,-0.00916,0.01038,-0.03967
8.863,-0.00473,-0.0415,-0.03296,-0.10101,-0.03143,-0.04776,-0.01633,-0.00412,-0.00565,-0.0235,0.05402,-0.00076,-0.02777,-0.01038,0.009,-0.04318
8.8635,-0.00565,-0.04272,-0.03296,-0.0946,-0.03143,-0.04913,-0.01633,-0.00458,0.00763,-0.0209,0.06989,-0.00153,-0.02777,-0.01251,0.009,-0.04395
8.864,-0.00565,-0.04333,-0.0325,-0.06851,-0.03143,-0.04913,-0.01541,-0.00473,0.01404,-0.01236,0.0705,-0.00092,-0.02701,-0.01343,0.01022,-0.0415
8.8645,-0.00458,-0.04227,-0.03265,-0.05432,-0.0296,-0.04822,-0.01465,-0.00366,0.01373,0.00107,0.07278,0.00122,-0.02655,-0.01404,0.0119,-0.03922
8.865,-0.00381,-0.04257,-0.03342,-0.05676,-0.02869,-0.04852,-0.01511,-0.00214,0.01068,0.01221,0.08133,0.00656,-0.02747,-0.01343,0.01312,-0.03952
8.8655,-0.00351,-0.04425,-0.03342,-0.0563,-0.02945,-0.04761,-0.01633,-0.00198,0.009,0.01389,0.0946,0.01251,-0.03021,-0.01419,0.01343,-0.04135
8.866,-0.00427,-0.0473,-0.03342,-0.03845,-0.0322,-0.04745,-0.01724,-0.00229,0.00854,0.00732,0.11795,0.01617,-0.0325,-0.01526,0.01343,-0.04257
8.8665,-0.0058,-0.04776,-0.03311,-0.00732,-0.03296,-0.04715,-0.01587,-0.00275,0.00671,0.0,0.15503,0.01617,-0.03326,-0.01678,0.01312,-0.04288
8.867,-0.00565,-0.04578,-0.03311,0.02335,-0.03311,-0.04684,-0.01373,-0.00397,0.00427,-0.00412,0.19196,0.01373,-0.03281,-0.01846,0.01251,-0.04486
8.8675,-0.00534,-0.04318,-0.0325,0.04501,-0.03281,-0.047,-0.01328,-0.00519,0.00565,-0.0061,0.21561,0.01114,-0.03342,-0.01877,0.01114,-0.05005
8.868,-0.00488,-0.04166,-0.03159,0.05371,-0.03525,-0.04486,-0.0148,-0.00626,0.01053,-0.00656,0.23148,0.00839,-0.03448,-0.0177,0.0119,-0.05661
8.8685,-0.00504,-0.03998,-0.03159,0.04959,-0.03616,-0.04715,-0.01663,-0.00549,0.01617,-0.00931,0.25269,0.00748,-0.03632,-0.01648,0.01144,-0.06119
8.869,-0.00534,-0.03967,-0.03326,0.03571,-0.03586,-0.04669,-0.01785,-0.00351,0.01831,-0.01541,0.26932,0.00641,-0.03647,-0.01602,0.01175,-0.06271
8.8695,-0.00549,-0.03998,-0.03418,0.01862,-0.03372,-0.047,-0.01862,-0.00183,0.01984,-0.02045,0.26855,0.00549,-0.03494,-0.01633,0.01236,-0.06088
8.87,-0.00504,-0.04105,-0.0351,0.0058,-0.03281,-0.04654,-0.01862,-0.00061,0.02167,-0.02136,0.25772,0.00366,-0.03357,-0.01678,0.01297,-0.05829
8.8705,-0.00458,-0.0415,-0.03418,-0.00031,-0.03357,-0.04547,-0.01801,-0.00137,0.02243,-0.02029,0.25757,0.0032,-0.03281,-0.0177,0.01358,-0.05768
8.871,-0.00458,-0.04211,-0.03342,-0.00137,-0.03342,-0.04547,-0.01785,-0.00198,0.02014,-0.02426,0.27374,0.0032,-0.03342,-0.01907,0.01205,-0.05875
8.8715,-0.00595,-0.04211,-0.03235,-0.00153,-0.03296,-0.04486,-0.01862,-0.00137,0.01358,-0.03128,0.289,0.00229,-0.03387,-0.0206,0.00946,-0.0592
8.872,-0.00641,-0.04196,-0.03281,-0.00198,-0.03159,-0.0444,-0.01816,0.0,0.00732,-0.0351,0.28763,-0.00122,-0.03372,-0.01984,0.00717,-0.05707
8.8725,-0.00595,-0.04242,-0.03342,-0.00336,-0.03128,-0.04532,-0.01877,0.00046,0.00458,-0.03601,0.27023,-0.00702,-0.03342,-0.01663,0.00565,-0.05539
8.873,-0.00443,-0.04242,-0.03479,-0.00473,-0.02991,-0.04562,-0.01999,0.00061,0.00549,-0.03784,0.25665,-0.01282,-0.03281,-0.01419,0.00854,-0.05447
8.8735,-0.00259,-0.04211,-0.03632,-0.00534,-0.03098,-0.04562,-0.01968,0.00122,0.00702,-0.04059,0.25024,-0.01419,-0.03296,-0.01373,0.01022,-0.05539
8.874,-0.00092,-0.04181,-0.03677,-0.00641,-0.03174,-0.04547,-0.01801,0.00137,0.00778,-0.0412,0.23911,-0.00885,-0.03372,-0.01587,0.01343,-0.05692
8.8745,-0.00046,-0.04242,-0.03616,-0.00748,-0.03204,-0.04318,-0.01755,0.00275,0.00931,-0.04013,0.21774,-0.00214,-0.03464,-0.01907,0.01282,-0.05692
8.875,-0.00137,-0.04242,-0.03616,-0.00885,-0.03296,-0.04517,-0.01923,0.00351,0.01221,-0.04333,0.19836,0.00046,-0.0351,-0.0206,0.0119,-0.05737
8.8755,-0.0029,-0.04242,-0.0351,-0.00977,-0.03357,-0.04639,-0.02106,0.00336,0.01358,-0.05905,0.19669,-0.00214,-0.0351,-0.01831,0.01129,-0.05905
8.876,-0.00366,-0.04166,-0.0351,-0.01266,-0.03387,-0.04868,-0.01984,0.0032,0.01236,-0.08026,0.20706,-0.00168,-0.0351,-0.01495,0.01175,-0.0621
8.8765,-0.00305,-0.04074,-0.03754,-0.01999,-0.03311,-0.04852,-0.01587,0.00336,0.01236,-0.08942,0.21011,0.00732,-0.03403,-0.01389,0.01068,-0.06317
8.877,-0.00275,-0.04044,-0.03769,-0.03006,-0.03159,-0.04776,-0.01343,0.00305,0.01328,-0.07965,0.18677,0.02228,-0.03357,-0.01465,0.00961,-0.0618
8.8775,-0.00229,-0.04044,-0.03738,-0.03937,-0.03189,-0.04745,-0.01404,0.00275,0.01343,-0.0531,0.14282,0.03433,-0.03326,-0.01831,0.00916,-0.05966
8.878,-0.00198,-0.03891,-0.03555,-0.04608,-0.03403,-0.04776,-0.01663,0.00229,0.01129,-0.02563,0.09827,0.03693,-0.03326,-0.02106,0.00977,-0.05875
8.8785,-0.00092,-0.03937,-0.03311,-0.04959,-0.03525,-0.04807,-0.01938,0.00061,0.00626,-0.00183,0.06668,0.0325,-0.03296,-0.02167,0.01175,-0.05905
8.879,-0.00153,-0.04013,-0.03372,-0.05341,-0.03586,-0.047,-0.01816,-0.00076,0.00214,0.01801,0.04288,0.02823,-0.03265,-0.01923,0.01236,-0.05859
8.8795,-0.00336,-0.03983,-0.03296,-0.05508,-0.03326,-0.04486,-0.01495,-0.00122,0.0032,0.03601,0.02365,0.02914,-0.03281,-0.01678,0.01251,-0.05936
8.88,-0.0029,-0.03876,-0.03143,-0.05188,-0.03021,-0.04349,-0.01266,0.00046,0.00641,0.04684,0.01312,0.03326,-0.03433,-0.01526,0.0116,-0.05936
8.8805,-0.00275,-0.03754,-0.02991,-0.04013,-0.02914,-0.04379,-0.01389,0.00153,0.0061,0.04974,0.0029,0.03632,-0.0354,-0.01572,0.0116,-0.06149
8.881,-0.0029,-0.03723,-0.03159,-0.01373,-0.02914,-0.04547,-0.0148,0.00153,-0.00107,0.04745,-0.01572,0.03693,-0.03418,-0.01633,0.01068,-0.06195
8.8815,-0.00366,-0.03815,-0.03464,0.02579,-0.03082,-0.04684,-0.0148,0.00076,-0.00916,0.04364,-0.04227,0.03555,-0.03326,-0.01755,0.0087,-0.06363
8.882,-0.00412,-0.03967,-0.03784,0.06195,-0.03159,-0.047,-0.01251,0.00031,-0.01114,0.03906,-0.06805,0.03342,-0.03357,-0.01862,0.00671,-0.06546
8.8825,-0.00534,-0.04074,-0.03922,0.06866,-0.03204,-0.0473,-0.01129,0.00031,-0.00854,0.03418,-0.08957,0.03113,-0.03525,-0.01862,0.0058,-0.06607
8.883,-0.00519,-0.04028,-0.03784,0.04318,-0.03189,-0.04745,-0.01175,0.00076,-0.00412,0.03021,-0.10712,0.03021,-0.03693,-0.0177,0.00702,-0.06653
8.8835,-0.0061,-0.03906,-0.03723,0.01114,-0.03067,-0.04745,-0.01312,0.00076,-0.00061,0.0267,-0.1236,0.02869,-0.03632,-0.01556,0.0087,-0.06592
8.884,-0.0058,-0.03906,-0.03586,-0.00427,-0.03052,-0.04623,-0.01404,0.00122,0.00214,0.02167,-0.14053,0.02228,-0.03479,-0.01358,0.01022,-0.06592
8.8845,-0.00473,-0.04028,-0.03647,-0.00504,-0.03006,-0.04517,-0.01297,-0.00031,0.00366,0.01343,-0.15915,0.01175,-0.03433,-0.01312,0.0119,-0.06699
8.885,-0.00595,-0.04105,-0.03616,-0.00076,-0.03082,-0.04639,-0.01266,-0.00137,0.00458,0.0,-0.1825,0.00122,-0.03632,-0.0148,0.01297,-0.06775
8.8855,-0.00809,-0.0415,-0.03662,0.00305,-0.03098,-0.04883,-0.01282,-0.00076,0.00763,-0.01511,-0.20615,-0.00473,-0.0386,-0.01694,0.0148,-0.06607
8.886,-0.00946,-0.04227,-0.03693,0.00854,-0.03036,-0.04944,-0.01358,0.00153,0.01022,-0.02808,-0.22537,-0.0061,-0.03967,-0.01755,0.01434,-0.06393
8.8865,-0.00824,-0.0441,-0.03647,0.01068,-0.0293,-0.04852,-0.01556,0.00244,0.00717,-0.0296,-0.24017,-0.00488,-0.03998,-0.01572,0.01358,-0.06256
8.887,-0.00549,-0.04517,-0.0354,0.00458,-0.02975,-0.04745,-0.0177,0.00214,-0.00214,-0.01724,-0.25269,-0.009,-0.0383,-0.01358,0.01083,-0.06149
8.8875,-0.00443,-0.04517,-0.03525,-0.00397,-0.03098,-0.04715,-0.02075,0.00046,-0.01251,-0.00122,-0.26718,-0.01892,-0.03693,-0.01343,0.00977,-0.06393
8.888,-0.00443,-0.04379,-0.0351,-0.00671,-0.03204,-0.04837,-0.02197,-0.00137,-0.01694,0.00214,-0.27985,-0.02808,-0.03632,-0.01434,0.00992,-0.06927
8.8885,-0.00397,-0.04303,-0.03448,-0.00565,-0.0325,-0.04837,-0.02029,-0.00107,-0.01602,-0.01068,-0.28793,-0.02853,-0.03632,-0.01389,0.00916,-0.07294
8.889,-0.00381,-0.04288,-0.03326,-0.00732,-0.03128,-0.04822,-0.01846,0.00122,-0.01328,-0.02884,-0.29465,-0.02396,-0.03616,-0.01129,0.00809,-0.07233
8.8895,-0.00427,-0.04349,-0.03326,-0.0145,-0.03174,-0.04776,-0.0174,0.00397,-0.01083,-0.03967,-0.30487,-0.01907,-0.03571,-0.01099,0.00778,-0.06744
8.89,-0.0032,-0.04242,-0.03342,-0.01343,-0.03113,-0.04684,-0.01709,0.00458,-0.01068,-0.04486,-0.31219,-0.01434,-0.03586,-0.01312,0.00931,-0.0621
8.8905,-0.00153,-0.04059,-0.03326,0.01312,-0.03174,-0.04715,-0.0174,0.00336,-0.01251,-0.04745,-0.31448,-0.0029,-0.03693,-0.01602,0.00916,-0.06149
8.891,-0.00153,-0.04013,-0.03326,0.05722,-0.03159,-0.04807,-0.01785,0.0,-0.01389,-0.04837,-0.31097,0.01572,-0.03906,-0.01602,0.009,-0.06302
8.8915,-0.00214,-0.04105,-0.03601,0.08423,-0.03113,-0.04868,-0.01831,-0.00275,-0.01282,-0.04822,-0.3035,0.03281,-0.03998,-0.0148,0.00916,-0.06348
8.892,-0.0029,-0.04181,-0.0383,0.06058,-0.03067,-0.04837,-0.0177,-0.00336,-0.01205,-0.04623,-0.29312,0.03983,-0.03906,-0.01556,0.00946,-0.06393
8.8925,-0.0032,-0.04074,-0.03784,-0.00336,-0.02975,-0.04715,-0.01648,-0.00214,-0.01465,-0.04623,-0.28427,0.03555,-0.0383,-0.01923,0.00824,-0.06729
8.893,-0.00473,-0.03845,-0.03494,-0.0621,-0.02884,-0.04501,-0.01465,-0.00015,-0.01907,-0.04898,-0.27573,0.02396,-0.03891,-0.02045,0.00809,-0.06897
8.8935,-0.0058,-0.03754,-0.03372,-0.08865,-0.02869,-0.04517,-0.01358,0.00076,-0.02075,-0.05386,-0.26321,0.01984,-0.03967,-0.01999,0.0087,-0.06729
8.894,-0.0058,-0.03815,-0.03342,-0.09232,-0.03021,-0.04608,-0.01251,0.00092,-0.02014,-0.05783,-0.25452,0.03372,-0.03876,-0.01907,0.01007,-0.06332
8.8945,-0.00595,-0.03952,-0.03494,-0.09308,-0.03174,-0.04608,-0.01266,-0.00015,-0.01877,-0.05692,-0.2562,0.05936,-0.03616,-0.01755,0.00931,-0.06027
8.895,-0.00641,-0.03906,-0.03616,-0.09354,-0.03006,-0.04578,-0.01266,-0.00107,-0.02014,-0.05234,-0.26459,0.07004,-0.03372,-0.01572,0.00748,-0.05936
8.8955,-0.00687,-0.03876,-0.03647,-0.07721,-0.03036,-0.04593,-0.01312,-0.00107,-0.02563,-0.04715,-0.2684,0.05402,-0.03296,-0.0145,0.00473,-0.06073
8.896,-0.00549,-0.03815,-0.03586,-0.0325,-0.03189,-0.04654,-0.01205,-0.00092,-0.03143,-0.0415,-0.26688,0.02472,-0.03357,-0.01648,0.00458,-0.0618
8.8965,-0.00336,-0.03784,-0.03632,0.02579,-0.0325,-0.04745,-0.01175,0.0,-0.0354,-0.03708,-0.26657,0.00732,-0.03433,-0.01892,0.00656,-0.05905
8.897,-0.00229,-0.0386,-0.0351,0.06256,-0.03265,-0.04761,-0.01114,0.00061,-0.03799,-0.03281,-0.26703,0.00671,-0.03571,-0.01907,0.009,-0.05676
8.8975,-0.00336,-0.03891,-0.03296,0.05325,-0.0325,-0.04684,-0.01221,-0.00015,-0.04028,-0.0296,-0.26337,0.01083,-0.03586,-0.01724,0.00961,-0.05402
8.898,-0.00412,-0.03876,-0.03128,0.0058,-0.03159,-0.04669,-0.01328,-0.00153,-0.04166,-0.02823,-0.25299,0.00931,-0.03479,-0.01541,0.00916,-0.05341
8.8985,-0.00427,-0.03937,-0.03143,-0.04135,-0.03372,-0.04623,-0.01556,-0.0029,-0.04318,-0.02701,-0.23712,0.00656,-0.03326,-0.01465,0.00885,-0.05463
8.899,-0.00275,-0.04059,-0.03281,-0.05005,-0.0322,-0.04608,-0.01877,-0.00412,-0.04486,-0.02731,-0.21896,0.00824,-0.03204,-0.01434,0.00931,-0.05615
8.8995,-0.00198,-0.04044,-0.03311,-0.01862,-0.03326,-0.04547,-0.0206,-0.00366,-0.04944,-0.02502,-0.19943,0.01404,-0.03113,-0.0145,0.01053,-0.05585
8.9,-0.0029,-0.03891,-0.03265,0.01495,-0.03189,-0.0444,-0.02014,-0.00336,-0.05463,-0.02228,-0.17776,0.01755,-0.03189,-0.01724,0.01068,-0.05295
8.9005,-0.00397,-0.0386,-0.03357,0.01282,-0.03067,-0.04395,-0.01831,-0.00275,-0.05905,-0.02121,-0.15671,0.01434,-0.03159,-0.0206,0.01129,-0.05112
8.901,-0.00504,-0.03784,-0.03433,-0.01511,-0.02914,-0.04318,-0.01785,-0.0029,-0.06165,-0.02258,-0.14542,0.00763,-0.03189,-0.02274,0.01144,-0.05035
8.9015,-0.00565,-0.03723,-0.03372,-0.03281,-0.0296,-0.04395,-0.01968,-0.0029,-0.0618,-0.02411,-0.13748,0.00366,-0.03159,-0.02151,0.01205,-0.04959
8.902,-0.00549,-0.03708,-0.03311,-0.02365,-0.03098,-0.04608,-0.02182,-0.0029,-0.05905,-0.0238,-0.12512,0.00412,-0.03098,-0.02045,0.01129,-0.04852
8.9025,-0.00412,-0.03769,-0.03113,-0.00534,-0.03036,-0.0473,-0.02151,-0.00244,-0.05096,-0.02167,-0.11246,0.00534,-0.03113,-0.01938,0.00946,-0.04852
8.903,-0.00275,-0.03845,-0.03143,-0.00076,-0.03128,-0.0473,-0.02121,-0.00259,-0.03998,-0.01938,-0.11002,0.00763,-0.03174,-0.01877,0.00946,-0.04898
8.9035,-0.00305,-0.03906,-0.03159,-0.01038,-0.0325,-0.04623,-0.02151,-0.00458,-0.02975,-0.01801,-0.11368,0.01419,-0.03113,-0.01816,0.01007,-0.04959
8.904,-0.00412,-0.04059,-0.03265,-0.02289,-0.03326,-0.04669,-0.0235,-0.00671,-0.0238,-0.01755,-0.11398,0.02396,-0.03082,-0.0177,0.01007,-0.05157
8.9045,-0.00351,-0.04166,-0.03372,-0.03372,-0.03128,-0.0473,-0.02472,-0.00824,-0.0235,-0.01541,-0.11093,0.03143,-0.03098,-0.01999,0.00824,-0.05188
8.905,-0.0029,-0.0415,-0.03418,-0.04303,-0.03021,-0.04791,-0.0238,-0.00778,-0.02502,-0.01404,-0.10803,0.02838,-0.03036,-0.02274,0.00824,-0.05203
8.9055,-0.00275,-0.04074,-0.03464,-0.04791,-0.02975,-0.04776,-0.02304,-0.00519,-0.02914,-0.01266,-0.10727,0.01785,-0.0322,-0.0238,0.0087,-0.05081
8.906,-0.00412,-0.03983,-0.03403,-0.05005,-0.02823,-0.0473,-0.02045,-0.00427,-0.03265,-0.01236,-0.10712,0.00488,-0.03052,-0.02365,0.00916,-0.04868
8.9065,-0.0061,-0.04013,-0.03418,-0.05081,-0.02716,-0.04669,-0.01846,-0.00366,-0.03326,-0.01083,-0.10208,-0.00412,-0.03052,-0.02441,0.009,-0.04837
8.907,-0.00595,-0.04089,-0.03448,-0.05402,-0.02869,-0.047,-0.01633,-0.00534,-0.0296,-0.00916,-0.08881,-0.01282,-0.03159,-0.02441,0.0087,-0.04852
8.9075,-0.00412,-0.0415,-0.03433,-0.05234,-0.0267,-0.04745,-0.01602,-0.00595,-0.02411,-0.00702,-0.07767,-0.02121,-0.03265,-0.02335,0.00992,-0.04745
8.908,-0.00214,-0.04211,-0.0354,-0.04272,-0.0293,-0.04807,-0.01648,-0.00519,-0.02075,-0.00488,-0.07904,-0.02594,-0.0322,-0.02106,0.00961,-0.04517
8.9085,-0.00198,-0.04089,-0.03632,-0.03326,-0.02762,-0.04807,-0.01617,-0.00412,-0.01938,-0.00458,-0.09201,-0.02686,-0.03006,-0.02014,0.009,-0.04425
8.909,-0.0029,-0.03906,-0.03632,-0.0383,-0.03067,-0.04715,-0.01648,-0.00473,-0.01923,-0.00687,-0.10849,-0.02853,-0.03036,-0.02106,0.00916,-0.04608
8.9095,-0.00443,-0.0386,-0.03555,-0.05356,-0.03098,-0.04807,-0.01831,-0.00519,-0.01846,-0.00854,-0.11673,-0.03601,-0.03296,-0.02258,0.00885,-0.04745
8.91,-0.00488,-0.03937,-0.03494,-0.05127,-0.03082,-0.04929,-0.01968,-0.00595,-0.01862,-0.00885,-0.11459,-0.04395,-0.03326,-0.02289,0.00854,-0.05066
8.9105,-0.00565,-0.04044,-0.03464,0.00153,-0.02914,-0.04791,-0.01938,-0.00641,-0.02045,-0.0061,-0.10666,-0.04471,-0.03204,-0.02075,0.00702,-0.06897
8.911,-0.00504,-0.04028,-0.03494,0.09354,-0.02914,-0.04654,-0.01877,-0.00641,-0.02075,-0.00626,-0.09827,-0.03876,-0.03021,-0.02014,0.00565,-0.11246
8.9115,-0.00519,-0.03952,-0.03403,0.16785,-0.02747,-0.04639,-0.01907,-0.00473,-0.01831,-0.00885,-0.09125,-0.03448,-0.0296,-0.02045,0.00687,-0.16312
8.912,-0.00534,-0.03784,-0.03357,0.17624,-0.0293,-0.047,-0.02029,-0.00473,-0.01434,-0.01053,-0.0824,-0.03296,-0.02975,-0.02075,0.00793,-0.17838
8.9125,-0.00504,-0.03815,-0.03418,0.12314,-0.0296,-0.04791,-0.0206,-0.00549,-0.01221,-0.01114,-0.07034,-0.02945,-0.02914,-0.0206,0.00931,-0.13336
8.913,-0.00488,-0.03922,-0.03448,0.04837,-0.03006,-0.04715,-0.02029,-0.0061,-0.01114,-0.01175,-0.05539,-0.01984,-0.02838,-0.0209,0.01038,-0.05249
8.9135,-0.00534,-0.03967,-0.03479,-0.01297,-0.02991,-0.047,-0.01923,-0.00702,-0.01007,-0.01389,-0.03983,-0.0087,-0.0293,-0.02136,0.01099,0.01312
8.914,-0.0061,-0.04013,-0.03479,-0.04364,-0.03067,-0.04715,-0.01892,-0.00763,-0.00946,-0.01633,-0.02701,-0.00061,-0.0322,-0.02213,0.01022,0.04288
8.9145,-0.00732,-0.03998,-0.0354,-0.05005,-0.03128,-0.04669,-0.01938,-0.009,-0.00961,-0.01785,-0.02213,0.0061,-0.03372,-0.02258,0.00916,0.04547
8.915,-0.00931,-0.04105,-0.03555,-0.04654,-0.03067,-0.04684,-0.01984,-0.01053,-0.01053,-0.01846,-0.0264,0.0087,-0.03357,-0.0209,0.00946,0.03769
8.9155,-0.01083,-0.04181,-0.03372,-0.04135,-0.02914,-0.04684,-0.02014,-0.01038,-0.01114,-0.01648,-0.03357,0.00839,-0.03372,-0.0206,0.01144,0.0264
8.916,-0.01205,-0.04227,-0.03021,-0.0322,-0.0322,-0.04822,-0.01862,-0.01022,-0.01114,-0.01129,-0.03693,0.00153,-0.03296,-0.02213,0.0119,0.01434
8.9165,-0.01221,-0.0415,-0.02975,-0.02045,-0.03342,-0.04913,-0.01724,-0.00977,-0.00977,-0.00366,-0.03784,-0.00916,-0.03189,-0.02396,0.01175,-0.00076
8.917,-0.0116,-0.03952,-0.0322,-0.01312,-0.03433,-0.04959,-0.01633,-0.00916,-0.00824,0.00153,-0.0386,-0.01511,-0.03128,-0.02533,0.01053,-0.01785
8.9175,-0.00961,-0.04059,-0.03464,-0.00946,-0.03265,-0.04883,-0.01526,-0.00824,-0.01007,0.00275,-0.04364,-0.01068,-0.03143,-0.02411,0.01007,-0.03464
8.918,-0.00732,-0.04257,-0.03448,0.00275,-0.03052,-0.04745,-0.01434,-0.00854,-0.01404,0.00275,-0.05661,0.0,-0.03159,-0.02151,0.00885,-0.04333
8.9185,-0.0058,-0.04456,-0.03418,0.03479,-0.02899,-0.047,-0.01556,-0.00839,-0.01663,0.00031,-0.06683,0.00626,-0.03098,-0.0174,0.00793,-0.04425
8.919,-0.00458,-0.04395,-0.0351,0.06851,-0.03311,-0.04837,-0.01755,-0.00885,-0.01678,-0.00443,-0.06546,0.00565,-0.02945,-0.01511,0.00641,-0.0441
8.9195,-0.00458,-0.04242,-0.0351,0.07294,-0.03464,-0.04929,-0.01999,-0.00854,-0.01556,-0.01282,-0.06042,0.00305,-0.02808,-0.01526,0.00595,-0.0444
8.92,-0.00412,-0.04044,-0.0322,0.04211,-0.03326,-0.04929,-0.01892,-0.00854,-0.01297,-0.0235,-0.05463,-0.00015,-0.02777,-0.01663,0.00671,-0.04715
8.9205,-0.00458,-0.04013,-0.0296,0.00427,-0.03128,-0.04776,-0.01541,-0.009,-0.00854,-0.03342,-0.04562,-0.00504,-0.02853,-0.01755,0.00717,-0.04807
8.921,-0.00488,-0.04196,-0.02914,-0.01678,-0.03326,-0.04776,-0.01266,-0.00885,-0.00565,-0.03891,-0.03494,-0.01038,-0.02884,-0.01678,0.00809,-0.04822
8.9215,-0.00504,-0.04288,-0.03082,-0.01877,-0.03189,-0.04715,-0.01251,-0.00931,-0.00412,-0.04044,-0.02884,-0.01511,-0.02869,-0.01587,0.00885,-0.04623
8.922,-0.00397,-0.04364,-0.03265,-0.01404,-0.03387,-0.047,-0.01511,-0.00824,-0.00458,-0.04074,-0.03006,-0.01694,-0.0296,-0.01816,0.00839,-0.04364
8.9225,-0.00198,-0.04456,-0.03281,-0.01038,-0.03326,-0.04761,-0.0177,-0.00626,-0.00351,-0.03998,-0.03464,-0.01663,-0.03006,-0.02151,0.00824,-0.04211
8.923,-0.00107,-0.04547,-0.03174,-0.0177,-0.03357,-0.04974,-0.02029,-0.00397,-0.00183,-0.03616,-0.04028,-0.01343,-0.03082,-0.02274,0.00809,-0.04196
8.9235,-0.00137,-0.04486,-0.03189,-0.04364,-0.03098,-0.04944,-0.02304,-0.00473,-0.00092,-0.03189,-0.04486,-0.00946,-0.03113,-0.0209,0.01007,-0.04181
8.924,-0.00137,-0.04288,-0.03296,-0.0827,-0.03021,-0.04852,-0.02274,-0.00763,-0.00107,-0.02686,-0.04837,-0.00443,-0.03113,-0.01801,0.01144,-0.04181
8.9245,-0.00244,-0.04242,-0.03372,-0.10956,-0.03052,-0.04837,-0.01831,-0.00977,0.0,-0.02533,-0.05112,-0.00244,-0.03052,-0.01648,0.01083,-0.04364
8.925,-0.00366,-0.04257,-0.03326,-0.10468,-0.0322,-0.04883,-0.0148,-0.00839,0.00076,-0.02655,-0.05203,-0.00366,-0.02899,-0.01755,0.01038,-0.04486
8.9255,-0.00412,-0.04288,-0.03204,-0.07446,-0.03342,-0.04944,-0.01389,-0.00656,-0.00183,-0.0296,-0.05539,-0.00168,-0.02747,-0.01999,0.00931,-0.0473
8.926,-0.00381,-0.0415,-0.0322,-0.03571,-0.03143,-0.04944,-0.0148,-0.00626,-0.00702,-0.03235,-0.05875,0.0,-0.02747,-0.02182,0.00824,-0.04822
8.9265,-0.00305,-0.04044,-0.03326,0.00595,-0.03372,-0.04868,-0.01373,-0.00748,-0.01221,-0.03342,-0.0618,0.00061,-0.02731,-0.02274,0.00717,-0.04944
8.927,-0.00351,-0.0412,-0.03342,0.04684,-0.03098,-0.04776,-0.01236,-0.00809,-0.01587,-0.03433,-0.06317,-0.0029,-0.02731,-0.02243,0.0061,-0.05051
8.9275,-0.00458,-0.04288,-0.03265,0.06546,-0.03128,-0.04852,-0.01114,-0.00778,-0.01923,-0.03296,-0.06058,-0.00793,-0.02609,-0.02197,0.00626,-0.0502
8.928,-0.00412,-0.04303,-0.0325,0.04272,-0.03021,-0.04852,-0.01068,-0.00839,-0.02151,-0.03082,-0.0563,-0.01297,-0.02655,-0.02182,0.00809,-0.04929
8.9285,-0.00305,-0.04272,-0.03448,-0.00702,-0.03403,-0.04898,-0.01068,-0.009,-0.02167,-0.02762,-0.0502,-0.01389,-0.02609,-0.01923,0.00885,-0.04974
8.929,-0.00214,-0.04288,-0.03632,-0.04669,-0.03479,-0.04883,-0.01205,-0.00916,-0.01999,-0.02472,-0.03967,-0.01083,-0.02548,-0.01511,0.00946,-0.05127
8.9295,-0.00244,-0.04242,-0.03677,-0.05661,-0.03586,-0.04883,-0.01251,-0.00839,-0.0177,-0.0209,-0.02472,-0.009,-0.02548,-0.0116,0.00946,-0.05173
8.93,-0.00229,-0.0412,-0.03586,-0.04745,-0.03418,-0.04944,-0.01205,-0.0061,-0.01709,-0.01602,-0.00793,-0.00656,-0.02563,-0.01114,0.00931,-0.05081
8.9305,-0.0029,-0.03998,-0.03464,-0.03723,-0.03296,-0.04868,-0.01282,-0.00626,-0.01907,-0.00992,0.01144,-0.00504,-0.02609,-0.01205,0.009,-0.05005
8.931,-0.00259,-0.03952,-0.03311,-0.03571,-0.02853,-0.04745,-0.01358,-0.00656,-0.02045,-0.00549,0.03265,-0.0032,-0.02594,-0.01251,0.00839,-0.0499
8.9315,-0.00198,-0.03952,-0.03311,-0.04135,-0.03265,-0.04593,-0.01434,-0.00717,-0.02213,-0.00336,0.04898,-0.00183,-0.02487,-0.01221,0.00641,-0.04959
8.932,-0.00198,-0.04044,-0.03265,-0.04776,-0.03265,-0.04623,-0.01358,-0.00595,-0.02243,-0.00458,0.05875,-0.00061,-0.02655,-0.01297,0.00626,-0.04929
8.9325,-0.00137,-0.0415,-0.03342,-0.03952,-0.03418,-0.04776,-0.01358,-0.00519,-0.0238,-0.00854,0.06409,-0.00092,-0.02899,-0.01465,0.00656,-0.04868
8.933,-0.00137,-0.04257,-0.0351,-0.01007,-0.03494,-0.04822,-0.01389,-0.00641,-0.02472,-0.01251,0.0647,-0.00351,-0.03174,-0.01648,0.00641,-0.04929
8.9335,-0.00198,-0.04333,-0.03555,0.02914,-0.0325,-0.04944,-0.01236,-0.0087,-0.02167,-0.01678,0.05905,-0.00381,-0.0325,-0.01724,0.00504,-0.05096
8.934,-0.00229,-0.04303,-0.03525,0.05356,-0.03174,-0.05112,-0.01083,-0.00961,-0.01633,-0.02167,0.05035,-0.00305,-0.03159,-0.0174,0.00443,-0.05051
8.9345,-0.00336,-0.04257,-0.03464,0.05295,-0.0267,-0.05219,-0.01114,-0.00977,-0.01251,-0.02548,0.0412,-0.00122,-0.02991,-0.01755,0.00351,-0.05005
8.935,-0.00351,-0.0415,-0.03494,0.03403,-0.03036,-0.05203,-0.01205,-0.00946,-0.00992,-0.02655,0.03601,-0.00107,-0.02975,-0.0177,0.00473,-0.04852
8.9355,-0.00214,-0.04135,-0.03632,0.00809,-0.03036,-0.05188,-0.01328,-0.0087,-0.00916,-0.02533,0.03937,-0.00198,-0.03082,-0.01816,0.00626,-0.04669
8.936,-0.00061,-0.04181,-0.03494,-0.01389,-0.03296,-0.05188,-0.01434,-0.00854,-0.00824,-0.02121,0.05402,-0.00015,-0.03143,-0.01816,0.0061,-0.04532
8.9365,0.00015,-0.04211,-0.03281,-0.01846,-0.03357,-0.05157,-0.01526,-0.00824,-0.00778,-0.01678,0.07339,0.00092,-0.03189,-0.01831,0.0061,-0.04456
8.937,-0.00015,-0.04227,-0.0322,-0.0058,-0.03525,-0.05066,-0.01511,-0.009,-0.00778,-0.01404,0.09155,-0.00122,-0.03113,-0.01801,0.00534,-0.04471
8.9375,-0.00061,-0.04166,-0.03418,0.00275,-0.0351,-0.05066,-0.0145,-0.00992,-0.00839,-0.01297,0.10361,-0.00488,-0.03098,-0.01831,0.00748,-0.04471
8.938,-0.00015,-0.04181,-0.03571,-0.01389,-0.03281,-0.05066,-0.01343,-0.00854,-0.01068,-0.01251,0.11307,-0.00504,-0.03204,-0.02029,0.00778,-0.04471
8.9385,-0.00076,-0.04318,-0.03586,-0.04898,-0.03235,-0.04929,-0.01343,-0.0058,-0.01251,-0.01312,0.11932,-0.00092,-0.03281,-0.02167,0.00717,-0.04517
8.939,-0.00259,-0.04364,-0.0354,-0.06882,-0.03174,-0.04883,-0.01434,-0.00427,-0.01343,-0.01358,0.12741,0.00031,-0.03418,-0.02243,0.00717,-0.04486
8.9395,-0.00305,-0.04379,-0.03494,-0.05234,-0.03326,-0.04837,-0.01251,-0.00336,-0.01099,-0.01328,0.13535,-0.00122,-0.03464,-0.02319,0.00717,-0.04333
8.94,-0.00229,-0.04272,-0.03525,-0.01938,-0.03326,-0.04837,-0.01007,-0.00336,-0.00702,-0.01297,0.14511,-0.00244,-0.03479,-0.02182,0.00748,-0.04074
8.9405,-0.00244,-0.04166,-0.03464,-0.00153,-0.03342,-0.04715,-0.00885,-0.00351,-0.00381,-0.01114,0.15152,-0.00168,-0.03448,-0.01892,0.00854,-0.03906
8.941,-0.00336,-0.0412,-0.03311,-0.00519,-0.0293,-0.04578,-0.00961,-0.00336,-0.00244,-0.00778,0.15121,-0.00046,-0.03387,-0.01801,0.00809,-0.03922
8.9415,-0.00366,-0.0415,-0.03159,-0.01465,-0.03098,-0.04395,-0.01068,-0.00473,-0.0029,-0.00229,0.14587,0.00031,-0.0325,-0.01892,0.00824,-0.03998
8.942,-0.00397,-0.04181,-0.03326,-0.02106,-0.02853,-0.04456,-0.01022,-0.00671,-0.00488,0.00198,0.14114,-0.00015,-0.0322,-0.02182,0.00809,-0.03998
8.9425,-0.00519,-0.04013,-0.03586,-0.03311,-0.02945,-0.04684,-0.01053,-0.00732,-0.0087,0.00351,0.14404,-0.00153,-0.03326,-0.02319,0.00778,-0.04013
8.943,-0.00626,-0.03845,-0.03708,-0.05203,-0.0264,-0.04807,-0.00992,-0.00702,-0.01328,0.00031,0.15198,-0.00076,-0.03448,-0.02228,0.00732,-0.04089
8.9435,-0.00717,-0.03906,-0.03662,-0.06714,-0.02762,-0.04745,-0.00931,-0.00671,-0.01526,-0.00549,0.15686,0.00076,-0.03448,-0.02075,0.00717,-0.04227
8.944,-0.00687,-0.04105,-0.03616,-0.06927,-0.02441,-0.04715,-0.00885,-0.00671,-0.01434,-0.01175,0.15884,0.00137,-0.03433,-0.02182,0.00763,-0.04288
8.9445,-0.00641,-0.04196,-0.0354,-0.0621,-0.02609,-0.047,-0.01038,-0.00656,-0.01328,-0.01343,0.15961,0.00168,-0.03479,-0.02335,0.00839,-0.04272
8.945,-0.00504,-0.0415,-0.03494,-0.05615,-0.0296,-0.04669,-0.01297,-0.00702,-0.01511,-0.01266,0.15823,0.00107,-0.03586,-0.02274,0.00839,-0.04333
8.9455,-0.00473,-0.04074,-0.03464,-0.05234,-0.0293,-0.04593,-0.01511,-0.00702,-0.01892,-0.01083,0.15701,0.00076,-0.03555,-0.01968,0.00732,-0.04272
8.946,-0.00458,-0.04013,-0.03479,-0.03922,-0.02808,-0.04547,-0.01541,-0.00748,-0.0209,-0.01083,0.15854,0.00061,-0.03448,-0.01785,0.00656,-0.04196
8.9465,-0.00488,-0.03952,-0.03479,-0.01373,-0.0267,-0.04715,-0.01526,-0.00778,-0.01831,-0.01266,0.15945,0.00046,-0.03372,-0.01816,0.00626,-0.0412
8.947,-0.00519,-0.03952,-0.03479,0.01877,-0.03113,-0.04913,-0.01495,-0.00778,-0.01495,-0.01511,0.16068,0.00076,-0.03403,-0.02075,0.00641,-0.04028
8.9475,-0.00473,-0.0415,-0.03555,0.05051,-0.03082,-0.05051,-0.01495,-0.00809,-0.01328,-0.01709,0.16556,0.00137,-0.03464,-0.02121,0.00732,-0.04074
8.948,-0.00473,-0.04272,-0.03525,0.07492,-0.03098,-0.05035,-0.01465,-0.00793,-0.01373,-0.02075,0.17059,0.00168,-0.03586,-0.02029,0.00748,-0.04089
8.9485,-0.00534,-0.04349,-0.03494,0.08469,-0.03067,-0.04944,-0.01404,-0.00732,-0.01312,-0.02228,0.16663,0.00137,-0.0351,-0.01907,0.00793,-0.0412
8.949,-0.00565,-0.04257,-0.03403,0.07401,-0.03311,-0.04913,-0.01297,-0.00656,-0.01068,-0.02197,0.15503,0.00015,-0.03342,-0.01801,0.00885,-0.04059
8.9495,-0.00534,-0.04089,-0.03296,0.04761,-0.03693,-0.05051,-0.01175,-0.00488,-0.00839,-0.01999,0.14572,-0.00076,-0.03265,-0.01648,0.01083,-0.04059
8.95,-0.00473,-0.03937,-0.0322,0.02136,-0.03006,-0.05096,-0.01175,-0.0032,-0.00626,-0.01892,0.13962,-0.00092,-0.03311,-0.01572,0.01053,-0.04105
8.9505,-0.00458,-0.03799,-0.03159,0.00732,-0.02991,-0.04929,-0.01175,-0.00336,-0.00565,-0.01846,0.13367,-0.00031,-0.03448,-0.01526,0.01083,-0.04044
8.951,-0.00412,-0.03754,-0.03235,0.00336,-0.02731,-0.04807,-0.01068,-0.00473,-0.00565,-0.0177,0.12421,0.00137,-0.0351,-0.0145,0.01144,-0.03876
8.9515,-0.00259,-0.0383,-0.03281,-0.00107,-0.02945,-0.04837,-0.00916,-0.00534,-0.00519,-0.01755,0.11383,0.00305,-0.03555,-0.01511,0.01114,-0.03799
8.952,-0.00336,-0.03952,-0.03281,-0.009,-0.03555,-0.04898,-0.00824,-0.00443,-0.00519,-0.01816,0.10696,-0.00015,-0.03525,-0.01633,0.01083,-0.03723
8.9525,-0.00519,-0.03891,-0.03265,-0.0148,-0.0383,-0.04898,-0.00824,-0.0032,-0.0058,-0.01984,0.103,-0.00458,-0.0351,-0.01801,0.009,-0.03601
8.953,-0.00687,-0.03769,-0.03326,-0.01724,-0.03204,-0.0473,-0.00824,-0.00198,-0.00717,-0.02197,0.0972,-0.00854,-0.03601,-0.01938,0.00839,-0.03448
8.9535,-0.0058,-0.03738,-0.03357,-0.02151,-0.03555,-0.04669,-0.00977,-0.00168,-0.00534,-0.02411,0.08728,-0.01221,-0.03708,-0.01999,0.00732,-0.03204
8.954,-0.00427,-0.03906,-0.03342,-0.02838,-0.03738,-0.04776,-0.0119,-0.00198,0.00137,-0.02396,0.07751,-0.01663,-0.03769,-0.01999,0.00687,-0.03006
8.9545,-0.00473,-0.03998,-0.03265,-0.0322,-0.0322,-0.05005,-0.01389,-0.00183,0.01114,-0.02335,0.07584,-0.02014,-0.03632,-0.01938,0.00793,-0.02701
8.955,-0.00534,-0.03922,-0.03433,-0.02747,-0.03067,-0.04944,-0.01389,-0.00198,0.01831,-0.02167,0.08057,-0.01923,-0.03571,-0.01862,0.00778,-0.02533
8.9555,-0.00565,-0.03876,-0.03555,-0.01236,-0.03159,-0.04822,-0.01312,-0.0032,0.02045,-0.0206,0.08667,-0.01312,-0.03601,-0.01831,0.00763,-0.02411
8.956,-0.00534,-0.04059,-0.03555,0.01556,-0.03479,-0.04639,-0.01236,-0.00443,0.02014,-0.02029,0.09048,-0.00717,-0.03708,-0.02075,0.00824,-0.02411
8.9565,-0.00381,-0.04242,-0.0354,0.04929,-0.03967,-0.04608,-0.01175,-0.00381,0.01892,-0.02014,0.08606,-0.00351,-0.03799,-0.0238,0.00946,-0.02289
8.957,-0.00351,-0.04272,-0.03494,0.06897,-0.03372,-0.04608,-0.01282,-0.00183,0.01068,-0.02045,0.07599,-0.00275,-0.03799,-0.02518,0.01053,-0.02167
8.9575,-0.00366,-0.04044,-0.03525,0.05859,-0.0354,-0.04791,-0.01312,-0.00015,-0.00702,-0.02197,0.06912,-0.00214,-0.03632,-0.02472,0.01175,-0.02289
8.958,-0.0032,-0.03876,-0.03586,0.02869,-0.03174,-0.04974,-0.01297,0.00076,-0.02747,-0.02228,0.06699,-0.00122,-0.03525,-0.02304,0.0116,-0.02502
8.9585,-0.00351,-0.03922,-0.03601,0.00259,-0.03632,-0.0499,-0.01297,-0.00046,-0.0415,-0.02121,0.06424,-0.00122,-0.0351,-0.02151,0.01221,-0.02289
8.959,-0.00351,-0.03983,-0.0354,-0.00565,-0.03754,-0.0502,-0.01328,-0.00275,-0.04822,-0.0177,0.05478,-0.00137,-0.03525,-0.01862,0.01297,-0.01587
8.9595,-0.00305,-0.04044,-0.03479,-0.00427,-0.03708,-0.04868,-0.01358,-0.00397,-0.05203,-0.01358,0.03159,-0.00214,-0.0351,-0.01724,0.01297,-0.00641
8.96,-0.00168,-0.03998,-0.03342,-0.00305,-0.03433,-0.04715,-0.01404,-0.0029,-0.05692,-0.01312,-0.00824,-0.00153,-0.03479,-0.01801,0.01221,-0.00046
8.9605,-0.00275,-0.04059,-0.03372,-0.00275,-0.0354,-0.0473,-0.01465,0.00015,-0.06287,-0.01572,-0.04791,-0.00046,-0.03479,-0.01923,0.01007,-0.00717
8.961,-0.00366,-0.0412,-0.03403,-0.00061,-0.03418,-0.04807,-0.01602,0.00214,-0.06622,-0.0174,-0.06805,0.00122,-0.03433,-0.01923,0.00916,-0.02731
8.9615,-0.00458,-0.04105,-0.0354,0.00031,-0.03372,-0.04684,-0.01755,0.00198,-0.06256,-0.01938,-0.07599,0.0029,-0.03326,-0.01801,0.00916,-0.04593
8.962,-0.00275,-0.04028,-0.0354,-0.00305,-0.03189,-0.04669,-0.01892,0.00015,-0.04898,-0.02197,-0.08987,0.00336,-0.0322,-0.01602,0.009,-0.04807
8.9625,-0.00092,-0.04028,-0.03494,-0.00854,-0.0322,-0.04532,-0.0177,-0.00153,-0.02991,-0.02487,-0.10208,0.00214,-0.03296,-0.01556,0.00916,-0.03098
8.963,-0.00046,-0.04105,-0.03403,-0.01251,-0.03143,-0.04486,-0.01663,-0.00214,-0.01465,-0.02365,-0.08759,0.00031,-0.03571,-0.01526,0.01068,-0.00809
8.9635,-0.00305,-0.04059,-0.03448,-0.01358,-0.02655,-0.0444,-0.01755,-0.00198,-0.00916,-0.01724,-0.04578,-0.00076,-0.03601,-0.01633,0.01205,0.00916
8.964,-0.0058,-0.04059,-0.03616,-0.01465,-0.02441,-0.04395,-0.01953,-0.00076,-0.01221,-0.00992,-0.00687,-0.00336,-0.03464,-0.01556,0.01297,0.01373
8.9645,-0.00656,-0.04028,-0.03555,-0.01389,-0.02853,-0.04517,-0.01984,0.00107,-0.01801,-0.00504,0.00687,-0.0058,-0.03418,-0.01526,0.01358,0.00778
8.965,-0.0061,-0.04135,-0.03311,-0.01038,-0.02899,-0.047,-0.01862,0.00122,-0.02167,-0.00351,0.00351,-0.00717,-0.03494,-0.01511,0.01175,-0.00656
8.9655,-0.0058,-0.04318,-0.03235,-0.009,-0.02991,-0.04776,-0.01801,-0.00153,-0.02228,-0.00488,-0.00412,-0.00626,-0.03632,-0.01678,0.01068,-0.0238
8.966,-0.00656,-0.04395,-0.03387,-0.01282,-0.02731,-0.04791,-0.0174,-0.00443,-0.02182,-0.00931,-0.01328,-0.00504,-0.03693,-0.02121,0.0087,-0.03891
8.9665,-0.00763,-0.04379,-0.03479,-0.01907,-0.02899,-0.04852,-0.01526,-0.00488,-0.02151,-0.01419,-0.02579,-0.00488,-0.03723,-0.02472,0.00702,-0.04578
8.967,-0.00824,-0.04395,-0.03418,-0.02075,-0.03052,-0.04868,-0.01099,-0.0032,-0.01953,-0.01907,-0.03464,-0.00534,-0.03616,-0.02289,0.00488,-0.05569
8.9675,-0.00839,-0.0444,-0.03281,-0.01923,-0.03204,-0.05005,-0.00809,-0.00122,-0.01694,-0.02548,-0.03662,-0.00473,-0.03372,-0.01999,0.00565,-0.08041
8.968,-0.0087,-0.0441,-0.03464,-0.01862,-0.03204,-0.05157,-0.00809,-0.00061,-0.01373,-0.03113,-0.03983,-0.00305,-0.03265,-0.01724,0.00626,-0.10864
8.9685,-0.00839,-0.04303,-0.0383,-0.0235,-0.03036,-0.0528,-0.00946,-0.00214,-0.00961,-0.0354,-0.05264,-0.00229,-0.03143,-0.01709,0.00809,-0.11597
8.969,-0.00824,-0.0415,-0.03983,-0.03006,-0.03052,-0.05203,-0.01068,-0.00275,-0.00381,-0.03571,-0.07462,-0.00183,-0.03143,-0.01785,0.00778,-0.08957
8.9695,-0.00793,-0.0412,-0.03891,-0.03326,-0.0325,-0.04944,-0.0116,-0.0029,0.00107,-0.03326,-0.09552,-0.00092,-0.03174,-0.01633,0.00732,-0.04608
8.97,-0.00687,-0.04089,-0.03754,-0.03189,-0.0351,-0.04654,-0.01099,-0.00168,0.00504,-0.0293,-0.1062,0.00046,-0.03098,-0.01404,0.00717,-0.00717
8.9705,-0.00595,-0.04059,-0.03784,-0.02853,-0.03403,-0.04486,-0.01068,-0.00183,0.0061,-0.02701,-0.10529,0.00168,-0.03052,-0.01205,0.00778,0.01556
8.971,-0.00595,-0.04074,-0.03815,-0.02487,-0.03342,-0.04501,-0.00946,-0.00229,0.00534,-0.02792,-0.09445,0.00351,-0.0296,-0.01312,0.00763,0.02365
8.9715,-0.0061,-0.0412,-0.03693,-0.02289,-0.03311,-0.04532,-0.01038,-0.00305,0.00198,-0.03128,-0.08133,0.0058,-0.03006,-0.0145,0.00656,0.02304
8.972,-0.00687,-0.0412,-0.0354,-0.02243,-0.03174,-0.04562,-0.01038,-0.00427,-0.00488,-0.03464,-0.07339,0.00549,-0.03098,-0.01755,0.00397,0.01694
8.9725,-0.00687,-0.04074,-0.03464,-0.02319,-0.03067,-0.04578,-0.00977,-0.00488,-0.01495,-0.03632,-0.06912,0.00412,-0.03265,-0.02014,0.00275,0.00763
8.973,-0.00671,-0.04028,-0.03571,-0.02472,-0.02884,-0.04669,-0.0087,-0.0058,-0.02396,-0.03647,-0.0676,0.00198,-0.03433,-0.02151,0.00198,-0.00397
8.9735,-0.00763,-0.0412,-0.0354,-0.02533,-0.0267,-0.047,-0.00763,-0.00656,-0.02808,-0.03525,-0.07156,0.00015,-0.03601,-0.02075,0.00076,-0.01801
8.974,-0.00778,-0.04333,-0.03433,-0.02258,-0.02731,-0.04684,-0.00748,-0.00687,-0.02731,-0.03265,-0.0769,-0.00137,-0.03616,-0.01892,-0.00153,-0.03143
8.9745,-0.00702,-0.04395,-0.03494,-0.0177,-0.02914,-0.04623,-0.00732,-0.0058,-0.02304,-0.02716,-0.07843,-0.00351,-0.03448,-0.01801,-0.00107,-0.03983
8.975,-0.00626,-0.04349,-0.03693,-0.0119,-0.02991,-0.04593,-0.00656,-0.00488,-0.01648,-0.01968,-0.0795,-0.00412,-0.0325,-0.01831,0.00336,-0.04059
8.9755,-0.00595,-0.04318,-0.03708,-0.00931,-0.02884,-0.04684,-0.00549,-0.00443,-0.00946,-0.01373,-0.08469,-0.00366,-0.03098,-0.01923,0.009,-0.03723
8.976,-0.00565,-0.04364,-0.03479,-0.009,-0.02808,-0.04715,-0.00504,-0.00366,-0.00305,-0.01175,-0.08591,-0.00275,-0.03235,-0.01923,0.01022,-0.03433
8.9765,-0.00412,-0.04349,-0.03326,-0.00809,-0.02869,-0.04745,-0.00336,-0.00259,0.00168,-0.01266,-0.08011,-0.00153,-0.0325,-0.01892,0.00717,-0.03235
8.977,-0.00183,-0.04272,-0.03403,-0.00443,-0.0296,-0.04562,-0.00214,-0.00275,0.00381,-0.01343,-0.07111,0.00198,-0.03204,-0.01877,0.00565,-0.02945
8.9775,-0.00168,-0.04242,-0.03677,-0.00015,-0.02914,-0.0441,-0.00214,-0.00412,0.00397,-0.01175,-0.06439,0.00671,-0.03128,-0.02014,0.00626,-0.02319
8.978,-0.0029,-0.04257,-0.03922,0.00015,-0.02899,-0.04349,-0.00381,-0.00519,0.00214,-0.00961,-0.05966,0.00916,-0.0322,-0.02106,0.00824,-0.0145
8.9785,-0.0032,-0.04227,-0.03967,-0.00397,-0.02914,-0.04379,-0.00717,-0.00534,-0.00244,-0.00931,-0.05539,0.00946,-0.03296,-0.02167,0.00839,-0.00671
8.979,-0.0029,-0.04211,-0.03754,-0.01068,-0.02777,-0.04471,-0.009,-0.00412,-0.00671,-0.01022,-0.05249,0.00839,-0.03265,-0.02014,0.00824,-0.00443
8.9795,-0.00168,-0.04257,-0.03433,-0.0148,-0.02686,-0.04501,-0.00885,-0.00244,-0.00809,-0.01144,-0.05371,0.01007,-0.03189,-0.01816,0.00854,-0.0058
8.98,-0.00092,-0.04349,-0.03189,-0.01526,-0.02502,-0.0444,-0.00671,-0.00137,-0.00793,-0.01175,-0.05554,0.01251,-0.03128,-0.01984,0.009,-0.00992
8.9805,-0.00107,-0.0441,-0.03098,-0.01373,-0.02457,-0.04547,-0.00565,-0.00198,-0.01068,-0.0145,-0.05493,0.01404,-0.03143,-0.02167,0.00916,-0.0148
8.981,-0.00275,-0.04364,-0.03235,-0.01053,-0.02472,-0.04715,-0.00519,-0.00366,-0.01526,-0.01892,-0.05264,0.01343,-0.03174,-0.02151,0.009,-0.02045
8.9815,-0.00473,-0.04196,-0.03296,-0.00671,-0.02716,-0.04898,-0.00519,-0.00443,-0.01495,-0.02274,-0.05386,0.01221,-0.03235,-0.01862,0.00732,-0.0264
8.982,-0.00534,-0.04089,-0.03448,-0.00305,-0.02853,-0.04898,-0.00519,-0.00336,-0.00885,-0.02609,-0.06088,0.01083,-0.03387,-0.01755,0.00671,-0.02762
8.9825,-0.00443,-0.04074,-0.0351,-0.0029,-0.0296,-0.047,-0.00504,-0.00183,-0.00244,-0.02777,-0.06821,0.01144,-0.03494,-0.0177,0.00534,-0.02563
8.983,-0.0032,-0.04013,-0.03616,-0.00443,-0.03036,-0.04639,-0.00397,-0.00076,0.00076,-0.02777,-0.06836,0.01266,-0.03418,-0.01877,0.00656,-0.02365
8.9835,-0.00214,-0.03967,-0.03571,-0.00595,-0.03174,-0.04761,-0.0032,-0.00229,-0.00153,-0.02487,-0.06622,0.01312,-0.03311,-0.01968,0.00809,-0.02792
8.984,-0.00229,-0.03937,-0.03448,-0.00488,-0.03189,-0.04959,-0.00305,-0.00336,-0.0061,-0.02151,-0.07172,0.01038,-0.03372,-0.02243,0.00931,-0.03662
8.9845,-0.00305,-0.03845,-0.0322,-0.00427,-0.03189,-0.05051,-0.00427,-0.00107,-0.01007,-0.02045,-0.08636,0.00763,-0.0354,-0.02472,0.00992,-0.04654
8.985,-0.00427,-0.03906,-0.03281,-0.00702,-0.0322,-0.0502,-0.00488,0.0032,-0.01282,-0.01968,-0.10468,0.00763,-0.03555,-0.02472,0.01007,-0.05219
8.9855,-0.00473,-0.03922,-0.03494,-0.01175,-0.0322,-0.04913,-0.00458,0.00504,-0.01099,-0.01831,-0.11871,0.00809,-0.03448,-0.02151,0.00977,-0.0531
8.986,-0.00473,-0.03937,-0.0351,-0.01663,-0.03311,-0.04822,-0.00336,0.00458,-0.00626,-0.01434,-0.12024,0.00717,-0.03265,-0.0174,0.00885,-0.05249
8.9865,-0.00504,-0.03922,-0.03342,-0.02121,-0.03296,-0.047,-0.00397,0.00229,-0.00366,-0.00931,-0.11169,0.00473,-0.03143,-0.01465,0.00809,-0.05646
8.987,-0.00595,-0.04028,-0.0325,-0.02594,-0.03235,-0.047,-0.00412,0.00122,-0.00427,-0.0029,-0.10223,0.00305,-0.03204,-0.01358,0.00732,-0.0708
8.9875,-0.0058,-0.04074,-0.03311,-0.02945,-0.03189,-0.04684,-0.00473,0.00031,-0.00809,0.0029,-0.0885,0.00427,-0.03235,-0.01495,0.00702,-0.10452
8.988,-0.00534,-0.0412,-0.03525,-0.02991,-0.03189,-0.04623,-0.00549,0.00015,-0.01328,0.00519,-0.07034,0.00565,-0.03235,-0.01709,0.0061,-0.14771
8.9885,-0.00397,-0.04089,-0.03601,-0.02853,-0.03296,-0.047,-0.00565,0.00214,-0.01709,0.00336,-0.05646,0.00671,-0.03189,-0.01755,0.0061,-0.16403
8.989,-0.00366,-0.04044,-0.0354,-0.02731,-0.03326,-0.04807,-0.00519,0.00427,-0.01755,-0.00198,-0.05524,0.00641,-0.03189,-0.01755,0.00809,-0.1268
8.9895,-0.00366,-0.03967,-0.03387,-0.0267,-0.03326,-0.047,-0.00427,0.00397,-0.0145,-0.00702,-0.06149,0.00687,-0.03296,-0.01556,0.0087,-0.05295
8.99,-0.00412,-0.0386,-0.03204,-0.02411,-0.03433,-0.04623,-0.00305,0.00229,-0.01297,-0.01007,-0.06119,0.00641,-0.03418,-0.01541,0.00885,0.01007
8.9905,-0.00443,-0.03784,-0.03235,-0.01907,-0.03494,-0.04532,-0.00259,0.00137,-0.01541,-0.01144,-0.04929,0.00488,-0.03387,-0.01617,0.00748,0.03876
8.991,-0.00397,-0.03815,-0.03372,-0.01373,-0.03464,-0.04425,-0.00061,0.00259,-0.01923,-0.01053,-0.03632,0.00412,-0.03204,-0.01709,0.00763,0.04059
8.9915,-0.0029,-0.0386,-0.03525,-0.00931,-0.0322,-0.0444,-0.00107,0.00336,-0.02228,-0.00656,-0.03281,0.00473,-0.03113,-0.01602,0.00854,0.03342
8.992,-0.00198,-0.03784,-0.0354,-0.00671,-0.03159,-0.04471,-0.00351,0.00259,-0.02838,-0.00183,-0.0386,0.00534,-0.03189,-0.01587,0.00885,0.02747
8.9925,-0.00259,-0.03723,-0.03586,-0.0058,-0.03204,-0.04578,-0.00671,0.00153,-0.03647,-0.00198,-0.04562,0.00519,-0.03418,-0.01892,0.00961,0.02243
8.993,-0.00381,-0.03738,-0.03494,-0.00687,-0.03433,-0.04684,-0.00839,0.00305,-0.0415,-0.0116,-0.0473,0.00702,-0.03571,-0.02365,0.01038,0.01465
8.9935,-0.00366,-0.03845,-0.03448,-0.00809,-0.03494,-0.04868,-0.00854,0.00443,-0.04089,-0.02411,-0.04654,0.01007,-0.03616,-0.02594,0.01007,0.0
8.994,-0.00214,-0.03952,-0.03387,-0.00778,-0.0354,-0.04929,-0.00885,0.00519,-0.03677,-0.03036,-0.04471,0.0119,-0.03632,-0.02625,0.009,-0.01724
8.9945,-0.00092,-0.04074,-0.03403,-0.00702,-0.03571,-0.04883,-0.01083,0.00351,-0.03265,-0.0293,-0.04211,0.0116,-0.03555,-0.02319,0.00717,-0.02823
8.995,-0.00198,-0.04059,-0.03357,-0.00732,-0.03372,-0.04868,-0.01282,0.00076,-0.02823,-0.02899,-0.03891,0.009,-0.03433,-0.02045,0.00671,-0.03326
8.9955,-0.00412,-0.03891,-0.03311,-0.00854,-0.03311,-0.04868,-0.01419,-0.00061,-0.02167,-0.03296,-0.04211,0.00565,-0.0322,-0.01785,0.00824,-0.03677
8.996,-0.00504,-0.03754,-0.0322,-0.01038,-0.03113,-0.04883,-0.01602,0.0,-0.01389,-0.03586,-0.0531,0.00397,-0.03128,-0.01511,0.00885,-0.04135
8.9965,-0.00549,-0.03815,-0.03357,-0.01083,-0.03204,-0.04898,-0.01694,0.00183,-0.0087,-0.03403,-0.06363,0.00366,-0.03128,-0.01434,0.00778,-0.04379
8.997,-0.00534,-0.03983,-0.03464,-0.00839,-0.03098,-0.04974,-0.01541,0.00229,-0.009,-0.02853,-0.06577,0.00534,-0.03128,-0.01373,0.00793,-0.04333
8.9975,-0.00565,-0.03998,-0.03372,-0.00595,-0.0293,-0.04974,-0.01358,0.00031,-0.01144,-0.02304,-0.06012,0.00885,-0.03189,-0.01434,0.00748,-0.04059
8.998,-0.0058,-0.03998,-0.03143,-0.00565,-0.02853,-0.04944,-0.01282,-0.00183,-0.0116,-0.0206,-0.05157,0.01129,-0.03189,-0.01663,0.00717,-0.03769
8.9985,-0.00549,-0.04059,-0.03098,-0.00748,-0.02945,-0.04929,-0.01419,-0.00351,-0.00839,-0.02045,-0.04532,0.01114,-0.03159,-0.01953,0.00534,-0.03784
8.999,-0.00534,-0.04196,-0.0322,-0.00778,-0.03082,-0.04837,-0.01587,-0.00458,-0.00656,-0.02457,-0.04089,0.00839,-0.03235,-0.02182,0.00565,-0.03952
8.9995,-0.00443,-0.04166,-0.0325,-0.00671,-0.03143,-0.04837,-0.01785,-0.00443,-0.0116,-0.03265,-0.03159,0.00595,-0.03296,-0.02411,0.00748,-0.04074
9.0,-0.00351,-0.04089,-0.03082,-0.00473,-0.0296,-0.04791,-0.01892,-0.0029,-0.02274,-0.0386,-0.01984,0.00473,-0.03311,-0.02457,0.01007,-0.0412
9.0005,-0.0029,-0.03998,-0.02945,-0.00427,-0.03006,-0.04623,-0.01831,-0.00183,-0.03174,-0.03967,-0.01511,0.00351,-0.03281,-0.02396,0.01129,-0.04257
9.001,-0.00244,-0.03937,-0.02914,-0.00397,-0.03189,-0.04486,-0.01663,-0.00229,-0.03311,-0.03693,-0.01709,0.00351,-0.03235,-0.02167,0.01251,-0.04501
9.0015,-0.00153,-0.03906,-0.03113,-0.00381,-0.03159,-0.04486,-0.01556,-0.0029,-0.03113,-0.03342,-0.01587,0.00412,-0.03311,-0.01999,0.01511,-0.04654
9.002,-0.00244,-0.03937,-0.03265,-0.00305,-0.03159,-0.04593,-0.01526,-0.00244,-0.03159,-0.0293,-0.00839,0.00473,-0.03281,-0.01968,0.01602,-0.04807
9.0025,-0.00381,-0.03983,-0.03281,-0.00397,-0.03082,-0.04684,-0.01663,-0.00198,-0.03357,-0.02594,-0.00366,0.00488,-0.03326,-0.01984,0.01633,-0.04898
9.003,-0.00488,-0.03952,-0.03189,-0.00473,-0.03006,-0.04715,-0.01709,-0.00046,-0.0351,-0.0235,-0.0058,0.00275,-0.03403,-0.02014,0.01541,-0.05096
9.0035,-0.00488,-0.04089,-0.03189,-0.00565,-0.03036,-0.04654,-0.01724,0.00015,-0.03372,-0.0238,-0.01038,-0.00259,-0.03479,-0.01923,0.01297,-0.0528
9.004,-0.00443,-0.04227,-0.03174,-0.00534,-0.02991,-0.04639,-0.01709,-0.00031,-0.02914,-0.02426,-0.01434,-0.00885,-0.03525,-0.01816,0.00885,-0.05402
9.0045,-0.00412,-0.04257,-0.03128,-0.00488,-0.02975,-0.04623,-0.01572,-0.00168,-0.02136,-0.02396,-0.01328,-0.01419,-0.03403,-0.01694,0.00336,-0.05325
9.005,-0.00473,-0.04135,-0.03052,-0.00565,-0.0293,-0.04517,-0.01404,-0.00229,-0.01266,-0.02106,-0.00473,-0.01663,-0.03265,-0.01801,-0.00046,-0.0528
9.0055,-0.00473,-0.04028,-0.03113,-0.00687,-0.03021,-0.04532,-0.01404,-0.0029,-0.00656,-0.0148,0.00793,-0.01709,-0.03174,-0.01907,-0.00198,-0.05234
9.006,-0.00443,-0.03937,-0.03387,-0.00656,-0.03082,-0.04517,-0.01587,-0.00275,-0.0032,-0.00748,0.01587,-0.01709,-0.03098,-0.01907,0.00031,-0.05066
9.0065,-0.00443,-0.04013,-0.03418,-0.0058,-0.0322,-0.04623,-0.01556,-0.00229,-0.00046,-0.00275,0.01205,-0.0148,-0.03021,-0.01862,0.00397,-0.04791
9.007,-0.00519,-0.04028,-0.03403,-0.00565,-0.03296,-0.04684,-0.01434,-0.0032,0.00061,-0.00229,0.00259,-0.01022,-0.03128,-0.0177,0.00748,-0.04501
9.0075,-0.0061,-0.04028,-0.03403,-0.0058,-0.03342,-0.04791,-0.01373,-0.00473,0.00061,-0.00748,-0.00458,-0.0061,-0.03174,-0.01694,0.01129,-0.04395
9.008,-0.00732,-0.04074,-0.03235,-0.00717,-0.03433,-0.04822,-0.01419,-0.00519,-0.00076,-0.01541,-0.00656,-0.00504,-0.03235,-0.0177,0.0145,-0.04425
9.0085,-0.00809,-0.0412,-0.03098,-0.00885,-0.03387,-0.04715,-0.01572,-0.00534,-0.00534,-0.02319,-0.00732,-0.00671,-0.03281,-0.01892,0.01526,-0.04501
9.009,-0.00732,-0.04135,-0.03067,-0.01038,-0.03235,-0.04532,-0.01709,-0.00488,-0.01205,-0.02625,-0.01328,-0.00946,-0.03265,-0.02014,0.01419,-0.0473
9.0095,-0.00626,-0.04135,-0.0322,-0.01068,-0.03098,-0.04379,-0.01694,-0.00412,-0.01801,-0.02411,-0.0209,-0.00778,-0.03265,-0.0206,0.01205,-0.04974
9.01,-0.0061,-0.04074,-0.03387,-0.01053,-0.03113,-0.0441,-0.0174,-0.00244,-0.01984,-0.02029,-0.02243,-0.00366,-0.03204,-0.01953,0.00885,-0.05295
9.0105,-0.00565,-0.0412,-0.03418,-0.01083,-0.03265,-0.04395,-0.0174,-0.00168,-0.02136,-0.01495,-0.01968,-0.00137,-0.03143,-0.01694,0.00671,-0.05539
9.011,-0.00565,-0.04074,-0.03403,-0.01053,-0.0325,-0.04257,-0.01648,-0.00122,-0.02258,-0.00854,-0.01999,-0.00214,-0.03204,-0.01602,0.00763,-0.05554
9.0115,-0.00534,-0.04013,-0.03342,-0.00946,-0.0322,-0.04196,-0.01556,-0.00259,-0.02472,-0.00198,-0.02167,-0.00244,-0.03403,-0.01617,0.00931,-0.05432
9.012,-0.00626,-0.03952,-0.0322,-0.00702,-0.03189,-0.04257,-0.01465,-0.00458,-0.02655,0.0,-0.02365,-0.00305,-0.03601,-0.01663,0.01022,-0.05356
9.0125,-0.00595,-0.03845,-0.03159,-0.00473,-0.03143,-0.04349,-0.01556,-0.00534,-0.02777,-0.00046,-0.02579,-0.00275,-0.0354,-0.01663,0.01007,-0.05356
9.013,-0.00549,-0.03845,-0.03143,-0.00427,-0.03143,-0.04425,-0.01709,-0.00702,-0.02747,-0.0032,-0.02869,-0.00198,-0.03372,-0.0174,0.00992,-0.05356
9.0135,-0.00473,-0.03967,-0.03265,-0.00504,-0.03128,-0.04318,-0.01877,-0.00687,-0.02609,-0.00732,-0.0322,-0.00198,-0.03342,-0.01831,0.00916,-0.05264
9.014,-0.00458,-0.04242,-0.03494,-0.00534,-0.03174,-0.04364,-0.01953,-0.00671,-0.02365,-0.01205,-0.03067,-0.00443,-0.03464,-0.01846,0.0087,-0.05127
9.0145,-0.00443,-0.04349,-0.03693,-0.00427,-0.03128,-0.04532,-0.02029,-0.00641,-0.02136,-0.0177,-0.01694,-0.00641,-0.03479,-0.01724,0.01022,-0.05188
9.015,-0.00443,-0.04303,-0.03708,0.0,-0.03006,-0.04684,-0.02029,-0.0061,-0.02045,-0.02274,0.00488,-0.00595,-0.03326,-0.01663,0.01129,-0.0528
9.0155,-0.00412,-0.04364,-0.03418,0.01083,-0.02945,-0.04776,-0.01984,-0.0058,-0.01907,-0.02579,0.01877,-0.00427,-0.03235,-0.01587,0.01099,-0.05325
9.016,-0.0032,-0.04379,-0.03342,0.02396,-0.02884,-0.04684,-0.01831,-0.00488,-0.01526,-0.02533,0.0174,-0.00381,-0.03204,-0.01465,0.00977,-0.0528
9.0165,-0.00229,-0.04318,-0.03464,0.03143,-0.02762,-0.04669,-0.01755,-0.00381,-0.01251,-0.02441,0.00961,-0.00336,-0.03143,-0.01526,0.00961,-0.05249
9.017,-0.00275,-0.0415,-0.03601,0.02914,-0.02762,-0.04761,-0.01709,-0.0032,-0.01251,-0.02319,0.00305,-0.00275,-0.02975,-0.01587,0.00916,-0.05157
9.0175,-0.00443,-0.03967,-0.03677,0.02121,-0.02823,-0.04913,-0.0174,-0.00366,-0.01511,-0.02213,-0.00397,-0.00168,-0.02838,-0.01663,0.01038,-0.0502
9.018,-0.00534,-0.03983,-0.03723,0.01266,-0.02945,-0.05035,-0.01862,-0.00336,-0.01617,-0.02197,-0.01389,0.00183,-0.02975,-0.01648,0.01022,-0.04913
9.0185,-0.0061,-0.04242,-0.03738,0.00626,-0.03067,-0.05081,-0.01999,-0.00259,-0.01434,-0.02319,-0.01801,0.00717,-0.03189,-0.01663,0.00824,-0.04837
9.019,-0.00717,-0.04532,-0.03708,-0.00061,-0.03189,-0.04944,-0.01999,-0.00275,-0.01205,-0.02411,-0.0119,0.01007,-0.03357,-0.01633,0.00854,-0.04776
9.0195,-0.00671,-0.04501,-0.03586,-0.0119,-0.03067,-0.04776,-0.0177,-0.00427,-0.00977,-0.0235,-0.00061,0.00931,-0.03296,-0.01648,0.01038,-0.04608
9.02,-0.00656,-0.04242,-0.03418,-0.02426,-0.02823,-0.04623,-0.01389,-0.00458,-0.00626,-0.02289,0.00839,0.00763,-0.03036,-0.01633,0.0119,-0.04669
9.0205,-0.0061,-0.04074,-0.03326,-0.03555,-0.02533,-0.04562,-0.01236,-0.00443,-0.00198,-0.0235,0.01572,0.00641,-0.02884,-0.01572,0.0119,-0.04959
9.021,-0.0061,-0.04074,-0.03204,-0.04456,-0.02548,-0.04501,-0.01343,-0.00412,0.00092,-0.0238,0.02396,0.00504,-0.02914,-0.01373,0.01129,-0.05371
9.0215,-0.0058,-0.04166,-0.0322,-0.0528,-0.0267,-0.04517,-0.01526,-0.00366,0.00229,-0.02151,0.03296,0.00397,-0.03098,-0.01282,0.01053,-0.05646
9.022,-0.00473,-0.04135,-0.03387,-0.05905,-0.02853,-0.04593,-0.01526,-0.00336,0.00092,-0.01678,0.03754,0.00198,-0.03143,-0.0145,0.00916,-0.05722
9.0225,-0.00458,-0.04257,-0.03448,-0.06439,-0.02884,-0.04608,-0.01556,-0.0029,-0.00214,-0.01144,0.03387,-0.00031,-0.03113,-0.01755,0.009,-0.05478
9.023,-0.00534,-0.04303,-0.03387,-0.07675,-0.02975,-0.04486,-0.01587,-0.00214,-0.00458,-0.00946,0.02518,-0.00305,-0.03113,-0.01862,0.00961,-0.05142
9.0235,-0.00549,-0.04425,-0.03174,-0.09689,-0.02869,-0.04471,-0.01648,-0.00305,-0.00687,-0.01007,0.01999,-0.00488,-0.03143,-0.01694,0.01007,-0.04852
9.024,-0.00488,-0.0441,-0.0325,-0.10681,-0.02808,-0.04456,-0.01648,-0.00397,-0.009,-0.01312,0.01373,-0.0058,-0.0322,-0.01419,0.0087,-0.04822
9.0245,-0.00427,-0.0444,-0.03571,-0.07629,-0.02609,-0.04562,-0.01709,-0.00443,-0.01175,-0.01556,-0.0029,-0.00595,-0.03204,-0.01495,0.00763,-0.05005
9.025,-0.00427,-0.04532,-0.03845,-0.00702,-0.02701,-0.04761,-0.01785,-0.00458,-0.0119,-0.0145,-0.02518,-0.00778,-0.03235,-0.0174,0.00671,-0.05157
9.0255,-0.00565,-0.04669,-0.03952,0.05325,-0.02853,-0.04868,-0.02014,-0.00595,-0.01266,-0.01251,-0.04272,-0.01068,-0.03204,-0.01984,0.0058,-0.05356
9.026,-0.00656,-0.04639,-0.03769,0.05707,-0.03006,-0.04822,-0.02167,-0.00763,-0.01434,-0.01282,-0.04974,-0.01129,-0.03174,-0.02045,0.00565,-0.05417
9.0265,-0.00595,-0.04456,-0.03647,0.00824,-0.03113,-0.04669,-0.02319,-0.00763,-0.01831,-0.01526,-0.04745,-0.009,-0.03281,-0.02029,0.00641,-0.05325
9.027,-0.00504,-0.04333,-0.03632,-0.04822,-0.03143,-0.0473,-0.02243,-0.00671,-0.02289,-0.01785,-0.04135,-0.00702,-0.03372,-0.02045,0.00763,-0.0502
9.0275,-0.00443,-0.04349,-0.03723,-0.07507,-0.03189,-0.04837,-0.0206,-0.00534,-0.02487,-0.01892,-0.03876,-0.00504,-0.03357,-0.02106,0.00961,-0.04898
9.028,-0.00381,-0.04364,-0.03815,-0.0676,-0.03174,-0.04929,-0.01923,-0.00565,-0.02106,-0.01572,-0.03616,-0.00366,-0.03265,-0.0209,0.01099,-0.05188
9.0285,-0.00351,-0.04318,-0.03845,-0.03891,-0.03143,-0.047,-0.02014,-0.00702,-0.01343,-0.01205,-0.02579,-0.00183,-0.03159,-0.02014,0.00885,-0.05569
9.029,-0.0029,-0.04318,-0.03799,-0.00381,-0.03036,-0.04486,-0.02365,-0.00946,-0.00839,-0.01022,-0.01343,0.00031,-0.03006,-0.01907,0.00641,-0.05707
9.0295,-0.0029,-0.04227,-0.03632,0.02747,-0.02899,-0.04333,-0.02533,-0.00961,-0.00916,-0.00992,-0.00778,0.0029,-0.02823,-0.01663,0.00595,-0.05478
9.03,-0.00305,-0.0412,-0.0354,0.04639,-0.02747,-0.04364,-0.02396,-0.00854,-0.01236,-0.0087,-0.00793,0.00534,-0.02747,-0.0174,0.00687,-0.05081
9.0305,-0.00381,-0.03967,-0.03555,0.04868,-0.02686,-0.04456,-0.02182,-0.00671,-0.01465,-0.00702,-0.00565,0.00763,-0.02884,-0.01968,0.00671,-0.04913
9.031,-0.00443,-0.03906,-0.03632,0.04471,-0.02716,-0.04593,-0.02151,-0.00458,-0.01556,-0.00656,0.00244,0.01083,-0.03128,-0.02151,0.00778,-0.04868
9.0315,-0.00427,-0.03952,-0.03571,0.05478,-0.02838,-0.04639,-0.02243,-0.00336,-0.01663,-0.00702,0.01175,0.0148,-0.03265,-0.02228,0.01053,-0.047
9.032,-0.00427,-0.03922,-0.03571,0.08301,-0.02899,-0.04623,-0.02075,-0.00153,-0.01801,-0.00793,0.01892,0.01678,-0.03128,-0.02151,0.01297,-0.04501
9.0325,-0.00534,-0.03937,-0.03586,0.10147,-0.02808,-0.04547,-0.01938,-0.00092,-0.01953,-0.01114,0.02197,0.01404,-0.03052,-0.0206,0.01343,-0.04211
9.033,-0.00565,-0.04059,-0.0354,0.07584,-0.02716,-0.04623,-0.01831,-0.00092,-0.02289,-0.0148,0.01999,0.00854,-0.03128,-0.01923,0.0116,-0.03906
9.0335,-0.00504,-0.04105,-0.03494,0.01617,-0.02838,-0.04776,-0.01648,-0.00061,-0.02563,-0.0177,0.0145,0.00443,-0.03281,-0.01892,0.00961,-0.03632
9.034,-0.00488,-0.04028,-0.03311,-0.02914,-0.03036,-0.04913,-0.01419,-0.00046,-0.02411,-0.01999,0.00839,0.00305,-0.0322,-0.0206,0.00778,-0.03799
9.0345,-0.00549,-0.03983,-0.0325,-0.03296,-0.03159,-0.04944,-0.01266,-0.00076,-0.02289,-0.02396,0.00092,0.0032,-0.03021,-0.0209,0.00549,-0.04837
9.035,-0.00671,-0.03998,-0.03311,-0.01602,-0.03021,-0.04868,-0.0145,-0.00259,-0.0238,-0.02884,-0.00854,0.0032,-0.02853,-0.02029,0.00534,-0.06012
9.0355,-0.00671,-0.0412,-0.03601,-0.00793,-0.0293,-0.04807,-0.01785,-0.00473,-0.02716,-0.0325,-0.01602,0.00198,-0.02991,-0.01831,0.00534,-0.06348
9.036,-0.00595,-0.04074,-0.03616,-0.01404,-0.02792,-0.04791,-0.01938,-0.00534,-0.02792,-0.03067,-0.01999,-0.00153,-0.03265,-0.01831,0.00626,-0.0563
9.0365,-0.00488,-0.03998,-0.0325,-0.01953,-0.02823,-0.04913,-0.02014,-0.00519,-0.02228,-0.0264,-0.02136,-0.00519,-0.03265,-0.01816,0.00671,-0.04379
9.037,-0.00366,-0.03952,-0.02991,-0.01694,-0.02899,-0.05051,-0.02029,-0.00626,-0.01266,-0.02106,-0.02411,-0.00595,-0.03143,-0.0174,0.00717,-0.03433
9.0375,-0.00198,-0.03937,-0.03098,-0.01251,-0.02884,-0.0502,-0.01984,-0.00565,-0.00549,-0.01953,-0.03113,-0.00336,-0.0296,-0.01602,0.00748,-0.03479
9.038,-0.00092,-0.04028,-0.03448,-0.01389,-0.02777,-0.04898,-0.01923,-0.00336,-0.00092,-0.02121,-0.04456,-0.00092,-0.02884,-0.0145,0.0087,-0.03799
9.0385,-0.00229,-0.04074,-0.03586,-0.01801,-0.02716,-0.04761,-0.01907,-0.00031,0.00015,-0.02258,-0.05768,0.00031,-0.02914,-0.0145,0.00931,-0.04089
9.039,-0.00366,-0.04166,-0.03387,-0.0174,-0.02853,-0.04761,-0.02014,0.0,-0.00229,-0.02243,-0.06378,0.00107,-0.02899,-0.01434,0.00916,-0.04364
9.0395,-0.00427,-0.04135,-0.03143,-0.01328,-0.02975,-0.04715,-0.02182,-0.00168,-0.00763,-0.02151,-0.05722,0.00168,-0.0293,-0.01465,0.00717,-0.047
9.04,-0.00504,-0.03967,-0.03174,-0.01251,-0.03082,-0.04578,-0.02136,-0.00351,-0.01328,-0.0209,-0.03662,0.0,-0.02945,-0.01678,0.0058,-0.05112
9.0405,-0.00748,-0.03876,-0.03342,-0.01511,-0.03067,-0.04501,-0.01953,-0.00565,-0.01785,-0.01968,-0.00885,-0.00488,-0.02991,-0.01999,0.00458,-0.05188
9.041,-0.00763,-0.03967,-0.03464,-0.01602,-0.03235,-0.04562,-0.0174,-0.00534,-0.01877,-0.01663,0.01129,-0.01144,-0.0296,-0.02075,0.00534,-0.04929
9.0415,-0.00534,-0.04074,-0.03403,-0.01724,-0.03204,-0.04639,-0.01526,-0.00427,-0.01572,-0.01434,0.02136,-0.01602,-0.02899,-0.01984,0.00626,-0.04715
9.042,-0.00259,-0.04089,-0.03387,-0.02365,-0.03082,-0.04639,-0.0145,-0.00412,-0.01205,-0.01312,0.02975,-0.01892,-0.02899,-0.01892,0.00626,-0.04807
9.0425,-0.00107,-0.04044,-0.03525,-0.04608,-0.02914,-0.04776,-0.01602,-0.00366,-0.00992,-0.01389,0.04196,-0.02319,-0.02945,-0.01923,0.00732,-0.04929
9.043,-0.00137,-0.03998,-0.03632,-0.09308,-0.02884,-0.04852,-0.0177,-0.00366,-0.01083,-0.01556,0.04623,-0.02701,-0.03098,-0.02029,0.0087,-0.04791
9.0435,-0.00061,-0.04059,-0.03494,-0.15396,-0.03067,-0.04822,-0.01785,-0.0029,-0.01373,-0.01801,0.03662,-0.02731,-0.03235,-0.0209,0.00916,-0.04562
9.044,-0.00107,-0.04059,-0.03418,-0.19791,-0.0322,-0.04807,-0.01633,-0.00229,-0.01617,-0.0206,0.0206,-0.01953,-0.03326,-0.02151,0.009,-0.04303
9.0445,-0.00122,-0.04059,-0.03296,-0.20111,-0.03326,-0.0473,-0.01663,-0.00183,-0.0174,-0.02228,0.0087,-0.00748,-0.03296,-0.02197,0.00793,-0.04242
9.045,-0.00275,-0.04089,-0.03204,-0.1651,-0.03342,-0.04669,-0.01816,-0.00259,-0.01816,-0.02243,-0.0032,0.00519,-0.03265,-0.02182,0.00778,-0.04288
9.0455,-0.00443,-0.04074,-0.03265,-0.10269,-0.03464,-0.04608,-0.01907,-0.00381,-0.01755,-0.0235,-0.02335,0.01251,-0.0325,-0.02213,0.00748,-0.04547
9.046,-0.00488,-0.04074,-0.03403,-0.02579,-0.0351,-0.04654,-0.01984,-0.00381,-0.01343,-0.02594,-0.0502,0.01205,-0.03357,-0.02258,0.00702,-0.04791
9.0465,-0.00565,-0.04074,-0.0351,0.04318,-0.03281,-0.04822,-0.02106,-0.00214,-0.00748,-0.02701,-0.07141,0.00885,-0.03296,-0.02182,0.00717,-0.05066
9.047,-0.00549,-0.04059,-0.03357,0.07553,-0.03098,-0.04898,-0.0209,-0.00031,-0.00183,-0.02686,-0.07904,0.009,-0.03174,-0.01999,0.00824,-0.04974
9.0475,-0.00534,-0.04105,-0.03265,0.07401,-0.03174,-0.04822,-0.01877,0.00061,0.00153,-0.02563,-0.07782,0.01282,-0.03052,-0.01953,0.00931,-0.04593
9.048,-0.00565,-0.0415,-0.0325,0.07233,-0.03372,-0.04791,-0.01678,0.00076,0.00259,-0.02487,-0.07339,0.01404,-0.03006,-0.02045,0.01007,-0.04456
9.0485,-0.00595,-0.0412,-0.03326,0.09277,-0.0354,-0.04883,-0.01709,0.0,0.00076,-0.02426,-0.06332,0.01144,-0.03067,-0.02121,0.01129,-0.04776
9.049,-0.00671,-0.04059,-0.03372,0.12253,-0.03616,-0.04944,-0.01953,-0.00015,-0.00381,-0.02365,-0.05066,0.0087,-0.03113,-0.02182,0.01144,-0.05219
9.0495,-0.00687,-0.03952,-0.03281,0.13885,-0.0354,-0.0502,-0.02014,0.00015,-0.009,-0.02167,-0.04257,0.00748,-0.03189,-0.0206,0.01175,-0.05402
9.05,-0.00549,-0.03891,-0.03235,0.13474,-0.03433,-0.04929,-0.01907,-0.00122,-0.01129,-0.02045,-0.04517,0.00687,-0.0325,-0.01923,0.01114,-0.05249
9.0505,-0.00427,-0.03967,-0.03296,0.10529,-0.03265,-0.04868,-0.01801,-0.00305,-0.01144,-0.01877,-0.05112,0.00626,-0.03128,-0.01877,0.00961,-0.05157
9.051,-0.00473,-0.03937,-0.03494,0.05325,-0.03143,-0.04852,-0.01785,-0.00534,-0.01175,-0.01663,-0.05554,0.00519,-0.0296,-0.02029,0.00778,-0.0528
9.0515,-0.00504,-0.03952,-0.0354,-0.00458,-0.03052,-0.04913,-0.0177,-0.00656,-0.01373,-0.01526,-0.05554,0.00427,-0.02899,-0.02045,0.00748,-0.05386
9.052,-0.00519,-0.0383,-0.03479,-0.03479,-0.03159,-0.04929,-0.01633,-0.00732,-0.01633,-0.01511,-0.05157,0.00229,-0.0296,-0.01923,0.00809,-0.05203
9.0525,-0.00427,-0.03891,-0.03448,-0.03128,-0.03189,-0.0499,-0.01511,-0.00763,-0.01846,-0.0174,-0.04501,-0.00092,-0.03082,-0.01846,0.00931,-0.05005
9.053,-0.00381,-0.03937,-0.03525,-0.01541,-0.03342,-0.04944,-0.01419,-0.00748,-0.01953,-0.01862,-0.03983,-0.00336,-0.03113,-0.01862,0.00824,-0.04349
9.0535,-0.0032,-0.04013,-0.03632,-0.00763,-0.03387,-0.04654,-0.01389,-0.00595,-0.01938,-0.01724,-0.03464,-0.00366,-0.03021,-0.01907,0.00824,-0.03601
9.054,-0.00336,-0.04105,-0.03693,-0.00824,-0.03448,-0.03891,-0.01328,-0.00381,-0.0177,-0.01602,-0.02548,-0.00336,-0.03006,-0.01785,0.00885,-0.03174
9.0545,-0.00412,-0.04211,-0.03723,-0.00809,-0.03372,-0.03036,-0.01221,-0.00259,-0.01617,-0.0148,-0.01266,-0.00412,-0.02991,-0.01633,0.00885,-0.03326
9.055,-0.00412,-0.04196,-0.03693,-0.00458,-0.03433,-0.02594,-0.01205,-0.00229,-0.01602,-0.01389,-0.00153,-0.00702,-0.03128,-0.01633,0.009,-0.03998
9.0555,-0.00351,-0.0415,-0.03479,0.00549,-0.03403,-0.02838,-0.0119,-0.00259,-0.01663,-0.01205,0.00992,-0.0087,-0.03067,-0.01831,0.00854,-0.04547
9.056,-0.00244,-0.04089,-0.03326,0.02213,-0.03281,-0.03159,-0.01144,-0.00336,-0.01755,-0.01236,0.02045,-0.00809,-0.02991,-0.01984,0.00824,-0.04807
9.0565,-0.00259,-0.03906,-0.03418,0.03555,-0.03159,-0.03128,-0.01144,-0.00366,-0.01785,-0.01373,0.02823,-0.00595,-0.02991,-0.02121,0.00885,-0.04868
9.057,-0.00381,-0.03769,-0.03555,0.02625,-0.03006,-0.02808,-0.01266,-0.00473,-0.01724,-0.01495,0.03525,-0.00549,-0.03021,-0.02335,0.00824,-0.04715
9.0575,-0.00397,-0.03723,-0.03662,-0.00244,-0.02914,-0.02686,-0.01373,-0.00534,-0.01678,-0.01648,0.04318,-0.00687,-0.03006,-0.02441,0.00793,-0.04333
9.058,-0.0032,-0.03754,-0.03555,-0.03357,-0.02823,-0.03082,-0.01465,-0.00473,-0.01709,-0.01633,0.04776,-0.00763,-0.0293,-0.02396,0.00778,-0.03998
9.0585,-0.00229,-0.03738,-0.03418,-0.05493,-0.02914,-0.04272,-0.01526,-0.00412,-0.01755,-0.01602,0.04242,-0.00763,-0.02884,-0.02167,0.00717,-0.03983
9.059,-0.0029,-0.03693,-0.03525,-0.07584,-0.03174,-0.05966,-0.01556,-0.00488,-0.0174,-0.01694,0.02457,-0.00809,-0.02869,-0.02045,0.00702,-0.04257
9.0595,-0.00412,-0.03677,-0.03571,-0.10101,-0.03235,-0.07538,-0.01526,-0.00412,-0.01617,-0.0177,-0.00488,-0.00931,-0.02823,-0.01999,0.00732,-0.0444
9.06,-0.00397,-0.03799,-0.03525,-0.11337,-0.02991,-0.08331,-0.0145,-0.00427,-0.01602,-0.01892,-0.03464,-0.00961,-0.02808,-0.01999,0.00793,-0.04471
