time,RectFemL,VastusMedL,VastusLatL,TibAntL,HamMedL,HamLatL,GastroMedL,GastroLatL,RectFemR,VastusMedR,VastusLatR,TibAntR,HamMedR,HamLatR,GastroMedR,GastroLatR
2.8,-0.00198,-0.03174,-0.04288,-0.01038,-0.03418,-0.04745,-0.00336,0.00153,-0.00793,-0.01984,0.00031,-0.00092,-0.03174,-0.01984,0.00916,-0.04364
2.8005,-0.00015,-0.03174,-0.03784,-0.00931,-0.0325,-0.04837,-0.00336,0.00305,-0.00519,-0.01755,0.03433,-0.0032,-0.03204,-0.01831,0.01099,-0.0444
2.801,0.00046,-0.03464,-0.02914,-0.00763,-0.03159,-0.04868,-0.00488,0.00412,-0.0058,-0.01633,0.05768,-0.00397,-0.03265,-0.01923,0.01053,-0.04471
2.8015,0.00031,-0.03784,-0.02136,-0.00626,-0.03143,-0.04761,-0.00595,0.00458,-0.00702,-0.01572,0.06668,-0.00381,-0.0325,-0.02029,0.00931,-0.04349
2.802,-0.00031,-0.04013,-0.01923,-0.00656,-0.03235,-0.04715,-0.00641,0.00412,-0.00778,-0.01572,0.06378,-0.00305,-0.03159,-0.02029,0.00778,-0.04196
2.8025,-0.00229,-0.0415,-0.02167,-0.00763,-0.03006,-0.04807,-0.00702,0.00198,-0.00824,-0.01678,0.05432,-0.0032,-0.03143,-0.02151,0.00824,-0.04135
2.803,-0.0058,-0.04181,-0.02853,-0.00885,-0.02716,-0.04974,-0.00931,-0.00122,-0.00885,-0.01602,0.0415,-0.0029,-0.03296,-0.02213,0.00885,-0.04288
2.8035,-0.00946,-0.04272,-0.03723,-0.00854,-0.02579,-0.04944,-0.01358,-0.00427,-0.00946,-0.01389,0.02594,-0.00259,-0.03403,-0.02136,0.009,-0.04471
2.804,-0.00961,-0.04395,-0.04501,-0.00778,-0.02701,-0.04822,-0.01755,-0.00504,-0.01068,-0.01343,0.0119,-0.00366,-0.03433,-0.01984,0.00885,-0.04562
2.8045,-0.009,-0.04669,-0.04883,-0.00763,-0.0293,-0.04715,-0.02182,-0.0029,-0.01251,-0.01511,0.00015,-0.00504,-0.03372,-0.01892,0.00748,-0.04517
2.805,-0.00946,-0.05096,-0.04929,-0.00885,-0.03128,-0.04761,-0.02441,-0.00229,-0.01511,-0.01999,-0.00656,-0.00504,-0.03296,-0.01877,0.009,-0.04532
2.8055,-0.01282,-0.05356,-0.04608,-0.00946,-0.03235,-0.047,-0.02411,-0.00565,-0.01801,-0.0264,-0.00931,-0.00397,-0.03326,-0.01801,0.00839,-0.04517
2.806,-0.01755,-0.0531,-0.04379,-0.01022,-0.03159,-0.04562,-0.02151,-0.009,-0.01877,-0.03067,-0.01205,-0.00122,-0.03387,-0.01846,0.00824,-0.04486
2.8065,-0.02014,-0.04898,-0.04303,-0.01099,-0.03098,-0.0441,-0.01846,-0.01007,-0.0177,-0.03174,-0.01617,0.00076,-0.03265,-0.01907,0.00809,-0.04379
2.807,-0.0206,-0.04593,-0.04364,-0.01083,-0.03006,-0.04425,-0.01755,-0.00687,-0.01694,-0.03143,-0.02411,0.00168,-0.03159,-0.01968,0.00854,-0.0444
2.8075,-0.01984,-0.04608,-0.04395,-0.00961,-0.02945,-0.04501,-0.01877,-0.00366,-0.01694,-0.03113,-0.03494,0.00168,-0.03113,-0.02014,0.00824,-0.04456
2.808,-0.01862,-0.04669,-0.04272,-0.00809,-0.02975,-0.04532,-0.01907,-0.00351,-0.01709,-0.03036,-0.04501,0.00153,-0.03189,-0.02029,0.00885,-0.04227
2.8085,-0.01633,-0.04623,-0.04166,-0.00671,-0.03174,-0.04517,-0.01999,-0.00443,-0.01724,-0.02975,-0.0499,0.00275,-0.03296,-0.01953,0.009,-0.03967
2.809,-0.0116,-0.04318,-0.04028,-0.0058,-0.03372,-0.04562,-0.02274,-0.00427,-0.01617,-0.02884,-0.04578,0.00443,-0.0325,-0.01831,0.00931,-0.03967
2.8095,-0.00351,-0.0383,-0.04059,-0.00641,-0.03342,-0.04501,-0.02487,-0.00275,-0.01434,-0.02762,-0.0415,0.0058,-0.03143,-0.01801,0.009,-0.04181
2.81,0.00565,-0.03525,-0.04349,-0.00748,-0.03189,-0.04456,-0.02548,-0.00214,-0.01389,-0.0264,-0.03662,0.00443,-0.0296,-0.01923,0.00778,-0.04242
2.8105,0.01358,-0.0354,-0.04623,-0.00916,-0.03128,-0.04593,-0.0238,-0.00061,-0.01511,-0.02426,-0.03281,0.0029,-0.03036,-0.02121,0.00793,-0.04074
2.811,0.0174,-0.03662,-0.04913,-0.01068,-0.03296,-0.047,-0.02365,0.00198,-0.01816,-0.02014,-0.02548,0.00214,-0.03235,-0.02274,0.00748,-0.03876
2.8115,0.01785,-0.03693,-0.04974,-0.01053,-0.03372,-0.0473,-0.0264,0.00443,-0.02258,-0.01556,-0.01465,0.00092,-0.03357,-0.02228,0.00687,-0.03769
2.812,0.01587,-0.03723,-0.04852,-0.00885,-0.03235,-0.04532,-0.03159,0.00366,-0.02472,-0.0119,-0.00259,-0.00168,-0.0325,-0.02213,0.0058,-0.0383
2.8125,0.01236,-0.0386,-0.04364,-0.00778,-0.03189,-0.04578,-0.0325,0.00031,-0.02243,-0.00916,0.00946,-0.00351,-0.03143,-0.02258,0.0058,-0.03891
2.813,0.0087,-0.04013,-0.03662,-0.00763,-0.03418,-0.04623,-0.0264,-0.00198,-0.01923,-0.00931,0.01526,-0.00214,-0.03052,-0.02243,0.00687,-0.03906
2.8135,0.00397,-0.04135,-0.03036,-0.00809,-0.03616,-0.04608,-0.01831,-0.0029,-0.01724,-0.00992,0.00916,-0.00168,-0.03159,-0.02182,0.00748,-0.03937
2.814,-0.00198,-0.04242,-0.02762,-0.00931,-0.03555,-0.04669,-0.01419,-0.0029,-0.01892,-0.00977,-0.0058,-0.00168,-0.03326,-0.02045,0.00809,-0.03952
2.8145,-0.00778,-0.04272,-0.02808,-0.00992,-0.0354,-0.04669,-0.01312,-0.00351,-0.02075,-0.01007,-0.01877,-0.00076,-0.03403,-0.01923,0.00931,-0.03799
2.815,-0.01266,-0.04333,-0.02823,-0.01022,-0.03616,-0.04715,-0.01205,-0.00427,-0.02182,-0.00977,-0.02274,0.00122,-0.03326,-0.01938,0.01083,-0.03815
2.8155,-0.01602,-0.04486,-0.02762,-0.01053,-0.03693,-0.04822,-0.00702,-0.00473,-0.02136,-0.00885,-0.02167,0.00122,-0.03159,-0.02045,0.01083,-0.04013
2.816,-0.01724,-0.04639,-0.0267,-0.0119,-0.0351,-0.04883,-0.00214,-0.00488,-0.01953,-0.0087,-0.01877,0.00092,-0.03174,-0.02197,0.00824,-0.04364
2.8165,-0.01724,-0.04654,-0.02747,-0.01312,-0.03326,-0.04776,-0.00122,-0.00473,-0.01724,-0.009,-0.01755,0.00122,-0.0325,-0.02243,0.00702,-0.04364
2.817,-0.01495,-0.04654,-0.02853,-0.01312,-0.03159,-0.04761,-0.0058,-0.00366,-0.0148,-0.00931,-0.01755,0.00214,-0.03357,-0.0206,0.00626,-0.04166
2.8175,-0.01251,-0.047,-0.02945,-0.01236,-0.03082,-0.04684,-0.01068,-0.00183,-0.01419,-0.00946,-0.01831,0.00183,-0.03479,-0.01831,0.00641,-0.04059
2.818,-0.00961,-0.04868,-0.03021,-0.0116,-0.03021,-0.04776,-0.01343,0.0,-0.0145,-0.0116,-0.0177,0.00061,-0.03494,-0.01755,0.00534,-0.03998
2.8185,-0.00763,-0.05035,-0.03113,-0.01205,-0.03128,-0.04776,-0.0145,-0.00046,-0.01617,-0.01511,-0.01617,-0.00076,-0.03387,-0.01801,0.00458,-0.03815
2.819,-0.00443,-0.05066,-0.03235,-0.01251,-0.03143,-0.04761,-0.01587,-0.00259,-0.01801,-0.01801,-0.01556,-0.00122,-0.03265,-0.01877,0.00519,-0.0354
2.8195,0.0,-0.05051,-0.03372,-0.01205,-0.0322,-0.04669,-0.01602,-0.00275,-0.01999,-0.01923,-0.01465,0.0,-0.03204,-0.0177,0.00732,-0.03357
2.82,0.00534,-0.05035,-0.03418,-0.01068,-0.03235,-0.04608,-0.01389,-0.00168,-0.02106,-0.01968,-0.01297,0.00244,-0.03143,-0.0174,0.00839,-0.03387
2.8205,0.00732,-0.04913,-0.03448,-0.01068,-0.03159,-0.04654,-0.01129,-0.00229,-0.01968,-0.02304,-0.01297,0.0032,-0.03143,-0.01831,0.0087,-0.03632
2.821,0.00488,-0.047,-0.03632,-0.01007,-0.03159,-0.04898,-0.01144,-0.00443,-0.01617,-0.02823,-0.01541,0.00275,-0.03128,-0.01892,0.00824,-0.03876
2.8215,-0.00122,-0.04562,-0.03799,-0.01129,-0.03326,-0.0502,-0.01343,-0.00702,-0.01221,-0.03204,-0.01801,0.00183,-0.03098,-0.01846,0.00809,-0.04059
2.822,-0.00595,-0.04349,-0.03754,-0.01236,-0.03464,-0.05081,-0.01587,-0.00641,-0.01038,-0.03082,-0.01785,0.00214,-0.03143,-0.01816,0.00687,-0.04135
2.8225,-0.00793,-0.04196,-0.03586,-0.01236,-0.03448,-0.05005,-0.01801,-0.00427,-0.01007,-0.02655,-0.0148,0.00305,-0.03143,-0.01877,0.00549,-0.04074
2.823,-0.00702,-0.04013,-0.03433,-0.01053,-0.03342,-0.04974,-0.01785,-0.00351,-0.01083,-0.02365,-0.01282,0.00275,-0.03189,-0.01877,0.00549,-0.04044
2.8235,-0.00763,-0.03922,-0.03159,-0.00885,-0.03143,-0.05005,-0.01602,-0.00366,-0.01144,-0.02335,-0.01297,0.00076,-0.03296,-0.01846,0.0061,-0.04105
2.824,-0.00885,-0.03952,-0.03098,-0.00839,-0.03174,-0.04944,-0.01251,-0.00473,-0.01175,-0.02304,-0.01282,-0.00046,-0.03418,-0.0174,0.00656,-0.04288
2.8245,-0.00809,-0.04044,-0.03006,-0.00977,-0.0325,-0.04807,-0.00824,-0.00473,-0.0116,-0.02151,-0.01068,0.0,-0.03433,-0.01678,0.00809,-0.04425
2.825,-0.00671,-0.04044,-0.02869,-0.01114,-0.03265,-0.04883,-0.00397,-0.00412,-0.01099,-0.0174,-0.00916,0.00061,-0.03418,-0.01709,0.00977,-0.04471
2.8255,-0.00549,-0.03876,-0.02853,-0.01129,-0.03357,-0.04852,-0.00214,-0.00427,-0.0119,-0.01266,-0.00732,-0.00015,-0.03235,-0.01724,0.01007,-0.04425
2.826,-0.00504,-0.03769,-0.0296,-0.01068,-0.03372,-0.04761,-0.00122,-0.00626,-0.01465,-0.01068,-0.00565,-0.00198,-0.03174,-0.01831,0.00748,-0.0441
2.8265,-0.00381,-0.03754,-0.02991,-0.00977,-0.03189,-0.04669,-0.00229,-0.00793,-0.01724,-0.01068,-0.00458,-0.00381,-0.03281,-0.01862,0.00702,-0.04425
2.827,-0.00275,-0.03723,-0.02914,-0.00992,-0.03098,-0.04639,-0.00473,-0.00885,-0.01755,-0.01175,-0.00595,-0.00397,-0.03387,-0.01862,0.00809,-0.04486
2.8275,-0.00137,-0.0386,-0.02853,-0.01053,-0.03021,-0.04837,-0.00732,-0.00732,-0.01648,-0.01099,-0.00778,-0.00336,-0.03387,-0.01816,0.01099,-0.04608
2.828,-0.00107,-0.04028,-0.02869,-0.01083,-0.03159,-0.04929,-0.01251,-0.00504,-0.01572,-0.01022,-0.00809,-0.00153,-0.03281,-0.0177,0.0116,-0.04745
2.8285,-0.00153,-0.04105,-0.03036,-0.01068,-0.0325,-0.04868,-0.01694,-0.00351,-0.01465,-0.01175,-0.00687,0.0029,-0.03296,-0.0177,0.01053,-0.04807
2.829,-0.00275,-0.04028,-0.03204,-0.01007,-0.03174,-0.04639,-0.02319,-0.00443,-0.0145,-0.01282,-0.00748,0.00763,-0.03372,-0.01694,0.00854,-0.04776
2.8295,-0.00214,-0.03891,-0.03357,-0.01038,-0.02945,-0.04593,-0.02701,-0.00626,-0.0148,-0.01251,-0.00748,0.00961,-0.03387,-0.0177,0.00763,-0.04684
2.83,-0.00137,-0.03784,-0.03326,-0.01022,-0.02731,-0.04562,-0.02609,-0.00732,-0.01617,-0.01236,-0.00473,0.00748,-0.03342,-0.0177,0.0061,-0.04562
2.8305,-0.00092,-0.0383,-0.03159,-0.00931,-0.0264,-0.04684,-0.02182,-0.00702,-0.01907,-0.01495,-0.00122,0.00488,-0.03189,-0.01862,0.0058,-0.0444
2.831,-0.00259,-0.03906,-0.03098,-0.00854,-0.02747,-0.04929,-0.01999,-0.00641,-0.02258,-0.01877,-0.0029,0.00443,-0.03098,-0.01923,0.0061,-0.04425
2.8315,-0.00336,-0.03952,-0.03128,-0.00778,-0.02838,-0.05035,-0.02075,-0.00641,-0.02457,-0.0206,-0.01022,0.00549,-0.03082,-0.02014,0.00778,-0.04517
2.832,-0.00351,-0.03952,-0.03326,-0.00793,-0.02945,-0.04913,-0.02319,-0.00671,-0.02441,-0.02029,-0.01648,0.00519,-0.03189,-0.02045,0.00916,-0.04684
2.8325,-0.00397,-0.03891,-0.03418,-0.00748,-0.0296,-0.04745,-0.02396,-0.00656,-0.02228,-0.02136,-0.01663,0.00275,-0.03372,-0.0209,0.01038,-0.04684
2.833,-0.00549,-0.03769,-0.03311,-0.00702,-0.03036,-0.04639,-0.02396,-0.00504,-0.01999,-0.02472,-0.01312,0.00031,-0.03555,-0.02167,0.01007,-0.04471
2.8335,-0.0061,-0.03708,-0.02975,-0.00687,-0.03143,-0.04639,-0.02502,-0.00214,-0.0177,-0.03204,-0.01328,-0.00198,-0.03616,-0.02289,0.01083,-0.04395
2.834,-0.00778,-0.03754,-0.0293,-0.00671,-0.0322,-0.04776,-0.02686,-0.00092,-0.01465,-0.03891,-0.01648,-0.0032,-0.03632,-0.02274,0.01236,-0.04501
2.8345,-0.00702,-0.0383,-0.03067,-0.00702,-0.03189,-0.04898,-0.02609,-0.00092,-0.01144,-0.04242,-0.01968,-0.00397,-0.03601,-0.02151,0.0145,-0.04684
2.835,-0.00458,-0.03922,-0.0322,-0.00824,-0.03113,-0.05005,-0.02213,-0.00092,-0.00961,-0.04257,-0.02151,-0.00473,-0.0351,-0.01938,0.01556,-0.04593
2.8355,-0.00381,-0.03967,-0.03174,-0.00992,-0.03204,-0.05005,-0.01602,-0.00046,-0.01038,-0.04196,-0.02304,-0.00656,-0.03296,-0.0177,0.0145,-0.04471
2.836,-0.00549,-0.03952,-0.02914,-0.0116,-0.03281,-0.04959,-0.00717,-0.00046,-0.01251,-0.03983,-0.02365,-0.00854,-0.03189,-0.01694,0.0119,-0.04425
2.8365,-0.00839,-0.04059,-0.02716,-0.0116,-0.03372,-0.04913,0.00092,-0.00046,-0.01328,-0.03616,-0.02029,-0.01007,-0.03189,-0.01724,0.01068,-0.0444
2.837,-0.00809,-0.04059,-0.02426,-0.01144,-0.03357,-0.04944,0.00595,-0.00015,-0.01266,-0.03143,-0.01602,-0.01144,-0.03128,-0.01831,0.01053,-0.04471
2.8375,-0.00656,-0.04074,-0.0238,-0.01144,-0.03326,-0.04959,0.00412,-0.00061,-0.01175,-0.02792,-0.01236,-0.0119,-0.03082,-0.01984,0.01068,-0.04486
2.838,-0.00595,-0.04028,-0.02548,-0.01114,-0.03143,-0.04745,-0.00031,-0.00168,-0.01251,-0.0235,-0.01083,-0.01038,-0.03067,-0.01999,0.01144,-0.04425
2.8385,-0.00656,-0.04059,-0.02884,-0.01007,-0.03036,-0.04501,-0.00259,-0.00259,-0.01389,-0.01846,-0.01099,-0.00687,-0.03067,-0.01923,0.01175,-0.04364
2.839,-0.00854,-0.03998,-0.03159,-0.00961,-0.03174,-0.04364,-0.00656,-0.00244,-0.01358,-0.0116,-0.01251,-0.00412,-0.03113,-0.01724,0.01099,-0.04257
2.8395,-0.00992,-0.04013,-0.03479,-0.01022,-0.03204,-0.0441,-0.01465,-0.00076,-0.01175,-0.00748,-0.01358,-0.00229,-0.03082,-0.0148,0.00992,-0.04196
2.84,-0.01083,-0.03998,-0.03723,-0.01144,-0.03143,-0.04578,-0.02426,0.0,-0.00946,-0.00687,-0.01495,-0.00092,-0.03082,-0.0148,0.00977,-0.04028
2.8405,-0.01205,-0.04013,-0.03983,-0.01175,-0.0296,-0.0473,-0.02853,0.00061,-0.00824,-0.00824,-0.01724,0.00122,-0.03159,-0.01556,0.01038,-0.04013
2.841,-0.0116,-0.03967,-0.04196,-0.01144,-0.02747,-0.04807,-0.02594,0.00275,-0.00717,-0.00916,-0.01755,0.0029,-0.03113,-0.01526,0.01053,-0.04013
2.8415,-0.009,-0.03952,-0.04364,-0.01114,-0.02777,-0.04852,-0.01816,0.00443,-0.00671,-0.00931,-0.01419,0.00153,-0.03098,-0.01541,0.01007,-0.03998
2.842,-0.00488,-0.03998,-0.04364,-0.01083,-0.02899,-0.04868,-0.01099,0.00366,-0.00824,-0.00961,-0.00992,-0.00092,-0.03143,-0.01587,0.01099,-0.04028
2.8425,-0.00244,-0.04059,-0.0415,-0.01053,-0.03067,-0.04929,-0.00504,-0.00214,-0.01221,-0.01083,-0.00702,-0.00061,-0.03113,-0.01709,0.01801,-0.04059
2.843,-0.00183,-0.04074,-0.03967,-0.01175,-0.0322,-0.04852,-0.0029,-0.00977,-0.01678,-0.0116,-0.00504,0.00153,-0.03006,-0.0177,0.03204,-0.04028
2.8435,-0.00137,-0.0412,-0.03922,-0.01312,-0.03281,-0.04593,-0.00397,-0.01526,-0.02014,-0.01129,-0.00626,0.0029,-0.02991,-0.01801,0.04745,-0.03922
2.844,0.00092,-0.04196,-0.0386,-0.01358,-0.0325,-0.04471,-0.00885,-0.01556,-0.02197,-0.01053,-0.00992,0.00259,-0.03189,-0.0177,0.05386,-0.03952
2.8445,0.00275,-0.04288,-0.03799,-0.01404,-0.03098,-0.04532,-0.01587,-0.01144,-0.02075,-0.01175,-0.01434,0.00107,-0.03372,-0.0177,0.04257,-0.04181
2.845,0.00458,-0.04425,-0.03769,-0.01282,-0.02823,-0.04562,-0.01953,-0.00534,-0.01907,-0.01358,-0.01678,0.0,-0.03296,-0.0177,0.02182,-0.04501
2.8455,0.00427,-0.04425,-0.03799,-0.0119,-0.02701,-0.04501,-0.01892,-0.00198,-0.01694,-0.01404,-0.01831,-0.00137,-0.03143,-0.01724,0.00229,-0.04501
2.846,0.00168,-0.04288,-0.0386,-0.01114,-0.0296,-0.0444,-0.01694,-0.00305,-0.01587,-0.01358,-0.01862,-0.00122,-0.03128,-0.0174,-0.01022,-0.04456
2.8465,-0.0029,-0.04028,-0.0386,-0.01007,-0.03174,-0.04517,-0.0148,-0.00687,-0.01602,-0.01205,-0.0148,-0.00061,-0.03189,-0.01755,-0.01938,-0.04471
2.847,-0.00626,-0.03906,-0.03876,-0.00977,-0.03281,-0.0473,-0.01389,-0.0087,-0.0148,-0.01312,-0.01236,0.00046,-0.0325,-0.01663,-0.02426,-0.04562
2.8475,-0.00717,-0.03845,-0.03967,-0.00977,-0.03311,-0.04837,-0.01465,-0.00641,-0.01328,-0.01556,-0.01358,0.00015,-0.03326,-0.01511,-0.02594,-0.04471
2.848,-0.00534,-0.03922,-0.03998,-0.01038,-0.03342,-0.04807,-0.01495,-0.00336,-0.01205,-0.01831,-0.01663,0.0,-0.03342,-0.01389,-0.02136,-0.04364
2.8485,-0.00412,-0.03967,-0.03647,-0.00992,-0.03418,-0.04669,-0.01572,-0.0029,-0.01312,-0.0206,-0.01862,-0.00061,-0.03296,-0.01404,-0.01373,-0.04379
2.849,-0.00351,-0.04044,-0.03326,-0.0087,-0.03464,-0.04532,-0.01465,-0.00549,-0.01495,-0.02014,-0.01953,-0.00015,-0.03342,-0.01724,-0.00671,-0.04562
2.8495,-0.00305,-0.04135,-0.03082,-0.00839,-0.0351,-0.04456,-0.01266,-0.00671,-0.01328,-0.02029,-0.01984,0.00107,-0.03418,-0.01862,0.00031,-0.04593
2.85,-0.0032,-0.0415,-0.03189,-0.00824,-0.03464,-0.04578,-0.01007,-0.00595,-0.01038,-0.01923,-0.01785,0.00198,-0.03448,-0.01846,0.00595,-0.04425
2.8505,-0.00427,-0.04196,-0.03174,-0.00763,-0.03418,-0.04868,-0.00946,-0.00504,-0.00839,-0.01892,-0.01556,0.00015,-0.03342,-0.0174,0.00854,-0.04379
2.851,-0.00473,-0.04227,-0.03006,-0.00717,-0.03204,-0.05112,-0.01068,-0.00595,-0.00778,-0.01953,-0.01419,-0.00305,-0.03174,-0.01846,0.00763,-0.04349
2.8515,-0.00336,-0.04074,-0.02899,-0.00702,-0.03082,-0.05081,-0.0119,-0.00595,-0.0087,-0.0206,-0.01434,-0.00458,-0.03067,-0.01923,0.00534,-0.04196
2.852,-0.00168,-0.03952,-0.02884,-0.00793,-0.03159,-0.04868,-0.0116,-0.00458,-0.01068,-0.02075,-0.01434,-0.00198,-0.03098,-0.01801,0.00488,-0.03876
2.8525,-0.00061,-0.03998,-0.03036,-0.00946,-0.03357,-0.04669,-0.00992,-0.00198,-0.01297,-0.0177,-0.01236,0.00137,-0.03189,-0.01663,0.00626,-0.03632
2.853,-0.00092,-0.04074,-0.0322,-0.01099,-0.03342,-0.04562,-0.00549,0.0,-0.01434,-0.01419,-0.01099,0.00214,-0.03281,-0.01709,0.00824,-0.03494
2.8535,-0.00198,-0.04089,-0.03494,-0.01129,-0.03265,-0.04349,-0.00122,-0.00061,-0.0148,-0.01328,-0.01297,0.00107,-0.03296,-0.01755,0.00916,-0.03586
2.854,-0.0029,-0.04105,-0.03723,-0.01205,-0.03204,-0.0412,0.00107,-0.0032,-0.0145,-0.0148,-0.01724,-0.00046,-0.03265,-0.01755,0.009,-0.03876
2.8545,-0.00305,-0.04059,-0.03906,-0.01297,-0.03281,-0.03876,0.00015,-0.00504,-0.01404,-0.01678,-0.02121,-0.00183,-0.03311,-0.01648,0.00732,-0.03998
2.855,-0.00351,-0.04013,-0.03799,-0.01282,-0.03281,-0.03937,-0.00488,-0.00565,-0.01617,-0.01785,-0.02075,-0.00137,-0.03311,-0.01694,0.00732,-0.03967
2.8555,-0.00473,-0.03952,-0.03586,-0.01251,-0.03311,-0.0415,-0.01236,-0.00443,-0.01907,-0.01755,-0.02106,0.00015,-0.03296,-0.01862,0.00748,-0.03922
2.856,-0.00488,-0.03998,-0.03555,-0.01236,-0.03372,-0.04456,-0.02106,-0.00412,-0.02121,-0.01831,-0.0206,0.00229,-0.03265,-0.01953,0.00854,-0.04013
2.8565,-0.00351,-0.04013,-0.03571,-0.01205,-0.03403,-0.04791,-0.02899,-0.00259,-0.02106,-0.01678,-0.01938,0.00366,-0.03357,-0.01907,0.00809,-0.0412
2.857,-0.00229,-0.04059,-0.03662,-0.01129,-0.03204,-0.05005,-0.0354,-0.00137,-0.01984,-0.01617,-0.01495,0.00305,-0.03342,-0.01968,0.00748,-0.04181
2.8575,-0.00244,-0.04074,-0.03571,-0.01022,-0.03082,-0.05096,-0.04089,-0.00061,-0.01923,-0.01617,-0.00793,0.00214,-0.0325,-0.02075,0.00626,-0.04272
2.858,-0.00381,-0.04135,-0.03403,-0.00946,-0.03143,-0.05127,-0.0441,-0.00015,-0.01984,-0.01755,-0.00427,0.00076,-0.03143,-0.02106,0.00381,-0.0441
2.8585,-0.00504,-0.04181,-0.03189,-0.0087,-0.03372,-0.05127,-0.04211,-0.00046,-0.02182,-0.01755,-0.00519,0.00076,-0.03098,-0.02106,0.0029,-0.0444
2.859,-0.00595,-0.0412,-0.03021,-0.00854,-0.03357,-0.05112,-0.03433,-0.00214,-0.02411,-0.01709,-0.00961,0.00092,-0.03128,-0.01999,0.00259,-0.04532
2.8595,-0.00488,-0.03967,-0.02808,-0.00763,-0.03235,-0.05081,-0.02289,-0.00244,-0.02563,-0.01938,-0.009,0.00137,-0.0325,-0.01938,0.00427,-0.04486
2.86,-0.00366,-0.03815,-0.0267,-0.00793,-0.03265,-0.04944,-0.01312,-0.00229,-0.0238,-0.02182,-0.00137,0.00107,-0.03265,-0.01892,0.00641,-0.04211
2.8605,-0.00244,-0.03784,-0.0267,-0.00809,-0.03296,-0.04898,-0.00778,-0.00244,-0.02045,-0.02243,0.00443,0.00076,-0.03189,-0.02029,0.00671,-0.04074
2.861,-0.00198,-0.03891,-0.02899,-0.00778,-0.03433,-0.04822,-0.00671,-0.0032,-0.01755,-0.02121,0.00427,0.00168,-0.03159,-0.02258,0.0058,-0.0412
2.8615,-0.00336,-0.03937,-0.03326,-0.00717,-0.03448,-0.0473,-0.00565,-0.0032,-0.0177,-0.01877,-0.00168,0.0032,-0.03265,-0.02274,0.00473,-0.0415
2.862,-0.00595,-0.03876,-0.03815,-0.00778,-0.03311,-0.04776,-0.00275,-0.00366,-0.01877,-0.01801,-0.00565,0.00336,-0.03342,-0.02075,0.00381,-0.04059
2.8625,-0.01007,-0.03906,-0.04059,-0.009,-0.03235,-0.04745,0.00061,-0.00504,-0.01755,-0.01862,-0.00809,0.00351,-0.03265,-0.01785,0.00336,-0.03983
2.863,-0.01251,-0.03998,-0.04059,-0.01053,-0.0325,-0.04623,0.00137,-0.00565,-0.01404,-0.02167,-0.01526,0.0032,-0.03281,-0.01678,0.00488,-0.03937
2.8635,-0.01297,-0.04105,-0.0386,-0.01099,-0.0322,-0.0444,-0.00061,-0.00656,-0.01114,-0.02655,-0.03082,0.00229,-0.03357,-0.0177,0.00732,-0.03906
2.864,-0.01129,-0.04028,-0.0351,-0.00946,-0.0322,-0.04425,-0.00427,-0.00748,-0.00763,-0.02853,-0.04761,0.00092,-0.03464,-0.01938,0.01068,-0.03906
2.8645,-0.00977,-0.03952,-0.03265,-0.00931,-0.03174,-0.04562,-0.00778,-0.00793,-0.00351,-0.02991,-0.05661,-0.00015,-0.03265,-0.02045,0.01389,-0.04028
2.865,-0.00854,-0.03937,-0.03098,-0.01068,-0.02991,-0.04745,-0.01175,-0.00793,-0.00031,-0.02823,-0.05493,0.00168,-0.03143,-0.02045,0.01694,-0.04044
2.8655,-0.00595,-0.03967,-0.03159,-0.01251,-0.0296,-0.04852,-0.01404,-0.00656,0.00015,-0.02487,-0.04547,0.00305,-0.03342,-0.01984,0.01923,-0.04044
2.866,-0.00427,-0.0412,-0.03235,-0.01312,-0.03036,-0.04837,-0.01404,-0.00488,-0.00214,-0.02365,-0.03174,0.00168,-0.03555,-0.01785,0.0206,-0.04028
2.8665,-0.00397,-0.04196,-0.03204,-0.01221,-0.02914,-0.04791,-0.01129,-0.00381,-0.00763,-0.02213,-0.01846,-0.00137,-0.03479,-0.01511,0.02197,-0.04074
2.867,-0.00519,-0.04105,-0.02914,-0.0119,-0.02823,-0.04837,-0.009,-0.00244,-0.01221,-0.01938,-0.01343,-0.00351,-0.0322,-0.01282,0.02045,-0.04196
2.8675,-0.00671,-0.04013,-0.02701,-0.01144,-0.02777,-0.04944,-0.00839,-0.00168,-0.01434,-0.0145,-0.01694,-0.00259,-0.03128,-0.01205,0.01892,-0.04135
2.868,-0.00717,-0.03876,-0.0264,-0.0119,-0.02899,-0.04868,-0.00885,-0.00153,-0.01343,-0.01038,-0.02136,-0.00229,-0.0325,-0.01343,0.01648,-0.04135
2.8685,-0.00702,-0.03784,-0.02884,-0.01236,-0.02991,-0.04791,-0.01022,-0.00183,-0.01114,-0.00809,-0.02106,-0.00198,-0.03265,-0.01663,0.01404,-0.04227
2.869,-0.00687,-0.03708,-0.02945,-0.01144,-0.03021,-0.04776,-0.00809,-0.00092,-0.01022,-0.00702,-0.01877,-0.00046,-0.03098,-0.01999,0.01144,-0.04425
2.8695,-0.00626,-0.03525,-0.0296,-0.00916,-0.03036,-0.04669,-0.00565,0.00214,-0.01068,-0.00504,-0.01785,0.00214,-0.02899,-0.02106,0.009,-0.04349
2.87,-0.00504,-0.03387,-0.03036,-0.00687,-0.03159,-0.04593,-0.00458,0.00397,-0.01083,-0.00381,-0.01801,0.00458,-0.0293,-0.02014,0.00854,-0.0412
2.8705,-0.00351,-0.03372,-0.02991,-0.00687,-0.03189,-0.04562,-0.00671,0.00229,-0.01221,-0.00351,-0.01846,0.00458,-0.03143,-0.01907,0.00916,-0.03845
2.871,-0.00198,-0.0354,-0.02899,-0.00839,-0.03098,-0.04669,-0.01083,-0.00046,-0.01312,-0.00778,-0.01572,0.00473,-0.0322,-0.01831,0.01038,-0.03906
2.8715,-0.00092,-0.03754,-0.02777,-0.00916,-0.03082,-0.04807,-0.01373,-0.00031,-0.0145,-0.0148,-0.01114,0.00641,-0.03174,-0.01831,0.01129,-0.03998
2.872,-0.00046,-0.03662,-0.0293,-0.009,-0.03189,-0.04929,-0.01495,0.00076,-0.01755,-0.02258,-0.00626,0.00793,-0.03113,-0.01923,0.01083,-0.03952
2.8725,-0.00137,-0.03571,-0.03311,-0.00916,-0.03387,-0.05005,-0.01465,0.00198,-0.02121,-0.02396,-0.00381,0.00763,-0.03098,-0.02029,0.00961,-0.0386
2.873,-0.00336,-0.03555,-0.03616,-0.01007,-0.03479,-0.05051,-0.01312,0.00107,-0.02563,-0.01938,-0.00397,0.00549,-0.03098,-0.02197,0.00839,-0.03799
2.8735,-0.00443,-0.03723,-0.03784,-0.01053,-0.03479,-0.05112,-0.01312,0.00122,-0.02853,-0.01526,-0.00381,0.00412,-0.03159,-0.02274,0.00916,-0.0383
2.874,-0.00656,-0.03784,-0.04089,-0.00961,-0.03372,-0.05081,-0.01511,0.00198,-0.02899,-0.01755,-0.00107,0.00473,-0.03342,-0.02151,0.00992,-0.03693
2.8745,-0.0087,-0.03799,-0.04639,-0.00702,-0.03281,-0.04944,-0.01694,0.00351,-0.02869,-0.02258,0.00366,0.0061,-0.03418,-0.01846,0.00931,-0.03647
2.875,-0.00931,-0.03845,-0.05203,-0.00595,-0.03311,-0.04868,-0.01831,0.00412,-0.02731,-0.02609,0.00763,0.00717,-0.03418,-0.0145,0.00977,-0.03738
2.8755,-0.00763,-0.0415,-0.05402,-0.00809,-0.03311,-0.04898,-0.0174,0.00259,-0.02533,-0.0267,0.00931,0.00671,-0.03387,-0.01465,0.00977,-0.03906
2.876,-0.00519,-0.04562,-0.05157,-0.01053,-0.03403,-0.04837,-0.01694,0.00046,-0.02441,-0.02792,0.00549,0.0061,-0.03357,-0.01709,0.00992,-0.04135
2.8765,-0.00336,-0.04852,-0.04822,-0.01083,-0.03372,-0.04608,-0.0177,-0.00214,-0.02533,-0.03067,-0.00076,0.00473,-0.03372,-0.01831,0.00916,-0.04318
2.877,-0.00198,-0.0499,-0.04486,-0.01099,-0.0325,-0.04486,-0.01907,-0.00214,-0.02625,-0.03098,-0.00778,0.00244,-0.03372,-0.01678,0.00763,-0.04456
2.8775,-0.00244,-0.05066,-0.04257,-0.01114,-0.02975,-0.04562,-0.01846,-0.00168,-0.02579,-0.02823,-0.01419,0.0,-0.03387,-0.01556,0.00702,-0.04532
2.878,-0.00259,-0.05157,-0.04105,-0.01129,-0.02716,-0.04761,-0.01785,-0.00198,-0.02304,-0.02289,-0.01862,-0.00076,-0.03296,-0.01633,0.00595,-0.04425
2.8785,-0.00214,-0.05096,-0.04074,-0.01099,-0.0264,-0.04868,-0.01999,-0.00366,-0.02014,-0.01724,-0.01801,0.0,-0.03113,-0.01755,0.0032,-0.04349
2.879,-0.00046,-0.04974,-0.04044,-0.01022,-0.02792,-0.04852,-0.02533,-0.00443,-0.01633,-0.01144,-0.01236,-0.00046,-0.03006,-0.0177,0.00015,-0.04257
2.8795,0.00061,-0.04761,-0.03815,-0.00916,-0.02838,-0.04822,-0.02853,-0.00366,-0.01221,-0.0058,-0.00504,-0.00031,-0.03021,-0.01831,0.00031,-0.04166
2.88,0.00015,-0.04593,-0.03616,-0.00778,-0.02884,-0.047,-0.0267,-0.00137,-0.00992,-0.00214,-0.00153,0.00122,-0.03174,-0.01816,0.00198,-0.04074
2.8805,-0.00137,-0.04593,-0.03357,-0.00656,-0.02899,-0.04639,-0.02151,0.00015,-0.00931,-0.00092,-0.0032,0.00351,-0.03067,-0.01877,0.0032,-0.03998
2.881,-0.00275,-0.04547,-0.03281,-0.0061,-0.03082,-0.04745,-0.01724,0.00168,-0.009,-0.00137,-0.00763,0.00488,-0.02975,-0.01785,0.00473,-0.04074
2.8815,-0.00351,-0.04486,-0.03265,-0.00717,-0.03326,-0.04715,-0.01648,0.00061,-0.00687,-0.00351,-0.00961,0.0061,-0.0293,-0.01648,0.00549,-0.04044
2.882,-0.0029,-0.04364,-0.03372,-0.00839,-0.03448,-0.04562,-0.01785,-0.00275,-0.00534,-0.00641,-0.01068,0.00671,-0.03021,-0.01678,0.00702,-0.03952
2.8825,-0.00229,-0.04242,-0.03418,-0.009,-0.03372,-0.04349,-0.01923,-0.00488,-0.00565,-0.00885,-0.01205,0.00656,-0.03143,-0.01831,0.00854,-0.0386
2.883,-0.00214,-0.04272,-0.03372,-0.01007,-0.03021,-0.04333,-0.0177,-0.00488,-0.00839,-0.01099,-0.01343,0.00519,-0.03235,-0.01892,0.00778,-0.03891
2.8835,-0.00198,-0.04303,-0.03204,-0.00977,-0.02808,-0.0444,-0.01572,-0.00336,-0.01022,-0.0116,-0.01495,0.00275,-0.03342,-0.01907,0.00717,-0.04089
2.884,-0.00122,-0.04242,-0.03128,-0.00931,-0.02869,-0.04456,-0.01495,-0.00305,-0.00977,-0.01053,-0.01617,-0.00015,-0.03372,-0.01877,0.00687,-0.04333
2.8845,-0.00092,-0.04089,-0.03189,-0.00885,-0.03036,-0.04486,-0.01617,-0.00351,-0.00854,-0.00931,-0.0177,-0.00275,-0.03281,-0.02075,0.00839,-0.04456
2.885,-0.00107,-0.03967,-0.03372,-0.01038,-0.03143,-0.04623,-0.01663,-0.0032,-0.00854,-0.009,-0.02014,-0.00397,-0.0322,-0.02274,0.00885,-0.04471
2.8855,-0.00153,-0.03952,-0.03387,-0.0119,-0.02991,-0.04807,-0.01678,-0.00473,-0.009,-0.009,-0.02075,-0.00397,-0.03265,-0.02213,0.01022,-0.04501
2.886,-0.00046,-0.03952,-0.03326,-0.01175,-0.02869,-0.05066,-0.01755,-0.00626,-0.01129,-0.00916,-0.0206,-0.00305,-0.0325,-0.02014,0.01129,-0.04379
2.8865,0.00107,-0.03906,-0.0322,-0.01221,-0.02899,-0.05112,-0.01846,-0.00748,-0.01495,-0.00992,-0.01617,-0.00198,-0.03174,-0.01953,0.0119,-0.0412
2.887,0.00275,-0.03845,-0.03189,-0.01175,-0.02914,-0.0499,-0.01755,-0.00641,-0.01907,-0.0116,-0.01328,-0.00107,-0.03098,-0.02106,0.01144,-0.04013
2.8875,0.00214,-0.0383,-0.03143,-0.01068,-0.0296,-0.04791,-0.01556,-0.00458,-0.02167,-0.01434,-0.01205,0.0,-0.03204,-0.02197,0.01022,-0.04044
2.888,-0.00122,-0.03922,-0.02899,-0.00854,-0.02975,-0.04547,-0.01373,-0.00504,-0.02151,-0.01984,-0.01221,0.00015,-0.03342,-0.0209,0.00854,-0.04105
2.8885,-0.00534,-0.03952,-0.02594,-0.00824,-0.03067,-0.0444,-0.01373,-0.0058,-0.02075,-0.0296,-0.01419,0.00015,-0.03448,-0.01907,0.0087,-0.04135
2.889,-0.00778,-0.03952,-0.02335,-0.01053,-0.03143,-0.04532,-0.01434,-0.00641,-0.01923,-0.04272,-0.01541,0.00015,-0.03403,-0.01862,0.00961,-0.04181
2.8895,-0.00992,-0.04044,-0.01968,-0.01358,-0.03113,-0.04684,-0.01404,-0.0058,-0.01694,-0.05646,-0.01572,0.00153,-0.03357,-0.01968,0.01129,-0.04379
2.89,-0.01419,-0.0415,-0.01266,-0.01404,-0.02975,-0.04684,-0.0119,-0.00565,-0.01144,-0.06241,-0.01389,0.00275,-0.03357,-0.01984,0.01099,-0.04532
2.8905,-0.01862,-0.04105,-0.00443,-0.01266,-0.02899,-0.04593,-0.00992,-0.00519,-0.00763,-0.05844,-0.01236,0.00244,-0.03342,-0.01846,0.00961,-0.04623
2.891,-0.0209,-0.04074,-0.00015,-0.01053,-0.02899,-0.04486,-0.01053,-0.00351,-0.00702,-0.0444,-0.01266,-0.00015,-0.03342,-0.01785,0.00961,-0.04532
2.8915,-0.01923,-0.03998,-0.00153,-0.00931,-0.02823,-0.04501,-0.0148,-0.0029,-0.00916,-0.02823,-0.01328,-0.00076,-0.03433,-0.01801,0.00961,-0.04395
2.892,-0.01633,-0.04013,-0.00854,-0.00824,-0.02716,-0.04532,-0.02335,-0.00366,-0.01083,-0.01434,-0.01144,-0.00092,-0.03433,-0.01877,0.00931,-0.04227
2.8925,-0.01434,-0.04059,-0.01511,-0.00793,-0.02686,-0.04623,-0.03143,-0.00549,-0.0116,-0.00702,-0.0087,-0.00107,-0.03494,-0.01907,0.00778,-0.04105
2.893,-0.01465,-0.04028,-0.01938,-0.00793,-0.02808,-0.04623,-0.03174,-0.00641,-0.01297,-0.00412,-0.00961,-0.00153,-0.03448,-0.01938,0.00626,-0.04089
2.8935,-0.01511,-0.04089,-0.0238,-0.00961,-0.03052,-0.04745,-0.0235,-0.0058,-0.01404,-0.00336,-0.01465,-0.00153,-0.03403,-0.01907,0.00565,-0.04074
2.894,-0.01266,-0.03967,-0.03052,-0.01099,-0.03265,-0.04791,-0.01434,-0.00504,-0.01358,-0.00183,-0.02045,-0.00244,-0.03128,-0.01923,0.00687,-0.0415
2.8945,-0.00732,-0.03754,-0.04044,-0.01114,-0.03281,-0.04791,-0.00824,-0.00412,-0.01282,-0.00153,-0.0238,-0.00259,-0.0293,-0.01984,0.00717,-0.0412
2.895,0.00137,-0.03448,-0.05005,-0.01022,-0.03113,-0.04837,-0.00488,-0.00458,-0.01404,-0.00061,-0.02319,-0.00397,-0.02884,-0.02106,0.00656,-0.04059
2.8955,0.01099,-0.03357,-0.05737,-0.00916,-0.03174,-0.04852,-0.00183,-0.00488,-0.01648,-0.00015,-0.01938,-0.00504,-0.03098,-0.02228,0.00519,-0.0383
2.896,0.01694,-0.03326,-0.06012,-0.00885,-0.03235,-0.04807,-0.00015,-0.00488,-0.01953,0.00046,-0.01175,-0.00336,-0.03159,-0.02243,0.00427,-0.03708
2.8965,0.01846,-0.03311,-0.05966,-0.00763,-0.0325,-0.04761,-0.00214,-0.00412,-0.02045,0.00061,-0.00534,-0.00092,-0.03052,-0.02319,0.0061,-0.03784
2.897,0.01785,-0.03311,-0.05875,-0.00671,-0.03159,-0.04715,-0.00687,-0.00183,-0.01984,-0.00229,-0.00305,-0.00061,-0.03113,-0.02335,0.00702,-0.03983
2.8975,0.01709,-0.03387,-0.05936,-0.00656,-0.03113,-0.04669,-0.0119,0.0,-0.01907,-0.00717,-0.0029,-0.00183,-0.0325,-0.02289,0.00793,-0.04028
2.898,0.0145,-0.0351,-0.05997,-0.00748,-0.03204,-0.04639,-0.0145,0.00153,-0.01785,-0.01175,-0.00244,-0.00244,-0.03357,-0.02274,0.00702,-0.04044
2.8985,0.00641,-0.03555,-0.06165,-0.01007,-0.0322,-0.04745,-0.01389,0.00015,-0.01663,-0.01358,-0.00137,-0.00046,-0.03403,-0.0235,0.00549,-0.0415
2.899,-0.00443,-0.03616,-0.06348,-0.01099,-0.03189,-0.05005,-0.01129,-0.00153,-0.01648,-0.01419,-0.00214,0.00107,-0.03448,-0.0235,0.00565,-0.04318
2.8995,-0.01404,-0.03723,-0.06363,-0.00931,-0.03006,-0.05356,-0.01129,-0.00183,-0.01663,-0.01343,-0.00809,-0.00031,-0.03494,-0.02258,0.00656,-0.04425
2.9,-0.01999,-0.04013,-0.05997,-0.00763,-0.03113,-0.05371,-0.01282,-0.00168,-0.01648,-0.01495,-0.01587,-0.00214,-0.03433,-0.02197,0.00839,-0.0415
2.9005,-0.02304,-0.04364,-0.05646,-0.00748,-0.03128,-0.0528,-0.01511,-0.00412,-0.01495,-0.0177,-0.02289,-0.00397,-0.03448,-0.02106,0.00931,-0.03845
2.901,-0.02472,-0.04669,-0.05234,-0.00854,-0.03082,-0.05127,-0.01755,-0.00809,-0.01282,-0.01953,-0.02548,-0.00366,-0.03464,-0.02075,0.00931,-0.03708
2.9015,-0.0238,-0.0502,-0.04684,-0.00961,-0.03006,-0.05005,-0.01831,-0.01022,-0.01297,-0.01984,-0.02487,-0.00336,-0.03326,-0.01968,0.00748,-0.03784
2.902,-0.02106,-0.05157,-0.04272,-0.00916,-0.02945,-0.04883,-0.01678,-0.00809,-0.01465,-0.01816,-0.02396,-0.0032,-0.0325,-0.01846,0.00748,-0.03967
2.9025,-0.01648,-0.0528,-0.03616,-0.0087,-0.02914,-0.04761,-0.0148,-0.00473,-0.01816,-0.0174,-0.02655,-0.0029,-0.03372,-0.01938,0.00824,-0.04272
2.903,-0.00961,-0.05188,-0.03113,-0.00854,-0.02884,-0.04822,-0.01343,-0.00214,-0.02014,-0.01984,-0.0296,-0.00183,-0.03418,-0.0209,0.00824,-0.04639
2.9035,-0.0029,-0.05219,-0.02914,-0.00931,-0.02884,-0.04974,-0.01343,-0.00046,-0.01999,-0.02121,-0.03098,-0.00076,-0.03311,-0.02197,0.00748,-0.04883
2.904,0.00015,-0.05356,-0.02975,-0.01038,-0.02914,-0.05081,-0.01434,-0.00107,-0.01541,-0.02136,-0.02914,-0.00107,-0.03174,-0.02151,0.00641,-0.04929
2.9045,0.0,-0.05463,-0.03204,-0.0119,-0.03036,-0.05112,-0.01541,-0.00534,-0.01114,-0.02075,-0.02609,-0.00168,-0.03189,-0.02014,0.00626,-0.04822
2.905,-0.00183,-0.05447,-0.03326,-0.0119,-0.03296,-0.0502,-0.01831,-0.01114,-0.01007,-0.02151,-0.0238,-0.00107,-0.03235,-0.0177,0.00793,-0.047
2.9055,-0.00443,-0.05386,-0.03464,-0.01099,-0.0351,-0.04898,-0.02167,-0.01175,-0.01144,-0.02228,-0.0235,-0.00061,-0.03128,-0.01678,0.00946,-0.04517
2.906,-0.00641,-0.05249,-0.03403,-0.00916,-0.03448,-0.04761,-0.02274,-0.00671,-0.01404,-0.02304,-0.02625,0.00107,-0.02899,-0.01587,0.00977,-0.04318
2.9065,-0.00626,-0.05005,-0.03342,-0.00732,-0.03372,-0.04822,-0.02289,-0.00137,-0.01541,-0.0235,-0.02823,0.00259,-0.02899,-0.0145,0.00961,-0.04242
2.907,-0.00488,-0.0473,-0.03433,-0.00854,-0.03296,-0.04822,-0.0235,-0.00046,-0.01587,-0.02228,-0.02426,0.00336,-0.03098,-0.01419,0.00931,-0.04303
2.9075,-0.00275,-0.04578,-0.03601,-0.01175,-0.03281,-0.04791,-0.0238,-0.00229,-0.01633,-0.02151,-0.02167,0.00229,-0.03311,-0.01389,0.00977,-0.04318
2.908,-0.00122,-0.04456,-0.03708,-0.01373,-0.0325,-0.04684,-0.02289,-0.00366,-0.01678,-0.01862,-0.02197,0.00092,-0.03326,-0.01404,0.00977,-0.04272
2.9085,-0.00031,-0.04395,-0.03693,-0.01328,-0.0325,-0.04639,-0.01984,-0.00305,-0.01556,-0.01495,-0.02655,0.0,-0.03204,-0.01434,0.01007,-0.04166
2.909,-0.00046,-0.04242,-0.03296,-0.01251,-0.03326,-0.04608,-0.01556,-0.00244,-0.0116,-0.01312,-0.03098,-0.00031,-0.03113,-0.01526,0.01022,-0.03983
2.9095,-0.00076,-0.04028,-0.02853,-0.01282,-0.03265,-0.04654,-0.00992,-0.0032,-0.00702,-0.01205,-0.03494,0.0,-0.0322,-0.01663,0.01114,-0.03769
2.91,0.00015,-0.03845,-0.02625,-0.0119,-0.03204,-0.04532,-0.00839,-0.0029,-0.00504,-0.01236,-0.03906,0.00107,-0.03357,-0.01724,0.0116,-0.03647
2.9105,0.00015,-0.03693,-0.02563,-0.01038,-0.03189,-0.04318,-0.01343,-0.00107,-0.00458,-0.01358,-0.04593,0.00214,-0.03403,-0.01709,0.01083,-0.03754
2.911,0.0,-0.03677,-0.02533,-0.01129,-0.03143,-0.04196,-0.01999,0.00137,-0.00443,-0.01556,-0.0531,0.00336,-0.03326,-0.0174,0.01236,-0.03891
2.9115,0.00015,-0.03769,-0.0235,-0.01358,-0.03189,-0.04379,-0.02213,0.00259,-0.00351,-0.0174,-0.05585,0.00443,-0.03265,-0.01785,0.01251,-0.0383
2.912,0.00076,-0.03738,-0.02274,-0.01404,-0.03342,-0.04608,-0.01968,0.00275,-0.00473,-0.01877,-0.04929,0.00641,-0.03204,-0.01816,0.01297,-0.03769
2.9125,-0.00137,-0.03708,-0.02411,-0.01358,-0.03387,-0.04608,-0.01633,0.0032,-0.00778,-0.02106,-0.03281,0.00656,-0.03189,-0.01755,0.0119,-0.0386
2.913,-0.00443,-0.03754,-0.02792,-0.01114,-0.03479,-0.04562,-0.01633,0.00336,-0.01114,-0.02258,-0.00671,0.00565,-0.03235,-0.01785,0.01083,-0.04044
2.9135,-0.00595,-0.03922,-0.03204,-0.00946,-0.03342,-0.04517,-0.01801,0.00183,-0.01297,-0.02319,0.02274,0.00473,-0.03265,-0.01953,0.01114,-0.04166
2.914,-0.0058,-0.04013,-0.03387,-0.00809,-0.03403,-0.04562,-0.01892,-0.00168,-0.01343,-0.0264,0.04913,0.00397,-0.03281,-0.02014,0.01099,-0.04059
2.9145,-0.00519,-0.03891,-0.03265,-0.00778,-0.03387,-0.04593,-0.01724,-0.00366,-0.01404,-0.02975,0.06393,0.00305,-0.03113,-0.01984,0.00931,-0.03922
2.915,-0.00443,-0.03708,-0.02869,-0.00824,-0.03403,-0.04593,-0.01572,-0.00351,-0.01602,-0.03326,0.06561,0.00275,-0.03006,-0.01938,0.00793,-0.03784
2.9155,-0.00305,-0.03784,-0.02609,-0.00992,-0.03357,-0.04639,-0.01373,-0.0029,-0.01801,-0.03494,0.05844,0.00305,-0.03021,-0.01862,0.00732,-0.03769
2.916,-0.00122,-0.03891,-0.02594,-0.01175,-0.03418,-0.0473,-0.01343,-0.0029,-0.01953,-0.03387,0.04669,0.00443,-0.03113,-0.01709,0.00717,-0.03891
2.9165,0.0,-0.03937,-0.02731,-0.0119,-0.03464,-0.04776,-0.01572,-0.00259,-0.01999,-0.03113,0.03479,0.00458,-0.0322,-0.01511,0.00778,-0.04044
2.917,-0.00107,-0.0383,-0.02747,-0.0116,-0.03403,-0.04623,-0.01892,0.00031,-0.02106,-0.02884,0.02548,0.00381,-0.03159,-0.0145,0.0087,-0.04105
2.9175,-0.0032,-0.0383,-0.02731,-0.00992,-0.03296,-0.04532,-0.0206,0.00397,-0.02243,-0.02762,0.01434,0.00229,-0.03204,-0.01587,0.00885,-0.04028
2.918,-0.00427,-0.03906,-0.02762,-0.00778,-0.03204,-0.04578,-0.01968,0.00626,-0.02319,-0.02899,0.0,0.00244,-0.03296,-0.0177,0.009,-0.04013
2.9185,-0.00488,-0.03922,-0.02975,-0.00702,-0.03189,-0.04837,-0.01587,0.0061,-0.02274,-0.02838,-0.01663,0.00275,-0.03403,-0.01785,0.00839,-0.04105
2.919,-0.00412,-0.03876,-0.03143,-0.00839,-0.03098,-0.04959,-0.01221,0.00458,-0.02121,-0.02472,-0.03067,0.00214,-0.0351,-0.0174,0.00824,-0.0415
2.9195,-0.00473,-0.03815,-0.03113,-0.01053,-0.03174,-0.04822,-0.00854,0.00351,-0.01892,-0.02213,-0.03922,0.00031,-0.03586,-0.01709,0.009,-0.04196
2.92,-0.00473,-0.03754,-0.02899,-0.01022,-0.03082,-0.04608,-0.00656,0.00305,-0.0174,-0.01999,-0.04318,0.00046,-0.03494,-0.01572,0.00931,-0.04242
2.9205,-0.00534,-0.03632,-0.02884,-0.009,-0.02975,-0.0441,-0.00778,0.00061,-0.01572,-0.01862,-0.04868,0.00198,-0.03342,-0.01587,0.009,-0.0412
2.921,-0.00626,-0.0354,-0.02808,-0.0087,-0.02899,-0.04318,-0.01099,-0.00336,-0.01495,-0.01816,-0.05646,0.00229,-0.03128,-0.01862,0.00793,-0.04059
2.9215,-0.00916,-0.03479,-0.02731,-0.01053,-0.02899,-0.04364,-0.01343,-0.00595,-0.01511,-0.01953,-0.06409,0.00076,-0.03052,-0.02274,0.01007,-0.04105
2.922,-0.01175,-0.03662,-0.02502,-0.01221,-0.02899,-0.04578,-0.01526,-0.0058,-0.01694,-0.01923,-0.06577,-0.00046,-0.03174,-0.02411,0.01083,-0.04196
2.9225,-0.01205,-0.0383,-0.02487,-0.01328,-0.0296,-0.04883,-0.02289,-0.00473,-0.01877,-0.01862,-0.05859,-0.00015,-0.03357,-0.02197,0.00946,-0.04242
2.923,-0.00931,-0.03891,-0.02487,-0.01358,-0.0296,-0.05096,-0.0386,-0.00381,-0.01785,-0.01556,-0.04517,0.0,-0.03357,-0.01938,0.01007,-0.04227
2.9235,-0.00656,-0.03891,-0.02579,-0.01297,-0.02975,-0.05035,-0.05768,-0.00336,-0.01602,-0.01404,-0.02762,0.00076,-0.03204,-0.01877,0.01022,-0.04257
2.924,-0.00519,-0.03876,-0.02808,-0.01083,-0.0293,-0.04898,-0.07339,-0.00275,-0.01404,-0.01556,-0.00763,0.00122,-0.03174,-0.01968,0.01053,-0.04364
2.9245,-0.00549,-0.03937,-0.03052,-0.00931,-0.02991,-0.04852,-0.08255,-0.00183,-0.01251,-0.01831,0.01099,0.00092,-0.03265,-0.01999,0.00961,-0.04395
2.925,-0.00504,-0.03937,-0.03189,-0.009,-0.03021,-0.04913,-0.08011,-0.00275,-0.01144,-0.02045,0.02609,0.00107,-0.03342,-0.01968,0.00732,-0.04272
2.9255,-0.00488,-0.0383,-0.03036,-0.009,-0.03021,-0.04807,-0.0589,-0.00443,-0.01236,-0.0206,0.03906,0.00061,-0.03342,-0.01877,0.00565,-0.04105
2.926,-0.00458,-0.03677,-0.03006,-0.00916,-0.03082,-0.04745,-0.03464,-0.00595,-0.01343,-0.01999,0.05005,0.00153,-0.03342,-0.01831,0.00595,-0.03998
2.9265,-0.00458,-0.03571,-0.03265,-0.00916,-0.03235,-0.04761,-0.03174,-0.00595,-0.01526,-0.01801,0.0563,0.0032,-0.03418,-0.01892,0.00748,-0.03922
2.927,-0.00443,-0.03677,-0.0351,-0.00946,-0.03265,-0.04822,-0.047,-0.00366,-0.01648,-0.01663,0.05676,0.00458,-0.03433,-0.01938,0.00885,-0.03952
2.9275,-0.00473,-0.04044,-0.03662,-0.01022,-0.03098,-0.04837,-0.04913,-0.0029,-0.01724,-0.01602,0.04944,0.00534,-0.03387,-0.01923,0.0087,-0.04013
2.928,-0.00305,-0.04349,-0.03769,-0.01053,-0.03082,-0.04761,-0.02029,-0.0029,-0.01968,-0.01572,0.03632,0.00412,-0.03372,-0.01892,0.0087,-0.04044
2.9285,-0.00061,-0.04364,-0.03754,-0.01038,-0.03174,-0.04745,0.02136,-0.00275,-0.02228,-0.01831,0.01526,0.00198,-0.0325,-0.01694,0.01221,-0.03952
2.929,0.00076,-0.04242,-0.03754,-0.00992,-0.03265,-0.0473,0.04715,-0.00305,-0.02457,-0.01938,-0.01144,0.00015,-0.03128,-0.01572,0.0145,-0.03922
2.9295,0.00031,-0.04059,-0.03632,-0.00977,-0.03326,-0.04669,0.05035,-0.00443,-0.02441,-0.02121,-0.03555,-0.00107,-0.02899,-0.01495,0.00717,-0.03906
2.93,-0.00198,-0.03937,-0.03815,-0.01007,-0.03204,-0.04578,0.04822,-0.0061,-0.02167,-0.02289,-0.04807,-0.00153,-0.02792,-0.01572,-0.00916,-0.03845
2.9305,-0.00473,-0.03937,-0.03876,-0.01068,-0.0296,-0.04379,0.05524,-0.00824,-0.01923,-0.02411,-0.05173,-0.00092,-0.0293,-0.01663,-0.02747,-0.03738
2.931,-0.0061,-0.04028,-0.03799,-0.01068,-0.02853,-0.04532,0.06332,-0.00931,-0.0174,-0.0238,-0.05524,-0.00107,-0.03159,-0.01602,-0.0322,-0.03754
2.9315,-0.00671,-0.04089,-0.03738,-0.00977,-0.03036,-0.04593,0.06012,-0.01144,-0.01572,-0.02228,-0.06271,-0.00031,-0.03372,-0.01587,-0.02243,-0.03922
2.932,-0.00656,-0.0412,-0.0383,-0.00809,-0.03174,-0.04639,0.03433,-0.01343,-0.01419,-0.02182,-0.06958,-0.00031,-0.03357,-0.01678,-0.00595,-0.04135
2.9325,-0.00702,-0.0412,-0.03967,-0.00824,-0.03357,-0.04517,-0.01007,-0.01373,-0.01328,-0.02228,-0.06851,-0.00107,-0.03342,-0.01862,0.0116,-0.04333
2.933,-0.00778,-0.04196,-0.04089,-0.009,-0.03448,-0.04379,-0.05371,-0.00916,-0.01526,-0.02533,-0.05386,-0.00229,-0.03387,-0.02075,0.02457,-0.04379
2.9335,-0.00595,-0.04303,-0.04105,-0.01022,-0.03403,-0.04318,-0.07156,-0.00244,-0.01602,-0.02731,-0.02731,-0.00305,-0.0351,-0.02075,0.0354,-0.04379
2.934,-0.00381,-0.04425,-0.04044,-0.01022,-0.03296,-0.04456,-0.05569,0.00229,-0.01633,-0.02899,0.00549,-0.00412,-0.03632,-0.01968,0.0415,-0.04395
2.9345,-0.00183,-0.04517,-0.03937,-0.01038,-0.03464,-0.04654,-0.02243,0.00458,-0.01663,-0.02762,0.03311,-0.00381,-0.03754,-0.01755,0.04166,-0.0441
2.935,-0.00214,-0.04623,-0.03784,-0.01038,-0.03525,-0.0473,0.00977,0.00656,-0.01663,-0.0238,0.04593,-0.00336,-0.03723,-0.01556,0.03586,-0.04364
2.9355,-0.00351,-0.04578,-0.03708,-0.01144,-0.03525,-0.0473,0.03265,0.00809,-0.01678,-0.01984,0.04242,-0.00153,-0.03586,-0.0145,0.02594,-0.04211
2.936,-0.00519,-0.04501,-0.03525,-0.01129,-0.03479,-0.04654,0.04608,0.00793,-0.01678,-0.01724,0.03311,0.00137,-0.03296,-0.01648,0.01862,-0.0386
2.9365,-0.00748,-0.04456,-0.03235,-0.01038,-0.03372,-0.04745,0.05051,0.00549,-0.01724,-0.01724,0.02441,0.0032,-0.03082,-0.01724,0.01678,-0.03586
2.937,-0.00961,-0.04395,-0.02945,-0.00946,-0.03357,-0.04852,0.05051,0.00092,-0.01663,-0.01724,0.01694,0.00381,-0.03036,-0.0174,0.01663,-0.03616
2.9375,-0.01068,-0.0412,-0.02853,-0.00977,-0.03372,-0.04868,0.04837,-0.00443,-0.01587,-0.01785,0.00656,0.0032,-0.03204,-0.01663,0.01404,-0.03983
2.938,-0.00916,-0.03983,-0.02945,-0.01038,-0.03296,-0.04776,0.04272,-0.01373,-0.0148,-0.01907,-0.00595,0.00198,-0.03357,-0.01831,0.00839,-0.04456
2.9385,-0.00763,-0.04074,-0.03036,-0.01144,-0.03296,-0.04684,0.02777,-0.02457,-0.01511,-0.02029,-0.01434,0.00076,-0.03448,-0.02045,0.00534,-0.04883
2.939,-0.00641,-0.0415,-0.0322,-0.0119,-0.03342,-0.04745,0.00687,-0.03189,-0.01602,-0.02106,-0.01694,0.00046,-0.03433,-0.02243,0.00473,-0.0531
2.9395,-0.00504,-0.0412,-0.0351,-0.01175,-0.03479,-0.04715,-0.00916,-0.0296,-0.01541,-0.02106,-0.0174,0.0,-0.03342,-0.02258,0.00671,-0.05569
2.94,-0.00259,-0.03998,-0.03769,-0.01083,-0.03448,-0.04623,-0.01144,-0.0209,-0.01373,-0.02014,-0.01923,0.00061,-0.0325,-0.0206,0.009,-0.05325
2.9405,-0.00046,-0.04028,-0.0412,-0.01083,-0.03326,-0.04593,-0.00687,-0.01343,-0.01282,-0.01846,-0.02197,0.00092,-0.03159,-0.01923,0.00931,-0.04608
2.941,0.00168,-0.04074,-0.04166,-0.01022,-0.03036,-0.04623,-0.00458,-0.00977,-0.01328,-0.01785,-0.02228,0.00183,-0.03098,-0.01968,0.00763,-0.03891
2.9415,0.00244,-0.04059,-0.04135,-0.00931,-0.02975,-0.0473,-0.00824,-0.00732,-0.01465,-0.01572,-0.02167,0.00122,-0.0293,-0.0206,0.00595,-0.03647
2.942,0.00229,-0.04044,-0.03845,-0.00885,-0.03098,-0.04837,-0.01221,-0.00473,-0.0148,-0.01297,-0.02228,-0.00046,-0.02869,-0.0209,0.00473,-0.03815
2.9425,0.00214,-0.0412,-0.03479,-0.00854,-0.03372,-0.0473,-0.01556,-0.00168,-0.01434,-0.0116,-0.02289,-0.00137,-0.02914,-0.01938,0.00427,-0.03922
2.943,0.00198,-0.04166,-0.03113,-0.00961,-0.0383,-0.04578,-0.01816,-0.00107,-0.01358,-0.01251,-0.02167,0.00092,-0.02869,-0.01846,0.00366,-0.03952
2.9435,0.00107,-0.04028,-0.03052,-0.01129,-0.0473,-0.04654,-0.02167,-0.00259,-0.01358,-0.01419,-0.02014,0.00244,-0.0293,-0.01862,0.00275,-0.0383
2.944,-0.00015,-0.0383,-0.03036,-0.01221,-0.05753,-0.04913,-0.02609,-0.00397,-0.01373,-0.01297,-0.02136,0.00153,-0.0296,-0.01862,0.00137,-0.03876
2.9445,-0.00046,-0.03754,-0.03021,-0.01038,-0.0592,-0.05188,-0.02869,-0.00381,-0.0145,-0.01175,-0.02258,-0.00183,-0.03159,-0.01785,0.00076,-0.04013
2.945,-0.00168,-0.03906,-0.02899,-0.00839,-0.05035,-0.05249,-0.02853,-0.0029,-0.01633,-0.0119,-0.02319,-0.00488,-0.03235,-0.01755,0.00122,-0.04272
2.9455,-0.00229,-0.03906,-0.02975,-0.00687,-0.03571,-0.0528,-0.0267,-0.00214,-0.01801,-0.01266,-0.02411,-0.00671,-0.03311,-0.01846,0.0032,-0.04456
2.946,-0.00412,-0.03464,-0.03036,-0.00809,-0.02579,-0.0528,-0.0267,-0.00153,-0.01755,-0.01373,-0.02716,-0.00732,-0.03418,-0.02106,0.00504,-0.04379
2.9465,-0.00549,-0.02655,-0.03021,-0.00931,-0.0206,-0.05295,-0.02991,-0.00198,-0.01495,-0.01373,-0.03021,-0.0058,-0.03464,-0.02213,0.00549,-0.04196
2.947,-0.00626,-0.0206,-0.03143,-0.01007,-0.01663,-0.05096,-0.03159,-0.00504,-0.0119,-0.01221,-0.02945,-0.00381,-0.03433,-0.02197,0.00427,-0.04089
2.9475,-0.00626,-0.02213,-0.03525,-0.00916,-0.0145,-0.04913,-0.03143,-0.0061,-0.00992,-0.0119,-0.02762,-0.00107,-0.03387,-0.02167,0.00351,-0.0415
2.948,-0.0058,-0.02914,-0.04135,-0.00824,-0.01343,-0.04913,-0.03082,-0.00366,-0.00946,-0.01434,-0.02579,0.00092,-0.03448,-0.02213,0.00366,-0.04318
2.9485,-0.00488,-0.03723,-0.0444,-0.00793,-0.01617,-0.04929,-0.03296,-0.00046,-0.01007,-0.01617,-0.02487,0.00168,-0.03662,-0.02228,0.00381,-0.04379
2.949,-0.00305,-0.04318,-0.04333,-0.00839,-0.02151,-0.04913,-0.0354,-0.00061,-0.01114,-0.01541,-0.02319,0.00244,-0.03845,-0.0209,0.00488,-0.04349
2.9495,-0.00107,-0.0444,-0.03998,-0.00763,-0.02716,-0.04791,-0.03418,-0.00259,-0.01221,-0.01282,-0.02167,0.00351,-0.03906,-0.01831,0.00671,-0.0415
2.95,0.00031,-0.04272,-0.03632,-0.00687,-0.0296,-0.04745,-0.03036,-0.00275,-0.0116,-0.01221,-0.01968,0.00381,-0.0383,-0.01648,0.00946,-0.03906
2.9505,-0.00046,-0.04089,-0.0351,-0.0061,-0.03067,-0.04761,-0.02686,-0.00153,-0.01129,-0.01419,-0.01633,0.00443,-0.03738,-0.01648,0.01007,-0.0383
2.951,-0.00107,-0.04211,-0.03311,-0.00656,-0.03128,-0.0473,-0.02518,-0.00137,-0.01266,-0.0174,-0.01114,0.00427,-0.03708,-0.0174,0.00992,-0.03891
2.9515,-0.00076,-0.04517,-0.03036,-0.00732,-0.0322,-0.04745,-0.02396,-0.00366,-0.01419,-0.02182,-0.00809,0.00366,-0.03662,-0.01816,0.00931,-0.0412
2.952,-0.00107,-0.047,-0.02823,-0.00839,-0.03128,-0.04913,-0.02502,-0.00427,-0.01465,-0.02579,-0.009,0.00214,-0.0351,-0.01724,0.00854,-0.04349
2.9525,-0.00397,-0.04486,-0.02899,-0.00961,-0.02991,-0.04852,-0.02838,-0.00305,-0.01282,-0.02869,-0.01236,0.00183,-0.03326,-0.01526,0.00763,-0.04517
2.953,-0.009,-0.03998,-0.03006,-0.00946,-0.0293,-0.04745,-0.03433,-0.00305,-0.01328,-0.02945,-0.01541,0.00198,-0.03067,-0.01236,0.00732,-0.047
2.9535,-0.01434,-0.03525,-0.03098,-0.0087,-0.02899,-0.04501,-0.03922,-0.00473,-0.01511,-0.02625,-0.01389,0.0032,-0.0296,-0.01099,0.00763,-0.04608
2.954,-0.01709,-0.03403,-0.03159,-0.00854,-0.02991,-0.04486,-0.04013,-0.0061,-0.01694,-0.02136,-0.01266,0.00488,-0.02884,-0.0119,0.00916,-0.04547
2.9545,-0.01663,-0.03677,-0.03067,-0.01068,-0.02914,-0.04532,-0.03571,-0.0058,-0.01678,-0.01755,-0.01205,0.00641,-0.02716,-0.01343,0.01007,-0.04501
2.955,-0.01663,-0.04044,-0.03006,-0.01312,-0.02823,-0.04715,-0.02625,-0.00244,-0.0145,-0.01755,-0.01389,0.00748,-0.02625,-0.0148,0.01053,-0.04639
2.9555,-0.01862,-0.04349,-0.02869,-0.01373,-0.02899,-0.04868,-0.01648,-0.00046,-0.0148,-0.02075,-0.01663,0.0061,-0.02777,-0.01602,0.00977,-0.04868
2.956,-0.02106,-0.04501,-0.02792,-0.01282,-0.0293,-0.04807,-0.00824,-0.00122,-0.01678,-0.02533,-0.02151,0.00336,-0.03159,-0.01816,0.00916,-0.04898
2.9565,-0.02228,-0.04669,-0.02792,-0.01328,-0.03143,-0.04745,-0.00473,-0.00366,-0.01801,-0.02426,-0.02701,0.00122,-0.03418,-0.01892,0.0087,-0.04684
2.957,-0.01999,-0.04974,-0.03021,-0.01404,-0.03281,-0.04807,-0.00595,-0.0061,-0.01709,-0.02136,-0.03143,0.00031,-0.03357,-0.01862,0.009,-0.04471
2.9575,-0.01511,-0.05417,-0.03479,-0.01358,-0.03189,-0.04837,-0.01068,-0.0058,-0.01465,-0.01938,-0.03189,-0.00107,-0.03174,-0.0177,0.00961,-0.0441
2.958,-0.01022,-0.05814,-0.03967,-0.01038,-0.03159,-0.04898,-0.01495,-0.00305,-0.0119,-0.01984,-0.02945,-0.00137,-0.03143,-0.01755,0.01022,-0.04471
2.9585,-0.00778,-0.05814,-0.04181,-0.00885,-0.03098,-0.04944,-0.01724,-0.00046,-0.009,-0.01968,-0.02563,-0.00198,-0.03189,-0.01663,0.00992,-0.04562
2.959,-0.00671,-0.05524,-0.0415,-0.00839,-0.03082,-0.0499,-0.01694,0.0,-0.00748,-0.0174,-0.02731,-0.00336,-0.03204,-0.01541,0.00824,-0.04578
2.9595,-0.0061,-0.0531,-0.0386,-0.00916,-0.03098,-0.04944,-0.01587,-0.00076,-0.009,-0.01312,-0.03128,-0.00473,-0.03128,-0.01495,0.00687,-0.04547
2.96,-0.0032,-0.05188,-0.03586,-0.00977,-0.02899,-0.04684,-0.0148,-0.00107,-0.01114,-0.009,-0.03235,-0.00488,-0.03036,-0.01602,0.00732,-0.04303
2.9605,0.0,-0.0531,-0.0325,-0.01068,-0.02716,-0.0441,-0.01541,-0.00061,-0.0119,-0.0061,-0.02838,-0.0029,-0.03067,-0.01938,0.00839,-0.03967
2.961,0.00305,-0.05447,-0.03082,-0.01099,-0.02701,-0.04318,-0.01678,-0.00137,-0.0119,-0.00458,-0.02274,-0.00183,-0.03128,-0.02182,0.00977,-0.03876
2.9615,0.00427,-0.05447,-0.02655,-0.01022,-0.02838,-0.04471,-0.01587,-0.00336,-0.01251,-0.00488,-0.01907,-0.00168,-0.02991,-0.02136,0.01099,-0.03845
2.962,0.00168,-0.05203,-0.01907,-0.01022,-0.03052,-0.04608,-0.01511,-0.0061,-0.0145,-0.00626,-0.01801,-0.00351,-0.02899,-0.02045,0.01114,-0.0386
2.9625,-0.00259,-0.04837,-0.01144,-0.01114,-0.0322,-0.047,-0.01678,-0.00671,-0.01648,-0.00717,-0.0174,-0.00336,-0.02884,-0.02151,0.00931,-0.03754
2.963,-0.00412,-0.04486,-0.00748,-0.0116,-0.03357,-0.04639,-0.01999,-0.00687,-0.01816,-0.00687,-0.01648,-0.00153,-0.03036,-0.0238,0.00732,-0.03632
2.9635,-0.00229,-0.0415,-0.00885,-0.01114,-0.03372,-0.04593,-0.02228,-0.00702,-0.01953,-0.00763,-0.01343,-0.00076,-0.0322,-0.02487,0.00778,-0.03677
2.964,-0.00061,-0.03983,-0.01465,-0.01068,-0.03479,-0.04501,-0.02197,-0.00763,-0.01953,-0.01099,-0.0116,-0.00137,-0.0325,-0.02457,0.01007,-0.03784
2.9645,-0.00076,-0.03845,-0.02304,-0.01022,-0.0351,-0.04379,-0.0206,-0.00641,-0.01923,-0.01526,-0.01114,-0.00214,-0.03357,-0.02304,0.00977,-0.03922
2.965,-0.0032,-0.03845,-0.03036,-0.01022,-0.03525,-0.0441,-0.01877,-0.00046,-0.0177,-0.01816,-0.01266,-0.00168,-0.03418,-0.02213,0.00778,-0.03952
2.9655,-0.00534,-0.03998,-0.03891,-0.00977,-0.03433,-0.04517,-0.01663,0.00519,-0.01678,-0.02014,-0.01694,-0.00092,-0.03357,-0.02121,0.00656,-0.0386
2.966,-0.00748,-0.04257,-0.04852,-0.00916,-0.03418,-0.04684,-0.01495,0.00626,-0.0148,-0.02319,-0.02213,-0.00061,-0.03372,-0.02151,0.00839,-0.0383
2.9665,-0.00885,-0.04379,-0.05905,-0.00946,-0.03448,-0.04852,-0.01419,0.0029,-0.01114,-0.02518,-0.02411,0.00076,-0.03418,-0.02182,0.00946,-0.03891
2.967,-0.00839,-0.04257,-0.06622,-0.01007,-0.0351,-0.04944,-0.0145,-0.00122,-0.00885,-0.02609,-0.01892,0.00168,-0.03342,-0.02045,0.00977,-0.0412
2.9675,-0.0058,-0.04028,-0.06653,-0.00961,-0.03433,-0.04898,-0.01373,-0.0029,-0.00839,-0.02548,-0.01068,0.00183,-0.03464,-0.01831,0.00931,-0.04227
2.968,-0.00229,-0.03922,-0.06195,-0.00885,-0.03387,-0.04807,-0.01221,-0.0029,-0.01114,-0.0235,-0.00259,0.00076,-0.03525,-0.01678,0.01007,-0.04211
2.9685,0.00153,-0.04013,-0.05676,-0.00717,-0.0322,-0.04684,-0.01053,-0.00244,-0.01236,-0.02151,0.00046,-0.00244,-0.03616,-0.0174,0.00946,-0.04181
2.969,0.00427,-0.03983,-0.05264,-0.00717,-0.0296,-0.04578,-0.00992,-0.00198,-0.01266,-0.01755,0.00046,-0.00488,-0.03464,-0.01907,0.00931,-0.04074
2.9695,0.00519,-0.03784,-0.04822,-0.00778,-0.02731,-0.04562,-0.00961,-0.00092,-0.01205,-0.01465,0.00031,-0.00443,-0.03387,-0.01862,0.00885,-0.03906
2.97,0.00381,-0.03601,-0.04517,-0.00824,-0.0264,-0.04593,-0.00961,0.00107,-0.01205,-0.0148,0.00427,-0.0032,-0.0325,-0.01633,0.00916,-0.03876
2.9705,0.00107,-0.03525,-0.04486,-0.00793,-0.02747,-0.04669,-0.00977,0.0029,-0.01266,-0.01755,0.01358,-0.00107,-0.03265,-0.01511,0.00992,-0.03891
2.971,0.0,-0.0351,-0.04669,-0.00809,-0.02869,-0.04684,-0.01038,0.00305,-0.01266,-0.0209,0.02594,0.00015,-0.03204,-0.01526,0.01007,-0.04044
2.9715,0.00214,-0.03571,-0.04913,-0.00931,-0.02884,-0.04547,-0.01221,0.00046,-0.01266,-0.02197,0.03708,0.00076,-0.03235,-0.01556,0.00885,-0.04089
2.972,0.00595,-0.03708,-0.04929,-0.01068,-0.02808,-0.04456,-0.01465,-0.0029,-0.01556,-0.02121,0.03754,0.00061,-0.03265,-0.01602,0.0087,-0.04089
2.9725,0.00824,-0.03891,-0.04791,-0.01099,-0.02655,-0.0444,-0.01526,-0.00519,-0.0209,-0.02167,0.02274,0.00244,-0.03296,-0.01663,0.00839,-0.04166
2.973,0.00763,-0.03922,-0.04532,-0.01083,-0.02533,-0.04486,-0.01511,-0.00534,-0.02594,-0.02228,-0.00198,0.00534,-0.03281,-0.01877,0.00809,-0.0415
2.9735,0.00626,-0.03967,-0.04166,-0.0116,-0.02594,-0.04593,-0.01541,-0.00381,-0.02701,-0.02411,-0.02853,0.00778,-0.03311,-0.0206,0.00916,-0.04181
2.974,0.00732,-0.04013,-0.03769,-0.01282,-0.02838,-0.04547,-0.01617,-0.00458,-0.02441,-0.02777,-0.05005,0.00595,-0.0325,-0.0206,0.00885,-0.04181
2.9745,0.00732,-0.03998,-0.0351,-0.01312,-0.03052,-0.0444,-0.01617,-0.00687,-0.01968,-0.02914,-0.06088,0.00198,-0.03265,-0.0206,0.00778,-0.04364
2.975,0.00626,-0.03906,-0.03418,-0.01236,-0.03052,-0.04395,-0.01465,-0.00809,-0.01495,-0.0293,-0.06271,0.00031,-0.03265,-0.02121,0.0058,-0.04562
2.9755,0.00504,-0.03769,-0.03494,-0.01144,-0.03021,-0.04425,-0.01373,-0.0087,-0.0119,-0.02975,-0.05844,0.00198,-0.03204,-0.02182,0.00488,-0.047
2.976,0.00549,-0.03693,-0.03525,-0.01114,-0.03067,-0.04623,-0.01648,-0.0061,-0.01114,-0.03006,-0.04959,0.00366,-0.03204,-0.02289,0.00473,-0.04623
2.9765,0.00534,-0.03815,-0.03357,-0.01083,-0.03189,-0.04852,-0.01923,-0.00107,-0.0119,-0.02853,-0.03845,0.00198,-0.03235,-0.02319,0.00793,-0.04532
2.977,0.00305,-0.03891,-0.03143,-0.00824,-0.03265,-0.04944,-0.01846,0.0029,-0.01083,-0.02441,-0.02869,-0.00122,-0.03296,-0.02197,0.00885,-0.04562
2.9775,-0.00031,-0.03937,-0.03021,-0.00595,-0.03204,-0.0502,-0.01526,0.00427,-0.01022,-0.01907,-0.02487,-0.00458,-0.03143,-0.01923,0.00931,-0.04608
2.978,-0.00229,-0.03922,-0.02899,-0.00534,-0.03082,-0.04929,-0.01389,0.00214,-0.01022,-0.01495,-0.0264,-0.00504,-0.03036,-0.01709,0.01007,-0.04517
2.9785,-0.00229,-0.04013,-0.02808,-0.00626,-0.03036,-0.04837,-0.01526,-0.00015,-0.01175,-0.01022,-0.02701,-0.00473,-0.03052,-0.01801,0.00961,-0.0441
2.979,-0.0032,-0.04089,-0.0293,-0.00732,-0.02975,-0.04761,-0.01724,-0.00183,-0.01373,-0.0087,-0.02365,-0.00488,-0.03174,-0.01968,0.00839,-0.04272
2.9795,-0.00504,-0.04059,-0.0322,-0.00748,-0.02975,-0.04684,-0.01801,-0.0032,-0.01511,-0.01053,-0.01785,-0.00565,-0.03189,-0.0209,0.00763,-0.04074
2.98,-0.00748,-0.03952,-0.03189,-0.00809,-0.03036,-0.04669,-0.01862,-0.00504,-0.01648,-0.01663,-0.01282,-0.00671,-0.03113,-0.02029,0.00763,-0.03952
2.9805,-0.01114,-0.03891,-0.03098,-0.00839,-0.03143,-0.0473,-0.02045,-0.00793,-0.01755,-0.02151,-0.0119,-0.00732,-0.03082,-0.01831,0.00717,-0.03983
2.981,-0.01389,-0.03815,-0.03021,-0.00778,-0.03143,-0.04791,-0.0209,-0.01022,-0.01724,-0.02441,-0.0119,-0.00763,-0.03159,-0.01694,0.00671,-0.04181
2.9815,-0.01465,-0.03693,-0.02991,-0.00549,-0.02853,-0.0473,-0.01617,-0.01114,-0.01602,-0.02533,-0.01144,-0.00748,-0.03311,-0.01556,0.00687,-0.04333
2.982,-0.01404,-0.03693,-0.03143,-0.00336,-0.02365,-0.04623,-0.01053,-0.00885,-0.01495,-0.02625,-0.01038,-0.00641,-0.03479,-0.01465,0.00717,-0.04364
2.9825,-0.01251,-0.03784,-0.03128,-0.00336,-0.02197,-0.04623,-0.00778,-0.00534,-0.01572,-0.02853,-0.01022,-0.00458,-0.03571,-0.01434,0.00748,-0.04379
2.983,-0.01114,-0.03799,-0.03021,-0.00504,-0.0238,-0.04715,-0.00656,-0.00229,-0.01862,-0.02884,-0.01099,-0.00183,-0.03448,-0.01358,0.00824,-0.04196
2.9835,-0.00885,-0.03662,-0.02899,-0.00717,-0.02594,-0.04944,-0.00702,-0.00137,-0.02197,-0.02609,-0.01236,0.00031,-0.03189,-0.01419,0.00824,-0.04028
2.984,-0.00656,-0.03662,-0.02884,-0.00854,-0.03098,-0.05203,-0.00793,-0.00015,-0.02335,-0.02228,-0.01266,0.00046,-0.0296,-0.01526,0.00885,-0.03983
2.9845,-0.00443,-0.03769,-0.0293,-0.01068,-0.0383,-0.05249,-0.01038,0.00214,-0.02274,-0.01816,-0.01175,0.00046,-0.02899,-0.01724,0.009,-0.04013
2.985,-0.00229,-0.03845,-0.02838,-0.01266,-0.04318,-0.05005,-0.01419,0.00519,-0.02167,-0.01465,-0.00946,0.00046,-0.03036,-0.01785,0.00854,-0.04013
2.9855,-0.00168,-0.03845,-0.02716,-0.01373,-0.04227,-0.0473,-0.01755,0.00641,-0.02151,-0.01114,-0.00656,0.0,-0.03311,-0.01801,0.00793,-0.04074
2.986,-0.0029,-0.03693,-0.02701,-0.01328,-0.03754,-0.04776,-0.01984,0.00565,-0.02121,-0.0087,-0.00443,-0.00061,-0.03433,-0.0174,0.00763,-0.03983
2.9865,-0.00549,-0.03662,-0.02869,-0.01251,-0.03296,-0.04898,-0.02304,0.00504,-0.02014,-0.00793,-0.00366,-0.00183,-0.03342,-0.01862,0.00732,-0.03967
2.987,-0.00732,-0.03555,-0.02975,-0.0119,-0.03189,-0.04852,-0.02747,0.00458,-0.01953,-0.00748,-0.00641,-0.00366,-0.03098,-0.02075,0.00671,-0.0386
2.9875,-0.00839,-0.03418,-0.0293,-0.01114,-0.0325,-0.04761,-0.03128,0.00122,-0.01923,-0.0058,-0.00992,-0.00458,-0.0293,-0.02213,0.00641,-0.0383
2.988,-0.01007,-0.0322,-0.02747,-0.00961,-0.03387,-0.04684,-0.03098,-0.00397,-0.01968,-0.00198,-0.0119,-0.00641,-0.02914,-0.02243,0.00702,-0.03922
2.9885,-0.01129,-0.03113,-0.02747,-0.00977,-0.03403,-0.04791,-0.0267,-0.01022,-0.01892,0.00122,-0.01236,-0.0061,-0.03052,-0.02182,0.00793,-0.04044
2.989,-0.00992,-0.03082,-0.03036,-0.0119,-0.03387,-0.04898,-0.02167,-0.01236,-0.01816,0.00183,-0.01221,-0.00565,-0.03189,-0.02014,0.00793,-0.04044
2.9895,-0.00702,-0.03067,-0.03403,-0.0145,-0.03403,-0.04852,-0.0174,-0.00885,-0.01617,-0.00061,-0.01328,-0.00473,-0.03281,-0.0177,0.00809,-0.03922
2.99,-0.00565,-0.03204,-0.03464,-0.01266,-0.03342,-0.04745,-0.01434,-0.00259,-0.0145,-0.00443,-0.01328,-0.00351,-0.03265,-0.01877,0.00946,-0.03891
2.9905,-0.00565,-0.0351,-0.03403,-0.00793,-0.03387,-0.04807,-0.01434,0.0,-0.01465,-0.00793,-0.01114,-0.00137,-0.03189,-0.02121,0.01205,-0.03952
2.991,-0.00717,-0.03906,-0.03403,-0.00443,-0.03387,-0.04868,-0.01556,-0.00031,-0.0145,-0.01022,-0.00824,-0.00046,-0.03189,-0.02167,0.01114,-0.04059
2.9915,-0.00793,-0.04089,-0.03479,-0.0061,-0.03479,-0.04868,-0.01556,-0.00229,-0.01434,-0.01129,-0.00565,-0.00214,-0.03265,-0.02045,0.00946,-0.04135
2.992,-0.0087,-0.04166,-0.03601,-0.00977,-0.03632,-0.04807,-0.01526,-0.00534,-0.0119,-0.01328,-0.00427,-0.0029,-0.03357,-0.01831,0.00793,-0.04105
2.9925,-0.01022,-0.04242,-0.03693,-0.01144,-0.03632,-0.04745,-0.01541,-0.00793,-0.00839,-0.01678,-0.00427,-0.00244,-0.03311,-0.01801,0.00854,-0.04013
2.993,-0.01328,-0.04333,-0.03632,-0.01007,-0.03494,-0.04684,-0.01373,-0.00793,-0.00671,-0.02121,-0.00488,-0.00061,-0.03265,-0.0177,0.00961,-0.04105
2.9935,-0.01541,-0.04425,-0.03387,-0.009,-0.03174,-0.04639,-0.0119,-0.00458,-0.00763,-0.02274,-0.0087,0.0,-0.03174,-0.01709,0.00885,-0.04135
2.994,-0.01648,-0.04547,-0.03204,-0.009,-0.02899,-0.04532,-0.00885,0.00015,-0.00793,-0.0206,-0.01358,0.00015,-0.03235,-0.01602,0.00626,-0.04181
2.9945,-0.01526,-0.04623,-0.02884,-0.00992,-0.0267,-0.04562,-0.00916,0.00244,-0.00732,-0.01907,-0.01816,0.00092,-0.03265,-0.01678,0.00443,-0.04135
2.995,-0.01236,-0.04745,-0.02747,-0.01022,-0.02533,-0.04593,-0.01129,-0.00031,-0.00717,-0.01968,-0.02029,0.00153,-0.0325,-0.01785,0.00488,-0.04013
2.9955,-0.00885,-0.04761,-0.02792,-0.01038,-0.02838,-0.04578,-0.0148,-0.0029,-0.00793,-0.02197,-0.01846,0.00122,-0.03174,-0.01877,0.00839,-0.03937
2.996,-0.00641,-0.04974,-0.02914,-0.01007,-0.03204,-0.04532,-0.01907,-0.00305,-0.00809,-0.02213,-0.0145,0.00153,-0.03189,-0.01892,0.00977,-0.03799
2.9965,-0.0058,-0.05157,-0.02777,-0.01007,-0.03204,-0.04593,-0.02045,0.00015,-0.00778,-0.01953,-0.01129,0.00351,-0.0325,-0.01831,0.00732,-0.03784
2.997,-0.00778,-0.05234,-0.02838,-0.01007,-0.0293,-0.04547,-0.01816,0.00381,-0.00946,-0.01678,-0.009,0.00702,-0.03311,-0.01831,0.00549,-0.03799
2.9975,-0.01099,-0.05234,-0.0293,-0.00977,-0.02686,-0.04562,-0.01251,0.00397,-0.01389,-0.01617,-0.00854,0.0087,-0.03357,-0.01755,0.00595,-0.03967
2.998,-0.01251,-0.05142,-0.03082,-0.00854,-0.02731,-0.04547,-0.00824,-0.00061,-0.01862,-0.01755,-0.00931,0.00702,-0.03372,-0.01709,0.00732,-0.04166
2.9985,-0.01205,-0.05219,-0.03357,-0.00763,-0.02884,-0.04547,-0.00473,-0.00687,-0.02197,-0.01831,-0.00961,0.00443,-0.03403,-0.01816,0.00854,-0.04211
2.999,-0.01007,-0.05219,-0.03647,-0.00717,-0.0293,-0.04761,-0.00092,-0.00977,-0.02396,-0.01663,-0.00793,0.00259,-0.03418,-0.01999,0.00763,-0.0415
2.9995,-0.00931,-0.05035,-0.03799,-0.00717,-0.02838,-0.04974,0.00412,-0.00732,-0.02426,-0.01389,-0.00488,0.0032,-0.03448,-0.01953,0.00763,-0.04028
3.0,-0.00824,-0.04684,-0.03799,-0.00656,-0.02747,-0.04929,0.00839,-0.00153,-0.02228,-0.01236,-0.00427,0.00351,-0.03311,-0.01755,0.00946,-0.04013
3.0005,-0.00443,-0.04364,-0.03723,-0.0061,-0.02838,-0.04745,0.009,0.00153,-0.01862,-0.01251,-0.00671,0.00214,-0.03113,-0.01678,0.01175,-0.0412
3.001,0.00153,-0.04303,-0.03555,-0.00626,-0.03067,-0.04639,0.00519,0.00061,-0.01709,-0.01328,-0.00946,-0.00046,-0.03021,-0.01709,0.01328,-0.0412
3.0015,0.00687,-0.04349,-0.03387,-0.00763,-0.03387,-0.04822,-0.00183,-0.00092,-0.01663,-0.01404,-0.00809,-0.00122,-0.03082,-0.01846,0.01389,-0.03983
3.002,0.009,-0.04318,-0.03342,-0.00824,-0.03784,-0.0502,-0.00671,-0.00092,-0.01633,-0.0148,-0.00763,-0.00122,-0.03296,-0.01846,0.01343,-0.03937
3.0025,0.00748,-0.04242,-0.03326,-0.00916,-0.0412,-0.0502,-0.00763,-0.00076,-0.01526,-0.01343,-0.009,0.0,-0.03464,-0.01755,0.01175,-0.03906
3.003,0.00458,-0.04211,-0.03357,-0.00977,-0.04288,-0.04776,-0.0058,-0.00183,-0.01434,-0.00885,-0.00961,0.00015,-0.03418,-0.01755,0.00916,-0.03906
3.0035,0.00137,-0.04105,-0.03418,-0.01068,-0.04074,-0.04562,-0.00565,-0.00519,-0.01404,-0.00412,-0.00824,0.00275,-0.0325,-0.01892,0.00717,-0.03876
3.004,-0.00137,-0.03937,-0.0354,-0.01038,-0.03799,-0.04623,-0.00702,-0.00626,-0.01434,-0.00549,-0.00671,0.00458,-0.03189,-0.01999,0.00763,-0.03876
3.0045,-0.00397,-0.0383,-0.03647,-0.01053,-0.03601,-0.04745,-0.00809,-0.00717,-0.01617,-0.01358,-0.00565,0.00458,-0.03265,-0.01968,0.00809,-0.03876
3.005,-0.00671,-0.03784,-0.03815,-0.0119,-0.03555,-0.04639,-0.00931,-0.00931,-0.01831,-0.02319,-0.00458,0.00473,-0.03235,-0.01892,0.00809,-0.03937
3.0055,-0.00977,-0.03967,-0.03815,-0.01343,-0.03464,-0.04456,-0.01083,-0.01099,-0.01877,-0.0267,-0.00458,0.00549,-0.03174,-0.01892,0.00687,-0.04181
3.006,-0.01358,-0.04074,-0.03693,-0.0145,-0.03342,-0.04395,-0.01236,-0.01144,-0.01694,-0.02563,-0.0058,0.00473,-0.0325,-0.01907,0.00671,-0.04532
3.0065,-0.0148,-0.0412,-0.03494,-0.01404,-0.03326,-0.04517,-0.01312,-0.01007,-0.01556,-0.02396,-0.00763,0.00366,-0.03403,-0.01923,0.00763,-0.04654
3.007,-0.01343,-0.0412,-0.03204,-0.01205,-0.03128,-0.04593,-0.01419,-0.00702,-0.01465,-0.02365,-0.00977,0.0032,-0.03342,-0.01831,0.00931,-0.04486
3.0075,-0.01053,-0.04074,-0.03052,-0.01053,-0.0296,-0.04456,-0.01328,-0.00519,-0.01465,-0.02533,-0.01144,0.00305,-0.03387,-0.01801,0.01175,-0.04059
3.008,-0.00565,-0.03998,-0.03006,-0.01007,-0.02823,-0.04364,-0.01083,-0.00427,-0.01434,-0.02579,-0.0116,0.00198,-0.03464,-0.01831,0.01144,-0.03922
3.0085,-0.00305,-0.04013,-0.03067,-0.01114,-0.03082,-0.04379,-0.00763,-0.00381,-0.01373,-0.0267,-0.01068,0.00244,-0.03403,-0.01862,0.01068,-0.04074
3.009,-0.00305,-0.03983,-0.03143,-0.01144,-0.03326,-0.04425,-0.00717,-0.00381,-0.0116,-0.02792,-0.01083,0.0029,-0.03159,-0.01846,0.01007,-0.04288
3.0095,-0.00305,-0.03967,-0.03296,-0.01068,-0.03326,-0.04501,-0.00778,-0.00381,-0.00961,-0.02899,-0.01465,0.00381,-0.0293,-0.01831,0.01007,-0.04242
3.01,-0.00107,-0.0386,-0.03403,-0.00885,-0.03052,-0.0473,-0.00854,-0.00366,-0.00641,-0.03067,-0.01938,0.00336,-0.0296,-0.01816,0.01007,-0.04044
3.0105,0.00061,-0.03769,-0.0351,-0.00778,-0.02991,-0.05005,-0.00946,-0.00275,-0.00595,-0.03006,-0.02106,0.00305,-0.03067,-0.0177,0.00946,-0.03906
3.011,0.00076,-0.03784,-0.0354,-0.00885,-0.03113,-0.05295,-0.009,-0.00153,-0.00702,-0.02625,-0.01938,0.00351,-0.03036,-0.01892,0.0087,-0.03937
3.0115,-0.00076,-0.03876,-0.03586,-0.01068,-0.03311,-0.05524,-0.00839,0.00031,-0.00809,-0.02258,-0.01694,0.00443,-0.03052,-0.02075,0.00809,-0.04044
3.012,-0.00137,-0.03891,-0.03891,-0.01221,-0.03479,-0.05585,-0.00916,0.00229,-0.00656,-0.01907,-0.01465,0.00397,-0.03159,-0.02197,0.0087,-0.04227
3.0125,-0.00168,-0.03937,-0.0415,-0.01221,-0.03448,-0.05295,-0.01129,0.00305,-0.0058,-0.0174,-0.01419,0.00259,-0.03265,-0.0206,0.009,-0.04333
3.013,-0.00229,-0.03906,-0.04272,-0.0116,-0.03326,-0.04959,-0.01389,0.00076,-0.00824,-0.01724,-0.01221,0.00092,-0.03296,-0.01999,0.00931,-0.04211
3.0135,-0.00198,-0.0383,-0.04013,-0.01205,-0.03387,-0.04837,-0.01495,-0.00305,-0.01282,-0.01755,-0.01175,0.00122,-0.03281,-0.02014,0.00793,-0.04166
3.014,-0.00153,-0.03708,-0.03647,-0.01297,-0.03403,-0.04837,-0.01556,-0.00473,-0.01648,-0.01617,-0.01068,0.00229,-0.03235,-0.02045,0.0061,-0.04196
3.0145,-0.00244,-0.03708,-0.03586,-0.0145,-0.03448,-0.04883,-0.01678,-0.00427,-0.01968,-0.01495,-0.0087,0.00443,-0.03204,-0.02029,0.00641,-0.04333
3.015,-0.00504,-0.03662,-0.03952,-0.01328,-0.03418,-0.04898,-0.01678,-0.00397,-0.02151,-0.01419,-0.00854,0.00549,-0.03159,-0.01984,0.00809,-0.0441
3.0155,-0.00641,-0.03662,-0.04196,-0.01266,-0.03403,-0.04837,-0.01633,-0.00488,-0.02182,-0.0174,-0.01236,0.00443,-0.03174,-0.01938,0.0087,-0.04333
3.016,-0.00549,-0.03647,-0.04333,-0.01221,-0.03448,-0.04929,-0.01587,-0.00488,-0.01923,-0.01953,-0.01465,0.00198,-0.03265,-0.01862,0.00854,-0.0412
3.0165,-0.00305,-0.03632,-0.0444,-0.01312,-0.03403,-0.04883,-0.01587,-0.00336,-0.01831,-0.01923,-0.01251,0.00031,-0.03433,-0.01907,0.00763,-0.04059
3.017,-0.00214,-0.03677,-0.04471,-0.01282,-0.0325,-0.04807,-0.01495,-0.00305,-0.02151,-0.01755,-0.00961,-0.00031,-0.03433,-0.01846,0.00626,-0.04013
3.0175,-0.00351,-0.03632,-0.04105,-0.01129,-0.03052,-0.04669,-0.01434,-0.00351,-0.02472,-0.0174,-0.01007,-0.00076,-0.0325,-0.01694,0.00519,-0.04257
3.018,-0.00381,-0.03586,-0.03342,-0.00977,-0.02838,-0.04608,-0.01358,-0.00427,-0.0267,-0.01785,-0.01282,-0.00214,-0.03098,-0.01556,0.00626,-0.04349
3.0185,-0.00183,-0.03571,-0.02731,-0.009,-0.02853,-0.04715,-0.01572,-0.00366,-0.02655,-0.01617,-0.01602,-0.00305,-0.03098,-0.01755,0.00748,-0.04456
3.019,0.00031,-0.03632,-0.0267,-0.00839,-0.0296,-0.04837,-0.01846,-0.00336,-0.02625,-0.0119,-0.01816,-0.00305,-0.0325,-0.01953,0.00809,-0.04517
3.0195,0.00031,-0.03784,-0.02823,-0.00824,-0.03174,-0.04913,-0.01923,-0.00305,-0.02548,-0.009,-0.0174,-0.00244,-0.03296,-0.01862,0.00702,-0.04547
3.02,-0.00244,-0.04013,-0.03021,-0.00854,-0.03204,-0.05005,-0.0174,-0.00458,-0.02228,-0.01144,-0.01572,-0.00183,-0.03159,-0.01648,0.00732,-0.04364
3.0205,-0.00656,-0.0412,-0.02914,-0.00854,-0.03159,-0.05096,-0.01526,-0.00626,-0.01526,-0.0174,-0.01694,-0.00137,-0.03113,-0.01617,0.00793,-0.04242
3.021,-0.00961,-0.04181,-0.02853,-0.00824,-0.03006,-0.0499,-0.01419,-0.00717,-0.0087,-0.02319,-0.01938,-0.00046,-0.03143,-0.01678,0.00961,-0.04242
3.0215,-0.01129,-0.04196,-0.02777,-0.00748,-0.0293,-0.0473,-0.01404,-0.00778,-0.00671,-0.02472,-0.02151,0.00122,-0.03281,-0.01694,0.00977,-0.04166
3.022,-0.01282,-0.04257,-0.0267,-0.00885,-0.02869,-0.0444,-0.01465,-0.00748,-0.009,-0.02213,-0.02197,0.00122,-0.03357,-0.01755,0.00839,-0.03998
3.0225,-0.01083,-0.04211,-0.02655,-0.01007,-0.0296,-0.04395,-0.01556,-0.00595,-0.01312,-0.01709,-0.02167,-0.00076,-0.03448,-0.01801,0.00717,-0.03952
3.023,-0.00534,-0.04105,-0.02823,-0.01053,-0.03128,-0.04532,-0.01556,-0.00412,-0.01648,-0.01297,-0.01999,-0.00122,-0.03342,-0.01831,0.00565,-0.04013
3.0235,0.00107,-0.04028,-0.03143,-0.00977,-0.03189,-0.04608,-0.01617,-0.00259,-0.01862,-0.0116,-0.01953,0.00015,-0.03128,-0.01785,0.0061,-0.04181
3.024,0.00336,-0.04074,-0.03342,-0.01053,-0.03143,-0.04669,-0.01694,-0.00336,-0.01831,-0.01312,-0.02014,0.00153,-0.03113,-0.0177,0.00641,-0.04211
3.0245,0.00229,-0.04074,-0.03357,-0.01114,-0.03143,-0.04608,-0.01709,-0.00488,-0.0177,-0.01633,-0.02197,0.00076,-0.03387,-0.01648,0.00488,-0.0412
3.025,0.00061,-0.04105,-0.03387,-0.0116,-0.03143,-0.04608,-0.01465,-0.0061,-0.01617,-0.02106,-0.02396,-0.00015,-0.03555,-0.01709,0.00473,-0.03784
3.0255,0.00015,-0.04181,-0.03464,-0.01144,-0.03235,-0.04593,-0.01205,-0.00549,-0.0145,-0.02609,-0.02487,0.00046,-0.03372,-0.01724,0.00488,-0.03769
3.026,-0.0029,-0.04288,-0.0354,-0.01129,-0.03326,-0.04654,-0.01251,-0.0032,-0.01251,-0.03021,-0.02365,0.00107,-0.02991,-0.01846,0.00565,-0.03967
3.0265,-0.01038,-0.04257,-0.03632,-0.01205,-0.03342,-0.04669,-0.01556,-0.00168,-0.01083,-0.03204,-0.02258,0.00153,-0.02655,-0.01999,0.00671,-0.04333
3.027,-0.01694,-0.04074,-0.03525,-0.01266,-0.0322,-0.0473,-0.01678,-0.00305,-0.01007,-0.03128,-0.02335,0.00046,-0.02701,-0.02151,0.00763,-0.04547
3.0275,-0.01785,-0.03967,-0.03464,-0.01312,-0.03189,-0.04776,-0.01587,-0.00626,-0.01038,-0.02762,-0.02243,0.00046,-0.02884,-0.02121,0.00916,-0.04318
3.028,-0.0148,-0.0386,-0.03601,-0.01236,-0.03128,-0.04776,-0.01511,-0.00839,-0.01099,-0.02579,-0.01785,0.00198,-0.02975,-0.01968,0.01053,-0.04059
3.0285,-0.01068,-0.03815,-0.0383,-0.01205,-0.03204,-0.0473,-0.01709,-0.00809,-0.01205,-0.02441,-0.01221,0.0032,-0.03006,-0.01862,0.0116,-0.03952
3.029,-0.00732,-0.03967,-0.0383,-0.01099,-0.03387,-0.04684,-0.01816,-0.00702,-0.01312,-0.02304,-0.00809,0.00305,-0.03021,-0.01953,0.0116,-0.04074
3.0295,-0.00458,-0.04013,-0.03693,-0.00946,-0.03357,-0.04639,-0.01709,-0.00504,-0.01328,-0.02075,-0.00671,0.00153,-0.02853,-0.02106,0.01205,-0.03998
3.03,-0.00259,-0.03906,-0.03357,-0.00671,-0.03235,-0.04547,-0.01694,-0.00412,-0.01266,-0.01892,-0.00595,0.00107,-0.02716,-0.02136,0.01114,-0.03891
3.0305,-0.00061,-0.0383,-0.0325,-0.00671,-0.03082,-0.04456,-0.01831,-0.00275,-0.0119,-0.01862,-0.00671,0.00229,-0.02686,-0.02045,0.00992,-0.03983
3.031,0.00183,-0.03998,-0.03265,-0.00778,-0.02853,-0.04425,-0.01938,-0.00153,-0.01282,-0.01984,-0.00824,0.00351,-0.0293,-0.02014,0.01007,-0.04166
3.0315,0.00397,-0.04272,-0.03418,-0.00946,-0.02701,-0.0441,-0.01999,-0.00107,-0.01404,-0.02106,-0.0087,0.00351,-0.0322,-0.0206,0.01144,-0.04242
3.032,0.00443,-0.04593,-0.03555,-0.01114,-0.02747,-0.04425,-0.01877,-0.00046,-0.01495,-0.02075,-0.00885,0.00336,-0.03235,-0.02121,0.01205,-0.0412
3.0325,0.00519,-0.04669,-0.03723,-0.01068,-0.02975,-0.04501,-0.01678,-0.00015,-0.01495,-0.02029,-0.01068,0.00427,-0.03052,-0.0206,0.01129,-0.04166
3.033,0.00641,-0.04654,-0.03815,-0.00992,-0.03067,-0.04532,-0.01694,-0.00092,-0.01434,-0.01968,-0.01419,0.00473,-0.0296,-0.01877,0.01007,-0.04333
3.0335,0.00793,-0.04578,-0.03815,-0.01007,-0.03098,-0.04593,-0.01755,-0.00244,-0.01358,-0.01785,-0.01785,0.00351,-0.03067,-0.01678,0.00854,-0.04456
3.034,0.00656,-0.04456,-0.03723,-0.01083,-0.02991,-0.04761,-0.01877,-0.00259,-0.01297,-0.01495,-0.01953,0.00244,-0.03281,-0.01678,0.00717,-0.0444
3.0345,0.0029,-0.04318,-0.03723,-0.01099,-0.02792,-0.04944,-0.01755,-0.00168,-0.01282,-0.01236,-0.0177,0.00183,-0.03387,-0.01633,0.00519,-0.04425
3.035,-0.00046,-0.04211,-0.03891,-0.01068,-0.02777,-0.05051,-0.01434,-0.00031,-0.01419,-0.0119,-0.01801,0.00122,-0.03479,-0.01617,0.00397,-0.04623
3.0355,-0.0032,-0.04028,-0.03906,-0.01114,-0.02853,-0.04929,-0.0119,0.00046,-0.01495,-0.0119,-0.02121,0.00015,-0.03494,-0.01694,0.00381,-0.04715
3.036,-0.00397,-0.03952,-0.03677,-0.0119,-0.02991,-0.04868,-0.01312,-0.00015,-0.01556,-0.01312,-0.02335,-0.00092,-0.03616,-0.01816,0.00458,-0.04654
3.0365,-0.00443,-0.0386,-0.03357,-0.01007,-0.02884,-0.04776,-0.01526,-0.00153,-0.01389,-0.01495,-0.02426,-0.00031,-0.03601,-0.01877,0.00671,-0.04379
3.037,-0.00366,-0.03922,-0.03098,-0.00778,-0.02899,-0.04807,-0.01526,-0.00229,-0.0119,-0.01801,-0.02518,0.00092,-0.03433,-0.0174,0.00824,-0.04242
3.0375,-0.00305,-0.03922,-0.02823,-0.00641,-0.02731,-0.04593,-0.01389,-0.00244,-0.01144,-0.02014,-0.02533,0.00229,-0.03265,-0.01678,0.0087,-0.04395
3.038,-0.00351,-0.04013,-0.0264,-0.00824,-0.02731,-0.0444,-0.01328,-0.00122,-0.01068,-0.02182,-0.02304,0.00137,-0.03296,-0.01831,0.00961,-0.04578
3.0385,-0.00656,-0.04089,-0.02548,-0.0116,-0.02762,-0.0444,-0.01465,-0.00214,-0.01007,-0.0206,-0.01831,-0.00183,-0.03464,-0.01938,0.009,-0.04532
3.039,-0.01022,-0.0415,-0.0264,-0.01282,-0.0267,-0.04517,-0.0174,-0.00214,-0.01022,-0.01709,-0.01328,-0.00549,-0.03708,-0.01831,0.00717,-0.0444
3.0395,-0.0119,-0.04059,-0.02548,-0.01144,-0.02686,-0.04623,-0.01831,-0.00137,-0.0116,-0.01328,-0.00702,-0.00946,-0.0383,-0.01587,0.00717,-0.04379
3.04,-0.01083,-0.03876,-0.02563,-0.01083,-0.02701,-0.04639,-0.01678,0.00183,-0.01373,-0.0119,-0.00122,-0.01175,-0.03708,-0.01511,0.00809,-0.04379
3.0405,-0.00824,-0.03784,-0.02243,-0.01022,-0.02869,-0.04639,-0.01419,0.00443,-0.01556,-0.01495,0.00153,-0.01205,-0.0354,-0.01602,0.00809,-0.0444
3.041,-0.00473,-0.03769,-0.02167,-0.00977,-0.0296,-0.04547,-0.01221,0.00229,-0.0148,-0.01923,0.00015,-0.0119,-0.03479,-0.01755,0.00748,-0.04364
3.0415,0.00015,-0.0386,-0.02335,-0.009,-0.02945,-0.04486,-0.01022,-0.0029,-0.01343,-0.02274,-0.00443,-0.01282,-0.03555,-0.01801,0.00809,-0.04257
3.042,0.0029,-0.0386,-0.02686,-0.00824,-0.02884,-0.04456,-0.00824,-0.00961,-0.01404,-0.02197,-0.00793,-0.01587,-0.03555,-0.01846,0.00931,-0.04288
3.0425,0.00259,-0.03815,-0.03082,-0.00793,-0.02945,-0.04608,-0.00748,-0.01282,-0.01755,-0.01968,-0.01007,-0.01831,-0.03418,-0.01968,0.01114,-0.04211
3.043,-0.00183,-0.04013,-0.03693,-0.00854,-0.03128,-0.04715,-0.01053,-0.0116,-0.01953,-0.01541,-0.01175,-0.01755,-0.03265,-0.01984,0.01068,-0.04074
3.0435,-0.0061,-0.04318,-0.0444,-0.00854,-0.03311,-0.04852,-0.01694,-0.00702,-0.01953,-0.01083,-0.01541,-0.01236,-0.03372,-0.01877,0.00946,-0.04013
3.044,-0.00717,-0.04578,-0.04959,-0.009,-0.03403,-0.04913,-0.02228,-0.00549,-0.01831,-0.00671,-0.01663,-0.00473,-0.03479,-0.01724,0.00885,-0.04074
3.0445,-0.00473,-0.04608,-0.04929,-0.00992,-0.03387,-0.04868,-0.02441,-0.00656,-0.01709,-0.0058,-0.01511,0.00626,-0.0351,-0.0174,0.009,-0.04303
3.045,-0.00183,-0.04578,-0.04364,-0.01083,-0.03372,-0.04807,-0.02563,-0.00687,-0.01419,-0.01053,-0.01373,0.01495,-0.03403,-0.01862,0.00961,-0.0444
3.0455,0.00061,-0.04425,-0.03693,-0.01099,-0.03357,-0.04715,-0.02991,-0.00519,-0.01129,-0.01785,-0.01465,0.01923,-0.03403,-0.02029,0.01007,-0.04364
3.046,0.00153,-0.04196,-0.0325,-0.01114,-0.03387,-0.04623,-0.03632,-0.00244,-0.00977,-0.02365,-0.01663,0.01923,-0.03448,-0.0206,0.0087,-0.04181
3.0465,0.00061,-0.04089,-0.0322,-0.01083,-0.03357,-0.04547,-0.03738,-0.00137,-0.01007,-0.02701,-0.01678,0.01816,-0.0351,-0.02029,0.0087,-0.03998
3.047,0.00031,-0.04089,-0.03647,-0.01022,-0.03204,-0.04654,-0.03098,-0.00122,-0.0116,-0.02884,-0.01663,0.01877,-0.0351,-0.01877,0.00839,-0.0386
3.0475,-0.00168,-0.04181,-0.04486,-0.01068,-0.03067,-0.04837,-0.01785,-0.00275,-0.01312,-0.03128,-0.01907,0.0174,-0.03586,-0.0177,0.00916,-0.03708
3.048,-0.0032,-0.04211,-0.05386,-0.01068,-0.03021,-0.05051,-0.00443,-0.00626,-0.01602,-0.03204,-0.02228,0.0119,-0.03708,-0.01877,0.009,-0.03586
3.0485,-0.00275,-0.0412,-0.05615,-0.01007,-0.03067,-0.05081,0.00076,-0.01221,-0.0174,-0.03128,-0.0267,0.00671,-0.03632,-0.02106,0.00931,-0.03708
3.049,-0.00183,-0.04013,-0.0531,-0.00854,-0.03098,-0.05096,-0.00687,-0.01663,-0.01648,-0.02853,-0.05508,0.00351,-0.03387,-0.02029,0.00793,-0.03906
3.0495,-0.00122,-0.04013,-0.04929,-0.00687,-0.02945,-0.05081,-0.01801,-0.01465,-0.01404,-0.02502,-0.16937,0.00183,-0.03021,-0.01862,0.0087,-0.03983
3.05,-0.00076,-0.04044,-0.04776,-0.00534,-0.02884,-0.04974,-0.02197,-0.00778,-0.01236,-0.0206,-0.38528,0.00137,-0.02838,-0.01633,0.0087,-0.03906
3.0505,-0.00259,-0.04028,-0.0441,-0.0058,-0.02884,-0.04822,-0.0177,-0.00229,-0.01251,-0.01709,-0.57175,0.00092,-0.0296,-0.01663,0.00916,-0.03967
3.051,-0.00839,-0.04044,-0.03418,-0.00809,-0.0293,-0.04944,-0.01266,0.00092,-0.01373,-0.0177,-0.57495,-0.00015,-0.03143,-0.01694,0.00961,-0.03983
3.0515,-0.01389,-0.04028,-0.02228,-0.00961,-0.03098,-0.05066,-0.00839,0.00244,-0.01541,-0.01968,-0.42999,-0.00153,-0.0325,-0.01648,0.01068,-0.03876
3.052,-0.01587,-0.04105,-0.01526,-0.00931,-0.03113,-0.05066,-0.00305,0.00153,-0.01572,-0.02304,-0.31174,-0.00366,-0.03174,-0.01556,0.01114,-0.0383
3.0525,-0.01343,-0.04181,-0.01587,-0.00793,-0.0322,-0.04868,0.00015,-0.00031,-0.0148,-0.03326,-0.29602,-0.00458,-0.03021,-0.01556,0.01038,-0.04028
3.053,-0.00946,-0.04211,-0.01862,-0.00732,-0.03342,-0.04532,-0.00046,-0.00183,-0.01312,-0.05508,-0.31006,-0.00534,-0.02975,-0.01602,0.0087,-0.04227
3.0535,-0.0061,-0.04288,-0.02228,-0.00717,-0.03357,-0.04364,-0.00443,-0.00092,-0.01312,-0.07828,-0.2858,-0.00504,-0.03067,-0.0145,0.00778,-0.04303
3.054,-0.00412,-0.04425,-0.0264,-0.00824,-0.03265,-0.04379,-0.00702,0.00015,-0.0148,-0.08743,-0.23682,-0.00458,-0.03174,-0.0148,0.00763,-0.04333
3.0545,-0.00427,-0.04639,-0.03098,-0.01053,-0.03204,-0.04532,-0.00641,-0.00092,-0.01526,-0.07645,-0.19333,-0.00351,-0.03235,-0.01801,0.00839,-0.04288
3.055,-0.00549,-0.04837,-0.03372,-0.01129,-0.03235,-0.04669,-0.00534,-0.00168,-0.01266,-0.05493,-0.15182,-0.00259,-0.03159,-0.02121,0.00961,-0.04166
3.0555,-0.00687,-0.04807,-0.03586,-0.01129,-0.03128,-0.0473,-0.00641,-0.00168,-0.01114,-0.03326,-0.09964,-0.00153,-0.03098,-0.02151,0.01038,-0.04089
3.056,-0.00748,-0.04684,-0.03616,-0.01022,-0.02914,-0.04822,-0.00839,-0.00015,-0.01328,-0.0145,-0.04517,-0.00153,-0.03128,-0.01923,0.01053,-0.04181
3.0565,-0.00839,-0.04684,-0.0383,-0.01068,-0.02655,-0.04837,-0.00854,0.00092,-0.01678,0.00198,-0.00656,-0.00214,-0.03143,-0.01755,0.01038,-0.04318
3.057,-0.00839,-0.04532,-0.04059,-0.01144,-0.02579,-0.04883,-0.00656,0.00076,-0.01877,0.0177,0.01389,-0.00275,-0.03082,-0.01801,0.01038,-0.04272
3.0575,-0.00748,-0.04333,-0.0444,-0.0116,-0.02869,-0.04883,-0.00656,-0.00046,-0.01862,0.02762,0.02579,-0.0029,-0.0296,-0.01907,0.01083,-0.0412
3.058,-0.00793,-0.04227,-0.04913,-0.01053,-0.03235,-0.04883,-0.00793,-0.00183,-0.01953,0.03281,0.03326,-0.00275,-0.02975,-0.02029,0.01053,-0.03937
3.0585,-0.00656,-0.04242,-0.05325,-0.00992,-0.03342,-0.04929,-0.00977,-0.00244,-0.02182,0.03525,0.03662,-0.0029,-0.03159,-0.02075,0.00992,-0.0386
3.059,-0.00473,-0.04135,-0.0528,-0.00946,-0.03311,-0.04929,-0.01053,-0.00229,-0.02228,0.03708,0.03571,-0.00214,-0.03265,-0.02045,0.009,-0.0383
3.0595,-0.00198,-0.03906,-0.04913,-0.00992,-0.03189,-0.04761,-0.01114,-0.00153,-0.02045,0.03586,0.03479,-0.00153,-0.03159,-0.02136,0.00961,-0.03876
3.06,0.00031,-0.03677,-0.04456,-0.00977,-0.03143,-0.04761,-0.01282,-0.00198,-0.01984,0.03143,0.03754,-0.00153,-0.02975,-0.0209,0.01007,-0.03906
3.0605,0.00092,-0.03723,-0.04303,-0.00931,-0.03113,-0.04776,-0.01511,-0.0029,-0.0209,0.02472,0.04181,-0.00183,-0.02823,-0.01968,0.00946,-0.03891
3.061,0.00214,-0.03876,-0.04257,-0.00916,-0.03098,-0.04868,-0.01495,-0.00183,-0.02167,0.01938,0.04715,-0.00259,-0.02975,-0.0177,0.00793,-0.03998
3.0615,0.00351,-0.03922,-0.04135,-0.01083,-0.03052,-0.04868,-0.01404,0.00137,-0.02029,0.01617,0.05142,-0.00519,-0.03143,-0.01617,0.00763,-0.04059
3.062,0.00427,-0.03967,-0.03937,-0.0119,-0.03052,-0.04654,-0.01282,0.00504,-0.01678,0.01282,0.05524,-0.00854,-0.03113,-0.01511,0.00885,-0.04028
3.0625,0.00305,-0.0383,-0.03616,-0.01251,-0.03067,-0.04562,-0.01373,0.00565,-0.0116,0.00916,0.06088,-0.01083,-0.03082,-0.01541,0.00824,-0.0386
3.063,0.00153,-0.03799,-0.03418,-0.0116,-0.02869,-0.04578,-0.01556,0.00305,-0.00702,0.00565,0.06912,-0.00961,-0.03067,-0.01663,0.00916,-0.0386
3.0635,0.00122,-0.03922,-0.03418,-0.01099,-0.02716,-0.04791,-0.01724,-0.00015,-0.00595,0.00015,0.07599,-0.00717,-0.03113,-0.0174,0.01038,-0.03998
3.064,0.00031,-0.04074,-0.03403,-0.01007,-0.02609,-0.05035,-0.01816,-0.00275,-0.01022,-0.00732,0.07919,-0.00626,-0.0325,-0.01816,0.01083,-0.04211
3.0645,-0.00244,-0.04028,-0.03204,-0.00778,-0.02609,-0.05157,-0.01801,-0.00229,-0.01526,-0.01465,0.08072,-0.00702,-0.03296,-0.01938,0.01022,-0.04272
3.065,-0.0058,-0.03983,-0.0296,-0.00748,-0.02808,-0.05081,-0.01892,-0.00244,-0.01999,-0.01907,0.08301,-0.00854,-0.03326,-0.0206,0.00824,-0.04166
3.0655,-0.00732,-0.0415,-0.02808,-0.00809,-0.0296,-0.04868,-0.01984,-0.00183,-0.02228,-0.0209,0.08713,-0.00885,-0.03479,-0.02228,0.00778,-0.04044
3.066,-0.00732,-0.04349,-0.02731,-0.009,-0.02945,-0.04623,-0.02014,-0.00153,-0.02426,-0.02197,0.09354,-0.00595,-0.03494,-0.02243,0.00763,-0.04028
3.0665,-0.00671,-0.04349,-0.0264,-0.0087,-0.02884,-0.04486,-0.0209,-0.00046,-0.02563,-0.02335,0.09903,-0.00183,-0.03418,-0.02151,0.00748,-0.04089
3.067,-0.00565,-0.04135,-0.02472,-0.00809,-0.02808,-0.04547,-0.01999,0.0,-0.02563,-0.02655,0.103,0.00122,-0.03265,-0.01968,0.00916,-0.04074
3.0675,-0.00473,-0.03876,-0.02289,-0.00748,-0.03082,-0.04807,-0.01984,-0.00015,-0.02609,-0.02838,0.10849,0.00214,-0.03235,-0.01999,0.00839,-0.03998
3.068,-0.00443,-0.03845,-0.02365,-0.00763,-0.03326,-0.04959,-0.01862,-0.00122,-0.02731,-0.02808,0.11688,0.0,-0.03296,-0.0209,0.009,-0.03952
3.0685,-0.00458,-0.03952,-0.02563,-0.00885,-0.03342,-0.04959,-0.0174,-0.00183,-0.02762,-0.0267,0.12436,-0.00229,-0.03357,-0.02045,0.00717,-0.03922
3.069,-0.00473,-0.04013,-0.0267,-0.01038,-0.03311,-0.04852,-0.01724,-0.00351,-0.02762,-0.02579,0.12329,-0.00244,-0.03265,-0.01953,0.00702,-0.03922
3.0695,-0.00534,-0.04074,-0.02747,-0.01068,-0.0325,-0.04761,-0.01587,-0.00473,-0.0267,-0.02655,0.11856,0.00092,-0.03052,-0.01862,0.00793,-0.03967
3.07,-0.00748,-0.04074,-0.02777,-0.00885,-0.03174,-0.04669,-0.01343,-0.00397,-0.02426,-0.02533,0.11734,0.00488,-0.02914,-0.01862,0.00809,-0.03998
3.0705,-0.01068,-0.0412,-0.02975,-0.00778,-0.03006,-0.04761,-0.01236,-0.00259,-0.02182,-0.02441,0.11917,0.00473,-0.0293,-0.01968,0.00793,-0.0415
3.071,-0.01373,-0.04089,-0.03189,-0.00931,-0.02869,-0.04791,-0.01526,-0.00244,-0.01999,-0.02335,0.11932,0.0029,-0.03021,-0.01892,0.00656,-0.04303
3.0715,-0.0145,-0.03998,-0.03174,-0.01053,-0.02869,-0.04745,-0.01984,-0.00412,-0.02106,-0.0206,0.11627,0.00137,-0.03189,-0.01907,0.00534,-0.04425
3.072,-0.01266,-0.03937,-0.03067,-0.01038,-0.02869,-0.04562,-0.02258,-0.00656,-0.02228,-0.02045,0.11322,0.00168,-0.0325,-0.02045,0.00488,-0.04471
3.0725,-0.00992,-0.03952,-0.02808,-0.00992,-0.0296,-0.04669,-0.02121,-0.00839,-0.02197,-0.02487,0.10956,0.00229,-0.03326,-0.02243,0.00549,-0.04425
3.073,-0.00732,-0.0386,-0.02838,-0.01068,-0.03113,-0.04883,-0.01801,-0.00885,-0.01999,-0.03357,0.09964,0.00244,-0.03433,-0.0235,0.00778,-0.04257
3.0735,-0.00565,-0.03693,-0.03113,-0.01038,-0.03204,-0.05142,-0.01526,-0.00809,-0.01862,-0.04333,0.08026,0.00244,-0.03433,-0.02411,0.01007,-0.04074
3.074,-0.00519,-0.03342,-0.03159,-0.00992,-0.03265,-0.05112,-0.01312,-0.00687,-0.01602,-0.05157,0.05692,0.00168,-0.03448,-0.02518,0.01236,-0.0412
3.0745,-0.00595,-0.03143,-0.03128,-0.00854,-0.03433,-0.04868,-0.01205,-0.00534,-0.00977,-0.05432,0.0415,0.00198,-0.03387,-0.02502,0.0119,-0.04059
3.075,-0.00732,-0.03082,-0.03006,-0.00916,-0.0351,-0.04822,-0.0116,-0.00549,-0.00183,-0.05447,0.03448,0.00305,-0.03281,-0.02304,0.01038,-0.03952
3.0755,-0.00732,-0.03159,-0.03021,-0.00992,-0.03525,-0.04913,-0.01236,-0.00519,0.00153,-0.05234,0.03189,0.00305,-0.03143,-0.01968,0.00793,-0.04028
3.076,-0.00793,-0.03342,-0.03067,-0.01053,-0.03525,-0.04929,-0.01297,-0.00534,-0.00244,-0.04868,0.03448,0.00198,-0.02975,-0.01678,0.00641,-0.04333
3.0765,-0.00793,-0.03571,-0.03021,-0.01205,-0.03555,-0.04868,-0.01221,-0.00397,-0.00854,-0.04547,0.04425,0.00046,-0.02991,-0.01541,0.00519,-0.04593
3.077,-0.00854,-0.03708,-0.03036,-0.01129,-0.03555,-0.04745,-0.00946,-0.00397,-0.0116,-0.03952,0.05646,0.00031,-0.03174,-0.01526,0.00214,-0.04486
3.0775,-0.00732,-0.03815,-0.02777,-0.00946,-0.0351,-0.04623,-0.00824,-0.00595,-0.01038,-0.03265,0.06195,0.00092,-0.03265,-0.01633,-0.00046,-0.0415
3.078,-0.00534,-0.03891,-0.02686,-0.00824,-0.03418,-0.04745,-0.01038,-0.00916,-0.00885,-0.0267,0.05936,0.00122,-0.03159,-0.0174,0.00153,-0.03922
3.0785,-0.00412,-0.03723,-0.02899,-0.00824,-0.03387,-0.04593,-0.01358,-0.01099,-0.00809,-0.02319,0.05203,0.00229,-0.03128,-0.01678,0.00641,-0.03891
3.079,-0.00351,-0.03815,-0.03098,-0.00793,-0.03418,-0.04547,-0.01495,-0.01099,-0.00931,-0.02014,0.04379,0.00381,-0.03174,-0.01694,0.01038,-0.03906
3.0795,-0.0032,-0.04074,-0.03296,-0.00717,-0.03464,-0.04562,-0.01495,-0.00854,-0.01144,-0.01755,0.03723,0.00534,-0.03296,-0.01572,0.01007,-0.03937
3.08,-0.00122,-0.04242,-0.03235,-0.00656,-0.03433,-0.04578,-0.01556,-0.00427,-0.0116,-0.01465,0.03403,0.00519,-0.03311,-0.01419,0.00931,-0.03815
3.0805,-0.00046,-0.04318,-0.0296,-0.00671,-0.03387,-0.04593,-0.01801,-0.0032,-0.01266,-0.01129,0.03113,0.0032,-0.0325,-0.01373,0.00916,-0.03937
3.081,-0.00076,-0.04333,-0.02914,-0.00732,-0.03342,-0.04623,-0.02045,-0.00305,-0.01434,-0.00946,0.02441,0.00183,-0.0325,-0.01541,0.01007,-0.03906
3.0815,-0.00168,-0.04333,-0.02991,-0.00778,-0.03265,-0.04471,-0.01862,-0.00153,-0.01312,-0.01038,0.01587,0.00275,-0.03296,-0.01724,0.01144,-0.03876
3.082,-0.00336,-0.04562,-0.03265,-0.00839,-0.03372,-0.04379,-0.01678,-0.00107,-0.00961,-0.0119,0.01099,0.00504,-0.03494,-0.01801,0.01053,-0.03937
3.0825,-0.00443,-0.04837,-0.03372,-0.009,-0.03403,-0.04227,-0.01465,-0.0032,-0.00641,-0.01343,0.01343,0.00854,-0.03479,-0.01984,0.00931,-0.0415
3.083,-0.00458,-0.05005,-0.03403,-0.00809,-0.03326,-0.04166,-0.0148,-0.00595,-0.00473,-0.01602,0.02411,0.01099,-0.0322,-0.02045,0.01022,-0.0441
3.0835,-0.00443,-0.05112,-0.03326,-0.00656,-0.03143,-0.0412,-0.01678,-0.00839,-0.00519,-0.01831,0.03952,0.009,-0.03067,-0.02136,0.0116,-0.04532
3.084,-0.00565,-0.05356,-0.03403,-0.00519,-0.02823,-0.04318,-0.01724,-0.00732,-0.00595,-0.01785,0.05707,0.00565,-0.03006,-0.02213,0.01144,-0.04654
3.0845,-0.0087,-0.05524,-0.03662,-0.00595,-0.02853,-0.04501,-0.01633,-0.00458,-0.00671,-0.01663,0.07095,0.00427,-0.03098,-0.02197,0.00885,-0.04868
3.085,-0.01114,-0.05478,-0.03845,-0.00732,-0.03067,-0.04517,-0.01328,-0.00351,-0.00732,-0.01434,0.07858,0.00549,-0.03113,-0.02014,0.00732,-0.05035
3.0855,-0.01144,-0.05219,-0.03815,-0.00992,-0.03342,-0.04395,-0.01236,-0.00488,-0.00778,-0.01373,0.08148,0.00626,-0.03128,-0.01892,0.00824,-0.0499
3.086,-0.01099,-0.05035,-0.03555,-0.01251,-0.03464,-0.04288,-0.01266,-0.00748,-0.00824,-0.01343,0.08072,0.00549,-0.03189,-0.01923,0.00916,-0.04791
3.0865,-0.00992,-0.04898,-0.03418,-0.01343,-0.0351,-0.04211,-0.01312,-0.00946,-0.00824,-0.0145,0.07629,0.00381,-0.03174,-0.01984,0.00961,-0.04623
3.087,-0.00671,-0.04807,-0.03387,-0.01358,-0.03387,-0.04257,-0.01328,-0.009,-0.009,-0.01556,0.06607,0.00443,-0.03143,-0.01984,0.00916,-0.04562
3.0875,-0.00336,-0.04669,-0.03387,-0.01251,-0.03311,-0.04272,-0.01282,-0.00626,-0.00885,-0.01511,0.04761,0.00595,-0.03143,-0.01923,0.00916,-0.0444
3.088,-0.00214,-0.04578,-0.03357,-0.01236,-0.03235,-0.04501,-0.01343,-0.00305,-0.009,-0.01587,0.02441,0.00473,-0.0325,-0.01923,0.00885,-0.04227
3.0885,-0.00397,-0.0444,-0.03479,-0.01129,-0.03159,-0.04929,-0.01526,0.0,-0.00839,-0.01907,0.00336,0.00305,-0.03342,-0.02014,0.00885,-0.04135
3.089,-0.00504,-0.04196,-0.03616,-0.00946,-0.03174,-0.05447,-0.01511,0.00305,-0.00702,-0.0235,-0.01083,0.00153,-0.0325,-0.02121,0.009,-0.04211
3.0895,-0.00458,-0.04044,-0.03525,-0.00732,-0.03189,-0.05692,-0.01205,0.00504,-0.00549,-0.02716,-0.02945,0.00214,-0.03113,-0.02182,0.00946,-0.04349
3.09,-0.00366,-0.03952,-0.03418,-0.0058,-0.0325,-0.05569,-0.0087,0.00488,-0.00641,-0.02731,-0.06287,0.00366,-0.03098,-0.02045,0.009,-0.04501
3.0905,-0.0029,-0.03937,-0.03189,-0.00534,-0.03296,-0.0528,-0.00854,0.0029,-0.00839,-0.02579,-0.1062,0.00443,-0.03143,-0.01846,0.00839,-0.04532
3.091,-0.00305,-0.03952,-0.03082,-0.00717,-0.03357,-0.05157,-0.0116,-0.00214,-0.01068,-0.02213,-0.12756,0.00534,-0.03159,-0.01755,0.00854,-0.04471
3.0915,-0.00259,-0.03967,-0.03067,-0.0087,-0.03433,-0.05264,-0.01511,-0.0087,-0.0119,-0.01801,-0.10864,0.00595,-0.03128,-0.01862,0.00809,-0.04303
3.092,-0.00061,-0.04059,-0.03189,-0.01068,-0.03342,-0.05417,-0.01724,-0.01572,-0.01328,-0.01617,-0.06653,0.00519,-0.03189,-0.01984,0.00854,-0.04303
3.0925,0.00107,-0.04074,-0.03342,-0.01038,-0.03281,-0.05356,-0.01801,-0.01831,-0.01526,-0.0148,-0.0267,0.00488,-0.03281,-0.01999,0.009,-0.04349
3.093,0.00275,-0.03983,-0.03571,-0.00946,-0.03281,-0.05127,-0.01724,-0.01434,-0.01709,-0.01419,0.0,0.00443,-0.03342,-0.01999,0.01099,-0.04318
3.0935,0.0032,-0.03738,-0.03723,-0.00931,-0.03342,-0.05005,-0.01404,-0.0061,-0.01801,-0.01465,0.02136,0.00397,-0.03372,-0.01999,0.01053,-0.04227
3.094,0.00336,-0.03632,-0.03799,-0.01129,-0.03403,-0.05035,-0.01282,-0.00015,-0.02014,-0.01556,0.03967,0.00305,-0.03433,-0.01968,0.01022,-0.04044
3.0945,0.0029,-0.03616,-0.03784,-0.01389,-0.03342,-0.05081,-0.01343,0.0,-0.02136,-0.01755,0.05051,0.00137,-0.03433,-0.01999,0.01007,-0.03922
3.095,0.00015,-0.03708,-0.0383,-0.01465,-0.03189,-0.05066,-0.01434,-0.00183,-0.01968,-0.02029,0.05432,0.00122,-0.03464,-0.01968,0.009,-0.03891
3.0955,-0.00336,-0.03754,-0.03723,-0.0145,-0.02975,-0.0499,-0.01419,-0.0029,-0.01434,-0.02136,0.06149,0.00229,-0.03525,-0.02014,0.00732,-0.03937
3.096,-0.00549,-0.03632,-0.03647,-0.01404,-0.02838,-0.04868,-0.01266,-0.0032,-0.00961,-0.01801,0.07324,0.00275,-0.03571,-0.02106,0.00504,-0.03799
3.0965,-0.00626,-0.03555,-0.03632,-0.01389,-0.02945,-0.04791,-0.01266,-0.00168,-0.00671,-0.01282,0.08316,0.00183,-0.03586,-0.02151,0.00626,-0.03677
3.097,-0.00534,-0.03586,-0.03662,-0.01343,-0.03143,-0.04684,-0.01373,-0.00137,-0.00534,-0.01083,0.08118,0.00031,-0.03571,-0.01801,0.00687,-0.03586
3.0975,-0.00549,-0.03708,-0.03799,-0.01282,-0.03357,-0.04608,-0.01495,-0.00122,-0.00244,-0.01419,0.06409,0.00046,-0.03418,-0.01526,0.00671,-0.03784
3.098,-0.00626,-0.03754,-0.03906,-0.01236,-0.03479,-0.04517,-0.01404,-0.00092,0.00092,-0.02014,0.03769,0.00076,-0.03204,-0.01312,0.00702,-0.04044
3.0985,-0.00626,-0.03738,-0.03708,-0.00946,-0.0351,-0.04562,-0.01312,-0.00061,0.00183,-0.0209,0.01419,0.00031,-0.03082,-0.01312,0.00809,-0.04303
3.099,-0.00687,-0.03784,-0.03479,-0.00641,-0.03433,-0.04684,-0.01297,0.00107,-0.00229,-0.01312,0.0032,0.0,-0.03143,-0.01236,0.00809,-0.04471
3.0995,-0.00885,-0.0383,-0.0322,-0.00443,-0.03265,-0.04776,-0.01312,0.00214,-0.00946,-0.00427,0.00153,-0.00031,-0.03296,-0.01144,0.00732,-0.04517
3.1,-0.00977,-0.0386,-0.02991,-0.00458,-0.03098,-0.0473,-0.01373,0.00198,-0.01602,-0.00519,0.00092,-0.00015,-0.03387,-0.01175,0.00641,-0.04303
3.1005,-0.00946,-0.03891,-0.02853,-0.00641,-0.03128,-0.04684,-0.01389,0.0,-0.01999,-0.0174,-0.00351,0.00076,-0.03326,-0.01358,0.00763,-0.03922
3.101,-0.00778,-0.03967,-0.02777,-0.00809,-0.03098,-0.04669,-0.01343,-0.00122,-0.02197,-0.02991,-0.01022,0.0032,-0.03189,-0.0145,0.009,-0.03555
3.1015,-0.00748,-0.04181,-0.0296,-0.00916,-0.03036,-0.04608,-0.01251,-0.00015,-0.0209,-0.03204,-0.01862,0.00504,-0.0325,-0.01541,0.01007,-0.03494
3.102,-0.00702,-0.04288,-0.03281,-0.01022,-0.02945,-0.04547,-0.01266,0.00092,-0.02014,-0.02457,-0.02396,0.00534,-0.03525,-0.01663,0.009,-0.03555
3.1025,-0.0061,-0.04257,-0.03616,-0.00977,-0.0296,-0.04532,-0.0145,0.00122,-0.02167,-0.01434,-0.02563,0.00397,-0.03601,-0.01877,0.00778,-0.0354
3.103,-0.00534,-0.04211,-0.03876,-0.00885,-0.03052,-0.04501,-0.01572,0.00031,-0.0235,-0.00793,-0.02396,0.0032,-0.03448,-0.01907,0.00793,-0.03571
3.1035,-0.00443,-0.04242,-0.03998,-0.00916,-0.0296,-0.04547,-0.01587,-0.00076,-0.02319,-0.00565,-0.02243,0.00443,-0.03159,-0.01892,0.0087,-0.03647
3.104,-0.00458,-0.04272,-0.04059,-0.0116,-0.02823,-0.04608,-0.01755,-0.00183,-0.02075,-0.00336,-0.0238,0.00549,-0.0296,-0.01923,0.00717,-0.03922
3.1045,-0.00366,-0.04242,-0.03952,-0.01434,-0.02747,-0.04623,-0.01892,-0.00412,-0.01907,0.00046,-0.02686,0.00488,-0.03006,-0.01938,0.00519,-0.0415
3.105,-0.00198,-0.04105,-0.03601,-0.01526,-0.02853,-0.04486,-0.02167,-0.00595,-0.02029,0.00275,-0.02823,0.0032,-0.03113,-0.0177,0.00427,-0.04257
3.1055,-0.00137,-0.0412,-0.03464,-0.01541,-0.02975,-0.04303,-0.02243,-0.00671,-0.02289,0.00015,-0.0296,0.0029,-0.03113,-0.01572,0.00473,-0.04303
3.106,-0.00488,-0.04105,-0.03418,-0.01556,-0.03052,-0.04257,-0.02121,-0.00473,-0.02289,-0.00763,-0.03098,0.00488,-0.03143,-0.01587,0.0061,-0.04211
3.1065,-0.00916,-0.0415,-0.03769,-0.0148,-0.0296,-0.0444,-0.01953,-0.0029,-0.01968,-0.0145,-0.03403,0.00732,-0.03159,-0.01755,0.00549,-0.04196
3.107,-0.01114,-0.04135,-0.04181,-0.01404,-0.02991,-0.04593,-0.01678,-0.00244,-0.0174,-0.01587,-0.03647,0.00671,-0.03204,-0.01709,0.00381,-0.04227
3.1075,-0.00839,-0.04196,-0.04303,-0.01251,-0.03036,-0.04745,-0.01587,-0.00214,-0.01801,-0.01205,-0.03464,0.00504,-0.03113,-0.01572,0.00351,-0.04379
3.108,-0.00397,-0.0415,-0.04379,-0.01175,-0.03143,-0.04837,-0.01465,-0.00122,-0.02106,-0.00702,-0.02914,0.00397,-0.02975,-0.01465,0.00519,-0.04547
3.1085,-0.00229,-0.03998,-0.04379,-0.01068,-0.03174,-0.04883,-0.0145,-0.00031,-0.02151,-0.00488,-0.02701,0.0058,-0.03006,-0.01587,0.00717,-0.04578
3.109,-0.0029,-0.03952,-0.04501,-0.01022,-0.0322,-0.04822,-0.01678,0.00031,-0.02075,-0.00397,-0.02899,0.00717,-0.0322,-0.01709,0.00839,-0.04349
3.1095,-0.00534,-0.03937,-0.04623,-0.01038,-0.03098,-0.04852,-0.02151,-0.00046,-0.01968,-0.00397,-0.03235,0.00717,-0.03281,-0.01785,0.01022,-0.03983
3.11,-0.00763,-0.04028,-0.0441,-0.01007,-0.02975,-0.04929,-0.02594,-0.00092,-0.01923,-0.00534,-0.03098,0.00504,-0.03189,-0.01755,0.0119,-0.0351
3.1105,-0.00641,-0.04028,-0.04074,-0.01022,-0.03036,-0.05081,-0.02625,-0.00031,-0.01907,-0.00793,-0.02762,0.00183,-0.03006,-0.0177,0.01251,-0.03311
3.111,-0.00244,-0.03998,-0.03754,-0.00717,-0.03326,-0.05096,-0.02411,0.00153,-0.01923,-0.01022,-0.0264,-0.00031,-0.02869,-0.0177,0.01114,-0.03357
3.1115,0.00107,-0.03967,-0.03555,-0.00198,-0.0351,-0.05035,-0.01724,0.00397,-0.01846,-0.01129,-0.02853,-0.00046,-0.0296,-0.01877,0.00931,-0.03525
3.112,0.00259,-0.03967,-0.03387,0.00641,-0.03326,-0.04959,-0.00977,0.00488,-0.01633,-0.01297,-0.03113,-0.00046,-0.03113,-0.01953,0.00687,-0.03693
3.1125,0.0032,-0.04135,-0.0322,0.0148,-0.03159,-0.04807,-0.00397,0.00519,-0.01404,-0.01434,-0.03128,-0.00244,-0.03342,-0.01999,0.0061,-0.03769
3.113,0.00641,-0.04303,-0.03159,0.01846,-0.02991,-0.04593,-0.00153,0.00656,-0.01282,-0.0174,-0.03113,-0.00519,-0.03418,-0.02045,0.00565,-0.03799
3.1135,0.00916,-0.04257,-0.03235,0.01526,-0.03082,-0.04517,-0.00168,0.00671,-0.01282,-0.01785,-0.03036,-0.00717,-0.03357,-0.01968,0.00641,-0.0383
3.114,0.00992,-0.04135,-0.03387,0.00916,-0.03143,-0.04715,-0.00336,0.00381,-0.01251,-0.01755,-0.0325,-0.00763,-0.03342,-0.01907,0.00732,-0.03876
3.1145,0.00778,-0.04105,-0.03571,0.00473,-0.03204,-0.04929,-0.00778,0.00198,-0.0119,-0.01938,-0.0351,-0.00671,-0.03464,-0.01938,0.00824,-0.03952
3.115,0.00565,-0.04059,-0.03586,0.00092,-0.03128,-0.05112,-0.01282,0.00122,-0.01144,-0.02106,-0.03677,-0.00443,-0.03479,-0.0209,0.0087,-0.03967
3.1155,0.00443,-0.03983,-0.03479,-0.00504,-0.0322,-0.05127,-0.01633,-0.00168,-0.01129,-0.0238,-0.03601,-0.00275,-0.03555,-0.02228,0.00748,-0.04059
3.116,0.00397,-0.03723,-0.03311,-0.01617,-0.03235,-0.05081,-0.01663,-0.00778,-0.01068,-0.0267,-0.03342,-0.00214,-0.03647,-0.02243,0.00565,-0.04135
3.1165,0.00229,-0.03387,-0.03159,-0.02914,-0.03357,-0.0502,-0.01587,-0.01312,-0.01236,-0.02975,-0.03067,-0.00107,-0.03647,-0.02228,0.00488,-0.04181
3.117,0.00015,-0.03296,-0.02991,-0.03937,-0.0322,-0.04822,-0.01602,-0.01328,-0.01434,-0.03265,-0.02975,0.0,-0.0354,-0.02228,0.0058,-0.04181
3.1175,-0.00381,-0.03403,-0.03021,-0.04211,-0.03067,-0.04654,-0.01556,-0.00931,-0.01709,-0.03326,-0.0351,0.00046,-0.03403,-0.02106,0.00717,-0.04166
3.118,-0.00702,-0.03632,-0.02975,-0.03784,-0.02991,-0.04547,-0.01465,-0.00702,-0.01953,-0.03128,-0.05066,0.00061,-0.03418,-0.01999,0.00809,-0.04074
3.1185,-0.00839,-0.03677,-0.0296,-0.03006,-0.03082,-0.04517,-0.01282,-0.00748,-0.02228,-0.02716,-0.07477,0.00031,-0.03632,-0.01968,0.00763,-0.03952
3.119,-0.00916,-0.03708,-0.02914,-0.02365,-0.03128,-0.04471,-0.01266,-0.00885,-0.02563,-0.02472,-0.09415,-0.00015,-0.03815,-0.02029,0.00687,-0.03769
3.1195,-0.009,-0.0383,-0.03006,-0.02197,-0.03143,-0.04471,-0.01358,-0.00839,-0.02701,-0.02533,-0.09949,-0.00076,-0.03708,-0.02045,0.00748,-0.03616
3.12,-0.00992,-0.04059,-0.03098,-0.02045,-0.03067,-0.04486,-0.01373,-0.00732,-0.02548,-0.02716,-0.09216,-0.00015,-0.03433,-0.01999,0.00854,-0.03571
3.1205,-0.01114,-0.04303,-0.02975,-0.01602,-0.03036,-0.04456,-0.01328,-0.00626,-0.02289,-0.02899,-0.07797,-0.00046,-0.03357,-0.01938,0.00946,-0.03754
3.121,-0.0148,-0.04333,-0.02792,-0.009,-0.03021,-0.04501,-0.01083,-0.00443,-0.02304,-0.03021,-0.05676,-0.00137,-0.03265,-0.01907,0.00885,-0.03952
3.1215,-0.02029,-0.04471,-0.02701,-0.0032,-0.03113,-0.04501,-0.00793,-0.0032,-0.02548,-0.03128,-0.0293,-0.00366,-0.03098,-0.01923,0.0087,-0.04074
3.122,-0.02411,-0.04562,-0.0267,0.00092,-0.03174,-0.04562,-0.00732,-0.0032,-0.02884,-0.03189,0.00046,-0.00488,-0.02991,-0.01694,0.00931,-0.04089
3.1225,-0.02365,-0.04654,-0.02563,0.00565,-0.03143,-0.04593,-0.00885,-0.00336,-0.02914,-0.03235,0.02777,-0.00534,-0.03052,-0.01343,0.00946,-0.03983
3.123,-0.01999,-0.04669,-0.02335,0.01266,-0.02975,-0.04608,-0.01114,-0.00351,-0.02701,-0.03235,0.05081,-0.00534,-0.03235,-0.01328,0.00809,-0.03815
3.1235,-0.01617,-0.04791,-0.02228,0.02029,-0.02838,-0.047,-0.01221,-0.00351,-0.02441,-0.03189,0.06882,-0.00473,-0.03372,-0.01526,0.00671,-0.03677
3.124,-0.01526,-0.04929,-0.0235,0.01648,-0.02701,-0.04715,-0.01251,-0.0029,-0.02243,-0.03021,0.07614,-0.00305,-0.03189,-0.01755,0.00732,-0.03769
3.1245,-0.01541,-0.04913,-0.02563,-0.00854,-0.02838,-0.04684,-0.01251,-0.00183,-0.02045,-0.02945,0.0705,-0.00092,-0.03052,-0.01923,0.009,-0.03799
3.125,-0.0116,-0.0473,-0.02655,-0.04181,-0.03082,-0.04715,-0.01358,-0.00183,-0.01724,-0.02792,0.05997,-0.00061,-0.03098,-0.01923,0.00977,-0.03738
3.1255,-0.00626,-0.04562,-0.02731,-0.05463,-0.03235,-0.04898,-0.01434,-0.00198,-0.01434,-0.02411,0.04669,0.00031,-0.03265,-0.01801,0.00809,-0.03647
3.126,-0.00366,-0.04379,-0.0322,-0.03906,-0.03372,-0.05035,-0.01511,-0.00198,-0.01373,-0.02182,0.0296,0.00198,-0.03403,-0.01587,0.00687,-0.03738
3.1265,-0.00595,-0.04272,-0.03891,-0.0148,-0.03326,-0.05035,-0.01526,-0.00137,-0.01358,-0.01541,0.00748,0.0032,-0.03387,-0.01526,0.00671,-0.03967
3.127,-0.00885,-0.0441,-0.04318,-0.00519,-0.03326,-0.04944,-0.01663,-0.00046,-0.01389,-0.00778,-0.01572,0.00336,-0.03464,-0.01633,0.00748,-0.04105
3.1275,-0.00839,-0.04456,-0.04486,-0.00977,-0.03296,-0.04898,-0.01846,-0.00122,-0.01541,0.00168,-0.03387,0.00275,-0.03525,-0.01587,0.00931,-0.0412
3.128,-0.00473,-0.04471,-0.04456,-0.01328,-0.03296,-0.04898,-0.01892,-0.00305,-0.01663,0.00763,-0.04639,0.0029,-0.0354,-0.01419,0.01053,-0.0415
3.1285,0.0,-0.04318,-0.04364,-0.01221,-0.03296,-0.04807,-0.01816,-0.00366,-0.01572,0.00519,-0.05524,0.00259,-0.03311,-0.01526,0.01175,-0.04028
3.129,0.00443,-0.04166,-0.04272,-0.01053,-0.03418,-0.04517,-0.01678,-0.00259,-0.0116,-0.0029,-0.06607,0.00122,-0.03204,-0.01816,0.01114,-0.03906
3.1295,0.00565,-0.04074,-0.04074,-0.0116,-0.03372,-0.04333,-0.01602,-0.00443,-0.00687,-0.00992,-0.07492,-0.00031,-0.03311,-0.01877,0.01007,-0.03738
3.13,0.00549,-0.03922,-0.0386,-0.01266,-0.03052,-0.04303,-0.01617,-0.00854,-0.00305,-0.01282,-0.07751,-0.00153,-0.03418,-0.01617,0.01007,-0.03845
3.1305,0.00488,-0.03754,-0.03799,-0.01083,-0.0293,-0.04486,-0.01526,-0.01282,-0.00107,-0.01694,-0.07034,-0.00198,-0.03326,-0.01358,0.01053,-0.04196
3.131,0.00397,-0.03677,-0.0383,-0.00854,-0.02914,-0.04669,-0.01312,-0.01358,-0.0032,-0.02304,-0.05859,-0.00122,-0.03006,-0.01358,0.00961,-0.04471
3.1315,0.00336,-0.03662,-0.03708,-0.00702,-0.03113,-0.04745,-0.01114,-0.01068,-0.00717,-0.02914,-0.04761,-0.00061,-0.02808,-0.0145,0.00931,-0.04395
3.132,0.00214,-0.0383,-0.03632,-0.00763,-0.03372,-0.04776,-0.01007,-0.00702,-0.00977,-0.03021,-0.03952,-0.00153,-0.02914,-0.01617,0.00809,-0.04227
3.1325,-0.00061,-0.03952,-0.03601,-0.00793,-0.03479,-0.04837,-0.01007,-0.00397,-0.01053,-0.02777,-0.03601,-0.00229,-0.03098,-0.01694,0.00793,-0.04318
3.133,-0.00198,-0.04028,-0.03601,-0.00748,-0.03387,-0.0473,-0.01007,-0.00229,-0.01068,-0.02747,-0.03433,-0.00336,-0.03128,-0.01602,0.00854,-0.04532
3.1335,-0.00259,-0.03983,-0.03418,-0.00549,-0.0322,-0.04578,-0.01022,-0.00122,-0.0119,-0.0293,-0.03418,-0.00366,-0.02991,-0.01511,0.01022,-0.04639
3.134,-0.00183,-0.03876,-0.0325,-0.00565,-0.03082,-0.04593,-0.00992,-0.00092,-0.01434,-0.03021,-0.03403,-0.00412,-0.02823,-0.01678,0.01221,-0.04639
3.1345,-0.00259,-0.03998,-0.03433,-0.00687,-0.03204,-0.04639,-0.01083,-0.00122,-0.01755,-0.03082,-0.03265,-0.00412,-0.02762,-0.01923,0.01144,-0.04562
3.135,-0.00473,-0.04196,-0.03754,-0.00916,-0.03265,-0.04684,-0.01282,-0.00183,-0.02075,-0.02838,-0.03128,-0.00336,-0.02838,-0.02213,0.01022,-0.04532
3.1355,-0.00534,-0.04303,-0.04272,-0.0116,-0.03311,-0.04532,-0.01389,-0.00366,-0.02243,-0.02655,-0.03036,-0.00244,-0.03082,-0.02365,0.00885,-0.04471
3.136,-0.00412,-0.04135,-0.04379,-0.01389,-0.03265,-0.04456,-0.01389,-0.00504,-0.02258,-0.02762,-0.03021,-0.00092,-0.03174,-0.02411,0.009,-0.04456
3.1365,-0.00092,-0.03967,-0.04074,-0.01205,-0.0322,-0.04379,-0.01419,-0.0058,-0.02243,-0.03174,-0.0293,-0.00015,-0.03189,-0.02411,0.0087,-0.04456
3.137,0.00122,-0.03906,-0.03632,-0.00504,-0.03174,-0.0444,-0.01495,-0.00549,-0.0209,-0.03403,-0.02808,-0.00061,-0.03204,-0.02197,0.01007,-0.04501
3.1375,0.00244,-0.03845,-0.03387,0.00565,-0.03326,-0.0441,-0.01495,-0.00458,-0.01709,-0.03479,-0.02609,-0.00061,-0.03159,-0.01984,0.01175,-0.0444
3.138,0.00198,-0.03876,-0.03281,0.01251,-0.0383,-0.04532,-0.01434,-0.00351,-0.01205,-0.03235,-0.02457,-0.00061,-0.03128,-0.02029,0.01328,-0.04349
3.1385,0.00076,-0.03845,-0.03204,0.01373,-0.04623,-0.04669,-0.01312,-0.00061,-0.00824,-0.0296,-0.02502,-0.00076,-0.03204,-0.02243,0.01236,-0.04105
3.139,-0.00076,-0.03845,-0.03342,0.01022,-0.05524,-0.047,-0.01266,0.0032,-0.00671,-0.02625,-0.02609,-0.00061,-0.03281,-0.02289,0.01221,-0.03906
3.1395,-0.00198,-0.03845,-0.03418,0.0032,-0.05692,-0.04791,-0.01236,0.0061,-0.00595,-0.02289,-0.0264,-0.00092,-0.03204,-0.01999,0.0119,-0.03677
3.14,-0.00366,-0.03815,-0.03479,-0.0058,-0.047,-0.04761,-0.01205,0.0058,-0.00534,-0.01999,-0.02518,-0.00122,-0.03098,-0.01602,0.0119,-0.03326
3.1405,-0.0058,-0.03845,-0.03403,-0.01404,-0.03235,-0.04837,-0.01205,0.00412,-0.00641,-0.01877,-0.02304,-0.00168,-0.03036,-0.01511,0.01114,-0.0322
3.141,-0.00778,-0.03967,-0.03601,-0.01862,-0.02182,-0.04837,-0.01236,0.00412,-0.00763,-0.01678,-0.02045,-0.00122,-0.03128,-0.01587,0.00992,-0.03326
3.1415,-0.00839,-0.04105,-0.03845,-0.01953,-0.01755,-0.047,-0.01236,0.00687,-0.00946,-0.01541,-0.01709,-0.00153,-0.03189,-0.01801,0.009,-0.03738
3.142,-0.00626,-0.04181,-0.04028,-0.01892,-0.01465,-0.04517,-0.01205,0.00732,-0.01129,-0.01587,-0.01678,0.0,-0.03204,-0.01984,0.00824,-0.03998
3.1425,-0.00443,-0.04074,-0.0386,-0.0206,-0.01144,-0.04333,-0.01343,0.00046,-0.0116,-0.01663,-0.01877,0.00305,-0.03204,-0.01877,0.00687,-0.04105
3.143,-0.00336,-0.03983,-0.03647,-0.02289,-0.01114,-0.04196,-0.01633,-0.01114,-0.01114,-0.01617,-0.02197,0.0058,-0.03296,-0.01663,0.00595,-0.04074
3.1435,-0.0032,-0.03967,-0.03387,-0.0238,-0.01526,-0.04211,-0.01938,-0.02121,-0.01221,-0.01526,-0.0235,0.00458,-0.03372,-0.01556,0.00656,-0.04211
3.144,-0.00366,-0.04074,-0.03403,-0.02365,-0.02304,-0.04288,-0.01968,-0.02106,-0.01526,-0.0148,-0.0235,0.00198,-0.03326,-0.0174,0.00534,-0.04379
3.1445,-0.00412,-0.04074,-0.03372,-0.02319,-0.02884,-0.04501,-0.01572,-0.01312,-0.01862,-0.0145,-0.02106,0.00092,-0.03265,-0.01984,0.00458,-0.04379
3.145,-0.00519,-0.04028,-0.03464,-0.02243,-0.03036,-0.04776,-0.01251,-0.00534,-0.02213,-0.0145,-0.01724,0.0029,-0.03189,-0.01953,0.0061,-0.04211
3.1455,-0.00671,-0.03967,-0.0351,-0.02167,-0.02945,-0.04929,-0.01266,-0.00168,-0.02411,-0.01419,-0.01617,0.00473,-0.03174,-0.01892,0.00824,-0.0412
3.146,-0.00717,-0.03998,-0.03479,-0.02197,-0.02823,-0.04868,-0.01556,-0.00092,-0.02502,-0.01526,-0.01877,0.0032,-0.03036,-0.01923,0.00916,-0.04074
3.1465,-0.00641,-0.0412,-0.03403,-0.02014,-0.02701,-0.04807,-0.01648,0.00015,-0.0238,-0.01633,-0.02487,0.00015,-0.0296,-0.02045,0.00732,-0.04181
3.147,-0.00595,-0.04074,-0.0325,-0.01587,-0.02609,-0.04883,-0.01419,-0.00031,-0.02182,-0.01678,-0.03128,-0.00275,-0.03082,-0.01938,0.00595,-0.04211
3.1475,-0.00656,-0.03937,-0.03235,-0.01053,-0.02686,-0.05188,-0.01175,-0.00305,-0.02014,-0.01663,-0.03647,-0.00397,-0.03265,-0.01862,0.00687,-0.04135
3.148,-0.00778,-0.03769,-0.03143,-0.00732,-0.03052,-0.05524,-0.01129,-0.00763,-0.01923,-0.01724,-0.03891,-0.00458,-0.03418,-0.01831,0.00809,-0.03983
3.1485,-0.00717,-0.03708,-0.02991,-0.00931,-0.03555,-0.05463,-0.01419,-0.01053,-0.01816,-0.01816,-0.04211,-0.00443,-0.03326,-0.01999,0.00702,-0.03601
3.149,-0.00534,-0.03815,-0.02914,-0.0119,-0.03937,-0.05173,-0.01663,-0.01038,-0.01663,-0.01892,-0.04532,-0.00351,-0.03098,-0.02014,0.00641,-0.03113
3.1495,-0.00244,-0.03983,-0.03021,-0.01221,-0.03952,-0.04944,-0.01724,-0.00885,-0.01358,-0.0174,-0.04395,-0.00351,-0.02823,-0.02213,0.00748,-0.02518
3.15,-0.00031,-0.03967,-0.03098,-0.01099,-0.03647,-0.04852,-0.01633,-0.00641,-0.01022,-0.0148,-0.0351,-0.00412,-0.02808,-0.02319,0.00809,-0.01907
3.1505,-0.00107,-0.03967,-0.03159,-0.0119,-0.03372,-0.04745,-0.01526,-0.00687,-0.009,-0.01221,-0.01831,-0.0061,-0.0296,-0.02304,0.00641,-0.01328
3.151,-0.00214,-0.03983,-0.03159,-0.01862,-0.03357,-0.04547,-0.01373,-0.00702,-0.00946,-0.01083,0.00381,-0.00793,-0.03204,-0.02075,0.00504,-0.00763
3.1515,-0.00137,-0.03906,-0.03036,-0.0293,-0.0351,-0.04318,-0.0119,-0.00717,-0.0116,-0.01083,0.02808,-0.00809,-0.03387,-0.01862,0.00504,-0.00259
3.152,0.00275,-0.03799,-0.03021,-0.03769,-0.03586,-0.04135,-0.00992,-0.00671,-0.01419,-0.00977,0.04654,-0.00549,-0.03448,-0.01938,0.00687,0.00183
3.1525,0.00595,-0.03769,-0.03067,-0.04028,-0.03326,-0.03998,-0.00885,-0.0058,-0.01678,-0.00671,0.05432,-0.00336,-0.03372,-0.02167,0.00916,0.00565
3.153,0.00565,-0.03922,-0.02914,-0.04028,-0.02899,-0.04089,-0.00961,-0.00671,-0.01999,-0.00443,0.05386,-0.00336,-0.03311,-0.02258,0.00977,0.00702
3.1535,0.00259,-0.03952,-0.02258,-0.04074,-0.02686,-0.04211,-0.01083,-0.00885,-0.02182,-0.00427,0.05096,-0.00305,-0.03235,-0.02106,0.00885,0.00519
3.154,0.0,-0.03967,-0.01343,-0.04242,-0.02548,-0.04211,-0.01175,-0.01144,-0.02258,-0.0058,0.04501,-0.00107,-0.03204,-0.01831,0.00671,0.00366
3.1545,-0.00153,-0.03937,-0.0087,-0.03998,-0.02609,-0.04028,-0.01251,-0.01236,-0.02197,-0.00885,0.03708,0.00092,-0.03281,-0.01709,0.0058,0.00183
3.155,-0.00381,-0.04013,-0.00824,-0.03265,-0.0264,-0.03922,-0.01328,-0.01053,-0.01984,-0.01144,0.02701,0.00259,-0.03342,-0.0174,0.00626,0.0
3.1555,-0.009,-0.04059,-0.01328,-0.01816,-0.02731,-0.04135,-0.0145,-0.00793,-0.0174,-0.01358,0.01709,0.0029,-0.03311,-0.01984,0.00565,-0.00397
3.156,-0.01617,-0.04211,-0.02014,0.00961,-0.02792,-0.04562,-0.01633,-0.00687,-0.01526,-0.01465,0.00839,0.00183,-0.03433,-0.02197,0.0061,-0.00839
3.1565,-0.02274,-0.04318,-0.02792,0.05112,-0.02838,-0.05203,-0.01801,-0.00671,-0.01541,-0.01694,0.00122,0.00107,-0.03586,-0.02319,0.00626,-0.01251
3.157,-0.02548,-0.04227,-0.03586,0.09262,-0.0296,-0.05814,-0.01831,-0.00565,-0.01663,-0.0206,-0.00229,0.00168,-0.03769,-0.02426,0.00793,-0.01572
3.1575,-0.02487,-0.04166,-0.03952,0.10651,-0.02975,-0.0618,-0.01694,-0.00473,-0.01907,-0.02365,-0.00565,0.00244,-0.03662,-0.02502,0.00916,-0.01999
3.158,-0.02304,-0.04303,-0.04166,0.07904,-0.03265,-0.06088,-0.01495,-0.00427,-0.02151,-0.0267,-0.01389,0.00305,-0.03433,-0.02457,0.00946,-0.02518
3.1585,-0.0206,-0.04425,-0.04288,0.03174,-0.03571,-0.05661,-0.01617,-0.00534,-0.02136,-0.02762,-0.02884,0.00153,-0.03296,-0.02319,0.00931,-0.02991
3.159,-0.01923,-0.04456,-0.04669,-0.00076,-0.03723,-0.05295,-0.0177,-0.00595,-0.01602,-0.0264,-0.04562,0.00076,-0.03265,-0.02136,0.00977,-0.03372
3.1595,-0.01831,-0.04364,-0.05188,-0.0087,-0.03632,-0.05112,-0.01846,-0.00412,-0.00809,-0.02594,-0.0563,0.00137,-0.03189,-0.01968,0.00977,-0.0354
3.16,-0.01633,-0.04166,-0.05676,-0.00595,-0.03418,-0.04974,-0.01755,-0.00107,-0.00214,-0.02533,-0.05676,0.00198,-0.03036,-0.01816,0.00885,-0.03693
3.1605,-0.01266,-0.03906,-0.06195,-0.00687,-0.03296,-0.04898,-0.01602,0.00137,-0.00092,-0.02411,-0.05157,0.00092,-0.0296,-0.0177,0.00748,-0.03922
3.161,-0.00702,-0.03632,-0.06439,-0.00992,-0.03357,-0.04669,-0.01526,0.00244,-0.00198,-0.02121,-0.04639,-0.00076,-0.02914,-0.0177,0.00793,-0.04227
3.1615,-0.00214,-0.03342,-0.06271,-0.01099,-0.03479,-0.04562,-0.01297,0.00504,-0.0029,-0.01877,-0.04105,-0.00137,-0.03067,-0.01755,0.00977,-0.04501
3.162,-0.00015,-0.03159,-0.05768,-0.01236,-0.03464,-0.04471,-0.01205,0.00778,-0.00565,-0.01968,-0.03281,-0.00015,-0.03174,-0.01755,0.01099,-0.04623
3.1625,0.00076,-0.03052,-0.05234,-0.01511,-0.03372,-0.04623,-0.01205,0.0087,-0.00748,-0.02075,-0.0238,0.00137,-0.03204,-0.01724,0.0119,-0.04745
3.163,0.00198,-0.03159,-0.04929,-0.01572,-0.03326,-0.04791,-0.01175,0.00778,-0.00595,-0.02121,-0.01816,0.00092,-0.03143,-0.01724,0.01068,-0.04822
3.1635,0.00443,-0.03296,-0.04745,-0.01312,-0.03326,-0.04883,-0.01129,0.00443,-0.00168,-0.0206,-0.01587,0.00015,-0.03174,-0.01724,0.00931,-0.0502
3.164,0.00656,-0.03433,-0.04562,-0.01236,-0.03265,-0.04837,-0.0116,0.00198,-0.00229,-0.02029,-0.01694,0.00061,-0.03235,-0.0174,0.00916,-0.05234
3.1645,0.00748,-0.03601,-0.04318,-0.01312,-0.03174,-0.04593,-0.0116,0.00183,-0.00641,-0.01831,-0.0174,0.00259,-0.0325,-0.01816,0.01007,-0.05371
3.165,0.00717,-0.03784,-0.04044,-0.01144,-0.03174,-0.04486,-0.01175,0.00092,-0.01099,-0.01465,-0.01831,0.0032,-0.03265,-0.0177,0.00961,-0.05569
3.1655,0.00565,-0.03906,-0.03876,-0.00763,-0.03265,-0.04745,-0.01236,-0.00275,-0.01328,-0.0116,-0.0238,0.00122,-0.03342,-0.01602,0.00931,-0.05676
3.166,0.00397,-0.03891,-0.03601,-0.00488,-0.03601,-0.05203,-0.01328,-0.009,-0.01465,-0.009,-0.0444,-0.00015,-0.03387,-0.0148,0.00809,-0.05829
3.1665,0.00244,-0.03845,-0.03204,-0.0058,-0.03738,-0.05493,-0.01495,-0.01358,-0.01602,-0.00534,-0.08636,0.00031,-0.03372,-0.01434,0.00839,-0.05905
3.167,0.00076,-0.03967,-0.02869,-0.00946,-0.03677,-0.05493,-0.0145,-0.01221,-0.01709,-0.00229,-0.13184,0.00183,-0.0325,-0.01526,0.01114,-0.06088
3.1675,-0.00061,-0.04272,-0.02716,-0.01068,-0.03662,-0.05234,-0.01282,-0.00885,-0.0174,-0.00046,-0.14496,0.00336,-0.03204,-0.01572,0.01236,-0.06256
3.168,-0.00198,-0.04547,-0.02625,-0.01022,-0.03799,-0.05051,-0.01099,-0.00702,-0.01511,-0.00107,-0.1152,0.00443,-0.03326,-0.01678,0.01221,-0.06409
3.1685,-0.00259,-0.0473,-0.02472,-0.00824,-0.03815,-0.0502,-0.01068,-0.00671,-0.00977,-0.0032,-0.07706,0.0058,-0.03448,-0.0177,0.00946,-0.06424
3.169,-0.0032,-0.0499,-0.02533,-0.00626,-0.03738,-0.04929,-0.01266,-0.00671,-0.00412,-0.00397,-0.06241,0.00656,-0.03342,-0.01923,0.00732,-0.06348
3.1695,-0.00412,-0.05219,-0.0264,-0.00366,-0.03647,-0.04715,-0.0148,-0.00504,-0.00305,-0.00366,-0.06287,0.0061,-0.03204,-0.01984,0.00702,-0.06119
3.17,-0.00504,-0.05417,-0.02823,-0.00275,-0.03632,-0.04608,-0.01648,-0.00275,-0.01053,-0.00366,-0.05356,0.00366,-0.03143,-0.01999,0.0087,-0.05905
3.1705,-0.00671,-0.05478,-0.03052,-0.00275,-0.0351,-0.04608,-0.01602,0.00031,-0.02701,-0.00443,-0.03525,0.00076,-0.03265,-0.01892,0.01007,-0.05722
3.171,-0.00656,-0.05478,-0.03235,-0.00366,-0.03357,-0.04623,-0.01358,0.00397,-0.047,-0.01144,-0.0238,-0.00168,-0.03311,-0.01816,0.01053,-0.05569
3.1715,-0.00519,-0.05371,-0.03326,-0.00275,-0.03342,-0.04501,-0.00961,0.00671,-0.06042,-0.03159,-0.02319,-0.00366,-0.0325,-0.01801,0.00916,-0.05493
3.172,-0.00458,-0.05234,-0.03281,-0.00137,-0.03311,-0.04517,-0.00748,0.00595,-0.06226,-0.06714,-0.02808,-0.00717,-0.0322,-0.01846,0.00748,-0.0563
3.1725,-0.00534,-0.05066,-0.0325,-0.00122,-0.03113,-0.04608,-0.00809,0.00137,-0.056,-0.10101,-0.03723,-0.01022,-0.03311,-0.01877,0.0058,-0.05814
3.173,-0.00488,-0.04807,-0.03189,-0.00244,-0.02655,-0.04761,-0.01175,-0.00305,-0.0473,-0.11169,-0.05722,-0.00977,-0.03448,-0.0177,0.00626,-0.05814
3.1735,-0.00412,-0.04501,-0.03311,-0.00381,-0.02228,-0.04837,-0.01648,-0.00412,-0.03845,-0.09811,-0.08545,-0.00916,-0.03464,-0.01678,0.00763,-0.0563
3.174,-0.00229,-0.04379,-0.03311,-0.00641,-0.0206,-0.04745,-0.01877,-0.00443,-0.02899,-0.07416,-0.11505,-0.01175,-0.0322,-0.01541,0.00946,-0.05325
3.1745,-0.00076,-0.04379,-0.03098,-0.01114,-0.02136,-0.04623,-0.01907,-0.00427,-0.0209,-0.05341,-0.14175,-0.01556,-0.03113,-0.01495,0.01007,-0.05051
3.175,0.00061,-0.0441,-0.02838,-0.01801,-0.02319,-0.04547,-0.02014,-0.00443,-0.01694,-0.03525,-0.16098,-0.01526,-0.03189,-0.01556,0.00916,-0.04929
3.1755,0.00153,-0.04395,-0.02594,-0.02396,-0.02518,-0.04593,-0.02197,-0.00504,-0.01694,-0.02106,-0.16907,-0.00977,-0.03265,-0.01648,0.00778,-0.04974
3.176,0.00183,-0.04318,-0.02686,-0.02686,-0.02441,-0.04776,-0.02213,-0.00488,-0.01816,-0.00763,-0.15945,-0.00076,-0.03143,-0.01801,0.00793,-0.0502
3.1765,0.00122,-0.04166,-0.02747,-0.02686,-0.02548,-0.05081,-0.01831,-0.0032,-0.01633,0.00397,-0.12497,0.00977,-0.03006,-0.01907,0.0087,-0.04944
3.177,0.00076,-0.03937,-0.02777,-0.02686,-0.02609,-0.05325,-0.01343,-0.00214,-0.01251,0.01221,-0.07599,0.01877,-0.03021,-0.0174,0.009,-0.047
3.1775,0.00137,-0.03906,-0.02762,-0.02853,-0.02625,-0.05356,-0.01282,-0.00061,-0.00824,0.01587,-0.03784,0.02319,-0.03128,-0.0174,0.00931,-0.04501
3.178,0.00351,-0.03891,-0.02716,-0.02853,-0.0267,-0.05112,-0.01511,0.0,-0.00565,0.0145,-0.02365,0.02228,-0.03296,-0.01846,0.00931,-0.0441
3.1785,0.0032,-0.03845,-0.02716,-0.02563,-0.02655,-0.04898,-0.01663,0.00076,-0.0032,0.00946,-0.02151,0.02075,-0.03448,-0.01907,0.01038,-0.04333
3.179,0.00061,-0.03677,-0.02655,-0.02045,-0.02808,-0.04868,-0.01663,0.00015,-0.00076,0.00427,-0.01373,0.02075,-0.0351,-0.01938,0.00992,-0.04211
3.1795,-0.0032,-0.03433,-0.02441,-0.01648,-0.03098,-0.0499,-0.01526,-0.00107,0.00092,0.0,0.00107,0.02182,-0.03494,-0.01831,0.00885,-0.03891
3.18,-0.00565,-0.03128,-0.02365,-0.01495,-0.0322,-0.05081,-0.0145,-0.00031,0.00092,-0.00092,0.01831,0.02045,-0.03387,-0.01862,0.009,-0.03448
3.1805,-0.00656,-0.02823,-0.02457,-0.01556,-0.03235,-0.05112,-0.01511,0.00168,-0.00107,0.00122,0.03769,0.01678,-0.03189,-0.01923,0.01022,-0.03281
3.181,-0.00626,-0.02472,-0.02716,-0.01602,-0.03143,-0.0502,-0.01877,0.00366,-0.00305,0.00244,0.05402,0.01266,-0.03128,-0.01907,0.01144,-0.03311
3.1815,-0.00687,-0.01953,-0.03113,-0.0148,-0.0322,-0.05035,-0.02274,0.00305,-0.0032,-0.00046,0.0621,0.00916,-0.03281,-0.01785,0.01099,-0.03479
3.182,-0.01022,-0.01343,-0.03311,-0.01236,-0.03387,-0.0502,-0.0264,0.00015,-0.00351,-0.00717,0.06104,0.00519,-0.03571,-0.01709,0.01007,-0.03586
3.1825,-0.01419,-0.01129,-0.03342,-0.01022,-0.03555,-0.04898,-0.02701,-0.00183,-0.00397,-0.01343,0.05325,0.00168,-0.03784,-0.01816,0.01007,-0.03647
3.183,-0.01785,-0.01587,-0.03128,-0.00977,-0.03448,-0.04776,-0.02548,-0.0029,-0.00595,-0.01511,0.04562,-0.00061,-0.03754,-0.01892,0.01083,-0.03662
3.1835,-0.01968,-0.02579,-0.0325,-0.00946,-0.03296,-0.04745,-0.02411,-0.00244,-0.00839,-0.01373,0.0412,0.0,-0.03677,-0.01831,0.01129,-0.03571
3.184,-0.01862,-0.03662,-0.03372,-0.01083,-0.03128,-0.04715,-0.02243,-0.00076,-0.01083,-0.01373,0.0383,0.00137,-0.03586,-0.01831,0.01099,-0.03571
3.1845,-0.01495,-0.04547,-0.03204,-0.01129,-0.02884,-0.04654,-0.02075,0.00122,-0.01221,-0.01617,0.03525,0.00259,-0.0351,-0.02182,0.009,-0.03738
3.185,-0.01022,-0.05188,-0.0293,-0.01068,-0.02808,-0.04608,-0.01678,0.00214,-0.01221,-0.0174,0.02914,0.00275,-0.03525,-0.02411,0.00702,-0.03967
3.1855,-0.00595,-0.05447,-0.02731,-0.01053,-0.0296,-0.04608,-0.00778,0.0029,-0.01038,-0.01572,0.02502,0.00214,-0.03555,-0.02335,0.0061,-0.04059
3.186,-0.00336,-0.05524,-0.02975,-0.01007,-0.03235,-0.04745,0.00336,0.0029,-0.0087,-0.01404,0.02487,0.00244,-0.03586,-0.02014,0.00534,-0.04135
3.1865,-0.00183,-0.05646,-0.03571,-0.00961,-0.03235,-0.0473,0.00778,0.00214,-0.00809,-0.01297,0.02945,0.00153,-0.03448,-0.01724,0.00549,-0.04135
3.187,-0.00122,-0.05768,-0.04196,-0.00793,-0.03174,-0.0473,0.00336,0.00137,-0.009,-0.01297,0.03571,0.00031,-0.03357,-0.01709,0.00702,-0.04318
3.1875,-0.00076,-0.06027,-0.04868,-0.00809,-0.03189,-0.04776,-0.00641,-0.00076,-0.01083,-0.01404,0.03967,-0.00107,-0.03448,-0.01816,0.00809,-0.04471
3.188,0.0,-0.0621,-0.05157,-0.01007,-0.03326,-0.04868,-0.01144,-0.0032,-0.01144,-0.01541,0.0386,-0.00153,-0.03555,-0.01892,0.00763,-0.0441
3.1885,0.00168,-0.06226,-0.0531,-0.01328,-0.03418,-0.04913,-0.0119,-0.00351,-0.01099,-0.01602,0.03479,-0.00122,-0.03525,-0.01862,0.00778,-0.04272
3.189,0.00412,-0.06271,-0.05203,-0.01541,-0.03143,-0.04669,-0.0119,-0.00244,-0.01114,-0.01465,0.03006,-0.00031,-0.03403,-0.01892,0.00763,-0.04196
3.1895,0.00946,-0.06256,-0.05035,-0.01785,-0.02853,-0.04227,-0.01221,-0.00015,-0.01068,-0.01358,0.02548,0.00076,-0.03311,-0.01801,0.00793,-0.04288
3.19,0.0145,-0.05844,-0.04669,-0.01923,-0.02731,-0.04105,-0.01236,0.00198,-0.00977,-0.01343,0.01984,0.00092,-0.03265,-0.0177,0.00885,-0.04517
3.1905,0.01709,-0.05371,-0.04272,-0.01892,-0.02853,-0.0412,-0.0119,0.00412,-0.009,-0.01434,0.0119,-0.00061,-0.03174,-0.01587,0.00992,-0.047
3.191,0.01495,-0.04852,-0.03906,-0.01617,-0.0293,-0.04272,-0.01129,0.00473,-0.00824,-0.01434,0.00229,-0.0029,-0.03113,-0.01511,0.01053,-0.04745
3.1915,0.00961,-0.04608,-0.0354,-0.0145,-0.02747,-0.04242,-0.01038,0.00336,-0.00885,-0.01358,-0.00916,-0.00412,-0.03006,-0.01602,0.01175,-0.04776
3.192,0.00229,-0.04486,-0.03189,-0.01495,-0.02563,-0.04135,-0.00977,0.00122,-0.00961,-0.01221,-0.02365,-0.00366,-0.03021,-0.01846,0.01129,-0.04639
3.1925,-0.00534,-0.04456,-0.02899,-0.01663,-0.02472,-0.04074,-0.0119,-0.00153,-0.01083,-0.01175,-0.03891,-0.00244,-0.03067,-0.02075,0.00839,-0.04501
3.193,-0.01053,-0.04562,-0.02808,-0.01694,-0.02518,-0.04196,-0.01495,-0.00397,-0.01205,-0.01221,-0.04852,-0.00107,-0.03036,-0.0209,0.00748,-0.04578
3.1935,-0.01221,-0.04669,-0.02853,-0.01511,-0.02747,-0.04288,-0.01785,-0.00488,-0.0119,-0.0119,-0.04776,-0.00122,-0.0296,-0.01938,0.00702,-0.047
3.194,-0.01038,-0.04639,-0.03021,-0.01312,-0.0293,-0.04379,-0.0209,-0.00305,-0.0116,-0.01205,-0.03433,-0.00244,-0.03006,-0.0177,0.00916,-0.04807
3.1945,-0.00687,-0.04547,-0.03082,-0.00992,-0.03098,-0.04486,-0.0238,-0.00076,-0.01175,-0.01251,-0.01297,-0.00366,-0.03006,-0.01724,0.00916,-0.04852
3.195,-0.00748,-0.04318,-0.03021,-0.0058,-0.03174,-0.04639,-0.02365,0.00107,-0.01297,-0.01022,0.01404,-0.0029,-0.02884,-0.01816,0.00687,-0.04898
3.1955,-0.0119,-0.04227,-0.03128,-0.00183,-0.03281,-0.04837,-0.02121,-0.00015,-0.01358,-0.00793,0.0473,-0.00153,-0.02747,-0.01846,0.00565,-0.05051
3.196,-0.01678,-0.04181,-0.03448,-0.00336,-0.03418,-0.05096,-0.01816,-0.00244,-0.01434,-0.00626,0.08438,-0.00031,-0.02747,-0.01755,0.00381,-0.05188
3.1965,-0.01816,-0.04181,-0.03906,-0.0058,-0.0351,-0.05295,-0.01678,-0.00534,-0.01556,-0.00534,0.12268,-0.00107,-0.02945,-0.01556,0.00458,-0.05219
3.197,-0.0174,-0.04211,-0.04135,-0.00778,-0.0351,-0.05264,-0.01862,-0.00595,-0.01617,-0.00626,0.15793,-0.00305,-0.03159,-0.01465,0.00641,-0.05371
3.1975,-0.01633,-0.04135,-0.04242,-0.00671,-0.03403,-0.05005,-0.02228,-0.00443,-0.01785,-0.00793,0.18326,-0.00488,-0.03311,-0.01511,0.00809,-0.05676
3.198,-0.01465,-0.04105,-0.04181,-0.00534,-0.03235,-0.04913,-0.02518,-0.00397,-0.01923,-0.00946,0.19165,-0.00595,-0.03296,-0.01816,0.00854,-0.05859
3.1985,-0.01266,-0.04013,-0.04074,-0.0029,-0.03067,-0.0499,-0.02762,-0.00656,-0.01892,-0.01083,0.17944,-0.00565,-0.03174,-0.01984,0.00763,-0.05875
3.199,-0.01266,-0.03952,-0.03967,0.00031,-0.02869,-0.05066,-0.03067,-0.00854,-0.01663,-0.0116,0.15366,-0.00504,-0.03128,-0.01953,0.00702,-0.05768
3.1995,-0.01312,-0.0383,-0.03799,0.00259,-0.0264,-0.04974,-0.03189,-0.00824,-0.01373,-0.0116,0.12268,-0.00549,-0.03098,-0.0174,0.00732,-0.05646
3.2,-0.0116,-0.0354,-0.03479,-0.0029,-0.02655,-0.0473,-0.02945,-0.00549,-0.01236,-0.01099,0.09399,-0.00732,-0.02991,-0.01587,0.00793,-0.05661
3.2005,-0.00702,-0.03403,-0.03113,-0.01938,-0.02945,-0.04623,-0.02121,-0.00229,-0.01404,-0.00961,0.06958,-0.00824,-0.02899,-0.01617,0.0087,-0.05692
3.201,-0.00229,-0.03433,-0.0293,-0.0351,-0.03601,-0.04608,-0.00885,-0.00275,-0.0177,-0.01068,0.04761,-0.00626,-0.02792,-0.01801,0.00793,-0.05615
3.2015,-0.00061,-0.03571,-0.02792,-0.03387,-0.04196,-0.04623,0.00259,-0.00275,-0.02182,-0.01328,0.0322,-0.00427,-0.02869,-0.01846,0.00687,-0.056
3.202,-0.0029,-0.03296,-0.02579,-0.01877,-0.04532,-0.04578,0.0061,-0.00198,-0.0235,-0.01526,0.02563,-0.00534,-0.03082,-0.01831,0.00702,-0.05692
3.2025,-0.00626,-0.02869,-0.0209,-0.00717,-0.04578,-0.04654,0.00153,0.00153,-0.02487,-0.01617,0.0267,-0.00748,-0.03281,-0.01801,0.00809,-0.05783
3.203,-0.00824,-0.02563,-0.01709,-0.00793,-0.04257,-0.04822,-0.00519,0.0029,-0.02518,-0.01984,0.02777,-0.00702,-0.03464,-0.01923,0.01053,-0.05676
3.2035,-0.00809,-0.02594,-0.01724,-0.01343,-0.03891,-0.04791,-0.00946,0.00183,-0.02487,-0.02487,0.02396,-0.0061,-0.03601,-0.02045,0.0119,-0.05478
3.204,-0.00748,-0.02838,-0.01938,-0.01419,-0.03632,-0.04745,-0.00977,-0.00229,-0.02487,-0.0296,0.01709,-0.00549,-0.03525,-0.02136,0.01129,-0.05402
3.2045,-0.00778,-0.02914,-0.02319,-0.01114,-0.03647,-0.04562,-0.00916,-0.00687,-0.02487,-0.03204,0.01328,-0.0058,-0.03342,-0.0209,0.01053,-0.05615
3.205,-0.01114,-0.03006,-0.02701,-0.00916,-0.03754,-0.04547,-0.00824,-0.01099,-0.02426,-0.03189,0.01404,-0.00671,-0.03098,-0.02075,0.00946,-0.05829
3.2055,-0.01755,-0.03159,-0.02914,-0.00977,-0.03647,-0.04562,-0.009,-0.01114,-0.02304,-0.0325,0.01663,-0.00687,-0.03067,-0.02075,0.00839,-0.05142
3.206,-0.02197,-0.03448,-0.03296,-0.00946,-0.0354,-0.04456,-0.00946,-0.009,-0.02014,-0.0322,0.02029,-0.00534,-0.03113,-0.01999,0.00778,-0.02441
3.2065,-0.0206,-0.03738,-0.03342,-0.00793,-0.03479,-0.04272,-0.01083,-0.00626,-0.01556,-0.03143,0.0267,-0.00351,-0.03113,-0.01724,0.00778,0.0238
3.207,-0.01343,-0.03906,-0.03418,-0.00793,-0.0354,-0.04013,-0.01266,-0.00656,-0.01236,-0.0325,0.03571,-0.00183,-0.03143,-0.01434,0.0087,0.07095
3.2075,-0.00626,-0.04044,-0.03632,-0.01007,-0.03632,-0.0386,-0.01266,-0.0061,-0.01144,-0.03571,0.04028,-0.00015,-0.03143,-0.01343,0.01129,0.09064
3.208,-0.00168,-0.04379,-0.03998,-0.01129,-0.03571,-0.03952,-0.01114,-0.00381,-0.0119,-0.03891,0.03784,-0.00015,-0.0322,-0.01434,0.0119,0.08224
3.2085,0.00168,-0.04471,-0.04333,-0.01114,-0.03433,-0.04074,-0.00824,-0.0032,-0.0119,-0.03754,0.03174,-0.00214,-0.0325,-0.01556,0.01144,0.06729
3.209,0.00488,-0.04364,-0.04395,-0.00931,-0.03357,-0.04272,-0.00824,-0.00381,-0.01022,-0.02701,0.02487,-0.00305,-0.03281,-0.01526,0.01053,0.0589
3.2095,0.00809,-0.04196,-0.04196,-0.00778,-0.03265,-0.04684,-0.00885,-0.00595,-0.00793,-0.00656,0.01984,-0.00122,-0.03143,-0.0145,0.00854,0.05249
