time,RectFemL,VastusMedL,VastusLatL,TibAntL,HamMedL,HamLatL,GastroMedL,GastroLatL,RectFemR,VastusMedR,VastusLatR,TibAntR,HamMedR,HamLatR,GastroMedR,GastroLatR
9.98,-0.00214,-0.04227,-0.03159,-0.00687,-0.03036,-0.05188,0.00763,0.00763,-0.02579,-0.05905,-0.2121,0.01297,-0.00015,-0.04669,0.00793,-0.04761
9.9805,-0.00412,-0.03983,-0.0322,-0.00824,-0.02975,-0.05035,0.00183,0.0351,-0.02502,-0.05402,-0.23392,0.02228,0.00137,-0.05051,0.00916,-0.05127
9.981,-0.00534,-0.03906,-0.03204,-0.01038,-0.03082,-0.04791,-0.00259,0.06683,-0.0238,-0.0499,-0.25986,0.02304,-0.00015,-0.04456,0.01038,-0.05386
9.9815,-0.00412,-0.04028,-0.03265,-0.01251,-0.03281,-0.04898,-0.00626,0.08392,-0.02426,-0.04456,-0.28656,0.01816,-0.00336,-0.02274,0.01022,-0.05539
9.982,-0.0029,-0.04135,-0.03418,-0.01404,-0.03357,-0.04776,-0.01083,0.07263,-0.0264,-0.04028,-0.31128,0.01389,-0.00656,0.00702,0.00748,-0.0563
9.9825,-0.00305,-0.0415,-0.03448,-0.01389,-0.03265,-0.04868,-0.01587,0.04013,-0.02594,-0.03647,-0.32883,0.01556,-0.00961,0.03815,0.0058,-0.05646
9.983,-0.00381,-0.04135,-0.03342,-0.0119,-0.03128,-0.04837,-0.01953,0.01083,-0.02182,-0.03418,-0.33936,0.01938,-0.01144,0.06561,0.00565,-0.05661
9.9835,-0.00595,-0.04059,-0.03357,-0.01007,-0.03067,-0.04837,-0.02213,0.00183,-0.02014,-0.03311,-0.34485,0.02319,-0.01328,0.07935,0.00641,-0.05569
9.984,-0.00656,-0.03967,-0.03494,-0.00946,-0.03082,-0.04791,-0.02502,0.00977,-0.02319,-0.03159,-0.34744,0.02457,-0.01434,0.07294,0.00702,-0.05463
9.9845,-0.00671,-0.03937,-0.03616,-0.01053,-0.02945,-0.04822,-0.02777,0.01892,-0.02731,-0.02899,-0.35004,0.02213,-0.01511,0.05157,0.00671,-0.05417
9.985,-0.00641,-0.03906,-0.03555,-0.01144,-0.02884,-0.04929,-0.02716,0.0206,-0.02655,-0.02518,-0.35278,0.01694,-0.01678,0.02029,0.00763,-0.05341
9.9855,-0.00656,-0.03876,-0.03448,-0.01205,-0.02975,-0.05035,-0.02472,0.01724,-0.02289,-0.01953,-0.35538,0.01282,-0.01862,-0.02533,0.00809,-0.0528
9.986,-0.00656,-0.03998,-0.03448,-0.01221,-0.03067,-0.04929,-0.02258,0.01404,-0.01999,-0.01282,-0.35919,0.01129,-0.01862,-0.08148,0.00839,-0.05234
9.9865,-0.00702,-0.04074,-0.03418,-0.0116,-0.03113,-0.04883,-0.0206,0.01266,-0.01877,-0.00641,-0.36407,0.01068,-0.01633,-0.1181,0.00763,-0.05188
9.987,-0.00656,-0.03937,-0.03403,-0.01099,-0.03036,-0.04776,-0.01816,0.0116,-0.01648,-0.00153,-0.37109,0.00732,-0.01358,-0.10941,0.00793,-0.05234
9.9875,-0.00565,-0.03815,-0.03189,-0.0116,-0.03082,-0.0473,-0.01648,0.01053,-0.0145,-0.00061,-0.37888,0.0029,-0.01389,-0.07126,0.009,-0.05386
9.988,-0.00595,-0.03937,-0.03067,-0.01312,-0.03036,-0.04761,-0.0148,0.00931,-0.01266,-0.00366,-0.38544,-0.00534,-0.01602,-0.0386,0.00931,-0.05646
9.9885,-0.0058,-0.04181,-0.03189,-0.01312,-0.03052,-0.04913,-0.01404,0.00748,-0.01297,-0.00809,-0.3949,-0.01846,-0.02014,-0.02975,0.00885,-0.05753
9.989,-0.00565,-0.04211,-0.03403,-0.01328,-0.03189,-0.04715,-0.01266,0.00671,-0.0148,-0.00687,-0.40573,-0.03479,-0.02228,-0.03082,0.0087,-0.05676
9.9895,-0.00412,-0.04028,-0.03525,-0.01266,-0.03189,-0.0473,-0.01343,0.00763,-0.01602,-0.00305,-0.41641,-0.05157,-0.02289,-0.02991,0.0087,-0.05539
9.99,-0.00244,-0.03754,-0.03418,-0.01144,-0.03067,-0.04578,-0.01694,0.00687,-0.01633,0.00214,-0.4306,-0.06256,-0.02289,-0.02579,0.009,-0.05356
9.9905,-0.00259,-0.03754,-0.03174,-0.01022,-0.03021,-0.047,-0.02716,0.00351,-0.01633,0.00443,-0.4567,-0.0679,-0.0235,-0.02426,0.009,-0.0528
9.991,-0.0032,-0.0386,-0.03143,-0.01007,-0.02991,-0.04593,-0.04562,0.00198,-0.01572,0.00565,-0.50064,-0.06683,-0.0235,-0.02518,0.00977,-0.05325
9.9915,-0.00412,-0.04013,-0.03235,-0.01038,-0.03067,-0.04608,-0.07111,0.00336,-0.01511,0.00595,-0.55634,-0.05569,-0.02167,-0.0264,0.00992,-0.05478
9.992,-0.00443,-0.03952,-0.03357,-0.0087,-0.0322,-0.04562,-0.09003,0.00488,-0.01328,0.00656,-0.60043,-0.03418,-0.0206,-0.02502,0.00961,-0.05585
9.9925,-0.00473,-0.0386,-0.03403,-0.00778,-0.03403,-0.04639,-0.08911,0.00473,-0.01038,0.00656,-0.61844,-0.00549,-0.02121,-0.01907,0.00916,-0.05615
9.993,-0.00412,-0.03754,-0.03464,-0.00763,-0.03311,-0.04807,-0.06683,0.00427,-0.00732,0.00687,-0.62469,0.02106,-0.02151,-0.00504,0.00961,-0.05341
9.9935,-0.00412,-0.03738,-0.03601,-0.00854,-0.03036,-0.04974,-0.03662,0.00397,-0.00595,0.00626,-0.64774,0.03128,-0.01602,0.01389,0.01068,-0.04929
9.994,-0.00381,-0.03723,-0.03708,-0.00885,-0.02899,-0.05157,-0.01053,0.00137,-0.0061,0.00534,-0.71243,0.01678,-0.00687,0.02731,0.01175,-0.04684
9.9945,-0.00473,-0.03784,-0.03571,-0.00702,-0.03098,-0.05203,0.00931,-0.00381,-0.00473,0.00397,-0.84824,-0.01831,-0.00427,0.02472,0.01175,-0.04791
9.995,-0.00473,-0.03876,-0.03357,-0.00488,-0.03433,-0.05203,0.02533,-0.00732,-0.00153,0.00641,-1.05621,-0.05432,-0.01144,0.00778,0.01038,-0.04883
9.9955,-0.00427,-0.04028,-0.03448,-0.00412,-0.03647,-0.05142,0.04044,-0.00595,-0.00061,0.00763,-1.25259,-0.06699,-0.02533,-0.01068,0.01053,-0.04898
9.996,-0.0032,-0.04227,-0.03525,-0.00336,-0.03555,-0.05173,0.05402,0.00031,-0.00198,0.0058,-1.33682,-0.04532,-0.03708,-0.01938,0.01022,-0.04883
9.9965,-0.00275,-0.0441,-0.03632,-0.00305,-0.0351,-0.05234,0.05615,0.00168,-0.0029,0.00061,-1.32446,-0.00671,-0.04333,-0.01892,0.01007,-0.04822
9.997,-0.00259,-0.0441,-0.0351,-0.00504,-0.03342,-0.05173,0.0354,-0.00519,-0.00168,-0.0058,-1.33041,0.01968,-0.04517,-0.01434,0.00885,-0.04791
9.9975,-0.00397,-0.04425,-0.03418,-0.00961,-0.03235,-0.05142,-0.00244,-0.01663,-0.00061,-0.01297,-1.38901,0.03067,-0.04623,-0.00702,0.009,-0.04837
9.998,-0.00412,-0.0441,-0.03494,-0.01373,-0.03052,-0.0499,-0.03403,-0.02396,-0.00214,-0.01907,-1.41266,0.04639,-0.04776,0.00122,0.00992,-0.04883
9.9985,-0.00229,-0.04318,-0.03601,-0.01328,-0.0296,-0.04837,-0.04074,-0.02808,-0.0058,-0.02304,-1.3382,0.07614,-0.04959,0.0058,0.01007,-0.04898
9.999,-0.00015,-0.04227,-0.0354,-0.00885,-0.03128,-0.05112,-0.02594,-0.03494,-0.00626,-0.02426,-1.21536,0.10223,-0.04959,-0.00549,0.00992,-0.04974
9.9995,-0.00092,-0.0412,-0.03296,-0.00458,-0.03372,-0.0502,-0.0061,-0.04623,-0.00397,-0.02472,-1.11359,0.10803,-0.04852,-0.03265,0.00885,-0.04944
10.0,-0.00229,-0.04105,-0.03067,-0.0032,-0.03418,-0.04929,0.00717,-0.05737,-0.00259,-0.02579,-1.03851,0.10071,-0.04852,-0.05539,0.00793,-0.04898
10.0005,-0.00305,-0.04074,-0.03113,-0.00458,-0.0351,-0.04944,0.01129,-0.06271,-0.00443,-0.02823,-0.95322,0.09811,-0.04913,-0.05783,0.0061,-0.04883
10.001,-0.00397,-0.03952,-0.03296,-0.00732,-0.03387,-0.04684,0.01129,-0.05127,-0.00809,-0.03052,-0.85739,0.10056,-0.04883,-0.04135,0.00748,-0.04868
10.0015,-0.00534,-0.03906,-0.0354,-0.00854,-0.03311,-0.04486,0.01389,-0.01144,-0.01312,-0.0325,-0.793,0.09674,-0.04593,-0.02533,0.00885,-0.04807
10.002,-0.00626,-0.04044,-0.03738,-0.00671,-0.03387,-0.04623,0.02045,0.05203,-0.02045,-0.03494,-0.78522,0.08209,-0.04059,-0.01709,0.01022,-0.047
10.0025,-0.00656,-0.04288,-0.03784,-0.00504,-0.03387,-0.04745,0.02548,0.10071,-0.02853,-0.03662,-0.80856,0.05981,-0.0351,-0.01114,0.01068,-0.0444
10.003,-0.00504,-0.04349,-0.03784,-0.00534,-0.03311,-0.047,0.01877,0.09232,-0.03235,-0.03799,-0.81619,0.03448,-0.0322,0.00412,0.00977,-0.04318
10.0035,-0.0029,-0.04318,-0.03754,-0.009,-0.03174,-0.04578,0.00031,0.03235,-0.03387,-0.03906,-0.79147,0.00854,-0.03281,0.03281,0.01099,-0.04181
10.004,-0.00168,-0.0415,-0.03677,-0.0116,-0.03098,-0.04486,-0.01755,-0.02182,-0.03479,-0.03906,-0.75104,-0.00854,-0.03372,0.06577,0.01068,-0.04196
10.0045,-0.00214,-0.04074,-0.03616,-0.01251,-0.03189,-0.047,-0.02289,-0.03021,-0.03418,-0.03769,-0.71793,-0.0087,-0.03342,0.08591,0.01007,-0.04196
10.005,-0.00351,-0.03998,-0.03586,-0.0119,-0.03265,-0.04715,-0.01633,-0.00397,-0.0293,-0.03204,-0.7016,-0.00259,-0.0322,0.08575,0.009,-0.04044
10.0055,-0.00381,-0.04089,-0.03571,-0.0119,-0.0322,-0.04654,-0.0119,0.01907,-0.02243,-0.02518,-0.6929,-0.00763,-0.03281,0.07111,0.00854,-0.03967
10.006,-0.00259,-0.04028,-0.03525,-0.01068,-0.03342,-0.04623,-0.01587,0.02197,-0.01892,-0.02167,-0.66986,-0.02151,-0.03464,0.0502,0.00839,-0.03998
10.0065,-0.00259,-0.03967,-0.03586,-0.00916,-0.03418,-0.04547,-0.02441,0.00595,-0.01816,-0.0209,-0.62302,-0.02518,-0.03677,0.02136,0.00809,-0.04013
10.007,-0.00397,-0.03922,-0.03632,-0.00793,-0.03387,-0.04486,-0.02884,-0.01892,-0.01617,-0.02121,-0.56046,-0.01205,-0.0386,-0.0145,0.00839,-0.03967
10.0075,-0.00504,-0.03952,-0.03693,-0.00732,-0.03296,-0.04562,-0.02792,-0.03769,-0.01144,-0.01923,-0.50201,0.00427,-0.04044,-0.04669,0.0087,-0.03754
10.008,-0.00534,-0.04044,-0.03586,-0.00595,-0.03113,-0.04608,-0.02457,-0.03708,-0.00717,-0.0174,-0.45731,0.00946,-0.04135,-0.07599,0.00885,-0.03525
10.0085,-0.00473,-0.04059,-0.03448,-0.00458,-0.03189,-0.04532,-0.01953,-0.0206,-0.00671,-0.0174,-0.42496,-0.00153,-0.0412,-0.11948,0.00839,-0.03357
10.009,-0.00412,-0.04013,-0.03403,-0.00549,-0.03281,-0.04303,-0.01511,-0.00381,-0.00854,-0.01678,-0.39642,-0.02258,-0.04318,-0.18768,0.00763,-0.03265
10.0095,-0.00443,-0.0412,-0.03464,-0.00732,-0.03265,-0.04227,-0.01236,0.00565,-0.00839,-0.01297,-0.36392,-0.03403,-0.04532,-0.24826,0.00885,-0.03204
10.01,-0.00488,-0.04211,-0.03357,-0.01022,-0.03204,-0.04318,-0.01297,0.01175,-0.00854,-0.00534,-0.31464,-0.02258,-0.04623,-0.25314,0.01007,-0.03021
10.0105,-0.00534,-0.04196,-0.03098,-0.01282,-0.03052,-0.04456,-0.01495,0.01068,-0.0119,0.00381,-0.24582,0.00076,-0.04639,-0.19821,0.01099,-0.02975
10.011,-0.00504,-0.04135,-0.03036,-0.01511,-0.03113,-0.04501,-0.01678,-0.00366,-0.01724,0.00977,-0.16617,0.01328,-0.04684,-0.12848,0.01022,-0.03067
10.0115,-0.00366,-0.0415,-0.03174,-0.01724,-0.03342,-0.04425,-0.01953,-0.0296,-0.02213,0.01038,-0.09216,0.00504,-0.04623,-0.08026,0.01053,-0.03159
10.012,-0.00275,-0.04227,-0.03418,-0.0174,-0.03448,-0.04181,-0.0206,-0.04517,-0.0235,0.00687,-0.03113,-0.01205,-0.04532,-0.04791,0.01068,-0.03159
10.0125,-0.00198,-0.04288,-0.03448,-0.01587,-0.03403,-0.04089,-0.01877,-0.03723,-0.02136,0.00229,0.03174,-0.0235,-0.04196,-0.01999,0.01068,-0.03174
10.013,-0.00198,-0.04211,-0.03479,-0.01282,-0.03281,-0.04242,-0.01343,-0.01343,-0.01892,-0.00351,0.11963,-0.02655,-0.0386,-0.00763,0.01175,-0.03281
10.0135,-0.00214,-0.04135,-0.03311,-0.01038,-0.03311,-0.04395,-0.01022,0.00504,-0.01953,-0.009,0.22247,-0.02899,-0.03464,-0.01663,0.01297,-0.03265
10.014,-0.00275,-0.04089,-0.0322,-0.01022,-0.03387,-0.04379,-0.01221,0.00702,-0.02167,-0.01266,0.31143,-0.03525,-0.03082,-0.03387,0.01266,-0.03174
10.0145,-0.00427,-0.0412,-0.03174,-0.01114,-0.03555,-0.04379,-0.01556,-0.00214,-0.02365,-0.01373,0.37735,-0.04547,-0.02884,-0.04105,0.01343,-0.03143
10.015,-0.00412,-0.04181,-0.03235,-0.01114,-0.03693,-0.04517,-0.01663,-0.01083,-0.02441,-0.01434,0.43427,-0.0589,-0.02808,-0.03708,0.01389,-0.03189
10.0155,-0.00351,-0.04257,-0.03372,-0.01007,-0.03754,-0.04776,-0.02136,-0.01175,-0.02579,-0.01465,0.48782,-0.06866,-0.0267,-0.03082,0.01266,-0.0325
10.016,-0.0029,-0.0415,-0.03555,-0.00946,-0.03754,-0.04974,-0.03799,-0.00748,-0.02686,-0.01358,0.53101,-0.05966,-0.02487,-0.02655,0.01083,-0.03296
10.0165,-0.00351,-0.03983,-0.03571,-0.00824,-0.03494,-0.04959,-0.06149,-0.00061,-0.02838,-0.0119,0.55908,-0.02762,-0.02289,-0.02289,0.009,-0.03387
10.017,-0.00565,-0.03891,-0.03555,-0.00626,-0.03143,-0.0502,-0.08057,0.00458,-0.0296,-0.01114,0.58151,0.01266,-0.02197,-0.01953,0.0087,-0.03372
10.0175,-0.00687,-0.03983,-0.03647,-0.00504,-0.02899,-0.04929,-0.08041,0.00809,-0.0293,-0.01312,0.60623,0.04608,-0.02045,-0.01434,0.00885,-0.03281
10.018,-0.00565,-0.04074,-0.03479,-0.00534,-0.02808,-0.0499,-0.06256,0.01114,-0.02594,-0.01602,0.63721,0.06561,-0.01923,-0.00244,0.00885,-0.03082
10.0185,-0.00443,-0.0415,-0.03555,-0.00824,-0.02869,-0.05081,-0.03723,0.01251,-0.02228,-0.01785,0.67001,0.06348,-0.01938,0.01511,0.009,-0.02808
10.019,-0.00443,-0.04196,-0.03586,-0.01083,-0.02777,-0.05173,-0.01465,0.00992,-0.01892,-0.0174,0.69626,0.03143,-0.02075,0.02655,0.01053,-0.02625
10.0195,-0.00656,-0.0415,-0.03479,-0.01114,-0.0267,-0.05096,0.00122,0.00763,-0.01572,-0.01389,0.71899,-0.02563,-0.0209,0.02075,0.00961,-0.02548
10.02,-0.00778,-0.04105,-0.03296,-0.01022,-0.02686,-0.04929,0.01297,0.0058,-0.01251,-0.00626,0.74905,-0.08713,-0.01953,0.00153,0.01038,-0.02396
10.0205,-0.00687,-0.04074,-0.03113,-0.00916,-0.02686,-0.04913,0.02457,0.00443,-0.01083,0.00305,0.7901,-0.12543,-0.02014,-0.01328,0.01068,-0.02411
10.021,-0.00488,-0.0412,-0.03052,-0.0087,-0.02502,-0.04807,0.03571,0.00275,-0.01038,0.00854,0.83633,-0.12375,-0.02411,-0.01541,0.01175,-0.02533
10.0215,-0.00336,-0.04181,-0.03113,-0.00778,-0.02167,-0.04608,0.03693,0.00046,-0.01129,0.00641,0.87143,-0.09293,-0.02823,-0.01144,0.01022,-0.02563
10.022,-0.00351,-0.04242,-0.03281,-0.00641,-0.01984,-0.04639,0.02197,0.0,-0.01022,-0.00107,0.89096,-0.06332,-0.02869,-0.01038,0.00748,-0.02625
10.0225,-0.0058,-0.04257,-0.03372,-0.00549,-0.02213,-0.04745,-0.00305,-0.00214,-0.00519,-0.00854,0.9024,-0.04929,-0.02899,-0.01266,0.00488,-0.02747
10.023,-0.00626,-0.04211,-0.03357,-0.00626,-0.0235,-0.04913,-0.02197,-0.00534,-0.00046,-0.01495,0.91537,-0.04425,-0.03067,-0.01373,0.00565,-0.02792
10.0235,-0.00565,-0.04166,-0.03296,-0.00809,-0.02502,-0.04791,-0.02243,-0.00854,-0.00137,-0.02106,0.93521,-0.0383,-0.03235,-0.01495,0.00687,-0.0267
10.024,-0.00549,-0.04089,-0.03281,-0.00839,-0.02441,-0.04822,-0.01022,-0.01007,-0.00702,-0.02701,0.95505,-0.02884,-0.03372,-0.01648,0.00595,-0.02594
10.0245,-0.00732,-0.03952,-0.0322,-0.00946,-0.0267,-0.04807,0.00153,-0.01083,-0.01114,-0.03189,0.96832,-0.01312,-0.03326,-0.01694,0.00488,-0.02594
10.025,-0.00854,-0.03876,-0.03204,-0.00992,-0.02838,-0.0502,0.00656,-0.01221,-0.01022,-0.03098,0.97412,0.01022,-0.03479,-0.0174,0.00427,-0.0267
10.0255,-0.00732,-0.03967,-0.03235,-0.01022,-0.0296,-0.04745,0.0061,-0.01266,-0.00916,-0.03326,0.97244,0.04059,-0.03815,-0.01953,0.00549,-0.02747
10.026,-0.00473,-0.0415,-0.03357,-0.00992,-0.03128,-0.04608,0.00031,-0.01099,-0.0119,-0.03906,0.96405,0.065,-0.04242,-0.02365,0.00549,-0.02838
10.0265,-0.00366,-0.04196,-0.03372,-0.00992,-0.03296,-0.04593,-0.00549,-0.00488,-0.01816,-0.04303,0.95963,0.07126,-0.04639,-0.0206,0.00702,-0.02914
10.027,-0.00534,-0.04135,-0.03311,-0.01038,-0.03387,-0.04578,-0.00793,0.00198,-0.02274,-0.04761,0.96283,0.06012,-0.04944,-0.00793,0.00687,-0.02914
10.0275,-0.00717,-0.04013,-0.03387,-0.01175,-0.03311,-0.04486,-0.00656,0.00839,-0.02228,-0.05386,0.97519,0.04364,-0.04898,0.00549,0.00671,-0.02884
10.028,-0.00748,-0.04089,-0.03632,-0.01236,-0.03174,-0.0444,-0.0061,0.01251,-0.01907,-0.05829,1.00266,0.02182,-0.04807,0.00687,0.00717,-0.02792
10.0285,-0.00671,-0.04227,-0.03769,-0.01114,-0.03098,-0.04578,-0.00931,0.01251,-0.01556,-0.05463,1.04492,-0.01251,-0.04669,-0.00427,0.00656,-0.02777
10.029,-0.00717,-0.04242,-0.03815,-0.00961,-0.03098,-0.04608,-0.01587,0.01007,-0.01648,-0.02823,1.08261,-0.06363,-0.04684,-0.01495,0.00549,-0.02747
10.0295,-0.00763,-0.04196,-0.03601,-0.00854,-0.03067,-0.04517,-0.0209,0.00595,-0.02121,0.02365,1.09894,-0.11871,-0.04684,-0.01556,0.00565,-0.02838
10.03,-0.00748,-0.04074,-0.03387,-0.00763,-0.02762,-0.04456,-0.0238,-0.00015,-0.02869,0.07507,1.09512,-0.16129,-0.04517,-0.00977,0.00641,-0.02884
10.0305,-0.00626,-0.04166,-0.03326,-0.00687,-0.02655,-0.04425,-0.02548,-0.00778,-0.03708,0.09064,1.0849,-0.16708,-0.04181,-0.00336,0.00702,-0.0296
10.031,-0.00687,-0.04364,-0.03433,-0.00488,-0.0293,-0.04578,-0.02579,-0.01419,-0.04181,0.05035,1.07559,-0.11948,-0.0386,0.00122,0.00671,-0.02914
10.0315,-0.00717,-0.04364,-0.03494,-0.00336,-0.03174,-0.04578,-0.02731,-0.01785,-0.04166,-0.01617,1.06537,-0.04196,-0.03677,0.00214,0.00565,-0.02731
10.032,-0.00656,-0.04272,-0.03647,-0.00366,-0.03235,-0.04654,-0.02777,-0.01816,-0.03769,-0.06714,1.05072,0.00275,-0.03738,-0.00046,0.00519,-0.02563
10.0325,-0.00534,-0.0415,-0.03723,-0.0058,-0.03342,-0.04883,-0.02747,-0.01999,-0.03418,-0.09186,1.03653,-0.01343,-0.03738,-0.00443,0.00397,-0.02609
10.033,-0.00549,-0.04059,-0.03632,-0.00854,-0.03067,-0.05447,-0.02655,-0.02594,-0.03113,-0.09003,1.02386,-0.04898,-0.03723,-0.00641,0.00336,-0.02762
10.0335,-0.00778,-0.04074,-0.03586,-0.01038,-0.03174,-0.05905,-0.0267,-0.03204,-0.02853,-0.08316,1.00784,-0.06073,-0.03708,-0.00565,0.0032,-0.02838
10.034,-0.01053,-0.04074,-0.0354,-0.01038,-0.03281,-0.0621,-0.02823,-0.03143,-0.02426,-0.07187,0.98465,-0.0502,-0.03784,-0.00366,0.0029,-0.02777
10.0345,-0.01175,-0.04105,-0.03616,-0.00977,-0.03235,-0.06088,-0.02884,-0.02289,-0.01892,-0.06241,0.95779,-0.02975,-0.03937,-0.00336,0.00305,-0.02533
10.035,-0.01083,-0.04105,-0.03769,-0.00961,-0.03265,-0.05737,-0.02716,-0.01282,-0.01434,-0.05219,0.93002,0.0116,-0.03922,-0.00473,0.00244,-0.02396
10.0355,-0.00885,-0.04105,-0.03708,-0.01083,-0.03143,-0.05264,-0.02457,-0.00656,-0.00946,-0.04349,0.89386,0.0795,-0.0386,-0.00534,0.00183,-0.02441
10.036,-0.00763,-0.04089,-0.03662,-0.01236,-0.03128,-0.05157,-0.02167,-0.00381,-0.00244,-0.03937,0.84656,0.14816,-0.03586,-0.00595,0.00214,-0.02533
10.0365,-0.0058,-0.03983,-0.03525,-0.01328,-0.02991,-0.04883,-0.01938,-0.00153,0.00458,-0.03647,0.79712,0.18036,-0.03479,-0.00702,0.00259,-0.0264
10.037,-0.00443,-0.04044,-0.03448,-0.01389,-0.02991,-0.04593,-0.01923,-0.00061,0.01007,-0.03281,0.75882,0.16281,-0.03403,-0.00824,0.00366,-0.0267
10.0375,-0.00412,-0.0412,-0.03372,-0.01343,-0.02975,-0.04379,-0.02014,-0.00519,0.0116,-0.02655,0.73151,0.11276,-0.03296,-0.01022,0.00381,-0.02563
10.038,-0.00488,-0.04166,-0.03357,-0.01266,-0.02945,-0.04349,-0.02014,-0.01373,0.01099,-0.02411,0.69489,0.05783,-0.03281,-0.01144,0.00473,-0.02457
10.0385,-0.00534,-0.04044,-0.03479,-0.01038,-0.03113,-0.04501,-0.01953,-0.01892,0.01099,-0.02502,0.63309,0.01221,-0.03342,-0.0119,0.00519,-0.02472
10.039,-0.00504,-0.03998,-0.03586,-0.00885,-0.02823,-0.04562,-0.01755,-0.01724,0.01175,-0.02747,0.56,-0.02838,-0.0354,-0.01236,0.0061,-0.02563
10.0395,-0.00366,-0.03967,-0.0351,-0.00717,-0.02914,-0.04639,-0.01541,-0.01099,0.0119,-0.0267,0.50858,-0.07675,-0.03693,-0.01205,0.00565,-0.02609
10.04,-0.00198,-0.03845,-0.03403,-0.00763,-0.02899,-0.04532,-0.01434,-0.00519,0.01114,-0.02213,0.5098,-0.13702,-0.03784,-0.01114,0.00565,-0.02487
10.0405,-0.00137,-0.03632,-0.03326,-0.00854,-0.0296,-0.04227,-0.0148,-0.00259,0.00656,-0.01801,0.56686,-0.19974,-0.03815,-0.01205,0.00519,-0.02289
10.041,-0.00107,-0.03433,-0.03265,-0.00992,-0.03174,-0.04303,-0.01648,-0.00214,-0.00046,-0.01709,0.63812,-0.24551,-0.0386,-0.01358,0.00549,-0.02274
10.0415,-0.00107,-0.03403,-0.03113,-0.01099,-0.03174,-0.04242,-0.01801,-0.00031,-0.00778,-0.01755,0.66711,-0.25681,-0.03723,-0.01526,0.0058,-0.02518
10.042,-0.00092,-0.03525,-0.03143,-0.01175,-0.0296,-0.04349,-0.01831,0.00122,-0.01526,-0.0174,0.63766,-0.22339,-0.03555,-0.01633,0.00565,-0.02731
10.0425,-0.00122,-0.03693,-0.03265,-0.0116,-0.02686,-0.04532,-0.01724,0.00092,-0.0235,-0.01404,0.56107,-0.14816,-0.03555,-0.01709,0.00504,-0.02808
10.043,-0.00229,-0.03799,-0.03326,-0.01068,-0.0264,-0.04608,-0.01511,-0.00092,-0.03174,-0.01053,0.44846,-0.03754,-0.03723,-0.01892,0.00595,-0.02731
10.0435,-0.00381,-0.03876,-0.0351,-0.01053,-0.02884,-0.04654,-0.0145,-0.00214,-0.03693,-0.0087,0.31754,0.08575,-0.03983,-0.02121,0.00809,-0.0267
10.044,-0.00427,-0.03906,-0.03708,-0.01099,-0.03098,-0.04578,-0.01633,-0.00153,-0.03845,-0.01221,0.19852,0.18234,-0.04135,-0.0238,0.00763,-0.02625
10.0445,-0.00381,-0.03967,-0.03647,-0.01266,-0.03387,-0.04349,-0.0177,-0.00122,-0.03815,-0.01526,0.09781,0.20782,-0.04166,-0.02762,0.00626,-0.02869
10.045,-0.00366,-0.03983,-0.03448,-0.01266,-0.0325,-0.04501,-0.01862,-0.00153,-0.03632,-0.0148,0.0029,0.15533,-0.04059,-0.03113,0.00534,-0.03143
10.0455,-0.00488,-0.03937,-0.03189,-0.01083,-0.02975,-0.04684,-0.01663,-0.00244,-0.03525,-0.01221,-0.08331,0.06805,-0.0383,-0.03036,0.0058,-0.03281
10.046,-0.00519,-0.03876,-0.03174,-0.00778,-0.0293,-0.04791,-0.01648,-0.00244,-0.03204,-0.00824,-0.13977,-0.00305,-0.03555,-0.02457,0.00641,-0.0325
10.0465,-0.00443,-0.0383,-0.03281,-0.00687,-0.02792,-0.04761,-0.01587,-0.00351,-0.02792,-0.00458,-0.16617,-0.03876,-0.0325,-0.01923,0.0061,-0.03204
10.047,-0.00366,-0.03967,-0.03448,-0.00885,-0.02945,-0.04562,-0.01526,-0.00092,-0.0235,-0.00137,-0.1828,-0.04425,-0.02975,-0.01862,0.00504,-0.03296
10.0475,-0.00443,-0.04105,-0.03555,-0.01221,-0.03433,-0.04471,-0.0145,0.00427,-0.01968,0.01129,-0.18768,-0.03616,-0.02808,-0.0206,0.00519,-0.03433
10.048,-0.00504,-0.04242,-0.03662,-0.01511,-0.03494,-0.04395,-0.01312,0.01328,-0.01541,0.04379,-0.15686,-0.04028,-0.02777,-0.01968,0.00717,-0.03326
10.0485,-0.00534,-0.04242,-0.03708,-0.01587,-0.03448,-0.04501,-0.01205,0.02106,-0.01175,0.08698,-0.09216,-0.07584,-0.02823,-0.01587,0.00748,-0.03281
10.049,-0.00473,-0.04227,-0.03784,-0.01633,-0.03479,-0.04562,-0.0119,0.02228,-0.01404,0.10452,-0.04395,-0.13412,-0.02716,-0.01114,0.00732,-0.03403
10.0495,-0.00397,-0.04227,-0.03555,-0.01556,-0.03311,-0.04578,-0.00946,0.01816,-0.01984,0.07751,-0.05722,-0.1825,-0.02441,-0.00305,0.00687,-0.03387
10.05,-0.00412,-0.0412,-0.03433,-0.01419,-0.0322,-0.04471,-0.00717,0.01205,-0.0235,0.02457,-0.12863,-0.2005,-0.02151,0.00824,0.00763,-0.03403
10.0505,-0.00504,-0.03983,-0.03357,-0.01129,-0.03189,-0.04379,-0.00656,0.00595,-0.02029,-0.02243,-0.21683,-0.20096,-0.02121,0.01862,0.00824,-0.03433
10.051,-0.00549,-0.03937,-0.0325,-0.00809,-0.03128,-0.04501,-0.00793,0.00275,-0.01511,-0.04929,-0.28641,-0.19974,-0.02228,0.0238,0.00916,-0.03311
10.0515,-0.00565,-0.03937,-0.0322,-0.00748,-0.03052,-0.04593,-0.01038,0.00351,-0.01373,-0.06119,-0.32211,-0.19363,-0.02411,0.03281,0.01007,-0.03159
10.052,-0.00519,-0.04013,-0.03311,-0.00824,-0.03006,-0.04486,-0.01541,0.00168,-0.01358,-0.06638,-0.33447,-0.17166,-0.02563,0.05432,0.01007,-0.03082
10.0525,-0.00473,-0.04044,-0.03448,-0.00732,-0.03113,-0.04425,-0.0209,-0.00854,-0.01312,-0.06622,-0.36179,-0.13153,-0.02716,0.07004,0.01007,-0.03265
10.053,-0.00412,-0.03998,-0.03555,-0.0061,-0.0322,-0.04364,-0.02304,-0.0238,-0.01144,-0.05798,-0.44144,-0.0589,-0.03067,0.03708,0.00946,-0.03616
10.0535,-0.00412,-0.03967,-0.03586,-0.00687,-0.03464,-0.04745,-0.02151,-0.03128,-0.00931,-0.04501,-0.54443,0.05783,-0.03357,-0.05585,0.00885,-0.0386
10.054,-0.00473,-0.03998,-0.03525,-0.00839,-0.03662,-0.05005,-0.01678,-0.0267,-0.00854,-0.03342,-0.58578,0.17578,-0.03693,-0.14496,0.00854,-0.03876
10.0545,-0.00534,-0.03967,-0.03448,-0.00793,-0.03693,-0.05264,-0.01282,-0.01602,-0.00992,-0.02762,-0.53146,0.21591,-0.03601,-0.15381,0.00763,-0.03815
10.055,-0.00534,-0.03952,-0.03387,-0.00504,-0.03616,-0.05188,-0.01129,-0.00854,-0.01541,-0.0322,-0.44098,0.15656,-0.03601,-0.09109,0.00763,-0.03754
10.0555,-0.00519,-0.03983,-0.03525,-0.00381,-0.03769,-0.05173,-0.01251,-0.00397,-0.02258,-0.04196,-0.37399,0.06195,-0.03708,-0.03601,0.00793,-0.03769
10.056,-0.00473,-0.04074,-0.03525,-0.00519,-0.0386,-0.04944,-0.01495,-0.00061,-0.02579,-0.05157,-0.32501,0.00275,-0.03891,-0.02777,0.00748,-0.03784
10.0565,-0.00549,-0.04196,-0.03403,-0.00732,-0.03845,-0.04944,-0.01541,0.0029,-0.02258,-0.05295,-0.26169,-0.01144,-0.03967,-0.03815,0.0061,-0.04013
10.057,-0.00641,-0.04166,-0.03418,-0.00778,-0.03784,-0.04761,-0.01251,0.00549,-0.01831,-0.04684,-0.16464,-0.00793,-0.03952,-0.03387,0.00534,-0.04181
10.0575,-0.00504,-0.04089,-0.03418,-0.00687,-0.03662,-0.04654,-0.00854,0.00488,-0.0174,-0.0386,-0.04105,-0.00229,-0.03845,-0.01999,0.00809,-0.04135
10.058,-0.0029,-0.04089,-0.03433,-0.00763,-0.03677,-0.0473,-0.00687,0.00107,-0.01755,-0.03464,0.07568,0.00687,-0.03876,-0.01068,0.01038,-0.03876
10.0585,-0.00168,-0.0415,-0.03464,-0.01038,-0.03784,-0.04791,-0.00717,-0.00198,-0.01648,-0.03799,0.1445,0.01556,-0.0386,-0.00641,0.01175,-0.03494
10.059,-0.00259,-0.04257,-0.03448,-0.01434,-0.0383,-0.04837,-0.00763,-0.00351,-0.01495,-0.04166,0.1564,0.01343,-0.03738,-0.00214,0.01129,-0.03296
10.0595,-0.00168,-0.04333,-0.03448,-0.01602,-0.03922,-0.04654,-0.00824,-0.00275,-0.01312,-0.03906,0.13687,-0.00488,-0.03601,0.00641,0.0116,-0.03296
10.06,-0.00229,-0.04395,-0.03448,-0.01526,-0.03906,-0.04608,-0.00977,-0.0029,-0.01007,-0.02975,0.1123,-0.03113,-0.03738,0.0206,0.01328,-0.03464
10.0605,-0.00305,-0.04272,-0.03372,-0.01175,-0.04028,-0.04578,-0.01205,-0.00534,-0.00412,-0.01541,0.08347,-0.04883,-0.03967,0.04517,0.01358,-0.0351
10.061,-0.00351,-0.04257,-0.03403,-0.00931,-0.03586,-0.04776,-0.01511,-0.00824,0.00259,-0.00153,0.04639,-0.05112,-0.0415,0.06989,0.0116,-0.03403
10.0615,-0.00275,-0.04303,-0.03357,-0.00961,-0.03677,-0.04654,-0.01755,-0.00824,0.00549,0.00687,0.00565,-0.04501,-0.04288,0.06119,0.01022,-0.03372
10.062,-0.00214,-0.04364,-0.03342,-0.0119,-0.03448,-0.04501,-0.01831,-0.00549,0.00366,0.0116,-0.03296,-0.03983,-0.0441,-0.01465,0.01129,-0.03464
10.0625,-0.00381,-0.0444,-0.03311,-0.01312,-0.03204,-0.04471,-0.01831,-0.00046,0.00046,0.01526,-0.07629,-0.02991,-0.04608,-0.12802,0.01175,-0.03357
10.063,-0.00549,-0.04501,-0.03342,-0.01205,-0.03021,-0.04578,-0.01602,0.00412,-0.00076,0.02014,-0.13229,-0.00763,-0.04532,-0.18631,0.01175,-0.03082
10.0635,-0.0058,-0.04471,-0.03464,-0.01144,-0.02777,-0.04745,-0.01404,0.00763,-0.00168,0.02365,-0.20691,0.02411,-0.04379,-0.14236,0.01129,-0.02823
10.064,-0.00488,-0.04364,-0.0351,-0.0119,-0.02808,-0.04654,-0.01312,0.01038,-0.00519,0.0238,-0.30884,0.0528,-0.04318,-0.05707,0.01129,-0.02884
10.0645,-0.00397,-0.04257,-0.03464,-0.0119,-0.03036,-0.04456,-0.01205,0.0119,-0.01083,0.01648,-0.4425,0.0676,-0.04379,-0.01617,0.01175,-0.03082
10.065,-0.00412,-0.04257,-0.03387,-0.01053,-0.03265,-0.04333,-0.01007,0.01251,-0.01648,0.00458,-0.5954,0.06744,-0.0444,-0.02563,0.01038,-0.03357
10.0655,-0.00473,-0.04257,-0.03433,-0.00885,-0.03433,-0.04486,-0.01022,0.01144,-0.01923,-0.00748,-0.73654,0.06577,-0.04486,-0.03998,0.0087,-0.03464
10.066,-0.00427,-0.04272,-0.03571,-0.0087,-0.03311,-0.04669,-0.009,0.00931,-0.0177,-0.01923,-0.84518,0.0769,-0.04532,-0.03677,0.00824,-0.0354
10.0665,-0.00381,-0.04272,-0.03754,-0.00916,-0.03143,-0.04669,-0.00641,0.00626,-0.01312,-0.03098,-0.94193,0.09109,-0.04715,-0.03052,0.00839,-0.03708
10.067,-0.00412,-0.04288,-0.03754,-0.01022,-0.02945,-0.04562,-0.00412,0.00122,-0.00626,-0.03708,-1.05927,0.08377,-0.04929,-0.02914,0.00916,-0.03937
10.0675,-0.00534,-0.04318,-0.03632,-0.01129,-0.03098,-0.04532,-0.00427,-0.0058,0.00092,-0.03693,-1.19919,0.04807,-0.04929,-0.02548,0.00793,-0.04089
10.068,-0.0058,-0.04272,-0.03601,-0.01251,-0.03342,-0.04715,-0.00641,-0.01419,0.0061,-0.03189,-1.33087,0.00534,-0.04974,-0.01617,0.0061,-0.04135
10.0685,-0.00534,-0.04059,-0.03601,-0.01251,-0.03265,-0.05051,-0.00839,-0.01923,0.00809,-0.02579,-1.43204,-0.02335,-0.05157,-0.01114,0.00519,-0.04059
10.069,-0.00519,-0.03983,-0.03601,-0.01358,-0.03204,-0.05402,-0.00977,-0.0174,0.00488,-0.01999,-1.51642,-0.0441,-0.05447,-0.01678,0.00641,-0.04105
10.0695,-0.00519,-0.04089,-0.03525,-0.0145,-0.03189,-0.05615,-0.01053,-0.00916,-0.00275,-0.01419,-1.60553,-0.07141,-0.05493,-0.02518,0.00793,-0.04272
10.07,-0.00504,-0.0412,-0.03433,-0.01419,-0.03143,-0.05722,-0.01389,-0.00244,-0.01282,-0.00763,-1.70197,-0.10818,-0.05051,-0.02716,0.00931,-0.04517
10.0705,-0.00381,-0.04028,-0.03403,-0.01404,-0.03036,-0.05554,-0.01755,0.00076,-0.01999,-0.00412,-1.78925,-0.14832,-0.04547,-0.02304,0.00793,-0.04761
10.071,-0.0032,-0.03799,-0.03357,-0.01328,-0.03067,-0.05234,-0.01923,0.00198,-0.01877,-0.00778,-1.85638,-0.18387,-0.04272,-0.01724,0.00763,-0.04684
10.0715,-0.00183,-0.03647,-0.03387,-0.01175,-0.03357,-0.04868,-0.01877,0.00381,-0.01144,-0.01648,-1.89575,-0.19577,-0.04181,-0.01465,0.00885,-0.04715
10.072,-0.00229,-0.03708,-0.0354,-0.01099,-0.03845,-0.047,-0.01831,0.00305,-0.00076,-0.02563,-1.90445,-0.15121,-0.04059,-0.01526,0.01022,-0.04578
10.0725,-0.00259,-0.03784,-0.03601,-0.01083,-0.04227,-0.04471,-0.01816,-0.00244,0.00763,-0.03265,-1.8779,-0.04105,-0.03937,-0.01755,0.01022,-0.04623
10.073,-0.00366,-0.03952,-0.03525,-0.00946,-0.04272,-0.04333,-0.01709,-0.00824,0.01251,-0.03693,-1.83136,0.07751,-0.03845,-0.02029,0.00961,-0.04715
10.0735,-0.00381,-0.04135,-0.03479,-0.00793,-0.04105,-0.04166,-0.01633,-0.01099,0.01251,-0.04089,-1.77872,0.12451,-0.03647,-0.02151,0.00916,-0.04761
10.074,-0.00443,-0.04196,-0.03479,-0.00565,-0.03769,-0.04242,-0.01648,-0.01083,0.00931,-0.03738,-1.7186,0.09903,-0.03448,-0.0206,0.01007,-0.04929
10.0745,-0.00488,-0.04227,-0.0351,-0.00473,-0.03601,-0.04288,-0.01877,-0.01053,0.00366,-0.03036,-1.6481,0.07339,-0.03357,-0.01923,0.01114,-0.0499
10.075,-0.00412,-0.04196,-0.03647,-0.0061,-0.03403,-0.04425,-0.01968,-0.0087,-0.00641,-0.02426,-1.57333,0.08148,-0.03342,-0.01923,0.01175,-0.04974
10.0755,-0.00336,-0.0415,-0.03784,-0.009,-0.03403,-0.0473,-0.01907,-0.00412,-0.01907,-0.02319,-1.49582,0.07858,-0.03235,-0.02213,0.01129,-0.04868
10.076,-0.00366,-0.04242,-0.03799,-0.0119,-0.03387,-0.047,-0.0177,0.00168,-0.03235,-0.02457,-1.40793,0.0296,-0.03021,-0.02396,0.00931,-0.0499
10.0765,-0.00488,-0.04318,-0.03708,-0.01221,-0.0322,-0.04684,-0.01678,0.00351,-0.04333,-0.02869,-1.3118,-0.03418,-0.02914,-0.02335,0.00824,-0.05295
10.077,-0.00504,-0.04211,-0.0354,-0.01068,-0.02914,-0.04868,-0.01511,0.00153,-0.05219,-0.03021,-1.21674,-0.06088,-0.02884,-0.02136,0.00748,-0.05615
10.0775,-0.00458,-0.04074,-0.03464,-0.01068,-0.02396,-0.05142,-0.01205,-0.00046,-0.05829,-0.03067,-1.1203,-0.03143,-0.02808,-0.02045,0.00748,-0.05768
10.078,-0.0032,-0.03891,-0.03433,-0.01053,-0.01907,-0.05112,-0.00839,-0.00122,-0.05966,-0.03128,-1.01364,0.05325,-0.02472,-0.01968,0.00595,-0.0563
10.0785,-0.00305,-0.03845,-0.03433,-0.0116,-0.01694,-0.04807,-0.00809,-0.0029,-0.05524,-0.03204,-0.89844,0.17975,-0.0209,-0.01678,0.00427,-0.05692
10.079,-0.00153,-0.03937,-0.03464,-0.01129,-0.01923,-0.04562,-0.01175,-0.00702,-0.04898,-0.03021,-0.78812,0.29663,-0.01755,-0.01419,0.0029,-0.05661
10.0795,0.0,-0.03922,-0.03433,-0.00916,-0.0209,-0.04608,-0.01312,-0.00931,-0.04532,-0.03036,-0.68024,0.32822,-0.01648,-0.01312,0.00275,-0.05676
10.08,0.00137,-0.03937,-0.03357,-0.00717,-0.01801,-0.04944,-0.00977,-0.00687,-0.04608,-0.02945,-0.56091,0.25452,-0.01617,-0.01465,0.00214,-0.056
10.0805,0.00168,-0.03937,-0.03372,-0.00732,-0.01587,-0.05219,-0.00717,-0.00336,-0.05005,-0.02777,-0.41992,0.1416,-0.01541,-0.01572,0.00259,-0.0528
10.081,-0.00046,-0.04074,-0.03448,-0.00824,-0.01724,-0.05219,-0.00839,-0.00244,-0.05386,-0.02167,-0.26657,0.06287,-0.01343,-0.01495,0.00244,-0.04913
10.0815,-0.00366,-0.04257,-0.03479,-0.00824,-0.02106,-0.04868,-0.01328,-0.00519,-0.05371,-0.01297,-0.12558,0.03235,-0.01205,-0.0145,0.00443,-0.04913
10.082,-0.00519,-0.04318,-0.03525,-0.00717,-0.02441,-0.04898,-0.01724,-0.00793,-0.05096,-0.00427,-0.01114,0.02609,-0.00977,-0.0148,0.00443,-0.05142
10.0825,-0.00366,-0.04272,-0.03433,-0.00687,-0.02655,-0.04837,-0.01785,-0.00763,-0.04669,0.0029,0.07858,0.02655,-0.00885,-0.01648,0.00397,-0.05325
10.083,-0.00214,-0.04166,-0.03479,-0.00748,-0.02747,-0.04684,-0.01709,-0.00549,-0.04532,0.0061,0.14969,0.03036,-0.00839,-0.01633,0.00427,-0.05173
10.0835,-0.00092,-0.04135,-0.03525,-0.00824,-0.0293,-0.04669,-0.01816,-0.00504,-0.04837,0.00748,0.21133,0.02701,-0.00946,-0.0145,0.00488,-0.05127
10.084,-0.00351,-0.04272,-0.03601,-0.00931,-0.03082,-0.04532,-0.02045,-0.00488,-0.05173,0.00519,0.27283,0.00671,-0.01053,-0.01266,0.00549,-0.05188
10.0845,-0.00504,-0.04486,-0.03601,-0.01038,-0.03143,-0.04562,-0.02151,-0.00351,-0.05432,0.00198,0.33707,-0.0293,-0.0119,-0.01312,0.00473,-0.0502
10.085,-0.00534,-0.04578,-0.03601,-0.01114,-0.0325,-0.04608,-0.01999,-0.00305,-0.05569,-0.00107,0.40619,-0.06027,-0.01282,-0.01419,0.00549,-0.04898
10.0855,-0.00443,-0.04654,-0.03708,-0.01175,-0.03265,-0.04456,-0.01785,-0.00397,-0.05585,-0.0032,0.47989,-0.06607,-0.0148,-0.01511,0.00626,-0.04684
10.086,-0.00534,-0.04654,-0.03723,-0.01266,-0.03174,-0.04257,-0.01709,-0.00549,-0.05676,-0.00473,0.5574,-0.05585,-0.01587,-0.0174,0.00626,-0.04456
10.0865,-0.00702,-0.04578,-0.03632,-0.01175,-0.0293,-0.04135,-0.0177,-0.00519,-0.05539,-0.00763,0.63202,-0.05829,-0.01648,-0.01678,0.00458,-0.04395
10.087,-0.009,-0.0444,-0.03433,-0.00961,-0.02747,-0.04333,-0.01801,-0.00229,-0.05127,-0.0177,0.69656,-0.09689,-0.0145,-0.01541,0.00198,-0.04471
10.0875,-0.01053,-0.04272,-0.03433,-0.00885,-0.02838,-0.04593,-0.01785,-0.00015,-0.04349,-0.03235,0.75363,-0.15778,-0.01343,-0.01312,0.00137,-0.047
10.088,-0.01038,-0.04105,-0.03616,-0.01022,-0.03036,-0.04669,-0.01663,-0.00107,-0.03403,-0.04227,0.82108,-0.19348,-0.01389,-0.01129,0.00168,-0.04807
10.0885,-0.00961,-0.03967,-0.03754,-0.0116,-0.02975,-0.04639,-0.01373,-0.00198,-0.02502,-0.03754,0.91644,-0.17059,-0.01526,-0.00854,0.00214,-0.04776
10.089,-0.00916,-0.03967,-0.03616,-0.01205,-0.02975,-0.04684,-0.01144,-0.00305,-0.01663,-0.02365,1.03027,-0.09537,-0.0145,-0.00458,0.00244,-0.04715
10.0895,-0.00748,-0.03983,-0.03464,-0.01068,-0.02899,-0.04745,-0.00854,-0.00229,-0.00824,-0.00778,1.14166,0.01007,-0.01282,-0.00015,0.00275,-0.04623
10.09,-0.00565,-0.04074,-0.03403,-0.00992,-0.02731,-0.047,-0.0061,0.00015,-0.00107,0.00183,1.23932,0.12634,-0.01129,0.00259,0.00351,-0.04761
10.0905,-0.00412,-0.0412,-0.03525,-0.01053,-0.02762,-0.04639,-0.00519,0.00473,0.00183,0.00366,1.32996,0.21698,-0.01038,0.00275,0.00336,-0.05081
10.091,-0.00381,-0.04089,-0.03647,-0.01114,-0.02731,-0.04547,-0.00519,0.01038,0.00168,0.00214,1.41861,0.23483,-0.01099,0.00183,0.00351,-0.05157
10.0915,-0.00351,-0.03998,-0.0354,-0.01221,-0.02747,-0.04547,-0.0058,0.01511,0.00046,-0.00061,1.49185,0.17471,-0.01236,0.0032,0.00305,-0.05188
10.092,-0.00305,-0.03845,-0.03281,-0.01297,-0.02625,-0.04639,-0.00824,0.0116,-0.00046,-0.00565,1.53839,0.08224,-0.01541,0.00534,0.00443,-0.04898
10.0925,-0.00275,-0.03754,-0.03021,-0.01282,-0.02609,-0.047,-0.01297,-0.00061,-0.00076,-0.0145,1.56601,0.00809,-0.01694,0.00519,0.00488,-0.04913
10.093,-0.00336,-0.03906,-0.02899,-0.01221,-0.0264,-0.04639,-0.01877,-0.0116,0.00076,-0.02335,1.58691,-0.0354,-0.01816,0.00214,0.00504,-0.05035
10.0935,-0.00443,-0.04028,-0.03021,-0.01114,-0.02655,-0.04532,-0.02243,-0.01343,0.00381,-0.02853,1.60492,-0.06409,-0.01846,-0.00137,0.00351,-0.05447
10.094,-0.0061,-0.04074,-0.03174,-0.00931,-0.02594,-0.04578,-0.02014,-0.00626,0.00595,-0.02975,1.6188,-0.08102,-0.01923,-0.00381,0.00366,-0.05661
10.0945,-0.00626,-0.03937,-0.0351,-0.00793,-0.02518,-0.0473,-0.01602,-0.00076,0.00488,-0.02899,1.62399,-0.08057,-0.01999,-0.00443,0.00473,-0.05753
10.095,-0.00656,-0.03723,-0.03647,-0.00778,-0.02594,-0.04883,-0.01526,-0.00366,0.00183,-0.02914,1.61316,-0.06302,-0.02136,-0.00565,0.00595,-0.05844
10.0955,-0.00778,-0.03754,-0.03662,-0.00778,-0.02884,-0.04745,-0.01846,-0.009,0.00015,-0.03098,1.58508,-0.03586,-0.02289,-0.00763,0.0058,-0.05951
10.096,-0.00839,-0.0386,-0.03555,-0.00748,-0.03143,-0.04578,-0.02213,-0.00748,0.00198,-0.03418,1.54938,-0.00549,-0.0235,-0.00946,0.00549,-0.06027
10.0965,-0.00809,-0.03983,-0.03494,-0.00763,-0.0325,-0.04517,-0.02274,-0.00107,0.00565,-0.03342,1.50696,0.02228,-0.02518,-0.01022,0.00595,-0.05951
10.097,-0.00626,-0.04074,-0.03448,-0.00946,-0.0325,-0.04547,-0.0209,0.00259,0.01038,-0.0293,1.45248,0.04303,-0.02792,-0.01022,0.00793,-0.06058
10.0975,-0.00717,-0.04211,-0.03372,-0.01083,-0.03174,-0.04761,-0.01892,-0.00076,0.01175,-0.02457,1.38412,0.05585,-0.03189,-0.00931,0.009,-0.06119
10.098,-0.0087,-0.04181,-0.03326,-0.01038,-0.03159,-0.04807,-0.01862,-0.00702,0.01068,-0.02289,1.30585,0.06744,-0.03159,-0.00946,0.00824,-0.06119
10.0985,-0.01007,-0.04089,-0.03403,-0.01022,-0.03143,-0.04791,-0.01984,-0.01221,0.00732,-0.02487,1.21841,0.08789,-0.03067,-0.01053,0.01022,-0.06241
10.099,-0.00931,-0.03876,-0.0351,-0.01144,-0.03235,-0.04715,-0.01938,-0.01266,0.00214,-0.02945,1.11588,0.12115,-0.03098,-0.01266,0.01221,-0.06287
10.0995,-0.00885,-0.03769,-0.03448,-0.01389,-0.03357,-0.04791,-0.01801,-0.00793,-0.00153,-0.03235,0.99625,0.15656,-0.03174,-0.01389,0.01419,-0.065
10.1,-0.00824,-0.03754,-0.0322,-0.01495,-0.03357,-0.04807,-0.01556,-0.00153,-0.00412,-0.03372,0.86914,0.17578,-0.03418,-0.01587,0.01465,-0.06699
10.1005,-0.00748,-0.03876,-0.03021,-0.01404,-0.03235,-0.04807,-0.01419,0.0032,-0.00656,-0.03464,0.74326,0.1709,-0.03586,-0.01724,0.01572,-0.0647
10.101,-0.00656,-0.04089,-0.03021,-0.0119,-0.03189,-0.047,-0.01297,0.00519,-0.00748,-0.03159,0.61951,0.13885,-0.03632,-0.01846,0.01617,-0.06302
10.1015,-0.00656,-0.04013,-0.0296,-0.01144,-0.03174,-0.04791,-0.01205,0.00488,-0.00504,-0.02365,0.49118,0.08423,-0.03448,-0.01785,0.01755,-0.06439
10.102,-0.00702,-0.03784,-0.02991,-0.01282,-0.03235,-0.04822,-0.01343,-0.00031,-0.00183,-0.01389,0.35782,0.03418,-0.03418,-0.01801,0.01724,-0.06744
10.1025,-0.00793,-0.03601,-0.03113,-0.01328,-0.03235,-0.04822,-0.01648,-0.00961,-0.00351,-0.00641,0.22781,0.03204,-0.03571,-0.01862,0.01678,-0.0708
10.103,-0.00793,-0.0351,-0.03403,-0.01282,-0.03265,-0.04913,-0.02014,-0.01755,-0.01251,-0.00519,0.10651,0.08224,-0.03769,-0.01953,0.0174,-0.07355
10.1035,-0.00778,-0.03723,-0.03555,-0.01251,-0.03326,-0.04944,-0.02106,-0.01862,-0.02304,-0.00839,-0.0116,0.13077,-0.03845,-0.02045,0.0177,-0.07431
10.104,-0.00778,-0.03983,-0.03479,-0.0119,-0.03387,-0.04883,-0.01785,-0.01526,-0.02838,-0.01404,-0.13428,0.11978,-0.03937,-0.0206,0.01831,-0.07202
10.1045,-0.00809,-0.04105,-0.03357,-0.0116,-0.03433,-0.0499,-0.01328,-0.0116,-0.02487,-0.0206,-0.26398,0.05371,-0.04166,-0.02151,0.01801,-0.06851
10.105,-0.00839,-0.03983,-0.0325,-0.01144,-0.03677,-0.05005,-0.01068,-0.01114,-0.01572,-0.02716,-0.38864,-0.01923,-0.04257,-0.02136,0.01801,-0.06592
10.1055,-0.00839,-0.03922,-0.03342,-0.01114,-0.03647,-0.0502,-0.00992,-0.01251,-0.00488,-0.03265,-0.48126,-0.05951,-0.04196,-0.01999,0.01755,-0.06516
10.106,-0.00931,-0.0412,-0.03448,-0.01083,-0.0354,-0.05051,-0.01068,-0.01266,0.00519,-0.04013,-0.52689,-0.06439,-0.04105,-0.01816,0.01724,-0.06409
10.1065,-0.01053,-0.04303,-0.03586,-0.00977,-0.0354,-0.0499,-0.01221,-0.01312,0.01282,-0.05402,-0.53986,-0.05005,-0.04028,-0.01724,0.01678,-0.06439
10.107,-0.00992,-0.04333,-0.03662,-0.01038,-0.03479,-0.04791,-0.01343,-0.0119,0.01816,-0.07294,-0.54565,-0.0354,-0.03952,-0.01801,0.01663,-0.06439
10.1075,-0.00854,-0.04257,-0.03525,-0.01175,-0.03326,-0.04654,-0.01221,-0.00916,0.02029,-0.08362,-0.55435,-0.03357,-0.03998,-0.01953,0.01602,-0.06531
10.108,-0.00763,-0.04272,-0.03494,-0.01205,-0.0325,-0.04654,-0.01022,-0.00641,0.01923,-0.06927,-0.57312,-0.04044,-0.03922,-0.02045,0.01556,-0.06683
10.1085,-0.00641,-0.04303,-0.03571,-0.01175,-0.03281,-0.04929,-0.01038,-0.00427,0.01678,-0.04059,-0.6134,-0.04669,-0.03876,-0.0209,0.01602,-0.06546
10.109,-0.00534,-0.04379,-0.03647,-0.01099,-0.03296,-0.05142,-0.01083,-0.0029,0.01495,-0.01434,-0.67642,-0.04211,-0.03784,-0.02136,0.01572,-0.06332
10.1095,-0.00381,-0.04379,-0.03555,-0.01068,-0.03601,-0.05005,-0.01068,-0.00198,0.0116,0.00275,-0.75333,-0.02625,-0.03784,-0.02182,0.01572,-0.06134
10.11,-0.00351,-0.04333,-0.03372,-0.01129,-0.03677,-0.04852,-0.01099,-0.00153,0.00443,0.01175,-0.82886,-0.00427,-0.03754,-0.02106,0.01602,-0.06027
10.1105,-0.00412,-0.04349,-0.03174,-0.01175,-0.03632,-0.04929,-0.01343,-0.00244,-0.00534,0.01694,-0.89081,0.01755,-0.03845,-0.01999,0.01572,-0.05981
10.111,-0.00381,-0.04425,-0.03067,-0.01114,-0.0351,-0.04868,-0.0174,-0.0029,-0.01266,0.0206,-0.93048,0.03479,-0.03983,-0.01968,0.01389,-0.06027
10.1115,-0.00229,-0.04395,-0.03067,-0.009,-0.03494,-0.04791,-0.0177,-0.0029,-0.01587,0.02106,-0.94101,0.04242,-0.0412,-0.02136,0.01312,-0.05814
10.112,-0.00168,-0.04379,-0.03128,-0.00824,-0.03403,-0.04593,-0.01511,-0.00198,-0.01923,0.01648,-0.92239,0.03845,-0.04196,-0.0235,0.01266,-0.05737
10.1125,-0.00198,-0.04395,-0.03174,-0.00778,-0.03204,-0.04562,-0.01373,-0.00031,-0.02747,0.00534,-0.88318,0.0322,-0.04074,-0.02457,0.01266,-0.05676
10.113,-0.00168,-0.04425,-0.03174,-0.00839,-0.02914,-0.04761,-0.01389,0.00031,-0.03876,-0.01099,-0.84091,0.03937,-0.03906,-0.02502,0.01328,-0.05569
10.1135,-0.00061,-0.04364,-0.03311,-0.00854,-0.02823,-0.04883,-0.01419,-0.00015,-0.04807,-0.02472,-0.80795,0.06424,-0.03906,-0.02426,0.0145,-0.05493
10.114,0.00061,-0.04242,-0.03326,-0.00824,-0.02945,-0.04852,-0.01511,-0.00107,-0.0499,-0.03296,-0.78476,0.08911,-0.03998,-0.02304,0.01328,-0.05234
10.1145,0.00198,-0.04059,-0.0322,-0.00854,-0.03006,-0.04807,-0.0148,-0.00198,-0.04349,-0.03601,-0.76096,0.09415,-0.04074,-0.02228,0.01068,-0.0499
10.115,0.00153,-0.04074,-0.0325,-0.009,-0.03036,-0.04807,-0.01434,-0.00137,-0.03311,-0.03601,-0.73532,0.07874,-0.04028,-0.02396,0.00809,-0.05066
10.1155,0.00015,-0.0412,-0.03296,-0.009,-0.03128,-0.04974,-0.01373,-0.00153,-0.02289,-0.0296,-0.71396,0.05844,-0.03983,-0.02655,0.00778,-0.05157
10.116,-0.00183,-0.04196,-0.03265,-0.00809,-0.03174,-0.0499,-0.01358,-0.00275,-0.01419,-0.01526,-0.69931,0.04395,-0.03922,-0.02731,0.00961,-0.0528
10.1165,-0.00259,-0.04105,-0.03113,-0.00717,-0.03143,-0.05051,-0.01465,-0.00412,-0.00885,0.00565,-0.69046,0.03693,-0.03906,-0.02563,0.00961,-0.05264
10.117,-0.00229,-0.04013,-0.02945,-0.0061,-0.03113,-0.04974,-0.01602,-0.00534,-0.00824,0.02731,-0.68115,0.02777,-0.04074,-0.02411,0.0087,-0.05081
10.1175,-0.00122,-0.03967,-0.03052,-0.00824,-0.02914,-0.04852,-0.01511,-0.00641,-0.01404,0.04028,-0.66895,0.00961,-0.04181,-0.02533,0.00854,-0.04913
10.118,-0.00031,-0.03952,-0.03372,-0.01068,-0.02899,-0.04822,-0.01328,-0.00626,-0.02319,0.04013,-0.6543,-0.01953,-0.0412,-0.02777,0.00854,-0.04837
10.1185,0.0,-0.03937,-0.03555,-0.01236,-0.0296,-0.04868,-0.01205,-0.00519,-0.02899,0.03464,-0.6427,-0.04822,-0.03998,-0.03067,0.01038,-0.04684
10.119,0.00061,-0.0386,-0.0351,-0.01312,-0.02991,-0.04883,-0.01328,-0.00366,-0.02747,0.03159,-0.63858,-0.05249,-0.0383,-0.03021,0.0116,-0.04547
10.1195,0.00107,-0.03769,-0.03326,-0.0119,-0.02975,-0.04837,-0.01465,-0.0029,-0.02014,0.03464,-0.6311,-0.00595,-0.03632,-0.02701,0.01129,-0.0444
10.12,0.00061,-0.0383,-0.03204,-0.00977,-0.02914,-0.04807,-0.01572,-0.00336,-0.01099,0.03723,-0.61371,0.08347,-0.03265,-0.02289,0.01038,-0.04395
10.1205,-0.00092,-0.03998,-0.0325,-0.00809,-0.03021,-0.04807,-0.0174,-0.00504,-0.00549,0.03372,-0.59006,0.15518,-0.03036,-0.02075,0.00931,-0.04318
10.121,-0.00259,-0.04089,-0.03265,-0.00793,-0.03098,-0.04929,-0.01831,-0.00519,-0.00305,0.02548,-0.56366,0.15259,-0.03143,-0.02075,0.01007,-0.04044
10.1215,-0.00275,-0.04013,-0.03281,-0.00946,-0.03265,-0.04944,-0.01892,-0.00488,0.00107,0.0148,-0.53635,0.09506,-0.03387,-0.02365,0.00977,-0.03937
10.122,-0.00244,-0.04013,-0.0322,-0.01022,-0.03174,-0.04944,-0.0177,-0.00427,0.00717,0.00351,-0.5098,0.04608,-0.0351,-0.0264,0.0087,-0.03891
10.1225,-0.00153,-0.0412,-0.03235,-0.01007,-0.03174,-0.04868,-0.01633,-0.00366,0.01114,-0.00702,-0.48447,0.03571,-0.03647,-0.02747,0.00656,-0.03998
10.123,-0.00046,-0.0415,-0.03372,-0.00992,-0.03052,-0.04822,-0.01633,-0.00153,0.01099,-0.01694,-0.46066,0.04257,-0.03647,-0.02548,0.00717,-0.04059
10.1235,-0.00031,-0.04089,-0.03311,-0.00961,-0.02899,-0.04684,-0.01678,-0.00046,0.00824,-0.02182,-0.43671,0.04333,-0.03738,-0.0238,0.00763,-0.03937
10.124,-0.00076,-0.04013,-0.03296,-0.00916,-0.0296,-0.04562,-0.0174,-0.00046,0.00381,-0.02243,-0.4068,0.0412,-0.03662,-0.02365,0.0087,-0.0383
10.1245,-0.00046,-0.03952,-0.03204,-0.00854,-0.03006,-0.04593,-0.01785,-0.00061,-0.00351,-0.02457,-0.36392,0.04471,-0.03525,-0.0238,0.00702,-0.03754
10.125,-0.00092,-0.03891,-0.03128,-0.00885,-0.03098,-0.04807,-0.0177,-0.00137,-0.0116,-0.03189,-0.31372,0.05173,-0.03387,-0.02274,0.00534,-0.03769
10.1255,-0.00168,-0.03845,-0.03311,-0.00931,-0.0296,-0.04974,-0.01678,-0.00168,-0.01923,-0.04059,-0.26733,0.05447,-0.03311,-0.02319,0.00549,-0.03586
10.126,-0.00214,-0.03891,-0.03403,-0.01038,-0.03098,-0.0502,-0.01633,-0.00168,-0.02182,-0.04562,-0.23071,0.05157,-0.03403,-0.0267,0.00656,-0.03632
10.1265,-0.00244,-0.03983,-0.03464,-0.01221,-0.03174,-0.0499,-0.01755,0.0,-0.02472,-0.0441,-0.20493,0.04898,-0.03433,-0.02869,0.00778,-0.03632
10.127,-0.0032,-0.04028,-0.03494,-0.01358,-0.03143,-0.04913,-0.01831,0.00092,-0.02777,-0.04181,-0.18448,0.05035,-0.03326,-0.02899,0.00763,-0.03479
10.1275,-0.00488,-0.04028,-0.03586,-0.0145,-0.03159,-0.04944,-0.01724,0.00092,-0.02991,-0.0412,-0.16296,0.05173,-0.03235,-0.02731,0.00854,-0.03357
10.128,-0.0061,-0.04089,-0.03616,-0.0145,-0.03036,-0.05035,-0.01465,0.00168,-0.02853,-0.0412,-0.13168,0.04547,-0.03113,-0.02518,0.0087,-0.03403
10.1285,-0.00717,-0.04227,-0.03693,-0.01343,-0.03098,-0.04944,-0.0116,0.00351,-0.02716,-0.0415,-0.08896,0.02457,-0.03128,-0.02274,0.00961,-0.03464
10.129,-0.00717,-0.04318,-0.03815,-0.01373,-0.03204,-0.04929,-0.00977,0.00305,-0.02792,-0.04333,-0.03922,-0.00504,-0.03204,-0.02319,0.00992,-0.03204
10.1295,-0.00717,-0.04364,-0.03723,-0.01419,-0.03189,-0.04608,-0.01114,0.00153,-0.02533,-0.04288,0.01877,-0.02777,-0.0325,-0.02441,0.00885,-0.0293
10.13,-0.00565,-0.04242,-0.03616,-0.01495,-0.02991,-0.04623,-0.01297,0.00122,-0.01633,-0.03815,0.09018,-0.03403,-0.03265,-0.02472,0.00916,-0.0293
10.1305,-0.00427,-0.04105,-0.03418,-0.0145,-0.0293,-0.04562,-0.01434,0.00183,-0.00565,-0.03448,0.17303,-0.03128,-0.03342,-0.02396,0.01099,-0.02914
10.131,-0.00443,-0.03952,-0.03372,-0.01266,-0.02655,-0.04654,-0.01343,0.00244,0.00122,-0.03555,0.2623,-0.03098,-0.03403,-0.02274,0.01144,-0.02899
10.1315,-0.00473,-0.0383,-0.03464,-0.01297,-0.0264,-0.04623,-0.01205,0.00122,0.00381,-0.04105,0.34912,-0.03799,-0.03372,-0.02167,0.01007,-0.02777
10.132,-0.00473,-0.03708,-0.03616,-0.01343,-0.02777,-0.04639,-0.01175,-0.00046,0.00351,-0.04608,0.42404,-0.04684,-0.03357,-0.02106,0.00793,-0.02869
10.1325,-0.00412,-0.03693,-0.03647,-0.01312,-0.02945,-0.0473,-0.01297,-0.00168,0.00031,-0.04791,0.48065,-0.05371,-0.03311,-0.02045,0.00748,-0.03189
10.133,-0.00305,-0.03845,-0.03464,-0.01312,-0.02975,-0.04822,-0.01312,-0.00137,-0.00504,-0.04745,0.52597,-0.05737,-0.03281,-0.01953,0.00702,-0.03464
10.1335,-0.00473,-0.03998,-0.03235,-0.01312,-0.03082,-0.04929,-0.01129,-0.00168,-0.0087,-0.04562,0.56992,-0.05676,-0.0322,-0.01923,0.00702,-0.03525
10.134,-0.00565,-0.0415,-0.03159,-0.01373,-0.03281,-0.04959,-0.01038,-0.00168,-0.00748,-0.04044,0.616,-0.04623,-0.03052,-0.01923,0.00656,-0.03433
10.1345,-0.00473,-0.04227,-0.03098,-0.01251,-0.03387,-0.04837,-0.01053,-0.00183,-0.00122,-0.03677,0.66574,-0.02808,-0.02975,-0.01846,0.00549,-0.03387
10.135,-0.0032,-0.04211,-0.0322,-0.01083,-0.0351,-0.04807,-0.01144,-0.00168,0.00565,-0.03952,0.71655,-0.0119,-0.03006,-0.01816,0.0058,-0.03403
10.1355,-0.00168,-0.04196,-0.03204,-0.01022,-0.03357,-0.04684,-0.01312,-0.00183,0.00946,-0.04791,0.76859,-0.00656,-0.03098,-0.01633,0.00656,-0.03433
10.136,-0.00183,-0.04181,-0.03189,-0.01038,-0.03326,-0.04654,-0.01358,-0.00168,0.00977,-0.05447,0.82642,-0.01221,-0.03143,-0.01526,0.00656,-0.03174
10.1365,-0.00336,-0.04166,-0.03281,-0.01099,-0.03311,-0.04639,-0.01175,-0.00168,0.00534,-0.05096,0.88959,-0.01968,-0.03067,-0.01694,0.0061,-0.03067
10.137,-0.00412,-0.04089,-0.0325,-0.01129,-0.03189,-0.04654,-0.00946,-0.00198,-0.00397,-0.04166,0.94696,-0.01999,-0.03098,-0.01999,0.00641,-0.03036
10.1375,-0.00351,-0.04044,-0.03311,-0.01221,-0.03159,-0.04807,-0.00778,-0.00305,-0.01114,-0.03082,0.99197,-0.01663,-0.0325,-0.02228,0.00656,-0.03143
10.138,-0.00168,-0.04028,-0.03372,-0.01419,-0.03235,-0.04944,-0.00778,-0.00336,-0.01389,-0.02762,1.02661,-0.01572,-0.03372,-0.02167,0.00519,-0.0354
10.1385,-0.00046,-0.04181,-0.0351,-0.01404,-0.03296,-0.04807,-0.00824,-0.0029,-0.01282,-0.0322,1.0556,-0.01862,-0.03357,-0.01984,0.00275,-0.03708
10.139,-0.00015,-0.04196,-0.03616,-0.01266,-0.03281,-0.04608,-0.00809,-0.00153,-0.01099,-0.03387,1.07941,-0.02121,-0.03387,-0.01938,0.00259,-0.03891
10.1395,-0.00031,-0.04181,-0.03555,-0.01022,-0.03189,-0.04593,-0.00778,-0.00015,-0.00977,-0.02274,1.11038,-0.01785,-0.03433,-0.02075,0.00549,-0.03815
10.14,-0.00153,-0.04074,-0.03387,-0.0087,-0.03067,-0.04501,-0.00732,0.00015,-0.01022,-0.00351,1.16196,-0.00946,-0.03632,-0.02213,0.00793,-0.03677
10.1405,-0.00183,-0.04089,-0.03372,-0.00824,-0.02991,-0.0441,-0.00778,-0.00183,-0.01038,0.01129,1.23123,-0.00488,-0.03738,-0.02182,0.00732,-0.03647
10.141,-0.00244,-0.04166,-0.03342,-0.00839,-0.02914,-0.04227,-0.00687,-0.00549,-0.01053,0.01678,1.29974,-0.00854,-0.0383,-0.02136,0.00656,-0.03677
10.1415,-0.00305,-0.04181,-0.03235,-0.00824,-0.03098,-0.0415,-0.00702,-0.00763,-0.01068,0.0145,1.35406,-0.01648,-0.03906,-0.02121,0.00626,-0.03708
10.142,-0.00229,-0.03998,-0.0322,-0.00885,-0.03143,-0.04379,-0.00763,-0.00763,-0.01236,0.01175,1.38885,-0.01602,-0.03952,-0.02136,0.00656,-0.03616
10.1425,-0.00137,-0.0386,-0.03265,-0.00961,-0.03235,-0.04486,-0.00793,-0.00626,-0.01511,0.00443,1.38657,-0.00092,-0.04089,-0.02213,0.00793,-0.03357
10.143,-0.00092,-0.03845,-0.03326,-0.01022,-0.03235,-0.0444,-0.00946,-0.00412,-0.01663,-0.009,1.31775,0.01816,-0.04242,-0.02319,0.00885,-0.03387
10.1435,-0.00137,-0.03952,-0.03311,-0.01007,-0.03342,-0.04257,-0.01038,-0.00381,-0.0177,-0.02441,1.185,0.02228,-0.04288,-0.02457,0.00763,-0.0325
10.144,-0.00229,-0.03922,-0.0322,-0.01068,-0.03342,-0.04211,-0.01007,-0.00336,-0.01892,-0.03418,1.05392,0.00778,-0.04288,-0.02502,0.00687,-0.03036
10.1445,-0.00214,-0.03876,-0.03067,-0.01144,-0.03342,-0.04395,-0.00732,-0.00366,-0.02075,-0.03632,0.98083,-0.00809,-0.04272,-0.02472,0.0061,-0.02808
10.145,-0.0029,-0.03723,-0.03098,-0.01266,-0.0322,-0.04562,-0.00702,-0.00534,-0.02167,-0.03387,0.94894,-0.0119,-0.04364,-0.0238,0.00732,-0.02853
10.1455,-0.00397,-0.03616,-0.03342,-0.01266,-0.03128,-0.04578,-0.00931,-0.00702,-0.01999,-0.03113,0.90164,-0.00717,-0.0444,-0.0235,0.00641,-0.0325
10.146,-0.00534,-0.03662,-0.03494,-0.01099,-0.03128,-0.04578,-0.01236,-0.00778,-0.01801,-0.02884,0.80948,-0.00519,-0.04562,-0.02197,0.00549,-0.03372
10.1465,-0.00595,-0.03769,-0.03372,-0.00961,-0.03174,-0.04791,-0.01373,-0.00717,-0.01587,-0.02441,0.68268,-0.01282,-0.04562,-0.02014,0.00458,-0.0351
10.147,-0.0058,-0.0386,-0.03296,-0.00931,-0.03204,-0.04944,-0.01434,-0.00656,-0.01465,-0.0206,0.52719,-0.02472,-0.04623,-0.01892,0.00519,-0.03616
10.1475,-0.00458,-0.03922,-0.0351,-0.00946,-0.03265,-0.0499,-0.01465,-0.00641,-0.01236,-0.02136,0.35202,-0.03525,-0.04715,-0.01862,0.00595,-0.03769
10.148,-0.00351,-0.03922,-0.03845,-0.00916,-0.03418,-0.05005,-0.01465,-0.00473,-0.00778,-0.02213,0.18478,-0.04013,-0.04791,-0.01892,0.0061,-0.03784
10.1485,-0.00412,-0.04013,-0.04013,-0.00977,-0.03479,-0.0502,-0.01343,-0.00229,-0.00458,-0.02136,0.05981,-0.03967,-0.04745,-0.01892,0.00534,-0.03632
10.149,-0.00549,-0.04044,-0.03922,-0.00992,-0.03479,-0.04852,-0.01389,-0.00092,-0.00351,-0.0174,-0.01816,-0.03632,-0.047,-0.0177,0.00534,-0.03418
10.1495,-0.00519,-0.04059,-0.03662,-0.00931,-0.03418,-0.04654,-0.01251,-0.00092,-0.00259,-0.00977,-0.08377,-0.03052,-0.04562,-0.01404,0.00671,-0.03296
10.15,-0.00443,-0.03937,-0.03525,-0.00809,-0.03387,-0.04471,-0.01205,-0.00122,-0.00092,-0.00443,-0.16953,-0.02457,-0.04379,-0.00977,0.00824,-0.03235
10.1505,-0.00488,-0.03693,-0.03448,-0.00732,-0.03387,-0.04456,-0.01175,-0.00107,-0.00015,-0.00031,-0.26535,-0.02228,-0.04303,-0.01053,0.0087,-0.03082
10.151,-0.0058,-0.03494,-0.03464,-0.00626,-0.03296,-0.04654,-0.01175,-0.00137,-0.00351,0.00504,-0.33676,-0.02579,-0.04227,-0.01389,0.00885,-0.02945
10.1515,-0.00549,-0.03616,-0.03632,-0.00656,-0.03067,-0.04745,-0.01205,-0.00168,-0.01022,0.01007,-0.38239,-0.03113,-0.04196,-0.01617,0.00977,-0.03006
10.152,-0.00259,-0.03922,-0.03784,-0.00595,-0.03052,-0.04761,-0.01221,-0.00351,-0.01556,0.01419,-0.43945,-0.03281,-0.0415,-0.01678,0.01022,-0.03265
10.1525,-0.00092,-0.04166,-0.03738,-0.00626,-0.03204,-0.04791,-0.01266,-0.00412,-0.01755,0.01694,-0.5246,-0.03235,-0.04089,-0.01633,0.01068,-0.03479
10.153,-0.00107,-0.04181,-0.03555,-0.00793,-0.03281,-0.047,-0.01175,-0.00351,-0.01801,0.01801,-0.61234,-0.0322,-0.04059,-0.01648,0.01038,-0.03342
10.1535,-0.00229,-0.0412,-0.03403,-0.00946,-0.03326,-0.04593,-0.01114,-0.00168,-0.0209,0.01801,-0.67368,-0.03647,-0.04028,-0.01678,0.00961,-0.0322
10.154,-0.00397,-0.04181,-0.03235,-0.01022,-0.03204,-0.04669,-0.0116,-0.00015,-0.02716,0.01587,-0.70587,-0.04181,-0.04028,-0.01556,0.00793,-0.03235
10.1545,-0.00381,-0.04166,-0.03113,-0.00992,-0.03082,-0.04822,-0.01389,0.0,-0.02991,0.01129,-0.72449,-0.04257,-0.0383,-0.01389,0.00717,-0.03464
10.155,-0.00183,-0.04059,-0.03113,-0.00977,-0.03174,-0.04929,-0.01617,-0.00229,-0.02747,0.00443,-0.746,-0.03952,-0.0354,-0.01282,0.00717,-0.03479
10.1555,-0.00031,-0.04074,-0.03189,-0.01007,-0.03082,-0.04868,-0.01816,-0.00412,-0.02258,-0.00443,-0.78598,-0.03342,-0.03174,-0.01221,0.00809,-0.03494
10.156,-0.00015,-0.04166,-0.03403,-0.01038,-0.03036,-0.04776,-0.01831,-0.00351,-0.01877,-0.01556,-0.85037,-0.0296,-0.02914,-0.01221,0.00702,-0.03265
10.1565,-0.00351,-0.04257,-0.03586,-0.01083,-0.03036,-0.04913,-0.01755,-0.00229,-0.01526,-0.02899,-0.92422,-0.02823,-0.02701,-0.01282,0.00626,-0.03189
10.157,-0.00565,-0.04211,-0.03571,-0.01099,-0.03036,-0.04883,-0.01694,-0.00183,-0.01205,-0.04272,-0.98831,-0.02747,-0.02441,-0.01328,0.00702,-0.03174
10.1575,-0.00519,-0.04135,-0.0322,-0.0116,-0.03128,-0.04837,-0.01755,-0.00259,-0.01068,-0.05417,-1.04233,-0.02716,-0.02396,-0.01205,0.00793,-0.03311
10.158,-0.00259,-0.0412,-0.02991,-0.01099,-0.03052,-0.0473,-0.01892,-0.00336,-0.00702,-0.06073,-1.09787,-0.02686,-0.02335,-0.00946,0.00946,-0.03616
10.1585,-0.00137,-0.04089,-0.03113,-0.01068,-0.02869,-0.04639,-0.02029,-0.00336,0.00015,-0.06012,-1.14883,-0.02747,-0.02197,-0.00687,0.009,-0.03922
10.159,-0.0032,-0.03998,-0.0351,-0.00992,-0.02762,-0.04654,-0.02075,-0.00336,0.00595,-0.05386,-1.17767,-0.02853,-0.01892,-0.0058,0.00702,-0.03952
10.1595,-0.00397,-0.03922,-0.03586,-0.00839,-0.02777,-0.04715,-0.01984,-0.00397,0.00549,-0.04456,-1.1615,-0.03113,-0.01663,-0.0058,0.00641,-0.03799
10.16,-0.00473,-0.03906,-0.03296,-0.00763,-0.02777,-0.04868,-0.0174,-0.00412,-0.00351,-0.0351,-1.11221,-0.03326,-0.01556,-0.00565,0.00656,-0.03784
10.1605,-0.00412,-0.03906,-0.03052,-0.00763,-0.02838,-0.04883,-0.01572,-0.00381,-0.01709,-0.02548,-1.06812,-0.03677,-0.01541,-0.00687,0.00885,-0.03845
10.161,-0.00397,-0.03998,-0.03067,-0.00946,-0.02777,-0.04913,-0.0148,-0.00305,-0.02762,-0.01633,-1.04858,-0.04089,-0.01587,-0.00946,0.01007,-0.03876
10.1615,-0.00381,-0.04105,-0.03159,-0.01022,-0.02823,-0.04745,-0.01617,-0.00351,-0.03281,-0.00809,-1.03424,-0.04349,-0.01587,-0.01068,0.01114,-0.03922
10.162,-0.00443,-0.04242,-0.03372,-0.01068,-0.02914,-0.0473,-0.01801,-0.00397,-0.03708,-0.00336,-1.00388,-0.04288,-0.01541,-0.0116,0.00946,-0.03922
10.1625,-0.00534,-0.04257,-0.03357,-0.01038,-0.02884,-0.04745,-0.01755,-0.00412,-0.04456,-0.00214,-0.95718,-0.04227,-0.01556,-0.01297,0.00854,-0.03876
10.163,-0.0061,-0.04196,-0.03525,-0.00961,-0.02945,-0.04684,-0.01678,-0.00458,-0.05325,-0.00107,-0.89615,-0.04028,-0.0177,-0.01526,0.00977,-0.03998
10.1635,-0.00656,-0.04074,-0.03494,-0.009,-0.02945,-0.04715,-0.01694,-0.00336,-0.06012,-0.00031,-0.8284,-0.03876,-0.01892,-0.01556,0.01144,-0.03967
10.164,-0.00641,-0.04089,-0.03494,-0.009,-0.03021,-0.04669,-0.01862,-0.00214,-0.06241,0.00092,-0.77545,-0.03586,-0.01785,-0.01526,0.01129,-0.0386
10.1645,-0.00717,-0.04257,-0.03571,-0.00961,-0.03159,-0.04837,-0.01877,-0.00153,-0.0592,0.00107,-0.75409,-0.0322,-0.01495,-0.01434,0.01083,-0.0386
10.165,-0.00946,-0.04456,-0.03693,-0.00946,-0.03265,-0.04807,-0.01709,-0.00351,-0.05173,0.00122,-0.75134,-0.0293,-0.01389,-0.0148,0.00992,-0.03922
10.1655,-0.01053,-0.04517,-0.03754,-0.00992,-0.03311,-0.04807,-0.01633,-0.00473,-0.04425,0.00168,-0.74112,-0.0264,-0.01343,-0.01511,0.00885,-0.04181
10.166,-0.00992,-0.04486,-0.03815,-0.00946,-0.03387,-0.04761,-0.0174,-0.0058,-0.04181,0.00214,-0.71793,-0.02563,-0.01358,-0.01633,0.00763,-0.04318
10.1665,-0.01083,-0.04501,-0.03677,-0.00885,-0.03479,-0.04913,-0.01831,-0.00458,-0.04379,0.00305,-0.69397,-0.02731,-0.01495,-0.01831,0.00687,-0.04272
10.167,-0.01144,-0.04486,-0.03616,-0.009,-0.03448,-0.04822,-0.01755,-0.00366,-0.04517,0.00076,-0.67108,-0.03143,-0.01663,-0.02075,0.00931,-0.04257
10.1675,-0.01175,-0.04517,-0.03525,-0.009,-0.03311,-0.04761,-0.01602,-0.00244,-0.04135,-0.00458,-0.63797,-0.03464,-0.01816,-0.02182,0.01144,-0.04364
10.168,-0.01251,-0.04547,-0.03677,-0.00992,-0.03372,-0.04715,-0.0148,-0.00183,-0.03143,-0.01373,-0.58228,-0.03479,-0.01831,-0.02167,0.0119,-0.0444
10.1685,-0.01343,-0.04486,-0.0386,-0.00961,-0.03479,-0.04776,-0.01511,-0.00031,-0.01724,-0.02457,-0.51254,-0.03326,-0.01663,-0.01938,0.01144,-0.04395
10.169,-0.01266,-0.04349,-0.0383,-0.00885,-0.03647,-0.04837,-0.01556,0.00137,-0.00244,-0.03555,-0.44693,-0.03204,-0.01648,-0.01801,0.01144,-0.04272
10.1695,-0.01144,-0.04181,-0.0383,-0.00824,-0.03677,-0.04898,-0.01617,0.00076,0.01022,-0.03876,-0.39871,-0.02869,-0.01678,-0.0174,0.01236,-0.04211
10.17,-0.00916,-0.04074,-0.03754,-0.00839,-0.03616,-0.04776,-0.01724,-0.00153,0.01862,-0.03479,-0.36789,-0.02533,-0.01617,-0.0177,0.01129,-0.04364
10.1705,-0.00839,-0.04135,-0.03647,-0.00839,-0.03525,-0.04761,-0.01923,-0.00412,0.02228,-0.02701,-0.34592,-0.02518,-0.01617,-0.01785,0.00931,-0.04654
10.171,-0.00809,-0.04211,-0.03555,-0.00809,-0.03632,-0.04761,-0.01968,-0.00488,0.02182,-0.0177,-0.32181,-0.02838,-0.0174,-0.01785,0.00702,-0.047
10.1715,-0.00702,-0.04227,-0.03571,-0.00824,-0.0354,-0.04517,-0.02075,-0.00488,0.01831,-0.00931,-0.28458,-0.02914,-0.01968,-0.01816,0.00854,-0.04562
10.172,-0.00595,-0.04105,-0.0354,-0.00916,-0.03433,-0.04532,-0.02106,-0.00534,0.01419,-0.00275,-0.23087,-0.02563,-0.02182,-0.02029,0.00916,-0.04425
10.1725,-0.00458,-0.04074,-0.03448,-0.01053,-0.03433,-0.04547,-0.01938,-0.00504,0.00961,0.00443,-0.16907,-0.01938,-0.02274,-0.02243,0.00992,-0.04501
10.173,-0.0032,-0.04089,-0.03387,-0.01022,-0.03525,-0.04715,-0.01633,-0.00412,0.00565,0.00977,-0.1059,-0.01221,-0.02411,-0.02365,0.01083,-0.04593
10.1735,-0.00259,-0.04105,-0.03372,-0.00977,-0.03387,-0.04761,-0.01404,-0.00244,0.00229,0.01038,-0.04028,-0.00656,-0.02594,-0.02426,0.0116,-0.04517
10.174,-0.0029,-0.04013,-0.03296,-0.009,-0.03326,-0.047,-0.01282,-0.00198,-0.00153,0.00702,0.02975,-0.00031,-0.02655,-0.02411,0.01099,-0.0444
10.1745,-0.00336,-0.03998,-0.0322,-0.00885,-0.03143,-0.04608,-0.01282,-0.00427,-0.00656,0.00397,0.10483,0.00504,-0.02686,-0.02304,0.00916,-0.04379
10.175,-0.00305,-0.03952,-0.03082,-0.00931,-0.03174,-0.047,-0.0145,-0.00534,-0.01526,-0.00198,0.1738,0.00702,-0.02884,-0.0238,0.00809,-0.0441
10.1755,-0.00229,-0.04028,-0.03128,-0.00961,-0.03281,-0.04807,-0.01663,-0.0061,-0.02563,-0.01068,0.22461,0.00153,-0.03128,-0.02533,0.00717,-0.04501
10.176,-0.00137,-0.04211,-0.0325,-0.00946,-0.0325,-0.04929,-0.01785,-0.0058,-0.03387,-0.0235,0.25681,-0.00656,-0.03174,-0.02625,0.00717,-0.04684
10.1765,-0.00168,-0.04181,-0.03281,-0.00946,-0.03204,-0.04639,-0.01755,-0.00549,-0.04105,-0.03815,0.28809,-0.01205,-0.03021,-0.02579,0.00824,-0.04852
10.177,-0.00336,-0.04211,-0.03189,-0.00961,-0.03326,-0.04593,-0.01602,-0.00488,-0.04837,-0.0531,0.32913,-0.01389,-0.02884,-0.02548,0.00961,-0.04913
10.1775,-0.00504,-0.04227,-0.02991,-0.00946,-0.03525,-0.04639,-0.01587,-0.00366,-0.05554,-0.06546,0.3743,-0.01312,-0.0296,-0.0264,0.00961,-0.04837
10.178,-0.00534,-0.04196,-0.02884,-0.00946,-0.03342,-0.04761,-0.01556,-0.00275,-0.05692,-0.07156,0.41077,-0.00992,-0.03021,-0.02655,0.00809,-0.04837
10.1785,-0.00443,-0.0412,-0.03082,-0.00916,-0.03265,-0.04639,-0.01373,-0.00244,-0.05005,-0.07111,0.43854,-0.0029,-0.02914,-0.02396,0.00717,-0.04929
10.179,-0.0032,-0.04059,-0.03311,-0.00977,-0.03189,-0.04532,-0.0116,-0.00214,-0.03876,-0.06729,0.45425,0.00336,-0.02701,-0.02014,0.00641,-0.0499
10.1795,-0.00137,-0.03845,-0.03235,-0.00885,-0.03265,-0.04578,-0.00961,0.00031,-0.03036,-0.06271,0.466,0.00259,-0.02502,-0.01724,0.00839,-0.04852
10.18,-0.00046,-0.03799,-0.03113,-0.00809,-0.03159,-0.0473,-0.00809,0.00153,-0.02731,-0.05646,0.48508,-0.00366,-0.02457,-0.01602,0.00931,-0.04669
10.1805,-0.00107,-0.03784,-0.03052,-0.00793,-0.03113,-0.04761,-0.0087,-0.00061,-0.0235,-0.04898,0.51071,-0.01053,-0.02396,-0.01587,0.01038,-0.04379
10.181,-0.00183,-0.0383,-0.03174,-0.00793,-0.03036,-0.0473,-0.00977,-0.00412,-0.0174,-0.04135,0.52536,-0.01236,-0.02304,-0.0148,0.01068,-0.0412
10.1815,-0.00336,-0.03891,-0.0322,-0.00778,-0.03067,-0.04654,-0.0119,-0.00458,-0.00916,-0.03616,0.51544,-0.00793,-0.02335,-0.01312,0.01144,-0.04044
10.182,-0.00336,-0.04059,-0.03082,-0.00687,-0.02914,-0.0473,-0.01389,-0.00366,-0.00519,-0.02579,0.49423,0.00275,-0.02502,-0.01282,0.00916,-0.04166
10.1825,-0.00336,-0.04166,-0.02945,-0.00565,-0.02899,-0.04852,-0.01556,-0.00305,-0.00397,-0.01541,0.47806,0.01968,-0.02655,-0.01419,0.00824,-0.04242
10.183,-0.0029,-0.04166,-0.02914,-0.00504,-0.03082,-0.04883,-0.01694,-0.00366,-0.00305,-0.00534,0.47195,0.03555,-0.02762,-0.01633,0.00687,-0.04288
10.1835,-0.00305,-0.04059,-0.03098,-0.00549,-0.03281,-0.04791,-0.0174,-0.00473,-0.00259,-0.00076,0.47241,0.04593,-0.02808,-0.01831,0.00519,-0.04364
10.184,-0.00427,-0.03967,-0.03311,-0.00565,-0.03464,-0.04715,-0.01831,-0.00534,-0.00427,-0.00153,0.47012,0.05005,-0.02853,-0.01892,0.00427,-0.04471
10.1845,-0.00473,-0.03876,-0.03448,-0.00412,-0.03357,-0.04684,-0.0177,-0.00458,-0.01007,0.00015,0.45914,0.05127,-0.0293,-0.0177,0.00336,-0.04562
10.185,-0.00366,-0.03906,-0.0351,-0.00351,-0.03265,-0.04715,-0.01648,-0.00198,-0.0174,0.00076,0.43945,0.04745,-0.03052,-0.01602,0.00305,-0.0441
10.1855,-0.00275,-0.04028,-0.03647,-0.00336,-0.03098,-0.04898,-0.01556,-0.00015,-0.02167,0.00198,0.42191,0.03265,-0.03143,-0.01633,0.00381,-0.04227
10.186,-0.00366,-0.04196,-0.03738,-0.00427,-0.03204,-0.04883,-0.01678,-0.00198,-0.01938,0.00183,0.41061,0.01312,-0.03174,-0.01877,0.00336,-0.04135
10.1865,-0.00397,-0.04318,-0.0383,-0.00549,-0.03235,-0.04761,-0.0177,-0.00458,-0.01404,-0.00076,0.39886,-0.00259,-0.03265,-0.02075,0.00214,-0.04074
10.187,-0.00305,-0.04333,-0.0386,-0.00748,-0.03235,-0.04623,-0.01617,-0.00534,-0.009,-0.00107,0.38132,-0.00763,-0.03372,-0.02228,0.00153,-0.04089
10.1875,-0.00107,-0.04211,-0.03799,-0.00931,-0.03143,-0.04669,-0.01373,-0.00443,-0.00641,-0.00381,0.35782,-0.00626,-0.03494,-0.0238,0.00015,-0.04059
10.188,0.00015,-0.04135,-0.03632,-0.01053,-0.03159,-0.04745,-0.01129,-0.00443,-0.0058,-0.00549,0.3334,-0.00641,-0.03586,-0.02563,0.00031,-0.04105
10.1885,-0.00015,-0.04196,-0.03555,-0.00946,-0.0325,-0.04944,-0.01038,-0.00671,-0.0061,-0.01007,0.30853,-0.0119,-0.03586,-0.02625,0.0,-0.04257
10.189,-0.00244,-0.04196,-0.03708,-0.00824,-0.03296,-0.05035,-0.00839,-0.00732,-0.00717,-0.01312,0.27985,-0.01999,-0.0351,-0.02365,0.00153,-0.04349
10.1895,-0.00427,-0.0412,-0.0386,-0.00641,-0.03143,-0.05005,-0.00748,-0.00549,-0.00763,-0.01511,0.24521,-0.0238,-0.03464,-0.02014,0.00259,-0.04379
10.19,-0.00443,-0.04028,-0.03845,-0.00595,-0.0296,-0.04807,-0.00702,-0.0029,-0.00824,-0.01694,0.20691,-0.02014,-0.03525,-0.0174,0.00366,-0.0412
10.1905,-0.00443,-0.03998,-0.03632,-0.00656,-0.02899,-0.04807,-0.0087,-0.00137,-0.009,-0.01953,0.17227,-0.01114,-0.03616,-0.0174,0.00381,-0.03906
10.191,-0.0058,-0.04028,-0.03494,-0.00748,-0.02975,-0.04776,-0.01175,-0.00168,-0.01175,-0.02518,0.14786,-0.00366,-0.03723,-0.01801,0.00351,-0.03677
10.1915,-0.00626,-0.03998,-0.0351,-0.0087,-0.03128,-0.04868,-0.01358,-0.00214,-0.01312,-0.03326,0.12756,-0.00275,-0.03738,-0.01831,0.00351,-0.03342
10.192,-0.00717,-0.04059,-0.03754,-0.0087,-0.03159,-0.04822,-0.01709,-0.00168,-0.01099,-0.03693,0.10834,-0.00793,-0.03723,-0.01892,0.00351,-0.0322
10.1925,-0.00778,-0.04166,-0.03845,-0.00809,-0.03098,-0.04913,-0.01816,-0.00076,-0.0061,-0.03464,0.09811,-0.01419,-0.03876,-0.01923,0.00351,-0.03281
10.193,-0.0087,-0.04257,-0.03784,-0.00748,-0.03113,-0.05051,-0.01984,-0.00046,-0.00397,-0.02319,0.10269,-0.01526,-0.04044,-0.01984,0.00305,-0.03571
10.1935,-0.00854,-0.04242,-0.03586,-0.00732,-0.03174,-0.05051,-0.01999,-0.00031,-0.00748,0.0029,0.11703,-0.01083,-0.0412,-0.02243,0.00397,-0.0383
10.194,-0.00793,-0.04242,-0.03464,-0.00748,-0.0325,-0.04852,-0.02197,-0.00046,-0.01312,0.03784,0.12634,-0.00244,-0.04059,-0.02472,0.00412,-0.0383
10.1945,-0.00732,-0.04242,-0.0354,-0.00702,-0.03494,-0.04745,-0.02411,-0.00092,-0.01923,0.06607,0.11978,0.00565,-0.04044,-0.0264,0.00549,-0.03616
10.195,-0.00641,-0.04242,-0.03677,-0.0058,-0.0322,-0.04578,-0.02396,-0.00168,-0.02701,0.06165,0.09109,0.00946,-0.04135,-0.02747,0.0058,-0.03433
10.1955,-0.00504,-0.0415,-0.03677,-0.00488,-0.03189,-0.04684,-0.02258,-0.00153,-0.03693,0.02319,0.03616,0.00229,-0.04288,-0.02716,0.00626,-0.03265
10.196,-0.0032,-0.04013,-0.0354,-0.00473,-0.0296,-0.04715,-0.01938,-0.00092,-0.04517,-0.02823,-0.03723,-0.01923,-0.04303,-0.02548,0.00732,-0.03189
10.1965,-0.00351,-0.03891,-0.03433,-0.00671,-0.02899,-0.04776,-0.01831,-0.00015,-0.04913,-0.07355,-0.11429,-0.04456,-0.04211,-0.02335,0.00763,-0.03128
10.197,-0.00488,-0.04028,-0.03403,-0.00809,-0.03098,-0.0473,-0.01892,0.0,-0.04913,-0.10956,-0.17944,-0.05066,-0.04135,-0.02136,0.00671,-0.03143
10.1975,-0.00458,-0.04303,-0.03464,-0.00916,-0.03311,-0.04654,-0.01953,-0.00153,-0.04456,-0.13794,-0.22324,-0.03189,-0.03952,-0.01984,0.00534,-0.03235
10.198,-0.0032,-0.04501,-0.0351,-0.00916,-0.0325,-0.04578,-0.02029,-0.00198,-0.03799,-0.14908,-0.23895,-0.00824,-0.0386,-0.01984,0.00595,-0.03265
10.1985,-0.0029,-0.04379,-0.03555,-0.00885,-0.03189,-0.0473,-0.02014,-0.00153,-0.03235,-0.13855,-0.22522,0.00214,-0.03906,-0.01877,0.00748,-0.03204
10.199,-0.00412,-0.04211,-0.03586,-0.01007,-0.03189,-0.04837,-0.01953,-0.00092,-0.02853,-0.11566,-0.1944,0.00046,-0.03967,-0.01694,0.00916,-0.02991
10.1995,-0.00443,-0.04242,-0.03479,-0.01053,-0.03189,-0.04776,-0.01831,-0.00061,-0.02548,-0.09308,-0.16907,-0.00061,-0.03815,-0.01495,0.01114,-0.02747
10.2,-0.00336,-0.04318,-0.03326,-0.00992,-0.03265,-0.04684,-0.0177,0.0,-0.02167,-0.07614,-0.16022,0.00229,-0.03632,-0.01526,0.01129,-0.02762
10.2005,-0.00229,-0.04181,-0.03204,-0.01022,-0.03113,-0.04578,-0.01648,0.00061,-0.01968,-0.06165,-0.16113,0.00732,-0.03448,-0.01587,0.01068,-0.0293
10.201,-0.00198,-0.04074,-0.03204,-0.01205,-0.03021,-0.04608,-0.01404,0.00015,-0.02045,-0.04471,-0.16586,0.01358,-0.03433,-0.0148,0.01053,-0.03128
10.2015,-0.00183,-0.04074,-0.03113,-0.01312,-0.03082,-0.0473,-0.01266,-0.00061,-0.02533,-0.02518,-0.17334,0.01801,-0.03525,-0.01144,0.01053,-0.0325
10.202,-0.00183,-0.04196,-0.03174,-0.01266,-0.0296,-0.04776,-0.01221,-0.00107,-0.03143,-0.00656,-0.18082,0.01205,-0.03555,-0.00992,0.01099,-0.03357
10.2025,-0.0029,-0.04227,-0.0322,-0.01144,-0.0293,-0.04684,-0.01266,-0.00015,-0.03525,0.0087,-0.18372,-0.00763,-0.03555,-0.00992,0.01129,-0.03326
10.203,-0.00443,-0.04089,-0.03296,-0.0119,-0.02869,-0.04547,-0.01373,0.00092,-0.03082,0.02335,-0.18356,-0.02747,-0.03555,-0.01144,0.01022,-0.0322
10.2035,-0.0058,-0.04013,-0.03357,-0.01312,-0.02747,-0.04471,-0.01434,0.00137,-0.02121,0.03647,-0.17593,-0.03479,-0.03586,-0.01236,0.00961,-0.03189
10.204,-0.00702,-0.03891,-0.03342,-0.01556,-0.02762,-0.04486,-0.01434,0.00107,-0.00885,0.04684,-0.1593,-0.03296,-0.03586,-0.01343,0.00946,-0.03189
10.2045,-0.00595,-0.03937,-0.03448,-0.01678,-0.02914,-0.04608,-0.01434,-0.00046,0.00015,0.05493,-0.14496,-0.03067,-0.03616,-0.01572,0.01038,-0.03265
10.205,-0.00427,-0.04044,-0.03571,-0.01709,-0.03128,-0.04776,-0.0148,-0.00244,0.00198,0.06348,-0.14099,-0.03464,-0.03586,-0.0174,0.00992,-0.03326
10.2055,-0.00397,-0.04135,-0.03662,-0.01633,-0.0325,-0.04807,-0.01434,-0.00214,-0.00046,0.07202,-0.13931,-0.04425,-0.03571,-0.01831,0.00916,-0.03479
10.206,-0.00458,-0.0415,-0.03647,-0.01526,-0.03342,-0.047,-0.01297,0.0,-0.00275,0.07111,-0.12634,-0.05844,-0.03586,-0.01892,0.00977,-0.03555
10.2065,-0.00519,-0.0412,-0.03448,-0.01511,-0.0293,-0.04807,-0.0119,0.00137,-0.00076,0.05814,-0.10544,-0.06943,-0.03555,-0.01953,0.01053,-0.03555
10.207,-0.00504,-0.04089,-0.03326,-0.01541,-0.03143,-0.04822,-0.01083,0.00137,0.00137,0.0386,-0.08743,-0.06073,-0.03479,-0.01953,0.01114,-0.03693
10.2075,-0.00397,-0.04028,-0.03494,-0.0148,-0.02762,-0.04929,-0.01144,0.00137,-0.00061,0.02197,-0.07645,-0.01617,-0.03525,-0.01999,0.01114,-0.03906
10.208,-0.00397,-0.03967,-0.03555,-0.00992,-0.0264,-0.04883,-0.01236,0.00046,-0.00549,0.01297,-0.06958,0.05615,-0.03601,-0.02029,0.01038,-0.04166
10.2085,-0.00458,-0.03906,-0.0354,-0.00168,-0.0267,-0.04761,-0.0119,-0.00031,-0.00977,0.01099,-0.06592,0.11765,-0.03708,-0.0206,0.00961,-0.04196
10.209,-0.00473,-0.03891,-0.03418,0.00793,-0.02777,-0.0473,-0.01068,-0.00198,-0.01175,0.00931,-0.06577,0.13565,-0.03647,-0.01984,0.00961,-0.03983
10.2095,-0.0029,-0.03952,-0.03326,0.01328,-0.02777,-0.04654,-0.00839,-0.00168,-0.01404,0.00534,-0.06073,0.11246,-0.03677,-0.01846,0.00992,-0.03784
10.21,-0.00076,-0.03998,-0.0322,0.01114,-0.02884,-0.04608,-0.00839,0.0,-0.02151,-0.00412,-0.03906,0.0766,-0.03799,-0.01938,0.01129,-0.03723
10.2105,-0.00015,-0.03891,-0.03067,0.00488,-0.02899,-0.04578,-0.00946,0.00031,-0.03357,-0.0148,0.00107,0.05386,-0.03983,-0.02213,0.01251,-0.04013
10.211,-0.00092,-0.03845,-0.03098,-0.00046,-0.0296,-0.04578,-0.01083,-0.00076,-0.04608,-0.01984,0.0502,0.04715,-0.03952,-0.02579,0.01251,-0.04181
10.2115,-0.00183,-0.03891,-0.03342,-0.01129,-0.02975,-0.04532,-0.01007,-0.00061,-0.05692,-0.01953,0.0885,0.04364,-0.03708,-0.0264,0.01236,-0.0415
10.212,-0.0032,-0.03952,-0.03311,-0.03067,-0.0293,-0.04517,-0.01083,-0.00031,-0.06454,-0.01907,0.11551,0.0354,-0.0351,-0.02441,0.01205,-0.04059
10.2125,-0.00534,-0.04059,-0.03143,-0.05554,-0.02899,-0.04608,-0.0119,-0.00061,-0.06973,-0.02136,0.14832,0.02563,-0.03326,-0.02121,0.01205,-0.04196
10.213,-0.00626,-0.04013,-0.02869,-0.07141,-0.03113,-0.04562,-0.01221,-0.00168,-0.07172,-0.02411,0.19089,0.02136,-0.03143,-0.01877,0.0119,-0.0441
10.2135,-0.00565,-0.03983,-0.02777,-0.07187,-0.03128,-0.04471,-0.01068,-0.00275,-0.06775,-0.02853,0.22736,0.02106,-0.03143,-0.01862,0.01099,-0.04578
10.214,-0.00565,-0.04105,-0.02899,-0.06531,-0.02884,-0.04623,-0.01083,-0.00336,-0.05707,-0.03265,0.2446,0.02106,-0.03159,-0.01892,0.01007,-0.04562
10.2145,-0.00641,-0.0415,-0.03021,-0.06256,-0.02792,-0.04837,-0.01144,-0.00381,-0.04166,-0.03143,0.24292,0.0209,-0.03281,-0.01862,0.01038,-0.04379
10.215,-0.00763,-0.04227,-0.03265,-0.06378,-0.02869,-0.05051,-0.01312,-0.00397,-0.02762,-0.01678,0.23132,0.01968,-0.03479,-0.01907,0.00931,-0.04349
10.2155,-0.00824,-0.04135,-0.03494,-0.05951,-0.03067,-0.05051,-0.01358,-0.00366,-0.01648,0.00427,0.21439,0.01648,-0.03662,-0.0209,0.009,-0.04532
10.216,-0.00778,-0.04028,-0.03738,-0.03922,-0.03403,-0.04868,-0.01373,-0.00473,-0.0061,0.01038,0.18738,0.01053,-0.03769,-0.02274,0.00748,-0.04593
10.2165,-0.00641,-0.03815,-0.03769,-0.00046,-0.03479,-0.04776,-0.01526,-0.00534,0.00519,-0.00732,0.14862,0.00519,-0.03708,-0.02243,0.00626,-0.04425
10.217,-0.00458,-0.03738,-0.03632,0.04227,-0.03494,-0.04883,-0.01587,-0.00473,0.01694,-0.03586,0.11398,0.00473,-0.03616,-0.01892,0.00687,-0.04395
10.2175,-0.00397,-0.03754,-0.03448,0.06699,-0.03494,-0.05066,-0.01465,-0.00244,0.0235,-0.05234,0.10269,0.00809,-0.03571,-0.01556,0.00839,-0.0441
10.218,-0.00443,-0.0383,-0.03265,0.05814,-0.03418,-0.05112,-0.01389,-0.00031,0.02243,-0.05295,0.11581,0.01251,-0.03479,-0.01556,0.00916,-0.04318
10.2185,-0.00534,-0.03906,-0.0322,0.03189,-0.03387,-0.05066,-0.01343,-0.00061,0.01663,-0.04959,0.14191,0.01572,-0.03433,-0.01816,0.00824,-0.04196
10.219,-0.00519,-0.03967,-0.03204,0.01541,-0.03189,-0.04913,-0.01221,-0.00275,0.01389,-0.05035,0.17288,0.01846,-0.03281,-0.01968,0.00717,-0.04105
10.2195,-0.00366,-0.03952,-0.03281,0.02029,-0.03265,-0.04852,-0.00946,-0.00381,0.01587,-0.0528,0.20905,0.02121,-0.03204,-0.01846,0.00732,-0.04349
10.22,-0.00168,-0.03799,-0.03265,0.03296,-0.0296,-0.047,-0.00717,-0.0032,0.01923,-0.0499,0.24475,0.02182,-0.0322,-0.0148,0.00778,-0.04486
10.2205,-0.00061,-0.03647,-0.03311,0.03662,-0.02747,-0.04639,-0.0058,-0.00244,0.02014,-0.04471,0.26733,0.0209,-0.03128,-0.01251,0.00992,-0.04623
10.221,-0.00107,-0.03586,-0.03418,0.03647,-0.02716,-0.04715,-0.00641,-0.00229,0.01633,-0.03998,0.27435,0.02045,-0.03098,-0.01312,0.01068,-0.047
10.2215,-0.00168,-0.03571,-0.03494,0.04303,-0.02762,-0.04715,-0.00839,-0.00259,0.00992,-0.03876,0.27359,0.02106,-0.03296,-0.01465,0.009,-0.047
10.222,-0.00305,-0.03723,-0.0354,0.06317,-0.03082,-0.04684,-0.01007,-0.00366,0.00427,-0.03845,0.27496,0.02136,-0.03525,-0.01587,0.00778,-0.04837
10.2225,-0.00412,-0.03799,-0.03586,0.08575,-0.02975,-0.04608,-0.00992,-0.00534,0.00214,-0.03708,0.28046,0.01968,-0.03723,-0.01801,0.00839,-0.04959
10.223,-0.00488,-0.03906,-0.03601,0.08575,-0.02914,-0.04639,-0.00687,-0.00702,0.00488,-0.03448,0.28763,0.01801,-0.03693,-0.01953,0.00916,-0.05066
10.2235,-0.00519,-0.03967,-0.0351,0.04669,-0.02625,-0.04761,-0.00534,-0.00717,0.00946,-0.03067,0.29053,0.01816,-0.03586,-0.02151,0.0087,-0.05035
10.224,-0.00687,-0.03967,-0.03357,-0.01312,-0.02533,-0.04913,-0.00626,-0.00595,0.01175,-0.02716,0.28671,0.01877,-0.03571,-0.02304,0.00763,-0.05051
10.2245,-0.00793,-0.03952,-0.0322,-0.05661,-0.03098,-0.04929,-0.00824,-0.0061,0.01144,-0.02502,0.27618,0.01801,-0.03586,-0.02396,0.00717,-0.0499
10.225,-0.00839,-0.03998,-0.03418,-0.06561,-0.02945,-0.04791,-0.00946,-0.00687,0.01144,-0.02228,0.2565,0.01678,-0.03601,-0.02518,0.00732,-0.0499
10.2255,-0.00839,-0.0412,-0.03601,-0.05966,-0.03433,-0.04639,-0.0087,-0.00732,0.01053,-0.01541,0.23102,0.01877,-0.03693,-0.02533,0.00687,-0.05112
10.226,-0.00809,-0.04181,-0.03677,-0.0618,-0.03281,-0.04486,-0.00931,-0.00748,0.00763,-0.00595,0.20767,0.02411,-0.03677,-0.0235,0.0061,-0.05356
10.2265,-0.00778,-0.04089,-0.03723,-0.07629,-0.03433,-0.04471,-0.00946,-0.00793,0.00473,0.00275,0.18539,0.02975,-0.03677,-0.0206,0.0061,-0.05463
10.227,-0.00717,-0.03937,-0.03769,-0.09109,-0.03174,-0.04593,-0.00977,-0.00931,0.00259,0.00595,0.16205,0.03479,-0.03601,-0.01877,0.00717,-0.05463
10.2275,-0.00656,-0.03967,-0.03754,-0.09628,-0.03159,-0.04684,-0.01129,-0.00992,0.00351,0.00519,0.14343,0.03891,-0.03555,-0.01892,0.00671,-0.05386
10.228,-0.00534,-0.04089,-0.03754,-0.08926,-0.03082,-0.04822,-0.01205,-0.009,0.00534,0.00641,0.13382,0.03952,-0.03494,-0.01907,0.00626,-0.05234
10.2285,-0.00671,-0.04303,-0.03555,-0.07538,-0.03281,-0.04898,-0.0116,-0.00793,0.0058,0.00961,0.12573,0.03403,-0.03571,-0.0177,0.00641,-0.05249
10.229,-0.00763,-0.04318,-0.03387,-0.06012,-0.03265,-0.04944,-0.01144,-0.00793,0.00092,0.01175,0.11322,0.0209,-0.03708,-0.01556,0.0087,-0.05356
10.2295,-0.00702,-0.0415,-0.03326,-0.03647,-0.02975,-0.04822,-0.01053,-0.00748,-0.00671,0.01144,0.10101,0.00137,-0.03754,-0.01419,0.00992,-0.05539
10.23,-0.00336,-0.0386,-0.03433,0.00229,-0.02853,-0.04684,-0.00961,-0.00473,-0.01236,0.00809,0.09583,-0.01984,-0.03723,-0.01465,0.00961,-0.05493
10.2305,-0.00183,-0.03769,-0.03601,0.03387,-0.02914,-0.04623,-0.00961,-0.00183,-0.01205,0.00183,0.09567,-0.03647,-0.03601,-0.01541,0.009,-0.05356
10.231,-0.0032,-0.03708,-0.0354,0.02289,-0.02899,-0.04669,-0.00916,-0.00015,-0.01114,-0.00702,0.09186,-0.04608,-0.03586,-0.01678,0.00946,-0.05341
10.2315,-0.00443,-0.03647,-0.03464,-0.02792,-0.02747,-0.04639,-0.00763,0.00031,-0.01465,-0.01328,0.07401,-0.05142,-0.03586,-0.01831,0.0087,-0.05508
10.232,-0.00427,-0.03632,-0.03479,-0.0766,-0.02991,-0.04623,-0.00717,0.00092,-0.02686,-0.01816,0.04471,-0.05661,-0.0354,-0.01907,0.00824,-0.06653
10.2325,-0.0029,-0.0383,-0.03433,-0.07416,-0.02914,-0.0473,-0.0061,0.00046,-0.04166,-0.02075,0.01282,-0.06241,-0.03555,-0.01968,0.00748,-0.1033
10.233,-0.00198,-0.04074,-0.03433,-0.00931,-0.02533,-0.04807,-0.00595,0.00122,-0.05066,-0.02213,-0.02457,-0.0679,-0.03525,-0.01877,0.00671,-0.1564
10.2335,-0.00137,-0.04227,-0.03418,0.08224,-0.02655,-0.04822,-0.00534,0.00107,-0.04852,-0.02441,-0.07736,-0.06836,-0.03555,-0.01801,0.0058,-0.18204
10.234,-0.00137,-0.04349,-0.0351,0.13412,-0.02884,-0.04868,-0.0058,0.00061,-0.04105,-0.02884,-0.14069,-0.05325,-0.03586,-0.01694,0.00656,-0.14816
10.2345,-0.00107,-0.0444,-0.03616,0.10437,-0.0296,-0.04761,-0.00549,0.00122,-0.03296,-0.03616,-0.19455,-0.01465,-0.03616,-0.01755,0.00717,-0.07217
10.235,-0.00153,-0.04562,-0.03448,0.02151,-0.02777,-0.04761,-0.00687,0.00092,-0.02609,-0.04425,-0.22919,0.0386,-0.03433,-0.01694,0.00824,-0.00412
10.2355,-0.00183,-0.04608,-0.03418,-0.03128,-0.02747,-0.04715,-0.00916,-0.00061,-0.01617,-0.05081,-0.24994,0.08301,-0.03204,-0.01602,0.0087,0.0293
10.236,-0.00275,-0.04578,-0.03479,-0.00961,-0.02899,-0.0473,-0.00931,-0.00366,-0.00473,-0.05096,-0.26611,0.09766,-0.03113,-0.01465,0.00763,0.03693
10.2365,-0.00336,-0.04456,-0.03647,0.03937,-0.02975,-0.04791,-0.009,-0.00458,0.00534,-0.04654,-0.28091,0.07736,-0.03113,-0.01297,0.00824,0.03265
10.237,-0.00336,-0.04242,-0.03799,0.03967,-0.02991,-0.04868,-0.00977,-0.00427,0.01495,-0.04196,-0.29495,0.04196,-0.03128,-0.01175,0.00824,0.02396
10.2375,-0.00351,-0.0412,-0.03693,-0.01801,-0.03036,-0.04822,-0.01099,-0.00366,0.02518,-0.04059,-0.31769,0.01526,-0.03006,-0.0119,0.00854,0.01312
10.238,-0.00443,-0.04089,-0.03616,-0.07782,-0.03052,-0.047,-0.01251,-0.00458,0.03387,-0.03876,-0.35599,0.00504,-0.02823,-0.01373,0.00793,0.00122
10.2385,-0.00626,-0.04059,-0.03586,-0.09552,-0.03036,-0.04761,-0.01373,-0.00626,0.03815,-0.03357,-0.40314,0.0032,-0.02853,-0.01587,0.00824,-0.01495
10.239,-0.00702,-0.03937,-0.03525,-0.07767,-0.02991,-0.04898,-0.01419,-0.00778,0.0322,-0.02747,-0.44037,0.00122,-0.02975,-0.01663,0.00916,-0.03082
10.2395,-0.00656,-0.0386,-0.03326,-0.05051,-0.02945,-0.04822,-0.01465,-0.009,0.02213,-0.02243,-0.45807,0.0,-0.03082,-0.01526,0.00885,-0.04028
10.24,-0.00595,-0.03906,-0.0296,-0.03296,-0.02777,-0.04623,-0.0148,-0.00992,0.01007,-0.01877,-0.46188,0.00183,-0.03098,-0.01373,0.00931,-0.04288
10.2405,-0.00656,-0.03952,-0.02747,-0.02731,-0.02808,-0.04532,-0.01541,-0.00931,-0.00198,-0.01495,-0.46265,0.00565,-0.03067,-0.01282,0.00977,-0.04333
10.241,-0.00748,-0.03983,-0.03052,-0.02594,-0.02884,-0.04654,-0.01495,-0.00748,-0.01541,-0.01175,-0.46402,0.00946,-0.0296,-0.01434,0.01007,-0.04578
10.2415,-0.00641,-0.03952,-0.03342,-0.01648,-0.03082,-0.04715,-0.01404,-0.00473,-0.02975,-0.01129,-0.47073,0.00961,-0.02991,-0.01785,0.009,-0.04852
10.242,-0.00565,-0.03983,-0.03403,0.00473,-0.03067,-0.04791,-0.01434,-0.00351,-0.0441,-0.01205,-0.48615,0.00763,-0.03067,-0.02121,0.00824,-0.04791
10.2425,-0.00549,-0.04059,-0.03372,0.03067,-0.0293,-0.04654,-0.01434,-0.00275,-0.0563,-0.01328,-0.49866,0.00488,-0.03082,-0.02136,0.00854,-0.04333
10.243,-0.0058,-0.04181,-0.03418,0.04654,-0.02975,-0.04578,-0.01404,-0.00183,-0.06378,-0.01358,-0.49362,0.00305,-0.03082,-0.01968,0.01053,-0.04059
10.2435,-0.00534,-0.04318,-0.03433,0.03876,-0.03174,-0.04623,-0.01358,-0.00198,-0.06317,-0.01541,-0.4631,-0.00031,-0.03082,-0.01938,0.01099,-0.0415
10.244,-0.00381,-0.04166,-0.03357,0.01358,-0.03098,-0.04593,-0.01495,-0.00366,-0.05676,-0.01801,-0.41504,-0.00214,-0.03174,-0.02014,0.01068,-0.04547
10.2445,-0.00351,-0.03876,-0.03281,-0.00336,-0.02945,-0.04608,-0.01694,-0.00504,-0.047,-0.02151,-0.36835,-0.0029,-0.03204,-0.02045,0.01099,-0.04837
10.245,-0.00336,-0.03815,-0.03281,0.01556,-0.02975,-0.04486,-0.01785,-0.00488,-0.03906,-0.0235,-0.33554,-0.00336,-0.03265,-0.02029,0.01129,-0.04944
10.2455,-0.00473,-0.03998,-0.03448,0.06409,-0.03036,-0.04547,-0.01587,-0.00381,-0.03555,-0.02274,-0.31601,-0.00473,-0.0322,-0.01816,0.01251,-0.04898
10.246,-0.0058,-0.04196,-0.03693,0.10666,-0.03006,-0.04684,-0.0145,-0.00229,-0.03372,-0.02029,-0.30075,-0.00473,-0.03159,-0.01648,0.01266,-0.05081
10.2465,-0.00488,-0.04257,-0.03738,0.112,-0.03159,-0.04822,-0.01404,-0.00153,-0.03052,-0.02151,-0.28625,-0.00305,-0.03113,-0.01633,0.01083,-0.05371
10.247,-0.00244,-0.04272,-0.03738,0.07599,-0.0322,-0.04761,-0.01648,-0.00259,-0.02625,-0.02411,-0.26779,-0.00061,-0.03128,-0.01648,0.00793,-0.05676
10.2475,-0.00076,-0.0415,-0.03769,0.0209,-0.03296,-0.04623,-0.01907,-0.00366,-0.02075,-0.02609,-0.24628,0.00092,-0.03067,-0.0177,0.00656,-0.05692
10.248,-0.00168,-0.03998,-0.0383,-0.02167,-0.03311,-0.04593,-0.02045,-0.00412,-0.01755,-0.02487,-0.22476,-0.00076,-0.02914,-0.01724,0.00839,-0.05508
10.2485,-0.0029,-0.03845,-0.03876,-0.03906,-0.03357,-0.04562,-0.02045,-0.00412,-0.01389,-0.02304,-0.2095,-0.0029,-0.02853,-0.01755,0.01205,-0.05173
10.249,-0.0029,-0.0386,-0.03693,-0.04181,-0.03342,-0.04532,-0.01892,-0.00427,-0.0119,-0.02243,-0.19806,-0.00488,-0.03021,-0.01846,0.01389,-0.04822
10.2495,-0.00183,-0.03967,-0.03525,-0.04684,-0.03296,-0.0444,-0.01663,-0.00397,-0.0119,-0.02167,-0.18707,-0.00412,-0.03159,-0.01892,0.01434,-0.04501
10.25,-0.00107,-0.03922,-0.03342,-0.05844,-0.0325,-0.04364,-0.01495,-0.00473,-0.01434,-0.02182,-0.1741,-0.00366,-0.03113,-0.0177,0.01419,-0.04318
10.2505,-0.00153,-0.03754,-0.03387,-0.07233,-0.03174,-0.04257,-0.01312,-0.00534,-0.01678,-0.02274,-0.16205,-0.00412,-0.03021,-0.01801,0.0145,-0.04349
10.251,-0.00259,-0.03769,-0.03403,-0.08972,-0.03143,-0.04211,-0.01205,-0.00549,-0.01724,-0.02213,-0.15152,-0.00504,-0.03128,-0.01694,0.01404,-0.04593
10.2515,-0.0029,-0.03952,-0.03464,-0.10956,-0.03204,-0.04242,-0.01114,-0.00458,-0.01389,-0.01877,-0.14175,-0.00381,-0.0322,-0.01526,0.01251,-0.04654
10.252,-0.00443,-0.04059,-0.03494,-0.11795,-0.03281,-0.04364,-0.01007,-0.00427,-0.00732,-0.01541,-0.13229,-0.00366,-0.03082,-0.01541,0.01205,-0.04654
10.2525,-0.0061,-0.03967,-0.03403,-0.09232,-0.0325,-0.04501,-0.00946,-0.00473,0.00015,-0.01495,-0.1181,-0.00595,-0.02884,-0.01724,0.01282,-0.04562
10.253,-0.0058,-0.03784,-0.03372,-0.03601,-0.03143,-0.04684,-0.00931,-0.00397,0.00412,-0.0148,-0.09964,-0.01068,-0.02747,-0.01816,0.01358,-0.04395
10.2535,-0.00473,-0.03815,-0.03464,0.01389,-0.02975,-0.04745,-0.00854,-0.00351,0.00397,-0.01358,-0.08102,-0.01389,-0.02869,-0.01724,0.01328,-0.04028
10.254,-0.00229,-0.04059,-0.03586,0.03281,-0.03021,-0.04715,-0.00793,-0.00381,0.00137,-0.01038,-0.0708,-0.01389,-0.03052,-0.01633,0.01266,-0.03906
10.2545,-0.00198,-0.04349,-0.0354,0.04242,-0.03036,-0.04669,-0.00717,-0.00305,-0.00046,-0.00443,-0.06317,-0.01221,-0.03189,-0.01663,0.01328,-0.03952
10.255,-0.00229,-0.04456,-0.03448,0.07309,-0.03128,-0.04761,-0.00763,-0.00244,-0.0029,0.00259,-0.05417,-0.01053,-0.0325,-0.01816,0.01251,-0.04105
10.2555,-0.0032,-0.04349,-0.03372,0.10406,-0.03281,-0.04715,-0.00839,-0.00214,-0.00809,0.00824,-0.04364,-0.0087,-0.03311,-0.01953,0.01007,-0.04364
10.256,-0.00473,-0.04211,-0.03433,0.0914,-0.03326,-0.04562,-0.0087,-0.00336,-0.01633,0.00931,-0.0293,-0.00809,-0.03311,-0.02045,0.00778,-0.04898
10.2565,-0.00488,-0.04074,-0.03418,0.03586,-0.03235,-0.04547,-0.01022,-0.00473,-0.02502,0.00824,-0.01328,-0.00854,-0.03281,-0.02121,0.00809,-0.05417
10.257,-0.00443,-0.04105,-0.03311,-0.01617,-0.03174,-0.0473,-0.0119,-0.00671,-0.03036,0.00687,0.00046,-0.01038,-0.03357,-0.02258,0.00977,-0.05692
10.2575,-0.0032,-0.04166,-0.0322,-0.03433,-0.03296,-0.04913,-0.01495,-0.00809,-0.03296,0.00626,0.0145,-0.01251,-0.03418,-0.02411,0.00946,-0.05341
10.258,-0.0029,-0.04181,-0.0322,-0.02762,-0.03448,-0.0499,-0.01709,-0.00824,-0.03326,0.00565,0.03067,-0.01266,-0.03311,-0.0238,0.00992,-0.04883
10.2585,-0.00305,-0.04105,-0.0325,-0.01892,-0.03464,-0.04959,-0.01785,-0.00763,-0.03159,0.00153,0.04501,-0.01236,-0.03098,-0.0235,0.00992,-0.04807
10.259,-0.00381,-0.04074,-0.03311,-0.01663,-0.03372,-0.04974,-0.01617,-0.00702,-0.02975,-0.00671,0.05753,-0.01007,-0.03052,-0.0235,0.0087,-0.05188
10.2595,-0.00504,-0.04089,-0.03326,-0.0148,-0.03265,-0.0499,-0.01434,-0.00656,-0.02747,-0.01663,0.07477,-0.00732,-0.03159,-0.02426,0.00885,-0.05356
10.26,-0.00412,-0.0415,-0.0322,-0.01007,-0.03189,-0.04791,-0.01312,-0.00397,-0.02686,-0.02655,0.10056,-0.00549,-0.03143,-0.02487,0.01022,-0.05325
10.2605,-0.00351,-0.04196,-0.03036,-0.00443,-0.0325,-0.04807,-0.01251,-0.00244,-0.02686,-0.03464,0.12634,-0.00626,-0.03021,-0.02487,0.0116,-0.04837
10.261,-0.00305,-0.04135,-0.03128,-0.00519,-0.03281,-0.04715,-0.01297,-0.00198,-0.02563,-0.04257,0.14221,-0.00778,-0.0296,-0.0238,0.01129,-0.04517
10.2615,-0.0032,-0.0415,-0.03311,-0.01495,-0.03204,-0.04761,-0.01495,-0.00458,-0.02228,-0.04837,0.14496,-0.00885,-0.02914,-0.02243,0.00793,-0.04349
10.262,-0.00412,-0.04227,-0.0351,-0.02838,-0.0296,-0.04776,-0.01831,-0.00763,-0.01877,-0.04852,0.14069,-0.00931,-0.02899,-0.02106,0.00427,-0.04105
10.2625,-0.00381,-0.04257,-0.0354,-0.03693,-0.03006,-0.04684,-0.02075,-0.00839,-0.01572,-0.04227,0.13199,-0.00931,-0.02853,-0.02167,0.00458,-0.03876
10.263,-0.00473,-0.0415,-0.03342,-0.03784,-0.0325,-0.04547,-0.0209,-0.00748,-0.01343,-0.03616,0.12146,-0.00717,-0.02869,-0.02258,0.00824,-0.0386
10.2635,-0.00595,-0.04059,-0.03159,-0.0354,-0.03464,-0.04562,-0.01816,-0.00656,-0.01175,-0.03418,0.11322,-0.00412,-0.0293,-0.02228,0.01312,-0.0412
10.264,-0.00534,-0.04013,-0.03159,-0.0351,-0.03387,-0.04593,-0.01602,-0.00549,-0.00916,-0.03387,0.11185,-0.00183,-0.02914,-0.0209,0.01587,-0.04272
10.2645,-0.00565,-0.03952,-0.03265,-0.03723,-0.03265,-0.04517,-0.01602,-0.00565,-0.00443,-0.03204,0.11871,-0.00305,-0.02747,-0.01938,0.01587,-0.04395
10.265,-0.00595,-0.04028,-0.03357,-0.04074,-0.0322,-0.04456,-0.01724,-0.00626,-0.00122,-0.02487,0.12924,-0.00488,-0.02655,-0.01968,0.01389,-0.04471
10.2655,-0.00656,-0.03952,-0.03403,-0.0441,-0.03296,-0.0444,-0.01617,-0.00656,-0.00092,-0.01297,0.13535,-0.00519,-0.02762,-0.01984,0.01007,-0.04425
10.266,-0.0061,-0.0386,-0.03571,-0.04608,-0.03281,-0.04807,-0.01526,-0.0061,-0.00412,-0.00214,0.13931,-0.00244,-0.02975,-0.01938,0.00626,-0.04578
10.2665,-0.00519,-0.0386,-0.03677,-0.04379,-0.03296,-0.05173,-0.01511,-0.00595,-0.00854,0.00397,0.14816,-0.00092,-0.0322,-0.01892,0.00046,-0.04959
10.267,-0.00656,-0.04059,-0.03632,-0.03845,-0.03311,-0.0531,-0.01495,-0.00626,-0.01358,0.00229,0.1593,-0.00122,-0.03265,-0.01892,-0.00443,-0.05219
10.2675,-0.00793,-0.04166,-0.0351,-0.03326,-0.03418,-0.05234,-0.01404,-0.00626,-0.01755,-0.00305,0.16693,-0.00061,-0.03296,-0.01953,-0.00366,-0.04852
10.268,-0.0087,-0.04211,-0.03555,-0.03021,-0.03448,-0.05066,-0.01358,-0.00565,-0.01938,-0.00824,0.16968,0.0032,-0.03357,-0.01968,0.00229,-0.03967
10.2685,-0.00854,-0.04211,-0.03586,-0.02945,-0.03433,-0.04944,-0.0145,-0.00595,-0.01846,-0.0119,0.16281,0.00702,-0.03448,-0.01877,0.0087,-0.03067
10.269,-0.00793,-0.04272,-0.03632,-0.02853,-0.03433,-0.04974,-0.01587,-0.00656,-0.01602,-0.01358,0.14511,0.00687,-0.03464,-0.01709,0.01144,-0.02991
10.2695,-0.00732,-0.04303,-0.03555,-0.02533,-0.03204,-0.05051,-0.01526,-0.00702,-0.01144,-0.01678,0.12543,0.00473,-0.03403,-0.01511,0.00977,-0.03433
10.27,-0.00641,-0.04318,-0.03448,-0.01678,-0.03128,-0.04822,-0.01373,-0.00702,-0.00732,-0.02197,0.11139,0.00412,-0.03235,-0.01221,0.00824,-0.03738
10.2705,-0.00534,-0.04303,-0.03403,-0.00427,-0.03128,-0.04532,-0.01175,-0.00671,-0.00793,-0.02823,0.09979,0.00534,-0.03098,-0.0116,0.00717,-0.03891
10.271,-0.00534,-0.04349,-0.03403,0.00458,-0.03036,-0.04532,-0.01099,-0.0061,-0.01144,-0.03357,0.08881,0.00763,-0.03052,-0.01266,0.00916,-0.03754
10.2715,-0.00565,-0.04257,-0.03418,0.00397,-0.02991,-0.04547,-0.0116,-0.00458,-0.01358,-0.03662,0.08133,0.0087,-0.03098,-0.0145,0.00992,-0.03632
10.272,-0.00595,-0.04211,-0.0351,-0.00366,-0.03098,-0.04654,-0.01373,-0.00534,-0.01343,-0.03815,0.07813,0.00641,-0.03235,-0.01724,0.00946,-0.03525
10.2725,-0.0061,-0.04242,-0.03754,-0.01801,-0.03174,-0.047,-0.01648,-0.00793,-0.01526,-0.03723,0.07599,0.00275,-0.03311,-0.01923,0.00809,-0.0351
10.273,-0.00671,-0.04333,-0.03738,-0.03647,-0.03189,-0.04608,-0.01755,-0.01022,-0.02075,-0.03555,0.07278,0.00137,-0.03372,-0.02151,0.00763,-0.03677
10.2735,-0.00656,-0.04364,-0.0351,-0.05356,-0.03098,-0.04562,-0.01617,-0.01114,-0.02487,-0.03708,0.07217,0.00168,-0.03403,-0.02243,0.00824,-0.03784
10.274,-0.00595,-0.04333,-0.03235,-0.06348,-0.03006,-0.04562,-0.01556,-0.00931,-0.02563,-0.03891,0.08286,0.00244,-0.03342,-0.0206,0.00793,-0.03799
10.2745,-0.00519,-0.04227,-0.03296,-0.06454,-0.0296,-0.04684,-0.01648,-0.00763,-0.02136,-0.03555,0.1059,0.00259,-0.03067,-0.0177,0.00732,-0.03967
10.275,-0.00443,-0.0415,-0.03479,-0.0621,-0.02823,-0.0473,-0.01877,-0.00626,-0.01419,-0.0267,0.12924,0.00351,-0.02853,-0.01312,0.00656,-0.03998
10.2755,-0.00443,-0.04028,-0.03448,-0.05493,-0.02838,-0.047,-0.01862,-0.00595,-0.01022,-0.01846,0.13504,0.00488,-0.02792,-0.01083,0.00519,-0.04105
10.276,-0.00488,-0.03967,-0.03296,-0.03952,-0.02899,-0.04715,-0.01694,-0.00534,-0.00793,-0.01862,0.1181,0.00504,-0.02853,-0.01068,0.00412,-0.04135
10.2765,-0.0058,-0.04059,-0.03098,-0.01434,-0.03189,-0.04639,-0.01465,-0.00427,-0.00748,-0.02335,0.08408,0.00305,-0.03021,-0.01282,0.00366,-0.04303
10.277,-0.00488,-0.04166,-0.03143,0.01724,-0.03265,-0.04822,-0.01404,-0.00397,-0.00397,-0.02838,0.05157,-0.00046,-0.03159,-0.01648,0.00443,-0.04532
10.2775,-0.00458,-0.04242,-0.03418,0.04807,-0.03326,-0.04837,-0.01663,-0.00397,-0.00061,-0.02594,0.03662,-0.00259,-0.0322,-0.01923,0.00534,-0.04654
10.278,-0.00443,-0.04272,-0.03601,0.07309,-0.03342,-0.05035,-0.01907,-0.00366,-0.00229,-0.01831,0.04471,-0.00275,-0.03159,-0.01709,0.00534,-0.04745
10.2785,-0.00458,-0.04272,-0.03525,0.0856,-0.03662,-0.05112,-0.01999,-0.00351,-0.00793,-0.00931,0.06348,-0.00198,-0.03113,-0.01358,0.0058,-0.04944
10.279,-0.00427,-0.04303,-0.03418,0.08286,-0.03738,-0.0502,-0.01907,-0.00397,-0.01205,-0.00092,0.07141,-0.00092,-0.03159,-0.01251,0.00595,-0.04929
10.2795,-0.00351,-0.04379,-0.0325,0.06577,-0.03677,-0.04898,-0.01755,-0.00519,-0.01144,0.00519,0.06104,-0.00122,-0.03128,-0.01404,0.00656,-0.04852
10.28,-0.00214,-0.04379,-0.03143,0.04333,-0.03586,-0.04715,-0.01617,-0.00519,-0.00824,0.00809,0.04196,-0.00046,-0.03113,-0.01572,0.00656,-0.04715
10.2805,-0.00214,-0.04333,-0.03113,0.02686,-0.03464,-0.04639,-0.01419,-0.00488,-0.00793,0.00717,0.02457,0.00031,-0.03098,-0.01602,0.00793,-0.04608
10.281,-0.0032,-0.0412,-0.03204,0.01846,-0.03235,-0.04684,-0.01221,-0.00443,-0.01266,0.0029,0.01587,0.00076,-0.03143,-0.01694,0.00977,-0.04547
10.2815,-0.00488,-0.03952,-0.03159,0.01236,-0.03128,-0.04883,-0.01221,-0.00458,-0.01678,-0.00183,0.01846,-0.00031,-0.03265,-0.01831,0.01114,-0.04288
10.282,-0.00565,-0.03952,-0.0325,0.00427,-0.03128,-0.05035,-0.01312,-0.00641,-0.01816,-0.00443,0.02457,-0.00229,-0.03342,-0.01938,0.01068,-0.03662
10.2825,-0.00626,-0.04135,-0.03159,-0.00198,-0.0325,-0.0502,-0.01328,-0.00732,-0.01953,-0.0032,0.02457,-0.00427,-0.03342,-0.01755,0.00916,-0.02823
10.283,-0.00565,-0.04272,-0.0325,-0.0061,-0.03265,-0.05035,-0.01312,-0.00687,-0.02167,-0.00488,0.02106,-0.00458,-0.03357,-0.01556,0.00839,-0.02396
10.2835,-0.00473,-0.04318,-0.03403,-0.00778,-0.03235,-0.04959,-0.01389,-0.00458,-0.02197,-0.00763,0.01968,-0.00488,-0.03342,-0.01556,0.00732,-0.02747
10.284,-0.00412,-0.04211,-0.0351,-0.00885,-0.0322,-0.04929,-0.01526,-0.00183,-0.01953,-0.01144,0.01923,-0.00443,-0.03479,-0.01846,0.00595,-0.03525
10.2845,-0.00458,-0.04089,-0.0351,-0.00854,-0.03204,-0.04883,-0.01511,-0.00137,-0.01648,-0.01587,0.02136,-0.00397,-0.03601,-0.0209,0.00473,-0.04242
10.285,-0.00534,-0.04074,-0.03387,-0.00778,-0.03235,-0.04883,-0.01541,-0.00122,-0.01434,-0.02106,0.03159,-0.0029,-0.03677,-0.02274,0.00458,-0.04486
10.2855,-0.00534,-0.04135,-0.03372,-0.00626,-0.03387,-0.04929,-0.01755,-0.00198,-0.0116,-0.0264,0.04959,-0.00183,-0.03586,-0.0235,0.0061,-0.04486
10.286,-0.00534,-0.04227,-0.03464,-0.0058,-0.03418,-0.04913,-0.02014,-0.0032,-0.0087,-0.02853,0.06668,-0.00092,-0.03418,-0.02365,0.00641,-0.04211
10.2865,-0.00626,-0.04257,-0.03586,-0.0058,-0.03433,-0.04837,-0.02106,-0.00473,-0.00717,-0.02594,0.07645,0.0,-0.03326,-0.02106,0.00641,-0.03998
10.287,-0.00778,-0.04135,-0.03662,-0.00519,-0.03326,-0.04913,-0.02014,-0.00473,-0.00793,-0.02197,0.08163,-0.00122,-0.03265,-0.01862,0.00671,-0.04044
10.2875,-0.00778,-0.04105,-0.03555,-0.00168,-0.03326,-0.04807,-0.01923,-0.00244,-0.00961,-0.01877,0.0856,-0.0029,-0.03265,-0.01724,0.00778,-0.03952
10.288,-0.00595,-0.0415,-0.03479,0.00092,-0.03235,-0.047,-0.01831,-0.00168,-0.00916,-0.01495,0.09094,-0.00488,-0.03342,-0.01709,0.00977,-0.03876
10.2885,-0.00519,-0.04181,-0.03387,0.0,-0.03204,-0.04623,-0.01801,-0.0029,-0.00763,-0.01038,0.09445,-0.0061,-0.03311,-0.01694,0.01053,-0.0386
10.289,-0.0058,-0.04044,-0.03418,-0.00397,-0.03098,-0.04761,-0.01709,-0.00366,-0.00687,-0.00519,0.09125,-0.0058,-0.03189,-0.01648,0.01099,-0.04242
10.2895,-0.00687,-0.03784,-0.03372,-0.00717,-0.02975,-0.04807,-0.0174,-0.00305,-0.00732,0.00244,0.0798,-0.00519,-0.03128,-0.01694,0.01114,-0.04486
10.29,-0.0058,-0.03677,-0.03387,-0.00961,-0.02975,-0.04745,-0.01755,-0.00122,-0.01038,0.0116,0.06714,-0.00458,-0.03067,-0.01831,0.01205,-0.04608
10.2905,-0.00443,-0.0383,-0.03326,-0.0148,-0.03067,-0.04654,-0.01755,-0.00061,-0.01816,0.01892,0.06638,-0.00626,-0.03235,-0.01968,0.01205,-0.04837
10.291,-0.0029,-0.04074,-0.03296,-0.02289,-0.03235,-0.04623,-0.01785,-0.00244,-0.03189,0.01968,0.08453,-0.00854,-0.03281,-0.02014,0.01251,-0.04852
10.2915,-0.00305,-0.0412,-0.03326,-0.02747,-0.03326,-0.04654,-0.01709,-0.00412,-0.04578,0.01373,0.11139,-0.00916,-0.03525,-0.02151,0.01297,-0.04639
10.292,-0.00351,-0.04028,-0.03296,-0.02686,-0.03265,-0.047,-0.01587,-0.00519,-0.05295,0.00488,0.13184,-0.00702,-0.03784,-0.02319,0.01175,-0.04349
10.2925,-0.0032,-0.03983,-0.03372,-0.01556,-0.03342,-0.04745,-0.0145,-0.00366,-0.05112,-0.00381,0.14221,-0.00534,-0.03845,-0.02411,0.0087,-0.04105
10.293,-0.00259,-0.04028,-0.03494,0.01144,-0.03281,-0.04837,-0.01389,-0.00259,-0.04242,-0.01251,0.14954,-0.00412,-0.03647,-0.02487,0.00443,-0.0383
10.2935,-0.00275,-0.04044,-0.03555,0.04776,-0.03204,-0.04791,-0.01419,-0.00183,-0.03311,-0.0209,0.15594,-0.00412,-0.0351,-0.02304,0.00366,-0.03662
10.294,-0.0032,-0.03967,-0.03708,0.06165,-0.03128,-0.04669,-0.0148,-0.00168,-0.02609,-0.03189,0.1532,-0.00381,-0.0351,-0.02029,0.00504,-0.03632
10.2945,-0.00259,-0.03876,-0.03876,0.02625,-0.03128,-0.04654,-0.01389,-0.00153,-0.0174,-0.04364,0.13962,-0.00336,-0.03571,-0.01892,0.00687,-0.03784
10.295,-0.00229,-0.0386,-0.03845,-0.04013,-0.03235,-0.04517,-0.01419,-0.00153,-0.00656,-0.0528,0.12604,-0.00336,-0.03448,-0.01907,0.00854,-0.04135
10.2955,-0.00305,-0.03967,-0.03769,-0.08591,-0.03311,-0.04517,-0.0145,-0.00137,0.00397,-0.05829,0.11139,-0.00488,-0.03311,-0.01785,0.01007,-0.04333
10.296,-0.00427,-0.04059,-0.03555,-0.08057,-0.03311,-0.04623,-0.01541,-0.00137,0.00824,-0.06104,0.08347,-0.00641,-0.03204,-0.01633,0.01144,-0.0412
10.2965,-0.00565,-0.04013,-0.0351,-0.047,-0.03357,-0.04761,-0.01526,-0.00244,0.00931,-0.06042,0.0351,-0.00595,-0.03296,-0.01633,0.01144,-0.03876
10.297,-0.00534,-0.03876,-0.03525,-0.02686,-0.03479,-0.04913,-0.01373,-0.00259,0.0116,-0.05692,-0.01877,-0.00458,-0.03448,-0.01755,0.01068,-0.03571
10.2975,-0.00473,-0.03738,-0.0351,-0.02823,-0.0351,-0.04929,-0.01221,-0.0029,0.01312,-0.05005,-0.05844,-0.00336,-0.03387,-0.01846,0.0087,-0.03464
10.298,-0.00397,-0.03815,-0.0351,-0.03311,-0.03693,-0.04852,-0.01175,-0.00214,0.01389,-0.03876,-0.06836,-0.00259,-0.03189,-0.01755,0.00626,-0.0383
10.2985,-0.00488,-0.04028,-0.03632,-0.02884,-0.03647,-0.0473,-0.01129,-0.00305,0.01236,-0.02716,-0.05722,-0.00351,-0.03021,-0.01663,0.00229,-0.04318
10.299,-0.00549,-0.04272,-0.03769,-0.0206,-0.03632,-0.04562,-0.01144,-0.00381,0.00717,-0.01846,-0.04166,-0.00458,-0.03021,-0.01678,0.00046,-0.04471
10.2995,-0.00504,-0.04242,-0.03647,-0.01511,-0.03525,-0.0441,-0.0116,-0.00458,-0.00153,-0.01465,-0.03586,-0.0032,-0.03082,-0.01755,0.00275,-0.04181
10.3,-0.00366,-0.0415,-0.03479,-0.00732,-0.03387,-0.04486,-0.0119,-0.00412,-0.0119,-0.01251,-0.04059,0.0,-0.03159,-0.01846,0.00595,-0.03815
10.3005,-0.00259,-0.04028,-0.03555,0.00458,-0.03372,-0.04501,-0.01205,-0.00351,-0.02136,-0.01266,-0.04593,0.0032,-0.03204,-0.02075,0.00687,-0.03677
10.301,-0.00198,-0.04028,-0.03784,0.01694,-0.03326,-0.04501,-0.01144,-0.00305,-0.03036,-0.01419,-0.0386,0.00458,-0.03326,-0.02365,0.00656,-0.03616
10.3015,-0.00244,-0.04013,-0.03662,0.02365,-0.03418,-0.04623,-0.00977,-0.0029,-0.03708,-0.01602,-0.01862,0.00687,-0.03403,-0.02502,0.00793,-0.03571
10.302,-0.00229,-0.03998,-0.03296,0.02365,-0.03448,-0.04837,-0.00641,-0.00259,-0.03754,-0.01923,0.00488,0.00854,-0.03403,-0.02304,0.01053,-0.0354
10.3025,-0.00259,-0.03952,-0.02945,0.01877,-0.03433,-0.04883,-0.00412,-0.00259,-0.03204,-0.01877,0.02899,0.01022,-0.03311,-0.01968,0.01297,-0.03326
10.303,-0.00351,-0.0383,-0.03021,0.00854,-0.03372,-0.04944,-0.00549,-0.00229,-0.02502,-0.01602,0.05936,0.01144,-0.03174,-0.01801,0.01236,-0.03052
10.3035,-0.00458,-0.03876,-0.03204,-0.00519,-0.03265,-0.04898,-0.00671,-0.00244,-0.02106,-0.01373,0.09293,0.01419,-0.03143,-0.01648,0.01083,-0.02853
10.304,-0.00504,-0.03815,-0.03265,-0.01709,-0.03128,-0.04761,-0.00778,-0.00336,-0.01801,-0.01465,0.11826,0.01511,-0.02991,-0.01495,0.00977,-0.02884
10.3045,-0.00519,-0.03845,-0.03281,-0.02502,-0.03082,-0.04822,-0.00824,-0.00488,-0.01358,-0.01724,0.1265,0.01205,-0.02975,-0.0145,0.01022,-0.03067
10.305,-0.00458,-0.03983,-0.03235,-0.02975,-0.03036,-0.04883,-0.0087,-0.0058,-0.00778,-0.01801,0.11765,0.00488,-0.03052,-0.01572,0.00931,-0.03296
10.3055,-0.0032,-0.04059,-0.03281,-0.03693,-0.03113,-0.05035,-0.00961,-0.00565,-0.00443,-0.01617,0.09277,-0.0032,-0.03143,-0.01938,0.00824,-0.0354
10.306,-0.00259,-0.0412,-0.0322,-0.04486,-0.03113,-0.05173,-0.00977,-0.00504,-0.00519,-0.01251,0.04807,-0.00671,-0.03296,-0.02182,0.00687,-0.03464
10.3065,-0.0029,-0.04135,-0.03189,-0.04868,-0.02945,-0.05035,-0.0116,-0.00488,-0.00916,-0.00916,-0.00885,-0.00641,-0.03555,-0.02258,0.00854,-0.03311
10.307,-0.00381,-0.0415,-0.03159,-0.04959,-0.02823,-0.04837,-0.01266,-0.00458,-0.0116,-0.00763,-0.05615,-0.00473,-0.03601,-0.02106,0.00946,-0.03296
10.3075,-0.00259,-0.04105,-0.03204,-0.05707,-0.0293,-0.04883,-0.01358,-0.00458,-0.00961,-0.0058,-0.08041,-0.00504,-0.0351,-0.01999,0.01007,-0.03708
10.308,-0.00153,-0.04044,-0.03342,-0.07584,-0.02975,-0.0502,-0.01434,-0.00412,-0.00183,-0.00443,-0.08392,-0.00732,-0.03464,-0.01999,0.00931,-0.04181
10.3085,-0.00031,-0.03876,-0.03448,-0.08896,-0.02945,-0.04959,-0.01434,-0.0032,0.00458,-0.0029,-0.08087,-0.00916,-0.03494,-0.01968,0.00854,-0.0441
10.309,-0.00061,-0.03876,-0.03311,-0.07126,-0.02899,-0.05005,-0.01419,-0.00183,0.00427,-0.00519,-0.07996,-0.00946,-0.0351,-0.01938,0.00717,-0.04257
10.3095,-0.00092,-0.04028,-0.03143,-0.02106,-0.03006,-0.04822,-0.01251,0.0,-0.00519,-0.0119,-0.07782,-0.01022,-0.0354,-0.02014,0.00763,-0.03952
10.31,-0.00031,-0.03922,-0.0296,0.03082,-0.02914,-0.04593,-0.01022,-0.00015,-0.01877,-0.01831,-0.06866,-0.01251,-0.0354,-0.02182,0.009,-0.03693
10.3105,0.00015,-0.0386,-0.0293,0.04669,-0.02838,-0.04776,-0.01099,-0.00092,-0.02914,-0.02289,-0.0618,-0.01572,-0.03555,-0.02182,0.01007,-0.03708
10.311,0.00076,-0.0386,-0.02975,0.01556,-0.02762,-0.04837,-0.01251,-0.00061,-0.03098,-0.02762,-0.0795,-0.01602,-0.03525,-0.0206,0.01068,-0.03647
10.3115,0.00092,-0.04013,-0.03113,-0.03372,-0.02792,-0.0473,-0.01587,0.00107,-0.02625,-0.03113,-0.1236,-0.01129,-0.03479,-0.01862,0.01114,-0.03708
10.312,0.00153,-0.04196,-0.03235,-0.06058,-0.02975,-0.04898,-0.01862,0.00198,-0.01831,-0.03555,-0.16998,-0.00534,-0.03433,-0.01572,0.01129,-0.03708
10.3125,0.00046,-0.04242,-0.03326,-0.05066,-0.03128,-0.04852,-0.01846,0.00153,-0.01221,-0.04288,-0.19745,-0.00275,-0.03311,-0.01495,0.01022,-0.0383
10.313,-0.00092,-0.04044,-0.03296,-0.02457,-0.03174,-0.04745,-0.01465,0.00122,-0.0119,-0.05524,-0.20355,-0.00153,-0.03235,-0.01434,0.00854,-0.03998
10.3135,-0.00229,-0.03967,-0.03235,-0.01022,-0.03052,-0.04669,-0.0116,0.00107,-0.01938,-0.06516,-0.19867,-0.00031,-0.0325,-0.01572,0.00641,-0.04166
10.314,-0.00244,-0.04105,-0.03265,-0.01282,-0.02869,-0.0444,-0.01022,0.00076,-0.0322,-0.0679,-0.18143,0.00198,-0.03448,-0.01877,0.0058,-0.04242
10.3145,-0.0029,-0.04211,-0.03555,-0.01251,-0.02762,-0.04364,-0.0116,0.00092,-0.04425,-0.06943,-0.14954,0.00381,-0.03571,-0.02014,0.00671,-0.04288
10.315,-0.00412,-0.04227,-0.03647,0.01114,-0.02777,-0.04791,-0.0145,0.00061,-0.04929,-0.08118,-0.11551,0.00565,-0.0351,-0.01785,0.00763,-0.04257
10.3155,-0.0058,-0.04181,-0.03677,0.05707,-0.02945,-0.04913,-0.01801,0.00046,-0.04517,-0.09705,-0.09705,0.00626,-0.03357,-0.01343,0.00854,-0.04105
10.316,-0.00839,-0.04196,-0.03647,0.09521,-0.03006,-0.0473,-0.01862,0.00061,-0.03601,-0.09842,-0.09552,0.00565,-0.03067,-0.01068,0.00854,-0.03906
10.3165,-0.01236,-0.04166,-0.0354,0.09048,-0.03021,-0.04776,-0.01816,0.00137,-0.02609,-0.07477,-0.09628,0.00595,-0.02914,-0.01175,0.00778,-0.03738
10.317,-0.01602,-0.04242,-0.03342,0.04837,-0.03067,-0.04517,-0.02029,0.00137,-0.01785,-0.03555,-0.0972,0.00687,-0.03021,-0.01389,0.00763,-0.03708
10.3175,-0.0174,-0.04211,-0.03235,0.00473,-0.03098,-0.04593,-0.02228,0.00076,-0.01358,0.00961,-0.10925,0.00839,-0.03143,-0.01556,0.00763,-0.03738
10.318,-0.01602,-0.04181,-0.03372,-0.00885,-0.03052,-0.04669,-0.02213,0.00031,-0.01328,0.05402,-0.13489,0.01099,-0.03281,-0.01572,0.00702,-0.03647
10.3185,-0.01373,-0.04135,-0.03723,-0.00259,-0.02945,-0.04745,-0.02045,-0.00092,-0.01587,0.08591,-0.15961,0.0145,-0.03265,-0.01541,0.00839,-0.03555
10.319,-0.01312,-0.04135,-0.03845,0.0032,-0.02808,-0.04562,-0.01862,-0.00198,-0.01633,0.09369,-0.17105,0.01541,-0.03128,-0.01526,0.00885,-0.03387
10.3195,-0.01236,-0.04211,-0.03738,0.00153,-0.02655,-0.04395,-0.01755,-0.00214,-0.01587,0.0795,-0.17151,0.00916,-0.03052,-0.01511,0.01007,-0.03479
10.32,-0.01053,-0.04272,-0.0354,-0.00168,-0.02609,-0.04562,-0.01694,-0.00244,-0.01678,0.05966,-0.16632,-0.00488,-0.03098,-0.01724,0.01083,-0.03647
10.3205,-0.00931,-0.04242,-0.03311,-0.00244,-0.02686,-0.04562,-0.0177,-0.00183,-0.01892,0.04196,-0.15686,-0.02045,-0.03143,-0.01907,0.00946,-0.0383
10.321,-0.00778,-0.04272,-0.03235,-0.00168,-0.02777,-0.04593,-0.01907,-0.00107,-0.01846,0.02594,-0.14481,-0.02716,-0.03113,-0.02197,0.00656,-0.03983
10.3215,-0.00565,-0.04318,-0.03387,-0.00015,-0.02762,-0.04608,-0.01999,-0.00046,-0.01587,0.0087,-0.13214,-0.0235,-0.03189,-0.02319,0.00488,-0.04242
10.322,-0.00336,-0.0441,-0.03571,0.00015,-0.02625,-0.04578,-0.01938,0.00015,-0.01251,-0.00656,-0.11765,-0.01404,-0.03296,-0.02289,0.00565,-0.04333
10.3225,-0.00153,-0.0441,-0.03632,0.00031,-0.02686,-0.04684,-0.01694,-0.00031,-0.01083,-0.01343,-0.10651,-0.00687,-0.03357,-0.02243,0.00748,-0.04135
10.323,0.00031,-0.04257,-0.03601,-0.00229,-0.02884,-0.04501,-0.01465,-0.00076,-0.01083,-0.01007,-0.10605,-0.00046,-0.03342,-0.02213,0.00946,-0.03906
10.3235,0.00107,-0.04059,-0.03555,-0.00748,-0.0296,-0.04501,-0.01343,-0.00137,-0.01312,-0.00244,-0.11246,0.00748,-0.03342,-0.02335,0.01007,-0.03784
10.324,0.00061,-0.03967,-0.03525,-0.01205,-0.03082,-0.04517,-0.01434,-0.00061,-0.01526,0.00015,-0.11551,0.01144,-0.03433,-0.02563,0.00931,-0.03876
10.3245,-0.00092,-0.04272,-0.03479,-0.01312,-0.03189,-0.04532,-0.01373,0.00214,-0.01541,-0.00336,-0.11078,0.00504,-0.03494,-0.0264,0.00977,-0.03952
10.325,-0.00137,-0.04379,-0.03662,-0.01236,-0.03281,-0.04745,-0.01328,0.00565,-0.01434,-0.01129,-0.09277,-0.00916,-0.03464,-0.02518,0.00931,-0.03906
10.3255,0.0,-0.04288,-0.03693,-0.01709,-0.0325,-0.04837,-0.01495,0.00748,-0.01373,-0.01892,-0.0618,-0.01678,-0.03464,-0.02472,0.00961,-0.03815
10.326,0.00092,-0.04166,-0.03723,-0.02823,-0.03235,-0.04623,-0.01678,0.00748,-0.01587,-0.0238,-0.02457,-0.00214,-0.03494,-0.02365,0.01007,-0.03738
10.3265,0.00046,-0.04028,-0.03693,-0.03906,-0.03189,-0.04745,-0.01801,0.0061,-0.02258,-0.02487,0.00885,0.02731,-0.03525,-0.02289,0.0087,-0.03769
10.327,-0.00107,-0.0412,-0.03677,-0.04593,-0.03174,-0.04776,-0.01755,0.00397,-0.03296,-0.02365,0.03143,0.04639,-0.03418,-0.02182,0.00763,-0.03876
10.3275,-0.00305,-0.04196,-0.03662,-0.05005,-0.03113,-0.04684,-0.01755,0.00305,-0.04456,-0.02274,0.04059,0.03998,-0.03311,-0.01968,0.00687,-0.0412
10.328,-0.00549,-0.0412,-0.03616,-0.0528,-0.03098,-0.047,-0.01648,0.00198,-0.05569,-0.02075,0.03616,0.01923,-0.03326,-0.0174,0.00748,-0.04059
10.3285,-0.00702,-0.0415,-0.0351,-0.05188,-0.03204,-0.04715,-0.0148,0.00183,-0.05951,-0.01968,0.02655,0.00732,-0.03357,-0.01602,0.00763,-0.04013
10.329,-0.00809,-0.04135,-0.03387,-0.04227,-0.03281,-0.04807,-0.01389,0.00137,-0.05692,-0.01755,0.01724,0.01328,-0.03098,-0.01587,0.00702,-0.0412
10.3295,-0.00763,-0.0415,-0.03296,-0.02457,-0.03098,-0.04807,-0.01572,0.00046,-0.047,-0.01862,0.0116,0.02762,-0.02838,-0.01678,0.00534,-0.04196
10.33,-0.00702,-0.03983,-0.03204,-0.00534,-0.02991,-0.04822,-0.0174,-0.00015,-0.0325,-0.0264,0.00824,0.04105,-0.02731,-0.01648,0.00443,-0.03952
10.3305,-0.0061,-0.03922,-0.0325,0.00412,-0.03067,-0.04669,-0.0177,-0.00015,-0.01892,-0.03983,0.00458,0.05051,-0.02838,-0.01678,0.00549,-0.0415
10.331,-0.00656,-0.03876,-0.03418,0.00397,-0.03265,-0.04562,-0.01694,0.0,-0.00916,-0.05142,0.00015,0.056,-0.02869,-0.01724,0.00732,-0.04532
10.3315,-0.00565,-0.03845,-0.0351,0.01328,-0.03265,-0.04623,-0.01663,0.0,-0.00336,-0.05814,-0.00427,0.05341,-0.0267,-0.01724,0.00885,-0.04395
10.332,-0.00458,-0.03906,-0.03494,0.04395,-0.0322,-0.04639,-0.01648,-0.00137,0.00076,-0.06027,-0.0087,0.04303,-0.02609,-0.01541,0.0087,-0.04501
10.3325,-0.00473,-0.0386,-0.03418,0.0737,-0.03113,-0.04639,-0.01694,-0.00351,0.00244,-0.0589,-0.01236,0.03311,-0.02655,-0.01328,0.00732,-0.04501
10.333,-0.00534,-0.03891,-0.03281,0.06668,-0.03128,-0.04562,-0.01694,-0.00305,0.00183,-0.05081,-0.01511,0.03082,-0.02853,-0.01343,0.00565,-0.04364
10.3335,-0.00565,-0.03952,-0.03159,0.01556,-0.03265,-0.04562,-0.01633,-0.0029,-0.00122,-0.03738,-0.01114,0.03311,-0.02838,-0.01389,0.00504,-0.04227
10.334,-0.00534,-0.03952,-0.03296,-0.03601,-0.03311,-0.04578,-0.01709,-0.0029,-0.00595,-0.02487,-0.00244,0.03128,-0.02853,-0.01602,0.00748,-0.04211
10.3345,-0.00488,-0.03952,-0.03448,-0.04608,-0.03265,-0.04623,-0.01785,-0.00336,-0.0087,-0.01892,-0.00092,0.02228,-0.02975,-0.01724,0.00977,-0.04288
10.335,-0.00656,-0.04028,-0.03448,-0.0206,-0.03189,-0.04593,-0.01862,-0.00443,-0.00717,-0.01968,-0.01022,0.00961,-0.03113,-0.0174,0.01068,-0.03876
10.3355,-0.00732,-0.04181,-0.03479,0.00626,-0.03174,-0.047,-0.01801,-0.00381,-0.00473,-0.02014,-0.0145,-0.00397,-0.03159,-0.01709,0.009,-0.03922
10.336,-0.00732,-0.04181,-0.03448,0.0145,-0.03265,-0.04791,-0.01755,-0.00153,-0.0058,-0.0206,-0.00656,-0.01984,-0.03067,-0.01617,0.00809,-0.03708
10.3365,-0.0061,-0.03906,-0.03601,0.00961,-0.03311,-0.04868,-0.0177,-0.00122,-0.00931,-0.01968,0.00259,-0.0386,-0.02914,-0.01572,0.00778,-0.03983
10.337,-0.00519,-0.03677,-0.03616,0.00275,-0.0325,-0.04883,-0.01831,-0.00427,-0.01236,-0.01862,0.00244,-0.05432,-0.02869,-0.0148,0.00824,-0.03769
10.3375,-0.00427,-0.03769,-0.03601,-0.00641,-0.03342,-0.04837,-0.01862,-0.00793,-0.0145,-0.01938,-0.00687,-0.06393,-0.03021,-0.01434,0.0061,-0.0386
10.338,-0.00381,-0.03967,-0.03479,-0.01938,-0.03372,-0.04745,-0.01846,-0.00824,-0.01724,-0.01816,-0.01724,-0.06531,-0.03174,-0.01648,0.00504,-0.03983
10.3385,-0.00305,-0.0412,-0.03403,-0.03113,-0.03387,-0.04654,-0.01709,-0.00748,-0.01907,-0.01602,-0.01755,-0.05859,-0.03296,-0.01907,0.00534,-0.04349
10.339,-0.0032,-0.04166,-0.03418,-0.02869,-0.03281,-0.04608,-0.01678,-0.01114,-0.01801,-0.01343,-0.0148,-0.04807,-0.0325,-0.02014,0.00534,-0.04501
10.3395,-0.00229,-0.0415,-0.0351,0.00214,-0.03189,-0.04654,-0.01511,-0.01968,-0.01343,-0.01236,-0.01999,-0.03677,-0.03159,-0.01862,0.00778,-0.04196
10.34,-0.00198,-0.04135,-0.03403,0.05341,-0.03143,-0.04761,-0.01434,-0.02899,-0.01007,-0.01251,-0.03281,-0.02945,-0.03189,-0.01816,0.00778,-0.0383
10.3405,-0.00168,-0.0412,-0.03235,0.08286,-0.0296,-0.04761,-0.01572,-0.03586,-0.00717,-0.01419,-0.03891,-0.0351,-0.03342,-0.01846,0.00778,-0.03677
10.341,-0.00229,-0.0415,-0.03189,0.05051,-0.02869,-0.04654,-0.01877,-0.03601,-0.00458,-0.01419,-0.02502,-0.06119,-0.03479,-0.01999,0.00778,-0.03891
10.3415,-0.00259,-0.04166,-0.03326,-0.02792,-0.02701,-0.04623,-0.0209,-0.0296,-0.00107,-0.01007,-0.00183,-0.103,-0.03448,-0.02045,0.00839,-0.04089
10.342,-0.00427,-0.04196,-0.03448,-0.08728,-0.0267,-0.04578,-0.02167,-0.02106,-0.00031,-0.00504,0.01617,-0.14099,-0.03357,-0.01907,0.00763,-0.04074
10.3425,-0.00427,-0.04227,-0.0354,-0.08804,-0.0264,-0.04547,-0.02136,-0.01434,-0.00153,-0.00229,0.02655,-0.16068,-0.03448,-0.01648,0.00717,-0.04044
10.343,-0.00336,-0.04242,-0.03494,-0.05554,-0.02701,-0.04501,-0.02274,-0.00961,-0.00137,-0.00015,0.03403,-0.15381,-0.03601,-0.01694,0.0087,-0.04059
10.3435,-0.00305,-0.04242,-0.03479,-0.03479,-0.02716,-0.04456,-0.02304,-0.00336,0.00183,0.00046,0.0412,-0.10239,-0.03754,-0.01816,0.01114,-0.03952
10.344,-0.00381,-0.04242,-0.03418,-0.03479,-0.02609,-0.04517,-0.01862,0.00763,0.00717,-0.00015,0.04593,-0.00885,-0.03876,-0.01862,0.01297,-0.03815
10.3445,-0.00443,-0.04303,-0.03342,-0.03784,-0.02594,-0.04745,-0.00916,0.02167,0.0119,-0.00549,0.04669,0.06348,-0.03952,-0.01907,0.0148,-0.03738
10.345,-0.00458,-0.04272,-0.03403,-0.03265,-0.02579,-0.04807,-0.00336,0.03235,0.01541,-0.01175,0.04028,0.04105,-0.03967,-0.01999,0.01266,-0.0386
10.3455,-0.00412,-0.04089,-0.03586,-0.02869,-0.02609,-0.04608,-0.00443,0.02991,0.01724,-0.01724,0.0238,-0.05997,-0.03983,-0.02197,0.00916,-0.04257
10.346,-0.00488,-0.03876,-0.03662,-0.0322,-0.02808,-0.04486,-0.00961,0.01862,0.01785,-0.02029,-0.00565,-0.14114,-0.03906,-0.02243,0.0061,-0.047
10.3465,-0.00626,-0.03922,-0.03632,-0.03967,-0.02914,-0.04471,-0.01236,0.00885,0.01373,-0.02289,-0.03906,-0.12543,-0.03708,-0.02182,0.00366,-0.04837
10.347,-0.00687,-0.04105,-0.03571,-0.04211,-0.02869,-0.04456,-0.01205,0.00732,0.00412,-0.02426,-0.056,-0.0209,-0.03662,-0.01999,0.00381,-0.04822
10.3475,-0.00595,-0.04211,-0.03586,-0.03448,-0.02838,-0.04639,-0.01266,0.00778,-0.00885,-0.02487,-0.04761,0.11398,-0.03571,-0.01877,0.00473,-0.04684
10.348,-0.00336,-0.04288,-0.03708,-0.01999,-0.03052,-0.04745,-0.01343,0.00519,-0.02243,-0.02457,-0.0267,0.2269,-0.03479,-0.01892,0.00595,-0.04578
10.3485,-0.0032,-0.04318,-0.03738,-0.009,-0.03387,-0.04715,-0.01312,0.0,-0.03494,-0.02991,-0.01114,0.28168,-0.03479,-0.01755,0.00717,-0.04501
10.349,-0.00473,-0.04364,-0.03693,-0.00565,-0.0351,-0.04501,-0.01251,-0.0029,-0.0444,-0.04028,-0.00168,0.25192,-0.03601,-0.01572,0.00519,-0.04303
10.3495,-0.00519,-0.04364,-0.03479,-0.00854,-0.03418,-0.04379,-0.01221,-0.00229,-0.05096,-0.05203,0.0029,0.15518,-0.03708,-0.01511,0.00488,-0.0415
10.35,-0.00443,-0.04257,-0.03387,-0.00931,-0.03204,-0.04456,-0.01266,-0.00046,-0.05493,-0.05646,-0.00107,0.05798,-0.03677,-0.01572,0.00595,-0.03891
10.3505,-0.0032,-0.0412,-0.0351,-0.01434,-0.02975,-0.04532,-0.01312,-0.00015,-0.05569,-0.05325,-0.01266,0.01633,-0.0354,-0.01938,0.00687,-0.03784
10.351,-0.00259,-0.04044,-0.03555,-0.03906,-0.02792,-0.04623,-0.01389,-0.00122,-0.0531,-0.04196,-0.02243,0.01999,-0.03403,-0.02213,0.00763,-0.03723
10.3515,-0.00229,-0.04089,-0.03525,-0.0827,-0.02823,-0.04745,-0.01282,-0.00305,-0.04517,-0.02625,-0.02045,0.01526,-0.03464,-0.02258,0.00824,-0.03769
10.352,-0.00244,-0.04135,-0.03464,-0.11627,-0.02869,-0.04776,-0.01175,-0.00824,-0.03357,-0.01038,-0.00229,-0.02457,-0.03433,-0.02106,0.00946,-0.03922
10.3525,-0.00366,-0.04059,-0.03418,-0.11612,-0.03098,-0.04868,-0.01083,-0.01373,-0.02243,-0.00076,0.02472,-0.06958,-0.0325,-0.01938,0.01022,-0.04196
10.353,-0.00534,-0.03922,-0.03387,-0.09918,-0.03342,-0.04837,-0.01175,-0.01648,-0.01663,-0.00015,0.03983,-0.08148,-0.03067,-0.01877,0.00809,-0.04333
10.3535,-0.00504,-0.03967,-0.03265,-0.09811,-0.03418,-0.04913,-0.01312,-0.01663,-0.01602,-0.00381,0.0325,-0.06058,-0.02991,-0.01846,0.00626,-0.04257
10.354,-0.00397,-0.04089,-0.03265,-0.1123,-0.03479,-0.04791,-0.01556,-0.01556,-0.01556,-0.009,0.00992,-0.03159,-0.03098,-0.01846,0.00626,-0.03998
10.3545,-0.00351,-0.04135,-0.03265,-0.10941,-0.0354,-0.04501,-0.01709,-0.01389,-0.01282,-0.01328,-0.00839,-0.00534,-0.03174,-0.01968,0.00641,-0.03952
10.355,-0.00336,-0.04181,-0.03281,-0.06699,-0.0351,-0.04471,-0.01801,-0.01053,-0.01114,-0.01617,-0.01358,0.02655,-0.03387,-0.02213,0.00778,-0.04028
10.3555,-0.00443,-0.04181,-0.03296,0.00702,-0.03281,-0.04669,-0.01831,-0.00427,-0.01404,-0.01862,-0.00885,0.06653,-0.03479,-0.02365,0.00793,-0.04135
10.356,-0.00381,-0.0412,-0.03479,0.08118,-0.03036,-0.0502,-0.01663,0.0029,-0.0209,-0.01968,-0.00214,0.10468,-0.03555,-0.0235,0.00809,-0.03998
10.3565,-0.00244,-0.04181,-0.03342,0.13275,-0.0293,-0.0531,-0.01144,0.00931,-0.02441,-0.02121,0.0029,0.12268,-0.03555,-0.02197,0.0087,-0.03998
10.357,-0.00168,-0.04028,-0.03326,0.16586,-0.0293,-0.05341,-0.00229,0.01572,-0.02274,-0.02045,0.00137,0.10895,-0.03464,-0.01968,0.00885,-0.04364
10.3575,-0.00153,-0.04105,-0.03281,0.1944,-0.02884,-0.05356,0.00519,0.01709,-0.01755,-0.01968,-0.0145,0.07706,-0.03357,-0.01785,0.01038,-0.04471
10.358,-0.00137,-0.04135,-0.03326,0.20721,-0.02808,-0.05508,0.00946,0.01297,-0.01083,-0.02045,-0.03799,0.04944,-0.03174,-0.01724,0.00977,-0.04395
10.3585,-0.0029,-0.04135,-0.03403,0.17502,-0.02808,-0.05722,0.00824,0.00549,-0.00473,-0.02258,-0.05447,0.03479,-0.02975,-0.01633,0.00946,-0.0415
10.359,-0.00443,-0.04135,-0.03342,0.09201,-0.02838,-0.056,0.00443,0.00275,-0.00046,-0.02411,-0.05478,0.02609,-0.02884,-0.01526,0.00839,-0.03967
10.3595,-0.00473,-0.04089,-0.03403,0.00351,-0.02808,-0.05371,-0.00107,0.00336,-0.00031,-0.0235,-0.04913,0.01511,-0.02823,-0.01358,0.00824,-0.03693
10.36,-0.00473,-0.03983,-0.03571,-0.03326,-0.02869,-0.04974,-0.00641,0.00214,-0.00198,-0.01968,-0.05112,0.00351,-0.02808,-0.01343,0.00916,-0.03967
10.3605,-0.00351,-0.03937,-0.03647,-0.01602,-0.03021,-0.03967,-0.0119,-0.00336,-0.0058,-0.01785,-0.05432,-0.00626,-0.02869,-0.01373,0.01038,-0.04318
10.361,-0.00305,-0.03876,-0.03525,0.01083,-0.03204,-0.02914,-0.01877,-0.01114,-0.01007,-0.01846,-0.04807,-0.00854,-0.03021,-0.01587,0.00763,-0.047
10.3615,-0.00229,-0.03815,-0.03479,0.01465,-0.03311,-0.02243,-0.02426,-0.01419,-0.01205,-0.01923,-0.03479,-0.0061,-0.03098,-0.0177,0.00595,-0.04654
10.362,-0.00168,-0.0383,-0.03464,0.00381,-0.03342,-0.02548,-0.02625,-0.01343,-0.01114,-0.01755,-0.02029,-0.0029,-0.03082,-0.01831,0.00473,-0.04517
10.3625,-0.0032,-0.03876,-0.0351,-0.00397,-0.03387,-0.03662,-0.02274,-0.01099,-0.01053,-0.01328,-0.00198,-0.00336,-0.0293,-0.01801,0.0058,-0.04395
10.363,-0.00473,-0.03738,-0.03433,-0.00717,-0.0322,-0.04654,-0.0177,-0.00854,-0.0119,-0.00854,0.02045,-0.00992,-0.02869,-0.01877,0.00763,-0.0444
10.3635,-0.0061,-0.03708,-0.03357,-0.01404,-0.03006,-0.05051,-0.01404,-0.00687,-0.01282,-0.00717,0.0383,-0.02426,-0.02945,-0.01877,0.00763,-0.04578
10.364,-0.0058,-0.03876,-0.03433,-0.0267,-0.03036,-0.04913,-0.01343,-0.00839,-0.01053,-0.00641,0.04669,-0.04547,-0.03021,-0.01755,0.0058,-0.047
10.3645,-0.00565,-0.03998,-0.03479,-0.0386,-0.02991,-0.04776,-0.01266,-0.01068,-0.00641,-0.00473,0.04379,-0.06531,-0.03067,-0.01602,0.00702,-0.04684
10.365,-0.00549,-0.04089,-0.03586,-0.04456,-0.03052,-0.047,-0.0116,-0.01205,-0.0058,-0.00366,0.02655,-0.07553,-0.03052,-0.0174,0.00839,-0.04639
10.3655,-0.0058,-0.0415,-0.03616,-0.0415,-0.03036,-0.04517,-0.01053,-0.01144,-0.00931,-0.0032,0.00229,-0.07614,-0.03159,-0.01999,0.01007,-0.04776
10.366,-0.0058,-0.0415,-0.03616,-0.03265,-0.02945,-0.04349,-0.00946,-0.00977,-0.01297,-0.00717,-0.01953,-0.06897,-0.03265,-0.02167,0.00977,-0.0473
10.3665,-0.00626,-0.04181,-0.03601,-0.02335,-0.02914,-0.04288,-0.00809,-0.00687,-0.01419,-0.01495,-0.03723,-0.05295,-0.03357,-0.02472,0.00809,-0.0441
10.367,-0.00656,-0.0412,-0.03632,-0.01785,-0.02853,-0.04349,-0.00732,-0.00534,-0.01343,-0.02502,-0.05554,-0.02716,-0.03342,-0.02625,0.00961,-0.04318
10.3675,-0.00702,-0.04135,-0.03555,-0.01495,-0.02808,-0.04608,-0.00595,-0.00244,-0.0116,-0.03113,-0.07156,-0.00137,-0.03235,-0.02609,0.00931,-0.04227
10.368,-0.00671,-0.0415,-0.03387,-0.00732,-0.02975,-0.04669,-0.00473,-0.00122,-0.00656,-0.03204,-0.07401,0.0119,-0.03128,-0.0238,0.00748,-0.04349
10.3685,-0.00671,-0.04074,-0.03265,0.00946,-0.03311,-0.0473,-0.00427,-0.00061,-0.00031,-0.0267,-0.06149,0.00641,-0.02945,-0.02045,0.00641,-0.04379
10.369,-0.00748,-0.04028,-0.03464,0.04135,-0.03525,-0.04822,-0.00702,-0.00259,0.00366,-0.0209,-0.047,-0.01129,-0.0293,-0.01831,0.00793,-0.04364
10.3695,-0.00839,-0.04135,-0.03876,0.08408,-0.03769,-0.04562,-0.01282,-0.00336,0.00198,-0.01709,-0.03632,-0.03265,-0.03021,-0.0174,0.01053,-0.0441
10.37,-0.00778,-0.0415,-0.04059,0.11337,-0.03983,-0.04227,-0.01907,-0.00549,-0.00412,-0.01587,-0.02731,-0.0528,-0.03189,-0.0177,0.01083,-0.04608
10.3705,-0.00626,-0.03967,-0.03906,0.09842,-0.0412,-0.04211,-0.02167,-0.00671,-0.01251,-0.01678,-0.01846,-0.07263,-0.03326,-0.01831,0.00931,-0.04349
10.371,-0.00534,-0.03784,-0.03632,0.04242,-0.04013,-0.04486,-0.0209,-0.00626,-0.01999,-0.01816,-0.01297,-0.08606,-0.03433,-0.01968,0.00809,-0.04059
10.3715,-0.00473,-0.03845,-0.03464,-0.01572,-0.03555,-0.04639,-0.01938,-0.00473,-0.02533,-0.01892,-0.009,-0.08133,-0.03372,-0.0206,0.00977,-0.03799
10.372,-0.00397,-0.0412,-0.03479,-0.04471,-0.02914,-0.04333,-0.0174,-0.00275,-0.02563,-0.01877,-0.00122,-0.05646,-0.03235,-0.02274,0.01144,-0.03967
10.3725,-0.00443,-0.0415,-0.03479,-0.05005,-0.02686,-0.04181,-0.01526,-0.00305,-0.02228,-0.01846,0.01495,-0.0296,-0.03189,-0.02213,0.01266,-0.04272
10.373,-0.00488,-0.04059,-0.03479,-0.06607,-0.02609,-0.04562,-0.01221,-0.0032,-0.01816,-0.01862,0.03326,-0.02563,-0.03265,-0.01892,0.01114,-0.04639
10.3735,-0.0058,-0.04059,-0.03555,-0.10956,-0.02686,-0.05829,-0.00916,-0.00381,-0.01709,-0.01755,0.04791,-0.04913,-0.03159,-0.01678,0.00961,-0.047
10.374,-0.00656,-0.04135,-0.03479,-0.15762,-0.03204,-0.07065,-0.00717,-0.00397,-0.02029,-0.01526,0.05981,-0.07599,-0.02869,-0.01846,0.00916,-0.04578
10.3745,-0.00687,-0.0415,-0.03387,-0.17532,-0.03647,-0.07553,-0.00397,-0.00351,-0.02472,-0.01266,0.07126,-0.07004,-0.02777,-0.02075,0.01099,-0.04456
10.375,-0.00626,-0.03998,-0.0325,-0.1593,-0.04089,-0.07309,-0.00229,-0.00397,-0.02838,-0.01389,0.07736,-0.00656,-0.0293,-0.02151,0.01205,-0.04486
10.3755,-0.00687,-0.03906,-0.03189,-0.12955,-0.04303,-0.06805,-0.00534,-0.00381,-0.02899,-0.01801,0.07507,0.09811,-0.03189,-0.0209,0.01129,-0.04608
10.376,-0.00702,-0.03998,-0.03174,-0.103,-0.0444,-0.06409,-0.01221,-0.00443,-0.02533,-0.02213,0.06775,0.18585,-0.03265,-0.01999,0.00946,-0.04791
10.3765,-0.00656,-0.0412,-0.0322,-0.08133,-0.04715,-0.05081,-0.01831,-0.00595,-0.01846,-0.02319,0.05432,0.20248,-0.03235,-0.01999,0.009,-0.0502
10.377,-0.00549,-0.04166,-0.03113,-0.06393,-0.05066,-0.02151,-0.01709,-0.00565,-0.01099,-0.02457,0.03357,0.15289,-0.03143,-0.01984,0.0087,-0.05081
10.3775,-0.00519,-0.04089,-0.03204,-0.05814,-0.05325,0.01984,-0.01144,-0.00427,-0.00519,-0.02457,0.00854,0.08469,-0.03143,-0.01862,0.00824,-0.04974
10.378,-0.00458,-0.04044,-0.03357,-0.05737,-0.04761,0.05234,-0.00809,-0.0029,-0.00153,-0.02335,-0.01831,0.03876,-0.03113,-0.01877,0.00717,-0.04959
10.3785,-0.00443,-0.04028,-0.03525,-0.03586,-0.03784,0.05447,-0.0087,-0.00366,0.00229,-0.01999,-0.04242,0.02563,-0.03113,-0.01907,0.0061,-0.0502
10.379,-0.00397,-0.03998,-0.0354,0.01862,-0.02487,0.01678,-0.01083,-0.00534,0.00626,-0.01602,-0.05493,0.03342,-0.03143,-0.01938,0.00748,-0.05066
10.3795,-0.0032,-0.03876,-0.03326,0.07263,-0.01724,-0.04929,-0.01083,-0.0058,0.01083,-0.01373,-0.05157,0.04333,-0.03113,-0.01785,0.00793,-0.05081
10.38,-0.00305,-0.03799,-0.03052,0.0798,-0.01816,-0.11932,-0.01068,-0.00595,0.01511,-0.01312,-0.04059,0.04471,-0.02975,-0.01541,0.00961,-0.04898
10.3805,-0.0029,-0.03845,-0.02914,0.03372,-0.02609,-0.15533,-0.01099,-0.00549,0.01617,-0.01328,-0.03311,0.0383,-0.02991,-0.01511,0.00885,-0.04913
10.381,-0.00397,-0.03891,-0.03082,-0.02335,-0.02914,-0.13916,-0.01099,-0.00381,0.01526,-0.01266,-0.02533,0.03159,-0.0322,-0.01617,0.01007,-0.04913
10.3815,-0.00351,-0.03876,-0.03265,-0.04852,-0.02289,-0.08789,-0.00931,-0.0029,0.01205,-0.00992,-0.01312,0.02457,-0.03189,-0.0177,0.0116,-0.04913
10.382,-0.00198,-0.03937,-0.03403,-0.04044,-0.01266,-0.04593,-0.00793,-0.00244,0.00992,-0.0061,0.00305,0.0145,-0.03021,-0.01862,0.01205,-0.05005
10.3825,-0.00107,-0.04028,-0.03433,-0.01709,-0.00824,-0.03708,-0.00809,-0.00275,0.00809,-0.00473,0.0177,0.00168,-0.0296,-0.01968,0.01205,-0.04913
10.383,-0.00336,-0.04059,-0.03494,0.0148,-0.01312,-0.0502,-0.0119,-0.00275,0.00519,-0.00687,0.02716,-0.00839,-0.03098,-0.01938,0.01053,-0.04807
10.3835,-0.00443,-0.04028,-0.03662,0.05493,-0.02213,-0.05997,-0.01617,-0.00488,-0.00122,-0.0116,0.0322,-0.01511,-0.03128,-0.01846,0.00885,-0.04791
10.384,-0.00397,-0.04074,-0.03845,0.08072,-0.02899,-0.05859,-0.01877,-0.00641,-0.00916,-0.01587,0.03586,-0.01984,-0.03098,-0.01785,0.00854,-0.04868
10.3845,-0.0029,-0.04196,-0.03784,0.06104,-0.02899,-0.05447,-0.01877,-0.0061,-0.01785,-0.01846,0.04181,-0.02594,-0.03174,-0.01846,0.009,-0.05035
10.385,-0.00305,-0.04318,-0.03616,-0.00244,-0.02548,-0.05447,-0.01755,-0.00473,-0.0264,-0.02213,0.0473,-0.03082,-0.03448,-0.0209,0.00854,-0.05234
10.3855,-0.00534,-0.04364,-0.03357,-0.0676,-0.0238,-0.05676,-0.01602,-0.00366,-0.03555,-0.0264,0.04776,-0.03296,-0.03571,-0.02289,0.00793,-0.05234
10.386,-0.0061,-0.04333,-0.03342,-0.09872,-0.02518,-0.05661,-0.01114,-0.00336,-0.04364,-0.0325,0.03723,-0.0322,-0.03357,-0.0235,0.00671,-0.04959
10.3865,-0.00519,-0.0441,-0.03281,-0.08453,-0.0264,-0.05524,-0.00305,-0.00473,-0.05096,-0.03845,0.01389,-0.03067,-0.03067,-0.02289,0.00671,-0.04761
10.387,-0.00488,-0.04318,-0.03235,-0.03296,-0.02594,-0.05188,0.00336,-0.00427,-0.056,-0.04395,-0.01663,-0.02869,-0.03036,-0.02213,0.00687,-0.04623
10.3875,-0.00488,-0.04166,-0.03128,0.03098,-0.02365,-0.0502,0.00351,-0.00488,-0.05692,-0.04913,-0.04211,-0.02335,-0.0322,-0.02228,0.00839,-0.04608
