time,RectFemL,VastusMedL,VastusLatL,TibAntL,HamMedL,HamLatL,GastroMedL,GastroLatL,RectFemR,VastusMedR,VastusLatR,TibAntR,HamMedR,HamLatR,GastroMedR,GastroLatR
5.17,-0.0087,-0.05722,-0.03738,-0.01175,-0.03479,-0.04852,-0.01694,-0.00656,-0.01404,-0.03555,-0.01633,0.00275,-0.03342,-0.02411,0.01099,-0.03906
5.1705,-0.00687,-0.06882,-0.03708,-0.01144,-0.03433,-0.04807,-0.01541,-0.0119,-0.0148,-0.0351,0.00641,-0.00198,-0.03235,-0.02167,0.01144,-0.03922
5.171,-0.00687,-0.0708,-0.0386,-0.01251,-0.03342,-0.04929,-0.01434,-0.0148,-0.01724,-0.0322,0.03891,-0.01724,-0.03433,-0.01923,0.00977,-0.04089
5.1715,-0.00946,-0.05692,-0.0386,-0.01389,-0.0322,-0.04974,-0.01266,-0.0145,-0.01862,-0.02823,0.07339,-0.03769,-0.03876,-0.01755,0.0087,-0.04379
5.172,-0.01114,-0.03677,-0.03708,-0.01297,-0.0325,-0.04837,-0.01038,-0.01129,-0.01694,-0.02686,0.09659,-0.05219,-0.04486,-0.01755,0.00748,-0.04593
5.1725,-0.01266,-0.02487,-0.03494,-0.01129,-0.03418,-0.04868,-0.00854,-0.00595,-0.01389,-0.02838,0.1059,-0.05066,-0.04883,-0.02029,0.00854,-0.04471
5.173,-0.01236,-0.02945,-0.03479,-0.01038,-0.03494,-0.0473,-0.0087,-0.00107,-0.01129,-0.03021,0.10742,-0.04364,-0.04684,-0.02426,0.00916,-0.04333
5.1735,-0.00885,-0.04288,-0.03632,-0.01022,-0.03448,-0.04715,-0.00916,0.00565,-0.01099,-0.0322,0.1059,-0.04349,-0.03799,-0.02747,0.00916,-0.04333
5.174,-0.00397,-0.05249,-0.03708,-0.01083,-0.0325,-0.04807,-0.00824,0.01038,-0.01083,-0.0322,0.09537,-0.04822,-0.02853,-0.02731,0.00687,-0.04303
5.1745,0.0,-0.05341,-0.03616,-0.01144,-0.03098,-0.04852,-0.00702,0.01205,-0.01007,-0.03174,0.06912,-0.04135,-0.02228,-0.02579,0.00504,-0.04196
5.175,0.00092,-0.04227,-0.03464,-0.01114,-0.03082,-0.04715,-0.00961,0.01007,-0.00916,-0.03082,0.03479,-0.01892,-0.02045,-0.02457,0.0061,-0.04074
5.1755,0.00015,-0.0267,-0.03479,-0.00885,-0.03021,-0.047,-0.01312,0.00641,-0.00793,-0.02823,0.00168,0.00198,-0.01984,-0.02502,0.00809,-0.04028
5.176,0.00015,-0.01556,-0.03677,-0.00656,-0.0296,-0.04547,-0.0174,0.00153,-0.00778,-0.02731,-0.02274,0.00168,-0.01755,-0.02487,0.00916,-0.03967
5.1765,0.00214,-0.01617,-0.03769,-0.00595,-0.0293,-0.04623,-0.02045,-0.00748,-0.00961,-0.0267,-0.04044,-0.01343,-0.01328,-0.0238,0.00946,-0.04135
5.177,0.00198,-0.02731,-0.03937,-0.00748,-0.0296,-0.04532,-0.02151,-0.01892,-0.01236,-0.02625,-0.05615,-0.03296,-0.01022,-0.02228,0.009,-0.04288
5.1775,0.00214,-0.04318,-0.04028,-0.00946,-0.03082,-0.04486,-0.0206,-0.02655,-0.0145,-0.02289,-0.06699,-0.0502,-0.01221,-0.02167,0.00717,-0.04395
5.178,0.00214,-0.05402,-0.04044,-0.01236,-0.03036,-0.0441,-0.01801,-0.02213,-0.01602,-0.01862,-0.06851,-0.06866,-0.01953,-0.0206,0.00519,-0.0441
5.1785,0.00275,-0.0528,-0.04074,-0.01251,-0.03082,-0.0441,-0.01678,-0.00977,-0.0174,-0.01495,-0.05936,-0.08789,-0.02853,-0.0209,0.00397,-0.04593
5.179,0.00381,-0.03723,-0.04028,-0.01083,-0.03067,-0.04349,-0.01495,-0.00092,-0.01678,-0.01358,-0.04166,-0.09247,-0.03448,-0.02151,0.00336,-0.04684
5.1795,0.00488,-0.01816,-0.03967,-0.00626,-0.02975,-0.0444,-0.01114,0.00381,-0.01617,-0.01236,-0.0206,-0.05081,-0.0354,-0.02258,0.00397,-0.04532
5.18,0.00641,-0.00839,-0.03815,-0.0029,-0.02945,-0.0441,-0.00595,0.00519,-0.01694,-0.00946,-0.00153,0.03326,-0.03464,-0.02411,0.00504,-0.04288
5.1805,0.00778,-0.00931,-0.03494,-0.0029,-0.02899,-0.0444,-0.00397,0.0032,-0.01785,-0.00626,0.01297,0.10712,-0.03601,-0.02563,0.00549,-0.04227
5.181,0.00763,-0.01495,-0.03128,-0.00458,-0.02808,-0.04456,-0.00595,-0.00137,-0.01892,-0.00549,0.02457,0.11444,-0.03815,-0.02518,0.00595,-0.0441
5.1815,0.00748,-0.02121,-0.02899,-0.00504,-0.02853,-0.04456,-0.00839,-0.00336,-0.01923,-0.00626,0.03326,0.0618,-0.03967,-0.0238,0.00824,-0.04517
5.182,0.00504,-0.02594,-0.02884,-0.00488,-0.0264,-0.04364,-0.01038,-0.00275,-0.01831,-0.00702,0.03311,0.01022,-0.03922,-0.02335,0.00931,-0.04471
5.1825,0.0029,-0.03113,-0.02991,-0.0058,-0.02518,-0.0441,-0.01251,-0.0032,-0.01572,-0.0087,0.0267,-0.00015,-0.03754,-0.02167,0.00839,-0.0441
5.183,0.00153,-0.03632,-0.03098,-0.00931,-0.02579,-0.04425,-0.01404,-0.00687,-0.01312,-0.00946,0.01785,0.01511,-0.03723,-0.02228,0.00671,-0.0444
5.1835,0.00183,-0.0412,-0.03235,-0.01251,-0.02808,-0.04456,-0.0145,-0.00946,-0.01129,-0.00916,0.0116,0.02686,-0.03845,-0.0235,0.00473,-0.04456
5.184,0.0032,-0.04639,-0.03235,-0.01251,-0.03159,-0.04654,-0.01419,-0.00961,-0.01053,-0.01038,0.00366,0.02518,-0.03998,-0.02411,0.00504,-0.04654
5.1845,0.0032,-0.0499,-0.03265,-0.01144,-0.0322,-0.04593,-0.01511,-0.01038,-0.00977,-0.01343,-0.00626,0.02106,-0.03998,-0.02472,0.00565,-0.04776
5.185,0.00275,-0.05203,-0.03204,-0.0119,-0.03021,-0.04578,-0.01755,-0.01053,-0.00961,-0.01633,-0.01587,0.01953,-0.03876,-0.02563,0.00687,-0.04837
5.1855,0.00198,-0.0528,-0.03143,-0.01266,-0.02975,-0.04532,-0.01984,-0.00931,-0.00946,-0.01511,-0.02045,0.01862,-0.03815,-0.0267,0.00717,-0.04791
5.186,0.00229,-0.05356,-0.03052,-0.0119,-0.03128,-0.04654,-0.02106,-0.00504,-0.01068,-0.01007,-0.02014,0.01282,-0.03708,-0.0264,0.00809,-0.04578
5.1865,0.00275,-0.05356,-0.03082,-0.01068,-0.03159,-0.0473,-0.01923,0.00229,-0.01572,-0.00763,-0.01602,0.00443,-0.0354,-0.0235,0.00824,-0.04501
5.187,0.00198,-0.05203,-0.03021,-0.01007,-0.03113,-0.04837,-0.01724,0.00519,-0.02365,-0.009,-0.00778,-0.00183,-0.03357,-0.01938,0.00839,-0.04547
5.1875,0.00168,-0.05112,-0.02823,-0.00961,-0.03052,-0.04944,-0.01678,-0.00168,-0.0296,-0.01282,0.0032,-0.0058,-0.03235,-0.01724,0.00778,-0.04623
5.188,0.00061,-0.05066,-0.02975,-0.00946,-0.03036,-0.04974,-0.01984,-0.01343,-0.02823,-0.01678,0.01373,-0.01022,-0.03113,-0.01434,0.00824,-0.04623
5.1885,-0.00107,-0.04944,-0.03067,-0.009,-0.03204,-0.04974,-0.02304,-0.02396,-0.02045,-0.01907,0.01846,-0.01694,-0.02914,-0.0119,0.00839,-0.04562
5.189,-0.0029,-0.0473,-0.03296,-0.00732,-0.03433,-0.0499,-0.02319,-0.02411,-0.01083,-0.01907,0.0174,-0.01831,-0.02808,-0.01114,0.00778,-0.04501
5.1895,-0.0032,-0.04547,-0.03387,-0.00549,-0.03601,-0.04745,-0.0206,-0.01526,-0.00397,-0.01633,0.01205,-0.01328,-0.02777,-0.01038,0.00717,-0.04547
5.19,-0.00198,-0.04425,-0.03448,-0.00565,-0.0351,-0.04715,-0.01831,-0.00702,-0.00168,-0.01114,0.00687,-0.00488,-0.02686,-0.01022,0.00702,-0.04547
5.1905,0.0,-0.04333,-0.03464,-0.00595,-0.0325,-0.04501,-0.01755,-0.00351,-0.0032,-0.00656,0.00626,0.00076,-0.02563,-0.01022,0.00687,-0.04547
5.191,0.00107,-0.04288,-0.03418,-0.00641,-0.02991,-0.04562,-0.01724,-0.00336,-0.00732,-0.00488,0.00961,0.00427,-0.02472,-0.01022,0.00763,-0.04471
5.1915,0.00137,-0.04211,-0.03357,-0.00717,-0.03021,-0.04562,-0.0177,-0.00443,-0.01083,-0.00137,0.01343,0.00778,-0.02426,-0.00916,0.00839,-0.04349
5.192,0.00198,-0.0412,-0.03143,-0.00778,-0.03082,-0.0473,-0.01785,-0.00443,-0.01312,0.00397,0.01038,0.01068,-0.02274,-0.00641,0.00916,-0.04257
5.1925,0.00168,-0.03967,-0.03052,-0.00702,-0.03036,-0.04623,-0.01877,-0.00473,-0.01495,0.00717,-0.00092,0.00839,-0.02106,-0.00519,0.00946,-0.04105
5.193,0.00061,-0.0412,-0.03006,-0.00671,-0.02808,-0.04654,-0.01831,-0.00443,-0.01602,0.00671,-0.01587,0.0,-0.02075,-0.00671,0.01007,-0.04074
5.1935,0.0,-0.04333,-0.02884,-0.00732,-0.02808,-0.04669,-0.01755,-0.00397,-0.01862,0.0029,-0.0293,-0.01251,-0.02182,-0.01022,0.01022,-0.04044
5.194,-0.00015,-0.04547,-0.02869,-0.01007,-0.03143,-0.04852,-0.01724,-0.00351,-0.01953,0.00107,-0.03708,-0.02197,-0.02319,-0.01221,0.01144,-0.0415
5.1945,0.00031,-0.04608,-0.03128,-0.0116,-0.03433,-0.0502,-0.01633,-0.0061,-0.02029,0.00275,-0.03952,-0.02914,-0.02396,-0.01312,0.01129,-0.04166
5.195,0.00015,-0.04547,-0.0351,-0.01129,-0.03418,-0.04974,-0.01526,-0.00748,-0.02213,0.00595,-0.04059,-0.03479,-0.02594,-0.01526,0.0116,-0.04105
5.1955,0.00046,-0.04395,-0.03723,-0.01022,-0.03159,-0.04852,-0.01404,-0.00687,-0.02457,0.00839,-0.04395,-0.03616,-0.02853,-0.01801,0.01022,-0.04272
5.196,0.00015,-0.04196,-0.0351,-0.01083,-0.03021,-0.04761,-0.01404,-0.00458,-0.02731,0.00732,-0.04868,-0.03281,-0.03265,-0.0209,0.00961,-0.04501
5.1965,-0.00122,-0.04028,-0.03204,-0.0119,-0.0293,-0.04807,-0.01358,-0.00366,-0.02914,0.00214,-0.05417,-0.02518,-0.03662,-0.02029,0.00992,-0.04684
5.197,-0.00305,-0.03998,-0.03082,-0.0119,-0.03128,-0.05081,-0.01343,-0.00397,-0.03052,-0.00656,-0.05936,-0.01678,-0.03998,-0.01785,0.01007,-0.04684
5.1975,-0.00397,-0.04089,-0.03036,-0.01144,-0.03357,-0.05112,-0.01358,-0.00351,-0.03113,-0.01663,-0.0618,-0.0087,-0.04227,-0.01648,0.01114,-0.04776
5.198,-0.00381,-0.0415,-0.03159,-0.01022,-0.03723,-0.04929,-0.01373,-0.00168,-0.03006,-0.02319,-0.05478,-0.00122,-0.04196,-0.01953,0.01297,-0.04807
5.1985,-0.00198,-0.04181,-0.03311,-0.00992,-0.0386,-0.04715,-0.01434,-0.00183,-0.02502,-0.02502,-0.03769,0.00351,-0.03998,-0.0264,0.0119,-0.04837
5.199,-0.00168,-0.04181,-0.03464,-0.01083,-0.03723,-0.04501,-0.01465,-0.00381,-0.01785,-0.02548,-0.02121,-0.00366,-0.03677,-0.03052,0.0087,-0.04822
5.1995,-0.00259,-0.04074,-0.03403,-0.01038,-0.03586,-0.04547,-0.01343,-0.0058,-0.0119,-0.02823,-0.01816,-0.01312,-0.03372,-0.02899,0.0058,-0.04807
5.2,-0.00305,-0.03967,-0.03235,-0.00977,-0.03571,-0.04868,-0.01099,-0.00671,-0.00809,-0.03006,-0.02625,-0.00977,-0.03036,-0.02258,0.0058,-0.04883
5.2005,-0.00229,-0.03845,-0.03204,-0.01022,-0.03586,-0.04776,-0.01007,-0.00397,-0.00717,-0.03235,-0.03387,0.01419,-0.02853,-0.01617,0.00778,-0.05005
5.201,-0.00168,-0.03784,-0.03372,-0.00992,-0.03433,-0.04578,-0.0116,-0.00107,-0.00778,-0.03448,-0.03586,0.03891,-0.02823,-0.01495,0.00809,-0.04959
5.2015,-0.00092,-0.03723,-0.03586,-0.01053,-0.03204,-0.0444,-0.01266,0.00046,-0.0116,-0.03891,-0.03586,0.03815,-0.0267,-0.01801,0.0087,-0.04868
5.202,-0.00092,-0.0354,-0.03601,-0.01022,-0.03082,-0.04456,-0.0119,-0.00061,-0.0148,-0.04303,-0.03815,0.01068,-0.02274,-0.02167,0.00839,-0.04868
5.2025,-0.00031,-0.03357,-0.03616,-0.00793,-0.03006,-0.04578,-0.01007,-0.00107,-0.01587,-0.04532,-0.04379,-0.01831,-0.01862,-0.02365,0.00916,-0.04883
5.203,0.00092,-0.03448,-0.03632,-0.00687,-0.03021,-0.04562,-0.01022,-0.00076,-0.0145,-0.04471,-0.05066,-0.0293,-0.01785,-0.0235,0.00931,-0.04791
5.2035,0.00183,-0.03769,-0.03662,-0.00717,-0.03113,-0.04562,-0.01129,-0.00092,-0.01038,-0.04028,-0.0589,-0.02533,-0.02045,-0.02411,0.00885,-0.04883
5.204,0.00122,-0.03876,-0.03571,-0.00809,-0.03159,-0.04822,-0.01236,-0.00076,-0.00641,-0.03357,-0.06882,-0.01495,-0.02518,-0.0235,0.00778,-0.0499
5.2045,0.0,-0.03922,-0.03448,-0.00763,-0.03265,-0.04807,-0.01099,-0.00031,-0.00381,-0.02609,-0.08072,-0.00381,-0.02975,-0.02151,0.00778,-0.05127
5.205,-0.00137,-0.03876,-0.03387,-0.00763,-0.03433,-0.04898,-0.01083,0.00076,-0.00412,-0.02197,-0.09018,0.00031,-0.03357,-0.01938,0.00778,-0.05051
5.2055,-0.00381,-0.03891,-0.03372,-0.00824,-0.03616,-0.047,-0.01083,0.00244,-0.00824,-0.02182,-0.09094,-0.00732,-0.03464,-0.01938,0.00824,-0.04959
5.206,-0.00549,-0.03998,-0.03387,-0.00961,-0.03647,-0.047,-0.01114,0.00397,-0.01205,-0.02396,-0.08316,-0.02838,-0.03494,-0.02106,0.00778,-0.04913
5.2065,-0.00504,-0.04044,-0.03342,-0.00977,-0.03571,-0.04868,-0.01068,0.00244,-0.01266,-0.02563,-0.0737,-0.05173,-0.03494,-0.02045,0.00809,-0.04929
5.207,-0.00397,-0.04135,-0.03342,-0.009,-0.03586,-0.04807,-0.0116,-0.00458,-0.00931,-0.02884,-0.06622,-0.07111,-0.03464,-0.01801,0.00793,-0.04944
5.2075,-0.00443,-0.04333,-0.03296,-0.00839,-0.03693,-0.04623,-0.01373,-0.01251,-0.00595,-0.0386,-0.05356,-0.08484,-0.0322,-0.01556,0.00992,-0.05005
5.208,-0.00565,-0.04745,-0.03281,-0.00839,-0.03662,-0.04471,-0.01419,-0.01297,-0.00641,-0.05661,-0.02945,-0.08087,-0.0296,-0.01419,0.00977,-0.05051
5.2085,-0.0058,-0.05051,-0.03403,-0.00824,-0.03433,-0.04257,-0.01343,-0.00626,-0.00885,-0.07034,0.0058,-0.04547,-0.02869,-0.01266,0.00885,-0.0502
5.209,-0.00443,-0.04959,-0.03387,-0.00854,-0.02991,-0.04074,-0.01251,0.00061,-0.01022,-0.0679,0.03937,0.01328,-0.03098,-0.0116,0.00778,-0.0499
5.2095,-0.00336,-0.04517,-0.0322,-0.00839,-0.02472,-0.03998,-0.01373,0.00244,-0.00748,-0.0502,0.06241,0.06577,-0.03372,-0.01053,0.00778,-0.05035
5.21,-0.00275,-0.04105,-0.02975,-0.00854,-0.0209,-0.04227,-0.01541,-0.00015,-0.00519,-0.02914,0.07462,0.07935,-0.03387,-0.00931,0.00885,-0.04944
5.2105,-0.00305,-0.03998,-0.02945,-0.00931,-0.01755,-0.04593,-0.01724,-0.0029,-0.00687,-0.01389,0.07889,0.05508,-0.03204,-0.00778,0.00977,-0.04913
5.211,-0.00397,-0.04028,-0.03143,-0.01068,-0.01648,-0.04822,-0.01587,-0.00366,-0.01175,-0.00366,0.07751,0.02579,-0.03052,-0.00732,0.00961,-0.04898
5.2115,-0.00458,-0.04074,-0.03326,-0.01053,-0.01541,-0.04623,-0.01282,-0.00351,-0.01633,0.00107,0.06897,0.01953,-0.03082,-0.00824,0.01099,-0.04807
5.212,-0.00488,-0.03998,-0.03342,-0.01022,-0.01511,-0.04318,-0.01038,-0.00381,-0.01923,0.00076,0.05539,0.03311,-0.03159,-0.00946,0.01236,-0.04715
5.2125,-0.00458,-0.0415,-0.03357,-0.00977,-0.01633,-0.04211,-0.01022,-0.00351,-0.0206,-0.00259,0.03983,0.04364,-0.03067,-0.00961,0.01358,-0.04593
5.213,-0.00427,-0.04425,-0.03494,-0.01053,-0.01999,-0.04333,-0.01007,-0.00412,-0.02121,-0.0029,0.02533,0.03616,-0.0267,-0.01007,0.01358,-0.04532
5.2135,-0.00458,-0.04547,-0.03693,-0.0116,-0.02533,-0.04593,-0.01114,-0.00381,-0.02228,0.00168,0.0116,0.01389,-0.01694,-0.01083,0.01297,-0.04456
5.214,-0.00519,-0.04425,-0.03708,-0.01236,-0.0322,-0.04837,-0.01068,-0.00275,-0.02243,0.009,0.00092,-0.00687,-0.0029,-0.00977,0.01205,-0.04211
5.2145,-0.00565,-0.04242,-0.03464,-0.01221,-0.03738,-0.05112,-0.01007,-0.00214,-0.02167,0.01221,-0.0058,-0.01572,0.00809,-0.00702,0.0116,-0.03937
5.215,-0.00534,-0.04181,-0.03357,-0.01129,-0.04074,-0.04944,-0.01038,-0.00229,-0.01923,0.01251,-0.00641,-0.01129,0.00854,-0.00473,0.01175,-0.0386
5.2155,-0.0058,-0.04181,-0.0325,-0.01053,-0.04272,-0.0473,-0.0119,-0.00397,-0.01831,0.0119,-0.00549,0.00183,-0.00336,-0.00412,0.01083,-0.0415
5.216,-0.00549,-0.04166,-0.03265,-0.00916,-0.04486,-0.04425,-0.01373,-0.0061,-0.01816,0.00931,-0.00595,0.01755,-0.02151,-0.00458,0.00961,-0.04501
5.2165,-0.0061,-0.04166,-0.03296,-0.00946,-0.04745,-0.04471,-0.01419,-0.00626,-0.0177,0.00351,-0.00488,0.03098,-0.03738,-0.00519,0.00916,-0.05081
5.217,-0.00839,-0.0412,-0.03403,-0.00977,-0.04913,-0.04822,-0.01297,-0.00397,-0.01404,-0.00168,-0.00244,0.03906,-0.04761,-0.0058,0.0061,-0.05692
5.2175,-0.00946,-0.04059,-0.03555,-0.00992,-0.0473,-0.05447,-0.01144,-0.00198,-0.00717,-0.00275,-0.00229,0.04837,-0.05173,-0.00549,0.00351,-0.06042
5.218,-0.00809,-0.03922,-0.0351,-0.01007,-0.04181,-0.0621,-0.01205,-0.00153,-0.00015,-0.00214,-0.00732,0.06958,-0.05188,-0.00397,0.00076,-0.05585
5.2185,-0.00473,-0.03845,-0.03418,-0.01129,-0.03464,-0.06409,-0.01328,-0.00229,0.00397,-0.00198,-0.01404,0.09125,-0.04944,-0.00351,0.00183,-0.04837
5.219,-0.00168,-0.03799,-0.03342,-0.01328,-0.03082,-0.06134,-0.01602,-0.00259,0.00488,-0.00427,-0.01785,0.09201,-0.04471,-0.00504,0.0032,-0.04379
5.2195,-0.00031,-0.03784,-0.03311,-0.01328,-0.02869,-0.05554,-0.01724,-0.00137,0.00214,-0.00549,-0.02014,0.06622,-0.03647,-0.00702,0.00397,-0.04501
5.22,-0.00031,-0.0386,-0.03326,-0.01221,-0.02731,-0.0502,-0.0177,-0.00015,-0.00183,-0.00519,-0.02441,0.0386,-0.02762,-0.00946,0.00473,-0.04837
5.2205,-0.00015,-0.04059,-0.03448,-0.01007,-0.02609,-0.04837,-0.01724,0.00031,-0.00702,-0.0058,-0.02945,0.02792,-0.02319,-0.01221,0.0061,-0.05112
5.221,0.00031,-0.04013,-0.03525,-0.00992,-0.02365,-0.04745,-0.0177,0.00076,-0.01343,-0.00854,-0.0322,0.02914,-0.02289,-0.01389,0.00748,-0.05173
5.2215,0.00122,-0.03845,-0.03418,-0.01053,-0.02029,-0.04883,-0.01755,0.00122,-0.01984,-0.01572,-0.0322,0.03342,-0.0264,-0.01617,0.00916,-0.05066
5.222,0.00183,-0.03647,-0.0325,-0.01068,-0.01785,-0.04761,-0.01633,0.00198,-0.02411,-0.02243,-0.03479,0.03326,-0.03265,-0.02014,0.01053,-0.04822
5.2225,0.00122,-0.03738,-0.03281,-0.01068,-0.01556,-0.047,-0.01404,0.00183,-0.02411,-0.02792,-0.03799,0.03174,-0.03769,-0.02121,0.01114,-0.04532
5.223,-0.00061,-0.03799,-0.0354,-0.01114,-0.01587,-0.04639,-0.01205,0.00046,-0.02014,-0.03082,-0.03601,0.02838,-0.03922,-0.01862,0.01007,-0.04349
5.2235,-0.00351,-0.03754,-0.03708,-0.01083,-0.01328,-0.04593,-0.01175,-0.00259,-0.01617,-0.03204,-0.02609,0.02594,-0.03937,-0.01236,0.00748,-0.04349
5.224,-0.00534,-0.03616,-0.03677,-0.009,-0.00732,-0.04623,-0.01328,-0.00595,-0.01587,-0.03204,-0.0116,0.02441,-0.0386,-0.0058,0.00656,-0.04471
5.2245,-0.0058,-0.03601,-0.03693,-0.00763,-0.00214,-0.04807,-0.01434,-0.00763,-0.01999,-0.03128,0.00305,0.02655,-0.03799,-0.00183,0.0058,-0.04608
5.225,-0.00473,-0.03876,-0.03769,-0.00702,-0.00061,-0.05325,-0.01328,-0.00793,-0.02319,-0.02899,0.0087,0.0293,-0.03632,0.00168,0.00427,-0.0441
5.2255,-0.00427,-0.04089,-0.0386,-0.00702,-0.00153,-0.05966,-0.01038,-0.00702,-0.02365,-0.02441,0.00473,0.02975,-0.03555,0.00336,0.009,-0.04074
5.226,-0.00443,-0.04181,-0.03876,-0.00763,-0.00519,-0.06836,-0.0087,-0.00549,-0.02121,-0.01923,-0.00549,0.02686,-0.0354,0.00153,0.02029,-0.03983
5.2265,-0.00565,-0.04166,-0.03891,-0.00916,-0.0119,-0.07492,-0.01099,-0.00412,-0.01953,-0.01526,-0.01434,0.02274,-0.03693,-0.00092,0.03723,-0.04105
5.227,-0.00656,-0.04135,-0.03815,-0.00992,-0.0206,-0.07645,-0.01282,-0.0032,-0.02014,-0.0174,-0.01877,0.02106,-0.0386,-0.00214,0.05035,-0.04349
5.2275,-0.00763,-0.0412,-0.03799,-0.01129,-0.02716,-0.07126,-0.01266,-0.0029,-0.02182,-0.02136,-0.02243,0.01984,-0.03967,-0.00443,0.04868,-0.0444
5.228,-0.00885,-0.04196,-0.03738,-0.01022,-0.0293,-0.06454,-0.01114,-0.0029,-0.02258,-0.02411,-0.02823,0.01907,-0.0386,-0.00793,0.03281,-0.04486
5.2285,-0.00946,-0.04166,-0.03754,-0.00916,-0.02975,-0.06073,-0.01083,-0.00244,-0.02121,-0.02533,-0.03403,0.01816,-0.03632,-0.01144,0.01236,-0.04517
5.229,-0.00916,-0.04135,-0.03647,-0.00839,-0.03098,-0.05905,-0.0119,-0.00183,-0.01785,-0.02487,-0.03586,0.01526,-0.03403,-0.01373,-0.00336,-0.04608
5.2295,-0.00626,-0.04059,-0.03662,-0.00824,-0.03693,-0.05447,-0.01266,-0.00137,-0.01511,-0.02182,-0.02975,0.01312,-0.0322,-0.01236,-0.01678,-0.04776
5.23,-0.00336,-0.04074,-0.0354,-0.00977,-0.04807,-0.04669,-0.01266,-0.00031,-0.01312,-0.01678,-0.01984,0.0119,-0.03113,-0.00946,-0.02991,-0.05081
5.2305,-0.00183,-0.04089,-0.03479,-0.00931,-0.05997,-0.03769,-0.01205,-0.00107,-0.01236,-0.01312,-0.0145,0.01205,-0.03098,-0.00977,-0.04089,-0.05447
5.231,-0.00244,-0.04059,-0.03464,-0.00885,-0.0679,-0.02884,-0.01083,-0.00168,-0.01175,-0.0145,-0.01328,0.01404,-0.03189,-0.01068,-0.04181,-0.05707
5.2315,-0.0032,-0.03967,-0.03479,-0.00946,-0.06866,-0.02121,-0.00977,-0.00259,-0.01114,-0.01862,-0.0148,0.01816,-0.0325,-0.01144,-0.02869,-0.05493
5.232,-0.00305,-0.03937,-0.03616,-0.01099,-0.06393,-0.01526,-0.01053,-0.00336,-0.00992,-0.02228,-0.01556,0.02167,-0.03372,-0.00916,-0.0087,-0.05325
5.2325,-0.0032,-0.03815,-0.0354,-0.0116,-0.06027,-0.01389,-0.01236,-0.00412,-0.00778,-0.02182,-0.01434,0.02228,-0.03525,-0.00519,0.00717,-0.05264
5.233,-0.00351,-0.03891,-0.0351,-0.01205,-0.05951,-0.01602,-0.01465,-0.00427,-0.00458,-0.02182,-0.0119,0.02304,-0.03647,-0.00214,0.0119,-0.05432
5.2335,-0.0029,-0.03906,-0.03479,-0.01175,-0.06073,-0.01846,-0.01419,-0.00488,-0.00198,-0.02289,-0.01175,0.02213,-0.0386,-0.00259,0.01129,-0.05554
5.234,-0.00107,-0.03967,-0.03571,-0.01053,-0.0592,-0.02045,-0.01236,-0.00473,-0.00046,-0.02548,-0.01175,0.02121,-0.04074,-0.01114,0.01343,-0.05554
5.2345,0.00061,-0.03967,-0.03586,-0.00916,-0.05463,-0.02197,-0.01266,-0.00549,-0.00137,-0.02884,-0.01266,0.01953,-0.04135,-0.0235,0.01862,-0.05478
5.235,-0.00015,-0.04028,-0.03448,-0.009,-0.04471,-0.0235,-0.0145,-0.0061,-0.00366,-0.0322,-0.01328,0.01755,-0.03937,-0.03036,0.02289,-0.05524
5.2355,-0.00244,-0.04181,-0.03204,-0.01068,-0.03204,-0.02502,-0.0148,-0.0058,-0.00809,-0.03647,-0.01419,0.01465,-0.03662,-0.02838,0.02258,-0.05539
5.236,-0.00519,-0.04227,-0.03113,-0.01205,-0.0206,-0.02777,-0.01312,-0.00504,-0.0119,-0.03784,-0.01801,0.0116,-0.03403,-0.02136,0.01923,-0.05371
5.2365,-0.00671,-0.0415,-0.03265,-0.01175,-0.01434,-0.03143,-0.01083,-0.0032,-0.01465,-0.03662,-0.02228,0.00885,-0.0325,-0.01617,0.0177,-0.05432
5.237,-0.00641,-0.04181,-0.03494,-0.01099,-0.01221,-0.03738,-0.0116,-0.00397,-0.01709,-0.03433,-0.02457,0.00717,-0.03326,-0.0148,0.01617,-0.05615
5.2375,-0.00458,-0.04196,-0.03632,-0.01083,-0.01511,-0.04623,-0.01343,-0.00488,-0.01968,-0.03235,-0.02365,0.00687,-0.03418,-0.01404,0.01434,-0.05844
5.238,-0.00412,-0.04288,-0.03632,-0.01053,-0.02182,-0.05661,-0.0145,-0.00397,-0.02182,-0.03143,-0.02243,0.00687,-0.03433,-0.01541,0.01358,-0.05936
5.2385,-0.00351,-0.04303,-0.03662,-0.01083,-0.0322,-0.06714,-0.01434,-0.00198,-0.02335,-0.03006,-0.01785,0.00687,-0.03418,-0.01709,0.01129,-0.05798
5.239,-0.00381,-0.04395,-0.03555,-0.01144,-0.0444,-0.0769,-0.01434,-0.00092,-0.02518,-0.02762,-0.01251,0.00534,-0.03433,-0.0174,0.01053,-0.05569
5.2395,-0.00366,-0.04318,-0.03448,-0.01068,-0.05478,-0.07904,-0.01404,0.00031,-0.02747,-0.02197,-0.01175,0.00259,-0.03387,-0.01617,0.009,-0.05325
5.24,-0.00244,-0.04196,-0.03265,-0.01053,-0.05905,-0.07065,-0.01389,0.00092,-0.0293,-0.01709,-0.0148,0.0,-0.03265,-0.0148,0.009,-0.05264
5.2405,-0.00092,-0.04089,-0.03159,-0.01129,-0.05646,-0.05814,-0.01389,0.00061,-0.03052,-0.01572,-0.02243,-0.00244,-0.03204,-0.0148,0.00916,-0.05234
5.241,0.00107,-0.04044,-0.03067,-0.01175,-0.05142,-0.05157,-0.01511,-0.00198,-0.03128,-0.01663,-0.03418,-0.00641,-0.03357,-0.01678,0.00916,-0.05142
5.2415,0.00076,-0.04044,-0.0296,-0.01114,-0.04883,-0.05295,-0.01541,-0.00534,-0.0325,-0.0174,-0.04807,-0.00977,-0.03616,-0.01907,0.00763,-0.05234
5.242,-0.00076,-0.04089,-0.02899,-0.00824,-0.04959,-0.05463,-0.01389,-0.00748,-0.03479,-0.0177,-0.06042,-0.01175,-0.03647,-0.0206,0.00626,-0.05341
5.2425,-0.00214,-0.04044,-0.03036,-0.00671,-0.04745,-0.05127,-0.01205,-0.00732,-0.03616,-0.02014,-0.06577,-0.01373,-0.03555,-0.02243,0.00519,-0.05386
5.243,-0.0029,-0.04044,-0.03189,-0.00687,-0.04211,-0.04639,-0.01282,-0.00519,-0.03464,-0.02579,-0.06378,-0.01801,-0.0351,-0.02304,0.00381,-0.05463
5.2435,-0.00305,-0.04059,-0.03326,-0.00763,-0.03754,-0.04517,-0.01434,-0.00305,-0.03098,-0.02823,-0.05295,-0.02396,-0.0351,-0.02411,0.00443,-0.05524
5.244,-0.00504,-0.03967,-0.03174,-0.00809,-0.03555,-0.04745,-0.01511,-0.00214,-0.0267,-0.02563,-0.0325,-0.03036,-0.03586,-0.02426,0.00595,-0.05417
5.2445,-0.00595,-0.03876,-0.03021,-0.009,-0.03387,-0.05035,-0.01419,-0.00397,-0.02411,-0.02182,-0.00336,-0.03723,-0.03555,-0.02411,0.00595,-0.05173
5.245,-0.00626,-0.0383,-0.02899,-0.00992,-0.03052,-0.05035,-0.01495,-0.00381,-0.02304,-0.02213,0.02533,-0.04303,-0.0351,-0.02472,0.00366,-0.04852
5.2455,-0.00458,-0.03845,-0.03113,-0.00992,-0.02563,-0.04852,-0.01602,-0.0032,-0.02197,-0.02472,0.04654,-0.04562,-0.03479,-0.02533,-0.00229,-0.04578
5.246,-0.0032,-0.04074,-0.03418,-0.00946,-0.02151,-0.04547,-0.01572,-0.00275,-0.01953,-0.02548,0.06012,-0.04272,-0.03357,-0.02487,-0.00854,-0.04517
5.2465,-0.00336,-0.04272,-0.03616,-0.00946,-0.01907,-0.04211,-0.01511,-0.00305,-0.01678,-0.02075,0.065,-0.03815,-0.03555,-0.02365,-0.00931,-0.04791
5.247,-0.00458,-0.0444,-0.0351,-0.00977,-0.01862,-0.04227,-0.0145,-0.00305,-0.01572,-0.01434,0.05722,-0.03754,-0.03922,-0.02289,-0.00443,-0.05096
5.2475,-0.00641,-0.04349,-0.03464,-0.00961,-0.01938,-0.04562,-0.01572,-0.00381,-0.0148,-0.01175,0.03799,-0.03998,-0.0412,-0.02243,0.0032,-0.0499
5.248,-0.0061,-0.04181,-0.03464,-0.00839,-0.01831,-0.0473,-0.01694,-0.0032,-0.01221,-0.01312,0.0177,-0.04089,-0.04074,-0.02228,0.01099,-0.04547
5.2485,-0.00534,-0.0412,-0.0354,-0.00793,-0.01663,-0.04654,-0.01709,-0.00427,-0.00946,-0.01602,0.00671,-0.04135,-0.03876,-0.02182,0.0177,-0.04288
5.249,-0.0058,-0.04166,-0.03632,-0.00977,-0.01587,-0.04272,-0.01846,-0.00534,-0.00702,-0.01526,0.00198,-0.04074,-0.03586,-0.01938,0.02609,-0.047
5.2495,-0.0061,-0.04166,-0.03586,-0.01251,-0.01801,-0.03937,-0.02075,-0.00824,-0.00565,-0.01175,-0.00443,-0.04074,-0.03235,-0.01633,0.03006,-0.05432
5.25,-0.00565,-0.04196,-0.03464,-0.01373,-0.02319,-0.03998,-0.02167,-0.009,-0.00458,-0.00793,-0.01236,-0.04089,-0.03021,-0.01495,0.02533,-0.05676
5.2505,-0.00534,-0.04105,-0.03403,-0.01266,-0.02808,-0.04379,-0.02014,-0.00763,-0.00443,-0.00549,-0.01785,-0.04166,-0.02884,-0.01633,0.01923,-0.05203
5.251,-0.00549,-0.03983,-0.0322,-0.01083,-0.03098,-0.04929,-0.01755,-0.00626,-0.00717,-0.00397,-0.0177,-0.04272,-0.02853,-0.01984,0.01465,-0.04181
5.2515,-0.0061,-0.03998,-0.03357,-0.01038,-0.03143,-0.05859,-0.01678,-0.00412,-0.01282,-0.00305,-0.0145,-0.04318,-0.02655,-0.02365,0.01495,-0.03357
5.252,-0.00504,-0.04074,-0.03525,-0.01114,-0.03113,-0.06653,-0.01617,-0.00183,-0.01846,-0.00076,-0.01266,-0.04593,-0.02548,-0.02625,0.01495,-0.02884
5.2525,-0.00336,-0.04227,-0.03555,-0.01099,-0.03342,-0.07141,-0.01617,0.00198,-0.02029,0.00137,-0.01495,-0.04745,-0.0264,-0.02716,0.0145,-0.02823
5.253,-0.00137,-0.04135,-0.03571,-0.01114,-0.0383,-0.07034,-0.01648,0.00534,-0.01755,0.01175,-0.01877,-0.04578,-0.02899,-0.02716,0.0119,-0.0293
5.2535,0.0,-0.04074,-0.03677,-0.01114,-0.04135,-0.06531,-0.01755,0.00565,-0.01434,0.03555,-0.01907,-0.0444,-0.02914,-0.02533,0.00977,-0.02747
5.254,0.00046,-0.04074,-0.03723,-0.01175,-0.04013,-0.0592,-0.01877,0.00122,-0.01373,0.06409,-0.01587,-0.04333,-0.02716,-0.02304,0.00839,-0.02075
5.2545,0.0,-0.0412,-0.03799,-0.01205,-0.0354,-0.05371,-0.01953,-0.00275,-0.01511,0.07172,-0.01358,-0.04349,-0.02899,-0.02228,0.00793,-0.0145
5.255,0.00031,-0.04105,-0.03632,-0.0119,-0.03372,-0.04959,-0.01999,-0.00397,-0.01678,0.04364,-0.01266,-0.04349,-0.0325,-0.02518,0.00702,-0.01633
5.2555,0.00092,-0.03967,-0.03647,-0.01205,-0.03647,-0.04684,-0.02136,-0.0029,-0.01877,-0.00336,-0.01236,-0.04333,-0.03418,-0.0267,0.00336,-0.0267
5.256,0.00229,-0.03937,-0.0351,-0.01144,-0.04135,-0.04547,-0.02228,0.00107,-0.02014,-0.04242,-0.01175,-0.04395,-0.03342,-0.02502,-0.00107,-0.03937
5.2565,0.00168,-0.03891,-0.03357,-0.00946,-0.0412,-0.04196,-0.02182,0.00397,-0.02136,-0.0621,-0.01205,-0.04517,-0.03235,-0.02075,-0.0032,-0.04776
5.257,0.0,-0.03906,-0.03174,-0.0087,-0.03555,-0.03662,-0.01938,0.00473,-0.0206,-0.06653,-0.01511,-0.04486,-0.03098,-0.02045,-0.00153,-0.04837
5.2575,-0.00168,-0.03845,-0.03098,-0.009,-0.02792,-0.0296,-0.01556,0.00397,-0.01938,-0.06805,-0.01938,-0.04349,-0.03006,-0.0235,0.00336,-0.04181
5.258,-0.00366,-0.03906,-0.03098,-0.01022,-0.02289,-0.02686,-0.01175,0.00076,-0.01862,-0.06851,-0.01984,-0.03983,-0.02808,-0.02625,0.00717,-0.03265
5.2585,-0.00458,-0.03906,-0.03174,-0.01144,-0.0235,-0.03098,-0.00931,-0.00137,-0.01785,-0.06531,-0.01663,-0.03372,-0.02594,-0.02502,0.00778,-0.02777
5.259,-0.0032,-0.04089,-0.03265,-0.01114,-0.02945,-0.04807,-0.01099,-0.00259,-0.01602,-0.05859,-0.01419,-0.02853,-0.02579,-0.02411,0.0087,-0.02777
5.2595,-0.00229,-0.04242,-0.03326,-0.00992,-0.03738,-0.06516,-0.01419,-0.00336,-0.01266,-0.05234,-0.01282,-0.02304,-0.02731,-0.0238,0.01633,-0.02945
5.26,-0.00244,-0.04318,-0.03281,-0.00824,-0.04028,-0.07248,-0.01602,-0.00504,-0.01068,-0.04807,-0.01083,-0.01862,-0.02945,-0.02258,0.03082,-0.02792
5.2605,-0.00198,-0.04181,-0.03265,-0.00793,-0.03616,-0.0679,-0.01633,-0.00793,-0.01053,-0.04608,-0.00931,-0.01465,-0.03189,-0.02182,0.03998,-0.02426
5.261,-0.00183,-0.04135,-0.03174,-0.0087,-0.02869,-0.05295,-0.01572,-0.00778,-0.01083,-0.04425,-0.00778,-0.01282,-0.03113,-0.02304,0.03616,-0.0206
5.2615,-0.00214,-0.03967,-0.03052,-0.00793,-0.02106,-0.0412,-0.01526,-0.00671,-0.01022,-0.04333,-0.00992,-0.01251,-0.02914,-0.02655,0.02502,-0.01938
5.262,-0.0032,-0.03998,-0.03128,-0.00778,-0.01526,-0.03586,-0.01541,-0.00549,-0.0087,-0.04044,-0.01434,-0.01236,-0.02899,-0.0296,0.01511,-0.01892
5.2625,-0.00366,-0.04028,-0.03113,-0.00824,-0.01144,-0.03784,-0.01617,-0.00565,-0.00824,-0.03616,-0.01907,-0.01251,-0.03113,-0.0296,0.00778,-0.01968
5.263,-0.0032,-0.04059,-0.03098,-0.009,-0.00885,-0.04822,-0.01648,-0.0058,-0.00793,-0.03098,-0.02167,-0.01236,-0.03754,-0.02808,0.00046,-0.0206
5.2635,-0.00229,-0.04089,-0.03204,-0.00946,-0.00656,-0.06348,-0.01617,-0.00534,-0.00732,-0.02716,-0.01968,-0.01022,-0.0444,-0.02747,-0.00488,-0.02106
5.264,-0.0029,-0.04013,-0.03281,-0.00916,-0.00656,-0.07492,-0.01556,-0.0029,-0.00763,-0.02487,-0.01495,-0.00656,-0.04776,-0.02777,-0.00916,-0.01999
5.2645,-0.00336,-0.03967,-0.03387,-0.00763,-0.00839,-0.07874,-0.01419,-0.00137,-0.00656,-0.02365,-0.00931,-0.00244,-0.04791,-0.0267,-0.01053,-0.01862
5.265,-0.00412,-0.03922,-0.03326,-0.00839,-0.01144,-0.07629,-0.01266,0.00122,-0.00687,-0.02258,-0.0058,0.00137,-0.04684,-0.02502,-0.01099,-0.01678
5.2655,-0.00443,-0.04059,-0.03265,-0.00916,-0.01373,-0.0708,-0.01312,0.00397,-0.00778,-0.01907,-0.00763,0.00381,-0.04608,-0.02441,-0.00778,-0.01541
5.266,-0.00351,-0.04166,-0.03204,-0.01099,-0.01572,-0.06073,-0.01282,0.00565,-0.0087,-0.01648,-0.01358,0.00397,-0.04471,-0.02533,-0.00031,-0.01648
5.2665,-0.00412,-0.04196,-0.03372,-0.01251,-0.0177,-0.04944,-0.01297,0.00641,-0.00946,-0.01434,-0.02533,0.00305,-0.04196,-0.02625,0.00595,-0.01846
5.267,-0.00534,-0.0412,-0.03433,-0.01343,-0.01862,-0.04135,-0.0119,0.00626,-0.01083,-0.01419,-0.0444,0.00259,-0.0354,-0.0264,0.00946,-0.01938
5.2675,-0.0061,-0.04089,-0.03418,-0.01282,-0.01816,-0.03922,-0.01129,0.00305,-0.01144,-0.0148,-0.06775,0.00153,-0.02579,-0.02563,0.01053,-0.01892
5.268,-0.00671,-0.04166,-0.03464,-0.0119,-0.01907,-0.04623,-0.01251,-0.00351,-0.0116,-0.01648,-0.08423,0.00061,-0.01785,-0.02518,0.01099,-0.01831
5.2685,-0.0061,-0.04272,-0.03555,-0.01144,-0.02197,-0.056,-0.01511,-0.01114,-0.01114,-0.01709,-0.09003,0.00031,-0.01389,-0.02609,0.00931,-0.01984
5.269,-0.00595,-0.04257,-0.03616,-0.01129,-0.02609,-0.06073,-0.01663,-0.0174,-0.01205,-0.01617,-0.08774,0.00122,-0.00671,-0.02731,0.0032,-0.02182
5.2695,-0.00412,-0.04242,-0.03494,-0.00992,-0.02991,-0.05325,-0.01541,-0.0177,-0.01404,-0.01343,-0.08163,0.00351,0.0116,-0.0267,-0.0032,-0.02243
5.27,-0.00183,-0.04074,-0.0325,-0.00854,-0.03403,-0.03876,-0.01373,-0.01053,-0.01587,-0.01205,-0.06927,0.00671,0.03967,-0.02716,0.00061,-0.02121
5.2705,-0.00122,-0.03922,-0.03159,-0.00763,-0.03647,-0.02502,-0.01419,-0.00397,-0.01556,-0.01205,-0.0473,0.01068,0.05234,-0.02884,0.01114,-0.02045
5.271,-0.00229,-0.03998,-0.03265,-0.00641,-0.03876,-0.01831,-0.01389,-0.00168,-0.01495,-0.01373,-0.01785,0.01312,0.02914,-0.0325,0.01434,-0.02167
5.2715,-0.00259,-0.03998,-0.03296,-0.00626,-0.03998,-0.01694,-0.01312,-0.00427,-0.01587,-0.0145,0.01083,0.01572,-0.02731,-0.03448,-0.00031,-0.02304
5.272,-0.00198,-0.03998,-0.03036,-0.00717,-0.03891,-0.0174,-0.01236,-0.00793,-0.01678,-0.01648,0.03311,0.01862,-0.08942,-0.03235,-0.02411,-0.02319
5.2725,-0.00183,-0.03906,-0.02808,-0.00916,-0.03632,-0.02045,-0.01328,-0.01022,-0.01709,-0.01678,0.04883,0.02365,-0.13168,-0.02563,-0.04562,-0.02167
5.273,-0.0029,-0.04013,-0.02823,-0.01022,-0.03204,-0.02792,-0.01419,-0.01053,-0.01617,-0.01663,0.06104,0.02945,-0.14282,-0.01968,-0.05096,-0.0206
5.2735,-0.00351,-0.04196,-0.02945,-0.01083,-0.03159,-0.03555,-0.01434,-0.01083,-0.01495,-0.01694,0.07248,0.0354,-0.1297,-0.01648,-0.0444,-0.01968
5.274,-0.0032,-0.04288,-0.03296,-0.0116,-0.03342,-0.0412,-0.01312,-0.01068,-0.01419,-0.01678,0.08087,0.03754,-0.10635,-0.01831,-0.03433,-0.02151
5.2745,-0.00275,-0.0412,-0.03433,-0.01144,-0.03662,-0.04105,-0.01144,-0.00732,-0.01389,-0.01663,0.08347,0.03601,-0.07843,-0.02136,-0.02579,-0.0264
5.275,-0.00336,-0.03937,-0.03311,-0.01144,-0.0412,-0.03769,-0.01083,-0.0058,-0.01389,-0.01617,0.07843,0.03128,-0.04562,-0.02258,-0.01312,-0.02914
5.2755,-0.0061,-0.03937,-0.03113,-0.01236,-0.04486,-0.03601,-0.01068,-0.00534,-0.01373,-0.01602,0.06592,0.02563,-0.01358,-0.02045,0.01404,-0.02869
5.276,-0.00839,-0.04059,-0.03174,-0.01328,-0.04562,-0.03693,-0.01144,-0.00381,-0.01282,-0.01587,0.04745,0.0206,0.00763,-0.01678,0.05463,-0.02899
5.2765,-0.01007,-0.04105,-0.03448,-0.01373,-0.0415,-0.03876,-0.01221,-0.0032,-0.01236,-0.01633,0.0267,0.01816,0.01282,-0.01404,0.09033,-0.03098
5.277,-0.01022,-0.04028,-0.03479,-0.01236,-0.03357,-0.0383,-0.01129,-0.00259,-0.01373,-0.01678,0.0058,0.01526,0.00748,-0.01251,0.09933,-0.03387
5.2775,-0.00931,-0.03952,-0.03387,-0.0116,-0.0264,-0.03754,-0.00977,-0.0032,-0.0148,-0.01862,-0.01572,0.01221,0.00031,-0.01038,0.07736,-0.03296
5.278,-0.00732,-0.04028,-0.0322,-0.01419,-0.02151,-0.03693,-0.0087,-0.00381,-0.01617,-0.01862,-0.03357,0.01068,-0.0061,-0.00839,0.04776,-0.02975
5.2785,-0.00565,-0.04135,-0.03204,-0.01694,-0.02014,-0.03525,-0.00702,-0.00336,-0.01663,-0.01724,-0.04242,0.01114,-0.01282,-0.00946,0.02594,-0.02884
5.279,-0.00519,-0.04242,-0.0351,-0.01602,-0.02228,-0.03616,-0.00748,-0.00244,-0.01678,-0.01755,-0.04272,0.01251,-0.02106,-0.01465,0.009,-0.03281
5.2795,-0.0061,-0.04059,-0.03525,-0.01343,-0.02457,-0.04028,-0.00916,-0.00168,-0.01709,-0.01862,-0.03967,0.01083,-0.02716,-0.02106,-0.00946,-0.03723
5.28,-0.00549,-0.03815,-0.03342,-0.01129,-0.02502,-0.0441,-0.01129,-0.00183,-0.01587,-0.01862,-0.03967,0.00824,-0.03174,-0.02518,-0.03006,-0.04776
5.2805,-0.00397,-0.03723,-0.03204,-0.01114,-0.02319,-0.05081,-0.01129,-0.00336,-0.01602,-0.01709,-0.04074,0.00671,-0.03601,-0.02655,-0.04456,-0.07706
5.281,-0.00244,-0.03922,-0.03082,-0.00992,-0.01923,-0.05264,-0.00931,-0.00473,-0.01511,-0.01587,-0.04257,0.00763,-0.03845,-0.02655,-0.0415,-0.12375
5.2815,-0.00229,-0.03998,-0.03082,-0.00931,-0.01328,-0.05249,-0.00778,-0.00626,-0.01495,-0.01495,-0.04547,0.01038,-0.03784,-0.02487,-0.02045,-0.15121
5.282,-0.00275,-0.03952,-0.03098,-0.00885,-0.00977,-0.04837,-0.00885,-0.00687,-0.01511,-0.01587,-0.04425,0.01266,-0.03586,-0.02243,0.00626,-0.12527
5.2825,-0.00153,-0.03922,-0.03098,-0.00977,-0.01007,-0.04242,-0.0119,-0.00534,-0.01602,-0.01694,-0.04105,0.01251,-0.03403,-0.02151,0.02762,-0.06027
5.283,-0.00107,-0.03906,-0.03143,-0.00946,-0.01465,-0.03937,-0.01389,-0.00275,-0.0177,-0.01801,-0.03067,0.01099,-0.03342,-0.02182,0.04501,-0.0058
5.2835,-0.00214,-0.0383,-0.03311,-0.00717,-0.02197,-0.04211,-0.01511,-0.00137,-0.01862,-0.01663,-0.01572,0.00885,-0.03281,-0.02197,0.06317,0.01053
5.284,-0.00305,-0.03754,-0.03342,-0.00519,-0.03143,-0.05051,-0.01587,-0.00168,-0.01862,-0.01465,0.00397,0.00778,-0.03342,-0.01999,0.08041,0.00305
5.2845,-0.0032,-0.0386,-0.03296,-0.00122,-0.04181,-0.05463,-0.01572,-0.00031,-0.01984,-0.01007,0.02106,0.00732,-0.03418,-0.01602,0.08636,-0.00687
5.285,-0.00107,-0.04028,-0.03448,0.00397,-0.05173,-0.05615,-0.01373,0.00229,-0.0209,-0.00534,0.02411,0.00626,-0.03265,-0.01175,0.08118,-0.01343
5.2855,-0.00061,-0.04089,-0.03525,0.0058,-0.05829,-0.05478,-0.0119,0.00275,-0.02289,-0.00473,0.01221,0.00656,-0.02899,-0.00961,0.06577,-0.02045
5.286,-0.00076,-0.04089,-0.03555,0.0032,-0.06195,-0.05356,-0.01297,0.00153,-0.02502,-0.00671,-0.009,0.00778,-0.02579,-0.0087,0.04089,-0.03021
5.2865,-0.00244,-0.04044,-0.03433,-0.00137,-0.06149,-0.04517,-0.0148,0.0,-0.02625,-0.00961,-0.02609,0.00854,-0.02502,-0.00946,0.01099,-0.03952
5.287,-0.00351,-0.04166,-0.03448,-0.00458,-0.05722,-0.03387,-0.01602,-0.00122,-0.02518,-0.01099,-0.03357,0.00748,-0.02487,-0.01114,-0.00977,-0.04471
5.2875,-0.00366,-0.04196,-0.03525,-0.0058,-0.04959,-0.02853,-0.01633,-0.00214,-0.02075,-0.01328,-0.03571,0.00443,-0.02228,-0.01297,-0.01801,-0.0444
5.288,-0.00275,-0.04166,-0.03662,-0.00702,-0.04044,-0.03235,-0.01617,-0.0029,-0.01556,-0.01694,-0.03403,0.00214,-0.02197,-0.01373,-0.01831,-0.04074
5.2885,-0.0032,-0.03998,-0.03815,-0.0087,-0.03052,-0.0444,-0.01465,-0.00336,-0.01251,-0.02136,-0.03098,0.00046,-0.02777,-0.01404,-0.01694,-0.03998
5.289,-0.00412,-0.03906,-0.03769,-0.00885,-0.02472,-0.05295,-0.01389,-0.00229,-0.01221,-0.0238,-0.02899,-0.00183,-0.04059,-0.01434,-0.01709,-0.04379
5.2895,-0.00443,-0.03983,-0.03647,-0.00763,-0.02411,-0.05692,-0.01221,-0.00153,-0.01221,-0.02457,-0.03265,-0.0029,-0.05341,-0.01465,-0.01801,-0.04883
5.29,-0.00458,-0.04074,-0.03433,-0.00381,-0.02686,-0.06424,-0.0116,-0.00229,-0.01129,-0.02411,-0.04593,-0.00046,-0.05966,-0.01511,-0.02151,-0.0499
5.2905,-0.0029,-0.04135,-0.03448,-0.00061,-0.03159,-0.07095,-0.01328,-0.0032,-0.00885,-0.02533,-0.06485,0.00336,-0.0592,-0.01831,-0.02106,-0.04684
5.291,-0.00092,-0.0415,-0.03448,0.00015,-0.03708,-0.06927,-0.01572,-0.00275,-0.00809,-0.02701,-0.08057,0.00687,-0.056,-0.02182,-0.0148,-0.04349
5.2915,0.00061,-0.03998,-0.03342,-0.00061,-0.04181,-0.05859,-0.01709,-0.00259,-0.00854,-0.02686,-0.08591,0.00732,-0.05066,-0.02548,-0.00488,-0.04395
5.292,0.00107,-0.03983,-0.03235,-0.00061,-0.04272,-0.05035,-0.01694,-0.00244,-0.00931,-0.02609,-0.0769,0.00519,-0.04501,-0.03006,0.00534,-0.04883
5.2925,0.00031,-0.04044,-0.03128,0.00015,-0.03952,-0.05234,-0.01511,-0.00229,-0.00931,-0.02563,-0.05905,0.00137,-0.03967,-0.03525,0.01389,-0.05478
5.293,-0.00046,-0.04135,-0.03189,0.00076,-0.03586,-0.06012,-0.01373,-0.00305,-0.00656,-0.02167,-0.03586,-0.00076,-0.03601,-0.03754,0.02121,-0.06149
5.2935,-0.00122,-0.04272,-0.03311,0.00183,-0.03479,-0.06897,-0.01328,-0.00366,-0.00366,-0.01633,-0.00687,-0.00198,-0.03311,-0.03403,0.02655,-0.07019
5.294,-0.00183,-0.04456,-0.0354,0.00366,-0.03769,-0.07477,-0.01389,-0.00549,-0.00107,-0.01205,0.01907,-0.00107,-0.0296,-0.0267,0.02716,-0.07782
5.2945,-0.00259,-0.04532,-0.03769,0.00717,-0.04089,-0.0766,-0.01419,-0.00702,0.00031,-0.00977,0.03754,0.00046,-0.02792,-0.01984,0.01968,-0.07858
5.295,-0.00427,-0.04395,-0.0354,0.01373,-0.0412,-0.07309,-0.0145,-0.00656,0.00137,-0.00778,0.04883,0.00137,-0.02716,-0.01953,0.00641,-0.07172
5.2955,-0.00443,-0.04303,-0.03311,0.02075,-0.0386,-0.06348,-0.0145,-0.00519,0.00046,-0.00717,0.05112,0.00122,-0.0264,-0.02289,-0.0061,-0.06653
5.296,-0.0032,-0.04379,-0.03189,0.01831,-0.03723,-0.05219,-0.0145,-0.00519,-0.00061,-0.00565,0.04913,0.00122,-0.02563,-0.02518,-0.01312,-0.06622
5.2965,-0.00153,-0.04501,-0.03235,0.00031,-0.03784,-0.04166,-0.01297,-0.00366,-0.00153,-0.00443,0.04028,0.00351,-0.02686,-0.02518,-0.01175,-0.06638
5.297,-0.00092,-0.04532,-0.03281,-0.02609,-0.03723,-0.03555,-0.01175,-0.00168,-0.00259,-0.00305,0.03113,0.00671,-0.03098,-0.02472,-0.00473,-0.06256
5.2975,-0.00107,-0.04486,-0.03296,-0.03906,-0.03387,-0.03174,-0.01083,-0.00137,-0.00549,-0.0032,0.02472,0.009,-0.03433,-0.02579,0.00305,-0.05783
5.298,-0.00137,-0.04364,-0.03372,-0.02777,-0.0267,-0.02701,-0.01068,-0.00351,-0.00946,-0.00259,0.02426,0.00809,-0.03494,-0.02731,0.01053,-0.0563
5.2985,-0.00092,-0.04303,-0.03387,-0.00595,-0.02151,-0.02182,-0.00977,-0.0061,-0.0119,-0.00137,0.02579,0.0061,-0.03479,-0.02823,0.0209,-0.05844
5.299,0.00137,-0.04242,-0.03448,0.00351,-0.01923,-0.02151,-0.009,-0.0058,-0.01282,0.00153,0.02258,0.0029,-0.03601,-0.02838,0.03647,-0.05997
5.2995,0.0032,-0.04349,-0.03387,-0.00305,-0.01801,-0.02487,-0.00992,-0.00336,-0.0119,0.00427,0.01724,-0.00153,-0.03738,-0.02655,0.04868,-0.05829
5.3,0.00259,-0.04578,-0.03311,-0.01648,-0.01663,-0.03433,-0.0116,-0.00137,-0.01297,0.00671,0.00992,-0.0058,-0.03998,-0.02548,0.04822,-0.05661
5.3005,-0.00031,-0.04639,-0.03403,-0.03494,-0.01419,-0.04654,-0.0116,0.0,-0.01526,0.00717,0.00244,-0.00824,-0.04227,-0.0267,0.03784,-0.05432
5.301,-0.0029,-0.0441,-0.03464,-0.05463,-0.00839,-0.05646,-0.01038,0.00168,-0.01678,0.00488,-0.00717,-0.00961,-0.04257,-0.02716,0.02914,-0.05478
5.3015,-0.00336,-0.04211,-0.03342,-0.07202,-0.00336,-0.06332,-0.009,0.00198,-0.01587,-0.00153,-0.01831,-0.01083,-0.0412,-0.02655,0.0267,-0.05814
5.302,-0.00229,-0.0415,-0.03174,-0.08041,-0.0061,-0.06577,-0.00931,0.00107,-0.01556,-0.01266,-0.0296,-0.01144,-0.03891,-0.02518,0.02563,-0.06256
5.3025,-0.00183,-0.04303,-0.03174,-0.08194,-0.02167,-0.06516,-0.00793,-0.00076,-0.01602,-0.02502,-0.04181,-0.00931,-0.0383,-0.02487,0.02289,-0.06393
5.303,0.00076,-0.04364,-0.03418,-0.08255,-0.04211,-0.06149,-0.00824,-0.00076,-0.01633,-0.03723,-0.05569,-0.0061,-0.0386,-0.02563,0.01434,-0.06134
5.3035,0.01251,-0.04272,-0.03693,-0.08362,-0.05737,-0.05829,-0.00748,0.00061,-0.01511,-0.04639,-0.06577,-0.00443,-0.03845,-0.02625,0.00076,-0.05783
5.304,0.03189,-0.04074,-0.03815,-0.07935,-0.05936,-0.05569,-0.00763,0.00137,-0.0119,-0.0502,-0.06821,-0.00534,-0.03708,-0.02701,-0.01511,-0.05753
5.3045,0.0444,-0.03967,-0.03723,-0.07126,-0.05386,-0.05463,-0.00702,0.00244,-0.0087,-0.0502,-0.05966,-0.00702,-0.03693,-0.0267,-0.02731,-0.05859
5.305,0.03983,-0.03845,-0.03845,-0.06073,-0.04974,-0.056,-0.00641,0.00244,-0.00534,-0.04471,-0.05249,-0.00748,-0.03693,-0.02426,-0.03082,-0.05783
5.3055,0.02686,-0.03769,-0.03784,-0.04074,-0.05463,-0.05569,-0.00595,0.00244,-0.00214,-0.03784,-0.05005,-0.00626,-0.0383,-0.02426,-0.0293,-0.05569
5.306,0.01907,-0.03876,-0.03845,0.00549,-0.06149,-0.0531,-0.00671,0.00244,0.00153,-0.03357,-0.04745,-0.00549,-0.03876,-0.02625,-0.02625,-0.05386
5.3065,0.01999,-0.04028,-0.03738,0.07263,-0.06226,-0.04807,-0.00809,0.00305,0.00244,-0.03372,-0.03738,-0.00641,-0.03784,-0.03036,-0.02228,-0.05234
5.307,0.0209,-0.0415,-0.03586,0.12299,-0.05478,-0.04211,-0.00763,0.00412,-0.00015,-0.03586,-0.01968,-0.00656,-0.03464,-0.03113,-0.01617,-0.05112
5.3075,0.01755,-0.0412,-0.03601,0.11749,-0.04578,-0.03799,-0.00702,0.00443,-0.00443,-0.03525,-0.00259,-0.00656,-0.0296,-0.0296,-0.01205,-0.05035
5.308,0.01175,-0.04074,-0.03647,0.05035,-0.04181,-0.03601,-0.00824,0.00336,-0.00778,-0.0322,0.00534,-0.0061,-0.02609,-0.02762,-0.01068,-0.05096
5.3085,0.00793,-0.0412,-0.03754,-0.03967,-0.04028,-0.03632,-0.01022,0.00107,-0.01053,-0.02731,0.00381,-0.00366,-0.02594,-0.02563,-0.01251,-0.05035
5.309,0.00595,-0.04242,-0.03616,-0.09491,-0.03967,-0.03952,-0.01099,-0.00046,-0.01312,-0.01953,-0.00458,0.00046,-0.02914,-0.02533,-0.01251,-0.04944
5.3095,0.00473,-0.04318,-0.03525,-0.08636,-0.0386,-0.04196,-0.01205,-0.00259,-0.01572,-0.01282,-0.01083,0.00275,-0.03235,-0.0267,-0.00244,-0.04868
5.31,0.00168,-0.04318,-0.03647,-0.03998,-0.03632,-0.04364,-0.01175,-0.00595,-0.01663,-0.009,-0.01404,0.00061,-0.03281,-0.02853,0.01755,-0.04837
5.3105,-0.00137,-0.04211,-0.03754,0.0,-0.03296,-0.04379,-0.01236,-0.00839,-0.01648,-0.00778,-0.01358,-0.00412,-0.03296,-0.03174,0.03372,-0.047
5.311,-0.00351,-0.04105,-0.03632,0.01572,-0.02762,-0.04227,-0.01038,-0.00732,-0.01297,-0.00641,-0.01328,-0.0087,-0.03448,-0.03433,0.03159,-0.04425
5.3115,-0.00397,-0.04028,-0.0354,0.03204,-0.02228,-0.04074,-0.00824,-0.00244,-0.00763,-0.0058,-0.01724,-0.00916,-0.03571,-0.03174,0.01892,-0.04135
5.312,-0.00565,-0.03998,-0.03448,0.08209,-0.02045,-0.04135,-0.00702,0.00168,-0.00198,-0.00778,-0.02197,-0.00565,-0.03662,-0.0206,0.00931,-0.04028
5.3125,-0.00748,-0.04028,-0.03372,0.16876,-0.02304,-0.04333,-0.00671,0.00198,0.00153,-0.01099,-0.02396,-0.00275,-0.03876,-0.00244,0.00916,-0.04272
5.313,-0.00839,-0.04059,-0.03296,0.24307,-0.02548,-0.04471,-0.00916,0.00015,0.00229,-0.01297,-0.01633,-0.00244,-0.04074,0.01404,0.01053,-0.04562
5.3135,-0.0087,-0.04028,-0.03296,0.24231,-0.02579,-0.04318,-0.01099,-0.00137,-0.00107,-0.01358,-0.00214,-0.0029,-0.04044,0.01663,0.01083,-0.04868
5.314,-0.00809,-0.03922,-0.03311,0.1561,-0.02518,-0.04089,-0.01251,-0.00137,-0.00626,-0.01663,0.01022,-0.00259,-0.03754,0.00244,0.01312,-0.04761
5.3145,-0.0087,-0.03922,-0.03342,0.04868,-0.02487,-0.03952,-0.01465,-0.00061,-0.01251,-0.02762,0.01068,-0.00244,-0.03448,-0.01556,0.02228,-0.04364
5.315,-0.01022,-0.03967,-0.03403,-0.01389,-0.02472,-0.04013,-0.01587,-0.00015,-0.01724,-0.047,-0.00641,-0.0029,-0.03113,-0.02213,0.02899,-0.04013
5.3155,-0.01221,-0.04135,-0.03479,-0.02777,-0.02563,-0.04135,-0.01633,-0.00168,-0.01999,-0.0647,-0.02808,-0.00214,-0.02945,-0.01663,0.02563,-0.03815
5.316,-0.0145,-0.04211,-0.03525,-0.03128,-0.02548,-0.04074,-0.01648,-0.00305,-0.02197,-0.06897,-0.04578,0.0,-0.02853,-0.01038,0.01328,-0.03738
5.3165,-0.01541,-0.04181,-0.03571,-0.05325,-0.02686,-0.03799,-0.01495,-0.0029,-0.0238,-0.05569,-0.04837,0.00427,-0.02731,-0.00946,-0.00076,-0.03677
5.317,-0.01602,-0.04196,-0.03662,-0.09293,-0.02792,-0.03677,-0.01236,-0.00046,-0.02792,-0.03479,-0.04852,0.00916,-0.02686,-0.01266,-0.00946,-0.04044
5.3175,-0.01633,-0.0415,-0.03769,-0.13596,-0.02777,-0.03601,-0.01022,0.00183,-0.03555,-0.0148,-0.05081,0.01083,-0.02747,-0.01419,-0.01312,-0.04486
5.318,-0.01801,-0.04105,-0.03693,-0.16663,-0.02701,-0.03494,-0.00916,0.00305,-0.04456,0.0,-0.05463,0.009,-0.02899,-0.01495,-0.01053,-0.04532
5.3185,-0.01816,-0.0415,-0.03525,-0.17197,-0.02594,-0.03418,-0.01175,0.0032,-0.05417,0.00916,-0.05737,0.00763,-0.03128,-0.01785,-0.00259,-0.04105
5.319,-0.01709,-0.04211,-0.03479,-0.1474,-0.02502,-0.03433,-0.01221,0.00244,-0.06012,0.01251,-0.05768,0.00839,-0.0322,-0.02167,0.00992,-0.0351
5.3195,-0.01572,-0.04242,-0.03601,-0.10345,-0.02411,-0.03647,-0.01175,0.00275,-0.0618,0.01144,-0.06027,0.00992,-0.03143,-0.02319,0.01968,-0.03036
5.32,-0.01572,-0.04166,-0.03632,-0.05722,-0.02274,-0.03876,-0.01022,0.00122,-0.05737,0.00793,-0.06454,0.01068,-0.02792,-0.02121,0.0206,-0.02563
5.3205,-0.01694,-0.04013,-0.03647,-0.02365,-0.02151,-0.04425,-0.01022,0.0,-0.04639,0.00595,-0.06134,0.0116,-0.02365,-0.01694,0.01511,-0.02289
5.321,-0.01694,-0.03937,-0.03616,-0.00839,-0.01984,-0.05356,-0.01144,-0.00214,-0.03021,0.00885,-0.04486,0.01343,-0.01968,-0.0119,0.01099,-0.02243
5.3215,-0.01694,-0.04074,-0.03571,-0.01419,-0.0209,-0.06271,-0.01343,-0.0032,-0.01251,0.01282,-0.01038,0.01465,-0.01633,-0.00595,0.01144,-0.02365
5.322,-0.01602,-0.04166,-0.03418,-0.02716,-0.02411,-0.0647,-0.01526,-0.00366,0.00076,0.01419,0.02594,0.01358,-0.0145,-0.00229,0.01282,-0.0238
5.3225,-0.01633,-0.04059,-0.03098,-0.0206,-0.02777,-0.05875,-0.01389,-0.00336,0.00702,0.0119,0.05035,0.01175,-0.01419,-0.00153,0.01465,-0.02106
5.323,-0.01663,-0.03952,-0.02792,0.00824,-0.02991,-0.0499,-0.01068,-0.00366,0.00793,0.00824,0.05356,0.01007,-0.01633,-0.00381,0.01648,-0.01816
5.3235,-0.01801,-0.03906,-0.02747,0.03387,-0.0296,-0.04501,-0.00916,-0.00473,0.00671,0.00183,0.03693,0.00839,-0.01877,-0.00595,0.01648,-0.01709
5.324,-0.01877,-0.03983,-0.02991,0.03632,-0.02914,-0.04532,-0.00824,-0.00458,0.00565,-0.00656,0.01282,0.00702,-0.0209,-0.00671,0.01572,-0.01877
5.3245,-0.01923,-0.03937,-0.03204,0.02792,-0.02899,-0.04623,-0.00809,-0.00488,0.00427,-0.0148,-0.01038,0.00641,-0.02121,-0.00366,0.01297,-0.02136
5.325,-0.01999,-0.03754,-0.03326,0.03525,-0.02838,-0.04715,-0.00839,-0.00504,0.00031,-0.0177,-0.01633,0.0061,-0.01984,0.00061,0.00961,-0.02304
5.3255,-0.02151,-0.03677,-0.03235,0.06088,-0.02853,-0.04715,-0.00839,-0.0058,-0.00656,-0.01907,-0.01602,0.00458,-0.01999,0.00168,0.00656,-0.02594
5.326,-0.02213,-0.03723,-0.03143,0.08484,-0.02808,-0.04791,-0.01022,-0.00595,-0.01404,-0.02121,-0.01602,0.00397,-0.02182,-0.00259,0.00488,-0.03296
5.3265,-0.02274,-0.0386,-0.0322,0.09125,-0.0267,-0.04822,-0.0119,-0.00534,-0.02029,-0.02762,-0.01801,0.00565,-0.02426,-0.00854,0.00793,-0.04196
5.327,-0.02396,-0.03967,-0.03372,0.07477,-0.02655,-0.047,-0.01312,-0.00549,-0.02533,-0.03235,-0.0177,0.00916,-0.02487,-0.0119,0.0116,-0.047
5.3275,-0.02441,-0.04074,-0.03479,0.03937,-0.02762,-0.04562,-0.01404,-0.00412,-0.03265,-0.03067,-0.01083,0.01114,-0.02609,-0.01099,0.01297,-0.0444
5.328,-0.02365,-0.0415,-0.03433,-0.00458,-0.02792,-0.04578,-0.01511,-0.00458,-0.04303,-0.02518,-0.00076,0.00977,-0.0267,-0.00839,0.01236,-0.03845
5.3285,-0.0209,-0.0412,-0.03555,-0.04456,-0.02533,-0.04837,-0.01678,-0.00488,-0.05096,-0.02106,0.009,0.00931,-0.02716,-0.00748,0.01358,-0.03525
5.329,-0.01785,-0.04135,-0.03204,-0.07019,-0.02274,-0.05005,-0.01907,-0.00595,-0.05096,-0.0206,0.01648,0.01175,-0.0264,-0.00916,0.01434,-0.03601
5.3295,-0.01648,-0.04257,-0.03174,-0.07431,-0.02167,-0.04974,-0.01968,-0.00473,-0.04303,-0.02365,0.02045,0.01572,-0.02441,-0.01068,0.01389,-0.0386
5.33,-0.01633,-0.04364,-0.03235,-0.05524,-0.02319,-0.04684,-0.01678,-0.00122,-0.03204,-0.0296,0.02136,0.0174,-0.02335,-0.01038,0.01175,-0.03983
5.3305,-0.01526,-0.04364,-0.03128,-0.02625,-0.02518,-0.04425,-0.01389,0.00198,-0.02151,-0.03555,0.01221,0.01617,-0.02411,-0.01007,0.00885,-0.03922
5.331,-0.01205,-0.04196,-0.03067,-0.00626,-0.02533,-0.04349,-0.0119,0.00244,-0.0145,-0.04166,-0.0029,0.01465,-0.02533,-0.00916,0.00641,-0.03647
5.3315,-0.01007,-0.03998,-0.03067,-0.00168,-0.02533,-0.04425,-0.01343,0.00015,-0.00992,-0.04547,-0.01999,0.01373,-0.02487,-0.00778,0.00702,-0.03311
5.332,-0.01144,-0.03937,-0.03204,-0.00534,-0.02609,-0.04425,-0.01678,-0.00229,-0.00671,-0.04486,-0.02762,0.01129,-0.02472,-0.00732,0.009,-0.03067
5.3325,-0.01343,-0.04013,-0.03326,-0.00977,-0.02655,-0.04395,-0.01801,-0.00305,-0.00397,-0.03937,-0.02411,0.00778,-0.02426,-0.00748,0.01068,-0.03159
5.333,-0.01419,-0.04135,-0.03372,-0.01419,-0.02731,-0.0444,-0.01801,-0.00259,-0.0029,-0.0322,-0.01236,0.00519,-0.02441,-0.00717,0.01175,-0.03433
5.3335,-0.01297,-0.04227,-0.03464,-0.01999,-0.02548,-0.04501,-0.01831,-0.00153,-0.00671,-0.02457,0.00229,0.00366,-0.02441,-0.0061,0.01022,-0.03632
5.334,-0.01358,-0.04318,-0.03571,-0.02502,-0.02579,-0.04608,-0.01938,-0.00137,-0.01266,-0.0206,0.01648,0.00122,-0.02518,-0.00595,0.00793,-0.03754
5.3345,-0.0148,-0.04425,-0.03662,-0.02808,-0.02594,-0.04745,-0.01831,-0.00244,-0.01785,-0.01709,0.02441,-0.00275,-0.02563,-0.00854,0.00687,-0.04105
5.335,-0.01541,-0.04608,-0.03601,-0.02686,-0.02747,-0.04791,-0.01678,-0.00488,-0.02045,-0.01312,0.01694,-0.00427,-0.02655,-0.01007,0.00565,-0.04318
5.3355,-0.01511,-0.04684,-0.03372,-0.02029,-0.02991,-0.04807,-0.01587,-0.00809,-0.02151,-0.00916,0.00366,-0.00381,-0.02777,-0.00992,0.00443,-0.04257
5.336,-0.01617,-0.04456,-0.03113,-0.00839,-0.03189,-0.04791,-0.0174,-0.00885,-0.02304,-0.0087,-0.00656,-0.0032,-0.02991,-0.00916,0.00229,-0.03922
5.3365,-0.01633,-0.04089,-0.03113,0.00137,-0.03204,-0.04837,-0.01846,-0.00732,-0.02747,-0.01282,-0.0087,-0.00351,-0.03143,-0.01083,0.00259,-0.03693
5.337,-0.01541,-0.03891,-0.03235,0.00092,-0.03082,-0.04974,-0.01816,-0.00305,-0.03189,-0.01846,-0.00824,-0.00366,-0.03235,-0.01389,0.00427,-0.03799
5.3375,-0.01343,-0.03876,-0.03311,-0.01419,-0.02975,-0.04959,-0.01801,-0.00015,-0.0325,-0.01923,-0.01114,-0.00244,-0.03189,-0.01526,0.00519,-0.03922
5.338,-0.01251,-0.03784,-0.03357,-0.04013,-0.02914,-0.04807,-0.01816,0.00183,-0.02899,-0.01663,-0.01526,0.0,-0.03189,-0.01556,0.00443,-0.03906
5.3385,-0.01358,-0.0351,-0.03387,-0.0737,-0.02914,-0.0473,-0.01877,0.00046,-0.02426,-0.01266,-0.01831,-0.00015,-0.03189,-0.01572,0.00549,-0.03769
5.339,-0.01389,-0.03143,-0.03296,-0.10956,-0.02869,-0.04684,-0.01999,-0.00076,-0.01999,-0.00885,-0.0206,-0.00259,-0.03235,-0.01709,0.01007,-0.03677
5.3395,-0.01312,-0.0296,-0.0325,-0.13306,-0.03036,-0.0473,-0.0209,-0.00183,-0.01694,-0.00458,-0.02243,-0.00534,-0.03128,-0.01877,0.01373,-0.03754
5.34,-0.01312,-0.02975,-0.03204,-0.12436,-0.03159,-0.04837,-0.02213,-0.00031,-0.01434,-0.00153,-0.02518,-0.00443,-0.03006,-0.01923,0.01419,-0.04044
5.3405,-0.0148,-0.03052,-0.0322,-0.07172,-0.03082,-0.04944,-0.02243,0.00305,-0.01373,0.00092,-0.02274,0.00015,-0.03067,-0.01816,0.00946,-0.0444
5.341,-0.01495,-0.03143,-0.03204,-0.00519,-0.03128,-0.04944,-0.02243,0.00458,-0.01328,0.00092,-0.01602,0.00473,-0.03296,-0.01678,0.00534,-0.04608
5.3415,-0.01419,-0.03204,-0.03265,0.0264,-0.03082,-0.04959,-0.02106,0.0032,-0.01099,-0.00137,-0.00778,0.00671,-0.03433,-0.01633,0.00656,-0.04776
5.342,-0.01434,-0.03235,-0.03342,0.00641,-0.03067,-0.0502,-0.02045,0.00122,-0.00687,-0.00458,-0.0029,0.00534,-0.03296,-0.01587,0.0087,-0.05005
5.3425,-0.01404,-0.03342,-0.03525,-0.03052,-0.03082,-0.05096,-0.0206,0.00137,-0.00458,-0.00763,-0.00183,0.00183,-0.03052,-0.0145,0.01007,-0.05295
5.343,-0.01312,-0.03525,-0.03647,-0.05127,-0.03143,-0.05188,-0.02014,0.00137,-0.00626,-0.00717,-0.00381,-0.00092,-0.03082,-0.01419,0.0119,-0.05203
5.3435,-0.01175,-0.03784,-0.03616,-0.04669,-0.03189,-0.05157,-0.01938,0.00214,-0.00427,0.0032,-0.00763,-0.0032,-0.03296,-0.01511,0.01175,-0.04807
5.344,-0.01053,-0.04089,-0.03448,-0.01495,-0.03372,-0.05005,-0.01923,0.0,0.00626,0.02594,-0.01144,-0.00244,-0.03494,-0.01678,0.01282,-0.04318
5.3445,-0.01022,-0.04288,-0.03387,0.04791,-0.03418,-0.04791,-0.01923,-0.00275,0.01892,0.05203,-0.01816,-0.00122,-0.03418,-0.01678,0.0116,-0.04028
5.345,-0.01083,-0.04471,-0.03357,0.12894,-0.03265,-0.04684,-0.02014,-0.00443,0.02579,0.06104,-0.02579,0.00107,-0.0325,-0.02106,0.0087,-0.04166
5.3455,-0.01114,-0.04593,-0.03387,0.18051,-0.03098,-0.04791,-0.01984,-0.00412,0.02518,0.04608,-0.03433,0.00168,-0.03265,-0.03006,0.00656,-0.04608
5.346,-0.01083,-0.04639,-0.03616,0.15427,-0.03143,-0.04898,-0.01923,-0.00305,0.02197,0.01099,-0.03601,0.00046,-0.03296,-0.03815,0.00519,-0.05142
5.3465,-0.01068,-0.04578,-0.03662,0.05356,-0.0325,-0.04959,-0.01816,-0.00061,0.01343,-0.01999,-0.0296,-0.00153,-0.03204,-0.03891,0.00534,-0.05325
5.347,-0.01083,-0.04807,-0.03647,-0.05112,-0.03098,-0.04974,-0.0177,0.00031,-0.00381,-0.03693,-0.02716,-0.00153,-0.03052,-0.03357,0.00687,-0.04761
5.3475,-0.01205,-0.05768,-0.03387,-0.08972,-0.03082,-0.04883,-0.01724,0.00061,-0.02655,-0.04715,-0.02975,0.00015,-0.02975,-0.02808,0.009,-0.04227
5.348,-0.01083,-0.0769,-0.03204,-0.06561,-0.02899,-0.04944,-0.01678,-0.00168,-0.0444,-0.05417,-0.04501,0.00168,-0.02975,-0.02563,0.01083,-0.04272
5.3485,-0.00809,-0.09567,-0.03235,-0.03448,-0.02869,-0.04929,-0.01663,-0.00275,-0.05341,-0.06195,-0.05814,0.00122,-0.02991,-0.02457,0.01358,-0.0473
5.349,-0.00458,-0.09995,-0.03448,-0.02731,-0.0293,-0.0502,-0.01816,-0.00092,-0.05554,-0.06958,-0.06668,0.00061,-0.03021,-0.02472,0.01495,-0.05112
5.3495,-0.00198,-0.08453,-0.03632,-0.02899,-0.03052,-0.05142,-0.01923,0.00092,-0.05585,-0.07751,-0.07278,0.00397,-0.03082,-0.02411,0.01694,-0.05234
5.35,0.0,-0.05951,-0.0354,-0.02518,-0.03021,-0.05051,-0.02029,0.00336,-0.05478,-0.08759,-0.07797,0.00839,-0.03021,-0.02182,0.01923,-0.05234
5.3505,0.0,-0.03983,-0.0325,-0.02121,-0.03021,-0.04868,-0.01968,0.00153,-0.0531,-0.09384,-0.08606,0.00763,-0.03036,-0.01984,0.01953,-0.05432
5.351,0.00015,-0.02884,-0.03098,-0.02411,-0.02991,-0.047,-0.01801,-0.00031,-0.05188,-0.09415,-0.09415,0.00153,-0.03143,-0.01999,0.01938,-0.05646
5.3515,0.00198,-0.0206,-0.03052,-0.03204,-0.03021,-0.04639,-0.01587,-0.00061,-0.05066,-0.08911,-0.09384,-0.00305,-0.03265,-0.02289,0.01617,-0.05524
5.352,0.00443,-0.00778,-0.02975,-0.0412,-0.03021,-0.04547,-0.01328,-0.00092,-0.04807,-0.08179,-0.08362,-0.00076,-0.03281,-0.02319,0.00992,-0.05005
5.3525,0.00473,0.00473,-0.02975,-0.0589,-0.02991,-0.04532,-0.01266,-0.00229,-0.04028,-0.07156,-0.06851,0.00519,-0.03204,-0.02136,-0.00092,-0.04517
5.353,0.00351,0.01038,-0.03113,-0.08972,-0.03036,-0.04501,-0.0119,-0.00275,-0.02914,-0.05447,-0.04959,0.00931,-0.03311,-0.01892,-0.01129,-0.04425
5.3535,0.00183,0.00595,-0.03372,-0.11887,-0.03067,-0.04471,-0.01175,-0.00214,-0.01923,-0.03647,-0.0267,0.009,-0.03326,-0.01907,-0.01175,-0.04578
5.354,0.00107,-0.00519,-0.03647,-0.11185,-0.03189,-0.04379,-0.01221,-0.00015,-0.01556,-0.02426,-0.00244,0.00488,-0.03113,-0.01923,-0.0058,-0.04562
5.3545,0.00244,-0.01678,-0.03738,-0.04837,-0.03235,-0.04456,-0.0148,0.00015,-0.01343,-0.01724,0.01587,0.00031,-0.02792,-0.0174,0.00412,-0.04593
5.355,0.00412,-0.02548,-0.03769,0.04379,-0.03265,-0.04807,-0.01831,-0.00397,-0.00946,-0.01617,0.02747,-0.00183,-0.02731,-0.01312,0.01266,-0.04639
5.3555,0.00473,-0.03082,-0.03693,0.09949,-0.0325,-0.0502,-0.02167,-0.00916,-0.00473,-0.01007,0.0354,-0.00031,-0.02869,-0.009,0.01923,-0.04745
5.356,0.00473,-0.03571,-0.03708,0.08041,-0.03281,-0.05005,-0.02289,-0.01114,-0.00229,-0.00336,0.04547,0.0,-0.02884,-0.00443,0.01846,-0.04776
5.3565,0.00519,-0.03983,-0.03723,0.01816,-0.03418,-0.04883,-0.02289,-0.01083,-0.00259,0.0,0.05798,-0.00443,-0.02884,-0.00214,0.01129,-0.04532
5.357,0.00641,-0.03952,-0.0354,-0.02258,-0.03357,-0.04959,-0.02304,-0.0061,-0.00336,-0.00381,0.06836,-0.01328,-0.02975,-0.00183,0.00183,-0.04272
5.3575,0.00626,-0.03525,-0.03418,-0.0174,-0.03189,-0.04944,-0.02075,-0.00305,-0.00397,-0.01236,0.07782,-0.01816,-0.03372,-0.00458,-0.00397,-0.04227
5.358,0.00565,-0.03235,-0.03479,0.00443,-0.03021,-0.04852,-0.0177,-0.00198,-0.00443,-0.01862,0.08469,-0.01663,-0.03815,-0.00641,-0.00412,-0.04288
5.3585,0.00504,-0.03403,-0.03571,-0.00198,-0.03036,-0.047,-0.01556,-0.00153,-0.00458,-0.01984,0.08423,-0.00961,-0.04105,-0.00854,0.00122,-0.04166
5.359,0.00519,-0.03967,-0.03601,-0.04105,-0.03098,-0.04639,-0.01587,0.00076,-0.00336,-0.01907,0.07568,-0.00046,-0.04181,-0.01556,0.00595,-0.0383
5.3595,0.00549,-0.0444,-0.03494,-0.08163,-0.03082,-0.04669,-0.01678,0.00183,-0.00244,-0.01907,0.06409,0.01114,-0.04257,-0.03067,0.00809,-0.03372
5.36,0.00656,-0.04807,-0.0325,-0.1001,-0.03006,-0.04593,-0.01602,0.00229,-0.00366,-0.02136,0.05219,0.02335,-0.04364,-0.04944,0.00946,-0.03036
5.3605,0.00748,-0.05188,-0.02991,-0.09933,-0.02991,-0.04532,-0.0148,0.00046,-0.00809,-0.02289,0.03677,0.0325,-0.04425,-0.05585,0.00961,-0.02975
5.361,0.00702,-0.05554,-0.03082,-0.0885,-0.03296,-0.04425,-0.01389,-0.00229,-0.01343,-0.02167,0.01816,0.03372,-0.04272,-0.04623,0.00946,-0.03159
5.3615,0.00595,-0.05722,-0.03235,-0.06348,-0.03403,-0.04395,-0.01328,-0.00168,-0.01526,-0.01968,0.00259,0.03082,-0.0412,-0.03159,0.00778,-0.03265
5.362,0.00397,-0.05859,-0.0322,-0.01816,-0.03281,-0.04425,-0.01358,-0.00153,-0.01343,-0.01556,-0.0087,0.0293,-0.04044,-0.02365,0.00671,-0.03128
5.3625,0.00229,-0.05814,-0.0322,0.04807,-0.03265,-0.04501,-0.01465,-0.00168,-0.01022,-0.00992,-0.01617,0.02884,-0.03967,-0.02136,0.00732,-0.02869
5.363,0.00076,-0.05539,-0.03265,0.1181,-0.0322,-0.04562,-0.01633,-0.00305,-0.00732,-0.00366,-0.0264,0.02655,-0.03799,-0.01938,0.00946,-0.02731
5.3635,-0.0032,-0.05173,-0.03601,0.1561,-0.03418,-0.04852,-0.01663,-0.00504,-0.0061,-0.00015,-0.03387,0.02457,-0.03601,-0.01755,0.009,-0.02991
5.364,-0.00778,-0.04974,-0.04028,0.13687,-0.03571,-0.04944,-0.01617,-0.00671,-0.00626,-0.00076,-0.03098,0.02472,-0.03464,-0.01678,0.00809,-0.03296
5.3645,-0.00961,-0.05524,-0.04044,0.07843,-0.03738,-0.04974,-0.01495,-0.00565,-0.00687,-0.00198,-0.02457,0.02319,-0.03418,-0.01831,0.00626,-0.03693
5.365,-0.00687,-0.06729,-0.03891,0.02579,-0.03799,-0.04944,-0.01434,-0.0058,-0.00732,-0.00244,-0.01999,0.01404,-0.03418,-0.01953,0.00412,-0.0386
5.3655,-0.00366,-0.07172,-0.03647,0.00748,-0.03601,-0.04974,-0.01297,-0.00534,-0.0061,-0.00244,-0.02136,0.00351,-0.03494,-0.01953,0.00397,-0.03906
5.366,-0.00214,-0.05707,-0.03479,0.01266,-0.03326,-0.04929,-0.01221,-0.00687,-0.00275,-0.0029,-0.02228,-0.00061,-0.03555,-0.01953,0.00519,-0.03799
5.3665,-0.00351,-0.02838,-0.03494,0.01587,-0.03418,-0.04745,-0.0119,-0.00778,-0.00122,-0.0029,-0.02289,0.00153,-0.03662,-0.01907,0.0061,-0.03571
5.367,-0.00519,-0.00488,-0.03418,0.0058,-0.03342,-0.04578,-0.01266,-0.00702,-0.00259,-0.00458,-0.02396,0.00366,-0.03784,-0.01953,0.009,-0.03464
5.3675,-0.00626,-0.00275,-0.03372,-0.00916,-0.03204,-0.04593,-0.01236,-0.00641,-0.00519,-0.00671,-0.02502,0.00259,-0.03815,-0.01923,0.01129,-0.03433
5.368,-0.00641,-0.0148,-0.03174,-0.01785,-0.03204,-0.04745,-0.01099,-0.00656,-0.00656,-0.00565,-0.02472,0.0,-0.03677,-0.01938,0.01312,-0.03342
5.3685,-0.00717,-0.0235,-0.03281,-0.02136,-0.03311,-0.04776,-0.00931,-0.00671,-0.00671,-0.00778,-0.02304,0.0,-0.0351,-0.01907,0.01389,-0.0322
5.369,-0.00534,-0.02533,-0.0351,-0.0235,-0.03448,-0.04639,-0.00931,-0.00504,-0.00671,-0.01068,-0.02228,0.00031,-0.0351,-0.01862,0.0119,-0.03403
5.3695,-0.00305,-0.02655,-0.03754,-0.02167,-0.03464,-0.04578,-0.00961,-0.00305,-0.00519,-0.01038,-0.01633,0.00092,-0.03601,-0.01877,0.0087,-0.03677
5.37,-0.00198,-0.03159,-0.03632,-0.00885,-0.03403,-0.04593,-0.01022,-0.00168,-0.00259,-0.00961,-0.01419,0.00198,-0.03555,-0.01862,0.00427,-0.03906
5.3705,-0.00259,-0.03693,-0.03418,0.01099,-0.03265,-0.04578,-0.01022,-0.00244,-0.00183,-0.00854,-0.01602,0.00214,-0.03479,-0.0174,0.00137,-0.03922
5.371,-0.00412,-0.03983,-0.03189,0.02228,-0.03128,-0.04532,-0.01144,-0.00275,-0.00305,-0.00641,-0.01678,0.00031,-0.03525,-0.01602,-0.00122,-0.03632
5.3715,-0.00488,-0.04105,-0.03204,0.0209,-0.03204,-0.04318,-0.01221,-0.00076,-0.00458,-0.00565,-0.01678,-0.00214,-0.03632,-0.01602,0.00015,-0.03265
5.372,-0.00565,-0.04227,-0.03387,0.00916,-0.03265,-0.04257,-0.00977,0.0,-0.00748,-0.0058,-0.01755,-0.00214,-0.03769,-0.01862,0.00427,-0.03174
5.3725,-0.00626,-0.04608,-0.03601,-0.01846,-0.03433,-0.0444,-0.0061,0.00015,-0.01022,-0.00748,-0.02182,-0.00046,-0.03769,-0.02014,0.00931,-0.03357
5.373,-0.00595,-0.0499,-0.0354,-0.0766,-0.03677,-0.04623,-0.00412,0.00046,-0.01144,-0.01007,-0.0264,-0.00031,-0.03754,-0.02121,0.01129,-0.03662
5.3735,-0.00504,-0.05157,-0.03311,-0.17151,-0.03845,-0.04593,-0.00473,0.00076,-0.01068,-0.00916,-0.02609,-0.00229,-0.03662,-0.0206,0.01205,-0.03769
5.374,-0.00229,-0.05081,-0.03052,-0.26917,-0.0386,-0.04395,-0.00656,0.00305,-0.01038,-0.01343,-0.02396,-0.00366,-0.03555,-0.01984,0.0119,-0.04028
5.3745,0.0,-0.04578,-0.02975,-0.28549,-0.03967,-0.04303,-0.00763,0.00351,-0.01068,-0.01312,-0.02258,-0.00275,-0.0354,-0.01846,0.01251,-0.04395
5.375,0.00076,-0.04166,-0.02991,-0.14511,-0.03937,-0.04364,-0.00839,0.00153,-0.01007,-0.0145,-0.02457,-0.00305,-0.03464,-0.01694,0.01266,-0.04807
5.3755,0.00031,-0.03952,-0.03098,0.11536,-0.03937,-0.0444,-0.00946,-0.00107,-0.00839,-0.01602,-0.02731,-0.00473,-0.03525,-0.01648,0.01083,-0.04837
5.376,-0.00168,-0.03937,-0.03204,0.32379,-0.0386,-0.04517,-0.009,-0.00214,-0.00763,-0.01617,-0.02853,-0.00717,-0.03555,-0.01709,0.00839,-0.04578
5.3765,-0.00275,-0.03967,-0.03265,0.33203,-0.03586,-0.04593,-0.00778,-0.00381,-0.00839,-0.01251,-0.02609,-0.00763,-0.03616,-0.01816,0.00687,-0.04196
5.377,-0.00351,-0.03998,-0.03357,0.17517,-0.03372,-0.047,-0.01053,-0.00504,-0.01099,-0.01221,-0.02213,-0.00641,-0.03632,-0.01907,0.00687,-0.04105
5.3775,-0.00458,-0.04044,-0.03387,0.01114,-0.02991,-0.04852,-0.0119,-0.00687,-0.01236,-0.01297,-0.01755,-0.00412,-0.03525,-0.01877,0.00809,-0.0415
5.378,-0.00488,-0.04272,-0.03204,-0.06638,-0.02853,-0.04929,-0.01221,-0.00809,-0.0119,-0.01312,-0.01541,-0.00305,-0.03387,-0.01678,0.00931,-0.04135
5.3785,-0.0058,-0.04501,-0.03067,-0.09476,-0.03067,-0.04852,-0.01221,-0.00717,-0.01175,-0.0119,-0.01343,-0.00381,-0.0325,-0.01373,0.01083,-0.04013
5.379,-0.00763,-0.04791,-0.03052,-0.14221,-0.03387,-0.04959,-0.01144,-0.00656,-0.01068,-0.01068,-0.00885,-0.00519,-0.03143,-0.01434,0.01114,-0.03799
5.3795,-0.00809,-0.05096,-0.03281,-0.20203,-0.03647,-0.05051,-0.00977,-0.00534,-0.0087,-0.0087,-0.00427,-0.00549,-0.03113,-0.01663,0.01099,-0.03616
5.38,-0.00748,-0.05356,-0.03281,-0.20554,-0.03754,-0.05005,-0.00763,-0.0032,-0.00717,-0.00732,-0.00153,-0.00641,-0.03159,-0.01862,0.01022,-0.03616
5.3805,-0.00809,-0.05386,-0.02914,-0.11215,-0.03677,-0.04868,-0.00626,-0.00076,-0.00732,-0.00626,-0.0029,-0.00778,-0.03296,-0.01846,0.01053,-0.03708
5.381,-0.01007,-0.05234,-0.02625,0.02914,-0.03525,-0.04593,-0.00748,0.0,-0.00854,-0.00595,-0.00214,-0.00824,-0.03418,-0.01755,0.0119,-0.03967
5.3815,-0.01053,-0.05051,-0.02609,0.12573,-0.03464,-0.04318,-0.00931,-0.00031,-0.00839,-0.00748,0.00275,-0.00626,-0.0351,-0.01694,0.01282,-0.0412
5.382,-0.00824,-0.0499,-0.02975,0.1387,-0.03418,-0.04089,-0.00946,-0.00153,-0.00839,-0.0119,0.00519,-0.00305,-0.03464,-0.01633,0.01358,-0.04059
5.3825,-0.00565,-0.04883,-0.03372,0.10056,-0.02884,-0.0383,-0.00763,-0.00259,-0.00763,-0.01541,-0.00061,-0.00244,-0.03296,-0.01556,0.0119,-0.0412
5.383,-0.00565,-0.04654,-0.03403,0.05615,-0.02899,-0.03799,-0.00534,-0.00412,-0.00778,-0.01678,-0.01221,-0.00412,-0.03159,-0.01495,0.01022,-0.04349
5.3835,-0.00656,-0.04456,-0.03372,0.02808,-0.03387,-0.04028,-0.00671,-0.00671,-0.00885,-0.01801,-0.02014,-0.00565,-0.0325,-0.0148,0.0116,-0.04562
5.384,-0.00687,-0.04288,-0.03281,0.02441,-0.03632,-0.04379,-0.01083,-0.0087,-0.01221,-0.02167,-0.02609,-0.00488,-0.0351,-0.01556,0.01892,-0.04517
5.3845,-0.00504,-0.04211,-0.03235,0.04471,-0.04044,-0.047,-0.01343,-0.00961,-0.01663,-0.02472,-0.03189,-0.00305,-0.03662,-0.01572,0.03479,-0.04318
5.385,-0.00275,-0.04211,-0.03235,0.0621,-0.03632,-0.04776,-0.01221,-0.00885,-0.02228,-0.0264,-0.04242,-0.0029,-0.03632,-0.01663,0.05173,-0.04227
5.3855,-0.00198,-0.04196,-0.03342,0.04745,-0.03128,-0.04776,-0.00961,-0.009,-0.02625,-0.02914,-0.05219,-0.00488,-0.03387,-0.01862,0.0589,-0.04257
5.386,-0.00168,-0.04089,-0.03403,0.00565,-0.02991,-0.04776,-0.01022,-0.00916,-0.02777,-0.0351,-0.05463,-0.00778,-0.0325,-0.01907,0.04822,-0.04288
5.3865,-0.00198,-0.03983,-0.03311,-0.0293,-0.03159,-0.04898,-0.01205,-0.0087,-0.02441,-0.0412,-0.05447,-0.00809,-0.03357,-0.01785,0.02609,-0.04303
5.387,-0.00214,-0.03754,-0.03189,-0.03769,-0.03235,-0.05051,-0.01358,-0.00793,-0.02029,-0.04181,-0.05249,-0.00717,-0.03403,-0.01419,0.00397,-0.04257
5.3875,-0.00336,-0.03616,-0.03189,-0.02716,-0.03098,-0.05066,-0.01343,-0.00748,-0.01648,-0.03632,-0.04791,-0.0061,-0.03342,-0.01053,-0.01297,-0.04257
5.388,-0.00397,-0.03525,-0.03372,-0.01297,-0.02991,-0.04959,-0.01343,-0.00595,-0.01343,-0.02823,-0.03723,-0.00504,-0.03143,-0.00778,-0.02609,-0.04333
5.3885,-0.00397,-0.0351,-0.03464,-0.00046,-0.03586,-0.04852,-0.01328,-0.00412,-0.01144,-0.02289,-0.01907,-0.00305,-0.02975,-0.00717,-0.03738,-0.04486
5.389,-0.00397,-0.03464,-0.03357,0.01312,-0.03464,-0.04837,-0.01175,-0.00183,-0.01007,-0.01999,0.00137,0.00107,-0.02975,-0.00656,-0.03891,-0.04639
5.3895,-0.0032,-0.03372,-0.03189,0.0322,-0.03525,-0.04822,-0.00931,-0.00183,-0.00793,-0.01831,0.01953,0.0058,-0.03052,-0.00778,-0.0264,-0.04547
5.39,-0.00168,-0.03326,-0.03128,0.05981,-0.03387,-0.04715,-0.00854,-0.00336,-0.00549,-0.01602,0.03113,0.0087,-0.03113,-0.00824,-0.00824,-0.04227
5.3905,-0.00046,-0.03387,-0.03235,0.08041,-0.03479,-0.04623,-0.00931,-0.00381,-0.00381,-0.01297,0.02762,0.00977,-0.03113,-0.01022,0.0029,-0.04074
5.391,-0.00168,-0.03525,-0.03403,0.07187,-0.03281,-0.04517,-0.01068,-0.00458,-0.00397,-0.01251,0.01282,0.00916,-0.03098,-0.01175,0.00397,-0.04166
5.3915,-0.00336,-0.03448,-0.03342,0.02808,-0.03052,-0.04532,-0.01053,-0.0029,-0.00443,-0.01404,-0.00549,0.00916,-0.02991,-0.01251,0.00244,-0.04242
5.392,-0.00519,-0.03326,-0.03357,-0.02563,-0.03113,-0.04639,-0.01007,-0.00046,-0.0058,-0.01755,-0.00977,0.01114,-0.02838,-0.01129,0.00397,-0.0441
5.3925,-0.00702,-0.03281,-0.03403,-0.05661,-0.02899,-0.04761,-0.00885,-0.00031,-0.00839,-0.02335,-0.00809,0.01129,-0.02762,-0.00793,0.00549,-0.04578
5.393,-0.01007,-0.03357,-0.0351,-0.05066,-0.03021,-0.04761,-0.00977,0.0,-0.0116,-0.02731,-0.00626,0.009,-0.02853,-0.00412,0.00671,-0.04578
5.3935,-0.01404,-0.03571,-0.0354,-0.02121,-0.03021,-0.04791,-0.01099,-0.00107,-0.01678,-0.02762,-0.00885,0.0058,-0.02945,-0.00275,0.00702,-0.04486
5.394,-0.01846,-0.03601,-0.03555,0.00916,-0.03143,-0.04807,-0.01175,-0.00214,-0.02304,-0.02228,-0.01434,0.00351,-0.03082,-0.00519,0.00854,-0.04257
5.3945,-0.02182,-0.03616,-0.03464,0.0296,-0.0325,-0.04852,-0.01129,-0.00214,-0.02762,-0.01556,-0.02136,0.00397,-0.03113,-0.00793,0.00885,-0.0412
5.395,-0.02121,-0.03494,-0.03342,0.03815,-0.0325,-0.0499,-0.01114,-0.00137,-0.02625,-0.0148,-0.03433,0.00504,-0.03067,-0.01114,0.00916,-0.04257
5.3955,-0.01724,-0.0351,-0.03311,0.03098,-0.03036,-0.05096,-0.01251,-0.00183,-0.02106,-0.01953,-0.05219,0.00595,-0.03052,-0.01328,0.009,-0.04547
5.396,-0.01236,-0.03601,-0.03143,0.00641,-0.03052,-0.05127,-0.01297,-0.00214,-0.01694,-0.02487,-0.06973,0.0061,-0.03189,-0.0145,0.00931,-0.04715
5.3965,-0.01022,-0.03799,-0.03235,-0.02274,-0.03021,-0.04974,-0.01221,-0.0029,-0.01602,-0.02808,-0.08301,0.00473,-0.03387,-0.01404,0.009,-0.04684
5.397,-0.01083,-0.03876,-0.03342,-0.03555,-0.03052,-0.04761,-0.0116,-0.00336,-0.01785,-0.0296,-0.08865,0.00259,-0.03418,-0.01389,0.00809,-0.04395
5.3975,-0.01175,-0.03815,-0.03464,-0.03067,-0.03067,-0.04639,-0.01144,-0.00443,-0.01892,-0.03113,-0.0853,-0.00107,-0.03281,-0.01572,0.00854,-0.04257
5.398,-0.00992,-0.03769,-0.03418,-0.03082,-0.03021,-0.04623,-0.01175,-0.00641,-0.01907,-0.03159,-0.06775,-0.00366,-0.03021,-0.01801,0.00992,-0.04318
5.3985,-0.0061,-0.03693,-0.03479,-0.05249,-0.03311,-0.04776,-0.0116,-0.00641,-0.01938,-0.02991,-0.03632,-0.00534,-0.02747,-0.01877,0.01038,-0.04745
5.399,-0.00305,-0.03586,-0.03403,-0.08514,-0.03723,-0.04898,-0.01083,-0.00626,-0.0206,-0.02655,0.01007,-0.00671,-0.0264,-0.01724,0.01038,-0.05081
5.3995,0.0,-0.03479,-0.03281,-0.10376,-0.03952,-0.04791,-0.01144,-0.0058,-0.02121,-0.02411,0.05722,-0.00778,-0.0267,-0.01648,0.01007,-0.05096
5.4,0.0032,-0.03418,-0.03159,-0.09811,-0.03632,-0.04623,-0.01144,-0.0058,-0.02045,-0.02213,0.08423,-0.01022,-0.02777,-0.01633,0.01007,-0.04852
5.4005,0.00427,-0.03616,-0.03113,-0.08148,-0.03143,-0.04547,-0.01236,-0.00549,-0.02045,-0.02014,0.08194,-0.01312,-0.02914,-0.01602,0.00931,-0.04593
5.401,0.00198,-0.03693,-0.03235,-0.0737,-0.02853,-0.04608,-0.01328,-0.00534,-0.0206,-0.0177,0.06104,-0.01419,-0.03082,-0.01602,0.00961,-0.04578
5.4015,-0.00015,-0.03601,-0.03281,-0.07568,-0.02838,-0.04684,-0.01358,-0.0061,-0.01968,-0.01587,0.0351,-0.01434,-0.03296,-0.01633,0.01114,-0.04684
5.402,-0.00031,-0.0351,-0.03387,-0.07401,-0.02899,-0.0473,-0.01297,-0.00595,-0.01572,-0.01572,0.01633,-0.01434,-0.03387,-0.01694,0.01358,-0.04807
5.4025,0.00336,-0.03616,-0.03586,-0.06683,-0.02716,-0.04761,-0.01312,-0.00732,-0.01236,-0.01709,0.00076,-0.0148,-0.03326,-0.01816,0.01297,-0.0473
5.403,0.0061,-0.03922,-0.03693,-0.06927,-0.02869,-0.04837,-0.01404,-0.00748,-0.00931,-0.0174,-0.01175,-0.01663,-0.03189,-0.01831,0.01099,-0.0444
5.4035,0.00443,-0.04135,-0.03571,-0.08224,-0.02975,-0.0502,-0.01495,-0.00687,-0.00977,-0.01801,-0.01617,-0.01724,-0.03082,-0.01877,0.00854,-0.04196
5.404,-0.00046,-0.04044,-0.03632,-0.06927,-0.02502,-0.05203,-0.01587,-0.00671,-0.01221,-0.01694,-0.01419,-0.01648,-0.03021,-0.01862,0.00793,-0.04105
5.4045,-0.00229,-0.03998,-0.03769,0.00137,-0.02441,-0.05157,-0.01678,-0.00641,-0.01633,-0.01587,-0.00809,-0.0148,-0.03098,-0.01923,0.00717,-0.04181
5.405,-0.00107,-0.04013,-0.0383,0.10422,-0.02579,-0.04974,-0.01846,-0.00473,-0.01999,-0.01678,-0.0061,-0.01297,-0.03204,-0.02121,0.00809,-0.04211
5.4055,0.00122,-0.04089,-0.03876,0.16174,-0.0264,-0.04837,-0.01938,-0.00214,-0.02243,-0.01892,-0.00916,-0.01038,-0.03189,-0.02289,0.00626,-0.04211
5.406,0.00046,-0.03952,-0.03815,0.11993,-0.02914,-0.04791,-0.01984,-0.00137,-0.02335,-0.02014,-0.01343,-0.00839,-0.03174,-0.02289,0.00656,-0.04227
5.4065,-0.00198,-0.03922,-0.03754,0.01129,-0.02716,-0.04807,-0.01816,-0.00275,-0.02487,-0.01999,-0.01556,-0.0058,-0.03143,-0.02243,0.00778,-0.04364
5.407,-0.00153,-0.04028,-0.03525,-0.07446,-0.02823,-0.04868,-0.01648,-0.00488,-0.02594,-0.02014,-0.01602,-0.00504,-0.03235,-0.02213,0.00931,-0.04547
5.4075,0.00229,-0.04166,-0.03281,-0.08545,-0.02762,-0.04974,-0.01785,-0.00549,-0.02701,-0.0206,-0.0177,-0.00687,-0.03464,-0.02213,0.00992,-0.04547
5.408,0.00671,-0.0412,-0.03189,-0.04257,-0.03204,-0.05005,-0.01846,-0.00549,-0.02792,-0.01938,-0.01862,-0.00717,-0.0354,-0.02289,0.01083,-0.04471
5.4085,0.00961,-0.04028,-0.03174,-0.00015,-0.02747,-0.04913,-0.01831,-0.00427,-0.02792,-0.01709,-0.01892,-0.00519,-0.03357,-0.02289,0.01099,-0.0441
5.409,0.009,-0.04059,-0.03296,0.01312,-0.02533,-0.04822,-0.01633,-0.00183,-0.02716,-0.01541,-0.0174,-0.00366,-0.0325,-0.02396,0.00946,-0.0441
5.4095,0.00763,-0.04074,-0.03357,-0.00092,-0.02655,-0.04776,-0.01419,0.00092,-0.02548,-0.01358,-0.01617,-0.00259,-0.03326,-0.02426,0.00931,-0.0444
5.41,0.00717,-0.04089,-0.03281,-0.03036,-0.02441,-0.04654,-0.01358,0.00183,-0.02411,-0.01205,-0.01465,-0.00168,-0.03464,-0.02289,0.01114,-0.04547
5.4105,0.00763,-0.04059,-0.03159,-0.0563,-0.02563,-0.04639,-0.01495,0.00137,-0.0238,-0.0119,-0.01389,-0.00229,-0.03418,-0.0209,0.01297,-0.04639
5.411,0.00732,-0.04059,-0.0322,-0.04929,-0.02945,-0.04593,-0.01678,-0.00031,-0.02365,-0.01221,-0.01541,-0.00458,-0.03342,-0.01999,0.01175,-0.04608
5.4115,0.00671,-0.04089,-0.03296,-0.00107,-0.0293,-0.04684,-0.01801,-0.00275,-0.02274,-0.01282,-0.01694,-0.00748,-0.03174,-0.02045,0.01007,-0.04517
5.412,0.00534,-0.04227,-0.03403,0.047,-0.0293,-0.04852,-0.01678,-0.00305,-0.02075,-0.01358,-0.01633,-0.00839,-0.03052,-0.02182,0.00961,-0.0441
5.4125,0.00214,-0.04028,-0.03616,0.04456,-0.03265,-0.0499,-0.01495,-0.0029,-0.01892,-0.01572,-0.01404,-0.00595,-0.0293,-0.02243,0.01007,-0.04486
5.413,-0.00122,-0.03845,-0.03601,-0.0029,-0.03799,-0.05035,-0.01328,-0.00412,-0.01602,-0.01785,-0.0119,-0.00137,-0.02914,-0.02213,0.00992,-0.04654
5.4135,-0.00488,-0.03784,-0.03601,-0.04379,-0.04211,-0.04944,-0.01312,-0.00595,-0.01282,-0.02029,-0.01343,0.00168,-0.03021,-0.02213,0.01022,-0.04684
5.414,-0.00793,-0.03937,-0.03647,-0.05051,-0.04074,-0.04883,-0.01282,-0.009,-0.00977,-0.02289,-0.01694,0.00153,-0.03128,-0.02243,0.00946,-0.04532
5.4145,-0.01022,-0.04028,-0.03723,-0.03738,-0.03555,-0.04684,-0.01144,-0.00946,-0.00687,-0.02472,-0.02213,-0.00076,-0.03159,-0.02289,0.00854,-0.04196
5.415,-0.01205,-0.04028,-0.03708,-0.02563,-0.03174,-0.04593,-0.01038,-0.00854,-0.00443,-0.02731,-0.02396,-0.00305,-0.03189,-0.02289,0.00702,-0.03891
5.4155,-0.01266,-0.04089,-0.03738,-0.02106,-0.03143,-0.04547,-0.01038,-0.00595,-0.0032,-0.0293,-0.02319,-0.00839,-0.03281,-0.02274,0.00687,-0.03799
5.416,-0.01312,-0.04211,-0.03754,-0.01968,-0.0293,-0.04501,-0.01038,-0.00504,-0.00671,-0.02731,-0.02182,-0.01465,-0.03311,-0.02289,0.00732,-0.03998
5.4165,-0.01236,-0.04272,-0.03632,-0.02075,-0.03036,-0.04562,-0.01114,-0.00519,-0.01434,-0.02457,-0.02243,-0.01953,-0.03281,-0.02289,0.00717,-0.04318
5.417,-0.0119,-0.04135,-0.0351,-0.02411,-0.03128,-0.04623,-0.01266,-0.00809,-0.0238,-0.02335,-0.0264,-0.02121,-0.0325,-0.02319,0.00717,-0.0444
5.4175,-0.01038,-0.03998,-0.03464,-0.02625,-0.02975,-0.04456,-0.0145,-0.01022,-0.03082,-0.02731,-0.03189,-0.02121,-0.03326,-0.02258,0.00763,-0.04379
5.418,-0.009,-0.04028,-0.03494,-0.02365,-0.02792,-0.04272,-0.01495,-0.01144,-0.03357,-0.04059,-0.03281,-0.02289,-0.03418,-0.02289,0.00885,-0.0412
5.4185,-0.00702,-0.04211,-0.03403,-0.01572,-0.03082,-0.04303,-0.01495,-0.01038,-0.0325,-0.0563,-0.02823,-0.02625,-0.03448,-0.0238,0.00885,-0.03922
5.419,-0.00595,-0.04379,-0.03098,-0.00946,-0.03479,-0.0444,-0.01419,-0.00793,-0.03098,-0.06363,-0.01694,-0.02823,-0.03326,-0.0238,0.00793,-0.0383
5.4195,-0.00549,-0.04272,-0.0293,-0.00778,-0.03021,-0.04395,-0.01328,-0.0058,-0.02991,-0.05478,-0.00366,-0.02716,-0.03067,-0.02304,0.00854,-0.0386
5.42,-0.00473,-0.04257,-0.02991,-0.00916,-0.0293,-0.04211,-0.01358,-0.00351,-0.02975,-0.0351,0.0087,-0.02457,-0.02808,-0.02304,0.009,-0.03906
5.4205,-0.00351,-0.04211,-0.03204,-0.01068,-0.02914,-0.04196,-0.01541,-0.00153,-0.02991,-0.01907,0.01328,-0.02121,-0.02823,-0.02441,0.00977,-0.03967
5.421,-0.00198,-0.0412,-0.03265,-0.00946,-0.02686,-0.04288,-0.01709,-0.00031,-0.02914,-0.00931,0.01099,-0.01801,-0.02975,-0.02441,0.01022,-0.03937
5.4215,-0.00107,-0.04028,-0.03143,-0.00702,-0.02731,-0.04395,-0.01755,0.00031,-0.02609,-0.00275,0.00656,-0.01587,-0.03128,-0.02274,0.01038,-0.0383
5.422,-0.00198,-0.04074,-0.03082,-0.00565,-0.03036,-0.04364,-0.01465,-0.00076,-0.02136,0.00153,0.00366,-0.01923,-0.03143,-0.02121,0.01022,-0.0383
5.4225,-0.00381,-0.0415,-0.03036,-0.00732,-0.02808,-0.04196,-0.01144,-0.00214,-0.01892,0.00214,0.00214,-0.02686,-0.03082,-0.02182,0.00931,-0.03754
5.423,-0.00534,-0.04196,-0.02975,-0.00946,-0.02106,-0.04135,-0.01099,-0.00366,-0.01907,0.00122,-0.00061,-0.03204,-0.03036,-0.02197,0.00809,-0.03555
5.4235,-0.00565,-0.04242,-0.02945,-0.0119,-0.0177,-0.04257,-0.0145,-0.00488,-0.01984,-0.00031,-0.00473,-0.03296,-0.0296,-0.0209,0.00809,-0.03525
5.424,-0.00488,-0.04318,-0.02914,-0.01419,-0.01404,-0.04471,-0.01587,-0.00549,-0.02029,-0.00412,-0.00885,-0.03082,-0.02899,-0.01801,0.0087,-0.03494
5.4245,-0.00534,-0.04196,-0.03052,-0.01465,-0.00885,-0.04852,-0.01465,-0.00626,-0.02121,-0.01068,-0.01114,-0.02991,-0.02731,-0.01633,0.01022,-0.03494
5.425,-0.00702,-0.04181,-0.03342,-0.01282,-0.00809,-0.05173,-0.01541,-0.00687,-0.02243,-0.01495,-0.01328,-0.02808,-0.02686,-0.01633,0.01038,-0.0351
5.4255,-0.00839,-0.04303,-0.0351,-0.01053,-0.00717,-0.05524,-0.01663,-0.00565,-0.02121,-0.01633,-0.01938,-0.02121,-0.02853,-0.01633,0.00946,-0.03433
5.426,-0.0087,-0.04623,-0.03586,-0.01511,-0.01022,-0.05997,-0.01862,-0.00397,-0.0174,-0.01572,-0.02823,-0.00763,-0.03006,-0.01587,0.00748,-0.03494
5.4265,-0.00824,-0.04761,-0.03632,-0.02884,-0.01801,-0.06226,-0.01846,-0.00336,-0.01083,-0.01144,-0.03662,0.009,-0.03036,-0.01434,0.00824,-0.03464
5.427,-0.00763,-0.0473,-0.03769,-0.04425,-0.02716,-0.05981,-0.01755,-0.00351,-0.00381,-0.01175,-0.04211,0.02457,-0.0293,-0.01328,0.00916,-0.03433
5.4275,-0.00702,-0.04608,-0.03815,-0.04745,-0.03693,-0.05539,-0.01709,-0.00366,0.00076,-0.01312,-0.0444,0.03372,-0.02945,-0.01373,0.00916,-0.03296
5.428,-0.00595,-0.04669,-0.03799,-0.03952,-0.04822,-0.05234,-0.01602,-0.00153,0.00275,-0.01373,-0.04257,0.03281,-0.03052,-0.0148,0.00793,-0.03204
5.4285,-0.00534,-0.04745,-0.03571,-0.03113,-0.05585,-0.05157,-0.01312,-0.00015,0.00198,-0.01266,-0.03677,0.02274,-0.03067,-0.01434,0.00854,-0.03265
5.429,-0.00488,-0.04669,-0.03372,-0.02792,-0.05356,-0.04822,-0.01129,-0.00107,-0.00061,-0.00931,-0.0293,0.01526,-0.02914,-0.01358,0.00977,-0.03479
5.4295,-0.00595,-0.04425,-0.03235,-0.02487,-0.04883,-0.04242,-0.01068,-0.0029,-0.00214,-0.00671,-0.0235,0.02502,-0.02716,-0.01373,0.01083,-0.03555
5.43,-0.0061,-0.04181,-0.03021,-0.01648,-0.04303,-0.03723,-0.01129,-0.00244,-0.00214,-0.00732,-0.01984,0.04715,-0.02716,-0.01602,0.00946,-0.03647
5.4305,-0.00443,-0.03952,-0.03021,-0.00626,-0.04425,-0.03647,-0.01099,-0.00168,-0.00122,-0.00854,-0.0177,0.0589,-0.02853,-0.01862,0.00778,-0.04059
5.431,-0.00046,-0.03983,-0.03128,-0.00122,-0.04318,-0.03922,-0.01221,-0.00137,-0.0032,-0.00809,-0.01755,0.04868,-0.02884,-0.01923,0.009,-0.0441
5.4315,0.00092,-0.04044,-0.03189,0.00534,-0.04196,-0.04166,-0.0145,-0.00305,-0.00595,-0.00565,-0.0174,0.02975,-0.02975,-0.01831,0.01053,-0.04333
5.432,0.00046,-0.04089,-0.03189,0.0209,-0.03738,-0.04318,-0.01663,-0.00412,-0.00732,-0.00229,-0.01801,0.01968,-0.03052,-0.0174,0.01083,-0.03799
5.4325,-0.00122,-0.04135,-0.03067,0.03983,-0.03296,-0.04501,-0.01648,-0.00381,-0.00748,-0.00061,-0.01785,0.01892,-0.03067,-0.01846,0.00885,-0.03296
5.433,-0.00336,-0.04089,-0.03067,0.04181,-0.03006,-0.04745,-0.01526,-0.0032,-0.00977,-0.00229,-0.01617,0.01907,-0.03098,-0.01999,0.00809,-0.03311
5.4335,-0.00748,-0.03998,-0.03052,0.02579,-0.02869,-0.04807,-0.01282,-0.0029,-0.01083,-0.00565,-0.01175,0.01617,-0.03052,-0.02167,0.00824,-0.03494
5.434,-0.01144,-0.03906,-0.02945,0.01724,-0.03098,-0.04608,-0.01343,-0.00305,-0.01022,-0.00839,-0.00519,0.01373,-0.03098,-0.02228,0.00977,-0.03693
5.4345,-0.0148,-0.03967,-0.02975,0.03067,-0.03281,-0.04379,-0.01511,-0.00229,-0.00793,-0.01114,0.00183,0.01373,-0.03021,-0.0209,0.01099,-0.03815
5.435,-0.01511,-0.04181,-0.02914,0.04059,-0.03326,-0.04349,-0.01663,-0.00107,-0.00626,-0.01144,0.00275,0.01373,-0.02914,-0.01862,0.01114,-0.03906
5.4355,-0.01495,-0.04349,-0.02853,0.02243,-0.03098,-0.04562,-0.01663,-0.00076,-0.00595,-0.01114,-0.00656,0.01343,-0.02945,-0.01785,0.01022,-0.04013
5.436,-0.01556,-0.04501,-0.02914,0.00137,-0.03326,-0.04623,-0.01648,-0.00137,-0.00549,-0.01282,-0.02045,0.01221,-0.03067,-0.01984,0.00977,-0.03998
5.4365,-0.01633,-0.04532,-0.03021,0.0061,-0.03326,-0.04517,-0.01831,-0.00336,-0.00626,-0.01709,-0.03235,0.01205,-0.03265,-0.02365,0.01007,-0.04044
5.437,-0.01694,-0.04501,-0.03174,0.01694,-0.03036,-0.04456,-0.01938,-0.00458,-0.0087,-0.02106,-0.04028,0.01221,-0.03387,-0.02716,0.01175,-0.04044
5.4375,-0.01633,-0.0444,-0.0322,0.00458,-0.03021,-0.04425,-0.01923,-0.00458,-0.01129,-0.02197,-0.04745,0.00992,-0.03525,-0.02823,0.01297,-0.0412
5.438,-0.0145,-0.04425,-0.03204,-0.02472,-0.02945,-0.0444,-0.01709,-0.00412,-0.01282,-0.02151,-0.06058,0.00443,-0.03433,-0.02853,0.01144,-0.04181
5.4385,-0.01312,-0.0444,-0.03326,-0.04791,-0.03052,-0.04623,-0.01404,-0.00412,-0.01312,-0.01862,-0.07645,0.00076,-0.03433,-0.02853,0.00793,-0.04166
5.439,-0.01343,-0.0444,-0.03571,-0.06134,-0.03296,-0.0502,-0.01404,-0.00519,-0.01022,-0.01602,-0.08926,-0.00076,-0.03281,-0.02716,0.0061,-0.04105
5.4395,-0.01419,-0.04379,-0.03723,-0.07172,-0.03616,-0.05463,-0.01663,-0.00549,-0.0061,-0.01495,-0.09109,-0.00092,-0.03235,-0.02335,0.00671,-0.04059
5.44,-0.01297,-0.04135,-0.03555,-0.07431,-0.03937,-0.056,-0.01892,-0.00504,-0.00092,-0.01663,-0.07309,-0.00214,-0.03265,-0.01999,0.00732,-0.03815
5.4405,-0.00946,-0.03998,-0.03281,-0.06119,-0.04074,-0.0502,-0.01892,-0.00473,0.00443,-0.01877,-0.0351,-0.00473,-0.03296,-0.01923,0.00732,-0.03647
5.441,-0.00656,-0.04013,-0.03174,-0.03342,-0.03876,-0.04242,-0.01831,-0.00351,0.00763,-0.0209,0.00854,-0.00626,-0.03189,-0.01953,0.00641,-0.03677
5.4415,-0.00549,-0.04089,-0.03204,0.00519,-0.03113,-0.03937,-0.01831,-0.00107,0.00946,-0.02029,0.04791,-0.00443,-0.03159,-0.01999,0.00717,-0.03815
5.442,-0.00427,-0.04135,-0.03326,0.04303,-0.01999,-0.04425,-0.01801,0.00107,0.00885,-0.01785,0.07523,0.00229,-0.03174,-0.01953,0.00778,-0.03922
5.4425,-0.0029,-0.03906,-0.03235,0.0528,-0.01678,-0.04959,-0.01709,0.00259,0.00671,-0.01617,0.08804,0.0119,-0.03204,-0.01953,0.00885,-0.03891
5.443,-0.00076,-0.03723,-0.03143,0.02136,-0.02411,-0.05127,-0.01541,0.00381,0.00351,-0.01343,0.08728,0.02167,-0.03159,-0.01923,0.00992,-0.03891
5.4435,0.00015,-0.03738,-0.03235,-0.01022,-0.03418,-0.05005,-0.01709,0.00427,-0.00122,-0.01022,0.07233,0.03052,-0.03113,-0.01999,0.01068,-0.04105
5.444,-0.00031,-0.03876,-0.03387,0.01556,-0.03571,-0.0473,-0.01816,0.00427,-0.00763,-0.0087,0.05005,0.03464,-0.03036,-0.02014,0.01099,-0.0444
5.4445,-0.00137,-0.03922,-0.03387,0.08713,-0.03098,-0.04837,-0.01938,0.00259,-0.01328,-0.01266,0.02884,0.03479,-0.03082,-0.02014,0.0116,-0.04547
5.445,-0.00168,-0.0386,-0.03357,0.12573,-0.02655,-0.04898,-0.01862,-0.00031,-0.01541,-0.01938,0.01297,0.0322,-0.03174,-0.01953,0.00854,-0.04471
5.4455,-0.00153,-0.03723,-0.03555,0.08896,-0.02563,-0.04898,-0.01801,-0.0029,-0.01328,-0.02731,0.00412,0.03021,-0.03159,-0.01785,0.00687,-0.04379
5.446,-0.00168,-0.03799,-0.03738,0.00656,-0.02686,-0.05081,-0.01801,-0.00473,-0.01022,-0.03113,0.00183,0.0267,-0.03174,-0.01678,0.00504,-0.04578
5.4465,-0.00092,-0.03967,-0.03876,-0.0531,-0.02563,-0.05341,-0.01831,-0.00641,-0.00854,-0.03326,0.00488,0.0209,-0.03326,-0.0177,0.00488,-0.04623
5.447,0.00076,-0.04074,-0.03967,-0.04852,-0.02838,-0.05478,-0.01755,-0.00961,-0.00931,-0.03204,0.00473,0.01495,-0.03601,-0.01846,0.00504,-0.04532
5.4475,0.00275,-0.04044,-0.03784,0.01068,-0.02899,-0.05112,-0.01816,-0.01404,-0.01099,-0.03204,-0.00336,0.01022,-0.03677,-0.02014,0.00519,-0.04395
5.448,0.00443,-0.03845,-0.03723,0.07431,-0.03113,-0.04684,-0.02029,-0.01785,-0.01328,-0.0296,-0.01923,0.0058,-0.03586,-0.0209,0.00671,-0.04333
5.4485,0.00336,-0.03784,-0.03632,0.08545,-0.0293,-0.04425,-0.02228,-0.01755,-0.01633,-0.02548,-0.0322,0.00183,-0.03479,-0.02213,0.00809,-0.04318
5.449,0.00305,-0.03937,-0.03632,0.04517,-0.02701,-0.0473,-0.02274,-0.0145,-0.01892,-0.02121,-0.0383,0.00076,-0.03616,-0.02228,0.00854,-0.04318
5.4495,0.00168,-0.03983,-0.03601,-0.0032,-0.02853,-0.05203,-0.01999,-0.00992,-0.01968,-0.0174,-0.03952,0.00214,-0.03571,-0.02106,0.01007,-0.04166
5.45,0.00107,-0.03876,-0.03448,-0.02884,-0.02777,-0.05402,-0.01633,-0.00671,-0.02075,-0.01419,-0.03906,0.00504,-0.03296,-0.01999,0.01022,-0.03983
5.4505,0.00046,-0.03952,-0.03357,-0.03143,-0.03006,-0.05402,-0.01404,-0.0061,-0.02228,-0.0119,-0.04303,0.00641,-0.02975,-0.01892,0.00885,-0.03799
5.451,0.00061,-0.03967,-0.03326,-0.01511,-0.02899,-0.05646,-0.01495,-0.00626,-0.0238,-0.0119,-0.05173,0.00717,-0.02991,-0.01801,0.00763,-0.0386
5.4515,0.00015,-0.0386,-0.03418,0.01068,-0.03113,-0.06012,-0.01709,-0.00641,-0.02579,-0.01343,-0.05829,0.00763,-0.03204,-0.01724,0.00748,-0.04135
5.452,0.0,-0.03693,-0.03677,0.02335,-0.0296,-0.05844,-0.01862,-0.00595,-0.02975,-0.01678,-0.06195,0.00793,-0.03433,-0.01724,0.00839,-0.04562
5.4525,0.00092,-0.03632,-0.03891,0.00443,-0.02945,-0.04852,-0.01923,-0.00519,-0.0351,-0.02045,-0.06058,0.00626,-0.0354,-0.01862,0.00839,-0.04807
5.453,0.00305,-0.03784,-0.03799,-0.0354,-0.02701,-0.03799,-0.02075,-0.00519,-0.03799,-0.02228,-0.05508,0.00549,-0.03479,-0.02014,0.009,-0.04715
5.4535,0.00504,-0.03967,-0.03616,-0.07767,-0.0267,-0.03448,-0.02213,-0.00595,-0.03693,-0.02197,-0.0412,0.00351,-0.03326,-0.02106,0.0087,-0.04562
5.454,0.00427,-0.03983,-0.03494,-0.11246,-0.0235,-0.03754,-0.02213,-0.0061,-0.03387,-0.0177,-0.01221,0.0,-0.0322,-0.01984,0.00793,-0.04379
5.4545,0.00137,-0.03983,-0.03571,-0.12924,-0.02426,-0.04471,-0.02151,-0.00549,-0.03098,-0.01205,0.01724,-0.00244,-0.03098,-0.01801,0.00793,-0.04242
5.455,-0.00061,-0.03906,-0.03708,-0.11368,-0.02487,-0.04929,-0.02075,-0.00488,-0.02548,-0.00656,0.03937,-0.00198,-0.03067,-0.0174,0.00839,-0.0415
5.4555,-0.00183,-0.03906,-0.03784,-0.07629,-0.02991,-0.04852,-0.02075,-0.00427,-0.0116,-0.00748,0.05539,0.00076,-0.03143,-0.0177,0.00931,-0.0415
5.456,-0.00214,-0.03876,-0.03754,-0.04593,-0.03326,-0.04608,-0.01999,-0.00275,0.0116,-0.00977,0.06836,0.00214,-0.03204,-0.01892,0.009,-0.04318
5.4565,-0.00275,-0.03891,-0.03601,-0.03891,-0.03433,-0.04639,-0.01938,-0.00076,0.0325,-0.0148,0.07874,0.00061,-0.03235,-0.01984,0.00916,-0.04532
5.457,-0.00137,-0.03876,-0.03448,-0.05066,-0.02991,-0.04929,-0.01877,0.00061,0.04105,-0.0174,0.08057,-0.00275,-0.03159,-0.02121,0.00946,-0.04471
5.4575,0.0,-0.03983,-0.03281,-0.07126,-0.02975,-0.05142,-0.0177,0.0,0.03525,-0.01984,0.06516,-0.00549,-0.02975,-0.02151,0.00885,-0.04288
5.458,-0.00046,-0.04059,-0.03174,-0.09567,-0.03143,-0.04944,-0.0174,-0.00031,0.02121,-0.01984,0.0354,-0.00641,-0.0296,-0.02029,0.00732,-0.04105
5.4585,-0.00153,-0.0415,-0.03204,-0.10651,-0.03983,-0.04364,-0.0174,0.00061,0.00183,-0.01297,0.00275,-0.00641,-0.03113,-0.02029,0.00671,-0.04089
5.459,-0.00259,-0.04166,-0.03189,-0.07477,-0.04211,-0.03922,-0.01816,0.00244,-0.02029,0.00397,-0.02396,-0.00702,-0.03265,-0.02075,0.00717,-0.03937
5.4595,-0.00183,-0.04074,-0.03098,-0.00046,-0.03586,-0.03632,-0.01694,0.00198,-0.04379,0.01831,-0.03281,-0.00519,-0.03418,-0.02029,0.00778,-0.03769
5.46,-0.00076,-0.03967,-0.02975,0.06638,-0.02258,-0.03494,-0.01663,0.00153,-0.06088,0.01541,-0.03128,-0.00366,-0.03448,-0.02075,0.00824,-0.03693
5.4605,-0.00076,-0.03922,-0.03067,0.07767,-0.0116,-0.03632,-0.01617,0.00092,-0.06927,-0.00946,-0.03098,-0.00336,-0.03372,-0.02213,0.009,-0.0383
5.461,-0.00229,-0.03952,-0.03082,0.03754,-0.01038,-0.04288,-0.01648,0.00259,-0.06897,-0.03616,-0.03326,-0.00565,-0.03098,-0.02518,0.01114,-0.03952
5.4615,-0.00229,-0.03998,-0.03098,-0.00473,-0.01358,-0.05402,-0.01434,0.00504,-0.06454,-0.05005,-0.03555,-0.00702,-0.02975,-0.02533,0.01358,-0.04135
5.462,-0.00107,-0.03922,-0.03098,-0.00931,-0.01907,-0.06409,-0.01175,0.00549,-0.05905,-0.05295,-0.03662,-0.00748,-0.02884,-0.02319,0.01312,-0.04303
5.4625,0.00137,-0.03723,-0.03113,0.02563,-0.02029,-0.06943,-0.01053,0.00534,-0.05432,-0.05219,-0.03326,-0.00732,-0.02899,-0.02106,0.00931,-0.04486
5.463,0.00244,-0.03464,-0.03143,0.06958,-0.01801,-0.06897,-0.01282,0.00565,-0.05249,-0.05142,-0.02975,-0.00656,-0.02838,-0.02075,0.00504,-0.04562
5.4635,0.00107,-0.03342,-0.03159,0.07492,-0.01495,-0.06409,-0.01465,0.00565,-0.05051,-0.04974,-0.02411,-0.00641,-0.02823,-0.0209,0.00412,-0.04517
5.464,0.00015,-0.03494,-0.03311,0.02014,-0.01816,-0.05554,-0.01556,0.00549,-0.04486,-0.04379,-0.01785,-0.00488,-0.02762,-0.01968,0.00504,-0.0441
5.4645,0.00092,-0.03677,-0.03494,-0.05753,-0.03052,-0.04807,-0.01373,0.00488,-0.03342,-0.03922,-0.0119,-0.00397,-0.02838,-0.01755,0.00397,-0.04364
5.465,0.00366,-0.03754,-0.03693,-0.09338,-0.04608,-0.0441,-0.01312,0.00458,-0.02014,-0.03952,-0.01556,-0.0029,-0.02869,-0.01602,0.00137,-0.04349
5.4655,0.00549,-0.03693,-0.03754,-0.07172,-0.05875,-0.04379,-0.01266,0.00259,-0.01022,-0.0383,-0.02426,-0.00244,-0.03021,-0.01541,0.00168,-0.0441
5.466,0.00702,-0.03815,-0.03754,-0.03128,-0.06119,-0.04364,-0.01175,-0.00046,-0.00702,-0.03784,-0.02655,-0.00336,-0.03143,-0.01587,0.00641,-0.0444
5.4665,0.00885,-0.03937,-0.03601,-0.00534,-0.05615,-0.04105,-0.01114,-0.00275,-0.00793,-0.03387,-0.02213,-0.00381,-0.03281,-0.01663,0.01068,-0.04456
5.467,0.009,-0.03983,-0.03448,0.0,-0.04456,-0.03876,-0.01099,-0.00122,-0.00916,-0.02884,-0.02365,-0.00458,-0.03342,-0.01831,0.01343,-0.04456
5.4675,0.00992,-0.03922,-0.03494,-0.01617,-0.03326,-0.04196,-0.01068,0.00061,-0.01129,-0.02289,-0.02563,-0.00565,-0.03326,-0.0206,0.0145,-0.04379
5.468,0.01007,-0.04059,-0.03586,-0.04761,-0.02594,-0.04745,-0.01068,0.00168,-0.01358,-0.01877,-0.02686,-0.00824,-0.03235,-0.02243,0.01419,-0.04333
5.4685,0.00977,-0.04089,-0.03769,-0.07111,-0.02533,-0.04959,-0.00687,0.00092,-0.01556,-0.01755,-0.02747,-0.01022,-0.03067,-0.02304,0.01419,-0.04486
5.469,0.00916,-0.04059,-0.03845,-0.07324,-0.02701,-0.04456,-0.0032,-0.00305,-0.0177,-0.01984,-0.0296,-0.01099,-0.03006,-0.02304,0.01175,-0.04669
5.4695,0.00839,-0.03998,-0.0383,-0.06653,-0.02914,-0.03357,-0.00122,-0.00931,-0.01602,-0.02136,-0.03128,-0.01144,-0.03036,-0.02167,0.00854,-0.04868
5.47,0.00717,-0.03983,-0.03784,-0.07736,-0.02899,-0.02121,-0.00229,-0.01511,-0.01221,-0.02075,-0.03006,-0.01053,-0.03098,-0.01984,0.00717,-0.04913
5.4705,0.00565,-0.03952,-0.03754,-0.103,-0.03052,-0.01282,-0.00565,-0.01709,-0.00885,-0.01495,-0.02487,-0.01038,-0.03174,-0.01846,0.00763,-0.04745
5.471,0.00336,-0.03845,-0.03601,-0.10391,-0.03479,-0.01053,-0.00885,-0.0145,-0.00656,-0.01312,-0.02167,-0.0116,-0.03067,-0.0177,0.00732,-0.0444
5.4715,0.00275,-0.03754,-0.03464,-0.03708,-0.04089,-0.00778,-0.0119,-0.01068,-0.00595,-0.00961,-0.01923,-0.01312,-0.03098,-0.01801,0.00458,-0.0412
5.472,0.00443,-0.03937,-0.03265,0.09537,-0.04562,-0.00183,-0.01297,-0.00809,-0.00641,-0.01312,-0.01785,-0.01282,-0.03113,-0.01801,0.00076,-0.04013
5.4725,0.00763,-0.04166,-0.0322,0.21271,-0.04608,0.00015,-0.01266,-0.00702,-0.00641,-0.01328,-0.01556,-0.00931,-0.03036,-0.01678,-0.00092,-0.04089
5.473,0.00946,-0.04211,-0.03311,0.21408,-0.04364,-0.01205,-0.01328,-0.00748,-0.00702,-0.01007,-0.02045,-0.00381,-0.02975,-0.01511,0.00122,-0.03983
5.4735,0.00778,-0.04181,-0.03326,0.10025,-0.03891,-0.03952,-0.01526,-0.01038,-0.00732,-0.00473,-0.02777,0.00092,-0.02747,-0.01358,0.00458,-0.03998
5.474,0.00534,-0.04257,-0.03281,-0.01648,-0.0354,-0.07278,-0.01663,-0.01556,-0.00626,-0.00046,-0.04044,0.00381,-0.02579,-0.01389,0.00656,-0.04059
5.4745,0.00595,-0.04425,-0.03021,-0.04425,-0.03418,-0.10513,-0.0177,-0.02197,-0.0058,0.00336,-0.05539,0.00519,-0.02609,-0.01572,0.00824,-0.04318
5.475,0.00687,-0.04395,-0.02869,0.00259,-0.0351,-0.13245,-0.01678,-0.02853,-0.00702,0.00427,-0.06149,0.00549,-0.02853,-0.01923,0.00809,-0.04517
5.4755,0.00793,-0.04211,-0.02701,0.05783,-0.03632,-0.14404,-0.01678,-0.03204,-0.00839,0.00397,-0.06027,0.00397,-0.03143,-0.02136,0.00839,-0.04562
5.476,0.00748,-0.0412,-0.02563,0.10284,-0.03799,-0.12344,-0.01419,-0.02563,-0.00885,0.00076,-0.05112,0.0029,-0.03418,-0.02075,0.00717,-0.0444
5.4765,0.00687,-0.0412,-0.02579,0.15533,-0.0383,-0.0795,-0.01083,-0.00931,-0.00824,0.0,-0.03922,0.00183,-0.03662,-0.01923,0.00534,-0.04227
5.477,0.00549,-0.0415,-0.02747,0.20493,-0.03769,-0.04349,-0.00931,0.00702,-0.00809,0.00244,-0.02884,0.00076,-0.03815,-0.01907,0.00488,-0.04059
5.4775,0.00366,-0.04105,-0.03006,0.18768,-0.03708,-0.03235,-0.00931,0.00824,-0.00977,-0.00015,-0.01556,-0.00015,-0.03906,-0.02045,0.0058,-0.04013
5.478,0.00092,-0.04028,-0.03143,0.07187,-0.03403,-0.03403,-0.00793,-0.00137,-0.01205,-0.00488,-0.00351,-0.00183,-0.03799,-0.02075,0.00885,-0.04044
5.4785,-0.00229,-0.04028,-0.03159,-0.07782,-0.0325,-0.03448,-0.00198,-0.00763,-0.01282,-0.01389,0.0087,-0.0032,-0.03647,-0.0206,0.01373,-0.04089
5.479,-0.00412,-0.03906,-0.03281,-0.16342,-0.03174,-0.02914,0.00244,0.00122,-0.01068,-0.02258,0.02106,-0.00351,-0.03693,-0.02075,0.01892,-0.03952
5.4795,-0.00336,-0.03799,-0.03403,-0.15411,-0.0322,-0.02167,0.00336,0.01999,-0.00748,-0.02777,0.03418,-0.0032,-0.03723,-0.02014,0.02151,-0.03677
5.48,-0.00168,-0.03723,-0.0351,-0.09048,-0.03265,-0.01389,-0.00092,0.03204,-0.00488,-0.02762,0.04333,-0.00366,-0.03632,-0.01923,0.01999,-0.03464
5.4805,-0.0029,-0.03723,-0.03418,-0.01541,-0.03174,-0.01465,-0.00595,0.03418,-0.00381,-0.02533,0.03616,-0.00549,-0.03479,-0.01907,0.01678,-0.03296
5.481,-0.00473,-0.03723,-0.03296,0.04303,-0.03021,-0.02808,-0.00732,0.03601,-0.00381,-0.02869,0.02151,-0.00763,-0.03403,-0.01984,0.0145,-0.03052
5.4815,-0.00549,-0.03571,-0.03265,0.06027,-0.02792,-0.04333,-0.00793,0.04349,-0.00427,-0.03479,0.00931,-0.00671,-0.03387,-0.01999,0.01495,-0.03067
5.482,-0.00443,-0.03128,-0.03281,0.03067,-0.02563,-0.04379,-0.00854,0.04608,-0.00473,-0.04059,0.00885,-0.00366,-0.03372,-0.01892,0.01526,-0.03586
5.4825,-0.00397,-0.02686,-0.03448,-0.01923,-0.02441,-0.02975,-0.01312,0.03601,-0.00443,-0.03906,0.00656,-0.00092,-0.03265,-0.01694,0.01404,-0.04349
5.483,-0.00427,-0.02548,-0.03433,-0.05096,-0.02411,-0.01694,-0.01511,0.01724,-0.00183,-0.03204,-0.00214,-0.00168,-0.03098,-0.0148,0.01175,-0.04837
5.4835,-0.00534,-0.02716,-0.03235,-0.05524,-0.02396,-0.01572,-0.01816,0.00305,0.00076,-0.02518,-0.01587,-0.00366,-0.03036,-0.01297,0.00809,-0.04959
5.484,-0.00687,-0.03021,-0.0293,-0.04883,-0.02548,-0.0209,-0.0177,-0.00076,0.00031,-0.02289,-0.02228,-0.00549,-0.03098,-0.01251,0.0058,-0.04868
5.4845,-0.01175,-0.03296,-0.02609,-0.04852,-0.02655,-0.02869,-0.01526,0.00061,-0.00259,-0.02274,-0.0238,-0.00595,-0.03021,-0.01236,0.00504,-0.04639
5.485,-0.01694,-0.03464,-0.02396,-0.05524,-0.02838,-0.0386,-0.01328,0.00137,-0.00656,-0.02304,-0.02441,-0.00565,-0.02945,-0.01251,0.0061,-0.04349
5.4855,-0.01984,-0.0351,-0.02197,-0.06302,-0.02853,-0.04822,-0.01373,0.00198,-0.00931,-0.0209,-0.02686,-0.00443,-0.02884,-0.01251,0.00443,-0.04135
5.486,-0.01846,-0.03387,-0.02274,-0.06607,-0.02625,-0.05646,-0.01556,0.00183,-0.01038,-0.01938,-0.03418,-0.00244,-0.02975,-0.01328,0.0,-0.03983
5.4865,-0.01633,-0.03296,-0.02579,-0.06195,-0.0264,-0.06348,-0.01801,-0.00137,-0.01129,-0.01678,-0.03754,-0.00153,-0.03128,-0.01526,-0.00366,-0.03937
5.487,-0.01724,-0.03555,-0.02914,-0.05478,-0.02777,-0.07263,-0.02014,-0.00473,-0.01373,-0.01648,-0.03952,-0.00137,-0.03357,-0.01724,-0.00076,-0.0386
5.4875,-0.02121,-0.04013,-0.0325,-0.04593,-0.03006,-0.08209,-0.01968,-0.00381,-0.01816,-0.01434,-0.04242,0.00031,-0.03311,-0.01877,0.00519,-0.0386
5.488,-0.02518,-0.04379,-0.03601,-0.03387,-0.03052,-0.08453,-0.02014,0.0029,-0.02121,-0.01389,-0.04654,0.00336,-0.03189,-0.01877,0.00793,-0.03891
5.4885,-0.02716,-0.04608,-0.04303,-0.01678,-0.02762,-0.07172,-0.01862,0.00916,-0.02228,-0.01328,-0.05203,0.00412,-0.0325,-0.01953,0.00702,-0.03845
5.489,-0.02731,-0.04883,-0.05463,0.00031,-0.02396,-0.04227,-0.01877,0.00931,-0.02167,-0.01404,-0.05936,0.00336,-0.03387,-0.02045,0.00504,-0.03754
5.4895,-0.0267,-0.05325,-0.06958,0.01892,-0.02045,-0.00793,-0.01968,0.00122,-0.01999,-0.01434,-0.06851,0.00198,-0.03311,-0.0209,0.00549,-0.03738
5.49,-0.02548,-0.05783,-0.08591,0.04196,-0.01724,0.01312,-0.02106,-0.00763,-0.01968,-0.01328,-0.08316,0.00031,-0.03021,-0.01953,0.00671,-0.03754
5.4905,-0.02563,-0.06073,-0.103,0.04883,-0.01419,0.01358,-0.01999,-0.01007,-0.01938,-0.0119,-0.09323,-0.00031,-0.02853,-0.01862,0.00763,-0.03906
5.491,-0.02701,-0.06287,-0.11765,0.01114,-0.0119,-0.00015,-0.01968,-0.00931,-0.0209,-0.00977,-0.10071,-0.00061,-0.02945,-0.01892,0.00839,-0.03845
5.4915,-0.02853,-0.06348,-0.12436,-0.05798,-0.0116,-0.01953,-0.01907,-0.00885,-0.02106,-0.00854,-0.0914,0.00046,-0.03006,-0.01892,0.009,-0.03784
5.492,-0.02884,-0.06149,-0.11566,-0.10757,-0.01373,-0.04196,-0.01678,-0.00946,-0.01892,-0.00732,-0.06424,0.00168,-0.02975,-0.0177,0.00778,-0.03784
5.4925,-0.02838,-0.05981,-0.0882,-0.1088,-0.02151,-0.06775,-0.01678,-0.009,-0.0148,-0.00717,-0.0209,0.00153,-0.03006,-0.01694,0.00671,-0.04028
5.493,-0.02777,-0.06104,-0.04974,-0.08118,-0.03189,-0.09079,-0.01923,-0.00702,-0.01236,-0.00854,0.03113,0.00214,-0.03143,-0.01541,0.00641,-0.04257
5.4935,-0.02686,-0.06409,-0.01312,-0.05829,-0.03464,-0.10635,-0.02167,-0.0058,-0.0116,-0.00671,0.07431,0.00397,-0.0325,-0.01572,0.00641,-0.04272
5.494,-0.02396,-0.0647,0.01373,-0.04837,-0.02396,-0.11627,-0.0209,-0.00702,-0.01266,-0.00427,0.09125,0.00519,-0.03326,-0.01663,0.00641,-0.04211
5.4945,-0.01907,-0.06119,0.02686,-0.04059,-0.01007,-0.12436,-0.0174,-0.0087,-0.01343,-0.00229,0.08072,0.00443,-0.03418,-0.01648,0.00717,-0.04181
5.495,-0.01404,-0.05875,0.02869,-0.02731,-0.009,-0.12772,-0.01663,-0.00931,-0.01404,-0.00229,0.06332,0.00183,-0.03372,-0.01526,0.00854,-0.0412
5.4955,-0.01053,-0.056,0.02243,-0.00305,-0.01968,-0.11536,-0.01862,-0.00961,-0.01343,-0.00336,0.06134,0.00076,-0.03326,-0.0145,0.00916,-0.04074
5.496,-0.00931,-0.05402,0.01251,0.03586,-0.02991,-0.08179,-0.01953,-0.01022,-0.01251,-0.00488,0.07019,0.00046,-0.03204,-0.01419,0.00824,-0.04105
5.4965,-0.00809,-0.05249,0.00275,0.07675,-0.02899,-0.03876,-0.01831,-0.01099,-0.01312,-0.00534,0.06958,0.00031,-0.03174,-0.01328,0.00641,-0.04318
5.497,-0.00717,-0.05157,-0.00839,0.09048,-0.0209,-0.00671,-0.01663,-0.01007,-0.01434,-0.00748,0.05005,0.00092,-0.03159,-0.0119,0.00366,-0.04456
5.4975,-0.00687,-0.05127,-0.01724,0.06287,-0.01648,-0.00076,-0.01541,-0.01007,-0.01404,-0.01068,0.02533,0.00305,-0.03265,-0.01312,0.0,-0.0444
5.498,-0.00565,-0.05005,-0.02136,0.01816,-0.01663,-0.00977,-0.01328,-0.01099,-0.01221,-0.01465,0.00763,0.00626,-0.03189,-0.01633,-0.00488,-0.04166
5.4985,-0.00473,-0.04761,-0.02106,-0.00641,-0.01572,-0.02151,-0.01251,-0.01114,-0.01068,-0.0177,-0.00031,0.00641,-0.03204,-0.01968,-0.00656,-0.03952
5.499,-0.00519,-0.04471,-0.02121,-0.00412,-0.01465,-0.02808,-0.01373,-0.01144,-0.01068,-0.01572,-0.00656,0.00214,-0.03357,-0.02167,-0.00626,-0.03799
5.4995,-0.00504,-0.04227,-0.02304,0.00366,-0.02029,-0.0325,-0.01709,-0.01099,-0.01129,-0.01633,-0.00916,-0.00015,-0.03433,-0.0206,-0.00092,-0.03632
5.5,-0.00351,-0.04059,-0.02457,0.00534,-0.03632,-0.04135,-0.01892,-0.00992,-0.01221,-0.01816,-0.00839,0.00107,-0.0322,-0.01816,0.00748,-0.03387
5.5005,-0.00229,-0.03769,-0.02579,0.00443,-0.05524,-0.04913,-0.01678,-0.00977,-0.01373,-0.01938,-0.0087,0.00488,-0.03174,-0.01617,0.01816,-0.03128
5.501,-0.00168,-0.03494,-0.02594,0.00839,-0.06302,-0.04898,-0.01373,-0.00946,-0.01556,-0.02045,-0.01022,0.00626,-0.03281,-0.01602,0.02762,-0.03143
5.5015,-0.00153,-0.03403,-0.02655,0.01587,-0.05844,-0.0383,-0.01221,-0.00778,-0.01663,-0.01907,-0.01099,0.0058,-0.03418,-0.01617,0.0296,-0.03571
5.502,-0.00076,-0.03525,-0.02701,0.02258,-0.05356,-0.02686,-0.01083,-0.00519,-0.01724,-0.01907,-0.01083,0.00443,-0.03479,-0.01755,0.02335,-0.04364
5.5025,-0.00061,-0.03693,-0.02747,0.02304,-0.05768,-0.0325,-0.00824,-0.00381,-0.01831,-0.01999,-0.01038,0.00381,-0.03479,-0.01984,0.01236,-0.05066
5.503,-0.00076,-0.03723,-0.02884,0.01694,-0.06927,-0.06271,-0.00549,-0.00473,-0.01999,-0.02106,-0.01129,0.00412,-0.03448,-0.02045,0.00732,-0.05219
5.5035,-0.00076,-0.03616,-0.03204,0.00351,-0.08011,-0.1033,-0.00275,-0.00641,-0.02213,-0.02075,-0.01266,0.00626,-0.03433,-0.01923,0.00885,-0.04776
5.504,-0.00015,-0.03616,-0.0325,-0.01175,-0.07675,-0.12634,0.00015,-0.00595,-0.02197,-0.01709,-0.0148,0.00732,-0.03342,-0.01892,0.0119,-0.04333
5.5045,0.0,-0.03616,-0.03159,-0.0206,-0.05585,-0.11734,0.00229,-0.00275,-0.02121,-0.01572,-0.0145,0.00809,-0.03357,-0.01953,0.01297,-0.04166
5.505,-0.00076,-0.03601,-0.03052,-0.0235,-0.02716,-0.08865,0.00153,0.00534,-0.02045,-0.01465,-0.01343,0.00732,-0.03387,-0.02045,0.01236,-0.04196
5.5055,-0.00244,-0.03571,-0.03067,-0.02686,-0.00443,-0.06027,0.00275,0.01709,-0.0206,-0.01602,-0.01419,0.00687,-0.03494,-0.0209,0.01099,-0.04364
5.506,-0.00198,-0.0354,-0.03342,-0.03265,0.00427,-0.0412,0.00275,0.02838,-0.02136,-0.01846,-0.01709,0.00641,-0.03372,-0.02121,0.01129,-0.04532
5.5065,0.00076,-0.03418,-0.03571,-0.03571,0.00443,-0.03586,0.00137,0.03525,-0.02289,-0.01923,-0.02243,0.00626,-0.03326,-0.02136,0.01083,-0.04639
5.507,0.00244,-0.03281,-0.03632,-0.03189,0.00381,-0.04135,-0.00137,0.0354,-0.02701,-0.01587,-0.03021,0.00488,-0.03387,-0.02213,0.00992,-0.04532
5.5075,0.00259,-0.03342,-0.03662,-0.02365,0.00244,-0.04944,-0.009,0.02609,-0.03128,-0.01251,-0.03586,0.00351,-0.03616,-0.02243,0.00717,-0.04471
5.508,0.00137,-0.03387,-0.03586,-0.01999,-0.00671,-0.04898,-0.01389,0.01144,-0.03311,-0.01114,-0.03601,0.00427,-0.03754,-0.02197,0.00519,-0.04471
5.5085,0.00092,-0.0354,-0.03372,-0.02411,-0.02228,-0.04135,-0.0206,-0.0029,-0.03113,-0.01205,-0.0296,0.00641,-0.03647,-0.02075,0.00458,-0.0444
5.509,0.00153,-0.03616,-0.03265,-0.0383,-0.0354,-0.03326,-0.02655,-0.01495,-0.0293,-0.01617,-0.02274,0.00931,-0.03525,-0.01923,0.00565,-0.04456
5.5095,0.00229,-0.03418,-0.03098,-0.05829,-0.03754,-0.02625,-0.03281,-0.02945,-0.02853,-0.02289,-0.01862,0.01099,-0.03448,-0.01694,0.00763,-0.04562
5.51,0.00214,-0.03265,-0.02899,-0.07614,-0.03357,-0.02365,-0.03571,-0.05035,-0.0293,-0.02869,-0.02121,0.01205,-0.03342,-0.01526,0.01068,-0.04715
5.5105,0.00031,-0.0325,-0.02792,-0.08118,-0.02991,-0.02655,-0.03647,-0.0708,-0.02655,-0.02945,-0.02777,0.01373,-0.03281,-0.01465,0.01556,-0.04852
5.511,0.00046,-0.03448,-0.02914,-0.07523,-0.03021,-0.03387,-0.03342,-0.07858,-0.02151,-0.02502,-0.0325,0.01312,-0.03296,-0.01526,0.01694,-0.04929
5.5115,0.00168,-0.03479,-0.03098,-0.06546,-0.03052,-0.04211,-0.03036,-0.07126,-0.01587,-0.01785,-0.0351,0.00992,-0.03387,-0.01663,0.01434,-0.0499
5.512,0.00183,-0.03296,-0.03128,-0.04898,-0.03357,-0.0499,-0.02625,-0.0563,-0.01236,-0.01617,-0.03891,0.0061,-0.03387,-0.01633,0.00916,-0.05066
5.5125,-0.00198,-0.03143,-0.03098,-0.01266,-0.03784,-0.05234,-0.02182,-0.04013,-0.0119,-0.01968,-0.04898,0.00397,-0.03311,-0.0148,0.00626,-0.05035
5.513,-0.00717,-0.0322,-0.03204,0.04303,-0.04318,-0.04913,-0.01175,-0.02289,-0.01389,-0.02716,-0.06516,0.00443,-0.03204,-0.01328,0.00671,-0.04944
5.5135,-0.01007,-0.03326,-0.03448,0.09644,-0.04547,-0.03967,-0.00336,-0.00717,-0.01434,-0.03296,-0.08163,0.00381,-0.03372,-0.01343,0.00732,-0.047
5.514,-0.00961,-0.03479,-0.03616,0.11307,-0.04608,-0.0325,0.00198,0.00351,-0.00931,-0.03494,-0.08804,0.00305,-0.03601,-0.01419,0.00763,-0.04349
5.5145,-0.00748,-0.03479,-0.03677,0.08072,-0.04791,-0.02869,-0.00046,0.0058,-0.00259,-0.03403,-0.07568,0.00122,-0.03616,-0.01465,0.009,-0.04135
5.515,-0.00595,-0.03433,-0.03662,0.0264,-0.05005,-0.02838,-0.00549,0.0032,0.00381,-0.02808,-0.04074,-0.00183,-0.03586,-0.01541,0.01083,-0.03937
5.5155,-0.00626,-0.03403,-0.03708,0.00137,-0.05035,-0.03281,-0.01755,0.00015,0.00916,-0.01846,0.00565,-0.0061,-0.03571,-0.01587,0.01038,-0.03922
5.516,-0.00504,-0.03357,-0.03815,0.02625,-0.05005,-0.03525,-0.02686,-0.00168,0.01251,-0.00397,0.04501,-0.01083,-0.0351,-0.01526,0.00687,-0.03937
5.5165,-0.0032,-0.03433,-0.04059,0.0589,-0.05005,-0.03433,-0.03479,-0.00443,0.0119,0.00977,0.06424,-0.01358,-0.0325,-0.01373,0.00351,-0.03845
5.517,-0.00092,-0.03586,-0.04333,0.0296,-0.04883,-0.03235,-0.03754,-0.0087,0.00473,0.01389,0.06836,-0.01389,-0.03021,-0.01297,0.00214,-0.03693
5.5175,0.00076,-0.03708,-0.04608,-0.06256,-0.04684,-0.03296,-0.03586,-0.01266,-0.00412,0.00336,0.06454,-0.01389,-0.03021,-0.01297,0.0032,-0.03586
5.518,0.00214,-0.03738,-0.04623,-0.12283,-0.04379,-0.03494,-0.03052,-0.01419,-0.0119,-0.01816,0.05524,-0.01495,-0.03281,-0.01251,0.00671,-0.03448
5.5185,0.00244,-0.03738,-0.04456,-0.0737,-0.03891,-0.03677,-0.02167,-0.0119,-0.01755,-0.0354,0.04059,-0.01617,-0.03326,-0.0119,0.0119,-0.03479
5.519,0.00214,-0.03769,-0.04318,0.02884,-0.03372,-0.0354,-0.009,-0.00839,-0.02075,-0.0415,0.01999,-0.01785,-0.03174,-0.01205,0.01495,-0.03738
5.5195,0.00229,-0.03784,-0.04242,0.04959,-0.02869,-0.03525,0.0,-0.00824,-0.02029,-0.0386,-0.00015,-0.0174,-0.03021,-0.01312,0.01312,-0.04135
5.52,0.00259,-0.03784,-0.04135,-0.03464,-0.02411,-0.03525,-0.00595,-0.00961,-0.01801,-0.03494,-0.00961,-0.01602,-0.02914,-0.01343,0.00763,-0.04501
5.5205,0.0029,-0.03815,-0.04074,-0.11124,-0.02274,-0.03723,-0.02975,-0.00824,-0.01434,-0.03387,-0.00854,-0.01587,-0.02853,-0.01205,0.00458,-0.04425
5.521,0.00412,-0.03799,-0.03967,-0.09933,-0.02701,-0.0412,-0.0618,-0.00381,-0.01083,-0.03204,-0.0029,-0.01556,-0.02747,-0.009,0.0058,-0.04105
5.5215,0.00626,-0.03876,-0.03845,-0.03113,-0.03494,-0.04562,-0.0795,0.00214,-0.0087,-0.03006,0.00092,-0.01343,-0.02686,-0.00671,0.01114,-0.03845
5.522,0.00717,-0.03906,-0.03906,0.04089,-0.04074,-0.05035,-0.0798,0.00702,-0.00763,-0.02747,0.00137,-0.01038,-0.02731,-0.00626,0.01404,-0.03922
5.5225,0.00427,-0.04013,-0.03952,0.10559,-0.0415,-0.05142,-0.06302,0.0116,-0.00702,-0.02335,0.00305,-0.00641,-0.02731,-0.00656,0.01419,-0.0415
5.523,-0.00092,-0.04135,-0.03952,0.14374,-0.03815,-0.05188,-0.03311,0.01617,-0.00702,-0.01862,0.00549,-0.00443,-0.02563,-0.00793,0.01236,-0.04105
5.5235,-0.00549,-0.04257,-0.03769,0.12558,-0.03494,-0.05173,0.00076,0.01724,-0.00961,-0.01633,0.00778,-0.0061,-0.02441,-0.01068,0.01083,-0.03708
5.524,-0.00824,-0.04257,-0.03708,0.06241,-0.03632,-0.05264,0.03586,0.01358,-0.01266,-0.01785,0.00519,-0.00977,-0.0264,-0.0148,0.01068,-0.03052
5.5245,-0.009,-0.04242,-0.03662,0.00443,-0.03922,-0.05295,0.06592,0.00916,-0.01648,-0.01892,0.00092,-0.01419,-0.03082,-0.0177,0.01297,-0.02686
5.525,-0.00946,-0.04196,-0.03571,-0.0235,-0.04242,-0.05219,0.08621,0.00763,-0.02075,-0.01419,-0.00443,-0.01526,-0.03403,-0.01892,0.01511,-0.02731
5.5255,-0.00809,-0.04181,-0.03433,-0.03326,-0.04272,-0.04974,0.08698,0.009,-0.02441,-0.00763,-0.00977,-0.01266,-0.03418,-0.01831,0.01572,-0.03143
5.526,-0.00397,-0.04181,-0.03098,-0.04532,-0.04089,-0.04776,0.06699,0.00992,-0.02533,-0.01556,-0.01846,-0.00854,-0.0325,-0.01785,0.01556,-0.03662
5.5265,-0.00061,-0.0415,-0.02838,-0.07309,-0.03983,-0.04501,0.03586,0.00793,-0.0235,-0.04059,-0.03189,-0.00641,-0.03174,-0.01862,0.01724,-0.04181
5.527,-0.00031,-0.0412,-0.02777,-0.11429,-0.04013,-0.03922,0.01312,0.00595,-0.01938,-0.07034,-0.04257,-0.00473,-0.03235,-0.01801,0.02045,-0.04791
5.5275,-0.00229,-0.04105,-0.02975,-0.15137,-0.0383,-0.0322,0.00336,0.00626,-0.01572,-0.07584,-0.04547,-0.00153,-0.03235,-0.01648,0.02014,-0.05371
5.528,-0.00412,-0.04105,-0.02975,-0.16068,-0.0325,-0.02716,0.00061,0.00778,-0.01266,-0.07416,-0.04089,0.00214,-0.03113,-0.01465,0.0148,-0.05341
5.5285,-0.00366,-0.03998,-0.02777,-0.12131,-0.02441,-0.02777,-0.00031,0.00717,-0.01022,-0.06775,-0.03799,0.00275,-0.0293,-0.01358,0.00717,-0.04471
5.529,-0.00275,-0.0386,-0.02655,-0.02838,-0.01892,-0.03204,-0.00244,0.00534,-0.00778,-0.06348,-0.04105,0.00153,-0.02853,-0.01373,0.00183,-0.03464
5.5295,-0.00107,-0.03906,-0.02747,0.07645,-0.01907,-0.03616,-0.0058,0.00565,-0.00458,-0.056,-0.03952,0.00183,-0.02731,-0.01511,0.00061,-0.03342
5.53,-0.00107,-0.03922,-0.02823,0.12787,-0.02396,-0.04288,-0.00763,0.00793,-0.00305,-0.03525,-0.02457,0.00397,-0.0267,-0.01587,0.00275,-0.03998
5.5305,-0.0029,-0.03815,-0.02884,0.10803,-0.02899,-0.04959,-0.00824,0.01022,-0.00671,-0.00488,-0.0029,0.00626,-0.02747,-0.01648,0.0058,-0.04593
5.531,-0.0061,-0.03433,-0.0296,0.0769,-0.02991,-0.04959,-0.00702,0.0119,-0.01434,0.02533,0.00122,0.00763,-0.02869,-0.01587,0.00854,-0.04623
5.5315,-0.00839,-0.0293,-0.03174,0.08316,-0.02869,-0.04074,-0.00778,0.01205,-0.02335,0.0444,-0.02579,0.00931,-0.02991,-0.01663,0.01038,-0.04379
5.532,-0.00854,-0.02747,-0.03311,0.09277,-0.02609,-0.02823,-0.00961,0.01114,-0.03159,0.04227,-0.07065,0.0116,-0.03113,-0.01877,0.00961,-0.04501
5.5325,-0.00763,-0.02869,-0.03403,0.04745,-0.03021,-0.02563,-0.01526,0.01007,-0.03754,0.01663,-0.1091,0.01266,-0.03174,-0.02106,0.00778,-0.04745
5.533,-0.00778,-0.03235,-0.03433,-0.03448,-0.03906,-0.03677,-0.02289,0.00992,-0.04166,-0.01923,-0.13321,0.01221,-0.03174,-0.02197,0.00702,-0.04715
5.5335,-0.01053,-0.0354,-0.03525,-0.08255,-0.04517,-0.05447,-0.03769,0.0087,-0.04395,-0.04257,-0.14633,0.00977,-0.03372,-0.02228,0.00809,-0.04562
5.534,-0.01236,-0.03708,-0.03433,-0.07126,-0.04196,-0.06683,-0.05356,0.00671,-0.04181,-0.04608,-0.15274,0.00793,-0.03494,-0.0235,0.01099,-0.04333
5.5345,-0.01099,-0.0386,-0.03326,-0.04059,-0.0383,-0.06882,-0.06973,0.00473,-0.03616,-0.04379,-0.14801,0.00931,-0.03555,-0.02411,0.0116,-0.03769
5.535,-0.00687,-0.04059,-0.03174,-0.02991,-0.04288,-0.06729,-0.07736,0.00626,-0.02777,-0.04364,-0.12878,0.01068,-0.03479,-0.02487,0.01114,-0.02777
5.5355,-0.00305,-0.04364,-0.03204,-0.04105,-0.04837,-0.06729,-0.07828,0.00946,-0.01755,-0.04166,-0.09155,0.00885,-0.03448,-0.02289,0.01007,-0.02258
5.536,-0.00305,-0.04715,-0.03296,-0.0531,-0.04105,-0.06683,-0.07446,0.01099,-0.00732,-0.02991,-0.03326,0.00488,-0.03464,-0.02029,0.01007,-0.02838
5.5365,-0.00687,-0.04883,-0.03403,-0.05402,-0.02487,-0.06485,-0.06042,0.01144,0.00214,-0.01389,0.04333,0.00336,-0.03494,-0.01892,0.01068,-0.04288
5.537,-0.01099,-0.04883,-0.03387,-0.04883,-0.01419,-0.06409,-0.02853,0.01007,0.00946,-0.0061,0.11673,0.00443,-0.03433,-0.01816,0.00977,-0.05219
5.5375,-0.01358,-0.04959,-0.03281,-0.04272,-0.0174,-0.06454,0.02365,0.0087,0.01282,-0.0148,0.15091,0.0061,-0.03418,-0.01892,0.00687,-0.05371
5.538,-0.01389,-0.05035,-0.03174,-0.03494,-0.02853,-0.06027,0.06989,0.00824,0.01465,-0.03616,0.11887,0.00702,-0.03479,-0.01785,0.00351,-0.04837
5.5385,-0.01282,-0.05035,-0.03113,-0.01984,-0.03738,-0.04852,0.07568,0.00702,0.01648,-0.05737,0.03403,0.00702,-0.0354,-0.01724,0.00275,-0.04105
5.539,-0.01114,-0.05005,-0.0296,0.0,-0.03815,-0.03799,0.02853,0.00519,0.01953,-0.06546,-0.05676,0.00748,-0.03677,-0.0177,0.00366,-0.03738
5.5395,-0.00839,-0.04974,-0.02701,0.01526,-0.03159,-0.03723,-0.03662,0.0029,0.02487,-0.05554,-0.10147,0.01144,-0.03723,-0.01907,0.0061,-0.03525
5.54,-0.00565,-0.04868,-0.02258,0.01678,-0.02396,-0.0386,-0.07828,0.00092,0.02853,-0.03448,-0.07645,0.01602,-0.03723,-0.02029,0.00778,-0.03342
5.5405,-0.00366,-0.047,-0.02136,0.00397,-0.0209,-0.03845,-0.07431,-0.00031,0.0264,-0.01068,-0.00549,0.01678,-0.03601,-0.02228,0.00809,-0.03311
5.541,-0.00366,-0.04562,-0.02243,-0.01389,-0.02136,-0.0386,-0.03403,-0.00061,0.01755,0.01022,0.05295,0.0119,-0.03647,-0.02396,0.00702,-0.03571
5.5415,-0.00412,-0.04456,-0.02518,-0.01846,-0.01999,-0.04257,0.02136,0.00076,0.00595,0.02914,0.0618,0.00626,-0.03799,-0.02396,0.00519,-0.03983
5.542,-0.0032,-0.04272,-0.02686,0.00992,-0.01633,-0.05356,0.07065,0.00137,-0.0029,0.04089,0.03571,0.00381,-0.03906,-0.02319,0.00565,-0.04196
5.5425,-0.00122,-0.0412,-0.0264,0.05768,-0.01724,-0.06332,0.10208,-0.00031,-0.00961,0.04562,0.00717,0.00427,-0.03906,-0.02274,0.00732,-0.04059
5.543,0.00061,-0.04089,-0.02594,0.07126,-0.02716,-0.07248,0.10284,-0.00351,-0.01556,0.03723,-0.01175,0.00366,-0.03983,-0.02365,0.00916,-0.03967
5.5435,0.00168,-0.04211,-0.0267,0.02151,-0.0441,-0.07874,0.06912,-0.00671,-0.02121,0.0322,-0.02319,0.00305,-0.03998,-0.02502,0.01007,-0.0412
5.544,0.00305,-0.04395,-0.02747,-0.04974,-0.05417,-0.08102,0.02655,-0.00854,-0.02029,0.03357,-0.02457,0.00229,-0.03876,-0.02441,0.00854,-0.04639
5.5445,0.0061,-0.04364,-0.02899,-0.08179,-0.04959,-0.07736,0.00809,-0.00931,-0.00992,0.0267,-0.01297,0.00351,-0.03677,-0.02228,0.00488,-0.05356
5.545,0.00748,-0.04044,-0.03159,-0.06119,-0.0383,-0.07523,0.01465,-0.009,0.00961,0.02487,0.00275,0.00351,-0.03555,-0.0206,0.00198,-0.05905
5.5455,0.00595,-0.0383,-0.03525,-0.01984,-0.03128,-0.07538,0.02136,-0.0087,0.0264,0.01343,0.01877,0.00153,-0.03586,-0.02167,0.00198,-0.05753
5.546,0.00259,-0.03693,-0.03769,0.01755,-0.03418,-0.0737,0.01266,-0.00671,0.02869,0.00839,0.03967,-0.00168,-0.03647,-0.02411,0.00351,-0.04974
5.5465,0.00061,-0.03815,-0.03937,0.03876,-0.04242,-0.06287,-0.00336,-0.00488,0.01587,0.01022,0.07065,-0.0032,-0.03677,-0.02609,0.00458,-0.04272
5.547,0.00092,-0.03906,-0.03983,0.03723,-0.04791,-0.047,-0.01755,-0.00412,-0.00153,0.02777,0.10025,-0.0029,-0.03647,-0.02625,0.00488,-0.04089
5.5475,0.00336,-0.04028,-0.04044,0.00854,-0.0473,-0.0383,-0.02975,-0.00534,-0.01663,0.03922,0.11246,-0.00244,-0.03571,-0.02441,0.00488,-0.04211
5.548,0.00504,-0.03967,-0.04272,-0.03281,-0.04181,-0.03281,-0.04333,-0.00717,-0.0325,0.03159,0.10117,-0.00198,-0.03571,-0.02197,0.00687,-0.04318
5.5485,0.00412,-0.03876,-0.04745,-0.06104,-0.03494,-0.01648,-0.05646,-0.00854,-0.05142,0.00778,0.07034,-0.00259,-0.03616,-0.02014,0.00778,-0.04456
5.549,0.00107,-0.03876,-0.0531,-0.05753,-0.02747,0.01205,-0.0676,-0.00824,-0.06729,-0.01862,0.03387,-0.00458,-0.03601,-0.01892,0.00854,-0.04562
5.5495,-0.00229,-0.04044,-0.05814,-0.03525,-0.02045,0.03418,-0.07401,-0.00809,-0.07385,-0.03662,0.00122,-0.00473,-0.0354,-0.01953,0.00946,-0.04623
5.55,-0.00397,-0.04242,-0.06149,-0.02563,-0.01129,0.0264,-0.07263,-0.00732,-0.0705,-0.03998,-0.01831,-0.00534,-0.03448,-0.02045,0.01068,-0.04608
5.5505,-0.00427,-0.04257,-0.06378,-0.03677,-0.00076,-0.00992,-0.06668,-0.00717,-0.0647,-0.04288,-0.01801,-0.00763,-0.03281,-0.02106,0.01129,-0.04395
5.551,-0.00626,-0.04181,-0.06439,-0.04242,0.00763,-0.04654,-0.06088,-0.0058,-0.06149,-0.04639,-0.00366,-0.00977,-0.03113,-0.01892,0.01038,-0.04044
5.5515,-0.0116,-0.04044,-0.06195,-0.02075,0.01221,-0.05875,-0.04807,-0.00381,-0.06165,-0.04593,0.00916,-0.00885,-0.03113,-0.01694,0.00748,-0.03799
5.552,-0.01923,-0.04044,-0.05798,0.00702,0.01022,-0.05127,-0.02579,-0.00198,-0.06134,-0.04044,0.00366,-0.0061,-0.03189,-0.01465,0.00534,-0.03708
5.5525,-0.02441,-0.0412,-0.05478,0.00275,0.00259,-0.047,-0.00015,-0.00275,-0.05615,-0.03784,-0.0206,-0.00412,-0.0325,-0.01358,0.00504,-0.03723
5.553,-0.02319,-0.04303,-0.0531,-0.03418,-0.0058,-0.05875,0.01114,-0.00656,-0.04608,-0.03967,-0.04562,-0.00504,-0.0325,-0.01251,0.00595,-0.03799
5.5535,-0.01617,-0.04425,-0.05035,-0.06317,-0.01083,-0.07919,-0.00031,-0.01144,-0.03403,-0.04196,-0.05402,-0.0061,-0.03296,-0.01297,0.00671,-0.04028
5.554,-0.00946,-0.04471,-0.04608,-0.05066,-0.01007,-0.10727,-0.02258,-0.01633,-0.02151,-0.04013,-0.04669,-0.00824,-0.03357,-0.01389,0.00885,-0.04486
5.5545,-0.00488,-0.04379,-0.04074,-0.01129,-0.00473,-0.13977,-0.03235,-0.01831,-0.01373,-0.0351,-0.03815,-0.00992,-0.03281,-0.01511,0.00916,-0.04761
5.555,-0.00076,-0.04181,-0.03754,0.01556,-0.00412,-0.15625,-0.02426,-0.01831,-0.01358,-0.02975,-0.03372,-0.0116,-0.03235,-0.01511,0.00946,-0.04745
5.5555,0.00336,-0.03891,-0.03555,0.00854,-0.02243,-0.12924,-0.0148,-0.0145,-0.01923,-0.02457,-0.02991,-0.01282,-0.03113,-0.01434,0.00839,-0.04623
5.556,0.00702,-0.03387,-0.03357,-0.0322,-0.05966,-0.05341,-0.01282,-0.00916,-0.02258,-0.02228,-0.02609,-0.01221,-0.03036,-0.01297,0.00671,-0.04745
5.5565,0.00931,-0.02869,-0.03082,-0.0914,-0.09689,0.04059,-0.01648,-0.00656,-0.02106,-0.02151,-0.02289,-0.01114,-0.0293,-0.01282,0.00717,-0.04959
5.557,0.0116,-0.02609,-0.02899,-0.1387,-0.11017,0.12024,-0.0177,-0.00809,-0.01495,-0.02136,-0.02274,-0.01175,-0.02762,-0.01312,0.00885,-0.04761
5.5575,0.01358,-0.02777,-0.02579,-0.13931,-0.09689,0.17197,-0.01587,-0.01114,-0.01007,-0.02289,-0.02197,-0.01373,-0.02655,-0.01495,0.00977,-0.04242
5.558,0.01587,-0.03174,-0.02258,-0.0914,-0.07431,0.18341,-0.01511,-0.01282,-0.0087,-0.02304,-0.01633,-0.01526,-0.02609,-0.01541,0.0087,-0.03754
5.5585,0.01572,-0.03723,-0.01877,-0.04318,-0.05447,0.15533,-0.01755,-0.01312,-0.01083,-0.02151,-0.00732,-0.01419,-0.02731,-0.01541,0.00793,-0.03799
5.559,0.01373,-0.04272,-0.01572,-0.03494,-0.0354,0.10315,-0.02029,-0.01389,-0.01328,-0.01419,-0.00381,-0.01144,-0.02853,-0.01556,0.00793,-0.04105
5.5595,0.01068,-0.04639,-0.0145,-0.04456,-0.0177,0.05371,-0.02243,-0.01419,-0.01587,-0.00977,-0.00381,-0.00916,-0.02869,-0.01495,0.00885,-0.0415
5.56,0.00763,-0.04807,-0.01556,-0.01617,-0.00504,0.02121,-0.02487,-0.01404,-0.01862,-0.00336,-0.00412,-0.00748,-0.02853,-0.01358,0.009,-0.0386
5.5605,0.00351,-0.04959,-0.01907,0.05615,-0.00259,-0.00763,-0.02548,-0.01236,-0.02197,-0.00336,-0.00275,-0.00793,-0.02823,-0.01328,0.00931,-0.03677
5.561,-0.00107,-0.05127,-0.0235,0.1207,-0.01144,-0.05386,-0.02319,-0.00992,-0.02396,-0.00534,-0.00183,-0.00916,-0.02899,-0.01663,0.00931,-0.03571
5.5615,-0.00534,-0.0528,-0.02609,0.1387,-0.02304,-0.11063,-0.0177,-0.00763,-0.02457,-0.00595,-0.00397,-0.00854,-0.03052,-0.01907,0.00992,-0.03616
5.562,-0.00931,-0.05356,-0.02792,0.12848,-0.02838,-0.14816,-0.01297,-0.00534,-0.0238,-0.009,-0.01175,-0.00717,-0.03174,-0.01907,0.00946,-0.03448
5.5625,-0.01404,-0.0528,-0.02411,0.12146,-0.02289,-0.15213,-0.01099,-0.00504,-0.02182,-0.01495,-0.02258,-0.00565,-0.03204,-0.01816,0.00839,-0.03296
5.563,-0.01923,-0.05096,-0.01007,0.10559,-0.01358,-0.13489,-0.01038,-0.00488,-0.01862,-0.02045,-0.03372,-0.00443,-0.02991,-0.01678,0.00809,-0.03296
5.5635,-0.02319,-0.05142,0.00702,0.05676,-0.01144,-0.11765,-0.00885,-0.00671,-0.01511,-0.02548,-0.04196,-0.00305,-0.02808,-0.0174,0.01007,-0.03632
5.564,-0.02609,-0.05539,0.01556,-0.00931,-0.01831,-0.09796,-0.00854,-0.00946,-0.01144,-0.02838,-0.0531,-0.00137,-0.02991,-0.01953,0.00961,-0.03967
5.5645,-0.02762,-0.06241,0.01129,-0.05295,-0.02136,-0.07065,-0.00702,-0.0116,-0.00549,-0.0383,-0.06683,-0.00092,-0.0325,-0.02136,0.009,-0.04105
5.565,-0.02884,-0.06714,0.00214,-0.05753,-0.01556,-0.04822,-0.00793,-0.01114,0.00259,-0.04608,-0.07675,-0.00092,-0.03326,-0.0209,0.009,-0.0386
5.5655,-0.0293,-0.06607,-0.00275,-0.0412,-0.0058,-0.05005,-0.01099,-0.00961,0.01068,-0.05203,-0.07599,-0.00092,-0.03174,-0.01938,0.00854,-0.0351
5.566,-0.02914,-0.06149,-0.00641,-0.03006,-0.00137,-0.07767,-0.01587,-0.00961,0.01465,-0.05096,-0.0676,-0.00122,-0.03052,-0.01831,0.00778,-0.03098
5.5665,-0.02777,-0.05905,-0.01221,-0.03204,-0.0032,-0.10666,-0.02121,-0.00977,0.01343,-0.04501,-0.05783,-0.00214,-0.02914,-0.01846,0.0087,-0.02716
5.567,-0.02502,-0.05707,-0.02106,-0.03876,-0.00885,-0.12039,-0.02701,-0.01236,0.00854,-0.0415,-0.04929,-0.00595,-0.02914,-0.01953,0.01007,-0.02548
5.5675,-0.02075,-0.05127,-0.03113,-0.03876,-0.02319,-0.12543,-0.03189,-0.01297,0.00275,-0.03708,-0.04272,-0.01175,-0.02975,-0.01999,0.01251,-0.02731
5.568,-0.01526,-0.03998,-0.04044,-0.02625,-0.04593,-0.13199,-0.03433,-0.01236,-0.00168,-0.03387,-0.03662,-0.01694,-0.02975,-0.01984,0.01465,-0.03418
5.5685,-0.00763,-0.02808,-0.04913,0.00046,-0.06851,-0.13245,-0.03189,-0.00793,-0.00305,-0.03098,-0.03006,-0.01831,-0.02823,-0.01892,0.0148,-0.04181
5.569,0.00351,-0.0209,-0.05615,0.04364,-0.07904,-0.11642,-0.02579,-0.00198,-0.00397,-0.0293,-0.02319,-0.01831,-0.02747,-0.01709,0.01297,-0.04761
5.5695,0.01831,-0.01724,-0.06042,0.09338,-0.07736,-0.08728,-0.0174,0.00183,-0.00565,-0.02716,-0.01724,-0.0206,-0.02777,-0.01404,0.00885,-0.04974
5.57,0.03036,-0.01389,-0.06195,0.11581,-0.06729,-0.06866,-0.01328,0.00046,-0.00748,-0.02396,-0.00992,-0.02243,-0.02838,-0.01328,0.00778,-0.04929
5.5705,0.03647,-0.00885,-0.06363,0.08011,-0.05524,-0.0621,-0.01556,-0.00183,-0.009,-0.02014,-0.00397,-0.01907,-0.02838,-0.01556,0.00809,-0.04608
5.571,0.03693,-0.00336,-0.06638,0.00671,-0.04196,-0.056,-0.02014,-0.00305,-0.00992,-0.01801,-0.00366,-0.01068,-0.02838,-0.01846,0.00839,-0.04303
5.5715,0.03448,0.00015,-0.07309,-0.04532,-0.02991,-0.04196,-0.02319,-0.00137,-0.01083,-0.02029,-0.00916,0.0,-0.02808,-0.01785,0.00854,-0.04227
5.572,0.02945,0.00305,-0.08209,-0.04593,-0.02243,-0.02975,-0.01999,-0.00031,-0.01144,-0.02274,-0.0148,0.01022,-0.02716,-0.01602,0.00946,-0.04242
5.5725,0.02151,0.00397,-0.09262,-0.02258,-0.02274,-0.0322,-0.01617,-0.00015,-0.01328,-0.01999,-0.01694,0.01724,-0.02716,-0.0145,0.01175,-0.04166
5.573,0.01038,0.00153,-0.10117,-0.01587,-0.02914,-0.04044,-0.01236,0.0,-0.01495,-0.01785,-0.01663,0.01968,-0.0293,-0.01678,0.01266,-0.03662
5.5735,-0.00076,-0.00351,-0.10727,-0.03403,-0.03693,-0.04196,-0.01053,-0.00061,-0.01633,-0.01999,-0.01785,0.02029,-0.0325,-0.01877,0.01282,-0.03357
5.574,-0.00793,-0.009,-0.11017,-0.05188,-0.04181,-0.03387,-0.00946,-0.00046,-0.01511,-0.02213,-0.02075,0.02304,-0.03403,-0.02167,0.01099,-0.03479
5.5745,-0.01038,-0.01175,-0.11185,-0.05203,-0.04318,-0.01053,-0.00931,0.00046,-0.01343,-0.02319,-0.02274,0.0267,-0.0322,-0.02274,0.00763,-0.03937
5.575,-0.00992,-0.01633,-0.10666,-0.03799,-0.03952,0.03052,-0.00961,0.00061,-0.01144,-0.01846,-0.02121,0.02731,-0.0296,-0.02213,0.00443,-0.04272
5.5755,-0.00732,-0.02609,-0.09628,-0.0238,-0.03342,0.08133,-0.01022,0.00122,-0.01114,-0.02136,-0.01938,0.0206,-0.02884,-0.01999,0.00366,-0.04395
5.576,-0.00549,-0.03769,-0.07996,-0.01404,-0.02197,0.1149,-0.01099,0.00122,-0.01221,-0.01678,-0.01755,0.01022,-0.03067,-0.01816,0.00671,-0.04196
5.5765,-0.00412,-0.04532,-0.05386,-0.00336,-0.009,0.11566,-0.00931,0.00183,-0.01312,-0.01602,-0.01694,0.00305,-0.03235,-0.01755,0.00809,-0.04166
5.577,-0.00305,-0.04745,-0.01923,0.01297,0.00336,0.09964,-0.00656,0.00305,-0.01129,-0.01495,-0.01587,0.00122,-0.03326,-0.01892,0.0058,-0.04257
5.5775,-0.00397,-0.04883,0.02075,0.03479,0.01251,0.09003,-0.00595,0.00366,-0.00885,-0.01404,-0.01633,0.00107,-0.03235,-0.01984,0.0058,-0.04196
5.578,-0.00748,-0.04974,0.05646,0.05249,0.01373,0.08423,-0.00687,0.00305,-0.00748,-0.01266,-0.01602,-0.00046,-0.03082,-0.02182,0.00702,-0.03937
5.5785,-0.0119,-0.05173,0.07843,0.04745,-0.00061,0.06683,-0.00778,0.0029,-0.00854,-0.00992,-0.01602,-0.00214,-0.02945,-0.02228,0.009,-0.03723
5.579,-0.0145,-0.05432,0.08484,0.00946,-0.03601,0.02945,-0.00763,0.00381,-0.01038,-0.00946,-0.01587,-0.00351,-0.02869,-0.02228,0.009,-0.03754
5.5795,-0.0145,-0.0563,0.07889,-0.04364,-0.08041,-0.03036,-0.00549,0.00488,-0.01053,-0.01053,-0.01541,-0.00381,-0.02914,-0.01968,0.0087,-0.03815
5.58,-0.01297,-0.05646,0.06531,-0.07767,-0.10712,-0.11688,-0.00412,0.00534,-0.00977,-0.00885,-0.01389,-0.00366,-0.02945,-0.01724,0.00992,-0.03799
5.5805,-0.01007,-0.05524,0.04623,-0.07782,-0.10361,-0.215,-0.00504,0.00488,-0.01114,-0.01175,-0.01434,-0.00488,-0.03128,-0.01694,0.00977,-0.03708
