time,RectFemL,VastusMedL,VastusLatL,TibAntL,HamMedL,HamLatL,GastroMedL,GastroLatL,RectFemR,VastusMedR,VastusLatR,TibAntR,HamMedR,HamLatR,GastroMedR,GastroLatR
4.94,0.0,-0.03769,-0.02258,-0.0058,-0.02899,-0.04623,-0.04471,0.00717,0.00229,-0.02228,-0.00778,0.00336,-0.03525,-0.01831,0.0087,-0.04532
4.9405,-0.00244,-0.03632,-0.02335,-0.00549,-0.03036,-0.04501,-0.03326,-0.00854,0.00122,-0.02106,-0.00549,0.00229,-0.03296,-0.01724,0.00778,-0.04654
4.941,-0.00824,-0.03433,-0.02441,-0.00626,-0.03387,-0.04532,-0.0209,-0.02823,0.00031,-0.02045,-0.00366,0.00183,-0.03128,-0.01663,0.0058,-0.04578
4.9415,-0.01526,-0.0293,-0.02792,-0.00671,-0.03693,-0.04654,-0.00443,-0.03113,0.00015,-0.02029,-0.00168,0.00183,-0.0325,-0.01755,0.0058,-0.04257
4.942,-0.01938,-0.02411,-0.03494,-0.00687,-0.03952,-0.04669,0.01862,-0.01633,-0.00122,-0.0209,-0.00122,0.00092,-0.03342,-0.01816,0.00824,-0.03784
4.9425,-0.02029,-0.02167,-0.04364,-0.00824,-0.04242,-0.04684,0.04623,-0.00214,-0.00275,-0.02045,-0.00443,0.00153,-0.03143,-0.01785,0.01068,-0.03357
4.943,-0.01694,-0.02319,-0.05203,-0.00946,-0.04654,-0.04547,0.05753,0.00015,-0.00519,-0.02136,-0.00931,0.00214,-0.02823,-0.01724,0.0119,-0.03128
4.9435,-0.01389,-0.02747,-0.05447,-0.00977,-0.04807,-0.04501,0.03754,-0.00473,-0.00763,-0.02213,-0.01907,0.0032,-0.02701,-0.01724,0.01251,-0.03036
4.944,-0.01221,-0.03082,-0.05051,-0.00885,-0.04684,-0.04395,-0.00137,-0.00702,-0.01083,-0.02243,-0.02975,0.00259,-0.02731,-0.01755,0.0119,-0.03342
4.9445,-0.01358,-0.03036,-0.04166,-0.00763,-0.04288,-0.04425,-0.02701,-0.00534,-0.01343,-0.02228,-0.0354,0.00061,-0.02792,-0.01724,0.01099,-0.03769
4.945,-0.0174,-0.03021,-0.03403,-0.00824,-0.03906,-0.04593,-0.02838,-0.00351,-0.0148,-0.02106,-0.03311,-0.00168,-0.02899,-0.01755,0.01053,-0.04105
4.9455,-0.01984,-0.03189,-0.03174,-0.00931,-0.03571,-0.04791,-0.02045,-0.0029,-0.01465,-0.01907,-0.02609,-0.00183,-0.03021,-0.01862,0.00824,-0.04379
4.946,-0.01556,-0.03601,-0.03586,-0.01068,-0.03265,-0.04929,-0.01694,-0.00183,-0.01343,-0.01801,-0.01923,-0.00031,-0.03189,-0.02029,0.00656,-0.04684
4.9465,-0.00656,-0.04013,-0.04135,-0.01251,-0.03098,-0.04868,-0.0177,0.00015,-0.01312,-0.01999,-0.01358,0.00046,-0.03281,-0.0209,0.00565,-0.05005
4.947,0.00015,-0.04471,-0.0444,-0.01572,-0.02945,-0.04791,-0.01724,0.00015,-0.01251,-0.02487,-0.009,0.00031,-0.03311,-0.02045,0.00565,-0.04944
4.9475,0.00198,-0.04745,-0.04486,-0.0206,-0.02823,-0.04715,-0.01678,-0.00168,-0.0116,-0.03159,-0.00305,0.0,-0.03433,-0.01923,0.00565,-0.04486
4.948,0.00214,-0.04852,-0.04089,-0.02899,-0.02777,-0.0473,-0.01724,-0.00137,-0.01007,-0.03693,0.00076,-0.00015,-0.03616,-0.01984,0.00519,-0.03998
4.9485,0.00336,-0.04715,-0.03754,-0.04074,-0.0267,-0.04562,-0.01785,0.00092,-0.00916,-0.03876,0.00183,0.00015,-0.03815,-0.0206,0.00534,-0.03876
4.949,0.00504,-0.0444,-0.03708,-0.05478,-0.02625,-0.04425,-0.01862,0.00198,-0.00977,-0.03769,0.00305,-0.00061,-0.03845,-0.01923,0.00732,-0.03723
4.9495,0.00519,-0.04074,-0.03815,-0.065,-0.02655,-0.04532,-0.01862,-0.00122,-0.01038,-0.0351,0.00443,-0.00168,-0.03632,-0.01678,0.01099,-0.03586
4.95,0.00397,-0.03906,-0.03784,-0.06256,-0.02686,-0.04684,-0.0209,-0.00641,-0.01007,-0.02991,0.00549,-0.00183,-0.0354,-0.01556,0.01251,-0.03265
4.9505,0.0029,-0.04059,-0.03662,-0.0386,-0.02762,-0.0473,-0.02731,-0.00748,-0.00916,-0.0209,0.00336,-0.00107,-0.03494,-0.01694,0.01328,-0.03098
4.951,0.0032,-0.04166,-0.03387,0.00717,-0.02884,-0.04562,-0.03555,-0.00275,-0.0119,-0.00702,-0.00305,0.00015,-0.03357,-0.01877,0.01389,-0.03174
4.9515,0.00259,-0.04272,-0.03174,0.05646,-0.02914,-0.04501,-0.03784,0.00229,-0.0177,0.00473,-0.01709,-0.00122,-0.03235,-0.01968,0.01434,-0.0325
4.952,0.00061,-0.04211,-0.03006,0.08102,-0.02853,-0.04654,-0.03464,0.00351,-0.02167,0.00854,-0.03784,-0.00412,-0.0322,-0.01938,0.0119,-0.0354
4.9525,-0.00092,-0.0412,-0.03006,0.07217,-0.02731,-0.04761,-0.03082,0.00137,-0.02106,0.00336,-0.05402,-0.00473,-0.03326,-0.01862,0.00504,-0.0383
4.953,-0.00137,-0.04166,-0.03036,0.04684,-0.02731,-0.04745,-0.02655,0.00107,-0.0177,-0.00259,-0.05402,-0.00229,-0.03281,-0.01709,-0.00137,-0.0386
4.9535,-0.00061,-0.04227,-0.03098,0.02747,-0.02777,-0.04654,-0.01465,0.0029,-0.01602,-0.00214,-0.03815,0.00031,-0.03143,-0.01587,-0.00076,-0.03708
4.954,-0.00031,-0.04242,-0.03464,0.02396,-0.02777,-0.04593,0.00565,0.00259,-0.01724,0.00259,-0.01511,0.00183,-0.03281,-0.01663,0.00473,-0.03616
4.9545,-0.00198,-0.04242,-0.04135,0.03326,-0.02869,-0.04669,0.01816,-0.00092,-0.02045,0.00519,0.00381,0.00275,-0.03433,-0.01831,0.00854,-0.03616
4.955,-0.00305,-0.04227,-0.04761,0.04562,-0.03021,-0.04807,0.01389,-0.00473,-0.02457,0.00427,0.0148,0.00198,-0.03464,-0.01999,0.00671,-0.03952
4.9555,-0.0032,-0.04272,-0.04944,0.04745,-0.0325,-0.05005,-0.00229,-0.00656,-0.02792,0.00153,0.01877,0.00061,-0.03342,-0.02029,0.00534,-0.04379
4.956,-0.00397,-0.0444,-0.04547,0.03265,-0.03555,-0.05051,-0.01312,-0.00504,-0.03174,-0.00122,0.01801,-0.00122,-0.03296,-0.0209,0.0061,-0.04669
4.9565,-0.00427,-0.04532,-0.04013,0.00778,-0.03632,-0.05096,-0.01465,-0.00443,-0.03403,-0.00412,0.01419,-0.00214,-0.03387,-0.02213,0.00717,-0.04501
4.957,-0.00381,-0.04608,-0.03662,-0.01328,-0.03464,-0.05157,-0.01114,-0.00778,-0.03357,-0.00702,0.00946,-0.00015,-0.03494,-0.02274,0.00809,-0.03937
4.9575,-0.00259,-0.04639,-0.03418,-0.0267,-0.03326,-0.05127,-0.00793,-0.01038,-0.0293,-0.01083,0.00397,0.00183,-0.03494,-0.02151,0.01022,-0.0351
4.958,-0.00168,-0.04944,-0.03235,-0.03387,-0.03326,-0.05081,-0.00748,-0.00626,-0.02396,-0.01556,0.00153,0.00229,-0.03387,-0.02106,0.01251,-0.03418
4.9585,-0.0029,-0.05219,-0.03021,-0.0386,-0.03281,-0.04974,-0.01221,0.00168,-0.02029,-0.02121,0.00107,0.0,-0.03357,-0.02228,0.01236,-0.0354
4.959,-0.00473,-0.05264,-0.02884,-0.03952,-0.03464,-0.04929,-0.01877,0.00458,-0.01633,-0.02625,0.0,-0.00275,-0.03387,-0.02365,0.01083,-0.03571
4.9595,-0.00504,-0.05035,-0.02777,-0.03387,-0.03418,-0.04837,-0.02319,0.00015,-0.01419,-0.02762,0.0,-0.00351,-0.03265,-0.02197,0.01129,-0.03799
4.96,-0.00381,-0.04745,-0.02487,-0.02716,-0.03433,-0.04852,-0.02029,-0.00534,-0.01205,-0.02594,0.00015,-0.00229,-0.03052,-0.01846,0.01358,-0.04227
4.9605,-0.00351,-0.04623,-0.02472,-0.02289,-0.03433,-0.04883,-0.01389,-0.0061,-0.01205,-0.02396,0.00061,-0.00229,-0.02777,-0.01587,0.01556,-0.04684
4.961,-0.0032,-0.04501,-0.02625,-0.02136,-0.03311,-0.04608,-0.00992,-0.00381,-0.01266,-0.02274,-0.00076,-0.00305,-0.02731,-0.01556,0.0145,-0.04837
4.9615,-0.00275,-0.04425,-0.02853,-0.02106,-0.0322,-0.04059,-0.01205,-0.00168,-0.01312,-0.02441,-0.00381,-0.00046,-0.02747,-0.01541,0.01083,-0.04395
4.962,-0.0029,-0.04349,-0.03098,-0.02258,-0.03357,-0.03174,-0.01816,-0.00061,-0.01419,-0.02747,-0.00702,0.00259,-0.02853,-0.01465,0.00793,-0.0383
4.9625,-0.0032,-0.04303,-0.03021,-0.0267,-0.03403,-0.02533,-0.02319,-0.00031,-0.0174,-0.02991,-0.01022,0.0061,-0.02991,-0.01358,0.00854,-0.03281
4.963,-0.00336,-0.04288,-0.02777,-0.03235,-0.03418,-0.02563,-0.02441,0.00031,-0.01984,-0.0296,-0.01282,0.00671,-0.03113,-0.01312,0.01175,-0.02991
4.9635,-0.00229,-0.04562,-0.02686,-0.03677,-0.0325,-0.03098,-0.01999,0.0,-0.02151,-0.02655,-0.01358,0.00443,-0.03235,-0.0145,0.0119,-0.03036
4.964,-0.00183,-0.05417,-0.02792,-0.03769,-0.03128,-0.0383,-0.01205,-0.00015,-0.02365,-0.02289,-0.01297,0.00046,-0.03387,-0.01587,0.01083,-0.03494
4.9645,-0.00229,-0.06363,-0.0293,-0.03616,-0.02975,-0.04562,-0.00473,0.00137,-0.02716,-0.01846,-0.01144,-0.0029,-0.03357,-0.01801,0.01038,-0.04181
4.965,-0.00381,-0.06622,-0.03006,-0.03632,-0.03006,-0.05234,0.0,0.00305,-0.03143,-0.01724,-0.00946,-0.00412,-0.03174,-0.01984,0.01083,-0.04807
4.9655,-0.00549,-0.05981,-0.02975,-0.03952,-0.03006,-0.05707,-0.00183,0.00183,-0.03448,-0.02136,-0.00824,-0.00443,-0.02899,-0.02045,0.01038,-0.05157
4.966,-0.00656,-0.04929,-0.02945,-0.04272,-0.03128,-0.06149,-0.01007,-0.00061,-0.03479,-0.03204,-0.00961,-0.00381,-0.02869,-0.01968,0.00519,-0.05142
4.9665,-0.00656,-0.0412,-0.02945,-0.04425,-0.03281,-0.06607,-0.01923,-0.00214,-0.03265,-0.04303,-0.01434,-0.00412,-0.03052,-0.01923,-0.00122,-0.04868
4.967,-0.00656,-0.03708,-0.02792,-0.04623,-0.03128,-0.06882,-0.02228,-0.00198,-0.02899,-0.04776,-0.01938,-0.00336,-0.0325,-0.01907,-0.00656,-0.04578
4.9675,-0.00656,-0.0351,-0.02655,-0.05325,-0.0267,-0.06927,-0.0209,-0.00137,-0.02609,-0.04364,-0.02319,-0.00244,-0.03357,-0.01862,-0.01007,-0.04318
4.968,-0.00732,-0.03265,-0.02563,-0.06516,-0.02228,-0.06638,-0.01785,-0.00122,-0.02609,-0.03387,-0.02304,-0.00122,-0.03433,-0.01785,-0.01373,-0.04288
4.9685,-0.009,-0.03143,-0.02762,-0.07492,-0.02243,-0.06149,-0.01236,-0.00229,-0.02686,-0.02243,-0.02075,0.00046,-0.0351,-0.01694,-0.01495,-0.04425
4.969,-0.00946,-0.02991,-0.02975,-0.07584,-0.0264,-0.05493,-0.00641,-0.00473,-0.02716,-0.01114,-0.02121,0.00137,-0.03555,-0.01694,-0.00931,-0.04776
4.9695,-0.00748,-0.02731,-0.03189,-0.065,-0.02884,-0.0502,-0.0061,-0.00534,-0.0267,-0.00519,-0.02777,0.00183,-0.03479,-0.01709,0.00809,-0.0499
4.97,-0.00473,-0.02487,-0.03143,-0.04364,-0.02823,-0.04852,-0.01984,-0.00412,-0.0238,-0.00809,-0.04593,0.00137,-0.03296,-0.01556,0.02533,-0.05035
4.9705,-0.00305,-0.02243,-0.02991,-0.01266,-0.02747,-0.04715,-0.04578,-0.0032,-0.01968,-0.01389,-0.06866,0.00046,-0.03265,-0.01419,0.02853,-0.04761
4.971,-0.00458,-0.0209,-0.0293,0.02853,-0.02762,-0.04471,-0.07034,-0.00229,-0.01633,-0.0177,-0.07614,0.00183,-0.03342,-0.01495,0.02106,-0.04379
4.9715,-0.00641,-0.02136,-0.03082,0.06958,-0.02899,-0.04013,-0.07767,-0.00214,-0.01862,-0.01617,-0.05829,0.00305,-0.03342,-0.01572,0.01663,-0.03998
4.972,-0.00656,-0.02304,-0.03586,0.08255,-0.03098,-0.03693,-0.06302,-0.00214,-0.02686,-0.01266,-0.03143,0.00351,-0.03281,-0.01633,0.01892,-0.0386
4.9725,-0.00549,-0.02548,-0.04303,0.05142,-0.03326,-0.03662,-0.04105,-0.0029,-0.0351,-0.00992,-0.01221,0.00336,-0.03265,-0.0174,0.02182,-0.0386
4.973,-0.00336,-0.02609,-0.04944,0.0029,-0.03281,-0.03769,-0.03128,-0.00229,-0.04028,-0.00946,-0.00305,0.00336,-0.03235,-0.01877,0.01862,-0.04211
4.9735,-0.00214,-0.02487,-0.05325,-0.01877,-0.03021,-0.03662,-0.03998,-0.00259,-0.04333,-0.01358,0.0032,0.0032,-0.03372,-0.02045,0.01556,-0.04379
4.974,-0.00107,-0.02533,-0.05463,-0.00427,-0.02777,-0.03601,-0.056,-0.00366,-0.04288,-0.01984,0.00931,0.00259,-0.03464,-0.02106,0.01419,-0.04471
4.9745,-0.00092,-0.02747,-0.05112,0.02045,-0.0267,-0.04013,-0.05371,-0.0029,-0.03952,-0.02487,0.01312,0.00153,-0.03494,-0.0209,0.01358,-0.04486
4.975,-0.0029,-0.03174,-0.04593,0.03128,-0.02625,-0.04852,-0.01389,0.0,-0.03433,-0.02518,0.01419,0.00275,-0.03464,-0.01862,0.01099,-0.04364
4.9755,-0.00565,-0.03784,-0.04272,0.02716,-0.02441,-0.05646,0.04059,0.00305,-0.02838,-0.02411,0.01404,0.00366,-0.03387,-0.01709,0.0087,-0.04044
4.976,-0.00916,-0.04272,-0.04242,0.01724,-0.02518,-0.0618,0.06042,0.00305,-0.02213,-0.02228,0.01297,0.00366,-0.0351,-0.0174,0.00916,-0.03616
4.9765,-0.00992,-0.04425,-0.04181,0.00214,-0.02731,-0.06699,0.02716,-0.00046,-0.01587,-0.01968,0.00931,0.00198,-0.03555,-0.01846,0.01083,-0.03586
4.977,-0.009,-0.04395,-0.03998,-0.01663,-0.0293,-0.07431,-0.01404,-0.00504,-0.00946,-0.01404,0.00183,-0.00092,-0.03342,-0.01923,0.0116,-0.03708
4.9775,-0.00671,-0.04395,-0.03815,-0.03342,-0.02991,-0.08087,-0.0119,-0.00702,-0.00549,-0.00748,-0.00748,-0.00137,-0.03159,-0.01831,0.01007,-0.03708
4.978,-0.00473,-0.0441,-0.03723,-0.04364,-0.0293,-0.08255,0.03326,-0.00656,-0.00244,-0.00107,-0.01633,0.00031,-0.0325,-0.01617,0.009,-0.03616
4.9785,-0.00351,-0.04486,-0.04089,-0.04486,-0.03311,-0.07538,0.06378,-0.0061,-0.00229,0.00153,-0.0238,0.00168,-0.03571,-0.01602,0.01144,-0.03906
4.979,-0.0032,-0.0444,-0.0563,-0.03571,-0.03784,-0.06393,0.03799,-0.00656,-0.00488,0.00214,-0.02945,0.00336,-0.03571,-0.01678,0.01358,-0.04501
4.9795,-0.00381,-0.0441,-0.08438,-0.01724,-0.0441,-0.05157,-0.02167,-0.00793,-0.00824,-0.00015,-0.03387,0.00351,-0.03235,-0.01801,0.01389,-0.04791
4.98,-0.00412,-0.04333,-0.10956,0.00122,-0.04807,-0.04349,-0.05219,-0.00885,-0.01022,-0.00229,-0.03281,0.00107,-0.02899,-0.01816,0.01053,-0.04486
4.9805,-0.0029,-0.04333,-0.10498,0.00687,-0.04974,-0.03983,-0.02731,-0.00931,-0.01236,-0.00366,-0.0267,-0.00244,-0.02869,-0.01846,0.00504,-0.04013
4.981,-0.00259,-0.04272,-0.06531,-0.00137,-0.04822,-0.03738,0.01312,-0.00839,-0.01343,-0.00397,-0.01877,-0.00366,-0.02975,-0.01907,0.00229,-0.03998
4.9815,-0.0029,-0.04257,-0.01297,-0.0087,-0.04456,-0.0351,0.02594,-0.00702,-0.01495,-0.00381,-0.01282,-0.00092,-0.03082,-0.01923,0.00122,-0.0415
4.982,-0.00259,-0.0441,0.02258,-0.0058,-0.04303,-0.03311,0.01373,-0.00778,-0.01678,-0.00458,-0.0116,0.00015,-0.0325,-0.01892,0.00153,-0.04379
4.9825,-0.00198,-0.04654,0.03433,-0.00305,-0.0415,-0.03128,0.00488,-0.00977,-0.01831,-0.00626,-0.01617,0.00031,-0.03448,-0.01968,0.00305,-0.04623
4.983,-0.00244,-0.04883,0.02792,-0.0238,-0.03769,-0.02945,0.00809,-0.00885,-0.01862,-0.00931,-0.02274,0.00015,-0.03479,-0.02014,0.00412,-0.04868
4.9835,-0.00336,-0.04959,0.00275,-0.06638,-0.03189,-0.02884,0.01419,-0.00626,-0.01617,-0.01099,-0.03021,0.00092,-0.03204,-0.01984,0.00351,-0.04471
4.984,-0.00275,-0.04883,-0.0441,-0.10132,-0.02441,-0.03204,0.01297,-0.00534,-0.01358,-0.01541,-0.03662,0.00214,-0.02914,-0.01801,0.00305,-0.0386
4.9845,-0.00198,-0.04898,-0.09842,-0.09903,-0.01556,-0.03662,0.00473,-0.00412,-0.01297,-0.02014,-0.03876,0.00259,-0.02869,-0.01709,0.00244,-0.03281
4.985,-0.00137,-0.04807,-0.11795,-0.05585,-0.00916,-0.04242,-0.00519,-0.00275,-0.01434,-0.02548,-0.03479,0.00137,-0.03036,-0.01831,0.00458,-0.03189
4.9855,-0.00275,-0.04593,-0.0737,0.01389,-0.00824,-0.05005,-0.01022,-0.00107,-0.01694,-0.02884,-0.02457,-0.00092,-0.03235,-0.02167,0.009,-0.03342
4.986,-0.00443,-0.04257,0.01053,0.08987,-0.01205,-0.05554,-0.0119,0.00031,-0.01755,-0.0293,-0.01297,-0.00198,-0.03326,-0.02304,0.01053,-0.03418
4.9865,-0.00412,-0.04074,0.07843,0.13702,-0.01617,-0.05325,-0.01312,0.00107,-0.0177,-0.02884,-0.00381,-0.00183,-0.03342,-0.02304,0.00793,-0.03555
4.987,-0.00214,-0.03845,0.09583,0.12909,-0.01801,-0.0441,-0.01709,0.00076,-0.01785,-0.02838,-0.00076,0.00046,-0.0322,-0.02121,0.00366,-0.03967
4.9875,-0.00153,-0.0386,0.07477,0.07675,-0.02075,-0.03662,-0.02304,-0.00031,-0.01709,-0.0264,-0.00198,0.00275,-0.03113,-0.01877,0.00259,-0.04517
4.988,-0.00427,-0.03952,0.04639,0.02625,-0.02396,-0.03662,-0.03067,-0.00214,-0.01526,-0.02396,-0.00427,0.0029,-0.03128,-0.01831,0.0032,-0.04913
4.9885,-0.00885,-0.04211,0.0235,0.00565,-0.02686,-0.04349,-0.03845,-0.00168,-0.01404,-0.02213,-0.0058,0.00198,-0.0322,-0.01709,0.00443,-0.04959
4.989,-0.01312,-0.04608,0.00168,0.00641,-0.0293,-0.05142,-0.04349,-0.00153,-0.01526,-0.02197,-0.00687,0.00015,-0.0325,-0.01831,0.00443,-0.04791
4.9895,-0.01495,-0.05005,-0.0209,0.01053,-0.0325,-0.0563,-0.04333,-0.00092,-0.01602,-0.0209,-0.00809,0.0,-0.03281,-0.01846,0.00366,-0.0473
4.99,-0.01511,-0.05234,-0.0412,0.01343,-0.03815,-0.05615,-0.03784,-0.00198,-0.01495,-0.01862,-0.00961,-0.00061,-0.03174,-0.0177,0.00259,-0.04715
4.9905,-0.01358,-0.05264,-0.05951,0.01709,-0.04501,-0.05402,-0.02594,-0.00443,-0.01205,-0.01968,-0.01175,-0.00214,-0.03067,-0.01709,0.0032,-0.04623
4.991,-0.01144,-0.05112,-0.07782,0.01862,-0.04913,-0.0531,-0.00366,-0.00488,-0.01099,-0.02182,-0.01328,-0.00397,-0.03036,-0.01633,0.00626,-0.04486
4.9915,-0.00778,-0.04944,-0.09888,0.01358,-0.04913,-0.05432,0.02121,-0.00168,-0.01236,-0.02762,-0.0145,-0.00412,-0.03067,-0.01678,0.00793,-0.04272
4.992,-0.00534,-0.04868,-0.11322,0.00549,-0.04532,-0.05722,0.02823,0.0029,-0.01373,-0.03265,-0.01556,-0.00381,-0.03128,-0.01694,0.00916,-0.04288
4.9925,-0.00366,-0.04807,-0.11261,0.00031,-0.04044,-0.06119,0.01083,0.00626,-0.01389,-0.03662,-0.0145,-0.00229,-0.0322,-0.01785,0.00931,-0.04471
4.993,-0.00305,-0.04623,-0.0943,-0.00183,-0.03708,-0.06393,-0.01175,0.00549,-0.01434,-0.0383,-0.01419,-0.00153,-0.03387,-0.01968,0.00992,-0.04669
4.9935,-0.00397,-0.0444,-0.06531,-0.00412,-0.03403,-0.0618,-0.0177,0.00031,-0.01602,-0.0386,-0.01343,-0.00107,-0.0354,-0.02151,0.00977,-0.047
4.994,-0.00427,-0.04395,-0.04074,-0.00748,-0.03098,-0.05707,-0.01282,-0.00381,-0.01831,-0.03769,-0.01312,-0.00046,-0.03494,-0.02197,0.00885,-0.04639
4.9945,-0.00351,-0.04471,-0.03082,-0.00961,-0.02853,-0.05203,-0.01648,-0.00458,-0.01892,-0.03769,-0.01389,0.00031,-0.03433,-0.02106,0.00839,-0.0444
4.995,-0.00351,-0.04242,-0.03403,-0.01038,-0.02716,-0.04745,-0.02899,-0.0061,-0.01862,-0.03708,-0.01328,0.0,-0.03525,-0.01968,0.009,-0.04227
4.9955,-0.00519,-0.03952,-0.03754,-0.01205,-0.02731,-0.04349,-0.03693,-0.01236,-0.01831,-0.03586,-0.01175,-0.00153,-0.03632,-0.02029,0.009,-0.04013
4.996,-0.00595,-0.03616,-0.03525,-0.01572,-0.02838,-0.0383,-0.03387,-0.02045,-0.02014,-0.03448,-0.01022,-0.00183,-0.03586,-0.02243,0.00824,-0.03815
4.9965,-0.00687,-0.0351,-0.03113,-0.01892,-0.03098,-0.03281,-0.02716,-0.02228,-0.02335,-0.03387,-0.01053,-0.00153,-0.03586,-0.02304,0.00702,-0.03693
4.997,-0.00549,-0.03342,-0.03067,-0.02075,-0.03326,-0.03113,-0.02335,-0.01434,-0.02594,-0.03265,-0.01266,-0.00229,-0.03632,-0.02289,0.00839,-0.03677
4.9975,-0.00534,-0.0296,-0.03464,-0.02197,-0.03555,-0.03326,-0.02121,-0.00534,-0.02594,-0.03342,-0.01389,-0.00244,-0.03586,-0.02243,0.01007,-0.03937
4.998,-0.0058,-0.02686,-0.03723,-0.02457,-0.03677,-0.03601,-0.01862,-0.0029,-0.02426,-0.03448,-0.01541,-0.00137,-0.03403,-0.02258,0.01068,-0.04379
4.9985,-0.00565,-0.02777,-0.03784,-0.02579,-0.03708,-0.03769,-0.01633,-0.00626,-0.02319,-0.03448,-0.01785,0.00015,-0.03204,-0.0238,0.00885,-0.04623
4.999,-0.00473,-0.03204,-0.03647,-0.02411,-0.03403,-0.03799,-0.0174,-0.00946,-0.02182,-0.03189,-0.0206,0.00275,-0.03006,-0.02335,0.00549,-0.04517
4.9995,-0.00443,-0.03601,-0.03479,-0.02167,-0.03052,-0.03708,-0.02182,-0.009,-0.02213,-0.02686,-0.02075,0.0032,-0.02899,-0.02243,0.00488,-0.04349
5.0,-0.00565,-0.03815,-0.03342,-0.02075,-0.02625,-0.03815,-0.02457,-0.0061,-0.02182,-0.01968,-0.01953,0.00259,-0.02914,-0.0206,0.00732,-0.04242
5.0005,-0.00549,-0.03845,-0.03235,-0.02121,-0.02457,-0.03922,-0.02274,-0.00458,-0.01999,-0.01083,-0.02396,0.00198,-0.02899,-0.01953,0.01007,-0.0415
5.001,-0.00549,-0.03784,-0.02975,-0.02228,-0.02472,-0.04089,-0.01877,-0.00473,-0.01785,-0.00427,-0.03708,0.00275,-0.02899,-0.01831,0.01343,-0.04013
5.0015,-0.00427,-0.03708,-0.02716,-0.02014,-0.02441,-0.04196,-0.01907,-0.00412,-0.01663,-0.00381,-0.05295,0.00488,-0.03021,-0.01663,0.01526,-0.03967
5.002,-0.00458,-0.03845,-0.0264,-0.0177,-0.02487,-0.0441,-0.03006,-0.00198,-0.01617,-0.0087,-0.0563,0.00504,-0.0322,-0.01587,0.01556,-0.04089
5.0025,-0.0058,-0.04089,-0.02899,-0.01556,-0.02563,-0.04608,-0.04028,-0.00092,-0.01572,-0.01465,-0.03983,0.00244,-0.03281,-0.01602,0.0148,-0.04166
5.003,-0.00717,-0.04517,-0.03235,-0.01099,-0.02716,-0.04654,-0.03403,-0.00046,-0.01556,-0.0174,-0.0145,-0.00092,-0.03204,-0.01724,0.01373,-0.04105
5.0035,-0.00854,-0.04974,-0.03342,-0.00397,-0.02792,-0.04593,-0.00977,0.0,-0.01694,-0.01434,0.00198,-0.00061,-0.03189,-0.01801,0.01236,-0.03952
5.004,-0.01038,-0.05264,-0.03235,0.00076,-0.02899,-0.0441,0.01175,0.00015,-0.01785,-0.00885,0.00778,0.00137,-0.0322,-0.0177,0.01221,-0.0386
5.0045,-0.01205,-0.05219,-0.03128,-0.00092,-0.02945,-0.04227,0.00992,-0.00107,-0.01877,-0.00153,0.00992,0.00351,-0.03204,-0.01709,0.01236,-0.0383
5.005,-0.01083,-0.04959,-0.0296,-0.00839,-0.02823,-0.03952,-0.01343,-0.0032,-0.01862,0.00519,0.01221,0.00351,-0.0322,-0.0174,0.01297,-0.03876
5.0055,-0.00748,-0.04745,-0.0296,-0.01572,-0.02625,-0.03769,-0.03708,-0.00458,-0.01709,0.01022,0.01038,0.00259,-0.03433,-0.01831,0.01251,-0.03876
5.006,-0.00504,-0.04501,-0.02853,-0.02106,-0.02701,-0.03677,-0.047,-0.00381,-0.01312,0.01343,0.00427,0.0029,-0.03738,-0.01877,0.01221,-0.0383
5.0065,-0.00504,-0.04272,-0.02899,-0.02625,-0.02808,-0.03906,-0.04395,-0.0029,-0.01038,0.01205,-0.0032,0.00443,-0.0383,-0.01755,0.0116,-0.03922
5.007,-0.00519,-0.04211,-0.03036,-0.0296,-0.02747,-0.04135,-0.02655,-0.00137,-0.01038,0.00793,-0.00656,0.0058,-0.03647,-0.01602,0.009,-0.03937
5.0075,-0.00565,-0.04272,-0.03265,-0.02945,-0.02243,-0.04227,0.00397,-0.00046,-0.01358,0.00259,-0.00504,0.00458,-0.03433,-0.01587,0.0032,-0.03815
5.008,-0.00504,-0.04333,-0.03387,-0.03082,-0.01495,-0.0412,0.03387,0.00015,-0.01602,-0.00443,-0.00031,0.00092,-0.03464,-0.01755,-0.00229,-0.03815
5.0085,-0.00381,-0.0441,-0.03342,-0.03815,-0.01251,-0.04013,0.0412,-0.00122,-0.01556,-0.01114,0.00076,-0.00183,-0.0354,-0.01877,-0.00244,-0.03799
5.009,-0.00336,-0.0444,-0.03296,-0.05051,-0.01495,-0.04059,0.02411,-0.00137,-0.01373,-0.01801,-0.00397,-0.0032,-0.03586,-0.01892,0.00046,-0.03708
5.0095,-0.00275,-0.04425,-0.03326,-0.06348,-0.0209,-0.04227,-0.00076,-0.00076,-0.01175,-0.02289,-0.01312,-0.00092,-0.03601,-0.0177,0.00427,-0.03647
5.01,-0.00122,-0.04501,-0.03464,-0.0769,-0.02457,-0.04318,-0.01556,-0.00061,-0.00977,-0.02686,-0.02319,0.00137,-0.03525,-0.01602,0.00519,-0.03708
5.0105,0.00015,-0.04623,-0.03799,-0.09003,-0.03036,-0.04395,-0.0206,-0.00168,-0.00977,-0.0296,-0.02914,0.0032,-0.03433,-0.0148,0.00488,-0.04074
5.011,0.00183,-0.04807,-0.04242,-0.09216,-0.03983,-0.0441,-0.02213,-0.00412,-0.01129,-0.03098,-0.02808,0.00473,-0.03403,-0.01358,0.00595,-0.04532
5.0115,0.00229,-0.04852,-0.04471,-0.07919,-0.05173,-0.0444,-0.02411,-0.00595,-0.01419,-0.03021,-0.02426,0.00488,-0.03464,-0.01419,0.00854,-0.04593
5.012,0.00275,-0.04791,-0.0444,-0.065,-0.06195,-0.04517,-0.02563,-0.00473,-0.01724,-0.02945,-0.01953,0.00473,-0.0351,-0.01572,0.01129,-0.04379
5.0125,0.00168,-0.04517,-0.04318,-0.06317,-0.06577,-0.04761,-0.02563,-0.0029,-0.01587,-0.02853,-0.01541,0.0029,-0.03464,-0.01801,0.01541,-0.04074
5.013,0.00122,-0.0415,-0.04196,-0.07004,-0.05981,-0.05051,-0.02289,-0.00092,-0.01251,-0.02762,-0.01144,0.00061,-0.03235,-0.01785,0.01953,-0.03998
5.0135,0.00198,-0.03784,-0.03906,-0.06332,-0.05005,-0.05219,-0.01862,-0.00015,-0.00961,-0.02594,-0.00931,-0.00061,-0.02991,-0.01617,0.01968,-0.04089
5.014,0.00214,-0.03738,-0.03632,-0.02762,-0.04227,-0.05371,-0.01663,0.00046,-0.00824,-0.02274,-0.00839,-0.00046,-0.02945,-0.0148,0.01541,-0.04486
5.0145,0.00015,-0.03708,-0.03448,0.0351,-0.03647,-0.05554,-0.01648,-0.00092,-0.00854,-0.01801,-0.00824,-0.00031,-0.03021,-0.01526,0.01312,-0.04669
5.015,-0.00153,-0.03677,-0.0325,0.09674,-0.03235,-0.05753,-0.01755,-0.0032,-0.009,-0.01129,-0.00916,-0.00031,-0.0296,-0.01724,0.0148,-0.04608
5.0155,-0.0029,-0.03601,-0.03021,0.12451,-0.03189,-0.05585,-0.01877,-0.00488,-0.00946,-0.00351,-0.01083,-0.00107,-0.02899,-0.0174,0.01846,-0.04395
5.016,-0.00229,-0.03433,-0.02975,0.11124,-0.03189,-0.05234,-0.02106,-0.00488,-0.00992,0.00473,-0.01236,-0.00168,-0.02991,-0.01694,0.01724,-0.04242
5.0165,-0.00183,-0.03342,-0.02991,0.08026,-0.03265,-0.04883,-0.02136,-0.00366,-0.01068,0.0116,-0.01236,-0.00275,-0.03204,-0.01724,0.00946,-0.04333
5.017,-0.00397,-0.03235,-0.0296,0.05219,-0.03311,-0.047,-0.0177,-0.0032,-0.0119,0.01114,-0.0116,-0.00259,-0.03265,-0.01831,-0.00168,-0.04456
5.0175,-0.00595,-0.03159,-0.03006,0.03281,-0.03296,-0.04639,-0.01328,-0.00122,-0.01297,0.00336,-0.01068,-0.00153,-0.03082,-0.01968,-0.01068,-0.0441
5.018,-0.00641,-0.03067,-0.0296,0.02472,-0.03189,-0.047,-0.01099,0.00061,-0.01343,-0.00687,-0.01099,-0.00168,-0.0296,-0.01938,-0.0119,-0.04135
5.0185,-0.00641,-0.03159,-0.0296,0.02625,-0.03265,-0.047,-0.01312,0.00275,-0.01434,-0.0145,-0.01266,-0.0032,-0.0296,-0.01923,-0.00641,-0.03769
5.019,-0.00839,-0.03372,-0.02975,0.03021,-0.03311,-0.04364,-0.01572,0.0032,-0.01617,-0.0177,-0.01328,-0.00351,-0.0296,-0.01923,0.00061,-0.03662
5.0195,-0.01144,-0.03494,-0.0293,0.01816,-0.03296,-0.03723,-0.01556,0.00198,-0.0177,-0.01968,-0.01175,-0.00214,-0.02792,-0.01892,0.00443,-0.03845
5.02,-0.01328,-0.03403,-0.02869,-0.01068,-0.03311,-0.03006,-0.01465,0.0,-0.01617,-0.02182,-0.01251,-0.00046,-0.02701,-0.01923,0.00595,-0.04196
5.0205,-0.01343,-0.03235,-0.0264,-0.0386,-0.03433,-0.02579,-0.01602,-0.00076,-0.01053,-0.02426,-0.01404,-0.00198,-0.02792,-0.01846,0.00732,-0.04654
5.021,-0.01419,-0.0325,-0.02472,-0.05142,-0.03586,-0.02487,-0.01968,-0.00275,-0.00275,-0.02701,-0.01526,-0.00244,-0.03113,-0.01801,0.009,-0.0502
5.0215,-0.01434,-0.03555,-0.02365,-0.05478,-0.03448,-0.02762,-0.02335,-0.00366,0.00198,-0.02853,-0.01541,-0.00168,-0.03357,-0.01755,0.00916,-0.05219
5.022,-0.01419,-0.0412,-0.02487,-0.06241,-0.03159,-0.03006,-0.02548,-0.00366,0.00214,-0.0293,-0.01511,0.00031,-0.03525,-0.01755,0.00809,-0.05432
5.0225,-0.0119,-0.0499,-0.02991,-0.07675,-0.03036,-0.03189,-0.02838,-0.00336,-0.00015,-0.02991,-0.01434,0.00076,-0.03586,-0.01801,0.00732,-0.05264
5.023,-0.00763,-0.06012,-0.03586,-0.08682,-0.03174,-0.03571,-0.02975,-0.00153,-0.00214,-0.03006,-0.01434,-0.00015,-0.03586,-0.0177,0.00809,-0.04761
5.0235,-0.00519,-0.06546,-0.03586,-0.08636,-0.03265,-0.04333,-0.02747,0.00183,-0.0061,-0.02914,-0.01312,0.00015,-0.03448,-0.0174,0.00977,-0.0412
5.024,-0.00259,-0.06058,-0.03082,-0.07797,-0.03265,-0.05768,-0.01755,0.00443,-0.01266,-0.02747,-0.01083,0.00031,-0.03403,-0.0174,0.00992,-0.03815
5.0245,-0.00153,-0.04913,-0.02335,-0.06989,-0.03098,-0.07599,0.00031,0.0061,-0.02014,-0.0238,-0.00839,0.0,-0.03387,-0.0174,0.00992,-0.0383
5.025,-0.00137,-0.03967,-0.01846,-0.06332,-0.02975,-0.09247,0.0174,0.00641,-0.0235,-0.0177,-0.00702,-0.00076,-0.03479,-0.01755,0.01053,-0.04013
5.0255,-0.00015,-0.03464,-0.01801,-0.05493,-0.02899,-0.09766,0.02136,0.00366,-0.02243,-0.01022,-0.00687,-0.00229,-0.03555,-0.01663,0.01007,-0.04105
5.026,0.00122,-0.03204,-0.02014,-0.0415,-0.02808,-0.0882,0.00977,-0.00244,-0.02014,-0.00702,-0.00702,-0.00366,-0.03479,-0.01648,0.00885,-0.04074
5.0265,-0.00076,-0.03082,-0.02258,-0.02426,-0.02716,-0.0705,-0.00275,-0.01114,-0.01877,-0.01541,-0.00748,-0.00336,-0.03326,-0.01816,0.00732,-0.03906
5.027,-0.00443,-0.03113,-0.02365,-0.00443,-0.02731,-0.05508,-0.00656,-0.01633,-0.01633,-0.03204,-0.00748,-0.00244,-0.03189,-0.01968,0.00671,-0.03799
5.0275,-0.009,-0.03128,-0.02472,0.01877,-0.02548,-0.05035,-0.00397,-0.01709,-0.0116,-0.04532,-0.00778,-0.00214,-0.03174,-0.01968,0.00732,-0.03967
5.028,-0.01236,-0.02991,-0.02609,0.04227,-0.02579,-0.05249,-0.00381,-0.01465,-0.00702,-0.04517,-0.00702,-0.00427,-0.0322,-0.01846,0.00809,-0.04059
5.0285,-0.0148,-0.02747,-0.03052,0.0563,-0.02747,-0.05386,-0.00595,-0.0119,-0.00702,-0.03387,-0.00687,-0.0061,-0.03235,-0.01785,0.00809,-0.03983
5.029,-0.01663,-0.02579,-0.03967,0.05173,-0.03006,-0.0531,-0.009,-0.00809,-0.00824,-0.02106,-0.00748,-0.00626,-0.03159,-0.01816,0.00839,-0.03967
5.0295,-0.01755,-0.02609,-0.0528,0.02899,-0.03143,-0.05157,-0.00916,-0.00244,-0.00824,-0.01312,-0.00946,-0.00519,-0.03082,-0.01877,0.00885,-0.04181
5.03,-0.01495,-0.02869,-0.06821,-0.00046,-0.03235,-0.05249,-0.00793,0.0029,-0.00763,-0.01068,-0.01282,-0.00412,-0.03036,-0.01923,0.00977,-0.04333
5.0305,-0.01114,-0.03326,-0.07736,-0.02228,-0.03342,-0.05264,-0.01129,0.00504,-0.00748,-0.01175,-0.01282,-0.00351,-0.02991,-0.01968,0.00885,-0.04318
5.031,-0.00595,-0.03754,-0.07614,-0.03235,-0.03235,-0.05081,-0.02243,0.00229,-0.00931,-0.01587,-0.01129,-0.00183,-0.03067,-0.02121,0.00671,-0.04135
5.0315,-0.00076,-0.03967,-0.06805,-0.03479,-0.02945,-0.04944,-0.03601,-0.00259,-0.01251,-0.02289,-0.01053,0.00076,-0.03098,-0.02213,0.00504,-0.04013
5.032,0.00244,-0.04181,-0.06073,-0.03265,-0.02701,-0.04776,-0.04074,-0.00504,-0.01709,-0.03174,-0.01221,0.00244,-0.03006,-0.02213,0.00671,-0.04013
5.0325,0.00381,-0.04562,-0.05829,-0.02747,-0.02686,-0.0473,-0.03281,-0.0029,-0.02014,-0.03632,-0.01556,0.0029,-0.03021,-0.0209,0.00931,-0.03983
5.033,0.00336,-0.05219,-0.05676,-0.01938,-0.02686,-0.04745,-0.02029,0.00061,-0.01984,-0.03616,-0.01923,0.0032,-0.03006,-0.0206,0.01099,-0.03922
5.0335,0.0029,-0.05737,-0.05402,-0.00595,-0.02563,-0.04852,-0.01389,0.00427,-0.01709,-0.03204,-0.02243,0.00381,-0.03082,-0.02151,0.00977,-0.03983
5.034,0.00443,-0.0589,-0.0499,0.01312,-0.02457,-0.04822,-0.0116,0.00549,-0.01434,-0.02533,-0.02457,0.00534,-0.03006,-0.02243,0.00671,-0.04166
5.0345,0.00565,-0.05737,-0.04562,0.02808,-0.0238,-0.04669,-0.00824,0.00198,-0.01373,-0.01572,-0.02762,0.00397,-0.02869,-0.02274,0.0061,-0.04395
5.035,0.00549,-0.05493,-0.04074,0.0264,-0.02441,-0.04501,-0.00214,-0.00259,-0.01282,-0.0058,-0.03128,0.00168,-0.02808,-0.02151,0.00717,-0.04395
5.0355,0.0032,-0.05325,-0.03525,0.00992,-0.0264,-0.04517,0.00076,-0.00916,-0.01221,0.0,-0.03708,0.00031,-0.02884,-0.02106,0.00885,-0.04211
5.036,0.00076,-0.05051,-0.03128,-0.00534,-0.0267,-0.0473,-0.00214,-0.01556,-0.00992,-0.00061,-0.03784,0.00076,-0.02914,-0.02029,0.01022,-0.03998
5.0365,-0.00137,-0.04684,-0.03036,-0.01007,-0.02686,-0.04852,-0.00702,-0.01709,-0.00732,-0.0061,-0.03433,0.00198,-0.02884,-0.01999,0.01068,-0.03891
5.037,-0.00366,-0.0444,-0.0322,-0.00809,-0.02823,-0.04929,-0.009,-0.01251,-0.00458,-0.01053,-0.02716,0.00275,-0.02747,-0.01968,0.01099,-0.03983
5.0375,-0.00488,-0.0441,-0.03418,-0.00748,-0.03067,-0.04959,-0.01053,-0.00519,-0.00244,-0.01053,-0.02136,0.00244,-0.02762,-0.01999,0.01083,-0.04074
5.038,-0.00397,-0.0444,-0.03555,-0.00916,-0.03326,-0.0499,-0.01663,-0.00305,-0.00366,-0.00793,-0.01816,0.00076,-0.03098,-0.01923,0.01114,-0.03983
5.0385,-0.00259,-0.04303,-0.03372,-0.00778,-0.03403,-0.04868,-0.02777,-0.00702,-0.00687,-0.00549,-0.0174,0.0,-0.03311,-0.0174,0.0116,-0.04028
5.039,-0.00229,-0.04074,-0.0264,-0.00183,-0.03464,-0.04822,-0.03784,-0.0116,-0.01053,-0.0058,-0.01648,-0.00076,-0.03235,-0.01602,0.01251,-0.04196
5.0395,-0.00183,-0.03891,-0.01358,0.00153,-0.03448,-0.04776,-0.03937,-0.01266,-0.01389,-0.00778,-0.01419,-0.00122,-0.0293,-0.01633,0.01236,-0.04379
5.04,-0.00061,-0.03632,0.00031,-0.00671,-0.03342,-0.04623,-0.03128,-0.01053,-0.01663,-0.01068,-0.01297,-0.00244,-0.02838,-0.01694,0.01099,-0.04349
5.0405,0.00092,-0.03586,0.00717,-0.02457,-0.03296,-0.04593,-0.01968,-0.00824,-0.01877,-0.01312,-0.01144,-0.00244,-0.0293,-0.01633,0.00885,-0.04227
5.041,0.00198,-0.0354,0.00427,-0.03922,-0.03204,-0.04669,-0.01312,-0.0058,-0.02106,-0.01556,-0.01144,0.00015,-0.0296,-0.01617,0.0087,-0.04013
5.0415,0.00076,-0.03555,-0.00443,-0.04395,-0.03281,-0.04761,-0.01312,-0.00244,-0.02396,-0.01862,-0.01129,0.00153,-0.02808,-0.01617,0.01099,-0.03937
5.042,-0.00092,-0.03555,-0.01389,-0.04135,-0.03357,-0.04868,-0.01648,-0.00015,-0.0267,-0.02151,-0.01007,0.00046,-0.02625,-0.01663,0.01373,-0.03876
5.0425,-0.00275,-0.0354,-0.02136,-0.03983,-0.03387,-0.04913,-0.0177,0.00153,-0.02823,-0.0235,-0.00748,-0.00031,-0.02731,-0.01724,0.01633,-0.0383
5.043,-0.00305,-0.03586,-0.02594,-0.03189,-0.03372,-0.04944,-0.01434,0.00259,-0.02899,-0.02487,-0.00504,0.00046,-0.03082,-0.01785,0.01511,-0.03922
5.0435,-0.00473,-0.03464,-0.02869,-0.00427,-0.03479,-0.05081,-0.00946,0.00397,-0.03128,-0.02518,-0.00488,0.00198,-0.03357,-0.01938,0.01129,-0.04227
5.044,-0.00778,-0.03342,-0.03128,0.03021,-0.03586,-0.05112,-0.0061,0.00397,-0.03571,-0.02594,-0.00687,0.00214,-0.03464,-0.02075,0.00946,-0.04608
5.0445,-0.01007,-0.03296,-0.03494,0.03021,-0.03601,-0.05081,-0.00549,0.00229,-0.03998,-0.02808,-0.01022,0.00092,-0.03494,-0.02045,0.00931,-0.04883
5.045,-0.00977,-0.03479,-0.03876,-0.02213,-0.03647,-0.04883,-0.00732,0.00031,-0.03876,-0.03265,-0.01389,0.00046,-0.03433,-0.01877,0.00931,-0.04959
5.0455,-0.00961,-0.03754,-0.04333,-0.08957,-0.03601,-0.04669,-0.00916,-0.00015,-0.03342,-0.03708,-0.01999,0.00015,-0.03357,-0.01785,0.00839,-0.04761
5.046,-0.01175,-0.03876,-0.04837,-0.12375,-0.03403,-0.04501,-0.00992,0.00107,-0.02777,-0.04105,-0.0296,0.00092,-0.03281,-0.01877,0.00854,-0.0441
5.0465,-0.01205,-0.03983,-0.05371,-0.11841,-0.03113,-0.04456,-0.009,0.00198,-0.0264,-0.04242,-0.03922,0.00198,-0.03265,-0.01907,0.01022,-0.04074
5.047,-0.01038,-0.04059,-0.05905,-0.09903,-0.02914,-0.04364,-0.00946,0.00076,-0.02747,-0.04272,-0.04059,0.00336,-0.03296,-0.01892,0.01251,-0.04028
5.0475,-0.00732,-0.04089,-0.06424,-0.07385,-0.02853,-0.04547,-0.01083,-0.00168,-0.0293,-0.03983,-0.02808,0.0032,-0.03326,-0.01755,0.01221,-0.0415
5.048,-0.00366,-0.04196,-0.06989,-0.0206,-0.02808,-0.04776,-0.01099,-0.00198,-0.02991,-0.03555,-0.0061,0.00137,-0.03235,-0.01648,0.00977,-0.04166
5.0485,-0.00076,-0.04425,-0.08224,0.07263,-0.02899,-0.04791,-0.01022,-0.00092,-0.03067,-0.0296,0.01709,-0.00092,-0.03143,-0.01511,0.00702,-0.04089
5.049,0.00061,-0.04593,-0.10269,0.15793,-0.0296,-0.04623,-0.01099,-0.00061,-0.03082,-0.02335,0.03571,-0.00198,-0.03159,-0.01495,0.00397,-0.04044
5.0495,0.0,-0.04395,-0.11246,0.17197,-0.02991,-0.04379,-0.01328,-0.00031,-0.03036,-0.01938,0.04517,-0.00092,-0.03204,-0.01633,0.00366,-0.04181
5.05,-0.00122,-0.03967,-0.08911,0.1091,-0.03006,-0.0415,-0.01556,-0.00015,-0.02899,-0.01648,0.04089,0.00092,-0.03067,-0.01816,0.00504,-0.04135
5.0505,-0.00275,-0.03616,-0.0383,0.03372,-0.02899,-0.0415,-0.01617,0.00107,-0.02945,-0.01709,0.02716,0.00259,-0.03006,-0.01907,0.00748,-0.03967
5.051,-0.00473,-0.03555,0.01022,-0.00549,-0.02808,-0.04211,-0.01343,0.0,-0.03174,-0.01785,0.01236,0.00275,-0.03021,-0.01816,0.00931,-0.0386
5.0515,-0.00656,-0.03647,0.03479,-0.02533,-0.02945,-0.04227,-0.00961,-0.00565,-0.03647,-0.01831,0.0,0.00198,-0.0325,-0.01801,0.01007,-0.0383
5.052,-0.00885,-0.0383,0.03723,-0.05661,-0.03174,-0.04272,-0.00778,-0.0148,-0.03769,-0.01892,-0.009,0.00168,-0.03372,-0.02045,0.01053,-0.03799
5.0525,-0.01022,-0.03998,0.02991,-0.08484,-0.03326,-0.04425,-0.01022,-0.01923,-0.03571,-0.01938,-0.01526,0.00061,-0.03357,-0.02289,0.01144,-0.03738
5.053,-0.00961,-0.04211,0.0209,-0.07919,-0.03265,-0.04532,-0.01465,-0.01633,-0.03235,-0.01755,-0.01984,0.00061,-0.03387,-0.02396,0.01007,-0.03677
5.0535,-0.00793,-0.0444,0.0087,-0.04745,-0.03189,-0.04684,-0.01572,-0.00946,-0.03113,-0.01434,-0.02304,0.00015,-0.03418,-0.02426,0.00702,-0.03799
5.054,-0.00656,-0.04379,-0.0032,-0.01846,-0.03143,-0.04852,-0.01266,-0.00793,-0.02731,-0.01114,-0.02533,-0.00092,-0.03448,-0.02335,0.00504,-0.04089
5.0545,-0.00519,-0.04303,-0.01648,-0.00748,-0.03052,-0.0499,-0.009,-0.01282,-0.01953,-0.01083,-0.0264,-0.00183,-0.03464,-0.02213,0.00488,-0.04456
5.055,-0.00458,-0.04425,-0.02747,-0.00549,-0.03174,-0.05051,-0.0119,-0.0145,-0.01007,-0.01175,-0.0264,-0.00229,-0.03342,-0.0206,0.00671,-0.04562
5.0555,-0.00549,-0.04578,-0.03555,-0.00198,-0.03372,-0.05096,-0.01846,-0.00809,-0.00473,-0.01328,-0.0264,-0.00107,-0.03143,-0.01877,0.00748,-0.04471
5.056,-0.00946,-0.04654,-0.04028,0.0029,-0.0351,-0.04929,-0.02289,-0.00107,-0.0029,-0.0148,-0.02975,-0.00076,-0.03036,-0.01617,0.00656,-0.0441
5.0565,-0.01312,-0.04425,-0.0441,0.02289,-0.03387,-0.04837,-0.01984,0.00015,-0.00305,-0.01617,-0.0351,0.00015,-0.03113,-0.01434,0.00687,-0.04288
5.057,-0.01419,-0.04257,-0.05035,0.07385,-0.03265,-0.04807,-0.01465,-0.00198,-0.00046,-0.01862,-0.04288,0.00244,-0.0325,-0.01495,0.00748,-0.04257
5.0575,-0.01053,-0.04349,-0.05844,0.13397,-0.0322,-0.0473,-0.01282,-0.00229,0.00427,-0.01923,-0.0499,0.00397,-0.03235,-0.01633,0.009,-0.04166
5.058,-0.00534,-0.04562,-0.06439,0.15106,-0.03265,-0.04761,-0.01495,0.0,0.00839,-0.01785,-0.05157,0.00427,-0.03189,-0.01678,0.00916,-0.04105
5.0585,-0.0029,-0.04532,-0.06409,0.11108,-0.03433,-0.04868,-0.01709,0.00122,0.0116,-0.01541,-0.04868,0.00198,-0.03189,-0.01694,0.00793,-0.04166
5.059,-0.00259,-0.04211,-0.05692,0.05936,-0.0351,-0.04868,-0.0174,0.00046,0.01389,-0.01022,-0.04181,-0.00061,-0.03082,-0.0174,0.0058,-0.04211
5.0595,-0.0029,-0.03906,-0.0473,0.03632,-0.03418,-0.04745,-0.01648,-0.00092,0.01434,-0.00488,-0.0351,-0.00259,-0.02975,-0.01663,0.0032,-0.04303
5.06,-0.00107,-0.03815,-0.04013,0.0351,-0.03235,-0.04608,-0.01556,-0.00031,0.01266,-0.00137,-0.03159,-0.00275,-0.03006,-0.01617,0.00244,-0.04257
5.0605,0.00092,-0.03952,-0.03845,0.02869,-0.03006,-0.04501,-0.01434,0.00198,0.00854,-0.00076,-0.03098,-0.00183,-0.03021,-0.01495,0.00397,-0.0415
5.061,0.00137,-0.04013,-0.03876,0.01297,-0.02991,-0.04562,-0.01511,0.00473,0.00366,-0.00229,-0.0296,-0.00122,-0.03021,-0.01419,0.00473,-0.04089
5.0615,0.0,-0.03876,-0.03815,0.00443,-0.0296,-0.04562,-0.01572,0.0032,-0.00122,-0.00519,-0.02625,-0.00107,-0.03021,-0.01465,0.00504,-0.0412
5.062,-0.00107,-0.03693,-0.03601,0.00854,-0.03036,-0.0441,-0.01587,-0.00046,-0.00381,-0.00793,-0.01999,-0.00214,-0.03098,-0.0148,0.00534,-0.04135
5.0625,-0.00153,-0.03754,-0.03448,0.01343,-0.03204,-0.0441,-0.01434,-0.00336,-0.00366,-0.01114,-0.01343,-0.00305,-0.03326,-0.01587,0.00687,-0.04089
5.063,-0.0029,-0.03906,-0.03342,0.01389,-0.03326,-0.04395,-0.01053,-0.00381,-0.00214,-0.01495,-0.00809,-0.00229,-0.0351,-0.01587,0.00854,-0.03998
5.0635,-0.00381,-0.03876,-0.03265,0.01419,-0.03372,-0.04456,-0.00656,-0.00259,-0.00412,-0.01892,-0.00656,-0.00061,-0.03479,-0.0148,0.00854,-0.03937
5.064,-0.00412,-0.03662,-0.03235,0.01831,-0.03296,-0.04532,-0.00641,-0.00183,-0.00793,-0.02365,-0.01114,0.00092,-0.03281,-0.01343,0.00931,-0.0383
5.0645,-0.00214,-0.03479,-0.03235,0.02075,-0.03494,-0.04547,-0.01053,-0.00275,-0.00977,-0.0267,-0.02319,0.00076,-0.03036,-0.01358,0.01144,-0.03433
5.065,-0.00076,-0.03433,-0.03128,0.01404,-0.03952,-0.04501,-0.01358,-0.00366,-0.00931,-0.02808,-0.03937,0.00031,-0.0293,-0.01495,0.01312,-0.03021
5.0655,-0.00046,-0.03601,-0.0296,-0.00183,-0.0441,-0.04593,-0.01373,-0.0032,-0.00732,-0.02914,-0.04761,0.00153,-0.02945,-0.01648,0.01251,-0.02808
5.066,-0.00092,-0.03876,-0.02899,-0.02045,-0.04532,-0.04776,-0.01312,-0.00275,-0.00732,-0.03021,-0.04257,0.0029,-0.03082,-0.0177,0.01068,-0.03006
5.0665,-0.00214,-0.0415,-0.02945,-0.03311,-0.04471,-0.05112,-0.01373,-0.00244,-0.00824,-0.03143,-0.02533,0.00275,-0.03204,-0.01801,0.0116,-0.03387
5.067,-0.00183,-0.04349,-0.03036,-0.0383,-0.04364,-0.05539,-0.01556,-0.00183,-0.00992,-0.0325,-0.0061,0.00153,-0.03418,-0.01831,0.01297,-0.03754
5.0675,-0.00198,-0.04303,-0.03189,-0.0412,-0.04227,-0.06027,-0.01648,-0.00214,-0.01022,-0.03296,0.00595,0.00153,-0.03708,-0.01923,0.0116,-0.04242
5.068,-0.00244,-0.0415,-0.03342,-0.04654,-0.04059,-0.06271,-0.01587,-0.00351,-0.00839,-0.03281,0.01114,0.00122,-0.03784,-0.02075,0.00763,-0.0473
5.0685,-0.00275,-0.04074,-0.03647,-0.05219,-0.03922,-0.0592,-0.01602,-0.00504,-0.00549,-0.03098,0.01419,0.00092,-0.03769,-0.02197,0.00488,-0.05081
5.069,-0.00305,-0.04166,-0.04074,-0.04593,-0.0383,-0.05341,-0.01556,-0.00473,-0.00275,-0.02899,0.01602,0.00076,-0.03708,-0.02167,0.0061,-0.05112
5.0695,-0.00305,-0.04395,-0.04089,-0.01465,-0.03723,-0.04745,-0.01434,-0.00351,-0.00183,-0.02579,0.01678,0.00153,-0.03738,-0.02075,0.0087,-0.04913
5.07,-0.00473,-0.04623,-0.03845,0.03387,-0.03464,-0.04532,-0.01312,-0.00198,-0.00107,-0.02426,0.01602,0.00305,-0.03769,-0.01953,0.01007,-0.04898
5.0705,-0.0061,-0.04822,-0.03464,0.07126,-0.0325,-0.04593,-0.01404,-0.00244,0.00031,-0.02335,0.01495,0.0032,-0.03677,-0.01938,0.01099,-0.05096
5.071,-0.00763,-0.05005,-0.03265,0.07294,-0.03006,-0.04395,-0.01465,-0.00443,0.00168,-0.02487,0.01236,0.00183,-0.03555,-0.01968,0.01144,-0.05493
5.0715,-0.0087,-0.05203,-0.03174,0.04669,-0.02655,-0.0386,-0.0145,-0.00473,0.00214,-0.02914,0.00793,-0.00031,-0.03372,-0.01999,0.01175,-0.05417
5.072,-0.00809,-0.0531,-0.03036,0.01526,-0.02228,-0.03342,-0.01251,-0.0029,0.0,-0.03418,0.00076,-0.00153,-0.0325,-0.01938,0.00946,-0.04959
5.0725,-0.00687,-0.05295,-0.02594,-0.01099,-0.01968,-0.03174,-0.01068,0.0,-0.00305,-0.03418,-0.00229,-0.00122,-0.03296,-0.01907,0.00366,-0.04471
5.073,-0.00473,-0.05356,-0.02045,-0.03204,-0.02045,-0.03525,-0.00916,0.00244,-0.00549,-0.02747,0.00031,-0.00046,-0.03418,-0.01907,-0.00137,-0.04288
5.0735,-0.00168,-0.05478,-0.01648,-0.04852,-0.02304,-0.03998,-0.00946,0.00259,-0.00702,-0.01831,0.00641,-0.00092,-0.03464,-0.01877,-0.00061,-0.04364
5.074,0.00031,-0.05554,-0.01511,-0.06485,-0.02579,-0.04349,-0.00977,0.00168,-0.00977,-0.01144,0.01251,-0.00183,-0.03586,-0.01953,0.00381,-0.04532
5.0745,0.00153,-0.05554,-0.01511,-0.0856,-0.02686,-0.04654,-0.01007,0.00107,-0.01343,-0.00854,0.0148,-0.00122,-0.03647,-0.0209,0.00916,-0.04456
5.075,0.00153,-0.056,-0.02121,-0.10086,-0.02853,-0.04684,-0.0119,0.00412,-0.01831,-0.00824,0.01114,0.0,-0.03738,-0.02136,0.00931,-0.04349
5.0755,0.00092,-0.05417,-0.04715,-0.09674,-0.03113,-0.0473,-0.01953,0.00778,-0.0238,-0.00885,0.00046,0.00076,-0.03799,-0.02106,0.00595,-0.04288
5.076,0.00107,-0.04913,-0.09766,-0.07568,-0.0325,-0.04639,-0.03464,0.00854,-0.02777,-0.01007,-0.01205,0.0,-0.03906,-0.02121,0.00259,-0.04333
5.0765,0.00107,-0.04364,-0.14587,-0.05844,-0.03189,-0.04562,-0.04944,0.00443,-0.02823,-0.00931,-0.02075,-0.00046,-0.03952,-0.02045,0.00061,-0.04227
5.077,-0.00092,-0.0415,-0.14526,-0.056,-0.03128,-0.04654,-0.05463,-0.00534,-0.02594,-0.00824,-0.02258,-0.00015,-0.03922,-0.01892,0.00183,-0.03799
5.0775,-0.00565,-0.04227,-0.07965,-0.05997,-0.03036,-0.04791,-0.05005,-0.01648,-0.02304,-0.00793,-0.0209,0.00015,-0.03815,-0.01678,0.00427,-0.03387
5.078,-0.00977,-0.04333,0.00717,-0.05936,-0.0293,-0.04852,-0.03922,-0.0209,-0.02121,-0.0061,-0.01816,-0.00092,-0.03799,-0.01633,0.00443,-0.03494
5.0785,-0.01144,-0.04242,0.05875,-0.05356,-0.0293,-0.04715,-0.02289,-0.01434,-0.01877,-0.00275,-0.01541,-0.00107,-0.03815,-0.01816,0.00336,-0.04013
5.079,-0.01129,-0.03998,0.05844,-0.04349,-0.02869,-0.04608,0.00381,-0.00488,-0.01419,0.00076,-0.01358,-0.00031,-0.03723,-0.02045,0.00198,-0.04578
5.0795,-0.01022,-0.03693,0.03021,-0.03296,-0.02869,-0.04486,0.03967,0.00122,-0.009,-0.00015,-0.01328,0.00092,-0.03555,-0.01999,0.00244,-0.04807
5.08,-0.00946,-0.03418,0.00443,-0.0174,-0.02884,-0.04517,0.06363,0.00275,-0.00671,-0.00748,-0.01541,0.00122,-0.03326,-0.01892,0.00488,-0.04715
5.0805,-0.00946,-0.03189,-0.009,0.00427,-0.02991,-0.04517,0.05005,0.00381,-0.00656,-0.01755,-0.01938,0.00092,-0.03189,-0.01816,0.00336,-0.04608
5.081,-0.00839,-0.02747,-0.01434,0.02853,-0.03143,-0.04471,0.00702,0.00412,-0.00702,-0.0238,-0.02029,0.00076,-0.0325,-0.0177,0.00427,-0.04456
5.0815,-0.00763,-0.02274,-0.01816,0.04288,-0.03311,-0.04486,-0.02899,0.00031,-0.00565,-0.0238,-0.01816,0.00092,-0.03296,-0.01709,0.00687,-0.04227
5.082,-0.00702,-0.02197,-0.02533,0.03662,-0.03372,-0.04623,-0.03189,-0.00656,-0.00244,-0.01907,-0.01389,0.00229,-0.03143,-0.01755,0.01068,-0.03998
5.0825,-0.00534,-0.02426,-0.03906,0.01358,-0.0322,-0.04669,-0.01434,-0.0119,0.00046,-0.01114,-0.00946,0.00366,-0.02945,-0.01907,0.01389,-0.03967
5.083,-0.00259,-0.02594,-0.05661,-0.01282,-0.03067,-0.04471,-0.00214,-0.01038,0.00259,-0.00305,-0.00412,0.00534,-0.02808,-0.01984,0.01297,-0.03983
5.0835,0.00183,-0.02625,-0.07095,-0.03387,-0.03036,-0.04272,-0.00229,-0.0032,0.00229,0.00275,0.00458,0.00473,-0.02747,-0.01877,0.01129,-0.04028
5.084,0.00473,-0.0264,-0.07568,-0.04562,-0.03113,-0.04395,-0.00778,0.00412,-0.00198,0.00137,0.01678,0.0029,-0.02823,-0.01801,0.00885,-0.04242
5.0845,0.00519,-0.0322,-0.06927,-0.05234,-0.03235,-0.04608,-0.00946,0.00427,-0.0061,-0.00671,0.02747,0.00015,-0.02884,-0.01831,0.00732,-0.04379
5.085,0.00504,-0.04318,-0.05386,-0.06042,-0.03113,-0.0473,-0.00961,-0.00031,-0.00946,-0.02182,0.02655,-0.00107,-0.02884,-0.0177,0.00854,-0.04196
5.0855,0.0058,-0.05722,-0.03799,-0.07126,-0.02975,-0.04608,-0.01297,-0.00595,-0.01129,-0.03967,0.01526,-0.00015,-0.0296,-0.01709,0.01129,-0.0386
5.086,0.00732,-0.06973,-0.02762,-0.07675,-0.02731,-0.04486,-0.01816,-0.00809,-0.01358,-0.05432,0.0032,0.00137,-0.03098,-0.01633,0.01328,-0.03815
5.0865,0.00641,-0.07416,-0.02518,-0.07172,-0.02533,-0.04242,-0.01984,-0.00854,-0.01694,-0.05814,-0.00397,0.0029,-0.03311,-0.01617,0.0145,-0.04059
5.087,0.00443,-0.06927,-0.02701,-0.06577,-0.02274,-0.03967,-0.01678,-0.00732,-0.02258,-0.05386,-0.01068,0.00381,-0.03418,-0.01648,0.01495,-0.04196
5.0875,0.00183,-0.05936,-0.02975,-0.07431,-0.02106,-0.03876,-0.01282,-0.0061,-0.02914,-0.04715,-0.0174,0.00351,-0.03448,-0.01801,0.01251,-0.04074
5.088,0.00031,-0.05005,-0.03082,-0.09903,-0.02045,-0.03998,-0.01602,-0.00885,-0.03281,-0.04288,-0.02289,0.0029,-0.03372,-0.02029,0.01175,-0.03998
5.0885,-0.00076,-0.04395,-0.03113,-0.12344,-0.02167,-0.04456,-0.02655,-0.01083,-0.03067,-0.03571,-0.02457,0.00275,-0.03418,-0.01953,0.01221,-0.03906
5.089,-0.00244,-0.04089,-0.03098,-0.13123,-0.0235,-0.05112,-0.03922,-0.00778,-0.02594,-0.02274,-0.02487,0.0032,-0.03342,-0.01785,0.01282,-0.0386
5.0895,-0.0058,-0.03891,-0.03067,-0.11658,-0.02548,-0.05676,-0.04349,-0.00259,-0.02151,-0.01068,-0.02579,0.00351,-0.03281,-0.01755,0.01373,-0.03784
5.09,-0.01053,-0.03769,-0.03159,-0.08682,-0.02579,-0.05905,-0.03342,-0.00412,-0.02197,-0.00031,-0.02777,0.00275,-0.03281,-0.01831,0.01343,-0.03799
5.0905,-0.01556,-0.03616,-0.03326,-0.05173,-0.02747,-0.05814,-0.01602,-0.01282,-0.02533,0.00412,-0.03021,0.00046,-0.03311,-0.01907,0.01328,-0.03784
5.091,-0.01816,-0.03418,-0.0351,-0.02411,-0.02747,-0.05737,-0.0061,-0.02075,-0.02792,0.00397,-0.03494,0.0,-0.03326,-0.01968,0.01251,-0.03876
5.0915,-0.01694,-0.03189,-0.03418,-0.00885,-0.02548,-0.05646,-0.00824,-0.01968,-0.02762,0.00107,-0.04105,-0.00046,-0.03281,-0.01999,0.01129,-0.03983
5.092,-0.01297,-0.03128,-0.03281,0.00076,-0.02441,-0.05722,-0.01236,-0.01114,-0.02396,-0.00336,-0.04868,-0.00107,-0.03204,-0.01984,0.01068,-0.04074
5.0925,-0.00839,-0.0325,-0.03021,0.00946,-0.02579,-0.05508,-0.01373,-0.00351,-0.01831,-0.00595,-0.05127,-0.00229,-0.03143,-0.01923,0.00961,-0.04181
5.093,-0.00656,-0.03403,-0.02747,0.01953,-0.02792,-0.05081,-0.01434,-0.00168,-0.0119,-0.0058,-0.04745,-0.0029,-0.02899,-0.01907,0.00977,-0.04318
5.0935,-0.00793,-0.03479,-0.02457,0.02686,-0.0296,-0.04456,-0.02075,-0.00305,-0.00519,-0.00351,-0.04135,-0.00076,-0.02792,-0.0177,0.00916,-0.0441
5.094,-0.00854,-0.03357,-0.0235,0.02945,-0.03143,-0.03784,-0.02777,-0.00381,-0.00031,-0.00137,-0.03616,0.00214,-0.02899,-0.01617,0.0087,-0.04349
5.0945,-0.00824,-0.03143,-0.02594,0.0267,-0.03189,-0.03464,-0.02823,-0.0032,0.00168,-0.00275,-0.03403,0.00427,-0.03204,-0.01587,0.00809,-0.04089
5.095,-0.00702,-0.03128,-0.03021,0.02136,-0.03204,-0.03448,-0.02136,-0.0029,0.00198,-0.009,-0.03311,0.00305,-0.03311,-0.01831,0.01083,-0.03952
5.0955,-0.00687,-0.03342,-0.03204,0.01572,-0.0325,-0.03708,-0.01266,-0.00412,0.00244,-0.01709,-0.03128,0.00214,-0.03296,-0.02045,0.01373,-0.03998
5.096,-0.00595,-0.03738,-0.03204,0.01495,-0.03235,-0.03937,-0.00763,-0.00534,0.00137,-0.02441,-0.02945,0.00076,-0.03235,-0.02014,0.01541,-0.04074
5.0965,-0.00549,-0.03937,-0.03174,0.01694,-0.0325,-0.04196,-0.00641,-0.00641,-0.00122,-0.02701,-0.02594,-0.00031,-0.03189,-0.01907,0.01587,-0.03952
5.097,-0.00549,-0.03952,-0.03571,0.01862,-0.03189,-0.04517,-0.00687,-0.00717,-0.00748,-0.02884,-0.02258,-0.00275,-0.03052,-0.01816,0.01572,-0.03708
5.0975,-0.00687,-0.03876,-0.04364,0.02014,-0.03174,-0.04868,-0.00793,-0.00778,-0.01526,-0.02899,-0.01724,-0.00473,-0.02975,-0.0177,0.01663,-0.03586
5.098,-0.00809,-0.0383,-0.05386,0.02106,-0.03265,-0.05417,-0.00671,-0.00763,-0.02197,-0.02762,-0.01251,-0.00549,-0.03021,-0.01831,0.01785,-0.03769
5.0985,-0.00793,-0.0386,-0.05966,0.02151,-0.0354,-0.05951,-0.00381,-0.00534,-0.02655,-0.02441,-0.01099,-0.00397,-0.03113,-0.01953,0.01801,-0.04181
5.099,-0.00534,-0.03815,-0.06073,0.01938,-0.03784,-0.0621,-0.00137,-0.00214,-0.02777,-0.0177,-0.01022,-0.00076,-0.03113,-0.01999,0.01526,-0.0444
5.0995,-0.00214,-0.03937,-0.05737,0.01419,-0.03983,-0.06271,-0.0058,0.00061,-0.02762,-0.00824,-0.01022,0.0029,-0.0296,-0.02045,0.01053,-0.04211
5.1,-0.00031,-0.04028,-0.05264,0.00931,-0.03983,-0.06393,-0.01923,0.00168,-0.03036,0.00168,-0.00931,0.00458,-0.02823,-0.0206,0.00549,-0.03647
5.1005,0.00107,-0.04059,-0.04532,0.00458,-0.03815,-0.06454,-0.03738,0.00092,-0.03281,0.00778,-0.01053,0.00305,-0.02991,-0.02045,0.00153,-0.03143
5.101,0.00107,-0.04044,-0.03235,0.00122,-0.03571,-0.06287,-0.04684,-0.00076,-0.03342,0.00671,-0.01236,-0.00031,-0.0325,-0.02075,-0.00092,-0.02991
5.1015,0.00076,-0.03891,-0.01877,-0.00031,-0.03189,-0.05829,-0.0412,-0.00427,-0.03036,0.00107,-0.01083,-0.00244,-0.03326,-0.02136,-0.00076,-0.03265
5.102,-0.00092,-0.0354,-0.00931,-0.00275,-0.02716,-0.05402,-0.02258,-0.0058,-0.0264,-0.00366,-0.00809,-0.0029,-0.03265,-0.02136,0.00336,-0.03723
5.1025,-0.0032,-0.03189,-0.00595,-0.00641,-0.02304,-0.05051,-0.00504,-0.00214,-0.02289,-0.00839,-0.00793,-0.00259,-0.03235,-0.02014,0.00854,-0.0415
5.103,-0.00427,-0.02945,-0.00748,-0.00931,-0.02182,-0.05035,0.00397,0.00381,-0.01984,-0.0116,-0.01083,-0.00305,-0.03265,-0.02075,0.01236,-0.0441
5.1035,-0.00412,-0.02991,-0.01099,-0.00992,-0.02502,-0.05005,0.00336,0.00549,-0.01801,-0.01465,-0.01328,-0.00381,-0.03265,-0.02182,0.01312,-0.04623
5.104,-0.00351,-0.03296,-0.01404,-0.009,-0.03021,-0.04913,-0.00549,0.0,-0.01633,-0.01862,-0.01358,-0.0029,-0.03174,-0.02213,0.01343,-0.04822
5.1045,-0.00275,-0.03632,-0.01633,-0.00839,-0.03448,-0.04807,-0.01587,-0.00702,-0.01495,-0.02151,-0.01251,-0.00153,-0.03067,-0.02106,0.01312,-0.04883
5.105,-0.00214,-0.03937,-0.01923,-0.00854,-0.03876,-0.04791,-0.02228,-0.00839,-0.01297,-0.02304,-0.01419,-0.00122,-0.03143,-0.01968,0.00946,-0.0473
5.1055,-0.00153,-0.03983,-0.0238,-0.00748,-0.04425,-0.04684,-0.01968,-0.0032,-0.01175,-0.02365,-0.01373,-0.00137,-0.03235,-0.01877,0.00229,-0.04745
5.106,-0.00198,-0.03937,-0.02914,-0.0032,-0.05157,-0.04883,-0.0119,0.00061,-0.01312,-0.02365,-0.01038,-0.00061,-0.03281,-0.01892,-0.00488,-0.04929
5.1065,-0.00336,-0.0383,-0.03204,0.00092,-0.05737,-0.05081,-0.00671,0.00031,-0.01755,-0.02304,-0.00656,0.00122,-0.03311,-0.02014,-0.00717,-0.04944
5.107,-0.00443,-0.03784,-0.0293,0.00046,-0.05844,-0.05112,-0.00687,0.0,-0.01892,-0.02365,-0.0061,0.00244,-0.03433,-0.0206,-0.00168,-0.04684
5.1075,-0.0061,-0.03708,-0.02686,-0.00732,-0.05524,-0.0499,-0.00977,0.00031,-0.01801,-0.02594,-0.00778,0.00076,-0.0354,-0.01846,0.00336,-0.04593
5.108,-0.00702,-0.03571,-0.0293,-0.01648,-0.04807,-0.04929,-0.01022,0.0,-0.01556,-0.02747,-0.00977,-0.00244,-0.03464,-0.01602,0.0029,-0.04944
5.1085,-0.00763,-0.0354,-0.04028,-0.0206,-0.04044,-0.04883,-0.0116,-0.00061,-0.01465,-0.02884,-0.00977,-0.00336,-0.03342,-0.01419,0.0,-0.05127
5.109,-0.00916,-0.03662,-0.05432,-0.01801,-0.03235,-0.047,-0.01526,0.00061,-0.01465,-0.0296,-0.00793,-0.00305,-0.03265,-0.01541,0.00076,-0.04883
5.1095,-0.01205,-0.0386,-0.06027,-0.00046,-0.02487,-0.04349,-0.0209,0.00366,-0.01404,-0.03036,-0.00549,-0.00092,-0.03159,-0.01648,0.00656,-0.0444
5.11,-0.01678,-0.03799,-0.05737,0.03891,-0.01724,-0.04059,-0.02289,0.00687,-0.01328,-0.03189,-0.00412,-0.00076,-0.03143,-0.01709,0.00992,-0.04303
5.1105,-0.02151,-0.03586,-0.04807,0.07843,-0.01282,-0.03967,-0.02167,0.00885,-0.01389,-0.03448,-0.00534,-0.00183,-0.03159,-0.01648,0.01038,-0.0441
5.111,-0.02243,-0.03693,-0.03754,0.08331,-0.01221,-0.0412,-0.02029,0.00839,-0.01343,-0.03601,-0.00687,-0.00198,-0.0325,-0.01541,0.00946,-0.04501
5.1115,-0.01938,-0.04074,-0.02655,0.06271,-0.01633,-0.04379,-0.01862,0.00839,-0.01282,-0.03586,-0.00916,-0.00122,-0.03296,-0.01511,0.00946,-0.0441
5.112,-0.01511,-0.04517,-0.01846,0.0621,-0.02228,-0.04486,-0.01556,0.0087,-0.01083,-0.03387,-0.01297,-0.00015,-0.0322,-0.01511,0.00916,-0.04395
5.1125,-0.01007,-0.04593,-0.01617,0.08728,-0.02899,-0.04456,-0.00748,0.00748,-0.00961,-0.0322,-0.01572,-0.00015,-0.03098,-0.01694,0.00702,-0.04333
5.113,-0.00626,-0.04272,-0.01938,0.08667,-0.03403,-0.04349,0.0029,0.0029,-0.01114,-0.03052,-0.01572,-0.00061,-0.03067,-0.01785,0.00671,-0.04257
5.1135,-0.00259,-0.03662,-0.02502,0.03387,-0.03586,-0.04257,0.00748,-0.0029,-0.01633,-0.02869,-0.01373,-0.00107,-0.0322,-0.01755,0.00626,-0.04333
5.114,-0.00046,-0.03433,-0.02991,-0.02609,-0.03601,-0.04333,0.00229,-0.00626,-0.02396,-0.0264,-0.0145,-0.00122,-0.03448,-0.01709,0.00549,-0.04395
5.1145,0.00076,-0.04013,-0.0293,-0.04257,-0.03479,-0.0441,-0.00671,-0.00443,-0.03204,-0.02274,-0.01862,-0.00076,-0.03464,-0.01633,0.00626,-0.04257
5.115,0.00259,-0.0502,-0.02289,-0.02045,-0.03189,-0.04456,-0.01144,-0.00076,-0.03769,-0.01938,-0.01999,0.00015,-0.03311,-0.01572,0.00809,-0.03891
5.1155,0.00534,-0.05859,-0.01511,-0.00366,-0.02884,-0.0444,-0.01297,-0.00015,-0.04135,-0.01297,-0.01709,0.00214,-0.03311,-0.01755,0.01068,-0.03693
5.116,0.00732,-0.06256,-0.0119,-0.01007,-0.02731,-0.04272,-0.01328,-0.00137,-0.04257,-0.00824,-0.01251,0.00381,-0.0351,-0.02045,0.01251,-0.03784
5.1165,0.00671,-0.06256,-0.01465,-0.01877,-0.02777,-0.0412,-0.01358,-0.00473,-0.03967,-0.00534,-0.01205,0.00473,-0.03754,-0.02197,0.01511,-0.03998
5.117,0.00443,-0.06195,-0.02075,-0.00214,-0.02899,-0.04059,-0.01328,-0.00671,-0.03418,-0.00641,-0.01358,0.00351,-0.0383,-0.02243,0.01831,-0.03967
5.1175,0.00259,-0.06073,-0.02701,0.03647,-0.02853,-0.0412,-0.01389,-0.00748,-0.0293,-0.00931,-0.01541,0.0032,-0.03662,-0.02121,0.01984,-0.0383
5.118,0.00259,-0.06134,-0.03342,0.06577,-0.02777,-0.04211,-0.01831,-0.00778,-0.02655,-0.01099,-0.01511,0.00351,-0.03433,-0.02075,0.01846,-0.03601
5.1185,0.00397,-0.06226,-0.03876,0.06073,-0.02777,-0.04364,-0.02243,-0.00885,-0.02548,-0.01205,-0.01419,0.00275,-0.03433,-0.0209,0.01709,-0.03464
5.119,0.00519,-0.06271,-0.04272,0.02884,-0.02945,-0.04547,-0.0238,-0.00931,-0.02487,-0.01312,-0.01389,0.00137,-0.03586,-0.0206,0.01495,-0.03296
5.1195,0.00488,-0.05936,-0.04547,-0.00427,-0.03098,-0.04654,-0.02182,-0.00839,-0.02487,-0.01389,-0.01434,0.00092,-0.03784,-0.01938,0.01099,-0.03265
5.12,0.00275,-0.05539,-0.04745,-0.02213,-0.03067,-0.04776,-0.01801,-0.00595,-0.02335,-0.01389,-0.01511,0.00275,-0.03769,-0.01892,0.00595,-0.03571
5.1205,-0.00061,-0.05219,-0.04974,-0.02701,-0.02853,-0.04776,-0.01358,-0.00412,-0.01953,-0.01404,-0.01572,0.00198,-0.03647,-0.01923,0.0032,-0.03952
5.121,-0.00366,-0.05035,-0.05112,-0.02777,-0.02884,-0.04715,-0.00824,-0.00305,-0.01617,-0.01587,-0.01999,-0.00046,-0.03448,-0.01984,0.00366,-0.04074
5.1215,-0.00397,-0.04791,-0.04959,-0.02975,-0.03006,-0.04669,-0.00412,-0.00244,-0.01556,-0.01923,-0.0325,-0.00259,-0.03235,-0.01938,0.00778,-0.04181
5.122,-0.00381,-0.04547,-0.04776,-0.03601,-0.03143,-0.04654,-0.00702,-0.00015,-0.01572,-0.02197,-0.04944,-0.00397,-0.03113,-0.01862,0.0116,-0.04333
5.1225,-0.00351,-0.0441,-0.04868,-0.05142,-0.0325,-0.04623,-0.0148,0.00275,-0.01556,-0.02411,-0.06058,-0.00351,-0.03098,-0.01831,0.01129,-0.04486
5.123,-0.00198,-0.04349,-0.05127,-0.0737,-0.03174,-0.04501,-0.02167,0.00565,-0.01297,-0.02609,-0.05569,-0.00168,-0.03128,-0.01862,0.00549,-0.04333
5.1235,-0.00107,-0.04257,-0.0531,-0.08942,-0.03159,-0.04471,-0.02441,0.00687,-0.00931,-0.0267,-0.03876,-0.00031,-0.03113,-0.01953,-0.00168,-0.0412
5.124,-0.00046,-0.04135,-0.05112,-0.09064,-0.02975,-0.04547,-0.02502,0.00519,-0.00595,-0.02747,-0.01999,0.00061,-0.02975,-0.01938,-0.00412,-0.04013
5.1245,-0.00076,-0.04044,-0.04608,-0.0856,-0.02731,-0.04547,-0.02869,0.00198,-0.00336,-0.02716,-0.00534,0.00122,-0.02945,-0.01862,-0.00198,-0.04089
5.125,-0.00122,-0.04089,-0.04211,-0.08606,-0.02548,-0.04395,-0.03448,0.00031,-0.00275,-0.02716,0.00458,0.00244,-0.03082,-0.01724,0.00229,-0.0415
5.1255,-0.00061,-0.04166,-0.03967,-0.08789,-0.02441,-0.0415,-0.03281,0.00137,-0.00244,-0.02899,0.00778,0.00259,-0.03235,-0.01633,0.00534,-0.04059
5.126,0.0,-0.03983,-0.03754,-0.0705,-0.02304,-0.04135,-0.01709,0.00153,-0.00305,-0.03494,0.00549,0.00214,-0.03357,-0.01526,0.01007,-0.04135
5.1265,0.0,-0.03662,-0.03448,-0.0235,-0.02243,-0.04257,0.00214,-0.00305,-0.0058,-0.04272,0.00397,0.00153,-0.03387,-0.01465,0.01633,-0.04272
5.127,-0.00183,-0.03601,-0.03067,0.02747,-0.02441,-0.04578,0.00473,-0.01144,-0.01022,-0.0499,0.00748,0.00137,-0.03418,-0.01541,0.01907,-0.04181
5.1275,-0.00412,-0.03845,-0.02808,0.0444,-0.02731,-0.04837,-0.00916,-0.01862,-0.01495,-0.04974,0.0145,0.0029,-0.03174,-0.01755,0.01816,-0.03799
5.128,-0.00504,-0.03998,-0.02747,0.02365,-0.0296,-0.05096,-0.01953,-0.01755,-0.0174,-0.04272,0.01846,0.00412,-0.03006,-0.01923,0.01648,-0.03616
5.1285,-0.00412,-0.03922,-0.02853,-0.00198,-0.03174,-0.05035,-0.00977,-0.00778,-0.01785,-0.03235,0.01846,0.00381,-0.02808,-0.01831,0.01297,-0.03983
5.129,-0.00366,-0.0383,-0.02975,-0.00946,-0.03555,-0.04883,0.01205,0.00351,-0.0177,-0.02319,0.0148,0.00122,-0.02823,-0.01663,0.00885,-0.047
5.1295,-0.00549,-0.03738,-0.02899,-0.01541,-0.03876,-0.0473,0.02563,0.00717,-0.01785,-0.01755,0.01129,-0.00137,-0.02975,-0.01587,0.00381,-0.05066
5.13,-0.00763,-0.03632,-0.02716,-0.03845,-0.04013,-0.04623,0.0145,0.00122,-0.01877,-0.01404,0.00748,-0.00168,-0.03204,-0.01755,0.00214,-0.04959
5.1305,-0.00839,-0.03433,-0.0264,-0.07721,-0.03922,-0.04395,-0.01678,-0.0087,-0.01984,-0.01205,0.00427,-0.00122,-0.03372,-0.01862,0.00305,-0.04684
5.131,-0.00809,-0.03342,-0.02594,-0.1123,-0.03708,-0.03784,-0.04211,-0.01526,-0.02075,-0.01022,0.00198,-0.00092,-0.03418,-0.01801,0.00412,-0.04425
5.1315,-0.00793,-0.03265,-0.02823,-0.12878,-0.0354,-0.03281,-0.03937,-0.01694,-0.02045,-0.00778,0.00107,-0.00092,-0.03281,-0.01694,0.0061,-0.0444
5.132,-0.0087,-0.03174,-0.03876,-0.11429,-0.0351,-0.03082,-0.01846,-0.01495,-0.02045,-0.00656,0.00122,-0.00122,-0.03021,-0.01724,0.00717,-0.0441
5.1325,-0.00885,-0.03036,-0.0621,-0.06165,-0.03754,-0.03357,-0.00153,-0.01083,-0.02258,-0.00549,0.00198,-0.00076,-0.02823,-0.01785,0.00595,-0.04395
5.133,-0.00778,-0.02853,-0.09155,0.00259,-0.04166,-0.03922,-0.00031,-0.00732,-0.02548,-0.00534,0.00061,-0.00031,-0.02731,-0.0174,0.0061,-0.04333
5.1335,-0.00641,-0.02716,-0.10422,0.02487,-0.04303,-0.04501,-0.00748,-0.00702,-0.02625,-0.00595,-0.00259,0.0,-0.02747,-0.01678,0.00687,-0.04196
5.134,-0.00595,-0.02853,-0.08453,-0.01251,-0.04105,-0.05035,-0.01221,-0.01083,-0.02426,-0.00458,-0.00687,0.00061,-0.02869,-0.01694,0.009,-0.03983
5.1345,-0.00656,-0.0322,-0.04333,-0.05295,-0.03754,-0.056,-0.01343,-0.01617,-0.02167,0.00031,-0.00977,0.00107,-0.02914,-0.01816,0.00977,-0.03922
5.135,-0.0058,-0.03525,-0.00793,-0.02106,-0.0351,-0.06332,-0.01328,-0.01907,-0.0174,0.00626,-0.01114,0.00153,-0.02838,-0.01846,0.009,-0.03952
5.1355,-0.00443,-0.03586,0.00687,0.08392,-0.0351,-0.06821,-0.01144,-0.01541,-0.01343,0.009,-0.01038,0.00107,-0.02823,-0.01785,0.009,-0.04074
5.136,-0.00275,-0.03632,0.00595,0.18738,-0.03464,-0.06897,-0.00885,-0.00641,-0.01022,0.00504,-0.00977,0.00092,-0.02975,-0.01602,0.01007,-0.03998
5.1365,-0.00275,-0.03876,-0.00168,0.21286,-0.03082,-0.06454,-0.00824,0.00137,-0.00961,-0.00366,-0.01038,0.00076,-0.03067,-0.01541,0.01053,-0.03891
5.137,-0.00534,-0.04135,-0.00977,0.159,-0.02777,-0.06012,-0.01114,0.00519,-0.01099,-0.00977,-0.01236,0.00076,-0.03098,-0.01526,0.01007,-0.03876
5.1375,-0.00946,-0.0412,-0.01572,0.08347,-0.02701,-0.05951,-0.01434,0.0058,-0.01068,-0.01343,-0.01434,-0.00031,-0.02991,-0.01602,0.01083,-0.03906
5.138,-0.01312,-0.03937,-0.01755,0.03616,-0.02823,-0.06516,-0.01511,0.00641,-0.0061,-0.01556,-0.01526,-0.00122,-0.02914,-0.01709,0.01053,-0.03922
5.1385,-0.01266,-0.03952,-0.01862,0.01709,-0.02899,-0.07126,-0.01495,0.00626,-0.00122,-0.01953,-0.01663,-0.00153,-0.02991,-0.01785,0.00839,-0.04028
5.139,-0.009,-0.04105,-0.02167,0.00595,-0.02731,-0.07355,-0.0148,0.00381,-0.00061,-0.02274,-0.0174,-0.00061,-0.03235,-0.0174,0.00702,-0.04196
5.1395,-0.00519,-0.04242,-0.02869,-0.00778,-0.02579,-0.06805,-0.01434,-0.00015,-0.0029,-0.02518,-0.01755,0.00015,-0.03357,-0.01587,0.00656,-0.04196
5.14,-0.00534,-0.04227,-0.0351,-0.01465,-0.02548,-0.0563,-0.01175,-0.00336,-0.00519,-0.02502,-0.01572,0.00198,-0.03281,-0.01617,0.00732,-0.04105
5.1405,-0.00732,-0.04288,-0.0386,-0.01236,-0.02716,-0.04715,-0.01053,-0.00488,-0.00519,-0.02579,-0.00992,0.00259,-0.03021,-0.01816,0.00809,-0.04059
5.141,-0.00931,-0.04623,-0.04242,-0.0061,-0.02991,-0.04211,-0.0119,-0.00397,-0.00381,-0.02701,-0.00122,0.00244,-0.02792,-0.01923,0.00854,-0.0415
5.1415,-0.00687,-0.05219,-0.0444,-0.00305,-0.02945,-0.03845,-0.01617,-0.0029,-0.00061,-0.02808,0.00397,0.00244,-0.02625,-0.01953,0.0087,-0.04135
5.142,-0.00305,-0.05722,-0.04272,-0.00748,-0.02563,-0.03265,-0.01923,-0.0032,0.00168,-0.02975,-0.00229,0.00351,-0.02563,-0.01877,0.00961,-0.0412
5.1425,-0.00076,-0.05814,-0.03647,-0.01968,-0.02411,-0.02563,-0.02106,-0.00427,0.00275,-0.03128,-0.01785,0.00458,-0.02625,-0.01907,0.00839,-0.04074
5.143,-0.00153,-0.05524,-0.02914,-0.03006,-0.02396,-0.01999,-0.02014,-0.00595,0.00198,-0.03159,-0.03143,0.00443,-0.02777,-0.01953,0.00839,-0.0412
5.1435,-0.00473,-0.05096,-0.02655,-0.03098,-0.02457,-0.01724,-0.01816,-0.00748,0.00198,-0.03204,-0.03754,0.00351,-0.03021,-0.02029,0.00824,-0.04211
5.144,-0.00595,-0.04639,-0.02884,-0.02228,-0.02457,-0.01556,-0.01602,-0.00702,0.00275,-0.03143,-0.03891,0.00229,-0.03189,-0.02151,0.00809,-0.04272
5.1445,-0.00656,-0.04211,-0.03281,-0.01801,-0.02472,-0.0119,-0.01678,-0.00656,0.00092,-0.0322,-0.04074,0.00092,-0.0322,-0.02243,0.00763,-0.04318
5.145,-0.00641,-0.03845,-0.03601,-0.02594,-0.02472,-0.00336,-0.01923,-0.00488,-0.00259,-0.03433,-0.0415,0.00061,-0.03036,-0.02182,0.00717,-0.04257
5.1455,-0.00549,-0.03769,-0.03555,-0.03754,-0.02487,0.00671,-0.01953,-0.00183,-0.00488,-0.0386,-0.03891,0.00061,-0.02869,-0.02045,0.00809,-0.04074
5.146,-0.00381,-0.03815,-0.03418,-0.03876,-0.02518,0.01434,-0.01572,0.00122,-0.00458,-0.04242,-0.03479,0.0,-0.02747,-0.01862,0.00824,-0.03891
5.1465,-0.00153,-0.03876,-0.03433,-0.02945,-0.02884,0.01617,-0.01144,0.00443,-0.00519,-0.0415,-0.03098,-0.00183,-0.02808,-0.01816,0.00732,-0.03799
5.147,-0.00137,-0.03723,-0.03799,-0.02106,-0.03403,0.00702,-0.01007,0.00473,-0.00732,-0.03479,-0.02762,-0.00259,-0.02899,-0.01907,0.00626,-0.03937
5.1475,-0.00183,-0.03494,-0.04135,-0.02106,-0.03876,-0.01556,-0.0116,0.00427,-0.0087,-0.0264,-0.02502,-0.00122,-0.02975,-0.01984,0.00641,-0.04074
5.148,-0.00137,-0.03265,-0.04028,-0.02548,-0.04059,-0.04929,-0.01404,0.00275,-0.00946,-0.02274,-0.02487,-0.00015,-0.03143,-0.02121,0.00793,-0.04379
5.1485,-0.00061,-0.03067,-0.0322,-0.02991,-0.0412,-0.08118,-0.01587,0.0,-0.01129,-0.02365,-0.02502,0.00076,-0.03418,-0.02228,0.00839,-0.04623
5.149,-0.00031,-0.02808,-0.01709,-0.02975,-0.03769,-0.09445,-0.01617,-0.00336,-0.0119,-0.02609,-0.02426,0.00061,-0.03708,-0.02289,0.00809,-0.04761
5.1495,-0.00015,-0.02426,-0.00641,-0.02014,-0.03448,-0.08835,-0.01495,-0.00351,-0.00702,-0.0235,-0.02441,-0.00031,-0.0383,-0.02167,0.00717,-0.04425
5.15,0.00015,-0.02121,-0.00412,-0.00732,-0.02914,-0.07675,-0.01221,-0.00031,0.00107,-0.01541,-0.0235,-0.00107,-0.03708,-0.01862,0.00809,-0.03845
5.1505,0.00183,-0.01923,-0.009,-0.00809,-0.02487,-0.07462,-0.01038,0.00122,0.00443,-0.00397,-0.02075,-0.00107,-0.03647,-0.01572,0.00916,-0.03464
5.151,0.00366,-0.02121,-0.0145,-0.02716,-0.02243,-0.08728,-0.00977,0.00076,0.00137,0.01007,-0.01617,-0.00046,-0.03769,-0.0148,0.00839,-0.03571
5.1515,0.00366,-0.02594,-0.01877,-0.05188,-0.02106,-0.11032,-0.00916,0.00031,-0.00244,0.02579,-0.01297,0.00061,-0.03815,-0.01495,0.0087,-0.03799
5.152,0.00229,-0.02991,-0.02411,-0.06592,-0.02197,-0.13718,-0.00946,0.00244,-0.00198,0.03693,-0.01282,0.00092,-0.03784,-0.01495,0.00641,-0.04059
5.1525,0.00122,-0.02991,-0.03067,-0.06393,-0.02457,-0.15488,-0.00961,0.00519,0.0,0.03647,-0.01526,0.00092,-0.03586,-0.0148,0.00488,-0.04166
5.153,0.00061,-0.02884,-0.03647,-0.04349,-0.02777,-0.15213,-0.01022,0.00549,-0.00031,0.02655,-0.0209,0.00031,-0.03342,-0.01511,0.00549,-0.04211
5.1535,-0.00092,-0.03052,-0.03983,-0.00214,-0.03021,-0.12848,-0.01282,0.00244,-0.00305,0.0145,-0.03052,-0.00046,-0.0322,-0.01556,0.00687,-0.04196
5.154,-0.00458,-0.03632,-0.04196,0.04227,-0.03296,-0.09644,-0.01617,-0.00046,-0.00626,0.00565,-0.03708,-0.00168,-0.0322,-0.01587,0.00671,-0.04288
5.1545,-0.009,-0.04562,-0.04211,0.05905,-0.03326,-0.07019,-0.01984,-0.00183,-0.00778,-0.00015,-0.0351,-0.00244,-0.03128,-0.01572,0.00717,-0.04395
5.155,-0.01404,-0.05356,-0.04135,0.04242,-0.03128,-0.05615,-0.02289,-0.0029,-0.0087,-0.00702,-0.02701,-0.00244,-0.03159,-0.01526,0.00854,-0.04395
5.1555,-0.01877,-0.05478,-0.0415,0.01907,-0.02991,-0.05264,-0.0235,-0.00458,-0.01007,-0.0148,-0.0206,-0.00244,-0.03433,-0.01724,0.00931,-0.04257
5.156,-0.0206,-0.05081,-0.04456,0.01312,-0.03036,-0.05173,-0.02136,-0.00397,-0.01343,-0.02121,-0.02182,-0.00214,-0.03677,-0.01892,0.00885,-0.0415
5.1565,-0.02014,-0.04562,-0.04913,0.01801,-0.03372,-0.05035,-0.01724,-0.00214,-0.01633,-0.02701,-0.02762,-0.00137,-0.03723,-0.01923,0.00748,-0.04166
5.157,-0.01862,-0.04257,-0.05188,0.01083,-0.03677,-0.04669,-0.01434,-0.00153,-0.01785,-0.03357,-0.03128,-0.00015,-0.03738,-0.01816,0.00763,-0.04288
5.1575,-0.01694,-0.04089,-0.05325,-0.0116,-0.03906,-0.04242,-0.0119,-0.00229,-0.01923,-0.03891,-0.02899,0.00122,-0.03784,-0.0177,0.0087,-0.04333
5.158,-0.01709,-0.04105,-0.05463,-0.03433,-0.03876,-0.03983,-0.009,-0.00351,-0.02228,-0.03983,-0.02411,0.00244,-0.0383,-0.01923,0.0116,-0.04196
5.1585,-0.01694,-0.04425,-0.06073,-0.04578,-0.03845,-0.03784,-0.00717,-0.00473,-0.02762,-0.03815,-0.01999,0.00275,-0.03815,-0.02106,0.01373,-0.04196
5.159,-0.01434,-0.0499,-0.06683,-0.05264,-0.03815,-0.0351,-0.00885,-0.0058,-0.03281,-0.03387,-0.01617,0.00214,-0.03738,-0.02197,0.01389,-0.04196
5.1595,-0.00977,-0.05432,-0.06836,-0.0647,-0.03708,-0.03265,-0.01297,-0.00671,-0.03677,-0.02899,-0.01068,0.00244,-0.03586,-0.02136,0.01266,-0.04211
5.16,-0.00488,-0.05478,-0.06393,-0.07874,-0.03525,-0.03036,-0.01709,-0.00595,-0.03815,-0.02258,-0.00473,0.00275,-0.0351,-0.02167,0.01068,-0.04196
5.1605,-0.00153,-0.05005,-0.05814,-0.08347,-0.03418,-0.0296,-0.01968,-0.00412,-0.03693,-0.01511,-0.00168,0.00229,-0.03479,-0.02274,0.00931,-0.04181
5.161,0.00076,-0.04501,-0.05585,-0.06943,-0.03326,-0.02975,-0.0206,-0.00351,-0.03677,-0.009,-0.00168,0.00168,-0.03433,-0.02304,0.00824,-0.0412
5.1615,0.00397,-0.04211,-0.05295,-0.0444,-0.03372,-0.0293,-0.02029,-0.00412,-0.03891,-0.0061,-0.0032,0.00168,-0.03311,-0.02213,0.00702,-0.04135
5.162,0.00732,-0.04166,-0.04807,-0.02472,-0.03479,-0.02884,-0.01999,-0.00488,-0.04196,-0.00504,-0.00549,0.00214,-0.03204,-0.02014,0.00641,-0.04181
5.1625,0.00885,-0.04181,-0.0412,-0.02365,-0.03571,-0.02777,-0.01984,-0.00702,-0.04196,-0.00397,-0.00687,0.00153,-0.03189,-0.01877,0.00656,-0.04288
5.163,0.00809,-0.04074,-0.03571,-0.03647,-0.03586,-0.02792,-0.01801,-0.00916,-0.03754,-0.00031,-0.00595,0.00092,-0.03281,-0.01877,0.00854,-0.04303
5.1635,0.00641,-0.03937,-0.03296,-0.04608,-0.03525,-0.03067,-0.01541,-0.00885,-0.03006,0.00626,-0.00488,-0.00107,-0.03204,-0.01938,0.00992,-0.04211
5.164,0.00397,-0.03616,-0.03235,-0.04257,-0.03387,-0.03281,-0.01389,-0.00702,-0.02289,0.01068,-0.00534,-0.00153,-0.03021,-0.01846,0.01038,-0.04074
5.1645,0.00259,-0.03464,-0.03082,-0.03693,-0.03387,-0.03387,-0.01511,-0.00534,-0.01678,0.00687,-0.00748,-0.00183,-0.02884,-0.01724,0.01007,-0.04135
5.165,0.00183,-0.03662,-0.02792,-0.04761,-0.03448,-0.0351,-0.01633,-0.00504,-0.01297,-0.00549,-0.00763,-0.00137,-0.02838,-0.01724,0.009,-0.04242
5.1655,0.00229,-0.04074,-0.02716,-0.07584,-0.03433,-0.0383,-0.01663,-0.00641,-0.01007,-0.02426,-0.00641,0.00031,-0.02853,-0.0177,0.00793,-0.04227
5.166,0.00183,-0.04425,-0.02777,-0.09918,-0.03403,-0.04044,-0.01434,-0.00702,-0.00641,-0.04425,-0.0032,0.00153,-0.0296,-0.01877,0.00595,-0.04227
5.1665,-0.00015,-0.04501,-0.02838,-0.09583,-0.03372,-0.04044,-0.01221,-0.00427,-0.00168,-0.05783,0.00061,0.00244,-0.03113,-0.01984,0.00549,-0.04272
5.167,-0.00412,-0.04364,-0.02518,-0.07141,-0.03433,-0.03784,-0.01251,-0.00198,0.00153,-0.05936,0.00412,0.00168,-0.03159,-0.01923,0.00626,-0.04471
5.1675,-0.00626,-0.04211,-0.01785,-0.04623,-0.03601,-0.03555,-0.01343,-0.0029,0.00168,-0.04974,0.00519,0.00183,-0.03159,-0.01816,0.00626,-0.04669
5.168,-0.00565,-0.04013,-0.00946,-0.03082,-0.03754,-0.03448,-0.01373,-0.00519,-0.00244,-0.03738,0.00427,0.00259,-0.03159,-0.01801,0.00565,-0.04623
5.1685,-0.00351,-0.03403,-0.00656,-0.01572,-0.03815,-0.03418,-0.01373,-0.00595,-0.00885,-0.02884,0.00381,0.00412,-0.03189,-0.01678,0.00565,-0.04456
5.169,-0.00153,-0.02502,-0.01633,0.02136,-0.03769,-0.03174,-0.01282,-0.00351,-0.01328,-0.02594,0.00183,0.00229,-0.0322,-0.01694,0.00458,-0.04379
5.1695,0.00015,-0.01785,-0.04333,0.08942,-0.03525,-0.02731,-0.0116,-0.00031,-0.01358,-0.0264,-0.00137,0.00031,-0.03204,-0.0177,0.00595,-0.04196
5.17,0.00122,-0.01938,-0.08057,0.14664,-0.0322,-0.0238,-0.01022,0.00061,-0.00961,-0.02396,-0.00671,-0.00122,-0.0322,-0.01831,0.00641,-0.03998
5.1705,0.00259,-0.0296,-0.10193,0.1265,-0.03036,-0.02411,-0.00916,0.0,-0.00488,-0.01968,-0.01129,-0.00061,-0.03342,-0.01923,0.00671,-0.03876
5.171,0.00443,-0.04028,-0.08087,0.02686,-0.03006,-0.0267,-0.00931,-0.00137,-0.00366,-0.01419,-0.01343,0.00107,-0.03403,-0.02014,0.00824,-0.03937
5.1715,0.0058,-0.0473,-0.02335,-0.07645,-0.0293,-0.03113,-0.01022,-0.00107,-0.00565,-0.00885,-0.01205,0.00259,-0.03433,-0.01877,0.0087,-0.04013
5.172,0.00519,-0.05173,0.0322,-0.12619,-0.02884,-0.0386,-0.00977,0.0,-0.00977,-0.00534,-0.01038,0.00168,-0.03479,-0.01663,0.00839,-0.04089
5.1725,0.00351,-0.05585,0.0531,-0.13794,-0.02762,-0.04669,-0.01022,0.00122,-0.01282,-0.00397,-0.00931,0.00122,-0.03555,-0.01495,0.00992,-0.04196
5.173,0.00046,-0.05829,0.03983,-0.13519,-0.0267,-0.0531,-0.01038,-0.00031,-0.01389,-0.00366,-0.00992,0.00107,-0.03525,-0.01556,0.01358,-0.04303
5.1735,-0.00412,-0.05753,0.01785,-0.10406,-0.02701,-0.05463,-0.01144,-0.00168,-0.01389,-0.00305,-0.01297,0.00168,-0.03479,-0.01831,0.01663,-0.04242
5.174,-0.01053,-0.05402,0.00092,-0.02457,-0.02716,-0.05356,-0.01297,-0.00259,-0.01465,-0.00015,-0.02335,0.00107,-0.03479,-0.01984,0.01541,-0.04059
5.1745,-0.0174,-0.05219,-0.00977,0.07324,-0.02655,-0.05157,-0.01373,-0.00214,-0.01678,0.00397,-0.03952,0.0,-0.03403,-0.0206,0.01083,-0.03952
5.175,-0.02045,-0.05081,-0.02289,0.13596,-0.02686,-0.04852,-0.0148,0.00015,-0.02106,0.0061,-0.04364,-0.00031,-0.03281,-0.02075,0.00778,-0.04089
5.1755,-0.01938,-0.04883,-0.0383,0.14572,-0.02869,-0.04715,-0.01495,0.00137,-0.0264,0.00488,-0.02029,0.00076,-0.03082,-0.02075,0.00458,-0.04349
5.176,-0.01877,-0.04669,-0.05249,0.12436,-0.02914,-0.04501,-0.01587,0.00198,-0.03143,0.00031,0.01877,0.00198,-0.03143,-0.02029,0.00168,-0.04349
5.1765,-0.01999,-0.04745,-0.06668,0.0943,-0.02838,-0.0444,-0.01724,-0.00046,-0.03555,-0.00565,0.04578,0.00259,-0.03326,-0.01984,-0.00137,-0.04272
5.177,-0.02106,-0.05005,-0.08179,0.06088,-0.02747,-0.04318,-0.01816,-0.00458,-0.0383,-0.01175,0.04456,0.00092,-0.03479,-0.01923,-0.00092,-0.04135
5.1775,-0.01862,-0.05219,-0.09567,0.03326,-0.02884,-0.04272,-0.01846,-0.0116,-0.0412,-0.01831,0.0238,0.0,-0.03433,-0.02029,0.00351,-0.03998
5.178,-0.01358,-0.05066,-0.10086,0.0238,-0.03143,-0.0415,-0.01709,-0.0177,-0.04456,-0.02396,0.00198,-0.00015,-0.0325,-0.02151,0.00778,-0.03952
5.1785,-0.0087,-0.047,-0.09277,0.02884,-0.03281,-0.03891,-0.01526,-0.02029,-0.04456,-0.03052,-0.0119,-0.00031,-0.03159,-0.02243,0.01068,-0.03876
5.179,-0.00732,-0.04227,-0.07339,0.03616,-0.03296,-0.03372,-0.01389,-0.01709,-0.03983,-0.03571,-0.01358,-0.00031,-0.03098,-0.02121,0.01175,-0.03799
5.1795,-0.00824,-0.03891,-0.04959,0.03983,-0.03204,-0.02762,-0.01328,-0.01175,-0.03433,-0.0386,-0.00931,-0.00015,-0.02991,-0.02014,0.01282,-0.03799
5.18,-0.01038,-0.03693,-0.02914,0.047,-0.03204,-0.0264,-0.01312,-0.00717,-0.03235,-0.04044,-0.00702,0.00015,-0.02914,-0.0209,0.01251,-0.03876
5.1805,-0.00946,-0.03479,-0.01724,0.05768,-0.03174,-0.03067,-0.01297,-0.00458,-0.03342,-0.0412,-0.00839,-0.00015,-0.02975,-0.02136,0.01297,-0.04074
5.181,-0.00671,-0.03357,-0.01312,0.05936,-0.0325,-0.03799,-0.01312,-0.0032,-0.03235,-0.04166,-0.0061,0.00031,-0.03113,-0.0209,0.01297,-0.04196
5.1815,-0.00412,-0.03387,-0.01419,0.04105,-0.03281,-0.04379,-0.01358,-0.00412,-0.02792,-0.04181,0.00397,0.00153,-0.03265,-0.01877,0.01312,-0.04227
5.182,-0.00366,-0.03723,-0.01343,0.00656,-0.03235,-0.04807,-0.01312,-0.00549,-0.02411,-0.0412,0.00931,0.00076,-0.03342,-0.01709,0.01373,-0.04181
5.1825,-0.00443,-0.03983,-0.01282,-0.02045,-0.03189,-0.0528,-0.01328,-0.00549,-0.02258,-0.0383,0.00015,0.00015,-0.03448,-0.01724,0.01526,-0.04211
5.183,-0.00534,-0.04181,-0.01389,-0.0267,-0.03113,-0.05783,-0.01373,-0.0029,-0.0206,-0.03235,-0.01663,-0.00046,-0.0351,-0.01724,0.01465,-0.04349
5.1835,-0.00534,-0.04272,-0.0177,-0.02731,-0.03021,-0.06058,-0.01434,-0.00076,-0.01755,-0.02716,-0.02441,0.00015,-0.03586,-0.01724,0.0119,-0.0441
5.184,-0.0061,-0.04242,-0.02228,-0.04883,-0.03036,-0.06073,-0.01343,0.00061,-0.01495,-0.02258,-0.02304,0.00076,-0.03601,-0.01694,0.00992,-0.04272
5.1845,-0.0058,-0.04257,-0.02731,-0.09644,-0.03052,-0.05844,-0.01266,0.00107,-0.01801,-0.02045,-0.02167,0.00122,-0.0354,-0.01862,0.01007,-0.0415
5.185,-0.00519,-0.04211,-0.03143,-0.14496,-0.03006,-0.05569,-0.0119,0.00214,-0.02304,-0.01785,-0.02686,0.00198,-0.0351,-0.01953,0.01114,-0.03967
5.1855,-0.00412,-0.04227,-0.03403,-0.16525,-0.02975,-0.05249,-0.01175,0.00336,-0.02548,-0.0145,-0.03464,0.00275,-0.03342,-0.01892,0.0119,-0.03937
5.186,-0.00412,-0.04089,-0.03571,-0.14999,-0.02975,-0.05035,-0.01083,0.00351,-0.02319,-0.01251,-0.0412,0.00351,-0.03143,-0.01846,0.0116,-0.03983
5.1865,-0.0058,-0.03876,-0.03845,-0.11429,-0.0296,-0.04837,-0.01083,0.00198,-0.01892,-0.0119,-0.04547,0.00259,-0.03006,-0.01862,0.01236,-0.03937
5.187,-0.00656,-0.03708,-0.0412,-0.07721,-0.02945,-0.04669,-0.01114,0.00107,-0.01617,-0.01236,-0.04486,0.00168,-0.03067,-0.01846,0.01266,-0.03845
5.1875,-0.00504,-0.04044,-0.04318,-0.04868,-0.02884,-0.04501,-0.01144,0.00137,-0.01511,-0.01129,-0.04211,0.00137,-0.03082,-0.01801,0.01266,-0.03967
5.188,-0.00244,-0.04715,-0.0412,-0.03265,-0.02853,-0.04517,-0.01251,0.00244,-0.01495,-0.01038,-0.03998,0.00259,-0.03052,-0.01755,0.0116,-0.04166
5.1885,0.00031,-0.05447,-0.03433,-0.02838,-0.03036,-0.04623,-0.01205,0.00275,-0.01389,-0.01053,-0.04135,0.0061,-0.02975,-0.01846,0.00977,-0.04303
5.189,0.00092,-0.05875,-0.02823,-0.02502,-0.03281,-0.04913,-0.0119,0.00137,-0.0119,-0.0119,-0.0441,0.01129,-0.02975,-0.01892,0.009,-0.04349
5.1895,0.00076,-0.06073,-0.02472,0.00351,-0.03494,-0.05173,-0.01144,0.0,-0.01175,-0.01343,-0.04562,0.01526,-0.02975,-0.01862,0.00931,-0.04181
5.19,0.00153,-0.0592,-0.02426,0.06577,-0.03448,-0.05264,-0.01144,-0.00183,-0.01343,-0.01526,-0.0473,0.01678,-0.03052,-0.01862,0.01053,-0.04227
5.1905,0.00305,-0.05646,-0.02472,0.12085,-0.03479,-0.05371,-0.01251,-0.00305,-0.01495,-0.01923,-0.05157,0.01495,-0.03128,-0.01862,0.00992,-0.04318
5.191,0.00305,-0.05249,-0.02579,0.11932,-0.03571,-0.05585,-0.01495,-0.00412,-0.01465,-0.02121,-0.05508,0.01007,-0.03189,-0.01907,0.00931,-0.0441
5.1915,0.00168,-0.0473,-0.02701,0.06851,-0.03555,-0.05981,-0.01785,-0.00656,-0.01434,-0.02335,-0.05203,0.00565,-0.03021,-0.01846,0.00809,-0.0444
5.192,0.0,-0.04257,-0.02686,0.02106,-0.0354,-0.06348,-0.02167,-0.01068,-0.01511,-0.02533,-0.04242,0.00214,-0.02808,-0.01877,0.00839,-0.04471
5.1925,0.0,-0.03906,-0.02609,0.00656,-0.03571,-0.06546,-0.02502,-0.01297,-0.01602,-0.02625,-0.03052,-0.00168,-0.02716,-0.01907,0.00824,-0.04425
5.193,-0.00092,-0.03693,-0.02609,0.01236,-0.03647,-0.06195,-0.02609,-0.01389,-0.01587,-0.02563,-0.01846,-0.00595,-0.02838,-0.02029,0.00809,-0.04349
5.1935,-0.00244,-0.03555,-0.02609,0.02106,-0.03632,-0.05707,-0.02151,-0.01373,-0.01572,-0.02518,-0.00931,-0.01068,-0.02914,-0.01953,0.00732,-0.04425
5.194,-0.00397,-0.03571,-0.02655,0.02945,-0.03632,-0.0528,-0.01465,-0.01129,-0.0148,-0.02411,-0.00412,-0.01373,-0.0293,-0.01892,0.0058,-0.04593
5.1945,-0.00458,-0.03418,-0.02548,0.03082,-0.03632,-0.0499,-0.01144,-0.00702,-0.01266,-0.02411,0.00198,-0.01465,-0.02899,-0.01816,0.00534,-0.04593
5.195,-0.00565,-0.03082,-0.02548,0.00931,-0.03616,-0.04623,-0.01297,-0.00275,-0.009,-0.02396,0.00504,-0.01495,-0.02914,-0.01816,0.00534,-0.04333
5.1955,-0.00809,-0.02869,-0.02533,-0.03555,-0.03586,-0.04349,-0.01678,-0.00122,-0.0058,-0.0238,0.0058,-0.01572,-0.02975,-0.01846,0.00626,-0.04074
5.196,-0.00854,-0.02914,-0.02701,-0.07813,-0.0354,-0.04089,-0.01816,-0.00168,-0.00504,-0.0238,0.00504,-0.01953,-0.0296,-0.01846,0.00626,-0.04013
5.1965,-0.00793,-0.03036,-0.03265,-0.09232,-0.03387,-0.03967,-0.01785,0.00015,-0.00763,-0.02548,0.0032,-0.02808,-0.0296,-0.01694,0.00519,-0.0412
5.197,-0.00717,-0.0296,-0.04013,-0.06699,-0.03174,-0.03845,-0.01602,0.00397,-0.01038,-0.0296,0.00397,-0.0412,-0.03021,-0.01633,0.00458,-0.04242
5.1975,-0.00824,-0.0264,-0.04608,-0.00153,-0.02991,-0.03586,-0.01419,0.00763,-0.01312,-0.03357,0.00549,-0.05783,-0.03082,-0.01709,0.00565,-0.04288
5.198,-0.0087,-0.02396,-0.04623,0.09247,-0.02823,-0.03342,-0.01251,0.00809,-0.0145,-0.03662,0.00687,-0.07828,-0.0322,-0.01709,0.0087,-0.04257
5.1985,-0.00824,-0.02258,-0.03845,0.16861,-0.02625,-0.03342,-0.01221,0.00443,-0.01434,-0.03586,0.00656,-0.09399,-0.03418,-0.01602,0.01022,-0.04028
5.199,-0.00717,-0.01953,-0.02914,0.1767,-0.02518,-0.03342,-0.01205,-0.0029,-0.01587,-0.03433,0.00549,-0.08591,-0.03387,-0.01465,0.01007,-0.03891
5.1995,-0.00839,-0.01434,-0.02289,0.1265,-0.02533,-0.03433,-0.0116,-0.01099,-0.01801,-0.03311,0.00549,-0.04196,-0.03342,-0.01419,0.00763,-0.03906
5.2,-0.009,-0.01221,-0.02686,0.08072,-0.02502,-0.03632,-0.01221,-0.01373,-0.01907,-0.03235,0.00809,0.01526,-0.03357,-0.01541,0.00656,-0.03799
5.2005,-0.00839,-0.01526,-0.04028,0.07233,-0.0267,-0.04059,-0.01511,-0.01236,-0.01907,-0.03082,0.00992,0.04822,-0.0325,-0.01648,0.00656,-0.0383
5.201,-0.00687,-0.02197,-0.0499,0.07095,-0.02701,-0.0441,-0.01755,-0.0087,-0.0177,-0.02823,0.01038,0.05203,-0.03052,-0.01801,0.00854,-0.03845
5.2015,-0.00626,-0.02869,-0.05249,0.04211,-0.02731,-0.04807,-0.02045,-0.00763,-0.01678,-0.02701,0.0087,0.05417,-0.02899,-0.01846,0.00778,-0.03983
5.202,-0.00702,-0.03571,-0.0473,-0.0029,-0.02808,-0.05356,-0.02197,-0.00778,-0.01755,-0.02853,0.00565,0.06958,-0.03021,-0.01862,0.00626,-0.04135
5.2025,-0.00809,-0.0444,-0.04318,-0.03571,-0.02838,-0.05753,-0.01968,-0.00671,-0.01923,-0.03159,0.00381,0.07629,-0.03174,-0.01801,0.00656,-0.04089
5.203,-0.00763,-0.05066,-0.04105,-0.05264,-0.02853,-0.0592,-0.01297,-0.00305,-0.02014,-0.03204,0.00137,0.05844,-0.03235,-0.01816,0.00763,-0.04013
5.2035,-0.00763,-0.05295,-0.04196,-0.06638,-0.02853,-0.06226,-0.00427,0.00046,-0.02014,-0.02945,-0.00107,0.03098,-0.03235,-0.01801,0.00961,-0.04028
5.204,-0.00809,-0.0528,-0.03998,-0.08148,-0.03036,-0.06439,0.00092,0.00229,-0.01846,-0.02396,-0.0029,0.01511,-0.03357,-0.01801,0.01114,-0.04211
5.2045,-0.00961,-0.05585,-0.04028,-0.09644,-0.03235,-0.06485,-0.00153,0.0058,-0.01465,-0.01801,-0.00473,0.01251,-0.03296,-0.0174,0.0116,-0.04349
5.205,-0.01022,-0.06027,-0.0412,-0.10834,-0.03418,-0.0621,-0.00854,0.0116,-0.00977,-0.01022,-0.00626,0.01221,-0.03235,-0.0177,0.01099,-0.04364
5.2055,-0.009,-0.06348,-0.03952,-0.10696,-0.03571,-0.05585,-0.01328,0.0174,-0.00793,-0.00046,-0.0087,0.00931,-0.03159,-0.01816,0.00916,-0.04196
5.206,-0.00824,-0.06378,-0.03479,-0.08911,-0.03555,-0.05341,-0.01282,0.0177,-0.01007,0.00732,-0.01144,0.00763,-0.03052,-0.01938,0.00824,-0.04089
5.2065,-0.00717,-0.06363,-0.03021,-0.07126,-0.03494,-0.05112,-0.00641,0.01129,-0.01389,0.00702,-0.01419,0.00656,-0.03036,-0.01968,0.00839,-0.03983
5.207,-0.00427,-0.06195,-0.03143,-0.06775,-0.03494,-0.04776,-0.00076,0.00351,-0.01587,0.00183,-0.01724,0.0061,-0.03113,-0.01984,0.00854,-0.03967
5.2075,-0.00122,-0.05951,-0.03632,-0.06805,-0.03342,-0.04425,-0.00183,-0.00076,-0.01465,-0.0029,-0.01877,0.0061,-0.03067,-0.01892,0.00763,-0.0415
5.208,0.00076,-0.05768,-0.03799,-0.05295,-0.0322,-0.04379,-0.00977,-0.00366,-0.0116,-0.00259,-0.01907,0.00565,-0.03036,-0.01938,0.00656,-0.04501
5.2085,-0.00015,-0.05692,-0.03571,-0.0264,-0.03143,-0.04471,-0.01755,-0.0087,-0.00885,0.00381,-0.01602,0.00519,-0.02975,-0.01892,0.00656,-0.04562
5.209,-0.00183,-0.05508,-0.03403,-0.01526,-0.03235,-0.04623,-0.01968,-0.0148,-0.00916,0.01404,-0.00534,0.00275,-0.03052,-0.01877,0.00717,-0.04349
5.2095,-0.00443,-0.04929,-0.03601,-0.02457,-0.0325,-0.04745,-0.01953,-0.01923,-0.01236,0.02274,0.00992,0.00259,-0.03204,-0.0177,0.00885,-0.04028
5.21,-0.00626,-0.04242,-0.0386,-0.03433,-0.03143,-0.0473,-0.01984,-0.01984,-0.01678,0.0238,0.02045,0.00412,-0.03296,-0.0174,0.00931,-0.03937
5.2105,-0.00946,-0.0386,-0.03754,-0.02853,-0.03082,-0.04837,-0.02243,-0.01648,-0.01984,0.01556,0.01709,0.00427,-0.03311,-0.01816,0.0087,-0.04074
5.211,-0.01389,-0.03784,-0.03464,-0.01144,-0.02975,-0.04974,-0.02274,-0.01007,-0.01862,0.00092,0.00092,0.00214,-0.03296,-0.01892,0.009,-0.0415
5.2115,-0.01633,-0.03784,-0.03235,-0.00092,-0.02884,-0.05295,-0.01968,-0.00458,-0.01465,-0.01221,-0.01617,0.00015,-0.03296,-0.01923,0.009,-0.04135
5.212,-0.0148,-0.03647,-0.03067,-0.00732,-0.03006,-0.05829,-0.01434,-0.0032,-0.01312,-0.0206,-0.02518,-0.00015,-0.03342,-0.01831,0.00809,-0.04227
5.2125,-0.01038,-0.03525,-0.03036,-0.0267,-0.03235,-0.06241,-0.01038,-0.00534,-0.01572,-0.02426,-0.02747,-0.00076,-0.03555,-0.01785,0.00763,-0.0441
5.213,-0.00626,-0.03616,-0.0325,-0.04944,-0.03326,-0.06241,-0.01343,-0.00793,-0.01999,-0.02579,-0.02701,-0.00153,-0.03784,-0.01801,0.00732,-0.04471
5.2135,-0.00443,-0.03632,-0.03845,-0.06241,-0.03265,-0.05753,-0.01984,-0.00824,-0.02243,-0.02609,-0.02441,-0.00259,-0.03937,-0.01801,0.00793,-0.0444
5.214,-0.00458,-0.03448,-0.05325,-0.05585,-0.03479,-0.05173,-0.02457,-0.0058,-0.02335,-0.02655,-0.02228,-0.00229,-0.03922,-0.01724,0.00763,-0.04395
5.2145,-0.0029,-0.03296,-0.0766,-0.03555,-0.03525,-0.04532,-0.02319,-0.00122,-0.02594,-0.0264,-0.02151,-0.00107,-0.03891,-0.01633,0.00671,-0.04379
5.215,0.0,-0.03311,-0.09216,-0.02182,-0.03677,-0.04089,-0.01694,0.00153,-0.02975,-0.02502,-0.02167,0.00015,-0.03891,-0.01633,0.00534,-0.04288
5.2155,0.0032,-0.03601,-0.08224,-0.03006,-0.03632,-0.03952,-0.01221,0.00092,-0.03311,-0.02335,-0.02274,0.00031,-0.03815,-0.01831,0.00443,-0.04135
5.216,0.00397,-0.03952,-0.04807,-0.04837,-0.03387,-0.04166,-0.01144,-0.00046,-0.03754,-0.02167,-0.02457,0.00015,-0.03784,-0.01968,0.00412,-0.04074
5.2165,0.0029,-0.0412,-0.01083,-0.06256,-0.0325,-0.04425,-0.01328,-0.00168,-0.04227,-0.02029,-0.0296,-0.00198,-0.0383,-0.01953,0.00504,-0.0412
5.217,0.0029,-0.04257,0.00809,-0.07843,-0.0325,-0.04578,-0.0145,-0.00259,-0.04471,-0.01907,-0.03479,-0.00366,-0.0383,-0.01999,0.00687,-0.04242
5.2175,0.00488,-0.04333,0.00809,-0.11398,-0.03296,-0.0441,-0.01495,-0.00366,-0.04333,-0.02121,-0.03952,-0.00397,-0.03799,-0.02136,0.00702,-0.04196
5.218,0.00717,-0.04486,0.00137,-0.16083,-0.0325,-0.04257,-0.01587,-0.00366,-0.04059,-0.02411,-0.04288,-0.00458,-0.03799,-0.02243,0.00778,-0.04135
5.2185,0.00671,-0.04578,-0.00351,-0.19699,-0.0322,-0.04318,-0.01572,-0.00214,-0.03967,-0.0264,-0.04684,-0.0061,-0.03799,-0.02319,0.009,-0.0412
5.219,0.00336,-0.04593,-0.00793,-0.21149,-0.03357,-0.04684,-0.01404,-0.00015,-0.04013,-0.02411,-0.04837,-0.00702,-0.03769,-0.02151,0.00931,-0.04211
5.2195,-0.00092,-0.0444,-0.01266,-0.19943,-0.03464,-0.05096,-0.01205,0.00031,-0.03922,-0.01801,-0.04776,-0.00595,-0.03571,-0.01846,0.009,-0.03937
5.22,-0.00381,-0.04196,-0.01724,-0.14786,-0.03738,-0.05356,-0.01068,0.00015,-0.03586,-0.01114,-0.0441,-0.00397,-0.03403,-0.01526,0.00702,-0.03799
5.2205,-0.00397,-0.04028,-0.01984,-0.06561,-0.03922,-0.05341,-0.01068,-0.00046,-0.03082,-0.00916,-0.03937,-0.00305,-0.03342,-0.01373,0.0058,-0.03738
5.221,-0.00488,-0.03922,-0.02121,0.00687,-0.03952,-0.05371,-0.01038,0.00015,-0.02228,-0.01266,-0.03479,-0.0029,-0.0322,-0.01343,0.00656,-0.0383
5.2215,-0.00931,-0.03769,-0.02426,0.04028,-0.03876,-0.05524,-0.01022,0.00244,-0.0116,-0.01999,-0.03113,-0.00397,-0.03098,-0.0148,0.00626,-0.03952
5.222,-0.01251,-0.03632,-0.02914,0.03952,-0.03815,-0.05783,-0.01007,0.00351,-0.00244,-0.02762,-0.0267,-0.00443,-0.02991,-0.01633,0.00488,-0.04044
5.2225,-0.0119,-0.03448,-0.03723,0.02701,-0.03723,-0.0589,-0.00977,0.00168,0.00168,-0.03067,-0.02182,-0.00366,-0.02975,-0.01587,0.00427,-0.04044
5.223,-0.00702,-0.03296,-0.04593,0.02258,-0.03616,-0.05859,-0.00916,-0.00092,0.00305,-0.02655,-0.0177,-0.00244,-0.03036,-0.01556,0.00427,-0.04089
5.2235,-0.00168,-0.0322,-0.04929,0.03983,-0.03372,-0.05737,-0.00885,-0.00366,0.00397,-0.02014,-0.0145,-0.00214,-0.02899,-0.0148,0.00397,-0.0412
5.224,0.00076,-0.03281,-0.04608,0.07401,-0.03036,-0.05508,-0.00961,-0.00443,0.00488,-0.01511,-0.0119,-0.00229,-0.02884,-0.01556,0.0032,-0.04181
5.2245,-0.00092,-0.03464,-0.03647,0.10117,-0.02716,-0.04913,-0.01068,-0.00427,0.00732,-0.01556,-0.00854,-0.00168,-0.02945,-0.01724,0.00473,-0.04105
5.225,-0.00397,-0.0383,-0.02411,0.09689,-0.02319,-0.04242,-0.0119,-0.0029,0.00977,-0.02045,-0.00534,-0.00046,-0.03021,-0.01877,0.00748,-0.03952
5.2255,-0.0058,-0.04379,-0.01495,0.07004,-0.01984,-0.03708,-0.01328,-0.00168,0.00793,-0.02869,-0.00214,0.0,-0.03082,-0.0206,0.01053,-0.03891
5.226,-0.00549,-0.0499,-0.01175,0.05005,-0.01801,-0.03555,-0.01358,-0.0032,0.00259,-0.03632,-0.00031,-0.00031,-0.03113,-0.02243,0.01251,-0.04105
5.2265,-0.00488,-0.05188,-0.01343,0.047,-0.0177,-0.03677,-0.01266,-0.00687,-0.00122,-0.03845,0.00046,-0.00183,-0.03143,-0.02258,0.01266,-0.0441
5.227,-0.0032,-0.04837,-0.01617,0.04318,-0.01892,-0.03876,-0.01297,-0.00854,-0.00153,-0.03677,0.00153,-0.00214,-0.03067,-0.02121,0.01343,-0.047
5.2275,-0.00183,-0.04135,-0.02106,0.02701,-0.02197,-0.04166,-0.01572,-0.00595,-0.00122,-0.0351,0.00153,-0.00107,-0.02945,-0.01907,0.01251,-0.04776
5.228,-0.0029,-0.03342,-0.02686,0.00977,-0.02792,-0.04623,-0.02258,-0.00061,-0.00366,-0.03677,0.00244,-0.00137,-0.0293,-0.01862,0.01007,-0.047
5.2285,-0.00809,-0.02808,-0.03342,0.00626,-0.03326,-0.05219,-0.02975,0.00351,-0.00549,-0.04318,0.0032,-0.0029,-0.02991,-0.01801,0.00824,-0.04517
5.229,-0.01434,-0.02426,-0.03601,0.01373,-0.0351,-0.05646,-0.03098,0.00305,-0.00565,-0.04944,0.00092,-0.00305,-0.03052,-0.01816,0.00793,-0.04333
5.2295,-0.01709,-0.0206,-0.03128,0.02762,-0.0325,-0.05646,-0.02411,-0.00076,-0.00626,-0.05203,-0.00214,-0.00198,-0.03006,-0.01724,0.00809,-0.04303
5.23,-0.01648,-0.01999,-0.02319,0.05035,-0.0296,-0.05203,-0.01633,-0.0029,-0.00687,-0.04608,-0.00534,-0.00137,-0.03174,-0.01633,0.00854,-0.04166
5.2305,-0.01434,-0.02258,-0.02441,0.07751,-0.02792,-0.04562,-0.01663,-0.00412,-0.00687,-0.03494,-0.00595,-0.00214,-0.03311,-0.01602,0.00946,-0.04028
5.231,-0.01205,-0.02533,-0.03372,0.09109,-0.02823,-0.0412,-0.02182,-0.00778,-0.00397,-0.02197,-0.00595,-0.00244,-0.03235,-0.01617,0.01053,-0.03998
5.2315,-0.00916,-0.02762,-0.03937,0.08179,-0.02991,-0.03891,-0.02106,-0.01389,-0.00168,-0.01129,-0.00687,-0.00153,-0.03113,-0.01633,0.009,-0.0415
5.232,-0.00702,-0.03052,-0.03418,0.06714,-0.03067,-0.03815,-0.0087,-0.01572,-0.00259,-0.00381,-0.00793,-0.00015,-0.03189,-0.01633,0.00732,-0.04181
5.2325,-0.00412,-0.03418,-0.02762,0.06943,-0.03036,-0.03647,0.00534,-0.00793,-0.00565,0.00092,-0.01083,0.0,-0.03326,-0.01633,0.00702,-0.0412
5.233,-0.00183,-0.03815,-0.0325,0.0856,-0.03128,-0.03616,0.00839,0.00198,-0.00854,0.00183,-0.01907,0.0,-0.03464,-0.01617,0.0087,-0.04089
5.2335,0.00015,-0.0415,-0.04288,0.09369,-0.03189,-0.03815,-0.00275,0.00244,-0.00916,-0.00046,-0.03159,-0.00046,-0.03479,-0.0177,0.00977,-0.04135
5.234,0.00092,-0.04517,-0.05142,0.08408,-0.03189,-0.0415,-0.01465,-0.00443,-0.00916,-0.00702,-0.04303,-0.00046,-0.03357,-0.01923,0.00992,-0.04028
5.2345,0.00092,-0.04761,-0.05463,0.06851,-0.03082,-0.04425,-0.01648,-0.01099,-0.0087,-0.01419,-0.04639,0.00031,-0.03204,-0.01907,0.00824,-0.03937
5.235,0.00244,-0.0473,-0.05341,0.05814,-0.0296,-0.04318,-0.01221,-0.01083,-0.00702,-0.01862,-0.04059,0.00046,-0.03159,-0.01892,0.00671,-0.03967
5.2355,0.00458,-0.047,-0.04486,0.05081,-0.02914,-0.03952,-0.0116,-0.0058,-0.00458,-0.01556,-0.02884,0.00031,-0.03143,-0.01846,0.00763,-0.04074
5.236,0.00549,-0.04883,-0.03387,0.04166,-0.02838,-0.03693,-0.0116,0.00153,-0.00168,-0.01068,-0.01648,0.0,-0.03296,-0.01968,0.00977,-0.04211
5.2365,0.00565,-0.05066,-0.0293,0.02838,-0.02808,-0.03708,-0.00763,0.0061,0.00183,-0.00793,-0.00748,-0.00046,-0.03372,-0.02136,0.00977,-0.04135
5.237,0.00565,-0.05112,-0.03738,0.00961,-0.02777,-0.03967,-0.00412,0.00626,0.00351,-0.00565,-0.00397,-0.00168,-0.03372,-0.02197,0.00809,-0.04044
5.2375,0.00519,-0.05173,-0.05127,-0.01236,-0.02777,-0.04257,-0.00763,0.0029,0.00275,-0.00153,-0.00244,-0.00244,-0.03281,-0.02106,0.0058,-0.03937
5.238,0.00412,-0.05676,-0.06119,-0.03235,-0.02747,-0.0444,-0.01556,-0.00153,0.00046,0.00137,-0.0029,-0.00305,-0.03265,-0.01877,0.00671,-0.03845
5.2385,0.00259,-0.06363,-0.0647,-0.0441,-0.02808,-0.04486,-0.01862,-0.00351,-0.00214,-0.00092,-0.00443,-0.00336,-0.03265,-0.01755,0.00687,-0.03967
5.239,0.00153,-0.06943,-0.06424,-0.04456,-0.02914,-0.04486,-0.01404,-0.00214,-0.00534,-0.00412,-0.00565,-0.00305,-0.03174,-0.01785,0.00671,-0.04105
5.2395,0.00229,-0.07217,-0.06287,-0.03998,-0.03052,-0.04486,-0.00992,-0.00122,-0.00854,-0.00137,-0.0061,-0.00275,-0.03082,-0.01846,0.0061,-0.0415
5.24,0.00259,-0.07477,-0.06073,-0.0412,-0.03174,-0.04517,-0.01205,-0.00122,-0.01236,0.00595,-0.00549,-0.00122,-0.0293,-0.02014,0.00656,-0.04028
5.2405,0.00015,-0.07614,-0.05432,-0.05859,-0.03189,-0.04501,-0.01831,-0.00305,-0.0145,0.01221,-0.00458,0.00107,-0.02823,-0.01923,0.00824,-0.03876
5.241,-0.00336,-0.07248,-0.04684,-0.09033,-0.03128,-0.04486,-0.02258,-0.00519,-0.01129,0.00748,-0.00488,0.00336,-0.02701,-0.0174,0.01144,-0.03769
5.2415,-0.00641,-0.06241,-0.04227,-0.11841,-0.03006,-0.04425,-0.0238,-0.00702,-0.00305,-0.00198,-0.01038,0.00412,-0.02853,-0.01587,0.01282,-0.03784
5.242,-0.00824,-0.0502,-0.04379,-0.12466,-0.0293,-0.04395,-0.0235,-0.00702,0.00824,-0.01038,-0.01846,0.00351,-0.03143,-0.01724,0.00992,-0.0383
5.2425,-0.00977,-0.03967,-0.04852,-0.1123,-0.02884,-0.04349,-0.02014,-0.00626,0.01694,-0.01526,-0.02472,0.00214,-0.03464,-0.01862,0.00458,-0.0383
5.243,-0.00946,-0.03036,-0.05096,-0.09796,-0.02808,-0.04379,-0.01526,-0.0058,0.01938,-0.0206,-0.02472,0.00137,-0.03464,-0.02014,0.00061,-0.03876
5.2435,-0.00809,-0.02411,-0.0499,-0.08514,-0.02686,-0.0444,-0.01007,-0.00641,0.01373,-0.02747,-0.0206,0.00168,-0.03433,-0.02136,0.00015,-0.03952
5.244,-0.00626,-0.02014,-0.04852,-0.05417,-0.02548,-0.04532,-0.00793,-0.00519,0.00443,-0.03235,-0.01556,0.00122,-0.03433,-0.02075,0.00275,-0.04105
5.2445,-0.00626,-0.01663,-0.04868,0.00839,-0.02472,-0.04608,-0.00885,-0.00183,-0.00519,-0.03052,-0.01343,0.00092,-0.03448,-0.01953,0.00595,-0.04272
5.245,-0.00641,-0.01328,-0.05203,0.07965,-0.02655,-0.04608,-0.00992,0.00229,-0.01297,-0.02502,-0.01205,0.00015,-0.0351,-0.01984,0.009,-0.04211
5.2455,-0.00549,-0.01282,-0.065,0.11856,-0.02792,-0.04532,-0.01099,0.00534,-0.02014,-0.02167,-0.00916,-0.00031,-0.03342,-0.02197,0.01114,-0.04074
5.246,-0.00198,-0.01648,-0.08484,0.11414,-0.02853,-0.04532,-0.01266,0.00488,-0.03052,-0.02213,-0.00366,-0.00107,-0.03204,-0.02533,0.01236,-0.04028
5.2465,-0.00015,-0.02045,-0.09293,0.09888,-0.02792,-0.04593,-0.01419,0.00214,-0.0441,-0.02518,0.00092,-0.00107,-0.03067,-0.02686,0.0087,-0.04196
5.247,-0.00183,-0.02335,-0.07111,0.1004,-0.02899,-0.04837,-0.01434,-0.00183,-0.05402,-0.02869,0.00122,-0.00046,-0.03021,-0.02609,0.00565,-0.04425
5.2475,-0.00656,-0.02579,-0.02655,0.09781,-0.03159,-0.05035,-0.01297,-0.00626,-0.05173,-0.03403,-0.00137,-0.00092,-0.03113,-0.02426,0.00458,-0.04608
5.248,-0.01068,-0.02914,0.01205,0.06744,-0.03265,-0.04944,-0.01175,-0.00763,-0.03922,-0.03937,-0.00107,-0.00046,-0.03052,-0.02289,0.00717,-0.04684
5.2485,-0.01205,-0.03143,0.02365,0.0296,-0.03281,-0.04684,-0.01068,-0.00595,-0.02716,-0.04181,-0.00107,-0.00107,-0.03204,-0.01953,0.01068,-0.04593
5.249,-0.01144,-0.03357,0.01129,0.03281,-0.03174,-0.04471,-0.01099,-0.00214,-0.02441,-0.04227,-0.00305,-0.00061,-0.03311,-0.01755,0.01266,-0.04578
5.2495,-0.01175,-0.03647,-0.00595,0.08087,-0.03128,-0.04303,-0.01129,0.00183,-0.0267,-0.03952,-0.00793,-0.00092,-0.03204,-0.01648,0.01205,-0.04471
5.25,-0.01129,-0.0415,-0.01526,0.10864,-0.03082,-0.0444,-0.01221,0.00168,-0.0264,-0.03479,-0.0119,-0.00031,-0.03036,-0.01511,0.01114,-0.04333
5.2505,-0.00824,-0.04745,-0.01938,0.0647,-0.03159,-0.04547,-0.01312,-0.00046,-0.02457,-0.02609,-0.01312,0.00031,-0.02777,-0.0145,0.01007,-0.04257
5.251,-0.00275,-0.05188,-0.02472,-0.01694,-0.03159,-0.04639,-0.01556,-0.00229,-0.02243,-0.01526,-0.01282,0.0,-0.02686,-0.01511,0.01144,-0.04166
5.2515,0.00336,-0.0528,-0.0322,-0.07172,-0.0322,-0.04578,-0.01572,-0.00366,-0.0209,-0.00519,-0.01312,-0.00092,-0.02701,-0.01556,0.0119,-0.0415
5.252,0.00717,-0.05188,-0.03754,-0.08453,-0.03235,-0.04456,-0.01404,-0.00504,-0.01892,0.00198,-0.01373,-0.00137,-0.02869,-0.01694,0.01144,-0.04257
5.2525,0.0087,-0.05035,-0.04074,-0.07782,-0.03204,-0.04272,-0.01221,-0.00702,-0.01678,0.00549,-0.01434,-0.00046,-0.03021,-0.0177,0.01068,-0.04349
5.253,0.00748,-0.04974,-0.04486,-0.06256,-0.03159,-0.04013,-0.01297,-0.00931,-0.01617,0.00381,-0.01358,0.00015,-0.03159,-0.01801,0.009,-0.0441
5.2535,0.0032,-0.04944,-0.0528,-0.04166,-0.03128,-0.0383,-0.01602,-0.00977,-0.01526,0.00092,-0.01129,0.0,-0.03296,-0.01785,0.00931,-0.04379
5.254,-0.00076,-0.05035,-0.06226,-0.03387,-0.0325,-0.03754,-0.01816,-0.00793,-0.01328,-0.00198,-0.00717,0.00031,-0.03448,-0.01755,0.00992,-0.04227
5.2545,-0.00381,-0.0499,-0.065,-0.05341,-0.03311,-0.03754,-0.01816,-0.00534,-0.0116,-0.0061,-0.00381,0.00076,-0.03494,-0.01755,0.00977,-0.0415
5.255,-0.00565,-0.04745,-0.05569,-0.08423,-0.03403,-0.03937,-0.0177,-0.00488,-0.00961,-0.01205,-0.00961,0.00107,-0.03479,-0.0177,0.01129,-0.04227
5.2555,-0.00748,-0.04257,-0.03571,-0.10529,-0.03632,-0.04181,-0.01892,-0.00595,-0.00854,-0.01633,-0.03311,0.00061,-0.03479,-0.01862,0.01221,-0.04303
5.256,-0.00931,-0.03845,-0.01266,-0.1152,-0.03799,-0.04501,-0.01938,-0.00488,-0.00641,-0.01694,-0.06592,-0.00015,-0.0354,-0.01877,0.0119,-0.04349
5.2565,-0.00992,-0.03632,0.00259,-0.12711,-0.03937,-0.04807,-0.01846,-0.00336,-0.00397,-0.01633,-0.08301,-0.00107,-0.03616,-0.0174,0.0087,-0.04288
5.257,-0.00946,-0.03723,0.00473,-0.14557,-0.03754,-0.05051,-0.01724,-0.00275,-0.00107,-0.01907,-0.0676,-0.00137,-0.03677,-0.01755,0.00595,-0.04257
5.2575,-0.0087,-0.03876,-0.00275,-0.16373,-0.0351,-0.05127,-0.01648,-0.00381,0.00092,-0.02472,-0.03372,-0.00244,-0.03845,-0.01877,0.00549,-0.04303
5.258,-0.00992,-0.04089,-0.0119,-0.17853,-0.0354,-0.05249,-0.01694,-0.00702,0.00214,-0.0267,-0.00412,-0.00351,-0.04013,-0.0209,0.00671,-0.04379
5.2585,-0.01053,-0.04181,-0.01984,-0.18494,-0.03769,-0.05341,-0.01801,-0.01099,0.00198,-0.0264,0.01114,-0.00397,-0.0412,-0.02258,0.00626,-0.04471
5.259,-0.00992,-0.04135,-0.02609,-0.17593,-0.0383,-0.05585,-0.0174,-0.01114,0.00015,-0.02518,0.01846,-0.00305,-0.04105,-0.02243,0.00473,-0.04471
5.2595,-0.00793,-0.0415,-0.03036,-0.13474,-0.03799,-0.05722,-0.01373,-0.00656,-0.00122,-0.02884,0.02396,0.00046,-0.03998,-0.01953,0.00656,-0.04425
5.26,-0.00626,-0.04349,-0.03387,-0.05173,-0.03738,-0.05753,-0.01129,-0.00107,-0.00259,-0.03891,0.0264,0.00473,-0.0386,-0.01816,0.00854,-0.04257
5.2605,-0.00549,-0.04623,-0.03479,0.05127,-0.03601,-0.06027,-0.01038,0.00244,-0.00366,-0.04883,0.02335,0.00732,-0.03662,-0.01785,0.0116,-0.0412
5.261,-0.00504,-0.04898,-0.03296,0.11322,-0.0354,-0.06393,-0.01068,0.00443,-0.00275,-0.05371,0.01633,0.00717,-0.03372,-0.0177,0.01144,-0.04013
5.2615,-0.0061,-0.05035,-0.02975,0.08331,-0.03464,-0.06683,-0.00992,0.00488,-0.00046,-0.05173,0.00641,0.00443,-0.03159,-0.0177,0.01007,-0.03998
5.262,-0.00717,-0.05005,-0.0267,-0.00381,-0.03448,-0.06409,-0.00854,0.00351,-0.00015,-0.04837,-0.00916,0.00168,-0.03128,-0.01907,0.00854,-0.0415
5.2625,-0.00778,-0.04883,-0.02655,-0.06439,-0.03403,-0.05753,-0.00809,-0.00092,-0.00198,-0.0499,-0.0238,0.00015,-0.03235,-0.02228,0.0087,-0.0412
5.263,-0.00671,-0.04715,-0.03098,-0.06378,-0.03326,-0.05112,-0.01053,-0.00656,-0.00412,-0.05707,-0.03052,0.00137,-0.03372,-0.0235,0.01007,-0.03983
5.2635,-0.00336,-0.04562,-0.03616,-0.03952,-0.03174,-0.04807,-0.01526,-0.00961,-0.00549,-0.06653,-0.02747,0.0032,-0.0351,-0.02258,0.01022,-0.03922
5.264,-0.00153,-0.04608,-0.03784,-0.02014,-0.03281,-0.04745,-0.01907,-0.00778,-0.00397,-0.07324,-0.02045,0.00214,-0.03571,-0.0206,0.00839,-0.0383
5.2645,-0.00198,-0.04745,-0.03662,0.01083,-0.03357,-0.04837,-0.02014,-0.00351,0.00046,-0.07431,-0.01434,-0.00061,-0.03555,-0.01984,0.00778,-0.03723
5.265,-0.00381,-0.04745,-0.03616,0.06668,-0.03342,-0.04837,-0.01785,0.00061,0.00641,-0.06851,-0.009,-0.00015,-0.03448,-0.01877,0.0119,-0.03433
5.2655,-0.0058,-0.04547,-0.03723,0.11093,-0.03296,-0.04791,-0.01617,0.00244,0.0116,-0.05707,-0.00595,0.00046,-0.03189,-0.01831,0.01663,-0.03296
5.266,-0.00656,-0.04257,-0.03586,0.09933,-0.03418,-0.04852,-0.01465,0.00153,0.01358,-0.04089,-0.00702,0.0,-0.03052,-0.01923,0.01633,-0.03296
5.2665,-0.00702,-0.04089,-0.03128,0.04028,-0.03632,-0.05051,-0.01251,-0.00092,0.01175,-0.01862,-0.01389,-0.00244,-0.0296,-0.01999,0.01099,-0.03418
5.267,-0.0058,-0.03922,-0.02533,-0.02228,-0.03784,-0.05386,-0.01083,-0.00198,0.00977,0.00916,-0.01938,-0.00275,-0.02808,-0.01846,0.00702,-0.03601
5.2675,-0.00549,-0.03845,-0.02289,-0.05905,-0.03799,-0.0563,-0.01175,-0.00137,0.009,0.03906,-0.01923,0.0,-0.02533,-0.01663,0.00458,-0.03952
5.268,-0.0061,-0.03708,-0.02228,-0.07065,-0.03754,-0.05661,-0.01389,-0.00031,0.00977,0.05783,-0.0145,0.00397,-0.02335,-0.01526,0.00443,-0.0441
5.2685,-0.00732,-0.0354,-0.02213,-0.06531,-0.03708,-0.05295,-0.01465,-0.00122,0.00824,0.05508,-0.01007,0.00534,-0.0235,-0.01678,0.00458,-0.04929
5.269,-0.00809,-0.03479,-0.01877,-0.05051,-0.0354,-0.04929,-0.01312,-0.00305,0.00412,0.0383,-0.00763,0.00458,-0.02365,-0.01892,0.00275,-0.05325
5.2695,-0.00748,-0.03586,-0.01358,-0.03876,-0.03494,-0.04837,-0.01221,-0.00412,-0.00153,0.02701,-0.00824,0.00275,-0.02396,-0.01846,0.00137,-0.05463
5.27,-0.00732,-0.03784,-0.00885,-0.03616,-0.03387,-0.04929,-0.01236,-0.00412,-0.00565,0.03006,-0.01022,0.00381,-0.02319,-0.01648,0.00137,-0.05569
5.2705,-0.00809,-0.03952,-0.00824,-0.03265,-0.03296,-0.0502,-0.01221,-0.00381,-0.00793,0.03632,-0.01144,0.00671,-0.02441,-0.01389,0.00381,-0.05585
5.271,-0.00793,-0.04044,-0.01099,-0.01633,-0.03098,-0.05096,-0.01129,-0.0032,-0.00931,0.03464,-0.01144,0.00824,-0.0264,-0.01266,0.00763,-0.05402
5.2715,-0.00641,-0.03998,-0.01495,0.00824,-0.02914,-0.05035,-0.00946,-0.00107,-0.01022,0.02365,-0.009,0.00565,-0.02762,-0.01373,0.01038,-0.0499
5.272,-0.00351,-0.03891,-0.01663,0.01816,-0.0293,-0.04868,-0.00824,0.00214,-0.0119,0.01282,-0.00641,0.00183,-0.02747,-0.01556,0.00809,-0.04456
5.2725,-0.00183,-0.03845,-0.01831,0.00565,-0.03174,-0.04715,-0.00839,0.00427,-0.01572,0.00565,-0.00488,-0.00122,-0.02686,-0.01633,0.00595,-0.03876
5.273,-0.00137,-0.0386,-0.0235,0.00259,-0.0325,-0.04364,-0.00885,0.00473,-0.01892,0.00275,-0.00381,-0.00076,-0.02731,-0.01572,0.00626,-0.03479
5.2735,-0.00137,-0.04013,-0.03204,0.04852,-0.03204,-0.04105,-0.00992,0.00473,-0.02106,0.00076,-0.00305,0.00168,-0.02869,-0.01556,0.00946,-0.03265
5.274,-0.00046,-0.0412,-0.0415,0.12131,-0.03036,-0.03906,-0.01114,0.00443,-0.02304,-0.00107,-0.00381,0.00427,-0.02991,-0.01709,0.01297,-0.0322
5.2745,-0.00015,-0.04196,-0.04868,0.14725,-0.02991,-0.03845,-0.01358,0.00443,-0.02518,-0.00534,-0.00687,0.00595,-0.02975,-0.01816,0.01465,-0.03067
5.275,0.00092,-0.04242,-0.05219,0.10086,-0.03006,-0.03723,-0.01648,0.00229,-0.02823,-0.01099,-0.0116,0.00488,-0.02792,-0.01785,0.01526,-0.0296
5.2755,-0.00061,-0.04227,-0.05142,0.04562,-0.03067,-0.03448,-0.01984,-0.00168,-0.03006,-0.01617,-0.01495,0.00305,-0.02777,-0.01816,0.01404,-0.0296
5.276,-0.00366,-0.04105,-0.04745,0.04257,-0.03204,-0.03189,-0.02182,-0.00488,-0.03098,-0.01968,-0.01816,0.00092,-0.03067,-0.01892,0.01007,-0.03357
5.2765,-0.0087,-0.03922,-0.04181,0.06622,-0.03342,-0.03113,-0.0209,-0.00488,-0.03433,-0.02213,-0.02228,0.00046,-0.03311,-0.01968,0.0061,-0.03723
5.277,-0.01205,-0.03784,-0.03952,0.0618,-0.03281,-0.03296,-0.01892,-0.00137,-0.03555,-0.02213,-0.02609,0.00061,-0.03387,-0.01923,0.00275,-0.03799
5.2775,-0.01144,-0.03693,-0.04089,0.02548,-0.03113,-0.03525,-0.0174,0.00122,-0.03113,-0.02213,-0.02686,-0.00061,-0.03433,-0.01938,0.00183,-0.0386
5.278,-0.009,-0.03677,-0.04364,-0.00412,-0.03082,-0.03555,-0.01831,0.00061,-0.01999,-0.02396,-0.02274,-0.0029,-0.03647,-0.02075,0.00244,-0.04242
5.2785,-0.00641,-0.03662,-0.04669,-0.00748,-0.03098,-0.03738,-0.01953,-0.00183,-0.00748,-0.02716,-0.01312,-0.00397,-0.03738,-0.02121,0.00427,-0.04852
5.279,-0.00458,-0.03616,-0.04807,0.00153,-0.03067,-0.04074,-0.01862,-0.00473,-0.00229,-0.03036,0.00412,-0.00168,-0.03647,-0.01999,0.00641,-0.0531
5.2795,-0.0032,-0.03586,-0.04654,0.00198,-0.02869,-0.04333,-0.01617,-0.00702,-0.00687,-0.03143,0.02563,0.00153,-0.03342,-0.01877,0.00839,-0.05341
5.28,-0.00183,-0.03525,-0.04181,-0.00916,-0.02563,-0.04547,-0.01389,-0.01068,-0.01694,-0.03174,0.03784,0.0032,-0.0322,-0.01968,0.009,-0.05051
5.2805,-0.00076,-0.03555,-0.03738,-0.0235,-0.02457,-0.04791,-0.01297,-0.01343,-0.0267,-0.03235,0.03372,0.00336,-0.03265,-0.02167,0.0087,-0.04715
5.281,0.00015,-0.03174,-0.03403,-0.03418,-0.02625,-0.05615,-0.01144,-0.00946,-0.03387,-0.03555,0.01862,0.0032,-0.0325,-0.02228,0.009,-0.04486
5.2815,0.00153,-0.02182,-0.03128,-0.03891,-0.02716,-0.06912,-0.00763,-0.00076,-0.03937,-0.04364,0.00626,0.0029,-0.03098,-0.02258,0.00839,-0.04486
5.282,0.00275,-0.009,-0.02762,-0.04013,-0.02762,-0.07675,-0.00336,0.00427,-0.04242,-0.05753,0.0029,0.00168,-0.03036,-0.02258,0.00885,-0.04715
5.2825,0.00397,-0.00198,-0.02533,-0.04303,-0.02762,-0.07248,-0.00214,0.00534,-0.04349,-0.07294,0.00275,-0.00031,-0.03174,-0.02335,0.0087,-0.04868
5.283,0.00626,-0.00549,-0.02655,-0.04654,-0.02716,-0.05768,-0.0061,0.0061,-0.04364,-0.08011,-0.00473,-0.00214,-0.03281,-0.02289,0.01007,-0.04852
5.2835,0.00854,-0.01343,-0.03052,-0.047,-0.02777,-0.04196,-0.01328,0.00824,-0.04471,-0.07553,-0.01862,-0.00259,-0.0322,-0.02045,0.01129,-0.04608
5.284,0.01083,-0.0206,-0.03296,-0.0412,-0.02762,-0.0296,-0.01877,0.01007,-0.047,-0.06302,-0.03021,-0.00183,-0.03174,-0.01846,0.01175,-0.04272
5.2845,0.01205,-0.02777,-0.03433,-0.02792,-0.02777,-0.01999,-0.02182,0.00809,-0.05142,-0.05066,-0.03571,-0.00122,-0.0322,-0.01831,0.01099,-0.03998
5.285,0.01007,-0.03784,-0.03677,-0.00687,-0.02579,-0.01236,-0.02167,0.00198,-0.05463,-0.04166,-0.03845,0.00015,-0.03387,-0.01984,0.00992,-0.03937
5.2855,0.00717,-0.04639,-0.04074,0.01389,-0.02502,-0.00549,-0.01892,-0.00488,-0.05493,-0.03357,-0.0444,0.00168,-0.03662,-0.02045,0.01022,-0.04013
5.286,0.00381,-0.05112,-0.04303,0.0235,-0.02441,-0.00198,-0.01465,-0.00763,-0.05066,-0.02731,-0.05249,0.00229,-0.03891,-0.02075,0.01007,-0.04211
5.2865,0.00137,-0.05264,-0.04318,0.01984,-0.02502,-0.00122,-0.01205,-0.00702,-0.04654,-0.02289,-0.06149,0.00305,-0.03799,-0.02014,0.0119,-0.04196
5.287,-0.00351,-0.05524,-0.04196,0.01129,-0.02609,-0.0058,-0.01343,-0.00809,-0.04807,-0.0264,-0.06699,0.0029,-0.03571,-0.01938,0.01007,-0.03998
5.2875,-0.009,-0.05997,-0.04135,0.0061,-0.02762,-0.01709,-0.01572,-0.01465,-0.05402,-0.03235,-0.06866,0.00153,-0.0354,-0.01923,0.00793,-0.03845
5.288,-0.0145,-0.06378,-0.03983,0.00519,-0.02838,-0.03357,-0.01404,-0.02197,-0.05936,-0.03525,-0.06546,-0.00015,-0.03601,-0.02029,0.00656,-0.03906
5.2885,-0.01755,-0.06165,-0.03647,0.00275,-0.02869,-0.04868,-0.00946,-0.02182,-0.06195,-0.03372,-0.05722,-0.00046,-0.03723,-0.02029,0.00946,-0.04105
5.289,-0.02136,-0.05371,-0.03128,-0.00381,-0.02945,-0.05905,-0.00534,-0.01404,-0.05844,-0.03143,-0.04608,-0.00122,-0.03662,-0.01968,0.01495,-0.04028
5.2895,-0.02472,-0.0444,-0.02991,-0.0119,-0.03036,-0.06607,-0.00427,-0.00641,-0.05005,-0.02563,-0.03555,-0.00275,-0.03357,-0.01846,0.01984,-0.03647
5.29,-0.0267,-0.04074,-0.0351,-0.02045,-0.03052,-0.07309,-0.00595,-0.00275,-0.03677,-0.01434,-0.02884,-0.00397,-0.03143,-0.01633,0.02075,-0.03143
5.2905,-0.02579,-0.04349,-0.04425,-0.02716,-0.03159,-0.08301,-0.00854,-0.00183,-0.02365,0.00275,-0.0264,-0.00412,-0.02991,-0.01541,0.01892,-0.02731
5.291,-0.02319,-0.04715,-0.05081,-0.03082,-0.03296,-0.09628,-0.01297,-0.00244,-0.01801,0.0209,-0.0238,-0.00168,-0.02945,-0.01602,0.01648,-0.02548
5.2915,-0.02045,-0.04883,-0.05112,-0.03494,-0.03342,-0.11124,-0.01846,-0.00458,-0.02014,0.03677,-0.02045,0.00107,-0.03052,-0.01694,0.01709,-0.02655
5.292,-0.01862,-0.05142,-0.04715,-0.04425,-0.03342,-0.12344,-0.02197,-0.00717,-0.02518,0.04852,-0.02029,0.0032,-0.03235,-0.01648,0.02029,-0.02777
5.2925,-0.01434,-0.05707,-0.04272,-0.05783,-0.03281,-0.12421,-0.02228,-0.00854,-0.02548,0.05478,-0.02365,0.00259,-0.03204,-0.01526,0.02441,-0.02609
5.293,-0.00748,-0.06317,-0.04013,-0.06653,-0.03174,-0.11276,-0.0209,-0.00565,-0.02167,0.05234,-0.02884,-0.00031,-0.03098,-0.0148,0.02487,-0.02304
5.2935,-0.00107,-0.06561,-0.03738,-0.06592,-0.03067,-0.09506,-0.0209,0.00015,-0.01694,0.04349,-0.03647,-0.00259,-0.03067,-0.0148,0.02014,-0.02151
5.294,0.00275,-0.06577,-0.0351,-0.05981,-0.03021,-0.07843,-0.02228,0.00397,-0.01221,0.03479,-0.04532,-0.00366,-0.0325,-0.01511,0.0145,-0.02457
5.2945,0.00336,-0.06592,-0.03372,-0.05478,-0.03036,-0.0676,-0.02151,0.0032,-0.00641,0.02869,-0.04974,-0.0029,-0.03281,-0.01526,0.00961,-0.03418
5.295,0.00076,-0.06699,-0.03418,-0.05051,-0.03189,-0.05997,-0.01968,0.00015,0.00031,0.02441,-0.04639,-0.00214,-0.03235,-0.01556,0.00595,-0.04837
5.2955,-0.00458,-0.06683,-0.03647,-0.04288,-0.03204,-0.05463,-0.0177,-0.00229,0.00504,0.01801,-0.03616,-0.00198,-0.03296,-0.01495,-0.00092,-0.06119
5.296,-0.009,-0.06607,-0.04105,-0.03189,-0.03189,-0.05112,-0.01678,-0.00305,0.00641,0.00702,-0.02426,-0.00153,-0.03464,-0.01465,-0.00824,-0.06638
5.2965,-0.01175,-0.06424,-0.0473,-0.02655,-0.03113,-0.05249,-0.01556,-0.00549,0.0058,-0.00793,-0.01328,-0.00015,-0.03601,-0.01465,-0.01266,-0.06348
5.297,-0.0119,-0.06104,-0.05066,-0.02975,-0.0322,-0.0563,-0.01205,-0.00885,0.00381,-0.02151,-0.00519,0.00198,-0.03479,-0.0145,-0.01297,-0.05707
5.2975,-0.01175,-0.056,-0.04761,-0.03616,-0.03311,-0.05951,-0.01022,-0.01129,0.00061,-0.03159,0.00061,0.00351,-0.0325,-0.0145,-0.0119,-0.05402
5.298,-0.01221,-0.05173,-0.04227,-0.03815,-0.03464,-0.05692,-0.01129,-0.009,-0.00534,-0.03799,0.00671,0.00244,-0.03189,-0.01434,-0.01007,-0.05569
5.2985,-0.01419,-0.04822,-0.03876,-0.03769,-0.03494,-0.04944,-0.01312,-0.00473,-0.01465,-0.04089,0.01053,0.00031,-0.03326,-0.01602,-0.00992,-0.05737
5.299,-0.01358,-0.04517,-0.03662,-0.0386,-0.03296,-0.04257,-0.01434,-0.00046,-0.02441,-0.04211,0.01328,-0.00076,-0.03403,-0.01724,-0.01022,-0.05737
5.2995,-0.01144,-0.04105,-0.0351,-0.04044,-0.03082,-0.03906,-0.01312,0.00122,-0.02975,-0.0415,0.01434,-0.00107,-0.03265,-0.01755,-0.01053,-0.05493
5.3,-0.00671,-0.03784,-0.03403,-0.03967,-0.0296,-0.03769,-0.01022,0.00198,-0.03113,-0.03967,0.01358,-0.00015,-0.03204,-0.0174,-0.00916,-0.0531
5.3005,-0.00107,-0.03601,-0.03677,-0.03494,-0.02914,-0.03616,-0.00656,0.00275,-0.03052,-0.03662,0.01373,0.00076,-0.03174,-0.0174,-0.00504,-0.05356
5.301,0.00381,-0.03525,-0.04608,-0.02838,-0.0296,-0.03342,-0.00458,0.0032,-0.0296,-0.03586,0.01419,0.00168,-0.0325,-0.01709,0.00122,-0.05417
5.3015,0.00702,-0.03448,-0.05997,-0.02289,-0.03021,-0.03113,-0.00351,0.00107,-0.02823,-0.03845,0.01465,0.00198,-0.03143,-0.01709,0.0058,-0.05325
5.302,0.00687,-0.0322,-0.07034,-0.01648,-0.03189,-0.03021,-0.00488,-0.00397,-0.02808,-0.0415,0.01389,0.00198,-0.02991,-0.0174,0.00793,-0.04913
5.3025,0.00504,-0.02838,-0.06363,-0.01007,-0.03311,-0.03159,-0.00717,-0.00885,-0.02777,-0.0412,0.01541,0.00214,-0.02884,-0.01877,0.00931,-0.04486
5.303,0.00443,-0.02518,-0.04669,-0.00061,-0.03418,-0.03372,-0.01175,-0.01007,-0.0238,-0.03708,0.03143,0.0032,-0.02853,-0.01953,0.01083,-0.04166
5.3035,0.00443,-0.02457,-0.04272,0.01099,-0.03342,-0.03662,-0.01419,-0.00854,-0.01617,-0.03281,0.07278,0.00381,-0.03067,-0.0209,0.01129,-0.04074
5.304,0.00336,-0.02731,-0.06638,0.02014,-0.03357,-0.03891,-0.01617,-0.00717,-0.01144,-0.03143,0.12344,0.00351,-0.03342,-0.02213,0.01175,-0.03998
5.3045,0.00122,-0.03464,-0.0914,0.0235,-0.03525,-0.03937,-0.01907,-0.00458,-0.01205,-0.02792,0.13763,0.00351,-0.03464,-0.02304,0.01053,-0.03967
5.305,-0.00107,-0.04013,-0.08362,0.02609,-0.03662,-0.03769,-0.0235,0.00046,-0.01297,-0.02167,0.08865,0.00397,-0.03326,-0.02228,0.01175,-0.03952
5.3055,-0.0029,-0.04028,-0.04364,0.02869,-0.03723,-0.03708,-0.02579,0.00504,-0.01251,-0.01541,0.00854,0.00427,-0.03464,-0.02121,0.01465,-0.03937
5.306,-0.00443,-0.03601,-0.00122,0.03159,-0.03647,-0.03876,-0.02335,0.00504,-0.01175,-0.01358,-0.04974,0.00397,-0.03708,-0.02014,0.01862,-0.04013
5.3065,-0.00504,-0.03098,0.02487,0.03326,-0.03555,-0.04318,-0.01648,0.00214,-0.01358,-0.01633,-0.06836,0.00351,-0.03799,-0.01968,0.02045,-0.04166
5.307,-0.00412,-0.02686,0.03845,0.0354,-0.03525,-0.05005,-0.01053,0.00107,-0.01892,-0.01892,-0.06683,0.0029,-0.03586,-0.01923,0.01862,-0.04318
5.3075,-0.00183,-0.02441,0.04913,0.03983,-0.0354,-0.05615,-0.00885,0.00366,-0.02289,-0.01801,-0.06378,0.00259,-0.03204,-0.01831,0.01373,-0.04395
5.308,-0.00061,-0.02365,0.05417,0.04364,-0.03693,-0.05981,-0.009,0.00626,-0.02594,-0.01251,-0.05814,0.00153,-0.03113,-0.01602,0.00854,-0.04349
5.3085,-0.00275,-0.0264,0.05157,0.04089,-0.03723,-0.0647,-0.01038,0.00275,-0.03052,-0.00763,-0.04837,0.00092,-0.03418,-0.01511,0.00137,-0.04333
5.309,-0.00732,-0.0296,0.04303,0.03296,-0.03525,-0.07095,-0.01221,-0.00641,-0.03799,-0.00198,-0.03754,0.0,-0.03815,-0.01556,-0.0032,-0.04288
5.3095,-0.0116,-0.02899,0.03281,0.0238,-0.03189,-0.07553,-0.01221,-0.01511,-0.04181,0.00183,-0.03067,0.0,-0.03906,-0.01831,-0.00305,-0.04196
5.31,-0.01343,-0.02258,0.01785,0.01297,-0.0293,-0.07278,-0.01144,-0.0177,-0.03815,0.00015,-0.02716,0.00046,-0.03571,-0.02014,0.00275,-0.04105
5.3105,-0.01358,-0.01312,-0.00092,-0.0032,-0.02609,-0.05966,-0.00977,-0.01221,-0.02975,-0.00977,-0.02762,0.00137,-0.0322,-0.02106,0.01007,-0.04044
5.311,-0.01312,-0.00626,-0.02136,-0.02457,-0.0238,-0.04379,-0.00946,-0.00351,-0.02335,-0.0296,-0.03128,0.00214,-0.03128,-0.02167,0.01434,-0.04074
5.3115,-0.01297,-0.00656,-0.03479,-0.04364,-0.02319,-0.0325,-0.01022,0.00061,-0.02045,-0.05157,-0.03555,0.00153,-0.03143,-0.02243,0.01419,-0.04059
5.312,-0.0145,-0.01312,-0.03662,-0.05753,-0.02411,-0.03036,-0.01175,-0.00183,-0.01709,-0.07126,-0.03952,-0.00076,-0.03143,-0.02304,0.0119,-0.04013
5.3125,-0.01678,-0.02274,-0.03098,-0.07278,-0.02563,-0.03326,-0.01328,-0.00626,-0.01297,-0.08438,-0.03967,-0.00412,-0.03113,-0.02304,0.00931,-0.03983
5.313,-0.02014,-0.03174,-0.02563,-0.09399,-0.02731,-0.03342,-0.01617,-0.00824,-0.01007,-0.09094,-0.03754,-0.00626,-0.03098,-0.02182,0.00824,-0.03799
5.3135,-0.0235,-0.03876,-0.02655,-0.11322,-0.02899,-0.03128,-0.01984,-0.0058,-0.01022,-0.09415,-0.03784,-0.00549,-0.03159,-0.02274,0.00931,-0.03448
5.314,-0.02518,-0.04333,-0.03616,-0.11719,-0.03113,-0.02884,-0.02274,-0.00183,-0.01373,-0.09827,-0.04135,-0.00259,-0.03326,-0.02533,0.01266,-0.03082
5.3145,-0.02365,-0.04761,-0.05157,-0.10422,-0.03052,-0.03006,-0.02243,0.00168,-0.01816,-0.10223,-0.04257,0.00015,-0.03479,-0.02502,0.01495,-0.02808
5.315,-0.0177,-0.05478,-0.06683,-0.08286,-0.02792,-0.0325,-0.02045,0.00427,-0.02243,-0.10056,-0.03769,0.00198,-0.03555,-0.02335,0.01709,-0.02686
5.3155,-0.01129,-0.06348,-0.07355,-0.06119,-0.02518,-0.03281,-0.01923,0.00549,-0.02213,-0.0885,-0.03052,0.00412,-0.03494,-0.02014,0.01999,-0.02518
5.316,-0.00549,-0.06927,-0.07324,-0.03632,-0.02426,-0.03265,-0.01663,0.00595,-0.01495,-0.0679,-0.02655,0.00534,-0.03403,-0.01862,0.02365,-0.0235
5.3165,-0.00122,-0.06989,-0.07095,0.00717,-0.02518,-0.03189,-0.01404,0.00504,-0.0029,-0.04517,-0.02426,0.00519,-0.03326,-0.01801,0.02365,-0.02213
5.317,0.00473,-0.06744,-0.06927,0.08057,-0.02609,-0.03204,-0.01144,0.00305,0.00656,-0.02472,-0.02136,0.00259,-0.03326,-0.01846,0.02106,-0.02258
5.3175,0.01038,-0.06454,-0.06622,0.15778,-0.02533,-0.0322,-0.01083,0.00107,0.00854,-0.00748,-0.01907,0.00122,-0.03296,-0.01755,0.01633,-0.02731
5.318,0.01389,-0.06393,-0.06073,0.19135,-0.02365,-0.03204,-0.01099,0.00153,0.00824,0.00977,-0.01862,0.00061,-0.03159,-0.01663,0.01282,-0.03403
5.3185,0.01541,-0.06668,-0.05569,0.16068,-0.02258,-0.0325,-0.00931,0.00259,0.01099,0.02701,-0.01846,0.00046,-0.0296,-0.01526,0.01053,-0.04013
5.319,0.01602,-0.07019,-0.05402,0.10391,-0.02487,-0.03281,-0.00595,0.00061,0.01709,0.04227,-0.01617,0.00092,-0.02869,-0.01541,0.00854,-0.0415
5.3195,0.01572,-0.07263,-0.05402,0.06927,-0.02914,-0.03372,-0.00214,-0.00427,0.02289,0.05386,-0.01297,0.00061,-0.03067,-0.01633,0.00687,-0.0415
5.32,0.01526,-0.07065,-0.05234,0.06012,-0.03357,-0.03387,-0.00336,-0.00763,0.02655,0.06241,-0.01007,-0.00015,-0.03143,-0.01724,0.00549,-0.04303
5.3205,0.01297,-0.06348,-0.04837,0.04913,-0.0354,-0.03174,-0.01038,-0.00793,0.02914,0.06607,-0.00809,-0.00061,-0.03204,-0.01785,0.00366,-0.04669
5.321,0.01068,-0.05402,-0.04395,0.02518,-0.03464,-0.03159,-0.01892,-0.00641,0.02945,0.06027,-0.0061,-0.00061,-0.03128,-0.01724,0.0029,-0.05066
5.3215,0.00809,-0.04471,-0.04013,0.00534,-0.03296,-0.03342,-0.02167,-0.00671,0.02502,0.04501,-0.00458,0.0,-0.03113,-0.01602,0.00549,-0.05295
5.322,0.00671,-0.03952,-0.03143,0.00275,-0.03342,-0.03342,-0.01801,-0.00854,0.01694,0.02335,-0.00397,0.00076,-0.03174,-0.01648,0.00854,-0.05249
5.3225,0.0058,-0.03723,-0.01755,0.00931,-0.03418,-0.03235,-0.01495,-0.00824,0.009,0.00198,-0.00305,0.0,-0.0322,-0.01892,0.00946,-0.05112
5.323,0.00336,-0.03693,-0.0032,0.00824,-0.03387,-0.03189,-0.01617,-0.00641,0.00381,-0.01129,-0.00031,-0.00183,-0.03143,-0.0209,0.00656,-0.0502
5.3235,0.00061,-0.03586,0.00259,-0.00809,-0.0325,-0.03403,-0.01968,-0.00381,0.00031,-0.01541,0.00275,-0.00381,-0.0322,-0.01999,0.0032,-0.04974
5.324,-0.00244,-0.03342,-0.00076,-0.03342,-0.03159,-0.03632,-0.02014,-0.00107,-0.00244,-0.01312,0.00473,-0.00549,-0.03326,-0.01968,0.00137,-0.04822
5.3245,-0.0058,-0.03128,-0.00793,-0.05737,-0.03174,-0.03845,-0.01709,0.00061,-0.00488,-0.00717,0.00519,-0.00549,-0.03433,-0.01968,0.0029,-0.04578
5.325,-0.00992,-0.03052,-0.01343,-0.07629,-0.03235,-0.04044,-0.01465,0.00107,-0.00778,-0.00214,0.00427,-0.00427,-0.03571,-0.02045,0.00549,-0.04272
5.3255,-0.01312,-0.03098,-0.02075,-0.09079,-0.03311,-0.04562,-0.01556,-0.00061,-0.01129,-0.00168,0.00275,-0.00259,-0.03586,-0.02136,0.0087,-0.04196
5.326,-0.01404,-0.03006,-0.03418,-0.10254,-0.03265,-0.05432,-0.01633,-0.00275,-0.01678,-0.00488,0.00214,-0.00107,-0.03464,-0.01999,0.01175,-0.04166
5.3265,-0.01175,-0.02884,-0.05951,-0.10178,-0.03235,-0.06119,-0.01465,-0.00473,-0.02167,-0.00748,0.00702,0.0,-0.03403,-0.01968,0.01221,-0.04059
5.327,-0.0087,-0.02777,-0.09216,-0.06821,-0.03067,-0.06363,-0.01465,-0.00595,-0.02411,-0.00443,0.01785,0.00061,-0.03448,-0.01999,0.01022,-0.04089
5.3275,-0.00656,-0.02716,-0.11353,0.01389,-0.02914,-0.06302,-0.0209,-0.00549,-0.02274,0.00061,0.02823,0.00061,-0.03571,-0.02182,0.00946,-0.04242
5.328,-0.00717,-0.02686,-0.1004,0.11627,-0.02869,-0.06317,-0.03189,-0.00183,-0.01862,0.00259,0.02487,-0.00076,-0.03632,-0.02441,0.00931,-0.04303
5.3285,-0.009,-0.02609,-0.05585,0.16022,-0.02899,-0.06302,-0.04074,0.00183,-0.01511,0.00275,0.00717,-0.00092,-0.03586,-0.02457,0.01053,-0.04211
5.329,-0.01221,-0.02533,-0.009,0.09705,-0.03098,-0.05417,-0.04181,0.00137,-0.01389,0.00168,-0.01495,-0.00015,-0.03433,-0.02274,0.01038,-0.0412
5.3295,-0.0145,-0.02701,0.01282,-0.03006,-0.03281,-0.03616,-0.03204,-0.00122,-0.0148,-0.00061,-0.0293,-0.00015,-0.03326,-0.01907,0.00854,-0.04227
5.33,-0.0145,-0.0325,0.00671,-0.13992,-0.03403,-0.01907,-0.0174,-0.00092,-0.01297,0.00031,-0.03265,-0.00031,-0.0322,-0.01587,0.00671,-0.04227
5.3305,-0.0116,-0.03754,-0.01373,-0.19745,-0.03494,-0.0116,-0.00534,0.00168,-0.00763,0.00351,-0.02884,-0.00046,-0.0296,-0.01465,0.00748,-0.04074
5.331,-0.00778,-0.0415,-0.03281,-0.21454,-0.03448,-0.01343,0.0032,0.00427,-0.00427,0.00885,-0.02365,0.00015,-0.02792,-0.0145,0.00793,-0.03983
5.3315,-0.00381,-0.04135,-0.04257,-0.20599,-0.03311,-0.01785,0.01312,0.00504,-0.00702,0.0116,-0.02136,0.00122,-0.02701,-0.01526,0.00702,-0.04044
5.332,0.00092,-0.04059,-0.04257,-0.17166,-0.03265,-0.0206,0.02335,0.00458,-0.01694,0.01022,-0.0238,0.00244,-0.02716,-0.01617,0.00656,-0.04013
5.3325,0.00671,-0.03769,-0.04074,-0.10605,-0.03326,-0.02411,0.02502,0.0029,-0.0296,0.00381,-0.02945,0.00275,-0.0267,-0.01633,0.00656,-0.03952
5.333,0.01129,-0.03342,-0.04303,-0.00732,-0.03479,-0.03021,0.01419,-0.00214,-0.0444,-0.00534,-0.03311,0.00137,-0.02701,-0.01633,0.009,-0.03967
5.3335,0.01236,-0.02747,-0.0473,0.09933,-0.03342,-0.03769,-0.00351,-0.0119,-0.06393,-0.01572,-0.03616,0.00137,-0.02991,-0.01724,0.01038,-0.04105
5.334,0.01022,-0.02243,-0.05035,0.17166,-0.03098,-0.04318,-0.01663,-0.02029,-0.08255,-0.02716,-0.03891,0.00183,-0.03204,-0.01709,0.01053,-0.04288
5.3345,0.00824,-0.02136,-0.05081,0.18982,-0.03006,-0.04669,-0.02274,-0.02029,-0.09308,-0.0383,-0.04105,0.00183,-0.03189,-0.01633,0.01007,-0.04196
5.335,0.00732,-0.02533,-0.0502,0.16586,-0.03174,-0.04974,-0.02441,-0.01343,-0.08881,-0.04517,-0.04135,0.00107,-0.02991,-0.01434,0.00992,-0.0412
5.3355,0.00626,-0.02853,-0.05035,0.12421,-0.03326,-0.05157,-0.02289,-0.00534,-0.07385,-0.04715,-0.03998,0.00046,-0.02884,-0.01251,0.01007,-0.04181
5.336,0.00427,-0.02899,-0.04761,0.0769,-0.03189,-0.05341,-0.0174,0.00031,-0.05569,-0.04471,-0.0415,0.0,-0.03052,-0.01328,0.01053,-0.04333
5.3365,0.00214,-0.02838,-0.04013,0.02548,-0.02945,-0.05417,-0.01068,0.0029,-0.03891,-0.0412,-0.04654,-0.00137,-0.03296,-0.01511,0.00992,-0.04364
5.337,0.00015,-0.0293,-0.0296,-0.03464,-0.02869,-0.05219,-0.00809,0.00244,-0.0267,-0.0412,-0.04883,-0.00214,-0.03311,-0.01648,0.00854,-0.04211
5.3375,-0.00092,-0.03235,-0.01877,-0.10773,-0.02853,-0.0499,-0.00854,-0.00076,-0.02167,-0.04608,-0.04318,-0.0029,-0.03098,-0.01694,0.0087,-0.04242
5.338,-0.00198,-0.03662,-0.00778,-0.186,-0.0293,-0.05203,-0.00946,-0.00488,-0.02136,-0.05768,-0.03143,-0.00443,-0.02808,-0.01648,0.00702,-0.0441
5.3385,-0.00427,-0.04044,0.00183,-0.24368,-0.03082,-0.0592,-0.01038,-0.0061,-0.02121,-0.06882,-0.01923,-0.00519,-0.02823,-0.01633,0.00671,-0.04684
5.339,-0.00732,-0.04211,0.00778,-0.23849,-0.03036,-0.06561,-0.01129,-0.00534,-0.01831,-0.06989,-0.00854,-0.00397,-0.02975,-0.01785,0.00732,-0.047
5.3395,-0.01099,-0.04379,0.00839,-0.12024,-0.02731,-0.06454,-0.01083,-0.00244,-0.0177,-0.06119,-0.00046,-0.00305,-0.03036,-0.01953,0.00916,-0.04654
5.34,-0.01389,-0.04776,0.0029,0.08453,-0.02319,-0.05783,-0.009,0.00107,-0.02121,-0.04745,0.00687,-0.00198,-0.0296,-0.01984,0.00977,-0.04532
5.3405,-0.01419,-0.05539,-0.00656,0.22614,-0.02151,-0.05081,-0.00687,0.00488,-0.02762,-0.03647,0.01236,-0.00244,-0.02945,-0.01953,0.00809,-0.04349
5.341,-0.01038,-0.06165,-0.01617,0.18692,-0.02167,-0.04379,-0.00809,0.00687,-0.03006,-0.03006,0.01602,-0.00305,-0.02991,-0.01968,0.00626,-0.04288
5.3415,-0.00809,-0.06165,-0.02304,0.04608,-0.02197,-0.03876,-0.01251,0.00473,-0.02823,-0.02625,0.01663,-0.00275,-0.03082,-0.01953,0.00534,-0.04303
5.342,-0.00839,-0.05783,-0.02625,-0.02625,-0.02182,-0.03815,-0.01785,-0.00137,-0.02441,-0.02304,0.01282,-0.00092,-0.03052,-0.01801,0.00534,-0.0441
5.3425,-0.00824,-0.05646,-0.02914,0.00244,-0.02365,-0.04074,-0.02472,-0.00778,-0.02197,-0.01877,0.00397,0.00092,-0.03036,-0.01633,0.0058,-0.0444
5.343,-0.0029,-0.05798,-0.03311,0.03098,-0.02686,-0.04135,-0.02899,-0.01038,-0.02121,-0.01495,-0.00656,0.00137,-0.03067,-0.01801,0.0061,-0.04395
5.3435,0.00412,-0.05692,-0.03937,0.00366,-0.02884,-0.04074,-0.02777,-0.01083,-0.02014,-0.01312,-0.01511,0.00076,-0.03021,-0.02029,0.00626,-0.04227
5.344,0.00854,-0.05188,-0.04532,-0.03235,-0.02914,-0.04593,-0.02426,-0.01129,-0.01755,-0.01114,-0.01648,0.00137,-0.0296,-0.0209,0.00748,-0.03937
5.3445,0.00778,-0.04684,-0.04868,-0.0322,-0.02991,-0.06027,-0.02045,-0.01205,-0.01312,-0.00824,-0.01373,0.00275,-0.02808,-0.01907,0.00854,-0.03723
5.345,0.0061,-0.04425,-0.04868,-0.01343,-0.03311,-0.07797,-0.01846,-0.01068,-0.00732,-0.00366,-0.01144,0.00336,-0.02747,-0.01831,0.01022,-0.03662
5.3455,0.00336,-0.04272,-0.04211,-0.0032,-0.03555,-0.09445,-0.01556,-0.00885,-0.00244,-0.00031,-0.01236,0.00381,-0.02914,-0.01862,0.0116,-0.03815
5.346,0.00137,-0.04074,-0.02838,-0.00397,-0.03647,-0.11002,-0.01495,-0.009,-0.00031,0.00015,-0.01434,0.00488,-0.03159,-0.0177,0.01175,-0.0383
5.3465,-0.00214,-0.04013,-0.01144,-0.00732,-0.03708,-0.12527,-0.01587,-0.01038,0.00015,-0.00153,-0.01175,0.00687,-0.0322,-0.01648,0.01221,-0.03723
5.347,-0.00458,-0.04089,0.00031,-0.01205,-0.03799,-0.13031,-0.01816,-0.01038,0.0,-0.00565,0.00076,0.00717,-0.03082,-0.01541,0.01312,-0.03662
5.3475,-0.00626,-0.04272,0.00366,-0.01511,-0.03784,-0.12131,-0.01724,-0.00854,-0.00092,-0.01038,0.01846,0.00443,-0.03143,-0.01617,0.01297,-0.03815
5.348,-0.00641,-0.04349,0.00107,-0.0119,-0.03723,-0.10803,-0.0145,-0.00717,-0.00427,-0.01602,0.02991,0.00229,-0.03403,-0.01648,0.01205,-0.04135
5.3485,-0.00809,-0.0441,-0.00366,-0.00885,-0.03799,-0.10208,-0.0116,-0.00534,-0.00809,-0.0209,0.02762,0.0032,-0.03662,-0.01617,0.00839,-0.04456
5.349,-0.01175,-0.04379,-0.01297,-0.01297,-0.03937,-0.09857,-0.01114,-0.00183,-0.01221,-0.02472,0.02045,0.00412,-0.03616,-0.01602,0.0061,-0.0444
5.3495,-0.01633,-0.04318,-0.02869,-0.02075,-0.03952,-0.0885,-0.00885,0.00183,-0.01358,-0.02808,0.02533,0.00458,-0.0354,-0.01785,0.00732,-0.04227
5.35,-0.01923,-0.04135,-0.04395,-0.02441,-0.03891,-0.07156,-0.00549,0.00366,-0.01297,-0.03845,0.04181,0.00397,-0.03418,-0.01907,0.00992,-0.04044
5.3505,-0.01984,-0.0383,-0.05234,-0.02319,-0.0386,-0.05798,-0.00534,0.00381,-0.01404,-0.0528,0.04669,0.00381,-0.03326,-0.01846,0.01129,-0.03891
5.351,-0.01877,-0.03601,-0.05112,-0.02426,-0.03738,-0.04959,-0.00946,0.00381,-0.01907,-0.06577,0.02121,0.00412,-0.03265,-0.01755,0.00961,-0.03876
5.3515,-0.01785,-0.03464,-0.04822,-0.02853,-0.03601,-0.04639,-0.01801,0.00351,-0.02594,-0.06927,-0.02029,0.00351,-0.03174,-0.01648,0.00793,-0.0383
