time,RectFemL,VastusMedL,VastusLatL,TibAntL,HamMedL,HamLatL,GastroMedL,GastroLatL,RectFemR,VastusMedR,VastusLatR,TibAntR,HamMedR,HamLatR,GastroMedR,GastroLatR
8.74,-0.00519,-0.03418,0.0029,-0.00443,-0.02731,-0.05127,-0.01556,0.02151,-4.97452,-0.0766,-0.02151,-0.00381,-0.02716,-0.01953,-0.02426,0.07538
8.7405,0.00046,-0.04044,-0.03967,-0.00046,-0.02762,-0.04776,-0.01526,0.06683,-4.767,-0.08484,-0.03555,-0.00229,-0.02823,-0.01678,0.03433,0.05661
8.741,0.00488,-0.05783,-0.08682,0.00244,-0.03067,-0.04761,-0.01373,0.08865,-4.7438,-0.08194,-0.04715,-0.00092,-0.02884,-0.01465,0.13,0.01297
8.7415,0.00931,-0.09186,-0.11566,0.00458,-0.03128,-0.05081,-0.01236,0.07614,-4.81598,-0.06836,-0.05432,-0.00092,-0.02808,-0.01495,0.1651,-0.0386
8.742,0.01312,-0.13626,-0.12512,0.0058,-0.03342,-0.05219,-0.01297,0.04669,-4.76685,-0.05096,-0.05539,-0.00168,-0.02823,-0.0174,0.07477,-0.07584
8.7425,0.01526,-0.17532,-0.1268,0.00473,-0.03342,-0.05356,-0.01312,0.02304,-4.57703,-0.03281,-0.05356,-0.00259,-0.0296,-0.01831,-0.07019,-0.11124
8.743,0.01312,-0.19073,-0.12115,0.00092,-0.03265,-0.05432,-0.01328,0.01007,-4.27063,-0.0177,-0.05478,-0.00443,-0.03052,-0.01694,-0.16205,-0.16266
8.7435,0.0087,-0.16678,-0.09872,-0.00168,-0.03372,-0.05325,-0.01221,0.00092,-3.86887,-0.00488,-0.06012,-0.00702,-0.03067,-0.0148,-0.17471,-0.21698
8.744,0.00443,-0.11307,-0.05554,0.00076,-0.0351,-0.05127,-0.01221,-0.00961,-3.4697,0.0061,-0.06714,-0.009,-0.02991,-0.01434,-0.13718,-0.24231
8.7445,0.0,-0.05875,-0.00229,0.00458,-0.03662,-0.04837,-0.01328,-0.01953,-3.1517,0.01511,-0.07385,-0.00763,-0.02975,-0.01465,-0.05966,-0.22873
8.745,-0.00687,-0.02274,0.03708,0.0058,-0.03372,-0.04517,-0.01556,-0.02457,-2.86789,0.02304,-0.07889,-0.00397,-0.02991,-0.01465,0.03189,-0.19287
8.7455,-0.01663,-0.00046,0.04181,0.00458,-0.03433,-0.0415,-0.01556,-0.02182,-2.53662,0.02945,-0.07996,-0.00061,-0.03143,-0.01373,0.10208,-0.14954
8.746,-0.02625,0.01968,0.01877,0.00671,-0.03281,-0.03799,-0.01343,-0.01556,-2.16095,0.03052,-0.07401,-0.00031,-0.0325,-0.01312,0.15564,-0.09872
8.7465,-0.03159,0.03891,-0.00641,0.01343,-0.03403,-0.03677,-0.0119,-0.009,-1.79535,0.0206,-0.05981,0.0,-0.03235,-0.0116,0.19211,-0.05035
8.747,-0.03403,0.04562,-0.02502,0.02014,-0.03571,-0.03998,-0.0119,-0.00381,-1.45752,0.0029,-0.03922,0.00137,-0.03113,-0.00931,0.14084,-0.01846
8.7475,-0.03281,0.03693,-0.04044,0.02228,-0.03677,-0.04623,-0.01343,-0.00122,-1.13342,-0.00992,-0.01831,0.00427,-0.03006,-0.00763,-0.01724,-0.0061
8.748,-0.02945,0.02106,-0.04272,0.01373,-0.03616,-0.05219,-0.0145,-0.00153,-0.81757,-0.01099,-0.00137,0.0061,-0.03113,-0.00885,-0.13565,-0.00519
8.7485,-0.02579,0.00778,-0.009,-0.0116,-0.03006,-0.05432,-0.0148,-0.00214,-0.5191,-0.00595,0.01007,0.00488,-0.03326,-0.01144,-0.06378,-0.01205
8.749,-0.02151,-0.00015,0.05966,-0.047,-0.02884,-0.0531,-0.01465,-0.00183,-0.24231,-0.00717,0.01312,0.00229,-0.03494,-0.01419,0.14465,-0.03403
8.7495,-0.01633,-0.0061,0.12909,-0.0766,-0.02609,-0.04974,-0.01419,-0.00046,0.0238,-0.01724,0.00351,0.00107,-0.03372,-0.01419,0.29251,-0.07202
8.75,-0.009,-0.01251,0.16769,-0.09155,-0.02975,-0.04532,-0.01373,0.0,0.28839,-0.03006,-0.01816,0.00092,-0.03174,-0.01312,0.27039,-0.11108
8.7505,-0.00443,-0.02014,0.17273,-0.09903,-0.03036,-0.04272,-0.01343,-0.00153,0.54474,-0.03754,-0.04456,0.00046,-0.03159,-0.01251,0.14633,-0.13779
8.751,-0.00305,-0.02808,0.15915,-0.10162,-0.03128,-0.04349,-0.01297,-0.0029,0.7814,-0.03998,-0.05814,0.0,-0.03296,-0.01434,0.05463,-0.14542
8.7515,-0.00137,-0.0383,0.13489,-0.08987,-0.02823,-0.04745,-0.01251,-0.00275,0.99045,-0.03891,-0.05157,-0.00061,-0.03586,-0.01663,0.03616,-0.13687
8.752,0.00809,-0.0473,0.09872,-0.05661,-0.0293,-0.05112,-0.01129,-0.00198,1.1734,-0.03525,-0.0322,0.00031,-0.03738,-0.0145,0.02991,-0.11536
8.7525,0.01999,-0.05096,0.05127,-0.02655,-0.03128,-0.05081,-0.01114,-0.00336,1.33133,-0.02548,-0.01633,0.00122,-0.03815,-0.00641,-0.00595,-0.08743
8.753,0.02655,-0.04791,0.0061,-0.01862,-0.02899,-0.04517,-0.01205,-0.00641,1.46744,-0.01419,-0.01144,0.00198,-0.03815,0.00137,-0.03418,-0.06012
8.7535,0.02426,-0.03998,-0.02914,-0.02243,-0.0296,-0.0415,-0.01282,-0.00931,1.58615,-0.00412,-0.01205,0.00198,-0.03891,0.00381,-0.0061,-0.03876
8.754,0.01648,-0.03204,-0.05463,-0.01144,-0.02838,-0.04272,-0.01343,-0.00748,1.68671,0.00168,-0.01587,0.00122,-0.03952,0.00031,0.05493,-0.02655
8.7545,0.00824,-0.02792,-0.07187,0.02106,-0.0322,-0.04791,-0.01297,-0.0029,1.77368,0.00763,-0.02396,0.0,-0.03906,-0.0032,0.07401,-0.02319
8.755,0.00259,-0.02853,-0.07935,0.06714,-0.03021,-0.05112,-0.01251,0.00198,1.84753,0.01801,-0.03571,-0.00153,-0.03937,-0.0032,0.01495,-0.02487
8.7555,0.0,-0.03357,-0.07813,0.12405,-0.03082,-0.04959,-0.01236,0.00381,1.90536,0.03403,-0.04593,-0.00122,-0.03891,0.00153,-0.05585,-0.02579
8.756,-0.00046,-0.04562,-0.07584,0.1738,-0.02838,-0.04684,-0.01297,0.00275,1.95038,0.05096,-0.04974,0.0,-0.03708,0.00336,-0.05066,-0.02396
8.7565,0.0,-0.06348,-0.08224,0.17471,-0.03006,-0.0444,-0.01282,0.00092,1.98914,0.06317,-0.04501,-0.00046,-0.03418,0.0,0.01251,-0.02045
8.757,0.00076,-0.08148,-0.09811,0.11642,-0.03067,-0.04395,-0.01312,-0.00046,2.02301,0.06516,-0.03311,-0.00137,-0.03143,-0.00763,0.03723,-0.01282
8.7575,0.00168,-0.08911,-0.11154,0.04959,-0.03204,-0.04349,-0.01389,-0.00305,2.04666,0.05875,-0.01465,-0.00275,-0.03021,-0.01389,-0.00366,0.00092
8.758,0.00168,-0.08286,-0.11063,0.02533,-0.03265,-0.0444,-0.01556,-0.00687,2.05582,0.0502,0.00916,-0.00168,-0.02975,-0.01434,-0.03632,0.01328
8.7585,-0.00031,-0.06989,-0.10193,0.0351,-0.03357,-0.04517,-0.01648,-0.01083,2.04773,0.0412,0.03342,-0.00076,-0.02914,-0.01221,-0.01953,0.01022
8.759,-0.00336,-0.05524,-0.09552,0.0293,-0.03357,-0.0444,-0.01572,-0.0116,2.03079,0.03159,0.05203,0.00076,-0.02853,-0.01266,-0.02625,-0.00732
8.7595,-0.00488,-0.04181,-0.09521,-0.01144,-0.03311,-0.04333,-0.01465,-0.00946,2.01218,0.01923,0.07324,0.00153,-0.02808,-0.01846,-0.12833,-0.02594
8.76,-0.00458,-0.0296,-0.09796,-0.06332,-0.03159,-0.04425,-0.01312,-0.00717,1.99127,-0.00168,0.10895,0.0029,-0.02808,-0.02701,-0.26962,-0.02945
8.7605,-0.0087,-0.0206,-0.10269,-0.1004,-0.0325,-0.04837,-0.0119,-0.00504,1.96472,-0.03143,0.14069,0.00351,-0.0296,-0.03143,-0.32379,-0.01358
8.761,-0.02136,-0.01373,-0.12039,-0.12039,-0.03448,-0.05432,-0.01205,-0.00412,1.93512,-0.05798,0.12482,0.00275,-0.03036,-0.03036,-0.25436,0.01434
8.7615,-0.03906,-0.00793,-0.15656,-0.13535,-0.03464,-0.05814,-0.01389,-0.0061,1.90201,-0.0676,0.05493,0.00031,-0.03082,-0.02899,-0.13229,0.03647
8.762,-0.05035,-0.01007,-0.19699,-0.14114,-0.03342,-0.05585,-0.01572,-0.01007,1.8576,-0.0589,-0.02197,-0.00076,-0.03067,-0.02899,-0.01434,0.03464
8.7625,-0.04684,-0.0267,-0.21713,-0.12115,-0.02884,-0.05035,-0.01602,-0.01251,1.79947,-0.04257,-0.06317,0.00061,-0.03098,-0.03082,0.06943,0.0032
8.763,-0.03113,-0.05905,-0.20447,-0.06653,-0.02899,-0.04578,-0.01663,-0.01099,1.74179,-0.02945,-0.07065,0.00214,-0.0322,-0.03265,0.05005,-0.04578
8.7635,-0.0145,-0.0943,-0.1709,0.00504,-0.02777,-0.04501,-0.01663,-0.00778,1.70151,-0.02213,-0.07553,0.00214,-0.03311,-0.03204,-0.06226,-0.09384
8.764,-0.0032,-0.11566,-0.13336,0.06088,-0.02762,-0.04547,-0.01617,-0.00519,1.6684,-0.01862,-0.10437,0.00107,-0.03326,-0.02853,-0.10239,-0.12772
8.7645,0.00519,-0.11261,-0.09705,0.0798,-0.0264,-0.047,-0.01572,-0.00488,1.62766,-0.01999,-0.15884,-0.00031,-0.03281,-0.02121,0.01846,-0.13885
8.765,0.01312,-0.08789,-0.06104,0.06729,-0.02701,-0.04898,-0.01526,-0.00443,1.58203,-0.02563,-0.20706,-0.00015,-0.03265,-0.01556,0.13351,-0.12787
8.7655,0.02029,-0.0589,-0.02533,0.0473,-0.0296,-0.05142,-0.01495,-0.00137,1.54037,-0.03296,-0.20645,-0.00031,-0.03433,-0.01724,0.0621,-0.10178
8.766,0.02365,-0.0386,0.00153,0.03738,-0.02884,-0.05249,-0.01404,0.00336,1.50055,-0.04028,-0.15366,-0.00076,-0.03555,-0.02701,-0.11551,-0.06302
8.7665,0.02274,-0.02243,0.01419,0.03296,-0.02899,-0.05219,-0.01312,0.0061,1.46317,-0.04547,-0.08926,-0.00107,-0.0354,-0.03677,-0.18799,-0.01083
8.767,0.01801,0.0,0.0174,0.00809,-0.02518,-0.05127,-0.01358,0.00488,1.4386,-0.04562,-0.04807,0.00076,-0.03326,-0.0441,-0.10223,0.04333
8.7675,0.01022,0.03036,0.01831,-0.065,-0.02472,-0.04791,-0.01312,0.00351,1.4267,-0.03693,-0.02533,0.00275,-0.0296,-0.05371,0.02075,0.07751
8.768,0.00046,0.06119,0.02029,-0.17868,-0.02289,-0.04395,-0.01175,0.00397,1.41266,-0.01984,0.00137,0.00351,-0.02716,-0.07034,0.09048,0.07416
8.7685,-0.01114,0.0827,0.02335,-0.28732,-0.02319,-0.03952,-0.01007,0.0058,1.38306,-0.0029,0.03525,0.00305,-0.02777,-0.08545,0.11581,0.0264
8.769,-0.02151,0.08423,0.02335,-0.34302,-0.01999,-0.03754,-0.01068,0.00702,1.3446,0.00244,0.06088,0.00229,-0.02762,-0.08728,0.12589,-0.05661
8.7695,-0.02533,0.0589,0.01114,-0.32639,-0.0209,-0.0383,-0.0119,0.0058,1.31531,-0.00443,0.07156,0.00122,-0.02655,-0.07309,0.13947,-0.13412
8.77,-0.02014,0.01648,-0.01617,-0.23804,-0.0209,-0.04013,-0.01221,0.00366,1.30325,-0.01617,0.07172,0.00122,-0.02426,-0.05371,0.17258,-0.16068
8.7705,-0.01251,-0.02747,-0.04974,-0.0766,-0.02197,-0.04196,-0.01221,0.00046,1.30829,-0.02319,0.06821,0.00214,-0.02411,-0.04059,0.21515,-0.13397
8.771,-0.00717,-0.06516,-0.07523,0.14359,-0.02502,-0.04425,-0.01236,-0.00137,1.34354,-0.02747,0.05997,0.00229,-0.02472,-0.03189,0.22598,-0.09445
8.7715,-0.00626,-0.10101,-0.08972,0.34531,-0.02655,-0.04562,-0.01144,-0.00107,1.41235,-0.03296,0.04807,0.00153,-0.02548,-0.02502,0.18539,-0.07111
8.772,-0.0061,-0.13474,-0.0943,0.43335,-0.02869,-0.04684,-0.01175,0.0,1.47644,-0.0415,0.03662,0.00031,-0.02594,-0.01907,0.11917,-0.05295
8.7725,-0.00748,-0.15274,-0.08698,0.38712,-0.03204,-0.0473,-0.01251,-0.00168,1.46606,-0.04868,0.03311,0.00076,-0.02579,-0.01495,0.07874,-0.01556
8.773,-0.01083,-0.14709,-0.06348,0.26474,-0.03311,-0.0473,-0.01434,-0.00443,1.35925,-0.05325,0.03738,0.00137,-0.02548,-0.01495,0.09613,0.04639
8.7735,-0.01663,-0.12665,-0.02731,0.13641,-0.03113,-0.04608,-0.01556,-0.00732,1.21124,-0.05585,0.04272,0.00183,-0.02686,-0.01892,0.14252,0.11597
8.774,-0.0206,-0.10284,0.00336,0.05661,-0.03387,-0.04471,-0.01617,-0.0087,1.08704,-0.05936,0.04379,0.00244,-0.02975,-0.02594,0.15045,0.16296
8.7745,-0.01923,-0.07828,0.02502,0.05325,-0.03555,-0.04333,-0.01556,-0.00977,0.98297,-0.05951,0.04089,0.00351,-0.03174,-0.0296,0.0885,0.17288
8.775,-0.01205,-0.04807,0.04471,0.10056,-0.03906,-0.04364,-0.01755,-0.01129,0.85938,-0.05295,0.03525,0.00259,-0.03098,-0.02808,-0.01129,0.15839
8.7755,-0.00076,-0.01175,0.0679,0.12848,-0.04013,-0.04623,-0.02014,-0.0119,0.72098,-0.04669,0.02792,0.00046,-0.02884,-0.02182,-0.08911,0.13901
8.776,0.00839,0.0145,0.08484,0.09735,-0.03967,-0.04898,-0.01923,-0.01083,0.61813,-0.05081,0.02106,-0.00122,-0.02686,-0.01526,-0.09552,0.10529
8.7765,0.01343,0.00916,0.08682,0.03952,-0.03998,-0.05127,-0.01724,-0.0087,0.5809,-0.06393,0.02014,-0.00168,-0.02625,-0.01144,-0.02472,0.04227
8.777,0.01083,-0.02151,0.08377,0.00336,-0.04227,-0.05295,-0.01572,-0.00702,0.58136,-0.07324,0.02762,-0.00107,-0.02625,-0.01221,0.07095,-0.0296
8.7775,0.0058,-0.05096,0.09567,-0.0119,-0.0441,-0.05463,-0.0148,-0.00595,0.53024,-0.06821,0.04089,-0.00153,-0.02686,-0.01526,0.13611,-0.07507
8.778,-0.00076,-0.0647,0.12177,-0.03433,-0.04639,-0.0563,-0.01389,-0.00443,0.34744,-0.0563,0.05096,-0.00244,-0.0264,-0.01709,0.1445,-0.08728
8.7785,-0.00626,-0.06805,0.13565,-0.0708,-0.04913,-0.056,-0.01205,-0.00244,0.06592,-0.04684,0.0441,-0.00198,-0.02487,-0.01572,0.11673,-0.09033
8.779,-0.00931,-0.07217,0.12177,-0.10239,-0.05035,-0.05432,-0.00977,-0.00168,-0.16037,-0.0415,0.01801,-0.00076,-0.02426,-0.0119,0.09598,-0.11093
8.7795,-0.01175,-0.07309,0.08621,-0.11627,-0.0502,-0.05173,-0.00854,-0.00336,-0.23315,-0.03357,-0.01328,0.0,-0.02289,-0.00839,0.09628,-0.1564
8.78,-0.01495,-0.06302,0.04089,-0.12466,-0.04578,-0.05066,-0.01022,-0.0058,-0.26443,-0.01755,-0.03098,0.00015,-0.02014,-0.00366,0.08438,-0.21439
8.7805,-0.01923,-0.03967,-0.01495,-0.13626,-0.04318,-0.05142,-0.01373,-0.00671,-0.43457,0.00076,-0.0322,0.0,-0.01816,0.00137,0.0264,-0.25406
8.781,-0.02289,-0.01144,-0.08392,-0.14893,-0.03998,-0.05478,-0.01556,-0.00534,-0.7164,0.01892,-0.02869,0.00183,-0.01831,0.00504,-0.05127,-0.25406
8.7815,-0.02243,0.00488,-0.1564,-0.15503,-0.03983,-0.05585,-0.01602,-0.00519,-0.90134,0.0351,-0.03265,0.00214,-0.02136,0.0032,-0.08926,-0.22614
8.782,-0.01617,0.00183,-0.21225,-0.15854,-0.03891,-0.05371,-0.01678,-0.00717,-0.89111,0.04028,-0.04395,0.00107,-0.02243,-0.00198,-0.06729,-0.19958
8.7825,-0.0061,-0.0177,-0.23849,-0.16144,-0.03876,-0.05051,-0.01724,-0.00992,-0.80231,0.03143,-0.05432,0.00015,-0.02243,-0.00458,-0.01083,-0.16266
8.783,0.00198,-0.04105,-0.23529,-0.15533,-0.03525,-0.04852,-0.01709,-0.01068,-0.78613,0.01389,-0.06042,0.00229,-0.02274,-0.00427,0.03387,-0.09125
8.7835,0.00595,-0.06134,-0.20325,-0.13275,-0.03204,-0.04868,-0.01694,-0.01129,-0.86548,0.00107,-0.06393,0.00565,-0.02426,-0.00259,0.05264,0.00687
8.784,0.00824,-0.07843,-0.14236,-0.10132,-0.02792,-0.04868,-0.01694,-0.0119,-0.97778,-0.00092,-0.06622,0.00671,-0.02594,-0.00229,0.08133,0.07645
8.7845,0.01205,-0.09659,-0.06729,-0.06775,-0.02762,-0.04807,-0.01724,-0.0116,-1.13831,0.00275,-0.06607,0.00534,-0.02563,-0.00122,0.12833,0.08759
8.785,0.01678,-0.11124,-0.00488,-0.03067,-0.02869,-0.04715,-0.01617,-0.0087,-1.5683,0.00259,-0.06195,0.00397,-0.02365,0.00092,0.13336,0.06607
8.7855,0.01968,-0.11459,0.02838,0.01144,-0.03006,-0.04593,-0.01602,-0.00443,-2.55157,-0.00717,-0.06012,0.00336,-0.02396,0.00259,0.06241,0.04135
8.786,0.01923,-0.09735,0.03693,0.0386,-0.03265,-0.04562,-0.0148,-0.00107,-3.93616,-0.01984,-0.06104,0.00229,-0.0238,0.0032,-0.02762,0.01099
8.7865,0.01633,-0.06683,0.02792,0.03143,-0.03479,-0.04715,-0.0145,-0.00031,-4.91943,-0.02487,-0.05371,0.00076,-0.02411,0.00122,-0.07141,-0.03326
8.787,0.01404,-0.03845,0.00488,0.00198,-0.03845,-0.05173,-0.01495,-0.00107,-4.97467,-0.01495,-0.02365,0.00107,-0.02518,-0.00504,-0.06409,-0.08072
8.7875,0.01266,-0.02029,-0.02838,-0.01907,-0.03754,-0.05478,-0.01511,-0.00229,-4.87823,0.00504,0.02426,0.00198,-0.02686,-0.01373,-0.02151,-0.11078
8.788,0.01266,-0.00885,-0.06378,-0.01999,-0.03693,-0.05371,-0.0148,-0.00366,-4.74228,0.02396,0.05753,0.00137,-0.0296,-0.02151,0.05707,-0.11169
8.7885,0.01221,0.00275,-0.10269,-0.00916,-0.03372,-0.04837,-0.0148,-0.00244,-4.80576,0.03418,0.04471,0.0,-0.03265,-0.02441,0.13504,-0.08072
8.789,0.01083,0.01236,-0.16083,-0.00153,-0.03235,-0.04333,-0.01511,-0.00076,-4.82391,0.03357,-0.00061,-0.00046,-0.03448,-0.02411,0.13641,-0.02274
8.7895,0.00717,0.01633,-0.23697,-0.00031,-0.02899,-0.04135,-0.01511,0.0,-4.67239,0.02579,-0.03464,0.00046,-0.03464,-0.02289,0.03296,0.0441
8.79,0.0029,0.01053,-0.29739,-0.00397,-0.02243,-0.04013,-0.01511,-0.00214,-4.27063,0.01617,-0.03448,0.00198,-0.03372,-0.02289,-0.08606,0.07828
8.7905,0.00153,0.0,-0.30319,-0.00732,-0.02319,-0.04013,-0.01541,-0.00534,-3.52005,0.00977,-0.01312,0.00275,-0.03311,-0.02365,-0.11581,0.05173
8.791,0.00275,-0.01083,-0.2533,-0.00458,-0.02426,-0.04181,-0.01495,-0.00626,-2.58896,0.00381,0.00229,0.0029,-0.03418,-0.02441,-0.04868,-0.01694
8.7915,0.00229,-0.02304,-0.17456,0.0029,-0.02441,-0.0444,-0.01511,-0.00473,-1.85226,-0.00702,0.00656,0.00183,-0.03616,-0.02426,0.02228,-0.07629
8.792,-0.00198,-0.0383,-0.08301,0.00916,-0.02533,-0.04608,-0.01465,-0.00427,-1.42883,-0.02396,0.00565,0.00259,-0.03693,-0.02319,0.00275,-0.11505
8.7925,-0.00641,-0.0531,0.02014,0.00931,-0.02243,-0.04608,-0.01495,-0.0029,-1.09634,-0.04135,0.00092,0.00336,-0.03708,-0.02304,-0.10788,-0.16556
8.793,-0.00626,-0.05875,0.11978,0.00687,-0.02167,-0.04456,-0.01572,-0.00061,-0.71136,-0.05417,-0.0116,0.0032,-0.03723,-0.02121,-0.19821,-0.23849
8.7935,-0.00153,-0.04761,0.19211,0.00595,-0.02182,-0.0444,-0.01602,0.00259,-0.40771,-0.05997,-0.02975,0.00153,-0.03754,-0.01755,-0.16327,-0.2829
8.794,0.00046,-0.02533,0.22018,0.00732,-0.02243,-0.04456,-0.01511,0.0058,-0.2832,-0.05646,-0.04761,0.00061,-0.03677,-0.01129,-0.03723,-0.26672
8.7945,-0.00107,-0.01205,0.20935,0.00809,-0.02106,-0.04532,-0.01434,0.00732,-0.12726,-0.04898,-0.06409,0.00031,-0.03693,-0.00488,0.06012,-0.21072
8.795,-0.00488,-0.02228,0.17395,0.00763,-0.02075,-0.04501,-0.01404,0.00748,0.33997,-0.04135,-0.09323,0.00015,-0.03616,-0.00015,0.04639,-0.16006
8.7955,-0.0061,-0.05219,0.13123,0.00824,-0.0206,-0.04623,-0.01312,0.00717,1.08551,-0.03479,-0.13657,-0.00046,-0.03464,0.00153,-0.07996,-0.12604
8.796,-0.00305,-0.08392,0.0946,0.00931,-0.02304,-0.047,-0.01175,0.00656,1.82663,-0.02884,-0.17029,-0.00122,-0.03174,0.00092,-0.22095,-0.09384
8.7965,0.00137,-0.10559,0.06973,0.0087,-0.02365,-0.04623,-0.01175,0.0061,2.37717,-0.02136,-0.17807,-0.00168,-0.02975,-0.00504,-0.21896,-0.05508
8.797,0.00565,-0.11475,0.0499,0.0061,-0.0235,-0.04318,-0.01175,0.00336,2.76672,-0.01358,-0.16129,-0.00168,-0.03067,-0.01877,-0.02396,-0.01205
8.7975,0.00946,-0.11734,0.02777,0.00275,-0.02579,-0.04013,-0.0119,-0.00549,3.12286,-0.01068,-0.12833,-0.00153,-0.03387,-0.03998,0.19196,0.02411
8.798,0.0119,-0.1181,0.00381,0.00122,-0.02472,-0.03738,-0.01083,-0.02213,3.56781,-0.01221,-0.07858,-0.00183,-0.03586,-0.05859,0.22095,0.05066
8.7985,0.01343,-0.11688,-0.01617,0.00046,-0.02563,-0.03708,-0.00977,-0.04532,4.14139,-0.01648,-0.01755,-0.00229,-0.03571,-0.06638,0.06332,0.0592
8.799,0.01358,-0.10849,-0.02716,-0.00137,-0.02243,-0.03876,-0.01007,-0.06866,4.69879,-0.01968,0.03693,-0.00137,-0.03479,-0.06012,-0.07919,0.05035
8.7995,0.01114,-0.09323,-0.02838,-0.00259,-0.02197,-0.04044,-0.00946,-0.08545,4.99985,-0.02213,0.07477,0.00198,-0.03403,-0.04791,-0.04913,0.03479
8.8,0.00931,-0.07492,-0.02365,-0.00244,-0.02228,-0.04028,-0.0087,-0.08102,4.99985,-0.02823,0.09445,0.00336,-0.0351,-0.03799,0.07858,0.01968
8.8005,0.01038,-0.05768,-0.01831,-0.00076,-0.0267,-0.03952,-0.00931,-0.03143,4.95148,-0.03937,0.09903,0.00061,-0.0383,-0.03342,0.13168,-0.00046
8.801,0.01389,-0.04013,-0.0116,0.00137,-0.02975,-0.03952,-0.01205,0.05829,4.89609,-0.04776,0.0853,-0.00397,-0.04135,-0.03006,0.07813,-0.02365
8.8015,0.01617,-0.0235,-0.0061,0.00366,-0.03357,-0.04272,-0.01389,0.13275,4.73022,-0.04456,0.05997,-0.00443,-0.04227,-0.02747,0.03571,-0.04303
8.802,0.01511,-0.00656,-0.00458,0.00565,-0.03387,-0.04807,-0.01404,0.13504,4.33136,-0.03021,0.03387,-0.00122,-0.04242,-0.02258,0.05966,-0.06042
8.8025,0.01053,0.00931,-0.01648,0.00443,-0.03387,-0.05264,-0.01602,0.07553,3.90305,-0.01648,0.01663,0.00244,-0.04318,-0.01816,0.07614,-0.0679
8.803,0.00763,0.02289,-0.04013,0.00183,-0.03479,-0.05432,-0.02182,0.01099,3.73688,-0.0145,0.00992,0.00443,-0.04395,-0.01465,0.01129,-0.04517
8.8035,0.00702,0.03098,-0.06317,-0.00046,-0.03784,-0.0531,-0.03204,-0.02045,3.7735,-0.02441,0.00839,0.00412,-0.04333,-0.01358,-0.10117,0.00351
8.804,0.00534,0.03159,-0.07324,-0.00275,-0.0415,-0.05127,-0.04013,-0.01617,3.74496,-0.0351,0.01358,0.00381,-0.04257,-0.01266,-0.17624,0.03677
8.8045,0.00244,0.02701,-0.07416,-0.00519,-0.04272,-0.05096,-0.0412,0.01404,3.57864,-0.0412,0.03265,0.00488,-0.0415,-0.00885,-0.18066,0.01755
8.805,-0.00107,0.01999,-0.08194,-0.00824,-0.04456,-0.05234,-0.03632,0.04776,3.41888,-0.04227,0.06195,0.00534,-0.03922,-0.00153,-0.14862,-0.03204
8.8055,-0.0032,0.01053,-0.11185,-0.01007,-0.05051,-0.05432,-0.03204,0.05814,3.31406,-0.03799,0.09186,0.00488,-0.03571,0.00641,-0.1178,-0.06927
8.806,-0.00687,-0.0058,-0.16693,-0.01022,-0.05157,-0.05737,-0.03616,0.03281,3.07419,-0.03036,0.10147,0.00336,-0.03342,0.00961,-0.07813,-0.08286
8.8065,-0.01312,-0.02197,-0.2272,-0.0087,-0.05386,-0.0592,-0.04852,-0.00763,2.42462,-0.02319,0.0856,0.00183,-0.0325,0.00473,-0.02884,-0.08026
8.807,-0.01953,-0.02792,-0.2565,-0.00671,-0.05447,-0.06088,-0.06226,-0.02563,1.25153,-0.02319,0.0441,0.00137,-0.03357,-0.00458,-0.02563,-0.06012
8.8075,-0.0235,-0.01816,-0.22873,-0.00427,-0.05341,-0.06378,-0.06104,-0.00641,-0.14801,-0.03448,-0.02792,0.00092,-0.03281,-0.01175,-0.10422,-0.01953
8.808,-0.02457,-0.00305,-0.15198,-0.00122,-0.05585,-0.06775,-0.03113,0.02426,-1.05896,-0.05539,-0.112,0.00015,-0.03174,-0.01495,-0.19501,0.02411
8.8085,-0.02518,0.00763,-0.0618,0.00183,-0.0502,-0.0705,0.01663,0.02945,-0.95581,-0.07492,-0.16891,-0.00031,-0.03067,-0.01556,-0.20844,0.03372
8.809,-0.03143,0.00854,0.00595,0.00214,-0.04761,-0.0679,0.04974,0.0,-0.01694,-0.0798,-0.17365,-0.00061,-0.03189,-0.01755,-0.14999,-0.00092
8.8095,-0.04044,0.00061,0.03769,0.00214,-0.04105,-0.06058,0.04684,-0.03906,1.0672,-0.07217,-0.14175,-0.00107,-0.03448,-0.02045,-0.0621,-0.05081
8.81,-0.04578,-0.01205,0.04868,-0.00137,-0.03845,-0.05203,0.02197,-0.06058,1.76361,-0.06073,-0.11032,-0.00168,-0.03708,-0.02151,0.05676,-0.07477
8.8105,-0.0444,-0.03098,0.05814,-0.00626,-0.03708,-0.04669,0.0061,-0.05798,2.04178,-0.05707,-0.09598,-0.00244,-0.0383,-0.0209,0.18188,-0.06897
8.811,-0.04196,-0.05478,0.06317,-0.0116,-0.0325,-0.04501,0.01633,-0.04166,2.13364,-0.0618,-0.08728,-0.00229,-0.03723,-0.01709,0.22461,-0.06058
8.8115,-0.04196,-0.07751,0.05325,-0.01541,-0.03159,-0.04562,0.04318,-0.02625,1.9931,-0.0708,-0.06516,-0.00122,-0.03448,-0.00916,0.15854,-0.06989
8.812,-0.04517,-0.09354,0.02899,-0.01663,-0.03082,-0.04669,0.06729,-0.02548,1.37085,-0.07721,-0.02579,0.00092,-0.03098,0.0032,0.07278,-0.07828
8.8125,-0.04593,-0.103,0.00824,-0.01755,-0.03021,-0.04684,0.06744,-0.05341,0.46585,-0.07477,0.01297,0.00305,-0.02975,0.01617,0.03571,-0.05554
8.813,-0.0441,-0.10605,0.00748,-0.01953,-0.02838,-0.04639,0.03693,-0.10452,-0.0882,-0.056,0.02869,0.00336,-0.03113,0.02182,0.0383,-0.00458
8.8135,-0.03983,-0.1062,0.02426,-0.0206,-0.0238,-0.04791,-0.01144,-0.15137,-0.04379,-0.02609,0.01877,0.00275,-0.03357,0.02106,0.06134,0.04227
8.814,-0.03235,-0.10574,0.04471,-0.01999,-0.02487,-0.04852,-0.05249,-0.15991,0.1474,-0.00031,-0.00153,0.00122,-0.03571,0.01816,0.0972,0.0621
8.8145,-0.02243,-0.10223,0.05081,-0.01953,-0.02319,-0.04593,-0.06638,-0.10635,-0.01923,0.01053,-0.01968,0.00031,-0.03555,0.01999,0.11276,0.06134
8.815,-0.01266,-0.09857,0.03967,-0.0209,-0.02304,-0.04318,-0.05478,-0.0032,-0.51697,0.00305,-0.03387,-0.00107,-0.03479,0.02274,0.08698,0.05142
8.8155,-0.00793,-0.10483,0.01984,-0.02426,-0.02274,-0.04028,-0.03662,0.08453,-0.91385,-0.01038,-0.04501,-0.00183,-0.03647,0.02029,0.05753,0.03433
8.816,-0.00839,-0.12085,0.00076,-0.0264,-0.02441,-0.03983,-0.0264,0.09216,-0.84732,-0.01801,-0.04837,-0.00107,-0.04013,0.00946,0.06561,0.0087
8.8165,-0.01114,-0.12604,-0.01328,-0.02686,-0.02365,-0.04028,-0.02365,0.03525,-0.29404,-0.01602,-0.03616,0.00214,-0.04303,-0.0058,0.09232,-0.01678
8.817,-0.01389,-0.10086,-0.02502,-0.02426,-0.02594,-0.04135,-0.01938,-0.01175,0.52094,-0.00961,-0.01526,0.00381,-0.04379,-0.0209,0.09079,-0.02884
8.8175,-0.0206,-0.0531,-0.03876,-0.0145,-0.02609,-0.04272,-0.01038,-0.01389,1.30646,-0.00137,0.00397,0.00336,-0.0441,-0.03464,0.05966,-0.02747
8.818,-0.02823,-0.01022,-0.05371,-0.00122,-0.02899,-0.04333,-0.00015,0.00305,1.84555,0.01282,0.01282,0.00168,-0.04486,-0.04745,0.03326,-0.0267
8.8185,-0.0325,0.01038,-0.07309,0.00931,-0.02792,-0.04272,0.00397,0.01099,2.10175,0.03326,0.01251,0.00061,-0.04608,-0.0592,0.02502,-0.03754
8.819,-0.03082,0.01266,-0.10254,0.01053,-0.03098,-0.04074,0.00168,0.01358,2.21466,0.05157,0.01297,0.00031,-0.04608,-0.07187,0.02335,-0.05844
8.8195,-0.0267,0.00565,-0.1442,0.00534,-0.02655,-0.03708,-0.00504,0.02151,2.31781,0.06119,0.01938,0.00046,-0.04471,-0.08133,0.02899,-0.07416
8.82,-0.0267,-0.01007,-0.19348,0.00031,-0.02563,-0.03342,-0.01434,0.03113,2.3671,0.0618,0.01877,0.00107,-0.04333,-0.08286,0.04562,-0.07492
8.8205,-0.02792,-0.02655,-0.23544,-0.00229,-0.02029,-0.0325,-0.02457,0.03937,2.22412,0.05844,0.00198,0.00137,-0.04288,-0.07324,0.05554,-0.06348
8.821,-0.02563,-0.03281,-0.25452,-0.00549,-0.02182,-0.03586,-0.03067,0.04578,1.8782,0.05142,-0.0264,0.00122,-0.04257,-0.05676,0.03342,-0.04974
8.8215,-0.01862,-0.02396,-0.24567,-0.01266,-0.02502,-0.04059,-0.03006,0.04211,1.483,0.04181,-0.04852,-0.00031,-0.04211,-0.0415,-0.01343,-0.03738
8.822,-0.01297,-0.009,-0.215,-0.02014,-0.02457,-0.04318,-0.02777,0.02151,1.17966,0.03616,-0.05157,-0.00137,-0.04196,-0.03647,-0.06088,-0.02167
8.8225,-0.01236,0.00244,-0.16403,-0.02319,-0.02151,-0.04272,-0.02762,-0.00061,0.9639,0.03662,-0.03387,-0.00183,-0.0415,-0.04074,-0.0946,-0.00702
8.823,-0.01373,0.00885,-0.09689,-0.02304,-0.02335,-0.04257,-0.02884,-0.00671,0.74707,0.03647,-0.00687,-0.00153,-0.04074,-0.04517,-0.09857,0.00015
8.8235,-0.01434,0.01144,-0.01907,-0.02258,-0.02106,-0.04379,-0.02548,0.00229,0.48462,0.02899,0.0145,-0.00122,-0.04044,-0.0441,-0.04471,-0.00153
8.824,-0.01419,0.0116,0.056,-0.02426,-0.02457,-0.04532,-0.01266,0.01053,0.20782,0.01801,0.03189,-0.00122,-0.04089,-0.03906,0.05096,-0.01282
8.8245,-0.01389,0.00977,0.11383,-0.02411,-0.02594,-0.04608,0.00809,0.01221,-0.04547,0.0061,0.04959,-0.00198,-0.04211,-0.03204,0.10971,-0.03326
8.825,-0.00778,0.00595,0.14679,-0.01877,-0.0267,-0.04562,0.01968,0.01266,-0.27298,-0.00626,0.06958,-0.00259,-0.04303,-0.02594,0.08347,-0.05356
8.8255,0.00488,0.00031,0.15289,-0.01038,-0.02533,-0.04654,0.0061,0.01465,-0.49103,-0.01938,0.08484,-0.00305,-0.04395,-0.02029,0.00839,-0.07126
8.826,0.01785,-0.00565,0.14114,-0.0061,-0.02686,-0.04776,-0.02533,0.01602,-0.70435,-0.03036,0.08804,-0.00275,-0.04578,-0.0177,-0.05219,-0.07874
8.8265,0.02625,-0.01236,0.11871,-0.00748,-0.02411,-0.04807,-0.04471,0.0145,-0.90714,-0.03143,0.08041,-0.00366,-0.04761,-0.01862,-0.08636,-0.07996
8.827,0.03098,-0.01755,0.08804,-0.01205,-0.02518,-0.04837,-0.03311,0.01328,-1.09161,-0.02029,0.06866,-0.00473,-0.04883,-0.02075,-0.11688,-0.0795
8.8275,0.03494,-0.02274,0.05264,-0.01511,-0.02289,-0.04807,-0.0058,0.01358,-1.25061,0.00061,0.05722,-0.00519,-0.04822,-0.01999,-0.15518,-0.08011
8.828,0.03586,-0.02884,0.0177,-0.01617,-0.02472,-0.04761,0.00931,0.01221,-1.38092,0.02335,0.04669,-0.00534,-0.04578,-0.01556,-0.18036,-0.07736
8.8285,0.0322,-0.03632,-0.00946,-0.01617,-0.02441,-0.04654,0.00122,0.00473,-1.48407,0.0386,0.03571,-0.00488,-0.04166,-0.01236,-0.14709,-0.07172
8.829,0.02563,-0.04059,-0.02472,-0.01556,-0.02518,-0.04684,-0.01419,-0.00595,-1.56158,0.03983,0.02609,-0.00366,-0.03738,-0.01282,-0.02823,-0.06729
8.8295,0.02121,-0.03403,-0.03403,-0.01236,-0.02548,-0.04486,-0.02228,-0.0148,-1.60767,0.02747,0.0206,-0.00397,-0.03265,-0.01297,0.10956,-0.06531
8.83,0.02213,-0.0145,-0.05203,-0.00732,-0.02396,-0.04562,-0.02106,-0.01648,-1.60416,0.00748,0.01755,-0.00488,-0.02792,-0.00961,0.14023,-0.06516
8.8305,0.02777,0.01404,-0.09308,-0.00046,-0.02747,-0.04593,-0.01938,-0.01465,-1.52832,-0.01633,0.01297,-0.00504,-0.0238,-0.00336,0.04242,-0.06088
8.831,0.03403,0.04013,-0.14221,0.00809,-0.02609,-0.04578,-0.01984,-0.01617,-1.38184,-0.03891,0.00702,-0.00504,-0.02014,0.00137,-0.06149,-0.05219
8.8315,0.03815,0.05478,-0.16266,0.01556,-0.03036,-0.04395,-0.01877,-0.02289,-1.22101,-0.0563,0.00137,-0.00534,-0.01831,0.00198,-0.06607,-0.04196
8.832,0.03708,0.05417,-0.13718,0.01999,-0.02899,-0.04501,-0.01602,-0.02609,-1.0965,-0.06668,-0.00214,-0.00717,-0.01694,0.00122,-0.01404,-0.03708
8.8325,0.03067,0.04166,-0.08438,0.0177,-0.03342,-0.04486,-0.01511,-0.01984,-0.98328,-0.07019,-0.00519,-0.00854,-0.01556,0.00168,-0.02274,-0.03891
8.833,0.01938,0.01617,-0.0296,0.01297,-0.03311,-0.04379,-0.01709,-0.00809,-0.82458,-0.06744,-0.00732,-0.00687,-0.01755,0.0029,-0.13641,-0.04532
8.8335,0.00595,-0.02121,0.0174,0.00641,-0.03662,-0.04639,-0.01755,0.00107,-0.63324,-0.05997,-0.00931,-0.0029,-0.02579,0.00076,-0.27008,-0.05051
8.834,-0.00809,-0.05951,0.0531,-0.00092,-0.04028,-0.04959,-0.01556,0.00443,-0.46967,-0.05127,-0.01999,0.00031,-0.03967,-0.00626,-0.29068,-0.05356
8.8345,-0.02075,-0.07233,0.07385,-0.00839,-0.04639,-0.05249,-0.01328,0.00488,-0.35324,-0.04837,-0.03708,0.0029,-0.05524,-0.01465,-0.14664,-0.05356
8.835,-0.03159,-0.04959,0.07507,-0.01343,-0.04715,-0.05661,-0.01205,0.00595,-0.24994,-0.05157,-0.05219,0.00549,-0.0676,-0.02029,0.08942,-0.056
8.8355,-0.04211,-0.0177,0.05753,-0.01465,-0.05096,-0.05844,-0.01251,0.00595,-0.12711,-0.05692,-0.05661,0.00748,-0.07721,-0.02563,0.27435,-0.06271
8.836,-0.05341,-0.01694,0.02762,-0.01694,-0.04883,-0.05569,-0.01251,0.00412,0.0235,-0.05371,-0.04745,0.00702,-0.08286,-0.03494,0.29953,-0.06989
8.8365,-0.06409,-0.05295,-0.00885,-0.02106,-0.04883,-0.05112,-0.01266,0.00198,0.22034,-0.04135,-0.04013,0.0032,-0.08484,-0.04807,0.18814,-0.06485
8.837,-0.07065,-0.09644,-0.04089,-0.02151,-0.04837,-0.0412,-0.01312,0.00122,0.48431,-0.02594,-0.04745,-0.00275,-0.0827,-0.06027,0.07736,-0.04105
8.8375,-0.06958,-0.12253,-0.06561,-0.01694,-0.0444,-0.03494,-0.01526,-0.00015,0.76859,-0.01328,-0.06714,-0.00809,-0.07965,-0.06851,0.05951,-0.00473
8.838,-0.06577,-0.13275,-0.09125,-0.01144,-0.03983,-0.03647,-0.01846,-0.00366,0.97977,-0.00732,-0.08392,-0.00977,-0.07538,-0.07202,0.09613,0.02518
8.8385,-0.06241,-0.13748,-0.1239,-0.01343,-0.04028,-0.04013,-0.0209,-0.00626,1.08398,-0.00458,-0.09155,-0.00549,-0.0705,-0.06882,0.11383,0.02853
8.839,-0.06042,-0.1387,-0.1532,-0.01892,-0.0386,-0.04639,-0.02014,-0.00702,1.12701,-0.00305,-0.11169,0.00641,-0.06485,-0.05829,0.10834,0.00626
8.8395,-0.0563,-0.13275,-0.159,-0.02243,-0.03571,-0.04852,-0.01694,-0.00473,1.16165,-0.00183,-0.16159,0.01846,-0.05783,-0.04166,0.11169,-0.02823
8.84,-0.047,-0.1236,-0.13321,-0.0235,-0.03204,-0.04059,-0.0145,-0.00305,1.19751,-0.00198,-0.21378,0.02258,-0.05051,-0.02731,0.11734,-0.06088
8.8405,-0.03494,-0.11841,-0.08499,-0.02747,-0.02777,-0.03311,-0.01572,-0.00443,1.22925,-0.00626,-0.21698,0.01877,-0.04456,-0.01953,0.09796,-0.08667
8.841,-0.02197,-0.11917,-0.02838,-0.03143,-0.02472,-0.03372,-0.01678,-0.00885,1.25565,-0.01694,-0.15976,0.01297,-0.04364,-0.01709,0.06149,-0.10254
8.8415,-0.01114,-0.11963,0.0238,-0.02914,-0.02518,-0.04852,-0.01495,-0.01129,1.26587,-0.0322,-0.08194,0.00809,-0.04593,-0.01373,0.04471,-0.10422
8.842,-0.00397,-0.11978,0.06561,-0.02167,-0.0296,-0.07233,-0.01099,-0.00885,1.24359,-0.0528,-0.01785,0.00549,-0.04807,-0.0087,0.05844,-0.09323
8.8425,0.00275,-0.11993,0.08774,-0.01556,-0.03555,-0.09842,-0.00793,-0.00458,1.18103,-0.07187,0.03647,0.00595,-0.04807,-0.00641,0.0769,-0.08163
8.843,0.01022,-0.1178,0.08484,-0.01862,-0.03403,-0.10742,-0.00656,-0.00168,1.08124,-0.08148,0.09506,0.00275,-0.04654,-0.00656,0.07202,-0.07584
8.8435,0.01862,-0.10773,0.06012,-0.02594,-0.03159,-0.09506,-0.00763,-0.00229,0.9552,-0.08362,0.15076,-0.01221,-0.04562,-0.00778,0.04791,-0.07217
8.844,0.02625,-0.08972,0.02579,-0.02975,-0.02884,-0.0737,-0.00992,-0.00687,0.82855,-0.08347,0.17487,-0.03906,-0.04303,-0.0061,0.02777,-0.06607
8.8445,0.0322,-0.07248,-0.00931,-0.02548,-0.02945,-0.06424,-0.01297,-0.01389,0.72144,-0.08667,0.14999,-0.06439,-0.03906,-0.00244,0.01266,-0.06088
8.845,0.03616,-0.06226,-0.03937,-0.01907,-0.02975,-0.06287,-0.01556,-0.0206,0.62103,-0.08881,0.09476,-0.07675,-0.03372,0.00198,-0.02167,-0.05966
8.8455,0.03769,-0.05692,-0.06073,-0.01923,-0.03036,-0.05966,-0.01602,-0.02197,0.50095,-0.08453,0.04822,-0.07507,-0.03036,0.00458,-0.0853,-0.06088
8.846,0.0386,-0.05096,-0.07172,-0.02487,-0.02823,-0.05188,-0.01541,-0.01923,0.36575,-0.07446,0.02945,-0.06592,-0.02975,0.00717,-0.15076,-0.06149
8.8465,0.03952,-0.04593,-0.07324,-0.02792,-0.02548,-0.0444,-0.01526,-0.01709,0.24063,-0.06454,0.03036,-0.05615,-0.02975,0.01205,-0.16571,-0.05814
8.847,0.04166,-0.04364,-0.06805,-0.02747,-0.02457,-0.03922,-0.01556,-0.01633,0.12482,-0.05585,0.03479,-0.04913,-0.02991,0.01892,-0.11063,-0.05142
8.8475,0.0441,-0.04333,-0.06439,-0.02441,-0.02518,-0.03326,-0.01663,-0.01526,0.00275,-0.04807,0.03006,-0.03784,-0.03067,0.02487,-0.01465,-0.04303
8.848,0.0473,-0.04089,-0.06287,-0.01999,-0.02426,-0.03342,-0.01678,-0.01389,-0.12833,-0.03906,0.01633,-0.01221,-0.03036,0.02533,0.05676,-0.03494
8.8485,0.0473,-0.0351,-0.06348,-0.01221,-0.02274,-0.03464,-0.01678,-0.01114,-0.25528,-0.02899,-0.00748,0.0209,-0.03006,0.01816,0.07385,-0.03281
8.849,0.0441,-0.02655,-0.06851,-0.00351,-0.02213,-0.04135,-0.0174,-0.009,-0.35233,-0.01801,-0.04059,0.03983,-0.02777,0.00443,0.07431,-0.03662
8.8495,0.04181,-0.02014,-0.07095,0.00183,-0.02136,-0.0444,-0.0177,-0.0061,-0.41351,-0.00977,-0.07309,0.03128,-0.02502,-0.01129,0.09415,-0.04059
8.85,0.0412,-0.01709,-0.06409,0.00092,-0.02213,-0.04272,-0.01831,-0.00504,-0.4747,-0.00793,-0.10345,0.01114,-0.02136,-0.02441,0.1088,-0.04181
8.8505,0.04089,-0.01648,-0.05554,-0.00412,-0.02274,-0.03922,-0.0174,-0.00473,-0.5751,-0.00763,-0.12665,0.00458,-0.01663,-0.03204,0.08347,-0.03998
8.851,0.03632,-0.01465,-0.0589,-0.00961,-0.02411,-0.03326,-0.01602,-0.00443,-0.71365,0.0029,-0.13824,0.00778,-0.01053,-0.03342,0.03555,-0.03189
8.8515,0.02884,-0.01297,-0.07675,-0.0087,-0.02762,-0.03387,-0.01526,-0.00214,-0.85846,0.02396,-0.13031,0.00397,-0.00549,-0.02914,0.00427,-0.01968
8.852,0.02213,-0.00992,-0.09521,-0.00366,-0.03067,-0.03494,-0.01587,0.00015,-0.99121,0.04211,-0.10483,-0.00595,-0.00214,-0.02014,-0.02274,-0.00656
8.8525,0.01785,-0.00153,-0.10147,0.00031,-0.03311,-0.03708,-0.01556,0.00137,-1.11496,0.04364,-0.07446,-0.00473,-0.00092,-0.01007,-0.07202,-0.00504
8.853,0.01373,0.0177,-0.0975,-0.00015,-0.03586,-0.04028,-0.01556,0.00076,-1.23184,0.03387,-0.0502,0.01282,0.00076,-0.00366,-0.12085,-0.02121
8.8535,0.00854,0.04501,-0.09552,-0.00229,-0.03937,-0.04211,-0.01419,0.00183,-1.3443,0.0267,-0.03632,0.03601,0.00275,-0.00229,-0.11536,-0.04517
8.854,0.00381,0.06699,-0.10681,-0.00214,-0.04395,-0.04013,-0.01419,0.00427,-1.46622,0.0264,-0.02762,0.04654,0.00412,-0.00473,-0.04272,-0.06027
8.8545,0.00107,0.07935,-0.13245,-0.00122,-0.04562,-0.04028,-0.01404,0.00763,-1.61163,0.02487,-0.02014,0.04196,0.0032,-0.00687,0.05875,-0.06393
8.855,-0.00107,0.08667,-0.15182,-0.00061,-0.0444,-0.0415,-0.01404,0.00809,-1.76407,0.01648,-0.01328,0.03586,0.00198,-0.00824,0.12894,-0.06561
8.8555,-0.00427,0.08865,-0.14206,-0.00122,-0.04349,-0.04517,-0.01328,0.00717,-1.89316,0.00198,-0.00717,0.04105,-0.00015,-0.009,0.11475,-0.07339
8.856,-0.01068,0.07889,-0.0943,-0.00351,-0.04166,-0.04486,-0.01297,0.0058,-1.99539,-0.00992,-0.00168,0.05493,-0.00183,-0.01083,0.03281,-0.08133
8.8565,-0.01678,0.05386,-0.03265,-0.00549,-0.04196,-0.04959,-0.01236,0.00656,-2.09198,-0.01694,0.00092,0.05981,-0.00351,-0.01343,-0.0264,-0.0798
8.857,-0.01968,0.02411,0.00443,-0.00748,-0.04303,-0.04837,-0.01099,0.00641,-2.19284,-0.02121,-0.00168,0.04639,-0.00381,-0.01511,-0.01663,-0.06775
8.8575,-0.01831,0.00946,-0.01709,-0.00702,-0.04074,-0.04745,-0.01205,0.00351,-2.2821,-0.02457,-0.00778,0.02304,-0.0032,-0.01495,0.00137,-0.05295
8.858,-0.0145,0.01984,-0.09186,-0.00488,-0.03632,-0.04669,-0.01389,0.00015,-2.34512,-0.02533,-0.0145,0.00763,-0.00305,-0.01389,-0.02792,-0.04562
8.8585,-0.00977,0.0412,-0.17151,-0.0029,-0.03098,-0.04822,-0.01404,0.00076,-2.39182,-0.02472,-0.02197,0.00885,-0.00381,-0.01282,-0.06638,-0.04593
8.859,-0.00549,0.03754,-0.20782,-0.00244,-0.02884,-0.05066,-0.01312,0.00351,-2.44293,-0.02716,-0.03601,0.01938,-0.00504,-0.01282,-0.04944,-0.04684
8.8595,-0.00412,-0.009,-0.19775,-0.0032,-0.02914,-0.05539,-0.01175,0.00626,-2.48764,-0.03311,-0.05829,0.03159,-0.00458,-0.01266,0.02045,-0.04471
8.86,-0.00702,-0.08041,-0.16266,-0.00412,-0.02945,-0.05356,-0.01099,0.00641,-2.51144,-0.04013,-0.08179,0.03906,-0.00351,-0.01205,0.0769,-0.04013
8.8605,-0.01343,-0.14404,-0.10773,-0.00488,-0.02838,-0.04761,-0.0119,0.00717,-2.52106,-0.04501,-0.09399,0.03937,-0.00397,-0.01129,0.07202,-0.03815
8.861,-0.0209,-0.19241,-0.0238,-0.00565,-0.02304,-0.04105,-0.01312,0.00717,-2.52594,-0.04547,-0.08621,0.03113,-0.00595,-0.01312,0.0264,-0.03769
8.8615,-0.02563,-0.22781,0.07156,-0.00504,-0.01785,-0.03601,-0.01434,0.00702,-2.52548,-0.04028,-0.05661,0.0174,-0.00702,-0.01678,-0.00626,-0.03738
8.862,-0.02716,-0.24719,0.1474,-0.00351,-0.01648,-0.03601,-0.01404,0.00534,-2.51953,-0.0354,-0.02182,0.00778,-0.0061,-0.01968,-0.00702,-0.03555
8.8625,-0.02426,-0.24689,0.18906,-0.00183,-0.01801,-0.03983,-0.01389,0.00336,-2.50381,-0.03326,0.01007,0.00885,-0.00488,-0.02197,0.00275,-0.03128
8.863,-0.01816,-0.23911,0.21393,0.0,-0.02151,-0.04425,-0.01312,0.00259,-2.46979,-0.03708,0.02975,0.01572,-0.00687,-0.02243,0.0029,-0.02899
8.8635,-0.01373,-0.23605,0.23438,0.00153,-0.02289,-0.04578,-0.01251,0.00168,-2.42218,-0.04379,0.03555,0.0145,-0.00946,-0.02319,-0.00366,-0.02853
8.864,-0.01404,-0.23285,0.24658,0.00107,-0.02106,-0.04745,-0.01144,0.00061,-2.37778,-0.04837,0.0354,-0.00336,-0.01114,-0.0235,-0.00549,-0.02899
8.8645,-0.01923,-0.21011,0.24521,-0.00061,-0.02167,-0.04242,-0.0119,0.00137,-2.34207,-0.04486,0.03891,-0.03098,-0.0116,-0.0235,-0.00336,-0.0296
8.865,-0.02502,-0.16449,0.22995,-0.00137,-0.0206,-0.0322,-0.01175,0.00412,-2.30377,-0.03754,0.05096,-0.05402,-0.01343,-0.02563,-0.00366,-0.0293
8.8655,-0.03082,-0.112,0.20157,-0.00061,-0.01999,-0.02914,-0.01251,0.00702,-2.25754,-0.0354,0.06348,-0.05936,-0.01755,-0.02975,-0.00595,-0.03082
8.866,-0.03586,-0.07172,0.16037,-0.00229,-0.02213,-0.03159,-0.01251,0.00702,-2.20764,-0.04684,0.06927,-0.04425,-0.02258,-0.03403,-0.0061,-0.03235
8.8665,-0.03891,-0.04807,0.10925,-0.0058,-0.0267,-0.04089,-0.01221,0.00443,-2.16125,-0.05981,0.06989,-0.01923,-0.02792,-0.03601,-0.00443,-0.03387
8.867,-0.03723,-0.03372,0.05554,-0.009,-0.02991,-0.04776,-0.01221,0.00092,-2.11624,-0.06393,0.06454,0.00748,-0.03128,-0.03616,-0.00198,-0.0351
8.8675,-0.03448,-0.02258,0.01144,-0.00961,-0.03372,-0.05417,-0.01221,0.00076,-2.0697,-0.05524,0.05402,0.03448,-0.03296,-0.03387,-0.00092,-0.03479
8.868,-0.03433,-0.01236,-0.01511,-0.00961,-0.03387,-0.05569,-0.01205,0.00259,-2.01935,-0.04211,0.03738,0.0563,-0.03326,-0.03143,-0.00153,-0.03113
8.8685,-0.03555,-0.0061,-0.03418,-0.01083,-0.03525,-0.0528,-0.0119,0.00488,-1.96228,-0.03143,0.02075,0.05936,-0.03342,-0.02991,-0.00122,-0.02808
8.869,-0.03326,-0.00824,-0.05463,-0.01236,-0.03174,-0.05417,-0.01297,0.00275,-1.89987,-0.02182,0.00687,0.0386,-0.03433,-0.02731,-0.00122,-0.02945
8.8695,-0.02502,-0.01633,-0.08102,-0.0116,-0.02808,-0.06012,-0.01358,-0.00168,-1.84174,-0.00931,-0.00381,0.00732,-0.03677,-0.02365,-0.00137,-0.03418
8.87,-0.0119,-0.02258,-0.10086,-0.00839,-0.02502,-0.06317,-0.01389,-0.00671,-1.79565,0.00839,-0.01251,-0.01358,-0.03952,-0.01984,-0.00336,-0.03983
8.8705,0.00153,-0.02289,-0.11246,-0.0061,-0.02411,-0.06836,-0.01434,-0.01144,-1.76987,0.0325,-0.01816,-0.0174,-0.04364,-0.01892,-0.00595,-0.04242
8.871,0.01221,-0.01999,-0.11948,-0.00732,-0.02533,-0.07065,-0.01572,-0.01846,-1.75705,0.06409,-0.02167,-0.00656,-0.04791,-0.02289,-0.00763,-0.04364
8.8715,0.01831,-0.01633,-0.12497,-0.01205,-0.0264,-0.0647,-0.01663,-0.0267,-1.73737,0.09674,-0.0267,0.009,-0.05112,-0.02792,-0.00824,-0.04471
8.872,0.02014,-0.0116,-0.12527,-0.01678,-0.02792,-0.0502,-0.01556,-0.03235,-1.70715,0.11826,-0.0322,0.01633,-0.05264,-0.03235,-0.00717,-0.04501
8.8725,0.0206,-0.00595,-0.11627,-0.02121,-0.02808,-0.03906,-0.01297,-0.03357,-1.68518,0.1181,-0.03677,0.00931,-0.0528,-0.03372,-0.00565,-0.04608
8.873,0.0206,-0.00259,-0.10193,-0.02716,-0.0296,-0.03632,-0.0116,-0.03143,-1.67023,0.10162,-0.0383,-0.00748,-0.05188,-0.03128,-0.00229,-0.04501
8.8735,0.02014,-0.00031,-0.08942,-0.03311,-0.03189,-0.03723,-0.01328,-0.02716,-1.65207,0.07568,-0.03799,-0.0238,-0.05112,-0.02609,0.00366,-0.04089
8.874,0.01846,0.00229,-0.08118,-0.03693,-0.03571,-0.03998,-0.01419,-0.02197,-1.6568,0.047,-0.03555,-0.03418,-0.0499,-0.01846,0.00839,-0.03555
8.8745,0.01602,0.00641,-0.07446,-0.0351,-0.03937,-0.04181,-0.01343,-0.01709,-1.75812,0.02289,-0.03128,-0.04623,-0.04623,-0.00977,0.00885,-0.03159
8.875,0.01404,0.01083,-0.0708,-0.02472,-0.0412,-0.04318,-0.01266,-0.01511,-2.03857,0.00381,-0.02853,-0.06989,-0.03998,-0.00336,0.00366,-0.0325
8.8755,0.01404,0.01755,-0.06821,-0.00671,-0.03967,-0.04425,-0.01343,-0.01282,-2.50214,-0.01007,-0.02686,-0.09048,-0.0325,-0.00076,-0.00244,-0.03708
8.876,0.01495,0.02472,-0.06653,0.00687,-0.03784,-0.04135,-0.0145,-0.00946,-3.05145,-0.0206,-0.02365,-0.08163,-0.02853,-0.00137,-0.00519,-0.04166
8.8765,0.0145,0.02686,-0.06393,0.00275,-0.03876,-0.04288,-0.01572,-0.00488,-3.6142,-0.02655,-0.01709,-0.047,-0.02808,-0.00168,-0.00778,-0.04456
8.877,0.01266,0.0209,-0.065,-0.01572,-0.0386,-0.04105,-0.01556,-0.00351,-4.15604,-0.02991,-0.00977,-0.02197,-0.02853,-0.00137,-0.01221,-0.04944
8.8775,0.00977,0.00748,-0.07919,-0.03189,-0.04181,-0.0415,-0.0148,-0.00397,-4.54422,-0.03128,-0.0087,-0.03616,-0.02747,-0.00275,-0.01694,-0.05402
8.878,0.00687,-0.00977,-0.10803,-0.03204,-0.0415,-0.03998,-0.01419,-0.00351,-4.64706,-0.0322,-0.01526,-0.07919,-0.02563,-0.00504,-0.01389,-0.05386
8.8785,0.00519,-0.02304,-0.13672,-0.02136,-0.04059,-0.04272,-0.01434,-0.00198,-4.552,-0.03235,-0.02411,-0.10773,-0.02579,-0.00916,-0.00809,-0.04562
8.879,0.00351,-0.02747,-0.14816,-0.01083,-0.03906,-0.04272,-0.0145,-0.00107,-4.46579,-0.0296,-0.02945,-0.09186,-0.02823,-0.01526,0.00259,-0.03464
8.8795,0.00153,-0.02472,-0.13962,-0.00381,-0.03937,-0.04425,-0.01343,-0.00183,-4.4577,-0.01846,-0.02701,-0.04395,-0.03128,-0.02121,0.01129,-0.02579
8.88,-0.00259,-0.02243,-0.12451,0.00031,-0.04013,-0.04898,-0.01144,-0.00214,-4.4519,-0.00504,-0.01999,-0.00641,-0.03342,-0.02853,0.01709,-0.02197
8.8805,-0.00931,-0.02274,-0.11368,0.00031,-0.04303,-0.05157,-0.01068,-0.00198,-4.40842,0.00687,-0.01373,-0.00397,-0.03372,-0.03799,0.01434,-0.02548
8.881,-0.01587,-0.02502,-0.10483,-0.0032,-0.04456,-0.05081,-0.01038,-0.00107,-4.36447,0.00946,-0.01053,-0.01328,-0.03281,-0.05035,0.00732,-0.03326
8.8815,-0.01801,-0.02747,-0.08713,-0.00793,-0.04471,-0.05188,-0.01007,-0.00076,-4.34067,0.00198,-0.01419,0.00122,-0.03082,-0.06241,-0.00031,-0.0412
8.882,-0.01511,-0.02945,-0.05371,-0.00885,-0.04471,-0.05234,-0.01007,-0.00229,-4.31808,-0.0032,-0.03128,0.03571,-0.03021,-0.07248,-0.00488,-0.04608
8.8825,-0.00931,-0.03143,-0.01511,-0.00839,-0.04593,-0.05051,-0.01038,-0.00488,-4.28543,-0.00626,-0.06058,0.05859,-0.0325,-0.07935,-0.0061,-0.04761
8.883,-0.0058,-0.0325,0.01556,-0.00824,-0.04608,-0.05142,-0.01038,-0.00763,-4.25262,-0.00809,-0.08347,0.05768,-0.0351,-0.07797,-0.00671,-0.04791
8.8835,-0.00366,-0.03372,0.03006,-0.00702,-0.0444,-0.05295,-0.01099,-0.009,-4.22562,-0.01038,-0.08469,0.05524,-0.03616,-0.06744,-0.0058,-0.04761
8.884,-0.00107,-0.03662,0.02655,-0.00412,-0.04272,-0.05554,-0.01099,-0.00793,-4.19693,-0.01678,-0.06332,0.06485,-0.03418,-0.04959,-0.00488,-0.04776
8.8845,0.00092,-0.0412,0.01144,-0.00031,-0.04074,-0.05493,-0.01205,-0.00549,-4.16443,-0.02289,-0.0351,0.06851,-0.03189,-0.03311,-0.00473,-0.04807
8.885,0.00122,-0.04547,-0.01144,0.00275,-0.04105,-0.0528,-0.01434,-0.00351,-4.01535,-0.02716,-0.00992,0.04791,-0.02945,-0.02426,-0.00458,-0.04745
8.8855,0.00122,-0.04486,-0.02899,0.00488,-0.03906,-0.04929,-0.01617,-0.00275,-3.32367,-0.02884,0.01038,0.01526,-0.02701,-0.02167,-0.00351,-0.04684
8.886,0.00351,-0.03998,-0.03784,0.00381,-0.03784,-0.04807,-0.01587,-0.0032,-1.76819,-0.03006,0.02625,-0.00443,-0.02487,-0.02106,-0.00366,-0.04761
8.8865,0.00778,-0.03357,-0.03937,0.00168,-0.03738,-0.04929,-0.01541,-0.00137,0.15381,-0.03204,0.03281,-0.00122,-0.02426,-0.01877,-0.00717,-0.04868
8.887,0.00992,-0.03128,-0.0383,-0.00214,-0.03632,-0.05203,-0.01541,0.00076,1.52954,-0.03448,0.02914,0.00763,-0.02441,-0.01602,-0.00824,-0.04868
8.8875,0.00854,-0.03265,-0.03723,-0.00519,-0.03464,-0.05249,-0.01587,0.00092,2.21634,-0.03754,0.02151,0.0058,-0.02441,-0.01343,-0.0061,-0.04593
8.888,0.00549,-0.03555,-0.03662,-0.0061,-0.03326,-0.05081,-0.01556,-0.00092,2.78046,-0.04028,0.01816,-0.00778,-0.02441,-0.01038,0.00015,-0.04257
8.8885,0.00443,-0.03418,-0.03662,-0.00519,-0.03113,-0.04578,-0.01541,-0.00366,3.55942,-0.04425,0.0235,-0.01846,-0.02502,-0.00793,0.00458,-0.04013
8.889,0.00351,-0.02838,-0.04059,-0.00519,-0.02975,-0.04364,-0.01587,-0.00458,4.34891,-0.0441,0.0322,-0.01678,-0.02579,-0.00824,0.00549,-0.03983
8.8895,0.00153,-0.02213,-0.04623,-0.00519,-0.02914,-0.04333,-0.01633,-0.00381,4.84375,-0.04364,0.03326,-0.00305,-0.02533,-0.01068,0.00687,-0.03937
8.89,-0.00351,-0.01816,-0.04501,-0.00519,-0.02853,-0.04303,-0.01572,-0.00244,4.99985,-0.0415,0.01831,0.01663,-0.02411,-0.01022,0.00992,-0.0383
8.8905,-0.01053,-0.01587,-0.03357,-0.00473,-0.0296,-0.04135,-0.01404,-0.00153,4.99039,-0.04166,-0.00931,0.03433,-0.02304,-0.00687,0.01282,-0.03769
8.891,-0.01663,-0.01083,-0.01694,-0.00229,-0.02975,-0.03967,-0.01434,-0.00137,4.95529,-0.04196,-0.03387,0.04974,-0.02136,-0.00137,0.01495,-0.03677
8.8915,-0.02243,0.0,-0.00671,0.0,-0.0296,-0.04364,-0.01541,-0.00229,4.96033,-0.04242,-0.0412,0.07553,-0.02029,0.00198,0.0145,-0.03647
8.892,-0.02975,0.009,-0.00412,0.00259,-0.03052,-0.04807,-0.01587,-0.00061,4.97681,-0.04044,-0.03006,0.11215,-0.02014,0.00412,0.01373,-0.03571
8.8925,-0.03891,0.00504,-0.00778,0.00336,-0.03067,-0.05127,-0.01526,0.00168,4.97528,-0.0354,-0.00992,0.14297,-0.02136,0.00351,0.01297,-0.03571
8.893,-0.04761,-0.01221,-0.03189,0.00397,-0.0296,-0.05051,-0.01358,0.00427,4.96735,-0.02792,0.01038,0.14801,-0.02441,0.00031,0.01175,-0.03799
8.8935,-0.05157,-0.03021,-0.07828,0.00458,-0.02823,-0.04562,-0.01328,0.00458,4.96765,-0.01663,0.02457,0.12192,-0.0267,-0.00336,0.01343,-0.03906
8.894,-0.04913,-0.04135,-0.14191,0.00565,-0.02869,-0.04242,-0.01465,0.00366,4.97208,-0.01083,0.03021,0.0708,-0.02869,-0.00427,0.01511,-0.0383
8.8945,-0.04166,-0.05081,-0.20844,0.00671,-0.03052,-0.04074,-0.01602,0.00351,4.97192,-0.00763,0.02731,0.01053,-0.02945,-0.0029,0.01602,-0.03647
8.895,-0.03235,-0.065,-0.25192,0.00641,-0.03067,-0.04425,-0.01633,0.00549,4.96979,-0.0145,0.02151,-0.04105,-0.02914,-0.00183,0.01587,-0.03326
8.8955,-0.02106,-0.08209,-0.24811,0.00595,-0.02914,-0.04517,-0.01602,0.00824,4.96948,-0.01785,0.01099,-0.07492,-0.02838,-0.00305,0.01816,-0.03235
8.896,-0.01099,-0.09552,-0.19623,0.00443,-0.02716,-0.04501,-0.01389,0.01068,4.97086,-0.01846,-0.0029,-0.09537,-0.02838,-0.00412,0.02075,-0.03113
8.8965,-0.00519,-0.10071,-0.11139,0.00168,-0.02441,-0.04379,-0.01236,0.01373,4.97101,-0.01816,-0.0177,-0.10178,-0.03021,-0.00565,0.02533,-0.02823
8.897,-0.00488,-0.10254,-0.01328,-0.00061,-0.02411,-0.04501,-0.01251,0.0145,4.9704,-0.01816,-0.02457,-0.0882,-0.03265,-0.0058,0.02655,-0.02502
8.8975,-0.00656,-0.10239,0.08652,-0.00412,-0.02396,-0.04623,-0.01312,0.01495,4.97009,-0.01877,-0.0209,-0.06302,-0.03281,-0.00549,0.02594,-0.02304
8.898,-0.00671,-0.09995,0.17258,-0.00687,-0.02319,-0.04623,-0.01343,0.01358,4.9704,-0.02014,-0.01236,-0.04425,-0.03128,-0.00549,0.02502,-0.02289
8.8985,-0.00458,-0.0946,0.22415,-0.01297,-0.02411,-0.04669,-0.01343,0.01053,4.96933,-0.02426,-0.00351,-0.03799,-0.03128,-0.00458,0.02579,-0.02411
8.899,-0.00153,-0.08606,0.22827,-0.0238,-0.02518,-0.04776,-0.01434,0.00702,4.96216,-0.02533,0.00946,-0.04089,-0.03174,-0.00259,0.02701,-0.02533
8.8995,0.00031,-0.07965,0.19409,-0.03098,-0.02686,-0.04913,-0.01541,0.00336,4.93958,-0.02365,0.03494,-0.05722,-0.03235,0.00046,0.02899,-0.02563
8.9,0.00031,-0.07492,0.14618,-0.03143,-0.02747,-0.05219,-0.01602,0.00046,4.90326,-0.02151,0.06638,-0.08514,-0.0322,0.00244,0.02686,-0.02533
8.9005,0.00031,-0.07309,0.09949,-0.02319,-0.02884,-0.05142,-0.01495,-0.00458,4.86267,-0.02075,0.07599,-0.10025,-0.03204,0.00351,0.02213,-0.02808
8.901,0.00076,-0.07248,0.05737,-0.01465,-0.02945,-0.05005,-0.01343,-0.00885,4.82758,-0.02151,0.04929,-0.0647,-0.03342,0.00198,0.01373,-0.0322
8.9015,0.00366,-0.07248,0.02243,-0.01175,-0.02884,-0.04425,-0.01068,-0.01251,4.79568,-0.02457,0.00412,0.02151,-0.03571,0.00061,0.00427,-0.03601
8.902,0.00778,-0.07385,-0.00504,-0.01572,-0.02792,-0.03677,-0.0087,-0.01511,4.76166,-0.02945,-0.03113,0.1033,-0.0383,-0.00076,-0.00153,-0.03738
8.9025,0.01083,-0.0737,-0.02274,-0.02136,-0.02701,-0.03128,-0.0087,-0.01755,4.72687,-0.03204,-0.05264,0.112,-0.04059,-0.0032,-0.01175,-0.03815
8.903,0.0119,-0.07217,-0.03799,-0.02594,-0.02686,-0.02914,-0.01068,-0.02029,4.69254,-0.03143,-0.06821,0.05142,-0.04089,-0.00763,-0.04562,-0.03922
8.9035,0.01114,-0.06821,-0.05386,-0.0267,-0.02609,-0.02869,-0.01083,-0.02197,4.66019,-0.02686,-0.08087,0.00061,-0.04028,-0.01328,-0.09979,-0.04013
8.904,0.00992,-0.06287,-0.06927,-0.02502,-0.02487,-0.02945,-0.01236,-0.02167,4.62662,-0.0264,-0.08026,0.01114,-0.03967,-0.02029,-0.12817,-0.03937
8.9045,0.00885,-0.05814,-0.07721,-0.02518,-0.02396,-0.03342,-0.0145,-0.01984,4.59061,-0.02655,-0.0647,0.04944,-0.04074,-0.02716,-0.09125,-0.03769
8.905,0.00946,-0.05402,-0.07309,-0.03006,-0.02457,-0.03891,-0.01587,-0.01984,4.55276,-0.02945,-0.04425,0.04974,-0.04181,-0.03387,-0.02731,-0.03632
8.9055,0.0116,-0.05173,-0.05981,-0.03662,-0.02365,-0.04471,-0.0174,-0.02014,4.44992,-0.0296,-0.03311,-0.00214,-0.04044,-0.0383,0.0087,-0.03723
8.906,0.01312,-0.04913,-0.04547,-0.03815,-0.0206,-0.04852,-0.01862,-0.02121,4.01184,-0.02594,-0.02975,-0.06546,-0.03799,-0.04074,0.01984,-0.04135
8.9065,0.01205,-0.04791,-0.03464,-0.03204,-0.0174,-0.05463,-0.02045,-0.02197,2.96783,-0.02319,-0.03159,-0.09872,-0.03647,-0.04105,0.03967,-0.04684
8.907,0.00946,-0.04745,-0.02975,-0.02304,-0.01572,-0.06836,-0.01968,-0.01968,1.60568,-0.02167,-0.03525,-0.09308,-0.03708,-0.03906,0.05539,-0.05051
8.9075,0.00748,-0.04745,-0.03159,-0.01663,-0.01572,-0.08133,-0.01663,-0.01236,0.58762,-0.0235,-0.03983,-0.06058,-0.03906,-0.03784,0.04181,-0.04929
8.908,0.00458,-0.04486,-0.03693,-0.01617,-0.01266,-0.0824,-0.0174,-0.00336,0.03891,-0.02441,-0.04471,-0.02045,-0.04166,-0.03754,0.02304,-0.04501
8.9085,0.00061,-0.0386,-0.04059,-0.01907,-0.00977,-0.07004,-0.02518,0.00244,-0.51208,-0.02563,-0.04883,0.00336,-0.04364,-0.03769,0.02045,-0.0415
8.909,-0.00473,-0.0296,-0.04425,-0.02151,-0.009,-0.05295,-0.03448,-0.00015,-1.18942,-0.02686,-0.04837,-0.0061,-0.04486,-0.03754,0.0,-0.04059
8.9095,-0.00992,-0.02289,-0.04379,-0.01862,-0.01053,-0.047,-0.04044,-0.00565,-1.51657,-0.02548,-0.03998,-0.03159,-0.04547,-0.03448,-0.05829,-0.03998
8.91,-0.0119,-0.01953,-0.04288,-0.01221,-0.01221,-0.04837,-0.04089,-0.00763,-1.28922,-0.02213,-0.02777,-0.03555,-0.04272,-0.02853,-0.0795,-0.03937
8.9105,-0.01282,-0.01953,-0.03876,-0.00839,-0.01328,-0.05035,-0.04059,-0.00534,-1.04767,-0.02106,-0.01907,-0.00885,-0.03967,-0.0238,-0.00061,-0.03998
8.911,-0.01114,-0.01862,-0.04105,-0.00961,-0.01541,-0.05142,-0.04028,-0.00183,-1.35803,-0.02197,-0.02213,0.02533,-0.03845,-0.02182,0.13046,-0.04303
8.9115,-0.01114,-0.01709,-0.04227,-0.01389,-0.02228,-0.05402,-0.0322,-0.00031,-2.00409,-0.02365,-0.04257,0.04456,-0.03769,-0.02258,0.21072,-0.05081
8.912,-0.01114,-0.0174,-0.0412,-0.01724,-0.03036,-0.056,-0.00565,0.00275,-2.32681,-0.02579,-0.07523,0.04486,-0.03815,-0.02411,0.19623,-0.05844
8.9125,-0.0116,-0.01862,-0.04044,-0.0174,-0.03708,-0.05615,0.03799,0.00641,-2.11868,-0.02808,-0.09521,0.0383,-0.03937,-0.02548,0.12573,-0.06302
8.913,-0.01068,-0.01877,-0.03845,-0.01389,-0.04028,-0.05524,0.06958,0.00473,-1.77826,-0.03113,-0.07309,0.04135,-0.03922,-0.02441,0.06821,-0.06165
8.9135,-0.009,-0.01694,-0.03799,-0.00565,-0.04379,-0.05356,0.0563,-0.00656,-1.67862,-0.03494,-0.01358,0.05814,-0.03876,-0.01968,0.05707,-0.05295
8.914,-0.00809,-0.01511,-0.03937,0.00168,-0.0499,-0.05356,0.00259,-0.0238,-1.82083,-0.03784,0.04318,0.06866,-0.0383,-0.01205,0.06226,-0.04272
8.9145,-0.00992,-0.01587,-0.03952,0.00183,-0.05676,-0.05157,-0.04578,-0.03403,-2.13852,-0.0322,0.06714,0.05539,-0.03769,-0.00397,0.0441,-0.03815
8.915,-0.01114,-0.01831,-0.04028,-0.00549,-0.06088,-0.05127,-0.05356,-0.02914,-2.64618,-0.01694,0.06424,0.02426,-0.03754,0.00198,0.0087,-0.03693
8.9155,-0.00977,-0.02106,-0.04013,-0.01221,-0.06378,-0.05005,-0.02762,-0.01083,-3.16162,-0.00061,0.05005,-0.00122,-0.03876,0.00534,-0.01083,-0.03433
8.916,-0.00748,-0.02167,-0.03998,-0.01205,-0.06744,-0.04929,0.00092,0.00351,-3.2901,0.00763,0.03479,-0.01068,-0.03891,0.00778,-0.00549,-0.03128
8.9165,-0.0058,-0.02106,-0.03876,-0.00748,-0.06805,-0.04791,0.01053,0.00122,-2.88803,0.00732,0.01953,-0.01602,-0.04028,0.01114,0.00641,-0.02975
8.917,-0.00687,-0.02136,-0.03754,-0.00565,-0.06531,-0.04745,0.00153,-0.01633,-2.30331,0.00305,0.00534,-0.02548,-0.04211,0.01205,0.0148,-0.03281
8.9175,-0.00839,-0.02274,-0.03693,-0.00946,-0.05722,-0.04868,-0.01312,-0.03433,-2.0015,-0.00488,-0.00565,-0.03052,-0.04654,0.0087,0.02625,-0.03403
8.918,-0.009,-0.0238,-0.03784,-0.0177,-0.04974,-0.05096,-0.02304,-0.03876,-2.07596,-0.01434,-0.01495,-0.02151,-0.05081,0.00153,0.04562,-0.03204
8.9185,-0.00809,-0.02472,-0.03616,-0.02777,-0.04395,-0.05234,-0.02472,-0.03006,-2.27676,-0.02151,-0.0267,-0.00778,-0.05341,-0.00595,0.06195,-0.0267
8.919,-0.00595,-0.02502,-0.03448,-0.03311,-0.03998,-0.05112,-0.02151,-0.01801,-2.4028,-0.02045,-0.03983,-0.00366,-0.0531,-0.01328,0.05844,-0.02243
8.9195,-0.00534,-0.02609,-0.03036,-0.03143,-0.03876,-0.05234,-0.01755,-0.009,-2.4585,-0.01297,-0.04684,-0.01312,-0.05142,-0.02151,0.03754,-0.01892
8.92,-0.00504,-0.02716,-0.02914,-0.0264,-0.03906,-0.0528,-0.01801,-0.0029,-2.50626,-0.00076,-0.04471,-0.02914,-0.04944,-0.0325,0.01831,-0.01801
8.9205,-0.00519,-0.02747,-0.03204,-0.02121,-0.0415,-0.05432,-0.02396,0.00259,-2.57813,0.00793,-0.0351,-0.04074,-0.04868,-0.04822,0.01007,-0.02029
8.921,-0.00534,-0.02426,-0.03387,-0.0174,-0.04364,-0.05417,-0.0293,0.00732,-2.69073,0.00946,-0.02609,-0.03311,-0.04745,-0.06729,0.00793,-0.02441
8.9215,-0.00504,-0.00977,-0.03418,-0.01404,-0.04456,-0.05264,-0.02945,0.01068,-2.81418,0.00198,-0.02319,-0.00595,-0.04791,-0.0827,0.00534,-0.03036
8.922,-0.00534,0.0145,-0.03281,-0.01129,-0.04593,-0.05249,-0.0293,0.0116,-2.85568,-0.00717,-0.02228,0.01678,-0.04745,-0.0856,0.00137,-0.03464
8.9225,-0.00565,0.03403,-0.03342,-0.00946,-0.04715,-0.0528,-0.03815,0.01297,-2.79236,-0.01389,-0.02197,0.01617,-0.04669,-0.07111,0.00107,-0.03922
8.923,-0.00656,0.02884,-0.03647,-0.00809,-0.04745,-0.05173,-0.05432,0.01495,-2.74414,-0.01434,-0.02289,-0.00259,-0.04654,-0.04684,0.00122,-0.03876
8.9235,-0.00977,0.00244,-0.03906,-0.00916,-0.0441,-0.05035,-0.06516,0.01511,-2.8244,-0.01373,-0.02121,-0.02045,-0.04456,-0.02808,0.0032,-0.03494
8.924,-0.01404,-0.03098,-0.03998,-0.01343,-0.03983,-0.04898,-0.05386,0.01236,-2.97363,-0.0119,-0.01984,-0.02441,-0.04028,-0.01923,0.00305,-0.03143
8.9245,-0.01602,-0.05875,-0.0441,-0.01648,-0.03738,-0.04822,-0.02014,0.01022,-3.05023,-0.01541,-0.01709,-0.01221,-0.03448,-0.01678,-0.0029,-0.03281
8.925,-0.01495,-0.07858,-0.04608,-0.01404,-0.03647,-0.047,0.0148,0.01099,-3.02338,-0.02075,-0.01572,0.00626,-0.02975,-0.01587,-0.01007,-0.03616
8.9255,-0.01266,-0.09094,-0.0473,-0.01038,-0.03525,-0.04578,0.02792,0.01373,-2.9863,-0.02502,-0.01419,0.0174,-0.02792,-0.01511,-0.0177,-0.03891
8.926,-0.01038,-0.09506,-0.04654,-0.00656,-0.03159,-0.04303,0.02258,0.01205,-3.01773,-0.02533,-0.01373,0.02762,-0.02472,-0.0148,-0.02731,-0.04089
8.9265,-0.00793,-0.09216,-0.04532,-0.00381,-0.02579,-0.03952,0.01755,0.0,-3.09357,-0.02304,-0.0148,0.06439,-0.02106,-0.01465,-0.04608,-0.04318
8.927,-0.00656,-0.0853,-0.04517,-0.00076,-0.02289,-0.0383,0.01801,-0.02914,-3.15094,-0.01923,-0.01297,0.12619,-0.01862,-0.01343,-0.07294,-0.04593
8.9275,-0.00549,-0.07782,-0.04745,0.00229,-0.02136,-0.03769,0.01511,-0.07675,-3.18726,-0.01724,-0.00931,0.15945,-0.01892,-0.01312,-0.0882,-0.04684
8.928,-0.00687,-0.07156,-0.05081,0.00488,-0.01831,-0.03708,0.00534,-0.14084,-3.22617,-0.01678,-0.00412,0.11902,-0.02167,-0.01175,-0.07217,-0.04761
8.9285,-0.00854,-0.06668,-0.05188,0.00793,-0.01617,-0.03586,-0.01038,-0.21423,-3.23914,-0.01495,0.00031,0.03632,-0.02594,-0.00916,-0.02365,-0.04684
8.929,-0.00961,-0.06393,-0.04898,0.01144,-0.01404,-0.03357,-0.03876,-0.24582,-3.18451,-0.01068,0.00153,-0.01648,-0.03098,-0.00473,0.03586,-0.047
8.9295,-0.00916,-0.05981,-0.0441,0.01312,-0.01221,-0.02914,-0.07355,-0.1474,-3.08212,-0.00656,0.00229,-0.02136,-0.03555,0.00061,0.06714,-0.04669
8.93,-0.00793,-0.056,-0.03952,0.01022,-0.01022,-0.02426,-0.0885,0.09048,-2.96692,-0.0032,0.00137,-0.01846,-0.04272,0.00427,0.03662,-0.04623
8.9305,-0.0058,-0.05081,-0.03708,0.00443,-0.009,-0.01999,-0.06271,0.30533,-2.84775,-0.00717,-0.00031,-0.03113,-0.05203,0.00412,-0.03845,-0.04822
8.931,-0.00488,-0.04608,-0.03555,-0.00153,-0.00763,-0.01755,-0.01083,0.31952,-2.72675,-0.01587,-0.0029,-0.0383,-0.06012,-0.00015,-0.11398,-0.05249
8.9315,-0.00214,-0.04364,-0.0351,-0.00397,-0.00153,-0.01633,0.03159,0.16266,-2.61353,-0.02563,-0.00336,-0.02319,-0.06409,-0.00412,-0.1683,-0.05569
8.932,0.00153,-0.04318,-0.03159,-0.00412,0.00595,-0.01556,0.04425,0.0235,-2.51236,-0.03174,-0.00671,-0.00351,-0.06195,-0.00549,-0.18921,-0.05676
8.9325,0.00473,-0.04501,-0.03067,-0.00519,0.01328,-0.01556,0.03571,0.00336,-2.40921,-0.03677,-0.00992,0.00229,-0.056,-0.00397,-0.15701,-0.05478
8.933,0.00641,-0.04639,-0.03143,-0.00732,0.02045,-0.01541,0.03296,0.02853,-2.29248,-0.04562,-0.01465,-0.00366,-0.04913,-0.00259,-0.07126,-0.04745
8.9335,0.00519,-0.04654,-0.03143,-0.01266,0.02716,-0.01389,0.04074,0.00839,-2.16385,-0.05829,-0.01831,-0.00946,-0.04105,-0.00641,-0.0148,-0.03326
8.934,0.00351,-0.04379,-0.03159,-0.0177,0.03036,-0.01511,0.03693,-0.0412,-2.03033,-0.06973,-0.01678,-0.00916,-0.03204,-0.01205,-0.06531,-0.01419
8.9345,0.00183,-0.03952,-0.03098,-0.0209,0.02991,-0.01923,0.01022,-0.05493,-1.89133,-0.07462,-0.00519,-0.00122,-0.02411,-0.01266,-0.18997,0.0
8.935,0.00122,-0.03632,-0.03143,-0.02289,0.02396,-0.02487,-0.01251,-0.01785,-1.75064,-0.0795,0.01907,0.0087,-0.0177,-0.009,-0.24536,0.00641
8.9355,0.00198,-0.0351,-0.03204,-0.02625,0.0177,-0.03067,-0.00336,0.03342,-1.62018,-0.0882,0.04303,0.00977,-0.01282,-0.01007,-0.11993,0.00473
8.936,0.00381,-0.03479,-0.03113,-0.03204,0.01099,-0.03494,0.0209,0.0676,-1.50223,-0.09857,0.05539,-0.01404,-0.00885,-0.01907,0.15015,-0.00214
8.9365,0.0061,-0.03693,-0.03235,-0.03815,0.00824,-0.03754,0.02411,0.06516,-1.38367,-0.09705,0.0563,-0.05203,-0.00626,-0.02975,0.38849,-0.01129
8.937,0.00702,-0.04028,-0.03265,-0.0415,0.0058,-0.04028,0.00061,0.00961,-1.25244,-0.07874,0.05722,-0.07202,-0.00565,-0.03113,0.44876,-0.03387
8.9375,0.00748,-0.04242,-0.03357,-0.04074,0.00198,-0.0444,-0.0209,-0.09186,-1.11908,-0.04944,0.06073,-0.05798,-0.00717,-0.01831,0.33218,-0.06775
8.938,0.00656,-0.04257,-0.03403,-0.03296,-0.00656,-0.04974,-0.02335,-0.18265,-1.01059,-0.02151,0.05905,-0.03448,-0.00931,0.00076,0.13641,-0.09583
8.9385,0.00595,-0.04028,-0.03418,-0.02182,-0.01862,-0.05524,-0.01556,-0.19531,-0.93094,-0.00351,0.04303,-0.03677,-0.01114,0.01114,-0.03265,-0.10941
8.939,0.00458,-0.03937,-0.03387,-0.01389,-0.03235,-0.06042,-0.01389,-0.10818,-0.83176,0.00015,0.01602,-0.05829,-0.01389,0.00778,-0.11368,-0.10635
8.9395,0.00488,-0.04105,-0.03265,-0.00992,-0.04257,-0.06378,-0.01862,0.04532,-0.6662,-0.00412,-0.01251,-0.0563,-0.01709,-0.00061,-0.10345,-0.09735
8.94,0.00717,-0.04257,-0.03082,-0.00702,-0.05127,-0.06668,-0.02441,0.19989,-0.45654,-0.00427,-0.03906,-0.00793,-0.01923,-0.00793,-0.05569,-0.08667
8.9405,0.00931,-0.0441,-0.03021,-0.00565,-0.06027,-0.06729,-0.02945,0.25818,-0.26947,0.00473,-0.07462,0.05249,-0.01953,-0.01358,-0.02777,-0.07446
8.941,0.00916,-0.04562,-0.03189,-0.00748,-0.07584,-0.07004,-0.0325,0.13931,-0.12436,0.01236,-0.11581,0.07553,-0.01862,-0.0177,-0.02029,-0.06241
8.9415,0.00702,-0.04547,-0.03387,-0.01129,-0.09338,-0.07416,-0.03387,-0.12711,0.0209,0.01282,-0.15472,0.04959,-0.01801,-0.02045,0.01236,-0.05539
8.942,0.00473,-0.04578,-0.03418,-0.01434,-0.10605,-0.07706,-0.03708,-0.39719,0.2066,0.00931,-0.17197,0.00641,-0.01785,-0.02289,0.09125,-0.05417
8.9425,0.00443,-0.047,-0.03326,-0.01297,-0.10773,-0.07599,-0.04547,-0.53589,0.41,0.0148,-0.16342,-0.01541,-0.01755,-0.02884,0.1622,-0.05112
8.943,0.00473,-0.04837,-0.03357,-0.00992,-0.10818,-0.07462,-0.056,-0.5278,0.58197,0.02243,-0.13046,-0.009,-0.01785,-0.03754,0.17242,-0.047
8.9435,0.00488,-0.04822,-0.03571,-0.00763,-0.10941,-0.07263,-0.05554,-0.44235,0.71381,0.02243,-0.09155,0.00305,-0.01633,-0.04044,0.14389,-0.0415
8.944,0.00305,-0.04822,-0.03723,-0.00549,-0.11002,-0.07004,-0.03769,-0.29678,0.82138,0.00977,-0.06607,-0.00107,-0.01282,-0.03067,0.12222,-0.03952
8.9445,0.00061,-0.04776,-0.03723,-0.00473,-0.10986,-0.06912,-0.01053,-0.04242,0.88791,-0.00885,-0.06836,-0.02075,-0.00946,-0.01144,0.10422,-0.04181
8.945,-0.00046,-0.04669,-0.03738,-0.00519,-0.1088,-0.07004,0.00107,0.26703,0.88684,-0.02396,-0.10696,-0.03616,-0.00641,0.00473,0.07156,-0.03983
8.9455,-0.00275,-0.04562,-0.03922,-0.00717,-0.10406,-0.07233,-0.01999,0.42191,0.84122,-0.03052,-0.16022,-0.03555,-0.00671,0.01144,0.03998,-0.03571
8.946,-0.00473,-0.04395,-0.04028,-0.00626,-0.09766,-0.07492,-0.05814,0.32135,0.80612,-0.02975,-0.18326,-0.02258,-0.00671,0.00916,0.03113,-0.02991
8.9465,-0.00671,-0.04242,-0.04044,-0.00259,-0.08774,-0.07339,-0.06805,0.16357,0.8046,-0.02548,-0.14404,-0.01144,-0.00717,0.00214,0.03326,-0.02762
8.947,-0.0087,-0.04044,-0.03845,0.00229,-0.07904,-0.07141,-0.03464,0.18799,0.8139,-0.01968,-0.06729,-0.01404,-0.00793,-0.00641,0.01999,-0.03159
8.9475,-0.00946,-0.03998,-0.03693,0.00412,-0.07217,-0.06958,0.00046,0.31525,0.79178,-0.01373,0.00595,-0.02396,-0.01007,-0.0174,-0.01434,-0.04059
8.948,-0.00977,-0.04059,-0.03616,-0.00031,-0.06622,-0.06882,-0.00534,0.28473,0.72586,-0.00687,0.0589,-0.01266,-0.01373,-0.02945,-0.04822,-0.04715
8.9485,-0.01053,-0.04211,-0.03647,-0.00931,-0.05737,-0.06744,-0.03479,0.0827,0.65292,0.00458,0.09476,0.03632,-0.01755,-0.04623,-0.05844,-0.05386
8.949,-0.01328,-0.04333,-0.03693,-0.0174,-0.04913,-0.06485,-0.0415,-0.03922,0.60211,0.01221,0.11063,0.08972,-0.02167,-0.06531,-0.03983,-0.05905
8.9495,-0.01556,-0.04349,-0.03723,-0.02121,-0.04196,-0.06149,-0.02808,0.05203,0.53772,0.01648,0.09964,0.0975,-0.02365,-0.08301,0.00031,-0.06195
8.95,-0.01663,-0.04456,-0.03677,-0.01984,-0.03769,-0.05844,-0.03342,0.20157,0.41809,0.01343,0.07385,0.06348,-0.02274,-0.09308,0.04486,-0.06409
8.9505,-0.01663,-0.04593,-0.03555,-0.01541,-0.0351,-0.05661,-0.05051,0.23209,0.29343,0.00351,0.05341,0.03799,-0.01953,-0.09476,0.06744,-0.06058
8.951,-0.01556,-0.047,-0.03418,-0.01007,-0.03326,-0.05386,-0.04318,0.17258,0.23453,-0.01236,0.04959,0.04089,-0.01678,-0.08835,0.05783,-0.05051
8.9515,-0.01465,-0.04654,-0.03372,-0.00824,-0.03174,-0.05157,-0.02518,0.14236,0.22446,-0.02518,0.05753,0.04425,-0.01709,-0.07584,0.02914,-0.04593
8.952,-0.01434,-0.04532,-0.03433,-0.00839,-0.02869,-0.04913,-0.03738,0.15396,0.23804,-0.03128,0.06821,0.02808,-0.02106,-0.06531,0.00992,-0.04791
8.9525,-0.01389,-0.04532,-0.03342,-0.00824,-0.02609,-0.04776,-0.05585,0.13474,0.3421,-0.03494,0.07477,0.00748,-0.02502,-0.06058,0.0061,-0.05569
8.953,-0.01251,-0.04486,-0.03464,-0.00565,-0.02319,-0.04715,-0.01648,0.06805,0.58258,-0.03952,0.07187,-0.00244,-0.02777,-0.05615,0.0061,-0.05814
8.9535,-0.00992,-0.04364,-0.03571,-0.00061,-0.02075,-0.04562,0.07721,0.01495,0.8783,-0.04089,0.05829,-0.00443,-0.02792,-0.04623,-0.00046,-0.05753
8.954,-0.00885,-0.04288,-0.03708,0.00427,-0.01938,-0.04379,0.14618,0.00946,1.13678,-0.04166,0.04303,-0.00626,-0.02777,-0.02792,-0.00809,-0.05219
8.9545,-0.00793,-0.04272,-0.03632,0.00641,-0.01846,-0.04242,0.1326,0.02365,1.34384,-0.04318,0.02914,-0.0087,-0.02762,-0.00397,-0.009,-0.04639
8.955,-0.00687,-0.04135,-0.03647,0.00671,-0.01511,-0.0412,0.05768,0.01801,1.46088,-0.04486,0.02075,-0.01236,-0.02655,0.01877,-0.00641,-0.04211
8.9555,-0.00412,-0.03845,-0.03601,0.00641,-0.01083,-0.03891,-0.02441,-0.0058,1.4119,-0.04349,0.01495,-0.01862,-0.02487,0.03189,-0.00717,-0.03632
8.956,-0.00137,-0.03616,-0.03647,0.00809,-0.00763,-0.03616,-0.07492,-0.02777,1.19095,-0.03494,0.01221,-0.02121,-0.02426,0.02823,-0.00793,-0.03525
8.9565,-0.00015,-0.03555,-0.03693,0.01236,-0.00381,-0.03479,-0.0737,-0.03555,0.87631,-0.02426,0.01221,-0.01617,-0.02655,0.01358,-0.00671,-0.04089
8.957,0.00076,-0.03479,-0.03708,0.01495,-0.00168,-0.03342,-0.02731,-0.03143,0.55862,-0.01328,0.01312,-0.00763,-0.03098,-0.00351,-0.00427,-0.04471
8.9575,0.00076,-0.03311,-0.0383,0.01358,0.0,-0.03265,0.02823,-0.0209,0.29434,-0.0058,0.01068,-0.00153,-0.03387,-0.01373,-0.00443,-0.04288
8.958,0.00092,-0.03189,-0.03784,0.00793,0.00153,-0.03159,0.05417,-0.01022,0.09338,-0.00168,0.00168,0.00137,-0.03372,-0.01846,-0.00702,-0.03769
8.9585,-0.00015,-0.03143,-0.03815,0.00046,0.00275,-0.03067,0.04883,-0.0058,-0.03922,-0.00076,-0.02365,0.00275,-0.03036,-0.01862,-0.0087,-0.03479
8.959,-0.00259,-0.03159,-0.03693,-0.0061,0.00397,-0.02899,0.02899,-0.00885,-0.04776,-0.00504,-0.07324,0.00336,-0.02823,-0.01434,-0.00671,-0.03311
8.9595,-0.00565,-0.03098,-0.03525,-0.01083,0.00732,-0.02548,0.0116,-0.01816,0.11047,-0.01007,-0.13397,0.00305,-0.02548,-0.00351,-0.00244,-0.03265
8.96,-0.00748,-0.03006,-0.03418,-0.0145,0.00977,-0.02075,0.00244,-0.02869,0.37094,-0.01572,-0.17792,0.00412,-0.02274,0.00778,-0.00168,-0.02884
8.9605,-0.00671,-0.02975,-0.03326,-0.0174,0.01221,-0.01694,-0.00107,-0.03677,0.60196,-0.02121,-0.18661,0.00717,-0.02182,0.01053,-0.01083,-0.02869
8.961,-0.00458,-0.03036,-0.03204,-0.01709,0.01251,-0.01434,-0.00336,-0.04105,0.72479,-0.03021,-0.16891,0.0087,-0.02228,0.00443,-0.02228,-0.03189
8.9615,-0.00229,-0.03159,-0.03143,-0.01358,0.01373,-0.01358,-0.00702,-0.04562,0.74097,-0.04181,-0.13535,0.00839,-0.02319,-0.0058,-0.02884,-0.0322
8.962,-0.00031,-0.03357,-0.03235,-0.00961,0.01434,-0.01541,-0.00565,-0.05844,0.67993,-0.05219,-0.09201,0.00992,-0.0235,-0.01434,-0.0293,-0.03082
8.9625,-0.00061,-0.03525,-0.03296,-0.0087,0.01266,-0.01755,0.00031,-0.08057,0.54871,-0.0589,-0.04364,0.01877,-0.02441,-0.02151,-0.03204,-0.03159
8.963,-0.00183,-0.03479,-0.0322,-0.01175,0.0087,-0.0206,0.00229,-0.10696,0.10239,-0.05676,-0.00076,0.03189,-0.02533,-0.02914,-0.03738,-0.03433
8.9635,-0.00259,-0.03281,-0.03082,-0.01633,0.00397,-0.02441,-0.0029,-0.12238,-1.2706,-0.0473,0.02899,0.04059,-0.02777,-0.03448,-0.0322,-0.03708
8.964,-0.00183,-0.0322,-0.03052,-0.01877,-0.00092,-0.03021,-0.01343,-0.11765,-3.47198,-0.03128,0.04501,0.0386,-0.03021,-0.03464,-0.01251,-0.0354
8.9645,-0.00092,-0.03342,-0.03067,-0.01572,-0.00595,-0.03845,-0.02472,-0.09857,-4.91348,-0.0174,0.05722,0.02853,-0.03143,-0.02686,0.00946,-0.02594
8.965,-0.00153,-0.03662,-0.02853,-0.01007,-0.01114,-0.05508,-0.03677,-0.07813,-4.88998,-0.0116,0.07721,0.01511,-0.02975,-0.01343,0.02731,-0.01892
8.9655,-0.00259,-0.03891,-0.02777,-0.00504,-0.0174,-0.07767,-0.04471,-0.06149,-3.94318,-0.01221,0.11063,-0.00183,-0.02731,0.00336,0.04349,-0.01724
8.966,-0.0029,-0.04044,-0.02823,-0.0029,-0.02502,-0.09659,-0.04272,-0.047,-2.68356,-0.00992,0.1416,-0.02014,-0.02487,0.02151,0.05264,-0.0177
8.9665,-0.0029,-0.04074,-0.02899,-0.00381,-0.02975,-0.10056,-0.03113,-0.03403,-1.02158,0.00198,0.14603,-0.03586,-0.02289,0.03815,0.04898,-0.01556
8.967,-0.00366,-0.04166,-0.0293,-0.00641,-0.03448,-0.09094,-0.01907,-0.02487,0.98663,0.01907,0.10757,-0.04791,-0.0209,0.05035,0.04318,-0.01266
8.9675,-0.00626,-0.04242,-0.02945,-0.00854,-0.04196,-0.08102,-0.0148,-0.01785,2.86774,0.02838,0.04517,-0.06378,-0.02075,0.0592,0.04364,-0.01251
8.968,-0.00854,-0.04333,-0.03174,-0.0087,-0.05157,-0.07843,-0.01755,-0.01129,4.29428,0.02594,-0.00168,-0.08148,-0.02228,0.06531,0.04013,-0.02426
8.9685,-0.00839,-0.04333,-0.03342,-0.00885,-0.05981,-0.07935,-0.02136,-0.00809,4.99985,0.01984,-0.01923,-0.09155,-0.02472,0.06805,0.02319,-0.0383
8.969,-0.00793,-0.04303,-0.03464,-0.01007,-0.06714,-0.07904,-0.02335,-0.01587,4.97147,0.01572,-0.02457,-0.08408,-0.02747,0.0647,0.00015,-0.04562
8.9695,-0.00824,-0.04349,-0.0351,-0.01221,-0.07294,-0.07919,-0.02274,-0.03555,3.89114,0.01221,-0.02899,-0.05173,-0.03067,0.05692,-0.01389,-0.04593
8.97,-0.00748,-0.04486,-0.03464,-0.01236,-0.07324,-0.07813,-0.02136,-0.05798,1.30722,0.00641,-0.02762,0.00809,-0.03281,0.04395,-0.01602,-0.0412
8.9705,-0.00717,-0.04578,-0.0351,-0.01221,-0.07294,-0.07492,-0.0206,-0.06607,-2.25769,0.00092,-0.01694,0.06973,-0.03479,0.0264,-0.01328,-0.03784
8.971,-0.0087,-0.04456,-0.03632,-0.01114,-0.0737,-0.06973,-0.02106,-0.0499,-4.77875,0.00168,-0.00656,0.0853,-0.03738,0.00366,-0.01633,-0.0325
8.9715,-0.01083,-0.04333,-0.03754,-0.01068,-0.07523,-0.06531,-0.02274,-0.02853,-4.97208,0.00473,-0.00305,0.04639,-0.03967,-0.02594,-0.02533,-0.03387
8.972,-0.01099,-0.04303,-0.03708,-0.01083,-0.07492,-0.06241,-0.02533,-0.0444,-4.49783,0.00946,-0.00549,0.00443,-0.04166,-0.0618,-0.03159,-0.04471
8.9725,-0.00961,-0.04486,-0.03769,-0.0119,-0.0705,-0.05936,-0.02762,-0.13824,-4.25156,0.0148,-0.00748,0.00488,-0.04379,-0.10101,-0.0264,-0.05753
8.973,-0.00839,-0.04684,-0.0383,-0.01221,-0.06424,-0.05722,-0.02991,-0.28427,-4.52026,0.01724,-0.0061,0.03082,-0.04639,-0.13138,-0.01099,-0.06027
8.9735,-0.00824,-0.04761,-0.03845,-0.0119,-0.05966,-0.05417,-0.0322,-0.37735,-4.61151,0.0145,0.00015,0.03525,-0.04791,-0.1416,-0.00061,-0.05157
8.974,-0.00656,-0.04807,-0.03815,-0.01144,-0.05829,-0.05219,-0.03464,-0.31845,-4.43069,0.00656,0.009,0.00473,-0.04837,-0.13016,-0.00641,-0.03967
8.9745,-0.00244,-0.0473,-0.03616,-0.01221,-0.05981,-0.04929,-0.03738,-0.14221,-4.32724,-0.00259,0.01205,-0.03418,-0.04791,-0.10696,-0.01831,-0.03296
8.975,0.00061,-0.04532,-0.03723,-0.01251,-0.05814,-0.04532,-0.04089,0.00351,-4.37363,-0.01266,0.00412,-0.05539,-0.04669,-0.07996,-0.01877,-0.02945
8.9755,0.00122,-0.04349,-0.0383,-0.01144,-0.05417,-0.04044,-0.04013,0.02045,-4.38354,-0.02121,-0.01236,-0.05646,-0.04379,-0.05203,-0.00778,-0.0296
8.976,0.00107,-0.04318,-0.03952,-0.01007,-0.04974,-0.03601,-0.03265,-0.06119,-4.31137,-0.02991,-0.0325,-0.04623,-0.04105,-0.02472,0.00565,-0.02884
8.9765,0.00275,-0.04395,-0.03769,-0.00992,-0.04715,-0.03296,-0.01892,-0.17014,-4.25385,-0.03647,-0.05142,-0.03448,-0.04089,-0.00229,0.01404,-0.03006
8.977,0.00549,-0.0444,-0.03448,-0.01236,-0.04639,-0.03159,-0.00854,-0.26825,-4.18655,-0.03876,-0.06683,-0.01953,-0.04333,0.01053,0.02106,-0.03143
8.9775,0.00519,-0.04364,-0.03296,-0.01556,-0.04349,-0.03021,-0.01312,-0.32913,-3.81866,-0.04135,-0.07187,0.00031,-0.04944,0.01419,0.02716,-0.03433
8.978,0.00137,-0.04395,-0.03372,-0.01678,-0.03815,-0.02792,-0.02563,-0.30121,-2.80319,-0.0473,-0.0589,0.0174,-0.05554,0.01587,0.02808,-0.0386
8.9785,-0.00183,-0.04425,-0.03403,-0.01541,-0.03311,-0.02579,-0.03372,-0.15213,-1.22345,-0.05768,-0.02594,0.0174,-0.05783,0.02014,0.02167,-0.04349
8.979,-0.00229,-0.04364,-0.03387,-0.01236,-0.02914,-0.0238,-0.03922,0.05875,0.31708,-0.06836,0.01495,0.00153,-0.05676,0.02563,0.01297,-0.04974
8.9795,0.00122,-0.04211,-0.03326,-0.00763,-0.02533,-0.02289,-0.05142,0.23453,1.24237,-0.0766,0.04822,-0.01221,-0.0563,0.02609,0.0029,-0.05692
8.98,0.00427,-0.0415,-0.03189,-0.00351,-0.01999,-0.02228,-0.06012,0.35843,1.56326,-0.08163,0.06775,-0.00793,-0.05661,0.02304,-0.01053,-0.06088
8.9805,0.00427,-0.04089,-0.03098,-0.0029,-0.01633,-0.0235,-0.04044,0.4776,1.70319,-0.08408,0.07675,0.01266,-0.05676,0.0206,-0.02655,-0.06149
8.981,0.00092,-0.0412,-0.03098,-0.0058,-0.01389,-0.02563,0.00931,0.57526,1.99799,-0.08102,0.07751,0.0386,-0.05615,0.01694,-0.03601,-0.05981
8.9815,-0.00336,-0.03967,-0.03006,-0.01312,-0.01389,-0.02808,0.0528,0.55313,2.42935,-0.06775,0.06393,0.05951,-0.05722,0.00824,-0.03494,-0.05707
8.982,-0.00809,-0.03784,-0.03204,-0.01999,-0.01495,-0.02869,0.04608,0.37384,2.81586,-0.04929,0.0351,0.06714,-0.0592,-0.00839,-0.02701,-0.05386
8.9825,-0.0116,-0.03723,-0.03174,-0.02747,-0.01511,-0.02823,-0.0029,0.15152,3.11829,-0.03677,0.00427,0.05341,-0.05798,-0.03098,-0.02167,-0.04913
8.983,-0.01373,-0.03769,-0.03281,-0.03387,-0.01328,-0.02869,-0.04639,0.04684,3.5022,-0.0354,-0.01541,0.02151,-0.05463,-0.05325,-0.01587,-0.04517
8.9835,-0.01556,-0.03876,-0.03342,-0.0383,-0.0119,-0.03036,-0.06439,0.08148,4.13712,-0.03815,-0.03296,-0.00702,-0.05005,-0.07126,-0.0061,-0.04089
8.984,-0.0177,-0.03967,-0.03311,-0.03708,-0.01099,-0.0325,-0.07004,0.13092,4.80896,-0.03708,-0.07141,-0.01495,-0.04791,-0.08362,0.00488,-0.03937
8.9845,-0.01862,-0.03937,-0.03265,-0.0296,-0.01068,-0.03265,-0.0621,0.09583,4.99985,-0.02823,-0.13855,-0.01038,-0.04456,-0.09064,0.00992,-0.04135
8.985,-0.01602,-0.03754,-0.03189,-0.01892,-0.01144,-0.03281,-0.02014,0.01526,4.99985,-0.0119,-0.21729,-0.01328,-0.04074,-0.09323,0.00763,-0.04669
8.9855,-0.01175,-0.0354,-0.03189,-0.01114,-0.01221,-0.03296,0.04593,-0.01511,4.9115,0.00122,-0.27985,-0.02548,-0.03845,-0.09216,0.00412,-0.05142
8.986,-0.00839,-0.03479,-0.03204,-0.01007,-0.01373,-0.03326,0.09201,0.03113,4.93958,0.00916,-0.30762,-0.03311,-0.03845,-0.09293,0.00748,-0.05432
8.9865,-0.00854,-0.03662,-0.03159,-0.01312,-0.01419,-0.03601,0.09171,0.10239,4.99741,0.0206,-0.29251,-0.03372,-0.04089,-0.09872,0.01389,-0.05325
8.987,-0.01053,-0.03708,-0.03235,-0.01373,-0.01465,-0.03769,0.06348,0.14587,4.98657,0.04303,-0.23453,-0.03464,-0.0444,-0.1059,0.01678,-0.0502
8.9875,-0.01434,-0.0354,-0.03189,-0.01007,-0.0145,-0.03998,0.04013,0.14221,4.9559,0.06866,-0.14832,-0.03357,-0.04608,-0.10651,0.01312,-0.04562
8.988,-0.01724,-0.03448,-0.03036,-0.00626,-0.01343,-0.04044,0.03311,0.10559,4.96002,0.08301,-0.06271,-0.0206,-0.04517,-0.09293,0.00671,-0.04364
8.9885,-0.01785,-0.03525,-0.0293,-0.00641,-0.0145,-0.04044,0.0325,0.06332,4.97711,0.07706,-0.00031,0.00381,-0.04257,-0.07004,-0.00137,-0.04196
8.989,-0.01724,-0.03754,-0.0293,-0.00992,-0.01617,-0.0412,0.02731,0.03052,4.97543,0.06195,0.04715,0.01999,-0.04181,-0.04791,-0.01724,-0.04227
8.9895,-0.0148,-0.03632,-0.03006,-0.01526,-0.01617,-0.04211,0.01328,0.0032,4.96674,0.04959,0.09018,0.01297,-0.0444,-0.03189,-0.03677,-0.04211
8.99,-0.009,-0.03387,-0.0293,-0.0209,-0.01419,-0.04333,-0.0029,-0.02441,4.96796,0.04425,0.11902,-0.00656,-0.04761,-0.02121,-0.04868,-0.04059
8.9905,-0.00122,-0.03296,-0.02823,-0.02274,-0.01419,-0.04456,-0.01175,-0.04532,4.97253,0.04486,0.11993,-0.01465,-0.04929,-0.01053,-0.04456,-0.03754
8.991,0.00504,-0.03372,-0.02686,-0.01801,-0.01328,-0.04501,-0.00763,-0.04807,4.97192,0.04791,0.1091,-0.00519,-0.04745,0.00458,-0.02075,-0.03723
8.9915,0.00778,-0.03464,-0.02838,-0.00961,-0.01297,-0.0444,0.00244,-0.03952,4.96582,0.05157,0.10513,0.00854,-0.04272,0.0206,0.03326,-0.03799
8.992,0.00885,-0.03464,-0.03021,-0.00473,-0.01251,-0.04272,0.00626,-0.03555,4.94705,0.05157,0.09537,0.01312,-0.0383,0.03387,0.10483,-0.03876
8.9925,0.0087,-0.03342,-0.03098,-0.00671,-0.01358,-0.04135,0.00031,-0.0354,4.87473,0.04486,0.06119,0.00565,-0.03815,0.03769,0.14359,-0.03937
8.993,0.00793,-0.03143,-0.03113,-0.00946,-0.01511,-0.04227,-0.01434,-0.03082,4.67941,0.03006,0.0148,-0.00015,-0.03998,0.03326,0.11383,-0.03952
8.9935,0.00778,-0.03067,-0.02975,-0.009,-0.01572,-0.04517,-0.03677,-0.02045,4.36005,0.00412,-0.01999,0.00259,-0.04135,0.02487,0.04959,-0.03906
8.994,0.0061,-0.02945,-0.02914,-0.00534,-0.01297,-0.04669,-0.05905,-0.01556,4.03885,-0.02838,-0.03891,0.00549,-0.04074,0.0148,0.01251,-0.03677
8.9945,0.00473,-0.02731,-0.02945,-0.00153,-0.01068,-0.04608,-0.06439,-0.01816,3.82019,-0.05417,-0.04944,-0.00031,-0.0383,0.00397,0.0148,-0.0354
8.995,0.00412,-0.02609,-0.03189,0.00275,-0.01099,-0.0473,-0.05051,-0.01923,3.65692,-0.06622,-0.04776,-0.0087,-0.03464,-0.0061,0.02731,-0.03677
8.9955,0.00366,-0.02625,-0.03281,0.0061,-0.0148,-0.04959,-0.03281,-0.0174,3.46954,-0.06866,-0.0267,-0.009,-0.03036,-0.01373,0.02899,-0.04059
8.996,0.00305,-0.02808,-0.0322,0.00687,-0.01633,-0.05188,-0.02441,-0.0238,3.27728,-0.06805,0.00824,-0.00183,-0.02731,-0.01785,0.02396,-0.04486
8.9965,0.0029,-0.02991,-0.03281,0.00381,-0.01846,-0.05127,-0.02396,-0.04303,3.13156,-0.06424,0.03265,0.00412,-0.02655,-0.01556,0.02136,-0.04639
8.997,0.0032,-0.03204,-0.0322,-0.00031,-0.02136,-0.05173,-0.02319,-0.06561,3.0191,-0.05676,0.03098,0.00351,-0.02838,-0.00778,0.0209,-0.0444
8.9975,0.00458,-0.03342,-0.03204,-0.00366,-0.02609,-0.05478,-0.0206,-0.07996,2.89551,-0.04898,0.01358,0.00046,-0.03265,0.00107,0.02228,-0.04059
8.998,0.00534,-0.03448,-0.03296,-0.0058,-0.02975,-0.05707,-0.01938,-0.08133,2.75223,-0.04669,0.0,-0.00244,-0.03723,0.00809,0.02258,-0.03647
8.9985,0.00565,-0.03448,-0.03586,-0.00656,-0.03082,-0.05859,-0.01999,-0.07507,2.60071,-0.04883,0.00076,-0.00427,-0.04074,0.01602,0.02701,-0.03677
8.999,0.00397,-0.03479,-0.03769,-0.00732,-0.03052,-0.05829,-0.01892,-0.06409,2.44461,-0.05066,0.00656,-0.00549,-0.0412,0.02563,0.03448,-0.03616
8.9995,0.00168,-0.03555,-0.03876,-0.00763,-0.03174,-0.05844,-0.0177,-0.05447,2.28149,-0.04608,0.00519,-0.00534,-0.04181,0.03372,0.03784,-0.03738
9.0,0.00015,-0.03571,-0.03708,-0.00565,-0.03647,-0.06012,-0.01907,-0.04868,2.10571,-0.04333,-0.0061,-0.00626,-0.0441,0.03616,0.02777,-0.0383
9.0005,-0.00137,-0.03677,-0.03693,-0.00427,-0.04181,-0.06226,-0.02213,-0.04669,1.91467,-0.05188,-0.02151,-0.00687,-0.04822,0.03601,-0.00183,-0.04059
9.001,-0.00198,-0.0383,-0.03448,-0.00397,-0.04639,-0.06195,-0.02319,-0.04547,1.72043,-0.07599,-0.0383,-0.00534,-0.05219,0.03525,-0.02899,-0.04013
9.0015,-0.0029,-0.03815,-0.03586,-0.00534,-0.04837,-0.05981,-0.02319,-0.04501,1.54282,-0.10422,-0.05508,-0.00443,-0.05524,0.03021,-0.02396,-0.03723
9.002,-0.00336,-0.03693,-0.03647,-0.00778,-0.04761,-0.05798,-0.02365,-0.04318,1.39114,-0.11688,-0.06149,-0.00443,-0.05753,0.01328,0.01068,-0.03494
9.0025,-0.00336,-0.0351,-0.03799,-0.00824,-0.04929,-0.05646,-0.02319,-0.04166,1.25931,-0.09827,-0.04837,-0.00626,-0.06027,-0.01373,0.03555,-0.0354
9.003,-0.00397,-0.03448,-0.03876,-0.00839,-0.05051,-0.05615,-0.02197,-0.04074,1.14059,-0.05524,-0.02441,-0.00702,-0.06195,-0.04425,0.02487,-0.04089
9.0035,-0.00565,-0.0351,-0.03845,-0.00839,-0.05035,-0.05539,-0.02106,-0.04105,1.0376,-0.00916,-0.00488,-0.0058,-0.06409,-0.07111,-0.00275,-0.04379
9.004,-0.00824,-0.03723,-0.03983,-0.0087,-0.04944,-0.05402,-0.0206,-0.04105,0.95001,0.02106,-0.00046,-0.00244,-0.06454,-0.09735,-0.01877,-0.04562
9.0045,-0.0119,-0.03784,-0.04089,-0.00946,-0.04669,-0.05219,-0.02136,-0.04089,0.86334,0.0267,-0.01099,0.00427,-0.06393,-0.1239,-0.01694,-0.04791
9.005,-0.01389,-0.03784,-0.04089,-0.01022,-0.04471,-0.05142,-0.02213,-0.03967,0.75531,0.00717,-0.02945,0.01541,-0.0621,-0.14359,-0.01053,-0.05447
9.0055,-0.01419,-0.03754,-0.03952,-0.01114,-0.04288,-0.05203,-0.02289,-0.03922,0.61829,-0.01953,-0.04654,0.02792,-0.05814,-0.14877,0.00153,-0.05493
9.006,-0.01312,-0.03754,-0.04089,-0.0119,-0.04166,-0.0528,-0.02289,-0.03845,0.47455,-0.0322,-0.05112,0.03555,-0.05447,-0.13733,0.0235,-0.05096
9.0065,-0.0119,-0.03815,-0.04074,-0.0116,-0.04211,-0.05295,-0.02304,-0.03662,0.35858,-0.02426,-0.04181,0.0325,-0.05127,-0.11566,0.04471,-0.04425
9.007,-0.01144,-0.03662,-0.03983,-0.01099,-0.04166,-0.05356,-0.02228,-0.03403,0.27451,-0.01541,-0.02533,0.01358,-0.04654,-0.08835,0.04959,-0.04105
9.0075,-0.01282,-0.03525,-0.04059,-0.00946,-0.04105,-0.05463,-0.02121,-0.03189,0.20203,-0.02792,-0.00748,-0.01038,-0.03937,-0.06042,0.0322,-0.0386
9.008,-0.01389,-0.03525,-0.04196,-0.00916,-0.03952,-0.05478,-0.02167,-0.03067,0.13245,-0.05676,0.00534,-0.02045,-0.03281,-0.03601,0.01251,-0.03906
9.0085,-0.01297,-0.03647,-0.04242,-0.01038,-0.03937,-0.05463,-0.02304,-0.02975,0.06683,-0.07126,0.01205,-0.01221,-0.02853,-0.01968,0.00504,-0.03922
9.009,-0.00946,-0.03662,-0.03998,-0.01129,-0.03998,-0.05249,-0.02472,-0.02792,-0.00168,-0.05585,0.0145,0.00061,-0.02579,-0.01419,0.01068,-0.03891
9.0095,-0.00412,-0.03494,-0.03754,-0.01221,-0.03983,-0.05112,-0.02426,-0.02747,-0.0708,-0.02609,0.01404,0.0029,-0.0264,-0.01541,0.0148,-0.03876
9.01,0.00076,-0.03433,-0.03479,-0.01282,-0.03876,-0.05066,-0.0235,-0.02716,-0.13153,-0.00732,0.01099,-0.00748,-0.02914,-0.01556,0.0119,-0.03525
9.0105,0.0032,-0.03464,-0.03433,-0.01343,-0.03586,-0.0502,-0.02197,-0.02533,-0.18417,-0.00198,0.00473,-0.0177,-0.03296,-0.01205,0.00122,-0.03052
9.011,0.00397,-0.03586,-0.03555,-0.01434,-0.03571,-0.04898,-0.02075,-0.02213,-0.22736,0.00137,-0.01144,-0.0177,-0.03525,-0.00534,-0.0087,-0.0235
9.0115,0.00702,-0.03571,-0.03525,-0.01526,-0.03616,-0.04822,-0.02045,-0.02014,-0.25909,0.01053,-0.05142,-0.01175,-0.03357,0.00412,-0.01389,-0.01541
9.012,0.01038,-0.03372,-0.03403,-0.01602,-0.0354,-0.04944,-0.0209,-0.01923,-0.289,0.0238,-0.12543,-0.009,-0.03052,0.01663,-0.01297,-0.01007
9.0125,0.01038,-0.03326,-0.03357,-0.0145,-0.03677,-0.05081,-0.02167,-0.01785,-0.33325,0.03693,-0.22827,-0.00793,-0.02777,0.03052,-0.00259,-0.00656
9.013,0.00778,-0.03616,-0.03159,-0.01251,-0.03647,-0.05127,-0.02045,-0.01495,-0.39154,0.05219,-0.33051,-0.00244,-0.02731,0.03799,0.01511,-0.00977
9.0135,0.00534,-0.03937,-0.03387,-0.01068,-0.03708,-0.05173,-0.01862,-0.0116,-0.45166,0.0676,-0.3685,0.00381,-0.02869,0.03815,0.03204,-0.01419
9.014,0.0029,-0.04013,-0.03387,-0.01007,-0.03693,-0.05096,-0.01755,-0.00793,-0.50568,0.0766,-0.28564,0.00031,-0.03052,0.03647,0.03647,-0.0177
9.0145,0.00092,-0.03891,-0.03265,-0.01038,-0.04013,-0.05066,-0.01816,-0.00595,-0.55344,0.07568,-0.09949,-0.01953,-0.03159,0.03922,0.02518,-0.02243
9.015,-0.00229,-0.03693,-0.03174,-0.01068,-0.04318,-0.05112,-0.01831,-0.00626,-0.59647,0.06912,0.0972,-0.04837,-0.03281,0.04395,0.00961,-0.0238
9.0155,-0.00504,-0.03632,-0.03143,-0.01129,-0.04028,-0.05051,-0.01846,-0.009,-0.63522,0.05875,0.224,-0.06439,-0.03464,0.0473,0.0061,-0.02563
9.016,-0.00793,-0.03555,-0.03113,-0.01114,-0.03708,-0.04822,-0.01801,-0.0119,-0.67368,0.04517,0.27084,-0.05539,-0.03616,0.04669,0.00961,-0.0296
9.0165,-0.01221,-0.03525,-0.03128,-0.01083,-0.03418,-0.04639,-0.01755,-0.01312,-0.71915,0.02869,0.26749,-0.03113,-0.03693,0.04089,0.01373,-0.03433
9.017,-0.01709,-0.0351,-0.03464,-0.01114,-0.03006,-0.04654,-0.0174,-0.01129,-0.77408,0.01038,0.22797,-0.01343,-0.03799,0.02731,0.01602,-0.03693
9.0175,-0.02228,-0.0354,-0.03235,-0.01175,-0.03174,-0.04822,-0.0177,-0.00702,-0.83038,-0.01236,0.15884,-0.00793,-0.03906,0.0029,0.01831,-0.03891
9.018,-0.02884,-0.03616,-0.0322,-0.01099,-0.03128,-0.04898,-0.01846,-0.00244,-0.87448,-0.04166,0.08743,-0.00778,-0.03983,-0.03036,0.01968,-0.04166
9.0185,-0.03616,-0.03662,-0.03098,-0.0116,-0.03143,-0.04898,-0.01801,-0.00031,-0.9024,-0.07111,0.04608,-0.01068,-0.03998,-0.06332,0.01907,-0.047
9.019,-0.04257,-0.03738,-0.03021,-0.01221,-0.03525,-0.04929,-0.01755,0.00153,-0.92499,-0.09415,0.0386,-0.01251,-0.04044,-0.08209,0.01404,-0.05814
9.0195,-0.04654,-0.0386,-0.02975,-0.01312,-0.03662,-0.0499,-0.01755,0.00397,-0.94543,-0.10757,0.04181,-0.0058,-0.03891,-0.07553,0.00519,-0.07889
9.02,-0.04944,-0.03983,-0.0293,-0.01236,-0.03479,-0.04883,-0.01648,0.00412,-0.95245,-0.11246,0.03738,0.01312,-0.0351,-0.04761,-0.00214,-0.09277
9.0205,-0.0502,-0.04074,-0.0293,-0.0116,-0.03281,-0.04761,-0.01648,0.0029,-0.95322,-0.11414,0.03876,0.03021,-0.03006,-0.01678,-0.00473,-0.09857
9.021,-0.05051,-0.0412,-0.02792,-0.01175,-0.03372,-0.04639,-0.01633,0.00107,-0.96512,-0.11703,0.05798,0.02869,-0.02747,0.0,-0.00656,-0.09201
9.0215,-0.04898,-0.04135,-0.02869,-0.01205,-0.0351,-0.04532,-0.01587,0.00031,-0.98984,-0.11749,0.08041,0.01068,-0.02823,0.00153,-0.00702,-0.08438
9.022,-0.04486,-0.04074,-0.02899,-0.0119,-0.03387,-0.04562,-0.01526,0.00107,-1.02264,-0.11002,0.08438,-0.00366,-0.03021,-0.00244,-0.00443,-0.08179
9.0225,-0.03754,-0.04074,-0.02914,-0.01129,-0.03586,-0.04623,-0.01495,0.00229,-1.0675,-0.09094,0.0679,0.00259,-0.03128,-0.00412,-0.00885,-0.08072
9.023,-0.03113,-0.03983,-0.03113,-0.01068,-0.03128,-0.04684,-0.01495,0.00244,-1.11862,-0.06607,0.04623,0.01862,-0.02899,-0.00427,-0.01373,-0.07782
9.0235,-0.02716,-0.03799,-0.03021,-0.01038,-0.03433,-0.04623,-0.01511,0.00046,-1.15921,-0.04654,0.02838,0.02823,-0.0267,-0.00595,-0.01572,-0.07416
9.024,-0.02518,-0.03799,-0.02777,-0.01114,-0.03113,-0.04501,-0.0148,-0.00259,-1.18744,-0.0325,0.01282,0.0267,-0.02563,-0.00763,-0.01083,-0.07629
9.0245,-0.02274,-0.03876,-0.0267,-0.01236,-0.03265,-0.04532,-0.01434,-0.00534,-1.20819,-0.02106,-0.00244,0.02228,-0.02441,-0.00626,-0.00534,-0.07507
9.025,-0.02106,-0.04074,-0.02777,-0.01251,-0.03616,-0.04654,-0.01282,-0.00702,-1.22253,-0.00763,-0.0177,0.02045,-0.02335,-0.00458,-0.00107,-0.07095
9.0255,-0.02075,-0.04135,-0.0293,-0.0116,-0.0354,-0.04669,-0.01266,-0.0058,-1.23657,0.00427,-0.03479,0.02014,-0.02136,-0.00504,0.00198,-0.05966
9.026,-0.02197,-0.0412,-0.02823,-0.01068,-0.0354,-0.04562,-0.01266,-0.00259,-1.25854,0.01114,-0.05157,0.01801,-0.01892,-0.00519,0.00443,-0.05463
9.0265,-0.02289,-0.04227,-0.02625,-0.01114,-0.03128,-0.04547,-0.01343,0.00168,-1.28403,0.01511,-0.06149,0.01617,-0.01755,-0.0061,0.00565,-0.05417
9.027,-0.02289,-0.04562,-0.0267,-0.01175,-0.03403,-0.04791,-0.01434,0.00458,-1.30096,0.01602,-0.06424,0.01541,-0.01724,-0.00687,0.00519,-0.06027
9.0275,-0.02243,-0.04852,-0.02945,-0.01068,-0.03754,-0.05142,-0.01434,0.00687,-1.30814,0.01587,-0.06287,0.01404,-0.01862,-0.00916,0.0058,-0.06241
9.028,-0.02396,-0.0502,-0.02838,-0.00854,-0.03525,-0.05234,-0.01282,0.00778,-1.3147,0.00916,-0.05814,0.01053,-0.01801,-0.0119,0.00793,-0.05951
9.0285,-0.02777,-0.05005,-0.02869,-0.00641,-0.03098,-0.05066,-0.01144,0.00809,-1.32782,0.00061,-0.05325,0.00656,-0.01694,-0.01144,0.009,-0.05508
9.029,-0.03235,-0.05005,-0.02777,-0.0058,-0.03128,-0.04959,-0.01236,0.00793,-1.34308,-0.00504,-0.04837,0.00549,-0.01663,-0.0087,0.00854,-0.05112
9.0295,-0.03372,-0.05035,-0.02975,-0.00732,-0.02991,-0.05096,-0.01343,0.00717,-1.35223,-0.01373,-0.04791,0.0058,-0.01556,-0.0058,0.00702,-0.04761
9.03,-0.03067,-0.05005,-0.0296,-0.00946,-0.03189,-0.05096,-0.0145,0.00839,-1.35376,-0.02075,-0.05035,0.00671,-0.01419,-0.00443,0.01297,-0.04608
9.0305,-0.02365,-0.04913,-0.0293,-0.01068,-0.03052,-0.04974,-0.01282,0.00961,-1.35605,-0.02533,-0.05249,0.00656,-0.01312,-0.00473,0.01968,-0.04379
9.031,-0.01724,-0.04913,-0.02991,-0.01068,-0.03159,-0.04745,-0.01236,0.01068,-1.36734,-0.02808,-0.0528,0.00504,-0.01358,-0.00702,0.0235,-0.04272
9.0315,-0.01175,-0.05005,-0.03052,-0.01007,-0.0296,-0.047,-0.0119,0.01099,-1.38412,-0.02945,-0.05081,0.00366,-0.0145,-0.01038,0.02167,-0.04074
9.032,-0.00748,-0.05096,-0.0296,-0.01083,-0.03403,-0.047,-0.01175,0.01068,-1.40076,-0.02747,-0.0502,0.00275,-0.01572,-0.01328,0.01801,-0.03311
9.0325,-0.00458,-0.05035,-0.02914,-0.01266,-0.03204,-0.04669,-0.01251,0.00916,-1.41937,-0.02518,-0.05249,0.00183,-0.01694,-0.01419,0.01602,-0.0209
9.033,-0.0032,-0.0499,-0.03036,-0.01312,-0.03159,-0.04623,-0.01328,0.00641,-1.43799,-0.0293,-0.05829,0.00061,-0.01663,-0.0145,0.01495,-0.01572
9.0335,-0.00473,-0.0502,-0.0322,-0.01434,-0.03311,-0.04608,-0.01389,0.00458,-1.44379,-0.04181,-0.0679,0.00076,-0.0145,-0.01663,0.01266,-0.01877
9.034,-0.00687,-0.05051,-0.03174,-0.01282,-0.02869,-0.04623,-0.01404,0.00473,-1.43555,-0.06012,-0.08133,0.0,-0.01389,-0.01999,0.00381,-0.02701
9.0345,-0.00763,-0.05051,-0.03357,-0.01114,-0.03281,-0.04623,-0.01328,0.00626,-1.42776,-0.07065,-0.09109,-0.00046,-0.01587,-0.02121,-0.01144,-0.03021
9.035,-0.009,-0.05066,-0.03265,-0.00885,-0.03006,-0.04684,-0.01251,0.00778,-1.42151,-0.06531,-0.0856,-0.00046,-0.01755,-0.01999,-0.02243,-0.02838
9.0355,-0.01068,-0.05295,-0.0325,-0.00687,-0.02777,-0.04715,-0.01266,0.00748,-1.41098,-0.05493,-0.06546,0.00015,-0.01785,-0.01663,-0.01328,-0.03006
9.036,-0.0145,-0.05539,-0.03403,-0.00519,-0.03067,-0.04608,-0.01343,0.0061,-1.40121,-0.04913,-0.04593,0.00092,-0.0174,-0.0148,0.00961,-0.03464
9.0365,-0.01724,-0.05615,-0.03357,-0.00443,-0.03372,-0.04517,-0.01434,0.00458,-1.39618,-0.04959,-0.0383,0.00122,-0.01862,-0.01389,0.02243,-0.04074
9.037,-0.01724,-0.05478,-0.03281,-0.00336,-0.03204,-0.04456,-0.01373,0.00504,-1.39404,-0.04852,-0.03601,0.00153,-0.02014,-0.0145,0.01755,-0.04501
9.0375,-0.01587,-0.05142,-0.03281,-0.00397,-0.03098,-0.04547,-0.01328,0.00504,-1.39221,-0.03952,-0.02823,0.00122,-0.02014,-0.01724,0.00717,-0.05585
9.038,-0.01694,-0.04913,-0.03372,-0.00443,-0.03265,-0.04562,-0.0145,0.00504,-1.37909,-0.02609,-0.01312,0.00046,-0.0206,-0.02274,-0.0032,-0.06668
9.0385,-0.01938,-0.04868,-0.03448,-0.00473,-0.03036,-0.04669,-0.01541,0.00488,-1.34613,-0.01053,0.00229,0.00153,-0.02029,-0.02747,-0.03433,-0.07309
9.039,-0.02213,-0.05005,-0.03464,-0.00549,-0.03021,-0.04852,-0.01495,0.00443,-1.30753,0.00519,0.01297,0.00397,-0.01877,-0.02869,-0.08804,-0.07568
9.0395,-0.02457,-0.05112,-0.03311,-0.00626,-0.03296,-0.05035,-0.01373,0.00534,-1.28876,0.01846,0.01801,0.00702,-0.01648,-0.02609,-0.13428,-0.0766
9.04,-0.02594,-0.05096,-0.03204,-0.00763,-0.03433,-0.05066,-0.01236,0.00641,-1.2883,0.02487,0.0177,0.00748,-0.01404,-0.02106,-0.14191,-0.06836
9.0405,-0.02747,-0.05249,-0.0322,-0.00885,-0.03418,-0.04913,-0.01266,0.00626,-1.28799,0.02258,0.01175,0.0058,-0.01328,-0.01923,-0.10834,-0.05173
9.041,-0.02655,-0.05386,-0.03372,-0.00885,-0.03296,-0.04929,-0.01465,0.00549,-1.27701,0.01312,-0.00717,0.00458,-0.01434,-0.01999,-0.04669,-0.03815
9.0415,-0.02487,-0.05554,-0.03571,-0.00961,-0.03494,-0.05051,-0.01724,0.00488,-1.26251,-0.0032,-0.04593,0.00488,-0.01572,-0.02274,0.02502,-0.03708
9.042,-0.02274,-0.05707,-0.03494,-0.00961,-0.0325,-0.05188,-0.01862,0.00397,-1.25397,-0.01953,-0.09338,0.0061,-0.01648,-0.0235,0.07965,-0.04623
9.0425,-0.01892,-0.05951,-0.03616,-0.00824,-0.02945,-0.05066,-0.01755,0.00244,-1.25259,-0.03342,-0.11612,0.00641,-0.01648,-0.02319,0.08682,-0.0499
9.043,-0.01434,-0.06104,-0.03464,-0.00778,-0.02716,-0.04837,-0.01648,0.00122,-1.25549,-0.03555,-0.09399,0.0058,-0.01602,-0.02319,0.06592,-0.047
9.0435,-0.01068,-0.06012,-0.03479,-0.00824,-0.03098,-0.04745,-0.01724,0.00168,-1.2587,-0.0354,-0.04791,0.00534,-0.01602,-0.02472,0.06012,-0.04211
9.044,-0.00977,-0.05692,-0.03418,-0.009,-0.02869,-0.04761,-0.0174,0.00305,-1.25931,-0.03555,-0.01556,0.0058,-0.01602,-0.02487,0.08499,-0.0383
9.0445,-0.01297,-0.05249,-0.03433,-0.00885,-0.02716,-0.04761,-0.01648,0.0029,-1.25595,-0.03265,-0.00412,0.0058,-0.01785,-0.02441,0.11414,-0.03662
9.045,-0.01785,-0.04822,-0.03342,-0.00702,-0.02884,-0.04654,-0.01526,0.00183,-1.24969,-0.0238,0.00778,0.00534,-0.01938,-0.0235,0.11841,-0.03662
9.0455,-0.0238,-0.04517,-0.03387,-0.00519,-0.02823,-0.04501,-0.01541,0.00015,-1.25015,-0.01266,0.03067,0.00427,-0.01968,-0.02258,0.09323,-0.0354
9.046,-0.02975,-0.04379,-0.03448,-0.00519,-0.02777,-0.04486,-0.01617,-0.00076,-1.27411,-0.00793,0.05371,0.00305,-0.01816,-0.02243,0.06302,-0.03204
9.0465,-0.03342,-0.04333,-0.03281,-0.00656,-0.02716,-0.04364,-0.01587,0.00015,-1.31699,-0.01312,0.06775,0.00198,-0.01801,-0.02289,0.04379,-0.02228
9.047,-0.03464,-0.04257,-0.03143,-0.00671,-0.02533,-0.0441,-0.01495,0.00076,-1.34811,-0.02609,0.07782,0.00031,-0.01984,-0.02319,0.03464,-0.01266
9.0475,-0.03418,-0.04211,-0.03235,-0.00641,-0.02823,-0.04364,-0.01495,-0.00046,-1.35269,-0.03265,0.08789,-0.00092,-0.02197,-0.02365,0.01953,-0.00778
9.048,-0.03265,-0.04227,-0.03342,-0.00488,-0.02991,-0.04395,-0.01587,-0.00259,-1.34552,-0.0351,0.09567,-0.00046,-0.02243,-0.02396,0.00061,-0.00458
9.0485,-0.03159,-0.04272,-0.03464,-0.00549,-0.03174,-0.04379,-0.01663,-0.00427,-1.33789,-0.03204,0.1004,0.00183,-0.02121,-0.02304,-0.00854,0.00076
9.049,-0.03036,-0.04303,-0.03525,-0.00778,-0.03143,-0.04425,-0.01602,-0.0061,-1.32767,-0.0267,0.1004,0.0032,-0.02029,-0.0209,-0.00427,0.00931
9.0495,-0.02792,-0.04227,-0.03372,-0.00702,-0.02686,-0.04471,-0.01434,-0.00656,-1.32919,-0.02396,0.08865,0.00336,-0.02029,-0.0174,0.00763,0.01266
9.05,-0.02472,-0.04135,-0.03342,-0.00458,-0.02625,-0.04486,-0.01373,-0.00687,-1.36551,-0.02762,0.06943,0.00412,-0.02106,-0.01617,0.01312,0.01175
9.0505,-0.02472,-0.0412,-0.03464,-0.00092,-0.02472,-0.0441,-0.01434,-0.00626,-1.44165,-0.03143,0.05692,0.00641,-0.02167,-0.01755,0.01755,0.00793
9.051,-0.02808,-0.04181,-0.03632,0.00214,-0.02502,-0.04257,-0.01511,-0.0058,-1.53091,-0.03555,0.05997,0.00824,-0.02167,-0.02045,0.02441,0.0087
9.0515,-0.03494,-0.04425,-0.03754,0.00366,-0.02838,-0.04288,-0.0148,-0.00412,-1.60248,-0.04196,0.06454,0.00809,-0.02335,-0.02151,0.02747,0.01282
9.052,-0.04181,-0.04501,-0.03754,0.00366,-0.0267,-0.0441,-0.01328,-0.00137,-1.67877,-0.04959,0.05386,0.00549,-0.02625,-0.02151,0.02716,0.01434
9.0525,-0.04364,-0.04379,-0.0383,0.00214,-0.0293,-0.04532,-0.01221,0.00122,-1.83273,-0.05219,0.02991,0.00153,-0.02899,-0.02167,0.02335,0.0061
9.053,-0.03448,-0.04272,-0.0415,-0.00107,-0.02853,-0.04654,-0.01236,0.00229,-2.08237,-0.04333,0.0032,-0.00137,-0.02808,-0.0235,0.01785,-0.00885
9.0535,-0.01556,-0.04257,-0.04501,-0.00336,-0.03098,-0.04639,-0.01221,0.00137,-2.32178,-0.0351,-0.02472,-0.00259,-0.02533,-0.02411,0.01022,-0.02426
9.054,0.00214,-0.04242,-0.04852,-0.00473,-0.03082,-0.04715,-0.01236,0.0,-2.41257,-0.02289,-0.06363,-0.00137,-0.0235,-0.02441,0.00229,-0.03479
9.0545,0.01114,-0.04181,-0.05066,-0.00488,-0.03021,-0.04761,-0.01144,-0.00061,-2.33459,-0.01724,-0.11536,0.00092,-0.02396,-0.02457,-0.00214,-0.03937
9.055,0.01221,-0.0415,-0.05386,-0.00549,-0.0325,-0.04715,-0.01038,-0.00031,-2.20306,-0.00793,-0.1535,0.00198,-0.02472,-0.02579,-0.00397,-0.03967
9.0555,0.01251,-0.04196,-0.05478,-0.00793,-0.02975,-0.04715,-0.01007,0.00031,-2.11868,0.00183,-0.14999,0.00153,-0.02441,-0.02548,-0.00214,-0.03845
9.056,0.01511,-0.04288,-0.05646,-0.01129,-0.03113,-0.047,-0.01068,-0.00031,-2.06604,0.00641,-0.11154,-0.00031,-0.02457,-0.02426,0.00198,-0.03876
9.0565,0.01846,-0.04288,-0.05508,-0.01541,-0.03082,-0.04623,-0.01083,-0.00168,-1.9899,0.00671,-0.07111,-0.00259,-0.0238,-0.02197,0.00565,-0.04364
9.057,0.02014,-0.04303,-0.05417,-0.01907,-0.03326,-0.04364,-0.01205,-0.00488,-1.86432,0.00504,-0.05325,-0.00458,-0.02197,-0.02045,0.009,-0.05112
9.0575,0.02213,-0.04211,-0.05188,-0.01968,-0.0351,-0.04349,-0.01251,-0.00824,-1.66046,0.0,-0.05371,-0.00458,-0.01953,-0.01724,0.01236,-0.06088
9.058,0.0238,-0.0415,-0.05203,-0.01678,-0.03098,-0.04471,-0.0116,-0.00748,-1.34384,-0.00702,-0.04929,-0.00259,-0.01801,-0.01358,0.01373,-0.06912
9.0585,0.02472,-0.04089,-0.0499,-0.01236,-0.03342,-0.04715,-0.01144,-0.00336,-0.93384,-0.02335,-0.02502,-0.00275,-0.01816,-0.01236,0.01221,-0.07477
9.059,0.02563,-0.03952,-0.04776,-0.00854,-0.03052,-0.04745,-0.01144,0.00031,-0.51422,-0.0473,0.00961,-0.00397,-0.01862,-0.0145,0.00763,-0.07874
9.0595,0.02716,-0.03723,-0.04333,-0.00702,-0.03296,-0.04623,-0.01129,0.0029,-0.16205,-0.07111,0.02991,-0.00519,-0.02045,-0.01862,0.00168,-0.08041
9.06,0.0293,-0.03647,-0.04105,-0.00702,-0.03174,-0.0444,-0.01083,0.00107,0.11093,-0.08316,0.02365,-0.00305,-0.02182,-0.02106,-0.00076,-0.08087
9.0605,0.02991,-0.03723,-0.03876,-0.00977,-0.02762,-0.0441,-0.01068,-0.00107,0.33722,-0.08606,-0.00122,-0.00107,-0.0235,-0.02258,-0.00214,-0.08163
9.061,0.02945,-0.03845,-0.03601,-0.01114,-0.0296,-0.04471,-0.01068,-0.00351,0.53482,-0.0766,-0.0293,-0.00092,-0.02441,-0.02319,0.00107,-0.08026
9.0615,0.02899,-0.03876,-0.03387,-0.01053,-0.03006,-0.0444,-0.01099,-0.00412,0.70236,-0.06424,-0.05188,-0.00397,-0.02472,-0.02335,0.00397,-0.07828
9.062,0.03113,-0.03845,-0.03326,-0.00885,-0.02991,-0.04379,-0.0119,-0.00366,0.84991,-0.04608,-0.07156,-0.00687,-0.02396,-0.02228,0.00259,-0.08179
9.0625,0.03433,-0.03799,-0.03311,-0.00793,-0.03174,-0.0441,-0.01266,-0.00351,0.9877,-0.02899,-0.09018,-0.00702,-0.02472,-0.01907,-0.00031,-0.09048
9.063,0.03937,-0.03784,-0.03311,-0.00717,-0.03265,-0.04623,-0.01221,-0.00473,1.11053,-0.0116,-0.10834,-0.00534,-0.02686,-0.01678,-0.00137,-0.09735
9.0635,0.04562,-0.03784,-0.03189,-0.0061,-0.03281,-0.04639,-0.0116,-0.00565,1.21521,0.00793,-0.12131,-0.00229,-0.03052,-0.01678,0.00198,-0.09415
9.064,0.05066,-0.03891,-0.03128,-0.00717,-0.02975,-0.04639,-0.01144,-0.00549,1.30844,0.03281,-0.1265,-0.00229,-0.03174,-0.01968,0.0058,-0.08499
9.0645,0.05173,-0.03952,-0.03006,-0.00961,-0.02884,-0.04562,-0.01038,-0.00473,1.39313,0.06104,-0.12009,-0.00397,-0.03052,-0.02274,0.00504,-0.08011
9.065,0.04913,-0.03937,-0.03067,-0.01099,-0.03159,-0.04623,-0.00931,-0.00458,1.47125,0.08621,-0.10406,-0.00641,-0.02869,-0.02258,-0.00488,-0.08316
9.0655,0.04471,-0.03784,-0.03006,-0.01068,-0.0322,-0.0473,-0.00824,-0.0061,1.54114,0.10513,-0.08072,-0.00595,-0.02731,-0.0206,-0.0145,-0.0853
9.066,0.04181,-0.03708,-0.03036,-0.00885,-0.03189,-0.04776,-0.00763,-0.00702,1.59607,0.11688,-0.05219,-0.0032,-0.02823,-0.01953,-0.01724,-0.08316
9.0665,0.04196,-0.03769,-0.02991,-0.00778,-0.02899,-0.04715,-0.00854,-0.00702,1.63193,0.1236,-0.01984,-0.00153,-0.02945,-0.02075,-0.01389,-0.07507
9.067,0.04333,-0.03845,-0.02747,-0.00977,-0.02884,-0.04745,-0.00992,-0.0061,1.65512,0.12436,0.00793,-0.00153,-0.0296,-0.02228,-0.0119,-0.06958
9.0675,0.04562,-0.03967,-0.02548,-0.01236,-0.02792,-0.04791,-0.01068,-0.00443,1.67267,0.10925,0.02594,-0.00381,-0.02945,-0.0209,-0.01297,-0.06836
9.068,0.0473,-0.04028,-0.02594,-0.01343,-0.02945,-0.04745,-0.01068,-0.0029,1.68457,0.08087,0.03143,-0.00458,-0.02838,-0.01892,-0.01373,-0.06714
9.0685,0.04791,-0.03983,-0.02731,-0.01251,-0.03265,-0.047,-0.01083,-0.00122,1.6832,0.04745,0.02914,-0.00366,-0.02869,-0.01846,-0.01175,-0.06424
9.069,0.04715,-0.03952,-0.02838,-0.01099,-0.03342,-0.04715,-0.01038,-0.00153,1.66931,0.02121,0.02487,-0.00153,-0.03067,-0.02075,-0.00793,-0.0592
9.0695,0.04761,-0.03922,-0.02899,-0.00946,-0.03128,-0.04822,-0.00977,-0.00214,1.65146,0.00671,0.02258,-0.00015,-0.03204,-0.02182,-0.00412,-0.05478
9.07,0.04959,-0.04013,-0.02884,-0.0058,-0.0293,-0.04852,-0.00916,-0.00275,1.63696,-0.00092,0.02075,0.00015,-0.03281,-0.02167,-0.00076,-0.04883
9.0705,0.05035,-0.04211,-0.02853,0.00244,-0.0322,-0.04776,-0.00854,-0.0029,1.62445,-0.01053,0.01877,-0.00046,-0.03357,-0.01892,0.00458,-0.04196
9.071,0.04791,-0.04227,-0.02838,0.01297,-0.02975,-0.04684,-0.00885,-0.00305,1.60751,-0.02075,0.01495,0.0,-0.03418,-0.01633,0.00671,-0.03342
9.0715,0.0441,-0.04028,-0.0267,0.01785,-0.03006,-0.04669,-0.00885,-0.0032,1.58127,-0.0293,0.01236,0.00137,-0.03403,-0.01633,0.0087,-0.02609
9.072,0.04257,-0.03769,-0.0264,0.01221,-0.03159,-0.04684,-0.0087,-0.00259,1.54739,-0.03448,0.01114,0.00198,-0.0354,-0.01831,0.01144,-0.02167
9.0725,0.04242,-0.0351,-0.02747,-0.00092,-0.02914,-0.04776,-0.00931,-0.00183,1.50803,-0.03662,0.01129,0.00137,-0.03662,-0.02075,0.01236,-0.02106
9.073,0.04181,-0.03403,-0.02945,-0.0119,-0.02991,-0.0502,-0.01022,-0.00183,1.46652,-0.03799,0.01038,-0.00061,-0.03647,-0.02106,0.01129,-0.02197
9.0735,0.03967,-0.03281,-0.0293,-0.01678,-0.03326,-0.05157,-0.01007,-0.00275,1.42471,-0.03601,0.00717,-0.00214,-0.03555,-0.01984,0.00397,-0.02304
9.074,0.03738,-0.03159,-0.02792,-0.01648,-0.03265,-0.05188,-0.00992,-0.00443,1.38519,-0.02838,0.00381,-0.00168,-0.03525,-0.01816,-0.00397,-0.02274
9.0745,0.03571,-0.0322,-0.02625,-0.0174,-0.0325,-0.05081,-0.01007,-0.00458,1.34247,-0.0209,-0.00015,-0.00046,-0.03586,-0.01785,-0.00671,-0.01846
9.075,0.03448,-0.03464,-0.02686,-0.01999,-0.0322,-0.04929,-0.00977,-0.00381,1.28967,-0.01205,-0.00336,0.00061,-0.03754,-0.01923,-0.00305,-0.01297
9.0755,0.03311,-0.03525,-0.02869,-0.02045,-0.03113,-0.04868,-0.00946,-0.00305,1.22986,-0.00763,-0.00473,0.0,-0.03937,-0.02136,0.00397,-0.00641
9.076,0.03174,-0.03662,-0.03082,-0.02106,-0.03128,-0.04852,-0.009,-0.00259,1.1705,-0.01083,-0.00366,0.00031,-0.03998,-0.02258,0.01678,-0.00046
9.0765,0.03006,-0.0383,-0.03189,-0.03006,-0.03296,-0.04929,-0.00854,-0.00198,1.11176,-0.01892,-0.00076,0.00092,-0.03998,-0.02258,0.03525,0.00168
9.077,0.02914,-0.03937,-0.0325,-0.04623,-0.03113,-0.0499,-0.01007,-0.00092,1.0556,-0.02487,0.00275,0.00244,-0.03967,-0.02182,0.05463,0.00122
9.0775,0.02899,-0.03922,-0.03281,-0.06271,-0.03006,-0.04974,-0.0119,-0.00092,1.00128,-0.03189,0.00366,0.00259,-0.03998,-0.02243,0.06226,-0.00122
9.078,0.02914,-0.03723,-0.03128,-0.07553,-0.02884,-0.04898,-0.01312,-0.00153,0.9436,-0.0351,0.00168,0.00137,-0.0412,-0.02228,0.05554,-0.00214
9.0785,0.02823,-0.03647,-0.02975,-0.08148,-0.02792,-0.04822,-0.01251,-0.00107,0.88898,-0.03891,-0.00183,0.00061,-0.04181,-0.02243,0.04333,0.00092
9.079,0.0267,-0.03647,-0.03082,-0.06577,-0.02991,-0.04822,-0.01175,0.00183,0.83923,-0.04196,-0.00504,0.00107,-0.0415,-0.02136,0.03448,0.00412
9.0795,0.02502,-0.03601,-0.03036,-0.02167,-0.02991,-0.04913,-0.01022,0.0029,0.78705,-0.04578,-0.00732,0.00244,-0.04013,-0.02106,0.02731,0.00397
9.08,0.02487,-0.03525,-0.03174,0.01678,-0.02884,-0.04883,-0.00885,0.00092,0.72327,-0.04852,-0.00793,0.00366,-0.03906,-0.0209,0.0177,-0.00778
9.0805,0.02625,-0.03418,-0.03128,0.00473,-0.02853,-0.04807,-0.00839,-0.00275,0.65536,-0.04822,-0.00839,0.00412,-0.03891,-0.02045,0.00397,-0.02777
9.081,0.02838,-0.03403,-0.03265,-0.0473,-0.02701,-0.04791,-0.00916,-0.00717,0.5957,-0.04776,-0.00793,0.00519,-0.03937,-0.01907,-0.01129,-0.04868
9.0815,0.03006,-0.0354,-0.0325,-0.07278,-0.03021,-0.04883,-0.01129,-0.00916,0.54398,-0.04303,-0.00763,0.0061,-0.04089,-0.01907,-0.01999,-0.05829
9.082,0.02884,-0.03754,-0.03174,-0.02808,-0.03082,-0.04929,-0.01312,-0.00885,0.49088,-0.03647,-0.009,0.00641,-0.04242,-0.01968,-0.02319,-0.05646
9.0825,0.02563,-0.03815,-0.03113,0.04929,-0.02899,-0.04852,-0.01358,-0.00854,0.4306,-0.03799,-0.0116,0.00519,-0.04471,-0.02029,-0.02487,-0.04684
9.083,0.0238,-0.03708,-0.03128,0.09155,-0.03098,-0.04852,-0.01389,-0.009,0.3688,-0.04044,-0.01251,0.0029,-0.04623,-0.01984,-0.02304,-0.03799
9.0835,0.02304,-0.03723,-0.03174,0.07278,-0.0293,-0.04837,-0.01434,-0.00946,0.31464,-0.04974,-0.01221,0.00107,-0.04639,-0.02045,-0.01389,-0.02914
9.084,0.02243,-0.03784,-0.03204,0.03296,-0.03036,-0.04776,-0.01495,-0.0087,0.27618,-0.06424,-0.01251,0.00061,-0.04608,-0.02167,-0.00046,-0.02426
9.0845,0.0206,-0.03891,-0.03128,0.01938,-0.0296,-0.04684,-0.0145,-0.00748,0.26001,-0.07004,-0.01556,0.00153,-0.04684,-0.02289,0.00183,-0.02731
9.085,0.01816,-0.03906,-0.03235,0.02945,-0.02914,-0.04501,-0.01465,-0.00748,0.25955,-0.07034,-0.02121,0.00275,-0.04944,-0.02441,-0.00397,-0.03647
9.0855,0.01572,-0.03952,-0.0322,0.03525,-0.0296,-0.04562,-0.01434,-0.00641,0.24384,-0.06744,-0.02625,0.00336,-0.05173,-0.0235,-0.00473,-0.04425
9.086,0.01251,-0.04059,-0.03265,0.02975,-0.02792,-0.04776,-0.01419,-0.00549,0.17044,-0.06363,-0.02808,0.00305,-0.05188,-0.02228,-0.00061,-0.04044
9.0865,0.009,-0.03983,-0.03204,0.03281,-0.02991,-0.04944,-0.01434,-0.00473,0.02777,-0.06409,-0.02945,0.00198,-0.05005,-0.02182,-0.00153,-0.0267
9.087,0.00519,-0.04028,-0.03235,0.05188,-0.03098,-0.04898,-0.0145,-0.00412,-0.12329,-0.06195,-0.04166,0.00244,-0.0499,-0.02228,-0.00748,-0.01114
9.0875,0.00153,-0.0415,-0.03311,0.065,-0.03036,-0.047,-0.01434,-0.00443,-0.1918,-0.05981,-0.07156,0.00305,-0.05081,-0.02411,-0.00977,-0.00092
9.088,0.0,-0.04288,-0.03311,0.05203,-0.03052,-0.04517,-0.01328,-0.00351,-0.16418,-0.06012,-0.10757,0.00488,-0.05188,-0.02396,-0.00748,0.00198
9.0885,0.00031,-0.04166,-0.03418,0.0206,-0.0296,-0.04562,-0.01343,-0.0029,-0.12589,-0.05646,-0.1239,0.00626,-0.05035,-0.02228,-0.00259,-0.00046
9.089,0.00107,-0.04013,-0.03571,-0.00549,-0.03036,-0.04715,-0.01404,-0.0029,-0.14206,-0.05508,-0.11093,0.00626,-0.04776,-0.01968,0.00015,-0.00351
9.0895,0.00244,-0.03967,-0.03571,-0.01373,-0.0296,-0.04868,-0.0145,-0.00229,-0.18005,-0.06302,-0.0914,0.00366,-0.04608,-0.01785,0.0061,-0.01038
9.09,0.00366,-0.04089,-0.03342,-0.01266,-0.03159,-0.04761,-0.01282,-0.00061,-0.17395,-0.07828,-0.09277,0.00076,-0.04501,-0.01785,0.0209,-0.02213
9.0905,0.00473,-0.04257,-0.03113,-0.01495,-0.0325,-0.04425,-0.01236,-0.00061,-0.10941,-0.09415,-0.1062,-0.00046,-0.04547,-0.01831,0.04196,-0.03204
9.091,0.00473,-0.04227,-0.03265,-0.02243,-0.03128,-0.04242,-0.01282,-0.00198,-0.03555,-0.09796,-0.09857,0.00092,-0.04547,-0.01862,0.05936,-0.03784
9.0915,0.00351,-0.04089,-0.03525,-0.0296,-0.03082,-0.04227,-0.01404,-0.00427,-0.00626,-0.08163,-0.05905,0.00153,-0.04456,-0.01755,0.05768,-0.04242
9.092,0.00061,-0.03906,-0.0351,-0.03448,-0.03098,-0.04349,-0.01358,-0.00519,-0.01099,-0.05341,-0.00473,-0.00076,-0.04364,-0.01755,0.04028,-0.04776
9.0925,-0.00229,-0.03799,-0.03418,-0.04105,-0.03113,-0.04547,-0.01312,-0.00534,0.01862,-0.01297,0.04425,-0.00397,-0.04303,-0.01755,0.02197,-0.0531
9.093,-0.00504,-0.03616,-0.03235,-0.05173,-0.03204,-0.04684,-0.01328,-0.00534,0.14771,0.03815,0.08865,-0.0061,-0.04501,-0.01785,0.01617,-0.05173
9.0935,-0.00671,-0.0354,-0.0325,-0.06104,-0.0325,-0.04684,-0.01373,-0.00519,0.36331,0.08759,0.12833,-0.0061,-0.04761,-0.01907,0.02304,-0.04608
9.094,-0.00702,-0.0354,-0.03128,-0.05707,-0.03265,-0.04608,-0.01465,-0.00519,0.56732,0.121,0.15045,-0.00565,-0.04883,-0.02014,0.02899,-0.04532
9.0945,-0.00763,-0.03632,-0.03174,-0.03616,-0.03235,-0.04639,-0.01282,-0.00443,0.66528,0.12817,0.14236,-0.0058,-0.04791,-0.01907,0.02777,-0.05157
9.095,-0.009,-0.03708,-0.03281,-0.00626,-0.03494,-0.04868,-0.01175,-0.00351,0.66788,0.11765,0.11429,-0.0061,-0.04486,-0.01587,0.02182,-0.05875
9.0955,-0.01053,-0.03723,-0.0325,0.0148,-0.03464,-0.05066,-0.01129,-0.0029,0.65384,0.10178,0.0827,-0.00534,-0.04166,-0.01266,0.01419,-0.06195
9.096,-0.0116,-0.03647,-0.03159,0.01968,-0.03342,-0.05264,-0.01221,-0.00214,0.6601,0.0853,0.05585,-0.00534,-0.04059,-0.01205,0.009,-0.06332
9.0965,-0.01236,-0.03555,-0.03082,0.01266,-0.03342,-0.05234,-0.01236,-0.00076,0.6665,0.07477,0.03616,-0.00656,-0.0415,-0.01373,0.00595,-0.06958
9.097,-0.01114,-0.0354,-0.03143,0.00275,-0.03265,-0.05142,-0.01236,0.00031,0.6517,0.06058,0.02563,-0.00946,-0.04318,-0.01419,0.00366,-0.08224
9.0975,-0.01068,-0.03693,-0.03235,-0.01053,-0.03342,-0.05005,-0.01266,0.00076,0.61722,0.04761,0.02167,-0.01144,-0.04532,-0.01465,0.00153,-0.09155
9.098,-0.01053,-0.03799,-0.03235,-0.02502,-0.03326,-0.04868,-0.01343,0.00107,0.5722,0.03738,0.01892,-0.00992,-0.04791,-0.01465,0.0032,-0.08911
9.0985,-0.01114,-0.03754,-0.03311,-0.03723,-0.03265,-0.04868,-0.01389,0.00107,0.5249,0.03021,0.01572,-0.0061,-0.04913,-0.01526,0.00885,-0.07767
9.099,-0.01114,-0.03693,-0.03342,-0.04242,-0.03143,-0.04868,-0.01358,0.00061,0.47714,0.02808,0.01266,-0.00183,-0.04944,-0.01526,0.01343,-0.06744
9.0995,-0.00946,-0.03525,-0.03464,-0.0444,-0.03174,-0.04852,-0.01205,0.0,0.42236,0.0209,0.00778,-0.00153,-0.04898,-0.01495,0.01587,-0.0647
9.1,-0.00885,-0.03403,-0.03418,-0.04578,-0.03189,-0.04898,-0.01038,0.00046,0.35248,0.00961,0.00107,-0.00443,-0.04837,-0.0148,0.01495,-0.06866
9.1005,-0.01038,-0.03342,-0.03387,-0.05295,-0.03326,-0.04669,-0.01068,-0.00061,0.27313,-0.00504,-0.00641,-0.00809,-0.04883,-0.01495,0.01007,-0.07263
9.101,-0.0119,-0.03311,-0.03433,-0.06104,-0.03281,-0.04456,-0.01282,-0.00336,0.20721,-0.01541,-0.01282,-0.00885,-0.04944,-0.01572,0.00565,-0.07233
9.1015,-0.0119,-0.03387,-0.03464,-0.0737,-0.03204,-0.04471,-0.01434,-0.00565,0.16296,-0.02258,-0.01831,-0.00656,-0.04868,-0.01678,0.0061,-0.0705
9.102,-0.01099,-0.03418,-0.03494,-0.09186,-0.03189,-0.04654,-0.01495,-0.00549,0.12863,-0.02792,-0.02274,-0.00427,-0.04684,-0.01801,0.00687,-0.06989
9.1025,-0.01007,-0.03723,-0.03387,-0.10284,-0.03098,-0.04669,-0.0148,-0.00366,0.1004,-0.02518,-0.02563,-0.0029,-0.04669,-0.01938,0.00595,-0.06866
9.103,-0.01007,-0.04028,-0.03479,-0.08942,-0.03113,-0.04654,-0.01389,-0.00259,0.0766,-0.0293,-0.02579,-0.00244,-0.04776,-0.01999,0.00381,-0.0679
9.1035,-0.00977,-0.04135,-0.03586,-0.05295,-0.03128,-0.04517,-0.01389,-0.00214,0.04501,-0.03189,-0.02548,-0.0029,-0.04883,-0.0206,0.00153,-0.0679
9.104,-0.0116,-0.04089,-0.03708,-0.02106,-0.03189,-0.04379,-0.01541,-0.0029,0.00534,-0.03387,-0.02487,-0.00519,-0.04807,-0.02121,-0.00275,-0.07294
9.1045,-0.01282,-0.03967,-0.03723,-0.00885,-0.03265,-0.04364,-0.01526,-0.00259,-0.03448,-0.03311,-0.02365,-0.00687,-0.04669,-0.01938,-0.01694,-0.07614
9.105,-0.01266,-0.03952,-0.03677,-0.00443,-0.03525,-0.04486,-0.01389,-0.00259,-0.07553,-0.03662,-0.02335,-0.0058,-0.04639,-0.01755,-0.04349,-0.07294
9.1055,-0.01282,-0.0412,-0.03601,0.00275,-0.03616,-0.04639,-0.01343,-0.00168,-0.10849,-0.03922,-0.02502,-0.00366,-0.04684,-0.01648,-0.06409,-0.06393
9.106,-0.01221,-0.04181,-0.03601,0.00702,-0.03586,-0.04623,-0.01358,-0.00031,-0.11719,-0.04471,-0.02869,-0.00244,-0.04761,-0.0174,-0.04837,-0.05386
9.1065,-0.01266,-0.04211,-0.03662,-0.00732,-0.03418,-0.04562,-0.0145,0.00092,-0.11108,-0.04913,-0.03159,-0.00229,-0.04639,-0.01862,0.00519,-0.04486
9.107,-0.01297,-0.04288,-0.03708,-0.03845,-0.03403,-0.04578,-0.01419,0.0,-0.11871,-0.05081,-0.03174,-0.00107,-0.04532,-0.02029,0.04837,-0.0383
9.1075,-0.01282,-0.04242,-0.03891,-0.07065,-0.03357,-0.04745,-0.01419,-0.00046,-0.15732,-0.04929,-0.02975,-0.00046,-0.04486,-0.02151,0.03448,-0.0325
9.108,-0.01175,-0.04089,-0.03769,-0.0856,-0.03372,-0.04929,-0.01404,0.00015,-0.21255,-0.04776,-0.02625,-0.00046,-0.04623,-0.02197,-0.01801,-0.03143
9.1085,-0.00992,-0.04059,-0.0383,-0.07416,-0.03357,-0.05096,-0.01328,0.00229,-0.2594,-0.047,-0.02396,-0.00046,-0.0473,-0.02258,-0.04807,-0.03326
9.109,-0.01038,-0.0412,-0.0386,-0.03387,-0.03357,-0.05066,-0.0116,0.0029,-0.29068,-0.04578,-0.02167,0.00046,-0.04761,-0.02136,-0.03265,-0.03647
9.1095,-0.01083,-0.04303,-0.03937,0.02762,-0.03372,-0.05051,-0.0116,0.00214,-0.31693,-0.04211,-0.01907,0.00259,-0.04456,-0.02213,0.0,-0.03265
9.11,-0.01053,-0.04181,-0.03998,0.07095,-0.0322,-0.04974,-0.01236,0.00168,-0.3479,-0.03723,-0.01724,0.00366,-0.04196,-0.02335,0.0206,-0.02762
9.1105,-0.00931,-0.04074,-0.03967,0.05371,-0.03296,-0.05051,-0.01297,0.00412,-0.3801,-0.02853,-0.0177,0.00366,-0.0415,-0.02518,0.03998,-0.02167
9.111,-0.00763,-0.04074,-0.03876,-0.01953,-0.03357,-0.0502,-0.01343,0.0061,-0.40466,-0.02609,-0.02075,0.00305,-0.04272,-0.02441,0.07416,-0.0209
9.1115,-0.00626,-0.04166,-0.0383,-0.0882,-0.03235,-0.04852,-0.01358,0.00488,-0.41855,-0.02747,-0.0238,0.00214,-0.04333,-0.02197,0.10056,-0.02243
9.112,-0.00641,-0.0415,-0.03754,-0.08942,-0.03204,-0.04944,-0.01343,0.00076,-0.42496,-0.03006,-0.02747,0.00137,-0.04211,-0.01984,0.08224,-0.02502
9.1125,-0.00778,-0.04028,-0.03738,-0.03174,-0.03265,-0.04929,-0.0145,-0.00351,-0.43106,-0.03311,-0.03311,0.00153,-0.04044,-0.01923,0.03448,-0.02701
9.113,-0.00916,-0.04044,-0.03586,0.03174,-0.0322,-0.04852,-0.01556,-0.00732,-0.44739,-0.03448,-0.0386,0.00275,-0.03998,-0.01953,0.00473,-0.03174
9.1135,-0.00961,-0.04196,-0.03647,0.07263,-0.0325,-0.04837,-0.01648,-0.0087,-0.48691,-0.03677,-0.03998,0.00443,-0.03876,-0.02151,0.01099,-0.0351
9.114,-0.00992,-0.04364,-0.03555,0.09689,-0.03159,-0.04868,-0.01724,-0.009,-0.54031,-0.03967,-0.03448,0.00626,-0.03815,-0.02228,0.02792,-0.03311
9.1145,-0.00824,-0.04456,-0.03616,0.11398,-0.03098,-0.04822,-0.01801,-0.009,-0.58304,-0.04318,-0.02472,0.00626,-0.03769,-0.02396,0.0322,-0.03036
9.115,-0.00778,-0.04486,-0.03601,0.11398,-0.03082,-0.04791,-0.01801,-0.00824,-0.61142,-0.04807,-0.01297,0.00427,-0.03723,-0.02411,0.0267,-0.02899
9.1155,-0.0087,-0.04456,-0.03632,0.09003,-0.03021,-0.04807,-0.01648,-0.00687,-0.64514,-0.05325,-0.00351,0.00198,-0.03555,-0.02335,0.0235,-0.03067
9.116,-0.00946,-0.04517,-0.03555,0.05478,-0.03159,-0.047,-0.01648,-0.00504,-0.68253,-0.05875,0.00076,0.00092,-0.03296,-0.02213,0.02029,-0.03235
9.1165,-0.00946,-0.04486,-0.0354,0.02975,-0.03204,-0.04578,-0.01709,-0.00626,-0.70313,-0.06607,-0.00198,0.00214,-0.02914,-0.02121,0.01556,-0.03494
9.117,-0.00793,-0.04349,-0.03586,0.02243,-0.03098,-0.0444,-0.01617,-0.00839,-0.70786,-0.06805,-0.00854,0.00351,-0.02609,-0.0209,0.00732,-0.03601
9.1175,-0.0061,-0.04242,-0.03677,0.03036,-0.03021,-0.04486,-0.01587,-0.00961,-0.70511,-0.06744,-0.01389,0.0032,-0.02579,-0.02106,0.0029,-0.03586
9.118,-0.00687,-0.04227,-0.03693,0.04715,-0.03036,-0.04593,-0.01556,-0.00793,-0.69962,-0.06836,-0.01923,0.0029,-0.02594,-0.0206,0.00275,-0.03647
9.1185,-0.00778,-0.04166,-0.03571,0.06973,-0.03082,-0.04593,-0.01617,-0.0058,-0.70068,-0.0708,-0.02502,0.00305,-0.0264,-0.02014,0.00504,-0.03464
9.119,-0.00946,-0.0412,-0.03555,0.08896,-0.03052,-0.04517,-0.01572,-0.00443,-0.70633,-0.06577,-0.03036,0.00443,-0.02701,-0.01801,0.00458,-0.03265
9.1195,-0.01068,-0.04028,-0.03479,0.09186,-0.02991,-0.04425,-0.01572,-0.00351,-0.70877,-0.0499,-0.03296,0.00671,-0.02655,-0.01465,0.0032,-0.03189
9.12,-0.01129,-0.03922,-0.03357,0.07767,-0.02884,-0.0441,-0.01465,-0.00244,-0.71609,-0.03082,-0.03342,0.00778,-0.02457,-0.00931,0.00366,-0.03006
9.1205,-0.01083,-0.03662,-0.03281,0.05463,-0.02884,-0.04501,-0.0145,-0.00092,-0.74875,-0.01053,-0.03479,0.00671,-0.02319,-0.00641,0.00473,-0.0296
9.121,-0.01129,-0.03418,-0.03387,0.03128,-0.03006,-0.04532,-0.01251,-0.00107,-0.80933,0.00702,-0.03693,0.00519,-0.02258,-0.0087,0.00473,-0.03067
9.1215,-0.01343,-0.03235,-0.03464,0.01358,-0.03204,-0.04532,-0.01221,-0.00183,-0.87982,0.01923,-0.03662,0.00412,-0.02258,-0.01297,0.00412,-0.03311
9.122,-0.01419,-0.03204,-0.03296,0.00229,-0.0322,-0.04547,-0.01221,-0.00168,-0.94284,0.02731,-0.03265,0.00397,-0.02243,-0.01526,0.00336,-0.03464
9.1225,-0.01236,-0.03326,-0.03342,-0.00504,-0.03311,-0.04654,-0.01297,-0.00061,-0.9964,0.03448,-0.02792,0.00488,-0.02136,-0.01511,0.0029,-0.03464
9.123,-0.01007,-0.03586,-0.03494,-0.01007,-0.03204,-0.04852,-0.01358,0.00137,-1.04736,0.03983,-0.02213,0.00519,-0.01984,-0.01419,0.00336,-0.03403
9.1235,-0.01099,-0.03754,-0.0383,-0.01297,-0.03174,-0.04913,-0.01419,0.00137,-1.10229,0.04074,-0.01541,0.00381,-0.01907,-0.01373,0.00412,-0.03357
9.124,-0.01404,-0.03922,-0.04028,-0.01404,-0.0296,-0.04822,-0.01343,0.0,-1.1673,0.03632,-0.009,0.00153,-0.01892,-0.01434,0.00366,-0.03479
9.1245,-0.01724,-0.04257,-0.03967,-0.0174,-0.02899,-0.04684,-0.01419,-0.00259,-1.24512,0.02701,0.0,0.00076,-0.01953,-0.01434,0.00412,-0.03494
9.125,-0.01846,-0.04456,-0.03799,-0.02487,-0.02899,-0.047,-0.01541,-0.00412,-1.32874,0.01434,0.01205,0.00061,-0.01999,-0.01587,0.00534,-0.03342
9.1255,-0.0177,-0.04715,-0.03586,-0.03281,-0.02853,-0.04761,-0.01541,-0.00427,-1.3942,-0.00443,0.02579,-0.00046,-0.0206,-0.01617,0.00626,-0.0351
9.126,-0.01724,-0.04791,-0.03387,-0.03693,-0.02808,-0.04761,-0.01572,-0.00381,-1.42471,-0.01938,0.03433,-0.00122,-0.0209,-0.01495,0.00488,-0.03784
9.1265,-0.01678,-0.0499,-0.03235,-0.03677,-0.02945,-0.047,-0.01663,-0.00336,-1.43127,-0.03052,0.03601,-0.00031,-0.01923,-0.01205,0.00336,-0.04196
9.127,-0.01648,-0.05142,-0.03204,-0.03632,-0.02899,-0.04578,-0.01648,-0.00244,-1.44363,-0.03357,0.03479,0.00031,-0.01694,-0.01129,0.00153,-0.04456
9.1275,-0.01541,-0.05341,-0.03326,-0.03754,-0.02899,-0.04517,-0.01633,-0.00183,-1.47064,-0.03326,0.03296,0.00137,-0.01556,-0.01068,0.00122,-0.04425
9.128,-0.01495,-0.05493,-0.03418,-0.03998,-0.02899,-0.04593,-0.01465,-0.00229,-1.48376,-0.02884,0.02533,0.00259,-0.01373,-0.0087,0.00137,-0.04318
9.1285,-0.0148,-0.05585,-0.03326,-0.04166,-0.03128,-0.04669,-0.01282,-0.00259,-1.4743,-0.02213,0.01007,0.0032,-0.01236,-0.00168,0.00061,-0.0415
9.129,-0.01419,-0.05447,-0.03296,-0.04318,-0.0322,-0.0473,-0.01221,-0.00214,-1.46362,-0.01663,-0.00748,0.00458,-0.01205,0.00671,0.00031,-0.04135
9.1295,-0.01389,-0.05173,-0.03342,-0.04517,-0.03128,-0.04776,-0.01297,-0.00122,-1.45599,-0.01297,-0.01984,0.00549,-0.0116,0.01266,-0.00031,-0.03845
9.13,-0.01404,-0.05096,-0.03403,-0.04654,-0.03143,-0.04623,-0.01404,-0.00046,-1.42471,-0.01068,-0.02777,0.00595,-0.01038,0.01328,-0.00275,-0.03265
9.1305,-0.01419,-0.0502,-0.03403,-0.04684,-0.03113,-0.04456,-0.0148,-0.00061,-1.34811,-0.00778,-0.03677,0.00549,-0.01022,0.01038,-0.00687,-0.02686
9.131,-0.01312,-0.05005,-0.03403,-0.047,-0.03006,-0.04425,-0.01434,-0.00214,-1.22955,-0.00824,-0.0473,0.00473,-0.01129,0.00687,-0.01083,-0.02319
9.1315,-0.01266,-0.04913,-0.03464,-0.0473,-0.03036,-0.04593,-0.01404,-0.00259,-1.09344,-0.00916,-0.06012,0.00427,-0.01465,0.00137,-0.01343,-0.02121
9.132,-0.01465,-0.04837,-0.03616,-0.04929,-0.03036,-0.04684,-0.01389,-0.00198,-0.97137,-0.0116,-0.07324,0.00412,-0.01678,-0.00702,-0.01038,-0.0177
9.1325,-0.01755,-0.04898,-0.03601,-0.05417,-0.03036,-0.04684,-0.01389,-0.00061,-0.87311,-0.01221,-0.0827,0.00336,-0.01816,-0.01633,-0.00137,-0.01083
9.133,-0.02121,-0.05035,-0.03601,-0.05966,-0.03143,-0.04745,-0.01343,-0.00092,-0.78079,-0.01358,-0.08453,0.0032,-0.01801,-0.0235,0.01282,-0.00473
9.1335,-0.02411,-0.04944,-0.03632,-0.06332,-0.0322,-0.04776,-0.01358,-0.00259,-0.67978,-0.01678,-0.07874,0.00351,-0.01724,-0.03174,0.02029,-0.00214
9.134,-0.02457,-0.04761,-0.03784,-0.06622,-0.03052,-0.04776,-0.01404,-0.00366,-0.5748,-0.02151,-0.07202,0.00443,-0.01511,-0.04669,0.01434,-0.00305
9.1345,-0.02335,-0.04669,-0.03815,-0.06836,-0.03067,-0.04745,-0.01373,-0.00336,-0.47287,-0.0264,-0.06805,0.00519,-0.01587,-0.06699,-0.00336,-0.0058
9.135,-0.02029,-0.04715,-0.03738,-0.07278,-0.03082,-0.04715,-0.01328,-0.00275,-0.37552,-0.03174,-0.0621,0.00565,-0.01816,-0.08118,-0.02502,-0.00702
9.1355,-0.01846,-0.04761,-0.03555,-0.07904,-0.03174,-0.04761,-0.01205,-0.00168,-0.27664,-0.03433,-0.04837,0.00748,-0.02106,-0.08224,-0.04211,-0.00687
9.136,-0.01816,-0.04562,-0.03403,-0.0882,-0.03204,-0.04791,-0.01144,-0.00122,-0.17319,-0.03296,-0.03021,0.01007,-0.02258,-0.07019,-0.04654,-0.00824
9.1365,-0.02045,-0.04349,-0.03418,-0.09949,-0.03189,-0.04822,-0.0116,-0.00214,-0.06927,-0.02747,-0.01434,0.01175,-0.02228,-0.05524,-0.03983,-0.01419
9.137,-0.02274,-0.04303,-0.03525,-0.10803,-0.03326,-0.0473,-0.01221,-0.00366,0.03586,-0.02396,-0.00275,0.00946,-0.0238,-0.04547,-0.03036,-0.02335
9.1375,-0.02243,-0.04211,-0.0351,-0.09583,-0.03433,-0.04745,-0.01221,-0.00549,0.14969,-0.02533,0.00763,0.0032,-0.02594,-0.04059,-0.01709,-0.03723
9.138,-0.01892,-0.04227,-0.03448,-0.04593,-0.03494,-0.04761,-0.01205,-0.0058,0.27344,-0.02884,0.01648,-0.00153,-0.02655,-0.03616,0.02441,-0.05463
9.1385,-0.01556,-0.04303,-0.03357,0.0296,-0.03525,-0.04929,-0.01205,-0.00565,0.40131,-0.03265,0.02136,-0.00031,-0.02594,-0.03204,0.09201,-0.06989
9.139,-0.01312,-0.04303,-0.03525,0.08133,-0.03647,-0.04944,-0.01266,-0.00565,0.5249,-0.03342,0.01785,0.00198,-0.02487,-0.02991,0.13687,-0.07751
9.1395,-0.01083,-0.04181,-0.03525,0.0705,-0.03632,-0.04944,-0.01312,-0.0058,0.63217,-0.03571,0.00839,0.00107,-0.02472,-0.02731,0.10925,-0.07721
9.14,-0.00854,-0.03983,-0.03418,0.01831,-0.03586,-0.04913,-0.01282,-0.0058,0.70801,-0.03525,-0.00122,-0.00183,-0.02441,-0.02365,0.03769,-0.07538
9.1405,-0.00885,-0.0386,-0.03418,-0.02075,-0.03555,-0.04883,-0.0119,-0.00549,0.74585,-0.03418,-0.00656,-0.00366,-0.0235,-0.0209,-0.0061,-0.07599
9.141,-0.0119,-0.0383,-0.03616,-0.02472,-0.03311,-0.04776,-0.01114,-0.00519,0.76981,-0.03265,-0.00504,-0.00244,-0.02228,-0.0206,-0.00198,-0.07584
9.1415,-0.01602,-0.03922,-0.03708,-0.01602,-0.0325,-0.04837,-0.01129,-0.00519,0.80399,-0.03006,-0.00015,-0.00076,-0.02121,-0.01923,0.01694,-0.07431
9.142,-0.0206,-0.04013,-0.03464,-0.01251,-0.03296,-0.04929,-0.01129,-0.00488,0.82672,-0.02716,0.00107,-0.00015,-0.02121,-0.01266,0.01556,-0.07172
9.1425,-0.02411,-0.03998,-0.03448,-0.00641,-0.03204,-0.04898,-0.01175,-0.00504,0.80505,-0.02426,-0.00168,0.0,-0.02106,0.00397,0.00565,-0.07202
9.143,-0.0264,-0.03876,-0.03571,0.00565,-0.03281,-0.04791,-0.01373,-0.00656,0.7724,-0.0235,-0.00381,0.00107,-0.01984,0.02457,0.00381,-0.07248
9.1435,-0.02579,-0.03815,-0.03738,0.01083,-0.03281,-0.04669,-0.01633,-0.00717,0.78659,-0.02518,-0.00381,0.0029,-0.01785,0.04105,0.01068,-0.07095
9.144,-0.02304,-0.0383,-0.03906,-0.00107,-0.03265,-0.04684,-0.01648,-0.00687,0.84045,-0.02777,-0.00488,0.00198,-0.01724,0.047,0.01572,-0.06683
9.1445,-0.01785,-0.03906,-0.0386,-0.02106,-0.03235,-0.04517,-0.01434,-0.00687,0.88425,-0.02869,-0.0087,0.0,-0.01968,0.04593,0.01617,-0.06531
9.145,-0.01175,-0.03998,-0.03662,-0.03235,-0.0322,-0.04593,-0.01328,-0.00671,0.90042,-0.02838,-0.01526,-0.0029,-0.02365,0.04272,0.01633,-0.06668
9.1455,-0.00748,-0.03876,-0.03525,-0.02655,-0.03311,-0.04745,-0.01358,-0.0058,0.91263,-0.02838,-0.03403,-0.00488,-0.02792,0.0383,0.01297,-0.06927
9.146,-0.00488,-0.03738,-0.03555,-0.01282,-0.03281,-0.04807,-0.01511,-0.00504,0.94101,-0.02792,-0.0708,-0.00488,-0.02991,0.03296,0.01083,-0.06989
9.1465,-0.00381,-0.0354,-0.03403,-0.00961,-0.03204,-0.04807,-0.01556,-0.00488,0.97275,-0.0264,-0.10605,-0.00336,-0.03082,0.02441,0.00778,-0.06943
9.147,-0.00305,-0.03494,-0.03433,-0.02487,-0.03098,-0.04761,-0.0145,-0.00504,0.9906,-0.02243,-0.11169,-0.00122,-0.03296,0.01007,0.0087,-0.06989
9.1475,-0.00092,-0.03464,-0.03235,-0.04715,-0.03052,-0.04807,-0.01389,-0.00473,0.9964,-0.01862,-0.08896,-0.00046,-0.03586,-0.0145,0.00946,-0.0708
9.148,0.00107,-0.03479,-0.03265,-0.05783,-0.02975,-0.04852,-0.01358,-0.00488,0.99091,-0.02045,-0.06149,-0.00046,-0.03769,-0.0499,0.00931,-0.06546
9.1485,0.00168,-0.03525,-0.03052,-0.05463,-0.02975,-0.04852,-0.01434,-0.00565,0.96207,-0.03098,-0.0386,-0.00076,-0.03952,-0.09125,0.00931,-0.0531
9.149,0.00137,-0.03693,-0.03189,-0.04745,-0.03021,-0.04791,-0.01511,-0.00778,0.90637,-0.04745,-0.00931,-0.00412,-0.03967,-0.1239,0.00916,-0.04501
9.1495,0.00107,-0.03799,-0.03143,-0.0412,-0.03235,-0.04639,-0.01648,-0.00854,0.84045,-0.06256,0.02823,-0.01038,-0.03983,-0.13489,0.00565,-0.04883
9.15,0.0,-0.03708,-0.03235,-0.0351,-0.03357,-0.04593,-0.01663,-0.00916,0.7869,-0.07431,0.05768,-0.01495,-0.03952,-0.12131,0.00092,-0.05798
9.1505,-0.00336,-0.03525,-0.03113,-0.02686,-0.03555,-0.0473,-0.01465,-0.009,0.75485,-0.08026,0.06638,-0.01282,-0.04044,-0.09537,-0.00061,-0.05966
9.151,-0.00824,-0.03555,-0.03174,-0.0148,-0.03662,-0.04883,-0.01343,-0.009,0.74646,-0.08102,0.06134,-0.00534,-0.03952,-0.07065,0.00122,-0.04929
9.1515,-0.0119,-0.03677,-0.0325,0.0,-0.03525,-0.04852,-0.01465,-0.00732,0.76645,-0.07767,0.056,0.00183,-0.03723,-0.0502,0.00412,-0.03738
9.152,-0.01343,-0.03738,-0.03326,0.01266,-0.03448,-0.047,-0.01617,-0.00595,0.81314,-0.06638,0.05371,0.00549,-0.03403,-0.03159,0.0061,-0.03128
9.1525,-0.01404,-0.03784,-0.03387,0.01419,-0.03403,-0.04593,-0.01602,-0.00702,0.87173,-0.04898,0.05386,0.00519,-0.03082,-0.01297,0.00473,-0.03128
9.153,-0.0148,-0.03784,-0.03235,0.00427,-0.03372,-0.04562,-0.01404,-0.00717,0.93491,-0.03159,0.05219,0.00443,-0.02747,0.00259,0.00229,-0.03098
9.1535,-0.01556,-0.03677,-0.03098,-0.00916,-0.0325,-0.04562,-0.01266,-0.00656,0.98694,-0.01923,0.04517,0.00381,-0.02518,0.00977,0.00076,-0.02777
