time,RectFemL,VastusMedL,VastusLatL,TibAntL,HamMedL,HamLatL,GastroMedL,GastroLatL,RectFemR,VastusMedR,VastusLatR,TibAntR,HamMedR,HamLatR,GastroMedR,GastroLatR
9.28,0.01755,-0.08728,-0.06851,-0.02335,-0.04333,-0.04517,-0.01709,0.00854,-1.26846,-0.02304,-0.00992,-0.00214,-0.0296,-0.05615,0.08759,-0.04318
9.2805,0.01373,-0.07355,-0.07843,-0.0264,-0.04471,-0.04837,0.01312,0.00565,-1.29761,-0.02289,-0.01846,-0.00198,-0.03723,-0.04654,0.03113,-0.04242
9.281,0.01083,-0.06058,-0.08316,-0.0386,-0.04242,-0.05051,0.02213,0.00519,-1.32385,-0.02701,-0.02762,-0.00168,-0.04196,-0.03662,0.03189,-0.04181
9.2815,0.00565,-0.05188,-0.08423,-0.05875,-0.04013,-0.05219,0.02441,0.0087,-1.35025,-0.03357,-0.03738,-0.00183,-0.0444,-0.02747,0.04669,-0.04013
9.282,-0.00061,-0.04761,-0.08682,-0.07751,-0.03952,-0.05585,0.02625,0.00793,-1.37299,-0.03448,-0.04379,-0.00061,-0.04761,-0.01877,0.04852,-0.03845
9.2825,-0.0061,-0.04654,-0.08835,-0.08408,-0.03922,-0.05829,0.0116,-0.00198,-1.3916,-0.0267,-0.04135,0.00305,-0.05325,-0.01038,0.03479,-0.03586
9.283,-0.0087,-0.04684,-0.08926,-0.06302,-0.03738,-0.05859,-0.0148,-0.01221,-1.4064,-0.01678,-0.03006,0.00671,-0.06088,-0.00809,0.0119,-0.03311
9.2835,-0.0087,-0.04517,-0.08423,-0.00519,-0.0325,-0.05615,-0.01984,-0.01526,-1.41937,-0.00595,-0.01709,0.00854,-0.06592,-0.01022,-0.01846,-0.03189
9.284,-0.00595,-0.04181,-0.07507,0.06317,-0.02655,-0.0528,0.00687,-0.01114,-1.4328,0.00305,-0.00778,0.00931,-0.06729,-0.01343,-0.0531,-0.03113
9.2845,-0.0029,-0.03784,-0.06027,0.09125,-0.02182,-0.04883,0.03265,-0.00748,-1.44455,0.01114,-0.00381,0.01022,-0.06561,-0.01175,-0.07919,-0.03204
9.285,-0.00046,-0.03448,-0.04166,0.05447,-0.01877,-0.04471,0.02869,-0.00656,-1.44638,0.01312,-0.00229,0.01099,-0.06195,-0.00885,-0.09476,-0.03311
9.2855,-0.00092,-0.02762,-0.01801,-0.01282,-0.01877,-0.0415,0.00778,-0.00748,-1.44501,0.00671,0.00244,0.01068,-0.05676,-0.00824,-0.10803,-0.03403
9.286,-0.00198,-0.01892,0.00504,-0.05997,-0.02121,-0.03708,0.00153,-0.00809,-1.44577,-0.00732,0.00961,0.00824,-0.05066,-0.01129,-0.13031,-0.03448
9.2865,-0.0029,-0.01053,0.02335,-0.07126,-0.02258,-0.03159,0.01144,-0.00717,-1.43967,-0.02243,0.01968,0.0058,-0.04608,-0.01495,-0.14999,-0.03479
9.287,-0.00412,-0.0029,0.03448,-0.06363,-0.0235,-0.03021,0.01907,-0.00549,-1.42044,-0.0322,0.02747,-0.00061,-0.04242,-0.01633,-0.13779,-0.03632
9.2875,-0.00504,0.00473,0.03098,-0.04608,-0.02594,-0.03387,0.01312,-0.00381,-1.39801,-0.03418,0.02975,-0.01236,-0.04059,-0.01877,-0.07629,-0.03983
9.288,-0.00778,0.00748,0.01236,-0.00931,-0.02975,-0.04013,0.00061,-0.00351,-1.37268,-0.0296,0.02808,-0.02869,-0.03906,-0.02426,-0.01205,-0.04425
9.2885,-0.01083,0.00397,-0.01526,0.05203,-0.03357,-0.04379,-0.00854,-0.0032,-1.34003,-0.02289,0.02487,-0.04181,-0.03891,-0.03189,-0.01709,-0.04578
9.289,-0.01465,-0.00641,-0.03662,0.11978,-0.03418,-0.04471,-0.01038,-0.00244,-1.3063,-0.01801,0.02213,-0.04654,-0.03677,-0.03799,-0.09918,-0.04639
9.2895,-0.01633,-0.01831,-0.04501,0.15015,-0.03433,-0.04242,-0.0087,0.00198,-1.26816,-0.01465,0.01999,-0.04807,-0.03235,-0.03815,-0.16724,-0.0444
9.29,-0.01495,-0.02792,-0.0444,0.121,-0.03464,-0.03952,-0.00763,0.01022,-1.21552,-0.0119,0.01633,-0.05432,-0.02838,-0.02838,-0.12024,-0.04364
9.2905,-0.0116,-0.0354,-0.04547,0.05844,-0.03387,-0.03815,-0.00793,0.01846,-1.15433,-0.01175,0.01205,-0.06012,-0.02609,-0.0148,0.05157,-0.04425
9.291,-0.0058,-0.04333,-0.05035,0.00931,-0.03235,-0.03967,-0.00549,0.02029,-1.10031,-0.01175,0.00656,-0.04181,-0.02487,-0.00595,0.24216,-0.04425
9.2915,0.00259,-0.04852,-0.05478,-0.0119,-0.03006,-0.04196,0.0,0.01419,-1.0553,-0.01297,0.00015,0.01328,-0.02426,-0.00381,0.31326,-0.0444
9.292,0.01236,-0.0499,-0.05508,-0.02579,-0.02823,-0.04349,-0.00046,0.00748,-1.00754,-0.01389,-0.00748,0.07019,-0.02563,-0.00656,0.22507,-0.04456
9.2925,0.01678,-0.04608,-0.05325,-0.04898,-0.02731,-0.04257,-0.01297,0.00504,-0.95718,-0.01678,-0.01633,0.07339,-0.02762,-0.01038,0.07248,-0.04501
9.293,0.01236,-0.03845,-0.05722,-0.07507,-0.02594,-0.04135,-0.0322,0.00504,-0.90973,-0.02243,-0.02319,0.03159,-0.03067,-0.01373,-0.01999,-0.04532
9.2935,0.00107,-0.03143,-0.07492,-0.0885,-0.02625,-0.04272,-0.04272,0.00595,-0.86334,-0.02838,-0.02701,0.01266,-0.03342,-0.0174,-0.02167,-0.0441
9.294,-0.01053,-0.02823,-0.10315,-0.07874,-0.02853,-0.04456,-0.04349,0.01022,-0.81543,-0.03021,-0.02899,0.03906,-0.03586,-0.02075,0.01816,-0.04257
9.2945,-0.01755,-0.03082,-0.13214,-0.05295,-0.03204,-0.04486,-0.05035,0.01419,-0.76797,-0.02869,-0.02762,0.06424,-0.03632,-0.0238,0.05157,-0.04181
9.295,-0.02014,-0.0386,-0.14923,-0.03113,-0.0351,-0.04532,-0.07126,0.01068,-0.72586,-0.02548,-0.02533,0.0473,-0.03372,-0.02472,0.06393,-0.04227
9.2955,-0.02197,-0.04745,-0.15549,-0.02609,-0.03616,-0.04852,-0.0856,-0.00381,-0.6871,-0.02335,-0.02335,0.0119,-0.02899,-0.02228,0.06088,-0.04333
9.296,-0.0264,-0.0528,-0.1535,-0.02792,-0.0354,-0.05325,-0.06912,-0.01862,-0.64728,-0.02243,-0.0209,-0.00275,-0.02319,-0.01694,0.05417,-0.04395
9.2965,-0.02869,-0.05295,-0.14313,-0.02335,-0.0351,-0.05676,-0.02884,-0.02228,-0.60211,-0.02075,-0.01984,0.00595,-0.01831,-0.01144,0.05005,-0.04364
9.297,-0.02487,-0.05051,-0.11765,-0.01617,-0.03601,-0.05661,-0.00137,-0.01389,-0.55695,-0.01801,-0.01984,0.01602,-0.01648,-0.00793,0.04562,-0.0444
9.2975,-0.01678,-0.04608,-0.0708,-0.01221,-0.03693,-0.0528,-0.00671,-0.00595,-0.52231,-0.01587,-0.02197,0.01953,-0.01846,-0.00778,0.02823,-0.04318
9.298,-0.0116,-0.0412,-0.01373,-0.01282,-0.03891,-0.05173,-0.02762,-0.00504,-0.49469,-0.01602,-0.02823,0.02197,-0.02197,-0.01266,0.00748,-0.04257
9.2985,-0.01068,-0.03845,0.03677,-0.01343,-0.04089,-0.05722,-0.03586,-0.00809,-0.457,-0.01846,-0.0351,0.02396,-0.02792,-0.01907,-0.00473,-0.04028
9.299,-0.01312,-0.04196,0.07095,-0.01312,-0.04318,-0.06577,-0.03464,-0.01221,-0.4068,-0.02197,-0.03708,0.02029,-0.03372,-0.02258,-0.00443,-0.03998
9.2995,-0.01328,-0.05188,0.08926,-0.01373,-0.0441,-0.07309,-0.03677,-0.01602,-0.35583,-0.02487,-0.03281,0.009,-0.03708,-0.02121,-0.00259,-0.04028
9.3,-0.01022,-0.0676,0.09384,-0.01389,-0.04364,-0.07477,-0.04196,-0.01907,-0.30563,-0.02609,-0.02304,-0.00656,-0.03799,-0.01434,-0.00488,-0.04028
9.3005,-0.00381,-0.08987,0.08331,-0.01282,-0.04364,-0.07431,-0.04456,-0.01709,-0.25391,-0.02716,-0.01144,-0.02411,-0.03952,-0.00626,-0.01038,-0.03967
9.301,0.00198,-0.11429,0.05478,-0.01022,-0.04395,-0.07233,-0.04547,-0.01419,-0.20813,-0.02502,0.00031,-0.04395,-0.04364,-0.00015,-0.02106,-0.03998
9.3015,0.00351,-0.13,0.01617,-0.00748,-0.04669,-0.06943,-0.04272,-0.01831,-0.16846,-0.02182,0.00656,-0.0589,-0.04745,-0.00061,-0.03983,-0.03922
9.302,0.00214,-0.12756,-0.01663,-0.00717,-0.04959,-0.06332,-0.02853,-0.03098,-0.12726,-0.02167,0.00809,-0.05539,-0.04791,-0.0058,-0.06638,-0.03845
9.3025,0.0,-0.11551,-0.02823,-0.00839,-0.05096,-0.05646,0.0032,-0.04349,-0.0824,-0.02502,0.00336,-0.03387,-0.04578,-0.01099,-0.08209,-0.03922
9.303,-0.00412,-0.10254,-0.02747,-0.00885,-0.04868,-0.05341,0.03937,-0.04257,-0.03311,-0.03052,-0.00107,-0.01297,-0.04303,-0.01328,-0.07889,-0.04257
9.3035,-0.01007,-0.08759,-0.03082,-0.00656,-0.04517,-0.0528,0.04578,-0.02701,0.01511,-0.03387,-0.00336,-0.00519,-0.04089,-0.0119,-0.06592,-0.0444
9.304,-0.01724,-0.06577,-0.03662,-0.00519,-0.04272,-0.05325,0.01495,-0.00549,0.04959,-0.03616,-0.00626,-0.00244,-0.03952,-0.01236,-0.05157,-0.0441
9.3045,-0.02243,-0.04166,-0.03265,-0.00519,-0.04059,-0.05264,-0.0116,0.01099,0.06485,-0.03998,-0.00809,0.01022,-0.03876,-0.01389,-0.03204,-0.04288
9.305,-0.02396,-0.0235,-0.02106,-0.00656,-0.03647,-0.05051,0.00427,0.01511,0.07599,-0.04562,-0.01022,0.02777,-0.03937,-0.01511,0.00641,-0.0412
9.3055,-0.02151,-0.01343,-0.01129,-0.00793,-0.03311,-0.04883,0.04471,0.00687,0.09995,-0.04868,-0.00946,0.03693,-0.03967,-0.01678,0.05264,-0.0415
9.306,-0.01648,-0.01144,-0.01404,-0.00916,-0.02838,-0.04837,0.0679,-0.00824,0.13443,-0.04593,-0.00916,0.02884,-0.03983,-0.01892,0.07324,-0.04181
9.3065,-0.0116,-0.01129,-0.02106,-0.01114,-0.02274,-0.047,0.06042,-0.02625,0.16281,-0.03983,-0.01266,0.00854,-0.04105,-0.02014,0.04608,-0.04272
9.307,-0.00671,-0.00732,-0.02487,-0.01114,-0.01724,-0.04272,0.03204,-0.04837,0.17151,-0.03052,-0.0209,-0.00885,-0.04196,-0.01633,0.00076,-0.04227
9.3075,-0.00214,0.00336,-0.02823,-0.01068,-0.0148,-0.03906,-0.00107,-0.07172,0.15945,-0.02243,-0.03036,-0.00244,-0.04074,-0.00626,-0.01999,-0.04089
9.308,0.0,0.01404,-0.03555,-0.00946,-0.01709,-0.03784,-0.02213,-0.08911,0.13901,-0.01617,-0.03555,0.03418,-0.03738,0.00488,-0.00885,-0.03906
9.3085,-0.00168,0.01541,-0.04547,-0.0087,-0.02274,-0.04013,-0.02533,-0.08835,0.121,-0.00946,-0.03494,0.07095,-0.03479,0.00992,0.00381,-0.03799
9.309,-0.00381,0.00854,-0.05417,-0.0087,-0.02594,-0.04517,-0.0264,-0.06012,0.10956,-0.00183,-0.03281,0.06912,-0.03296,0.00824,0.00351,-0.03967
9.3095,-0.00412,-0.00046,-0.06104,-0.00916,-0.02548,-0.04807,-0.03616,0.0,0.10132,0.00305,-0.03067,0.02838,-0.0322,0.00336,-0.0032,-0.04059
9.31,-0.00229,-0.00793,-0.06195,-0.00916,-0.02426,-0.04868,-0.03983,0.07416,0.08881,0.00534,-0.02808,-0.01221,-0.03036,-0.00046,-0.00687,-0.0412
9.3105,-0.00107,-0.01007,-0.06073,-0.00961,-0.02472,-0.04883,-0.01877,0.1091,0.06134,0.00427,-0.02289,-0.0267,-0.02716,-0.00427,-0.00458,-0.04105
9.311,-0.0032,-0.01114,-0.05524,-0.00946,-0.02686,-0.04791,0.01038,0.04364,0.01556,0.00305,-0.01953,-0.03952,-0.0238,-0.00748,-0.00183,-0.04044
9.3115,-0.00504,-0.01923,-0.04791,-0.00946,-0.03082,-0.04639,0.00946,-0.11475,-0.02701,0.0029,-0.01663,-0.0766,-0.02106,-0.0119,-0.00137,-0.04028
9.312,-0.00473,-0.03891,-0.04608,-0.01038,-0.03464,-0.04578,-0.02686,-0.25604,-0.03845,0.00427,-0.01266,-0.11154,-0.01709,-0.01862,-0.0058,-0.0412
9.3125,-0.00336,-0.06317,-0.0499,-0.01114,-0.03525,-0.04639,-0.05615,-0.25375,-0.02289,0.00595,-0.00626,-0.09598,-0.01328,-0.02991,-0.01343,-0.04227
9.313,-0.00122,-0.07767,-0.05508,-0.01022,-0.03555,-0.04669,-0.03784,-0.07523,-0.00275,0.01007,-0.00015,-0.03677,-0.01099,-0.04852,-0.01785,-0.04395
9.3135,0.00015,-0.07492,-0.05753,-0.00748,-0.03448,-0.04684,0.00992,0.1767,0.0238,0.01236,0.00153,0.00793,-0.0119,-0.06943,-0.01648,-0.04547
9.314,0.00153,-0.0618,-0.05722,-0.00351,-0.03403,-0.04684,0.03601,0.33798,0.06378,0.01175,-0.00076,0.0029,-0.01572,-0.08652,-0.01221,-0.04623
9.3145,0.00214,-0.04761,-0.05539,0.0,-0.0322,-0.047,0.02472,0.31723,0.09964,0.00793,-0.00061,-0.02899,-0.02274,-0.09125,-0.0119,-0.04669
9.315,0.00229,-0.03693,-0.05341,-0.00076,-0.03082,-0.04532,0.00183,0.17349,0.10941,0.0,0.01678,-0.04486,-0.02899,-0.08102,-0.01587,-0.04517
9.3155,0.00381,-0.02823,-0.05142,-0.00473,-0.02823,-0.0412,-0.00793,0.04364,0.09399,-0.01099,0.05707,-0.0235,-0.03326,-0.06119,-0.02014,-0.04379
9.316,0.00458,-0.02274,-0.05051,-0.00854,-0.02792,-0.03815,-0.00702,0.00305,0.07156,-0.02167,0.09506,0.02121,-0.0351,-0.04028,-0.02167,-0.04272
9.3165,0.00549,-0.02151,-0.04761,-0.00977,-0.02838,-0.03876,-0.00793,0.01724,0.06226,-0.0322,0.09018,0.05051,-0.03387,-0.0238,-0.01373,-0.04242
9.317,0.00519,-0.02274,-0.04639,-0.01007,-0.03067,-0.04257,-0.01038,0.02182,0.06958,-0.04181,0.03784,0.03571,-0.03113,-0.01358,-0.0029,-0.04395
9.3175,0.00443,-0.02441,-0.04807,-0.01129,-0.03128,-0.04608,-0.00732,-0.00488,0.07416,-0.04852,-0.02396,-0.00305,-0.02869,-0.00671,0.00275,-0.04547
9.318,0.00137,-0.02594,-0.05264,-0.01205,-0.03174,-0.04761,0.00137,-0.04013,0.06073,-0.05096,-0.06317,-0.02411,-0.02838,-0.00046,-0.00275,-0.047
9.3185,-0.00275,-0.02701,-0.05722,-0.01007,-0.03006,-0.04761,0.00778,-0.05173,0.03525,-0.04913,-0.07858,-0.01053,-0.02991,0.00946,-0.01221,-0.04684
9.319,-0.00671,-0.02609,-0.0589,-0.00626,-0.02869,-0.04501,0.00046,-0.0293,0.00702,-0.04272,-0.08255,0.0206,-0.03159,0.01968,-0.0177,-0.04578
9.3195,-0.00549,-0.02426,-0.05722,-0.00427,-0.02747,-0.04242,-0.02762,0.01419,-0.02167,-0.0351,-0.08224,0.04608,-0.03204,0.02487,-0.01801,-0.04456
9.32,-0.00137,-0.02182,-0.0528,-0.00549,-0.02686,-0.04181,-0.06653,0.05539,-0.05081,-0.02762,-0.08575,0.0528,-0.03265,0.01892,-0.01617,-0.04364
9.3205,0.00107,-0.02411,-0.04562,-0.00763,-0.02655,-0.04166,-0.09842,0.07568,-0.07553,-0.02365,-0.10315,0.0351,-0.03448,0.00351,-0.01251,-0.04272
9.321,-0.00092,-0.03174,-0.03922,-0.00793,-0.02594,-0.0412,-0.10681,0.06454,-0.09247,-0.02426,-0.12527,0.00412,-0.03662,-0.01511,-0.00748,-0.04242
9.3215,-0.00519,-0.04395,-0.04608,-0.00748,-0.02518,-0.03983,-0.09552,0.02609,-0.10101,-0.02747,-0.12512,-0.01144,-0.03876,-0.03052,-0.00519,-0.04303
9.322,-0.00793,-0.05554,-0.06622,-0.00702,-0.02457,-0.03906,-0.07324,-0.01572,-0.103,-0.03067,-0.08972,0.00031,-0.0412,-0.04364,0.00046,-0.04318
9.3225,-0.00809,-0.05981,-0.09583,-0.00641,-0.02472,-0.04044,-0.04578,-0.03784,-0.10239,-0.03006,-0.03571,0.01785,-0.04456,-0.05417,0.01678,-0.04242
9.323,-0.00809,-0.05493,-0.1265,-0.00549,-0.02457,-0.0412,-0.01099,-0.03647,-0.10925,-0.02701,0.01007,0.01389,-0.04837,-0.06409,0.04089,-0.0412
9.3235,-0.01007,-0.04639,-0.14877,-0.00519,-0.02594,-0.04135,0.03082,-0.03006,-0.12863,-0.02197,0.03403,-0.00519,-0.04944,-0.07095,0.0589,-0.04044
9.324,-0.01236,-0.03922,-0.15045,-0.00641,-0.02594,-0.04013,0.06577,-0.03265,-0.15396,-0.01907,0.03998,-0.01389,-0.0473,-0.07172,0.05646,-0.04028
9.3245,-0.01282,-0.03708,-0.12787,-0.00702,-0.02686,-0.0415,0.06638,-0.0386,-0.17883,-0.01434,0.04181,-0.00061,-0.04257,-0.06973,0.03708,-0.04181
9.325,-0.01205,-0.03815,-0.08621,-0.00641,-0.0264,-0.04471,0.01663,-0.03891,-0.19745,-0.00687,0.04364,0.02151,-0.03693,-0.06821,0.01862,-0.04303
9.3255,-0.01007,-0.03922,-0.03448,-0.00717,-0.02884,-0.04852,-0.05524,-0.03464,-0.20905,0.00076,0.04623,0.03342,-0.0322,-0.06699,0.01297,-0.04333
9.326,-0.00671,-0.03708,0.02319,-0.01099,-0.0322,-0.05112,-0.10101,-0.03311,-0.22446,0.00549,0.04669,0.02777,-0.0296,-0.06195,0.01694,-0.04257
9.3265,-0.00305,-0.03067,0.08606,-0.01434,-0.03448,-0.05249,-0.11154,-0.04013,-0.24948,0.00626,0.04303,0.0119,-0.02899,-0.05203,0.01968,-0.04211
9.327,-0.00107,-0.02228,0.14267,-0.01495,-0.03448,-0.05295,-0.11276,-0.06256,-0.26031,0.00046,0.03098,0.00244,-0.0293,-0.03662,0.01953,-0.04089
9.3275,-0.00168,-0.01526,0.17166,-0.01266,-0.03479,-0.05295,-0.10895,-0.09949,-0.24231,-0.0119,0.01053,0.01358,-0.02838,-0.02243,0.01877,-0.03983
9.328,-0.0029,-0.01038,0.15793,-0.01053,-0.03784,-0.05356,-0.07523,-0.12741,-0.21759,-0.02686,-0.01205,0.03677,-0.02594,-0.01373,0.02014,-0.03952
9.3285,-0.00488,-0.00854,0.1123,-0.01053,-0.04166,-0.0531,-0.01297,-0.10666,-0.21057,-0.03769,-0.02716,0.04883,-0.02426,-0.0116,0.02121,-0.03998
9.329,-0.0058,-0.01297,0.06012,-0.01083,-0.04303,-0.05386,0.0386,-0.02563,-0.22858,-0.04471,-0.02869,0.0412,-0.02243,-0.01022,0.01907,-0.04074
9.3295,-0.00565,-0.02213,0.02121,-0.00839,-0.04471,-0.05325,0.05417,0.06729,-0.25894,-0.04745,-0.02045,0.02701,-0.01923,-0.00748,0.01648,-0.04044
9.33,-0.00229,-0.03159,0.00153,-0.00519,-0.04593,-0.05386,0.04623,0.1033,-0.27039,-0.0444,-0.0177,0.01678,-0.01602,-0.00244,0.01282,-0.04028
9.3305,0.00092,-0.0351,-0.00458,-0.00473,-0.047,-0.0531,0.04135,0.06439,-0.25085,-0.03418,-0.03342,0.009,-0.01526,0.00504,0.01266,-0.03983
9.331,0.00137,-0.03174,-0.00275,-0.00656,-0.04745,-0.05173,0.04929,0.00656,-0.23605,-0.01862,-0.0679,0.00427,-0.01511,0.01511,0.01389,-0.04044
9.3315,-0.0029,-0.03006,0.00046,-0.00763,-0.04654,-0.05173,0.06393,-0.01328,-0.25803,-0.00412,-0.09995,0.00473,-0.01389,0.02518,0.01511,-0.0412
9.332,-0.00656,-0.04089,-0.00198,-0.00656,-0.0441,-0.05325,0.07141,0.00092,-0.30899,0.00885,-0.10162,0.00259,-0.01205,0.03174,0.01633,-0.03967
9.3325,-0.00793,-0.0647,-0.01007,-0.00519,-0.04333,-0.05447,0.05798,0.01251,-0.38177,0.02167,-0.0705,-0.01129,-0.01007,0.03143,0.01572,-0.03662
9.333,-0.00778,-0.09018,-0.02029,-0.00458,-0.04288,-0.05341,0.02182,0.00854,-0.51147,0.02975,-0.03006,-0.03662,-0.00717,0.02762,0.01343,-0.0325
9.3335,-0.00854,-0.10208,-0.0296,-0.00504,-0.04166,-0.05127,-0.0119,0.00244,-0.73914,0.02823,0.00183,-0.06195,-0.00504,0.0238,0.01053,-0.03067
9.334,-0.0087,-0.09766,-0.03586,-0.00641,-0.03983,-0.04654,-0.02121,0.00427,-1.04691,0.01495,0.02197,-0.07477,-0.00366,0.02106,0.00793,-0.0325
9.3345,-0.0058,-0.0853,-0.03998,-0.00793,-0.03784,-0.04318,-0.00946,0.00931,-1.37512,-0.00595,0.03799,-0.06699,-0.00443,0.0174,0.00092,-0.0354
9.335,0.00031,-0.07141,-0.04532,-0.00885,-0.03647,-0.04227,0.00183,0.01328,-1.68762,-0.02838,0.05188,-0.04318,-0.00534,0.01251,-0.01083,-0.0386
9.3355,0.00885,-0.06119,-0.05356,-0.00931,-0.0351,-0.04349,0.0,0.01022,-2.02499,-0.05402,0.05783,-0.02274,-0.00549,0.00687,-0.02716,-0.03967
9.336,0.0174,-0.05798,-0.065,-0.00977,-0.03281,-0.04654,-0.01022,-0.00443,-2.47589,-0.08179,0.05127,-0.02121,-0.00504,0.00275,-0.03677,-0.04013
9.3365,0.02167,-0.06424,-0.07675,-0.01083,-0.02991,-0.04837,-0.02106,-0.02914,-3.07861,-0.10101,0.0351,-0.03372,-0.00641,-0.00061,-0.03571,-0.03891
9.337,0.01999,-0.07202,-0.08484,-0.01221,-0.02579,-0.04837,-0.02792,-0.05447,-3.7439,-0.10315,0.01556,-0.04379,-0.0116,-0.00412,-0.02396,-0.03738
9.3375,0.01389,-0.07141,-0.09155,-0.01358,-0.02228,-0.04669,-0.02884,-0.0737,-4.31107,-0.0914,0.00107,-0.0502,-0.01877,-0.009,-0.00931,-0.03647
9.338,0.0061,-0.05951,-0.1033,-0.01541,-0.01846,-0.0444,-0.02182,-0.08194,-4.64813,-0.07904,-0.0029,-0.05524,-0.02731,-0.01526,0.0032,-0.0354
9.3385,-0.00137,-0.04562,-0.12497,-0.0174,-0.01648,-0.04303,-0.01266,-0.06744,-4.73099,-0.07172,-0.0087,-0.04501,-0.03555,-0.02182,0.01755,-0.0354
9.339,-0.00854,-0.03708,-0.1535,-0.01999,-0.01587,-0.0441,-0.01129,-0.02228,-4.66415,-0.06927,-0.03799,-0.0145,-0.04333,-0.02777,0.03952,-0.0351
9.3395,-0.01328,-0.03113,-0.18051,-0.02182,-0.01587,-0.0444,-0.02014,0.03632,-4.59442,-0.06561,-0.09033,0.02121,-0.04852,-0.03052,0.06699,-0.03494
9.34,-0.01419,-0.02167,-0.20477,-0.02121,-0.01541,-0.04364,-0.03021,0.07126,-4.57352,-0.05569,-0.13504,0.03922,-0.04929,-0.02792,0.08011,-0.03387
9.3405,-0.01312,-0.00992,-0.2124,-0.01801,-0.01709,-0.04196,-0.03204,0.06119,-4.55933,-0.03799,-0.14099,0.03983,-0.04776,-0.02243,0.06271,-0.0351
9.341,-0.01129,-0.00397,-0.19913,-0.01358,-0.02029,-0.03998,-0.02853,0.0235,-4.52225,-0.01801,-0.09995,0.03296,-0.04608,-0.01663,0.02686,-0.03708
9.3415,-0.01068,-0.01633,-0.15961,-0.01007,-0.02228,-0.03906,-0.02518,-0.009,-4.48105,-0.00244,-0.02777,0.02151,-0.04333,-0.01495,0.00122,-0.03845
9.342,-0.01068,-0.04532,-0.09491,-0.00977,-0.02365,-0.0412,-0.0238,-0.0209,-4.45206,0.00748,0.04013,0.0061,-0.03952,-0.01541,0.00229,-0.03738
9.3425,-0.00946,-0.07309,-0.01144,-0.01251,-0.02594,-0.0441,-0.02655,-0.01678,-4.42566,0.01846,0.0769,-0.00946,-0.03647,-0.01678,0.01099,-0.03479
9.343,-0.00717,-0.08148,0.07492,-0.01541,-0.0293,-0.04379,-0.03128,-0.00717,-4.39392,0.03052,0.07874,-0.02487,-0.0351,-0.01801,0.01266,-0.03281
9.3435,-0.00351,-0.06927,0.14526,-0.01648,-0.03052,-0.04074,-0.03784,0.00214,-4.36066,0.03693,0.05585,-0.03906,-0.03372,-0.01862,0.00626,-0.03265
9.344,0.00168,-0.0528,0.18784,-0.01602,-0.02853,-0.0386,-0.03937,0.00748,-4.33105,0.03601,0.02029,-0.04852,-0.03433,-0.0206,0.00122,-0.0325
9.3445,0.01053,-0.04166,0.19958,-0.0148,-0.02686,-0.03738,-0.02457,0.00916,-4.30206,0.0322,-0.0177,-0.04822,-0.03754,-0.02151,0.00107,-0.03143
9.345,0.02197,-0.03784,0.18204,-0.01312,-0.02609,-0.03906,0.00824,0.00931,-4.26682,0.02838,-0.04074,-0.03937,-0.04288,-0.02228,0.00534,-0.03006
9.3455,0.03021,-0.03693,0.14557,-0.01236,-0.02686,-0.04135,0.03143,0.01251,-4.18381,0.01999,-0.04257,-0.02731,-0.04776,-0.0238,0.01068,-0.02975
9.346,0.02991,-0.0351,0.10132,-0.01175,-0.02808,-0.04257,0.01556,0.01648,-3.96973,0.00641,-0.03281,-0.01617,-0.05112,-0.02533,0.01312,-0.03036
9.3465,0.02274,-0.03021,0.06042,-0.01144,-0.02914,-0.04349,-0.03098,0.01617,-3.59924,-0.0058,-0.02151,-0.0058,-0.05371,-0.0293,0.01099,-0.03281
9.347,0.01511,-0.01938,0.02243,-0.01205,-0.0293,-0.04425,-0.06531,0.0058,-3.16315,-0.01114,-0.01236,0.00946,-0.05753,-0.03357,0.00687,-0.03403
9.3475,0.00961,-0.00488,-0.00626,-0.01358,-0.02777,-0.04517,-0.06714,-0.00961,-2.75482,-0.01038,-0.00504,0.03021,-0.06195,-0.03769,0.00473,-0.03647
9.348,0.00397,0.00397,-0.02136,-0.0145,-0.02533,-0.04608,-0.0499,-0.02121,-2.38937,-0.00961,-0.00046,0.04303,-0.0647,-0.03784,0.00168,-0.03876
9.3485,-0.00076,0.00168,-0.02319,-0.0145,-0.02426,-0.04654,-0.03387,-0.02228,-2.0549,-0.0087,-0.00076,0.0383,-0.06439,-0.03448,-0.00031,-0.04089
9.349,-0.00381,-0.00839,-0.02258,-0.01343,-0.02579,-0.0473,-0.02151,-0.01801,-1.77521,-0.00641,-0.00214,0.02151,-0.0618,-0.03006,0.00107,-0.04028
9.3495,-0.00595,-0.01724,-0.02747,-0.01297,-0.02792,-0.04883,-0.00534,-0.01404,-1.56174,-0.00641,0.00061,0.00732,-0.05783,-0.02838,0.00504,-0.03922
9.35,-0.00793,-0.01999,-0.03662,-0.0119,-0.02777,-0.05157,0.01221,-0.0087,-1.36688,-0.01297,0.01053,0.00259,-0.0531,-0.02808,0.00732,-0.03952
9.3505,-0.01221,-0.02121,-0.04608,-0.01099,-0.02563,-0.05249,0.01678,0.00076,-1.12473,-0.02228,0.02213,0.00153,-0.04883,-0.02487,0.00549,-0.04074
9.351,-0.01678,-0.02548,-0.05234,-0.01022,-0.02243,-0.05295,0.00473,0.00977,-0.83008,-0.02792,0.02869,-0.00046,-0.04639,-0.01968,0.00198,-0.0412
9.3515,-0.02029,-0.03357,-0.05615,-0.01053,-0.02121,-0.0528,-0.01266,0.01434,-0.54001,-0.0296,0.0267,-0.00122,-0.04623,-0.01587,0.00092,-0.04013
9.352,-0.02106,-0.04181,-0.06241,-0.01251,-0.02243,-0.05249,-0.02045,0.01556,-0.28351,-0.02701,0.0209,0.00488,-0.04684,-0.01694,-0.00046,-0.04013
9.3525,-0.01938,-0.04913,-0.06897,-0.01297,-0.02335,-0.05219,-0.01648,0.01709,-0.01144,-0.02243,0.01602,0.02289,-0.04486,-0.02029,0.00122,-0.04044
9.353,-0.01755,-0.05936,-0.07523,-0.01343,-0.0238,-0.05234,-0.00854,0.0177,0.32166,-0.01251,0.01389,0.04623,-0.04135,-0.02274,0.0,-0.0412
9.3535,-0.01938,-0.0705,-0.07935,-0.01404,-0.02441,-0.05234,-0.00427,0.01129,0.69809,-0.00015,0.0058,0.05997,-0.04059,-0.02304,-0.00122,-0.03967
9.354,-0.02106,-0.07675,-0.07614,-0.01495,-0.0267,-0.05219,-0.00626,-0.00259,1.09161,0.009,-0.01572,0.056,-0.04425,-0.02151,-0.00122,-0.03891
9.3545,-0.0206,-0.07355,-0.07019,-0.01495,-0.03128,-0.05188,-0.01205,-0.01556,1.51184,0.00992,-0.05081,0.03983,-0.05051,-0.02014,-0.00137,-0.03952
9.355,-0.01816,-0.06561,-0.06424,-0.01541,-0.03433,-0.05249,-0.01617,-0.02243,1.9632,0.00275,-0.08896,0.02197,-0.05402,-0.01923,-0.0029,-0.04074
9.3555,-0.01617,-0.05707,-0.06287,-0.01648,-0.0351,-0.05386,-0.01755,-0.02136,2.42203,-0.00549,-0.1123,0.00717,-0.05447,-0.01846,-0.00336,-0.04181
9.356,-0.01541,-0.0499,-0.06378,-0.01816,-0.03601,-0.05539,-0.01724,-0.01877,2.85049,-0.01175,-0.10818,-0.00397,-0.0528,-0.01755,-0.00015,-0.04303
9.3565,-0.01495,-0.04395,-0.06073,-0.02014,-0.03677,-0.056,-0.0174,-0.01801,3.22861,-0.01846,-0.08026,-0.00916,-0.05066,-0.01846,0.00031,-0.04486
9.357,-0.01465,-0.04059,-0.05402,-0.02106,-0.03784,-0.05371,-0.0177,-0.01907,3.57834,-0.02625,-0.04486,-0.00778,-0.04852,-0.01984,0.00046,-0.04654
9.3575,-0.01648,-0.03784,-0.04242,-0.01862,-0.03769,-0.04684,-0.01678,-0.01862,3.92944,-0.02991,-0.0209,-0.00198,-0.04517,-0.01968,0.00031,-0.04822
9.358,-0.01923,-0.03098,-0.03311,-0.01297,-0.0351,-0.03693,-0.01373,-0.01404,4.26544,-0.02533,-0.0087,0.0,-0.04211,-0.0174,-0.00031,-0.05051
9.3585,-0.02106,-0.02228,-0.03403,-0.00824,-0.03448,-0.03128,-0.01007,-0.0061,4.55353,-0.01404,-0.00015,-0.00473,-0.03876,-0.01419,-0.00198,-0.05081
9.359,-0.02213,-0.01785,-0.03738,-0.00565,-0.03387,-0.03311,-0.00977,0.00137,4.78638,-0.00549,0.00946,-0.01144,-0.03525,-0.01144,-0.00534,-0.05066
9.3595,-0.02243,-0.02182,-0.04303,-0.00397,-0.03326,-0.03937,-0.01236,0.00488,4.94354,-0.00458,0.01404,-0.01129,-0.03159,-0.01129,-0.00351,-0.0502
9.36,-0.02213,-0.02945,-0.04776,-0.00275,-0.0322,-0.04623,-0.01495,0.00717,4.99649,-0.00854,0.00732,-0.00519,-0.0296,-0.01205,0.00076,-0.05081
9.3605,-0.01953,-0.03403,-0.04608,-0.00244,-0.03265,-0.04913,-0.01404,0.00641,4.97757,-0.01343,-0.00717,0.00229,-0.03067,-0.01358,0.00427,-0.05142
9.361,-0.01404,-0.03571,-0.04639,-0.0029,-0.03387,-0.04974,-0.01007,0.00458,4.9585,-0.01572,-0.01694,0.00809,-0.03235,-0.01419,0.00748,-0.05249
9.3615,-0.00778,-0.03922,-0.04745,-0.00366,-0.03525,-0.04837,-0.00793,0.00214,4.96552,-0.01968,-0.01877,0.01144,-0.03235,-0.01175,0.00565,-0.05295
9.362,-0.00412,-0.04807,-0.04883,-0.00565,-0.03372,-0.04654,-0.00977,-0.00031,4.97574,-0.02289,-0.01465,0.01373,-0.03174,-0.00824,0.0087,-0.05188
9.3625,-0.00504,-0.05966,-0.05295,-0.00885,-0.03143,-0.04517,-0.01205,-0.00076,4.97314,-0.02579,-0.00885,0.01846,-0.03052,-0.00336,0.01434,-0.05051
9.363,-0.00809,-0.06775,-0.05478,-0.01083,-0.03082,-0.04547,-0.01282,-0.00061,4.96735,-0.02701,0.00046,0.02106,-0.02884,-0.00122,0.01816,-0.05051
9.3635,-0.00977,-0.06989,-0.056,-0.01022,-0.03006,-0.04715,-0.01221,-0.00046,4.96902,-0.02579,0.01038,0.0177,-0.02747,-0.00153,0.02243,-0.05112
9.364,-0.00977,-0.06577,-0.05463,-0.00809,-0.02716,-0.04639,-0.01282,-0.00046,4.97177,-0.02426,0.01129,0.01053,-0.02716,-0.00427,0.02075,-0.05295
9.3645,-0.00885,-0.0589,-0.05325,-0.00626,-0.02197,-0.04501,-0.01526,0.00076,4.9707,-0.02274,0.00031,0.01297,-0.02686,-0.00809,0.01953,-0.05478
9.365,-0.00977,-0.05219,-0.05127,-0.00534,-0.01755,-0.04379,-0.0174,0.00412,4.96964,-0.02304,-0.0061,0.03159,-0.02686,-0.01144,0.01984,-0.05493
9.3655,-0.01297,-0.0473,-0.04837,-0.00443,-0.01266,-0.0444,-0.01785,0.00549,4.96948,-0.02472,0.01785,0.04868,-0.02487,-0.01312,0.01373,-0.056
9.366,-0.01617,-0.04242,-0.04807,-0.00473,-0.00717,-0.04532,-0.01724,0.0032,4.97025,-0.02609,0.07065,0.04349,-0.02243,-0.01297,0.00748,-0.05676
9.3665,-0.01709,-0.03662,-0.04669,-0.00687,-0.0032,-0.04517,-0.01556,-0.00015,4.97009,-0.02533,0.10895,0.01587,-0.01785,-0.01266,-0.00031,-0.05905
9.367,-0.01511,-0.03342,-0.04669,-0.00854,-0.00412,-0.04593,-0.0148,-0.00214,4.96933,-0.02274,0.09476,-0.01266,-0.01328,-0.01404,-0.0119,-0.0621
9.3675,-0.0116,-0.03555,-0.04547,-0.00854,-0.00839,-0.04761,-0.01419,-0.00214,4.96201,-0.01999,0.04242,-0.02487,-0.00916,-0.01526,-0.03098,-0.06393
9.368,-0.01038,-0.04288,-0.04456,-0.00824,-0.01389,-0.04929,-0.01511,-0.00031,4.91425,-0.02029,-0.0029,-0.02548,-0.00732,-0.0177,-0.05035,-0.06546
9.3685,-0.01083,-0.05051,-0.0383,-0.00977,-0.01846,-0.05341,-0.0148,0.0032,4.78622,-0.02274,-0.01999,-0.02747,-0.00549,-0.02182,-0.05783,-0.06577
9.369,-0.01251,-0.05447,-0.03937,-0.01022,-0.02289,-0.05722,-0.01328,0.00626,4.59869,-0.02655,-0.02472,-0.03632,-0.00305,-0.02609,-0.04822,-0.06317
9.3695,-0.01312,-0.0528,-0.03967,-0.00839,-0.02884,-0.05829,-0.01129,0.00443,4.41345,-0.02808,-0.0325,-0.04562,-0.00244,-0.03052,-0.02975,-0.05783
9.37,-0.01205,-0.05051,-0.03967,-0.00458,-0.0351,-0.06027,-0.01022,0.0,4.25674,-0.02975,-0.04379,-0.04044,-0.00244,-0.03342,-0.01877,-0.0528
9.3705,-0.00992,-0.05127,-0.03891,-0.00214,-0.04105,-0.06165,-0.01053,-0.00229,4.11316,-0.03021,-0.05295,-0.00656,-0.00198,-0.03311,-0.01831,-0.05219
9.371,-0.00854,-0.05554,-0.03693,-0.00305,-0.04715,-0.06256,-0.01099,-0.00244,3.96698,-0.0325,-0.05676,0.03784,-0.00305,-0.02975,-0.00519,-0.05447
9.3715,-0.00809,-0.06287,-0.03525,-0.00473,-0.05463,-0.06119,-0.01282,-0.00275,3.81302,-0.03296,-0.06119,0.04227,-0.00504,-0.02548,0.04089,-0.05692
9.372,-0.00732,-0.06973,-0.03693,-0.00671,-0.0621,-0.05905,-0.01205,-0.00259,3.647,-0.03387,-0.08591,-0.01297,-0.01038,-0.02533,0.08804,-0.05692
9.3725,-0.00397,-0.07095,-0.03922,-0.00687,-0.06821,-0.05753,-0.01083,-0.0029,3.47183,-0.03143,-0.14542,-0.065,-0.01617,-0.02808,0.10712,-0.05417
9.373,0.00061,-0.06622,-0.03784,-0.00687,-0.07401,-0.05707,-0.00961,-0.00107,3.29559,-0.02701,-0.21133,-0.04944,-0.01877,-0.03052,0.10056,-0.05402
9.3735,0.00397,-0.05981,-0.03433,-0.0087,-0.0798,-0.05829,-0.01053,-0.00153,3.11874,-0.02029,-0.22217,0.01205,-0.01892,-0.03021,0.10345,-0.05829
9.374,0.00458,-0.05707,-0.03601,-0.0087,-0.08377,-0.05814,-0.01266,-0.00565,2.93945,-0.01587,-0.15457,0.05219,-0.02151,-0.02594,0.1152,-0.06363
9.3745,0.00488,-0.05814,-0.03403,-0.00854,-0.08377,-0.05386,-0.01358,-0.00946,2.76062,-0.01785,-0.06607,0.06439,-0.02609,-0.02014,0.1181,-0.06668
9.375,0.00595,-0.05875,-0.03265,-0.00824,-0.07889,-0.05066,-0.01434,-0.01022,2.58606,-0.02289,-0.03464,0.08698,-0.02975,-0.0174,0.09796,-0.06409
9.3755,0.00671,-0.056,-0.03098,-0.00854,-0.07278,-0.0473,-0.01251,-0.0087,2.41821,-0.03021,-0.06897,0.11795,-0.03189,-0.01831,0.06973,-0.06088
9.376,0.00687,-0.04898,-0.03036,-0.01022,-0.06592,-0.04578,-0.00977,-0.00626,2.25204,-0.03647,-0.10315,0.11917,-0.03265,-0.02151,0.04791,-0.05936
9.3765,0.00229,-0.04303,-0.0264,-0.01022,-0.05859,-0.04333,-0.0087,-0.00488,2.08298,-0.04181,-0.07767,0.08987,-0.03281,-0.02243,0.04242,-0.05875
9.377,-0.00259,-0.03937,-0.0235,-0.00946,-0.05188,-0.04013,-0.00961,-0.00473,1.90689,-0.04364,-0.00748,0.05875,-0.03128,-0.02106,0.03616,-0.05905
9.3775,-0.00259,-0.03708,-0.02182,-0.00931,-0.04425,-0.0383,-0.0119,-0.00397,1.72516,-0.04349,0.05569,0.0325,-0.02594,-0.01816,0.0293,-0.06165
9.378,0.00305,-0.03494,-0.02731,-0.01007,-0.03754,-0.03952,-0.01465,-0.00336,1.54083,-0.04684,0.08698,-0.00717,-0.01816,-0.01465,0.02228,-0.06424
9.3785,0.00839,-0.03342,-0.02975,-0.0116,-0.03311,-0.03967,-0.01709,-0.00275,1.34995,-0.05981,0.10361,-0.0592,-0.01465,-0.01022,0.01846,-0.06317
9.379,0.01236,-0.03281,-0.03265,-0.01266,-0.03021,-0.03876,-0.0209,-0.00259,1.15845,-0.07751,0.12726,-0.09445,-0.0174,-0.00702,0.01602,-0.05844
9.3795,0.01556,-0.0322,-0.03052,-0.01129,-0.02777,-0.03723,-0.02686,-0.00427,0.98587,-0.08865,0.16449,-0.09232,-0.02243,-0.00443,0.01328,-0.05386
9.38,0.01846,-0.03082,-0.02853,-0.00916,-0.02518,-0.03723,-0.03265,-0.00534,0.83572,-0.08286,0.19821,-0.0621,-0.02563,-0.00198,0.01236,-0.05249
9.3805,0.01801,-0.03143,-0.02869,-0.00702,-0.02258,-0.03891,-0.03296,-0.00565,0.68817,-0.06546,0.20645,-0.02747,-0.02777,0.00015,0.01007,-0.04898
9.381,0.01404,-0.03281,-0.03082,-0.0058,-0.02289,-0.04074,-0.02686,-0.0058,0.53741,-0.04501,0.18066,-0.00671,-0.03082,0.00076,0.0087,-0.04532
9.3815,0.01114,-0.03159,-0.03067,-0.00397,-0.0238,-0.04333,-0.01785,-0.0058,0.38666,-0.0325,0.13626,-0.00381,-0.03815,-0.00061,0.00717,-0.04364
9.382,0.01022,-0.02899,-0.03174,-0.00153,-0.02472,-0.04562,-0.00687,-0.0058,0.23636,-0.02975,0.09537,-0.01236,-0.04684,-0.00214,0.00198,-0.04517
9.3825,0.0119,-0.02914,-0.02914,0.0,-0.02518,-0.0473,0.00443,-0.00717,0.10635,-0.03479,0.06409,-0.01556,-0.05264,-0.00305,0.00015,-0.04639
9.383,0.01328,-0.0325,-0.02991,0.00122,-0.02274,-0.04593,0.00885,-0.00717,0.02533,-0.03738,0.03357,-0.01373,-0.05371,-0.00443,-0.00198,-0.04623
9.3835,0.01343,-0.03418,-0.0325,0.00031,-0.01953,-0.0444,0.00183,-0.00473,-0.00443,-0.02899,-0.00336,-0.02579,-0.05249,-0.00778,-0.00031,-0.04501
9.384,0.01343,-0.03296,-0.04379,-0.00076,-0.01816,-0.04395,-0.01221,-0.00183,-0.00473,-0.00885,-0.04532,-0.05402,-0.0499,-0.01221,0.00015,-0.04364
9.3845,0.01205,-0.03342,-0.06348,-0.00137,-0.01907,-0.04654,-0.02335,-0.00046,-0.07141,0.01297,-0.08011,-0.06653,-0.04807,-0.01678,0.00076,-0.04105
9.385,0.00916,-0.0354,-0.09613,-0.00183,-0.02029,-0.0502,-0.0264,0.00046,-0.41306,0.02731,-0.10239,-0.03952,-0.04547,-0.01999,-0.00061,-0.03586
9.3855,0.0058,-0.03876,-0.12802,-0.00229,-0.01968,-0.05219,-0.02457,0.00107,-0.45975,0.03082,-0.10925,0.01022,-0.04211,-0.02304,-0.00153,-0.03204
9.386,0.00397,-0.03998,-0.15289,-0.00458,-0.02045,-0.05325,-0.02457,-0.00076,1.15875,0.02899,-0.10086,0.04791,-0.03983,-0.02701,-0.00626,-0.0296
9.3865,0.00397,-0.03876,-0.16251,-0.00717,-0.01953,-0.05386,-0.0267,-0.00626,3.87665,0.02731,-0.08057,0.0592,-0.03891,-0.03281,-0.00519,-0.02686
9.387,0.00397,-0.03662,-0.15656,-0.00961,-0.02029,-0.05432,-0.02548,-0.00778,4.99985,0.02853,-0.05859,0.04654,-0.03891,-0.04074,-0.00397,-0.02274
9.3875,0.00275,-0.04105,-0.1265,-0.01129,-0.02045,-0.05524,-0.01083,-0.00488,4.6376,0.02518,-0.04059,0.02045,-0.03922,-0.04974,-0.00275,-0.01556
9.388,0.00031,-0.05753,-0.08179,-0.01099,-0.02106,-0.05569,0.0119,0.00107,3.94104,0.01831,-0.02716,-0.00839,-0.04044,-0.05508,-0.00702,-0.00961
9.3885,-0.00244,-0.07874,-0.03433,-0.00961,-0.0209,-0.0563,0.0206,0.00259,4.11179,0.01022,-0.01877,-0.03067,-0.0412,-0.05585,-0.00824,-0.00702
9.389,-0.00412,-0.08865,0.00671,-0.00793,-0.0206,-0.05295,0.00641,0.0,4.43481,0.00504,-0.01511,-0.04257,-0.03967,-0.05203,-0.00641,-0.00732
9.3895,-0.00381,-0.0795,0.0383,-0.00641,-0.01862,-0.04608,-0.01175,-0.00305,4.3161,0.00137,-0.0145,-0.04364,-0.03815,-0.0499,-0.00015,-0.0087
9.39,-0.00275,-0.06409,0.06821,-0.00534,-0.01678,-0.03784,-0.0174,-0.00473,4.08997,-0.00275,-0.01465,-0.03494,-0.03952,-0.05127,0.00534,-0.01144
9.3905,-0.00366,-0.05615,0.09659,-0.00504,-0.01633,-0.03387,-0.01343,-0.00473,3.909,-0.01068,-0.01801,-0.01831,-0.04333,-0.04944,0.00656,-0.01465
9.391,-0.00336,-0.05692,0.11276,-0.00351,-0.01816,-0.03555,-0.009,-0.00458,3.0864,-0.01907,-0.02777,-0.00336,-0.04547,-0.04181,0.00687,-0.02335
9.3915,-0.00549,-0.05646,0.11368,-0.00412,-0.0206,-0.03983,-0.00748,-0.00443,1.18378,-0.02335,-0.04776,0.0032,-0.04486,-0.03159,0.00626,-0.03677
9.392,-0.0061,-0.05005,0.09216,-0.00549,-0.02289,-0.04227,-0.00809,-0.00305,-0.88745,-0.02213,-0.06729,0.00168,-0.04333,-0.02487,0.009,-0.05005
9.3925,-0.00458,-0.03815,0.06439,-0.00793,-0.02335,-0.04333,-0.01038,-0.00107,-1.87302,-0.01404,-0.07278,-0.0087,-0.04135,-0.02182,0.01389,-0.05905
9.393,-0.00183,-0.02762,0.04395,-0.01007,-0.02243,-0.04486,-0.01312,0.00031,-1.91467,-0.00839,-0.06134,-0.02945,-0.04089,-0.02167,0.01801,-0.06119
9.3935,-0.00183,-0.0177,0.03555,-0.01129,-0.02228,-0.04669,-0.01572,0.00153,-2.19589,-0.01984,-0.04379,-0.04547,-0.04318,-0.02487,0.01495,-0.05936
9.394,-0.00381,-0.01068,0.03326,-0.01083,-0.02304,-0.04837,-0.01633,0.00168,-3.26233,-0.04852,-0.02701,-0.03601,-0.04486,-0.02914,0.00031,-0.05692
9.3945,-0.00656,-0.00412,0.0293,-0.01129,-0.02625,-0.05096,-0.01617,0.00031,-4.48563,-0.07874,-0.01801,-0.00671,-0.0441,-0.0296,-0.0177,-0.05402
9.395,-0.0087,0.00092,0.01984,-0.01343,-0.02502,-0.0531,-0.01678,-0.00153,-4.96643,-0.08667,-0.02304,0.01266,-0.04135,-0.02548,-0.0264,-0.05493
9.3955,-0.00809,0.00473,0.01343,-0.01526,-0.02319,-0.0531,-0.01755,-0.00244,-4.97482,-0.06561,-0.04868,0.00839,-0.04105,-0.01953,-0.02411,-0.056
9.396,-0.00656,0.00717,0.00336,-0.01526,-0.0209,-0.05188,-0.0177,-0.00488,-4.95117,-0.03174,-0.09247,0.00107,-0.04257,-0.01495,-0.01587,-0.05417
9.3965,-0.00534,0.00839,-0.0177,-0.01434,-0.02151,-0.04959,-0.01816,-0.00778,-4.96475,-0.0058,-0.1268,0.01617,-0.04471,-0.01205,-0.0087,-0.04211
9.397,-0.00427,0.00824,-0.03845,-0.01175,-0.02319,-0.04822,-0.01816,-0.0116,-4.9762,0.00519,-0.1181,0.04715,-0.04227,-0.01221,-0.00351,-0.02151
9.3975,-0.00092,0.00504,-0.05646,-0.00946,-0.02472,-0.04868,-0.01709,-0.01373,-4.97604,0.00809,-0.06851,0.0592,-0.03662,-0.01419,0.00137,-0.00061
9.398,0.00473,-0.00229,-0.06683,-0.00854,-0.02609,-0.04913,-0.01602,-0.01282,-4.97528,0.0119,-0.00839,0.03326,-0.0293,-0.01587,0.00366,0.01083
9.3985,0.00854,-0.01007,-0.07187,-0.00763,-0.02533,-0.04898,-0.01556,-0.01068,-4.97574,0.02029,0.03494,-0.00824,-0.02106,-0.01602,0.00275,0.01175
9.399,0.00687,-0.0148,-0.07172,-0.00687,-0.02548,-0.04913,-0.01572,-0.00732,-4.97543,0.03235,0.0589,-0.02975,-0.01556,-0.01343,-0.00092,0.00763
9.3995,0.00046,-0.01648,-0.06683,-0.0058,-0.02502,-0.04791,-0.01495,-0.00336,-4.97543,0.04318,0.06729,-0.0177,-0.01511,-0.01144,-0.00488,0.00366
9.4,-0.00763,-0.0206,-0.05798,-0.00626,-0.02594,-0.04593,-0.01495,-0.00122,-4.97452,0.04929,0.05264,0.00748,-0.01831,-0.01114,-0.00885,0.00061
9.4005,-0.0148,-0.02716,-0.05356,-0.00793,-0.02853,-0.04578,-0.0148,-0.00168,-4.97391,0.05081,0.0209,0.02441,-0.02213,-0.01328,-0.01175,-0.00397
9.401,-0.01984,-0.03159,-0.05264,-0.00916,-0.0296,-0.04684,-0.01389,-0.00107,-4.97482,0.0473,0.01373,0.03128,-0.02563,-0.01465,-0.00961,-0.01175
9.4015,-0.02151,-0.0325,-0.05066,-0.00931,-0.03235,-0.04745,-0.01297,0.00031,-4.97452,0.03815,0.05844,0.03326,-0.03021,-0.01541,-0.00427,-0.0209
9.402,-0.02045,-0.03265,-0.0502,-0.00977,-0.03632,-0.04852,-0.01373,0.00168,-4.91531,0.0177,0.12604,0.03174,-0.03677,-0.01587,0.0,-0.03174
9.4025,-0.01846,-0.03433,-0.05127,-0.01114,-0.03891,-0.04944,-0.01556,0.00137,-4.63867,-0.01312,0.16022,0.02228,-0.04486,-0.0177,0.00153,-0.04562
9.403,-0.01633,-0.03754,-0.05341,-0.01373,-0.03952,-0.0499,-0.01755,0.0,-4.19556,-0.04883,0.13931,0.00519,-0.05295,-0.01892,0.00076,-0.05722
9.4035,-0.01465,-0.03876,-0.05569,-0.01541,-0.03876,-0.0502,-0.01862,-0.00092,-3.815,-0.07935,0.08133,-0.01678,-0.05768,-0.01999,-0.00107,-0.06546
9.404,-0.01495,-0.03723,-0.05539,-0.01511,-0.0386,-0.04974,-0.01831,-0.00137,-3.63251,-0.10223,0.0148,-0.03983,-0.05798,-0.01938,-0.00183,-0.0679
9.4045,-0.01755,-0.03479,-0.05798,-0.01373,-0.03708,-0.04929,-0.01694,-0.00137,-3.53226,-0.1178,-0.03738,-0.05325,-0.05493,-0.01694,0.0,-0.06607
9.405,-0.02319,-0.03555,-0.05722,-0.01114,-0.0354,-0.04868,-0.01526,-0.00015,-3.37067,-0.12695,-0.06882,-0.05051,-0.05219,-0.01297,0.00259,-0.0618
9.4055,-0.02731,-0.03815,-0.05493,-0.00885,-0.03189,-0.04852,-0.01373,-0.00031,-3.14972,-0.13016,-0.08377,-0.03693,-0.05203,-0.01038,0.00412,-0.05737
9.406,-0.02899,-0.03998,-0.04974,-0.00824,-0.03006,-0.04822,-0.01404,-0.00137,-2.92572,-0.12573,-0.09399,-0.02304,-0.05127,-0.00824,0.00549,-0.05356
9.4065,-0.02869,-0.04242,-0.04623,-0.00778,-0.02869,-0.04852,-0.01495,-0.00214,-2.70447,-0.11414,-0.10468,-0.00595,-0.04959,-0.00809,0.00381,-0.0502
9.407,-0.02792,-0.04471,-0.04547,-0.0087,-0.02594,-0.04822,-0.01587,-0.0029,-2.47742,-0.1001,-0.11673,0.02625,-0.04532,-0.00824,0.00214,-0.04608
9.4075,-0.02533,-0.04532,-0.047,-0.009,-0.02411,-0.04654,-0.01678,-0.0032,-2.25998,-0.08224,-0.12848,0.07599,-0.03998,-0.00793,0.00381,-0.04196
9.408,-0.02151,-0.04456,-0.0473,-0.01007,-0.02289,-0.04684,-0.0174,-0.00519,-2.06268,-0.05371,-0.13382,0.12329,-0.03586,-0.00763,0.00671,-0.04196
9.4085,-0.01633,-0.04272,-0.04623,-0.01053,-0.02319,-0.04715,-0.01801,-0.00732,-1.87347,-0.01114,-0.12436,0.14069,-0.03448,-0.00854,0.00961,-0.04547
9.409,-0.0119,-0.04227,-0.04608,-0.01114,-0.02472,-0.04715,-0.01801,-0.01083,-1.67679,0.04013,-0.10208,0.12146,-0.03311,-0.00824,0.01144,-0.04791
9.4095,-0.01022,-0.04364,-0.04379,-0.01038,-0.02518,-0.04623,-0.01709,-0.01373,-1.47079,0.08377,-0.07446,0.08484,-0.03006,-0.00778,0.01129,-0.04913
9.41,-0.00961,-0.04517,-0.03922,-0.00854,-0.02716,-0.0444,-0.01724,-0.01373,-1.27151,0.10544,-0.05112,0.05386,-0.02808,-0.00549,0.01175,-0.04791
9.4105,-0.00839,-0.04517,-0.03632,-0.00656,-0.0293,-0.04349,-0.01541,-0.01099,-1.09558,0.1059,-0.03418,0.03372,-0.02792,-0.0032,0.01114,-0.04562
9.411,-0.00748,-0.04364,-0.03632,-0.00458,-0.03387,-0.0444,-0.01373,-0.00748,-0.94208,0.09613,-0.02075,0.01678,-0.02869,-0.00397,0.01221,-0.04013
9.4115,-0.00687,-0.04303,-0.03708,-0.00381,-0.03723,-0.04654,-0.0116,-0.00458,-0.79636,0.08438,-0.01129,-0.00198,-0.02869,-0.00626,0.00977,-0.0296
9.412,-0.00809,-0.04349,-0.03845,-0.00336,-0.03799,-0.04837,-0.01205,-0.00336,-0.64529,0.07751,-0.00778,-0.02304,-0.03052,-0.00763,0.00885,-0.01678
9.4125,-0.00961,-0.0444,-0.04105,-0.00458,-0.03815,-0.05051,-0.01465,-0.00122,-0.48691,0.07355,-0.00717,-0.0444,-0.03525,-0.00992,0.00793,-0.00656
9.413,-0.00946,-0.04349,-0.04654,-0.00656,-0.03952,-0.05112,-0.01465,-0.00031,-0.32974,0.06958,-0.00565,-0.06149,-0.04135,-0.01236,0.00854,-0.00549
9.4135,-0.00931,-0.0412,-0.0499,-0.00839,-0.04105,-0.05035,-0.01221,-0.00168,-0.18158,0.06393,-0.00244,-0.07065,-0.04486,-0.01373,0.01053,-0.01114
9.414,-0.00885,-0.03784,-0.04807,-0.00992,-0.0441,-0.04852,-0.01144,-0.00381,-0.03448,0.05508,-0.00305,-0.07309,-0.04456,-0.01266,0.01221,-0.0177
9.4145,-0.00763,-0.03738,-0.0444,-0.00961,-0.04745,-0.04852,-0.01312,-0.00443,0.11917,0.04471,-0.00778,-0.0769,-0.04242,-0.01114,0.01266,-0.02167
9.415,-0.00641,-0.03922,-0.03952,-0.00885,-0.04868,-0.04929,-0.0148,-0.00519,0.27786,0.03326,-0.01144,-0.07858,-0.04044,-0.01114,0.01144,-0.02625
9.4155,-0.00488,-0.0415,-0.03571,-0.00992,-0.04684,-0.05203,-0.01526,-0.00778,0.43106,0.02472,-0.00977,-0.05981,-0.03784,-0.01297,0.00885,-0.03265
9.416,-0.00488,-0.04196,-0.03418,-0.01221,-0.04318,-0.05096,-0.01282,-0.01038,0.57571,0.01678,-0.00473,-0.01205,-0.03159,-0.01511,0.00763,-0.04074
9.4165,-0.00473,-0.04211,-0.03464,-0.01541,-0.03952,-0.05096,-0.0119,-0.01022,0.71808,0.00961,-0.00015,0.04349,-0.0235,-0.01633,0.00946,-0.0441
9.417,-0.00458,-0.04333,-0.03601,-0.01801,-0.03815,-0.05127,-0.01083,-0.00992,0.86685,0.00168,-0.00031,0.07767,-0.01495,-0.01678,0.01083,-0.04456
9.4175,-0.00397,-0.0444,-0.03723,-0.01938,-0.03845,-0.05142,-0.01205,-0.01053,1.03058,-0.00748,-0.00458,0.08575,-0.00748,-0.01678,0.01297,-0.04501
9.418,-0.00458,-0.04395,-0.03815,-0.01907,-0.03967,-0.05035,-0.01297,-0.0119,1.20056,-0.01328,-0.01068,0.07614,-0.00214,-0.01633,0.01297,-0.04745
9.4185,-0.00702,-0.04471,-0.03937,-0.01862,-0.03906,-0.04868,-0.01282,-0.01007,1.35529,-0.01587,-0.01373,0.04974,-0.00046,-0.01404,0.0116,-0.0531
9.419,-0.0087,-0.04822,-0.04059,-0.01938,-0.03738,-0.047,-0.01328,-0.00687,1.47934,-0.01816,-0.01282,0.01114,-0.00076,-0.01266,0.00946,-0.05508
9.4195,-0.00885,-0.05478,-0.04211,-0.01907,-0.0354,-0.04669,-0.01282,-0.00412,1.57501,-0.01984,-0.01068,-0.02304,-0.00443,-0.01251,0.00961,-0.05249
9.42,-0.00717,-0.06317,-0.04623,-0.02029,-0.03494,-0.04623,-0.01221,-0.00214,1.64703,-0.02029,-0.00961,-0.03342,-0.00809,-0.01358,0.01068,-0.04593
9.4205,-0.0058,-0.07324,-0.0502,-0.02106,-0.03464,-0.04654,-0.01129,-0.00061,1.70502,-0.01755,-0.01053,-0.0206,-0.01373,-0.0145,0.01022,-0.04135
9.421,-0.00565,-0.08667,-0.04974,-0.02167,-0.03418,-0.04837,-0.01129,0.00061,1.78024,-0.01389,-0.01129,-0.00412,-0.02197,-0.01541,0.0087,-0.04013
9.4215,-0.0061,-0.10071,-0.04684,-0.02213,-0.03387,-0.0499,-0.01251,0.00137,1.88126,-0.01495,-0.01175,0.00015,-0.03479,-0.01587,0.00732,-0.03708
9.422,-0.00702,-0.10864,-0.04471,-0.02197,-0.03433,-0.0502,-0.01221,0.00214,1.94321,-0.01953,-0.01129,-0.00549,-0.04974,-0.0177,0.00702,-0.03052
9.4225,-0.00702,-0.10239,-0.04486,-0.02228,-0.03418,-0.05005,-0.0119,0.00259,1.88538,-0.02075,-0.01053,-0.01236,-0.06088,-0.01923,0.00778,-0.02396
9.423,-0.00778,-0.08438,-0.04425,-0.02274,-0.03418,-0.04913,-0.0119,0.00168,1.7157,-0.01328,-0.00885,-0.01068,-0.06607,-0.01999,0.00946,-0.02106
9.4235,-0.00732,-0.0621,-0.04105,-0.02136,-0.03403,-0.04807,-0.01343,0.00031,1.50024,-0.00153,-0.01022,0.00107,-0.06485,-0.01892,0.01068,-0.02167
9.424,-0.00824,-0.04135,-0.03403,-0.02045,-0.03372,-0.04715,-0.01511,0.00046,1.27625,0.00824,-0.02762,0.01755,-0.05783,-0.01663,0.01236,-0.02289
9.4245,-0.01083,-0.02411,-0.02655,-0.02106,-0.03357,-0.04593,-0.01694,0.00259,1.07407,0.01312,-0.06805,0.02747,-0.04791,-0.01541,0.01251,-0.02502
9.425,-0.01358,-0.0116,-0.0209,-0.02228,-0.03448,-0.04623,-0.01556,0.00443,0.96252,0.01434,-0.11429,0.02655,-0.03769,-0.01633,0.01129,-0.02899
9.4255,-0.01205,-0.00336,-0.01709,-0.02243,-0.03433,-0.04745,-0.01343,0.0058,0.98358,0.0087,-0.13,0.01892,-0.03189,-0.01846,0.01068,-0.03403
9.426,-0.00778,0.00305,-0.01465,-0.02075,-0.03494,-0.04898,-0.01282,0.00534,1.06964,-0.00076,-0.09903,0.0119,-0.03113,-0.02106,0.01144,-0.03647
9.4265,-0.00412,0.0087,-0.01282,-0.02014,-0.03418,-0.04898,-0.01358,0.00427,1.10474,-0.01068,-0.04013,0.00427,-0.03342,-0.02228,0.01251,-0.03784
9.427,-0.00229,0.01343,-0.00748,-0.02075,-0.03342,-0.04852,-0.01419,0.00397,1.06949,-0.0148,0.02213,-0.00854,-0.0351,-0.02106,0.01358,-0.03967
9.4275,-0.0032,0.01633,0.00122,-0.02121,-0.0322,-0.047,-0.01312,0.00443,1.02325,-0.01495,0.07935,-0.02701,-0.03479,-0.02075,0.01221,-0.0441
9.428,-0.00427,0.01511,0.00946,-0.02121,-0.03265,-0.04623,-0.01389,0.00473,0.92712,-0.0174,0.12436,-0.03922,-0.03387,-0.02441,0.0119,-0.0473
9.4285,-0.00229,0.00854,0.0119,-0.02106,-0.03403,-0.04593,-0.01419,0.00412,0.65353,-0.02533,0.1384,-0.03906,-0.03342,-0.02777,0.01175,-0.04745
9.429,0.00076,-0.00336,0.00504,-0.01999,-0.0351,-0.04486,-0.01511,0.00336,0.26749,-0.03891,0.11078,-0.03128,-0.03296,-0.02853,0.01343,-0.04501
9.4295,0.0058,-0.01633,-0.00778,-0.01892,-0.03296,-0.04333,-0.01541,0.0029,0.0972,-0.05951,0.05859,-0.02457,-0.03098,-0.02548,0.01572,-0.04211
9.43,0.01022,-0.0235,-0.01816,-0.0177,-0.03021,-0.04257,-0.01389,0.00259,0.37613,-0.08392,0.00748,-0.01831,-0.02869,-0.02045,0.01434,-0.04013
9.4305,0.01282,-0.02792,-0.02258,-0.0174,-0.02914,-0.04288,-0.0119,0.00244,0.90805,-0.10361,-0.03464,-0.01923,-0.02777,-0.01907,0.01495,-0.03922
9.431,0.01358,-0.0325,-0.02304,-0.01678,-0.02899,-0.04349,-0.01114,0.00275,1.19064,-0.10864,-0.06607,-0.03235,-0.02884,-0.0209,0.01709,-0.03662
9.4315,0.01312,-0.03754,-0.02472,-0.01617,-0.02975,-0.04456,-0.01251,0.00198,0.8287,-0.09949,-0.08041,-0.04608,-0.03265,-0.02472,0.01846,-0.0351
9.432,0.01175,-0.03998,-0.02884,-0.01404,-0.03067,-0.04379,-0.01297,0.00122,-0.16022,-0.08408,-0.06882,-0.04074,-0.03723,-0.0264,0.01648,-0.03891
9.4325,0.01053,-0.03983,-0.03342,-0.01251,-0.03067,-0.04379,-0.01221,0.00061,-1.38901,-0.06638,-0.03342,-0.01358,-0.04028,-0.0267,0.01221,-0.04623
9.433,0.01022,-0.03845,-0.03677,-0.01221,-0.03098,-0.04379,-0.01114,0.00153,-2.49466,-0.04562,0.00427,0.01038,-0.03922,-0.02701,0.00885,-0.05203
9.4335,0.00961,-0.03738,-0.03754,-0.01328,-0.03159,-0.04532,-0.01144,0.00122,-3.45123,-0.01709,0.02487,0.01099,-0.03616,-0.02808,0.00854,-0.05341
9.434,0.00854,-0.03952,-0.03647,-0.01328,-0.03403,-0.04639,-0.01312,0.00122,-4.35196,0.01144,0.02472,-0.0029,-0.03311,-0.02991,0.00931,-0.05188
9.4345,0.00717,-0.04456,-0.03647,-0.01373,-0.03464,-0.04608,-0.01465,0.00153,-4.93713,0.02975,0.01633,-0.01419,-0.0325,-0.03036,0.00946,-0.05081
9.435,0.00626,-0.04974,-0.03708,-0.01434,-0.03403,-0.04669,-0.01556,0.00153,-4.97467,0.03677,0.01099,-0.0174,-0.03174,-0.03036,0.00946,-0.05249
9.4355,0.00641,-0.05081,-0.03647,-0.01511,-0.03418,-0.04715,-0.01541,0.00076,-4.81491,0.03571,0.00641,-0.01587,-0.03082,-0.0322,0.00793,-0.05585
9.436,0.00641,-0.04852,-0.03555,-0.01709,-0.03571,-0.04807,-0.01617,-0.00031,-4.49173,0.02869,-0.00732,-0.01236,-0.02869,-0.03464,0.00732,-0.05936
9.4365,0.00534,-0.04639,-0.03494,-0.01755,-0.03571,-0.04639,-0.01709,0.0,-4.04617,0.01846,-0.02518,-0.00854,-0.02609,-0.03586,0.00412,-0.06027
9.437,0.00305,-0.04639,-0.03571,-0.01724,-0.03586,-0.04379,-0.01709,0.00031,-3.67249,0.00702,-0.03479,-0.00671,-0.02213,-0.03235,0.00397,-0.05966
9.4375,0.00092,-0.04761,-0.03677,-0.01694,-0.03494,-0.04166,-0.01587,-0.00122,-3.7471,-0.00702,-0.03235,-0.00656,-0.01678,-0.02518,0.00626,-0.05829
9.438,0.00015,-0.0473,-0.03662,-0.01785,-0.03403,-0.0412,-0.01511,-0.00458,-4.13681,-0.02853,-0.02472,-0.00717,-0.01236,-0.01511,0.00931,-0.05554
9.4385,-0.00107,-0.04745,-0.03677,-0.01801,-0.03433,-0.04318,-0.01419,-0.00717,-4.27673,-0.05463,-0.02396,-0.00641,-0.00854,-0.00732,0.01068,-0.0502
9.439,-0.00122,-0.04761,-0.03784,-0.01816,-0.03372,-0.04456,-0.01328,-0.00793,-3.94272,-0.07401,-0.02945,-0.00473,-0.00549,-0.00488,0.00931,-0.04395
9.4395,-0.00061,-0.04852,-0.03906,-0.01694,-0.03326,-0.04456,-0.01083,-0.00671,-3.44742,-0.07843,-0.02884,-0.00412,-0.00168,-0.00656,0.00778,-0.04013
9.44,0.00061,-0.04868,-0.03937,-0.01556,-0.03281,-0.0441,-0.00961,-0.00519,-3.23502,-0.07126,-0.00336,-0.00473,0.00061,-0.00992,0.00824,-0.04028
9.4405,0.00107,-0.04837,-0.03754,-0.0145,-0.03281,-0.04242,-0.00961,-0.00458,-3.54172,-0.06104,0.04028,-0.00244,-0.00092,-0.01221,0.01129,-0.04166
9.441,0.00031,-0.04807,-0.03571,-0.01205,-0.03326,-0.04181,-0.01068,-0.00626,-4.17114,-0.05447,0.06805,0.00168,-0.00763,-0.01511,0.01205,-0.04013
9.4415,-0.00137,-0.04944,-0.03494,-0.00824,-0.03265,-0.04074,-0.01144,-0.00824,-4.58206,-0.05325,0.05798,0.00504,-0.01465,-0.01831,0.01236,-0.03769
9.442,-0.00275,-0.05066,-0.03525,-0.00641,-0.03296,-0.04105,-0.01221,-0.009,-4.45358,-0.05844,0.03021,0.00519,-0.02365,-0.02258,0.01236,-0.03632
9.4425,-0.00351,-0.05051,-0.03586,-0.00671,-0.03143,-0.04242,-0.01328,-0.00839,-3.90625,-0.06165,0.02243,0.0032,-0.03021,-0.02625,0.01328,-0.03723
9.443,-0.00397,-0.04974,-0.0386,-0.00732,-0.03143,-0.04349,-0.01389,-0.00732,-3.23334,-0.0618,0.03906,0.00122,-0.03311,-0.02869,0.01404,-0.03769
9.4435,-0.00458,-0.04944,-0.03983,-0.00626,-0.03204,-0.0444,-0.01465,-0.00824,-2.59705,-0.05402,0.04868,0.00214,-0.03128,-0.0267,0.01495,-0.03677
9.444,-0.00504,-0.04852,-0.04089,-0.00427,-0.03159,-0.0441,-0.01465,-0.01053,-2.00821,-0.04105,0.02563,0.00381,-0.02686,-0.02228,0.01541,-0.0354
9.4445,-0.00427,-0.04654,-0.04135,-0.00412,-0.03159,-0.04501,-0.01434,-0.01129,-1.45096,-0.02747,-0.02487,0.00366,-0.02274,-0.01801,0.01617,-0.03494
9.445,-0.00504,-0.04471,-0.04013,-0.00534,-0.03082,-0.04517,-0.01495,-0.00961,-0.92331,-0.01602,-0.0766,0.00168,-0.02136,-0.01678,0.01617,-0.03632
9.4455,-0.00717,-0.04395,-0.0386,-0.00549,-0.02945,-0.04715,-0.01541,-0.00839,-0.43015,-0.01068,-0.10666,-0.00107,-0.0209,-0.01709,0.01633,-0.04013
9.446,-0.00961,-0.04471,-0.03876,-0.00397,-0.02991,-0.04837,-0.01556,-0.00854,0.01617,-0.00488,-0.11063,-0.00153,-0.02075,-0.01907,0.01694,-0.04532
9.4465,-0.01053,-0.04623,-0.03922,-0.00229,-0.03021,-0.04898,-0.01541,-0.00931,0.41565,0.00153,-0.09705,-0.00046,-0.02121,-0.0206,0.01907,-0.04822
9.447,-0.01007,-0.04608,-0.03952,-0.00198,-0.03143,-0.04913,-0.01511,-0.00946,0.78781,0.00641,-0.07919,0.00107,-0.02243,-0.01984,0.01984,-0.05127
9.4475,-0.00977,-0.04578,-0.03906,-0.00183,-0.03204,-0.04745,-0.01617,-0.00961,1.13846,0.00565,-0.06699,0.00092,-0.02487,-0.01953,0.01755,-0.05554
9.448,-0.00916,-0.04532,-0.0386,-0.00214,-0.0325,-0.04684,-0.01663,-0.00916,1.45279,0.0032,-0.06226,-0.00214,-0.02731,-0.0206,0.01404,-0.06165
9.4485,-0.00961,-0.04517,-0.0386,-0.00305,-0.03281,-0.04791,-0.01633,-0.00809,1.72897,0.0032,-0.06332,-0.00534,-0.02747,-0.02136,0.01251,-0.06561
9.449,-0.00916,-0.04517,-0.03891,-0.00504,-0.03265,-0.04791,-0.01556,-0.00763,1.97968,0.00351,-0.06287,-0.00732,-0.0267,-0.02151,0.01221,-0.06577
9.4495,-0.00885,-0.0444,-0.03876,-0.00656,-0.0325,-0.04791,-0.01587,-0.00885,2.20551,-0.00549,-0.06454,-0.00656,-0.02579,-0.02136,0.01236,-0.06302
9.45,-0.00809,-0.04242,-0.03998,-0.00809,-0.03281,-0.04684,-0.01556,-0.009,2.4057,-0.02396,-0.06989,-0.00244,-0.02701,-0.02274,0.01221,-0.05707
9.4505,-0.00946,-0.04089,-0.04181,-0.00946,-0.03311,-0.04654,-0.0148,-0.00824,2.58041,-0.04822,-0.0769,0.00168,-0.02869,-0.02441,0.01144,-0.05203
9.451,-0.01144,-0.04135,-0.04059,-0.01099,-0.03265,-0.04654,-0.01434,-0.00809,2.72888,-0.06546,-0.07614,0.00351,-0.02991,-0.02487,0.00931,-0.0502
9.4515,-0.01038,-0.04303,-0.03723,-0.01175,-0.03235,-0.04654,-0.0148,-0.00824,2.85904,-0.07202,-0.06348,0.00275,-0.0296,-0.02319,0.00885,-0.05066
9.452,-0.00946,-0.04303,-0.03433,-0.01297,-0.03159,-0.04593,-0.01556,-0.00854,2.98065,-0.07355,-0.05417,0.00122,-0.02777,-0.02167,0.00671,-0.05173
9.4525,-0.00854,-0.0412,-0.03418,-0.01373,-0.03082,-0.04715,-0.01572,-0.00824,3.08548,-0.07385,-0.0798,-0.00031,-0.02655,-0.02197,0.00626,-0.05219
9.453,-0.00946,-0.03952,-0.0351,-0.01556,-0.02975,-0.04807,-0.0148,-0.00778,3.15948,-0.0766,-0.15778,-0.00061,-0.02548,-0.02289,0.00793,-0.05234
9.4535,-0.01053,-0.03952,-0.0351,-0.01526,-0.02731,-0.04745,-0.01312,-0.00778,3.2045,-0.07874,-0.24811,0.00061,-0.02548,-0.02228,0.01297,-0.05112
9.454,-0.01205,-0.03983,-0.03494,-0.01099,-0.02426,-0.04654,-0.01236,-0.00793,3.22906,-0.07248,-0.2771,0.00305,-0.02625,-0.01984,0.01633,-0.04715
9.4545,-0.01221,-0.03891,-0.03494,-0.0029,-0.02274,-0.04623,-0.01251,-0.00793,3.23807,-0.05508,-0.21118,0.00366,-0.02594,-0.01633,0.01648,-0.0415
9.455,-0.01007,-0.0383,-0.03616,0.00626,-0.02365,-0.04562,-0.01236,-0.00656,3.23029,-0.03647,-0.09506,0.00198,-0.02594,-0.01526,0.01251,-0.03448
9.4555,-0.00671,-0.03891,-0.03784,0.01129,-0.02625,-0.04669,-0.01236,-0.00488,3.21014,-0.03372,0.00397,0.0,-0.02548,-0.0145,0.00763,-0.02975
9.456,-0.00458,-0.04181,-0.0386,0.00809,-0.02762,-0.04776,-0.01236,-0.00443,3.18237,-0.05402,0.06775,0.0,-0.02609,-0.01389,0.00275,-0.03204
9.4565,-0.0032,-0.04242,-0.03799,-0.00076,-0.02777,-0.04745,-0.01358,-0.00305,3.14865,-0.08163,0.11475,0.00107,-0.02899,-0.01343,-0.00153,-0.03952
9.457,-0.00381,-0.04089,-0.03754,-0.00931,-0.02655,-0.04669,-0.01419,-0.00275,3.10257,-0.0943,0.15625,0.00183,-0.03204,-0.01358,-0.00275,-0.04837
9.4575,-0.00427,-0.03952,-0.03693,-0.01328,-0.02533,-0.04608,-0.01389,-0.00214,3.04291,-0.08469,0.17746,0.00076,-0.03311,-0.01328,-0.00198,-0.05371
9.458,-0.00473,-0.03937,-0.03601,-0.01434,-0.02579,-0.04562,-0.01373,-0.00259,2.97424,-0.065,0.17273,-0.00031,-0.03326,-0.01389,0.00031,-0.05341
9.4585,-0.00656,-0.03937,-0.03616,-0.01373,-0.02594,-0.04639,-0.0148,-0.00275,2.89963,-0.05005,0.15244,-0.00046,-0.03296,-0.01419,0.00107,-0.04944
9.459,-0.00809,-0.03952,-0.03723,-0.01419,-0.02701,-0.04669,-0.01617,-0.00397,2.81342,-0.04272,0.13336,0.00015,-0.03387,-0.01495,0.00244,-0.04395
9.4595,-0.00778,-0.03952,-0.03677,-0.01373,-0.02808,-0.04623,-0.01633,-0.00458,2.70798,-0.03677,0.11963,0.00092,-0.03464,-0.01373,0.00381,-0.03845
9.46,-0.00702,-0.03967,-0.03693,-0.01404,-0.02731,-0.04547,-0.01465,-0.0032,2.5943,-0.02777,0.10727,0.00122,-0.03433,-0.01419,0.00717,-0.03586
9.4605,-0.00885,-0.03906,-0.03632,-0.01419,-0.02594,-0.04517,-0.01297,-0.00092,2.49893,-0.01587,0.08743,0.00046,-0.03403,-0.01755,0.00931,-0.03632
9.461,-0.0116,-0.03815,-0.03479,-0.01465,-0.02487,-0.04532,-0.01236,0.00031,2.41928,-0.00397,0.05478,-0.00046,-0.03174,-0.02136,0.01129,-0.0383
9.4615,-0.01266,-0.03754,-0.03357,-0.0145,-0.02609,-0.04639,-0.0119,0.00031,2.33109,0.00412,0.01572,-0.00015,-0.02838,-0.02365,0.01236,-0.04013
9.462,-0.01221,-0.03616,-0.03387,-0.01358,-0.02823,-0.04639,-0.01373,0.00092,2.22809,0.01297,-0.01434,0.00031,-0.02487,-0.02243,0.01144,-0.04089
9.4625,-0.01022,-0.03693,-0.03601,-0.01358,-0.03128,-0.04623,-0.01495,0.00137,2.1199,0.02457,-0.02457,0.00198,-0.02228,-0.01968,0.00809,-0.03998
9.463,-0.00854,-0.03815,-0.03845,-0.01511,-0.03159,-0.04562,-0.01526,0.00168,2.00989,0.03708,-0.0206,0.00259,-0.02045,-0.01999,0.0032,-0.03799
9.4635,-0.00717,-0.04044,-0.0386,-0.01602,-0.03082,-0.04593,-0.01419,0.00153,1.89926,0.04181,-0.01129,0.00305,-0.01923,-0.02136,-0.00015,-0.03387
9.464,-0.00549,-0.04211,-0.03906,-0.01541,-0.03082,-0.04547,-0.01312,0.00092,1.78772,0.03632,0.00031,0.00336,-0.01724,-0.02487,-0.00275,-0.03098
9.4645,-0.00336,-0.04211,-0.03876,-0.01526,-0.03036,-0.04532,-0.01282,0.00046,1.67099,0.02686,0.01465,0.00336,-0.01465,-0.02747,-0.00473,-0.03006
9.465,-0.00259,-0.04242,-0.03876,-0.01587,-0.03113,-0.04486,-0.01266,0.00061,1.56189,0.02151,0.02594,0.00305,-0.01144,-0.02853,-0.0058,-0.02991
9.4655,-0.00259,-0.0415,-0.03799,-0.0174,-0.03159,-0.04547,-0.0119,0.00122,1.47354,0.0209,0.02869,0.00275,-0.01114,-0.02792,-0.0058,-0.02853
9.466,-0.00305,-0.0415,-0.03845,-0.01816,-0.03143,-0.04608,-0.0116,0.00244,1.39557,0.01801,0.0264,0.00351,-0.01465,-0.0264,-0.00214,-0.02609
9.4665,-0.00381,-0.04257,-0.03784,-0.01877,-0.03235,-0.04669,-0.01175,0.00366,1.30478,0.01434,0.02609,0.00366,-0.0206,-0.0267,0.00137,-0.02472
9.467,-0.00351,-0.04471,-0.03632,-0.01953,-0.03357,-0.0473,-0.01205,0.00351,1.2027,0.01022,0.02884,0.0029,-0.02899,-0.02823,0.00381,-0.02441
9.4675,-0.00366,-0.04669,-0.03616,-0.01984,-0.03342,-0.04745,-0.01266,0.00244,1.10657,0.00381,0.02747,0.00259,-0.03647,-0.02869,0.00427,-0.02609
9.468,-0.00397,-0.04761,-0.03632,-0.01923,-0.03143,-0.04776,-0.01312,0.00153,1.02097,-0.00565,0.01846,0.00351,-0.04395,-0.0293,0.00244,-0.02686
9.4685,-0.00412,-0.04837,-0.0386,-0.01862,-0.03189,-0.04715,-0.01419,0.00076,0.93536,-0.0174,0.00732,0.00473,-0.05081,-0.02853,0.00183,-0.02518
9.469,-0.00366,-0.04761,-0.03845,-0.01846,-0.03357,-0.04837,-0.01434,0.00153,0.84244,-0.02457,0.00015,0.00595,-0.05905,-0.02548,0.00259,-0.02167
9.4695,-0.00305,-0.04654,-0.03647,-0.01816,-0.03342,-0.04837,-0.01373,0.00275,0.75012,-0.02899,-0.00534,0.0058,-0.06805,-0.02167,0.00458,-0.01785
9.47,-0.00381,-0.04669,-0.03586,-0.01755,-0.03265,-0.04822,-0.01282,0.00229,0.6633,-0.03113,-0.01053,0.00443,-0.07065,-0.01663,0.00641,-0.01587
9.4705,-0.00534,-0.04837,-0.03723,-0.01572,-0.03357,-0.04837,-0.01282,0.00107,0.58136,-0.03342,-0.0174,0.00198,-0.06378,-0.01236,0.00534,-0.01602
9.471,-0.00702,-0.04913,-0.03906,-0.01373,-0.03342,-0.047,-0.01297,0.00046,0.50079,-0.03311,-0.02151,0.00092,-0.05173,-0.0087,0.00412,-0.0174
9.4715,-0.00824,-0.04898,-0.03922,-0.01144,-0.03311,-0.04471,-0.01297,0.00122,0.42252,-0.03342,-0.02411,0.00122,-0.03922,-0.00534,0.00519,-0.01953
9.472,-0.00793,-0.04776,-0.03769,-0.01007,-0.03326,-0.04425,-0.01266,0.00153,0.34851,-0.03448,-0.0267,0.00168,-0.03372,-0.00351,0.00778,-0.0206
9.4725,-0.0058,-0.04761,-0.03708,-0.01007,-0.03387,-0.04593,-0.01251,0.00153,0.27374,-0.03235,-0.02899,0.0,-0.03311,-0.00412,0.01022,-0.02289
9.473,-0.00351,-0.04868,-0.03647,-0.01205,-0.03372,-0.04929,-0.01221,0.00198,0.18768,-0.02975,-0.03052,-0.00397,-0.03555,-0.00565,0.01175,-0.0293
9.4735,-0.00366,-0.04929,-0.03677,-0.01282,-0.03265,-0.05051,-0.01236,0.00076,0.09842,-0.02625,-0.03052,-0.00763,-0.03723,-0.00763,0.01083,-0.04059
9.474,-0.00534,-0.04959,-0.03632,-0.0116,-0.0325,-0.04929,-0.01266,-0.00015,0.02731,-0.02518,-0.03067,-0.00854,-0.03708,-0.0087,0.00946,-0.05249
9.4745,-0.00641,-0.04745,-0.03677,-0.01022,-0.03311,-0.04623,-0.01282,0.00015,-0.02426,-0.02487,-0.03418,-0.00641,-0.03708,-0.00824,0.0087,-0.05966
9.475,-0.0058,-0.04623,-0.03677,-0.01053,-0.03525,-0.04578,-0.01343,0.00046,-0.07874,-0.02533,-0.04105,-0.00412,-0.04059,-0.00763,0.009,-0.06348
9.4755,-0.00366,-0.04623,-0.03662,-0.01175,-0.03693,-0.047,-0.01434,0.00107,-0.13489,-0.02518,-0.0441,-0.00198,-0.04562,-0.00717,0.00961,-0.0647
9.476,-0.00443,-0.04791,-0.03601,-0.01236,-0.03662,-0.04913,-0.0145,0.00107,-0.18143,-0.02563,-0.04028,-0.00153,-0.05051,-0.00687,0.01007,-0.06363
9.4765,-0.0061,-0.04913,-0.03632,-0.01175,-0.03601,-0.05066,-0.01465,0.00031,-0.22186,-0.0264,-0.03159,-0.00183,-0.0499,-0.00732,0.01038,-0.05981
9.477,-0.00641,-0.04944,-0.03632,-0.0116,-0.0354,-0.05051,-0.01404,-0.00046,-0.2623,-0.03113,-0.02396,-0.00198,-0.04578,-0.0087,0.00961,-0.05585
9.4775,-0.00504,-0.04898,-0.03647,-0.01251,-0.03723,-0.04883,-0.01495,-0.00046,-0.30334,-0.04257,-0.01953,-0.00137,-0.04318,-0.00946,0.009,-0.05463
9.478,-0.00397,-0.0473,-0.03632,-0.01282,-0.03769,-0.04715,-0.01648,-0.00015,-0.34576,-0.06622,-0.01877,-0.00153,-0.04288,-0.00992,0.00824,-0.05478
9.4785,-0.00351,-0.04715,-0.03479,-0.01282,-0.0386,-0.0473,-0.01755,-0.00168,-0.38116,-0.09018,-0.01511,-0.00122,-0.04349,-0.01099,0.00717,-0.05508
9.479,-0.00458,-0.04761,-0.03418,-0.01144,-0.03799,-0.04807,-0.01724,-0.00351,-0.39734,-0.10452,-0.01022,-0.00183,-0.04364,-0.01175,0.00626,-0.05676
9.4795,-0.00473,-0.04807,-0.03311,-0.00565,-0.03693,-0.0473,-0.01617,-0.00305,-0.40634,-0.10361,-0.0061,-0.00275,-0.04318,-0.0116,0.00626,-0.05737
9.48,-0.00488,-0.04745,-0.03235,0.009,-0.03586,-0.04501,-0.01587,-0.00214,-0.42679,-0.08636,-0.00519,-0.00427,-0.04196,-0.01251,0.0061,-0.05722
9.4805,-0.00458,-0.04623,-0.03052,0.03113,-0.03418,-0.04654,-0.01694,-0.00214,-0.45746,-0.05554,-0.00351,-0.00305,-0.04211,-0.01572,0.00641,-0.05432
9.481,-0.0029,-0.04562,-0.03021,0.05127,-0.03387,-0.04532,-0.0174,-0.00305,-0.4837,-0.02243,0.00107,0.0,-0.04211,-0.02045,0.009,-0.04913
9.4815,-0.00214,-0.04486,-0.03128,0.05569,-0.03265,-0.04517,-0.01541,-0.00336,-0.504,0.00534,0.00351,0.00183,-0.04059,-0.02136,0.01114,-0.04578
9.482,-0.0032,-0.04547,-0.03326,0.04105,-0.03204,-0.04547,-0.01312,-0.00275,-0.52246,0.02441,-0.00122,0.00168,-0.03815,-0.01724,0.01129,-0.04471
9.4825,-0.00488,-0.04623,-0.03296,0.01846,-0.02991,-0.04456,-0.01266,-0.00229,-0.54504,0.03815,-0.01221,0.0,-0.03586,-0.01068,0.01068,-0.04562
9.483,-0.00473,-0.04745,-0.03159,-0.0058,-0.0296,-0.04517,-0.01266,-0.00259,-0.57205,0.04745,-0.02335,-0.00122,-0.03464,-0.00427,0.00992,-0.04715
9.4835,-0.00443,-0.04929,-0.03006,-0.0444,-0.03006,-0.04532,-0.01266,-0.00244,-0.60211,0.0473,-0.03387,-0.00275,-0.03586,-0.00244,0.0087,-0.04868
9.484,-0.00595,-0.05096,-0.03052,-0.10056,-0.03036,-0.04532,-0.01297,-0.00351,-0.63065,0.03769,-0.05081,-0.00275,-0.03693,-0.00504,0.00702,-0.04868
9.4845,-0.009,-0.05112,-0.03143,-0.14969,-0.02899,-0.04547,-0.01358,-0.00443,-0.65247,0.02533,-0.07614,-0.00107,-0.03754,-0.00793,0.00519,-0.04761
9.485,-0.0116,-0.05005,-0.03174,-0.16098,-0.02823,-0.04639,-0.01404,-0.00519,-0.67184,0.01663,-0.08987,-0.00076,-0.03601,-0.0058,0.00458,-0.04639
9.4855,-0.01236,-0.04807,-0.03036,-0.1239,-0.0293,-0.047,-0.0148,-0.00519,-0.69168,0.01175,-0.07675,0.00031,-0.03326,0.0,0.0061,-0.04654
9.486,-0.01205,-0.04684,-0.03021,-0.04669,-0.03036,-0.04654,-0.01495,-0.00504,-0.71884,0.0032,-0.04562,0.00122,-0.03067,0.00549,0.0087,-0.04578
9.4865,-0.01236,-0.04669,-0.03174,0.04181,-0.03082,-0.04593,-0.01373,-0.00397,-0.75775,-0.00809,-0.02228,0.0029,-0.02945,0.00641,0.00916,-0.04349
9.487,-0.0119,-0.04715,-0.03235,0.09308,-0.03143,-0.04501,-0.01282,-0.00229,-0.79742,-0.01678,-0.01801,0.0032,-0.03036,0.00259,0.00885,-0.04166
9.4875,-0.01251,-0.0473,-0.03235,0.0766,-0.03189,-0.04547,-0.01328,-0.00168,-0.81619,-0.01877,-0.02136,0.00259,-0.03189,-0.00381,0.00916,-0.03998
9.488,-0.01389,-0.04776,-0.03052,0.01785,-0.03281,-0.04822,-0.01511,-0.00244,-0.81802,-0.0177,-0.01831,0.00168,-0.03418,-0.00992,0.00885,-0.04044
9.4885,-0.01434,-0.04761,-0.0296,-0.02945,-0.03265,-0.04898,-0.0174,-0.00458,-0.82703,-0.0177,-0.00732,0.00107,-0.03525,-0.0174,0.01022,-0.04135
9.489,-0.01465,-0.04776,-0.02838,-0.0473,-0.03372,-0.04791,-0.01801,-0.00732,-0.84305,-0.01968,0.0061,0.00092,-0.0351,-0.02502,0.01099,-0.04135
9.4895,-0.01343,-0.04715,-0.02747,-0.05661,-0.03342,-0.04456,-0.01801,-0.00931,-0.85556,-0.02182,0.0148,0.00168,-0.03281,-0.03342,0.01129,-0.03937
9.49,-0.0119,-0.04608,-0.02716,-0.06424,-0.03281,-0.04318,-0.01816,-0.00946,-0.86884,-0.02441,0.00931,0.00275,-0.02823,-0.04242,0.01175,-0.03525
9.4905,-0.01129,-0.04456,-0.02792,-0.05524,-0.03265,-0.0444,-0.01816,-0.00931,-0.88776,-0.02853,-0.00885,0.00214,-0.02426,-0.0502,0.01312,-0.03311
9.491,-0.01205,-0.04318,-0.02914,-0.01968,-0.03357,-0.04715,-0.01801,-0.00839,-0.9079,-0.03387,-0.02335,0.00046,-0.02121,-0.05585,0.01526,-0.03555
9.4915,-0.01251,-0.04333,-0.0293,0.02487,-0.03448,-0.04883,-0.01633,-0.00931,-0.92804,-0.03738,-0.02563,-0.00046,-0.01694,-0.05981,0.01572,-0.03891
9.492,-0.01114,-0.04379,-0.0293,0.05692,-0.03586,-0.04883,-0.01389,-0.01007,-0.9433,-0.04044,-0.02029,0.0,-0.01511,-0.06378,0.01251,-0.04166
9.4925,-0.00992,-0.04486,-0.03021,0.06958,-0.0351,-0.04913,-0.01373,-0.00946,-0.94727,-0.04578,-0.01526,0.00076,-0.01556,-0.0676,0.00946,-0.04257
9.493,-0.01022,-0.04425,-0.03159,0.06912,-0.0354,-0.04929,-0.01419,-0.00824,-0.95352,-0.05234,-0.01144,0.00153,-0.01892,-0.06866,0.00946,-0.04486
9.4935,-0.01007,-0.04364,-0.03098,0.06012,-0.03479,-0.04868,-0.01526,-0.00793,-0.97733,-0.05417,-0.00687,0.00107,-0.02319,-0.06348,0.01511,-0.04654
9.494,-0.009,-0.04272,-0.02899,0.04776,-0.03387,-0.04684,-0.01465,-0.00839,-1.01959,-0.04578,-0.00656,0.00015,-0.02533,-0.05234,0.0209,-0.04715
9.4945,-0.00717,-0.04272,-0.02701,0.04105,-0.03204,-0.04562,-0.01373,-0.00656,-1.06995,-0.02914,-0.01038,-0.00046,-0.0293,-0.03723,0.02136,-0.04425
9.495,-0.0058,-0.0441,-0.02686,0.04623,-0.03174,-0.04501,-0.01297,-0.0032,-1.12473,-0.01251,-0.01465,-0.00229,-0.03342,-0.02548,0.01785,-0.03967
9.4955,-0.00519,-0.0441,-0.02884,0.05325,-0.03235,-0.04593,-0.01266,-0.00244,-1.18896,0.00031,-0.01617,-0.00412,-0.0351,-0.01892,0.0119,-0.03464
9.496,-0.00595,-0.04272,-0.02975,0.04501,-0.0322,-0.04639,-0.01236,-0.0029,-1.26221,0.01099,-0.0177,-0.00488,-0.03311,-0.01633,0.00565,-0.03204
9.4965,-0.00702,-0.0415,-0.02777,0.01648,-0.03296,-0.04684,-0.0119,-0.00381,-1.32263,0.02121,-0.02167,-0.00443,-0.0325,-0.01572,0.00275,-0.03021
9.497,-0.00702,-0.04089,-0.0267,-0.01984,-0.03387,-0.04623,-0.01343,-0.0029,-1.27289,0.0296,-0.02731,-0.00259,-0.03448,-0.01556,0.00305,-0.02609
9.4975,-0.00549,-0.04105,-0.02625,-0.05112,-0.03342,-0.04562,-0.0148,-0.00275,-0.84656,0.03342,-0.03555,0.00046,-0.03723,-0.01633,0.00381,-0.02197
9.498,-0.00275,-0.04135,-0.02716,-0.07324,-0.03021,-0.04654,-0.01511,-0.00488,0.25024,0.03372,-0.04456,0.00229,-0.03738,-0.0174,0.00336,-0.02106
9.4985,-0.00061,-0.04059,-0.02731,-0.08911,-0.02762,-0.04807,-0.01511,-0.0061,1.84982,0.03357,-0.05234,0.00244,-0.03464,-0.01694,0.00305,-0.02609
9.499,-0.00015,-0.03998,-0.02686,-0.09201,-0.02884,-0.04807,-0.0145,-0.00534,3.28003,0.03525,-0.05585,0.00214,-0.0325,-0.01266,0.00504,-0.03433
9.4995,-0.00198,-0.03922,-0.0267,-0.06912,-0.03082,-0.04715,-0.01434,-0.00336,4.05899,0.03387,-0.04684,0.00229,-0.03036,-0.00534,0.00916,-0.04257
9.5,-0.00351,-0.0383,-0.02579,-0.02472,-0.02899,-0.04669,-0.01404,-0.00275,4.39667,0.02686,-0.01892,0.00229,-0.02777,0.00381,0.01312,-0.04807
9.5005,-0.00427,-0.03738,-0.02533,0.00931,-0.02945,-0.0473,-0.01495,-0.00351,4.69315,0.01419,0.01938,0.00198,-0.02609,0.01129,0.01266,-0.05463
9.501,-0.00366,-0.03632,-0.02563,0.00992,-0.0293,-0.04745,-0.01526,-0.00458,4.91913,-0.00031,0.04639,0.00046,-0.02396,0.01465,0.01007,-0.06134
9.5015,-0.00214,-0.03586,-0.02701,-0.01633,-0.02884,-0.04639,-0.01526,-0.00534,4.90967,-0.01175,0.05341,-0.00046,-0.02228,0.01404,0.00702,-0.06195
9.502,-0.00137,-0.03738,-0.02884,-0.03738,-0.02869,-0.04593,-0.01465,-0.00595,4.77631,-0.01877,0.04776,-0.00092,-0.02228,0.01221,0.00641,-0.05463
9.5025,-0.00122,-0.03998,-0.02899,-0.02792,-0.02914,-0.04669,-0.01419,-0.00641,4.71802,-0.02258,0.04059,-0.00061,-0.02502,0.00931,0.00778,-0.0441
9.503,-0.0029,-0.0412,-0.02747,0.01266,-0.03021,-0.04868,-0.01389,-0.00595,4.7319,-0.02472,0.03357,0.00458,-0.03128,0.00275,0.01129,-0.03815
9.5035,-0.0032,-0.03983,-0.02563,0.05768,-0.03143,-0.05005,-0.01297,-0.00412,4.71222,-0.0264,0.01938,0.01465,-0.03723,-0.00717,0.01678,-0.03784
9.504,-0.00244,-0.03754,-0.02609,0.06989,-0.03113,-0.0502,-0.01358,-0.0032,4.65317,-0.02808,-0.0058,0.02335,-0.04196,-0.01175,0.02228,-0.04044
9.5045,-0.00275,-0.03662,-0.02838,0.03571,-0.03143,-0.05066,-0.01236,-0.0032,4.60999,-0.02869,-0.03448,0.0264,-0.0473,-0.00793,0.02258,-0.04562
9.505,-0.00381,-0.03647,-0.02991,-0.0119,-0.03189,-0.05142,-0.0119,-0.00412,4.59,-0.02884,-0.05005,0.01999,-0.0531,0.0,0.01678,-0.05081
9.5055,-0.00458,-0.03632,-0.0296,-0.03326,-0.0322,-0.05188,-0.01205,-0.00336,4.56284,-0.0296,-0.04791,0.00809,-0.05432,0.00305,0.00854,-0.05463
9.506,-0.00488,-0.0383,-0.03021,-0.01923,-0.03159,-0.05173,-0.0119,-0.00229,4.52347,-0.02975,-0.03998,-0.00397,-0.05051,-0.00412,0.00443,-0.05188
9.5065,-0.00519,-0.04028,-0.03128,0.00732,-0.03052,-0.05203,-0.0116,-0.00229,4.48654,-0.02869,-0.03677,-0.01373,-0.04333,-0.02274,0.00504,-0.04364
9.507,-0.00488,-0.04181,-0.03326,0.02686,-0.0293,-0.05173,-0.01205,-0.00214,4.45648,-0.03113,-0.03494,-0.01892,-0.03891,-0.047,0.00809,-0.03036
9.5075,-0.00504,-0.04059,-0.03311,0.03433,-0.03036,-0.05112,-0.0116,-0.00137,4.42535,-0.04166,-0.02548,-0.01938,-0.03601,-0.07004,0.01205,-0.01724
9.508,-0.00595,-0.03922,-0.03189,0.02762,-0.03067,-0.05051,-0.01312,-0.00107,4.36829,-0.06088,-0.01785,-0.0174,-0.03357,-0.08606,0.01617,-0.0119
9.5085,-0.00717,-0.03738,-0.03159,0.00504,-0.03098,-0.04959,-0.0148,-0.00168,4.15588,-0.08057,-0.01846,-0.01617,-0.03067,-0.09094,0.02319,-0.01617
9.509,-0.00656,-0.03555,-0.03281,-0.02411,-0.03052,-0.04974,-0.01434,-0.00183,3.59802,-0.08926,-0.03021,-0.0145,-0.02914,-0.08759,0.02823,-0.02502
9.5095,-0.00504,-0.03479,-0.03387,-0.04028,-0.02975,-0.05051,-0.01343,-0.00153,2.77771,-0.07645,-0.03952,-0.01068,-0.03036,-0.0824,0.02045,-0.03189
9.51,-0.00153,-0.03571,-0.03342,-0.03769,-0.03036,-0.05081,-0.01221,-0.00122,2.06955,-0.0502,-0.03693,-0.0058,-0.0325,-0.07599,-0.00214,-0.03723
9.5105,-0.00031,-0.03693,-0.03357,-0.02869,-0.03128,-0.0502,-0.01236,-0.0029,1.65771,-0.02518,-0.02396,-0.0029,-0.03601,-0.06561,-0.02777,-0.04623
9.511,0.00015,-0.03662,-0.03326,-0.02441,-0.03143,-0.04822,-0.01297,-0.00534,1.24725,-0.00931,-0.0116,-0.00351,-0.03922,-0.04868,-0.0412,-0.05722
9.5115,0.00061,-0.03418,-0.03448,-0.0235,-0.03082,-0.04791,-0.01434,-0.00641,0.51819,0.0,-0.00443,-0.00229,-0.0415,-0.02762,-0.03845,-0.06638
9.512,0.00061,-0.03296,-0.03662,-0.02075,-0.02945,-0.04898,-0.01587,-0.00504,-0.41901,0.00748,-0.00046,-0.00031,-0.04196,-0.00854,-0.02655,-0.06805
9.5125,0.00061,-0.03387,-0.03586,-0.01434,-0.02945,-0.05096,-0.01495,-0.00336,-1.29395,0.01465,0.00259,0.00214,-0.04044,0.00381,-0.01297,-0.06424
9.513,0.00046,-0.03464,-0.03464,-0.00763,-0.03036,-0.05264,-0.01312,-0.0029,-2.16461,0.01892,0.00259,0.00153,-0.03738,0.01251,0.00443,-0.05997
9.5135,-0.00015,-0.03464,-0.03418,-0.00443,-0.03281,-0.05203,-0.01236,-0.0029,-3.27423,0.02625,-0.00275,-0.00015,-0.03403,0.01877,0.02075,-0.05829
9.514,-0.00076,-0.0325,-0.0354,-0.00229,-0.03296,-0.05051,-0.01266,-0.0029,-4.47601,0.03952,-0.01282,-0.00153,-0.03128,0.02121,0.02411,-0.05768
9.5145,0.00015,-0.03052,-0.03647,0.00381,-0.03311,-0.04868,-0.01358,-0.00214,-4.9675,0.05234,-0.02884,-0.00122,-0.02884,0.01694,0.01053,-0.05829
9.515,0.00244,-0.02808,-0.03601,0.01602,-0.03326,-0.04745,-0.01373,-0.00061,-4.97467,0.05493,-0.04272,0.00015,-0.02731,0.00717,-0.00183,-0.05875
9.5155,0.00351,-0.02838,-0.03479,0.02716,-0.03403,-0.04669,-0.01389,0.00092,-4.93637,0.04272,-0.04684,0.00305,-0.02533,0.0,0.00046,-0.05585
9.516,0.00336,-0.0296,-0.03586,0.02655,-0.0351,-0.04639,-0.01419,0.00122,-4.92737,0.02228,-0.04852,0.00519,-0.0235,0.00183,0.01419,-0.04791
9.5165,0.00259,-0.02991,-0.03754,0.01389,-0.03418,-0.04578,-0.01419,0.00015,-4.97574,0.00305,-0.06927,0.00595,-0.02274,0.009,0.02457,-0.04059
9.517,0.00183,-0.03006,-0.03723,0.00076,-0.03311,-0.04669,-0.01511,-0.00153,-4.97589,-0.01099,-0.10315,0.00656,-0.02289,0.0145,0.02289,-0.04013
9.5175,0.00198,-0.03021,-0.03586,-0.00107,-0.03326,-0.04776,-0.01526,-0.00336,-4.97559,-0.02121,-0.11475,0.0087,-0.02502,0.01282,0.0145,-0.04456
9.518,0.00137,-0.03113,-0.03525,0.00504,-0.0351,-0.04761,-0.01587,-0.00473,-4.97787,-0.02747,-0.07797,0.00931,-0.02792,0.00305,0.00458,-0.04715
9.5185,0.00122,-0.03143,-0.03418,0.00565,-0.03632,-0.04654,-0.01556,-0.00488,-4.97681,-0.03113,-0.01144,0.00839,-0.03052,-0.01022,0.00031,-0.04608
9.519,0.00092,-0.03143,-0.03357,-0.00427,-0.03464,-0.04669,-0.01465,-0.00397,-4.97559,-0.03342,0.0473,0.0058,-0.03204,-0.01984,0.00076,-0.0441
9.5195,0.00153,-0.03204,-0.03387,-0.01694,-0.03281,-0.0473,-0.01419,-0.00198,-4.97513,-0.03464,0.08453,0.00275,-0.0325,-0.02274,0.0032,-0.04333
9.52,0.00198,-0.03204,-0.03433,-0.03128,-0.03143,-0.04669,-0.01404,-0.00015,-4.97482,-0.03601,0.10468,-0.00092,-0.03128,-0.0206,0.00656,-0.04349
9.5205,0.00214,-0.03311,-0.0351,-0.05569,-0.03098,-0.047,-0.01312,-0.00031,-4.84558,-0.03677,0.11108,-0.00824,-0.02869,-0.01831,0.00549,-0.04211
9.521,0.00168,-0.03281,-0.03693,-0.09003,-0.03052,-0.04654,-0.01205,-0.00168,-4.3956,-0.03586,0.10483,-0.01846,-0.0264,-0.01648,-0.00336,-0.03754
9.5215,0.00168,-0.03143,-0.03784,-0.11765,-0.03021,-0.04578,-0.01236,-0.0029,-3.67371,-0.03143,0.08301,-0.02441,-0.02747,-0.01404,-0.01923,-0.02838
9.522,0.00244,-0.03098,-0.03815,-0.1239,-0.03098,-0.04501,-0.01251,-0.00381,-3.07037,-0.02884,0.047,-0.01617,-0.02808,-0.01251,-0.03494,-0.01984
9.5225,0.00259,-0.03128,-0.03769,-0.11841,-0.03174,-0.04425,-0.01175,-0.00412,-2.79556,-0.02518,0.00961,0.00427,-0.02899,-0.01343,-0.03983,-0.01831
9.523,0.00259,-0.03174,-0.03647,-0.11917,-0.03128,-0.04486,-0.01099,-0.00488,-2.64709,-0.02289,-0.00504,0.0177,-0.03021,-0.01404,-0.03296,-0.02167
9.5235,0.00259,-0.03296,-0.03586,-0.11917,-0.03052,-0.04593,-0.0116,-0.00397,-2.40265,-0.01938,0.00565,0.01633,-0.03296,-0.0119,-0.02899,-0.02121
9.524,0.00366,-0.03494,-0.03571,-0.09689,-0.03021,-0.04776,-0.01236,-0.00305,-2.10693,-0.01541,0.02426,0.01602,-0.03693,-0.00763,-0.03632,-0.01343
9.5245,0.00595,-0.03708,-0.03662,-0.04669,-0.03128,-0.04883,-0.01343,-0.00183,-1.88065,-0.01205,0.03418,0.03235,-0.03998,-0.00519,-0.03815,-0.0029
9.525,0.00732,-0.03662,-0.03662,0.0116,-0.03342,-0.05081,-0.01434,-0.00214,-1.71555,-0.01266,0.03403,0.05035,-0.04028,-0.00412,-0.00061,-0.00244
9.5255,0.00671,-0.0354,-0.03601,0.05676,-0.03387,-0.04959,-0.01404,-0.00412,-1.53778,-0.01541,0.02655,0.04562,-0.03754,0.00015,0.07446,-0.01724
9.526,0.0058,-0.03418,-0.03677,0.08698,-0.03296,-0.04745,-0.01434,-0.00595,-1.34552,-0.01709,0.01282,0.02243,-0.03479,0.01038,0.13306,-0.04166
9.5265,0.00595,-0.03204,-0.03693,0.10696,-0.03174,-0.047,-0.01389,-0.00641,-1.18759,-0.01801,-0.00107,0.00244,-0.03372,0.02029,0.12573,-0.06119
9.527,0.00671,-0.03204,-0.03616,0.11093,-0.03021,-0.04715,-0.0145,-0.0058,-1.08597,-0.01785,-0.01175,-0.0032,-0.03357,0.02213,0.06332,-0.06561
9.5275,0.00626,-0.03387,-0.03601,0.09537,-0.03052,-0.04898,-0.0148,-0.0058,-1.00708,-0.01694,-0.02106,-0.00214,-0.03342,0.01511,0.00458,-0.0618
9.528,0.00427,-0.03632,-0.03662,0.06973,-0.03143,-0.0502,-0.01602,-0.00641,-0.91461,-0.01266,-0.03372,-0.00153,-0.03296,0.00427,-0.01587,-0.06332
9.5285,0.00244,-0.03784,-0.03723,0.04745,-0.03036,-0.05051,-0.01709,-0.00809,-0.8139,-0.00992,-0.047,-0.00046,-0.03448,-0.00305,-0.00534,-0.07233
9.529,0.00092,-0.03845,-0.03723,0.03021,-0.03006,-0.05051,-0.01816,-0.00931,-0.73318,-0.00916,-0.0621,0.0032,-0.03815,-0.00687,0.01282,-0.07706
9.5295,0.00153,-0.03845,-0.03632,0.01236,-0.02914,-0.0499,-0.0177,-0.00946,-0.67093,-0.01175,-0.07614,0.00763,-0.04211,-0.00778,0.02838,-0.06943
9.53,0.00046,-0.03708,-0.03616,-0.00061,-0.02853,-0.04807,-0.01678,-0.00809,-0.60989,-0.01587,-0.08133,0.00824,-0.04532,-0.01038,0.04044,-0.05219
9.5305,-0.00168,-0.03693,-0.03479,-0.00305,-0.0293,-0.04593,-0.01572,-0.0058,-0.54474,-0.01846,-0.07935,0.0061,-0.04684,-0.01709,0.05814,-0.03433
9.531,-0.00412,-0.03876,-0.03326,0.00229,-0.02991,-0.04532,-0.01389,-0.00488,-0.47577,-0.01572,-0.07217,0.00412,-0.04639,-0.03174,0.07706,-0.0174
9.5315,-0.00443,-0.04089,-0.03204,0.00137,-0.03067,-0.04501,-0.01373,-0.00412,-0.40802,-0.00854,-0.06653,0.00214,-0.04395,-0.04868,0.07843,-0.00427
9.532,-0.00381,-0.04028,-0.03281,-0.01053,-0.03143,-0.04547,-0.01373,-0.00214,-0.35385,-0.00412,-0.06271,-0.00015,-0.0415,-0.06577,0.04883,0.00076
9.5325,-0.0029,-0.03799,-0.03525,-0.02655,-0.03159,-0.04562,-0.0145,-0.00137,-0.30807,-0.01083,-0.056,-0.00336,-0.03876,-0.07233,-0.00336,-0.00275
9.533,-0.0029,-0.03677,-0.03571,-0.03754,-0.03113,-0.04471,-0.01511,-0.00153,-0.25253,-0.02258,-0.0473,-0.00595,-0.03342,-0.0676,-0.05264,-0.00763
9.5335,-0.00427,-0.03754,-0.03418,-0.04486,-0.0293,-0.0444,-0.01373,-0.00381,-0.19318,-0.03021,-0.03601,-0.00626,-0.0267,-0.05493,-0.07858,-0.01175
9.534,-0.00488,-0.03906,-0.0322,-0.05035,-0.02792,-0.04379,-0.0116,-0.00473,-0.15091,-0.03006,-0.02518,-0.00458,-0.02014,-0.0354,-0.07584,-0.01999
9.5345,-0.00488,-0.03906,-0.03189,-0.04761,-0.02533,-0.04456,-0.01205,-0.0032,-0.12894,-0.0206,-0.01923,-0.00259,-0.01572,-0.01358,-0.06409,-0.03677
9.535,-0.00687,-0.03845,-0.03281,-0.02655,-0.0264,-0.04623,-0.01297,-0.00061,-0.1152,-0.00946,-0.01572,-0.00229,-0.01404,0.01358,-0.06241,-0.05676
9.5355,-0.00992,-0.03876,-0.03174,0.0058,-0.02899,-0.047,-0.01343,0.00076,-0.09857,-0.00214,-0.01205,-0.00153,-0.0148,0.04242,-0.06729,-0.07095
9.536,-0.01007,-0.04044,-0.03128,0.02792,-0.03174,-0.04715,-0.01419,0.00198,-0.08148,-0.00412,-0.00916,0.00076,-0.01694,0.06317,-0.06439,-0.07339
9.5365,-0.0087,-0.04105,-0.03235,0.02502,-0.0322,-0.0473,-0.01434,0.00275,-0.06577,-0.01419,-0.00763,0.00473,-0.02014,0.06668,-0.05112,-0.06561
9.537,-0.00595,-0.04135,-0.03281,0.0061,-0.03082,-0.04807,-0.01434,0.00183,-0.05035,-0.02228,-0.009,0.00717,-0.02396,0.05753,-0.02975,-0.05432
9.5375,-0.00504,-0.04272,-0.03265,-0.00732,-0.03067,-0.04822,-0.01389,-0.00061,-0.0351,-0.02045,-0.00961,0.00626,-0.02853,0.03708,0.00992,-0.04379
9.538,-0.00427,-0.04364,-0.03265,-0.00305,-0.03204,-0.04883,-0.01343,-0.00198,-0.01953,-0.01572,-0.01114,0.0032,-0.03281,0.01038,0.08591,-0.03448
9.5385,-0.00244,-0.04257,-0.03281,0.01068,-0.03204,-0.04852,-0.0119,-0.00122,-0.00305,-0.01556,-0.01602,-0.00122,-0.03693,-0.02243,0.16678,-0.02579
9.539,0.00015,-0.04105,-0.03174,0.01724,-0.03113,-0.04929,-0.0119,0.00031,0.01907,-0.01999,-0.02365,-0.00519,-0.0386,-0.05585,0.1918,-0.0235
9.5395,0.00092,-0.04074,-0.03128,0.0116,-0.03006,-0.04868,-0.01114,0.00153,0.04608,-0.02182,-0.02762,-0.00778,-0.03738,-0.08438,0.14023,-0.0322
9.54,0.00031,-0.04089,-0.03113,0.00671,-0.02945,-0.04974,-0.0119,0.00305,0.06943,-0.01678,-0.0264,-0.00809,-0.03479,-0.11108,0.06332,-0.04364
9.5405,-0.00046,-0.04227,-0.03159,0.02121,-0.0293,-0.05142,-0.0119,0.00412,0.07538,-0.01007,-0.02106,-0.0061,-0.0354,-0.13107,0.01862,-0.04196
9.541,0.00046,-0.04379,-0.03235,0.04486,-0.03021,-0.05127,-0.01144,0.0029,0.07187,-0.00687,-0.02014,-0.0029,-0.03738,-0.14603,-0.00092,-0.02487
9.5415,0.00107,-0.04303,-0.03235,0.04669,-0.03128,-0.04974,-0.0116,0.0,0.08087,-0.01053,-0.02365,0.00015,-0.03906,-0.15533,-0.03052,-0.00397
9.542,0.00137,-0.04303,-0.03311,0.02014,-0.03113,-0.04837,-0.01282,-0.00336,0.09979,-0.01953,-0.03357,0.00381,-0.04044,-0.15381,-0.06714,0.0119
9.5425,0.00214,-0.04272,-0.03357,-0.00992,-0.03082,-0.04715,-0.01236,-0.00336,0.10864,-0.02838,-0.0502,0.00748,-0.04303,-0.14252,-0.08286,0.01923
9.543,0.00381,-0.04349,-0.03296,-0.02274,-0.03098,-0.0473,-0.01068,-0.00137,0.10895,-0.03204,-0.06592,0.00824,-0.04684,-0.13,-0.07828,0.01266
9.5435,0.00412,-0.04288,-0.03326,-0.02747,-0.03128,-0.0473,-0.00961,-0.00046,0.11841,-0.02869,-0.0647,0.00702,-0.04898,-0.11963,-0.08255,-0.01297
9.544,0.00214,-0.04303,-0.03448,-0.04105,-0.03128,-0.0473,-0.01083,-0.00122,0.13611,-0.02075,-0.04318,0.00473,-0.0473,-0.1062,-0.1001,-0.04715
9.5445,-0.00015,-0.04257,-0.03601,-0.06744,-0.02914,-0.04562,-0.01419,-0.00336,0.15656,-0.01419,-0.01144,0.00259,-0.04349,-0.08331,-0.08728,-0.0679
9.545,-0.00061,-0.04242,-0.03632,-0.0946,-0.02777,-0.04349,-0.01648,-0.00519,0.17822,-0.00961,0.01602,-0.00061,-0.03937,-0.05127,-0.00443,-0.06668
9.5455,0.00015,-0.04288,-0.03632,-0.10468,-0.02762,-0.04318,-0.01678,-0.0061,0.19653,-0.00946,0.0267,-0.00412,-0.0351,-0.0206,0.09811,-0.06027
9.546,-0.00015,-0.04379,-0.03372,-0.08636,-0.02838,-0.04578,-0.01648,-0.00565,0.21454,-0.01282,0.01556,-0.00458,-0.03098,0.00427,0.12268,-0.06668
9.5465,0.00031,-0.04501,-0.03326,-0.05066,-0.03021,-0.04761,-0.01678,-0.00565,0.24384,-0.02045,-0.01801,-0.00305,-0.02731,0.02426,0.06577,-0.07553
9.547,0.00137,-0.04471,-0.03326,-0.0235,-0.03143,-0.04852,-0.01801,-0.00595,0.27466,-0.02701,-0.07034,-0.00183,-0.02502,0.0415,0.01877,-0.06454
9.5475,0.00275,-0.04333,-0.03387,-0.01877,-0.03265,-0.04929,-0.01877,-0.00702,0.29037,-0.02792,-0.12039,-0.00305,-0.02396,0.05859,0.0528,-0.04105
9.548,0.00244,-0.04242,-0.03342,-0.02136,-0.03403,-0.05035,-0.0174,-0.00778,0.29114,-0.02579,-0.13519,-0.00381,-0.02625,0.07187,0.12543,-0.03647
9.5485,0.00198,-0.04364,-0.03265,-0.01373,-0.03418,-0.0502,-0.01602,-0.00763,0.29114,-0.02762,-0.10147,-0.00168,-0.02808,0.0766,0.15259,-0.05402
9.549,0.00122,-0.04578,-0.03281,-0.00076,-0.03342,-0.04944,-0.01556,-0.00595,0.30319,-0.03464,-0.04562,0.00061,-0.02823,0.07523,0.10681,-0.06195
9.5495,-0.00107,-0.04517,-0.03433,0.00214,-0.03128,-0.04639,-0.01602,-0.00366,0.32761,-0.0412,-0.00351,0.00015,-0.02365,0.07278,0.02899,-0.04303
9.55,-0.00488,-0.04379,-0.0354,-0.01129,-0.02991,-0.04532,-0.01587,-0.00275,0.35797,-0.04349,0.01297,-0.00259,-0.01877,0.0737,-0.03464,-0.01266
9.5505,-0.00793,-0.04227,-0.03677,-0.03204,-0.02991,-0.04501,-0.01556,-0.0032,0.38666,-0.04501,0.02136,-0.00504,-0.01663,0.06683,-0.06683,0.01099
9.551,-0.00717,-0.04303,-0.03677,-0.04623,-0.03082,-0.04501,-0.01358,-0.00305,0.40726,-0.05188,0.02869,-0.00366,-0.02014,0.04776,-0.07233,0.03281
9.5515,-0.00351,-0.04425,-0.03647,-0.04669,-0.03159,-0.04639,-0.01205,-0.00214,0.41214,-0.06714,0.0383,0.00107,-0.02625,0.01907,-0.06042,0.06241
9.552,-0.00107,-0.0441,-0.03555,-0.03571,-0.03204,-0.0473,-0.01144,-0.00198,0.39932,-0.07599,0.05615,0.00504,-0.03128,-0.00824,-0.03708,0.08377
9.5525,0.00046,-0.04349,-0.03479,-0.01862,-0.03235,-0.04837,-0.01419,-0.00336,0.38116,-0.06897,0.07751,0.00443,-0.03204,-0.0267,-0.00778,0.07309
9.553,0.00046,-0.0444,-0.03464,-0.00092,-0.03235,-0.04807,-0.01572,-0.00336,0.36774,-0.04333,0.08682,0.00214,-0.02808,-0.0386,0.01205,0.02762
9.5535,-0.00015,-0.04654,-0.0351,0.01556,-0.03128,-0.04807,-0.01526,-0.00351,0.35629,-0.01221,0.07538,0.0,-0.02289,-0.0499,0.01328,-0.03143
9.554,-0.00061,-0.047,-0.03586,0.02899,-0.02945,-0.04837,-0.01328,-0.00198,0.33417,0.01083,0.05554,0.00061,-0.0174,-0.06058,0.02258,-0.08392
9.5545,-0.00214,-0.047,-0.03754,0.03784,-0.02899,-0.04944,-0.01389,-0.00153,0.30396,0.01587,0.04318,0.00153,-0.01389,-0.06363,0.07187,-0.11932
9.555,-0.0029,-0.04669,-0.03738,0.04074,-0.03036,-0.04807,-0.01663,-0.00305,0.28992,0.00809,0.03983,-0.00031,-0.01083,-0.05737,0.12939,-0.13275
9.5555,-0.00229,-0.04608,-0.03784,0.0325,-0.03235,-0.04578,-0.01816,-0.00504,0.29251,-0.00397,0.03555,-0.00427,-0.00961,-0.04425,0.12085,-0.11902
9.556,-0.00107,-0.04684,-0.03754,0.00168,-0.03326,-0.04623,-0.0174,-0.00549,0.29053,-0.01114,0.02548,-0.00671,-0.01129,-0.03098,0.03448,-0.09003
9.5565,0.00015,-0.04501,-0.03708,-0.05096,-0.03326,-0.04639,-0.01526,-0.00381,0.28091,-0.01816,0.01404,-0.00534,-0.01465,-0.02106,-0.04364,-0.06668
9.557,-0.00076,-0.0444,-0.03876,-0.11002,-0.03387,-0.04745,-0.01511,-0.0029,0.27161,-0.02808,0.0058,-0.00259,-0.01938,-0.01434,-0.03662,-0.05905
9.5575,-0.00351,-0.04456,-0.03769,-0.15549,-0.03326,-0.0473,-0.01511,-0.00153,0.26154,-0.03571,0.0,-0.00031,-0.02335,-0.00839,0.03998,-0.06516
9.558,-0.00488,-0.04639,-0.03677,-0.18082,-0.03357,-0.04486,-0.01465,-0.00137,0.24841,-0.02991,-0.00473,0.00076,-0.0267,0.00061,0.10376,-0.07278
9.5585,-0.00534,-0.0473,-0.03799,-0.18387,-0.03357,-0.04349,-0.01328,-0.00168,0.23605,-0.01251,-0.00656,0.00366,-0.03036,0.01343,0.09445,-0.0798
9.559,-0.00504,-0.04807,-0.03754,-0.17197,-0.03433,-0.04578,-0.01236,-0.00137,0.22018,0.00748,-0.009,0.00504,-0.03281,0.02441,0.03418,-0.08591
9.5595,-0.00534,-0.04807,-0.0386,-0.16281,-0.03387,-0.0473,-0.01221,-0.00153,0.2124,0.01801,-0.01175,0.00259,-0.03326,0.02914,-0.01587,-0.09399
9.56,-0.00595,-0.04776,-0.0386,-0.17242,-0.03128,-0.04639,-0.0119,-0.00137,0.22461,0.01846,-0.01755,-0.00031,-0.03235,0.02716,-0.02457,-0.11108
9.5605,-0.00549,-0.047,-0.03891,-0.18433,-0.03036,-0.04501,-0.0116,-0.00229,0.24338,0.01236,-0.0267,0.00092,-0.0351,0.02182,-0.01038,-0.14328
9.561,-0.00504,-0.0444,-0.03922,-0.16174,-0.03052,-0.04517,-0.01282,-0.00351,0.24231,0.00473,-0.03494,0.00443,-0.04181,0.01404,0.00626,-0.18234
9.5615,-0.00427,-0.04227,-0.04105,-0.07889,-0.03204,-0.04623,-0.01404,-0.00427,0.22125,-0.00565,-0.04608,0.00671,-0.05096,0.00427,0.01816,-0.20569
9.562,-0.00488,-0.04242,-0.0412,0.05356,-0.03189,-0.04669,-0.01358,-0.00259,0.19882,-0.01724,-0.07874,0.00443,-0.05829,-0.00839,0.02441,-0.19455
9.5625,-0.00534,-0.04471,-0.0412,0.18707,-0.03113,-0.04578,-0.01251,0.00076,0.18509,-0.02975,-0.13962,-0.00015,-0.06149,-0.02075,0.02014,-0.15564
9.563,-0.00534,-0.04547,-0.03937,0.26291,-0.02975,-0.04608,-0.01053,0.00244,0.17532,-0.04227,-0.19409,-0.00366,-0.06058,-0.03052,0.0058,-0.11383
9.5635,-0.00504,-0.04486,-0.03876,0.24796,-0.0293,-0.04715,-0.01053,0.00061,0.16586,-0.04852,-0.19516,-0.00687,-0.05814,-0.04013,-0.01144,-0.08728
9.564,-0.00595,-0.04456,-0.04105,0.16815,-0.0293,-0.04745,-0.0116,-0.00107,0.15854,-0.04883,-0.13718,-0.00885,-0.05798,-0.04974,-0.02991,-0.07935
9.5645,-0.00565,-0.04456,-0.04196,0.08759,-0.02975,-0.04776,-0.01266,-0.00046,0.15579,-0.04211,-0.06271,-0.00732,-0.06104,-0.06027,-0.04669,-0.08636
9.565,-0.00366,-0.04486,-0.04333,0.05432,-0.03021,-0.04761,-0.01282,0.00015,0.15045,-0.03769,-0.00732,-0.00381,-0.06439,-0.06714,-0.05875,-0.1091
9.5655,-0.00198,-0.04501,-0.04181,0.06058,-0.03128,-0.04852,-0.01282,-0.00076,0.13962,-0.04059,0.02975,-0.00092,-0.0647,-0.06775,-0.07339,-0.1442
9.566,-0.00214,-0.04532,-0.04059,0.07019,-0.03296,-0.0499,-0.01373,-0.00351,0.12222,-0.05569,0.05936,0.0,-0.05997,-0.05966,-0.08011,-0.16907
9.5665,-0.00305,-0.04562,-0.04059,0.06424,-0.0354,-0.0499,-0.0148,-0.00381,0.10101,-0.06973,0.08621,-0.00076,-0.05219,-0.04745,-0.06104,-0.14877
9.567,-0.00412,-0.04562,-0.04013,0.05371,-0.0351,-0.04929,-0.01526,-0.00366,0.07187,-0.07385,0.10147,-0.00153,-0.04333,-0.03387,-0.0119,-0.0856
9.5675,-0.00458,-0.04517,-0.03922,0.04868,-0.03479,-0.04913,-0.01541,-0.00336,0.02884,-0.06836,0.10696,-0.00031,-0.03876,-0.02106,0.04532,-0.0267
9.568,-0.00534,-0.04425,-0.03784,0.04684,-0.03387,-0.04974,-0.01404,-0.00488,-0.0174,-0.05737,0.10254,0.00137,-0.03723,-0.00885,0.07813,-0.0061
9.5685,-0.00473,-0.04318,-0.03784,0.04105,-0.03372,-0.0502,-0.01404,-0.00488,-0.04196,-0.04791,0.09186,0.0029,-0.03876,0.00015,0.05768,-0.01099
9.569,-0.00549,-0.04318,-0.03922,0.0325,-0.03403,-0.04944,-0.01312,-0.00488,-0.0502,-0.04211,0.07629,0.00366,-0.03937,0.00275,-0.01205,-0.01419
9.5695,-0.00534,-0.04379,-0.03754,0.02472,-0.03464,-0.04807,-0.01251,-0.00504,-0.06805,-0.03525,0.05844,0.00366,-0.03799,-0.00031,-0.09216,-0.00931
9.57,-0.00656,-0.04486,-0.03769,0.01984,-0.03342,-0.04623,-0.0119,-0.00549,-0.09262,-0.02625,0.03891,0.00458,-0.03647,-0.00641,-0.10864,-0.00305
9.5705,-0.00854,-0.04456,-0.03754,0.01541,-0.03265,-0.04593,-0.01328,-0.00534,-0.10086,-0.01709,0.01816,0.00565,-0.03357,-0.00748,-0.03113,-0.00107
9.571,-0.009,-0.0441,-0.03952,0.00839,-0.03189,-0.04593,-0.01358,-0.00412,-0.08255,-0.01068,-0.00076,0.00504,-0.03113,-0.00229,0.07843,-0.00183
9.5715,-0.00809,-0.04227,-0.03876,0.0,-0.03281,-0.04547,-0.01312,-0.00153,-0.03555,-0.00275,-0.01373,0.00244,-0.02747,0.00519,0.11276,-0.00519
9.572,-0.00687,-0.04105,-0.0383,-0.00931,-0.03296,-0.04654,-0.01312,-0.00015,0.02167,0.01205,-0.02106,-0.00076,-0.0235,0.01144,0.05066,-0.00488
9.5725,-0.00778,-0.04181,-0.03723,-0.01617,-0.03311,-0.0473,-0.01419,-0.00031,0.05295,0.03448,-0.02457,-0.00122,-0.02151,0.01602,-0.01984,0.00137
9.573,-0.00854,-0.04272,-0.03845,-0.01938,-0.03235,-0.04654,-0.01434,-0.00168,0.04532,0.05432,-0.02762,-0.00092,-0.02167,0.02106,-0.0351,0.0148
9.5735,-0.00793,-0.04425,-0.03876,-0.01801,-0.03189,-0.047,-0.01297,-0.0032,0.01953,0.06271,-0.02945,0.00076,-0.02396,0.02396,-0.01862,0.02213
9.574,-0.00641,-0.04333,-0.03754,-0.01709,-0.03296,-0.04791,-0.0119,-0.00473,-0.00549,0.06042,-0.02808,0.00183,-0.0267,0.02304,-0.01953,0.02167
9.5745,-0.00549,-0.04257,-0.03632,-0.01663,-0.03265,-0.04929,-0.01083,-0.0058,-0.01572,0.05356,-0.02609,0.00275,-0.02747,0.0209,-0.03738,0.01907
9.575,-0.00641,-0.04303,-0.03479,-0.01755,-0.03204,-0.04745,-0.01068,-0.00595,0.01587,0.04288,-0.02274,0.00214,-0.0267,0.01892,-0.04242,0.01709
9.5755,-0.00748,-0.04364,-0.03525,-0.01831,-0.0322,-0.04517,-0.01175,-0.00458,0.11246,0.02884,-0.02167,0.00015,-0.02502,0.01587,-0.01221,0.01541
9.576,-0.00778,-0.04272,-0.03662,-0.01801,-0.03143,-0.04425,-0.01297,-0.00336,0.26047,0.0148,-0.02167,-0.00183,-0.02487,0.00732,0.04379,0.0116
9.5765,-0.00778,-0.04105,-0.03754,-0.01785,-0.0325,-0.04608,-0.01389,-0.00336,0.41412,0.0032,-0.02701,-0.00534,-0.02563,-0.00504,0.09109,0.00458
9.577,-0.00778,-0.03922,-0.03708,-0.01816,-0.03159,-0.04807,-0.0145,-0.00305,0.54688,-0.00458,-0.03525,-0.00702,-0.02518,-0.01587,0.08698,-0.0032
9.5775,-0.009,-0.03845,-0.03433,-0.02045,-0.03082,-0.04913,-0.0145,-0.00153,0.65659,-0.01038,-0.0412,-0.00748,-0.02533,-0.02335,0.04379,-0.00961
9.578,-0.01007,-0.04044,-0.03403,-0.02136,-0.03174,-0.04959,-0.01465,-0.00076,0.74524,-0.01419,-0.03967,-0.00763,-0.02716,-0.03021,0.00595,-0.009
9.5785,-0.01129,-0.04272,-0.03387,-0.0209,-0.03113,-0.04822,-0.01556,-0.00244,0.82245,-0.01465,-0.03571,-0.00824,-0.02823,-0.03967,-0.00275,-0.00061
9.579,-0.01022,-0.04486,-0.03403,-0.01953,-0.03082,-0.0473,-0.01633,-0.00504,0.92117,-0.01389,-0.03174,-0.00793,-0.02716,-0.05219,-0.00168,0.01465
9.5795,-0.00717,-0.04578,-0.03342,-0.02014,-0.03113,-0.04669,-0.01602,-0.00595,1.04324,-0.01266,-0.02869,-0.00488,-0.02274,-0.06256,-0.00961,0.03601
9.58,-0.0058,-0.04456,-0.03372,-0.02472,-0.03082,-0.04654,-0.0148,-0.00473,1.13586,-0.01251,-0.02625,-0.00031,-0.01938,-0.06821,-0.02029,0.05585
9.5805,-0.00809,-0.04318,-0.03265,-0.03159,-0.0325,-0.04715,-0.01434,-0.00366,1.15341,-0.01602,-0.02365,0.00076,-0.01633,-0.07187,-0.02121,0.06424
9.581,-0.01114,-0.04196,-0.0325,-0.03723,-0.03265,-0.04623,-0.01358,-0.00244,1.11694,-0.0209,-0.02045,-0.00061,-0.01465,-0.07767,-0.01617,0.06058
9.5815,-0.01297,-0.04242,-0.03204,-0.03906,-0.03189,-0.04486,-0.01236,-0.00107,1.09467,-0.02319,-0.01801,-0.00275,-0.01328,-0.08621,-0.00671,0.05783
9.582,-0.01312,-0.04364,-0.03372,-0.03998,-0.03189,-0.04562,-0.0116,-0.00107,1.1264,-0.02121,-0.01587,-0.00275,-0.01099,-0.09048,0.01343,0.06866
9.5825,-0.01328,-0.04379,-0.03448,-0.04547,-0.03098,-0.04791,-0.0119,-0.00092,1.17233,-0.01846,-0.01755,-0.00076,-0.00748,-0.08713,0.04272,0.08392
9.583,-0.01312,-0.04486,-0.03479,-0.06165,-0.03052,-0.04959,-0.01251,-0.00137,1.15906,-0.01862,-0.02609,-0.00061,-0.00519,-0.07996,0.06195,0.08026
9.5835,-0.01236,-0.04471,-0.03479,-0.08545,-0.03143,-0.04807,-0.01251,-0.0032,1.07559,-0.02167,-0.04089,-0.00214,-0.00809,-0.06943,0.05402,0.0502
9.584,-0.01144,-0.04242,-0.03372,-0.10712,-0.0322,-0.04776,-0.01282,-0.00488,0.95367,-0.02594,-0.05478,-0.00153,-0.01465,-0.05142,0.02609,0.01144
9.5845,-0.01144,-0.03967,-0.03342,-0.11917,-0.03235,-0.04822,-0.01328,-0.00397,0.8197,-0.03189,-0.05753,0.00366,-0.02121,-0.0296,0.00366,-0.01526
9.585,-0.01129,-0.03891,-0.03189,-0.12344,-0.0293,-0.04761,-0.01266,-0.00229,0.70114,-0.03662,-0.0502,0.01038,-0.02777,-0.01083,0.00061,-0.03113
9.5855,-0.01205,-0.03891,-0.03311,-0.1181,-0.0296,-0.04837,-0.01129,-0.00092,0.6308,-0.0383,-0.03754,0.0119,-0.0383,-0.00061,0.00946,-0.04898
9.586,-0.01236,-0.03876,-0.03433,-0.09445,-0.03128,-0.04822,-0.01114,-0.00153,0.60577,-0.03815,-0.02808,0.00656,-0.05173,0.00092,0.01663,-0.07004
9.5865,-0.01175,-0.04013,-0.03601,-0.0415,-0.03342,-0.04807,-0.01251,-0.00229,0.59128,-0.03738,-0.02136,0.00046,-0.06348,-0.00107,0.01846,-0.0769
9.587,-0.009,-0.04135,-0.03525,0.03983,-0.03372,-0.04852,-0.01343,-0.00244,0.56122,-0.03723,-0.01511,-0.00183,-0.06409,-0.00244,0.01892,-0.06683
9.5875,-0.00793,-0.04242,-0.03525,0.13229,-0.03265,-0.04913,-0.01404,-0.00244,0.51193,-0.03738,-0.00977,-0.00229,-0.056,-0.00488,0.01846,-0.06607
9.588,-0.00946,-0.04211,-0.03586,0.19821,-0.03235,-0.04944,-0.01328,-0.00214,0.4628,-0.03738,-0.00519,-0.00504,-0.04532,-0.00854,0.00244,-0.09583
9.5885,-0.01038,-0.04105,-0.03601,0.19928,-0.03342,-0.04715,-0.01389,-0.00214,0.43427,-0.0383,-0.00168,-0.00916,-0.03601,-0.01282,-0.0351,-0.12985
9.589,-0.01022,-0.03937,-0.03586,0.14038,-0.03357,-0.04593,-0.01328,-0.00259,0.42587,-0.03876,0.00214,-0.01022,-0.02823,-0.01434,-0.07874,-0.12161
9.5895,-0.00931,-0.04074,-0.03387,0.07217,-0.03235,-0.04562,-0.01419,-0.00336,0.41458,-0.04135,0.0061,-0.00671,-0.02014,-0.0119,-0.10605,-0.05722
9.59,-0.00885,-0.04059,-0.03281,0.0322,-0.03067,-0.04684,-0.0148,-0.00366,0.38605,-0.04669,0.00671,-0.00122,-0.01495,-0.01083,-0.11917,0.03067
9.5905,-0.00793,-0.04074,-0.03464,0.01694,-0.0293,-0.04791,-0.01617,-0.00534,0.34973,-0.05341,0.00519,0.00275,-0.01572,-0.01266,-0.13687,0.10513
9.591,-0.00748,-0.03891,-0.03601,0.00626,-0.02838,-0.04807,-0.01587,-0.00641,0.3186,-0.05829,0.00198,0.00214,-0.01877,-0.01801,-0.14908,0.13992
9.5915,-0.00656,-0.03769,-0.03403,-0.00076,-0.02991,-0.04791,-0.01495,-0.00702,0.28564,-0.0589,-0.00168,0.00061,-0.02365,-0.02548,-0.11765,0.11765
9.592,-0.00626,-0.03799,-0.03265,0.00381,-0.03204,-0.04791,-0.01465,-0.00534,0.23346,-0.05585,-0.0058,-0.00122,-0.02792,-0.03189,-0.04227,0.03235
9.5925,-0.00763,-0.03937,-0.03296,0.0119,-0.03372,-0.0473,-0.01434,-0.00214,0.16541,-0.05264,-0.00732,-0.00488,-0.03372,-0.03342,0.01953,-0.08667
9.593,-0.00809,-0.03998,-0.03403,0.00961,-0.03372,-0.04669,-0.01358,-0.00031,0.10132,-0.0499,-0.00732,-0.00916,-0.0415,-0.02899,0.04059,-0.18723
9.5935,-0.00885,-0.0386,-0.03357,-0.00565,-0.03311,-0.04608,-0.01312,-0.00137,0.05539,-0.04654,-0.00671,-0.01083,-0.04929,-0.02136,0.08286,-0.23575
9.594,-0.00748,-0.03738,-0.03448,-0.01999,-0.03265,-0.04608,-0.01343,-0.00381,0.01724,-0.04257,-0.00793,-0.00946,-0.0531,-0.01282,0.17914,-0.24902
9.5945,-0.00595,-0.03677,-0.03479,-0.02289,-0.03281,-0.04639,-0.0148,-0.00549,-0.03052,-0.03769,-0.01007,-0.0061,-0.04929,-0.0058,0.24185,-0.26138
9.595,-0.00626,-0.0383,-0.0351,-0.02075,-0.0325,-0.04517,-0.01511,-0.00565,-0.08575,-0.02899,-0.01328,-0.00397,-0.04364,-0.00046,0.17303,-0.27878
9.5955,-0.0058,-0.03937,-0.0354,-0.02167,-0.03174,-0.04532,-0.01541,-0.00702,-0.12695,-0.01602,-0.01633,-0.00061,-0.0412,0.00397,0.00946,-0.27924
9.596,-0.00671,-0.03952,-0.03555,-0.03036,-0.03113,-0.04395,-0.0148,-0.00946,-0.14999,0.00534,-0.01999,0.0032,-0.04028,0.00671,-0.12741,-0.25604
9.5965,-0.00809,-0.0386,-0.03616,-0.04181,-0.02991,-0.04303,-0.0148,-0.01022,-0.17273,0.02441,-0.03159,0.00534,-0.03815,0.01129,-0.1889,-0.22141
9.597,-0.00763,-0.03784,-0.03662,-0.04929,-0.02747,-0.04379,-0.0148,-0.00809,-0.19547,0.03281,-0.05142,0.00656,-0.03571,0.02136,-0.21133,-0.19073
9.5975,-0.00748,-0.03723,-0.03754,-0.05051,-0.02502,-0.04562,-0.0145,-0.0058,-0.21301,0.02792,-0.06668,0.00519,-0.03525,0.03784,-0.22751,-0.16739
9.598,-0.00702,-0.03693,-0.03799,-0.04791,-0.0238,-0.04745,-0.01511,-0.00519,-0.22949,0.01373,-0.06027,0.00198,-0.03662,0.05478,-0.22232,-0.14282
9.5985,-0.00626,-0.03708,-0.03601,-0.04761,-0.02289,-0.04639,-0.01663,-0.00656,-0.242,0.00015,-0.03143,-0.00214,-0.03983,0.06256,-0.16983,-0.11215
9.599,-0.00488,-0.03922,-0.03662,-0.05035,-0.02335,-0.04456,-0.01663,-0.00778,-0.24475,-0.0058,0.00015,-0.00427,-0.0415,0.05371,-0.08774,-0.0798
9.5995,-0.00366,-0.04196,-0.0351,-0.04959,-0.0238,-0.04349,-0.01587,-0.00793,-0.24109,-0.00534,0.02121,-0.0029,-0.04288,0.0351,-0.02655,-0.0618
9.6,-0.00351,-0.04288,-0.03357,-0.04044,-0.02563,-0.04333,-0.0148,-0.00671,-0.23224,-0.00717,0.02762,-0.00183,-0.04272,0.01892,0.00977,-0.05737
9.6005,-0.00412,-0.04211,-0.03525,-0.01907,-0.02808,-0.04425,-0.01434,-0.00595,-0.21454,-0.01251,0.02808,-0.00229,-0.04318,0.00595,0.08743,-0.04044
9.601,-0.00549,-0.04105,-0.03571,0.00839,-0.02777,-0.04456,-0.01343,-0.00473,-0.19516,-0.02075,0.02548,-0.0029,-0.04044,-0.00931,0.24948,0.00351
9.6015,-0.0061,-0.03922,-0.03632,0.02274,-0.02731,-0.0444,-0.01328,-0.00351,-0.18295,-0.02533,0.02182,-0.0029,-0.03754,-0.03098,0.41443,0.04211
9.602,-0.00626,-0.0383,-0.03571,0.01053,-0.02502,-0.04501,-0.0145,-0.00275,-0.17441,-0.02502,0.01541,-0.00244,-0.03311,-0.05325,0.44022,0.04227
9.6025,-0.00595,-0.03937,-0.03708,-0.01511,-0.02502,-0.04807,-0.01556,-0.0029,-0.15793,-0.02518,0.00702,-0.00153,-0.03082,-0.07523,0.29419,0.01419
9.603,-0.00534,-0.04089,-0.03784,-0.0296,-0.02457,-0.05127,-0.01587,-0.0029,-0.13046,-0.02533,-0.00458,-0.00107,-0.0296,-0.09903,0.1178,-0.00885
9.6035,-0.00473,-0.04181,-0.03723,-0.02151,-0.02411,-0.05112,-0.01465,-0.00366,-0.09506,-0.0267,-0.01877,0.0,-0.02914,-0.12207,0.06393,-0.01083
9.604,-0.00427,-0.04105,-0.03708,-0.00122,-0.02594,-0.05035,-0.01358,-0.0058,-0.05707,-0.02884,-0.03632,0.00031,-0.02777,-0.1355,0.12177,0.00244
9.6045,-0.00397,-0.03998,-0.03693,0.01694,-0.02731,-0.04791,-0.01282,-0.00763,-0.02182,-0.03281,-0.05173,0.00229,-0.02487,-0.13199,0.1767,0.02136
9.605,-0.00412,-0.03998,-0.03601,0.02365,-0.02853,-0.04547,-0.01266,-0.00763,0.00916,-0.03677,-0.06058,0.00458,-0.02289,-0.11368,0.16907,0.04059
9.6055,-0.00504,-0.04135,-0.03555,0.0177,-0.0293,-0.04532,-0.01373,-0.00565,0.04196,-0.0383,-0.06058,0.00443,-0.02274,-0.08682,0.12177,0.05508
9.606,-0.00504,-0.04333,-0.03647,0.01114,-0.03143,-0.04715,-0.01343,-0.00504,0.07996,-0.03448,-0.05447,0.00229,-0.02472,-0.05753,0.07629,0.05783
9.6065,-0.00381,-0.0444,-0.03769,0.01434,-0.03418,-0.05096,-0.01328,-0.0061,0.11902,-0.02228,-0.04471,-0.00168,-0.02655,-0.03189,0.04211,0.05112
9.607,-0.00305,-0.04471,-0.0383,0.02106,-0.03494,-0.0531,-0.01312,-0.00687,0.15442,-0.00671,-0.03586,-0.00412,-0.0264,-0.01556,0.01678,0.04166
9.6075,-0.00305,-0.04425,-0.03799,0.01434,-0.03464,-0.05386,-0.01495,-0.0058,0.18036,0.00153,-0.0264,-0.00244,-0.02609,-0.00809,0.00946,0.03021
9.608,-0.00305,-0.04379,-0.0386,-0.01038,-0.03418,-0.05173,-0.01587,-0.00534,0.19348,-0.00031,-0.01907,0.00031,-0.02411,-0.00412,0.02441,0.01175
9.6085,-0.00198,-0.04379,-0.03876,-0.0322,-0.03448,-0.05051,-0.01572,-0.00565,0.20264,-0.00671,-0.01404,0.00183,-0.02151,-0.00122,0.047,-0.01328
9.609,-0.00259,-0.04288,-0.03662,-0.03601,-0.03571,-0.0499,-0.01495,-0.0061,0.22461,-0.0119,-0.01236,-0.00061,-0.01923,-0.00015,0.05417,-0.0386
9.6095,-0.00397,-0.04318,-0.03738,-0.03036,-0.0354,-0.0499,-0.01373,-0.0061,0.25696,-0.01312,-0.01175,-0.0058,-0.01617,0.00427,0.03891,-0.05783
9.61,-0.00473,-0.04364,-0.03845,-0.03174,-0.03525,-0.05066,-0.01328,-0.00565,0.28137,-0.01297,-0.01114,-0.01038,-0.01282,0.01404,0.01205,-0.07111
9.6105,-0.00443,-0.0444,-0.03952,-0.04807,-0.03448,-0.05127,-0.01297,-0.00656,0.29343,-0.01297,-0.01114,-0.00961,-0.009,0.0264,-0.01602,-0.08026
9.611,-0.00229,-0.04456,-0.04044,-0.06775,-0.03448,-0.05173,-0.01373,-0.00809,0.29419,-0.01205,-0.01129,-0.00198,-0.00854,0.03555,-0.04181,-0.08286
9.6115,-0.00137,-0.0444,-0.03967,-0.07767,-0.03555,-0.05173,-0.01434,-0.00916,0.28671,-0.01007,-0.01068,0.00885,-0.01038,0.03922,-0.05646,-0.07568
9.612,-0.00183,-0.0444,-0.0383,-0.07645,-0.03876,-0.05081,-0.01343,-0.00839,0.28793,-0.00824,-0.00977,0.01617,-0.01419,0.03876,-0.05844,-0.05875
9.6125,-0.00275,-0.04395,-0.03784,-0.07172,-0.04227,-0.05112,-0.01205,-0.00778,0.30319,-0.00702,-0.0087,0.01495,-0.01755,0.03311,-0.06134,-0.03464
9.613,-0.00336,-0.04486,-0.03922,-0.07202,-0.04272,-0.05142,-0.01266,-0.00778,0.31464,-0.00702,-0.00717,0.00809,-0.02045,0.02243,-0.08087,-0.01328
9.6135,-0.00381,-0.04608,-0.03876,-0.0737,-0.04074,-0.05081,-0.01511,-0.00809,0.32806,-0.00946,-0.00809,0.00305,-0.02319,0.00824,-0.08408,-0.00443
9.614,-0.00381,-0.04654,-0.03784,-0.06973,-0.03601,-0.05051,-0.01633,-0.00778,0.37415,-0.01511,-0.01144,0.00229,-0.02579,-0.00366,-0.0322,-0.01022
9.6145,-0.00336,-0.04654,-0.03647,-0.05692,-0.03387,-0.04929,-0.01572,-0.00626,0.43655,-0.02228,-0.01541,0.00122,-0.02747,-0.01038,0.03662,-0.01953
9.615,-0.00351,-0.04593,-0.03571,-0.04196,-0.03174,-0.04837,-0.01404,-0.00565,0.44937,-0.02686,-0.01709,-0.00336,-0.02808,-0.01221,0.0441,-0.0209
9.6155,-0.00412,-0.04517,-0.03525,-0.03235,-0.0325,-0.04807,-0.01389,-0.00519,0.3923,-0.02853,-0.01663,-0.009,-0.03067,-0.01328,-0.00977,-0.01419
9.616,-0.00534,-0.04379,-0.03387,-0.03143,-0.03357,-0.04639,-0.01495,-0.00473,0.32715,-0.02899,-0.01495,-0.0119,-0.03387,-0.01602,-0.04929,-0.00778
9.6165,-0.00473,-0.04272,-0.03418,-0.02899,-0.03418,-0.04532,-0.01587,-0.00351,0.31189,-0.02884,-0.01572,-0.00824,-0.03738,-0.01892,-0.04196,-0.00809
9.617,-0.00443,-0.04166,-0.03525,-0.01465,-0.03372,-0.04471,-0.01495,-0.00275,0.33112,-0.02762,-0.01694,-0.00214,-0.03937,-0.0174,-0.02655,-0.01373
9.6175,-0.00366,-0.04074,-0.03799,0.01144,-0.03342,-0.04456,-0.01389,-0.00153,0.35843,-0.02487,-0.01984,0.00259,-0.03937,-0.01205,-0.0148,-0.02075
9.618,-0.00259,-0.04028,-0.03906,0.03174,-0.03357,-0.04578,-0.01358,-0.00137,0.41534,-0.02258,-0.02258,0.0032,-0.03906,-0.00732,0.01846,-0.02487
9.6185,-0.00168,-0.0412,-0.03922,0.02899,-0.03372,-0.04669,-0.01343,-0.00122,0.50781,-0.0206,-0.02243,0.00305,-0.03769,-0.00839,0.06561,-0.0267
9.619,-0.00137,-0.04288,-0.03845,0.00565,-0.03387,-0.04807,-0.01266,-0.00168,0.58884,-0.01862,-0.01907,0.00259,-0.03632,-0.01526,0.07065,-0.02625
9.6195,-0.00107,-0.04257,-0.03723,-0.01465,-0.03387,-0.0473,-0.01144,-0.00122,0.60455,-0.01617,-0.01404,0.00381,-0.0354,-0.02441,0.02106,-0.02548
9.62,-0.00107,-0.0412,-0.03647,-0.02167,-0.03326,-0.04761,-0.01053,0.00031,0.5545,-0.01144,-0.01053,0.00458,-0.03479,-0.03403,-0.02533,-0.0264
9.6205,-0.00168,-0.04044,-0.03586,-0.0235,-0.03418,-0.04852,-0.01099,0.00076,0.495,-0.00793,-0.00977,0.00443,-0.03555,-0.04593,-0.02762,-0.03036
9.621,-0.00168,-0.04089,-0.03555,-0.02701,-0.03601,-0.04807,-0.01282,-0.00061,0.48203,-0.00366,-0.00946,0.00198,-0.03601,-0.05783,-0.0087,-0.03632
9.6215,-0.00122,-0.04135,-0.03525,-0.02808,-0.03662,-0.04776,-0.01282,-0.00214,0.51346,0.00015,-0.01007,-0.00168,-0.03647,-0.06516,-0.00214,-0.04395
9.622,-0.00183,-0.04089,-0.03601,-0.02411,-0.03586,-0.04623,-0.01373,-0.00214,0.53986,0.00076,-0.01205,-0.0061,-0.03555,-0.06088,-0.00809,-0.05417
9.6225,-0.00351,-0.04074,-0.03799,-0.01816,-0.03571,-0.04379,-0.0148,-0.00153,0.52628,-0.00092,-0.01358,-0.00839,-0.03448,-0.04425,-0.00854,-0.05722
9.623,-0.00397,-0.04074,-0.03799,-0.01694,-0.03372,-0.04318,-0.01572,-0.00214,0.47882,-0.00656,-0.01907,-0.00702,-0.03281,-0.01968,-0.00504,-0.04593
9.6235,-0.00381,-0.0415,-0.03555,-0.01785,-0.03281,-0.04349,-0.01617,-0.00229,0.42862,-0.01328,-0.03418,-0.00336,-0.03174,0.00397,-0.00702,-0.02609
9.624,-0.00275,-0.04364,-0.03357,-0.01495,-0.02991,-0.04501,-0.01556,-0.00214,0.40558,-0.01816,-0.05524,0.00015,-0.0293,0.01938,-0.01648,-0.01205
9.6245,-0.00153,-0.04364,-0.03464,-0.00595,-0.02838,-0.04547,-0.01602,0.0,0.39566,-0.01984,-0.07248,0.00244,-0.02762,0.02106,-0.02625,-0.01282
9.625,-0.00046,-0.04059,-0.03693,0.00885,-0.02701,-0.04395,-0.01495,0.00183,0.35583,-0.01923,-0.07248,0.00214,-0.02899,0.01404,-0.03387,-0.02151
9.6255,0.00031,-0.03769,-0.03662,0.02197,-0.02502,-0.04303,-0.01328,0.00137,0.27451,-0.0177,-0.05524,0.00198,-0.03143,0.00549,-0.0502,-0.03204
9.626,-0.00015,-0.03708,-0.03479,0.02365,-0.02365,-0.04318,-0.01282,-0.00046,0.18158,-0.01663,-0.03021,0.00336,-0.03418,0.0,-0.0853,-0.03784
9.6265,-0.00244,-0.03845,-0.03433,0.01389,-0.02289,-0.04532,-0.01343,-0.00214,0.11169,-0.01587,-0.00488,0.00351,-0.03632,-0.00305,-0.13275,-0.03754
9.627,-0.00549,-0.03952,-0.03433,0.00153,-0.0235,-0.0473,-0.0145,-0.00198,0.08163,-0.01434,0.01755,0.00122,-0.03571,-0.00565,-0.17212,-0.03571
9.6275,-0.00717,-0.04059,-0.03525,-0.00839,-0.02518,-0.04913,-0.01465,-0.00076,0.08148,-0.01266,0.03326,-0.00412,-0.03403,-0.00916,-0.21286,-0.04288
9.628,-0.0061,-0.0415,-0.03464,-0.01511,-0.02426,-0.04715,-0.01465,-0.00061,0.07828,-0.01251,0.04059,-0.00977,-0.02899,-0.01266,-0.28259,-0.06454
9.6285,-0.00381,-0.04318,-0.03326,-0.02029,-0.02335,-0.04639,-0.01465,-0.00198,0.04913,-0.01236,0.03922,-0.0116,-0.02426,-0.01831,-0.35217,-0.08545
9.629,-0.00229,-0.04333,-0.03372,-0.02289,-0.02167,-0.04715,-0.01358,-0.0029,0.00229,-0.01297,0.03265,-0.009,-0.01923,-0.02853,-0.33691,-0.08667
9.6295,-0.00214,-0.04242,-0.03281,-0.01923,-0.02182,-0.04761,-0.01328,-0.00214,-0.04669,-0.01389,0.02609,-0.00565,-0.01678,-0.04257,-0.19073,-0.07172
9.63,-0.00214,-0.04059,-0.03128,-0.01175,-0.0238,-0.04578,-0.01389,-0.00076,-0.09399,-0.01617,0.02075,-0.00244,-0.01419,-0.05554,0.04776,-0.05997
9.6305,-0.00336,-0.03983,-0.02899,-0.00061,-0.02533,-0.04517,-0.01465,-0.00076,-0.14603,-0.01907,0.01541,0.00031,-0.01556,-0.06149,0.29495,-0.05966
9.631,-0.0058,-0.03937,-0.02838,0.01465,-0.02792,-0.04501,-0.0148,-0.00137,-0.20554,-0.02319,0.01068,0.00168,-0.01953,-0.06149,0.44189,-0.06195
9.6315,-0.00641,-0.03998,-0.02838,0.03311,-0.02731,-0.04517,-0.01434,-0.00198,-0.26703,-0.02625,0.00778,0.00153,-0.0264,-0.0563,0.39169,-0.05463
9.632,-0.00687,-0.03998,-0.02945,0.04257,-0.02975,-0.04593,-0.01328,-0.00137,-0.32471,-0.02686,0.00336,-0.00015,-0.03174,-0.04913,0.18082,-0.04181
9.6325,-0.00595,-0.03952,-0.02945,0.0325,-0.0296,-0.04471,-0.01282,-0.00122,-0.37979,-0.02747,-0.00443,-0.00153,-0.03387,-0.04028,-0.00992,-0.03281
9.633,-0.00519,-0.03891,-0.03006,0.01053,-0.02853,-0.04364,-0.01297,-0.00168,-0.43213,-0.02747,-0.01205,-0.0029,-0.03525,-0.03052,-0.04852,-0.03174
9.6335,-0.00488,-0.03845,-0.0293,0.00107,-0.02777,-0.04456,-0.01358,-0.00183,-0.48309,-0.0267,-0.01526,-0.00427,-0.03662,-0.02228,0.00351,-0.03326
9.634,-0.00595,-0.03876,-0.02808,0.01282,-0.02991,-0.04654,-0.01358,-0.00198,-0.53314,-0.02548,-0.0145,-0.00412,-0.03754,-0.01862,0.04013,-0.03098
9.6345,-0.0061,-0.03983,-0.02823,0.02777,-0.03265,-0.04654,-0.01404,-0.00244,-0.58578,-0.02365,-0.01205,-0.00381,-0.03876,-0.02014,0.06805,-0.02594
9.635,-0.00565,-0.04013,-0.0296,0.02579,-0.0351,-0.04715,-0.01434,-0.00198,-0.64377,-0.02243,-0.0119,-0.00366,-0.03998,-0.02655,0.14954,-0.02335
9.6355,-0.00473,-0.04059,-0.03098,0.01175,-0.0354,-0.04807,-0.01495,-0.00183,-0.69733,-0.02106,-0.01541,-0.0032,-0.0444,-0.03464,0.24063,-0.02167
9.636,-0.0058,-0.0415,-0.03006,0.0029,-0.0351,-0.05051,-0.01465,-0.00107,-0.73059,-0.02014,-0.01785,-0.00198,-0.05203,-0.03937,0.23514,-0.01968
9.6365,-0.00809,-0.04318,-0.02808,0.00198,-0.03433,-0.05203,-0.01495,-0.00015,-0.74905,-0.01663,-0.01755,-0.00214,-0.05997,-0.03708,0.12604,-0.02151
9.637,-0.01053,-0.04318,-0.02884,-0.00336,-0.03464,-0.05096,-0.01556,0.00061,-0.77469,-0.01068,-0.01572,-0.00458,-0.0621,-0.02991,0.01175,-0.02731
9.6375,-0.00977,-0.04211,-0.03113,-0.01434,-0.03586,-0.05096,-0.01572,0.00168,-0.80475,-0.00381,-0.01511,-0.00641,-0.05753,-0.02029,-0.04547,-0.02747
9.638,-0.00885,-0.03952,-0.03235,-0.02441,-0.03601,-0.0502,-0.01526,0.00122,-0.82901,0.0,-0.01587,-0.00534,-0.04379,-0.01068,-0.08026,-0.01312
9.6385,-0.00809,-0.04013,-0.03265,-0.02731,-0.03754,-0.04913,-0.01511,0.0,-0.85236,-0.00259,-0.01846,-0.00229,-0.02625,-0.00168,-0.12802,0.00671
9.639,-0.00824,-0.04303,-0.03143,-0.02792,-0.03983,-0.04944,-0.0148,-0.00183,-0.87677,-0.0058,-0.01984,-0.00092,-0.01236,0.00458,-0.16403,0.01373
9.6395,-0.009,-0.04486,-0.0296,-0.02701,-0.04272,-0.04974,-0.01511,-0.00244,-0.89462,-0.00748,-0.02029,0.00122,-0.00763,0.00656,-0.15137,0.00412
9.64,-0.009,-0.04532,-0.02701,-0.02594,-0.04349,-0.04852,-0.01495,-0.00183,-0.90805,-0.00763,-0.01968,0.00473,-0.01022,0.00443,-0.07935,-0.01343
9.6405,-0.00809,-0.04532,-0.0267,-0.02426,-0.04227,-0.04776,-0.01434,-0.00015,-0.91248,-0.01007,-0.01846,0.00763,-0.01678,0.00076,0.04089,-0.03387
9.641,-0.00717,-0.04532,-0.02777,-0.02426,-0.03983,-0.04837,-0.01312,0.00107,-0.90332,-0.01511,-0.01755,0.00854,-0.02167,-0.00275,0.15671,-0.05829
9.6415,-0.00687,-0.04547,-0.02853,-0.02548,-0.03769,-0.04837,-0.01236,0.00046,-0.89081,-0.02075,-0.01572,0.00702,-0.02472,-0.00595,0.1799,-0.08072
9.642,-0.00717,-0.04471,-0.02808,-0.02655,-0.03693,-0.04822,-0.01129,-0.00168,-0.89172,-0.03143,-0.01495,0.00336,-0.03036,-0.00732,0.08621,-0.08743
9.6425,-0.00671,-0.04318,-0.0264,-0.02182,-0.03616,-0.047,-0.00977,-0.0029,-0.90347,-0.0412,-0.01724,-0.00031,-0.03815,-0.00488,-0.03448,-0.07019
9.643,-0.00687,-0.04288,-0.02609,-0.01434,-0.03601,-0.04639,-0.00854,-0.00229,-0.9137,-0.04623,-0.02121,-0.00061,-0.04517,-0.00214,-0.09674,-0.03891
9.6435,-0.00885,-0.04196,-0.02686,-0.00656,-0.03616,-0.04578,-0.00946,-0.00061,-0.91995,-0.04227,-0.02274,0.0029,-0.04883,-0.00397,-0.11871,-0.01389
9.644,-0.01175,-0.04196,-0.02762,0.00519,-0.03464,-0.04639,-0.01556,0.00092,-0.92712,-0.03113,-0.02228,0.00732,-0.0502,-0.01221,-0.14221,-0.00534
9.6445,-0.01343,-0.04135,-0.02731,0.0235,-0.03265,-0.04669,-0.02518,0.00092,-0.93491,-0.01968,-0.02014,0.00992,-0.0499,-0.02441,-0.14374,-0.00931
9.645,-0.01114,-0.04135,-0.02762,0.03708,-0.03174,-0.04654,-0.03052,0.00107,-0.93979,-0.01099,-0.02029,0.00824,-0.04761,-0.03433,-0.0769,-0.0238
9.6455,-0.00778,-0.04227,-0.02792,0.03326,-0.0325,-0.04608,-0.0264,0.00183,-0.93719,-0.00443,-0.02136,0.00412,-0.04517,-0.03738,0.05798,-0.05493
9.646,-0.00595,-0.04288,-0.02777,0.01266,-0.03235,-0.04486,-0.01617,0.00183,-0.92545,-0.00107,-0.02121,-0.00046,-0.04288,-0.03143,0.21317,-0.09796
9.6465,-0.00656,-0.04242,-0.02731,-0.00793,-0.0325,-0.04639,-0.00839,0.00168,-0.90805,-0.00092,-0.01968,-0.00198,-0.04196,-0.02396,0.30518,-0.12894
9.647,-0.00839,-0.04089,-0.02609,-0.01877,-0.0325,-0.04761,-0.00809,0.00092,-0.89005,-0.00381,-0.01923,0.00015,-0.04166,-0.01892,0.26154,-0.12421
9.6475,-0.009,-0.04105,-0.02594,-0.02502,-0.03265,-0.04669,-0.01083,0.00031,-0.87555,-0.00992,-0.02045,0.00107,-0.04105,-0.01923,0.10422,-0.09781
9.648,-0.00916,-0.0412,-0.02533,-0.03204,-0.03235,-0.04578,-0.0116,-0.00092,-0.86823,-0.01877,-0.02258,-0.00183,-0.04074,-0.02121,-0.04913,-0.07736
9.6485,-0.00946,-0.04028,-0.0264,-0.03601,-0.03235,-0.04532,-0.01144,-0.00092,-0.87311,-0.03006,-0.02335,-0.00732,-0.0412,-0.02426,-0.12253,-0.07492
9.649,-0.01022,-0.04013,-0.02792,-0.03174,-0.03204,-0.04669,-0.0116,-0.00046,-0.88104,-0.04135,-0.02197,-0.00854,-0.04471,-0.0293,-0.16449,-0.08179
9.6495,-0.0116,-0.04059,-0.02853,-0.01999,-0.03159,-0.047,-0.01358,0.00015,-0.87067,-0.04669,-0.02014,-0.00534,-0.04944,-0.03708,-0.24643,-0.09003
9.65,-0.01038,-0.0415,-0.02808,-0.00702,-0.03021,-0.04547,-0.01389,0.00061,-0.8461,-0.04776,-0.01984,0.00015,-0.05417,-0.04242,-0.3331,-0.09857
9.6505,-0.009,-0.04028,-0.02548,0.00473,-0.02731,-0.04349,-0.0148,0.00092,-0.83405,-0.04654,-0.02426,0.00336,-0.05478,-0.04227,-0.32455,-0.10056
9.651,-0.0087,-0.03998,-0.0238,0.01724,-0.02548,-0.04395,-0.01587,0.00076,-0.8345,-0.04456,-0.03006,0.00595,-0.05127,-0.0351,-0.20432,-0.08774
9.6515,-0.00992,-0.04089,-0.02365,0.02686,-0.02701,-0.04364,-0.01556,0.00031,-0.82687,-0.04059,-0.03281,0.00656,-0.04501,-0.02594,-0.06287,-0.06393
9.652,-0.01099,-0.04211,-0.02518,0.02548,-0.02945,-0.04364,-0.01572,-0.00061,-0.80872,-0.03738,-0.03006,0.00488,-0.03983,-0.01801,0.0473,-0.04044
9.6525,-0.01083,-0.04135,-0.02655,0.01175,-0.0296,-0.04486,-0.0145,-0.00153,-0.78659,-0.03448,-0.02304,0.0032,-0.03586,-0.01083,0.15289,-0.02426
9.653,-0.00992,-0.03937,-0.02777,-0.0087,-0.02945,-0.04639,-0.01404,-0.00153,-0.76584,-0.03235,-0.01328,0.00259,-0.03342,-0.00549,0.2536,-0.01678
9.6535,-0.00885,-0.03891,-0.02655,-0.03189,-0.02869,-0.04669,-0.01434,-0.00198,-0.74692,-0.02899,-0.00351,0.00183,-0.03082,-0.00122,0.27725,-0.01678
9.654,-0.0087,-0.03952,-0.0264,-0.05875,-0.02777,-0.04669,-0.01495,-0.00305,-0.71777,-0.02518,0.00015,0.00076,-0.02945,0.00275,0.20309,-0.02197
9.6545,-0.00885,-0.04013,-0.02487,-0.09018,-0.02823,-0.04608,-0.01587,-0.00305,-0.67017,-0.01877,-0.00488,-0.00214,-0.0296,0.00488,0.11322,-0.02914
9.655,-0.00824,-0.03937,-0.02533,-0.11963,-0.02853,-0.04608,-0.01556,-0.00214,-0.62057,-0.00458,-0.01465,-0.00504,-0.02991,0.00748,0.07568,-0.03769
9.6555,-0.00702,-0.03876,-0.0267,-0.13779,-0.0267,-0.04791,-0.01556,-0.00275,-0.59067,0.01129,-0.02426,-0.00412,-0.02899,0.01221,0.05646,-0.0499
9.656,-0.00595,-0.03998,-0.02838,-0.13504,-0.0267,-0.04822,-0.01495,-0.00519,-0.57831,0.01923,-0.02991,0.00046,-0.02686,0.01862,-0.00427,-0.06073
9.6565,-0.00671,-0.04181,-0.02975,-0.09857,-0.02731,-0.0473,-0.01526,-0.00854,-0.56717,0.01373,-0.03204,0.00656,-0.02518,0.02258,-0.0856,-0.06332
9.657,-0.00717,-0.04181,-0.02975,-0.0235,-0.02762,-0.04669,-0.01556,-0.00824,-0.55084,0.00015,-0.03265,0.01083,-0.02533,0.01724,-0.13458,-0.05829
9.6575,-0.00702,-0.04074,-0.02945,0.05951,-0.02701,-0.04623,-0.01404,-0.00519,-0.53391,-0.00809,-0.03281,0.01022,-0.02777,0.00244,-0.13702,-0.05341
9.658,-0.00824,-0.03952,-0.02838,0.10284,-0.02594,-0.04547,-0.01343,-0.00305,-0.52063,-0.00626,-0.02914,0.00458,-0.03006,-0.01572,-0.09567,-0.05447
9.6585,-0.00824,-0.04028,-0.02655,0.09125,-0.02487,-0.04532,-0.01419,-0.00427,-0.50766,-0.00061,-0.02274,-0.00183,-0.03006,-0.03143,-0.01114,-0.05432
9.659,-0.00854,-0.04166,-0.02655,0.05722,-0.02365,-0.047,-0.01556,-0.00687,-0.49362,0.00183,-0.01312,-0.0058,-0.0293,-0.0441,0.10773,-0.04807
9.6595,-0.00839,-0.04272,-0.02762,0.03586,-0.02274,-0.04608,-0.01526,-0.009,-0.47913,0.00214,-0.00015,-0.00656,-0.02975,-0.05096,0.2298,-0.04074
9.66,-0.00732,-0.04288,-0.02762,0.03357,-0.02213,-0.04593,-0.0148,-0.00854,-0.46432,0.00137,0.01144,-0.00336,-0.03052,-0.04929,0.31693,-0.03922
9.6605,-0.00748,-0.04211,-0.02716,0.03677,-0.02213,-0.04669,-0.0145,-0.00641,-0.44525,0.00168,0.01923,0.00107,-0.03113,-0.04089,0.33096,-0.04425
9.661,-0.00702,-0.03937,-0.02716,0.03525,-0.02228,-0.04593,-0.0145,-0.00458,-0.42282,0.00702,0.02304,0.00534,-0.03128,-0.03052,0.25284,-0.04761
9.6615,-0.00549,-0.03693,-0.02747,0.03036,-0.02441,-0.04807,-0.01404,-0.00336,-0.40268,0.01282,0.02655,0.00702,-0.03128,-0.02533,0.1178,-0.04639
9.662,-0.00488,-0.03647,-0.02762,0.02518,-0.02609,-0.04974,-0.01282,-0.00244,-0.39307,0.01465,0.02991,0.00488,-0.03113,-0.02228,0.00717,-0.04715
9.6625,-0.00595,-0.03738,-0.02625,0.01907,-0.02686,-0.04929,-0.01221,-0.00244,-0.38559,0.00702,0.02884,0.00305,-0.03174,-0.01892,-0.02747,-0.05447
9.663,-0.00656,-0.03906,-0.02472,0.01038,-0.02747,-0.04669,-0.01297,-0.00244,-0.36041,-0.00702,0.02029,0.00153,-0.03098,-0.01801,-0.00214,-0.06058
9.6635,-0.00641,-0.03998,-0.02441,0.00198,-0.0267,-0.04684,-0.01389,-0.00275,-0.32318,-0.01984,0.00977,0.00183,-0.03082,-0.0206,0.04288,-0.06165
9.664,-0.00565,-0.03937,-0.02563,-0.00443,-0.02716,-0.05005,-0.01312,-0.00214,-0.29572,-0.02472,0.00259,0.00198,-0.03372,-0.02533,0.07431,-0.0592
9.6645,-0.00565,-0.0383,-0.02762,-0.00732,-0.02884,-0.05203,-0.01266,-0.00229,-0.27512,-0.02716,-0.00015,0.00198,-0.03708,-0.02853,0.06958,-0.05173
9.665,-0.00549,-0.0383,-0.02838,-0.00336,-0.03204,-0.05173,-0.01266,-0.00366,-0.25024,-0.0296,-0.00244,0.00076,-0.03845,-0.02853,0.02808,-0.04074
9.6655,-0.00458,-0.03998,-0.02792,0.00519,-0.03571,-0.04944,-0.01434,-0.00473,-0.22232,-0.0325,-0.00778,-0.00046,-0.03799,-0.02716,-0.01724,-0.03098
9.666,-0.00443,-0.04211,-0.02777,0.01221,-0.03845,-0.04944,-0.01556,-0.00504,-0.19287,-0.03372,-0.01404,-0.00046,-0.0386,-0.02762,-0.03616,-0.03021
9.6665,-0.00381,-0.04288,-0.02884,0.01083,-0.03845,-0.04959,-0.01694,-0.00275,-0.1619,-0.03265,-0.02014,0.00214,-0.04211,-0.0296,-0.03082,-0.03494
9.667,-0.00473,-0.04181,-0.02838,0.00427,-0.03632,-0.04898,-0.01678,-0.00076,-0.13474,-0.02975,-0.02548,0.00351,-0.04425,-0.0264,-0.01434,-0.03784
9.6675,-0.00443,-0.04089,-0.02945,-0.00153,-0.03403,-0.0473,-0.01617,0.00015,-0.10681,-0.02777,-0.02838,0.00168,-0.04288,-0.01251,0.01587,-0.03891
9.668,-0.00412,-0.04074,-0.0296,-0.00137,-0.03433,-0.04761,-0.01587,-0.00015,-0.0647,-0.02899,-0.02914,0.00061,-0.03845,0.00732,0.05966,-0.04013
9.6685,-0.00381,-0.0415,-0.02945,0.00122,-0.03738,-0.05005,-0.01572,-0.00153,-0.01633,-0.02914,-0.02625,0.00153,-0.03418,0.02151,0.0827,-0.03998
9.669,-0.00412,-0.0415,-0.03021,0.00153,-0.04105,-0.05295,-0.01389,-0.00336,0.0209,-0.02945,-0.02136,0.00275,-0.03235,0.0235,0.05249,-0.03708
9.6695,-0.00366,-0.04059,-0.03021,-0.00107,-0.04532,-0.05356,-0.01205,-0.00259,0.04395,-0.02487,-0.01785,0.00259,-0.03342,0.01709,-0.01022,-0.03616
9.67,-0.00305,-0.03845,-0.02914,-0.00687,-0.04608,-0.05234,-0.01266,-0.00092,0.06165,-0.0206,-0.0174,0.00183,-0.03326,0.00702,-0.04913,-0.0383
9.6705,-0.0032,-0.0383,-0.02808,-0.01282,-0.04379,-0.05341,-0.01434,-0.00031,0.08072,-0.01709,-0.01953,0.00061,-0.03464,-0.00397,-0.04852,-0.0386
9.671,-0.00504,-0.03906,-0.02838,-0.01846,-0.04272,-0.05447,-0.0145,-0.00168,0.10147,-0.01617,-0.02045,0.00107,-0.0354,-0.01205,-0.04929,-0.03372
9.6715,-0.00534,-0.03983,-0.02914,-0.02243,-0.04089,-0.05508,-0.01434,-0.00473,0.1236,-0.01602,-0.01923,0.00092,-0.03876,-0.01266,-0.08148,-0.0267
9.672,-0.00519,-0.03998,-0.02899,-0.02472,-0.03906,-0.05447,-0.01343,-0.00565,0.14374,-0.01572,-0.01709,0.00092,-0.0412,-0.00473,-0.13214,-0.02213
9.6725,-0.00458,-0.04028,-0.02823,-0.0235,-0.03754,-0.05371,-0.01358,-0.00366,0.16144,-0.01587,-0.01678,0.00229,-0.04059,0.00092,-0.16739,-0.01633
9.673,-0.00473,-0.04135,-0.02731,-0.02121,-0.03479,-0.05341,-0.01358,-0.00061,0.17883,-0.01648,-0.01816,0.00473,-0.03845,-0.00244,-0.16861,-0.009
9.6735,-0.00549,-0.04242,-0.02792,-0.01953,-0.03418,-0.05386,-0.01343,0.0,0.19684,-0.0174,-0.01877,0.00641,-0.03677,-0.01297,-0.11749,-0.00717
9.674,-0.0058,-0.0415,-0.02991,-0.01709,-0.03555,-0.05402,-0.01205,-0.00198,0.21606,-0.01709,-0.01923,0.00534,-0.0351,-0.02441,-0.01663,-0.01282
9.6745,-0.00534,-0.04105,-0.03021,-0.01434,-0.03708,-0.0531,-0.01099,-0.00381,0.2327,-0.01938,-0.02075,0.00305,-0.03067,-0.0354,0.06897,-0.01938
9.675,-0.00397,-0.04059,-0.02914,-0.01129,-0.03662,-0.05142,-0.01205,-0.00412,0.24017,-0.01999,-0.02136,0.00107,-0.02579,-0.04791,0.06363,-0.02075
9.6755,-0.00412,-0.04059,-0.02853,-0.00793,-0.03616,-0.04913,-0.01465,-0.00351,0.23026,-0.01923,-0.02106,0.00168,-0.02075,-0.05966,-0.01678,-0.02167
9.676,-0.00443,-0.03983,-0.02884,-0.00412,-0.03525,-0.04578,-0.01801,-0.00397,0.21133,-0.01801,-0.01907,0.00381,-0.02014,-0.06485,-0.08804,-0.02609
9.6765,-0.00504,-0.03967,-0.02914,-0.00031,-0.0351,-0.04318,-0.01984,-0.00443,0.20554,-0.01846,-0.01755,0.00443,-0.02335,-0.06683,-0.10193,-0.02838
9.677,-0.0058,-0.03952,-0.03021,0.00137,-0.03372,-0.04196,-0.01938,-0.00534,0.21072,-0.02213,-0.01678,0.00076,-0.02777,-0.07141,-0.10086,-0.01862
9.6775,-0.0061,-0.03937,-0.03189,0.0,-0.03189,-0.04181,-0.0177,-0.00519,0.20874,-0.02518,-0.01526,-0.0032,-0.02884,-0.0769,-0.15335,0.00534
9.678,-0.0061,-0.03983,-0.03189,-0.00397,-0.03143,-0.04425,-0.01587,-0.00473,0.20309,-0.0264,-0.01236,-0.00351,-0.02731,-0.07721,-0.25513,0.03372
9.6785,-0.00458,-0.04044,-0.03281,-0.00793,-0.02838,-0.04562,-0.01419,-0.00458,0.21805,-0.02548,-0.01144,0.00092,-0.02502,-0.06943,-0.29556,0.04913
9.679,-0.00412,-0.03952,-0.03281,-0.009,-0.02762,-0.04562,-0.01343,-0.00381,0.2562,-0.02518,-0.01373,0.00549,-0.02563,-0.05325,-0.19043,0.04257
9.6795,-0.00244,-0.03799,-0.03418,-0.00809,-0.02808,-0.04425,-0.01083,-0.0032,0.30701,-0.02441,-0.01678,0.00763,-0.02762,-0.03403,-0.01846,0.0177
9.68,-0.00229,-0.03723,-0.0351,-0.00793,-0.02625,-0.04257,-0.00549,-0.00229,0.35629,-0.02441,-0.01816,0.00702,-0.02899,-0.0174,0.03937,-0.01343
9.6805,-0.00198,-0.03799,-0.03693,-0.00916,-0.02579,-0.04211,-0.00168,-0.00259,0.39719,-0.02258,-0.01801,0.00427,-0.03128,-0.00946,-0.07248,-0.04074
9.681,-0.00198,-0.03952,-0.0383,-0.00977,-0.02777,-0.04196,-0.00244,-0.0032,0.44281,-0.02258,-0.01801,0.00214,-0.03204,-0.00839,-0.21072,-0.05371
9.6815,-0.00351,-0.04059,-0.03784,-0.00946,-0.02487,-0.04181,-0.0087,-0.00366,0.50354,-0.02167,-0.01785,-0.00061,-0.03281,-0.00885,-0.21637,-0.05585
9.682,-0.00565,-0.04074,-0.03601,-0.009,-0.02304,-0.04227,-0.0145,-0.00397,0.55786,-0.02243,-0.01694,-0.00687,-0.03235,-0.00717,-0.09842,-0.06363
9.6825,-0.00702,-0.03998,-0.0354,-0.01083,-0.02335,-0.04272,-0.01526,-0.00488,0.57938,-0.02182,-0.01602,-0.01297,-0.0322,-0.0058,0.01678,-0.09109
9.683,-0.0058,-0.03998,-0.03571,-0.01495,-0.02457,-0.04272,-0.01328,-0.00641,0.57556,-0.02167,-0.01541,-0.01404,-0.03265,-0.00702,0.04807,-0.12238
9.6835,-0.00381,-0.0415,-0.03662,-0.01877,-0.0267,-0.04227,-0.01221,-0.00732,0.5687,-0.02014,-0.01541,-0.0087,-0.03281,-0.009,0.01404,-0.12909
9.684,-0.0029,-0.04272,-0.0386,-0.02151,-0.02838,-0.04257,-0.01205,-0.00702,0.57098,-0.02167,-0.01556,-0.00153,-0.03235,-0.01038,-0.01999,-0.10254
9.6845,-0.00366,-0.04303,-0.03922,-0.02258,-0.0296,-0.0412,-0.01251,-0.00732,0.58502,-0.02121,-0.01572,0.00427,-0.03067,-0.01068,0.00076,-0.06577
9.685,-0.00473,-0.04196,-0.03845,-0.02213,-0.03174,-0.03983,-0.01282,-0.00793,0.60852,-0.02121,-0.01556,0.00763,-0.02747,-0.01053,0.07462,-0.05905
9.6855,-0.00519,-0.04028,-0.03754,-0.02167,-0.03311,-0.03891,-0.01358,-0.00687,0.62775,-0.0209,-0.01511,0.01114,-0.02457,-0.01022,0.13153,-0.10559
9.686,-0.00443,-0.03937,-0.03662,-0.02197,-0.03189,-0.03983,-0.0145,-0.00458,0.63171,-0.02121,-0.01541,0.01389,-0.01923,-0.00748,0.11383,-0.17349
9.6865,-0.00351,-0.03876,-0.03571,-0.02151,-0.03036,-0.04181,-0.01389,-0.00366,0.62347,-0.02167,-0.01648,0.01343,-0.01312,-0.00229,0.06088,-0.19897
9.687,-0.0032,-0.03845,-0.03479,-0.02151,-0.02975,-0.04303,-0.01312,-0.00473,0.61798,-0.02136,-0.01572,0.01038,-0.00717,0.0032,0.06775,-0.14343
9.6875,-0.00366,-0.03769,-0.03632,-0.02045,-0.03036,-0.04379,-0.01236,-0.00641,0.61813,-0.02075,-0.01404,0.00702,-0.00458,0.0061,0.14084,-0.04654
9.688,-0.00366,-0.03815,-0.0386,-0.01953,-0.03204,-0.04547,-0.01434,-0.00717,0.61111,-0.02106,-0.0116,0.00336,-0.00473,0.00519,0.17715,0.01419
9.6885,-0.00259,-0.03891,-0.03922,-0.02014,-0.03296,-0.04761,-0.01526,-0.00687,0.58456,-0.02182,-0.01266,0.00183,-0.00854,0.00183,0.11963,0.00229
9.689,-0.00076,-0.04059,-0.03876,-0.02045,-0.03418,-0.05142,-0.01434,-0.00671,0.53864,-0.02228,-0.01404,0.00244,-0.01495,-0.00336,0.06058,-0.05081
9.6895,-0.00107,-0.04211,-0.03937,-0.02029,-0.03586,-0.05798,-0.01205,-0.00717,0.48508,-0.02167,-0.01389,0.00397,-0.02274,-0.00931,0.10223,-0.09369
9.69,-0.00168,-0.04227,-0.04074,-0.01877,-0.03738,-0.06531,-0.0119,-0.00748,0.43961,-0.0209,-0.01205,0.00443,-0.02945,-0.0148,0.21362,-0.10284
9.6905,-0.00107,-0.0412,-0.04227,-0.01892,-0.04105,-0.06897,-0.01434,-0.00732,0.40466,-0.02167,-0.0119,0.00381,-0.03464,-0.01862,0.30045,-0.08606
9.691,-0.00092,-0.04059,-0.0412,-0.02014,-0.04227,-0.06332,-0.01648,-0.00687,0.37384,-0.02258,-0.01328,0.00183,-0.03723,-0.0206,0.33218,-0.06027
9.6915,-0.00183,-0.03998,-0.03952,-0.02136,-0.03906,-0.04959,-0.01694,-0.00626,0.35065,-0.02304,-0.01282,0.00076,-0.03784,-0.0209,0.32043,-0.0354
