time,RectFemL,VastusMedL,VastusLatL,TibAntL,HamMedL,HamLatL,GastroMedL,GastroLatL,RectFemR,VastusMedR,VastusLatR,TibAntR,HamMedR,HamLatR,GastroMedR,GastroLatR
2.48,0.00183,-0.03769,-0.02289,-0.12985,-0.02991,-0.04837,-0.01511,-0.00809,-0.02075,-0.03952,0.01511,-0.00015,-0.0354,-0.01953,0.00946,-0.0441
2.4805,0.00259,-0.03738,-0.01907,-0.15488,-0.03006,-0.04669,-0.01282,-0.00824,-0.02258,-0.04776,0.01297,-0.00183,-0.0354,-0.01633,0.01007,-0.04303
2.481,0.00168,-0.03891,-0.01678,-0.16739,-0.03143,-0.04608,-0.01068,-0.0087,-0.02335,-0.05325,-0.00015,-0.0032,-0.03494,-0.0148,0.01022,-0.04196
2.4815,0.0,-0.03983,-0.01831,-0.16022,-0.03418,-0.04578,-0.01099,-0.00671,-0.02411,-0.05371,-0.02411,-0.0058,-0.03448,-0.01633,0.00809,-0.03937
2.482,-0.00198,-0.03815,-0.02136,-0.1413,-0.03479,-0.04669,-0.01373,-0.0029,-0.02502,-0.05234,-0.04852,-0.00702,-0.03448,-0.01801,0.00656,-0.03799
2.4825,-0.00412,-0.0351,-0.02228,-0.11673,-0.0325,-0.04883,-0.01709,0.00122,-0.02518,-0.04593,-0.05936,-0.00702,-0.03555,-0.01862,0.00656,-0.03647
2.483,-0.00626,-0.03036,-0.02365,-0.07339,-0.0296,-0.0499,-0.01907,0.00259,-0.02533,-0.03387,-0.05264,-0.00549,-0.03677,-0.01862,0.0087,-0.03555
2.4835,-0.00824,-0.02945,-0.0267,0.00961,-0.03067,-0.05081,-0.01801,0.00107,-0.02502,-0.01846,-0.03403,-0.00275,-0.03784,-0.01877,0.01114,-0.03525
2.484,-0.00824,-0.03113,-0.03021,0.11215,-0.03265,-0.05005,-0.01724,-0.00031,-0.02411,-0.00488,-0.01404,0.00031,-0.03738,-0.01923,0.01236,-0.03723
2.4845,-0.00824,-0.03372,-0.03387,0.16769,-0.03189,-0.04883,-0.01633,-0.00092,-0.02365,0.00336,0.00061,0.00305,-0.03586,-0.01892,0.01282,-0.03952
2.485,-0.00732,-0.03448,-0.03586,0.14221,-0.03036,-0.04913,-0.01572,-0.00046,-0.02182,0.00748,0.00839,0.00305,-0.03403,-0.01892,0.01236,-0.04059
2.4855,-0.00702,-0.03357,-0.03937,0.07721,-0.02914,-0.04852,-0.01465,-0.00122,-0.02029,0.00763,0.00885,0.00076,-0.03403,-0.01877,0.01099,-0.04242
2.486,-0.00763,-0.03479,-0.04425,0.03906,-0.03067,-0.04807,-0.01358,-0.00183,-0.01953,0.00793,0.00366,-0.00061,-0.03479,-0.01953,0.00946,-0.04501
2.4865,-0.00687,-0.03632,-0.0473,0.04654,-0.03098,-0.0473,-0.01328,-0.00168,-0.01862,0.00824,-0.00244,0.00031,-0.03479,-0.01984,0.00595,-0.04639
2.487,-0.0058,-0.03616,-0.047,0.07156,-0.03021,-0.04623,-0.01343,-0.00092,-0.01663,0.01038,-0.00702,0.00229,-0.03403,-0.01907,0.00412,-0.04654
2.4875,-0.00473,-0.03372,-0.04593,0.0853,-0.0296,-0.04623,-0.01343,-0.00076,-0.0145,0.01236,-0.01007,0.00244,-0.03311,-0.0177,0.00443,-0.04333
2.488,-0.00366,-0.03143,-0.047,0.07507,-0.02914,-0.0444,-0.01297,-0.00153,-0.0119,0.01358,-0.0116,0.00153,-0.03296,-0.01785,0.00732,-0.03677
2.4885,-0.00244,-0.0325,-0.05112,0.04776,-0.02945,-0.04303,-0.01251,-0.00107,-0.01038,0.01419,-0.01419,0.00259,-0.03372,-0.01892,0.00977,-0.02975
2.489,-0.00092,-0.03555,-0.05646,0.01816,-0.02991,-0.0441,-0.01358,-0.00153,-0.01022,0.01175,-0.01572,0.00473,-0.03494,-0.01968,0.01007,-0.02533
2.4895,0.00076,-0.03754,-0.05798,-0.00046,-0.03036,-0.04608,-0.0145,-0.00168,-0.00977,0.00534,-0.01694,0.0058,-0.03464,-0.01785,0.00854,-0.02441
2.49,0.00107,-0.03723,-0.05264,-0.00885,-0.03006,-0.0473,-0.01495,-0.00092,-0.00946,-0.00214,-0.01602,0.00443,-0.03235,-0.01617,0.00732,-0.03052
2.4905,-0.00046,-0.03754,-0.04425,-0.01541,-0.02975,-0.0473,-0.01465,-0.00107,-0.00992,-0.00702,-0.01282,0.00183,-0.03036,-0.01694,0.00717,-0.04105
2.491,-0.00244,-0.03845,-0.03723,-0.02121,-0.03082,-0.04623,-0.01389,-0.00229,-0.01144,-0.01053,-0.00916,0.00076,-0.02975,-0.01862,0.00809,-0.05051
2.4915,-0.00244,-0.0415,-0.0325,-0.02258,-0.03113,-0.04593,-0.01343,-0.00488,-0.01175,-0.01373,-0.00626,0.00092,-0.03113,-0.01877,0.01038,-0.05188
2.492,-0.00229,-0.04562,-0.0293,-0.02213,-0.03006,-0.04593,-0.01266,-0.00793,-0.01038,-0.01678,-0.00656,0.00259,-0.03204,-0.01633,0.01236,-0.04562
2.4925,-0.00214,-0.04807,-0.02762,-0.02213,-0.02975,-0.04608,-0.01205,-0.00732,-0.00977,-0.02029,-0.00824,0.00336,-0.03235,-0.01495,0.01175,-0.03952
2.493,-0.00092,-0.04883,-0.02731,-0.02548,-0.03128,-0.04654,-0.01038,-0.00473,-0.01114,-0.02335,-0.009,0.00336,-0.0322,-0.01572,0.00732,-0.03876
2.4935,0.0,-0.04669,-0.02777,-0.02914,-0.03098,-0.04776,-0.00946,-0.00153,-0.01343,-0.02579,-0.00824,0.00259,-0.03128,-0.01678,0.00412,-0.04181
2.494,-0.00061,-0.04181,-0.02808,-0.03021,-0.03082,-0.04944,-0.01007,0.00122,-0.01404,-0.02655,-0.00809,0.00183,-0.03067,-0.01724,0.00351,-0.04501
2.4945,-0.00153,-0.0351,-0.02945,-0.02945,-0.03128,-0.05096,-0.01282,0.00259,-0.01465,-0.0267,-0.009,0.00076,-0.03067,-0.01694,0.00671,-0.04578
2.495,-0.00183,-0.02716,-0.02991,-0.02808,-0.03372,-0.05081,-0.01526,0.00061,-0.0148,-0.02548,-0.01144,0.00046,-0.03082,-0.0177,0.00854,-0.04501
2.4955,-0.00275,-0.01801,-0.0296,-0.02701,-0.03448,-0.04913,-0.01648,-0.00412,-0.01572,-0.02319,-0.01282,-0.00046,-0.03082,-0.01907,0.00656,-0.04486
2.496,-0.00549,-0.01175,-0.02686,-0.02563,-0.03311,-0.04791,-0.01572,-0.00977,-0.01724,-0.02167,-0.01389,-0.00366,-0.03067,-0.01984,0.00381,-0.04517
2.4965,-0.009,-0.01389,-0.0238,-0.02457,-0.03082,-0.04822,-0.01312,-0.01236,-0.01831,-0.02014,-0.01312,-0.00519,-0.03098,-0.02029,0.00305,-0.0444
2.497,-0.01114,-0.02365,-0.02319,-0.02258,-0.02808,-0.04776,-0.01328,-0.01266,-0.01755,-0.01785,-0.01114,-0.00336,-0.0325,-0.02106,0.00397,-0.04227
2.4975,-0.01205,-0.03464,-0.02426,-0.02136,-0.02823,-0.04684,-0.01541,-0.0119,-0.01663,-0.01587,-0.01114,-0.00015,-0.03326,-0.0209,0.00504,-0.03983
2.498,-0.01175,-0.04318,-0.02747,-0.02075,-0.02869,-0.04745,-0.01785,-0.00977,-0.01633,-0.01587,-0.01205,0.00168,-0.03342,-0.01999,0.00473,-0.03845
2.4985,-0.01114,-0.05005,-0.03006,-0.02197,-0.02991,-0.04852,-0.01678,-0.00565,-0.01709,-0.01907,-0.01312,0.00092,-0.03342,-0.01862,0.00641,-0.03723
2.499,-0.01053,-0.05737,-0.0322,-0.02411,-0.03098,-0.04852,-0.01404,-0.00183,-0.01846,-0.02121,-0.0145,-0.00015,-0.03265,-0.01938,0.00778,-0.03845
2.4995,-0.01022,-0.06516,-0.03235,-0.02533,-0.03174,-0.04822,-0.01236,-0.00046,-0.01694,-0.02151,-0.01465,0.00061,-0.03189,-0.02029,0.00854,-0.03952
2.5,-0.01083,-0.07019,-0.03189,-0.02518,-0.0325,-0.04883,-0.01297,-0.00092,-0.01434,-0.01938,-0.0145,0.00259,-0.03204,-0.02075,0.00854,-0.04074
2.5005,-0.01099,-0.07187,-0.03067,-0.02258,-0.03357,-0.04929,-0.01373,-0.00092,-0.01343,-0.01877,-0.01434,0.00351,-0.03326,-0.02014,0.00916,-0.04227
2.501,-0.01129,-0.07172,-0.02914,-0.01434,-0.03296,-0.05142,-0.01266,-0.00046,-0.01602,-0.01907,-0.01389,0.00381,-0.03632,-0.01968,0.00854,-0.04425
2.5015,-0.01114,-0.07141,-0.0296,0.00076,-0.03189,-0.05127,-0.01221,0.00107,-0.01984,-0.02106,-0.01144,0.00259,-0.03876,-0.01831,0.00702,-0.04578
2.502,-0.01068,-0.07065,-0.0293,0.01312,-0.03174,-0.05051,-0.01053,0.00214,-0.02197,-0.02289,-0.01068,0.00137,-0.03799,-0.01709,0.00656,-0.04593
2.5025,-0.00977,-0.06866,-0.02716,0.01297,-0.03082,-0.04913,-0.01099,0.00198,-0.02258,-0.02457,-0.01251,0.0,-0.03601,-0.01633,0.00732,-0.0441
2.503,-0.00763,-0.06592,-0.02594,0.00198,-0.02991,-0.04944,-0.0116,-0.00015,-0.02258,-0.02716,-0.01648,0.00031,-0.03357,-0.01663,0.00778,-0.04242
2.5035,-0.0061,-0.065,-0.02853,-0.00702,-0.03006,-0.0502,-0.01099,-0.0032,-0.02136,-0.03052,-0.02182,0.00107,-0.0325,-0.0174,0.00565,-0.03967
2.504,-0.00519,-0.06622,-0.03616,-0.00839,-0.02975,-0.05051,-0.01068,-0.0058,-0.02075,-0.03265,-0.02182,0.00198,-0.03265,-0.01694,0.00458,-0.03845
2.5045,-0.00305,-0.06622,-0.04593,-0.00519,-0.03159,-0.0502,-0.01053,-0.0061,-0.01923,-0.03357,-0.01938,0.00198,-0.03311,-0.01633,0.00595,-0.03799
2.505,0.00046,-0.06409,-0.05341,-0.00458,-0.03357,-0.0502,-0.01129,-0.00473,-0.01816,-0.03448,-0.01709,0.00214,-0.03403,-0.01663,0.00809,-0.03815
2.5055,0.0032,-0.06058,-0.05798,-0.00595,-0.03555,-0.04944,-0.01312,-0.00305,-0.01709,-0.03418,-0.01633,0.00168,-0.03479,-0.01862,0.00854,-0.03891
2.506,0.00412,-0.05508,-0.05569,-0.00595,-0.03616,-0.04974,-0.01572,-0.00244,-0.01709,-0.03189,-0.01892,0.00183,-0.03494,-0.01892,0.00687,-0.04044
2.5065,0.00351,-0.04852,-0.047,-0.00656,-0.03448,-0.05051,-0.01755,-0.00122,-0.01694,-0.03143,-0.0209,0.00229,-0.03494,-0.02014,0.00687,-0.04303
2.507,0.00198,-0.04166,-0.03693,-0.00656,-0.03326,-0.05035,-0.01724,-0.00031,-0.01633,-0.03494,-0.02029,0.00244,-0.03525,-0.02075,0.00916,-0.04608
2.5075,0.0,-0.03754,-0.03006,-0.00641,-0.0322,-0.04791,-0.0177,0.00015,-0.01617,-0.03754,-0.01816,0.00229,-0.03464,-0.0206,0.01175,-0.04898
2.508,-0.00244,-0.03586,-0.02716,-0.00565,-0.03128,-0.04654,-0.0174,-0.00061,-0.01785,-0.03845,-0.01572,0.00275,-0.03296,-0.02014,0.01434,-0.04837
2.5085,-0.00305,-0.03479,-0.02869,-0.00183,-0.03113,-0.04639,-0.01709,-0.00214,-0.02029,-0.03876,-0.01465,0.00275,-0.03265,-0.01923,0.0148,-0.04379
2.509,-0.00275,-0.03311,-0.0322,0.00153,-0.03204,-0.04791,-0.01633,-0.00458,-0.01999,-0.03784,-0.01556,0.0029,-0.03296,-0.01923,0.01495,-0.03845
2.5095,-0.00275,-0.02945,-0.03754,0.00504,-0.0325,-0.04776,-0.01465,-0.00458,-0.01587,-0.03693,-0.01846,0.00214,-0.03265,-0.01816,0.01312,-0.03403
2.51,-0.00229,-0.02731,-0.05188,0.00946,-0.03174,-0.0473,-0.0116,-0.00168,-0.01022,-0.03494,-0.02365,0.00137,-0.03204,-0.01709,0.01205,-0.02975
2.5105,-0.00137,-0.02548,-0.08392,0.0148,-0.02991,-0.04745,-0.00702,0.00122,-0.00854,-0.03387,-0.0296,0.00061,-0.03021,-0.01801,0.00839,-0.02731
2.511,-0.00031,-0.02548,-0.13153,0.01724,-0.02869,-0.047,-0.00275,0.00153,-0.00992,-0.03189,-0.0325,0.00061,-0.02945,-0.01877,0.00549,-0.03128
2.5115,-0.00076,-0.02548,-0.16296,0.01389,-0.02762,-0.04639,-0.00275,-0.00153,-0.01236,-0.02853,-0.02914,0.00092,-0.02869,-0.01953,0.00366,-0.0415
2.512,-0.0032,-0.02518,-0.13626,0.00687,-0.02731,-0.04562,-0.00839,-0.0061,-0.01266,-0.02335,-0.01999,0.00031,-0.0293,-0.01923,0.00336,-0.05325
2.5125,-0.0058,-0.02548,-0.05112,-0.00183,-0.02808,-0.04471,-0.01526,-0.00717,-0.01389,-0.01678,-0.01007,-0.00061,-0.02975,-0.01862,-0.00168,-0.05646
2.513,-0.00732,-0.02716,0.04074,-0.01175,-0.02914,-0.04471,-0.01846,-0.00626,-0.01587,-0.01205,-0.00305,-0.0029,-0.03021,-0.01816,-0.00946,-0.05066
2.5135,-0.00793,-0.02975,0.09079,-0.02197,-0.02914,-0.04593,-0.01831,-0.00488,-0.01785,-0.00992,-0.00031,-0.00458,-0.02975,-0.0174,-0.01297,-0.0444
2.514,-0.00824,-0.03265,0.09491,-0.03143,-0.02838,-0.04639,-0.01633,-0.00427,-0.01938,-0.00763,0.00061,-0.00351,-0.02838,-0.01755,-0.00168,-0.04547
2.5145,-0.00885,-0.03662,0.07782,-0.04044,-0.02747,-0.04654,-0.01312,-0.00504,-0.01892,-0.00183,0.0,-0.00076,-0.02731,-0.01831,0.02289,-0.05249
2.515,-0.01251,-0.03998,0.0592,-0.04852,-0.02869,-0.04623,-0.01068,-0.00412,-0.01724,0.00793,-0.00183,0.00046,-0.02701,-0.01984,0.04227,-0.05753
2.5155,-0.01617,-0.04059,0.04196,-0.05447,-0.02914,-0.04761,-0.00854,-0.00305,-0.01511,0.01678,-0.00275,0.00031,-0.02792,-0.02014,0.03494,-0.05646
2.516,-0.01724,-0.03784,0.02487,-0.05692,-0.0296,-0.04776,-0.00809,-0.00168,-0.01068,0.0174,-0.00351,-0.00031,-0.02884,-0.02029,0.00641,-0.05386
2.5165,-0.0148,-0.0354,0.0087,-0.05692,-0.03189,-0.04669,-0.00946,-0.00031,-0.00534,0.00641,-0.00458,0.0,-0.02838,-0.01968,-0.01587,-0.05386
2.517,-0.01114,-0.03372,-0.00763,-0.05585,-0.03418,-0.04532,-0.01205,0.0,-0.00229,-0.00961,-0.00595,-0.00031,-0.02884,-0.01907,-0.01602,-0.0531
2.5175,-0.00916,-0.03372,-0.02869,-0.05402,-0.03647,-0.04547,-0.01556,-0.00214,-0.00427,-0.02182,-0.00732,-0.00046,-0.03006,-0.01892,-0.00214,-0.04776
2.518,-0.00931,-0.03418,-0.05249,-0.04898,-0.03555,-0.04654,-0.0206,-0.00381,-0.00931,-0.02686,-0.00916,-0.00061,-0.03067,-0.01907,0.00931,-0.04044
2.5185,-0.00916,-0.03754,-0.07187,-0.04013,-0.03326,-0.04745,-0.02396,-0.00305,-0.01236,-0.02441,-0.01114,0.00031,-0.02991,-0.01984,0.01495,-0.03906
2.519,-0.00839,-0.0415,-0.08102,-0.02502,-0.03265,-0.04791,-0.02335,-0.00046,-0.01343,-0.0209,-0.01617,0.00046,-0.03021,-0.02029,0.01907,-0.04501
2.5195,-0.00565,-0.04471,-0.07813,-0.0032,-0.0325,-0.04715,-0.01892,0.00122,-0.01404,-0.0177,-0.0206,0.0,-0.03204,-0.02014,0.02243,-0.05173
2.52,-0.00046,-0.04547,-0.06744,0.01923,-0.03342,-0.04517,-0.01358,0.00137,-0.01556,-0.01572,-0.02243,-0.00031,-0.03281,-0.01953,0.02319,-0.0502
2.5205,0.00504,-0.04486,-0.05615,0.03006,-0.03113,-0.04379,-0.01175,0.00122,-0.01709,-0.01312,-0.02274,-0.00031,-0.03189,-0.01801,0.01907,-0.04089
2.521,0.009,-0.04349,-0.05188,0.02029,-0.0293,-0.04303,-0.0116,0.00259,-0.01511,-0.01068,-0.02289,-0.00061,-0.03067,-0.01602,0.01236,-0.03006
2.5215,0.01083,-0.0412,-0.05402,-0.00168,-0.02838,-0.04242,-0.01129,0.00458,-0.01205,-0.00961,-0.02319,-0.00214,-0.03036,-0.01617,0.00778,-0.02792
2.522,0.01083,-0.03754,-0.05859,-0.01999,-0.0296,-0.04196,-0.01038,0.0061,-0.009,-0.0087,-0.02457,-0.00305,-0.03174,-0.01678,0.00671,-0.0386
2.5225,0.00946,-0.03357,-0.06073,-0.02457,-0.03021,-0.04288,-0.01053,0.0061,-0.00443,-0.00717,-0.02594,-0.00305,-0.03387,-0.0174,0.00824,-0.05219
2.523,0.00748,-0.03143,-0.05859,-0.01892,-0.02899,-0.04288,-0.01282,0.0058,0.00275,-0.00381,-0.02808,-0.00244,-0.03586,-0.01648,0.0087,-0.05753
2.5235,0.00473,-0.03204,-0.05417,-0.01282,-0.02762,-0.04425,-0.01602,0.00488,0.00641,0.0029,-0.02975,-0.00107,-0.03754,-0.01511,0.00732,-0.05112
2.524,0.00397,-0.03601,-0.04944,-0.00992,-0.02777,-0.0441,-0.01587,0.00381,0.00473,0.01099,-0.03571,0.0,-0.03799,-0.01587,0.00595,-0.04013
2.5245,0.00366,-0.03983,-0.04684,-0.00748,-0.0296,-0.0444,-0.01404,0.00244,0.00076,0.01328,-0.04593,0.00244,-0.03693,-0.01678,0.00656,-0.03387
2.525,0.00214,-0.04181,-0.04456,-0.00427,-0.03265,-0.04517,-0.01297,-0.00122,-0.00336,0.00519,-0.05325,0.00397,-0.03586,-0.0177,0.00931,-0.03326
2.5255,-0.00183,-0.04105,-0.04013,-0.00183,-0.03555,-0.04578,-0.01328,-0.00702,-0.00977,-0.00839,-0.05264,0.00336,-0.03494,-0.01831,0.01083,-0.0325
2.526,-0.00641,-0.03922,-0.03143,-0.00061,-0.03799,-0.0473,-0.01343,-0.01099,-0.0174,-0.02167,-0.0473,0.00061,-0.0351,-0.01877,0.00854,-0.03113
2.5265,-0.00854,-0.03769,-0.02029,0.00107,-0.0383,-0.04852,-0.01251,-0.0119,-0.0238,-0.03296,-0.04257,-0.00183,-0.03387,-0.01907,0.00412,-0.03525
2.527,-0.00885,-0.03677,-0.02014,0.0029,-0.03723,-0.04913,-0.0119,-0.00992,-0.02884,-0.04883,-0.03799,-0.00122,-0.03235,-0.01938,0.00336,-0.04242
2.5275,-0.00763,-0.03723,-0.04074,0.00336,-0.03555,-0.04929,-0.01221,-0.00961,-0.03174,-0.065,-0.02853,0.00046,-0.03204,-0.01984,0.00763,-0.04669
2.528,-0.00778,-0.03922,-0.07065,0.00229,-0.0354,-0.04913,-0.01389,-0.01068,-0.03326,-0.07141,-0.01663,0.00198,-0.03174,-0.02014,0.01236,-0.04608
2.5285,-0.00931,-0.04059,-0.08026,0.00092,-0.03769,-0.04974,-0.0145,-0.01114,-0.03128,-0.06485,-0.00565,0.0029,-0.03113,-0.01999,0.01282,-0.04456
2.529,-0.01007,-0.04059,-0.05539,-0.00259,-0.03967,-0.05096,-0.01511,-0.00885,-0.02609,-0.05157,0.0029,0.00305,-0.03082,-0.01892,0.00778,-0.04578
2.5295,-0.00824,-0.04059,-0.01083,-0.01038,-0.04135,-0.05142,-0.0148,-0.00427,-0.02045,-0.04044,0.00854,0.00153,-0.03296,-0.01923,0.00214,-0.04929
2.53,-0.00656,-0.04105,0.02106,-0.02136,-0.03952,-0.05051,-0.01465,-0.00061,-0.01846,-0.03159,0.01083,0.00061,-0.03479,-0.02014,0.00153,-0.05127
2.5305,-0.00565,-0.04242,0.02899,-0.02777,-0.03647,-0.04929,-0.01617,-0.00122,-0.01984,-0.02151,0.01221,0.00031,-0.03494,-0.02029,0.00458,-0.0499
2.531,-0.00641,-0.04318,0.02167,-0.02945,-0.03403,-0.04807,-0.01953,-0.00473,-0.02228,-0.01114,0.01144,0.00046,-0.03418,-0.01984,0.00732,-0.04578
2.5315,-0.00626,-0.04364,0.00748,-0.03036,-0.03326,-0.04608,-0.02045,-0.00793,-0.02365,-0.00488,0.00885,0.00061,-0.03387,-0.02045,0.00793,-0.04364
2.532,-0.00519,-0.0444,-0.00595,-0.03464,-0.03311,-0.0441,-0.01984,-0.00977,-0.0235,-0.00214,0.00565,0.00015,-0.03479,-0.02075,0.01022,-0.04272
2.5325,-0.00397,-0.04562,-0.01816,-0.03952,-0.03174,-0.04379,-0.01862,-0.00824,-0.02121,-0.00046,0.00122,0.00046,-0.03403,-0.02151,0.01129,-0.04227
2.533,-0.00381,-0.0444,-0.0293,-0.04211,-0.03113,-0.04547,-0.01968,-0.0061,-0.01953,0.00229,-0.00259,0.00183,-0.03174,-0.02151,0.0116,-0.04135
2.5335,-0.00519,-0.04242,-0.04105,-0.02502,-0.03082,-0.047,-0.02213,-0.00458,-0.02106,0.00565,-0.00443,0.00275,-0.02991,-0.02151,0.01099,-0.04089
2.534,-0.009,-0.04074,-0.05402,0.03159,-0.03082,-0.04639,-0.02563,-0.00351,-0.02426,0.00885,-0.00381,0.00198,-0.02914,-0.02045,0.01099,-0.04105
2.5345,-0.01389,-0.03998,-0.0647,0.10818,-0.03067,-0.04395,-0.02838,-0.0029,-0.02548,0.01099,0.00031,0.00031,-0.03036,-0.01938,0.01205,-0.04044
2.535,-0.01663,-0.03998,-0.06973,0.14435,-0.02899,-0.04364,-0.02625,-0.00183,-0.02243,0.01328,0.00443,-0.00061,-0.03143,-0.0177,0.01312,-0.03937
2.5355,-0.01389,-0.03998,-0.07202,0.10483,-0.02716,-0.04578,-0.01694,0.0,-0.02075,0.00931,0.00854,-0.00183,-0.03204,-0.01663,0.01343,-0.0386
2.536,-0.00763,-0.04028,-0.07385,0.03082,-0.02487,-0.04837,-0.0029,0.00046,-0.0238,-0.0032,0.01053,-0.00168,-0.03326,-0.01694,0.0116,-0.03784
2.5365,-0.00229,-0.04196,-0.07111,-0.01602,-0.02228,-0.04776,0.00732,0.00183,-0.03021,-0.01938,0.0148,-0.00168,-0.03342,-0.01755,0.00931,-0.03754
2.537,0.0,-0.0441,-0.05829,-0.02182,-0.02075,-0.04639,0.00885,0.00092,-0.03448,-0.02975,0.02289,-0.00061,-0.0322,-0.0177,0.00687,-0.03754
2.5375,0.00107,-0.04486,-0.0441,-0.01587,-0.0206,-0.04608,0.00198,-0.00214,-0.03326,-0.03128,0.03128,-0.00015,-0.03082,-0.01846,0.00626,-0.03937
2.538,0.00015,-0.04501,-0.03555,-0.0177,-0.0209,-0.04669,-0.00671,-0.00534,-0.02731,-0.02899,0.02991,0.00061,-0.03082,-0.01846,0.00778,-0.04044
2.5385,-0.00214,-0.04318,-0.03326,-0.02289,-0.02243,-0.04654,-0.01129,-0.00626,-0.0209,-0.02655,0.01984,0.00061,-0.03082,-0.01892,0.00885,-0.04089
2.539,-0.00534,-0.04135,-0.0322,-0.0235,-0.02335,-0.0444,-0.01099,-0.00565,-0.01312,-0.0235,0.01099,0.00046,-0.03098,-0.01816,0.00839,-0.03998
2.5395,-0.00534,-0.03952,-0.03036,-0.02228,-0.02502,-0.04349,-0.00839,-0.0058,-0.00687,-0.02136,0.01205,-0.00031,-0.0322,-0.01694,0.00916,-0.03738
2.54,-0.00443,-0.03922,-0.02853,-0.02258,-0.02762,-0.04425,-0.00732,-0.00702,-0.00244,-0.01938,0.01587,-0.00122,-0.03326,-0.01602,0.00977,-0.03235
2.5405,-0.00137,-0.03998,-0.0293,-0.02319,-0.0325,-0.04684,-0.00839,-0.00748,0.00031,-0.02121,0.00977,-0.00092,-0.03326,-0.01648,0.01114,-0.02945
2.541,0.00046,-0.04135,-0.03159,-0.01877,-0.03479,-0.05005,-0.0119,-0.00702,0.00092,-0.02548,-0.00565,0.0,-0.0322,-0.01678,0.0116,-0.02808
2.5415,0.00061,-0.04074,-0.03204,-0.00488,-0.03799,-0.05142,-0.01373,-0.00595,0.00031,-0.03006,-0.02075,0.00046,-0.03113,-0.0177,0.01221,-0.02914
2.542,0.00031,-0.03952,-0.03067,0.01617,-0.0412,-0.05203,-0.01328,-0.00656,-0.00168,-0.03113,-0.0296,0.00092,-0.03113,-0.01846,0.01343,-0.03235
2.5425,-0.00015,-0.03815,-0.02792,0.03723,-0.04181,-0.04959,-0.01297,-0.00793,-0.00198,-0.03082,-0.03448,0.00183,-0.03143,-0.01801,0.01251,-0.03601
2.543,0.00122,-0.03662,-0.0264,0.04135,-0.03799,-0.04761,-0.01419,-0.00824,-0.00366,-0.03082,-0.04089,0.0029,-0.03159,-0.0177,0.00977,-0.03891
2.5435,0.00183,-0.03845,-0.0264,0.02213,-0.03403,-0.04669,-0.01572,-0.00565,-0.00885,-0.03387,-0.04608,0.00305,-0.03159,-0.01831,0.00626,-0.03983
2.544,0.00015,-0.04272,-0.02655,-0.00809,-0.03372,-0.04745,-0.01648,-0.00229,-0.01511,-0.03571,-0.04852,0.00153,-0.03128,-0.01938,0.00626,-0.03998
2.5445,-0.00107,-0.05035,-0.0267,-0.0322,-0.03494,-0.04944,-0.01755,-0.00015,-0.02029,-0.03281,-0.04578,0.00015,-0.03204,-0.0209,0.00977,-0.04089
2.545,-0.00229,-0.06027,-0.02731,-0.04974,-0.0351,-0.05096,-0.02014,0.00046,-0.02502,-0.02502,-0.04135,-0.00076,-0.03418,-0.02167,0.01312,-0.04059
2.5455,-0.00381,-0.06714,-0.02808,-0.0705,-0.03326,-0.05112,-0.02029,0.00107,-0.0296,-0.01404,-0.0383,-0.00076,-0.0354,-0.02182,0.01526,-0.03952
2.546,-0.00488,-0.06653,-0.0267,-0.09918,-0.03204,-0.04913,-0.01877,0.00031,-0.03235,-0.00504,-0.03876,-0.00046,-0.03525,-0.02167,0.01572,-0.03876
2.5465,-0.00656,-0.05707,-0.02289,-0.12222,-0.0325,-0.04547,-0.0148,-0.00076,-0.03296,0.00183,-0.04364,0.00076,-0.03448,-0.02228,0.01663,-0.04074
2.547,-0.009,-0.04669,-0.01953,-0.12436,-0.03372,-0.04303,-0.0119,-0.0032,-0.03143,0.00412,-0.05051,0.00153,-0.03448,-0.02106,0.01633,-0.04456
2.5475,-0.01205,-0.03967,-0.0174,-0.10544,-0.03372,-0.0415,-0.01022,-0.00427,-0.02975,0.00122,-0.05676,0.00046,-0.03372,-0.01877,0.0119,-0.04852
2.548,-0.01297,-0.03555,-0.01572,-0.0769,-0.03448,-0.04349,-0.01068,-0.00427,-0.02686,-0.00595,-0.05798,-0.00183,-0.03159,-0.01602,0.00595,-0.05051
2.5485,-0.01266,-0.03052,-0.01205,-0.05157,-0.0354,-0.04578,-0.0116,-0.00351,-0.02151,-0.01205,-0.05341,-0.00275,-0.02914,-0.01434,0.00214,-0.05035
2.549,-0.01053,-0.02609,-0.00992,-0.04181,-0.03571,-0.04745,-0.01251,-0.00122,-0.01236,-0.01648,-0.04456,-0.00305,-0.02808,-0.0145,0.00214,-0.04929
2.5495,-0.00931,-0.02319,-0.0116,-0.0383,-0.03494,-0.04944,-0.01251,0.00015,-0.00336,-0.01846,-0.03433,-0.00244,-0.02823,-0.01511,0.00305,-0.04761
2.55,-0.00992,-0.02045,-0.01709,-0.01389,-0.03265,-0.05142,-0.01251,-0.00015,0.00397,-0.01602,-0.02548,-0.00107,-0.02762,-0.01617,0.00107,-0.04501
2.5505,-0.01144,-0.01587,-0.02289,0.04669,-0.03067,-0.05249,-0.01358,-0.00015,0.00717,-0.01053,-0.01816,0.00061,-0.0267,-0.01694,0.00107,-0.04105
2.551,-0.01099,-0.01129,-0.02884,0.10696,-0.0296,-0.05173,-0.01526,0.00015,0.00519,-0.00656,-0.01343,0.00275,-0.0264,-0.01678,0.0061,-0.03662
2.5515,-0.00809,-0.00992,-0.03296,0.11414,-0.02991,-0.05188,-0.01663,0.00122,0.00244,-0.00565,-0.009,0.00427,-0.02808,-0.01724,0.01297,-0.03235
2.552,-0.00565,-0.01297,-0.03708,0.07034,-0.03082,-0.05295,-0.01617,0.00137,0.00137,-0.00793,-0.00748,0.00275,-0.02899,-0.01785,0.01556,-0.02792
2.5525,-0.00381,-0.01831,-0.04227,0.02808,-0.03204,-0.05402,-0.01434,0.00076,0.00305,-0.01144,-0.0087,0.00092,-0.03052,-0.01709,0.01495,-0.0264
2.553,-0.00198,-0.02426,-0.04944,0.01572,-0.03189,-0.05417,-0.01099,0.00046,0.00626,-0.01434,-0.01205,0.00076,-0.03204,-0.01617,0.01312,-0.02838
2.5535,0.00046,-0.02945,-0.05768,0.0174,-0.03204,-0.05234,-0.00854,0.00168,0.00824,-0.01694,-0.01511,0.00259,-0.03296,-0.01556,0.01358,-0.03296
2.554,0.00168,-0.03372,-0.06317,0.0087,-0.03143,-0.05081,-0.00946,0.00168,0.00778,-0.02045,-0.01663,0.00275,-0.03235,-0.01602,0.01129,-0.03967
2.5545,0.00336,-0.03769,-0.06271,-0.00717,-0.03143,-0.04929,-0.01373,-0.00107,0.00397,-0.02884,-0.0148,0.00183,-0.03143,-0.01678,0.00504,-0.04593
2.555,0.00473,-0.04013,-0.0589,-0.01892,-0.03052,-0.04837,-0.01694,-0.00473,-0.00229,-0.04257,-0.00839,-0.00031,-0.03082,-0.01755,-0.00229,-0.05081
2.5555,0.0058,-0.04242,-0.05844,-0.03006,-0.02792,-0.04715,-0.01831,-0.00809,-0.00717,-0.05386,0.00061,-0.00244,-0.03143,-0.01755,-0.00443,-0.05325
2.556,0.00626,-0.04471,-0.06393,-0.0441,-0.02686,-0.047,-0.02045,-0.01038,-0.00717,-0.05768,0.0087,-0.00366,-0.03082,-0.01831,-0.00198,-0.05188
2.5565,0.00717,-0.04883,-0.07141,-0.06226,-0.02594,-0.0473,-0.02441,-0.01236,-0.00381,-0.05356,0.01175,-0.00305,-0.02975,-0.01816,0.00381,-0.0473
2.557,0.00687,-0.05356,-0.07309,-0.07538,-0.02609,-0.04761,-0.02396,-0.01328,-0.00107,-0.04715,0.01221,-0.00183,-0.02853,-0.0174,0.00763,-0.04364
2.5575,0.0061,-0.05661,-0.06546,-0.07278,-0.02777,-0.04562,-0.01846,-0.01221,-0.00336,-0.04044,0.01175,0.00031,-0.02853,-0.01663,0.01007,-0.04044
2.558,0.00427,-0.05814,-0.05295,-0.0441,-0.02838,-0.04349,-0.01266,-0.00854,-0.00946,-0.03067,0.01053,0.00168,-0.02975,-0.01678,0.01068,-0.03922
2.5585,0.00183,-0.05768,-0.0441,0.00565,-0.02899,-0.0412,-0.01007,-0.00397,-0.01526,-0.01846,0.00824,0.00244,-0.0296,-0.0174,0.00885,-0.03906
2.559,-0.00092,-0.05356,-0.04181,0.05234,-0.0296,-0.04059,-0.01236,-0.00061,-0.01617,-0.0058,0.00275,0.00259,-0.03021,-0.01877,0.00458,-0.03937
2.5595,-0.00336,-0.04486,-0.04166,0.07126,-0.02945,-0.03952,-0.0145,0.0,-0.01312,0.00198,-0.00549,0.00183,-0.03143,-0.01846,0.00229,-0.04105
2.56,-0.00519,-0.03677,-0.03937,0.05966,-0.02853,-0.03784,-0.01556,-0.00229,-0.00916,0.00122,-0.01617,0.0,-0.03296,-0.0174,0.00168,-0.04364
2.5605,-0.00595,-0.03342,-0.03662,0.04196,-0.02853,-0.0354,-0.01495,-0.00443,-0.00626,-0.00397,-0.0264,0.0,-0.03296,-0.01663,0.00397,-0.0441
2.561,-0.00885,-0.03311,-0.03342,0.03296,-0.02884,-0.03387,-0.01343,-0.00473,-0.00626,-0.00885,-0.03372,0.00168,-0.03296,-0.01663,0.00534,-0.04318
2.5615,-0.01205,-0.03128,-0.03143,0.02792,-0.03052,-0.03387,-0.01389,-0.00259,-0.00946,-0.01144,-0.03754,0.00305,-0.03265,-0.01724,0.00641,-0.04181
2.562,-0.01419,-0.02823,-0.0296,0.01556,-0.03006,-0.0351,-0.01526,-0.00031,-0.01495,-0.01312,-0.03937,0.00366,-0.0322,-0.01831,0.00824,-0.04257
2.5625,-0.01312,-0.02304,-0.02716,-0.00351,-0.03082,-0.03952,-0.01556,0.00076,-0.01862,-0.0145,-0.03922,0.00214,-0.03265,-0.01831,0.00946,-0.04486
2.563,-0.0119,-0.01633,-0.02289,-0.01923,-0.03143,-0.04456,-0.01541,0.00092,-0.01862,-0.01526,-0.03555,0.00107,-0.03342,-0.0177,0.00946,-0.04623
2.5635,-0.01266,-0.01007,-0.01556,-0.02533,-0.03265,-0.05127,-0.01526,0.00107,-0.01694,-0.01526,-0.02747,0.00153,-0.03342,-0.01678,0.00854,-0.04318
2.564,-0.01602,-0.00946,-0.00763,-0.02182,-0.03159,-0.06027,-0.0148,-0.00046,-0.01556,-0.0119,-0.01938,0.00153,-0.03326,-0.01724,0.00992,-0.03754
2.5645,-0.01633,-0.01862,-0.00275,-0.00946,-0.03082,-0.07126,-0.01343,-0.00153,-0.01434,-0.00687,-0.01297,0.00076,-0.03418,-0.01801,0.01144,-0.03494
2.565,-0.01175,-0.03067,-0.00336,0.00992,-0.03098,-0.07767,-0.01175,-0.0029,-0.01465,-0.00092,-0.00977,0.0,-0.03494,-0.01953,0.01358,-0.03815
2.5655,-0.00656,-0.03983,-0.00931,0.02853,-0.03036,-0.07156,-0.01114,-0.0029,-0.01556,0.00443,-0.00793,0.00015,-0.03479,-0.0209,0.01694,-0.04211
2.566,-0.00549,-0.04608,-0.01648,0.03052,-0.0293,-0.05661,-0.01175,-0.00244,-0.01648,0.00626,-0.00717,0.00122,-0.03525,-0.02136,0.01984,-0.04379
2.5665,-0.0058,-0.05142,-0.02319,0.009,-0.03082,-0.04395,-0.01266,-0.00351,-0.01526,0.00534,-0.00656,0.00183,-0.0354,-0.02151,0.02151,-0.04318
2.567,-0.0061,-0.05768,-0.02899,-0.02045,-0.0325,-0.04059,-0.01495,-0.00458,-0.01328,0.00168,-0.00565,0.00092,-0.03571,-0.02121,0.0209,-0.0444
2.5675,-0.00473,-0.06317,-0.03235,-0.03571,-0.03342,-0.04395,-0.01816,-0.00488,-0.01373,-0.00061,-0.0058,0.0,-0.03601,-0.02121,0.01938,-0.04623
2.568,-0.00519,-0.0676,-0.03479,-0.03357,-0.03265,-0.04883,-0.0206,-0.00397,-0.0148,-0.00397,-0.00839,0.0,-0.03555,-0.02045,0.01495,-0.04562
2.5685,-0.00717,-0.07248,-0.03738,-0.0264,-0.03204,-0.05219,-0.0209,-0.00214,-0.01648,-0.00916,-0.01251,0.00015,-0.03479,-0.01968,0.00748,-0.04379
2.569,-0.00702,-0.07629,-0.04196,-0.02335,-0.03098,-0.05173,-0.01877,0.00076,-0.0177,-0.01572,-0.01572,0.0,-0.03479,-0.01785,-0.0029,-0.04135
2.5695,-0.00336,-0.07797,-0.04822,-0.02319,-0.03021,-0.04776,-0.01404,0.00748,-0.02014,-0.02121,-0.01587,0.00092,-0.03326,-0.01633,-0.00778,-0.04013
2.57,0.00122,-0.07828,-0.0528,-0.02243,-0.02838,-0.04196,-0.00565,0.01846,-0.02319,-0.02319,-0.01343,0.00336,-0.02975,-0.01724,-0.00702,-0.03967
2.5705,0.00443,-0.0798,-0.05219,-0.02121,-0.02731,-0.03845,0.00336,0.02731,-0.0264,-0.02533,-0.00992,0.00427,-0.02686,-0.01938,-0.00305,-0.03998
2.571,0.00412,-0.08163,-0.04868,-0.01953,-0.02808,-0.0383,0.00824,0.02823,-0.02716,-0.02808,-0.00687,0.00198,-0.02686,-0.02014,0.00031,-0.03998
2.5715,0.00397,-0.0853,-0.04501,-0.01953,-0.0296,-0.04166,0.00198,0.01892,-0.02625,-0.03006,-0.00351,-0.00061,-0.02869,-0.01923,0.00198,-0.04013
2.572,0.00412,-0.09125,-0.04425,-0.02014,-0.03082,-0.04456,-0.01236,0.00336,-0.02548,-0.03159,0.0,-0.00168,-0.03113,-0.01862,0.00336,-0.03952
2.5725,0.00519,-0.09735,-0.04562,-0.02487,-0.03052,-0.04517,-0.02518,-0.01358,-0.02594,-0.03159,0.00183,-0.00061,-0.03235,-0.01877,0.00565,-0.03876
2.573,0.00504,-0.09583,-0.04501,-0.0322,-0.02914,-0.04349,-0.02853,-0.02975,-0.02502,-0.03098,0.00168,-0.00061,-0.03265,-0.01938,0.00763,-0.03754
2.5735,0.00351,-0.08423,-0.04272,-0.03769,-0.02899,-0.04395,-0.02487,-0.04135,-0.02136,-0.0293,-0.00031,-0.00168,-0.03159,-0.01862,0.00641,-0.03601
2.574,0.00122,-0.06744,-0.03952,-0.03647,-0.03006,-0.04456,-0.02167,-0.04288,-0.0145,-0.02792,-0.00122,-0.00198,-0.03082,-0.01953,0.00443,-0.03555
2.5745,-0.00214,-0.05249,-0.03662,-0.03082,-0.03174,-0.04807,-0.02167,-0.0354,-0.00824,-0.02686,0.00168,-0.00107,-0.03082,-0.01968,0.00275,-0.03708
2.575,-0.00412,-0.0415,-0.03372,-0.02487,-0.03174,-0.05249,-0.0206,-0.0235,-0.0058,-0.02548,0.00565,0.00015,-0.03052,-0.01968,0.00427,-0.03815
2.5755,-0.00397,-0.03372,-0.02853,-0.02213,-0.03021,-0.05844,-0.01587,-0.01343,-0.00641,-0.02533,0.00778,-0.00107,-0.03006,-0.02029,0.00748,-0.03845
2.576,-0.00244,-0.02777,-0.02457,-0.02167,-0.03082,-0.06454,-0.01144,-0.00717,-0.0087,-0.02594,0.00916,-0.00305,-0.02991,-0.0206,0.00946,-0.03983
2.5765,-0.00168,-0.02411,-0.02472,-0.01862,-0.03113,-0.06699,-0.00839,-0.00412,-0.00992,-0.02808,0.0061,-0.00381,-0.03143,-0.02029,0.01068,-0.04227
2.577,-0.00305,-0.02075,-0.02716,-0.01389,-0.03204,-0.06271,-0.00809,-0.00183,-0.01038,-0.03143,0.00107,-0.00351,-0.03357,-0.01999,0.01144,-0.04364
2.5775,-0.00595,-0.02014,-0.03143,-0.01022,-0.0322,-0.05798,-0.00824,0.00137,-0.00946,-0.03464,-0.00412,-0.00275,-0.03387,-0.02075,0.01175,-0.04181
2.578,-0.00748,-0.01984,-0.03662,-0.00671,-0.0325,-0.05386,-0.01007,0.00351,-0.009,-0.03876,-0.00702,-0.00229,-0.03387,-0.02121,0.01083,-0.03723
2.5785,-0.00748,-0.0206,-0.04257,-0.00412,-0.03204,-0.05127,-0.01419,0.00244,-0.00748,-0.04227,-0.00763,-0.00275,-0.03525,-0.01999,0.00946,-0.03571
2.579,-0.00565,-0.02014,-0.04486,-0.00412,-0.03006,-0.0473,-0.01862,-0.00107,-0.00702,-0.0441,-0.00732,-0.0029,-0.03677,-0.01892,0.00931,-0.0386
2.5795,-0.00351,-0.01923,-0.04227,-0.00702,-0.02701,-0.04105,-0.01999,-0.00336,-0.00931,-0.04303,-0.00702,-0.00183,-0.03632,-0.01801,0.01038,-0.0444
2.58,-0.00076,-0.01862,-0.0351,-0.01038,-0.02426,-0.03555,-0.01801,-0.00336,-0.01404,-0.04105,-0.00809,0.00076,-0.03357,-0.01801,0.01251,-0.04807
2.5805,0.00122,-0.02075,-0.02914,-0.01221,-0.02441,-0.03342,-0.01526,-0.0032,-0.01831,-0.0386,-0.01114,0.0029,-0.03281,-0.01862,0.01282,-0.04562
2.581,0.00031,-0.02243,-0.02777,-0.01541,-0.0264,-0.03357,-0.01434,-0.00412,-0.01923,-0.03494,-0.01755,0.0029,-0.03403,-0.02014,0.01129,-0.03922
2.5815,-0.00275,-0.01968,-0.02853,-0.02136,-0.03021,-0.03571,-0.01389,-0.00458,-0.01694,-0.03174,-0.02319,0.00122,-0.0351,-0.01984,0.00809,-0.03418
2.582,-0.00626,-0.01312,-0.02716,-0.02899,-0.03372,-0.03662,-0.0145,-0.00351,-0.01404,-0.0267,-0.02518,-0.00229,-0.03479,-0.01968,0.00671,-0.0351
2.5825,-0.00885,-0.00931,-0.0264,-0.03098,-0.03586,-0.0383,-0.01434,-0.00046,-0.01282,-0.0206,-0.02808,-0.00381,-0.03387,-0.01923,0.00717,-0.03754
2.583,-0.01053,-0.01129,-0.02548,-0.02045,-0.03525,-0.03983,-0.01251,0.00107,-0.01312,-0.01144,-0.03571,-0.00259,-0.03265,-0.01938,0.00977,-0.04166
2.5835,-0.01022,-0.01801,-0.02197,-0.00031,-0.03387,-0.03891,-0.00916,0.00183,-0.01572,-0.00061,-0.04898,-0.00046,-0.03265,-0.02014,0.01053,-0.04425
2.584,-0.01022,-0.02563,-0.01343,0.01419,-0.03403,-0.03784,-0.00809,0.00275,-0.01755,0.00732,-0.0621,0.00046,-0.03326,-0.02167,0.00992,-0.04623
2.5845,-0.01099,-0.03082,-0.00366,0.00992,-0.03632,-0.03647,-0.01129,0.00351,-0.0177,0.00778,-0.06348,0.00092,-0.03174,-0.02228,0.0087,-0.0473
2.585,-0.01282,-0.03235,0.0,-0.00504,-0.03891,-0.0383,-0.01511,0.00168,-0.0148,0.00092,-0.05447,0.00259,-0.02914,-0.0206,0.00763,-0.04776
2.5855,-0.01556,-0.03082,-0.00793,-0.01236,-0.04059,-0.04272,-0.01511,-0.00214,-0.00946,-0.00412,-0.04105,0.0029,-0.02838,-0.01831,0.00763,-0.04974
2.586,-0.01816,-0.02884,-0.03891,-0.00549,-0.04074,-0.04807,-0.01175,-0.0058,-0.00671,-0.00137,-0.02808,0.00061,-0.03082,-0.01572,0.009,-0.05066
2.5865,-0.01846,-0.02762,-0.09857,0.00305,-0.03876,-0.05127,-0.00763,-0.00702,-0.00839,0.00595,-0.01663,-0.00153,-0.03296,-0.01511,0.01221,-0.04852
2.587,-0.01572,-0.0293,-0.16296,0.00244,-0.03723,-0.05219,-0.0058,-0.00443,-0.01282,0.00977,-0.01129,-0.00092,-0.03281,-0.01587,0.01328,-0.04379
2.5875,-0.0119,-0.03357,-0.18417,-0.0061,-0.03571,-0.05371,-0.00656,-0.00183,-0.01495,0.00504,-0.0145,0.00031,-0.03098,-0.01678,0.01312,-0.0383
2.588,-0.00824,-0.03647,-0.13458,-0.01526,-0.0354,-0.05783,-0.00748,-0.00046,-0.01389,-0.00458,-0.02747,0.00153,-0.03098,-0.01694,0.01236,-0.0354
2.5885,-0.00565,-0.0386,-0.04547,-0.01862,-0.0351,-0.06332,-0.00885,0.00061,-0.01282,-0.01312,-0.04547,-0.00031,-0.03204,-0.01617,0.01144,-0.03677
2.589,-0.00534,-0.04074,0.02808,-0.01785,-0.03357,-0.06516,-0.00961,0.00153,-0.01419,-0.0177,-0.05524,-0.00168,-0.03326,-0.01633,0.00824,-0.04059
2.5895,-0.00656,-0.04196,0.05676,-0.01495,-0.0322,-0.06058,-0.01205,0.00198,-0.01694,-0.01923,-0.04868,-0.00229,-0.03159,-0.01678,0.00275,-0.04196
2.59,-0.00778,-0.04166,0.05371,-0.01434,-0.03159,-0.04929,-0.01953,0.00122,-0.01938,-0.0209,-0.02792,-0.00183,-0.02914,-0.01785,0.00015,-0.03998
2.5905,-0.00732,-0.04211,0.04044,-0.01526,-0.03265,-0.03723,-0.02884,-0.00168,-0.02243,-0.02243,-0.00565,-0.00153,-0.0293,-0.01816,0.00061,-0.03845
2.591,-0.00519,-0.04517,0.02731,-0.01572,-0.03296,-0.0325,-0.03098,-0.00443,-0.02472,-0.02502,0.01053,-0.00107,-0.03159,-0.01862,0.00427,-0.04028
2.5915,-0.00168,-0.04913,0.01373,-0.01526,-0.03098,-0.03479,-0.02274,-0.00427,-0.02487,-0.0267,0.01984,-0.00031,-0.03372,-0.01831,0.00595,-0.04456
2.592,0.0,-0.05081,0.00214,-0.01755,-0.0293,-0.04135,-0.01282,-0.00244,-0.02258,-0.02747,0.02472,0.00031,-0.03448,-0.01801,0.0061,-0.04761
2.5925,0.00015,-0.0502,-0.00961,-0.02213,-0.03067,-0.04623,-0.01114,0.00015,-0.01984,-0.02716,0.02747,0.0,-0.03479,-0.01678,0.0058,-0.04776
2.593,-0.00031,-0.04898,-0.0235,-0.02426,-0.03143,-0.04913,-0.01556,0.00092,-0.01953,-0.02441,0.02777,0.00076,-0.03525,-0.01648,0.00671,-0.04456
2.5935,-0.00046,-0.04745,-0.03937,-0.02151,-0.0322,-0.05173,-0.01434,-0.00183,-0.02106,-0.02197,0.02609,0.00122,-0.03479,-0.01755,0.009,-0.04211
2.594,-0.00107,-0.04501,-0.05173,-0.01831,-0.03281,-0.0563,-0.00824,-0.00595,-0.02075,-0.02182,0.02228,0.00046,-0.03403,-0.0177,0.01083,-0.04013
2.5945,-0.00305,-0.04288,-0.05585,-0.0177,-0.03235,-0.06134,-0.00671,-0.00702,-0.01511,-0.02304,0.01862,-0.00198,-0.0325,-0.01816,0.01251,-0.04074
2.595,-0.00488,-0.04166,-0.0592,-0.01678,-0.03082,-0.06317,-0.01404,-0.00488,-0.00519,-0.02182,0.01526,-0.0029,-0.03204,-0.01831,0.01251,-0.03906
2.5955,-0.00519,-0.04272,-0.07233,-0.01328,-0.02884,-0.06149,-0.02213,-0.00122,0.00519,-0.01801,0.01038,-0.00122,-0.03265,-0.01907,0.01007,-0.0383
2.596,-0.00443,-0.0444,-0.09018,-0.01053,-0.02686,-0.05417,-0.02243,0.00107,0.00961,-0.01526,0.00168,0.00137,-0.03372,-0.01923,0.00763,-0.03906
2.5965,-0.00351,-0.04623,-0.09323,-0.01083,-0.02655,-0.04868,-0.01678,0.0,0.00732,-0.01587,-0.01266,0.00229,-0.03342,-0.01862,0.00504,-0.04028
2.597,-0.00366,-0.0473,-0.06882,-0.01266,-0.02762,-0.04776,-0.01343,-0.00244,0.00198,-0.02182,-0.02975,0.00122,-0.03296,-0.01648,0.00458,-0.04074
2.5975,-0.00351,-0.04715,-0.02838,-0.0119,-0.03113,-0.05157,-0.01297,-0.00458,-0.00061,-0.02869,-0.04105,0.00031,-0.03281,-0.01602,0.00534,-0.0415
2.598,-0.00275,-0.04425,0.00626,-0.00931,-0.03296,-0.05432,-0.01358,-0.00397,-0.00214,-0.03235,-0.05112,0.00122,-0.03281,-0.01694,0.00641,-0.04578
2.5985,-0.00137,-0.04166,0.0209,-0.00946,-0.03326,-0.05325,-0.01236,-0.00015,-0.00763,-0.03265,-0.0647,0.00336,-0.03265,-0.01785,0.00732,-0.0528
2.599,-0.00107,-0.03906,0.01968,-0.01175,-0.03159,-0.04898,-0.01099,0.0029,-0.0209,-0.03357,-0.06775,0.0061,-0.0322,-0.01831,0.00854,-0.0563
2.5995,-0.00092,-0.03845,0.01022,-0.01236,-0.03098,-0.04349,-0.01053,0.00412,-0.03677,-0.03708,-0.03662,0.00793,-0.03098,-0.01892,0.0087,-0.05295
2.6,0.00015,-0.0386,-0.00137,-0.01038,-0.0322,-0.03906,-0.01282,0.00519,-0.04852,-0.04501,0.02151,0.00732,-0.03021,-0.01938,0.00885,-0.04562
2.6005,0.00275,-0.03922,-0.00977,-0.00778,-0.03281,-0.03662,-0.01495,0.00519,-0.05432,-0.05829,0.07034,0.00458,-0.03098,-0.01953,0.00854,-0.04288
2.601,0.0032,-0.03983,-0.01434,-0.0061,-0.0325,-0.03738,-0.01404,0.00336,-0.05432,-0.06668,0.08499,0.00214,-0.0322,-0.01953,0.00793,-0.04593
2.6015,0.00244,-0.03983,-0.01587,-0.00458,-0.03113,-0.03769,-0.01175,-0.00061,-0.04639,-0.07004,0.06958,0.00153,-0.03189,-0.01938,0.00824,-0.04944
2.602,-0.00015,-0.04135,-0.01801,-0.00427,-0.03113,-0.03769,-0.01221,-0.0087,-0.03235,-0.06699,0.04364,0.00168,-0.03143,-0.01801,0.01007,-0.05096
2.6025,-0.0032,-0.04196,-0.02182,-0.0058,-0.03098,-0.03647,-0.01541,-0.01587,-0.01907,-0.05966,0.02075,0.00122,-0.03128,-0.01801,0.01007,-0.04684
2.603,-0.00793,-0.04211,-0.02563,-0.00824,-0.02975,-0.03525,-0.01709,-0.01633,-0.01266,-0.04929,0.00626,0.00046,-0.03189,-0.01907,0.00854,-0.04196
2.6035,-0.01205,-0.04242,-0.03128,-0.01022,-0.03006,-0.03708,-0.0145,-0.01144,-0.01251,-0.03571,-0.00122,-0.00046,-0.03403,-0.01831,0.00595,-0.04028
2.604,-0.01266,-0.04303,-0.03708,-0.01068,-0.03067,-0.03891,-0.01068,-0.00549,-0.01312,-0.02243,-0.00946,0.0,-0.03494,-0.01724,0.00427,-0.04196
2.6045,-0.0119,-0.04242,-0.0412,-0.0116,-0.0293,-0.03754,-0.00916,-0.00168,-0.01297,-0.00763,-0.02121,0.00076,-0.03387,-0.01587,0.00412,-0.04196
2.605,-0.01114,-0.04013,-0.04318,-0.01465,-0.02991,-0.0351,-0.01205,0.00046,-0.0145,0.01053,-0.03281,0.00168,-0.03235,-0.01663,0.00565,-0.03998
2.6055,-0.01312,-0.03693,-0.0473,-0.01801,-0.02975,-0.03769,-0.01541,0.0,-0.01755,0.03006,-0.04227,0.00092,-0.03204,-0.01877,0.00854,-0.03815
2.606,-0.01343,-0.0351,-0.05417,-0.01862,-0.03067,-0.04929,-0.0145,-0.00107,-0.02106,0.04303,-0.0502,0.00031,-0.03418,-0.0209,0.01007,-0.03738
2.6065,-0.01205,-0.03571,-0.06165,-0.01724,-0.03143,-0.06577,-0.01144,-0.00031,-0.02136,0.04333,-0.05356,0.00076,-0.03479,-0.02075,0.01083,-0.03815
2.607,-0.01099,-0.03799,-0.06531,-0.01968,-0.03204,-0.07797,-0.00916,0.00168,-0.0177,0.03235,-0.05112,0.00168,-0.03479,-0.01801,0.00961,-0.03952
2.6075,-0.0116,-0.04013,-0.06744,-0.02869,-0.03357,-0.07767,-0.01022,0.00198,-0.01328,0.01831,-0.04105,0.00122,-0.03326,-0.01617,0.00763,-0.03967
2.608,-0.01389,-0.04303,-0.06607,-0.04059,-0.0322,-0.06653,-0.0116,-0.0032,-0.01053,0.00824,-0.03067,0.00031,-0.03204,-0.0148,0.00748,-0.03922
2.6085,-0.01541,-0.04486,-0.05951,-0.04959,-0.03021,-0.05341,-0.01282,-0.00717,-0.01038,0.00427,-0.02365,0.00061,-0.03067,-0.01572,0.00992,-0.03922
2.609,-0.01465,-0.04456,-0.05035,-0.05417,-0.02884,-0.04517,-0.01389,-0.00336,-0.01373,0.00458,-0.0206,0.00092,-0.02945,-0.01785,0.01099,-0.03952
2.6095,-0.0087,-0.04211,-0.04257,-0.05249,-0.02792,-0.0412,-0.01556,0.00534,-0.01572,0.00412,-0.02014,0.00092,-0.02869,-0.01831,0.0119,-0.04044
2.61,-0.00092,-0.0412,-0.03845,-0.04181,-0.02792,-0.03845,-0.01709,0.01114,-0.01663,0.00031,-0.0206,-0.00015,-0.02808,-0.01831,0.01175,-0.03952
2.6105,0.00305,-0.04318,-0.03616,-0.01968,-0.02777,-0.03845,-0.01785,0.01053,-0.01587,-0.00656,-0.02182,-0.00122,-0.02792,-0.01846,0.01038,-0.03983
2.611,0.00488,-0.04639,-0.03143,0.02045,-0.02655,-0.04013,-0.01633,0.0116,-0.01312,-0.01038,-0.02121,-0.00183,-0.02869,-0.01953,0.00977,-0.03891
2.6115,0.00549,-0.04776,-0.02823,0.07767,-0.02472,-0.0441,-0.01358,0.01465,-0.01083,-0.00931,-0.01984,-0.00168,-0.0293,-0.01999,0.00977,-0.03662
2.612,0.00641,-0.0473,-0.02731,0.12985,-0.02518,-0.04715,-0.01053,0.01221,-0.0116,-0.00534,-0.01923,-0.00092,-0.0296,-0.01953,0.01022,-0.03601
2.6125,0.00565,-0.04807,-0.0235,0.13565,-0.02594,-0.04868,-0.00916,-0.00122,-0.0145,-0.00275,-0.01984,-0.00061,-0.03067,-0.01785,0.00992,-0.03815
2.613,0.00397,-0.04929,-0.01526,0.08224,-0.02731,-0.04807,-0.01022,-0.01755,-0.01404,-0.00214,-0.02167,-0.00137,-0.03189,-0.01648,0.00763,-0.04135
2.6135,0.00351,-0.0499,-0.00336,0.00946,-0.0267,-0.04684,-0.01328,-0.02609,-0.00809,-0.00626,-0.02274,-0.00122,-0.03189,-0.01694,0.00763,-0.04303
2.614,0.00214,-0.04929,0.0061,-0.03418,-0.02731,-0.04669,-0.01694,-0.02533,-0.00305,-0.01236,-0.02182,-0.00137,-0.03067,-0.01801,0.00839,-0.04288
2.6145,0.0,-0.04837,0.00488,-0.0386,-0.02777,-0.04868,-0.01999,-0.02045,-0.00427,-0.01511,-0.01404,-0.00168,-0.02914,-0.01816,0.00961,-0.04211
2.615,-0.0032,-0.04639,-0.00443,-0.02686,-0.02899,-0.05112,-0.02075,-0.01968,-0.00839,-0.01755,0.00107,-0.00229,-0.03067,-0.0177,0.00916,-0.04242
2.6155,-0.00549,-0.0441,-0.01419,-0.01663,-0.02991,-0.05432,-0.01938,-0.02243,-0.01022,-0.01785,0.01633,-0.00336,-0.03189,-0.01694,0.00916,-0.04272
2.616,-0.00748,-0.04181,-0.02121,-0.00732,-0.03067,-0.05646,-0.01663,-0.02167,-0.00992,-0.01694,0.01862,-0.00366,-0.03296,-0.01678,0.0087,-0.04227
2.6165,-0.00839,-0.03983,-0.02792,0.00168,-0.03052,-0.056,-0.01602,-0.01556,-0.01099,-0.01602,0.00641,-0.00275,-0.03342,-0.01678,0.00854,-0.03998
2.617,-0.00687,-0.03998,-0.03998,0.00595,-0.03006,-0.05371,-0.01648,-0.00885,-0.01221,-0.01526,-0.00992,-0.00244,-0.03281,-0.01724,0.00793,-0.0383
2.6175,-0.00412,-0.0412,-0.05356,0.00626,-0.03082,-0.05081,-0.01709,-0.00656,-0.01312,-0.01434,-0.01816,-0.00366,-0.03326,-0.01938,0.00778,-0.0383
2.618,-0.00076,-0.04333,-0.06531,0.00763,-0.03174,-0.04898,-0.01465,-0.00854,-0.01465,-0.01511,-0.0206,-0.00458,-0.03418,-0.02029,0.00671,-0.03922
2.6185,0.00153,-0.04456,-0.0705,0.01312,-0.03311,-0.04822,-0.00946,-0.0087,-0.01648,-0.01755,-0.02029,-0.00275,-0.0354,-0.02029,0.00626,-0.03983
2.619,0.0029,-0.04532,-0.07004,0.01495,-0.03326,-0.0473,-0.00488,-0.00656,-0.01724,-0.02365,-0.01526,-0.00046,-0.03479,-0.01984,0.00626,-0.03906
2.6195,0.0029,-0.04608,-0.06958,0.00809,-0.03387,-0.04745,-0.0058,-0.00351,-0.01556,-0.03479,-0.00122,0.00122,-0.03433,-0.02014,0.00626,-0.03586
2.62,0.00229,-0.04471,-0.07324,-0.00763,-0.03403,-0.047,-0.01007,-0.00076,-0.01328,-0.047,0.01495,0.0,-0.03403,-0.01984,0.0058,-0.03372
2.6205,0.00214,-0.04333,-0.07874,-0.0267,-0.03342,-0.04593,-0.01282,0.0,-0.01144,-0.05051,0.02014,-0.00153,-0.03479,-0.01953,0.00565,-0.03433
2.621,0.00214,-0.04181,-0.07813,-0.04089,-0.03235,-0.04471,-0.01282,0.00031,-0.00916,-0.0441,0.0087,-0.00244,-0.03571,-0.01831,0.0058,-0.03815
2.6215,0.00229,-0.04059,-0.06714,-0.04898,-0.03143,-0.0441,-0.01114,0.00168,-0.00717,-0.03418,-0.00839,-0.0029,-0.03586,-0.01846,0.00641,-0.04288
2.622,0.00122,-0.04074,-0.05219,-0.05096,-0.03159,-0.04364,-0.00824,0.00336,-0.00565,-0.02548,-0.02121,-0.00275,-0.03662,-0.01755,0.00595,-0.04517
2.6225,-0.00076,-0.04135,-0.03952,-0.04898,-0.03342,-0.04471,-0.00458,0.00198,-0.00549,-0.01801,-0.02945,-0.00229,-0.03571,-0.01648,0.00565,-0.04395
2.623,-0.00259,-0.04364,-0.03281,-0.04379,-0.03555,-0.04517,-0.00534,-0.00229,-0.0061,-0.01053,-0.03723,-0.00061,-0.03326,-0.01495,0.00595,-0.0412
2.6235,-0.00336,-0.04547,-0.03098,-0.03754,-0.03693,-0.04379,-0.00992,-0.00427,-0.00641,-0.00549,-0.04471,0.00031,-0.03098,-0.01495,0.00687,-0.04013
2.624,-0.00351,-0.04623,-0.03128,-0.03311,-0.03555,-0.04211,-0.01404,-0.00198,-0.00488,-0.00381,-0.05005,0.00046,-0.03128,-0.01678,0.00793,-0.04089
2.6245,-0.00458,-0.04578,-0.03189,-0.03311,-0.03311,-0.04135,-0.0174,0.00183,-0.00336,-0.00626,-0.05112,0.0,-0.03326,-0.01831,0.0087,-0.04272
2.625,-0.00641,-0.04395,-0.03204,-0.03586,-0.0325,-0.04166,-0.01953,0.0029,-0.00336,-0.01129,-0.04929,-0.00153,-0.03464,-0.0177,0.00931,-0.04379
2.6255,-0.00824,-0.04272,-0.03296,-0.03815,-0.03204,-0.04364,-0.02182,0.00198,-0.00626,-0.01617,-0.04532,-0.0032,-0.03403,-0.01877,0.00946,-0.04425
2.626,-0.01007,-0.04166,-0.03448,-0.03937,-0.03265,-0.0441,-0.02304,0.00015,-0.00961,-0.02045,-0.04089,-0.00443,-0.03326,-0.01968,0.00992,-0.04547
2.6265,-0.01236,-0.03754,-0.03571,-0.03815,-0.03204,-0.04272,-0.02319,-0.00381,-0.01205,-0.02182,-0.04074,-0.00366,-0.0325,-0.01938,0.00961,-0.04456
2.627,-0.01266,-0.03265,-0.03525,-0.03693,-0.03082,-0.04211,-0.02243,-0.00778,-0.01312,-0.02106,-0.04349,-0.00092,-0.0322,-0.01846,0.0116,-0.04227
2.6275,-0.01129,-0.02975,-0.03571,-0.03403,-0.03067,-0.0412,-0.02029,-0.00916,-0.01587,-0.01892,-0.04608,0.00137,-0.03265,-0.01877,0.01129,-0.03983
2.628,-0.00839,-0.03098,-0.0351,-0.03082,-0.03143,-0.03967,-0.0174,-0.00641,-0.01801,-0.01648,-0.04562,0.0032,-0.03265,-0.01984,0.00931,-0.03815
2.6285,-0.00595,-0.03357,-0.03464,-0.02808,-0.03159,-0.03799,-0.01709,-0.00381,-0.0174,-0.01297,-0.04074,0.00397,-0.03067,-0.02045,0.00656,-0.03799
2.629,-0.00473,-0.03448,-0.03479,-0.02396,-0.03067,-0.03769,-0.01877,-0.00534,-0.01678,-0.0087,-0.03403,0.00427,-0.02792,-0.02106,0.00458,-0.04028
2.6295,-0.0058,-0.03464,-0.03464,-0.01114,-0.03006,-0.03647,-0.02106,-0.00763,-0.0177,-0.00458,-0.02945,0.00336,-0.02701,-0.02151,0.00397,-0.0412
2.63,-0.00641,-0.03479,-0.03311,0.01328,-0.03006,-0.03448,-0.02304,-0.00504,-0.02151,-0.00153,-0.02563,0.00122,-0.02686,-0.02167,0.00351,-0.04059
2.6305,-0.00595,-0.03448,-0.0296,0.0386,-0.02991,-0.03464,-0.02701,0.00122,-0.02426,-0.00122,-0.02197,0.00046,-0.02808,-0.02213,0.00366,-0.03983
2.631,-0.00458,-0.03387,-0.02716,0.04608,-0.02945,-0.03571,-0.03464,0.00595,-0.02182,-0.00351,-0.01633,0.00229,-0.03021,-0.02121,0.00427,-0.03967
2.6315,-0.00412,-0.03281,-0.02731,0.02762,-0.02991,-0.03708,-0.03967,0.00702,-0.0177,-0.009,-0.01129,0.00519,-0.03296,-0.02014,0.00809,-0.0383
2.632,-0.00458,-0.03372,-0.02884,-0.00031,-0.03189,-0.03937,-0.03723,0.00565,-0.01465,-0.01587,-0.01053,0.00671,-0.03418,-0.01938,0.01129,-0.03784
2.6325,-0.00473,-0.03571,-0.03036,-0.01694,-0.03296,-0.04425,-0.02579,0.00275,-0.01434,-0.0235,-0.01205,0.0058,-0.03326,-0.01923,0.01358,-0.03799
2.633,-0.0032,-0.03662,-0.03052,-0.01572,-0.03265,-0.05234,-0.01312,-0.00122,-0.01541,-0.02686,-0.01404,0.00381,-0.03174,-0.01892,0.01221,-0.04105
2.6335,-0.00198,-0.03601,-0.02914,-0.00732,-0.03128,-0.06195,-0.00458,-0.00458,-0.01648,-0.02823,-0.01419,0.00153,-0.03113,-0.01877,0.00992,-0.04242
2.634,-0.00259,-0.03586,-0.02777,-0.00305,-0.03082,-0.06882,-0.00092,-0.00732,-0.0177,-0.02777,-0.01266,0.00031,-0.03128,-0.01816,0.00961,-0.04013
2.6345,-0.00443,-0.03525,-0.02777,-0.00534,-0.03113,-0.06989,-0.00076,-0.00809,-0.01755,-0.02823,-0.01068,0.00046,-0.03098,-0.01846,0.00946,-0.03693
2.635,-0.00473,-0.03647,-0.02899,-0.01129,-0.03143,-0.06378,-0.0058,-0.00671,-0.01434,-0.02853,-0.00885,0.0,-0.03036,-0.01831,0.00916,-0.03662
2.6355,-0.00397,-0.03876,-0.03067,-0.02167,-0.03159,-0.05539,-0.01404,-0.00366,-0.01022,-0.02823,-0.00656,-0.00015,-0.03006,-0.01724,0.00931,-0.03799
2.636,-0.00397,-0.04028,-0.03235,-0.03433,-0.03235,-0.0502,-0.01678,-0.00015,-0.00931,-0.02731,-0.00381,-0.00137,-0.03113,-0.01602,0.01007,-0.03998
2.6365,-0.00473,-0.04074,-0.03235,-0.04868,-0.03372,-0.04883,-0.00183,0.00336,-0.01144,-0.02441,-0.00137,-0.00229,-0.03098,-0.01663,0.00931,-0.04166
2.637,-0.00519,-0.04089,-0.02853,-0.0589,-0.0351,-0.04929,0.01968,0.00626,-0.01251,-0.02106,0.00015,-0.00229,-0.03113,-0.01877,0.00763,-0.04379
2.6375,-0.00473,-0.04242,-0.02426,-0.05997,-0.03632,-0.04852,0.02441,0.00778,-0.01129,-0.01953,0.00092,-0.00122,-0.03113,-0.02167,0.00595,-0.04654
2.638,-0.00443,-0.04364,-0.02289,-0.03891,-0.03662,-0.04852,0.009,0.00793,-0.00916,-0.02136,0.00107,0.00107,-0.03326,-0.02258,0.00504,-0.04974
2.6385,-0.00351,-0.04456,-0.02502,0.00534,-0.03647,-0.04913,-0.00732,0.00656,-0.00885,-0.02319,-0.00046,0.00397,-0.03387,-0.02213,0.0061,-0.05234
2.639,-0.00305,-0.04501,-0.02823,0.05356,-0.03586,-0.05035,-0.00931,0.00229,-0.01129,-0.02289,-0.00092,0.00412,-0.03281,-0.02213,0.0061,-0.0531
2.6395,-0.0029,-0.04379,-0.0293,0.07462,-0.03479,-0.04852,-0.00397,-0.00854,-0.01434,-0.02213,-0.00122,0.00183,-0.03036,-0.02167,0.00549,-0.0528
2.64,-0.00305,-0.04181,-0.02975,0.05539,-0.03433,-0.0415,-0.00488,-0.02396,-0.01663,-0.02151,-0.00076,-0.00015,-0.02991,-0.02014,0.0058,-0.05112
2.6405,-0.00259,-0.04074,-0.0296,0.01633,-0.03464,-0.03265,-0.01175,-0.03448,-0.0174,-0.02167,-0.00046,0.00122,-0.03082,-0.01953,0.00687,-0.04776
2.641,-0.00214,-0.04028,-0.02991,-0.01602,-0.0351,-0.02869,-0.0145,-0.0322,-0.01633,-0.02319,-0.00031,0.00565,-0.03021,-0.01953,0.00946,-0.04288
2.6415,-0.00168,-0.03937,-0.02975,-0.03571,-0.03571,-0.03174,-0.01221,-0.01999,-0.01724,-0.02396,-0.00107,0.00885,-0.02869,-0.02045,0.0116,-0.0383
2.642,-0.00198,-0.03754,-0.03128,-0.05417,-0.03555,-0.03876,-0.01022,-0.0061,-0.01968,-0.02457,-0.00229,0.00885,-0.02823,-0.02151,0.01389,-0.03677
2.6425,-0.00122,-0.03632,-0.03326,-0.07904,-0.03479,-0.0444,-0.01251,0.0029,-0.02243,-0.02426,-0.00351,0.00748,-0.02853,-0.02121,0.01511,-0.03922
2.643,-0.00122,-0.03662,-0.03342,-0.09888,-0.03296,-0.04593,-0.01511,0.00793,-0.02304,-0.02411,-0.00656,0.00473,-0.02853,-0.01968,0.01358,-0.04303
2.6435,-0.00061,-0.03677,-0.03113,-0.08881,-0.03128,-0.0441,-0.01251,0.00977,-0.02151,-0.02533,-0.01038,0.00183,-0.02914,-0.01831,0.00885,-0.04517
2.644,-0.00107,-0.03723,-0.03036,-0.02594,-0.03021,-0.04501,-0.00854,0.00946,-0.02045,-0.02792,-0.0148,0.00031,-0.03082,-0.0177,0.00443,-0.04562
2.6445,-0.00076,-0.03738,-0.02991,0.07355,-0.0322,-0.04822,-0.01038,0.00916,-0.01938,-0.02838,-0.01678,-0.00046,-0.03204,-0.01663,0.00351,-0.04471
2.645,-0.00046,-0.0383,-0.03021,0.14648,-0.03357,-0.05585,-0.02045,0.00992,-0.01968,-0.02869,-0.01511,-0.00031,-0.03281,-0.01617,0.00641,-0.04562
2.6455,-0.00076,-0.03983,-0.02975,0.13901,-0.03387,-0.06149,-0.0322,0.01236,-0.01953,-0.02701,-0.0119,-0.00015,-0.03265,-0.01556,0.0087,-0.04562
2.646,-0.00122,-0.04013,-0.0296,0.07477,-0.03326,-0.06622,-0.03738,0.01297,-0.01923,-0.0264,-0.00992,-0.00031,-0.03281,-0.01602,0.00931,-0.04562
2.6465,-0.00275,-0.04028,-0.03128,0.02045,-0.03387,-0.06912,-0.03662,0.01007,-0.01968,-0.02548,-0.01007,0.00092,-0.0325,-0.01694,0.0061,-0.04379
2.647,-0.00488,-0.04028,-0.03265,0.00595,-0.03403,-0.06989,-0.03143,0.00275,-0.01999,-0.02411,-0.01068,0.00214,-0.0325,-0.01755,0.00412,-0.03998
2.6475,-0.00687,-0.04181,-0.03311,0.009,-0.03326,-0.06622,-0.02869,-0.00275,-0.01862,-0.02213,-0.01068,0.00214,-0.03296,-0.01785,0.00397,-0.03647
2.648,-0.00916,-0.04333,-0.03235,0.00412,-0.03189,-0.05981,-0.02884,-0.00198,-0.01755,-0.02075,-0.00977,0.00061,-0.03281,-0.01877,0.00427,-0.03525
2.6485,-0.01038,-0.04547,-0.03357,-0.00641,-0.03265,-0.05386,-0.02563,0.00275,-0.01617,-0.0209,-0.00748,0.00015,-0.03357,-0.01938,0.00412,-0.03571
2.649,-0.01068,-0.047,-0.03479,-0.01129,-0.03311,-0.05081,-0.0116,0.00534,-0.01526,-0.0209,-0.00458,0.00107,-0.03464,-0.01892,0.00549,-0.03754
2.6495,-0.00854,-0.04715,-0.03403,-0.01083,-0.03128,-0.05142,0.01297,0.00305,-0.01465,-0.02075,-0.00259,0.00107,-0.03448,-0.01846,0.00793,-0.04028
2.65,-0.00595,-0.04791,-0.03128,-0.01068,-0.0264,-0.05249,0.0354,-0.00107,-0.01511,-0.01724,-0.00107,0.0,-0.03387,-0.01801,0.01114,-0.04486
2.6505,-0.00595,-0.04913,-0.0296,-0.0145,-0.0235,-0.05112,0.03693,-0.00519,-0.01678,-0.0148,-0.00031,-0.00275,-0.03387,-0.01724,0.01419,-0.04959
2.651,-0.00839,-0.04852,-0.02853,-0.01846,-0.02319,-0.04852,0.0145,-0.00916,-0.01801,-0.01434,0.00153,-0.00412,-0.03464,-0.01663,0.0148,-0.04944
2.6515,-0.01144,-0.04532,-0.0267,-0.02014,-0.02197,-0.04593,-0.01526,-0.01465,-0.01678,-0.01419,0.00427,-0.00534,-0.03357,-0.01678,0.01404,-0.04288
2.652,-0.01266,-0.04074,-0.0267,-0.02045,-0.02045,-0.04517,-0.0322,-0.02075,-0.01419,-0.01373,0.00809,-0.0061,-0.0322,-0.01556,0.0119,-0.03525
2.6525,-0.01251,-0.03815,-0.0296,-0.02045,-0.01984,-0.04547,-0.03113,-0.02151,-0.01251,-0.01328,0.00992,-0.00519,-0.03189,-0.01434,0.00854,-0.03281
2.653,-0.01083,-0.03708,-0.03174,-0.01953,-0.02151,-0.04684,-0.0206,-0.01373,-0.01236,-0.01602,0.00977,-0.00366,-0.03281,-0.01373,0.00458,-0.03632
2.6535,-0.00992,-0.03754,-0.03006,-0.01877,-0.02411,-0.04959,-0.01099,-0.00504,-0.01114,-0.02396,0.00793,-0.00092,-0.03387,-0.01404,0.00259,-0.04303
2.654,-0.01022,-0.03815,-0.02533,-0.01862,-0.02777,-0.05096,-0.00961,-0.00183,-0.01053,-0.03586,0.00519,0.00092,-0.03418,-0.01495,0.00336,-0.04898
2.6545,-0.01099,-0.03937,-0.02197,-0.01923,-0.03113,-0.05173,-0.01312,-0.00549,-0.0116,-0.04944,0.00198,0.00122,-0.03387,-0.01663,0.00549,-0.05035
2.655,-0.00961,-0.04074,-0.02319,-0.01953,-0.03387,-0.05096,-0.01831,-0.00916,-0.01282,-0.06165,-0.00214,0.00229,-0.03479,-0.01724,0.00687,-0.04593
2.6555,-0.00595,-0.04074,-0.0267,-0.01892,-0.03555,-0.04822,-0.02228,-0.00793,-0.01175,-0.06805,-0.00702,0.00275,-0.03586,-0.01801,0.00793,-0.03723
2.656,-0.00244,-0.04074,-0.02975,-0.0177,-0.03494,-0.04517,-0.02518,-0.00504,-0.00793,-0.06958,-0.01236,0.00168,-0.03555,-0.01785,0.01007,-0.03296
2.6565,-0.00122,-0.04028,-0.02869,-0.01831,-0.03479,-0.04318,-0.02594,-0.00351,-0.0061,-0.07004,-0.01846,0.00046,-0.03387,-0.01816,0.0116,-0.03555
2.657,-0.00122,-0.03555,-0.02563,-0.01968,-0.03464,-0.04181,-0.02319,-0.00565,-0.01144,-0.07217,-0.02411,-0.00046,-0.03235,-0.01892,0.0116,-0.0412
2.6575,-0.00183,-0.02457,-0.02441,-0.02182,-0.03387,-0.04028,-0.0209,-0.00763,-0.02289,-0.07034,-0.02945,0.00031,-0.0322,-0.01953,0.01099,-0.04517
2.658,-0.00168,-0.01389,-0.02502,-0.02274,-0.03159,-0.04089,-0.01877,-0.00519,-0.03784,-0.05783,-0.03128,0.00183,-0.03342,-0.0209,0.01083,-0.04623
2.6585,-0.00244,-0.01251,-0.02747,-0.02167,-0.02899,-0.04211,-0.01633,0.00275,-0.05142,-0.03784,-0.03204,0.0029,-0.03448,-0.02289,0.01205,-0.04486
2.659,-0.00519,-0.02029,-0.02792,-0.01923,-0.02716,-0.04211,-0.01328,0.0119,-0.05966,-0.01648,-0.03387,0.00305,-0.03387,-0.0235,0.01312,-0.04349
2.6595,-0.00748,-0.02945,-0.02838,-0.01907,-0.02548,-0.04349,-0.01038,0.01907,-0.06104,0.00031,-0.03601,0.00275,-0.03311,-0.02258,0.01205,-0.04196
2.66,-0.00778,-0.03586,-0.02655,-0.02014,-0.0238,-0.04486,-0.009,0.02151,-0.05692,0.01205,-0.03937,0.00198,-0.0322,-0.02151,0.00916,-0.04181
2.6605,-0.00671,-0.03922,-0.01999,-0.02121,-0.02258,-0.04578,-0.01022,0.0177,-0.05188,0.02014,-0.04166,0.00214,-0.03281,-0.02167,0.00717,-0.04196
2.661,-0.00534,-0.04211,-0.01572,-0.02136,-0.02426,-0.04547,-0.01465,0.00641,-0.04608,0.02762,-0.04166,0.00107,-0.03296,-0.02151,0.00854,-0.04318
2.6615,-0.00412,-0.04745,-0.01862,-0.02167,-0.02686,-0.04395,-0.01938,-0.00977,-0.03769,0.03738,-0.03876,-0.00015,-0.03265,-0.01968,0.00977,-0.04501
2.662,-0.00381,-0.05478,-0.02853,-0.02121,-0.02777,-0.03998,-0.01923,-0.02304,-0.02609,0.05112,-0.03662,-0.00137,-0.03204,-0.01801,0.00946,-0.04608
2.6625,-0.00366,-0.06195,-0.04272,-0.01877,-0.02808,-0.03525,-0.01434,-0.02777,-0.01556,0.06226,-0.03479,-0.00122,-0.0325,-0.01724,0.00748,-0.04639
2.663,-0.00443,-0.06439,-0.05249,-0.01144,-0.02792,-0.03357,-0.00641,-0.02487,-0.00732,0.06073,-0.03143,-0.00153,-0.03311,-0.01678,0.00504,-0.04471
2.6635,-0.00534,-0.06226,-0.05676,0.00183,-0.02991,-0.03677,-0.00122,-0.01801,-0.00198,0.0412,-0.02609,-0.00214,-0.03281,-0.01648,0.00275,-0.04196
2.664,-0.00702,-0.05997,-0.05737,0.01572,-0.0322,-0.04379,-0.00015,-0.01129,0.00137,0.01755,-0.02029,-0.00366,-0.0322,-0.01663,0.00031,-0.03876
2.6645,-0.009,-0.05981,-0.05722,0.01495,-0.03342,-0.04715,-0.00366,-0.00519,0.00183,0.0032,-0.01495,-0.00412,-0.03098,-0.01755,-0.00107,-0.03708
2.665,-0.009,-0.06042,-0.05798,-0.00595,-0.03326,-0.04486,-0.01129,-0.00107,-0.00198,0.00092,-0.01312,-0.00427,-0.02975,-0.01877,-0.00092,-0.03662
2.6655,-0.00916,-0.05875,-0.05737,-0.03616,-0.03433,-0.04028,-0.01831,-0.00153,-0.00763,0.00183,-0.01114,-0.00397,-0.0293,-0.01938,0.00076,-0.03876
2.666,-0.00946,-0.05249,-0.05554,-0.0589,-0.03494,-0.03815,-0.02335,-0.00397,-0.01297,-0.00046,-0.01038,-0.00412,-0.02899,-0.01968,0.00397,-0.04089
2.6665,-0.00977,-0.04761,-0.05615,-0.07339,-0.03494,-0.03906,-0.02731,-0.00534,-0.01419,-0.00732,-0.00885,-0.00351,-0.02808,-0.01892,0.0058,-0.04089
2.667,-0.00931,-0.04562,-0.05707,-0.08667,-0.03555,-0.03922,-0.02945,-0.00534,-0.0116,-0.01373,-0.00717,-0.00244,-0.02838,-0.01755,0.00641,-0.04059
2.6675,-0.00763,-0.04745,-0.06042,-0.09796,-0.03433,-0.03891,-0.02884,-0.00595,-0.00992,-0.01785,-0.00595,-0.00244,-0.03098,-0.0174,0.00626,-0.04074
2.668,-0.00519,-0.04929,-0.06165,-0.09048,-0.03281,-0.03799,-0.02426,-0.00656,-0.01205,-0.02182,-0.00473,-0.00137,-0.03326,-0.01816,0.00458,-0.04135
2.6685,-0.0029,-0.04745,-0.06149,-0.05173,-0.03342,-0.03922,-0.01801,-0.0058,-0.01572,-0.02365,-0.00534,-0.00031,-0.03311,-0.01862,0.00092,-0.04196
2.669,-0.00046,-0.0415,-0.06027,0.0174,-0.03586,-0.0415,-0.01419,-0.00458,-0.01724,-0.02548,-0.00763,-0.00015,-0.03159,-0.01892,-0.00229,-0.04227
2.6695,-0.00046,-0.03098,-0.05554,0.09995,-0.0383,-0.0473,-0.01297,-0.00351,-0.0148,-0.02609,-0.01175,-0.00198,-0.03021,-0.01785,-0.00122,-0.04242
2.67,-0.00061,-0.02151,-0.04669,0.15518,-0.03754,-0.05554,-0.01266,-0.00183,-0.01205,-0.02441,-0.01541,-0.00198,-0.03036,-0.0177,0.00366,-0.04288
2.6705,-0.00122,-0.01801,-0.03815,0.14084,-0.03479,-0.06149,-0.01251,-0.00137,-0.01114,-0.0209,-0.01663,-0.00061,-0.03098,-0.01877,0.00824,-0.04135
2.671,-0.00092,-0.02029,-0.03204,0.06714,-0.03265,-0.06454,-0.01236,-0.00015,-0.01144,-0.01617,-0.01801,0.00031,-0.03128,-0.01968,0.01129,-0.0386
2.6715,-0.00046,-0.02472,-0.03189,-0.00427,-0.03189,-0.06622,-0.01221,0.0,-0.01221,-0.01495,-0.01907,0.00061,-0.03189,-0.01953,0.01343,-0.0351
2.672,-0.00092,-0.02838,-0.03265,-0.03082,-0.03098,-0.06668,-0.01236,-0.00061,-0.01221,-0.0206,-0.02029,-0.00031,-0.03281,-0.01999,0.01617,-0.03006
2.6725,-0.00244,-0.03418,-0.0354,-0.02182,-0.03006,-0.06439,-0.01266,-0.00046,-0.01358,-0.03174,-0.02029,-0.00061,-0.03342,-0.01968,0.01968,-0.0238
2.673,-0.00366,-0.0415,-0.03922,-0.00595,-0.03036,-0.06027,-0.01312,0.00107,-0.01572,-0.04196,-0.01785,-0.00031,-0.03265,-0.01877,0.02289,-0.02121
2.6735,-0.00458,-0.04822,-0.04044,-0.00015,-0.0322,-0.05585,-0.01328,0.00244,-0.01938,-0.04593,-0.01312,-0.00046,-0.0322,-0.01785,0.02319,-0.02579
2.674,-0.00427,-0.05188,-0.03769,-0.00565,-0.03403,-0.05264,-0.01373,0.00275,-0.02304,-0.04364,-0.00977,-0.00061,-0.03281,-0.01877,0.02106,-0.03433
2.6745,-0.00305,-0.05264,-0.03296,-0.0177,-0.03738,-0.05096,-0.0148,0.00061,-0.02502,-0.03723,-0.00717,-0.00046,-0.03326,-0.02014,0.0148,-0.04211
2.675,-0.00381,-0.05203,-0.02777,-0.0264,-0.04059,-0.05081,-0.01465,-0.00122,-0.0264,-0.02975,-0.00732,-0.00031,-0.03311,-0.01968,0.00214,-0.04517
2.6755,-0.00595,-0.05157,-0.02441,-0.02823,-0.04303,-0.05142,-0.0148,-0.00137,-0.02884,-0.02563,-0.00763,-0.00061,-0.03357,-0.0177,-0.00946,-0.04654
2.676,-0.00854,-0.05142,-0.02136,-0.02869,-0.04501,-0.05081,-0.01419,-0.00137,-0.03189,-0.02243,-0.00656,-0.00031,-0.03418,-0.01633,-0.01053,-0.04639
2.6765,-0.00961,-0.05066,-0.01907,-0.03632,-0.04578,-0.04959,-0.01419,-0.00122,-0.03143,-0.01953,-0.00626,-0.00046,-0.03418,-0.01678,-0.00137,-0.04562
2.677,-0.00824,-0.05051,-0.02029,-0.05203,-0.04425,-0.04959,-0.01358,-0.00168,-0.02609,-0.0177,-0.00824,0.00015,-0.03311,-0.01831,0.00671,-0.04395
2.6775,-0.00656,-0.0502,-0.02457,-0.07019,-0.04074,-0.05035,-0.01221,-0.00198,-0.02029,-0.01709,-0.01007,0.00046,-0.03159,-0.02029,0.00824,-0.04425
2.678,-0.00488,-0.0502,-0.02975,-0.07996,-0.03647,-0.05173,-0.0116,-0.00183,-0.01648,-0.01862,-0.01114,0.00107,-0.03159,-0.02121,0.00534,-0.04745
2.6785,-0.00412,-0.05127,-0.03265,-0.07187,-0.03296,-0.05264,-0.01205,-0.00153,-0.01587,-0.0206,-0.01083,0.00137,-0.03189,-0.02106,0.00275,-0.05066
2.679,-0.00443,-0.05173,-0.03265,-0.05035,-0.03189,-0.05463,-0.01312,-0.00183,-0.01495,-0.02228,-0.01205,0.00137,-0.03296,-0.01862,0.00366,-0.05142
2.6795,-0.00458,-0.05112,-0.03128,-0.03098,-0.02975,-0.05524,-0.0145,-0.00214,-0.01434,-0.02319,-0.01389,0.00183,-0.0351,-0.01617,0.00443,-0.04868
2.68,-0.00458,-0.04944,-0.03143,-0.02472,-0.02777,-0.0528,-0.0145,-0.0032,-0.01572,-0.02396,-0.01572,0.00259,-0.03571,-0.01526,0.00641,-0.04532
2.6805,-0.00351,-0.0473,-0.03265,-0.0235,-0.0267,-0.04593,-0.01419,-0.00458,-0.01862,-0.02487,-0.01678,0.00153,-0.03693,-0.01541,0.00839,-0.04333
2.681,-0.00031,-0.04395,-0.03418,-0.0177,-0.02609,-0.03677,-0.01465,-0.00565,-0.01984,-0.02518,-0.01831,-0.00015,-0.03754,-0.01648,0.01083,-0.04272
2.6815,0.00381,-0.04013,-0.03372,-0.01038,-0.02594,-0.0293,-0.01587,-0.0061,-0.01862,-0.0267,-0.02274,-0.00168,-0.03754,-0.01678,0.0119,-0.04272
2.682,0.00504,-0.03784,-0.0296,-0.00839,-0.02594,-0.02762,-0.01694,-0.00671,-0.01709,-0.02701,-0.02945,-0.00092,-0.03586,-0.0177,0.01282,-0.04211
2.6825,0.00397,-0.03784,-0.02319,-0.01007,-0.02487,-0.03128,-0.01648,-0.00656,-0.01678,-0.02548,-0.03571,-0.00031,-0.03387,-0.01907,0.01419,-0.04211
2.683,0.00092,-0.0386,-0.02518,-0.00854,-0.02609,-0.03616,-0.01495,-0.00504,-0.01694,-0.01999,-0.03754,0.00015,-0.03372,-0.02014,0.01526,-0.04242
2.6835,-0.00198,-0.0383,-0.0499,-0.00183,-0.02731,-0.03876,-0.01343,-0.00351,-0.01694,-0.01221,-0.03342,0.00092,-0.03357,-0.0209,0.01419,-0.04211
2.684,-0.00351,-0.03708,-0.09766,0.00275,-0.02731,-0.03922,-0.01282,-0.00275,-0.01755,-0.0061,-0.0264,0.00153,-0.03174,-0.01953,0.01282,-0.04135
2.6845,-0.00351,-0.03448,-0.13977,-0.00183,-0.02792,-0.03998,-0.01312,-0.00336,-0.01831,-0.00427,-0.01938,0.00183,-0.03006,-0.01816,0.01175,-0.04105
2.685,-0.00229,-0.03372,-0.13947,-0.01251,-0.02777,-0.04471,-0.01297,-0.00473,-0.01801,-0.00626,-0.01236,0.00229,-0.03021,-0.01678,0.01099,-0.04211
2.6855,-0.00137,-0.03311,-0.09689,-0.02075,-0.0293,-0.05005,-0.01175,-0.00473,-0.01755,-0.01144,-0.00671,0.00351,-0.03189,-0.01694,0.01144,-0.04364
2.686,-0.00122,-0.0351,-0.04822,-0.02121,-0.02945,-0.0528,-0.01068,-0.00412,-0.01709,-0.01633,-0.00214,0.00381,-0.0325,-0.01846,0.01251,-0.0444
2.6865,-0.00076,-0.03632,-0.01755,-0.01434,-0.02808,-0.05234,-0.01022,-0.00351,-0.0177,-0.0206,-0.00061,0.00366,-0.03281,-0.01831,0.01434,-0.04395
2.687,0.00198,-0.03525,0.00458,-0.00656,-0.0267,-0.0499,-0.0119,-0.00351,-0.01831,-0.02304,-0.00046,0.00336,-0.03311,-0.01648,0.01358,-0.04288
2.6875,0.00412,-0.03326,0.03342,-0.00046,-0.02502,-0.04761,-0.01343,-0.00458,-0.01892,-0.02365,-0.00015,0.0029,-0.03342,-0.01541,0.01236,-0.04196
2.688,0.00427,-0.03174,0.06073,0.00397,-0.02487,-0.04471,-0.01526,-0.00656,-0.01953,-0.02426,0.00031,0.00336,-0.03387,-0.01556,0.01068,-0.04242
2.6885,0.00351,-0.03128,0.06943,0.0116,-0.02487,-0.03952,-0.01541,-0.00809,-0.02014,-0.0235,-0.00015,0.00351,-0.03372,-0.01831,0.00992,-0.04272
2.689,0.00275,-0.03143,0.05524,0.02396,-0.02472,-0.03372,-0.01465,-0.00839,-0.01968,-0.02289,-0.00259,0.00275,-0.03357,-0.01984,0.00977,-0.04196
2.6895,0.00305,-0.03159,0.03464,0.03922,-0.02579,-0.02579,-0.01343,-0.0061,-0.01785,-0.02167,-0.00427,0.00183,-0.03235,-0.01831,0.009,-0.03922
2.69,0.0032,-0.03189,0.0174,0.04364,-0.02869,-0.01846,-0.01343,-0.00336,-0.0174,-0.02014,-0.00458,0.00153,-0.03189,-0.01419,0.00809,-0.03876
2.6905,0.00214,-0.03296,0.00183,0.0235,-0.03021,-0.01633,-0.01373,-0.00092,-0.01801,-0.01892,-0.0032,0.00198,-0.03204,-0.01221,0.00717,-0.04028
2.691,0.00076,-0.03296,-0.01373,-0.01297,-0.03113,-0.01633,-0.01205,0.00046,-0.01785,-0.01801,-0.0029,0.0032,-0.03174,-0.0119,0.00671,-0.04196
2.6915,0.00046,-0.03143,-0.02838,-0.03983,-0.0325,-0.0174,-0.00839,0.00092,-0.0174,-0.01663,-0.00336,0.00259,-0.03174,-0.01389,0.00916,-0.04135
2.692,-0.00153,-0.03128,-0.03571,-0.04074,-0.03433,-0.01755,-0.00427,0.00031,-0.01633,-0.01617,-0.00473,0.00122,-0.03082,-0.01587,0.01175,-0.04013
2.6925,-0.00824,-0.0325,-0.03296,-0.02411,-0.03632,-0.01541,-0.00443,-0.00092,-0.01648,-0.01648,-0.00549,0.00153,-0.0293,-0.01678,0.0119,-0.03967
2.693,-0.01678,-0.03265,-0.02289,-0.00549,-0.03738,-0.01572,-0.01083,-0.00153,-0.01801,-0.01511,-0.00534,0.0032,-0.02914,-0.01755,0.01099,-0.03983
2.6935,-0.02167,-0.03265,-0.01328,0.0032,-0.03723,-0.01907,-0.01755,-0.00168,-0.01831,-0.01312,-0.00458,0.00412,-0.03113,-0.01816,0.01053,-0.04028
2.694,-0.01907,-0.03296,-0.01144,-0.00046,-0.03662,-0.02884,-0.0177,-0.00214,-0.01755,-0.01144,-0.00473,0.00305,-0.03372,-0.01862,0.00961,-0.04089
2.6945,-0.01419,-0.03494,-0.01785,-0.01007,-0.03647,-0.04623,-0.01297,-0.00137,-0.01572,-0.0116,-0.00595,0.00198,-0.03387,-0.0174,0.00824,-0.04196
2.695,-0.01144,-0.03647,-0.02533,-0.01129,-0.03845,-0.06897,-0.00977,-0.00122,-0.01419,-0.01251,-0.00732,0.00153,-0.02991,-0.01648,0.00748,-0.04166
2.6955,-0.01129,-0.03784,-0.02777,0.00916,-0.0383,-0.09018,-0.00961,-0.00076,-0.0119,-0.01434,-0.00778,0.00153,-0.02579,-0.01663,0.0087,-0.04089
2.696,-0.01099,-0.03922,-0.02716,0.04776,-0.03723,-0.09705,-0.01068,0.00015,-0.00961,-0.01663,-0.00793,0.00122,-0.02487,-0.0174,0.00977,-0.04135
2.6965,-0.01007,-0.03967,-0.02884,0.08148,-0.03433,-0.08743,-0.0116,0.00015,-0.00778,-0.02213,-0.00977,0.00031,-0.0267,-0.01831,0.00885,-0.04288
2.697,-0.00992,-0.04211,-0.03586,0.08453,-0.03464,-0.07202,-0.01205,0.00046,-0.00778,-0.02808,-0.0116,-0.00092,-0.0293,-0.01968,0.00778,-0.04486
2.6975,-0.01068,-0.04578,-0.04639,0.05569,-0.03601,-0.06378,-0.01297,0.00061,-0.00916,-0.0322,-0.01236,-0.00183,-0.03113,-0.02029,0.00687,-0.04562
2.698,-0.01129,-0.04929,-0.0563,0.0145,-0.03632,-0.06531,-0.0145,0.00031,-0.01083,-0.03235,-0.01099,-0.00168,-0.03128,-0.0209,0.00717,-0.04562
2.6985,-0.01068,-0.04913,-0.0621,-0.02747,-0.03662,-0.0705,-0.01556,-0.00107,-0.01282,-0.03082,-0.00961,-0.00061,-0.03143,-0.02151,0.00687,-0.04486
2.699,-0.00854,-0.04791,-0.06348,-0.06836,-0.03464,-0.07507,-0.01633,-0.0029,-0.01419,-0.03036,-0.00961,0.00107,-0.03021,-0.0209,0.00687,-0.0444
2.6995,-0.00656,-0.04745,-0.06271,-0.10284,-0.03296,-0.07843,-0.0174,-0.00168,-0.01526,-0.03128,-0.01083,0.00137,-0.02899,-0.01984,0.00717,-0.04456
2.7,-0.00519,-0.04944,-0.06073,-0.11932,-0.03296,-0.0798,-0.01678,-0.00046,-0.01755,-0.03159,-0.01266,0.00092,-0.02945,-0.01953,0.00824,-0.04257
2.7005,-0.00412,-0.05127,-0.05844,-0.10498,-0.03433,-0.07874,-0.01511,0.0,-0.01923,-0.03098,-0.0145,-0.00015,-0.03143,-0.01968,0.00824,-0.0412
2.701,-0.00336,-0.05234,-0.05249,-0.06149,-0.03464,-0.07553,-0.0116,-0.00046,-0.0174,-0.03052,-0.01724,-0.00122,-0.03342,-0.01984,0.00809,-0.04028
2.7015,-0.00229,-0.05341,-0.047,-0.01053,-0.03372,-0.07095,-0.00992,0.00046,-0.01144,-0.03235,-0.02029,-0.00229,-0.03372,-0.02075,0.00778,-0.04013
2.702,-0.00198,-0.05463,-0.04272,0.0087,-0.03128,-0.06668,-0.01053,-0.00046,-0.00534,-0.03677,-0.0209,-0.0029,-0.03479,-0.02151,0.00748,-0.03983
2.7025,-0.00076,-0.05432,-0.03937,-0.02258,-0.02884,-0.06348,-0.01373,-0.00244,-0.00534,-0.04105,-0.01862,-0.00275,-0.0354,-0.02213,0.00854,-0.0383
2.703,0.00015,-0.05341,-0.03693,-0.0737,-0.02853,-0.05951,-0.01541,-0.00534,-0.01099,-0.04379,-0.01709,-0.00168,-0.03479,-0.02213,0.009,-0.03769
2.7035,0.00122,-0.05203,-0.03571,-0.09399,-0.02945,-0.05402,-0.0148,-0.00565,-0.01587,-0.04349,-0.01633,-0.00092,-0.03403,-0.02106,0.00916,-0.03952
2.704,0.00183,-0.04929,-0.03571,-0.0589,-0.03143,-0.04639,-0.01312,-0.00504,-0.01724,-0.04044,-0.01587,0.0,-0.03387,-0.01968,0.00977,-0.04349
2.7045,0.0,-0.04562,-0.03586,0.01724,-0.03098,-0.03998,-0.01099,-0.00427,-0.01724,-0.03586,-0.01328,0.00092,-0.03616,-0.01923,0.00961,-0.04471
2.705,-0.00214,-0.04196,-0.03586,0.09842,-0.02899,-0.03738,-0.00992,-0.00458,-0.01968,-0.03418,-0.01068,0.00229,-0.03723,-0.02029,0.00839,-0.04395
2.7055,-0.00275,-0.03937,-0.03494,0.13596,-0.02777,-0.03876,-0.01022,-0.00305,-0.02579,-0.03525,-0.01053,0.00137,-0.03677,-0.02106,0.00534,-0.04318
2.706,-0.00107,-0.03769,-0.03387,0.10681,-0.02838,-0.04044,-0.01312,0.00031,-0.0322,-0.03799,-0.01389,-0.00031,-0.03555,-0.02197,0.0032,-0.04333
2.7065,0.00015,-0.03662,-0.03403,0.04532,-0.02975,-0.04211,-0.01892,0.00397,-0.03372,-0.03738,-0.01846,-0.00122,-0.03448,-0.02136,0.00473,-0.04013
2.707,-0.00015,-0.03479,-0.0351,0.00732,-0.03082,-0.04471,-0.02518,0.00717,-0.03174,-0.0325,-0.02106,0.0,-0.03357,-0.02106,0.00626,-0.03448
2.7075,-0.00244,-0.03448,-0.03555,0.00336,-0.03128,-0.04623,-0.0296,0.00793,-0.03021,-0.0267,-0.0209,0.00122,-0.03265,-0.02045,0.00641,-0.02975
2.708,-0.00473,-0.03418,-0.03693,0.00443,-0.03113,-0.04669,-0.03036,0.00748,-0.03036,-0.01999,-0.01923,0.00107,-0.03204,-0.01892,0.00427,-0.02899
2.7085,-0.00595,-0.03586,-0.03738,-0.00763,-0.0296,-0.04669,-0.02686,0.00595,-0.02945,-0.01373,-0.01892,0.0,-0.03281,-0.01816,0.00443,-0.02975
2.709,-0.00717,-0.03677,-0.03891,-0.02426,-0.02777,-0.04776,-0.02289,0.00198,-0.02579,-0.00702,-0.02182,-0.00061,-0.03357,-0.01877,0.00809,-0.02899
2.7095,-0.00839,-0.03677,-0.03967,-0.03098,-0.02716,-0.05112,-0.02014,-0.00473,-0.02151,0.00092,-0.02808,0.00076,-0.03204,-0.01862,0.0119,-0.02899
2.71,-0.01144,-0.03448,-0.03891,-0.02869,-0.02777,-0.05524,-0.01938,-0.01312,-0.01709,0.01175,-0.03616,0.00275,-0.02975,-0.01846,0.01312,-0.03418
2.7105,-0.01328,-0.03326,-0.03708,-0.02441,-0.02945,-0.05814,-0.01984,-0.02075,-0.01205,0.02197,-0.04318,0.0029,-0.02701,-0.01892,0.00824,-0.04242
2.711,-0.0145,-0.03357,-0.03433,-0.01953,-0.0296,-0.06104,-0.02029,-0.02441,-0.00641,0.02884,-0.04349,0.00214,-0.02625,-0.02075,0.00198,-0.04898
2.7115,-0.01434,-0.03601,-0.03143,-0.01541,-0.02914,-0.05951,-0.02136,-0.02441,-0.00153,0.03036,-0.03891,0.00076,-0.02792,-0.0209,-0.00259,-0.04959
2.712,-0.01328,-0.03754,-0.03098,-0.01358,-0.02869,-0.05341,-0.02029,-0.02121,-0.00015,0.02792,-0.03235,-0.00061,-0.02945,-0.02151,-0.00519,-0.04791
2.7125,-0.0119,-0.03799,-0.03204,-0.01343,-0.02853,-0.04501,-0.01556,-0.01892,-0.00061,0.02335,-0.02518,-0.00061,-0.03052,-0.02213,-0.00656,-0.04852
2.713,-0.01007,-0.03815,-0.03296,-0.01465,-0.02869,-0.03983,-0.00977,-0.01846,0.00031,0.01923,-0.01862,-0.00122,-0.03021,-0.02197,-0.00595,-0.04913
2.7135,-0.00671,-0.03876,-0.0325,-0.01389,-0.02975,-0.03952,-0.00641,-0.01724,0.0029,0.01526,-0.01099,-0.00214,-0.03021,-0.02228,-0.00427,-0.04974
2.714,-0.00305,-0.03891,-0.0322,-0.01129,-0.03036,-0.04044,-0.0058,-0.01373,0.00626,0.01144,-0.00534,-0.00305,-0.03082,-0.02121,-0.00366,-0.04974
2.7145,0.00107,-0.0386,-0.03204,-0.0087,-0.03052,-0.03998,-0.00412,-0.00885,0.00854,0.00687,-0.00137,-0.00336,-0.03159,-0.02075,-0.00153,-0.05005
2.715,0.00351,-0.0383,-0.03265,-0.00763,-0.03082,-0.03845,-0.00244,-0.00351,0.0087,0.00198,0.0,-0.00381,-0.03342,-0.0206,0.00732,-0.04913
2.7155,0.00473,-0.03876,-0.03464,-0.00931,-0.02914,-0.03769,-0.00458,0.00076,0.00763,-0.00183,0.00015,-0.00229,-0.03342,-0.02014,0.02487,-0.04807
2.716,0.00519,-0.03952,-0.03647,-0.01129,-0.02808,-0.0383,-0.01251,0.00473,0.00595,-0.0058,-0.00275,-0.00153,-0.03311,-0.01831,0.03799,-0.04974
2.7165,0.00504,-0.04028,-0.03708,-0.01236,-0.02808,-0.03937,-0.01953,0.00687,0.00381,-0.01068,-0.00595,-0.00122,-0.03235,-0.01694,0.03342,-0.05295
2.717,0.00351,-0.04211,-0.03586,-0.01389,-0.02884,-0.04196,-0.01923,0.00534,0.00137,-0.01495,-0.0029,-0.00137,-0.03372,-0.01694,0.01785,-0.05173
2.7175,0.0,-0.04456,-0.03357,-0.01495,-0.03067,-0.04395,-0.01526,0.00015,-0.00229,-0.01709,0.009,-0.00031,-0.03555,-0.01755,0.00916,-0.04608
2.718,-0.00305,-0.04471,-0.03113,-0.01465,-0.03128,-0.0441,-0.01556,-0.00656,-0.00687,-0.01892,0.02411,0.00137,-0.03754,-0.01755,0.01266,-0.03891
2.7185,-0.00381,-0.04379,-0.02228,-0.01328,-0.03174,-0.04349,-0.02029,-0.01022,-0.01205,-0.02197,0.02884,0.00214,-0.03738,-0.01678,0.01968,-0.03632
2.719,-0.00305,-0.04257,-0.00763,-0.01129,-0.03159,-0.04272,-0.01938,-0.0087,-0.01709,-0.02518,0.01846,0.00183,-0.03586,-0.0174,0.02136,-0.03922
2.7195,-0.00397,-0.04135,0.00595,-0.01038,-0.03036,-0.04349,-0.01007,-0.00397,-0.02289,-0.02686,0.00214,0.00168,-0.03387,-0.01846,0.0174,-0.04044
2.72,-0.00626,-0.04028,0.00839,-0.00992,-0.0293,-0.04395,-0.00229,-0.00031,-0.02747,-0.02716,-0.00687,0.0032,-0.03372,-0.01877,0.01404,-0.0386
2.7205,-0.00778,-0.04044,-0.00168,-0.01038,-0.02884,-0.04364,-0.00336,-0.00153,-0.03204,-0.02853,-0.00961,0.00458,-0.03372,-0.01678,0.01099,-0.03647
2.721,-0.00702,-0.04135,-0.01633,-0.01083,-0.02914,-0.04288,-0.00961,-0.00427,-0.03296,-0.03098,-0.01022,0.00458,-0.03265,-0.01434,0.01022,-0.03876
2.7215,-0.00504,-0.04181,-0.02823,-0.01038,-0.02975,-0.04288,-0.01251,-0.00687,-0.03006,-0.03326,-0.01236,0.00137,-0.03143,-0.01251,0.01038,-0.0441
2.722,-0.00366,-0.04196,-0.03647,-0.01022,-0.03067,-0.04257,-0.01251,-0.00702,-0.02502,-0.03326,-0.01495,-0.00122,-0.03006,-0.01251,0.01236,-0.04761
2.7225,-0.00214,-0.03891,-0.04364,-0.01053,-0.03098,-0.04257,-0.01404,-0.00519,-0.02197,-0.03326,-0.01801,-0.00259,-0.02853,-0.01266,0.01129,-0.0473
2.723,-0.00259,-0.0354,-0.05035,-0.01068,-0.03159,-0.04272,-0.01984,-0.00214,-0.02213,-0.03342,-0.02213,-0.00198,-0.02701,-0.0148,0.00854,-0.0444
2.7235,-0.0029,-0.03281,-0.05478,-0.01129,-0.03204,-0.04196,-0.02869,0.00107,-0.02258,-0.03494,-0.02609,-0.00168,-0.0267,-0.01587,0.00351,-0.04425
2.724,-0.00336,-0.03281,-0.0592,-0.01205,-0.03281,-0.03952,-0.03876,0.00214,-0.02167,-0.03738,-0.03036,-0.00214,-0.02762,-0.01678,0.00229,-0.04623
2.7245,-0.00275,-0.03357,-0.06592,-0.01282,-0.0325,-0.03555,-0.05035,0.00107,-0.01984,-0.03937,-0.03738,-0.00168,-0.02899,-0.01648,0.00458,-0.04623
2.725,-0.00198,-0.03479,-0.07233,-0.01328,-0.03189,-0.03326,-0.06104,0.0,-0.01938,-0.0412,-0.0499,0.00031,-0.02914,-0.01633,0.00641,-0.04486
2.7255,-0.00168,-0.03708,-0.07629,-0.01373,-0.03159,-0.03525,-0.06714,0.00122,-0.01831,-0.04242,-0.06256,0.00229,-0.0293,-0.01709,0.00443,-0.04364
2.726,-0.00153,-0.03906,-0.07751,-0.01373,-0.03174,-0.04013,-0.0679,0.00107,-0.01419,-0.04318,-0.06302,0.00366,-0.03113,-0.01923,0.00229,-0.04364
2.7265,-0.0029,-0.04074,-0.07523,-0.01358,-0.03494,-0.04425,-0.06012,-0.00107,-0.00534,-0.0412,-0.04715,0.00397,-0.0322,-0.02136,0.00351,-0.04318
2.727,-0.00778,-0.04028,-0.06683,-0.01236,-0.03738,-0.047,-0.0386,-0.00336,0.00198,-0.03906,-0.0267,0.00427,-0.03143,-0.02167,0.00595,-0.04166
2.7275,-0.01602,-0.04059,-0.05142,-0.01068,-0.03952,-0.04654,-0.00458,-0.00214,0.00397,-0.03479,-0.01175,0.00534,-0.03052,-0.0206,0.00534,-0.03967
2.728,-0.02151,-0.04349,-0.03723,-0.01022,-0.04089,-0.04471,0.02853,0.00168,0.00015,-0.02914,-0.0058,0.00519,-0.03204,-0.01968,0.00397,-0.03799
2.7285,-0.02014,-0.047,-0.0322,-0.01068,-0.04074,-0.0415,0.05081,0.00412,-0.00351,-0.0235,-0.00488,0.0032,-0.03403,-0.01938,0.00504,-0.03571
2.729,-0.01328,-0.04791,-0.03723,-0.01221,-0.03952,-0.03723,0.05798,0.0032,-0.00854,-0.01846,-0.0058,0.00092,-0.03571,-0.01984,0.00687,-0.0354
2.7295,-0.00687,-0.04669,-0.04364,-0.01358,-0.03738,-0.03433,0.04761,0.00259,-0.01617,-0.01236,-0.00336,0.00015,-0.03464,-0.02045,0.009,-0.03616
2.73,-0.00366,-0.04608,-0.04715,-0.01343,-0.0351,-0.03296,0.02777,0.00397,-0.02655,-0.00275,0.00183,0.00214,-0.03357,-0.02075,0.01114,-0.03708
2.7305,-0.00244,-0.047,-0.04883,-0.01205,-0.03448,-0.0351,0.01343,0.00717,-0.03265,0.00854,0.00534,0.00366,-0.03448,-0.02029,0.01083,-0.03754
2.731,-0.00168,-0.04669,-0.04715,-0.01251,-0.03464,-0.03937,0.00977,0.01129,-0.03204,0.01541,0.00168,0.00305,-0.03616,-0.02075,0.00931,-0.03708
2.7315,-0.00046,-0.04547,-0.04242,-0.0148,-0.03204,-0.04318,0.00488,0.01572,-0.02899,0.0119,-0.00702,0.0,-0.03738,-0.02075,0.00824,-0.03479
2.732,0.0,-0.04425,-0.03601,-0.01556,-0.0322,-0.04745,-0.00397,0.02151,-0.02823,0.00092,-0.01816,-0.00214,-0.03754,-0.01984,0.00702,-0.03342
2.7325,-0.00092,-0.04532,-0.03098,-0.01404,-0.03448,-0.05417,-0.01083,0.02289,-0.0264,-0.00977,-0.02945,-0.00244,-0.03815,-0.01877,0.00793,-0.03464
2.733,-0.00214,-0.04654,-0.02792,-0.0119,-0.03586,-0.06302,-0.00748,0.01678,-0.01968,-0.01511,-0.04059,-0.00153,-0.03784,-0.01801,0.00916,-0.03723
2.7335,-0.0029,-0.0473,-0.02686,-0.0116,-0.03433,-0.07065,-0.00015,0.00488,-0.00946,-0.01663,-0.047,0.0,-0.03555,-0.01846,0.01144,-0.03738
2.734,-0.00183,-0.04623,-0.02792,-0.01266,-0.03052,-0.07309,-0.00137,-0.00702,-0.00092,-0.01892,-0.04593,0.00122,-0.03082,-0.01846,0.01282,-0.03647
2.7345,0.00153,-0.04639,-0.02975,-0.01251,-0.02808,-0.06683,-0.01251,-0.01511,0.00183,-0.02304,-0.03891,0.00198,-0.02838,-0.01831,0.01022,-0.03616
2.735,0.00458,-0.04807,-0.03128,-0.01068,-0.02853,-0.05798,-0.02548,-0.01984,0.00153,-0.02655,-0.03021,0.00153,-0.02853,-0.01816,0.00702,-0.03738
2.7355,0.00549,-0.05051,-0.03235,-0.00885,-0.03128,-0.0528,-0.03296,-0.02121,0.00046,-0.02823,-0.02182,0.00015,-0.03036,-0.01938,0.0061,-0.03769
2.736,0.00259,-0.05096,-0.03281,-0.00748,-0.03189,-0.05157,-0.03372,-0.02106,0.00015,-0.02762,-0.01282,-0.00092,-0.0325,-0.02014,0.00641,-0.03952
2.7365,0.00046,-0.04745,-0.03098,-0.00763,-0.03036,-0.05096,-0.02686,-0.01999,-0.00305,-0.02625,-0.00626,-0.00061,-0.03403,-0.02014,0.00626,-0.04547
2.737,0.0,-0.04074,-0.03021,-0.00946,-0.02853,-0.04883,-0.01984,-0.01801,-0.00732,-0.02487,-0.00412,0.00107,-0.03464,-0.01923,0.00458,-0.05478
2.7375,0.00031,-0.03448,-0.03174,-0.01282,-0.02975,-0.04608,-0.02136,-0.01266,-0.01083,-0.02533,-0.00717,0.00229,-0.03403,-0.01907,0.00229,-0.0589
2.738,-0.00137,-0.0325,-0.03372,-0.01465,-0.03326,-0.04562,-0.03082,-0.00519,-0.01312,-0.02655,-0.01068,0.00183,-0.03296,-0.01953,0.00351,-0.0502
2.7385,-0.00381,-0.03113,-0.03281,-0.01511,-0.03616,-0.04639,-0.04074,0.00153,-0.01602,-0.02884,-0.01144,0.00031,-0.03128,-0.01953,0.00748,-0.0351
2.739,-0.00626,-0.02762,-0.03067,-0.01404,-0.03784,-0.0473,-0.03876,0.00381,-0.01938,-0.0296,-0.00244,-0.00061,-0.03036,-0.01999,0.0119,-0.02701
2.7395,-0.00534,-0.02243,-0.02777,-0.0119,-0.03784,-0.04623,-0.0209,0.00549,-0.02228,-0.02731,0.01984,0.00015,-0.02975,-0.02151,0.01175,-0.03296
2.74,-0.00244,-0.01923,-0.0264,-0.01053,-0.03677,-0.04318,0.00839,0.00732,-0.02289,-0.02335,0.04562,0.00153,-0.02991,-0.02289,0.00885,-0.04562
2.7405,-0.00046,-0.0206,-0.02548,-0.0087,-0.03403,-0.04135,0.03265,0.00916,-0.02106,-0.0206,0.056,0.00214,-0.02991,-0.0209,0.00565,-0.05234
2.741,-0.00122,-0.02472,-0.02502,-0.00916,-0.0322,-0.04181,0.03311,0.00519,-0.01801,-0.01968,0.04318,0.00122,-0.02884,-0.01587,0.00351,-0.05173
2.7415,-0.0029,-0.02838,-0.02594,-0.01022,-0.03052,-0.04364,0.00839,-0.00534,-0.01556,-0.01953,0.02075,0.00076,-0.02686,-0.0119,0.00336,-0.05096
2.742,-0.00381,-0.03113,-0.02869,-0.01175,-0.03189,-0.04517,-0.01999,-0.01862,-0.01282,-0.02121,0.00336,0.00244,-0.0264,-0.01144,0.00381,-0.05112
2.7425,-0.00504,-0.03418,-0.03235,-0.01175,-0.03357,-0.0444,-0.03311,-0.02747,-0.00748,-0.01907,-0.00809,0.00412,-0.02777,-0.01389,0.00412,-0.05051
2.743,-0.00748,-0.03769,-0.03357,-0.01114,-0.03189,-0.04379,-0.03296,-0.02991,-0.00031,-0.01602,-0.01633,0.00443,-0.02991,-0.01724,0.00488,-0.04745
2.7435,-0.01114,-0.03967,-0.02838,-0.01038,-0.02914,-0.04425,-0.03235,-0.02701,0.00473,-0.01175,-0.0209,0.00061,-0.03113,-0.01831,0.00687,-0.04364
2.744,-0.01343,-0.0412,-0.01694,-0.00946,-0.02808,-0.04532,-0.03418,-0.0206,0.00366,-0.00717,-0.02167,-0.00198,-0.0322,-0.01801,0.01022,-0.04166
2.7445,-0.0145,-0.04333,-0.00839,-0.01068,-0.03021,-0.04486,-0.03799,-0.01251,-0.0029,-0.00793,-0.01968,-0.00244,-0.03159,-0.01617,0.01358,-0.04089
2.745,-0.01389,-0.04745,-0.00809,-0.01648,-0.03143,-0.04425,-0.04288,-0.00351,-0.01389,-0.01434,-0.01862,-0.00061,-0.03067,-0.0148,0.01526,-0.03906
2.7455,-0.01266,-0.05249,-0.01526,-0.02777,-0.03021,-0.0441,-0.04074,0.00214,-0.0238,-0.01953,-0.01984,-0.00015,-0.03113,-0.01511,0.01511,-0.03708
2.746,-0.0087,-0.05753,-0.02472,-0.04044,-0.02914,-0.04486,-0.01755,0.00107,-0.02655,-0.01633,-0.02121,0.00015,-0.03036,-0.01648,0.01602,-0.03571
2.7465,-0.00443,-0.06027,-0.03448,-0.0528,-0.02975,-0.04593,0.02701,-0.00504,-0.02365,-0.00504,-0.02289,0.00092,-0.02853,-0.0174,0.01602,-0.03555
2.747,-0.0029,-0.06027,-0.04059,-0.06332,-0.03067,-0.04868,0.05936,-0.01068,-0.01846,0.00488,-0.02563,0.00214,-0.02792,-0.01801,0.01678,-0.03632
2.7475,-0.00427,-0.05661,-0.0444,-0.06851,-0.03021,-0.0499,0.0499,-0.01068,-0.01587,0.00778,-0.02716,0.00214,-0.02884,-0.0177,0.01617,-0.03677
2.748,-0.00595,-0.05371,-0.04715,-0.05768,-0.03021,-0.04929,0.0119,-0.00732,-0.0174,0.00397,-0.02625,0.00076,-0.02945,-0.01709,0.01495,-0.03677
2.7485,-0.00656,-0.05341,-0.04974,-0.02136,-0.0296,-0.04929,-0.01648,-0.00381,-0.01968,0.00046,-0.02197,-0.00107,-0.02975,-0.01678,0.01404,-0.0383
2.749,-0.00519,-0.05447,-0.05203,0.0325,-0.0296,-0.04807,-0.02029,-0.00336,-0.01953,-0.00168,-0.01801,-0.00153,-0.03036,-0.01663,0.01282,-0.04074
2.7495,-0.0032,-0.05463,-0.05356,0.07568,-0.02914,-0.04654,-0.01373,-0.00351,-0.01282,-0.00519,-0.01511,-0.00061,-0.03143,-0.01678,0.01099,-0.04242
2.75,-0.00107,-0.05325,-0.05127,0.08392,-0.02716,-0.04303,-0.0116,-0.0029,-0.00168,-0.01419,-0.01083,0.00076,-0.03204,-0.0174,0.01038,-0.04227
2.7505,0.00061,-0.05066,-0.04791,0.05844,-0.02441,-0.03952,-0.01328,-0.00137,0.00748,-0.02579,-0.00565,0.00153,-0.0322,-0.01862,0.01144,-0.0412
2.751,0.00137,-0.04822,-0.0444,0.0238,-0.02182,-0.03693,-0.01221,0.00031,0.0087,-0.03281,-0.00366,0.00168,-0.0322,-0.01938,0.01114,-0.04013
2.7515,0.00153,-0.04669,-0.04456,0.00122,-0.01953,-0.03693,-0.01022,0.00351,0.00427,-0.03357,-0.00687,0.00153,-0.03326,-0.01953,0.00977,-0.03891
2.752,0.00061,-0.04517,-0.04761,-0.00793,-0.01907,-0.0386,-0.01053,0.00748,-0.00137,-0.0325,-0.01221,0.00015,-0.03555,-0.01938,0.00641,-0.03906
2.7525,0.00015,-0.04395,-0.04974,-0.01389,-0.01831,-0.03952,-0.0119,0.00931,-0.0061,-0.0351,-0.0145,-0.00153,-0.03647,-0.01968,0.00412,-0.04105
2.753,-0.00107,-0.04318,-0.04684,-0.02441,-0.01877,-0.03922,-0.01312,0.00717,-0.01038,-0.04074,-0.0145,-0.00275,-0.03586,-0.01968,0.0032,-0.04257
2.7535,-0.00168,-0.04288,-0.03906,-0.04028,-0.01892,-0.03815,-0.01495,0.00305,-0.01526,-0.04654,-0.01724,-0.00336,-0.03342,-0.01938,0.00397,-0.04257
2.754,-0.00275,-0.04349,-0.03036,-0.05768,-0.02106,-0.03662,-0.01694,-0.00076,-0.01801,-0.04654,-0.0264,-0.00336,-0.03174,-0.02045,0.00549,-0.04333
2.7545,-0.00351,-0.04211,-0.02365,-0.06897,-0.0206,-0.03387,-0.01678,-0.00168,-0.0177,-0.04181,-0.03693,-0.00427,-0.03021,-0.02197,0.00565,-0.04501
2.755,-0.00565,-0.04105,-0.0206,-0.06668,-0.02365,-0.03418,-0.01587,-0.00153,-0.01602,-0.03387,-0.04288,-0.00519,-0.02899,-0.02197,0.00626,-0.0473
2.7555,-0.00732,-0.03952,-0.02167,-0.05554,-0.0293,-0.04044,-0.01617,-0.00092,-0.01495,-0.02304,-0.0386,-0.00488,-0.02899,-0.01999,0.00626,-0.047
2.756,-0.00763,-0.03738,-0.02609,-0.05295,-0.0383,-0.05005,-0.01724,-0.00031,-0.01526,-0.01068,-0.0293,-0.00259,-0.02975,-0.01663,0.00702,-0.04257
2.7565,-0.00778,-0.03723,-0.03235,-0.06866,-0.04578,-0.06195,-0.01801,-0.00015,-0.01526,0.00107,-0.02258,-0.00031,-0.03052,-0.01602,0.00824,-0.0383
2.757,-0.00839,-0.04089,-0.03845,-0.08026,-0.04974,-0.07202,-0.01709,-0.00107,-0.01419,0.00885,-0.01755,0.00031,-0.03021,-0.01999,0.00931,-0.03647
2.7575,-0.00793,-0.04578,-0.03983,-0.04288,-0.05081,-0.07858,-0.01633,-0.00214,-0.01114,0.01373,-0.01205,0.00061,-0.03021,-0.02243,0.01007,-0.03525
2.758,-0.00656,-0.04807,-0.03525,0.06256,-0.05127,-0.07874,-0.01633,-0.0032,-0.00656,0.01526,-0.00793,0.00046,-0.03174,-0.02182,0.01007,-0.03281
2.7585,-0.00443,-0.04639,-0.03006,0.18646,-0.05005,-0.0705,-0.01678,-0.00244,-0.00259,0.01328,-0.00626,0.0,-0.03372,-0.01862,0.01083,-0.02975
2.759,-0.00366,-0.04288,-0.03204,0.24643,-0.04837,-0.05997,-0.01709,0.00031,0.00076,0.00717,-0.00824,-0.00244,-0.03525,-0.01755,0.00717,-0.02975
2.7595,-0.00397,-0.03784,-0.03784,0.20706,-0.04654,-0.05676,-0.01724,0.00275,0.00351,0.0029,-0.01053,-0.00519,-0.03555,-0.01724,0.0058,-0.03265
2.76,-0.00626,-0.03448,-0.03784,0.11368,-0.04562,-0.06088,-0.01617,0.00427,0.00549,0.00046,-0.01205,-0.00549,-0.03357,-0.0174,0.00656,-0.03494
2.7605,-0.00916,-0.03235,-0.03082,0.02914,-0.04486,-0.07034,-0.01526,0.00427,0.00549,-0.00259,-0.01251,-0.00427,-0.03204,-0.0174,0.00961,-0.03281
2.761,-0.0116,-0.03159,-0.02304,-0.02335,-0.04333,-0.07645,-0.0148,0.00336,0.00351,-0.00946,-0.01236,-0.0029,-0.03235,-0.01816,0.01144,-0.02853
2.7615,-0.01114,-0.03067,-0.02151,-0.047,-0.0386,-0.07568,-0.01556,0.00366,0.00214,-0.01862,-0.0145,-0.00275,-0.03433,-0.01831,0.01282,-0.02823
2.762,-0.00839,-0.03113,-0.02319,-0.03372,-0.0325,-0.06989,-0.01724,0.00275,-0.00031,-0.02655,-0.01816,-0.00198,-0.03448,-0.01907,0.01297,-0.03418
2.7625,-0.00381,-0.03342,-0.02289,0.0119,-0.02762,-0.0618,-0.01831,-0.00015,-0.00305,-0.03204,-0.01984,0.0,-0.03281,-0.01984,0.01099,-0.04227
2.763,-0.00076,-0.0354,-0.02075,0.04562,-0.02533,-0.05463,-0.01907,-0.00443,-0.00565,-0.03448,-0.01877,0.00153,-0.03159,-0.0206,0.00717,-0.05081
2.7635,-0.00061,-0.03479,-0.01938,0.02533,-0.02594,-0.05035,-0.01892,-0.00824,-0.00626,-0.03479,-0.01663,0.00153,-0.03189,-0.02045,0.00412,-0.0563
2.764,-0.00305,-0.03555,-0.02106,-0.02609,-0.02823,-0.04776,-0.01785,-0.00793,-0.00702,-0.03403,-0.01602,0.00092,-0.0322,-0.02014,0.00214,-0.06027
2.7645,-0.00458,-0.03616,-0.02182,-0.05737,-0.03128,-0.04333,-0.01785,-0.00473,-0.009,-0.03372,-0.01724,0.00046,-0.0322,-0.01968,0.00046,-0.06042
2.765,-0.00381,-0.03677,-0.02151,-0.05371,-0.03281,-0.03738,-0.01862,-0.00137,-0.01373,-0.03372,-0.01801,0.00015,-0.03204,-0.01984,0.00031,-0.05829
2.7655,-0.00275,-0.03677,-0.02258,-0.04135,-0.03372,-0.03021,-0.02029,-0.00092,-0.0206,-0.03372,-0.01587,0.00046,-0.03281,-0.02075,0.00259,-0.05615
2.766,-0.00305,-0.03601,-0.02579,-0.03876,-0.03464,-0.02426,-0.02213,-0.0032,-0.02716,-0.0322,-0.01282,0.00092,-0.03479,-0.02151,0.00641,-0.05417
2.7665,-0.00366,-0.03571,-0.03036,-0.04379,-0.03433,-0.02029,-0.02228,-0.00519,-0.02945,-0.0293,-0.01068,0.00122,-0.03693,-0.02151,0.00885,-0.05203
2.767,-0.00534,-0.03662,-0.03616,-0.04959,-0.03281,-0.01892,-0.02182,-0.00519,-0.02594,-0.02701,-0.00961,0.00076,-0.03662,-0.02029,0.00854,-0.04868
2.7675,-0.00809,-0.03784,-0.04395,-0.0563,-0.03021,-0.01831,-0.0209,-0.00427,-0.02228,-0.02472,-0.00839,-0.00046,-0.03433,-0.01968,0.00565,-0.04593
2.768,-0.009,-0.0386,-0.05264,-0.06607,-0.02869,-0.01816,-0.02075,-0.00381,-0.02228,-0.02167,-0.0061,-0.00122,-0.03235,-0.02014,0.00305,-0.04593
2.7685,-0.00931,-0.03891,-0.05997,-0.07935,-0.02701,-0.02075,-0.0177,-0.00549,-0.02686,-0.01724,-0.00565,-0.00137,-0.0322,-0.02045,0.00046,-0.04578
2.769,-0.01007,-0.03906,-0.06195,-0.08896,-0.02411,-0.02686,-0.0119,-0.00656,-0.0293,-0.01221,-0.00473,-0.00107,-0.03265,-0.0209,-0.00015,-0.04501
2.7695,-0.01022,-0.03967,-0.06195,-0.0856,-0.02106,-0.0351,-0.00626,-0.00458,-0.02594,-0.00519,-0.00351,-0.00046,-0.03143,-0.01968,0.00122,-0.04456
2.77,-0.00931,-0.03952,-0.06699,-0.06119,-0.01984,-0.0441,-0.00397,-0.00198,-0.01862,0.00168,-0.00198,0.00061,-0.03113,-0.01968,0.00412,-0.0444
2.7705,-0.00748,-0.03983,-0.08408,-0.02274,-0.02274,-0.05417,-0.00778,-0.00076,-0.01022,0.0061,-0.00122,0.00153,-0.03265,-0.01907,0.00732,-0.04364
2.771,-0.00504,-0.03952,-0.1033,0.01236,-0.02563,-0.06668,-0.01251,-0.00107,-0.00305,0.0058,-0.00229,0.00275,-0.0354,-0.01984,0.00992,-0.04181
2.7715,-0.00443,-0.04074,-0.10269,0.02548,-0.02762,-0.07782,-0.01495,-0.00183,0.00107,0.00366,-0.00458,0.00198,-0.03677,-0.01984,0.01129,-0.03876
2.772,-0.00381,-0.04135,-0.07568,0.01862,-0.02808,-0.08194,-0.01404,-0.00137,0.00183,0.00458,-0.00748,0.00122,-0.03632,-0.01892,0.01053,-0.03799
2.7725,-0.0032,-0.04257,-0.03693,0.0119,-0.02899,-0.07736,-0.01251,0.00061,0.00092,0.0058,-0.01022,0.00031,-0.03372,-0.01755,0.00916,-0.03998
2.773,-0.00214,-0.04257,-0.00809,0.01434,-0.03021,-0.06744,-0.01312,0.00122,0.00061,0.00504,-0.01175,0.0,-0.03433,-0.01724,0.00763,-0.04074
2.7735,-0.00275,-0.04196,0.00214,0.01953,-0.03021,-0.05814,-0.01404,0.00031,0.0,0.00168,-0.01328,0.00046,-0.03601,-0.01907,0.00732,-0.04089
2.774,-0.00305,-0.0415,0.00244,0.02014,-0.03098,-0.05081,-0.01663,-0.00061,-0.00183,-0.00381,-0.01328,0.00092,-0.03723,-0.01968,0.00748,-0.0412
2.7745,-0.00305,-0.04028,-0.00046,0.02457,-0.03204,-0.04654,-0.01999,0.0,-0.00534,-0.01022,-0.01373,0.00244,-0.03601,-0.01938,0.00946,-0.04105
2.775,-0.00153,-0.03891,-0.00153,0.04486,-0.03281,-0.04379,-0.02182,0.0,-0.01114,-0.01633,-0.0148,0.00275,-0.03525,-0.01907,0.0116,-0.04135
2.7755,0.0,-0.03708,-0.00458,0.06668,-0.03082,-0.04349,-0.02121,-0.00107,-0.01694,-0.02213,-0.0174,0.00259,-0.03525,-0.01984,0.01114,-0.04028
2.776,-0.00015,-0.03571,-0.00748,0.06042,-0.03113,-0.04364,-0.0177,-0.00107,-0.02213,-0.02609,-0.01953,0.00214,-0.03616,-0.01999,0.01022,-0.0386
2.7765,-0.00122,-0.03525,-0.01144,0.01373,-0.03342,-0.04303,-0.01465,0.00031,-0.02533,-0.03021,-0.02029,0.00183,-0.0354,-0.01984,0.01083,-0.03708
2.777,-0.00214,-0.03601,-0.01434,-0.05188,-0.03586,-0.04257,-0.01297,0.0029,-0.02487,-0.03571,-0.01816,0.00137,-0.03235,-0.01938,0.0116,-0.03769
2.7775,-0.00275,-0.03784,-0.01755,-0.09583,-0.03708,-0.04318,-0.01251,0.00305,-0.02319,-0.04059,-0.01404,0.00198,-0.0296,-0.01877,0.01083,-0.03906
2.778,-0.00259,-0.03891,-0.02258,-0.10086,-0.03738,-0.04288,-0.01297,0.00031,-0.02121,-0.04318,-0.00961,0.00244,-0.02747,-0.01984,0.00977,-0.0412
2.7785,-0.00412,-0.03876,-0.03113,-0.08942,-0.03616,-0.04166,-0.01465,-0.00244,-0.01663,-0.04227,-0.00595,0.00214,-0.02609,-0.02106,0.01068,-0.0412
2.779,-0.00809,-0.03708,-0.04288,-0.09186,-0.03479,-0.0415,-0.01434,-0.00443,-0.0119,-0.04028,-0.00198,0.00092,-0.0264,-0.02197,0.01144,-0.03937
2.7795,-0.01251,-0.03601,-0.05539,-0.11963,-0.03265,-0.04257,-0.01358,-0.00381,-0.01114,-0.03876,0.00015,0.00076,-0.02594,-0.02258,0.01175,-0.03769
2.78,-0.01343,-0.03647,-0.05981,-0.16022,-0.02945,-0.04486,-0.01297,-0.00305,-0.01328,-0.03784,-0.00137,0.00015,-0.02625,-0.02151,0.0116,-0.03754
2.7805,-0.01236,-0.03922,-0.0531,-0.18951,-0.02686,-0.04517,-0.01465,-0.00229,-0.01556,-0.03693,-0.00443,-0.00076,-0.02716,-0.01907,0.0116,-0.03876
2.781,-0.01068,-0.04135,-0.04074,-0.19409,-0.02533,-0.04303,-0.01816,-0.00244,-0.01556,-0.03723,-0.00717,-0.00198,-0.02777,-0.01755,0.01099,-0.03998
2.7815,-0.00961,-0.04181,-0.03174,-0.18097,-0.02319,-0.03769,-0.01999,-0.00412,-0.01419,-0.0354,-0.00916,-0.00305,-0.02853,-0.01678,0.00931,-0.04013
2.782,-0.00748,-0.0412,-0.03036,-0.16235,-0.02182,-0.03067,-0.01968,-0.00671,-0.01312,-0.0325,-0.01083,-0.00366,-0.0293,-0.0174,0.00763,-0.03983
2.7825,-0.00381,-0.04211,-0.03281,-0.13824,-0.02014,-0.02594,-0.01907,-0.00931,-0.01129,-0.02792,-0.01343,-0.00397,-0.03036,-0.0177,0.0061,-0.03937
2.783,-0.00092,-0.04272,-0.03464,-0.09354,-0.01984,-0.02625,-0.01862,-0.01083,-0.00793,-0.02335,-0.01587,-0.00336,-0.03128,-0.01694,0.0058,-0.04013
2.7835,-0.00031,-0.04257,-0.0351,-0.01785,-0.02228,-0.03036,-0.01923,-0.01053,-0.00534,-0.0177,-0.01755,-0.00229,-0.0325,-0.01694,0.0061,-0.04196
2.784,-0.00046,-0.04105,-0.03357,0.07111,-0.02579,-0.0351,-0.01846,-0.00946,-0.00534,-0.01205,-0.01785,-0.00076,-0.03403,-0.0174,0.00702,-0.04303
2.7845,0.00076,-0.03983,-0.03189,0.13275,-0.02609,-0.03876,-0.01556,-0.00961,-0.00656,-0.00885,-0.0177,0.00046,-0.03494,-0.01801,0.00946,-0.04257
2.785,0.00122,-0.04028,-0.03098,0.1387,-0.02472,-0.04074,-0.01511,-0.01038,-0.00778,-0.00992,-0.01846,0.0,-0.03601,-0.01831,0.01053,-0.04196
2.7855,0.00198,-0.04166,-0.03021,0.10498,-0.02319,-0.04364,-0.01587,-0.01053,-0.00763,-0.01678,-0.02029,0.00092,-0.03647,-0.01709,0.01007,-0.04272
2.786,0.00061,-0.04166,-0.03098,0.07431,-0.0238,-0.04745,-0.01724,-0.00854,-0.00824,-0.02426,-0.02167,0.00183,-0.03586,-0.01663,0.00916,-0.04242
2.7865,-0.00122,-0.04105,-0.03082,0.06866,-0.02533,-0.05234,-0.01678,-0.00732,-0.00977,-0.0322,-0.02289,0.00351,-0.03464,-0.01709,0.009,-0.04211
2.787,-0.0029,-0.04105,-0.03281,0.07217,-0.02716,-0.05661,-0.01343,-0.00656,-0.01205,-0.03815,-0.02472,0.00458,-0.03494,-0.01801,0.00931,-0.0415
2.7875,-0.00305,-0.04227,-0.03372,0.06882,-0.02747,-0.05737,-0.00916,-0.00626,-0.01465,-0.04181,-0.02441,0.0029,-0.03693,-0.01831,0.00885,-0.0412
2.788,-0.00122,-0.04257,-0.0322,0.05783,-0.02762,-0.05539,-0.00931,-0.0061,-0.01785,-0.04227,-0.02228,0.00183,-0.03708,-0.01755,0.00778,-0.04074
2.7885,0.00092,-0.04349,-0.03159,0.04868,-0.02899,-0.05127,-0.0145,-0.00641,-0.02136,-0.0412,-0.01907,0.00076,-0.03616,-0.0177,0.00717,-0.04044
2.789,0.00168,-0.04471,-0.03174,0.0441,-0.02975,-0.0473,-0.02182,-0.00671,-0.0238,-0.0383,-0.01633,0.00137,-0.03525,-0.01831,0.00885,-0.03952
2.7895,0.00046,-0.04593,-0.03204,0.03952,-0.0293,-0.04532,-0.02472,-0.00504,-0.02258,-0.03418,-0.01251,0.00214,-0.03464,-0.01724,0.01144,-0.0383
2.79,0.00031,-0.04608,-0.03113,0.03418,-0.02762,-0.04532,-0.02228,-0.00351,-0.02197,-0.02777,-0.00839,0.0029,-0.03433,-0.01556,0.01266,-0.03723
2.7905,0.00153,-0.04425,-0.03143,0.02945,-0.02792,-0.04745,-0.01877,-0.00336,-0.02274,-0.0206,-0.00717,0.00229,-0.0351,-0.01709,0.01144,-0.03693
2.791,0.00183,-0.04364,-0.03265,0.02289,-0.02899,-0.04822,-0.01587,-0.0032,-0.02441,-0.01312,-0.00961,0.00092,-0.03479,-0.01953,0.00977,-0.0386
2.7915,0.00031,-0.04364,-0.03342,0.0148,-0.03098,-0.04791,-0.01373,-0.00259,-0.02335,-0.00778,-0.01343,0.00137,-0.03342,-0.0209,0.00931,-0.04074
2.792,-0.00305,-0.04364,-0.03326,0.00351,-0.03143,-0.04562,-0.00992,-0.00015,-0.01923,-0.00504,-0.01602,0.00076,-0.03296,-0.02106,0.00946,-0.0415
2.7925,-0.00412,-0.04257,-0.03281,-0.01358,-0.03128,-0.04364,-0.00427,0.00275,-0.01343,-0.00076,-0.0177,0.0,-0.03204,-0.01968,0.00854,-0.04059
2.793,-0.00488,-0.04105,-0.03143,-0.04196,-0.03311,-0.0444,0.00076,0.00458,-0.01038,0.00793,-0.01816,-0.00122,-0.03128,-0.01846,0.00732,-0.03952
2.7935,-0.00595,-0.03937,-0.03021,-0.07828,-0.0351,-0.04791,0.00244,0.00366,-0.01114,0.01892,-0.01877,-0.00229,-0.02899,-0.0177,0.00656,-0.03998
2.794,-0.00748,-0.03723,-0.0293,-0.10956,-0.0351,-0.05081,-0.00275,0.00153,-0.0116,0.02609,-0.02014,-0.00244,-0.02792,-0.01755,0.00656,-0.04181
2.7945,-0.00809,-0.03464,-0.02808,-0.12634,-0.03479,-0.05264,-0.0119,-0.00168,-0.01099,0.02411,-0.01984,-0.00229,-0.02731,-0.01755,0.009,-0.04227
2.795,-0.00671,-0.03357,-0.02808,-0.12512,-0.03601,-0.05569,-0.01923,-0.00488,-0.00885,0.01419,-0.01816,-0.00214,-0.0296,-0.01846,0.01114,-0.0412
2.7955,-0.00565,-0.03265,-0.02701,-0.09018,-0.03876,-0.05981,-0.01862,-0.00687,-0.00656,0.00061,-0.01602,-0.00168,-0.03143,-0.01801,0.01266,-0.04059
2.796,-0.00565,-0.0296,-0.02655,-0.00153,-0.04028,-0.06393,-0.01358,-0.00595,-0.00626,-0.01068,-0.01205,0.00046,-0.0325,-0.0177,0.01205,-0.04044
2.7965,-0.0058,-0.02365,-0.02731,0.12222,-0.03922,-0.0621,-0.01251,-0.00412,-0.00809,-0.01755,-0.00259,0.00198,-0.03128,-0.01846,0.01007,-0.04074
2.797,-0.00473,-0.01816,-0.0267,0.20554,-0.03723,-0.05432,-0.01678,-0.00153,-0.0119,-0.02167,0.01328,0.00214,-0.02975,-0.01785,0.00916,-0.04013
2.7975,-0.00427,-0.02136,-0.02411,0.1918,-0.03555,-0.04608,-0.02136,-0.00122,-0.01434,-0.02518,0.02838,0.00198,-0.02914,-0.01587,0.00809,-0.03998
2.798,-0.00412,-0.03235,-0.01831,0.11246,-0.0351,-0.04105,-0.01862,-0.00107,-0.01556,-0.02991,0.02884,0.00168,-0.02853,-0.01465,0.00702,-0.04059
2.7985,-0.00473,-0.04608,-0.01038,0.04517,-0.03326,-0.03983,-0.01022,-0.00137,-0.01617,-0.03387,0.01434,0.00046,-0.02823,-0.0145,0.00565,-0.04181
2.799,-0.00443,-0.05295,-0.00473,0.02396,-0.03128,-0.04044,-0.00397,-0.00198,-0.01434,-0.03738,-0.00443,-0.00092,-0.02899,-0.01511,0.00427,-0.04333
2.7995,-0.00381,-0.05203,-0.00427,0.02426,-0.03006,-0.03937,-0.00549,-0.00153,-0.01221,-0.03662,-0.01419,-0.00275,-0.03098,-0.01648,0.00565,-0.04318
2.8,-0.00153,-0.04593,-0.01266,0.01556,-0.02945,-0.03845,-0.01007,-0.00259,-0.01221,-0.03372,-0.01801,-0.00259,-0.0325,-0.01587,0.00946,-0.04227
2.8005,-0.00092,-0.04105,-0.02533,-0.00046,-0.02991,-0.03922,-0.01343,-0.00732,-0.01526,-0.03128,-0.02151,-0.00198,-0.03281,-0.0174,0.0116,-0.04181
2.801,-0.00351,-0.03891,-0.03586,-0.01068,-0.03174,-0.04257,-0.01465,-0.01236,-0.01724,-0.03128,-0.0293,-0.00183,-0.03265,-0.01801,0.01007,-0.04242
2.8015,-0.00809,-0.03952,-0.03784,-0.0116,-0.03525,-0.04639,-0.01358,-0.01038,-0.0148,-0.03464,-0.03464,-0.00244,-0.03265,-0.01877,0.00809,-0.04257
2.802,-0.01389,-0.04028,-0.03265,-0.01114,-0.03677,-0.04868,-0.01236,-0.00122,-0.01526,-0.0415,-0.03342,-0.00366,-0.03311,-0.01938,0.00732,-0.04181
2.8025,-0.01923,-0.04135,-0.02625,-0.01312,-0.03891,-0.04959,-0.01144,0.00549,-0.02426,-0.04791,-0.02853,-0.00412,-0.03296,-0.02121,0.00809,-0.04196
2.803,-0.0235,-0.04074,-0.02319,-0.01541,-0.03983,-0.04883,-0.01038,0.00488,-0.03647,-0.04959,-0.02609,-0.00427,-0.03296,-0.02151,0.00916,-0.0415
2.8035,-0.02396,-0.03983,-0.0293,-0.01633,-0.03967,-0.0441,-0.009,-0.00092,-0.04608,-0.04639,-0.02731,-0.00473,-0.03265,-0.02167,0.00885,-0.0412
2.804,-0.02121,-0.04089,-0.04257,-0.01602,-0.03769,-0.0383,-0.00809,-0.00488,-0.05188,-0.03738,-0.03021,-0.00397,-0.03326,-0.02136,0.00824,-0.04181
2.8045,-0.01816,-0.04501,-0.05753,-0.01846,-0.03403,-0.0325,-0.00854,-0.00549,-0.05447,-0.02579,-0.0325,-0.00275,-0.0325,-0.02167,0.00778,-0.04257
2.805,-0.01633,-0.05157,-0.06775,-0.02045,-0.03357,-0.02991,-0.01053,-0.00534,-0.05127,-0.01099,-0.03403,0.00015,-0.03036,-0.02136,0.00824,-0.04349
2.8055,-0.01328,-0.05615,-0.07126,-0.02197,-0.03479,-0.03067,-0.01068,-0.00488,-0.04288,0.00336,-0.03418,0.00305,-0.02914,-0.02014,0.00702,-0.04395
2.806,-0.00824,-0.05737,-0.07019,-0.02243,-0.03403,-0.03296,-0.0116,-0.00397,-0.03555,0.0174,-0.03525,0.00305,-0.03098,-0.01968,0.0061,-0.04364
2.8065,-0.00443,-0.05707,-0.06821,-0.02319,-0.03189,-0.0354,-0.01282,-0.0032,-0.03326,0.02594,-0.03403,0.00107,-0.03357,-0.0206,0.00565,-0.04242
2.807,-0.00259,-0.05615,-0.06638,-0.02365,-0.02762,-0.03632,-0.01511,-0.00229,-0.03357,0.0264,-0.02991,0.00153,-0.03433,-0.02197,0.00641,-0.0415
2.8075,-0.00229,-0.05569,-0.06546,-0.02533,-0.02808,-0.03799,-0.01648,-0.00229,-0.02808,0.01862,-0.02335,0.0032,-0.03281,-0.02151,0.00687,-0.04135
2.808,-0.00046,-0.05432,-0.06531,-0.02701,-0.03067,-0.03967,-0.0177,-0.00229,-0.01862,0.00549,-0.01984,0.00427,-0.03082,-0.02014,0.00565,-0.04135
2.8085,0.0032,-0.05325,-0.06638,-0.02914,-0.03159,-0.04684,-0.01785,-0.00076,-0.01297,-0.0058,-0.02136,0.00366,-0.02991,-0.01862,0.0029,-0.04166
2.809,0.00702,-0.05508,-0.0676,-0.03311,-0.03113,-0.0618,-0.01846,0.00122,-0.01465,-0.01358,-0.02457,0.0032,-0.0293,-0.0174,0.00336,-0.04272
2.8095,0.00824,-0.05814,-0.06424,-0.03845,-0.03143,-0.07843,-0.0174,0.00443,-0.01724,-0.01846,-0.02304,0.00443,-0.02914,-0.01663,0.00565,-0.04333
2.81,0.00687,-0.05981,-0.0592,-0.04074,-0.03052,-0.08804,-0.01709,0.00641,-0.01556,-0.02258,-0.01724,0.00595,-0.02975,-0.01617,0.00656,-0.04379
2.8105,0.00443,-0.05753,-0.05203,-0.03677,-0.02899,-0.08423,-0.01587,0.00687,-0.01053,-0.02457,-0.01038,0.0058,-0.03036,-0.01572,0.0061,-0.04288
2.811,0.00351,-0.05157,-0.04456,-0.02823,-0.02686,-0.07202,-0.0145,0.00641,-0.0058,-0.02258,-0.00595,0.00519,-0.03006,-0.01495,0.00671,-0.04196
2.8115,0.00381,-0.04593,-0.03967,-0.02426,-0.02838,-0.05997,-0.0116,0.00168,-0.00244,-0.02289,-0.00198,0.00381,-0.02991,-0.01389,0.00732,-0.0415
2.812,0.0032,-0.04303,-0.03723,-0.02457,-0.03098,-0.05417,-0.00916,-0.00397,-0.00046,-0.02808,0.00122,0.0032,-0.03052,-0.01312,0.00778,-0.04303
2.8125,0.00153,-0.04303,-0.03586,-0.02228,-0.03296,-0.05524,-0.01022,-0.00763,0.00122,-0.03357,0.0029,0.00183,-0.03265,-0.01358,0.0087,-0.04425
2.813,0.00107,-0.04425,-0.03265,-0.00839,-0.03342,-0.05783,-0.01236,-0.00717,0.00229,-0.03052,0.00198,0.00092,-0.03433,-0.01389,0.00809,-0.04456
2.8135,0.00198,-0.0444,-0.02914,0.0119,-0.03326,-0.06058,-0.01221,-0.00549,0.00137,-0.01984,-0.00046,-0.00015,-0.03433,-0.01541,0.00687,-0.04425
2.814,0.00305,-0.04318,-0.02869,0.0235,-0.03281,-0.06104,-0.00671,-0.00397,-0.00229,-0.00778,-0.00381,-0.00305,-0.03433,-0.01648,0.0058,-0.04379
2.8145,0.00168,-0.0412,-0.03479,0.01801,-0.03235,-0.05676,-0.00122,-0.00473,-0.00702,0.00031,-0.0061,-0.00717,-0.03403,-0.01602,0.00641,-0.04272
2.815,-0.00107,-0.03922,-0.05356,0.00214,-0.03159,-0.04837,0.00015,-0.00549,-0.01053,0.00656,-0.00824,-0.00977,-0.03448,-0.01495,0.00763,-0.04303
2.8155,-0.00229,-0.03769,-0.08179,-0.01114,-0.03174,-0.03876,-0.00443,-0.00656,-0.01205,0.01038,-0.01022,-0.009,-0.03494,-0.01526,0.00946,-0.04227
2.816,-0.00259,-0.03571,-0.09918,-0.01923,-0.0325,-0.02899,-0.01129,-0.00748,-0.01114,0.01038,-0.01038,-0.00381,-0.03571,-0.01678,0.01053,-0.04074
2.8165,-0.00244,-0.03387,-0.0824,-0.02335,-0.03265,-0.02609,-0.01617,-0.00778,-0.00839,0.00565,-0.009,0.00122,-0.03601,-0.01923,0.01099,-0.03891
2.817,-0.00366,-0.03296,-0.03204,-0.02563,-0.03281,-0.02899,-0.01862,-0.0087,-0.00641,-0.00198,-0.00778,0.00336,-0.0354,-0.01907,0.01251,-0.03784
2.8175,-0.00595,-0.03204,0.02106,-0.02884,-0.0296,-0.03372,-0.01984,-0.009,-0.00763,-0.00763,-0.00641,0.00229,-0.03296,-0.01831,0.01404,-0.03632
2.818,-0.00763,-0.03189,0.04715,-0.03372,-0.02548,-0.03662,-0.02106,-0.00732,-0.01175,-0.01251,-0.00702,-0.00031,-0.03143,-0.0177,0.01511,-0.03525
2.8185,-0.00793,-0.03113,0.04105,-0.03708,-0.02106,-0.03891,-0.02243,-0.00427,-0.01816,-0.01648,-0.009,-0.00153,-0.03372,-0.01999,0.01617,-0.03296
2.819,-0.00763,-0.03052,0.02563,-0.03632,-0.01938,-0.04135,-0.02167,-0.00137,-0.02228,-0.01801,-0.009,0.00031,-0.03647,-0.02182,0.01328,-0.03189
2.8195,-0.00641,-0.0296,0.01617,-0.03296,-0.02045,-0.04578,-0.01724,-0.00137,-0.02228,-0.01816,-0.00671,0.00305,-0.03815,-0.02121,0.00977,-0.03342
2.82,-0.00534,-0.02853,0.0116,-0.03067,-0.0238,-0.05066,-0.01114,-0.00305,-0.02106,-0.01678,-0.00305,0.00412,-0.0383,-0.01892,0.00748,-0.03738
2.8205,-0.00427,-0.02853,0.00641,-0.03372,-0.02762,-0.05753,-0.00885,-0.00458,-0.01999,-0.01541,-0.00107,0.00275,-0.03677,-0.01785,0.00732,-0.04166
2.821,-0.00519,-0.02991,-0.00122,-0.03952,-0.03265,-0.06302,-0.01114,-0.00412,-0.0209,-0.01556,-0.00076,0.00153,-0.03403,-0.01907,0.00763,-0.04425
2.8215,-0.00473,-0.03082,-0.00946,-0.04303,-0.0383,-0.06744,-0.01572,-0.00244,-0.02182,-0.01785,-0.00015,0.0,-0.03235,-0.0209,0.00565,-0.04562
2.822,-0.00412,-0.03098,-0.01785,-0.04272,-0.0441,-0.06989,-0.01755,-0.00229,-0.02197,-0.0209,0.00046,-0.00137,-0.03189,-0.02213,0.00259,-0.047
2.8225,-0.00427,-0.03113,-0.02853,-0.04028,-0.04761,-0.07217,-0.01572,-0.00351,-0.02106,-0.02686,0.00122,-0.00229,-0.03143,-0.02228,0.0029,-0.04654
2.823,-0.00412,-0.03189,-0.04318,-0.03708,-0.04959,-0.06851,-0.01358,-0.00534,-0.02014,-0.03586,0.0032,-0.00122,-0.03021,-0.02182,0.00381,-0.04425
2.8235,-0.00366,-0.03296,-0.05493,-0.03372,-0.04852,-0.05737,-0.01266,-0.00717,-0.02136,-0.04654,0.00381,0.00122,-0.02823,-0.02045,0.00153,-0.04105
2.824,-0.00443,-0.03418,-0.05737,-0.02411,-0.04669,-0.04257,-0.01236,-0.00824,-0.02289,-0.05493,0.00214,0.0032,-0.02731,-0.01907,-0.00259,-0.03815
2.8245,-0.00473,-0.0351,-0.04959,-0.00275,-0.04257,-0.03342,-0.01099,-0.00717,-0.02304,-0.05844,0.00137,0.00305,-0.0267,-0.0174,-0.00427,-0.0351
2.825,-0.00595,-0.03601,-0.0354,0.02594,-0.03845,-0.03311,-0.00946,-0.00412,-0.02106,-0.05646,-0.00015,0.00244,-0.02686,-0.01694,-0.00076,-0.03555
2.8255,-0.00565,-0.03647,-0.02304,0.04257,-0.03403,-0.0354,-0.01038,0.00107,-0.01678,-0.05341,-0.00244,0.00275,-0.02823,-0.01678,0.00259,-0.04028
2.826,-0.00504,-0.03616,-0.0206,0.0351,-0.03189,-0.03677,-0.01312,0.00565,-0.01343,-0.04898,-0.00549,0.00198,-0.03098,-0.01617,0.00366,-0.04532
2.8265,-0.00488,-0.0354,-0.0238,0.01419,-0.02899,-0.03677,-0.01511,0.00809,-0.01205,-0.04395,-0.00961,-0.00015,-0.03326,-0.01648,0.0029,-0.04608
2.827,-0.00534,-0.03494,-0.02884,-0.00259,-0.0264,-0.03754,-0.01617,0.01007,-0.01221,-0.03662,-0.01572,-0.00198,-0.03464,-0.01709,0.00366,-0.0444
2.8275,-0.00458,-0.03494,-0.03204,-0.01801,-0.02533,-0.04044,-0.0177,0.01038,-0.01312,-0.02823,-0.0209,-0.00305,-0.03571,-0.01816,0.00641,-0.04349
2.828,-0.00351,-0.03677,-0.03281,-0.04807,-0.02655,-0.04379,-0.01907,0.00824,-0.01389,-0.01877,-0.02426,-0.00183,-0.03601,-0.01801,0.00885,-0.04272
2.8285,-0.0029,-0.04059,-0.0322,-0.0882,-0.0296,-0.04852,-0.0177,0.00305,-0.01328,-0.01099,-0.02762,-0.00183,-0.0354,-0.01831,0.00992,-0.04364
2.829,-0.00229,-0.04562,-0.03189,-0.10391,-0.03067,-0.05219,-0.01328,-0.00229,-0.01251,-0.00504,-0.03235,-0.00305,-0.03357,-0.01923,0.00946,-0.04471
2.8295,-0.00229,-0.04883,-0.03052,-0.06134,-0.02975,-0.05463,-0.00854,-0.00534,-0.01266,-0.00336,-0.03601,-0.00305,-0.03174,-0.01968,0.00839,-0.04532
2.83,-0.0029,-0.05096,-0.03113,0.02365,-0.02747,-0.05569,-0.0061,-0.00534,-0.01404,-0.00259,-0.0386,-0.00168,-0.03067,-0.01831,0.00824,-0.04562
2.8305,-0.00565,-0.05249,-0.0296,0.08591,-0.02747,-0.05676,-0.00885,-0.00412,-0.01617,-0.0032,-0.04105,-0.00092,-0.0322,-0.01678,0.00793,-0.04532
2.831,-0.00778,-0.05188,-0.02701,0.07629,-0.02914,-0.05661,-0.01678,-0.00488,-0.01846,-0.0061,-0.04364,0.0,-0.03326,-0.01724,0.00809,-0.04379
2.8315,-0.01022,-0.04883,-0.02197,0.02045,-0.03113,-0.05341,-0.02533,-0.00412,-0.01984,-0.01266,-0.04349,0.00046,-0.03189,-0.01785,0.00961,-0.0412
2.832,-0.01022,-0.04486,-0.01984,-0.02029,-0.03265,-0.04791,-0.02686,0.00107,-0.02136,-0.02243,-0.03952,0.00092,-0.03098,-0.01831,0.01129,-0.03967
2.8325,-0.01007,-0.04272,-0.02304,-0.02365,-0.03189,-0.04211,-0.01892,0.00961,-0.02213,-0.0293,-0.03525,0.00092,-0.03159,-0.0174,0.0116,-0.04089
2.833,-0.01007,-0.04196,-0.02869,-0.01328,-0.03143,-0.03632,-0.01114,0.01724,-0.0235,-0.03174,-0.03006,0.00046,-0.0322,-0.01633,0.01007,-0.04471
2.8335,-0.01068,-0.04364,-0.03357,-0.01114,-0.03143,-0.03098,-0.01266,0.01678,-0.02747,-0.0325,-0.02426,0.00137,-0.03189,-0.01678,0.00824,-0.04776
2.834,-0.01205,-0.04608,-0.03693,-0.01709,-0.0322,-0.02991,-0.0206,0.00778,-0.03357,-0.0322,-0.01862,0.0029,-0.03098,-0.01938,0.00885,-0.04639
2.8345,-0.01205,-0.04791,-0.0383,-0.02411,-0.03311,-0.03235,-0.02289,-0.00671,-0.03952,-0.03204,-0.01663,0.0029,-0.03174,-0.02121,0.01144,-0.04181
2.835,-0.00961,-0.04929,-0.03952,-0.03204,-0.0325,-0.03647,-0.01709,-0.01846,-0.04089,-0.03265,-0.01755,0.0029,-0.03326,-0.02075,0.01282,-0.03952
2.8355,-0.00565,-0.05005,-0.03922,-0.04196,-0.0322,-0.04044,-0.01373,-0.0235,-0.03769,-0.03159,-0.01526,0.00381,-0.03464,-0.01999,0.01114,-0.04028
2.836,-0.00305,-0.04959,-0.03571,-0.05081,-0.03281,-0.04227,-0.01755,-0.02609,-0.03342,-0.02777,-0.01328,0.00366,-0.03494,-0.01999,0.009,-0.04211
2.8365,-0.00168,-0.04791,-0.02731,-0.05783,-0.03204,-0.04456,-0.02457,-0.02975,-0.03052,-0.02335,-0.01251,0.00305,-0.03418,-0.02136,0.00702,-0.04227
2.837,0.00137,-0.04547,-0.01633,-0.06424,-0.03143,-0.04715,-0.02594,-0.03067,-0.02975,-0.01846,-0.01495,0.0029,-0.03403,-0.02243,0.00656,-0.04257
2.8375,0.00473,-0.04318,-0.01083,-0.06195,-0.03128,-0.05188,-0.02075,-0.02487,-0.02792,-0.01297,-0.01709,0.00397,-0.03387,-0.02167,0.00809,-0.04288
2.838,0.00748,-0.04181,-0.01266,-0.0267,-0.03189,-0.05814,-0.01587,-0.01663,-0.02533,-0.00595,-0.01572,0.00336,-0.03265,-0.02106,0.00961,-0.04349
2.8385,0.00946,-0.0415,-0.01801,0.05768,-0.03159,-0.0647,-0.01312,-0.00992,-0.02121,-0.00107,-0.01266,0.00305,-0.03021,-0.01816,0.01129,-0.04456
2.839,0.01053,-0.04181,-0.02258,0.15488,-0.03098,-0.07004,-0.0116,-0.00839,-0.01816,-0.00198,-0.01068,0.0032,-0.02823,-0.01587,0.01175,-0.04425
2.8395,0.01114,-0.04196,-0.02686,0.19516,-0.03067,-0.07339,-0.00885,-0.00717,-0.01648,-0.01007,-0.00732,0.00427,-0.02792,-0.01602,0.01312,-0.04196
2.84,0.01099,-0.03937,-0.0293,0.15335,-0.03082,-0.07416,-0.00702,-0.00397,-0.01511,-0.02029,0.00153,0.00443,-0.0293,-0.01801,0.01465,-0.04105
2.8405,0.01022,-0.03586,-0.02609,0.08209,-0.03235,-0.07111,-0.00656,0.0,-0.01495,-0.02792,0.02197,0.0029,-0.03082,-0.01831,0.01556,-0.0412
2.841,0.00732,-0.03326,-0.01709,0.04593,-0.03403,-0.06454,-0.00702,0.00412,-0.01602,-0.02975,0.05173,0.00137,-0.03159,-0.01785,0.01434,-0.04181
2.8415,0.00183,-0.03128,-0.00824,0.05341,-0.0354,-0.05692,-0.009,0.00732,-0.01892,-0.02808,0.07019,0.00015,-0.03204,-0.0177,0.01221,-0.04257
2.842,-0.00473,-0.0293,-0.00839,0.06943,-0.0354,-0.05112,-0.0119,0.00778,-0.02075,-0.02502,0.06012,0.00015,-0.03174,-0.01831,0.01099,-0.04288
2.8425,-0.01038,-0.02747,-0.01892,0.06653,-0.03342,-0.047,-0.01633,0.00595,-0.01968,-0.02167,0.02762,0.00046,-0.03128,-0.01801,0.01236,-0.04288
2.843,-0.01221,-0.0264,-0.03159,0.04272,-0.03021,-0.04211,-0.02014,0.00366,-0.01724,-0.01923,-0.00244,-0.00046,-0.02991,-0.01801,0.01297,-0.0412
2.8435,-0.01236,-0.02686,-0.04089,0.00809,-0.02808,-0.03845,-0.0209,0.00183,-0.01556,-0.01587,-0.01907,-0.00122,-0.02899,-0.0177,0.0119,-0.03876
2.844,-0.01251,-0.0293,-0.04684,-0.02151,-0.02762,-0.03693,-0.01862,0.00183,-0.01724,-0.01038,-0.03067,-0.00137,-0.02899,-0.01801,0.01175,-0.03922
2.8445,-0.01602,-0.03189,-0.05203,-0.03983,-0.0296,-0.03998,-0.0145,0.00305,-0.02014,-0.00244,-0.04959,-0.00214,-0.0293,-0.0177,0.01099,-0.0415
2.845,-0.02335,-0.0325,-0.0531,-0.06363,-0.03189,-0.04272,-0.01221,0.00397,-0.02319,0.0029,-0.07248,-0.00336,-0.03113,-0.01892,0.01099,-0.04333
2.8455,-0.03113,-0.03448,-0.05219,-0.11322,-0.03342,-0.04333,-0.01328,0.00458,-0.02579,0.00458,-0.08713,-0.00565,-0.03235,-0.01923,0.01129,-0.04288
2.846,-0.03433,-0.03632,-0.05417,-0.17776,-0.03326,-0.04379,-0.01556,0.00366,-0.02655,0.00671,-0.08636,-0.00854,-0.0322,-0.01846,0.01221,-0.04257
2.8465,-0.03036,-0.03845,-0.05859,-0.21484,-0.03265,-0.04501,-0.01617,0.00153,-0.02502,0.01511,-0.07339,-0.01175,-0.03143,-0.0174,0.01328,-0.04272
2.847,-0.02304,-0.04013,-0.0621,-0.19012,-0.03265,-0.04913,-0.01434,-0.00137,-0.0238,0.02396,-0.05905,-0.01251,-0.03204,-0.0174,0.01221,-0.04395
2.8475,-0.01511,-0.04166,-0.06378,-0.11139,-0.03265,-0.05264,-0.01007,-0.00366,-0.02289,0.0264,-0.04745,-0.01129,-0.03311,-0.01907,0.00961,-0.0444
2.848,-0.00854,-0.04089,-0.06592,-0.0177,-0.03098,-0.05066,-0.00671,-0.00534,-0.01648,0.01953,-0.04196,-0.00824,-0.03281,-0.0206,0.00748,-0.0441
2.8485,-0.00259,-0.03967,-0.07095,0.04837,-0.02823,-0.04486,-0.00656,-0.00488,-0.00519,0.01022,-0.04074,-0.0061,-0.03174,-0.02182,0.00595,-0.04318
2.849,0.00183,-0.03952,-0.07355,0.05798,-0.02747,-0.0412,-0.00778,-0.00351,0.0058,0.00412,-0.03845,-0.00504,-0.03082,-0.02197,0.00473,-0.04196
2.8495,0.00412,-0.04257,-0.06973,0.02014,-0.02747,-0.04028,-0.00641,-0.00473,0.01007,-0.00046,-0.02762,-0.00366,-0.0296,-0.02121,0.00534,-0.04135
2.85,0.00427,-0.04776,-0.06012,-0.02701,-0.02777,-0.03952,-0.00351,-0.00671,0.00809,-0.00519,-0.01083,-0.00259,-0.02808,-0.01999,0.00702,-0.04166
2.8505,0.00351,-0.05157,-0.05157,-0.05447,-0.02808,-0.03937,-0.00534,-0.0087,0.00229,-0.0119,0.00305,-0.00092,-0.02914,-0.01907,0.00656,-0.04105
2.851,0.00183,-0.05081,-0.04807,-0.06378,-0.02838,-0.04013,-0.0119,-0.00961,-0.00565,-0.01846,0.00946,0.00015,-0.03052,-0.01862,0.00748,-0.03998
2.8515,0.0,-0.04868,-0.04883,-0.0679,-0.0293,-0.04059,-0.01617,-0.00992,-0.01312,-0.02121,0.00931,0.00259,-0.03189,-0.01724,0.00732,-0.03998
2.852,-0.00031,-0.04868,-0.05035,-0.07278,-0.02975,-0.03998,-0.01694,-0.00824,-0.02014,-0.0209,0.00046,0.00412,-0.0325,-0.01678,0.00534,-0.04105
2.8525,0.00183,-0.05219,-0.04883,-0.07324,-0.02975,-0.03967,-0.01541,-0.00671,-0.02594,-0.02075,-0.01694,0.00443,-0.03387,-0.01724,0.00061,-0.04272
2.853,0.00351,-0.05676,-0.04471,-0.06424,-0.02914,-0.04089,-0.01526,-0.00671,-0.03128,-0.02518,-0.0354,0.00336,-0.03296,-0.01724,-0.00443,-0.04257
2.8535,0.00305,-0.05798,-0.03937,-0.04639,-0.02945,-0.04211,-0.01617,-0.00702,-0.03601,-0.0351,-0.04471,0.00275,-0.03189,-0.01709,-0.00626,-0.04013
2.854,0.00122,-0.05508,-0.03677,-0.01816,-0.02945,-0.04181,-0.01694,-0.0061,-0.03693,-0.04532,-0.04105,0.00244,-0.03143,-0.01724,-0.00504,-0.03799
2.8545,-0.00122,-0.04898,-0.03525,0.02014,-0.02975,-0.04181,-0.01648,-0.00549,-0.03525,-0.05142,-0.03006,0.0029,-0.0325,-0.01648,-0.00427,-0.0383
2.855,-0.00381,-0.04425,-0.03387,0.05829,-0.02991,-0.04211,-0.01526,-0.00656,-0.03143,-0.05508,-0.0174,0.00305,-0.03326,-0.01526,-0.00183,-0.03983
2.8555,-0.00549,-0.04303,-0.03143,0.07156,-0.03052,-0.04196,-0.01373,-0.00778,-0.02808,-0.05371,-0.0032,0.00153,-0.0322,-0.01434,0.00351,-0.03799
2.856,-0.00534,-0.04395,-0.03036,0.04929,-0.03143,-0.04196,-0.01251,-0.00778,-0.02167,-0.04868,0.00809,0.00046,-0.03174,-0.01434,0.01801,-0.03342
2.8565,-0.00336,-0.04562,-0.0296,0.00732,-0.03204,-0.04166,-0.01129,-0.00687,-0.01328,-0.04044,0.01343,0.00275,-0.03204,-0.01511,0.03418,-0.03021
2.857,-0.00137,-0.04639,-0.0293,-0.0235,-0.03098,-0.0415,-0.01053,-0.00641,-0.00641,-0.03082,0.01221,0.0058,-0.03113,-0.01724,0.03738,-0.03174
2.8575,0.0,-0.04578,-0.02716,-0.02869,-0.02945,-0.04181,-0.01083,-0.00748,-0.00366,-0.02289,0.01007,0.00717,-0.02792,-0.01755,0.02686,-0.03845
2.858,0.00198,-0.0444,-0.02426,-0.01358,-0.02853,-0.04257,-0.01221,-0.00793,-0.00397,-0.0174,0.01022,0.0058,-0.02625,-0.01801,0.01434,-0.04517
2.8585,0.00183,-0.04166,-0.02518,0.00687,-0.02701,-0.04471,-0.01419,-0.00626,-0.0032,-0.01541,0.00916,0.00427,-0.02731,-0.01846,0.0116,-0.04959
2.859,0.0029,-0.03937,-0.02823,0.02075,-0.02609,-0.04608,-0.01633,-0.00366,-0.00259,-0.0174,0.00153,0.00458,-0.02945,-0.01755,0.01617,-0.05234
2.8595,0.00519,-0.03952,-0.02762,0.01968,-0.02579,-0.04654,-0.01862,-0.00031,-0.00519,-0.02014,-0.01068,0.00488,-0.03021,-0.01633,0.01923,-0.05173
2.86,0.00763,-0.04105,-0.02243,0.00168,-0.02655,-0.04654,-0.01862,0.00214,-0.01083,-0.02151,-0.01892,0.00458,-0.03036,-0.01755,0.01617,-0.04761
2.8605,0.00824,-0.03906,-0.01343,-0.02609,-0.02975,-0.04654,-0.0148,0.00244,-0.01801,-0.02106,-0.01678,0.0032,-0.03082,-0.02029,0.00931,-0.04074
2.861,0.00458,-0.03143,-0.00473,-0.05859,-0.03342,-0.04807,-0.00977,0.00259,-0.02243,-0.01984,-0.00793,0.00183,-0.03159,-0.02213,0.00153,-0.03265
2.8615,0.00031,-0.02121,0.00168,-0.09018,-0.03494,-0.04913,-0.00992,0.0029,-0.02197,-0.01846,-0.00046,0.00122,-0.03235,-0.02029,-0.00534,-0.02808
2.862,-0.00305,-0.01663,0.00244,-0.10925,-0.03586,-0.04852,-0.01266,0.00397,-0.01892,-0.01984,0.00153,0.00046,-0.03357,-0.01938,-0.00778,-0.02625
2.8625,-0.00519,-0.01968,-0.00473,-0.08972,-0.03448,-0.04562,-0.01633,0.00443,-0.01526,-0.02472,0.00046,-0.00015,-0.03433,-0.02106,-0.00412,-0.02884
2.863,-0.00473,-0.02731,-0.01678,-0.01495,-0.03448,-0.04288,-0.01663,0.0032,-0.0119,-0.03021,0.00015,0.0,-0.03479,-0.02396,0.00305,-0.03418
2.8635,-0.00366,-0.03418,-0.03113,0.09094,-0.03311,-0.04333,-0.01556,-0.00015,-0.00916,-0.03357,0.00214,0.00046,-0.03647,-0.02655,0.00946,-0.04074
2.864,-0.00458,-0.03906,-0.04333,0.16312,-0.03143,-0.04578,-0.01511,-0.00275,-0.00671,-0.03189,0.00504,0.00168,-0.03769,-0.02731,0.01251,-0.04807
2.8645,-0.00717,-0.04211,-0.04852,0.15656,-0.02991,-0.04715,-0.01541,-0.00488,-0.00366,-0.02731,0.00519,0.00259,-0.03632,-0.0264,0.01175,-0.05508
2.865,-0.00992,-0.04456,-0.047,0.09598,-0.0296,-0.04517,-0.01526,-0.00488,-0.00275,-0.02182,0.00351,0.00458,-0.03418,-0.02441,0.00931,-0.05859
2.8655,-0.01114,-0.04578,-0.04562,0.0412,-0.03021,-0.04395,-0.01358,-0.00427,-0.00305,-0.01999,0.00122,0.00671,-0.03387,-0.02167,0.00336,-0.05692
2.866,-0.0119,-0.04532,-0.0441,0.02243,-0.03113,-0.04623,-0.01282,-0.00443,-0.0032,-0.02075,-0.00107,0.00809,-0.0351,-0.01984,-0.00214,-0.05219
2.8665,-0.01129,-0.04242,-0.04227,0.02167,-0.03006,-0.05035,-0.01312,-0.00595,-0.0029,-0.02167,-0.00275,0.00748,-0.03586,-0.01923,-0.00381,-0.04837
2.867,-0.00916,-0.04227,-0.03708,0.01907,-0.02792,-0.05295,-0.01373,-0.00626,-0.00198,-0.0209,-0.00366,0.00504,-0.03571,-0.01923,-0.00046,-0.04715
2.8675,-0.00565,-0.04471,-0.03067,0.01007,-0.02686,-0.05157,-0.01328,-0.00549,-0.00061,-0.0206,-0.00351,-0.00198,-0.03586,-0.01877,0.00458,-0.0473
2.868,-0.00381,-0.04822,-0.02701,0.00076,-0.02731,-0.04745,-0.0119,-0.00458,-0.00107,-0.01724,-0.00259,-0.02075,-0.0351,-0.01953,0.00824,-0.04822
2.8685,-0.00641,-0.04959,-0.02808,-0.00687,-0.02853,-0.04471,-0.01144,-0.00259,-0.00229,-0.01465,-0.00107,-0.0499,-0.0351,-0.01892,0.01038,-0.04807
2.869,-0.00961,-0.04898,-0.03036,-0.0145,-0.03006,-0.04272,-0.01038,-0.00092,-0.00519,-0.01205,-0.00031,-0.07675,-0.0351,-0.01816,0.01328,-0.04715
2.8695,-0.01144,-0.04883,-0.03235,-0.02533,-0.03067,-0.04364,-0.009,0.00107,-0.00549,-0.01083,-0.00076,-0.08636,-0.03555,-0.01801,0.01404,-0.04501
2.87,-0.01038,-0.04852,-0.03098,-0.03754,-0.0325,-0.04471,-0.00824,0.00305,-0.00488,-0.01144,-0.00244,-0.08209,-0.0354,-0.01785,0.01144,-0.04303
2.8705,-0.00839,-0.04654,-0.02731,-0.04761,-0.03403,-0.047,-0.01068,0.00366,-0.00595,-0.01495,-0.00397,-0.07507,-0.03464,-0.01694,0.0061,-0.04303
2.871,-0.00732,-0.04395,-0.02335,-0.04944,-0.03326,-0.04959,-0.01511,0.00351,-0.01068,-0.01984,-0.00412,-0.05875,-0.03403,-0.01694,0.00198,-0.04333
2.8715,-0.00641,-0.04272,-0.02213,-0.04135,-0.03265,-0.05035,-0.0174,0.00381,-0.01755,-0.02533,-0.00351,-0.01419,-0.03357,-0.0174,0.00153,-0.04318
2.872,-0.00504,-0.04257,-0.02502,-0.02441,-0.03098,-0.04944,-0.01785,0.00183,-0.02274,-0.02838,-0.00534,0.05524,-0.03433,-0.01694,0.00366,-0.04211
2.8725,-0.00534,-0.04471,-0.03082,-0.00305,-0.03098,-0.04868,-0.01968,-0.00427,-0.02502,-0.02991,-0.00931,0.11169,-0.03387,-0.01617,0.00458,-0.04105
2.873,-0.00519,-0.04868,-0.03448,0.01251,-0.03067,-0.04837,-0.02258,-0.0119,-0.02792,-0.03067,-0.01266,0.1239,-0.03387,-0.01495,0.00458,-0.03937
2.8735,-0.00595,-0.05371,-0.03616,0.00687,-0.03098,-0.04929,-0.02151,-0.01404,-0.02869,-0.03098,-0.01312,0.10559,-0.03525,-0.01511,0.00473,-0.03876
2.874,-0.00641,-0.05707,-0.03571,-0.01328,-0.03204,-0.04898,-0.0145,-0.00961,-0.02625,-0.03021,-0.01251,0.08942,-0.03601,-0.01678,0.00732,-0.0386
2.8745,-0.00626,-0.05554,-0.03525,-0.02487,-0.03372,-0.04837,-0.00854,-0.00443,-0.02182,-0.03036,-0.01266,0.07996,-0.03555,-0.01877,0.01083,-0.03983
2.875,-0.00717,-0.05081,-0.03662,-0.0177,-0.03326,-0.04669,-0.0087,-0.00336,-0.01816,-0.02792,-0.01434,0.05997,-0.03357,-0.01923,0.01282,-0.03998
2.8755,-0.00778,-0.04578,-0.03906,-0.00183,-0.0325,-0.04471,-0.01328,-0.00488,-0.01785,-0.02548,-0.01816,0.0267,-0.03296,-0.01862,0.01282,-0.03937
2.876,-0.00793,-0.04196,-0.0412,0.0061,-0.03113,-0.04379,-0.01816,-0.00809,-0.01648,-0.02243,-0.02243,-0.00534,-0.03387,-0.01862,0.00992,-0.03937
2.8765,-0.00748,-0.03738,-0.04089,0.00198,-0.03265,-0.04318,-0.0206,-0.00854,-0.01312,-0.02136,-0.02457,-0.03052,-0.03418,-0.01968,0.00732,-0.03998
2.877,-0.00595,-0.03418,-0.03754,-0.00824,-0.03372,-0.04318,-0.01984,-0.00626,-0.00732,-0.02228,-0.02457,-0.05646,-0.03372,-0.01923,0.0058,-0.04044
2.8775,-0.00412,-0.03296,-0.03464,-0.02701,-0.03235,-0.04471,-0.01678,-0.00183,-0.00458,-0.02319,-0.02304,-0.07843,-0.0325,-0.01801,0.00626,-0.03922
2.878,-0.00366,-0.03296,-0.03357,-0.05737,-0.03189,-0.04745,-0.01419,0.00336,-0.0058,-0.02243,-0.01984,-0.07843,-0.0325,-0.01633,0.00671,-0.03967
2.8785,-0.00473,-0.03265,-0.03586,-0.09369,-0.03265,-0.05157,-0.01282,0.00626,-0.00839,-0.01785,-0.01236,-0.05112,-0.0322,-0.01648,0.00748,-0.04028
2.879,-0.00565,-0.0296,-0.03647,-0.12177,-0.03159,-0.05386,-0.0119,0.00671,-0.01022,-0.01129,0.00351,-0.01282,-0.03128,-0.01755,0.00748,-0.03998
2.8795,-0.00504,-0.02579,-0.03647,-0.13474,-0.03006,-0.05325,-0.0119,0.00351,-0.00931,-0.00351,0.02197,0.01404,-0.03098,-0.01785,0.00671,-0.04028
2.88,-0.00168,-0.02579,-0.03464,-0.13229,-0.03006,-0.05295,-0.01266,-0.00015,-0.00824,0.00198,0.03067,0.02655,-0.03296,-0.01663,0.00702,-0.04074
2.8805,0.0,-0.02884,-0.03464,-0.11536,-0.03326,-0.05356,-0.01328,-0.00259,-0.00778,0.00427,0.02029,0.03204,-0.03479,-0.01709,0.00885,-0.04089
2.881,-0.00076,-0.03326,-0.04181,-0.07874,-0.03784,-0.05569,-0.01465,-0.00183,-0.00748,0.00366,-0.00031,0.03418,-0.03662,-0.01862,0.01053,-0.04135
2.8815,-0.00198,-0.03601,-0.05814,-0.01404,-0.03922,-0.05737,-0.01495,-0.00046,-0.00839,0.00061,-0.01923,0.03174,-0.03738,-0.01968,0.01022,-0.04379
2.882,-0.00107,-0.03708,-0.06927,0.07294,-0.03754,-0.0563,-0.0145,0.00076,-0.01144,-0.00443,-0.03021,0.02899,-0.03708,-0.01892,0.00809,-0.04532
2.8825,0.00183,-0.03586,-0.06088,0.14481,-0.03479,-0.05341,-0.01358,0.00122,-0.01389,-0.0116,-0.03494,0.02838,-0.03403,-0.01877,0.00626,-0.0444
2.883,0.00214,-0.03494,-0.0325,0.16556,-0.03433,-0.05081,-0.01266,0.00092,-0.01511,-0.01999,-0.0386,0.0264,-0.03128,-0.01907,0.00626,-0.04181
2.8835,0.00031,-0.03571,-0.00458,0.14908,-0.03479,-0.05081,-0.01175,-0.00046,-0.01465,-0.03052,-0.03922,0.01923,-0.02991,-0.01968,0.00824,-0.04044
2.884,-0.00275,-0.03632,0.00916,0.12817,-0.03433,-0.05127,-0.01266,-0.00198,-0.01465,-0.04044,-0.03647,0.01373,-0.02914,-0.01846,0.00946,-0.04044
2.8845,-0.00641,-0.03708,0.01007,0.10712,-0.0322,-0.05249,-0.01358,-0.00153,-0.01831,-0.04547,-0.03311,0.01663,-0.02869,-0.01831,0.01007,-0.0412
2.885,-0.00931,-0.03708,0.00458,0.07187,-0.03082,-0.05173,-0.0145,0.0,-0.02533,-0.04166,-0.03189,0.02319,-0.02914,-0.01968,0.00946,-0.04074
2.8855,-0.01083,-0.03448,-0.00397,0.02701,-0.02884,-0.04898,-0.01297,0.00092,-0.03311,-0.03494,-0.03204,0.02319,-0.02869,-0.02167,0.00946,-0.03937
2.886,-0.01129,-0.03067,-0.01572,-0.00946,-0.0264,-0.04395,-0.01266,0.00122,-0.03632,-0.02945,-0.03128,0.01358,-0.02838,-0.02243,0.01053,-0.03845
2.8865,-0.01282,-0.02716,-0.02869,-0.03326,-0.02487,-0.04028,-0.01434,0.00214,-0.03418,-0.02563,-0.02762,0.00153,-0.02762,-0.02197,0.01114,-0.03769
2.887,-0.01587,-0.02777,-0.03662,-0.05234,-0.02701,-0.04196,-0.01831,0.00275,-0.02823,-0.02136,-0.02457,-0.00443,-0.02838,-0.02136,0.01038,-0.0383
2.8875,-0.01801,-0.03067,-0.04013,-0.06653,-0.03159,-0.04669,-0.02228,0.00198,-0.02243,-0.01511,-0.02594,-0.00534,-0.03082,-0.02136,0.00916,-0.03922
2.888,-0.01785,-0.03174,-0.04135,-0.06607,-0.03571,-0.05142,-0.02289,-0.00122,-0.01938,-0.0058,-0.03128,-0.00443,-0.03296,-0.02197,0.00854,-0.04028
2.8885,-0.01526,-0.02945,-0.04288,-0.04883,-0.03647,-0.05157,-0.0209,-0.00702,-0.01862,0.00412,-0.03448,-0.00458,-0.03296,-0.02029,0.00946,-0.04044
2.889,-0.01434,-0.02655,-0.04578,-0.03418,-0.03555,-0.0502,-0.01831,-0.01175,-0.0206,0.01205,-0.03342,-0.00488,-0.03128,-0.01892,0.00946,-0.04028
2.8895,-0.01511,-0.02487,-0.04791,-0.03571,-0.03387,-0.04929,-0.01678,-0.0148,-0.02167,0.0148,-0.02899,-0.00473,-0.03067,-0.01785,0.0087,-0.0386
2.89,-0.01633,-0.02426,-0.05173,-0.04974,-0.03143,-0.04929,-0.01541,-0.01419,-0.02106,0.01266,-0.02457,-0.00397,-0.03204,-0.01892,0.00885,-0.03693
2.8905,-0.01648,-0.02563,-0.05661,-0.06195,-0.03006,-0.04883,-0.01221,-0.0116,-0.01877,0.00488,-0.02289,-0.00381,-0.03418,-0.02014,0.01114,-0.03555
