time,RectFemL,VastusMedL,VastusLatL,TibAntL,HamMedL,HamLatL,GastroMedL,GastroLatL,RectFemR,VastusMedR,VastusLatR,TibAntR,HamMedR,HamLatR,GastroMedR,GastroLatR
7.5,-0.00137,-0.05753,0.16724,-0.00381,-0.03586,-0.04211,-0.05157,-0.00305,-0.84259,-0.05783,-0.04501,0.0145,-0.01297,-0.00763,-0.0148,-0.02975
7.5005,0.01678,-0.06226,0.11658,-0.00229,-0.03403,-0.04349,-0.02441,-0.00351,-0.9465,-0.05875,-0.04166,0.02579,-0.01419,-0.01328,-0.02533,-0.03159
7.501,0.03189,-0.06882,0.04654,-0.00427,-0.0325,-0.04608,0.02701,-0.00534,-1.34415,-0.05371,-0.04135,0.0354,-0.01343,-0.01648,-0.03418,-0.03525
7.5015,0.0412,-0.07614,-0.0209,-0.00595,-0.03204,-0.04898,0.06302,-0.00793,-2.29095,-0.04303,-0.04303,0.03693,-0.01129,-0.01678,-0.04059,-0.03845
7.502,0.04745,-0.08377,-0.06042,-0.0058,-0.03342,-0.0499,0.05829,-0.00839,-3.70361,-0.03143,-0.04654,0.03082,-0.01007,-0.01617,-0.0444,-0.03937
7.5025,0.0531,-0.08957,-0.06744,-0.00351,-0.03494,-0.04959,0.03448,-0.00443,-4.8642,-0.01907,-0.04364,0.01846,-0.01083,-0.01938,-0.047,-0.03799
7.503,0.06027,-0.08728,-0.05768,-0.00061,-0.03632,-0.04898,0.02533,-0.00061,-4.9736,-0.00656,-0.03494,0.00534,-0.01465,-0.02838,-0.04135,-0.03525
7.5035,0.06927,-0.07538,-0.04715,0.00015,-0.03571,-0.04791,0.02991,0.00244,-4.96338,0.00641,-0.02472,-0.00656,-0.02121,-0.03799,-0.02228,-0.03448
7.504,0.07614,-0.05997,-0.03632,-0.00214,-0.03403,-0.04639,0.02747,0.00351,-4.80804,0.01282,-0.0209,-0.01434,-0.02777,-0.04257,0.00122,-0.03571
7.5045,0.07339,-0.05142,-0.02655,-0.00504,-0.03342,-0.04532,0.01724,0.00412,-4.85092,0.01312,-0.02182,-0.01953,-0.03204,-0.04074,0.00885,-0.03769
7.505,0.05844,-0.05234,-0.02167,-0.00656,-0.03387,-0.047,0.01419,0.00534,-4.89014,0.00717,-0.01709,-0.02319,-0.03372,-0.03632,-0.01053,-0.03952
7.5055,0.03586,-0.05478,-0.01938,-0.00809,-0.03586,-0.05051,0.01251,0.00687,-4.81873,-0.00122,-0.00504,-0.02594,-0.03555,-0.03113,-0.04166,-0.04181
7.506,0.0148,-0.05356,-0.01465,-0.01007,-0.03754,-0.05371,-0.00549,0.00717,-4.74228,-0.00931,0.00076,-0.02579,-0.03983,-0.02625,-0.05341,-0.0412
7.5065,-0.00061,-0.05035,-0.00702,-0.01312,-0.03708,-0.05432,-0.03082,0.00595,-4.72488,-0.01572,-0.00549,-0.02182,-0.04654,-0.02213,-0.04471,-0.04059
7.507,-0.01083,-0.04776,-0.00458,-0.01633,-0.03448,-0.05173,-0.03174,0.0029,-4.7113,-0.01923,-0.01984,-0.01572,-0.05447,-0.01907,-0.04166,-0.04013
7.5075,-0.01663,-0.04608,-0.00732,-0.01801,-0.03189,-0.04913,-0.0061,0.00092,-4.59381,-0.02167,-0.02945,-0.01404,-0.06104,-0.01663,-0.05722,-0.03937
7.508,-0.01953,-0.04669,-0.01617,-0.01801,-0.03021,-0.04868,0.00931,-0.00153,-4.17923,-0.02548,-0.03265,-0.02136,-0.06271,-0.01633,-0.06927,-0.03601
7.5085,-0.02045,-0.04852,-0.0293,-0.02075,-0.0293,-0.05234,-0.0032,-0.00534,-3.37082,-0.03235,-0.03677,-0.03632,-0.0589,-0.01648,-0.05142,-0.02991
7.509,-0.02106,-0.05249,-0.04791,-0.02579,-0.03021,-0.05539,-0.02411,-0.01328,-2.46658,-0.03891,-0.06149,-0.04807,-0.05142,-0.01556,0.01129,-0.02563
7.5095,-0.01938,-0.05554,-0.06531,-0.02975,-0.03159,-0.05508,-0.02838,-0.02136,-1.85608,-0.04501,-0.10651,-0.04593,-0.04303,-0.01419,0.10208,-0.02716
7.51,-0.0177,-0.05615,-0.07523,-0.0293,-0.03159,-0.04868,-0.01907,-0.02274,-1.51764,-0.05432,-0.1445,-0.0293,-0.03693,-0.01266,0.1651,-0.03235
7.5105,-0.01556,-0.05295,-0.07507,-0.02609,-0.03006,-0.04044,-0.01205,-0.01633,-1.14365,-0.06607,-0.13275,-0.009,-0.03403,-0.01297,0.14664,-0.03937
7.511,-0.01358,-0.04898,-0.06912,-0.02411,-0.0293,-0.03586,-0.01236,-0.01251,-0.61813,-0.07401,-0.07462,0.00656,-0.03311,-0.01419,0.06424,-0.04349
7.5115,-0.01175,-0.04684,-0.06485,-0.02182,-0.02975,-0.03769,-0.01755,-0.02075,-0.08499,-0.0737,-0.01205,0.01633,-0.02869,-0.01434,-0.00885,-0.04623
7.512,-0.00931,-0.04745,-0.06927,-0.01755,-0.0293,-0.04272,-0.02365,-0.03708,0.34409,-0.06714,0.01923,0.02396,-0.0209,-0.01343,-0.02426,-0.04974
7.5125,-0.00534,-0.05005,-0.08301,-0.01205,-0.02655,-0.04547,-0.02304,-0.04578,0.70724,-0.06226,0.02502,0.03113,-0.01144,-0.01343,-0.00214,-0.05554
7.513,0.00229,-0.0528,-0.09384,-0.00839,-0.02365,-0.04486,-0.01831,-0.04211,1.05881,-0.05814,0.0177,0.03555,-0.00427,-0.01389,0.01938,-0.06119
7.5135,0.00748,-0.05493,-0.08484,-0.00839,-0.0235,-0.04288,-0.01678,-0.03021,1.38824,-0.05219,0.00381,0.03372,-0.00366,-0.01495,0.03067,-0.06241
7.514,0.00549,-0.05432,-0.05768,-0.01129,-0.02548,-0.04166,-0.02197,-0.01724,1.67221,-0.04257,-0.01602,0.02228,-0.00702,-0.01434,0.03815,-0.06027
7.5145,-0.00183,-0.05524,-0.02991,-0.0145,-0.02655,-0.04242,-0.02487,-0.00809,1.91299,-0.03204,-0.03784,0.00641,-0.01114,-0.01373,0.03723,-0.05707
7.515,-0.00793,-0.05783,-0.0174,-0.01633,-0.02838,-0.04486,-0.02045,-0.00366,2.1199,-0.02213,-0.05295,-0.01022,-0.01266,-0.0148,0.02487,-0.0563
7.5155,-0.009,-0.06271,-0.01617,-0.01602,-0.02945,-0.04669,-0.01373,-0.00259,2.30392,-0.0119,-0.05402,-0.02533,-0.01602,-0.01663,0.0116,-0.056
7.516,-0.00778,-0.06821,-0.01556,-0.01328,-0.03098,-0.04745,-0.01144,-0.00336,2.47131,-0.00671,-0.03815,-0.03708,-0.02106,-0.01785,0.00793,-0.05463
7.5165,-0.00763,-0.07278,-0.01251,-0.00977,-0.03311,-0.04715,-0.01282,-0.00641,2.62268,-0.00671,-0.01221,-0.04547,-0.02838,-0.01923,0.01022,-0.05249
7.517,-0.00839,-0.07324,-0.00977,-0.00687,-0.03464,-0.04776,-0.01434,-0.02197,2.75818,-0.00824,0.0145,-0.04654,-0.03555,-0.02136,0.00977,-0.04944
7.5175,-0.00839,-0.06668,-0.01114,-0.0058,-0.0351,-0.047,-0.01648,-0.06073,2.88254,-0.00366,0.03281,-0.0412,-0.04135,-0.0235,0.00748,-0.04486
7.518,-0.00748,-0.05783,-0.0206,-0.00488,-0.03311,-0.04654,-0.02167,-0.12115,2.98904,0.0061,0.04074,-0.02655,-0.04562,-0.02457,0.00549,-0.03967
7.5185,-0.00748,-0.04959,-0.04135,-0.00336,-0.03113,-0.04654,-0.03036,-0.18173,3.0748,0.01221,0.04196,0.00931,-0.04837,-0.02319,0.00671,-0.03357
7.519,-0.00885,-0.03952,-0.07523,-0.00031,-0.03006,-0.04608,-0.03906,-0.19501,3.14697,0.01297,0.03708,0.07523,-0.04929,-0.02182,0.00839,-0.02716
7.5195,-0.00992,-0.02258,-0.10696,0.00015,-0.03143,-0.04349,-0.03998,-0.10239,3.20068,0.00748,0.03113,0.14816,-0.04654,-0.02075,0.00946,-0.02319
7.52,-0.01053,-0.01068,-0.11749,-0.00183,-0.0325,-0.04211,-0.03098,0.09415,3.23212,-0.00061,0.02792,0.17746,-0.04288,-0.01984,0.01007,-0.02396
7.5205,-0.0119,-0.02213,-0.10376,-0.00473,-0.03296,-0.04318,-0.01953,0.26962,3.24936,-0.01724,0.02396,0.14481,-0.03906,-0.01907,0.00824,-0.02914
7.521,-0.01221,-0.05951,-0.07889,-0.00473,-0.03311,-0.04654,-0.01221,0.28488,3.25699,-0.03479,0.00992,0.08347,-0.03723,-0.01801,0.00656,-0.03143
7.5215,-0.01099,-0.09781,-0.0621,-0.0029,-0.03281,-0.04959,-0.01068,0.15686,3.24448,-0.04379,-0.01663,0.03418,-0.03586,-0.01694,0.00534,-0.02853
7.522,-0.0087,-0.11215,-0.05676,-0.00259,-0.03204,-0.0499,-0.01205,0.03723,3.20786,-0.04028,-0.03632,-0.00198,-0.03418,-0.01541,0.00366,-0.0267
7.5225,-0.00961,-0.1033,-0.05371,-0.00214,-0.03113,-0.04929,-0.01373,0.01236,3.15659,-0.02853,-0.03357,-0.03799,-0.03326,-0.01511,0.00351,-0.03143
7.523,-0.01465,-0.08667,-0.04379,-0.00168,-0.02884,-0.04929,-0.01434,0.03128,3.09891,-0.01968,-0.0145,-0.07538,-0.0325,-0.01587,0.00458,-0.04074
7.5235,-0.02228,-0.07278,-0.02365,-0.00015,-0.02716,-0.0499,-0.01297,0.02472,3.03085,-0.01694,0.00488,-0.09979,-0.03204,-0.01785,0.00595,-0.04684
7.524,-0.02609,-0.06256,0.00504,0.00031,-0.02762,-0.04929,-0.00977,-0.00275,2.9512,-0.01587,0.01022,-0.0914,-0.03189,-0.01953,0.00626,-0.04807
7.5245,-0.0264,-0.05615,0.03525,-0.00229,-0.03036,-0.04807,-0.00854,-0.01999,2.86972,-0.01297,0.00122,-0.04623,-0.03403,-0.0206,0.00626,-0.04868
7.525,-0.02426,-0.05981,0.05478,-0.0058,-0.03281,-0.04486,-0.01297,-0.03296,2.79572,-0.00931,-0.0148,0.0119,-0.03738,-0.02274,0.00381,-0.05081
7.5255,-0.02182,-0.07431,0.0563,-0.00778,-0.03296,-0.04044,-0.02197,-0.06042,2.72385,-0.0061,-0.02975,0.04486,-0.04028,-0.0267,0.00198,-0.05447
7.526,-0.01877,-0.08499,0.04242,-0.00809,-0.03204,-0.03738,-0.02991,-0.08804,2.64496,-0.00412,-0.03998,0.04532,-0.0412,-0.03067,-0.00092,-0.05585
7.5265,-0.01282,-0.07248,0.02014,-0.00687,-0.02991,-0.03876,-0.03296,-0.07263,2.5589,-0.00504,-0.04761,0.03098,-0.0412,-0.0325,-0.00854,-0.0531
7.527,-0.00549,-0.03799,-0.00046,-0.00656,-0.02884,-0.04211,-0.03128,0.00702,2.4707,-0.00565,-0.0499,0.01373,-0.04089,-0.03082,-0.01923,-0.04822
7.5275,0.00031,-0.00397,-0.01404,-0.00626,-0.02609,-0.04486,-0.02792,0.10498,2.37411,-0.00824,-0.04517,-0.00381,-0.03906,-0.02716,-0.02472,-0.04623
7.528,0.00122,0.01175,-0.02258,-0.00717,-0.02426,-0.04395,-0.02579,0.14236,2.24991,-0.00824,-0.0354,-0.00809,-0.03693,-0.02396,-0.02289,-0.04272
7.5285,0.00198,0.01358,-0.03448,-0.00839,-0.02151,-0.04242,-0.02289,0.09918,2.10342,-0.00885,-0.02563,0.00793,-0.03571,-0.02151,-0.02136,-0.04028
7.529,0.00534,0.01068,-0.0563,-0.00946,-0.01968,-0.04257,-0.01953,0.03891,1.97784,-0.01373,-0.03143,0.01617,-0.0354,-0.0174,-0.0325,-0.03815
7.5295,0.01328,0.00839,-0.08118,-0.00824,-0.01831,-0.04532,-0.01678,0.01999,1.90048,-0.0206,-0.05356,-0.00687,-0.03418,-0.0119,-0.05386,-0.03647
7.53,0.02319,0.00702,-0.10162,-0.00626,-0.01938,-0.04776,-0.01862,0.03433,1.83655,-0.02701,-0.08789,-0.03723,-0.03052,-0.00687,-0.06638,-0.03586
7.5305,0.02945,0.00488,-0.11627,-0.00351,-0.02151,-0.0502,-0.02502,0.04593,1.74713,-0.03281,-0.10239,-0.04013,-0.0267,-0.00198,-0.05173,-0.03159
7.531,0.03067,0.00412,-0.12543,-0.00259,-0.0238,-0.05386,-0.03159,0.04227,1.64215,-0.04059,-0.07675,-0.02228,-0.02243,0.00183,-0.00137,-0.02457
7.5315,0.02701,0.00275,-0.12665,-0.00397,-0.02548,-0.05707,-0.0325,0.03571,1.54312,-0.04974,-0.00626,-0.0148,-0.01785,0.0032,0.06241,-0.01694
7.532,0.01709,0.00275,-0.11551,-0.0061,-0.02609,-0.05829,-0.02686,0.04044,1.45462,-0.06393,0.07599,-0.02289,-0.01419,-0.00076,0.09064,-0.01236
7.5325,0.00381,0.00046,-0.08942,-0.00946,-0.02625,-0.05661,-0.01892,0.056,1.37238,-0.07965,0.13748,-0.02914,-0.01053,-0.00931,0.07095,-0.01617
7.533,-0.00732,-0.0058,-0.05524,-0.01068,-0.0267,-0.05493,-0.01587,0.07034,1.28983,-0.0882,0.15488,-0.02609,-0.00916,-0.0177,0.04013,-0.02487
7.5335,-0.01389,-0.0145,-0.0209,-0.00992,-0.02701,-0.05325,-0.02136,0.06622,1.21185,-0.07919,0.13672,-0.02167,-0.00778,-0.02029,0.03235,-0.03265
7.534,-0.01831,-0.01999,0.01022,-0.00778,-0.02548,-0.0502,-0.03387,0.03403,1.15295,-0.04852,0.0943,-0.01785,-0.00748,-0.01801,0.02914,-0.03723
7.5345,-0.02182,-0.01968,0.03082,-0.00656,-0.02396,-0.04761,-0.03998,-0.01434,1.10657,-0.0061,0.0502,-0.00931,-0.00778,-0.01556,-0.00153,-0.03922
7.535,-0.02274,-0.01633,0.03815,-0.0061,-0.02457,-0.04517,-0.02518,-0.04944,1.04645,0.03387,0.01511,0.00168,-0.00977,-0.01755,-0.05478,-0.04257
7.5355,-0.02136,-0.01617,0.03372,-0.00595,-0.02655,-0.04608,-0.00168,-0.05661,0.96024,0.05234,-0.02045,0.00778,-0.01312,-0.02121,-0.09476,-0.04181
7.536,-0.01541,-0.01907,0.02274,-0.00641,-0.03006,-0.04623,0.00153,-0.05096,0.86044,0.04868,-0.0618,0.00504,-0.01816,-0.02228,-0.112,-0.03357
7.5365,-0.00824,-0.02274,0.00778,-0.00854,-0.03174,-0.04517,-0.0148,-0.05371,0.75821,0.0386,-0.10132,-0.00092,-0.02335,-0.01953,-0.13565,-0.02655
7.537,-0.00076,-0.02472,-0.0087,-0.01266,-0.03021,-0.04349,-0.02045,-0.06622,0.65704,0.03159,-0.12634,-0.00427,-0.02991,-0.01617,-0.18585,-0.03235
7.5375,0.00122,-0.02609,-0.02457,-0.0174,-0.02716,-0.04242,-0.00061,-0.07202,0.56412,0.02716,-0.14862,-0.00504,-0.03799,-0.01434,-0.22614,-0.04776
7.538,0.00092,-0.02716,-0.03769,-0.02136,-0.02655,-0.04395,0.02365,-0.06622,0.48874,0.02136,-0.18234,-0.00351,-0.04745,-0.01236,-0.19196,-0.0563
7.5385,-0.00214,-0.0293,-0.04166,-0.02487,-0.0296,-0.04532,0.03113,-0.05798,0.43015,0.01984,-0.21301,-0.00046,-0.05325,-0.01007,-0.06775,-0.05157
7.539,-0.00519,-0.03204,-0.03769,-0.02823,-0.03479,-0.04501,0.02228,-0.05737,0.37476,0.01297,-0.19379,0.00351,-0.05341,-0.00946,0.07919,-0.04761
7.5395,-0.00839,-0.03555,-0.03098,-0.03006,-0.03784,-0.04349,0.01373,-0.06073,0.31509,0.00183,-0.11047,0.00916,-0.05096,-0.01297,0.15701,-0.05692
7.54,-0.01083,-0.03906,-0.02716,-0.02762,-0.03738,-0.04318,0.01175,-0.05844,0.2478,-0.01556,-0.00687,0.0235,-0.0502,-0.01862,0.15121,-0.07217
7.5405,-0.01205,-0.04303,-0.02716,-0.02457,-0.03662,-0.04456,0.01007,-0.04715,0.17288,-0.03387,0.05798,0.04288,-0.05402,-0.02274,0.14572,-0.07858
7.541,-0.00992,-0.04868,-0.0293,-0.02014,-0.0354,-0.04562,0.00366,-0.03159,0.09369,-0.04654,0.08133,0.05051,-0.05783,-0.02121,0.20248,-0.07309
7.5415,-0.00824,-0.0528,-0.03143,-0.01617,-0.03433,-0.04654,-0.00336,-0.01526,0.01236,-0.05478,0.08453,0.03433,-0.05737,-0.01602,0.25955,-0.06638
7.542,-0.00839,-0.05325,-0.03235,-0.01205,-0.03433,-0.04501,-0.00687,-0.00504,-0.07019,-0.06577,0.08347,0.00336,-0.05402,-0.01251,0.22202,-0.06195
7.5425,-0.01129,-0.05432,-0.0322,-0.00839,-0.03387,-0.04501,-0.00641,-0.00656,-0.1445,-0.08224,0.07278,-0.02014,-0.04944,-0.01221,0.10864,-0.05646
7.543,-0.01434,-0.06012,-0.03265,-0.00702,-0.03403,-0.04608,-0.00748,-0.0235,-0.20493,-0.08911,0.04684,-0.03021,-0.04669,-0.01419,0.0293,-0.04929
7.5435,-0.01526,-0.06775,-0.03632,-0.00824,-0.03571,-0.04715,-0.01007,-0.0499,-0.26398,-0.07278,0.01373,-0.03464,-0.04593,-0.01556,0.02655,-0.04288
7.544,-0.01541,-0.06638,-0.04242,-0.0119,-0.03799,-0.0473,-0.01328,-0.07553,-0.32318,-0.03967,-0.01892,-0.03738,-0.04639,-0.02014,0.05234,-0.03952
7.5445,-0.01816,-0.05127,-0.04517,-0.01633,-0.03983,-0.04745,-0.01495,-0.08575,-0.37033,-0.00488,-0.04852,-0.03571,-0.04807,-0.03021,0.05676,-0.0386
7.545,-0.02228,-0.02808,-0.03937,-0.0177,-0.03998,-0.04898,-0.01419,-0.06805,-0.40955,0.01617,-0.06744,-0.02716,-0.04745,-0.04471,0.04654,-0.03738
7.5455,-0.02396,-0.00336,-0.02792,-0.01663,-0.04074,-0.04929,-0.0119,-0.02228,-0.45105,0.02975,-0.06317,-0.01312,-0.04684,-0.05417,0.04425,-0.03708
7.546,-0.0206,0.01587,-0.02045,-0.01282,-0.04318,-0.0499,-0.01053,0.01511,-0.495,0.04059,-0.03021,0.0029,-0.04532,-0.05493,0.0499,-0.04013
7.5465,-0.01556,0.02365,-0.02228,-0.00992,-0.04471,-0.05188,-0.01114,-0.00153,-0.53986,0.05142,0.0119,0.0116,-0.04303,-0.04837,0.04791,-0.04608
7.547,-0.01297,0.01999,-0.03189,-0.01068,-0.04425,-0.05295,-0.0145,-0.06744,-0.5777,0.05249,0.04425,0.0032,-0.03998,-0.04303,0.03632,-0.05325
7.5475,-0.01053,0.01007,-0.04684,-0.01434,-0.04349,-0.0531,-0.01953,-0.10437,-0.59952,0.04349,0.06073,-0.01572,-0.03845,-0.04135,0.02579,-0.06226
7.548,-0.00732,0.00275,-0.06439,-0.01755,-0.04105,-0.05219,-0.02365,-0.03586,-0.60699,0.02792,0.05524,-0.02396,-0.03754,-0.04028,0.0209,-0.07065
7.5485,-0.00092,-0.00107,-0.08102,-0.01526,-0.04028,-0.05142,-0.02274,0.10452,-0.61768,0.01633,0.02686,-0.0148,-0.03769,-0.03448,0.01404,-0.07462
7.549,0.00076,-0.00534,-0.09201,-0.01038,-0.03952,-0.0531,-0.01678,0.19089,-0.63736,0.01205,-0.0145,-0.00107,-0.03723,-0.02472,0.00458,-0.07355
7.5495,-0.00122,-0.01068,-0.09842,-0.00549,-0.03769,-0.05478,-0.01266,0.15457,-0.65582,0.01144,-0.04364,0.00061,-0.03601,-0.01633,-0.00366,-0.06821
7.55,-0.00488,-0.01633,-0.10223,-0.00351,-0.03326,-0.05325,-0.01556,0.05203,-0.66895,0.0061,-0.05127,-0.00595,-0.03555,-0.01282,-0.00443,-0.05951
7.5505,-0.0058,-0.02487,-0.10391,-0.0061,-0.0296,-0.04913,-0.02197,-0.02365,-0.68207,-0.01053,-0.05035,-0.00809,-0.03418,-0.01495,0.0,-0.04868
7.551,-0.00412,-0.03479,-0.10132,-0.00961,-0.02747,-0.04532,-0.02213,-0.04242,-0.6987,-0.03387,-0.05722,-0.00061,-0.03296,-0.01984,0.00305,-0.03952
7.5515,-0.00122,-0.04471,-0.08957,-0.01129,-0.02747,-0.04486,-0.01434,-0.03052,-0.71518,-0.0592,-0.05859,0.00748,-0.03082,-0.02747,0.00412,-0.03204
7.552,0.00092,-0.05219,-0.07202,-0.01144,-0.0264,-0.04532,-0.0061,-0.01114,-0.72433,-0.0798,-0.03311,0.00641,-0.02899,-0.03601,0.00687,-0.02869
7.5525,0.00214,-0.05676,-0.05066,-0.01175,-0.02472,-0.04532,-0.0058,0.02396,-0.72388,-0.09186,0.0238,-0.00412,-0.02731,-0.04089,0.01236,-0.02716
7.553,0.00351,-0.0589,-0.02563,-0.01205,-0.0238,-0.04532,-0.01373,0.07843,-0.71457,-0.09232,0.08957,-0.01389,-0.02487,-0.03494,0.0174,-0.02777
7.5535,0.00259,-0.05905,0.00046,-0.01221,-0.02579,-0.04669,-0.02441,0.11703,-0.70023,-0.07492,0.13504,-0.01556,-0.02274,-0.01389,0.01312,-0.0296
7.554,0.00031,-0.05905,0.02441,-0.01068,-0.02853,-0.04807,-0.03128,0.10132,-0.68832,-0.05432,0.13931,-0.01221,-0.01999,0.0148,-0.00061,-0.0325
7.5545,-0.00183,-0.06027,0.03799,-0.00885,-0.02853,-0.04654,-0.03113,0.04608,-0.68741,-0.04028,0.09659,-0.009,-0.01801,0.03769,-0.01389,-0.03403
7.555,-0.00061,-0.0621,0.04303,-0.00763,-0.02792,-0.04517,-0.02518,0.00244,-0.70541,-0.03265,0.02441,-0.00702,-0.0177,0.04593,-0.01556,-0.03571
7.5555,0.00198,-0.06302,0.04028,-0.00717,-0.02487,-0.04471,-0.01602,-0.01328,-0.7399,-0.02304,-0.04242,-0.00397,-0.01999,0.04272,-0.00381,-0.03723
7.556,0.00443,-0.06332,0.03326,-0.00565,-0.02045,-0.04501,-0.01007,-0.02487,-0.77393,-0.00793,-0.07889,0.00168,-0.02228,0.0383,0.01724,-0.03799
7.5565,0.00366,-0.0647,0.0235,-0.00214,-0.01663,-0.04379,-0.009,-0.04517,-0.79773,0.00183,-0.09903,0.00458,-0.02258,0.03922,0.03494,-0.03601
7.557,0.00168,-0.06897,0.01297,-0.00046,-0.01556,-0.04242,-0.01236,-0.05829,-0.8168,-0.00015,-0.11414,-0.00198,-0.02167,0.04166,0.02853,-0.03433
7.5575,-0.00076,-0.07385,0.00168,-0.00153,-0.01556,-0.04227,-0.01556,-0.05417,-0.82092,-0.01526,-0.09277,-0.0174,-0.0206,0.03983,-0.00549,-0.03555
7.558,-0.00443,-0.07553,-0.00977,-0.00244,-0.01709,-0.04333,-0.01678,-0.04913,-0.79758,-0.03967,-0.00046,-0.03098,-0.0209,0.02945,-0.04913,-0.03876
7.5585,-0.00931,-0.07172,-0.01938,-0.00107,-0.01785,-0.04364,-0.0145,-0.05524,-0.76538,-0.06226,0.13184,-0.03006,-0.02182,0.00885,-0.07339,-0.03922
7.559,-0.01236,-0.06302,-0.02258,0.0,-0.01831,-0.04456,-0.01007,-0.06058,-0.74799,-0.08102,0.22781,-0.00824,-0.0238,-0.0206,-0.07797,-0.03464
7.5595,-0.01312,-0.05249,-0.02121,-0.00046,-0.01938,-0.04517,-0.0058,-0.04807,-0.73532,-0.09628,0.2182,0.02121,-0.02411,-0.05402,-0.08514,-0.02975
7.56,-0.01175,-0.0444,-0.01862,-0.00214,-0.0209,-0.04669,-0.00381,-0.01816,-0.70999,-0.11093,0.09521,0.04074,-0.0235,-0.08179,-0.09598,-0.02975
7.5605,-0.01007,-0.03906,-0.02121,-0.00305,-0.02304,-0.04807,-0.00214,0.00854,-0.67551,-0.12054,-0.07339,0.04288,-0.02029,-0.09735,-0.07889,-0.03357
7.561,-0.0058,-0.03418,-0.02563,-0.00397,-0.02472,-0.04929,-0.00092,0.01419,-0.63492,-0.12955,-0.18188,0.03113,-0.01633,-0.1033,-0.00229,-0.03738
7.5615,0.00031,-0.02655,-0.03067,-0.00366,-0.02625,-0.05035,-0.00153,0.00427,-0.58899,-0.13,-0.18524,0.0174,-0.01526,-0.10605,0.10132,-0.03708
7.562,0.00443,-0.01923,-0.03464,-0.00244,-0.02747,-0.05219,-0.00549,-0.00534,-0.54749,-0.11948,-0.1506,0.01221,-0.01663,-0.10956,0.14389,-0.03296
7.5625,0.00366,-0.01709,-0.03723,-0.00107,-0.02869,-0.05219,-0.01099,-0.00443,-0.51163,-0.09949,-0.15427,0.01541,-0.02045,-0.10849,0.08301,-0.02838
7.563,-0.00046,-0.0177,-0.03479,0.0,-0.03052,-0.05295,-0.01678,0.0032,-0.47272,-0.07858,-0.19012,0.01953,-0.02274,-0.09384,-0.01602,-0.02686
7.5635,-0.0032,-0.01678,-0.03021,-0.00046,-0.03113,-0.05402,-0.02304,0.00885,-0.43106,-0.06866,-0.19196,0.02304,-0.02396,-0.06927,-0.06348,-0.02869
7.564,-0.00427,-0.01495,-0.02625,-0.00305,-0.03143,-0.05402,-0.02716,0.01099,-0.40207,-0.06775,-0.14175,0.02182,-0.02289,-0.04471,-0.03922,-0.03036
7.5645,-0.00519,-0.01389,-0.02609,-0.00504,-0.03448,-0.05142,-0.0293,0.01144,-0.40131,-0.06912,-0.07965,0.01526,-0.01862,-0.02716,0.01205,-0.02808
7.565,-0.00626,-0.01709,-0.02945,-0.00626,-0.04028,-0.04883,-0.0322,0.0116,-0.42786,-0.05005,-0.03555,0.00549,-0.0116,-0.01343,0.04562,-0.01999
7.5655,-0.00824,-0.0235,-0.0351,-0.00748,-0.04791,-0.04898,-0.03876,0.00885,-0.4657,-0.00778,0.00778,-0.00137,-0.00412,-0.00244,0.04547,-0.00793
7.566,-0.01099,-0.03006,-0.04089,-0.00809,-0.05432,-0.05066,-0.04196,0.00259,-0.50385,0.05386,0.06241,-0.00687,0.00092,0.00214,0.0206,0.00626
7.5665,-0.01328,-0.03571,-0.04456,-0.0087,-0.06073,-0.05295,-0.03296,-0.00504,-0.53619,0.11383,0.11444,-0.01434,0.0032,0.00076,-0.00229,0.02029
7.567,-0.01236,-0.04105,-0.04669,-0.00992,-0.0679,-0.05417,-0.01816,-0.00977,-0.55542,0.16922,0.14191,-0.02289,0.00198,-0.00244,-0.0032,0.02945
7.5675,-0.00977,-0.04669,-0.04974,-0.0119,-0.07324,-0.05402,-0.01541,-0.01205,-0.55481,0.20508,0.1474,-0.02411,-0.00229,-0.00534,0.0087,0.03387
7.568,-0.00748,-0.05219,-0.05173,-0.01648,-0.07339,-0.05356,-0.03189,-0.01526,-0.54138,0.21881,0.13962,-0.0177,-0.00931,-0.00702,0.00992,0.03387
7.5685,-0.0061,-0.05722,-0.05219,-0.02258,-0.06668,-0.05203,-0.04608,-0.02045,-0.53421,0.20721,0.11963,-0.00977,-0.0177,-0.00992,-0.00061,0.03357
7.569,-0.0061,-0.06226,-0.05096,-0.0267,-0.0563,-0.05112,-0.03143,-0.02304,-0.54199,0.18494,0.0914,-0.00214,-0.02502,-0.01144,-0.00046,0.03311
7.5695,-0.00504,-0.06485,-0.04761,-0.0264,-0.04837,-0.0499,0.00961,-0.01877,-0.54749,0.16678,0.06638,0.00275,-0.03357,-0.01038,0.01984,0.02731
7.57,-0.00198,-0.06378,-0.04379,-0.02258,-0.04272,-0.04898,0.04364,-0.0116,-0.53741,0.14313,0.05371,0.00412,-0.04242,-0.00793,0.04868,0.01358
7.5705,0.00198,-0.05783,-0.03662,-0.01907,-0.03891,-0.04715,0.04135,-0.0087,-0.52155,0.10452,0.04654,0.00381,-0.05188,-0.00916,0.06363,-0.00336
7.571,0.00473,-0.04852,-0.02945,-0.01587,-0.03326,-0.04501,0.01343,-0.00961,-0.50003,0.05203,0.03387,0.01404,-0.05966,-0.01282,0.0528,-0.01724
7.5715,0.00519,-0.04044,-0.02579,-0.01419,-0.0264,-0.04196,-0.00961,-0.00992,-0.46005,-0.00458,0.01495,0.03784,-0.06226,-0.01587,0.0209,-0.03265
7.572,0.00412,-0.03494,-0.02365,-0.01358,-0.02213,-0.04105,-0.01419,-0.01022,-0.40497,-0.03677,-0.009,0.05814,-0.06104,-0.01633,-0.01434,-0.0618
7.5725,0.00229,-0.03006,-0.02121,-0.01419,-0.02167,-0.0412,-0.01038,-0.01099,-0.35049,-0.05386,-0.03464,0.05905,-0.05814,-0.01404,-0.03296,-0.09369
7.573,0.00183,-0.02594,-0.01755,-0.01495,-0.02197,-0.0415,-0.01083,-0.0116,-0.30899,-0.05234,-0.06256,0.04059,-0.05524,-0.01068,-0.03098,-0.1004
7.5735,-0.00015,-0.02472,-0.01434,-0.01541,-0.02197,-0.0412,-0.01663,-0.01022,-0.28702,-0.05295,-0.08575,0.02411,-0.05371,-0.00626,-0.02274,-0.07858
7.574,-0.00214,-0.02838,-0.01328,-0.01572,-0.02151,-0.03937,-0.01984,-0.00595,-0.2771,-0.05478,-0.103,0.02182,-0.05402,-0.00244,-0.01694,-0.05768
7.5745,-0.00473,-0.03189,-0.01556,-0.01663,-0.02014,-0.03769,-0.0174,-0.00366,-0.25757,-0.05585,-0.10895,0.02441,-0.05447,0.00061,-0.01602,-0.05463
7.575,-0.00656,-0.03311,-0.02014,-0.01892,-0.02075,-0.03937,-0.01297,-0.00427,-0.22369,-0.05997,-0.09842,0.0238,-0.05508,0.00244,-0.01282,-0.0531
7.5755,-0.00778,-0.03342,-0.02258,-0.02258,-0.02167,-0.04211,-0.01083,-0.00626,-0.19699,-0.06546,-0.06332,0.01892,-0.05707,0.00214,-0.00641,-0.04135
7.576,-0.00992,-0.03601,-0.02594,-0.02502,-0.0264,-0.04456,-0.01282,-0.00748,-0.18387,-0.07523,-0.00824,0.0148,-0.0589,-0.00183,-0.00168,-0.03418
7.5765,-0.01129,-0.04059,-0.02838,-0.02457,-0.03082,-0.04608,-0.0145,-0.00565,-0.17227,-0.08148,0.03357,0.01297,-0.06073,-0.00626,-0.00275,-0.04715
7.577,-0.01221,-0.04501,-0.03036,-0.02075,-0.03311,-0.04776,-0.01556,-0.00229,-0.15564,-0.07782,0.0386,0.01541,-0.06287,-0.00961,-0.00656,-0.06546
7.5775,-0.01205,-0.05219,-0.03159,-0.01358,-0.03281,-0.0499,-0.01541,0.00168,-0.14404,-0.0705,0.01938,0.0209,-0.06271,-0.01038,-0.00717,-0.06516
7.578,-0.01282,-0.06119,-0.03448,-0.00366,-0.0322,-0.05142,-0.01633,0.00305,-0.14069,-0.06409,-0.00046,0.02258,-0.06073,-0.00916,-0.00488,-0.04578
7.5785,-0.01434,-0.06653,-0.0386,0.00092,-0.03174,-0.05264,-0.01602,0.00214,-0.1358,-0.05142,-0.0116,0.01358,-0.05722,-0.00793,-0.00626,-0.02945
7.579,-0.01419,-0.06378,-0.04181,-0.00137,-0.03159,-0.0531,-0.01389,-0.00031,-0.12665,-0.0415,-0.0206,-0.00214,-0.0528,-0.0058,-0.0148,-0.03464
7.5795,-0.01205,-0.05371,-0.04349,-0.00854,-0.03143,-0.05203,-0.01129,-0.00168,-0.12146,-0.02762,-0.04181,-0.00641,-0.04852,-0.00305,-0.02396,-0.05585
7.58,-0.01007,-0.04211,-0.04486,-0.01648,-0.03326,-0.05157,-0.01038,-0.00229,-0.12314,-0.0354,-0.07278,0.01068,-0.04333,0.00137,-0.02777,-0.07568
7.5805,-0.01053,-0.03281,-0.04639,-0.02518,-0.03479,-0.0499,-0.01129,-0.00153,-0.12314,-0.05814,-0.09567,0.03189,-0.03723,0.00473,-0.02609,-0.08362
7.581,-0.01282,-0.02716,-0.04623,-0.0354,-0.0351,-0.04639,-0.01389,-0.00336,-0.11566,-0.08789,-0.09384,0.03693,-0.03204,0.00458,-0.02182,-0.08148
7.5815,-0.01465,-0.02716,-0.0441,-0.0444,-0.03433,-0.0441,-0.01328,-0.00488,-0.10971,-0.08835,-0.06546,0.02563,-0.02808,0.0032,-0.01648,-0.07401
7.582,-0.0148,-0.02747,-0.04227,-0.04761,-0.03464,-0.04486,-0.01236,-0.00443,-0.12115,-0.07706,-0.0322,0.01709,-0.02594,0.00275,-0.00854,-0.06546
7.5825,-0.0116,-0.02411,-0.04379,-0.04196,-0.03784,-0.04684,-0.01175,-0.00046,-0.1532,-0.07645,-0.02274,0.02045,-0.02609,0.0032,0.00031,-0.05997
7.583,-0.00671,-0.01602,-0.0444,-0.0238,-0.03983,-0.04715,-0.0119,0.00031,-0.18692,-0.07767,-0.05295,0.02335,-0.02838,0.00153,0.01053,-0.06332
7.5835,-0.0032,-0.00778,-0.04456,0.01083,-0.03906,-0.04532,-0.01373,-0.00015,-0.20737,-0.08026,-0.12329,0.01022,-0.03052,-0.00275,0.01862,-0.07889
7.584,-0.00229,-0.00641,-0.04807,0.05508,-0.03616,-0.04257,-0.01556,-0.00122,-0.22385,-0.06699,-0.215,-0.01144,-0.0322,-0.00351,0.02106,-0.10193
7.5845,-0.00671,-0.01144,-0.05981,0.08423,-0.03204,-0.04211,-0.01526,-0.00137,-0.23666,-0.05951,-0.27512,-0.02258,-0.03342,0.00092,0.01785,-0.12375
7.585,-0.01175,-0.01984,-0.07721,0.07599,-0.02808,-0.04257,-0.01404,-0.00122,-0.2359,-0.06241,-0.25589,-0.02151,-0.03143,0.00748,0.00839,-0.13504
7.5855,-0.01495,-0.02716,-0.08942,0.04135,-0.02304,-0.04318,-0.01465,-0.00244,-0.2301,-0.07141,-0.16205,-0.0238,-0.02655,0.00916,-0.00687,-0.13336
7.586,-0.01572,-0.0351,-0.08804,0.00687,-0.01572,-0.04257,-0.01617,-0.00229,-0.2359,-0.07858,-0.05356,-0.03021,-0.01999,0.00488,-0.02258,-0.12115
7.5865,-0.0148,-0.04364,-0.07492,-0.01038,-0.01053,-0.04501,-0.01648,-0.00031,-0.25482,-0.07248,0.02106,-0.02823,-0.01648,-0.00229,-0.03845,-0.103
7.587,-0.01236,-0.0499,-0.05859,-0.01633,-0.00717,-0.04837,-0.0148,0.00305,-0.27725,-0.06561,0.04791,-0.01648,-0.01694,-0.01068,-0.05341,-0.08224
7.5875,-0.009,-0.0531,-0.04318,-0.02106,-0.0061,-0.04944,-0.01221,0.00519,-0.28961,-0.05234,0.04288,-0.01678,-0.01907,-0.01816,-0.07156,-0.05569
7.588,-0.00702,-0.05615,-0.02716,-0.02594,-0.0061,-0.04852,-0.01083,0.00702,-0.28137,-0.03693,0.03799,-0.03616,-0.01831,-0.02548,-0.08606,-0.0267
7.5885,-0.00473,-0.05875,-0.01114,-0.03006,-0.0058,-0.04761,-0.01129,0.00931,-0.26443,-0.01923,0.07172,-0.04807,-0.01358,-0.03021,-0.07538,-0.00809
7.589,-0.00305,-0.05951,0.00015,-0.03143,-0.00351,-0.0502,-0.01205,0.0087,-0.26566,-0.00046,0.14389,-0.02213,-0.00763,-0.0354,-0.02197,-0.01373
7.5895,-0.00015,-0.0563,0.00641,-0.03052,-0.00305,-0.05234,-0.01236,0.00595,-0.29358,0.00748,0.21042,0.03189,-0.00534,-0.0412,0.05875,-0.03738
7.59,0.0032,-0.05234,0.00809,-0.0238,-0.00504,-0.05234,-0.01328,0.00259,-0.3421,0.01312,0.22018,0.0647,-0.00626,-0.04654,0.1178,-0.06149
7.5905,0.00458,-0.05051,0.00488,-0.00961,-0.00809,-0.05112,-0.01434,-0.00046,-0.40131,0.00153,0.16281,0.04105,-0.00748,-0.05005,0.12466,-0.07797
7.591,0.00519,-0.0502,-0.00015,0.00519,-0.01038,-0.05203,-0.01495,-0.00259,-0.4567,-0.0145,0.06485,-0.01297,-0.00641,-0.0499,0.09537,-0.09689
7.5915,0.00504,-0.04974,-0.00687,0.01022,-0.01068,-0.05447,-0.01465,-0.0032,-0.49011,-0.02167,-0.03464,-0.04028,-0.00458,-0.04623,0.0621,-0.1181
7.592,0.00381,-0.04837,-0.01587,0.00671,-0.01236,-0.056,-0.01465,-0.00153,-0.50293,-0.00595,-0.08606,-0.03479,-0.00412,-0.04166,0.04135,-0.13138
7.5925,0.0032,-0.04501,-0.02914,0.00671,-0.01617,-0.05676,-0.01465,-0.00061,-0.52322,0.02121,-0.07843,-0.03143,-0.00488,-0.03571,0.03326,-0.12955
7.593,0.00366,-0.04028,-0.04456,0.00778,-0.02426,-0.05707,-0.01434,-0.00214,-0.56732,0.02716,-0.04425,-0.04669,-0.00778,-0.02686,0.04669,-0.12115
7.5935,0.00305,-0.03662,-0.05676,-0.00351,-0.03433,-0.05737,-0.01343,-0.00351,-0.60898,0.01083,-0.02792,-0.05753,-0.01144,-0.01892,0.07828,-0.11063
7.594,0.00092,-0.03586,-0.06393,-0.0209,-0.04547,-0.05722,-0.01312,-0.00351,-0.60623,-0.01907,-0.02884,-0.05066,-0.01572,-0.01709,0.1004,-0.09674
7.5945,-0.00168,-0.03799,-0.07217,-0.02518,-0.05737,-0.05722,-0.01419,-0.00244,-0.55878,-0.04639,-0.02655,-0.03738,-0.01923,-0.02319,0.08835,-0.06973
7.595,-0.0029,-0.04562,-0.08835,-0.01465,-0.06912,-0.05569,-0.01495,-0.00244,-0.51224,-0.0705,-0.01694,-0.02686,-0.02151,-0.03113,0.05615,-0.02045
7.5955,-0.00183,-0.06195,-0.1123,-0.0177,-0.07843,-0.05295,-0.01434,-0.00244,-0.50323,-0.08118,-0.00366,-0.01236,-0.02502,-0.03204,0.0296,0.03754
7.596,-0.00092,-0.08408,-0.13565,-0.05325,-0.08423,-0.05096,-0.01328,-0.00305,-0.51666,-0.07278,0.0145,0.01434,-0.03036,-0.02548,0.00946,0.07996
7.5965,-0.00183,-0.09964,-0.15045,-0.10208,-0.08713,-0.04913,-0.01373,-0.00366,-0.49713,-0.05371,0.03906,0.04623,-0.03754,-0.01816,-0.01572,0.1062
7.597,-0.00397,-0.09979,-0.15762,-0.1329,-0.08942,-0.04852,-0.01495,-0.00351,-0.42862,-0.03265,0.06989,0.06256,-0.04318,-0.0148,-0.04456,0.15152
7.5975,-0.00519,-0.08667,-0.16205,-0.14038,-0.08804,-0.04852,-0.01541,-0.00351,-0.36026,-0.01175,0.10361,0.04242,-0.0415,-0.01358,-0.05829,0.22659
7.598,-0.00473,-0.07248,-0.15778,-0.1535,-0.08286,-0.04822,-0.01419,-0.00305,-0.33447,0.0238,0.12482,-0.00519,-0.03387,-0.01144,-0.04822,0.28152
7.5985,-0.0029,-0.06454,-0.13229,-0.19043,-0.07141,-0.04639,-0.01312,-0.0029,-0.33981,0.05951,0.12115,-0.03632,-0.02426,-0.00961,-0.0322,0.26215
7.599,-0.0032,-0.0676,-0.08133,-0.23132,-0.05798,-0.04379,-0.01251,-0.00351,-0.37384,0.07751,0.09338,-0.02228,-0.01999,-0.01083,-0.03571,0.18188
7.5995,-0.00565,-0.07721,-0.01785,-0.23148,-0.04471,-0.04059,-0.01205,-0.00351,-0.47287,0.06683,0.05692,0.0206,-0.02197,-0.01358,-0.05447,0.10162
7.6,-0.01053,-0.08301,0.03967,-0.14923,-0.03632,-0.03876,-0.01129,-0.00259,-0.67307,0.03693,0.02487,0.05203,-0.02548,-0.0145,-0.0473,0.0528
7.6005,-0.01511,-0.07736,0.08133,0.02487,-0.03555,-0.03922,-0.01038,-0.00168,-0.98343,0.01755,0.00412,0.0592,-0.02579,-0.01343,0.00748,0.00931
7.601,-0.01556,-0.06241,0.10818,0.24368,-0.03845,-0.04074,-0.00977,-0.00214,-1.39175,0.00946,-0.009,0.05264,-0.02182,-0.01389,0.06561,-0.06104
7.6015,-0.01221,-0.047,0.11612,0.40543,-0.04257,-0.04379,-0.01053,-0.00092,-1.87332,0.00626,-0.00961,0.04211,-0.0174,-0.0148,0.06653,-0.1532
7.602,-0.00839,-0.0351,0.10223,0.42847,-0.04227,-0.04639,-0.0119,0.00015,-2.37244,-0.01129,0.00153,0.02609,-0.01099,-0.01434,0.03052,-0.2327
7.6025,-0.00458,-0.02533,0.07782,0.33035,-0.03891,-0.04745,-0.01312,0.00153,-2.78976,-0.04608,0.01831,0.00931,-0.00244,-0.01389,0.0502,-0.2774
7.603,-0.00061,-0.01892,0.05371,0.2066,-0.03662,-0.04807,-0.01343,0.00107,-3.04199,-0.08286,0.02457,-0.0032,0.00427,-0.01328,0.14709,-0.29434
7.6035,0.00351,-0.01465,0.03571,0.12207,-0.03525,-0.04837,-0.01312,-0.00092,-3.12927,-0.10559,0.01404,-0.01678,0.00488,-0.01556,0.21255,-0.3038
7.604,0.00641,-0.0116,0.02335,0.06271,-0.0354,-0.04898,-0.01389,-0.00488,-3.12302,-0.11414,-0.00732,-0.04089,-0.00122,-0.01892,0.15594,-0.29541
7.6045,0.00793,-0.00763,0.01892,-0.00458,-0.03464,-0.04883,-0.01602,-0.00778,-3.08762,-0.11642,-0.02747,-0.07782,-0.01099,-0.02106,0.03296,-0.24429
7.605,0.00916,-0.00229,0.0235,-0.07462,-0.03342,-0.04715,-0.01801,-0.01068,-3.08029,-0.11322,-0.04257,-0.11261,-0.02167,-0.02258,-0.03647,-0.15488
7.6055,0.01099,0.0,0.03067,-0.12146,-0.03311,-0.04684,-0.01984,-0.01358,-3.29849,-0.10849,-0.05356,-0.11765,-0.03616,-0.02594,-0.02335,-0.06989
7.606,0.01236,-0.00168,0.02853,-0.12939,-0.03189,-0.04745,-0.0209,-0.01785,-3.95172,-0.08972,-0.06058,-0.07996,-0.05325,-0.03052,0.00977,-0.02182
7.6065,0.01312,-0.00793,0.01541,-0.0975,-0.0293,-0.04791,-0.02213,-0.01999,-4.6846,-0.06027,-0.06424,-0.02243,-0.07126,-0.03677,0.01984,-0.00015
7.607,0.01373,-0.01495,0.00076,-0.0531,-0.02426,-0.04669,-0.02243,-0.01755,-4.91211,-0.03571,-0.06607,0.01572,-0.08224,-0.0412,0.01862,0.02884
7.6075,0.01251,-0.0209,-0.00656,-0.03723,-0.01984,-0.04486,-0.02121,-0.0119,-4.70444,-0.03098,-0.06378,0.02609,-0.08453,-0.03998,0.02304,0.08163
7.608,0.01099,-0.02487,-0.00977,-0.05676,-0.01816,-0.04272,-0.02106,-0.00778,-4.54086,-0.04761,-0.06027,0.04379,-0.08408,-0.03464,0.02548,0.13306
7.6085,0.01022,-0.02625,-0.01816,-0.07385,-0.01617,-0.04135,-0.0209,-0.00763,-4.58054,-0.06256,-0.06119,0.09277,-0.08606,-0.02853,0.01968,0.14297
7.609,0.0119,-0.02441,-0.03265,-0.065,-0.01251,-0.04044,-0.01953,-0.00824,-4.56802,-0.05493,-0.07339,0.14801,-0.09171,-0.02518,0.01175,0.09995
7.6095,0.01389,-0.02289,-0.04501,-0.05478,-0.00824,-0.03891,-0.01755,-0.00931,-4.17313,-0.03784,-0.09171,0.16235,-0.09735,-0.02289,0.01007,0.02472
7.61,0.01389,-0.02365,-0.05112,-0.06226,-0.00534,-0.03738,-0.01541,-0.00809,-3.26996,-0.01862,-0.11017,0.12131,-0.10117,-0.01923,0.01495,-0.06149
7.6105,0.00977,-0.02625,-0.05249,-0.05722,-0.00656,-0.03677,-0.01373,-0.00549,-2.164,-0.0145,-0.12665,0.05417,-0.10361,-0.01556,0.01648,-0.13535
7.611,0.00473,-0.0293,-0.0528,-0.00992,-0.00748,-0.03769,-0.01221,0.00107,-1.33453,-0.00885,-0.13687,-0.00336,-0.10498,-0.01328,0.01602,-0.17212
7.6115,0.00107,-0.0325,-0.05417,0.03342,-0.00717,-0.03784,-0.01022,0.00595,-0.88776,-0.00397,-0.12634,-0.03723,-0.10315,-0.00977,0.01038,-0.17487
7.612,-0.00229,-0.03403,-0.05646,0.00671,-0.00549,-0.03906,-0.01038,0.00259,-0.54642,0.00809,-0.08728,-0.05157,-0.09766,-0.00443,0.00229,-0.17532
7.6125,-0.00381,-0.03448,-0.05798,-0.0708,-0.00412,-0.03998,-0.0119,-0.01816,-0.13321,0.0293,-0.03357,-0.05676,-0.08926,-0.00061,-0.00809,-0.19104
7.613,-0.00458,-0.03403,-0.05966,-0.11337,-0.00366,-0.04181,-0.01282,-0.06546,0.26749,0.05447,0.0032,-0.06042,-0.0798,-0.00046,-0.01877,-0.20523
7.6135,-0.0061,-0.03479,-0.06073,-0.08453,-0.00488,-0.04272,-0.01251,-0.1387,0.56534,0.07019,0.00946,-0.06836,-0.07446,-0.00244,-0.02411,-0.2037
7.614,-0.00732,-0.03708,-0.06042,-0.03052,-0.0058,-0.04349,-0.01373,-0.22247,0.80704,0.07965,-0.00244,-0.07858,-0.07126,-0.00549,-0.0238,-0.19073
7.6145,-0.00809,-0.04059,-0.06042,-0.00458,-0.00717,-0.04456,-0.01633,-0.27725,1.05576,0.07538,-0.01022,-0.08194,-0.06744,-0.01022,-0.0177,-0.17151
7.615,-0.00809,-0.04318,-0.06058,-0.01068,-0.01007,-0.04669,-0.01831,-0.22491,1.29761,0.06546,-0.01053,-0.07614,-0.06149,-0.01572,-0.01099,-0.14145
7.6155,-0.00702,-0.04379,-0.06073,-0.02136,-0.01678,-0.04913,-0.01617,-0.01205,1.50116,0.05798,-0.01328,-0.06989,-0.05478,-0.01953,-0.00351,-0.11734
7.616,-0.00809,-0.04379,-0.0618,-0.01862,-0.02655,-0.0502,-0.01083,0.26031,1.6716,0.0563,-0.01968,-0.06378,-0.04837,-0.02197,0.00076,-0.13763
7.6165,-0.00946,-0.04425,-0.06195,-0.00732,-0.03662,-0.05249,-0.00641,0.38513,1.82709,0.05447,-0.02258,-0.05295,-0.04486,-0.02426,0.00168,-0.20737
7.617,-0.01022,-0.04471,-0.06149,0.00595,-0.04379,-0.05508,-0.00595,0.28091,1.96564,0.04257,-0.02243,-0.03494,-0.04227,-0.02762,0.00107,-0.27145
7.6175,-0.009,-0.04669,-0.06012,0.02136,-0.04898,-0.05661,-0.0087,0.09399,2.07565,0.02426,-0.04395,-0.01724,-0.04013,-0.03021,-0.00046,-0.26886
7.618,-0.00885,-0.04745,-0.06042,0.03952,-0.05249,-0.05615,-0.01068,0.00031,2.16156,0.01251,-0.09216,-0.00671,-0.0386,-0.0325,-0.00244,-0.20615
7.6185,-0.00885,-0.04883,-0.06088,0.05295,-0.05508,-0.05417,-0.01083,0.01205,2.23022,0.02197,-0.12894,-0.00046,-0.03677,-0.03311,-0.0058,-0.13779
7.619,-0.01007,-0.05142,-0.06073,0.05096,-0.05615,-0.05325,-0.01175,0.03387,2.28027,0.05432,-0.10544,0.00351,-0.03311,-0.02914,-0.0087,-0.0946
7.6195,-0.01038,-0.05249,-0.05798,0.03799,-0.05936,-0.05173,-0.01297,0.02197,2.31934,0.09766,-0.02823,0.00854,-0.02823,-0.02045,-0.00885,-0.05997
7.62,-0.01068,-0.05203,-0.05402,0.02441,-0.06042,-0.04959,-0.01236,0.00595,2.40845,0.12909,0.04684,0.01434,-0.02167,-0.0119,-0.00793,-0.01343
7.6205,-0.01083,-0.05081,-0.05264,0.01724,-0.05798,-0.04852,-0.01175,0.00824,2.59094,0.14633,0.07874,0.01877,-0.01801,-0.01022,-0.0058,0.04379
7.621,-0.01083,-0.05005,-0.0531,0.01373,-0.05035,-0.04807,-0.01038,0.01587,2.74063,0.13962,0.07492,0.02045,-0.01251,-0.01419,-0.00427,0.10468
7.6215,-0.01022,-0.04929,-0.05188,0.00977,-0.04059,-0.04684,-0.00854,0.01526,2.70966,0.1152,0.05783,0.02167,-0.00381,-0.01801,-0.00275,0.15839
7.622,-0.00946,-0.04822,-0.05249,0.00641,-0.03311,-0.04654,-0.00717,0.01099,2.67334,0.09232,0.04517,0.02228,0.0058,-0.01968,-0.00275,0.18372
7.6225,-0.00931,-0.04807,-0.05371,0.00519,-0.0293,-0.0473,-0.00656,0.01038,2.93564,0.07263,0.0383,0.01709,0.01083,-0.02228,-0.00229,0.16449
7.623,-0.01053,-0.04852,-0.05463,0.00748,-0.0264,-0.04959,-0.00839,0.01083,3.4108,0.0589,0.03281,0.00656,0.01114,-0.02548,-0.00031,0.121
7.6235,-0.00916,-0.04715,-0.05295,0.009,-0.02274,-0.05066,-0.00946,0.00763,3.72742,0.04593,0.01587,-0.0032,0.01114,-0.02731,0.00198,0.10101
7.624,-0.01022,-0.04349,-0.04929,0.00549,-0.01862,-0.05173,-0.00977,0.0029,3.74557,0.04654,-0.01434,-0.0058,0.01511,-0.02426,0.00458,0.11368
7.6245,-0.0116,-0.04242,-0.04898,0.00153,-0.01495,-0.0528,-0.00961,0.00076,3.61069,0.05463,-0.04517,-0.00137,0.02029,-0.01831,0.00809,0.11734
7.625,-0.01709,-0.04425,-0.04929,0.00198,-0.01297,-0.05402,-0.00977,0.00183,3.44513,0.06302,-0.06485,0.00565,0.02502,-0.01434,0.01205,0.08286
7.6255,-0.02258,-0.04456,-0.04974,0.00992,-0.01312,-0.05417,-0.01007,0.00549,3.3165,0.05951,-0.07629,0.00946,0.02823,-0.01434,0.01404,0.03906
7.626,-0.02335,-0.04181,-0.04913,0.02289,-0.01404,-0.05417,-0.01083,0.00702,3.35663,0.03464,-0.08041,0.00854,0.03418,-0.01572,0.01328,0.01678
7.6265,-0.01816,-0.03754,-0.04807,0.03448,-0.01648,-0.05432,-0.0116,0.00137,3.62625,0.00778,-0.0705,0.00519,0.03952,-0.01678,0.00885,0.00397
7.627,-0.0116,-0.03571,-0.0473,0.04593,-0.0177,-0.05447,-0.01205,-0.01312,3.92242,-0.01236,-0.05096,0.00244,0.04333,-0.01648,0.0032,-0.01801
7.6275,-0.00488,-0.03677,-0.04654,0.06317,-0.01968,-0.05493,-0.01236,-0.03067,4.02222,-0.01877,-0.03525,0.00137,0.0441,-0.01617,-0.00076,-0.04639
7.628,0.00076,-0.03983,-0.04486,0.08621,-0.02258,-0.05493,-0.01221,-0.03876,4.10019,-0.01984,-0.02731,0.00092,0.04456,-0.0148,-0.00397,-0.06882
7.6285,0.00687,-0.04166,-0.0441,0.10437,-0.02731,-0.05508,-0.01205,-0.02731,4.36798,-0.0177,-0.02426,0.00305,0.04486,-0.01617,-0.00412,-0.08087
7.629,0.00732,-0.04242,-0.04547,0.08804,-0.03143,-0.05524,-0.01236,0.00717,4.38171,-0.01801,-0.02258,0.00778,0.04379,-0.01923,-0.00153,-0.07721
7.6295,0.00732,-0.0412,-0.04578,0.0209,-0.03265,-0.05417,-0.01373,0.04791,3.58276,-0.02411,-0.01816,0.01495,0.0415,-0.02365,0.0029,-0.05524
7.63,0.00626,-0.03952,-0.04532,-0.06088,-0.0325,-0.05234,-0.01495,0.05707,2.60223,-0.04166,-0.00793,0.02075,0.0386,-0.02625,0.00778,-0.04944
7.6305,0.00717,-0.03754,-0.04272,-0.10162,-0.03006,-0.0499,-0.01495,0.02197,2.82104,-0.05966,0.00748,0.02716,0.0354,-0.02548,0.00977,-0.09811
7.631,0.00595,-0.03632,-0.03967,-0.09003,-0.02762,-0.04913,-0.01312,-0.02365,4.17999,-0.06973,0.02151,0.03769,0.03098,-0.02197,0.01083,-0.16891
7.6315,0.00412,-0.03708,-0.03693,-0.05905,-0.0267,-0.04898,-0.0116,-0.03983,4.99985,-0.07004,0.02762,0.05325,0.02274,-0.01923,0.01022,-0.18097
7.632,0.00397,-0.03998,-0.03708,-0.03113,-0.02838,-0.04929,-0.01236,-0.02304,4.89594,-0.06638,0.02823,0.06958,0.01068,-0.02136,0.01007,-0.11765
7.6325,0.0032,-0.04181,-0.03891,-0.00397,-0.0322,-0.04883,-0.01404,0.00198,4.46899,-0.06866,0.02853,0.0769,-0.00397,-0.02701,0.00931,-0.05035
7.633,0.00061,-0.0441,-0.03876,0.02228,-0.03906,-0.04791,-0.01465,0.01404,4.47159,-0.07523,0.02762,0.06592,-0.01801,-0.03296,0.00732,-0.03433
7.6335,-0.00381,-0.04501,-0.03738,0.02945,-0.047,-0.04822,-0.01312,0.0,4.63959,-0.08377,0.01785,0.03311,-0.03326,-0.03677,0.00443,-0.03937
7.634,-0.00793,-0.04486,-0.0351,-0.00076,-0.05356,-0.04959,-0.01099,-0.04028,4.59732,-0.08896,-0.00046,-0.00488,-0.04807,-0.04028,0.00046,-0.01404
7.6345,-0.00916,-0.04349,-0.03342,-0.0766,-0.05753,-0.05051,-0.0116,-0.09232,4.45663,-0.0914,-0.01785,-0.02914,-0.05722,-0.04425,-0.00214,0.04288
7.635,-0.01083,-0.04181,-0.03326,-0.17395,-0.05615,-0.04974,-0.01587,-0.13901,4.42459,-0.09399,-0.02777,-0.03418,-0.06073,-0.04745,-0.00275,0.10315
7.6355,-0.01663,-0.0383,-0.03403,-0.24414,-0.05417,-0.04822,-0.02029,-0.1709,4.45129,-0.09735,-0.03616,-0.03021,-0.06363,-0.04761,-0.00259,0.1564
7.636,-0.02487,-0.0322,-0.03448,-0.25909,-0.05219,-0.04669,-0.02167,-0.16708,4.422,-0.09186,-0.05539,-0.02609,-0.07004,-0.04776,-0.00351,0.21301
7.6365,-0.03082,-0.02899,-0.03448,-0.23834,-0.04913,-0.04623,-0.02075,-0.10086,4.35989,-0.0766,-0.10239,-0.01266,-0.07919,-0.04761,-0.00549,0.27298
7.637,-0.02777,-0.03433,-0.0354,-0.21835,-0.04547,-0.04684,-0.01877,0.00137,4.32571,-0.05859,-0.17776,0.0238,-0.08591,-0.047,-0.00626,0.32166
7.6375,-0.01816,-0.04532,-0.03754,-0.19882,-0.04074,-0.04654,-0.0177,0.0647,4.31122,-0.04395,-0.24521,0.06836,-0.08789,-0.04486,-0.00397,0.3418
7.638,-0.00778,-0.05692,-0.03998,-0.13443,-0.03448,-0.04593,-0.01724,0.06897,4.2804,-0.03647,-0.25818,0.07828,-0.08896,-0.04105,-0.00092,0.3186
7.6385,-0.00137,-0.06424,-0.04089,0.00229,-0.02869,-0.04532,-0.01694,0.07248,4.23523,-0.04684,-0.20309,0.02991,-0.09003,-0.03723,0.00443,0.2446
7.639,0.00229,-0.06744,-0.04059,0.13885,-0.0235,-0.04379,-0.0174,0.10849,4.13757,-0.07446,-0.11078,-0.04517,-0.0885,-0.03326,0.01251,0.13702
7.6395,0.00381,-0.06821,-0.0383,0.15289,-0.02121,-0.04196,-0.01785,0.12741,3.69171,-0.10651,-0.01663,-0.09537,-0.08453,-0.02991,0.01633,0.04318
7.64,0.00534,-0.06668,-0.0386,0.03586,-0.02075,-0.04105,-0.01877,0.08469,2.54028,-0.11536,0.05615,-0.10132,-0.08087,-0.0267,0.01404,-0.00183
7.6405,0.00519,-0.06454,-0.0415,-0.07858,-0.02228,-0.04272,-0.01892,0.01511,0.8992,-0.09399,0.10757,-0.0827,-0.08026,-0.02457,0.00992,-0.01556
7.641,0.00565,-0.0618,-0.04501,-0.09201,-0.02365,-0.04379,-0.01892,-0.02167,-0.49683,-0.05753,0.14114,-0.06088,-0.0798,-0.02365,0.01221,-0.05661
7.6415,0.00443,-0.05997,-0.04456,-0.03677,-0.0238,-0.04318,-0.01755,-0.02121,-1.2265,-0.02457,0.15335,-0.04639,-0.07782,-0.02228,0.01984,-0.14297
7.642,0.00244,-0.05844,-0.0412,0.01801,-0.02274,-0.04257,-0.01541,-0.01831,-1.49734,-0.00137,0.14359,-0.04044,-0.07645,-0.02029,0.0264,-0.22812
7.6425,0.00046,-0.05722,-0.03647,0.05768,-0.02228,-0.04257,-0.01541,-0.02762,-1.66534,0.01556,0.11871,-0.03204,-0.07736,-0.0177,0.02487,-0.26031
7.643,-0.00046,-0.05676,-0.03372,0.08881,-0.02243,-0.04349,-0.01633,-0.03189,-1.87363,0.02167,0.08804,-0.00305,-0.0827,-0.01465,0.01678,-0.24048
7.6435,0.0,-0.05661,-0.02975,0.09933,-0.02304,-0.04395,-0.0177,-0.02213,-2.09473,0.01816,0.05829,0.04257,-0.08896,-0.01068,0.009,-0.21332
7.644,0.00076,-0.05661,-0.02747,0.08835,-0.02411,-0.04364,-0.01602,-0.00641,-2.3143,0.00397,0.03571,0.06592,-0.09598,-0.00809,0.0032,-0.21576
7.6445,0.00046,-0.056,-0.02579,0.07004,-0.02411,-0.04425,-0.01373,0.00092,-2.57278,-0.01144,0.0267,0.04425,-0.09811,-0.00519,0.00076,-0.24292
7.645,-0.00046,-0.05142,-0.02518,0.04761,-0.02563,-0.04364,-0.0116,-0.00275,-2.90405,-0.01999,0.02594,0.00076,-0.09384,-0.00168,0.0,-0.2623
7.6455,-0.00168,-0.04578,-0.02213,0.01862,-0.02518,-0.04349,-0.01129,-0.01312,-3.28384,-0.02151,0.02136,-0.0264,-0.08545,0.00198,0.00092,-0.26154
7.646,-0.00275,-0.04059,-0.01862,-0.00473,-0.02411,-0.04272,-0.01297,-0.02441,-3.63525,-0.02396,0.01434,-0.03098,-0.07874,0.00427,0.0061,-0.25131
7.6465,-0.00259,-0.03677,-0.01511,-0.01038,-0.02335,-0.04257,-0.0145,-0.03448,-3.88641,-0.03189,0.00839,-0.03433,-0.07675,0.00534,0.0087,-0.24353
7.647,0.00214,-0.03555,-0.01495,-0.00214,-0.02365,-0.04303,-0.01465,-0.04395,-4.05731,-0.04257,0.00793,-0.05127,-0.07751,0.00534,0.00641,-0.2475
7.6475,0.00977,-0.03448,-0.01984,0.00504,-0.02594,-0.04379,-0.01312,-0.05081,-4.22729,-0.04913,0.00153,-0.07126,-0.07568,0.00549,0.00031,-0.27466
7.648,0.01282,-0.03067,-0.02899,0.00565,-0.02701,-0.04318,-0.01099,-0.04913,-4.42932,-0.05249,-0.01511,-0.07965,-0.06805,0.00519,-0.00809,-0.31448
7.6485,0.00763,-0.02151,-0.03723,0.00473,-0.02808,-0.04379,-0.00977,-0.03983,-4.61823,-0.05112,-0.03555,-0.06622,-0.05676,0.00565,-0.01541,-0.32196
7.649,-0.00504,-0.00946,-0.04135,0.00458,-0.03006,-0.04608,-0.01099,-0.02579,-4.75708,-0.05417,-0.04562,-0.02716,-0.04608,0.00565,-0.01953,-0.27054
7.6495,-0.01755,-0.00305,-0.04013,0.00366,-0.03036,-0.04807,-0.01129,-0.01053,-4.86115,-0.0528,-0.04395,0.02899,-0.04013,0.00549,-0.02075,-0.19028
7.65,-0.02655,-0.00854,-0.03769,0.00275,-0.03052,-0.04761,-0.01099,0.00946,-4.94797,-0.05417,-0.03387,0.06699,-0.04211,0.00504,-0.02045,-0.13168
7.6505,-0.03372,-0.02304,-0.0383,0.00397,-0.03021,-0.04868,-0.01083,0.02991,-4.97528,-0.05356,-0.01389,0.05478,-0.04318,0.00626,-0.01846,-0.10422
7.651,-0.0415,-0.03403,-0.04395,0.00519,-0.0322,-0.04959,-0.0116,0.03799,-4.97513,-0.05432,0.00977,0.02106,-0.03906,0.00763,-0.01465,-0.0827
7.6515,-0.04593,-0.03433,-0.05188,0.00458,-0.03311,-0.05173,-0.0119,0.02487,-4.97528,-0.05447,0.02518,0.0206,-0.03036,0.00885,-0.00687,-0.04913
7.652,-0.04272,-0.03021,-0.05676,0.00244,-0.03433,-0.05341,-0.01251,0.00351,-4.97452,-0.0502,0.02823,0.05722,-0.02167,0.00732,-0.00031,-0.01114
7.6525,-0.03082,-0.02853,-0.05417,0.00046,-0.03632,-0.05554,-0.01312,-0.0116,-4.97528,-0.04333,0.01846,0.07446,-0.01633,0.00549,0.00412,0.01831
7.653,-0.0177,-0.02853,-0.04562,0.0,-0.03769,-0.05875,-0.01328,-0.02029,-4.97498,-0.0386,0.00687,0.05066,-0.01587,0.00381,0.00687,0.0351
7.6535,-0.00931,-0.02457,-0.04776,-0.00198,-0.03769,-0.06287,-0.01266,-0.02289,-4.97467,-0.03296,-0.0058,0.02029,-0.01801,0.00259,0.01038,0.04349
7.654,-0.00549,-0.02029,-0.06241,-0.00412,-0.03662,-0.06317,-0.01373,-0.01312,-4.97513,-0.02716,-0.03235,0.02716,-0.0206,0.00076,0.01541,0.04181
7.6545,-0.00107,-0.02319,-0.08163,-0.00748,-0.03632,-0.05707,-0.01389,0.01602,-4.97513,-0.02319,-0.08163,0.05615,-0.02274,-0.00305,0.0206,0.02167
7.655,0.00381,-0.03403,-0.09766,-0.0087,-0.03357,-0.04776,-0.01328,0.04745,-4.97498,-0.02289,-0.12253,0.06378,-0.0238,-0.00702,0.02213,-0.00122
7.6555,0.00549,-0.04562,-0.10727,-0.00916,-0.03159,-0.04181,-0.01373,0.05753,-4.96246,-0.03036,-0.10666,0.04166,-0.02563,-0.01053,0.02075,0.00381
7.656,-0.00092,-0.05066,-0.11078,-0.00946,-0.03067,-0.04257,-0.0145,0.03845,-4.92218,-0.04608,-0.0235,0.02029,-0.02823,-0.01312,0.01846,0.03754
7.6565,-0.01114,-0.04745,-0.10696,-0.01068,-0.03159,-0.04745,-0.01434,0.00412,-4.88297,-0.05905,0.07492,0.02243,-0.02792,-0.0145,0.01831,0.05753
7.657,-0.02029,-0.04013,-0.09918,-0.01114,-0.03128,-0.05127,-0.01297,-0.0296,-4.84161,-0.06195,0.12604,0.0325,-0.02777,-0.01419,0.01907,0.04089
7.6575,-0.02411,-0.03296,-0.08789,-0.01114,-0.03143,-0.05234,-0.01282,-0.05386,-4.78119,-0.06012,0.11429,0.02365,-0.02594,-0.01434,0.02029,0.0235
7.658,-0.02228,-0.02991,-0.06958,-0.01068,-0.02838,-0.05142,-0.01556,-0.06439,-4.69818,-0.06241,0.05722,0.00046,-0.0238,-0.0148,0.01984,0.04486
7.6585,-0.01801,-0.03952,-0.03693,-0.01053,-0.02701,-0.04852,-0.02014,-0.05432,-4.60831,-0.07187,-0.02411,-0.01511,-0.01999,-0.01251,0.01755,0.09064
7.659,-0.01236,-0.06424,0.00809,-0.01114,-0.0267,-0.04486,-0.02136,-0.01862,-4.52469,-0.08316,-0.10208,-0.01709,-0.01678,-0.00656,0.01801,0.12512
7.6595,-0.00702,-0.08667,0.06165,-0.0119,-0.0267,-0.04349,-0.01953,0.03052,-4.44443,-0.09872,-0.14587,-0.01343,-0.01617,-0.00168,0.02182,0.13931
7.66,-0.00381,-0.08438,0.11261,-0.01266,-0.02625,-0.0441,-0.01633,0.05844,-4.36554,-0.11566,-0.14465,-0.01312,-0.01678,-0.00397,0.02609,0.14236
7.6605,-0.0061,-0.06042,0.14572,-0.01328,-0.02609,-0.04486,-0.01465,0.04364,-4.30435,-0.12711,-0.10971,-0.01556,-0.0148,-0.0116,0.02731,0.13367
7.661,-0.01236,-0.03464,0.15152,-0.01373,-0.02731,-0.04379,-0.01617,0.00702,-4.27032,-0.11978,-0.05966,-0.01648,-0.01221,-0.01846,0.02731,0.12344
7.6615,-0.01816,-0.02243,0.12817,-0.01389,-0.02884,-0.04242,-0.01923,-0.01526,-4.26086,-0.09216,-0.01236,-0.01465,-0.01114,-0.02274,0.02609,0.13184
7.662,-0.01755,-0.01877,0.08209,-0.01373,-0.02991,-0.03967,-0.01923,-0.01526,-4.29001,-0.05569,0.01526,-0.00931,-0.00961,-0.02548,0.02625,0.14847
7.6625,-0.00839,-0.0116,0.03006,-0.01266,-0.0293,-0.03922,-0.01663,-0.01114,-4.37347,-0.02319,0.02228,-0.0061,-0.009,-0.02777,0.02716,0.13519
7.663,0.00366,-0.00183,-0.01602,-0.01205,-0.02853,-0.03799,-0.0148,-0.01144,-4.46136,0.00229,0.02457,-0.00641,-0.00931,-0.02853,0.02869,0.07446
7.6635,0.01083,0.00244,-0.05569,-0.01205,-0.02731,-0.03769,-0.01556,-0.00931,-4.46838,0.02823,0.02975,-0.009,-0.01083,-0.02747,0.03036,-0.0087
7.664,0.00793,-0.00153,-0.09521,-0.01343,-0.02533,-0.03799,-0.01648,0.0,-4.40582,0.05157,0.03494,-0.00839,-0.01114,-0.02838,0.02991,-0.08072
7.6645,-0.00229,-0.00732,-0.13275,-0.0148,-0.02396,-0.03815,-0.01724,0.00854,-4.35379,0.06622,0.03204,-0.00427,-0.00732,-0.02991,0.02701,-0.10864
7.665,-0.01083,-0.01404,-0.16144,-0.01556,-0.02396,-0.03998,-0.01556,0.00824,-4.33411,0.0708,0.01724,-0.00137,0.00015,-0.02899,0.02304,-0.06042
7.6655,-0.00992,-0.0264,-0.17319,-0.0145,-0.02686,-0.04211,-0.01282,0.00122,-4.31091,0.07385,-0.00336,-0.0029,0.00595,-0.02518,0.01892,0.04318
7.666,-0.00107,-0.04303,-0.16815,-0.0145,-0.0293,-0.04517,-0.0119,-0.00671,-4.22134,0.08423,-0.01511,-0.00626,0.00778,-0.01923,0.01755,0.1152
7.6665,0.00534,-0.05814,-0.14557,-0.01663,-0.03052,-0.04898,-0.01404,-0.00977,-3.70682,0.09766,-0.00793,-0.00549,0.00549,-0.01587,0.01984,0.09979
7.667,0.00595,-0.06332,-0.10391,-0.0177,-0.03143,-0.05356,-0.01617,-0.00885,-2.13486,0.09781,0.01572,-0.00092,-0.00031,-0.01663,0.02274,0.04684
7.6675,0.00336,-0.06104,-0.04684,-0.0177,-0.03128,-0.05676,-0.01694,-0.0061,0.42328,0.08286,0.03265,0.00076,-0.00534,-0.02151,0.02106,0.03799
7.668,0.0032,-0.05539,0.02197,-0.01709,-0.0322,-0.05768,-0.01694,-0.00336,2.73865,0.05753,0.02792,-0.00336,-0.00748,-0.02655,0.01755,0.07095
7.6685,0.00473,-0.05142,0.1004,-0.01587,-0.03052,-0.05508,-0.01694,-0.00153,3.84964,0.03342,0.00366,-0.00809,-0.0061,-0.02823,0.01404,0.08469
7.669,0.00717,-0.05356,0.1738,-0.01526,-0.02823,-0.05066,-0.01724,-0.00092,3.9296,0.01648,-0.03433,-0.01022,-0.00107,-0.02396,0.01251,0.04028
7.6695,0.00732,-0.05798,0.21545,-0.01495,-0.02563,-0.04608,-0.01541,-0.00076,3.48709,0.01419,-0.0705,-0.01038,0.00122,-0.01801,0.01236,-0.04822
7.67,0.00885,-0.06012,0.20065,-0.01465,-0.0235,-0.04227,-0.01282,-0.00137,2.50824,0.0238,-0.0766,-0.00992,-0.00336,-0.01831,0.01114,-0.11276
7.6705,0.00916,-0.05463,0.14893,-0.01511,-0.02319,-0.04166,-0.01236,-0.00061,1.10016,0.02701,-0.04486,-0.00763,-0.01434,-0.02274,0.0087,-0.08682
7.671,0.00687,-0.04562,0.10452,-0.01526,-0.02396,-0.0441,-0.01297,-0.00031,0.13687,0.01129,0.00092,-0.00214,-0.0264,-0.02411,0.0058,-0.00275
7.6715,0.00427,-0.03876,0.08026,-0.0148,-0.02411,-0.04745,-0.01465,-0.00076,0.25879,-0.01968,0.03326,0.00153,-0.03555,-0.02014,0.00275,0.03296
7.672,0.00473,-0.03632,0.05569,-0.01328,-0.02502,-0.04944,-0.01587,-0.00122,0.92819,-0.04868,0.047,0.00137,-0.04303,-0.01678,0.00412,-0.02487
7.6725,0.00931,-0.03784,0.01556,-0.01328,-0.02655,-0.04883,-0.01572,-0.00412,1.26892,-0.06577,0.05234,-0.00107,-0.05051,-0.01663,0.00381,-0.1181
7.673,0.01404,-0.04013,-0.02548,-0.01404,-0.02899,-0.04822,-0.01556,-0.00519,1.18286,-0.06927,0.05386,-0.00092,-0.05814,-0.01907,0.00229,-0.18097
7.6735,0.01785,-0.04211,-0.05386,-0.01297,-0.0296,-0.04868,-0.01617,-0.00381,1.11771,-0.06973,0.05447,-0.00092,-0.06653,-0.02029,-0.00046,-0.21957
7.674,0.0209,-0.04562,-0.07019,-0.01221,-0.0296,-0.04852,-0.01724,-0.00031,1.25244,-0.07172,0.05997,-0.0032,-0.07568,-0.02106,-0.00366,-0.25269
7.6745,0.0238,-0.05432,-0.08057,-0.01205,-0.02991,-0.04745,-0.01801,-0.00015,1.42273,-0.07263,0.07889,-0.00656,-0.08255,-0.02258,-0.00427,-0.25864
7.675,0.02533,-0.07233,-0.08957,-0.01266,-0.02975,-0.04501,-0.01587,-0.0029,1.53656,-0.06622,0.10712,-0.00732,-0.08224,-0.02197,-0.00214,-0.21851
7.6755,0.02731,-0.10056,-0.09247,-0.01358,-0.0293,-0.04456,-0.01404,-0.00443,1.64261,-0.05585,0.11887,-0.00626,-0.07385,-0.01938,0.00015,-0.16541
7.676,0.0296,-0.13046,-0.09354,-0.01328,-0.03067,-0.04578,-0.01358,-0.0032,1.71906,-0.05508,0.10147,-0.00656,-0.0618,-0.01587,-0.00137,-0.15106
7.6765,0.03174,-0.14465,-0.09201,-0.01282,-0.03021,-0.04669,-0.01434,-0.00183,1.67404,-0.06516,0.06577,-0.00671,-0.05219,-0.01511,-0.00122,-0.17197
7.677,0.0293,-0.13351,-0.09033,-0.01343,-0.03006,-0.04684,-0.01602,-0.00305,1.52588,-0.07187,0.03311,-0.00397,-0.04913,-0.01755,0.00092,-0.1799
7.6775,0.02197,-0.10254,-0.09354,-0.0148,-0.03021,-0.0473,-0.01709,-0.00504,1.40106,-0.05585,0.00946,0.00061,-0.04974,-0.02213,0.00626,-0.15091
7.678,0.01541,-0.07202,-0.10422,-0.01572,-0.03098,-0.04868,-0.01678,-0.00824,1.35132,-0.02213,-0.01007,0.0032,-0.05081,-0.02563,0.00824,-0.11261
7.6785,0.01083,-0.05173,-0.11673,-0.01572,-0.03174,-0.05219,-0.01617,-0.01083,1.31668,0.009,-0.03418,0.00198,-0.05096,-0.02655,0.00595,-0.10559
7.679,0.00824,-0.03876,-0.1236,-0.01465,-0.03281,-0.05341,-0.01602,-0.0116,1.28311,0.02716,-0.06058,-0.00076,-0.04913,-0.02579,0.00122,-0.13657
7.6795,0.00504,-0.02853,-0.11719,-0.01373,-0.03342,-0.05127,-0.01511,-0.00946,1.32568,0.03189,-0.08102,-0.00168,-0.0473,-0.02289,-0.00351,-0.15503
7.68,0.00214,-0.02136,-0.10223,-0.01266,-0.03525,-0.04776,-0.01389,-0.00626,1.44882,0.0325,-0.09567,0.00076,-0.04318,-0.01968,-0.00687,-0.10864
7.6805,0.0,-0.01831,-0.08942,-0.01205,-0.03693,-0.04684,-0.01328,-0.00351,1.55106,0.0383,-0.10849,0.00427,-0.03738,-0.0177,-0.00443,-0.00534
7.681,-0.00305,-0.01633,-0.07904,-0.01266,-0.03769,-0.04745,-0.01282,-0.00366,1.5802,0.04608,-0.11734,0.00763,-0.03098,-0.01541,0.00244,0.07401
7.6815,-0.00519,-0.0119,-0.06821,-0.01297,-0.0383,-0.04761,-0.01358,-0.00443,1.57669,0.05203,-0.11017,0.00854,-0.0264,-0.01328,0.01404,0.06348
7.682,-0.00656,-0.00488,-0.05295,-0.01266,-0.03891,-0.04639,-0.01373,-0.00412,1.57349,0.05249,-0.08606,0.00488,-0.02518,-0.01068,0.02731,0.0032
7.6825,-0.0061,0.00305,-0.03586,-0.01144,-0.04028,-0.0444,-0.01373,-0.00092,1.56128,0.04822,-0.05585,0.00076,-0.0238,-0.00717,0.03876,-0.00977
7.683,-0.00519,0.01038,-0.01877,-0.01114,-0.04074,-0.04318,-0.01389,0.00107,1.53229,0.04608,-0.03891,-0.00229,-0.02029,-0.00626,0.04379,0.04715
7.6835,-0.00504,0.01114,-0.00412,-0.01038,-0.03937,-0.04211,-0.01419,0.00122,1.50848,0.05066,-0.03967,-0.00244,-0.01526,-0.00977,0.04349,0.09171
7.684,-0.00656,0.00488,0.00641,-0.00931,-0.03662,-0.04044,-0.01419,0.00153,1.49979,0.05661,-0.04791,-0.00183,-0.01038,-0.01541,0.03693,0.05814
7.6845,-0.00778,-0.00565,0.01312,-0.00824,-0.03357,-0.03952,-0.01434,0.00275,1.49506,0.05493,-0.05066,-0.00122,-0.00595,-0.02014,0.02777,-0.00473
7.685,-0.00809,-0.01587,0.01343,-0.00717,-0.03021,-0.04089,-0.01511,0.00336,1.48788,0.03708,-0.0444,0.0,-0.00305,-0.02151,0.02411,-0.00351
7.6855,-0.00778,-0.02228,0.00763,-0.00641,-0.02914,-0.0441,-0.01465,0.00229,1.48163,0.01129,-0.0386,0.00183,0.00031,-0.02243,0.02441,0.0618
7.686,-0.00854,-0.02411,0.00031,-0.00488,-0.0296,-0.04623,-0.01419,0.00076,1.46912,-0.00992,-0.03464,0.00351,0.00351,-0.02213,0.0206,0.0824
7.6865,-0.01114,-0.02243,-0.00702,-0.00443,-0.03113,-0.04654,-0.01373,0.0,1.44455,-0.02106,-0.03159,0.00275,0.00839,-0.0209,0.00626,-0.0177
7.687,-0.01221,-0.02197,-0.0174,-0.00381,-0.03067,-0.04623,-0.01389,-0.00061,1.42075,-0.03082,-0.03128,0.0,0.01572,-0.01907,-0.01358,-0.17776
7.6875,-0.0116,-0.02182,-0.04181,-0.0032,-0.02853,-0.04349,-0.01541,-0.00061,1.41266,-0.03998,-0.03098,-0.00122,0.02197,-0.01816,-0.02823,-0.27115
7.688,-0.01129,-0.02182,-0.08255,-0.00229,-0.02701,-0.04288,-0.01511,0.00046,1.40442,-0.04593,-0.03067,-0.00031,0.02396,-0.01907,-0.03143,-0.25818
7.6885,-0.01083,-0.02243,-0.12695,-0.00092,-0.02914,-0.04288,-0.01419,0.00397,1.37009,-0.04791,-0.02655,0.00259,0.02396,-0.02014,-0.03204,-0.21774
7.689,-0.01251,-0.02197,-0.15808,-0.00015,-0.03006,-0.04456,-0.01404,0.00732,1.31027,-0.04639,-0.0174,0.0058,0.02594,-0.02213,-0.03647,-0.23331
7.6895,-0.01511,-0.02289,-0.16998,-0.00046,-0.02945,-0.04623,-0.01419,0.00961,1.2413,-0.04669,-0.00595,0.00793,0.02914,-0.02487,-0.04089,-0.28244
7.69,-0.01816,-0.02365,-0.16815,-0.00061,-0.02914,-0.04807,-0.01373,0.01007,1.15906,-0.0441,-0.00336,0.00717,0.03204,-0.02701,-0.03754,-0.26306
7.6905,-0.02182,-0.02518,-0.15335,-0.00183,-0.03204,-0.04898,-0.01266,0.00961,1.04874,-0.04105,-0.00763,0.00427,0.03021,-0.02869,-0.02609,-0.12955
7.691,-0.02472,-0.02853,-0.11414,-0.00168,-0.03677,-0.04837,-0.0116,0.00748,0.91919,-0.03906,-0.01389,0.00198,0.02365,-0.02914,-0.01984,0.03021
7.6915,-0.02777,-0.03128,-0.0499,-0.00168,-0.03998,-0.04623,-0.01221,0.00381,0.78674,-0.04181,-0.01785,0.00168,0.01541,-0.02975,-0.02533,0.08224
7.692,-0.0293,-0.03265,0.02594,-0.00137,-0.04211,-0.04471,-0.01236,0.00046,0.63934,-0.04166,-0.0235,0.00427,0.00885,-0.02869,-0.03235,0.01129
7.6925,-0.02792,-0.03281,0.09003,-0.00153,-0.04532,-0.04486,-0.01266,-0.0032,0.47195,-0.04456,-0.03418,0.00687,0.00351,-0.02701,-0.03082,-0.07965
7.693,-0.02335,-0.03113,0.12497,-0.00305,-0.0499,-0.04471,-0.01312,-0.00702,0.30136,-0.04944,-0.05478,0.00534,-0.00259,-0.02792,-0.01831,-0.10773
7.6935,-0.01678,-0.03006,0.12848,-0.00427,-0.05447,-0.0444,-0.01389,-0.00977,0.13306,-0.06912,-0.08743,0.0,-0.01114,-0.03113,-0.00732,-0.08652
7.694,-0.00885,-0.03189,0.10635,-0.00488,-0.05554,-0.04593,-0.01434,-0.01114,-0.03876,-0.09857,-0.12833,-0.00549,-0.02243,-0.03525,-0.00046,-0.07248
7.6945,-0.00229,-0.03525,0.06851,-0.00519,-0.05219,-0.04745,-0.01526,-0.01144,-0.20859,-0.13107,-0.16403,-0.00671,-0.03784,-0.03876,0.01053,-0.08743
7.695,0.00412,-0.03799,0.0264,-0.00549,-0.04715,-0.04745,-0.01587,-0.01038,-0.35995,-0.1561,-0.18341,-0.0029,-0.0563,-0.04166,0.03326,-0.11032
7.6955,0.00702,-0.03983,-0.00992,-0.00549,-0.04349,-0.04654,-0.01587,-0.00717,-0.48309,-0.1738,-0.18753,0.00137,-0.07477,-0.04471,0.05554,-0.10635
7.696,0.00549,-0.0412,-0.0293,-0.00504,-0.0412,-0.04471,-0.01572,-0.00214,-0.5864,-0.18402,-0.18219,0.00275,-0.08926,-0.04623,0.05997,-0.06851
7.6965,0.00168,-0.04242,-0.0322,-0.00366,-0.03952,-0.04364,-0.01587,0.00076,-0.68771,-0.18585,-0.15839,0.00031,-0.09918,-0.04578,0.04501,-0.03433
7.697,-0.00244,-0.04272,-0.03204,-0.00336,-0.03967,-0.04272,-0.01556,0.00137,-0.76706,-0.17456,-0.11047,-0.00443,-0.1059,-0.04684,0.02686,-0.03769
7.6975,-0.00626,-0.04303,-0.03693,-0.00351,-0.03998,-0.04166,-0.01511,0.00031,-0.72815,-0.15686,-0.05295,-0.00778,-0.11185,-0.04776,0.02045,-0.05478
7.698,-0.00885,-0.04425,-0.04517,-0.00473,-0.03922,-0.0412,-0.0145,0.00076,-0.46005,-0.11566,-0.00259,-0.00626,-0.11581,-0.047,0.01984,-0.03632
7.6985,-0.01022,-0.04425,-0.05127,-0.00778,-0.03723,-0.04166,-0.01465,0.00107,0.01984,-0.047,0.03738,0.00046,-0.1178,-0.04211,0.01862,0.02502
7.699,-0.01175,-0.04364,-0.05432,-0.01175,-0.03372,-0.04379,-0.01617,0.00031,0.51941,0.04135,0.07263,0.00656,-0.1178,-0.03632,0.01862,0.0882
7.6995,-0.01389,-0.04135,-0.0563,-0.01755,-0.03113,-0.04562,-0.01694,-0.00092,0.86563,0.12009,0.09552,0.00793,-0.11475,-0.0296,0.02396,0.12161
7.7,-0.01602,-0.03754,-0.05692,-0.02243,-0.03006,-0.04532,-0.01572,0.0,1.07864,0.16861,0.0975,0.00458,-0.10788,-0.02136,0.02731,0.11353
7.7005,-0.01633,-0.03494,-0.05585,-0.02411,-0.02899,-0.04364,-0.01389,0.00015,1.29654,0.2034,0.08835,-0.00046,-0.10101,-0.01465,0.02258,0.05371
7.701,-0.01617,-0.03311,-0.05264,-0.01953,-0.02487,-0.04196,-0.01282,-0.00015,1.5683,0.23438,0.0827,-0.0029,-0.09308,-0.00992,0.01495,-0.03708
7.7015,-0.01587,-0.03235,-0.04471,-0.01236,-0.01938,-0.04166,-0.01343,-0.00122,1.8132,0.25055,0.07553,-0.00244,-0.08362,-0.00717,0.0119,-0.09766
7.702,-0.01801,-0.03174,-0.03235,-0.00809,-0.01556,-0.04242,-0.01495,-0.00046,1.96365,0.23773,0.06256,-0.00122,-0.07019,-0.00473,0.01373,-0.09048
7.7025,-0.02014,-0.0322,-0.01938,-0.00763,-0.01465,-0.04395,-0.01541,-0.00031,2.03812,0.19043,0.05386,-0.00122,-0.0528,-0.00412,0.01022,-0.05371
7.703,-0.02182,-0.03296,-0.00992,-0.00549,-0.01511,-0.04532,-0.01511,-0.00107,2.08435,0.1326,0.0531,-0.00046,-0.03418,-0.00412,0.00473,-0.04852
7.7035,-0.0235,-0.03448,-0.0032,0.00519,-0.01602,-0.04562,-0.01465,-0.00183,2.09961,0.08041,0.04929,-0.00061,-0.01755,-0.00351,0.00229,-0.08224
7.704,-0.02472,-0.03662,0.00198,0.01999,-0.0145,-0.04654,-0.01434,-0.00183,2.07382,0.03571,0.03723,-0.00244,-0.0058,-0.00122,0.00443,-0.11551
7.7045,-0.02457,-0.03815,0.00549,0.02457,-0.01251,-0.0473,-0.0148,-0.00275,2.03094,-0.00031,0.02167,-0.00534,-0.00031,0.0029,0.00931,-0.12115
7.705,-0.02228,-0.03922,0.00748,0.01083,-0.01068,-0.04715,-0.01526,-0.00381,2.00012,-0.02533,0.00366,-0.00977,0.00153,0.00732,0.01389,-0.10086
7.7055,-0.01907,-0.03937,0.00641,-0.00977,-0.01236,-0.04761,-0.01434,-0.00412,1.97235,-0.04181,-0.01587,-0.00992,0.00092,0.01022,0.01663,-0.06409
7.706,-0.01678,-0.04166,-0.00015,-0.0209,-0.01678,-0.04883,-0.01434,-0.00427,1.94275,-0.0531,-0.03326,-0.00412,-0.00275,0.00961,0.01648,-0.01984
7.7065,-0.01633,-0.04303,-0.01328,-0.01816,-0.02151,-0.05081,-0.01419,-0.00473,1.92017,-0.05783,-0.03555,0.00412,-0.00809,0.00671,0.0116,0.01236
7.707,-0.01724,-0.0441,-0.02502,-0.01266,-0.02518,-0.05173,-0.01419,-0.00595,1.89438,-0.05249,-0.02502,0.01083,-0.01373,0.00214,0.00702,0.01724
7.7075,-0.01602,-0.0441,-0.03387,-0.00977,-0.02747,-0.05127,-0.01526,-0.00702,1.84662,-0.05035,-0.0116,0.01205,-0.01907,-0.00366,0.00473,0.00214
7.708,-0.01389,-0.04471,-0.04044,-0.00931,-0.03052,-0.05066,-0.01587,-0.00687,1.77551,-0.0589,0.00015,0.0087,-0.02151,-0.00885,0.00275,-0.0119
7.7085,-0.01221,-0.04486,-0.04822,-0.009,-0.03342,-0.04913,-0.01556,-0.00595,1.69479,-0.07736,0.01099,0.00427,-0.02167,-0.01175,-0.00092,-0.01587
7.709,-0.00961,-0.04395,-0.0528,-0.01007,-0.03632,-0.04837,-0.01465,-0.00519,1.61804,-0.08942,0.01709,0.00076,-0.01785,-0.00961,-0.00626,-0.01709
7.7095,-0.00519,-0.04059,-0.05249,-0.01282,-0.03769,-0.04883,-0.01389,-0.00549,1.55731,-0.09018,0.01312,0.0,-0.01022,-0.00427,-0.00473,-0.01266
7.71,-0.00076,-0.03708,-0.04883,-0.01404,-0.04028,-0.047,-0.01297,-0.00488,1.50375,-0.07843,0.00031,0.00015,-0.00214,0.00015,0.00671,0.00458
7.7105,0.00137,-0.03494,-0.04623,-0.01175,-0.04211,-0.04471,-0.01221,-0.0029,1.44119,-0.06073,-0.02121,-0.00061,0.00122,0.00046,0.01587,0.02411
7.711,0.00153,-0.03387,-0.04745,-0.00824,-0.04395,-0.04364,-0.01205,-0.00107,1.37207,-0.04318,-0.04944,-0.00443,-0.00473,-0.00107,0.0119,0.02274
7.7115,0.00198,-0.03265,-0.04913,-0.00748,-0.04562,-0.04501,-0.0119,0.0,1.31439,-0.02838,-0.07523,-0.009,-0.0177,-0.00702,-0.00031,0.00031
7.712,0.00443,-0.03174,-0.04929,-0.00992,-0.04837,-0.04654,-0.01251,-0.00046,1.2674,-0.01877,-0.08179,-0.01038,-0.03067,-0.01526,-0.00565,0.00916
7.7125,0.00565,-0.03235,-0.04868,-0.01343,-0.05081,-0.04822,-0.01251,-0.00076,1.21384,-0.0145,-0.05554,-0.00595,-0.04059,-0.02762,0.00092,0.1059
7.713,0.00443,-0.03326,-0.04974,-0.01602,-0.05402,-0.04745,-0.0119,-0.00153,1.14594,-0.009,-0.009,0.00046,-0.04776,-0.04364,0.01053,0.24078
7.7135,0.00275,-0.03418,-0.05127,-0.01694,-0.05692,-0.04745,-0.0116,-0.0032,1.07376,-0.0029,0.03143,0.00565,-0.05264,-0.05966,0.01694,0.27405
7.714,0.00092,-0.03448,-0.05157,-0.01663,-0.05844,-0.04913,-0.0116,-0.00534,1.0054,-0.00519,0.04593,0.00839,-0.05539,-0.06943,0.01953,0.15091
7.7145,-0.00046,-0.0351,-0.04959,-0.01511,-0.0589,-0.05112,-0.01205,-0.00717,0.93491,-0.01541,0.0386,0.01068,-0.05569,-0.06805,0.02106,-0.02243
7.715,-0.00092,-0.03632,-0.04776,-0.01419,-0.05844,-0.05112,-0.01221,-0.00824,0.85205,-0.03128,0.02609,0.01007,-0.0528,-0.06073,0.02502,-0.13672
7.7155,-0.00092,-0.03647,-0.0473,-0.01312,-0.05585,-0.05066,-0.01221,-0.00961,0.7579,-0.0351,0.0061,0.00565,-0.04868,-0.05341,0.03342,-0.18127
7.716,-0.00122,-0.03662,-0.04715,-0.01343,-0.05157,-0.0499,-0.01282,-0.01251,0.66437,-0.03723,-0.04349,0.00214,-0.04547,-0.04898,0.04425,-0.15991
7.7165,-0.00198,-0.03677,-0.04715,-0.01312,-0.04608,-0.04868,-0.01282,-0.01541,0.57892,-0.04303,-0.12085,0.00259,-0.04395,-0.04715,0.04486,-0.065
7.717,-0.00198,-0.03662,-0.04639,-0.01282,-0.03998,-0.04807,-0.01144,-0.01663,0.49423,-0.05798,-0.17471,0.00626,-0.04074,-0.04501,0.02899,0.02792
7.7175,-0.0029,-0.03571,-0.04547,-0.01205,-0.03616,-0.04761,-0.01083,-0.01694,0.39825,-0.07172,-0.14969,0.00916,-0.03281,-0.0412,0.00198,0.00931
7.718,-0.00412,-0.03418,-0.04486,-0.01129,-0.03433,-0.04807,-0.0119,-0.01511,0.30502,-0.08087,-0.0621,0.00992,-0.01923,-0.03235,-0.03143,-0.09872
7.7185,-0.00671,-0.03357,-0.04562,-0.00961,-0.03174,-0.04868,-0.01236,-0.01175,0.23102,-0.08102,0.00671,0.00809,-0.00549,-0.02319,-0.0795,-0.17181
7.719,-0.00961,-0.03433,-0.04608,-0.00916,-0.02823,-0.04776,-0.01099,-0.00778,0.16251,-0.08224,-0.00351,0.00565,0.00366,-0.01862,-0.13992,-0.16296
7.7195,-0.01099,-0.03494,-0.04471,-0.00793,-0.02258,-0.04684,-0.00916,-0.00473,0.0766,-0.07996,-0.06836,0.00549,0.0061,-0.01938,-0.19028,-0.12787
7.72,-0.01099,-0.03326,-0.04181,-0.00854,-0.0177,-0.04639,-0.009,-0.00748,-0.02228,-0.06744,-0.11307,0.01007,0.00259,-0.01648,-0.20126,-0.09552
7.7205,-0.01007,-0.03143,-0.04074,-0.01129,-0.01526,-0.047,-0.00916,-0.01465,-0.11536,-0.04669,-0.09628,0.01495,-0.00259,-0.00671,-0.17731,-0.03281
7.721,-0.00992,-0.03174,-0.04044,-0.01434,-0.01556,-0.0473,-0.01038,-0.01907,-0.18585,-0.03235,-0.03632,0.01404,-0.00931,0.00259,-0.14252,0.07263
7.7215,-0.0116,-0.03464,-0.0415,-0.01465,-0.01648,-0.0473,-0.01068,-0.01328,-0.23041,-0.04776,0.03006,0.00793,-0.01648,0.00427,-0.08545,0.15457
7.722,-0.01343,-0.03693,-0.04166,-0.01373,-0.01556,-0.04715,-0.01038,-0.00351,-0.26505,-0.08331,0.08087,0.00336,-0.0235,-0.0029,0.03967,0.14236
7.7225,-0.0145,-0.03769,-0.04105,-0.01266,-0.01526,-0.04761,-0.01068,0.00046,-0.30182,-0.1178,0.1062,0.00275,-0.03159,-0.01221,0.20569,0.06592
7.723,-0.01495,-0.03784,-0.04166,-0.01129,-0.01587,-0.04837,-0.01068,-0.00244,-0.32913,-0.1268,0.09323,0.0032,-0.03876,-0.02045,0.28473,0.01938
7.7235,-0.01328,-0.03983,-0.04257,-0.01114,-0.0177,-0.0502,-0.01068,-0.00763,-0.34119,-0.11444,0.04395,0.00381,-0.04562,-0.02609,0.20386,0.0444
7.724,-0.0119,-0.0412,-0.04257,-0.01068,-0.01831,-0.05051,-0.01038,-0.00977,-0.35751,-0.07904,-0.00793,0.00214,-0.04959,-0.02762,0.05692,0.08514
7.7245,-0.01083,-0.04257,-0.0412,-0.01068,-0.01694,-0.05127,-0.01068,-0.00977,-0.39154,-0.03418,-0.03403,-0.00168,-0.04944,-0.02304,-0.01236,0.07065
7.725,-0.009,-0.04425,-0.03906,-0.01068,-0.01373,-0.05173,-0.01068,-0.00702,-0.43381,0.01205,-0.04425,-0.00671,-0.04333,-0.01465,0.02716,0.00488
7.7255,-0.00595,-0.04562,-0.03754,-0.01099,-0.01022,-0.05188,-0.00977,-0.00244,-0.47134,0.0444,-0.06454,-0.00931,-0.03464,-0.0061,0.09995,-0.06195
7.726,-0.00412,-0.04791,-0.03708,-0.01007,-0.00763,-0.05264,-0.00931,0.00015,-0.49545,0.05676,-0.08438,-0.009,-0.02731,-0.00275,0.13016,-0.11475
7.7265,-0.00473,-0.0499,-0.0386,-0.00931,-0.00885,-0.0531,-0.01068,-0.00031,-0.504,0.0473,-0.07675,-0.00854,-0.02228,-0.00717,0.10376,-0.17578
7.727,-0.00656,-0.05295,-0.03952,-0.00977,-0.0116,-0.05295,-0.01221,-0.00168,-0.49973,0.02701,-0.04227,-0.00809,-0.01984,-0.0177,0.05875,-0.23727
7.7275,-0.00534,-0.0563,-0.03906,-0.01053,-0.01404,-0.05234,-0.01266,-0.00229,-0.50156,0.00671,-0.00793,-0.00443,-0.02136,-0.02716,0.03494,-0.24643
7.728,-0.00183,-0.05905,-0.03647,-0.01038,-0.01419,-0.05249,-0.01129,-0.00153,-0.53314,-0.0058,0.01114,0.00198,-0.02655,-0.0296,0.04211,-0.19531
7.7285,0.00137,-0.06165,-0.03464,-0.00961,-0.01587,-0.05325,-0.01114,-0.00137,-0.59845,-0.00885,0.02304,0.00732,-0.03128,-0.01907,0.05585,-0.14328
7.729,0.00275,-0.06393,-0.03326,-0.00961,-0.01923,-0.05371,-0.0116,-0.00198,-0.67078,-0.00458,0.04639,0.009,-0.03311,0.00427,0.05722,-0.13107
7.7295,0.00275,-0.06592,-0.03235,-0.01068,-0.02258,-0.05356,-0.01205,-0.00366,-0.7225,0.00961,0.07858,0.0061,-0.03265,0.03342,0.04288,-0.13138
7.73,0.0029,-0.0676,-0.03235,-0.01144,-0.02457,-0.05234,-0.01144,-0.00458,-0.74738,0.03174,0.10757,0.00061,-0.03174,0.05768,0.01877,-0.10559
7.7305,0.00427,-0.06943,-0.03479,-0.01236,-0.02823,-0.05188,-0.01022,-0.00397,-0.76691,0.04791,0.12344,-0.00244,-0.03113,0.06973,-0.01526,-0.06409
7.731,0.00519,-0.07172,-0.03662,-0.01114,-0.03403,-0.05249,-0.01007,-0.00031,-0.79712,0.04807,0.13031,-0.00031,-0.0267,0.07233,-0.05142,-0.04089
7.7315,0.00519,-0.07401,-0.03693,-0.00992,-0.03906,-0.05478,-0.01038,0.00397,-0.82382,0.02731,0.12695,0.0061,-0.02029,0.07111,-0.07782,-0.04227
7.732,0.00473,-0.07675,-0.03525,-0.00992,-0.04181,-0.05646,-0.01022,0.00504,-0.83649,0.00092,0.10849,0.0116,-0.01282,0.07095,-0.09079,-0.04868
7.7325,0.0058,-0.07828,-0.03433,-0.01114,-0.04227,-0.05569,-0.00992,0.00183,-0.84778,-0.01587,0.07751,0.01053,-0.00595,0.07309,-0.09857,-0.0502
7.733,0.00702,-0.07874,-0.03433,-0.01251,-0.04196,-0.05417,-0.00961,-0.00198,-0.85815,-0.01968,0.04639,0.00488,0.00061,0.07034,-0.09735,-0.0618
7.7335,0.00702,-0.07919,-0.0354,-0.01343,-0.0412,-0.05188,-0.01007,-0.00381,-0.82962,-0.01923,0.02457,-0.00015,0.00519,0.05569,-0.06348,-0.09033
7.734,0.00626,-0.07935,-0.03555,-0.01312,-0.04272,-0.05051,-0.01144,-0.00198,-0.73059,-0.02548,0.00946,-0.00061,0.00885,0.03036,0.01083,-0.11948
7.7345,0.00626,-0.08011,-0.03555,-0.01251,-0.04608,-0.04974,-0.01099,0.00031,-0.61295,-0.03128,0.00076,0.00183,0.00977,0.0032,0.08469,-0.1268
7.735,0.00671,-0.08209,-0.03494,-0.01205,-0.04944,-0.04959,-0.01007,0.00137,-0.6633,-0.03448,-0.00122,0.00427,0.00763,-0.02075,0.09323,-0.10498
7.7355,0.00809,-0.08347,-0.03479,-0.01221,-0.05127,-0.05112,-0.00961,0.00183,-1.06216,-0.03021,-0.00366,0.00305,0.00229,-0.04608,0.0322,-0.06897
7.736,0.00824,-0.08469,-0.03403,-0.01358,-0.05081,-0.05203,-0.00992,0.00229,-1.6925,-0.02609,-0.01617,0.0,-0.00381,-0.07553,-0.02625,-0.03998
7.7365,0.00854,-0.08423,-0.03372,-0.01404,-0.04959,-0.05157,-0.01083,0.00244,-2.13974,-0.02853,-0.03769,-0.00366,-0.00885,-0.10727,-0.04074,-0.02457
7.737,0.00961,-0.08316,-0.0325,-0.01419,-0.04791,-0.04944,-0.01282,0.00137,-2.1492,-0.03876,-0.05646,-0.00519,-0.0116,-0.13657,-0.05722,-0.01633
7.7375,0.01068,-0.08209,-0.03143,-0.01434,-0.04501,-0.04868,-0.01419,0.00015,-1.85394,-0.05692,-0.05783,-0.00397,-0.0119,-0.15778,-0.12665,-0.00824
7.738,0.0116,-0.08163,-0.03098,-0.01343,-0.04135,-0.04913,-0.01328,0.00046,-1.50192,-0.06607,-0.04501,-0.00412,-0.01373,-0.16891,-0.19547,0.00259
7.7385,0.01266,-0.08179,-0.03204,-0.01205,-0.03769,-0.04959,-0.0116,0.00214,-1.25671,-0.06104,-0.03067,-0.0061,-0.01984,-0.17136,-0.15625,0.01343
7.739,0.01389,-0.08163,-0.03311,-0.01068,-0.03616,-0.04898,-0.01083,0.00427,-1.26099,-0.04532,-0.02243,-0.00992,-0.03128,-0.16556,-0.00916,0.02045
7.7395,0.01358,-0.08057,-0.03342,-0.00885,-0.03708,-0.04807,-0.0116,0.00656,-1.54938,-0.02808,-0.01831,-0.01266,-0.04181,-0.15244,0.11368,0.02441
7.74,0.01343,-0.07889,-0.03235,-0.00793,-0.03586,-0.04822,-0.01205,0.00885,-1.88995,-0.01801,-0.01282,-0.0119,-0.04684,-0.13184,0.13855,0.03677
7.7405,0.01389,-0.07721,-0.0322,-0.00824,-0.03265,-0.04913,-0.01099,0.00809,-1.9899,-0.01556,-0.00504,-0.00732,-0.04639,-0.10742,0.1149,0.06042
7.741,0.01358,-0.07584,-0.03204,-0.00931,-0.02747,-0.05051,-0.01038,0.0058,-1.83334,-0.01328,0.0116,-0.00122,-0.04395,-0.0827,0.08987,0.07935
7.7415,0.01312,-0.07278,-0.0325,-0.01083,-0.02441,-0.0499,-0.01175,0.00443,-1.63483,-0.0119,0.03876,0.00366,-0.04242,-0.05997,0.04364,0.08057
7.742,0.01343,-0.06943,-0.03342,-0.01068,-0.02426,-0.0502,-0.01328,0.00534,-1.54327,-0.01495,0.06271,0.00473,-0.04395,-0.04303,-0.02777,0.07675
7.7425,0.0145,-0.06912,-0.03387,-0.01358,-0.02609,-0.04929,-0.01297,0.00702,-1.51749,-0.02151,0.06042,0.00443,-0.04944,-0.03265,-0.08469,0.08926
7.743,0.0148,-0.0705,-0.03525,-0.02121,-0.02731,-0.04761,-0.01282,0.00763,-1.42761,-0.02014,0.03098,0.00458,-0.05783,-0.02563,-0.10391,0.10712
7.7435,0.01358,-0.0708,-0.03571,-0.03448,-0.0264,-0.0473,-0.01328,0.00595,-1.19141,-0.01312,-0.00854,0.0058,-0.06546,-0.01541,-0.08621,0.08728
7.744,0.01175,-0.06744,-0.03616,-0.04868,-0.02518,-0.04852,-0.01404,0.00473,-0.87524,-0.00458,-0.03952,0.00519,-0.07065,-0.00168,-0.03464,0.00717
7.7445,0.01221,-0.06317,-0.03647,-0.06012,-0.02243,-0.04883,-0.01343,0.00549,-0.66589,-0.00702,-0.05585,-0.00229,-0.07431,0.01251,0.06058,-0.08804
7.745,0.01419,-0.05936,-0.03708,-0.06866,-0.01907,-0.04822,-0.01312,0.00656,-0.72784,-0.02457,-0.05432,-0.01312,-0.07645,0.02472,0.19974,-0.13245
7.7455,0.01526,-0.05798,-0.03647,-0.07584,-0.01511,-0.04868,-0.01328,0.00595,-1.05804,-0.0531,-0.02991,-0.01648,-0.07568,0.03418,0.32547,-0.12024
7.746,0.01404,-0.05707,-0.03632,-0.0737,-0.01053,-0.0499,-0.01343,0.0058,-1.48773,-0.08713,0.01007,-0.01266,-0.07095,0.03693,0.32394,-0.11017
7.7465,0.01251,-0.05554,-0.03662,-0.04654,-0.00778,-0.05112,-0.0119,0.00717,-1.82251,-0.11627,0.04044,-0.00626,-0.06348,0.03143,0.16388,-0.13641
7.747,0.01251,-0.0528,-0.03784,0.00992,-0.009,-0.05173,-0.01099,0.00793,-1.9899,-0.13718,0.03143,-0.00275,-0.0592,0.01633,-0.01587,-0.14359
7.7475,0.01328,-0.05142,-0.03723,0.06638,-0.01053,-0.05096,-0.01144,0.00702,-2.04132,-0.1442,-0.02274,-0.00031,-0.05875,-0.00214,-0.07233,-0.06775
7.748,0.01328,-0.0499,-0.03632,0.08102,-0.01205,-0.05035,-0.01328,0.00565,-2.02789,-0.13901,-0.09445,0.00092,-0.06042,-0.0145,-0.03876,0.03418
7.7485,0.01053,-0.04913,-0.03571,0.0502,-0.01556,-0.05127,-0.01526,0.00397,-1.95862,-0.12863,-0.14603,-0.00076,-0.06378,-0.01389,-0.01266,0.03433
7.749,0.00778,-0.04608,-0.03616,0.00961,-0.02411,-0.05341,-0.01572,0.00183,-1.82816,-0.11368,-0.15778,-0.00488,-0.06866,-0.00534,0.01907,-0.07431
7.7495,0.00626,-0.04257,-0.03586,-0.00549,-0.03464,-0.05417,-0.01556,0.00107,-1.63422,-0.09644,-0.13824,-0.0061,-0.07629,0.00549,0.09338,-0.13947
7.75,0.00641,-0.04028,-0.03433,0.00443,-0.04395,-0.05371,-0.0148,0.00031,-1.39236,-0.08453,-0.11078,-0.0032,-0.0824,0.01755,0.13214,-0.07767
7.7505,0.00717,-0.03983,-0.03265,0.01831,-0.05157,-0.05157,-0.01465,-0.00031,-1.13571,-0.08331,-0.09415,0.00198,-0.08438,0.03036,0.03723,-0.00778
7.751,0.00702,-0.03922,-0.03235,0.01816,-0.05692,-0.05096,-0.01404,-0.00107,-0.91721,-0.09109,-0.09003,0.00488,-0.08377,0.0354,-0.13947,-0.07477
7.7515,0.00534,-0.03769,-0.03311,0.00473,-0.06088,-0.05096,-0.01495,-0.00183,-0.75012,-0.10269,-0.09048,0.00366,-0.08621,0.03128,-0.25848,-0.24612
7.752,0.0029,-0.03479,-0.03372,-0.00793,-0.06042,-0.0502,-0.01587,-0.0029,-0.60043,-0.10971,-0.0856,0.00259,-0.09125,0.02563,-0.28519,-0.3566
7.7525,0.00137,-0.03326,-0.03311,-0.01068,-0.0592,-0.04959,-0.01526,-0.00336,-0.43365,-0.10986,-0.06851,0.00336,-0.09476,0.0238,-0.30029,-0.31555
7.753,0.00153,-0.03311,-0.03265,-0.00381,-0.056,-0.04852,-0.01465,-0.00336,-0.25406,-0.09338,-0.03708,0.00595,-0.09308,0.02609,-0.36835,-0.18509
7.7535,0.00153,-0.03204,-0.03281,0.00946,-0.05234,-0.04761,-0.01495,-0.00183,-0.08133,-0.05814,-0.00214,0.00641,-0.08713,0.02975,-0.46326,-0.09491
7.754,-0.00031,-0.03128,-0.03418,0.02213,-0.04547,-0.04608,-0.01465,-0.00031,0.08408,-0.00702,0.01495,0.00336,-0.07797,0.03494,-0.52597,-0.10254
7.7545,-0.00168,-0.03021,-0.03525,0.02808,-0.0383,-0.04501,-0.01343,0.00061,0.25314,0.04745,0.00198,-0.00198,-0.06775,0.03799,-0.52582,-0.14923
7.755,-0.0032,-0.02914,-0.03555,0.03235,-0.03128,-0.04608,-0.01205,0.00122,0.41733,0.09811,-0.02563,-0.00793,-0.05844,0.03372,-0.41992,-0.13351
7.7555,-0.00427,-0.02716,-0.03525,0.04608,-0.02716,-0.04684,-0.0119,0.00107,0.56229,0.1268,-0.04257,-0.01007,-0.04654,0.02182,-0.13809,-0.0351
7.756,-0.00565,-0.02472,-0.03571,0.07111,-0.02487,-0.04578,-0.01297,0.00198,0.68619,0.12909,-0.04211,-0.00626,-0.03235,0.00549,0.26047,0.0618
7.7565,-0.00748,-0.02167,-0.03662,0.09354,-0.02518,-0.04272,-0.01434,0.00198,0.7959,0.10742,-0.0322,-0.00046,-0.02106,-0.01465,0.53284,0.07294
7.757,-0.00992,-0.02106,-0.03769,0.09857,-0.02579,-0.03967,-0.01389,0.00153,0.89874,0.07156,-0.02045,0.00214,-0.01389,-0.0386,0.5098,0.01205
7.7575,-0.0119,-0.0206,-0.03738,0.07874,-0.02716,-0.03815,-0.01251,0.00198,0.9906,0.04013,-0.01984,0.00015,-0.00854,-0.06165,0.32959,-0.03754
7.758,-0.0119,-0.01984,-0.03677,0.02747,-0.02594,-0.03693,-0.0116,0.00229,1.06598,0.0296,-0.04715,-0.0029,-0.00061,-0.07843,0.25055,-0.03067
7.7585,-0.01175,-0.01938,-0.03632,-0.05371,-0.02319,-0.03738,-0.01099,0.00504,1.13251,0.04166,-0.08804,-0.00366,0.00366,-0.08911,0.30838,0.00473
7.759,-0.01175,-0.01862,-0.03616,-0.14252,-0.01938,-0.03937,-0.01175,0.00626,1.19247,0.05722,-0.09979,-0.00122,0.00076,-0.09354,0.32974,0.01175
7.7595,-0.01114,-0.01678,-0.03525,-0.20538,-0.01572,-0.04074,-0.01282,0.00488,1.24054,0.04593,-0.06531,0.00076,-0.00717,-0.09003,0.22659,-0.02884
7.76,-0.01053,-0.01465,-0.03403,-0.22888,-0.01205,-0.04181,-0.01373,0.00092,1.28326,0.00946,-0.01343,0.00183,-0.0119,-0.07446,0.09644,-0.0824
7.7605,-0.01099,-0.01312,-0.03403,-0.22552,-0.01236,-0.04181,-0.01434,-0.00305,1.32797,-0.02228,0.02426,0.0032,-0.00916,-0.05341,0.0235,-0.09689
7.761,-0.01221,-0.01526,-0.03464,-0.21439,-0.01617,-0.04135,-0.01404,-0.00351,1.36932,-0.01465,0.05035,0.00504,-0.00351,-0.03738,-0.04822,-0.06149
7.7615,-0.01282,-0.01816,-0.03464,-0.19958,-0.02213,-0.04135,-0.01343,-0.00137,1.39206,0.02487,0.06393,0.00702,0.0,-0.03433,-0.1828,-0.00427
7.762,-0.01358,-0.01923,-0.03357,-0.17258,-0.02808,-0.04013,-0.01205,0.00031,1.39511,0.06531,0.04135,0.00946,0.00015,-0.04059,-0.30884,0.0502
7.7625,-0.01419,-0.01694,-0.0325,-0.103,-0.03525,-0.04105,-0.0116,0.00107,1.38153,0.09232,-0.03464,0.0116,-0.00122,-0.04562,-0.31876,0.07843
7.763,-0.01511,-0.0145,-0.03326,0.03418,-0.03983,-0.04333,-0.01312,0.00092,1.36307,0.11078,-0.1236,0.01068,-0.00397,-0.04425,-0.22491,0.04242
7.7635,-0.01663,-0.01556,-0.03342,0.19562,-0.04074,-0.04562,-0.01465,-0.00198,1.34613,0.12604,-0.14832,0.00946,-0.00763,-0.0351,-0.11353,-0.0618
7.764,-0.01694,-0.01831,-0.0322,0.27084,-0.03952,-0.04654,-0.01495,-0.00473,1.32935,0.14374,-0.0856,0.00931,-0.00961,-0.0209,-0.03311,-0.16464
7.7645,-0.01602,-0.01999,-0.03098,0.21118,-0.04211,-0.04623,-0.01495,-0.00763,1.29944,0.16968,0.00671,0.00916,-0.00946,-0.00488,0.01465,-0.21683
7.765,-0.01663,-0.01923,-0.03311,0.09689,-0.04959,-0.04684,-0.01556,-0.00961,1.2616,0.18707,0.06546,0.00458,-0.00946,0.00961,0.03571,-0.25131
7.7655,-0.01724,-0.01938,-0.03494,0.03448,-0.05707,-0.04761,-0.01694,-0.01053,1.22498,0.177,0.07721,-0.00397,-0.0145,0.02182,0.05646,-0.2774
7.766,-0.01968,-0.02045,-0.03601,0.02991,-0.05814,-0.04807,-0.01709,-0.01144,1.19736,0.12833,0.06363,-0.00748,-0.02319,0.03128,0.14267,-0.22644
7.7665,-0.02106,-0.02182,-0.03601,0.01923,-0.05447,-0.0473,-0.01617,-0.01007,1.17691,0.06577,0.04654,-0.00305,-0.03067,0.03632,0.32761,-0.07523
7.767,-0.02136,-0.02197,-0.03586,-0.02899,-0.04929,-0.0444,-0.01465,-0.00687,1.16226,0.00473,0.03601,0.00336,-0.0351,0.03693,0.513,0.07034
7.7675,-0.02228,-0.02151,-0.03632,-0.07782,-0.04425,-0.04135,-0.01266,-0.00275,1.15356,-0.0528,0.03677,0.00458,-0.03677,0.03403,0.54199,0.09735
7.768,-0.02289,-0.02213,-0.03616,-0.07553,-0.03693,-0.03983,-0.01083,0.00076,1.14517,-0.10651,0.04272,0.0,-0.03632,0.02991,0.40146,0.02792
7.7685,-0.02213,-0.02258,-0.03433,-0.03036,-0.03036,-0.03967,-0.00961,0.00244,1.12885,-0.14053,0.04349,-0.0058,-0.03265,0.02579,0.24338,-0.04089
7.769,-0.02121,-0.0235,-0.03342,-0.01541,-0.02853,-0.04105,-0.01083,0.0,1.10474,-0.14099,0.03769,-0.00778,-0.02686,0.02274,0.19394,-0.06699
7.7695,-0.01892,-0.02289,-0.03143,-0.07538,-0.03006,-0.04288,-0.01419,-0.00397,1.08154,-0.10712,0.0296,-0.00549,-0.01999,0.02213,0.22247,-0.06287
7.77,-0.01755,-0.02228,-0.03128,-0.15686,-0.03296,-0.04456,-0.01678,-0.00763,1.05972,-0.06149,0.02335,-0.00107,-0.01511,0.02289,0.23132,-0.03708
7.7705,-0.01663,-0.02136,-0.0322,-0.17044,-0.0351,-0.04639,-0.01785,-0.01053,1.02966,-0.02014,0.01602,0.00336,-0.01373,0.02411,0.19623,0.00443
7.771,-0.01419,-0.02106,-0.03387,-0.0827,-0.0354,-0.0473,-0.01678,-0.01343,0.98038,0.00961,0.00793,0.00946,-0.01648,0.02487,0.16769,0.02457
7.7715,-0.01266,-0.02197,-0.03464,0.0502,-0.03433,-0.04623,-0.01602,-0.01526,0.92072,0.03143,0.00183,0.01556,-0.01938,0.02258,0.17517,-0.01068
7.772,-0.01328,-0.02533,-0.03571,0.13458,-0.03387,-0.04562,-0.01648,-0.01648,0.86838,0.04669,0.00061,0.0174,-0.01938,0.01907,0.19821,-0.06348
7.7725,-0.0148,-0.02869,-0.03754,0.11444,-0.03464,-0.04639,-0.01678,-0.01572,0.83023,0.05264,0.00351,0.01328,-0.01617,0.01556,0.20584,-0.0412
7.773,-0.01434,-0.02899,-0.03708,0.02121,-0.03296,-0.04807,-0.01678,-0.01434,0.79178,0.04456,0.00839,0.00824,-0.01068,0.01343,0.1712,0.07721
7.7735,-0.0116,-0.02747,-0.03403,-0.06729,-0.03128,-0.04898,-0.01755,-0.01251,0.75211,0.03387,0.01724,0.00626,-0.00748,0.01068,0.07736,0.19073
7.774,-0.01053,-0.0267,-0.03082,-0.10666,-0.03006,-0.04852,-0.01846,-0.0116,0.71396,0.02228,0.03311,0.00626,-0.00702,0.00595,-0.05341,0.17273
7.7745,-0.01099,-0.02777,-0.03036,-0.10971,-0.02975,-0.047,-0.01755,-0.00931,0.67413,0.01297,0.04303,0.00549,-0.00717,0.00351,-0.16312,0.03525
7.775,-0.0116,-0.0296,-0.0322,-0.10559,-0.02991,-0.0473,-0.01617,-0.00626,0.6279,0.00641,0.02258,0.00153,-0.00534,0.00671,-0.20752,-0.06149
7.7755,-0.01099,-0.03082,-0.03357,-0.09628,-0.02991,-0.04745,-0.0145,-0.0058,0.578,0.00168,-0.03052,-0.00244,-0.00412,0.01755,-0.19547,-0.00839
7.776,-0.00824,-0.03098,-0.03448,-0.07034,-0.02823,-0.04898,-0.01511,-0.00763,0.52948,-0.00565,-0.08667,0.00015,-0.0058,0.02838,-0.16449,0.10452
7.7765,-0.00702,-0.03082,-0.03418,-0.02426,-0.0264,-0.04959,-0.01495,-0.00931,0.48767,-0.01785,-0.12726,0.00702,-0.00992,0.03006,-0.13474,0.09872
7.777,-0.00671,-0.03021,-0.03311,0.02838,-0.02594,-0.04929,-0.01358,-0.00854,0.45059,-0.05035,-0.16769,0.01114,-0.01617,0.02228,-0.10162,-0.05722
7.7775,-0.0058,-0.03159,-0.03113,0.07248,-0.02884,-0.04929,-0.01266,-0.00641,0.40878,-0.11154,-0.20248,0.00778,-0.02289,0.01572,-0.04013,-0.19913
7.778,-0.00488,-0.03265,-0.03006,0.10681,-0.03296,-0.04929,-0.01251,-0.00412,0.35477,-0.18219,-0.18921,0.00183,-0.0293,0.01984,0.04913,-0.17532
7.7785,-0.00473,-0.03342,-0.03036,0.13443,-0.03448,-0.04944,-0.01282,-0.00244,0.29037,-0.2298,-0.11337,-0.00153,-0.03494,0.03021,0.11414,-0.01312
7.779,-0.00473,-0.03372,-0.03128,0.14832,-0.03448,-0.0502,-0.01297,-0.0032,0.22491,-0.25024,-0.01785,0.00031,-0.04227,0.03616,0.11185,0.12772
7.7795,-0.00458,-0.03372,-0.03113,0.13916,-0.03357,-0.04944,-0.01282,-0.00488,0.1651,-0.25467,0.04959,0.00259,-0.05051,0.03296,0.0824,0.14633
7.78,-0.00427,-0.03464,-0.03036,0.10742,-0.0296,-0.04822,-0.01358,-0.00732,0.11658,-0.2565,0.08377,0.00076,-0.05981,0.02274,0.08682,0.07034
7.7805,-0.00504,-0.03555,-0.0296,0.06546,-0.02548,-0.04761,-0.0148,-0.01068,0.07462,-0.23834,0.10162,-0.00381,-0.06805,0.01129,0.10941,-0.02335
7.781,-0.0061,-0.03601,-0.02975,0.02762,-0.02457,-0.04776,-0.01602,-0.01144,0.0322,-0.19394,0.11032,-0.00549,-0.0708,0.00473,0.07767,-0.09552
7.7815,-0.00671,-0.03586,-0.02991,-0.00275,-0.02625,-0.04837,-0.01648,-0.00977,-0.01221,-0.12939,0.10941,-0.00153,-0.06485,0.00046,-0.02762,-0.1387
7.782,-0.00793,-0.03586,-0.03021,-0.03052,-0.02731,-0.04776,-0.01526,-0.00824,-0.05432,-0.07278,0.1088,0.00473,-0.05386,-0.00793,-0.14526,-0.15289
7.7825,-0.00916,-0.03677,-0.02991,-0.05814,-0.02563,-0.04776,-0.0148,-0.00778,-0.09308,-0.02899,0.11108,0.00916,-0.04456,-0.0296,-0.20859,-0.13718
7.783,-0.00931,-0.03754,-0.02914,-0.07965,-0.02411,-0.0473,-0.01511,-0.00916,-0.11597,-0.00443,0.10529,0.01068,-0.04013,-0.05981,-0.20142,-0.09201
7.7835,-0.00824,-0.03845,-0.02838,-0.08514,-0.02426,-0.04593,-0.01617,-0.00916,-0.10849,0.01678,0.08484,0.00931,-0.0383,-0.08911,-0.14557,-0.0264
7.784,-0.00793,-0.03998,-0.02869,-0.06989,-0.02579,-0.04562,-0.01617,-0.00839,-0.08759,0.04639,0.05768,0.0061,-0.03586,-0.10971,-0.07782,0.03174
7.7845,-0.00839,-0.04242,-0.03082,-0.04593,-0.02731,-0.04578,-0.01648,-0.00809,-0.09689,0.08667,0.03235,0.00259,-0.03113,-0.1207,-0.02594,0.05508
7.785,-0.0087,-0.04349,-0.03128,-0.03845,-0.02747,-0.04562,-0.01633,-0.00778,-0.14938,0.12131,0.01724,-0.00122,-0.02808,-0.12711,-0.01236,0.03799
7.7855,-0.00946,-0.04318,-0.02991,-0.05112,-0.02762,-0.04669,-0.01663,-0.00687,-0.20081,0.13809,0.01816,-0.00488,-0.02899,-0.13138,-0.06302,-0.00305
7.786,-0.009,-0.04318,-0.02823,-0.05936,-0.02838,-0.04822,-0.01633,-0.00641,-0.242,0.12482,0.02594,-0.00793,-0.03448,-0.13016,-0.17563,-0.03937
7.7865,-0.00793,-0.04242,-0.02899,-0.04898,-0.02853,-0.05112,-0.01556,-0.00671,-0.33279,0.09048,0.01419,-0.00885,-0.03464,-0.11963,-0.26627,-0.03387
7.787,-0.00702,-0.04135,-0.03098,-0.03265,-0.02716,-0.05051,-0.01556,-0.00732,-0.52872,0.05219,-0.02792,-0.00763,-0.02823,-0.10513,-0.24673,0.0148
7.7875,-0.00778,-0.0386,-0.03189,-0.02365,-0.02457,-0.04807,-0.01633,-0.00778,-0.78766,0.03677,-0.0769,-0.00458,-0.02075,-0.09689,-0.15289,0.04959
7.788,-0.00931,-0.03754,-0.03052,-0.01862,-0.0235,-0.047,-0.01709,-0.00824,-1.03027,0.04852,-0.1033,0.0,-0.01953,-0.09995,-0.10056,0.02136
7.7885,-0.01007,-0.03769,-0.02853,-0.00854,-0.02197,-0.04807,-0.01633,-0.00931,-1.28738,0.07065,-0.10254,0.00122,-0.02167,-0.11124,-0.12085,-0.04242
7.789,-0.01053,-0.03891,-0.02579,0.00214,-0.02335,-0.04852,-0.01541,-0.01007,-1.7691,0.07507,-0.08972,-0.0029,-0.02045,-0.12146,-0.14023,-0.0798
7.7895,-0.01068,-0.03983,-0.02518,0.00732,-0.02502,-0.047,-0.01419,-0.00946,-2.5769,0.05402,-0.07385,-0.00916,-0.01282,-0.12238,-0.12299,-0.07248
7.79,-0.01038,-0.04089,-0.02609,0.00641,-0.02747,-0.04562,-0.01328,-0.00671,-3.27591,0.01755,-0.05798,-0.01434,-0.00336,-0.10452,-0.10132,-0.05417
7.7905,-0.01053,-0.04181,-0.02716,-0.00061,-0.02869,-0.04486,-0.01266,-0.00397,-3.246,-0.01709,-0.0444,-0.01526,0.00397,-0.07034,-0.10178,-0.05356
7.791,-0.01099,-0.04272,-0.02747,-0.0119,-0.02838,-0.04532,-0.01266,-0.00244,-2.54593,-0.04562,-0.03433,-0.01221,0.00854,-0.03265,-0.10147,-0.0563
7.7915,-0.01129,-0.04288,-0.02731,-0.02167,-0.02808,-0.04608,-0.01266,-0.00122,-1.86234,-0.0647,-0.02151,-0.00702,0.01053,-0.0029,-0.05386,-0.01312
7.792,-0.01083,-0.04211,-0.0267,-0.02151,-0.0296,-0.04623,-0.01343,-0.00092,-1.58539,-0.07477,-0.00885,0.00061,0.01114,0.00992,0.06393,0.10193
7.7925,-0.01053,-0.03998,-0.0267,-0.00977,-0.03113,-0.04623,-0.01495,-0.00183,-1.4801,-0.07446,-0.01236,0.00763,0.00809,0.00565,0.19897,0.22644
7.793,-0.01083,-0.0386,-0.02686,0.00809,-0.03036,-0.04486,-0.01526,-0.00153,-1.25122,-0.07355,-0.03586,0.00793,0.00076,-0.01373,0.23041,0.24185
7.7935,-0.01221,-0.0386,-0.02731,0.02838,-0.03036,-0.04349,-0.0148,-0.00031,-0.93735,-0.06409,-0.04822,0.00168,-0.01007,-0.03723,0.10498,0.11215
7.794,-0.01404,-0.04059,-0.02777,0.0441,-0.03082,-0.04395,-0.01312,0.00092,-0.69122,-0.04471,-0.02838,-0.00412,-0.02197,-0.05219,-0.06989,-0.07019
7.7945,-0.01343,-0.04242,-0.0264,0.04089,-0.03235,-0.04608,-0.01236,0.00198,-0.51971,-0.01373,0.0032,-0.00473,-0.03098,-0.05386,-0.14236,-0.19958
7.795,-0.01266,-0.04211,-0.02533,0.01343,-0.03235,-0.04715,-0.01389,0.00153,-0.35233,0.01633,0.01266,-0.0032,-0.03616,-0.04959,-0.10132,-0.25482
7.7955,-0.0119,-0.04227,-0.0264,-0.0206,-0.03159,-0.04639,-0.01511,-0.00168,-0.18005,0.04547,0.0,-0.00412,-0.03891,-0.04974,-0.03998,-0.2623
7.796,-0.01129,-0.04074,-0.02731,-0.04532,-0.03113,-0.04639,-0.01602,-0.00549,-0.03265,0.07065,-0.01068,-0.00748,-0.03983,-0.05646,0.00626,-0.23056
7.7965,-0.01038,-0.0386,-0.02716,-0.0679,-0.03204,-0.04684,-0.01602,-0.00793,0.08347,0.09201,-0.01022,-0.0087,-0.03922,-0.06561,0.08316,-0.16937
7.797,-0.01038,-0.03738,-0.02579,-0.09201,-0.0322,-0.04745,-0.01602,-0.00778,0.18356,0.11078,-0.00778,-0.00305,-0.03967,-0.07355,0.19485,-0.12253
7.7975,-0.01114,-0.03845,-0.02502,-0.10529,-0.03159,-0.04547,-0.01587,-0.00702,0.27359,0.12512,-0.0119,0.00168,-0.04044,-0.07568,0.27863,-0.11429
7.798,-0.01175,-0.03891,-0.02579,-0.10071,-0.03098,-0.0444,-0.01495,-0.00687,0.34332,0.12238,-0.03281,0.00168,-0.03967,-0.0705,0.28717,-0.10757
7.7985,-0.0119,-0.03815,-0.02533,-0.09354,-0.03113,-0.04349,-0.0145,-0.00778,0.39444,0.0943,-0.07828,-0.00488,-0.03372,-0.05661,0.2449,-0.06927
7.799,-0.01114,-0.03723,-0.0238,-0.09476,-0.03235,-0.0441,-0.01389,-0.00732,0.44662,0.03525,-0.13046,-0.0116,-0.02502,-0.03677,0.19791,-0.0325
7.7995,-0.0087,-0.03662,-0.02151,-0.08896,-0.0325,-0.04517,-0.01389,-0.00488,0.50919,-0.0296,-0.15884,-0.01389,-0.01816,-0.01434,0.16052,-0.03891
7.8,-0.00717,-0.03754,-0.01999,-0.05981,-0.03052,-0.04456,-0.01343,-0.00168,0.56473,-0.06927,-0.15335,-0.01114,-0.01801,0.00366,0.11917,-0.06622
7.8005,-0.00702,-0.03723,-0.01938,-0.00275,-0.0296,-0.04471,-0.01358,-0.00168,0.6015,-0.08026,-0.12634,-0.00504,-0.02289,0.01343,0.0769,-0.06104
7.801,-0.00885,-0.03784,-0.01907,0.06607,-0.03067,-0.0441,-0.01373,-0.00214,0.63141,-0.08575,-0.08774,0.00381,-0.02853,0.01495,0.04791,-0.01678
7.8015,-0.01038,-0.03738,-0.01892,0.11261,-0.03204,-0.04425,-0.01389,-0.00015,0.66269,-0.10895,-0.03418,0.01312,-0.03159,0.0116,0.01526,0.01892
7.802,-0.01099,-0.03677,-0.01831,0.10651,-0.03189,-0.04456,-0.01358,0.00229,0.69321,-0.14252,0.0267,0.01648,-0.03128,0.00748,-0.04623,0.00824
7.8025,-0.01022,-0.03799,-0.01755,0.06134,-0.03067,-0.04547,-0.01205,0.00214,0.7225,-0.1535,0.08148,0.01266,-0.02701,0.00931,-0.11612,-0.03525
7.803,-0.0087,-0.0383,-0.01663,0.02045,-0.03113,-0.04684,-0.01053,0.00015,0.74738,-0.12375,0.11002,0.00809,-0.02335,0.01938,-0.14481,-0.07019
7.8035,-0.00961,-0.03799,-0.0174,0.00916,-0.0322,-0.04898,-0.0116,-0.00214,0.76569,-0.06882,0.10254,0.00534,-0.02426,0.03403,-0.12238,-0.07828
7.804,-0.01266,-0.03586,-0.01907,0.0145,-0.03342,-0.05081,-0.01358,-0.00397,0.78537,-0.01877,0.06897,0.00488,-0.02975,0.04654,-0.08057,-0.08347
7.8045,-0.0145,-0.03448,-0.01968,0.01648,-0.03403,-0.05066,-0.01556,-0.00671,0.80414,0.01419,0.03448,0.0032,-0.03616,0.05264,-0.04623,-0.10132
7.805,-0.0145,-0.03326,-0.01923,0.0148,-0.03403,-0.05005,-0.01648,-0.00931,0.81085,0.03113,0.00717,0.00153,-0.03983,0.05539,-0.03372,-0.11154
7.8055,-0.0148,-0.03204,-0.01755,0.02457,-0.03296,-0.04898,-0.01633,-0.01053,0.80429,0.03372,-0.01694,-0.00031,-0.03876,0.05737,-0.07187,-0.09445
7.806,-0.0174,-0.03281,-0.01587,0.05371,-0.03235,-0.04883,-0.01526,-0.01053,0.79056,0.02075,-0.03006,0.00031,-0.03387,0.05951,-0.16037,-0.07156
7.8065,-0.01877,-0.03464,-0.01556,0.08865,-0.03357,-0.04913,-0.01526,-0.00916,0.76797,0.00412,-0.00656,0.00153,-0.0267,0.06302,-0.22324,-0.07233
7.807,-0.01709,-0.03662,-0.01556,0.103,-0.03296,-0.04898,-0.01556,-0.00824,0.7373,-0.00183,0.04974,0.00275,-0.02075,0.0679,-0.17883,-0.09094
7.8075,-0.01434,-0.03647,-0.01678,0.07935,-0.03342,-0.04929,-0.01541,-0.00763,0.70602,0.00305,0.10696,0.00244,-0.01709,0.06927,-0.04593,-0.09933
7.808,-0.01266,-0.0354,-0.0174,0.0322,-0.03326,-0.05005,-0.01389,-0.00488,0.68222,0.00702,0.14023,0.00137,-0.01587,0.06516,0.08255,-0.08606
7.8085,-0.01144,-0.03494,-0.01907,-0.00809,-0.03403,-0.0502,-0.01205,-0.00153,0.66833,0.00336,0.15259,-0.00061,-0.01663,0.05707,0.15015,-0.0676
7.809,-0.01053,-0.03555,-0.02136,-0.02472,-0.03448,-0.0499,-0.0119,0.00137,0.66376,-0.00656,0.14786,-0.00168,-0.01801,0.04776,0.15717,-0.06134
7.8095,-0.00916,-0.03723,-0.02319,-0.02594,-0.03357,-0.04761,-0.01251,0.00168,0.66315,-0.01144,0.11948,-0.00229,-0.01968,0.04089,0.12695,-0.06195
7.81,-0.00778,-0.03784,-0.0238,-0.02563,-0.0325,-0.04684,-0.01221,-0.00015,0.65613,-0.01312,0.07202,-0.00397,-0.02045,0.03311,0.09613,-0.05203
7.8105,-0.00778,-0.03754,-0.0238,-0.03128,-0.03098,-0.047,-0.01175,-0.0032,0.63141,-0.01923,0.02228,-0.00595,-0.0209,0.02213,0.09918,-0.03067
7.811,-0.00809,-0.03799,-0.02457,-0.04547,-0.02792,-0.04745,-0.01175,-0.00519,0.58212,-0.03113,-0.01663,-0.00504,-0.02136,0.01099,0.11902,-0.01343
7.8115,-0.00732,-0.03723,-0.02716,-0.0621,-0.02396,-0.04562,-0.01236,-0.00336,0.50079,-0.04196,-0.04349,-0.00107,-0.02487,0.00793,0.11612,0.00153
7.812,-0.00534,-0.03799,-0.02869,-0.07187,-0.02213,-0.04532,-0.01205,0.00092,0.38406,-0.04501,-0.06577,0.0032,-0.03174,0.01785,0.08179,0.0296
7.8125,-0.00336,-0.03967,-0.02975,-0.07187,-0.02213,-0.04654,-0.0116,0.00366,0.24521,-0.04562,-0.08759,0.00488,-0.03998,0.03616,0.04333,0.05661
7.813,-0.0029,-0.03983,-0.03235,-0.06577,-0.02274,-0.04791,-0.0119,0.00305,0.08133,-0.04898,-0.10941,0.0032,-0.04532,0.05737,0.03006,0.04807
7.8135,-0.00504,-0.03922,-0.03372,-0.05859,-0.02121,-0.047,-0.0119,0.00137,-0.14587,-0.04837,-0.13718,0.00031,-0.04883,0.07324,0.047,0.00259
7.814,-0.01038,-0.03723,-0.03326,-0.05646,-0.01938,-0.04486,-0.01282,0.00076,-0.47821,-0.03876,-0.18158,-0.00046,-0.05203,0.07767,0.07004,-0.0415
7.8145,-0.01404,-0.03647,-0.03281,-0.06302,-0.01968,-0.04456,-0.01419,0.00122,-0.85861,-0.02472,-0.23041,0.00214,-0.05417,0.06882,0.07339,-0.06516
7.815,-0.01175,-0.03601,-0.03387,-0.07355,-0.02121,-0.04532,-0.0148,0.00107,-1.08032,-0.01389,-0.24445,0.00488,-0.05081,0.05081,0.05325,-0.08713
7.8155,-0.00671,-0.0354,-0.03494,-0.07523,-0.02136,-0.04654,-0.01465,-0.00137,-0.95642,-0.01434,-0.19775,0.00626,-0.04456,0.03128,0.02777,-0.11627
7.816,-0.00244,-0.0351,-0.03586,-0.06149,-0.01938,-0.04593,-0.01434,-0.00305,-0.56244,-0.02197,-0.10788,0.00595,-0.04242,0.01022,0.00076,-0.13107
7.8165,-0.00015,-0.03677,-0.03693,-0.04425,-0.01923,-0.04578,-0.01511,-0.00259,-0.18036,-0.03036,-0.0177,0.00488,-0.04868,-0.0174,-0.0325,-0.11276
7.817,0.00107,-0.03983,-0.03799,-0.03571,-0.02045,-0.04593,-0.01663,-0.00168,0.01801,-0.03326,0.04471,0.00443,-0.05951,-0.05417,-0.07187,-0.06882
7.8175,0.00244,-0.04211,-0.03876,-0.03586,-0.02274,-0.04654,-0.01709,-0.00275,0.10132,-0.03326,0.07538,0.00427,-0.06775,-0.09155,-0.10849,-0.02441
7.818,0.00504,-0.04196,-0.04013,-0.03113,-0.02548,-0.04822,-0.01556,-0.00412,0.18021,-0.03006,0.08224,0.00427,-0.07111,-0.12314,-0.12787,0.0
7.8185,0.00656,-0.04059,-0.0473,-0.01999,-0.02823,-0.0502,-0.01404,-0.0032,0.26535,-0.02899,0.07553,0.00519,-0.07385,-0.14618,-0.12131,0.00534
7.819,0.00702,-0.0386,-0.06134,-0.01099,-0.0325,-0.05142,-0.01373,0.0,0.32227,-0.03403,0.06439,0.00671,-0.07782,-0.15854,-0.08453,0.00412
7.8195,0.00793,-0.03891,-0.07614,-0.00778,-0.03616,-0.05005,-0.01434,0.00259,0.34714,-0.04715,0.05356,0.00778,-0.07736,-0.15717,-0.0235,0.00153
7.82,0.00946,-0.03967,-0.08514,-0.00595,-0.0383,-0.04761,-0.01389,0.00275,0.35217,-0.06317,0.04089,0.00732,-0.06927,-0.14267,0.03433,-0.01892
7.8205,0.01114,-0.04044,-0.08881,-0.00214,-0.03998,-0.04776,-0.01282,0.00137,0.34576,-0.08331,0.01556,0.00458,-0.05814,-0.1265,0.04257,-0.07111
7.821,0.01205,-0.04166,-0.08972,0.00244,-0.04135,-0.04959,-0.01389,-0.00107,0.3334,-0.10269,-0.04074,0.00275,-0.0502,-0.11673,-0.01083,-0.12146
7.8215,0.01099,-0.0415,-0.08759,0.00946,-0.04272,-0.04974,-0.01663,-0.00244,0.32669,-0.11353,-0.13504,0.00259,-0.04669,-0.11292,-0.05676,-0.09949
7.822,0.01053,-0.03983,-0.07919,0.02258,-0.04349,-0.04837,-0.01724,-0.0032,0.32928,-0.10788,-0.22797,0.00183,-0.04562,-0.10422,-0.02838,0.01205
7.8225,0.01053,-0.03937,-0.06653,0.04303,-0.04364,-0.04745,-0.01495,-0.00397,0.33646,-0.08942,-0.25848,-0.00092,-0.04593,-0.08148,0.03738,0.1059
7.823,0.01114,-0.04105,-0.0499,0.07233,-0.04242,-0.04898,-0.01205,-0.00366,0.33707,-0.06912,-0.20538,-0.00259,-0.0502,-0.05051,0.04822,0.05173
7.8235,0.01068,-0.04425,-0.03082,0.09903,-0.04105,-0.05127,-0.01144,-0.00259,0.32608,-0.05569,-0.11108,-0.00198,-0.0589,-0.0238,-0.00031,-0.13046
7.824,0.01053,-0.04547,-0.01389,0.10178,-0.03906,-0.05295,-0.01236,-0.00214,0.30182,-0.05173,-0.03616,-0.00031,-0.06638,-0.01053,-0.03891,-0.27069
7.8245,0.01053,-0.0441,-0.00229,0.06714,-0.03693,-0.05249,-0.01358,-0.00153,0.26123,-0.05249,-0.01251,0.00061,-0.06592,-0.00732,-0.04517,-0.24567
7.825,0.0116,-0.04303,0.00397,0.01221,-0.03555,-0.05035,-0.01358,-0.00031,0.20447,-0.05112,-0.03098,0.0029,-0.05646,-0.00778,-0.065,-0.10666
7.8255,0.01144,-0.04303,0.00519,-0.03326,-0.03387,-0.04929,-0.01328,-0.00031,0.1442,-0.04211,-0.05173,0.00458,-0.04654,-0.01236,-0.10559,-0.00977
7.826,0.01083,-0.04395,0.00427,-0.05997,-0.03204,-0.04913,-0.0145,-0.00031,0.09628,-0.02563,-0.03189,0.00381,-0.04501,-0.02213,-0.1004,-0.03891
7.8265,0.00809,-0.04303,-0.00015,-0.07431,-0.03098,-0.04944,-0.01572,-0.00031,0.04517,-0.00809,0.03021,0.0,-0.04776,-0.03204,-0.02945,-0.12817
7.827,0.00595,-0.04257,-0.00641,-0.07202,-0.03082,-0.04807,-0.01404,0.00046,-0.04913,0.0061,0.09583,-0.00153,-0.0473,-0.03433,0.03342,-0.14465
7.8275,0.00641,-0.04303,-0.01343,-0.03922,-0.03082,-0.0473,-0.01221,0.0,-0.18066,0.01373,0.12909,0.00061,-0.04211,-0.02762,0.04303,-0.03403
7.828,0.00824,-0.04303,-0.0209,0.01999,-0.0325,-0.04761,-0.0119,-0.00092,-0.29999,0.0206,0.12878,0.00458,-0.03662,-0.02182,0.04517,0.1152
7.8285,0.01007,-0.04379,-0.02701,0.0795,-0.03494,-0.04822,-0.01282,-0.00275,-0.38666,0.02731,0.10666,0.009,-0.03571,-0.02213,0.07294,0.1738
7.829,0.01297,-0.04364,-0.03601,0.11276,-0.03555,-0.04929,-0.01419,-0.00351,-0.45715,0.03357,0.07523,0.01221,-0.03799,-0.02914,0.09354,0.11383
7.8295,0.01358,-0.04257,-0.04135,0.10742,-0.03448,-0.04929,-0.01389,-0.00412,-0.5072,0.03738,0.05264,0.01511,-0.03952,-0.03448,0.08972,0.01907
7.83,0.01404,-0.04227,-0.04456,0.06866,-0.03265,-0.04715,-0.01328,-0.00473,-0.50049,0.03448,0.05478,0.01633,-0.03952,-0.03342,0.07813,-0.02686
7.8305,0.01358,-0.04272,-0.0473,0.01709,-0.0322,-0.04593,-0.01312,-0.00412,-0.4245,0.02701,0.08041,0.01526,-0.04028,-0.02869,0.06866,-0.02045
7.831,0.01282,-0.04318,-0.05142,-0.0206,-0.03372,-0.04684,-0.01389,-0.00275,-0.30396,0.02182,0.10941,0.01419,-0.04364,-0.02243,0.05554,0.00046
7.8315,0.01205,-0.0444,-0.05646,-0.02716,-0.03464,-0.047,-0.01373,-0.00092,-0.18127,0.01968,0.12512,0.01312,-0.04425,-0.01694,0.04517,0.01175
7.832,0.01053,-0.04608,-0.0592,-0.01266,-0.03586,-0.04684,-0.01297,-0.00107,-0.07217,0.01221,0.11978,0.01099,-0.04181,-0.01373,0.04303,0.01801
7.8325,0.00977,-0.04837,-0.05707,-0.00137,-0.03632,-0.04745,-0.01251,-0.0029,0.03723,-0.00381,0.09842,0.00824,-0.03937,-0.01175,0.0415,0.02029
7.833,0.00931,-0.04898,-0.05463,-0.00839,-0.03662,-0.04715,-0.01297,-0.00412,0.1384,-0.01984,0.07614,0.00504,-0.03815,-0.01038,0.02884,0.01038
7.8335,0.0087,-0.04822,-0.05432,-0.03067,-0.03555,-0.04669,-0.01343,-0.00504,0.19241,-0.02487,0.06104,0.00198,-0.03799,-0.00961,0.01358,-0.01373
7.834,0.01007,-0.04822,-0.05402,-0.05905,-0.03418,-0.04684,-0.01328,-0.00504,0.19196,-0.02228,0.04517,-0.00107,-0.03326,-0.01007,0.00412,-0.0386
7.8345,0.01053,-0.04837,-0.05371,-0.08636,-0.03387,-0.04684,-0.01266,-0.00397,0.17624,-0.02502,0.01678,-0.00504,-0.02029,-0.00961,0.00031,-0.04883
7.835,0.01053,-0.04715,-0.05249,-0.10559,-0.0354,-0.04807,-0.01266,-0.00244,0.17883,-0.04059,-0.03235,-0.00885,-0.00336,-0.00748,-0.00092,-0.04272
7.8355,0.00931,-0.04486,-0.05051,-0.11047,-0.03632,-0.04883,-0.01312,-0.00214,0.1973,-0.06073,-0.09338,-0.00961,0.00809,-0.00626,0.00046,-0.03021
7.836,0.00443,-0.0444,-0.04913,-0.09628,-0.03647,-0.04837,-0.01404,-0.00305,0.21027,-0.07156,-0.14801,-0.0061,0.01114,-0.00977,0.00443,-0.02289
7.8365,-0.00061,-0.04639,-0.04745,-0.05569,-0.03494,-0.047,-0.01404,-0.00427,0.21347,-0.06653,-0.17075,-0.00229,0.01434,-0.01373,0.00793,-0.02182
7.837,-0.00397,-0.04852,-0.04898,0.02319,-0.03342,-0.04669,-0.01343,-0.00443,0.21576,-0.04852,-0.15717,-0.00076,0.01709,-0.01572,0.00732,-0.02487
7.8375,-0.00412,-0.04959,-0.05081,0.12177,-0.03296,-0.04623,-0.01221,-0.00397,0.22186,-0.02335,-0.12192,-0.00122,0.0145,-0.01205,0.00443,-0.02853
7.838,-0.00259,-0.04913,-0.05096,0.17349,-0.03296,-0.04547,-0.01221,-0.00427,0.22629,-0.00397,-0.08148,-0.0032,0.00031,-0.00671,-0.00015,-0.03281
7.8385,0.00031,-0.04776,-0.05096,0.12558,-0.0322,-0.04471,-0.01175,-0.00595,0.21378,0.01022,-0.04105,-0.00534,-0.02319,-0.0032,-0.00443,-0.03891
7.839,0.00198,-0.047,-0.05173,0.01434,-0.03052,-0.0444,-0.0116,-0.00778,0.18127,0.02625,0.00107,-0.00626,-0.04318,-0.0032,-0.01068,-0.04715
7.8395,0.00427,-0.04547,-0.05112,-0.06607,-0.02914,-0.04501,-0.01297,-0.00656,0.15457,0.05234,0.0441,-0.00458,-0.05356,-0.00504,-0.01434,-0.05081
7.84,0.00702,-0.04425,-0.05051,-0.06775,-0.02716,-0.04547,-0.01389,-0.00473,0.15137,0.07553,0.07446,-0.00153,-0.05508,-0.00946,-0.01465,-0.04929
7.8405,0.00885,-0.04486,-0.0502,-0.02365,-0.02625,-0.04471,-0.01404,-0.00351,0.15762,0.07477,0.08102,0.00336,-0.05051,-0.01526,-0.01038,-0.04501
7.841,0.009,-0.04654,-0.04898,0.00931,-0.02625,-0.0444,-0.01282,-0.0032,0.15549,0.05417,0.0676,0.009,-0.04364,-0.02167,-0.0058,-0.0351
7.8415,0.00916,-0.04745,-0.04807,0.01465,-0.02686,-0.04532,-0.01221,-0.00244,0.14969,0.03342,0.0441,0.01221,-0.03723,-0.0264,-0.00198,-0.0209
7.842,0.01038,-0.04654,-0.047,0.00458,-0.02869,-0.04623,-0.01251,-0.00259,0.14099,0.01999,0.0177,0.00992,-0.03418,-0.02686,0.00015,-0.01129
7.8425,0.01068,-0.04501,-0.04669,-0.00305,-0.0293,-0.04654,-0.01205,-0.0029,0.12894,0.00671,-0.00702,0.00443,-0.03357,-0.02167,-0.00427,-0.01617
7.843,0.00977,-0.04364,-0.04639,-0.00214,-0.02869,-0.04562,-0.01068,-0.0029,0.11551,-0.01678,-0.03036,0.00015,-0.03021,-0.00961,-0.00992,-0.03265
7.8435,0.00824,-0.04227,-0.04562,0.00031,-0.02777,-0.04517,-0.01038,-0.00137,0.10345,-0.04227,-0.05081,0.0,-0.02533,0.00198,-0.01099,-0.04791
7.844,0.00549,-0.04181,-0.04288,-0.00809,-0.02701,-0.04593,-0.01068,-0.00046,0.10223,-0.0618,-0.07065,0.00153,-0.02182,0.00671,-0.00946,-0.05508
7.8445,0.00473,-0.04181,-0.0415,-0.03433,-0.02792,-0.04684,-0.01205,-0.00229,0.1297,-0.07278,-0.09171,0.00244,-0.02289,0.00458,-0.00809,-0.05829
7.845,0.00458,-0.0415,-0.03937,-0.06424,-0.02945,-0.04608,-0.01358,-0.00519,0.18036,-0.08148,-0.11276,0.00153,-0.02594,0.00092,-0.00824,-0.06485
7.8455,0.00427,-0.04105,-0.03784,-0.07339,-0.03006,-0.0444,-0.0145,-0.00778,0.22369,-0.09018,-0.12634,-0.00046,-0.02975,-0.00168,-0.009,-0.07202
7.846,0.0032,-0.04074,-0.03799,-0.05585,-0.02914,-0.04318,-0.01511,-0.00732,0.24612,-0.10208,-0.12878,-0.00275,-0.03159,-0.00626,-0.00977,-0.07751
7.8465,0.00198,-0.04074,-0.03876,-0.03235,-0.03006,-0.04364,-0.0148,-0.00595,0.26382,-0.11581,-0.12482,-0.0029,-0.03326,-0.01221,-0.00961,-0.07843
7.847,0.00107,-0.04089,-0.0383,-0.01801,-0.0296,-0.04547,-0.01328,-0.00488,0.29083,-0.12497,-0.12192,-0.00153,-0.03372,-0.01801,-0.00671,-0.07233
7.8475,0.00122,-0.04059,-0.03586,-0.00656,-0.02884,-0.04669,-0.01175,-0.00381,0.32593,-0.11642,-0.12253,0.00061,-0.03418,-0.02075,-0.00305,-0.06241
7.848,0.00031,-0.04044,-0.03387,0.00702,-0.02792,-0.04593,-0.01038,0.0,0.35645,-0.08392,-0.121,0.00183,-0.03632,-0.02136,-0.00076,-0.05325
7.8485,0.0,-0.04074,-0.03372,0.0119,-0.02899,-0.04456,-0.01007,0.00244,0.37781,-0.03326,-0.11505,0.0032,-0.03571,-0.02197,0.00137,-0.04852
7.849,-0.00107,-0.04074,-0.03357,0.00092,-0.0293,-0.04379,-0.01083,0.00229,0.39856,0.01862,-0.09415,0.00381,-0.03281,-0.02533,0.00092,-0.04791
7.8495,-0.00168,-0.04013,-0.03326,-0.01083,-0.02945,-0.0444,-0.00992,-0.00107,0.42755,0.0531,-0.05676,0.00351,-0.02869,-0.02716,0.00015,-0.04761
7.85,-0.00275,-0.04044,-0.0322,-0.00732,-0.02884,-0.04532,-0.00885,-0.0029,0.46326,0.06989,-0.01129,0.00244,-0.02609,-0.02472,0.0032,-0.0444
7.8505,-0.00305,-0.04257,-0.03174,0.00656,-0.02823,-0.04669,-0.00931,-0.0029,0.49973,0.07935,0.0206,0.00076,-0.02548,-0.01877,0.00656,-0.03815
7.851,-0.0029,-0.04379,-0.03357,0.01328,-0.02808,-0.04745,-0.01205,-0.00214,0.53513,0.08636,0.0264,-0.00153,-0.02533,-0.01297,0.00946,-0.03281
7.8515,-0.0032,-0.04395,-0.03647,0.00412,-0.02838,-0.04654,-0.01465,-0.00397,0.56549,0.08316,0.01144,-0.00412,-0.02533,-0.00824,0.01099,-0.03235
7.852,-0.00443,-0.04379,-0.03616,-0.01373,-0.02884,-0.04684,-0.01541,-0.00702,0.57617,0.05875,-0.00397,-0.00412,-0.02441,-0.00702,0.009,-0.03479
7.8525,-0.00473,-0.04349,-0.03647,-0.0322,-0.03036,-0.0473,-0.01495,-0.00809,0.56,0.01007,-0.00687,-0.00183,-0.0238,-0.00778,0.0058,-0.03494
7.853,-0.00595,-0.04272,-0.03601,-0.0499,-0.03036,-0.04852,-0.01495,-0.00656,0.5368,-0.04974,-0.00031,0.00137,-0.02487,-0.00977,0.00504,-0.03174
7.8535,-0.00595,-0.04059,-0.03494,-0.065,-0.03021,-0.04852,-0.01556,-0.00488,0.52002,-0.10101,0.00977,0.00122,-0.02457,-0.01297,0.00504,-0.03326
7.854,-0.0061,-0.03922,-0.03357,-0.0708,-0.02823,-0.04761,-0.01572,-0.0058,0.49377,-0.12909,0.02991,-0.00214,-0.02213,-0.01541,0.00458,-0.04501
7.8545,-0.00656,-0.0383,-0.03235,-0.06287,-0.02792,-0.04807,-0.01495,-0.00671,0.44968,-0.13885,0.05753,-0.00443,-0.0206,-0.01663,0.00168,-0.0621
7.855,-0.0061,-0.03845,-0.03143,-0.04227,-0.02975,-0.04913,-0.01495,-0.00687,0.41321,-0.14465,0.07446,-0.00504,-0.02106,-0.01511,0.00214,-0.07156
7.8555,-0.00595,-0.03952,-0.03265,-0.01389,-0.03159,-0.05035,-0.0148,-0.00641,0.40176,-0.14969,0.06149,-0.00687,-0.02182,-0.01358,0.0061,-0.06744
7.856,-0.00504,-0.04181,-0.03265,0.01755,-0.0322,-0.0499,-0.01419,-0.00702,0.40833,-0.1413,0.01556,-0.00854,-0.0235,-0.01343,0.01068,-0.05569
7.8565,-0.00397,-0.04181,-0.03311,0.04013,-0.03204,-0.05051,-0.01434,-0.00732,0.42542,-0.11337,-0.03967,-0.00809,-0.02487,-0.01404,0.01144,-0.04456
7.857,-0.0032,-0.03983,-0.03311,0.04059,-0.03082,-0.05035,-0.0148,-0.00763,0.44052,-0.07156,-0.0737,-0.00488,-0.02686,-0.01373,0.00961,-0.04105
7.8575,-0.00412,-0.03876,-0.03174,0.02396,-0.03082,-0.05112,-0.0148,-0.00702,0.44067,-0.02518,-0.07416,-0.00168,-0.03143,-0.01236,0.00748,-0.04425
7.858,-0.00671,-0.03937,-0.03128,0.00595,-0.0325,-0.05173,-0.01465,-0.0058,0.43106,0.03052,-0.04364,0.00183,-0.03632,-0.01099,0.0087,-0.05157
7.8585,-0.009,-0.03906,-0.03204,-0.00458,-0.03433,-0.05051,-0.01373,-0.00504,0.42725,0.09476,-0.00046,0.00488,-0.04013,-0.01022,0.01251,-0.05783
7.859,-0.01053,-0.0383,-0.03311,-0.01678,-0.03418,-0.0499,-0.01312,-0.00641,0.41565,0.14847,0.04242,0.00534,-0.04089,-0.01068,0.01556,-0.06012
7.8595,-0.01236,-0.03708,-0.03403,-0.03204,-0.0325,-0.04974,-0.01205,-0.00626,0.37155,0.17242,0.0766,0.00336,-0.03922,-0.01221,0.01434,-0.05676
7.86,-0.01251,-0.03662,-0.03448,-0.04333,-0.03052,-0.04898,-0.01205,-0.0061,0.28915,0.16968,0.09766,0.00137,-0.03418,-0.0145,0.01266,-0.04761
7.8605,-0.01236,-0.03677,-0.03326,-0.04578,-0.02747,-0.04822,-0.01266,-0.00504,0.19684,0.15884,0.10773,0.00259,-0.02655,-0.01602,0.01373,-0.03647
7.861,-0.01144,-0.03891,-0.03296,-0.04333,-0.0267,-0.04791,-0.01129,-0.00412,0.1297,0.14191,0.11383,0.00488,-0.01511,-0.01617,0.01724,-0.02655
7.8615,-0.00931,-0.03952,-0.03159,-0.04105,-0.02762,-0.04837,-0.01099,-0.00229,0.09552,0.10712,0.11612,0.00534,-0.00504,-0.0174,0.01984,-0.02457
7.862,-0.00763,-0.03876,-0.03098,-0.03784,-0.02853,-0.04822,-0.01221,-0.00107,0.07416,0.05524,0.10208,0.00488,0.0,-0.01877,0.01984,-0.02777
7.8625,-0.00732,-0.0386,-0.03281,-0.03052,-0.02823,-0.04745,-0.01419,0.00031,0.05585,0.00809,0.06729,0.0061,-0.00153,-0.01999,0.01663,-0.03082
7.863,-0.00793,-0.03967,-0.03296,-0.01465,-0.02808,-0.04669,-0.01434,0.0,0.04761,-0.02335,0.03159,0.00778,-0.00656,-0.02029,0.01434,-0.02823
7.8635,-0.00717,-0.0415,-0.0325,0.01221,-0.02945,-0.04715,-0.01266,-0.00046,0.0386,-0.04211,0.00992,0.00519,-0.01251,-0.02243,0.01694,-0.02151
7.864,-0.00687,-0.0415,-0.0322,0.04166,-0.03036,-0.04776,-0.01328,0.00015,-0.01724,-0.05905,0.00504,-0.00244,-0.01953,-0.02686,0.01953,-0.01007
7.8645,-0.00595,-0.04028,-0.03281,0.05463,-0.03052,-0.04929,-0.01312,0.00183,-0.1329,-0.07217,0.00183,-0.00702,-0.02716,-0.03159,0.01862,0.01465
7.865,-0.00519,-0.03937,-0.03357,0.04333,-0.03143,-0.05096,-0.01419,0.0029,-0.22415,-0.06775,0.0,-0.0058,-0.03128,-0.03326,0.01587,0.05081
7.8655,-0.00397,-0.04013,-0.03403,0.0174,-0.03265,-0.05173,-0.01373,0.00275,-0.21149,-0.04959,-0.00229,-0.00214,-0.02777,-0.03204,0.01343,0.07889
7.866,-0.00336,-0.04181,-0.03494,-0.0058,-0.03265,-0.05081,-0.01312,0.00168,-0.14618,-0.02945,-0.01053,-0.00015,-0.01907,-0.02975,0.0145,0.07965
7.8665,-0.0029,-0.04257,-0.03448,-0.02121,-0.03326,-0.04913,-0.01389,0.00107,-0.14328,-0.01678,-0.02563,-0.00122,-0.01068,-0.02747,0.01892,0.05524
7.867,-0.00336,-0.04272,-0.0354,-0.03326,-0.03403,-0.04913,-0.0148,0.00046,-0.22415,-0.01221,-0.03708,-0.0029,-0.00443,-0.02365,0.02701,0.03006
7.8675,-0.00458,-0.04181,-0.03708,-0.04013,-0.03571,-0.04807,-0.01404,0.0,-0.30792,-0.01358,-0.03799,-0.00336,-0.00122,-0.02335,0.03815,0.00809
7.868,-0.00748,-0.04135,-0.03662,-0.03845,-0.03754,-0.04837,-0.01175,-0.00076,-0.32898,-0.01572,-0.04379,-0.0032,-0.00412,-0.0267,0.04303,-0.047
7.8685,-0.009,-0.04166,-0.03677,-0.03098,-0.03769,-0.04745,-0.01068,-0.00107,-0.29755,-0.01389,-0.07355,-0.00473,-0.01587,-0.03265,0.03769,-0.15198
7.869,-0.00931,-0.04105,-0.03693,-0.0296,-0.03738,-0.04669,-0.01114,-0.00137,-0.26657,-0.00549,-0.11337,-0.00626,-0.03143,-0.03571,0.01907,-0.24414
7.8695,-0.00748,-0.03922,-0.03601,-0.03906,-0.03662,-0.04608,-0.0119,-0.00153,-0.2655,0.00092,-0.1178,-0.00458,-0.04242,-0.03281,-0.00168,-0.23788
7.87,-0.00549,-0.0383,-0.03433,-0.04898,-0.03433,-0.04608,-0.01175,-0.00198,-0.27161,-0.00351,-0.06271,-0.00305,-0.04608,-0.02762,-0.01495,-0.14893
7.8705,-0.00504,-0.03815,-0.03464,-0.04532,-0.03387,-0.04715,-0.01205,-0.00259,-0.23666,-0.02701,0.02167,-0.00214,-0.04562,-0.02365,-0.01678,-0.07538
7.871,-0.00641,-0.03754,-0.03647,-0.02716,-0.03235,-0.04807,-0.01236,-0.00229,-0.13306,-0.07172,0.0827,-0.00275,-0.04532,-0.02106,-0.00488,-0.06699
7.8715,-0.00626,-0.0383,-0.0383,-0.00671,-0.03128,-0.04791,-0.01266,-0.00122,0.02563,-0.12848,0.10025,-0.00214,-0.04562,-0.01907,0.01312,-0.10345
7.872,-0.00763,-0.04044,-0.0383,0.00275,-0.03113,-0.04791,-0.01312,-0.00061,0.19333,-0.17563,0.08377,0.00046,-0.04623,-0.0174,0.01984,-0.15091
7.8725,-0.01328,-0.04211,-0.03708,-0.00092,-0.03189,-0.04807,-0.0119,-0.00031,0.32059,-0.18936,0.04547,0.00336,-0.04578,-0.01724,0.01404,-0.17166
7.873,-0.02243,-0.0415,-0.03632,-0.00961,-0.03326,-0.04913,-0.01007,0.00031,0.3923,-0.17609,-0.00046,0.00427,-0.04486,-0.01755,0.00168,-0.12802
7.8735,-0.02914,-0.03906,-0.03769,-0.01892,-0.03159,-0.04944,-0.01038,0.00076,0.44708,-0.15778,-0.03952,0.0029,-0.04395,-0.01648,-0.00504,-0.04181
7.874,-0.02884,-0.03784,-0.03708,-0.02869,-0.0296,-0.04959,-0.01175,0.00153,0.53711,-0.14435,-0.05341,0.00153,-0.04181,-0.01328,-0.00992,0.01068
7.8745,-0.02274,-0.03876,-0.03586,-0.03906,-0.02823,-0.04883,-0.01297,0.00259,0.66406,-0.12268,-0.04562,0.00198,-0.04044,-0.00946,-0.01022,-0.01205
7.875,-0.01602,-0.03937,-0.03632,-0.04456,-0.02609,-0.04761,-0.01282,0.00351,0.78949,-0.09079,-0.02869,0.0032,-0.04074,-0.00885,-0.00671,-0.0618
7.8755,-0.01266,-0.03891,-0.03815,-0.04364,-0.02594,-0.04608,-0.01114,0.00351,0.88852,-0.06256,-0.01923,0.00183,-0.04074,-0.01251,0.00275,-0.07889
7.876,-0.01129,-0.03738,-0.03738,-0.03967,-0.02701,-0.04593,-0.01068,0.00427,0.97015,-0.04379,-0.02579,-0.00198,-0.04028,-0.01587,0.01617,-0.06058
7.8765,-0.00916,-0.03769,-0.03586,-0.03296,-0.02853,-0.04654,-0.01099,0.00488,1.03394,-0.02991,-0.05173,-0.00565,-0.0412,-0.01724,0.02274,-0.04044
7.877,-0.00534,-0.04044,-0.0354,-0.02045,-0.03036,-0.047,-0.0119,0.00412,1.0585,-0.01236,-0.08987,-0.00641,-0.04379,-0.01907,0.02029,-0.03036
7.8775,-0.0029,-0.04364,-0.03616,-0.00504,-0.03067,-0.04761,-0.01205,0.0029,1.02173,0.00793,-0.12238,-0.0032,-0.04654,-0.02167,0.0119,-0.01999
7.878,-0.0029,-0.0441,-0.03647,0.00778,-0.03036,-0.04639,-0.01328,0.00183,0.91843,0.0264,-0.14191,0.00229,-0.04654,-0.02197,0.0032,-0.00565
7.8785,-0.0029,-0.04196,-0.03494,0.01251,-0.03052,-0.04669,-0.01465,0.00046,0.7872,0.04486,-0.16159,0.00626,-0.04471,-0.02136,0.00427,0.00397
7.879,-0.00214,-0.04196,-0.03128,0.01144,-0.03128,-0.04608,-0.01572,-0.00107,0.68161,0.06287,-0.19958,0.00748,-0.04395,-0.02121,0.01877,0.00504
7.8795,-0.00137,-0.04333,-0.03006,0.0116,-0.03159,-0.04562,-0.01541,-0.00214,0.59952,0.07614,-0.24658,0.00595,-0.0444,-0.02243,0.0383,-0.00473
7.88,-0.00153,-0.04501,-0.03021,0.01419,-0.02991,-0.04684,-0.01526,-0.00336,0.50339,0.08163,-0.27237,0.00336,-0.04349,-0.02106,0.05615,-0.01663
7.8805,-0.00214,-0.04547,-0.0325,0.01801,-0.02975,-0.04929,-0.01511,-0.00458,0.3981,0.08209,-0.26566,0.00015,-0.03876,-0.01434,0.07233,0.00015
7.881,-0.00259,-0.04395,-0.0351,0.01862,-0.03128,-0.05051,-0.01526,-0.00488,0.31647,0.0795,-0.23834,-0.00305,-0.0351,-0.00656,0.08636,0.04959
7.8815,-0.00214,-0.04303,-0.03494,0.01099,-0.03387,-0.05112,-0.0145,-0.00473,0.2655,0.06851,-0.19836,-0.00351,-0.03525,-0.00336,0.0885,0.06622
7.882,-0.00198,-0.04211,-0.03525,-0.00015,-0.03616,-0.05188,-0.01404,-0.00565,0.22156,0.03876,-0.14328,-0.00229,-0.03769,-0.00534,0.0705,-0.00443
7.8825,-0.00229,-0.04242,-0.03448,-0.00656,-0.03815,-0.05264,-0.0145,-0.00595,0.16907,0.00198,-0.0769,-0.00168,-0.03891,-0.00916,0.03845,-0.10605
7.883,-0.00168,-0.04379,-0.0351,-0.00824,-0.03906,-0.05356,-0.01556,-0.00549,0.11185,-0.02182,-0.01602,-0.00244,-0.03906,-0.0119,0.00092,-0.12711
7.8835,-0.00183,-0.04471,-0.03571,-0.01129,-0.03845,-0.05295,-0.01495,-0.00275,0.04501,-0.02518,0.02899,-0.00076,-0.03922,-0.01251,-0.03738,-0.05417
7.884,-0.00214,-0.04532,-0.03784,-0.01434,-0.03815,-0.05096,-0.01434,0.00122,-0.05447,-0.01968,0.06424,0.00381,-0.04013,-0.01282,-0.06882,0.01175
7.8845,-0.00229,-0.04578,-0.03937,-0.00931,-0.03708,-0.04898,-0.01465,0.00504,-0.16708,-0.02182,0.10269,0.00641,-0.04089,-0.01556,-0.07797,-0.01266
7.885,-0.00229,-0.04639,-0.03922,0.0032,-0.03616,-0.0473,-0.01511,0.00549,-0.22903,-0.03159,0.14801,0.00397,-0.03952,-0.01938,-0.06317,-0.09628
7.8855,-0.00244,-0.04669,-0.03922,0.00961,-0.03677,-0.04715,-0.01495,0.00244,-0.23514,-0.04349,0.19058,-0.00015,-0.03708,-0.02228,-0.0473,-0.15244
7.886,-0.00366,-0.04639,-0.03845,0.00397,-0.03601,-0.04791,-0.0148,-0.00015,-0.26138,-0.05341,0.215,0.0,-0.03433,-0.02441,-0.0412,-0.1445
7.8865,-0.00565,-0.04761,-0.03693,-0.00931,-0.03647,-0.04852,-0.01465,-0.00198,-0.34195,-0.05798,0.21881,0.00229,-0.03235,-0.0264,-0.03967,-0.103
7.887,-0.00748,-0.04822,-0.03586,-0.02045,-0.03662,-0.04898,-0.01556,-0.00305,-0.42496,-0.05127,0.19943,0.00381,-0.0322,-0.02563,-0.02869,-0.06577
7.8875,-0.00839,-0.04929,-0.03616,-0.02548,-0.03662,-0.04791,-0.01663,-0.00412,-0.46799,-0.02335,0.15533,0.00443,-0.03021,-0.02182,-0.01221,-0.04257
7.888,-0.00809,-0.04929,-0.03662,-0.02777,-0.03525,-0.04807,-0.01709,-0.00458,-0.50339,0.02106,0.09613,0.00259,-0.02853,-0.0177,-0.00168,-0.02747
7.8885,-0.00732,-0.04868,-0.03693,-0.03403,-0.03448,-0.04807,-0.01724,-0.00366,-0.57266,0.06424,0.04303,-0.00122,-0.02777,-0.0174,0.00259,-0.01984
7.889,-0.00793,-0.04959,-0.03723,-0.04333,-0.03311,-0.04745,-0.01602,-0.00305,-0.66666,0.08804,0.0145,-0.00214,-0.02762,-0.01907,0.00839,-0.02335
7.8895,-0.009,-0.05035,-0.03754,-0.04257,-0.03143,-0.04578,-0.01465,-0.00244,-0.75439,0.0798,0.00824,-0.00076,-0.02716,-0.01999,0.01907,-0.03494
7.89,-0.00946,-0.05035,-0.03555,-0.02823,-0.03082,-0.04425,-0.01404,-0.00275,-0.8255,0.04211,-0.00092,0.00046,-0.02777,-0.02121,0.03189,-0.04456
7.8905,-0.00916,-0.04944,-0.03433,-0.01282,-0.03006,-0.0441,-0.01373,-0.00305,-0.8757,-0.00183,-0.01907,-0.00153,-0.0296,-0.02396,0.0383,-0.04517
7.891,-0.01068,-0.047,-0.03326,-0.00656,-0.0296,-0.04562,-0.01373,-0.00366,-0.89035,-0.0296,-0.02487,-0.00366,-0.03143,-0.02655,0.03723,-0.03876
7.8915,-0.01175,-0.04547,-0.03387,-0.00641,-0.02945,-0.04791,-0.01404,-0.00336,-0.87631,-0.03647,-0.00534,-0.00473,-0.03204,-0.02747,0.03235,-0.02563
7.892,-0.00961,-0.04547,-0.03403,-0.00381,-0.02899,-0.04761,-0.01511,-0.00229,-0.87036,-0.04196,0.02319,-0.00458,-0.03204,-0.02625,0.02594,-0.00641
7.8925,-0.00702,-0.047,-0.03357,-0.00092,-0.02808,-0.04562,-0.01663,-0.00046,-0.89447,-0.06149,0.03464,-0.00534,-0.03281,-0.0264,0.02121,0.01724
7.893,-0.00473,-0.04639,-0.03387,-0.00092,-0.02762,-0.04272,-0.01694,0.00107,-0.93033,-0.08636,0.02914,-0.00259,-0.03433,-0.02625,0.01877,0.03571
7.8935,-0.00397,-0.0441,-0.03342,-0.00366,-0.02808,-0.04089,-0.01617,0.00275,-0.9433,-0.09216,0.02197,0.00275,-0.03586,-0.02625,0.01526,0.03693
7.894,-0.00565,-0.04242,-0.03143,-0.00366,-0.02914,-0.0412,-0.01556,0.0029,-0.92682,-0.07416,0.01572,0.00824,-0.0354,-0.02609,0.00397,0.02365
7.8945,-0.0058,-0.04288,-0.02991,-0.00214,-0.02914,-0.04196,-0.01526,0.00214,-0.91019,-0.04593,0.0058,0.01007,-0.03372,-0.02426,-0.01282,0.01373
7.895,-0.00549,-0.04364,-0.02884,0.0,-0.02777,-0.0415,-0.01465,0.00122,-0.90469,-0.02228,-0.00336,0.0087,-0.03098,-0.0206,-0.02518,0.01526
7.8955,-0.00336,-0.04395,-0.02991,0.00015,-0.02594,-0.04013,-0.01389,0.00092,-0.89767,-0.00381,0.00092,0.00732,-0.02914,-0.01755,-0.02304,0.01907
7.896,-0.00214,-0.0441,-0.03052,-0.00076,-0.02594,-0.04105,-0.01328,-0.00076,-0.87967,0.01221,0.02045,0.00702,-0.02838,-0.01846,-0.0087,0.00793
7.8965,-0.00366,-0.04425,-0.03204,-0.00092,-0.02655,-0.04288,-0.01343,-0.00336,-0.85526,0.02853,0.04059,0.00534,-0.0293,-0.02319,0.00107,-0.02777
7.897,-0.00656,-0.0444,-0.03189,-0.00153,-0.02762,-0.0444,-0.01389,-0.00427,-0.82764,0.04379,0.0386,0.00305,-0.02991,-0.02686,-0.00366,-0.0795
7.8975,-0.00702,-0.04242,-0.03311,-0.0032,-0.02777,-0.04456,-0.01373,-0.00259,-0.80597,0.05402,0.00977,0.00198,-0.02747,-0.02518,-0.01724,-0.12695
7.898,-0.00595,-0.04028,-0.03174,-0.00443,-0.02731,-0.0441,-0.01343,-0.00137,-0.79361,0.05295,-0.0209,0.0032,-0.02319,-0.01862,-0.02106,-0.1561
7.8985,-0.00534,-0.03967,-0.02975,-0.00458,-0.02625,-0.04425,-0.01312,-0.00153,-0.78064,0.03693,-0.02594,0.00427,-0.01923,-0.01099,-0.00961,-0.16663
7.899,-0.0058,-0.04028,-0.02762,-0.00198,-0.0264,-0.04501,-0.01465,-0.00259,-0.76584,0.01038,-0.009,0.00488,-0.01816,-0.00549,0.0119,-0.15305
7.8995,-0.00641,-0.03952,-0.02792,-0.00015,-0.02701,-0.04456,-0.01587,-0.00229,-0.76416,-0.01282,0.00336,0.00702,-0.01907,-0.00458,0.03464,-0.10315
7.9,-0.00488,-0.03693,-0.02747,-0.00061,-0.0264,-0.04318,-0.01587,-0.00092,-0.77545,-0.02472,-0.01419,0.00824,-0.02182,-0.00626,0.04898,-0.0238
7.9005,-0.00336,-0.03433,-0.02884,-0.00244,-0.0264,-0.04105,-0.01511,-0.00061,-0.78247,-0.02914,-0.05417,0.00626,-0.02472,-0.00946,0.04929,0.0441
7.901,-0.00336,-0.03265,-0.02853,-0.00381,-0.02686,-0.04166,-0.01617,-0.00198,-0.77484,-0.03479,-0.0824,0.00153,-0.02762,-0.01221,0.0441,0.06012
7.9015,-0.00504,-0.03311,-0.02838,-0.00275,-0.02731,-0.04379,-0.01709,-0.00397,-0.75943,-0.04257,-0.0795,-0.00275,-0.0293,-0.01358,0.04471,0.02884
7.902,-0.00641,-0.03494,-0.02869,-0.00229,-0.02884,-0.04623,-0.01617,-0.00504,-0.74005,-0.04822,-0.05737,-0.00397,-0.03052,-0.01343,0.04425,-0.01068
7.9025,-0.00565,-0.03769,-0.02914,-0.00381,-0.02991,-0.04745,-0.01511,-0.00534,-0.7106,-0.05005,-0.03586,-0.00137,-0.03082,-0.01266,0.02899,-0.03815
7.903,-0.00504,-0.03906,-0.03021,-0.00443,-0.02991,-0.04791,-0.01419,-0.00443,-0.67215,-0.04898,-0.01724,0.00031,-0.03067,-0.0119,0.00336,-0.05844
7.9035,-0.00458,-0.0386,-0.02991,-0.00504,-0.02884,-0.04791,-0.01343,-0.0029,-0.6337,-0.05295,0.00977,-0.00122,-0.03128,-0.01175,-0.01266,-0.08041
7.904,-0.00458,-0.03677,-0.02945,-0.00534,-0.02869,-0.04547,-0.01297,-0.00061,-0.60471,-0.06424,0.04471,-0.00488,-0.0322,-0.01236,-0.01389,-0.09247
7.9045,-0.00427,-0.03662,-0.02991,-0.00641,-0.02823,-0.04211,-0.01373,-0.00015,-0.58395,-0.07324,0.07507,-0.00565,-0.03479,-0.01251,-0.00992,-0.08438
7.905,-0.00351,-0.03784,-0.03006,-0.00671,-0.02823,-0.04166,-0.01404,-0.00153,-0.56885,-0.06744,0.08987,-0.00336,-0.03754,-0.01297,-0.00504,-0.05661
7.9055,-0.00381,-0.03845,-0.02884,-0.00763,-0.02945,-0.04364,-0.0145,-0.00336,-0.55725,-0.04944,0.0885,-0.00076,-0.03876,-0.01312,0.0,-0.02701
7.906,-0.00351,-0.03784,-0.02808,-0.00763,-0.03143,-0.04547,-0.01434,-0.0058,-0.54413,-0.02808,0.07629,-0.00015,-0.03815,-0.01373,0.00763,-0.01663
7.9065,-0.00366,-0.03784,-0.0296,-0.00458,-0.03174,-0.04562,-0.01434,-0.00549,-0.52155,-0.01724,0.06195,0.00122,-0.03738,-0.01587,0.01724,-0.03998
7.907,-0.00427,-0.03845,-0.03326,-0.00198,-0.03128,-0.04639,-0.0148,-0.00366,-0.48157,-0.01312,0.04227,0.00458,-0.03693,-0.01846,0.0238,-0.07874
7.9075,-0.00427,-0.0383,-0.03571,-0.00015,-0.03189,-0.04776,-0.01495,-0.00183,-0.4248,-0.0174,0.01053,0.00839,-0.03784,-0.01984,0.02289,-0.08835
7.908,-0.00412,-0.0383,-0.03769,-0.00122,-0.03326,-0.04898,-0.01465,-0.00244,-0.37018,-0.03326,-0.04105,0.00809,-0.04059,-0.02075,0.00885,-0.03708
7.9085,-0.00351,-0.03738,-0.0383,-0.00641,-0.03448,-0.0499,-0.0148,-0.00412,-0.32501,-0.05966,-0.10788,0.00519,-0.04318,-0.02243,-0.0061,0.03525
7.909,-0.00229,-0.03815,-0.03784,-0.01831,-0.03464,-0.05005,-0.01373,-0.00549,-0.27939,-0.08347,-0.16571,0.00397,-0.04471,-0.02548,-0.00793,0.05066
7.9095,-0.00229,-0.03876,-0.03754,-0.03403,-0.0351,-0.05112,-0.01175,-0.00534,-0.24048,-0.09888,-0.19226,0.00534,-0.04364,-0.02731,0.00458,-0.00519
7.91,-0.00259,-0.0383,-0.03708,-0.04471,-0.03586,-0.05096,-0.01038,-0.00534,-0.21988,-0.11948,-0.18524,0.00671,-0.03967,-0.02548,0.01831,-0.06653
7.9105,-0.00153,-0.03708,-0.03647,-0.04532,-0.03632,-0.05081,-0.01144,-0.00488,-0.20935,-0.15503,-0.16281,0.00519,-0.03616,-0.02029,0.02136,-0.08377
7.911,-0.00168,-0.03479,-0.03555,-0.04257,-0.03479,-0.05005,-0.01205,-0.0058,-0.19638,-0.19531,-0.13336,0.00397,-0.03403,-0.01358,0.02121,-0.08926
7.9115,-0.00214,-0.03372,-0.0354,-0.0444,-0.03372,-0.0499,-0.01266,-0.0058,-0.16953,-0.21179,-0.10025,0.00763,-0.03418,-0.00916,0.02426,-0.12543
7.912,-0.00351,-0.03525,-0.03464,-0.04684,-0.0322,-0.05005,-0.01221,-0.00595,-0.11932,-0.19745,-0.06866,0.01251,-0.03403,-0.01129,0.02884,-0.17044
7.9125,-0.00427,-0.03845,-0.03296,-0.03601,-0.03235,-0.04898,-0.01266,-0.0061,-0.06561,-0.17227,-0.04089,0.00885,-0.03555,-0.01663,0.03052,-0.16434
7.913,-0.00381,-0.03952,-0.03204,0.00641,-0.03006,-0.04776,-0.01297,-0.00565,-0.03586,-0.1561,-0.01404,-0.00351,-0.03693,-0.02075,0.02975,-0.09552
7.9135,-0.00336,-0.03845,-0.03128,0.07202,-0.0293,-0.04715,-0.01221,-0.00381,-0.03479,-0.14725,0.01266,-0.0177,-0.03723,-0.02121,0.02686,-0.02045
