time,RectFemL,VastusMedL,VastusLatL,TibAntL,HamMedL,HamLatL,GastroMedL,GastroLatL,RectFemR,VastusMedR,VastusLatR,TibAntR,HamMedR,HamLatR,GastroMedR,GastroLatR
7.21,0.00366,-0.03738,-0.08072,-0.01221,-0.03021,-0.04883,-0.00473,-0.02975,0.72296,-0.01877,-0.05264,-0.00443,-0.04135,-0.01663,0.00671,-0.04501
7.2105,0.00687,-0.0322,-0.07507,-0.01266,-0.02975,-0.04807,-0.0444,-0.06287,0.6543,-0.01678,-0.04135,0.00305,-0.04257,-0.01678,0.00961,-0.04456
7.211,0.00946,-0.03235,-0.06531,-0.01068,-0.0293,-0.04745,-0.08957,-0.0444,0.56427,-0.0174,-0.02655,0.00351,-0.04303,-0.01602,0.01007,-0.04379
7.2115,0.00992,-0.03708,-0.04257,-0.01022,-0.03143,-0.04745,-0.10269,0.02502,0.4744,-0.01694,-0.0148,0.0029,-0.04364,-0.0148,0.00946,-0.04303
7.212,0.00793,-0.03967,-0.00336,-0.01053,-0.03281,-0.04791,-0.07797,0.11459,0.42191,-0.01526,-0.0058,0.00687,-0.04562,-0.0148,0.00854,-0.04105
7.2125,0.00458,-0.03769,0.03082,-0.01114,-0.03357,-0.04791,-0.04745,0.16083,0.41183,-0.01541,0.00076,0.01022,-0.04547,-0.01633,0.00992,-0.03952
7.213,0.00183,-0.03479,0.02853,-0.0119,-0.0322,-0.04807,-0.03159,0.13016,0.40527,-0.01678,0.00534,0.00351,-0.04532,-0.01709,0.01099,-0.0383
7.2135,0.00153,-0.03479,-0.00473,-0.01205,-0.03204,-0.04883,-0.01419,0.05585,0.37003,-0.01755,0.00595,-0.01221,-0.04303,-0.01678,0.01114,-0.03799
7.214,0.0029,-0.03906,-0.03723,-0.01266,-0.03464,-0.04807,0.01923,0.00122,0.31677,-0.01648,0.00198,-0.02609,-0.04181,-0.01633,0.01083,-0.03799
7.2145,0.00397,-0.0444,-0.04837,-0.01419,-0.03677,-0.04684,0.05585,-0.01389,0.25116,-0.01434,-0.00229,-0.02792,-0.04105,-0.01694,0.01099,-0.03845
7.215,0.00397,-0.04547,-0.04669,-0.01465,-0.03769,-0.04501,0.07263,-0.01526,0.16159,-0.01282,-0.0061,-0.02304,-0.04074,-0.01923,0.01221,-0.03876
7.2155,0.00519,-0.04257,-0.04822,-0.01434,-0.03876,-0.04395,0.06653,-0.02045,0.0473,-0.01175,-0.00916,-0.0177,-0.04044,-0.02045,0.01251,-0.03784
7.216,0.00702,-0.0383,-0.05478,-0.01389,-0.0383,-0.04456,0.04669,-0.02945,-0.06363,-0.01297,-0.01205,-0.009,-0.03967,-0.01984,0.01282,-0.03662
7.2165,0.00931,-0.0383,-0.06119,-0.01373,-0.03784,-0.04547,0.0145,-0.04089,-0.14923,-0.01465,-0.01511,0.0029,-0.03922,-0.01831,0.01282,-0.03586
7.217,0.00961,-0.0415,-0.06271,-0.01282,-0.03754,-0.04654,-0.02747,-0.05783,-0.20477,-0.01495,-0.0177,0.01053,-0.03815,-0.0177,0.0119,-0.03662
7.2175,0.00626,-0.04486,-0.06195,-0.00885,-0.03815,-0.04776,-0.06454,-0.07278,-0.23071,-0.01724,-0.01831,0.0087,-0.03632,-0.01877,0.01114,-0.0386
7.218,-0.00443,-0.04669,-0.05966,-0.00534,-0.03906,-0.04822,-0.07568,-0.07538,-0.2298,-0.02075,-0.01907,0.00244,-0.0351,-0.02136,0.01053,-0.04059
7.2185,-0.01877,-0.04608,-0.05722,-0.00443,-0.03769,-0.04715,-0.06409,-0.06271,-0.21255,-0.02472,-0.02228,-0.00107,-0.03448,-0.02258,0.00977,-0.04059
7.219,-0.02884,-0.04547,-0.05508,-0.00748,-0.03555,-0.04578,-0.05264,-0.04303,-0.18875,-0.02686,-0.02914,-0.00122,-0.03571,-0.02563,0.00793,-0.03922
7.2195,-0.02625,-0.04639,-0.05417,-0.01022,-0.03494,-0.04608,-0.0473,-0.03784,-0.16739,-0.0293,-0.03586,-0.00427,-0.03769,-0.02884,0.00702,-0.03967
7.22,-0.01556,-0.04745,-0.05341,-0.01083,-0.03418,-0.04837,-0.02441,-0.06943,-0.16296,-0.03113,-0.03754,-0.00656,-0.03754,-0.03143,0.00488,-0.04135
7.2205,-0.0058,-0.047,-0.05325,-0.00977,-0.03387,-0.05295,0.0206,-0.12863,-0.21591,-0.03342,-0.03372,-0.00946,-0.03571,-0.0322,0.00519,-0.04211
7.221,-0.00214,-0.04486,-0.05341,-0.01007,-0.03357,-0.05692,0.05219,-0.1712,-0.37506,-0.03281,-0.03082,-0.01282,-0.03159,-0.02869,0.00732,-0.04257
7.2215,-0.00107,-0.04395,-0.05463,-0.01236,-0.03387,-0.05814,0.04318,-0.15152,-0.64575,-0.0325,-0.0293,-0.01556,-0.02914,-0.0238,0.00793,-0.04105
7.222,0.00031,-0.04349,-0.05478,-0.01572,-0.03372,-0.05463,0.01633,-0.06805,-0.96313,-0.03403,-0.02533,-0.01251,-0.02853,-0.01831,0.00641,-0.03952
7.2225,0.00168,-0.04288,-0.05402,-0.01846,-0.03403,-0.04929,0.00427,0.03296,-1.22482,-0.04074,-0.01755,-0.00015,-0.02991,-0.01358,0.00504,-0.03891
7.223,0.00122,-0.04196,-0.05127,-0.01923,-0.03326,-0.04379,-0.0029,0.08911,-1.37695,-0.04974,-0.00809,0.02029,-0.0322,-0.00839,0.00687,-0.03937
7.2235,0.00076,-0.03967,-0.04883,-0.01785,-0.03235,-0.04028,-0.02777,0.08392,-1.45309,-0.06012,-0.00336,0.04578,-0.03235,-0.00351,0.01068,-0.04028
7.224,0.00183,-0.03845,-0.04776,-0.01678,-0.03128,-0.03632,-0.05737,0.06393,-1.50208,-0.06195,-0.00214,0.06607,-0.03403,-0.00168,0.01221,-0.04059
7.2245,0.00214,-0.0383,-0.04761,-0.01358,-0.03052,-0.03525,-0.06271,0.07141,-1.51566,-0.05142,-0.0029,0.06531,-0.03601,-0.00153,0.01114,-0.04059
7.225,-0.00092,-0.03937,-0.04669,-0.00946,-0.03098,-0.03967,-0.0473,0.08041,-1.47629,-0.0322,-0.0058,0.04272,-0.04089,-0.00504,0.00946,-0.03983
7.2255,-0.00595,-0.04288,-0.04532,-0.00687,-0.02945,-0.04517,-0.04578,0.05295,-1.42822,-0.01648,-0.00839,0.01877,-0.04532,-0.01114,0.00931,-0.03937
7.226,-0.00946,-0.04547,-0.04684,-0.00885,-0.02731,-0.04715,-0.0737,-0.00427,-1.4566,-0.00977,-0.00778,0.00656,-0.04852,-0.01724,0.01068,-0.03937
7.2265,-0.01053,-0.04791,-0.04959,-0.01205,-0.02487,-0.04608,-0.1059,-0.07416,-1.60629,-0.01175,-0.00076,-0.00168,-0.05066,-0.02014,0.01099,-0.04105
7.227,-0.00977,-0.0499,-0.05127,-0.01389,-0.0238,-0.04471,-0.1062,-0.17212,-1.82144,-0.01465,0.01144,-0.01511,-0.05005,-0.01953,0.01007,-0.04349
7.2275,-0.00992,-0.05524,-0.04807,-0.01358,-0.02335,-0.04532,-0.08194,-0.30045,-1.97784,-0.01221,0.01984,-0.02777,-0.04745,-0.01633,0.00397,-0.04471
7.228,-0.01053,-0.06561,-0.03937,-0.01373,-0.02411,-0.04547,-0.06989,-0.39658,-2.01431,0.00015,0.0174,-0.03067,-0.04242,-0.01297,-0.00732,-0.04395
7.2285,-0.01038,-0.07736,-0.02808,-0.01526,-0.02518,-0.0444,-0.07874,-0.35248,-2.00043,0.01862,0.00839,-0.02213,-0.03723,-0.01068,-0.02396,-0.04318
7.229,-0.00992,-0.08026,-0.02106,-0.01526,-0.02289,-0.04486,-0.06638,-0.11154,-2.06635,0.03448,0.00443,-0.01038,-0.03479,-0.00916,-0.03616,-0.04211
7.2295,-0.00839,-0.07034,-0.01953,-0.01236,-0.01907,-0.04608,0.0,0.23331,-2.25327,0.03952,0.01266,0.00046,-0.03464,-0.01083,-0.03647,-0.0412
7.23,-0.00702,-0.05524,-0.02426,-0.00961,-0.01648,-0.047,0.0795,0.4631,-2.44553,0.03311,0.03113,0.00946,-0.03784,-0.01434,-0.02731,-0.04059
7.2305,-0.00351,-0.0441,-0.03326,-0.00916,-0.01678,-0.04761,0.1033,0.42252,-2.47879,0.0174,0.04578,0.01358,-0.04272,-0.02167,-0.01877,-0.03906
7.231,0.00046,-0.03876,-0.04318,-0.01129,-0.0177,-0.04639,0.06256,0.19073,-2.3259,0.00443,0.03708,0.00839,-0.04623,-0.02853,-0.00992,-0.03937
7.2315,0.0032,-0.03723,-0.04913,-0.01251,-0.01602,-0.04623,0.00397,-0.00443,-2.13074,0.0,0.00137,-0.00397,-0.04623,-0.03265,0.01236,-0.0383
7.232,0.0029,-0.03845,-0.04776,-0.00977,-0.01358,-0.04608,-0.03922,-0.02686,-2.04041,0.00198,-0.04059,-0.01755,-0.04395,-0.03235,0.04868,-0.03723
7.2325,0.00153,-0.04013,-0.04074,-0.00366,-0.01343,-0.04608,-0.0621,0.06516,-2.05231,0.00641,-0.06683,-0.02731,-0.04425,-0.03174,0.08072,-0.03662
7.233,-0.00046,-0.0415,-0.03098,0.00153,-0.0145,-0.04486,-0.0676,0.14465,-2.08633,0.00504,-0.07584,-0.0354,-0.04608,-0.02914,0.08514,-0.03769
7.2335,-0.00153,-0.04196,-0.02121,0.00366,-0.01724,-0.04578,-0.05371,0.15198,-2.13593,-0.00259,-0.07904,-0.04745,-0.04807,-0.02304,0.06363,-0.03967
7.234,-0.00366,-0.0415,-0.01297,0.00183,-0.01984,-0.04822,-0.01068,0.10406,-2.26517,-0.01495,-0.08011,-0.05844,-0.04761,-0.01114,0.03769,-0.04166
7.2345,-0.00641,-0.03601,-0.01221,-0.00168,-0.02441,-0.05127,0.0528,0.04547,-2.51556,-0.02396,-0.07675,-0.05524,-0.0444,0.00214,0.02548,-0.04379
7.235,-0.01114,-0.0235,-0.02716,-0.0058,-0.0293,-0.05249,0.09064,0.00702,-2.93579,-0.02609,-0.07126,-0.03128,-0.03784,0.01251,0.0238,-0.04684
7.2355,-0.01526,-0.00488,-0.05264,-0.00931,-0.03372,-0.05127,0.06012,-0.00473,-3.61053,-0.0235,-0.06851,-0.00015,-0.03189,0.0174,0.02106,-0.04898
7.236,-0.01816,0.01266,-0.07019,-0.01068,-0.03738,-0.05249,-0.01251,-0.00351,-4.35104,-0.02213,-0.06699,0.01724,-0.03036,0.01694,0.01236,-0.04959
7.2365,-0.01923,0.01999,-0.06653,-0.00885,-0.03922,-0.05264,-0.06104,-0.00229,-4.70276,-0.02304,-0.05936,0.02228,-0.0322,0.01129,0.00473,-0.05005
7.237,-0.0209,0.01282,-0.04883,-0.0061,-0.04181,-0.05203,-0.05569,-0.00397,-4.59885,-0.02441,-0.04471,0.03403,-0.03143,0.00198,0.00443,-0.04913
7.2375,-0.02472,0.0,-0.02869,-0.00519,-0.04395,-0.0502,-0.02258,-0.009,-4.41956,-0.02518,-0.0293,0.05875,-0.02762,-0.00946,0.00839,-0.04593
7.238,-0.02991,-0.00809,-0.01511,-0.00626,-0.04669,-0.04852,0.00015,-0.01648,-4.40948,-0.02441,-0.01495,0.07431,-0.02441,-0.0238,0.0116,-0.04272
7.2385,-0.03326,-0.00961,-0.00366,-0.00916,-0.04852,-0.04807,-0.00305,-0.02136,-4.44855,-0.02045,0.00031,0.06989,-0.02167,-0.03983,0.01404,-0.04074
7.239,-0.03128,-0.00748,0.00687,-0.01083,-0.04837,-0.04761,-0.0177,-0.01923,-4.31702,-0.0145,0.01541,0.05753,-0.01877,-0.056,0.01373,-0.04074
7.2395,-0.0235,-0.00839,0.01404,-0.01205,-0.04745,-0.04807,-0.02472,-0.01144,-3.83514,-0.00824,0.02747,0.05035,-0.01678,-0.06775,0.01205,-0.04288
7.24,-0.01312,-0.0145,0.01633,-0.01205,-0.04456,-0.04898,-0.02167,-0.00305,-2.99408,-0.00061,0.04318,0.04959,-0.01587,-0.07278,0.00839,-0.04486
7.2405,-0.00748,-0.02426,0.01617,-0.01083,-0.04272,-0.05081,-0.01282,0.00031,-2.07733,0.00565,0.07202,0.05524,-0.0174,-0.07004,0.0058,-0.04654
7.241,-0.00641,-0.03464,0.01617,-0.01007,-0.04028,-0.05142,0.00458,0.00107,-1.38763,0.00946,0.09689,0.06317,-0.01892,-0.06424,0.00595,-0.04791
7.2415,-0.00702,-0.04395,0.01175,-0.00885,-0.03906,-0.05112,0.03143,0.00137,-0.86243,0.00839,0.08286,0.05951,-0.02136,-0.05859,0.00549,-0.04822
7.242,-0.00626,-0.05463,-0.00336,-0.00931,-0.03784,-0.04974,0.04791,0.00092,-0.21576,-0.00092,0.02304,0.0296,-0.02426,-0.05371,0.00626,-0.04898
7.2425,-0.00076,-0.06699,-0.02396,-0.01022,-0.03601,-0.04974,0.03311,-0.00153,0.61295,-0.01587,-0.04257,-0.02884,-0.03082,-0.04776,0.00916,-0.04807
7.243,0.00916,-0.07858,-0.03784,-0.01175,-0.03357,-0.0499,0.00153,-0.00687,1.3974,-0.03387,-0.07553,-0.09445,-0.03799,-0.03845,0.00977,-0.04837
7.2435,0.01999,-0.0824,-0.0386,-0.01266,-0.02945,-0.04852,-0.01083,-0.01312,1.96213,-0.04623,-0.07507,-0.13046,-0.04272,-0.02914,0.00839,-0.04807
7.244,0.02502,-0.07843,-0.03235,-0.01312,-0.02502,-0.04654,0.00031,-0.01343,2.37167,-0.05035,-0.06226,-0.12375,-0.04562,-0.02106,0.0061,-0.04852
7.2445,0.02243,-0.07309,-0.03067,-0.01266,-0.02167,-0.04517,0.0061,-0.0061,2.80792,-0.04791,-0.05127,-0.10529,-0.04486,-0.01511,0.00656,-0.04684
7.245,0.01587,-0.0708,-0.03784,-0.01312,-0.01999,-0.04364,-0.00854,0.00473,3.35602,-0.04166,-0.04471,-0.11307,-0.04105,-0.00992,0.009,-0.04456
7.2455,0.00885,-0.06744,-0.04929,-0.01465,-0.01663,-0.04303,-0.02609,0.01022,3.95844,-0.03113,-0.04425,-0.14526,-0.03525,-0.00549,0.01068,-0.04303
7.246,0.00381,-0.06607,-0.05722,-0.01617,-0.01419,-0.04166,-0.03296,0.00977,4.47739,-0.01938,-0.04959,-0.1564,-0.03204,-0.00305,0.01038,-0.04379
7.2465,-0.00107,-0.06592,-0.06058,-0.01663,-0.01205,-0.04074,-0.03189,0.00809,4.80362,-0.00916,-0.05295,-0.10605,-0.03189,0.00046,0.01083,-0.04456
7.247,-0.0058,-0.06531,-0.06104,-0.01724,-0.01007,-0.04181,-0.02975,0.00702,4.93759,-0.00488,-0.0502,0.01083,-0.03098,0.0032,0.01144,-0.04349
7.2475,-0.00885,-0.06256,-0.06241,-0.01831,-0.01053,-0.04471,-0.0238,0.00092,4.95483,-0.00717,-0.04272,0.13748,-0.02991,0.00519,0.0119,-0.04227
7.248,-0.01114,-0.05676,-0.06378,-0.01862,-0.01022,-0.04623,-0.01755,-0.01221,4.94125,-0.01251,-0.03479,0.18448,-0.02625,0.00641,0.009,-0.0412
7.2485,-0.01358,-0.05188,-0.065,-0.0174,-0.01083,-0.04608,-0.01862,-0.02274,4.92401,-0.01831,-0.02853,0.12222,-0.0235,0.00488,0.00626,-0.04364
7.249,-0.0174,-0.04913,-0.06271,-0.01602,-0.01266,-0.04578,-0.02853,-0.02487,4.88129,-0.02365,-0.03036,0.03387,-0.02014,0.00153,0.00565,-0.04623
7.2495,-0.02029,-0.04669,-0.06195,-0.01511,-0.01633,-0.04639,-0.03616,-0.02808,4.8175,-0.03082,-0.0499,0.0174,-0.01694,-0.0029,0.01114,-0.04898
7.25,-0.02182,-0.04486,-0.05966,-0.01358,-0.01938,-0.04593,-0.03769,-0.0351,4.7879,-0.04501,-0.08057,0.05035,-0.01755,-0.0087,0.01587,-0.05051
7.2505,-0.02274,-0.04349,-0.05264,-0.01266,-0.02106,-0.04364,-0.03937,-0.03922,4.8317,-0.06699,-0.09308,0.03555,-0.02029,-0.01862,0.01465,-0.05096
7.251,-0.02365,-0.04181,-0.03952,-0.01129,-0.01938,-0.04166,-0.04089,-0.03372,4.91852,-0.08224,-0.06439,-0.04364,-0.02197,-0.03052,0.00687,-0.05173
7.2515,-0.02411,-0.03983,-0.02029,-0.01099,-0.01801,-0.04181,-0.04211,-0.02533,4.97772,-0.07813,-0.00443,-0.09766,-0.01953,-0.04013,-0.00427,-0.05005
7.252,-0.02197,-0.0386,0.00305,-0.01068,-0.01816,-0.04303,-0.03922,-0.02426,4.98352,-0.05402,0.04562,-0.07645,-0.01266,-0.04364,-0.01587,-0.04684
7.2525,-0.01755,-0.03952,0.02396,-0.01007,-0.0206,-0.04471,-0.03372,-0.0296,4.96689,-0.02335,0.06577,-0.02472,-0.00534,-0.03922,-0.02289,-0.04456
7.253,-0.01358,-0.0412,0.03387,-0.00992,-0.02228,-0.04562,-0.02457,-0.03479,4.96033,-0.00061,0.06409,-0.00122,-0.00137,-0.02655,-0.02151,-0.04364
7.2535,-0.01038,-0.04196,0.02792,-0.00885,-0.02411,-0.04608,-0.01099,-0.03723,4.94675,0.01389,0.05753,-0.0032,-0.00031,-0.01221,-0.01373,-0.04349
7.254,-0.00824,-0.04044,0.00992,-0.00885,-0.02686,-0.04593,0.00427,-0.03708,4.87595,0.02151,0.04868,-0.00198,-0.00137,-0.00198,-0.0058,-0.04242
7.2545,-0.00641,-0.03952,-0.00931,-0.00931,-0.03021,-0.04562,0.00977,-0.03235,4.72336,0.02151,0.0296,0.0061,-0.00336,0.00061,0.00046,-0.04105
7.255,-0.00366,-0.03998,-0.02136,-0.00992,-0.03082,-0.04578,0.00229,-0.02426,4.53171,0.01495,-0.00229,0.01083,-0.00717,-0.00015,0.01419,-0.04028
7.2555,0.0,-0.04135,-0.02533,-0.00961,-0.03098,-0.04547,-0.00824,-0.0177,4.366,0.00153,-0.04608,0.0061,-0.01236,0.00153,0.04242,-0.04074
7.256,0.00183,-0.04105,-0.02777,-0.00977,-0.03372,-0.04639,-0.01495,-0.0148,4.25247,-0.01755,-0.08224,-0.00946,-0.0174,0.00946,0.06516,-0.04272
7.2565,0.00122,-0.03937,-0.02899,-0.01053,-0.03693,-0.04791,-0.01648,-0.01404,4.17786,-0.03922,-0.0914,-0.02396,-0.02197,0.02274,0.06119,-0.04501
7.257,-0.00031,-0.0386,-0.03067,-0.01053,-0.04211,-0.04852,-0.01572,-0.01221,4.11331,-0.05814,-0.06805,-0.01785,-0.02518,0.03891,0.02808,-0.04654
7.2575,-0.00031,-0.0386,-0.03265,-0.009,-0.04868,-0.04929,-0.01465,-0.00992,4.03137,-0.06836,-0.02975,0.01083,-0.02701,0.05722,-0.00778,-0.04562
7.258,0.00259,-0.03937,-0.03464,-0.00824,-0.05447,-0.04929,-0.01312,-0.009,3.90854,-0.06851,0.00443,0.04395,-0.02716,0.07309,-0.02289,-0.04379
7.2585,0.00595,-0.03937,-0.03494,-0.009,-0.0589,-0.05051,-0.0148,-0.01053,3.74603,-0.06485,0.03036,0.06607,-0.02823,0.08118,-0.0174,-0.04166
7.259,0.00885,-0.03998,-0.03708,-0.01022,-0.0589,-0.05203,-0.01724,-0.01312,3.55896,-0.05966,0.0386,0.07202,-0.03296,0.07904,-0.00626,-0.04181
7.2595,0.01007,-0.04089,-0.04059,-0.00977,-0.05661,-0.05371,-0.01877,-0.01404,3.35739,-0.05478,0.01755,0.0621,-0.03952,0.0679,0.00137,-0.04089
7.26,0.01022,-0.04074,-0.04715,-0.00824,-0.05478,-0.05417,-0.01541,-0.01434,3.14163,-0.05096,-0.03036,0.03662,-0.04471,0.04837,0.00519,-0.03693
7.2605,0.00931,-0.03906,-0.05417,-0.00839,-0.05341,-0.05493,-0.01129,-0.01358,2.91611,-0.04959,-0.07294,0.009,-0.04959,0.02106,0.00656,-0.0293
7.261,0.00778,-0.03693,-0.05844,-0.00946,-0.0528,-0.05447,-0.009,-0.01266,2.68997,-0.05249,-0.07553,-0.00366,-0.05539,-0.01068,0.00565,-0.02289
7.2615,0.00534,-0.03586,-0.05966,-0.01068,-0.05219,-0.05463,-0.00839,-0.0061,2.46048,-0.05417,-0.04181,0.0,-0.06058,-0.04211,0.00488,-0.02365
7.262,0.00259,-0.03586,-0.06134,-0.01175,-0.05203,-0.05539,-0.01022,0.00046,2.21375,-0.04944,-0.00458,0.00595,-0.06195,-0.06668,0.00366,-0.02884
7.2625,0.0,-0.03708,-0.06409,-0.01175,-0.05096,-0.05676,-0.01099,0.00107,1.9426,-0.0383,0.01633,0.00702,-0.0592,-0.08179,0.0032,-0.03448
7.263,-0.00122,-0.0412,-0.06668,-0.01144,-0.04868,-0.05707,-0.01205,-0.00549,1.67099,-0.02655,0.02899,0.00885,-0.05417,-0.08743,0.00336,-0.03906
7.2635,-0.00244,-0.05173,-0.06744,-0.01083,-0.0441,-0.05569,-0.0119,-0.01266,1.42303,-0.01312,0.04379,0.01236,-0.04822,-0.08621,0.00351,-0.04105
7.264,-0.00275,-0.06943,-0.06927,-0.01068,-0.04105,-0.05508,-0.01221,-0.01236,1.18866,0.00473,0.0589,0.01495,-0.04364,-0.08087,0.00107,-0.04379
7.2645,-0.00244,-0.08698,-0.07385,-0.01129,-0.04089,-0.05508,-0.01282,-0.00778,0.94543,0.02426,0.0647,0.01419,-0.03922,-0.07263,-0.0032,-0.04715
7.265,-0.00092,-0.09491,-0.0853,-0.01129,-0.04379,-0.05463,-0.01328,-0.00443,0.6752,0.04211,0.05768,0.01282,-0.03677,-0.06546,-0.00763,-0.05081
7.2655,0.00015,-0.09506,-0.09598,-0.01129,-0.04837,-0.05142,-0.01266,-0.00488,0.3569,0.04837,0.04379,0.01358,-0.03494,-0.06332,-0.01175,-0.05203
7.266,0.00046,-0.09644,-0.0943,-0.00992,-0.05066,-0.04868,-0.01282,-0.0061,-0.02136,0.04333,0.03204,0.0148,-0.03281,-0.065,-0.01678,-0.05203
7.2665,0.00214,-0.09628,-0.07889,-0.01007,-0.05127,-0.04654,-0.0116,-0.00458,-0.43915,0.03082,0.0296,0.0116,-0.03204,-0.06546,-0.02457,-0.05066
7.267,0.00488,-0.08621,-0.06104,-0.01007,-0.05081,-0.0441,-0.01114,-0.00183,-0.86792,0.01877,0.03494,0.0,-0.03235,-0.05981,-0.02792,-0.0499
7.2675,0.00732,-0.06409,-0.05524,-0.01022,-0.04623,-0.04333,-0.01144,-0.00076,-1.30096,0.01373,0.04425,-0.01587,-0.03418,-0.05203,-0.01404,-0.0499
7.268,0.00961,-0.04211,-0.05905,-0.00992,-0.03922,-0.04547,-0.01175,-0.00092,-1.73477,0.01266,0.0499,-0.02716,-0.03708,-0.04547,0.02045,-0.05066
7.2685,0.01144,-0.02731,-0.05219,-0.00931,-0.0325,-0.04974,-0.01297,-0.00015,-2.16858,0.00961,0.0499,-0.0264,-0.03723,-0.03998,0.05569,-0.0502
7.269,0.01144,-0.01419,-0.02228,-0.00961,-0.02777,-0.05478,-0.01404,0.00076,-2.59903,0.00717,0.04532,-0.01526,-0.03464,-0.03342,0.06363,-0.05005
7.2695,0.01205,0.00092,0.02228,-0.00931,-0.02579,-0.05783,-0.01358,0.00015,-3.02383,0.00626,0.03616,0.00061,-0.02869,-0.02609,0.0415,-0.04791
7.27,0.01083,0.01404,0.06027,-0.009,-0.02625,-0.05844,-0.01175,0.00031,-3.43369,0.00381,0.02441,0.01572,-0.02304,-0.0235,0.01678,-0.04532
7.2705,0.00854,0.02151,0.08331,-0.00854,-0.03189,-0.05829,-0.01099,0.00076,-3.80341,-0.01099,0.01068,0.02075,-0.02014,-0.02487,0.0116,-0.04318
7.271,0.00656,0.02289,0.09323,-0.00793,-0.0412,-0.05737,-0.01129,0.00107,-4.07913,-0.03311,-0.00748,0.01236,-0.02045,-0.02991,0.02014,-0.04181
7.2715,0.00656,0.01953,0.08911,-0.00885,-0.04791,-0.05524,-0.01221,0.00244,-4.20639,-0.04852,-0.03555,-0.00702,-0.02121,-0.03754,0.02609,-0.0412
7.272,0.00687,0.01572,0.06409,-0.00946,-0.04822,-0.05203,-0.0119,0.00366,-4.1687,-0.04974,-0.07004,-0.02319,-0.0206,-0.04578,0.02396,-0.04013
7.2725,0.00809,0.01328,0.02396,-0.00961,-0.04395,-0.05005,-0.01144,0.00412,-3.99109,-0.04211,-0.09293,-0.02914,-0.02075,-0.04944,0.02014,-0.0383
7.273,0.00732,0.01297,-0.01312,-0.00977,-0.04028,-0.05096,-0.01099,0.00427,-3.72604,-0.0325,-0.09018,-0.02686,-0.02274,-0.04517,0.01984,-0.03799
7.2735,0.00626,0.01343,-0.02914,-0.01068,-0.0386,-0.05295,-0.01129,0.00534,-3.47076,-0.02258,-0.06927,-0.0267,-0.02441,-0.03403,0.01862,-0.03693
7.274,0.00427,0.01205,-0.02914,-0.01205,-0.03662,-0.05493,-0.01419,0.00763,-3.358,-0.01541,-0.04379,-0.03525,-0.02457,-0.01999,0.0148,-0.03738
7.2745,0.0029,0.00824,-0.02655,-0.01312,-0.03418,-0.05478,-0.01312,0.01068,-3.44818,-0.01114,-0.0209,-0.04791,-0.02228,-0.00839,0.00916,-0.03738
7.275,0.00229,0.0029,-0.03174,-0.01251,-0.03387,-0.05356,-0.01266,0.01312,-3.60748,-0.01175,-0.00061,-0.04868,-0.01923,-0.00443,0.00473,-0.03632
7.2755,0.00153,-0.00397,-0.04028,-0.01083,-0.03433,-0.04959,-0.01343,0.0148,-3.58856,-0.01129,0.0174,-0.02975,-0.01511,-0.00885,-0.00122,-0.0351
7.276,0.00198,-0.01266,-0.04669,-0.01038,-0.03525,-0.04639,-0.01968,0.01526,-3.28293,-0.00687,0.03281,-0.00229,-0.009,-0.01358,-0.00702,-0.03403
7.2765,0.00244,-0.02106,-0.05234,-0.00961,-0.03433,-0.04318,-0.02731,0.01694,-2.81448,-0.00122,0.03647,0.01816,-0.00168,-0.01205,-0.01083,-0.03265
7.277,0.0029,-0.02869,-0.056,-0.00992,-0.03357,-0.03983,-0.03036,0.02014,-2.37381,0.00183,0.02426,0.02747,0.00305,-0.00458,-0.01038,-0.03189
7.2775,0.00229,-0.03464,-0.05646,-0.01038,-0.03143,-0.03693,-0.02975,0.01938,-2.03049,0.00031,0.00519,0.02777,0.00336,0.00183,-0.00473,-0.03082
7.278,0.00183,-0.03784,-0.05554,-0.01022,-0.0296,-0.03479,-0.02884,0.01129,-1.73599,0.00137,0.00275,0.0177,-0.00061,0.00443,0.00275,-0.03082
7.2785,0.00229,-0.03983,-0.05493,-0.00916,-0.02594,-0.0325,-0.02945,-0.01007,-1.43524,0.00458,0.02106,-0.00214,-0.0061,0.00305,0.01007,-0.03082
7.279,0.00183,-0.04028,-0.05539,-0.00793,-0.02258,-0.03006,-0.02716,-0.06058,-1.14014,0.00549,0.03494,-0.02289,-0.01282,0.00031,0.01495,-0.03143
7.2795,0.00031,-0.04196,-0.05493,-0.00763,-0.01968,-0.02853,-0.01465,-0.14969,-0.87784,-0.00092,0.02441,-0.03265,-0.0209,-0.00122,0.0145,-0.03067
7.28,-0.00107,-0.04242,-0.05325,-0.00717,-0.02106,-0.02777,-0.00519,-0.24628,-0.64301,-0.0116,0.00061,-0.02182,-0.02655,-0.0029,0.0087,-0.02975
7.2805,-0.00275,-0.04211,-0.05188,-0.00732,-0.02716,-0.03021,-0.01526,-0.27176,-0.42511,-0.01877,-0.01816,-0.00351,-0.03189,-0.00519,0.00214,-0.02991
7.281,-0.00458,-0.04227,-0.05112,-0.00916,-0.03555,-0.03281,-0.04349,-0.1474,-0.2272,-0.01801,-0.02914,0.00061,-0.0351,-0.0087,0.0,-0.03143
7.2815,-0.00549,-0.04547,-0.04852,-0.00992,-0.03906,-0.03571,-0.05585,0.11276,-0.04242,-0.01328,-0.04303,-0.02167,-0.03983,-0.01328,0.00153,-0.03418
7.282,-0.00626,-0.04974,-0.04456,-0.00916,-0.03464,-0.03647,-0.03143,0.35461,0.13153,-0.00916,-0.06332,-0.04684,-0.04501,-0.01816,0.00458,-0.03647
7.2825,-0.00626,-0.05432,-0.03891,-0.00854,-0.02655,-0.03662,0.00549,0.39993,0.28564,-0.00793,-0.0853,-0.0528,-0.05051,-0.02365,0.00351,-0.03876
7.283,-0.00717,-0.05676,-0.03342,-0.00839,-0.02182,-0.03693,0.01526,0.23056,0.41214,-0.00885,-0.0975,-0.04379,-0.05157,-0.02716,0.00137,-0.04105
7.2835,-0.00809,-0.05783,-0.02762,-0.00946,-0.02151,-0.03784,0.00015,0.01892,0.51651,-0.01205,-0.09598,-0.03525,-0.04974,-0.03006,0.00153,-0.04242
7.284,-0.00885,-0.05569,-0.02609,-0.01007,-0.02533,-0.03998,-0.00198,-0.06729,0.60699,-0.01663,-0.08484,-0.02762,-0.04807,-0.03342,0.00198,-0.04181
7.2845,-0.01007,-0.05157,-0.02792,-0.01175,-0.02991,-0.04303,0.02487,-0.02853,0.68375,-0.02228,-0.07065,-0.01114,-0.04532,-0.03891,0.00351,-0.03952
7.285,-0.01099,-0.04913,-0.0325,-0.01434,-0.03326,-0.04517,0.05127,0.02151,0.74768,-0.03159,-0.06042,0.00885,-0.04028,-0.04379,0.00366,-0.03769
7.2855,-0.01144,-0.05188,-0.03723,-0.01663,-0.0322,-0.0444,0.04623,0.01312,0.8017,-0.04135,-0.05295,0.01938,-0.03555,-0.04471,0.00458,-0.03815
7.286,-0.01205,-0.06027,-0.03799,-0.0177,-0.03159,-0.04257,0.02304,-0.02609,0.84961,-0.04562,-0.04639,0.0148,-0.03418,-0.04074,0.00565,-0.03983
7.2865,-0.01358,-0.07172,-0.03845,-0.01694,-0.03372,-0.04227,0.00961,-0.05081,0.88654,-0.04471,-0.0322,0.00198,-0.0354,-0.03311,0.00656,-0.04105
7.287,-0.0148,-0.0766,-0.03845,-0.01465,-0.03647,-0.04318,0.00778,-0.05676,0.91507,-0.04227,-0.00412,-0.01373,-0.03708,-0.02197,0.00717,-0.04181
7.2875,-0.01617,-0.07401,-0.03983,-0.01038,-0.03632,-0.04425,0.00092,-0.05325,0.93842,-0.04288,0.02762,-0.02655,-0.03662,-0.00671,0.00641,-0.04349
7.288,-0.01831,-0.06729,-0.0415,-0.0087,-0.03265,-0.04761,-0.01633,-0.04044,0.96008,-0.04364,0.04196,-0.01846,-0.03479,0.01022,0.00626,-0.04486
7.2885,-0.01984,-0.0621,-0.04395,-0.01038,-0.03006,-0.05341,-0.02716,-0.02121,0.97565,-0.04425,0.02762,0.0235,-0.0322,0.02304,0.00702,-0.04547
7.289,-0.0209,-0.05753,-0.04517,-0.01297,-0.03113,-0.05997,-0.02151,-0.01038,0.97549,-0.04364,-0.00107,0.07263,-0.03052,0.03006,0.00748,-0.04517
7.2895,-0.01999,-0.0531,-0.04608,-0.01282,-0.03113,-0.0621,-0.00595,-0.01236,0.9584,-0.0415,-0.02457,0.09094,-0.03052,0.03281,0.00778,-0.04593
7.29,-0.01816,-0.04898,-0.04517,-0.01068,-0.02945,-0.05997,-0.00259,-0.01633,0.94193,-0.0386,-0.03632,0.08545,-0.03357,0.0296,0.00702,-0.04745
7.2905,-0.01709,-0.047,-0.04456,-0.00946,-0.02808,-0.05646,-0.01389,-0.01541,0.93765,-0.03647,-0.04257,0.08774,-0.03799,0.0209,0.00687,-0.04868
7.291,-0.01709,-0.04593,-0.04471,-0.00809,-0.02686,-0.05615,-0.02533,-0.01495,0.92957,-0.03647,-0.04562,0.09644,-0.04074,0.00916,0.00748,-0.04852
7.2915,-0.01694,-0.04303,-0.04517,-0.00671,-0.02487,-0.05707,-0.02563,-0.02045,0.90729,-0.03754,-0.04364,0.07996,-0.03983,-0.00244,0.009,-0.0473
7.292,-0.01678,-0.03998,-0.04456,-0.00595,-0.02197,-0.05844,-0.01892,-0.02579,0.88501,-0.03891,-0.03754,0.03845,-0.03876,-0.01114,0.01038,-0.04608
7.2925,-0.01602,-0.03738,-0.0441,-0.0058,-0.01785,-0.05692,-0.01312,-0.02029,0.86945,-0.04059,-0.0296,0.00488,-0.03662,-0.01389,0.0119,-0.04501
7.293,-0.01617,-0.0354,-0.0441,-0.00656,-0.01633,-0.05417,-0.01221,-0.00717,0.85175,-0.03983,-0.02319,-0.00381,-0.03418,-0.01144,0.0148,-0.0441
7.2935,-0.01862,-0.03448,-0.04272,-0.00763,-0.01755,-0.05325,-0.01465,0.00381,0.82626,-0.03433,-0.02487,-0.00031,-0.0322,-0.01007,0.01663,-0.04272
7.294,-0.02304,-0.03525,-0.04211,-0.00854,-0.02457,-0.05325,-0.01663,0.00702,0.79086,-0.0267,-0.0322,0.0032,-0.0351,-0.01678,0.01617,-0.04333
7.2945,-0.02579,-0.03677,-0.04364,-0.00916,-0.03357,-0.05402,-0.01678,0.00626,0.75119,-0.0206,-0.03281,0.00702,-0.0386,-0.02686,0.01511,-0.04517
7.295,-0.02563,-0.0383,-0.05051,-0.009,-0.04181,-0.05371,-0.01663,0.00519,0.72449,-0.01633,-0.0174,0.01465,-0.04257,-0.03036,0.01404,-0.04623
7.2955,-0.0238,-0.04059,-0.05768,-0.00946,-0.04562,-0.05203,-0.0174,0.00381,0.71533,-0.01038,-0.00092,0.02762,-0.04486,-0.0238,0.01358,-0.04532
7.296,-0.02319,-0.04257,-0.06104,-0.00946,-0.04593,-0.04852,-0.0177,0.00214,0.70465,-0.00305,0.00168,0.04166,-0.04578,-0.01205,0.01205,-0.04547
7.2965,-0.02365,-0.04395,-0.05875,-0.00946,-0.04501,-0.04608,-0.0174,0.0,0.67734,0.0032,-0.00748,0.0531,-0.04395,-0.00168,0.01038,-0.04501
7.297,-0.02289,-0.04425,-0.05585,-0.01038,-0.04242,-0.04349,-0.01648,-0.00061,0.64102,0.0032,-0.01526,0.05676,-0.04196,0.00427,0.00992,-0.04547
7.2975,-0.02167,-0.04196,-0.05692,-0.01038,-0.03662,-0.04074,-0.01602,-0.00122,0.60669,-0.00015,-0.01709,0.04898,-0.04135,0.0061,0.01114,-0.04578
7.298,-0.0206,-0.03937,-0.0592,-0.00839,-0.03174,-0.0386,-0.01587,-0.00275,0.57098,-0.00229,-0.02487,0.0235,-0.04135,0.00046,0.01099,-0.04623
7.2985,-0.02045,-0.03876,-0.0592,-0.00641,-0.02853,-0.03647,-0.01541,-0.00595,0.53253,-0.00259,-0.04471,-0.0206,-0.04135,-0.01572,0.01007,-0.04837
7.299,-0.01999,-0.04089,-0.05814,-0.00656,-0.02899,-0.03464,-0.01511,-0.00732,0.49347,-0.00656,-0.07156,-0.06668,-0.04044,-0.04288,0.01053,-0.04837
7.2995,-0.01709,-0.04318,-0.05539,-0.00854,-0.03082,-0.03448,-0.01587,-0.00687,0.4599,-0.01526,-0.09583,-0.08575,-0.03937,-0.07477,0.01312,-0.04593
7.3,-0.01343,-0.04425,-0.05188,-0.00977,-0.03067,-0.03342,-0.01755,-0.00717,0.42953,-0.03021,-0.10117,-0.07187,-0.03799,-0.10437,0.01541,-0.04181
7.3005,-0.00992,-0.04745,-0.0531,-0.00916,-0.02762,-0.03174,-0.01801,-0.00778,0.3978,-0.04639,-0.07324,-0.05249,-0.03723,-0.12863,0.01724,-0.03937
7.301,-0.00687,-0.05508,-0.05539,-0.00732,-0.01968,-0.03021,-0.01648,-0.0058,0.36392,-0.05905,-0.01175,-0.05539,-0.03586,-0.14389,0.01678,-0.03769
7.3015,-0.00275,-0.0647,-0.05539,-0.00641,-0.00793,-0.03128,-0.0145,0.00107,0.33051,-0.05997,0.056,-0.07111,-0.03113,-0.14542,0.01633,-0.03601
7.302,0.00229,-0.07111,-0.04639,-0.00595,0.00305,-0.03464,-0.01343,0.00916,0.3009,-0.04837,0.0885,-0.07004,-0.02563,-0.13016,0.01495,-0.03723
7.3025,0.00687,-0.06744,-0.0354,-0.00671,0.00961,-0.03754,-0.01343,0.01221,0.26535,-0.03616,0.07416,-0.05035,-0.02243,-0.103,0.01358,-0.03952
7.303,0.00656,-0.05829,-0.03342,-0.009,0.01312,-0.03891,-0.01297,0.00931,0.21698,-0.02502,0.0415,-0.04532,-0.02167,-0.07263,0.0145,-0.04059
7.3035,0.00198,-0.04898,-0.04303,-0.01099,0.01633,-0.04044,-0.01144,0.0032,0.16846,-0.01556,0.01846,-0.08636,-0.02243,-0.04303,0.01633,-0.03983
7.304,-0.00336,-0.04501,-0.05524,-0.0119,0.01846,-0.04242,-0.00931,-0.00381,0.13565,-0.00275,0.00595,-0.15335,-0.02243,-0.01862,0.01617,-0.04089
7.3045,-0.00717,-0.04486,-0.05478,-0.01175,0.01755,-0.04425,-0.00702,-0.009,0.10757,0.01373,-0.00549,-0.19409,-0.02274,-0.00015,0.01419,-0.04349
7.305,-0.00992,-0.04486,-0.03586,-0.0116,0.01205,-0.04654,-0.00717,-0.00854,0.07324,0.02472,-0.01617,-0.16998,-0.02457,0.00839,0.01114,-0.04669
7.3055,-0.01144,-0.04257,-0.00626,-0.01144,0.00381,-0.04807,-0.00946,0.00031,0.04044,0.02609,-0.01892,-0.08514,-0.02884,0.00793,0.00824,-0.05035
7.306,-0.01083,-0.03754,0.02182,-0.00977,-0.00443,-0.0499,-0.01251,0.01175,0.01648,0.01892,-0.0174,0.02823,-0.03403,0.00626,0.00641,-0.05234
7.3065,-0.00824,-0.02808,0.04395,-0.00809,-0.01114,-0.05096,-0.01801,0.01785,-0.00244,0.00961,-0.01999,0.11703,-0.03662,0.00931,0.00748,-0.05341
7.307,-0.0058,-0.01968,0.05646,-0.00824,-0.01923,-0.05264,-0.02716,0.01297,-0.02014,0.00275,-0.02777,0.14038,-0.03662,0.01694,0.00732,-0.05249
7.3075,-0.0058,-0.01816,0.05997,-0.01038,-0.02502,-0.05463,-0.03052,0.00275,-0.04486,-0.00275,-0.03372,0.11719,-0.03571,0.02182,0.0058,-0.05112
7.308,-0.00763,-0.02457,0.05386,-0.01389,-0.02975,-0.05692,-0.02045,-0.00275,-0.07813,-0.00687,-0.03189,0.11185,-0.0354,0.02457,0.00443,-0.04791
7.3085,-0.00931,-0.03357,0.03906,-0.01633,-0.03616,-0.05905,-0.0058,-0.00275,-0.10696,-0.00977,-0.02396,0.13565,-0.03555,0.0264,0.00366,-0.04425
7.309,-0.01114,-0.03983,0.01984,-0.01617,-0.04517,-0.06195,-0.00366,-0.00839,-0.12421,-0.00916,-0.01587,0.12466,-0.03433,0.02762,0.00351,-0.04257
7.3095,-0.01022,-0.04135,0.00076,-0.01556,-0.05432,-0.06531,-0.01526,-0.02686,-0.14648,-0.0058,-0.01144,0.05249,-0.0322,0.02716,0.00458,-0.04364
7.31,-0.00748,-0.04242,-0.01495,-0.0174,-0.06226,-0.0676,-0.02716,-0.04807,-0.1828,-0.00076,-0.01114,-0.01465,-0.03052,0.02747,0.0029,-0.04532
7.3105,-0.00473,-0.04303,-0.02548,-0.01923,-0.07034,-0.06851,-0.0296,-0.05249,-0.22141,-0.00061,-0.01358,-0.01144,-0.03052,0.02686,-0.00107,-0.04501
7.311,-0.00214,-0.04272,-0.03082,-0.01587,-0.07706,-0.06775,-0.02441,-0.0351,-0.25345,-0.0087,-0.01587,0.04257,-0.03265,0.02426,-0.0058,-0.04303
7.3115,0.00061,-0.0441,-0.03586,-0.00839,-0.07782,-0.06577,-0.02106,-0.00641,-0.28473,-0.02106,-0.01495,0.08667,-0.03738,0.01907,-0.009,-0.03952
7.312,0.00336,-0.047,-0.0444,-0.00336,-0.07462,-0.06348,-0.02213,0.01236,-0.31738,-0.02716,-0.01404,0.09399,-0.04471,0.01251,-0.00839,-0.03677
7.3125,0.00641,-0.05463,-0.0563,-0.00397,-0.06866,-0.05859,-0.0264,0.01205,-0.34729,-0.02396,-0.0116,0.07721,-0.05264,0.00641,-0.00702,-0.03616
7.313,0.00809,-0.0769,-0.06805,-0.00885,-0.06332,-0.05142,-0.02762,-0.00122,-0.37094,-0.01678,-0.01205,0.05692,-0.05676,0.0,-0.00504,-0.03922
7.3135,0.00854,-0.11429,-0.07446,-0.01251,-0.0592,-0.04379,-0.0206,-0.01251,-0.38666,-0.01419,-0.01755,0.03632,-0.05508,-0.0029,-0.00412,-0.04562
7.314,0.00793,-0.14481,-0.07568,-0.01266,-0.05524,-0.04074,-0.01175,-0.01358,-0.40039,-0.01648,-0.02899,0.01251,-0.05081,-0.00305,0.0029,-0.05188
7.3145,0.00458,-0.1416,-0.07111,-0.0116,-0.05386,-0.04456,-0.00793,-0.01007,-0.41611,-0.02075,-0.03738,-0.01175,-0.04776,-0.00259,0.01587,-0.05432
7.315,0.00168,-0.10529,-0.05814,-0.0119,-0.05341,-0.0502,-0.01266,-0.00946,-0.43549,-0.02289,-0.03555,-0.02579,-0.0441,-0.00336,0.03128,-0.05432
7.3155,-0.00092,-0.06348,-0.03586,-0.01312,-0.05386,-0.0528,-0.01801,-0.01251,-0.45868,-0.02426,-0.02594,-0.02502,-0.03922,-0.00778,0.03479,-0.05371
7.316,-0.0029,-0.0354,-0.0029,-0.01282,-0.05112,-0.05081,-0.01755,-0.01312,-0.49072,-0.02457,-0.01617,-0.01648,-0.03189,-0.01358,0.02838,-0.05188
7.3165,-0.00259,-0.01831,0.02823,-0.01083,-0.04547,-0.04807,-0.01236,-0.00946,-0.53513,-0.02823,-0.00854,-0.00656,-0.02716,-0.01297,0.01846,-0.04929
7.317,0.00214,-0.00397,0.04288,-0.00854,-0.03922,-0.04776,-0.009,-0.00565,-0.57541,-0.0351,0.00015,-0.00122,-0.02548,-0.00214,0.01434,-0.04395
7.3175,0.00763,0.00671,0.02853,-0.00885,-0.03479,-0.04837,-0.00961,-0.0058,-0.59875,-0.0444,0.00992,-0.00275,-0.02365,0.0174,0.01251,-0.0383
7.318,0.00961,0.01205,-0.00397,-0.01038,-0.02945,-0.04852,-0.01129,-0.00839,-0.61996,-0.05096,0.01694,-0.01495,-0.01999,0.03937,0.01251,-0.03281
7.3185,0.009,0.01312,-0.03174,-0.01251,-0.02213,-0.04852,-0.01144,-0.00809,-0.65521,-0.05081,0.01938,-0.03204,-0.01358,0.05981,0.01282,-0.03281
7.319,0.00854,0.01617,-0.0444,-0.01312,-0.01648,-0.04898,-0.01175,-0.00214,-0.69061,-0.04623,0.02182,-0.04242,-0.00916,0.07553,0.01129,-0.03693
7.3195,0.00824,0.02045,-0.04593,-0.01312,-0.01328,-0.04852,-0.01434,0.00763,-0.71823,-0.03723,0.03677,-0.03983,-0.00763,0.08484,0.00778,-0.04303
7.32,0.00763,0.02502,-0.04379,-0.01114,-0.00977,-0.04669,-0.01846,0.01511,-0.74631,-0.02518,0.06454,-0.03357,-0.00916,0.08713,0.00397,-0.04776
7.3205,0.00656,0.02441,-0.04395,-0.00824,-0.01053,-0.04517,-0.01923,0.01755,-0.77774,-0.01297,0.08286,-0.03326,-0.01282,0.08362,0.00473,-0.04822
7.321,0.00565,0.01862,-0.04517,-0.00671,-0.01358,-0.04425,-0.01389,0.01678,-0.81711,-0.00259,0.0589,-0.03326,-0.01678,0.07492,0.01038,-0.04532
7.3215,0.00595,0.00961,-0.04486,-0.00595,-0.01648,-0.04395,-0.00702,0.01709,-0.86563,0.00229,-0.01663,-0.02258,-0.02075,0.05859,0.01175,-0.04379
7.322,0.00641,0.00015,-0.04547,-0.00748,-0.02121,-0.04288,-0.00473,0.01862,-0.9082,0.00107,-0.11002,0.00397,-0.02472,0.03143,0.00854,-0.04669
7.3225,0.00504,-0.00946,-0.04654,-0.00946,-0.02609,-0.04196,-0.00412,0.01938,-0.93918,-0.00412,-0.16907,0.04471,-0.02945,-0.00565,-0.00076,-0.05157
7.323,0.00397,-0.01892,-0.0473,-0.00977,-0.03021,-0.04318,-0.00244,0.01984,-0.97443,-0.01389,-0.17014,0.09018,-0.03571,-0.04974,-0.00168,-0.05203
7.3235,0.00381,-0.02518,-0.04745,-0.009,-0.03372,-0.04349,0.00122,0.02151,-1.02936,-0.03052,-0.1265,0.11917,-0.0415,-0.09506,0.00443,-0.04791
7.324,0.00458,-0.02914,-0.04913,-0.00732,-0.03571,-0.04303,0.00153,0.02243,-1.09772,-0.04944,-0.05951,0.10651,-0.04639,-0.13351,0.01083,-0.04288
7.3245,0.00381,-0.0325,-0.04944,-0.00641,-0.03677,-0.04211,-0.00366,0.01877,-1.17096,-0.06317,0.01099,0.05264,-0.05066,-0.16388,0.01724,-0.04272
7.325,0.00153,-0.03616,-0.0502,-0.00565,-0.03708,-0.04272,-0.01312,0.00916,-1.24695,-0.065,0.05997,-0.0119,-0.05508,-0.18829,0.01984,-0.04456
7.3255,-0.00168,-0.03937,-0.04944,-0.00702,-0.03784,-0.04379,-0.01923,-0.0032,-1.32446,-0.05798,0.05219,-0.05844,-0.0589,-0.20767,0.01755,-0.04486
7.326,-0.00443,-0.04303,-0.04974,-0.00977,-0.03464,-0.04547,-0.01923,-0.01678,-1.39374,-0.047,-0.02701,-0.08362,-0.06241,-0.21454,0.01663,-0.03998
7.3265,-0.00534,-0.04578,-0.04944,-0.01236,-0.03021,-0.04745,-0.01511,-0.02716,-1.40579,-0.03937,-0.13596,-0.09338,-0.06363,-0.20126,0.01663,-0.03357
7.327,-0.00397,-0.04761,-0.04913,-0.01297,-0.0264,-0.0502,-0.0116,-0.03067,-1.27472,-0.03891,-0.18677,-0.0946,-0.0618,-0.16754,0.01541,-0.03021
7.3275,-0.00244,-0.04715,-0.04807,-0.01389,-0.02487,-0.05127,-0.00992,-0.02655,-0.9726,-0.04608,-0.13275,-0.09369,-0.05692,-0.12268,0.01404,-0.0296
7.328,-0.00336,-0.04623,-0.04456,-0.01404,-0.02396,-0.05051,-0.01022,-0.01572,-0.59387,-0.05173,-0.01556,-0.08713,-0.05356,-0.08179,0.01236,-0.03159
7.3285,-0.00626,-0.0473,-0.04211,-0.01556,-0.01953,-0.04959,-0.01007,-0.00061,-0.22827,-0.04852,0.08469,-0.06638,-0.0528,-0.05676,0.01007,-0.03433
7.329,-0.00931,-0.04944,-0.03937,-0.01801,-0.01663,-0.05157,-0.00763,0.01709,0.16373,-0.03525,0.1265,-0.03098,-0.05173,-0.047,0.00671,-0.03891
7.3295,-0.00946,-0.05112,-0.03799,-0.01892,-0.01755,-0.05325,-0.00641,0.01617,0.66971,-0.02167,0.11444,0.00351,-0.04776,-0.04257,0.00412,-0.04211
7.33,-0.00854,-0.05112,-0.03937,-0.01831,-0.02197,-0.05417,-0.01114,-0.0174,1.30219,-0.01434,0.08224,0.01633,-0.04181,-0.03387,0.00412,-0.04486
7.3305,-0.01053,-0.05112,-0.04181,-0.01709,-0.02472,-0.05447,-0.02289,-0.05661,2.03552,-0.00946,0.06882,0.00839,-0.03525,-0.01938,0.00397,-0.04745
7.331,-0.01328,-0.05295,-0.0415,-0.01511,-0.02518,-0.05478,-0.03326,-0.0499,2.87582,-0.00153,0.08804,-0.00137,-0.03082,-0.00183,0.0029,-0.04822
7.3315,-0.01495,-0.0531,-0.04013,-0.01282,-0.02396,-0.05371,-0.03448,-0.0029,3.79837,0.0087,0.11276,-0.00397,-0.0293,0.01221,0.00244,-0.04715
7.332,-0.01404,-0.05005,-0.04028,-0.00992,-0.02411,-0.05295,-0.02487,0.02274,4.58694,0.01328,0.11032,-0.00671,-0.0293,0.01984,0.00137,-0.04471
7.3325,-0.01282,-0.04715,-0.04044,-0.00793,-0.02213,-0.05386,-0.01297,-0.00366,4.91974,0.01266,0.08087,-0.00656,-0.02853,0.0235,0.00031,-0.04303
7.333,-0.01266,-0.04715,-0.03891,-0.00748,-0.01892,-0.05493,-0.01083,-0.04517,4.83597,0.01083,0.05173,0.01312,-0.02548,0.02518,0.00076,-0.04181
7.3335,-0.01312,-0.04883,-0.03891,-0.00793,-0.01358,-0.05463,-0.02106,-0.05539,4.67773,0.01541,0.04089,0.04669,-0.02243,0.02609,0.00214,-0.03967
7.334,-0.01373,-0.04883,-0.03845,-0.00946,-0.00946,-0.05341,-0.0322,-0.03601,4.65576,0.02258,0.04105,0.05585,-0.0209,0.02319,0.00443,-0.03891
7.3345,-0.01465,-0.04684,-0.03937,-0.009,-0.00809,-0.0528,-0.03265,-0.01892,4.68353,0.03296,0.03937,0.02319,-0.02274,0.01434,0.00427,-0.03723
7.335,-0.01633,-0.04562,-0.04059,-0.00748,-0.00931,-0.05188,-0.0209,-0.02045,4.6463,0.0441,0.02594,-0.02319,-0.02594,0.00076,0.00458,-0.03448
7.3355,-0.01785,-0.04547,-0.04059,-0.00488,-0.01083,-0.05157,-0.00946,-0.0235,4.57916,0.05447,0.00168,-0.05005,-0.02716,-0.01022,0.00381,-0.03036
7.336,-0.01663,-0.04608,-0.04028,-0.00275,-0.01312,-0.05096,-0.00656,-0.00137,4.54544,0.05646,-0.03601,-0.06073,-0.02701,-0.01434,0.00488,-0.02731
7.3365,-0.0145,-0.04684,-0.03937,-0.00153,-0.01511,-0.0502,-0.01038,0.03952,4.53003,0.0444,-0.07645,-0.06424,-0.02518,-0.01465,0.00305,-0.02762
7.337,-0.01205,-0.04745,-0.0383,-0.00168,-0.01831,-0.04822,-0.01389,0.06256,4.49692,0.02289,-0.10345,-0.0563,-0.02396,-0.01648,0.0,-0.03189
7.3375,-0.01083,-0.04791,-0.03754,-0.00381,-0.02289,-0.04608,-0.01511,0.04639,4.45496,0.00366,-0.1088,-0.03296,-0.02319,-0.01877,-0.00107,-0.03693
7.338,-0.01083,-0.04669,-0.03708,-0.00778,-0.0267,-0.0441,-0.01678,0.01434,4.42322,-0.00137,-0.0972,-0.01144,-0.02304,-0.01694,0.00061,-0.04211
7.3385,-0.0116,-0.0444,-0.0351,-0.01068,-0.03021,-0.04333,-0.01846,-0.00427,4.39682,0.0,-0.07309,-0.00473,-0.02258,-0.01129,0.0032,-0.0473
7.339,-0.01038,-0.04211,-0.0293,-0.01312,-0.03387,-0.04349,-0.0177,-0.00519,4.36615,0.00137,-0.03906,-0.00702,-0.02319,-0.00565,0.00534,-0.05447
7.3395,-0.00824,-0.04089,-0.02365,-0.01419,-0.03983,-0.04242,-0.0145,-0.00244,4.33167,0.00153,-0.00519,-0.00061,-0.02243,-0.00229,0.00671,-0.05585
7.34,-0.00626,-0.04013,-0.01984,-0.01495,-0.04562,-0.04211,-0.01312,0.0,4.29916,0.00198,0.01144,0.01526,-0.02182,-0.00198,0.0058,-0.04929
7.3405,-0.00671,-0.03967,-0.02151,-0.01434,-0.05066,-0.04181,-0.01526,0.00275,4.27094,0.00076,0.00336,0.02243,-0.0238,-0.00076,0.00534,-0.04227
7.341,-0.00778,-0.04013,-0.02914,-0.01343,-0.05554,-0.04227,-0.01968,0.00549,4.24072,-0.00687,-0.03418,0.01526,-0.02777,0.00214,0.00793,-0.04135
7.3415,-0.00763,-0.04059,-0.03479,-0.01328,-0.05829,-0.04089,-0.02045,0.00473,4.21021,-0.02686,-0.0946,0.00732,-0.03174,0.00443,0.009,-0.04776
7.342,-0.00656,-0.03998,-0.03845,-0.01312,-0.05722,-0.0383,-0.01755,0.00305,4.17892,-0.05569,-0.15427,0.00977,-0.03464,0.00259,0.00687,-0.0499
7.3425,-0.00488,-0.03952,-0.03891,-0.01328,-0.05341,-0.03632,-0.0145,0.00153,4.14978,-0.08163,-0.17624,0.01663,-0.03647,-0.00504,0.00443,-0.04059
7.343,-0.00366,-0.03967,-0.03922,-0.01343,-0.04776,-0.03738,-0.01312,-0.00015,4.11926,-0.09445,-0.14435,0.01541,-0.03891,-0.01251,0.0058,-0.0235
7.3435,-0.00397,-0.04059,-0.03906,-0.01373,-0.04349,-0.03952,-0.01312,-0.0029,4.08691,-0.09369,-0.08118,0.00763,-0.03937,-0.01389,0.0087,-0.01068
7.344,-0.00473,-0.0412,-0.04044,-0.01328,-0.04135,-0.04074,-0.01389,-0.0058,4.02588,-0.08392,-0.02426,0.00381,-0.03708,-0.01022,0.00961,-0.01205
7.3445,-0.00443,-0.04272,-0.04242,-0.01236,-0.03937,-0.04089,-0.0148,-0.00641,3.88031,-0.07141,0.01114,0.00778,-0.03342,-0.00488,0.00351,-0.02472
7.345,-0.00351,-0.0444,-0.04623,-0.01205,-0.03769,-0.0415,-0.01541,-0.00366,3.5788,-0.05783,0.03189,0.01801,-0.03021,-0.00305,-0.00275,-0.04196
7.3455,-0.00381,-0.047,-0.04623,-0.01175,-0.03586,-0.04364,-0.0145,-0.00107,2.83249,-0.04547,0.04593,0.03693,-0.02869,-0.00214,-0.00839,-0.05447
7.346,-0.00397,-0.04898,-0.04379,-0.01297,-0.03571,-0.04379,-0.01129,0.00046,0.96497,-0.03372,0.05508,0.06012,-0.02762,-0.00214,-0.00931,-0.0592
7.3465,-0.00381,-0.04974,-0.03876,-0.01602,-0.03693,-0.04349,-0.00885,0.00031,-2.09991,-0.02121,0.05493,0.06851,-0.02762,-0.00183,-0.00488,-0.05539
7.347,-0.00214,-0.04959,-0.03326,-0.01938,-0.03815,-0.0412,-0.00778,-0.00122,-4.73724,-0.0119,0.04807,0.04028,-0.02747,-0.00214,-0.00183,-0.04623
7.3475,-0.00168,-0.05051,-0.02808,-0.02106,-0.0386,-0.03967,-0.00656,-0.00473,-4.97208,-0.00214,0.03922,-0.01343,-0.02853,-0.00397,-0.00488,-0.03815
7.348,-0.00122,-0.05234,-0.02243,-0.02029,-0.04028,-0.03967,-0.00397,-0.009,-4.97406,0.01038,0.03235,-0.05585,-0.03036,-0.00702,-0.01007,-0.03784
7.3485,-0.00015,-0.05386,-0.01923,-0.01968,-0.03952,-0.04166,-0.00259,-0.00992,-4.7525,0.02625,0.02655,-0.05981,-0.03204,-0.00809,-0.01114,-0.04608
7.349,-0.00092,-0.05371,-0.02029,-0.01907,-0.0383,-0.04364,-0.00641,-0.00366,-4.9437,0.03754,0.02487,-0.03632,-0.03311,-0.00763,-0.00717,-0.05676
7.3495,-0.00183,-0.05127,-0.02472,-0.01801,-0.03586,-0.0441,-0.01114,0.00961,-4.97528,0.03815,0.02884,-0.00854,-0.03326,-0.00687,-0.00381,-0.06042
7.35,-0.00381,-0.04669,-0.02792,-0.01572,-0.03586,-0.04395,-0.00946,0.02106,-4.97467,0.02838,0.04181,0.01465,-0.03235,-0.00732,-0.00122,-0.05692
7.3505,-0.00473,-0.04303,-0.02792,-0.01312,-0.03571,-0.0444,-0.00351,0.02457,-4.93866,0.01404,0.0708,0.04333,-0.03281,-0.00931,0.00275,-0.04959
7.351,-0.0032,-0.0415,-0.02792,-0.01129,-0.03571,-0.04562,0.00275,0.02289,-4.97238,-0.00031,0.11017,0.08011,-0.03479,-0.01221,0.00885,-0.04471
7.3515,0.00046,-0.04242,-0.0267,-0.01114,-0.03479,-0.04578,0.00687,0.02411,-4.97589,-0.01419,0.12802,0.09491,-0.0354,-0.01404,0.01678,-0.04044
7.352,0.00549,-0.04318,-0.02823,-0.01114,-0.03372,-0.04547,0.00946,0.02991,-4.97498,-0.02701,0.0946,0.06073,-0.03448,-0.01556,0.02289,-0.03387
7.3525,0.01038,-0.04242,-0.0293,-0.0119,-0.03281,-0.04608,0.00763,0.03464,-4.97498,-0.03464,0.0235,0.01221,-0.03403,-0.01511,0.02686,-0.02716
7.353,0.0116,-0.04257,-0.03021,-0.0116,-0.0325,-0.04684,-0.00031,0.03983,-4.97543,-0.03128,-0.04013,0.01587,-0.03464,-0.01358,0.02838,-0.02396
7.3535,0.00961,-0.04288,-0.03082,-0.00916,-0.03067,-0.04807,-0.01266,0.04593,-4.97482,-0.01648,-0.07385,0.06836,-0.0354,-0.01282,0.02625,-0.0235
7.354,0.00519,-0.04364,-0.03067,-0.0058,-0.03052,-0.04883,-0.02136,0.04883,-4.97513,0.00198,-0.08484,0.07523,-0.03616,-0.01221,0.02167,-0.02594
7.3545,0.00076,-0.04349,-0.03128,-0.00427,-0.02945,-0.04929,-0.02075,0.03891,-4.97498,0.01251,-0.08698,-0.01434,-0.03601,-0.01266,0.01846,-0.02853
7.355,-0.00183,-0.04349,-0.03082,-0.00397,-0.02853,-0.04974,-0.01175,0.01663,-4.97498,0.01053,-0.08179,-0.11673,-0.0354,-0.01373,0.01709,-0.03098
7.3555,-0.00229,-0.04486,-0.03143,-0.00443,-0.02869,-0.04883,0.00092,-0.0061,-4.97528,-0.00031,-0.06256,-0.12405,-0.03632,-0.01526,0.01663,-0.03448
7.356,-0.00351,-0.04562,-0.0322,-0.0032,-0.02731,-0.04715,0.01022,-0.0206,-4.97482,-0.01266,-0.03311,-0.05402,-0.03799,-0.01587,0.01556,-0.03967
7.3565,-0.0058,-0.04517,-0.03143,-0.00031,-0.02594,-0.04562,0.01556,-0.02808,-4.97513,-0.02121,-0.00717,0.00183,-0.04074,-0.01633,0.01175,-0.04456
7.357,-0.00687,-0.04364,-0.03021,0.00061,-0.02396,-0.04532,0.01785,-0.03021,-4.97482,-0.02716,-0.00244,0.01968,-0.04288,-0.0174,0.00946,-0.04517
7.3575,-0.00702,-0.04257,-0.03021,-0.00046,-0.02365,-0.04715,0.00839,-0.02991,-4.86053,-0.03616,-0.01907,0.03738,-0.04272,-0.01785,0.00854,-0.04181
7.358,-0.00519,-0.0415,-0.03159,-0.00305,-0.02289,-0.04898,-0.01938,-0.02792,-4.48303,-0.04913,-0.04257,0.06012,-0.04242,-0.01831,0.00885,-0.0415
7.3585,-0.00366,-0.04135,-0.03326,-0.00504,-0.02213,-0.04868,-0.05234,-0.0209,-3.94257,-0.06912,-0.06256,0.05432,-0.04318,-0.01816,0.00595,-0.04196
7.359,-0.0029,-0.04257,-0.03387,-0.00641,-0.02167,-0.04822,-0.06195,-0.00534,-3.51166,-0.09552,-0.07828,0.01907,-0.04395,-0.01801,0.00412,-0.04257
7.3595,-0.00244,-0.04364,-0.03265,-0.00931,-0.02258,-0.04761,-0.04486,0.00488,-3.2634,-0.12024,-0.08438,-0.0119,-0.04242,-0.01648,0.00519,-0.04074
7.36,-0.00336,-0.04242,-0.02853,-0.01328,-0.02258,-0.047,-0.02716,-0.0061,-3.04031,-0.13382,-0.07431,-0.02747,-0.04044,-0.0145,0.00793,-0.03891
7.3605,-0.00412,-0.0415,-0.0267,-0.01678,-0.02213,-0.0473,-0.02533,-0.03876,-2.74628,-0.12772,-0.04532,-0.04333,-0.04059,-0.01572,0.01114,-0.03983
7.361,-0.0058,-0.04196,-0.02731,-0.01709,-0.02258,-0.04776,-0.03082,-0.07065,-2.43729,-0.10712,-0.00992,-0.06851,-0.04059,-0.01892,0.01389,-0.04105
7.3615,-0.00687,-0.04333,-0.0293,-0.01511,-0.02426,-0.04944,-0.03143,-0.08347,-2.18567,-0.07858,0.01221,-0.08835,-0.03952,-0.02365,0.01373,-0.0415
7.362,-0.00687,-0.04318,-0.03204,-0.01282,-0.0267,-0.05035,-0.03067,-0.07751,-1.97678,-0.04898,0.01801,-0.07767,-0.03754,-0.02655,0.0116,-0.0412
7.3625,-0.00748,-0.04181,-0.03342,-0.01389,-0.02838,-0.0502,-0.0325,-0.05814,-1.75919,-0.0206,0.03311,-0.02609,-0.03708,-0.02426,0.00839,-0.04181
7.363,-0.00687,-0.03922,-0.03326,-0.01587,-0.03082,-0.04807,-0.03082,-0.03204,-1.5213,0.00076,0.0737,0.03845,-0.03693,-0.01541,0.0061,-0.04517
7.3635,-0.00458,-0.03708,-0.03372,-0.01831,-0.03342,-0.04562,-0.02411,-0.0058,-1.29166,0.01556,0.10345,0.06912,-0.03647,-0.0029,0.00504,-0.04852
7.364,-0.00366,-0.03677,-0.03372,-0.01801,-0.03357,-0.04623,-0.01755,0.00824,-1.08948,0.02518,0.06989,0.05463,-0.03601,0.00809,0.00641,-0.05142
7.3645,-0.00565,-0.03937,-0.03448,-0.01389,-0.03235,-0.04623,-0.01175,0.00427,-0.91324,0.03342,-0.01846,0.03433,-0.03632,0.01602,0.00793,-0.05005
7.365,-0.00885,-0.04181,-0.03494,-0.00839,-0.03067,-0.04608,-0.00748,-0.00717,-0.755,0.04028,-0.09842,0.03387,-0.0354,0.02182,0.01053,-0.04623
7.3655,-0.01007,-0.04425,-0.0354,-0.0061,-0.02899,-0.04684,-0.009,-0.01511,-0.61676,0.04578,-0.12695,0.02686,-0.03479,0.02731,0.00946,-0.04166
7.366,-0.01038,-0.04715,-0.03372,-0.00793,-0.02762,-0.04791,-0.01938,-0.01633,-0.4985,0.04242,-0.11978,-0.01328,-0.03418,0.03036,0.00671,-0.03922
7.3665,-0.0116,-0.04944,-0.03204,-0.01282,-0.02731,-0.04776,-0.03174,-0.01663,-0.39429,0.02701,-0.11551,-0.0647,-0.03494,0.03052,0.0029,-0.03876
7.367,-0.01328,-0.05051,-0.03098,-0.01495,-0.02777,-0.047,-0.03891,-0.02411,-0.29755,0.00198,-0.12482,-0.09491,-0.03571,0.02731,0.00198,-0.03937
7.3675,-0.01373,-0.05173,-0.03189,-0.01511,-0.02869,-0.04745,-0.04135,-0.03967,-0.20752,-0.02396,-0.12802,-0.10223,-0.03555,0.01953,0.00336,-0.03998
7.368,-0.01251,-0.05341,-0.03342,-0.01266,-0.02914,-0.04883,-0.03952,-0.05203,-0.12482,-0.04318,-0.11002,-0.10315,-0.03464,0.00214,0.0061,-0.0386
7.3685,-0.01236,-0.05371,-0.03387,-0.00977,-0.03052,-0.04822,-0.03006,-0.05035,-0.04761,-0.05981,-0.07965,-0.09811,-0.03448,-0.02228,0.00793,-0.03677
7.369,-0.01282,-0.05249,-0.03326,-0.00854,-0.03311,-0.04669,-0.01633,-0.03708,0.02869,-0.07828,-0.05844,-0.07019,-0.03494,-0.04486,0.00839,-0.03754
7.3695,-0.01282,-0.05081,-0.03204,-0.00702,-0.03265,-0.04578,-0.00702,-0.02151,0.10071,-0.09689,-0.05051,-0.01541,-0.03235,-0.06012,0.00778,-0.04044
7.37,-0.01236,-0.05005,-0.03021,-0.00366,-0.03235,-0.04669,-0.00748,-0.01053,0.1622,-0.11139,-0.04318,0.04517,-0.02762,-0.0705,0.00778,-0.04166
7.3705,-0.01175,-0.05035,-0.02991,-0.00031,-0.03098,-0.04715,-0.01266,-0.00458,0.20966,-0.11459,-0.02213,0.08865,-0.02319,-0.08636,0.00793,-0.03845
7.371,-0.01282,-0.04959,-0.03128,0.00137,-0.03006,-0.04791,-0.01511,-0.00137,0.25818,-0.10574,0.01907,0.09674,-0.02121,-0.10849,0.01038,-0.03311
7.3715,-0.01205,-0.04807,-0.03311,0.00168,-0.03052,-0.04898,-0.0145,0.00031,0.32211,-0.08453,0.07492,0.07462,-0.02228,-0.13,0.0148,-0.02853
7.372,-0.01114,-0.04684,-0.03235,0.00015,-0.03204,-0.05112,-0.01251,0.00031,0.38559,-0.05035,0.11902,0.06027,-0.02502,-0.14145,0.01846,-0.02441
7.3725,-0.00992,-0.047,-0.03235,-0.00092,-0.03479,-0.05219,-0.01099,-0.00168,0.42923,-0.00595,0.11353,0.07996,-0.0264,-0.13687,0.01907,-0.02197
7.373,-0.00992,-0.04807,-0.03159,-0.00168,-0.03632,-0.05142,-0.00946,-0.00381,0.45319,0.04105,0.05264,0.09918,-0.02762,-0.11765,0.01862,-0.02319
7.3735,-0.01053,-0.04837,-0.03098,-0.00229,-0.03647,-0.05096,-0.00793,-0.00214,0.46097,0.07721,-0.03235,0.05859,-0.02838,-0.09125,0.01663,-0.02975
7.374,-0.01083,-0.04822,-0.03143,-0.00397,-0.03632,-0.0502,-0.00702,0.00443,0.45868,0.0946,-0.10056,-0.04013,-0.02899,-0.06531,0.01419,-0.03952
7.3745,-0.01038,-0.0473,-0.0322,-0.00488,-0.0354,-0.04929,-0.00748,0.01114,0.46066,0.09766,-0.13748,-0.13153,-0.02914,-0.0444,0.00763,-0.04745
7.375,-0.00931,-0.04654,-0.03159,-0.00519,-0.0351,-0.04837,-0.00778,0.01297,0.46677,0.09247,-0.14511,-0.15335,-0.02563,-0.03113,0.00214,-0.05127
7.3755,-0.00824,-0.04532,-0.03143,-0.00549,-0.03555,-0.04852,-0.00732,0.00809,0.46906,0.08255,-0.12772,-0.09338,-0.02182,-0.02487,0.00107,-0.05142
7.376,-0.00656,-0.04501,-0.03159,-0.00641,-0.0351,-0.04913,-0.00626,0.00381,0.4744,0.06989,-0.09445,0.01648,-0.0209,-0.02258,0.00198,-0.05035
7.3765,-0.00641,-0.04379,-0.0325,-0.00839,-0.03342,-0.04898,-0.00687,0.00839,0.48828,0.0528,-0.06165,0.12054,-0.02228,-0.02075,0.00443,-0.04913
7.377,-0.00732,-0.04272,-0.03403,-0.01007,-0.0325,-0.047,-0.00946,0.02167,0.50064,0.03052,-0.04166,0.1709,-0.02472,-0.01343,0.00305,-0.05005
7.3775,-0.009,-0.04242,-0.03326,-0.01083,-0.03311,-0.04623,-0.01068,0.03174,0.50247,0.00092,-0.0351,0.17471,-0.02487,-0.00168,-0.00183,-0.05295
7.378,-0.00885,-0.04395,-0.03067,-0.01114,-0.03387,-0.04807,-0.01007,0.03113,0.49713,-0.03265,-0.04196,0.17227,-0.02441,0.01053,-0.00519,-0.05432
7.3785,-0.00793,-0.0473,-0.02975,-0.01022,-0.03448,-0.04959,-0.00931,0.02396,0.48676,-0.06546,-0.06302,0.15671,-0.0238,0.01953,-0.00412,-0.0528
7.379,-0.00793,-0.04944,-0.0296,-0.00961,-0.0351,-0.04868,-0.00839,0.01923,0.46936,-0.08896,-0.08911,0.09399,-0.02457,0.02396,0.00015,-0.0502
7.3795,-0.00778,-0.04898,-0.03021,-0.0087,-0.03494,-0.04715,-0.00473,0.02243,0.44983,-0.09674,-0.09232,0.00916,-0.02579,0.02625,0.00626,-0.04974
7.38,-0.00641,-0.04852,-0.03174,-0.00885,-0.03464,-0.04623,-0.00046,0.02594,0.43549,-0.08484,-0.05203,-0.03571,-0.02777,0.02594,0.00809,-0.05005
7.3805,-0.00519,-0.04745,-0.03235,-0.00916,-0.03357,-0.04715,0.0,0.02228,0.42938,-0.06302,0.01297,-0.03998,-0.02914,0.02213,0.00626,-0.04929
7.381,-0.00427,-0.04639,-0.03281,-0.01099,-0.03235,-0.04761,-0.00626,0.00839,0.42862,-0.04654,0.06714,-0.05661,-0.0296,0.01678,0.00443,-0.04791
7.3815,-0.00336,-0.04211,-0.0322,-0.01465,-0.03113,-0.04837,-0.01831,-0.0119,0.42755,-0.0444,0.09445,-0.10132,-0.02884,0.01068,0.0058,-0.04562
7.382,-0.0029,-0.0386,-0.0325,-0.01892,-0.03082,-0.04684,-0.0293,-0.0267,0.42023,-0.05432,0.1004,-0.13489,-0.0293,0.00153,0.00793,-0.04486
7.3825,-0.00092,-0.03723,-0.03326,-0.02045,-0.03265,-0.04654,-0.03403,-0.03265,0.4039,-0.06378,0.09476,-0.12665,-0.03265,-0.01251,0.01129,-0.04303
7.383,0.00107,-0.03662,-0.03357,-0.01831,-0.03494,-0.04715,-0.02747,-0.02869,0.3775,-0.06042,0.07935,-0.08606,-0.03586,-0.02991,0.01465,-0.03845
7.3835,0.00275,-0.03571,-0.03433,-0.01633,-0.03387,-0.04715,-0.02014,-0.02151,0.3389,-0.04486,0.05417,-0.04272,-0.03601,-0.04654,0.01831,-0.03357
7.384,0.0032,-0.03372,-0.03525,-0.01404,-0.03204,-0.04745,-0.01816,-0.0119,0.29083,-0.02487,0.02396,-0.02548,-0.03403,-0.05951,0.02121,-0.03052
7.3845,0.00412,-0.03174,-0.03601,-0.01251,-0.03113,-0.04715,-0.01953,-0.00397,0.25543,-0.01053,0.00229,-0.03845,-0.03479,-0.0676,0.02151,-0.03098
7.385,0.00595,-0.03021,-0.03769,-0.00977,-0.0322,-0.04593,-0.01587,0.00168,0.24765,-0.00336,0.01129,-0.05112,-0.03723,-0.07156,0.0206,-0.03296
7.3855,0.00824,-0.02869,-0.03998,-0.00717,-0.03235,-0.04623,-0.0061,0.00336,0.24994,0.00076,0.0499,-0.03159,-0.04059,-0.07034,0.02045,-0.03525
7.386,0.00946,-0.02762,-0.04196,-0.00687,-0.0322,-0.04562,0.00412,0.00336,0.24841,0.00443,0.08728,0.00839,-0.04013,-0.06348,0.02045,-0.03723
7.3865,0.01007,-0.02747,-0.04318,-0.00717,-0.03036,-0.04578,0.00824,0.00214,0.25146,0.00671,0.09537,0.02762,-0.03738,-0.05203,0.02045,-0.03815
7.387,0.01053,-0.0293,-0.04349,-0.00763,-0.03036,-0.04517,-0.00015,0.00137,0.25909,0.00671,0.07416,0.00412,-0.03464,-0.03922,0.02014,-0.03922
7.3875,0.00931,-0.03204,-0.04089,-0.00793,-0.02884,-0.04578,-0.01678,0.00351,0.25986,0.00061,0.04623,-0.03113,-0.03265,-0.03052,0.01801,-0.04196
7.388,0.00687,-0.03448,-0.03906,-0.00946,-0.02777,-0.04532,-0.02808,0.00931,0.25467,-0.00702,0.02655,-0.03082,-0.03082,-0.02625,0.01572,-0.04547
7.3885,0.00443,-0.03769,-0.03937,-0.01068,-0.02655,-0.04501,-0.02594,0.01541,0.24506,-0.01099,0.01205,0.02258,-0.02777,-0.02365,0.01358,-0.047
7.389,0.00336,-0.04166,-0.04166,-0.0119,-0.02731,-0.04532,-0.0145,0.01846,0.23544,-0.00778,-0.00046,0.07629,-0.02335,-0.0209,0.01114,-0.04868
7.3895,0.00427,-0.04379,-0.04227,-0.01099,-0.02823,-0.04471,-0.00381,0.01755,0.24414,-0.00137,-0.00992,0.06409,-0.01816,-0.01892,0.00916,-0.05081
7.39,0.00412,-0.04364,-0.04044,-0.00961,-0.02716,-0.04333,0.00061,0.01404,0.28046,0.00061,-0.01678,0.00824,-0.0145,-0.01999,0.00687,-0.05264
7.3905,0.00153,-0.0441,-0.03845,-0.00916,-0.02502,-0.04288,-0.00061,0.00763,0.32455,-0.00473,-0.02472,-0.00732,-0.01266,-0.02289,0.00168,-0.05478
7.391,-0.00092,-0.0473,-0.03799,-0.01022,-0.02167,-0.04349,-0.0058,0.00061,0.35446,-0.0177,-0.03281,0.02472,-0.01266,-0.02136,-0.00244,-0.0563
7.3915,-0.00015,-0.05386,-0.03769,-0.01221,-0.02121,-0.04395,-0.01129,-0.00336,0.36469,-0.0354,-0.03586,0.03189,-0.01099,-0.01328,-0.00198,-0.05707
7.392,0.00244,-0.05859,-0.03769,-0.0148,-0.0238,-0.04532,-0.01556,-0.00244,0.36163,-0.05646,-0.04089,-0.00702,-0.00916,-0.00214,0.00031,-0.05661
7.3925,0.0029,-0.05829,-0.03738,-0.01572,-0.02594,-0.04608,-0.01892,-0.00153,0.34912,-0.07629,-0.06973,-0.03357,-0.00732,0.00641,0.00534,-0.05524
7.393,-0.00015,-0.05356,-0.03693,-0.01434,-0.0267,-0.04623,-0.0209,-0.00458,0.336,-0.08499,-0.12405,-0.009,-0.00641,0.01068,0.00946,-0.05203
7.3935,-0.00336,-0.04852,-0.03708,-0.01221,-0.02594,-0.04517,-0.0209,-0.01297,0.32822,-0.08057,-0.16449,0.04089,-0.00793,0.01221,0.0116,-0.04959
7.394,-0.00549,-0.04486,-0.03555,-0.01114,-0.02655,-0.04471,-0.01785,-0.01831,0.32867,-0.06897,-0.1503,0.06943,-0.0116,0.01099,0.0119,-0.047
7.3945,-0.00488,-0.0441,-0.03494,-0.00961,-0.02838,-0.04532,-0.01465,-0.01678,0.33386,-0.05875,-0.09003,0.05524,-0.01678,0.00839,0.0119,-0.04364
7.395,-0.00534,-0.04517,-0.03418,-0.00992,-0.03128,-0.047,-0.01373,-0.009,0.33981,-0.05096,-0.02838,0.01465,-0.02304,0.00412,0.01114,-0.04318
7.3955,-0.00687,-0.0473,-0.03403,-0.01144,-0.03357,-0.04974,-0.01587,-0.00244,0.34531,-0.04608,0.00854,-0.01083,-0.02808,0.00183,0.00854,-0.04456
7.396,-0.00809,-0.04929,-0.0354,-0.01404,-0.03494,-0.0502,-0.01709,0.00046,0.34897,-0.04898,0.03311,-0.00214,-0.03281,0.00473,0.00656,-0.04684
7.3965,-0.00778,-0.04852,-0.03632,-0.01617,-0.03571,-0.04883,-0.01663,0.00076,0.34775,-0.05951,0.0589,0.00824,-0.03494,0.0119,0.00534,-0.04547
7.397,-0.0061,-0.04501,-0.03418,-0.01663,-0.0354,-0.04807,-0.01465,0.00031,0.33447,-0.06622,0.0769,-0.02869,-0.03143,0.01816,0.00687,-0.04196
7.3975,-0.00504,-0.03952,-0.03342,-0.01602,-0.03677,-0.04822,-0.01419,-0.00031,0.30701,-0.0592,0.06592,-0.10742,-0.02518,0.02121,0.00961,-0.0383
7.398,-0.00534,-0.03632,-0.03357,-0.01587,-0.04059,-0.04883,-0.01724,-0.00122,0.28412,-0.03937,0.02975,-0.15457,-0.02167,0.01999,0.01053,-0.03662
7.3985,-0.00687,-0.03769,-0.0351,-0.01511,-0.04379,-0.04852,-0.01862,-0.00244,0.28473,-0.01999,0.01144,-0.11002,-0.02258,0.01526,0.01083,-0.0354
7.399,-0.00763,-0.0412,-0.03357,-0.01495,-0.04562,-0.04745,-0.01816,-0.00198,0.29449,-0.00717,0.0386,0.00641,-0.02502,0.00916,0.01038,-0.0354
7.3995,-0.00702,-0.04196,-0.03265,-0.01419,-0.04471,-0.04745,-0.01648,-0.00031,0.29633,-0.00168,0.06271,0.11261,-0.02487,0.0061,0.0087,-0.03647
7.4,-0.00595,-0.03937,-0.03265,-0.01312,-0.04349,-0.04776,-0.01434,0.00107,0.3006,0.00427,0.00748,0.14603,-0.02258,0.00732,0.00565,-0.03845
7.4005,-0.00595,-0.03738,-0.03494,-0.01297,-0.04242,-0.04669,-0.01419,0.00183,0.30899,0.01907,-0.10681,0.10559,-0.02228,0.00946,0.00351,-0.03937
7.401,-0.00732,-0.03815,-0.03769,-0.01312,-0.04211,-0.04517,-0.01419,0.00183,0.28488,0.04608,-0.16602,0.03464,-0.0235,0.00641,0.00427,-0.03998
7.4015,-0.00854,-0.04074,-0.03769,-0.0116,-0.04044,-0.0444,-0.01434,0.00259,0.15228,0.07614,-0.10574,-0.01373,-0.02594,-0.00259,0.00473,-0.03922
7.402,-0.00641,-0.04013,-0.03693,-0.01083,-0.0383,-0.04517,-0.01465,0.00336,-0.09445,0.09354,0.01373,-0.01526,-0.02777,-0.01373,0.0032,-0.03922
7.4025,-0.00092,-0.0386,-0.03662,-0.01038,-0.03647,-0.04684,-0.0145,0.00397,-0.26611,0.08942,0.0972,0.00809,-0.02838,-0.02167,0.0029,-0.03738
7.403,0.0058,-0.03601,-0.03693,-0.01144,-0.03586,-0.04807,-0.01434,0.00198,-0.18799,0.0705,0.11429,0.01663,-0.02838,-0.02991,0.00473,-0.03448
7.4035,0.00992,-0.03448,-0.03784,-0.0119,-0.03616,-0.04669,-0.01343,0.00137,0.03433,0.05386,0.09628,-0.00061,-0.02853,-0.03937,0.00641,-0.03342
7.404,0.01068,-0.03372,-0.03815,-0.01221,-0.03601,-0.04471,-0.01251,0.00168,0.17517,0.04471,0.07187,-0.02365,-0.03006,-0.04425,0.00641,-0.03555
7.4045,0.01099,-0.03357,-0.03891,-0.01251,-0.03601,-0.04486,-0.01282,0.00137,0.18021,0.03571,0.04608,-0.03387,-0.03143,-0.03799,0.00519,-0.03906
7.405,0.01236,-0.03448,-0.0386,-0.01312,-0.03647,-0.04562,-0.01434,0.00031,0.14587,0.02609,0.02228,-0.02686,-0.03265,-0.01923,0.0029,-0.04211
7.4055,0.01312,-0.03448,-0.03922,-0.01389,-0.03693,-0.04807,-0.0145,-0.00092,0.14359,0.01694,0.00076,-0.00916,-0.03448,0.00107,0.00198,-0.04471
7.406,0.00793,-0.03326,-0.03922,-0.0145,-0.03525,-0.04837,-0.01358,-0.00107,0.16312,0.00763,-0.02609,0.00824,-0.03601,0.01297,0.0032,-0.04486
7.4065,-0.00046,-0.03281,-0.03876,-0.01526,-0.03235,-0.04715,-0.01373,-0.00046,0.17166,-0.0058,-0.06195,0.0116,-0.03616,0.01709,0.00793,-0.04242
7.407,-0.00763,-0.03296,-0.03906,-0.0148,-0.03036,-0.04532,-0.01434,0.0,0.16342,-0.02029,-0.09125,0.0,-0.03494,0.02121,0.01434,-0.03891
7.4075,-0.0119,-0.03357,-0.03876,-0.01495,-0.02975,-0.04425,-0.01526,-0.00092,0.15228,-0.02716,-0.09033,-0.01297,-0.03342,0.02731,0.0174,-0.03693
7.408,-0.0148,-0.03342,-0.03799,-0.01526,-0.02945,-0.04456,-0.01389,-0.00229,0.14099,-0.02365,-0.05478,-0.01602,-0.03326,0.02808,0.01373,-0.03754
7.4085,-0.01755,-0.03372,-0.03754,-0.01617,-0.02853,-0.04486,-0.01236,-0.00366,0.12695,-0.01709,-0.00961,-0.01083,-0.03326,0.01816,0.00336,-0.03952
7.409,-0.01816,-0.03403,-0.03723,-0.01587,-0.02716,-0.04654,-0.01389,-0.00397,0.11078,-0.01312,0.0235,-0.00076,-0.03571,-0.00092,-0.0058,-0.04166
7.4095,-0.01785,-0.03342,-0.03662,-0.01389,-0.02655,-0.047,-0.01587,-0.00381,0.09048,-0.01465,0.03799,0.01038,-0.03632,-0.02213,-0.00732,-0.04211
7.41,-0.01663,-0.03479,-0.03464,-0.01221,-0.02579,-0.04715,-0.01541,-0.00198,0.06882,-0.0177,0.03845,0.01404,-0.03586,-0.04395,0.0,-0.03922
7.4105,-0.01801,-0.04074,-0.03357,-0.01205,-0.02487,-0.04654,-0.01434,-0.00168,0.04074,-0.0177,0.02762,0.01236,-0.03662,-0.06836,0.01053,-0.03418
7.411,-0.02029,-0.04807,-0.03372,-0.01312,-0.02457,-0.04745,-0.01465,-0.00336,0.00488,-0.01068,0.01053,0.01419,-0.03738,-0.09323,0.01633,-0.03098
7.4115,-0.02029,-0.05295,-0.03403,-0.01328,-0.02563,-0.0473,-0.01541,-0.00488,-0.02365,0.00168,-0.01999,0.02411,-0.03693,-0.11337,0.01404,-0.03113
7.412,-0.01846,-0.05096,-0.03433,-0.01236,-0.02838,-0.04776,-0.01602,-0.00519,-0.02869,0.01266,-0.07263,0.03342,-0.03662,-0.12466,0.0061,-0.03403
7.4125,-0.01572,-0.04517,-0.0351,-0.0116,-0.02869,-0.04868,-0.01556,-0.00488,-0.02411,0.01678,-0.13397,0.03525,-0.03555,-0.12314,-0.00061,-0.03586
7.413,-0.01373,-0.04028,-0.03494,-0.01175,-0.02777,-0.04868,-0.01495,-0.00549,-0.0354,0.01282,-0.17166,0.02441,-0.03464,-0.10147,-0.0032,-0.03677
7.4135,-0.01205,-0.03723,-0.0354,-0.0116,-0.02777,-0.04791,-0.01511,-0.00748,-0.06195,0.00259,-0.17197,-0.00214,-0.03189,-0.06256,-0.00183,-0.03784
7.414,-0.00977,-0.03494,-0.03479,-0.00916,-0.02975,-0.04593,-0.01419,-0.00885,-0.09384,-0.009,-0.14618,-0.03204,-0.02853,-0.0209,-0.00046,-0.0386
7.4145,-0.00763,-0.03448,-0.03418,-0.00595,-0.03082,-0.04547,-0.01434,-0.00793,-0.12375,-0.01694,-0.11139,-0.03265,-0.0264,0.00397,0.00015,-0.03983
7.415,-0.0058,-0.03448,-0.03403,-0.00366,-0.03052,-0.04654,-0.01373,-0.00626,-0.14191,-0.01938,-0.07065,0.00839,-0.02563,0.01068,0.00214,-0.03952
7.4155,-0.00381,-0.03326,-0.03464,-0.0032,-0.02853,-0.0473,-0.01465,-0.00504,-0.15198,-0.01831,-0.02655,0.06058,-0.02609,0.0058,0.00458,-0.0386
7.416,-0.00198,-0.0325,-0.03448,-0.00488,-0.02747,-0.04761,-0.0145,-0.00549,-0.16068,-0.01709,0.01465,0.09201,-0.02762,0.00107,0.00641,-0.03754
7.4165,0.00092,-0.03342,-0.03342,-0.00534,-0.0267,-0.04837,-0.01343,-0.00534,-0.15961,-0.01633,0.04669,0.09842,-0.02777,0.00015,0.01007,-0.03525
7.417,0.00473,-0.03464,-0.03098,-0.00549,-0.0264,-0.04929,-0.01312,-0.00473,-0.14587,-0.01801,0.06683,0.08987,-0.02716,-0.00046,0.01419,-0.02975
7.4175,0.00763,-0.03448,-0.03052,-0.00519,-0.0267,-0.04929,-0.01404,-0.00488,-0.1384,-0.01923,0.07767,0.07568,-0.02716,-0.0032,0.01526,-0.0238
7.418,0.00992,-0.03342,-0.02991,-0.00549,-0.02716,-0.04929,-0.0148,-0.00534,-0.15167,-0.02457,0.0824,0.0592,-0.0293,-0.00748,0.01282,-0.02319
7.4185,0.01129,-0.03281,-0.02899,-0.0058,-0.02655,-0.04898,-0.01373,-0.00565,-0.17303,-0.03418,0.08636,0.03555,-0.0322,-0.01068,0.00946,-0.03036
7.419,0.01221,-0.03189,-0.02731,-0.00671,-0.02396,-0.04913,-0.01266,-0.00488,-0.19211,-0.04471,0.09399,0.00366,-0.03464,-0.01221,0.00824,-0.04074
7.4195,0.01266,-0.03036,-0.02518,-0.00565,-0.02197,-0.04822,-0.01205,-0.00381,-0.20889,-0.05219,0.10483,-0.02014,-0.03571,-0.01205,0.01129,-0.0441
7.42,0.01266,-0.03036,-0.02472,-0.00412,-0.02274,-0.04791,-0.0119,-0.0029,-0.22995,-0.05463,0.1091,-0.02396,-0.0354,-0.01068,0.01511,-0.0386
7.4205,0.01068,-0.03296,-0.02548,-0.00366,-0.02472,-0.04868,-0.01266,-0.0029,-0.2533,-0.0563,0.09064,-0.0177,-0.03433,-0.00961,0.01633,-0.03189
7.421,0.0087,-0.03647,-0.02548,-0.00458,-0.02701,-0.05081,-0.01373,-0.0032,-0.27145,-0.06119,0.047,-0.02991,-0.0351,-0.00916,0.01617,-0.03159
7.4215,0.00916,-0.03784,-0.02502,-0.00702,-0.02853,-0.05112,-0.01389,-0.00366,-0.28046,-0.06821,-0.00504,-0.07492,-0.03632,-0.01053,0.01556,-0.03632
7.422,0.01144,-0.03769,-0.02457,-0.00961,-0.03006,-0.0502,-0.01312,-0.00534,-0.28351,-0.07462,-0.04456,-0.13794,-0.03799,-0.01282,0.01694,-0.03891
7.4225,0.01434,-0.03784,-0.02426,-0.0119,-0.03052,-0.04929,-0.01251,-0.00732,-0.28793,-0.07675,-0.06592,-0.18784,-0.03922,-0.01358,0.01953,-0.03586
7.423,0.01709,-0.03967,-0.02533,-0.01587,-0.0296,-0.04944,-0.01282,-0.00671,-0.29892,-0.07202,-0.08118,-0.20599,-0.03922,-0.01526,0.02106,-0.03052
7.4235,0.01602,-0.04074,-0.02701,-0.02167,-0.02747,-0.04929,-0.01419,-0.00458,-0.31693,-0.06393,-0.09262,-0.19562,-0.03922,-0.01801,0.02213,-0.02563
7.424,0.01114,-0.04089,-0.02869,-0.02808,-0.02808,-0.04898,-0.01419,-0.00244,-0.34546,-0.05737,-0.09232,-0.1535,-0.0383,-0.02304,0.02106,-0.0238
7.4245,0.00565,-0.04242,-0.02853,-0.03021,-0.02914,-0.04898,-0.01343,-0.00229,-0.38483,-0.05402,-0.07477,-0.06607,-0.0383,-0.02579,0.01877,-0.02319
7.425,0.00168,-0.04547,-0.02884,-0.02716,-0.03052,-0.04944,-0.01266,-0.00305,-0.41977,-0.04807,-0.05066,0.04913,-0.04013,-0.02365,0.01785,-0.02411
7.4255,-0.00275,-0.04868,-0.02838,-0.01892,-0.03113,-0.04959,-0.01343,-0.00458,-0.43594,-0.03494,-0.03891,0.13992,-0.04242,-0.01694,0.01785,-0.02777
7.426,-0.00961,-0.05142,-0.02731,-0.00748,-0.03113,-0.04745,-0.01434,-0.00473,-0.44861,-0.02426,-0.05859,0.17181,-0.0441,-0.01022,0.01678,-0.03372
7.4265,-0.01953,-0.0531,-0.02701,0.00458,-0.03372,-0.04761,-0.0148,-0.00473,-0.47607,-0.02441,-0.10956,0.15717,-0.0441,-0.00778,0.0148,-0.04059
7.427,-0.02762,-0.05569,-0.02792,0.01617,-0.0351,-0.04837,-0.01373,-0.00229,-0.50842,-0.02792,-0.16449,0.12192,-0.04532,-0.00763,0.009,-0.04684
7.4275,-0.03143,-0.05783,-0.03052,0.02884,-0.0354,-0.04929,-0.01251,-0.00046,-0.54077,-0.02197,-0.18127,0.07523,-0.04623,-0.00854,0.00336,-0.05096
7.428,-0.03098,-0.05859,-0.03326,0.04517,-0.0351,-0.04761,-0.01205,0.00122,-0.58228,-0.00793,-0.14694,0.01984,-0.0473,-0.01022,0.00153,-0.05051
7.4285,-0.02869,-0.0589,-0.03525,0.06226,-0.03418,-0.0473,-0.01343,0.00137,-0.63599,0.00061,-0.09018,-0.02762,-0.04974,-0.01205,0.00488,-0.04654
7.429,-0.02625,-0.05966,-0.03555,0.07004,-0.03372,-0.04852,-0.01312,0.00229,-0.70618,-0.00351,-0.04288,-0.05051,-0.05035,-0.01419,0.01236,-0.04333
7.4295,-0.02365,-0.06073,-0.03525,0.05692,-0.03418,-0.04959,-0.01282,0.00351,-0.79346,-0.01282,-0.0119,-0.05005,-0.05005,-0.01465,0.01923,-0.04654
7.43,-0.02151,-0.06104,-0.03464,0.02365,-0.03555,-0.04913,-0.01236,0.00275,-0.89355,-0.01617,0.01419,-0.0383,-0.04959,-0.01328,0.02075,-0.05463
7.4305,-0.0209,-0.0592,-0.03403,-0.01099,-0.03555,-0.04807,-0.01266,-0.00046,-1.01364,-0.01526,0.03937,-0.0209,-0.04852,-0.01221,0.0177,-0.06012
7.431,-0.0209,-0.05737,-0.03235,-0.03159,-0.03403,-0.04791,-0.01266,-0.00473,-1.18927,-0.01694,0.05997,0.00168,-0.04715,-0.00992,0.01175,-0.05844
7.4315,-0.02075,-0.05554,-0.03021,-0.03769,-0.03204,-0.04959,-0.01221,-0.00748,-1.44821,-0.0264,0.07538,0.01907,-0.04532,-0.00519,0.00534,-0.05356
7.432,-0.01938,-0.05447,-0.03113,-0.04181,-0.0325,-0.0502,-0.01266,-0.00687,-1.80298,-0.03555,0.09445,0.0148,-0.04318,0.00198,-0.00107,-0.05219
7.4325,-0.01755,-0.0531,-0.03128,-0.05463,-0.03418,-0.04883,-0.01312,-0.00595,-2.28577,-0.03326,0.11871,-0.00519,-0.04044,0.01114,-0.00687,-0.05234
7.433,-0.01633,-0.05096,-0.02899,-0.07172,-0.03418,-0.04791,-0.01465,-0.0061,-2.91473,-0.01419,0.12619,-0.01617,-0.03891,0.01984,-0.009,-0.05081
7.4335,-0.01526,-0.04959,-0.02655,-0.08331,-0.03387,-0.04776,-0.01556,-0.00839,-3.60703,0.00519,0.10162,-0.00458,-0.03983,0.02274,-0.00732,-0.04791
7.434,-0.01419,-0.04868,-0.02594,-0.08514,-0.03464,-0.04883,-0.01587,-0.00977,-4.14764,0.01404,0.05829,0.0174,-0.04501,0.02213,-0.00565,-0.04562
7.4345,-0.01297,-0.0473,-0.02838,-0.07965,-0.03448,-0.04929,-0.01541,-0.00946,-4.31381,0.01678,0.02228,0.02823,-0.05127,0.01953,-0.00427,-0.04471
7.435,-0.01175,-0.04761,-0.02945,-0.06653,-0.03372,-0.04959,-0.01495,-0.00717,-4.08661,0.02441,-0.00412,0.01923,-0.05417,0.01633,-0.00198,-0.04166
7.4355,-0.00916,-0.04791,-0.02945,-0.04288,-0.03403,-0.04974,-0.0148,-0.00534,-3.69522,0.03723,-0.03769,-0.00702,-0.0531,0.0148,-0.00107,-0.03906
7.436,-0.00687,-0.04639,-0.02869,-0.01572,-0.03372,-0.0502,-0.01419,-0.00458,-3.44849,0.04227,-0.08209,-0.04639,-0.05066,0.01129,-0.00504,-0.0441
7.4365,-0.00626,-0.04395,-0.02777,-0.00473,-0.03265,-0.05157,-0.01358,-0.00351,-3.58047,0.03189,-0.12115,-0.08301,-0.0499,0.00519,-0.01389,-0.05417
7.437,-0.00717,-0.04135,-0.02686,-0.01404,-0.03189,-0.05096,-0.01236,-0.0029,-4.06952,0.01175,-0.13535,-0.09949,-0.0502,-0.00549,-0.01465,-0.06165
7.4375,-0.00854,-0.04135,-0.0296,-0.03036,-0.03204,-0.05005,-0.01144,-0.0029,-4.49051,-0.01236,-0.12405,-0.08942,-0.05188,-0.02411,0.00092,-0.06271
7.438,-0.00778,-0.04288,-0.0322,-0.04242,-0.03403,-0.0502,-0.01144,-0.0029,-4.33395,-0.03784,-0.10712,-0.06287,-0.05264,-0.05066,0.0235,-0.06027
7.4385,-0.00702,-0.04303,-0.0383,-0.05661,-0.03433,-0.04776,-0.0116,-0.00244,-3.52264,-0.06134,-0.09888,-0.02777,-0.05203,-0.08087,0.0322,-0.05798
7.439,-0.00656,-0.0415,-0.04211,-0.0769,-0.03387,-0.04715,-0.01221,-0.00076,-2.49084,-0.07751,-0.09842,0.01373,-0.04913,-0.10468,0.02258,-0.05692
7.4395,-0.00687,-0.03906,-0.04227,-0.09842,-0.03372,-0.04776,-0.01297,-0.00122,-1.74759,-0.07874,-0.0856,0.05722,-0.04486,-0.11261,0.00854,-0.05417
7.44,-0.00626,-0.03693,-0.03937,-0.11581,-0.03326,-0.04913,-0.01328,-0.00412,-1.49353,-0.06531,-0.04852,0.08545,-0.04105,-0.10529,0.00458,-0.04929
7.4405,-0.00534,-0.03418,-0.03769,-0.13153,-0.03311,-0.05005,-0.0145,-0.0061,-1.58905,-0.04608,-0.01144,0.09079,-0.03876,-0.09369,0.00885,-0.0444
7.441,-0.00549,-0.03174,-0.03738,-0.14847,-0.03296,-0.05035,-0.01465,-0.00549,-1.70441,-0.03143,-0.00488,0.07614,-0.03662,-0.08743,0.01389,-0.04181
7.4415,-0.0061,-0.02991,-0.03677,-0.15381,-0.03082,-0.05005,-0.01297,-0.00366,-1.49841,-0.02701,-0.02396,0.04654,-0.0354,-0.08179,0.01389,-0.04257
7.442,-0.00626,-0.0296,-0.03387,-0.12787,-0.02884,-0.04852,-0.01175,-0.00427,-0.7814,-0.02823,-0.0386,0.00916,-0.0354,-0.07004,0.00702,-0.04333
7.4425,-0.00504,-0.02945,-0.02899,-0.05524,-0.02853,-0.04684,-0.0119,-0.00504,0.34103,-0.03052,-0.05051,-0.01526,-0.03403,-0.05203,-0.0058,-0.04364
7.443,-0.00305,-0.02869,-0.02441,0.05554,-0.03052,-0.04745,-0.01266,-0.00397,1.51596,-0.02945,-0.08362,-0.01556,-0.03021,-0.03418,-0.01083,-0.04211
7.4435,-0.00168,-0.02777,-0.02167,0.16754,-0.03281,-0.04807,-0.01205,-0.00229,2.49664,-0.02396,-0.12955,-0.00961,-0.02579,-0.02365,0.00916,-0.0412
7.444,-0.00198,-0.0267,-0.02136,0.23575,-0.03403,-0.04837,-0.01083,-0.00046,3.30338,-0.01572,-0.13168,-0.01266,-0.02457,-0.02228,0.04395,-0.03876
7.4445,-0.00259,-0.02625,-0.01953,0.23895,-0.03372,-0.04791,-0.01083,-0.00061,4.05762,-0.00595,-0.06424,-0.01648,-0.02701,-0.0235,0.06317,-0.03525
7.445,-0.00259,-0.02686,-0.0177,0.19562,-0.03128,-0.04684,-0.01266,-0.00015,4.70154,0.00015,0.03357,-0.00977,-0.02853,-0.02213,0.05432,-0.03372
7.4455,-0.00275,-0.02838,-0.01617,0.14526,-0.02884,-0.04654,-0.01358,0.0,4.99985,0.0032,0.10345,-0.00061,-0.02716,-0.01648,0.03723,-0.03433
7.446,-0.00305,-0.03036,-0.01587,0.11353,-0.02838,-0.04654,-0.01328,0.00061,4.99985,0.00168,0.12817,-0.00366,-0.02502,-0.00977,0.03143,-0.03647
7.4465,-0.00397,-0.03128,-0.0177,0.09644,-0.02914,-0.04761,-0.01282,0.00061,4.94446,0.00015,0.12695,-0.0145,-0.02502,-0.00381,0.03235,-0.04089
7.447,-0.00443,-0.03143,-0.02045,0.07904,-0.0296,-0.04807,-0.01419,-0.00168,4.93729,0.0,0.11765,-0.02014,-0.02579,0.00473,0.02594,-0.05173
7.4475,-0.00626,-0.03159,-0.02502,0.05585,-0.03082,-0.04852,-0.01602,-0.00519,4.98001,0.0032,0.10513,-0.02243,-0.02625,0.01968,0.0116,-0.06378
7.448,-0.00793,-0.03204,-0.02869,0.03693,-0.0325,-0.04868,-0.01663,-0.00687,4.98657,0.00916,0.09323,-0.02487,-0.02625,0.03647,0.00046,-0.06897
7.4485,-0.00793,-0.0322,-0.03113,0.03479,-0.03342,-0.04944,-0.01556,-0.00565,4.9649,0.01068,0.08835,-0.02747,-0.0264,0.04623,-0.00305,-0.06378
7.449,-0.00809,-0.03357,-0.03204,0.04654,-0.03265,-0.0499,-0.01389,-0.0029,4.96017,0.00717,0.09369,-0.02533,-0.02762,0.04547,0.0,-0.05142
7.4495,-0.00839,-0.03479,-0.0322,0.05569,-0.03159,-0.05096,-0.01282,-0.00107,4.97177,0.00168,0.09872,-0.01633,-0.02747,0.04272,0.00275,-0.04059
7.45,-0.00885,-0.0354,-0.03204,0.04593,-0.03098,-0.05096,-0.01251,-0.00061,4.97452,-0.00214,0.0853,-0.00687,-0.02808,0.04166,0.0032,-0.03723
7.4505,-0.00961,-0.03601,-0.0322,0.01877,-0.03174,-0.05005,-0.0116,-0.00122,4.96094,-0.00565,0.0386,0.00107,-0.02853,0.0386,0.00031,-0.04135
7.451,-0.00839,-0.03555,-0.03296,-0.01007,-0.0325,-0.04837,-0.01129,-0.00046,4.93469,-0.01068,-0.03571,0.00839,-0.02838,0.02899,-0.0029,-0.04761
7.4515,-0.00656,-0.03387,-0.03403,-0.0296,-0.03311,-0.04715,-0.01129,-0.00046,4.89899,-0.01602,-0.10681,0.01328,-0.02731,0.01297,-0.00427,-0.04883
7.452,-0.0058,-0.03296,-0.03448,-0.03937,-0.03296,-0.04593,-0.01251,-0.00015,4.86008,-0.01831,-0.13031,0.0148,-0.02686,-0.00717,-0.00504,-0.04211
7.4525,-0.00473,-0.03265,-0.03464,-0.04349,-0.0325,-0.04608,-0.01205,0.00122,4.82269,-0.0174,-0.09506,0.01495,-0.02838,-0.0296,-0.00549,-0.0325
7.453,-0.00336,-0.03265,-0.03479,-0.0444,-0.03311,-0.047,-0.0119,0.00336,4.78821,-0.01572,-0.03281,0.01663,-0.02914,-0.05188,-0.00214,-0.0264
7.4535,-0.00198,-0.03189,-0.03616,-0.04486,-0.03403,-0.04791,-0.01312,0.00443,4.7525,-0.01724,0.01663,0.01938,-0.03128,-0.07217,0.00366,-0.02441
7.454,-0.00153,-0.03143,-0.03693,-0.05051,-0.03448,-0.04929,-0.01511,0.00397,4.71848,-0.02228,0.04257,0.02136,-0.03296,-0.0885,0.01221,-0.02579
7.4545,-0.0029,-0.0325,-0.03662,-0.06149,-0.03403,-0.05051,-0.01633,0.00183,4.68491,-0.02838,0.04715,0.02014,-0.03418,-0.09583,0.01984,-0.02335
7.455,-0.00427,-0.03448,-0.03677,-0.07111,-0.03372,-0.0499,-0.01633,-0.00015,4.65103,-0.03006,0.02731,0.01648,-0.03418,-0.08896,0.0238,-0.01816
7.4555,-0.00565,-0.03708,-0.03723,-0.07477,-0.03357,-0.04807,-0.01602,-0.00198,4.61685,-0.03113,-0.0148,0.01129,-0.03159,-0.06989,0.01846,-0.01236
7.456,-0.00565,-0.03769,-0.03906,-0.07843,-0.03494,-0.047,-0.01648,-0.00305,4.58389,-0.0325,-0.04776,0.00702,-0.02884,-0.05112,0.00793,-0.00961
7.4565,-0.00366,-0.03616,-0.04105,-0.08713,-0.03479,-0.04684,-0.01617,-0.00351,4.54681,-0.03662,-0.03647,0.00519,-0.02762,-0.04333,-0.00122,-0.01236
7.457,-0.00122,-0.03448,-0.04227,-0.09445,-0.03479,-0.047,-0.01556,-0.00458,4.46182,-0.04272,0.02167,0.00549,-0.02869,-0.04562,-0.00366,-0.02213
7.4575,-0.00046,-0.03296,-0.04211,-0.08942,-0.0351,-0.04715,-0.01511,-0.00641,4.21326,-0.04654,0.0885,0.00656,-0.03082,-0.05005,0.00183,-0.03708
7.458,-0.00076,-0.03357,-0.04272,-0.07355,-0.03693,-0.04654,-0.01556,-0.00839,3.75839,-0.04745,0.12558,0.00641,-0.03174,-0.0499,0.00641,-0.05264
7.4585,-0.00198,-0.03494,-0.04379,-0.05798,-0.03754,-0.04547,-0.01572,-0.00809,3.25912,-0.04639,0.11719,0.00595,-0.03006,-0.04379,0.00168,-0.06439
7.459,-0.00153,-0.03479,-0.04333,-0.05585,-0.03586,-0.04456,-0.0148,-0.00549,2.88483,-0.04623,0.0766,0.00534,-0.02731,-0.03265,-0.00977,-0.06866
7.4595,0.00046,-0.03479,-0.04105,-0.06622,-0.03372,-0.04257,-0.01312,-0.00153,2.61368,-0.047,0.02457,0.00458,-0.02396,-0.01892,-0.01724,-0.06638
7.46,0.00122,-0.03372,-0.03891,-0.07584,-0.03235,-0.04196,-0.01266,0.00153,2.32208,-0.04807,-0.02548,0.0058,-0.02258,-0.00549,-0.01465,-0.0592
7.4605,0.00229,-0.03342,-0.03983,-0.06927,-0.03281,-0.04318,-0.01373,0.00015,1.97235,-0.05142,-0.08743,0.00534,-0.02274,0.00336,-0.00427,-0.0499
7.461,0.00381,-0.03403,-0.0415,-0.04211,-0.03342,-0.04486,-0.01434,-0.00153,1.62323,-0.05432,-0.17548,0.00793,-0.02258,0.00763,0.00305,-0.04333
7.4615,0.0058,-0.03464,-0.04059,-0.00107,-0.03311,-0.04501,-0.01343,-0.00305,1.31073,-0.05951,-0.25314,0.00946,-0.02136,0.0119,0.00443,-0.04105
7.462,0.00565,-0.03571,-0.03891,0.03632,-0.03311,-0.04486,-0.01251,-0.00427,1.00571,-0.06378,-0.24216,0.01007,-0.01984,0.01602,0.00168,-0.03922
7.4625,0.00443,-0.03662,-0.03723,0.05356,-0.03296,-0.04501,-0.01175,-0.00626,0.67703,-0.06882,-0.11765,0.01007,-0.01785,0.01633,0.00092,-0.03738
7.463,0.00183,-0.03677,-0.03738,0.04349,-0.03418,-0.04547,-0.0119,-0.00656,0.33783,-0.07584,0.03998,0.00946,-0.01816,0.01022,0.00336,-0.03265
7.4635,0.00031,-0.03616,-0.0383,0.01526,-0.03494,-0.04517,-0.01282,-0.00504,0.01617,-0.08026,0.13184,0.00854,-0.01907,0.00122,0.00519,-0.02975
7.464,0.00031,-0.03723,-0.0386,-0.02106,-0.03448,-0.0444,-0.01434,-0.00458,-0.28671,-0.07614,0.13397,0.00702,-0.02151,-0.00565,0.0029,-0.03357
7.4645,0.00137,-0.03952,-0.03723,-0.05966,-0.0325,-0.04364,-0.01404,-0.00595,-0.58716,-0.06866,0.09125,0.0058,-0.02258,-0.0087,-0.00122,-0.04105
7.465,0.00275,-0.04059,-0.03647,-0.09247,-0.03159,-0.04379,-0.01343,-0.00687,-0.88638,-0.06592,0.047,0.00534,-0.02304,-0.01007,-0.00656,-0.04486
7.4655,0.00275,-0.04059,-0.03799,-0.10193,-0.03128,-0.04425,-0.01297,-0.0058,-1.15997,-0.06653,0.00519,0.00504,-0.02396,-0.00839,-0.01373,-0.0441
7.466,0.00198,-0.03967,-0.0412,-0.07278,-0.03082,-0.04547,-0.01266,-0.00244,-1.39023,-0.06058,-0.04242,0.0058,-0.02426,-0.00504,-0.01923,-0.04364
7.4665,0.00153,-0.03967,-0.04242,-0.01648,-0.03021,-0.04578,-0.01251,-0.00031,-1.59439,-0.04395,-0.08179,0.00626,-0.02441,-0.00259,-0.01373,-0.047
7.467,0.00122,-0.04074,-0.04379,0.02747,-0.02975,-0.04654,-0.01236,-0.00092,-1.79062,-0.02258,-0.09323,0.0058,-0.02487,-0.00488,0.009,-0.05142
7.4675,0.00137,-0.04044,-0.04425,0.02853,-0.0296,-0.047,-0.01221,-0.00107,-1.97006,-0.00336,-0.0737,0.00458,-0.02411,-0.009,0.04227,-0.05188
7.468,0.00153,-0.03952,-0.04272,-0.00473,-0.03128,-0.04669,-0.01221,-0.00015,-2.13303,0.01694,-0.04211,0.00381,-0.02289,-0.01053,0.06516,-0.04944
7.4685,0.00183,-0.03967,-0.04135,-0.03891,-0.03418,-0.04608,-0.01221,0.0,-2.29523,0.04166,-0.0209,0.00504,-0.02151,-0.0087,0.06302,-0.04913
7.469,0.00092,-0.04166,-0.04044,-0.0528,-0.03738,-0.04333,-0.01328,-0.00107,-2.45605,0.06989,-0.01144,0.00687,-0.02258,-0.00748,0.03952,-0.05112
7.4695,0.00031,-0.04303,-0.03983,-0.04562,-0.03708,-0.04181,-0.01328,-0.00259,-2.60574,0.09872,-0.0032,0.00748,-0.02609,-0.00946,0.01862,-0.05371
7.47,0.0,-0.04288,-0.0386,-0.02457,-0.03448,-0.04242,-0.01389,-0.00427,-2.73499,0.1178,0.00671,0.00778,-0.02792,-0.01114,0.01236,-0.05264
7.4705,0.00046,-0.04181,-0.03799,0.00397,-0.03342,-0.04456,-0.0145,-0.0058,-2.83203,0.12115,0.01282,0.00763,-0.0267,-0.01251,0.01617,-0.05035
7.471,0.00092,-0.04166,-0.03769,0.02594,-0.0325,-0.04684,-0.0148,-0.00732,-2.8981,0.1091,0.00671,0.00656,-0.02457,-0.0116,0.01572,-0.04837
7.4715,0.00198,-0.04196,-0.03891,0.02838,-0.03235,-0.047,-0.01465,-0.00809,-2.95288,0.09323,-0.00732,0.00641,-0.02457,-0.0116,0.00687,-0.04608
7.472,0.00259,-0.04105,-0.03799,0.01312,-0.03204,-0.047,-0.01404,-0.00824,-3.00888,0.08392,-0.02502,0.00626,-0.02625,-0.01343,-0.00153,-0.04211
7.4725,0.00381,-0.0412,-0.03708,-0.00336,-0.03143,-0.04654,-0.01328,-0.00809,-3.06183,0.07843,-0.04318,0.00488,-0.02899,-0.01495,-0.00122,-0.0383
7.473,0.00488,-0.04257,-0.03754,-0.00854,-0.03174,-0.04639,-0.01328,-0.00671,-3.09967,0.06775,-0.05737,0.00076,-0.02945,-0.01633,0.00427,-0.03601
7.4735,0.00519,-0.04379,-0.03952,-0.00595,-0.03006,-0.04532,-0.01343,-0.0061,-3.12119,0.05051,-0.06271,-0.00351,-0.0296,-0.01694,0.01022,-0.03571
7.474,0.00519,-0.04288,-0.03952,-0.00626,-0.0293,-0.04623,-0.01343,-0.00626,-3.12897,0.02869,-0.06271,-0.0058,-0.03021,-0.01526,0.01129,-0.03708
7.4745,0.00595,-0.04181,-0.03845,-0.01022,-0.02945,-0.0473,-0.01251,-0.00397,-3.12943,0.00824,-0.05661,-0.00656,-0.03021,-0.01358,0.01038,-0.03876
7.475,0.00732,-0.04105,-0.03845,-0.01526,-0.02838,-0.04776,-0.01175,-0.00198,-3.12012,-0.00946,-0.04776,-0.00687,-0.02899,-0.01358,0.00992,-0.03952
7.4755,0.00778,-0.04105,-0.03922,-0.01984,-0.02808,-0.04715,-0.00992,0.00122,-3.09875,-0.02731,-0.03876,-0.00641,-0.02823,-0.01511,0.01053,-0.03967
7.476,0.00763,-0.04044,-0.03906,-0.0238,-0.02838,-0.04807,-0.01022,0.00153,-3.06625,-0.04608,-0.02655,-0.00412,-0.0293,-0.01694,0.00961,-0.03967
7.4765,0.00656,-0.04013,-0.03723,-0.02472,-0.02869,-0.04944,-0.01022,0.0,-3.02933,-0.06516,-0.01328,-0.00092,-0.03387,-0.01846,0.00809,-0.03723
7.477,0.00488,-0.04044,-0.0351,-0.0206,-0.0293,-0.05066,-0.01038,-0.00092,-2.99026,-0.07568,-0.0058,0.00168,-0.03586,-0.01968,0.00565,-0.03403
7.4775,0.00336,-0.04288,-0.03586,-0.01541,-0.02991,-0.05066,-0.01038,-0.00107,-2.94739,-0.07477,-0.00793,0.00107,-0.03601,-0.02014,0.00534,-0.03189
7.478,0.00305,-0.04593,-0.03601,-0.01114,-0.0296,-0.05096,-0.01099,-0.00168,-2.90359,-0.06683,-0.01556,0.0,-0.03387,-0.01968,0.00626,-0.03265
7.4785,0.00488,-0.0473,-0.0354,-0.00793,-0.02853,-0.05005,-0.01099,-0.00198,-2.86179,-0.05997,-0.0177,-0.00092,-0.03189,-0.01938,0.00702,-0.03571
7.479,0.00641,-0.04623,-0.03418,-0.00595,-0.0264,-0.04913,-0.01053,-0.00122,-2.81311,-0.05829,-0.01266,-0.00061,-0.03235,-0.02136,0.00549,-0.03845
7.4795,0.00626,-0.04562,-0.03418,-0.00381,-0.02502,-0.04822,-0.01022,0.00015,-2.74704,-0.05951,-0.01358,0.00122,-0.03326,-0.02304,0.00427,-0.03906
7.48,0.00443,-0.04501,-0.03479,-0.00275,-0.02441,-0.04898,-0.01083,-0.00015,-2.68204,-0.06027,-0.03464,0.0032,-0.03311,-0.02304,0.00702,-0.03891
7.4805,0.00198,-0.04349,-0.03571,-0.00092,-0.02609,-0.04822,-0.01038,-0.00092,-2.63458,-0.05798,-0.06027,0.00519,-0.03235,-0.02274,0.0119,-0.0383
7.481,0.00107,-0.04135,-0.03464,0.00366,-0.02777,-0.04791,-0.01053,-0.00046,-2.59293,-0.05173,-0.06424,0.00519,-0.03326,-0.02304,0.01587,-0.03738
7.4815,0.0,-0.03983,-0.03418,0.01205,-0.02823,-0.04761,-0.01083,-0.00015,-2.54211,-0.04684,-0.04379,0.00336,-0.0351,-0.02563,0.01968,-0.03601
7.482,-0.00061,-0.04013,-0.03555,0.02213,-0.02731,-0.04883,-0.0116,-0.00122,-2.48215,-0.04547,-0.02625,0.00229,-0.03799,-0.02731,0.02289,-0.03464
7.4825,-0.00168,-0.04242,-0.03616,0.0296,-0.02563,-0.04974,-0.01175,-0.00305,-2.41135,-0.04669,-0.03464,0.00153,-0.03799,-0.02762,0.02274,-0.03387
7.483,-0.00366,-0.0444,-0.03616,0.03143,-0.02533,-0.04883,-0.01099,-0.00336,-2.33627,-0.0502,-0.07401,0.00137,-0.03586,-0.02457,0.0145,-0.03479
7.4835,-0.00504,-0.04456,-0.03555,0.02777,-0.02655,-0.04715,-0.01053,-0.00168,-2.26227,-0.05981,-0.12726,0.00198,-0.03433,-0.02197,0.00366,-0.03952
7.484,-0.00443,-0.0444,-0.03601,0.02365,-0.02823,-0.04715,-0.01129,-0.00031,-2.1788,-0.07278,-0.1619,0.0032,-0.03525,-0.01907,-0.00153,-0.04547
7.4845,-0.00107,-0.04471,-0.03754,0.02182,-0.02884,-0.04623,-0.01175,-0.00046,-2.07626,-0.07599,-0.15015,0.00427,-0.03677,-0.01587,-0.00061,-0.04807
7.485,0.00031,-0.0444,-0.03799,0.02213,-0.02838,-0.04623,-0.01129,-0.00061,-1.97021,-0.05646,-0.10086,0.00519,-0.03677,-0.01419,0.00412,-0.04669
7.4855,0.0,-0.04349,-0.03616,0.01923,-0.02792,-0.04608,-0.01175,-0.00092,-1.87561,-0.01785,-0.03952,0.00488,-0.03647,-0.01785,0.01007,-0.04318
7.486,0.00031,-0.04181,-0.03418,0.00671,-0.02991,-0.04715,-0.01343,-0.00061,-1.78787,0.02029,0.02472,0.00366,-0.03708,-0.02487,0.01572,-0.03754
7.4865,0.00168,-0.04242,-0.03387,-0.01404,-0.0325,-0.04776,-0.01434,-0.00046,-1.698,0.04944,0.08423,0.00122,-0.0383,-0.03021,0.0206,-0.03357
7.487,0.00137,-0.04349,-0.03448,-0.03479,-0.03296,-0.04837,-0.01282,-0.00015,-1.60568,0.06729,0.11353,0.00031,-0.03754,-0.02838,0.02274,-0.03433
7.4875,0.00015,-0.0444,-0.03479,-0.04578,-0.0325,-0.04791,-0.01068,-0.00031,-1.52054,0.07446,0.08591,0.00031,-0.0354,-0.02319,0.02319,-0.0383
7.488,-0.00031,-0.04379,-0.03448,-0.04471,-0.03235,-0.04807,-0.01083,-0.00092,-1.44241,0.06943,0.02411,0.00153,-0.03662,-0.0209,0.02075,-0.04303
7.4885,0.00076,-0.04349,-0.03479,-0.03876,-0.03204,-0.04807,-0.01144,-0.00046,-1.36978,0.05112,-0.01389,0.00153,-0.03937,-0.02533,0.01266,-0.04501
7.489,0.00061,-0.04242,-0.03494,-0.03235,-0.03159,-0.04807,-0.01205,-0.00061,-1.29639,0.02426,-0.00626,0.00061,-0.03922,-0.03113,0.00137,-0.04562
7.4895,0.0,-0.0415,-0.0354,-0.01984,-0.02975,-0.04791,-0.01038,0.0,-1.2233,0.00031,0.0206,-0.00015,-0.03769,-0.03387,-0.00778,-0.04913
7.49,-0.00137,-0.03967,-0.03479,-0.00122,-0.02838,-0.04761,-0.009,0.00015,-1.15128,-0.01755,0.03479,0.00015,-0.03571,-0.03326,-0.009,-0.05463
7.4905,-0.00092,-0.03845,-0.03418,0.01587,-0.02808,-0.0473,-0.00946,0.00076,-1.07956,-0.03372,0.02869,0.00107,-0.03494,-0.03204,-0.00259,-0.05661
7.491,-0.00168,-0.03754,-0.03464,0.02075,-0.02914,-0.04684,-0.00992,0.00031,-1.00601,-0.05417,0.01053,0.00153,-0.03418,-0.03128,0.00702,-0.05081
7.4915,-0.00259,-0.03784,-0.03433,0.01511,-0.03098,-0.04593,-0.01007,0.00137,-0.93811,-0.0766,-0.00504,0.00092,-0.03174,-0.0293,0.01221,-0.04303
7.492,-0.00183,-0.03906,-0.03433,0.00656,-0.03098,-0.04517,-0.00977,0.0,-0.88623,-0.09323,-0.00687,0.00076,-0.02899,-0.02625,0.01083,-0.04211
7.4925,-0.00046,-0.03906,-0.03311,0.00305,-0.03128,-0.04639,-0.00839,-0.00153,-0.83954,-0.09171,0.00443,0.00076,-0.02731,-0.02258,0.00687,-0.04593
7.493,-0.00076,-0.03845,-0.03235,0.00732,-0.03326,-0.04776,-0.00931,-0.00259,-0.7785,-0.07126,0.01419,0.00046,-0.0267,-0.01907,0.00565,-0.04807
7.4935,-0.00214,-0.0383,-0.03082,0.01755,-0.03418,-0.04761,-0.01038,-0.00244,-0.71167,-0.03922,0.0174,-0.00076,-0.02899,-0.01648,0.00534,-0.04166
7.494,-0.00092,-0.03845,-0.03113,0.03159,-0.03296,-0.04669,-0.0119,-0.00153,-0.65689,-0.01038,0.01297,-0.00214,-0.03143,-0.0174,-0.00076,-0.03265
7.4945,0.00107,-0.03891,-0.03296,0.0444,-0.03204,-0.04715,-0.01282,-0.00244,-0.61081,0.00107,0.00397,-0.00122,-0.03265,-0.01816,-0.01022,-0.02884
7.495,0.00153,-0.03906,-0.03571,0.04883,-0.03235,-0.04761,-0.01358,-0.00427,-0.56854,-0.00519,-0.00809,0.00046,-0.0325,-0.01923,-0.01724,-0.03342
7.4955,0.00076,-0.04044,-0.03647,0.04013,-0.03296,-0.04883,-0.01389,-0.00565,-0.53085,-0.01923,-0.01251,0.00061,-0.03342,-0.01984,-0.01587,-0.04257
7.496,0.00076,-0.04105,-0.0354,0.02274,-0.03464,-0.04974,-0.01434,-0.00748,-0.48996,-0.03296,-0.00229,0.00031,-0.03448,-0.02106,-0.00763,-0.05219
7.4965,0.00015,-0.03967,-0.03525,0.00504,-0.03708,-0.05066,-0.01541,-0.01083,-0.44739,-0.04486,0.01373,0.00229,-0.03479,-0.02213,0.00031,-0.05814
7.497,-0.00107,-0.03906,-0.03723,-0.00671,-0.03845,-0.05051,-0.01541,-0.01511,-0.4097,-0.0531,0.02716,0.0032,-0.03418,-0.01968,0.00198,-0.06073
7.4975,-0.00229,-0.03983,-0.03693,-0.01328,-0.03845,-0.0499,-0.01465,-0.01373,-0.37369,-0.05814,0.0412,0.00305,-0.03281,-0.01419,-0.00275,-0.05875
7.498,-0.00412,-0.04196,-0.03418,-0.0177,-0.03647,-0.04974,-0.01282,-0.01114,-0.33737,-0.05737,0.06256,0.00183,-0.03113,-0.00763,-0.00565,-0.0531
7.4985,-0.00443,-0.04288,-0.03281,-0.0235,-0.03494,-0.04944,-0.01068,-0.00854,-0.31616,-0.05142,0.08163,-0.00015,-0.03021,-0.00305,-0.00275,-0.04593
7.499,-0.00488,-0.04181,-0.03311,-0.03067,-0.03418,-0.04944,-0.01068,-0.0061,-0.31464,-0.04486,0.0885,-0.00168,-0.03098,-0.00137,0.00031,-0.04196
7.4995,-0.00519,-0.04105,-0.03357,-0.03616,-0.03448,-0.04974,-0.0119,-0.00519,-0.31982,-0.04166,0.08224,-0.00015,-0.0322,-0.00168,0.00259,-0.04013
7.5,-0.00534,-0.04089,-0.0325,-0.03937,-0.03448,-0.04807,-0.0119,-0.00504,-0.32349,-0.03906,0.06638,0.00122,-0.03372,-0.00671,0.00565,-0.03738
7.5005,-0.00626,-0.0415,-0.03128,-0.03998,-0.03479,-0.04776,-0.0116,-0.00534,-0.34134,-0.03464,0.03494,0.00366,-0.03357,-0.01465,0.01221,-0.03464
7.501,-0.0058,-0.04196,-0.03204,-0.03784,-0.03403,-0.04761,-0.01144,-0.00534,-0.383,-0.02365,-0.01175,0.00351,-0.03265,-0.02274,0.0177,-0.03387
7.5015,-0.00626,-0.04211,-0.03342,-0.03525,-0.03265,-0.04791,-0.0116,-0.00397,-0.43228,-0.00824,-0.04791,0.00259,-0.03342,-0.02731,0.01892,-0.03433
7.502,-0.00595,-0.04105,-0.03433,-0.03571,-0.03235,-0.04913,-0.01175,-0.00366,-0.46448,0.0029,-0.04715,0.00229,-0.03342,-0.0296,0.01907,-0.03525
7.5025,-0.00504,-0.04013,-0.03479,-0.04074,-0.03494,-0.04944,-0.0116,-0.00427,-0.48065,0.00443,-0.01709,0.00214,-0.03372,-0.0296,0.02304,-0.03571
7.503,-0.00336,-0.03906,-0.03403,-0.04822,-0.03723,-0.04852,-0.01099,-0.00381,-0.504,-0.00198,0.01266,0.00214,-0.03311,-0.0235,0.02701,-0.0386
7.5035,-0.0029,-0.03952,-0.03326,-0.05325,-0.03632,-0.04593,-0.01251,-0.00259,-0.5394,-0.01083,0.02472,0.00229,-0.03128,-0.01099,0.02533,-0.04105
7.504,-0.00458,-0.0412,-0.03418,-0.04593,-0.03571,-0.04562,-0.01389,-0.00259,-0.56656,-0.01343,0.02533,0.00214,-0.03372,0.00153,0.01373,-0.04395
7.5045,-0.00534,-0.04227,-0.0354,-0.01297,-0.03525,-0.04807,-0.01389,-0.00458,-0.57419,-0.0058,0.0238,0.00092,-0.03754,0.00763,0.00198,-0.04669
7.505,-0.00595,-0.04166,-0.03616,0.04517,-0.03555,-0.04868,-0.01282,-0.00687,-0.58716,0.01373,0.01862,-0.00031,-0.03983,0.00854,-0.00458,-0.04898
7.5055,-0.00534,-0.04181,-0.03555,0.103,-0.03479,-0.04852,-0.01343,-0.00687,-0.62561,0.04013,0.00137,-0.00214,-0.03998,0.0058,-0.00427,-0.04517
7.506,-0.00519,-0.04333,-0.03586,0.12054,-0.03311,-0.04761,-0.01389,-0.00488,-0.66513,0.06104,-0.03098,-0.00229,-0.04089,0.00183,-0.00244,-0.03815
7.5065,-0.00473,-0.04501,-0.03479,0.08026,-0.03265,-0.04776,-0.01343,-0.00336,-0.68024,0.05936,-0.07401,-0.00183,-0.0412,-0.00473,-0.00259,-0.03082
7.507,-0.00443,-0.04501,-0.03647,0.01495,-0.03326,-0.047,-0.01328,-0.0029,-0.6926,0.03616,-0.11002,-0.00076,-0.0383,-0.01389,-0.00137,-0.02747
7.5075,-0.00443,-0.04288,-0.03754,-0.03052,-0.03296,-0.04745,-0.01312,-0.00366,-0.73181,0.01022,-0.12009,0.00092,-0.03555,-0.02319,0.00595,-0.02609
7.508,-0.00443,-0.04074,-0.03693,-0.0441,-0.03235,-0.04776,-0.01465,-0.0058,-0.78751,-0.00351,-0.10239,0.00198,-0.03479,-0.03036,0.01816,-0.02579
7.5085,-0.00504,-0.04013,-0.03693,-0.04593,-0.03098,-0.04761,-0.01724,-0.00748,-0.83588,-0.00702,-0.06897,0.0029,-0.03616,-0.03967,0.02838,-0.03036
7.509,-0.00443,-0.04059,-0.03494,-0.05264,-0.02945,-0.04791,-0.0177,-0.00809,-0.86105,-0.01297,-0.03601,0.00381,-0.03815,-0.05219,0.02792,-0.0415
7.5095,-0.00549,-0.03967,-0.0322,-0.05859,-0.02701,-0.04654,-0.01694,-0.00763,-0.85693,-0.02228,-0.01205,0.00412,-0.03876,-0.06256,0.01663,-0.05234
7.51,-0.00641,-0.03845,-0.03174,-0.05844,-0.02625,-0.04608,-0.01541,-0.00626,-0.83817,-0.02945,0.00092,0.00244,-0.03769,-0.06485,0.00565,-0.05722
7.5105,-0.00839,-0.0386,-0.03311,-0.05295,-0.0264,-0.04578,-0.01434,-0.0061,-0.81573,-0.0293,0.00519,0.0,-0.03723,-0.05692,0.00443,-0.05783
7.511,-0.01099,-0.03769,-0.03448,-0.04745,-0.02869,-0.04578,-0.01556,-0.0058,-0.77438,-0.0238,0.00565,-0.00137,-0.03891,-0.04395,0.0087,-0.05783
7.5115,-0.0119,-0.03738,-0.03403,-0.04272,-0.03067,-0.04547,-0.01633,-0.00534,-0.70908,-0.01495,0.00565,-0.00137,-0.04044,-0.03387,0.00778,-0.05676
7.512,-0.01144,-0.0383,-0.0322,-0.03815,-0.03098,-0.04669,-0.01617,-0.00488,-0.64789,-0.00687,0.00763,-0.00137,-0.04196,-0.02853,0.00107,-0.05005
7.5125,-0.01038,-0.04028,-0.03387,-0.0351,-0.03021,-0.0473,-0.01541,-0.00427,-0.60883,-0.00626,0.01022,-0.00092,-0.04166,-0.02441,-0.00244,-0.03708
7.513,-0.01099,-0.04074,-0.03708,-0.03128,-0.02945,-0.04837,-0.0145,-0.00488,-0.5748,-0.01663,0.0087,-0.00046,-0.03906,-0.02045,0.00015,-0.02762
7.5135,-0.01144,-0.03891,-0.0383,-0.02609,-0.0296,-0.04745,-0.01373,-0.00504,-0.52139,-0.02869,-0.00031,0.0,-0.03677,-0.01587,0.00534,-0.02914
7.514,-0.01205,-0.03754,-0.0383,-0.01724,-0.02899,-0.04593,-0.01343,-0.00717,-0.44586,-0.03433,-0.01099,-0.00031,-0.03403,-0.01114,0.00992,-0.04028
7.5145,-0.01251,-0.03876,-0.03723,-0.00488,-0.02853,-0.04517,-0.01328,-0.00671,-0.36514,-0.03143,-0.01801,-0.00031,-0.03403,-0.00687,0.01297,-0.05096
7.515,-0.01343,-0.04181,-0.03815,0.01129,-0.02762,-0.04517,-0.01328,-0.00702,-0.29572,-0.02884,-0.01923,0.00046,-0.03418,-0.00534,0.01663,-0.05417
7.5155,-0.01556,-0.04257,-0.0386,0.02579,-0.02762,-0.04639,-0.01389,-0.00534,-0.23773,-0.02853,-0.0174,0.00092,-0.03448,-0.00656,0.01877,-0.05096
7.516,-0.01663,-0.0412,-0.03723,0.02914,-0.02747,-0.04684,-0.01404,-0.00549,-0.18021,-0.02731,-0.0177,-0.00031,-0.03326,-0.00992,0.02151,-0.04639
7.5165,-0.01709,-0.04013,-0.03601,0.01968,-0.02884,-0.047,-0.0145,-0.00458,-0.11566,-0.02594,-0.02518,-0.00244,-0.03235,-0.01282,0.02213,-0.0444
7.517,-0.01633,-0.04013,-0.03693,0.00412,-0.02914,-0.04761,-0.01419,-0.00427,-0.04272,-0.02472,-0.04166,-0.00397,-0.03296,-0.01572,0.01694,-0.04456
7.5175,-0.01724,-0.04074,-0.03662,-0.00748,-0.02914,-0.04822,-0.01343,-0.00305,0.03098,-0.0267,-0.06393,-0.00275,-0.0351,-0.01892,0.00916,-0.04868
7.518,-0.01801,-0.0412,-0.03708,-0.01236,-0.02884,-0.04883,-0.01221,-0.00351,0.1004,-0.03189,-0.08545,-0.00046,-0.03693,-0.02167,0.00305,-0.05569
7.5185,-0.01907,-0.0415,-0.03754,-0.01648,-0.02899,-0.04822,-0.01251,-0.00458,0.16037,-0.03647,-0.0975,0.00244,-0.03784,-0.02274,0.00443,-0.05981
7.519,-0.01907,-0.04059,-0.0383,-0.0209,-0.02945,-0.04807,-0.01404,-0.00427,0.21484,-0.03448,-0.08957,0.00381,-0.03571,-0.02258,0.0119,-0.05615
7.5195,-0.01831,-0.03952,-0.0386,-0.02579,-0.03098,-0.04837,-0.01541,-0.00412,0.27771,-0.02533,-0.06592,0.0029,-0.03464,-0.02213,0.02029,-0.0441
7.52,-0.01709,-0.03876,-0.03876,-0.02899,-0.03189,-0.04974,-0.01526,-0.00458,0.35889,-0.01556,-0.04211,0.00198,-0.03265,-0.02243,0.02335,-0.03189
7.5205,-0.01556,-0.04166,-0.03738,-0.02991,-0.03174,-0.05112,-0.01541,-0.00641,0.4422,-0.01434,-0.0264,0.00061,-0.03189,-0.02243,0.02029,-0.02457
7.521,-0.0148,-0.04364,-0.03693,-0.02823,-0.02991,-0.05081,-0.01495,-0.00687,0.51361,-0.0206,-0.01389,0.0,-0.03128,-0.02045,0.01434,-0.02274
7.5215,-0.01434,-0.04333,-0.03647,-0.02502,-0.02869,-0.0502,-0.01556,-0.00778,0.58334,-0.02869,0.00153,-0.00061,-0.03082,-0.01633,0.01068,-0.02197
7.522,-0.01358,-0.0415,-0.03632,-0.02167,-0.02777,-0.04974,-0.01541,-0.00732,0.65765,-0.0325,0.01663,-0.00214,-0.03052,-0.01373,0.00961,-0.01892
7.5225,-0.01251,-0.03937,-0.03479,-0.01801,-0.02716,-0.0499,-0.0148,-0.00641,0.73395,-0.03174,0.0209,-0.00381,-0.03006,-0.01236,0.01053,-0.01587
7.523,-0.01068,-0.03891,-0.03448,-0.01266,-0.02609,-0.05051,-0.01373,-0.00488,0.81345,-0.03006,0.01266,-0.00534,-0.02991,-0.01175,0.01404,-0.01724
7.5235,-0.00824,-0.0412,-0.03479,-0.00656,-0.02716,-0.04807,-0.01343,-0.00336,0.89279,-0.0325,0.01129,-0.00565,-0.03067,-0.00946,0.01968,-0.02441
7.524,-0.00763,-0.04471,-0.03555,0.00137,-0.02853,-0.04578,-0.01297,-0.00488,0.96695,-0.03967,0.03204,-0.00595,-0.03159,-0.00763,0.02106,-0.03113
7.5245,-0.00824,-0.04669,-0.03571,0.01236,-0.03006,-0.04471,-0.01343,-0.0061,1.04294,-0.05066,0.06607,-0.00595,-0.03143,-0.00824,0.01831,-0.0293
7.525,-0.009,-0.04608,-0.03479,0.02548,-0.03036,-0.04547,-0.0148,-0.00641,1.12564,-0.06226,0.07339,-0.00549,-0.03113,-0.00977,0.01251,-0.02151
7.5255,-0.01114,-0.04379,-0.03448,0.03464,-0.03006,-0.04745,-0.01556,-0.00504,1.20483,-0.06851,0.02655,-0.00549,-0.0296,-0.01083,0.00732,-0.01846
7.526,-0.01312,-0.04257,-0.03494,0.0325,-0.02869,-0.04822,-0.01587,-0.00473,1.27014,-0.06805,-0.0563,-0.00351,-0.02914,-0.01129,0.00153,-0.02563
7.5265,-0.01602,-0.0441,-0.03433,0.0209,-0.02731,-0.04898,-0.01587,-0.00549,1.32675,-0.06195,-0.1239,-0.00153,-0.02991,-0.01221,-0.00381,-0.04257
7.527,-0.01785,-0.04654,-0.03387,0.00809,-0.02625,-0.04913,-0.01678,-0.00626,1.38046,-0.05417,-0.14526,0.00031,-0.03006,-0.01465,-0.00717,-0.06439
7.5275,-0.01923,-0.04715,-0.03372,-0.00183,-0.02472,-0.04898,-0.01694,-0.00519,1.4325,-0.04303,-0.13535,0.00198,-0.03052,-0.01602,-0.00641,-0.08469
7.528,-0.01862,-0.04517,-0.03403,-0.00793,-0.0238,-0.04807,-0.01678,-0.00381,1.48087,-0.03265,-0.12039,0.00275,-0.03113,-0.01404,-0.00183,-0.09094
7.5285,-0.01785,-0.04349,-0.03372,-0.01663,-0.02487,-0.04715,-0.01633,-0.00275,1.52817,-0.02319,-0.10468,0.00244,-0.0322,-0.01343,0.00198,-0.08392
7.529,-0.01755,-0.04318,-0.03281,-0.02853,-0.02716,-0.04745,-0.01587,-0.00412,1.57318,-0.01389,-0.07782,0.00198,-0.03143,-0.01312,0.00519,-0.07278
7.5295,-0.01663,-0.04257,-0.03235,-0.04028,-0.02945,-0.04929,-0.01419,-0.00214,1.61453,-0.00366,-0.03616,-0.00031,-0.03098,-0.01251,0.00778,-0.06561
7.53,-0.01541,-0.04196,-0.03174,-0.04837,-0.03052,-0.04913,-0.01312,0.00137,1.65253,0.00351,0.01175,-0.00381,-0.02945,-0.0119,0.00809,-0.06149
7.5305,-0.0145,-0.04105,-0.0322,-0.04944,-0.03189,-0.04837,-0.01343,0.00412,1.69083,0.0061,0.047,-0.00397,-0.02945,-0.01175,0.00519,-0.056
7.531,-0.01465,-0.04166,-0.03311,-0.04852,-0.03143,-0.04684,-0.01526,0.00519,1.72928,0.00778,0.05554,-0.00214,-0.02975,-0.01236,-0.00046,-0.05127
7.5315,-0.01648,-0.04196,-0.03235,-0.05341,-0.03174,-0.04486,-0.01678,0.00534,1.76102,0.01358,0.0386,0.00076,-0.02792,-0.01282,-0.0032,-0.05157
7.532,-0.01755,-0.04135,-0.03372,-0.06348,-0.03296,-0.0444,-0.01633,0.00519,1.77628,0.02426,0.01587,0.00244,-0.02579,-0.01282,0.00427,-0.05569
7.5325,-0.01724,-0.04028,-0.03342,-0.07278,-0.03448,-0.04471,-0.01572,0.00397,1.78009,0.03174,0.00015,0.00168,-0.02548,-0.01251,0.01831,-0.05905
7.533,-0.01511,-0.03998,-0.03342,-0.07767,-0.03586,-0.04623,-0.01526,0.00336,1.79245,0.02762,-0.00519,-0.00046,-0.02563,-0.01175,0.02487,-0.0563
7.5335,-0.01236,-0.04028,-0.03387,-0.08301,-0.03647,-0.047,-0.0145,0.00183,1.82404,0.01312,-0.00244,-0.00198,-0.02731,-0.01221,0.01724,-0.05005
7.534,-0.01053,-0.0415,-0.03342,-0.08926,-0.03754,-0.04715,-0.01419,0.00107,1.85532,-0.00015,0.0032,-0.00198,-0.02686,-0.0148,0.00656,-0.0444
7.5345,-0.00916,-0.04257,-0.03296,-0.09583,-0.03738,-0.04684,-0.01511,0.00168,1.87622,-0.00488,0.0032,-0.00076,-0.0267,-0.01907,0.00397,-0.04105
7.535,-0.00824,-0.04333,-0.03235,-0.09201,-0.03693,-0.04623,-0.01572,0.00153,1.9014,-0.00656,-0.00748,0.00107,-0.02594,-0.02182,0.01266,-0.0383
7.5355,-0.00717,-0.04379,-0.03113,-0.05127,-0.03693,-0.04532,-0.01511,0.00076,1.93939,-0.01251,-0.0206,0.00107,-0.02609,-0.02289,0.02106,-0.03754
7.536,-0.0061,-0.04425,-0.03036,0.05035,-0.03754,-0.04547,-0.01343,-0.00046,1.98441,-0.02167,-0.02625,-0.00122,-0.0267,-0.02304,0.02304,-0.03708
7.5365,-0.00519,-0.0441,-0.03143,0.17517,-0.03876,-0.04639,-0.01343,-0.00031,2.03049,-0.02884,-0.02136,-0.00305,-0.02747,-0.02319,0.01892,-0.03922
7.537,-0.00443,-0.0441,-0.03296,0.23727,-0.03922,-0.04669,-0.0148,0.00092,2.07214,-0.03036,-0.01328,-0.0032,-0.02869,-0.02487,0.01251,-0.04379
7.5375,-0.00351,-0.04517,-0.03403,0.1973,-0.03876,-0.0473,-0.01556,0.00061,2.10587,-0.02808,-0.00565,-0.00244,-0.03098,-0.02594,0.00931,-0.04623
7.538,-0.00259,-0.04532,-0.0351,0.10895,-0.03616,-0.04822,-0.01602,-0.00137,2.13928,-0.02426,-0.00137,-0.00168,-0.0325,-0.02625,0.01251,-0.03998
7.5385,-0.00168,-0.0444,-0.03448,0.04669,-0.03265,-0.04959,-0.01556,-0.0029,2.17606,-0.02213,0.00046,-0.00183,-0.03342,-0.02625,0.02304,-0.02777
7.539,-0.00076,-0.04349,-0.03174,0.02411,-0.03021,-0.05005,-0.01541,-0.00443,2.20505,-0.02151,-0.00107,-0.00214,-0.03296,-0.02304,0.0293,-0.01862
7.5395,-0.00031,-0.04242,-0.03143,0.00549,-0.02884,-0.0499,-0.01587,-0.00427,2.21695,-0.0209,-0.00214,-0.00107,-0.03159,-0.01663,0.02747,-0.01831
7.54,0.0,-0.03998,-0.03265,-0.0293,-0.02838,-0.04913,-0.01648,-0.00412,2.21329,-0.01907,-0.0029,0.0,-0.03082,-0.0087,0.02258,-0.02106
7.5405,0.00031,-0.03815,-0.03281,-0.06577,-0.02838,-0.04883,-0.0177,-0.00381,2.19955,-0.01785,-0.00351,0.00107,-0.03204,-0.00046,0.01999,-0.02106
7.541,0.00031,-0.03799,-0.03128,-0.08438,-0.02914,-0.04807,-0.01831,-0.00381,2.1756,-0.01602,-0.00488,0.00046,-0.03448,0.00595,0.01495,-0.02167
7.5415,0.0,-0.03845,-0.02869,-0.07858,-0.03082,-0.04791,-0.01846,-0.00244,2.1489,-0.01465,-0.00534,0.00015,-0.03693,0.00992,0.00076,-0.03265
7.542,-0.00015,-0.03845,-0.02838,-0.0563,-0.0322,-0.04654,-0.01862,-0.00137,2.13013,-0.01221,-0.00809,-0.00046,-0.03815,0.00946,-0.01312,-0.05219
7.5425,-0.00015,-0.03891,-0.0296,-0.02808,-0.03128,-0.04532,-0.01801,-0.00137,2.12082,-0.0119,-0.01038,-0.00107,-0.03815,0.00641,-0.01724,-0.06821
7.543,-0.00015,-0.03906,-0.03204,-0.00153,-0.02869,-0.04395,-0.01556,-0.00229,2.1138,-0.01419,-0.01175,-0.00275,-0.03693,0.00458,-0.01495,-0.0705
7.5435,0.00015,-0.03937,-0.03235,0.01266,-0.02747,-0.04272,-0.01221,-0.00381,2.09991,-0.01648,-0.01251,-0.00397,-0.03433,0.00458,-0.01221,-0.06027
7.544,-0.00046,-0.03876,-0.03143,0.00931,-0.02655,-0.04318,-0.01099,-0.00427,2.07642,-0.01831,-0.01495,-0.00549,-0.03326,0.00061,0.00549,-0.04623
7.5445,-0.00046,-0.03876,-0.02945,-0.00381,-0.02792,-0.04471,-0.01434,-0.0029,2.05032,-0.01999,-0.01617,-0.0058,-0.03281,-0.01099,0.03662,-0.04105
7.545,-0.00092,-0.04013,-0.03021,-0.01389,-0.02899,-0.04623,-0.02289,-0.00168,2.02255,-0.02151,-0.0145,-0.00427,-0.03189,-0.02838,0.05096,-0.05035
7.5455,-0.00076,-0.04074,-0.03265,-0.01251,-0.02975,-0.04791,-0.03143,-0.00168,1.98547,-0.02167,-0.0116,0.00076,-0.03098,-0.04562,0.02777,-0.06271
7.546,-0.00046,-0.04059,-0.03342,-0.00488,-0.0296,-0.04944,-0.03235,-0.00198,1.93665,-0.02228,-0.009,0.00458,-0.03098,-0.06027,-0.00839,-0.06439
7.5465,-0.00031,-0.03876,-0.03296,0.00046,-0.02869,-0.05051,-0.02457,-0.00259,1.8956,-0.02319,-0.00854,0.00519,-0.03098,-0.06973,-0.02274,-0.05234
7.547,0.00061,-0.0383,-0.03128,0.00015,-0.02686,-0.04929,-0.01404,-0.0032,1.87881,-0.02319,-0.01038,0.00397,-0.02945,-0.07401,-0.01465,-0.03799
7.5475,0.00092,-0.0383,-0.03021,-0.00168,-0.02518,-0.04898,-0.01022,-0.0029,1.86859,-0.02411,-0.01358,0.00336,-0.02731,-0.07278,-0.01434,-0.02991
7.548,0.00031,-0.04028,-0.03082,-0.00305,-0.02426,-0.04852,-0.01144,-0.0029,1.84052,-0.02411,-0.01755,0.00259,-0.02502,-0.06622,-0.03769,-0.02853
7.5485,-0.00061,-0.0412,-0.03387,-0.00488,-0.02457,-0.04822,-0.01434,-0.0029,1.80649,-0.02258,-0.02014,0.00046,-0.02243,-0.05478,-0.07339,-0.02808
7.549,0.00031,-0.04196,-0.03555,-0.00916,-0.02625,-0.04791,-0.01617,-0.00305,1.78772,-0.02151,-0.02121,-0.00092,-0.02136,-0.04181,-0.09552,-0.02701
7.5495,0.00259,-0.04059,-0.03433,-0.01495,-0.02838,-0.0473,-0.01526,-0.00214,1.7865,-0.02151,-0.01923,-0.00214,-0.02121,-0.02838,-0.10162,-0.02441
7.55,0.00488,-0.03906,-0.0325,-0.01999,-0.02777,-0.04807,-0.01495,-0.00183,1.80023,-0.02182,-0.01602,-0.0029,-0.02167,-0.0177,-0.11826,-0.0238
7.5505,0.00473,-0.0386,-0.03159,-0.02167,-0.02808,-0.04837,-0.01495,-0.00122,1.82816,-0.0235,-0.01343,-0.00443,-0.02304,-0.01175,-0.15625,-0.02899
7.551,0.00381,-0.03952,-0.03235,-0.01999,-0.02792,-0.04883,-0.01526,-0.00076,1.86615,-0.02243,-0.01389,-0.00565,-0.02457,-0.00961,-0.16769,-0.03448
7.5515,0.00275,-0.04105,-0.03387,-0.01923,-0.02823,-0.04868,-0.01511,0.00092,1.90399,-0.0209,-0.01556,-0.00351,-0.02701,-0.01038,-0.07675,-0.03479
7.552,0.00244,-0.0415,-0.03403,-0.02167,-0.02792,-0.04868,-0.01465,0.00214,1.94153,-0.01984,-0.01572,-0.00015,-0.0296,-0.01221,0.09293,-0.0296
7.5525,0.00275,-0.04044,-0.03326,-0.02533,-0.02884,-0.04883,-0.01556,0.00366,1.98822,-0.01831,-0.01465,0.00214,-0.03067,-0.01312,0.20218,-0.02609
7.553,0.00351,-0.0412,-0.03342,-0.02625,-0.0296,-0.04868,-0.01633,0.00397,2.03171,-0.01892,-0.01282,0.00275,-0.03143,-0.01266,0.16205,-0.03021
7.5535,0.00336,-0.04196,-0.03433,-0.02213,-0.03067,-0.04883,-0.01587,0.00244,2.0105,-0.0209,-0.0116,0.00168,-0.03189,-0.01114,0.06409,-0.0415
7.554,0.00336,-0.04257,-0.03464,-0.01633,-0.03082,-0.04944,-0.01648,0.0,1.87271,-0.02289,-0.01022,0.00122,-0.03265,-0.01068,0.04211,-0.04898
7.5545,0.00412,-0.04257,-0.03387,-0.01251,-0.03052,-0.05081,-0.01816,-0.00168,1.64627,-0.02365,-0.00824,0.0,-0.03387,-0.01251,0.09857,-0.04395
7.555,0.00427,-0.04196,-0.03342,-0.00931,-0.03036,-0.05005,-0.02029,-0.00305,1.40228,-0.02197,-0.00671,-0.00198,-0.03601,-0.01541,0.13123,-0.03204
7.5555,0.00366,-0.04181,-0.03387,-0.00351,-0.0296,-0.04837,-0.01938,-0.00229,1.18042,-0.01907,-0.00671,-0.00473,-0.03647,-0.01511,0.08774,-0.02441
7.556,0.00229,-0.04333,-0.03433,0.00854,-0.02991,-0.04745,-0.01709,0.0,0.9668,-0.01541,-0.00778,-0.00656,-0.03662,-0.01175,0.01068,-0.02884
7.5565,0.00031,-0.04379,-0.03433,0.0209,-0.03006,-0.0473,-0.01495,0.00183,0.74615,-0.01266,-0.00977,-0.00641,-0.03677,-0.0058,-0.03464,-0.03799
7.557,-0.00076,-0.04303,-0.03448,0.02838,-0.02869,-0.04623,-0.01404,0.00229,0.52872,-0.01205,-0.00931,-0.00458,-0.03738,0.00183,-0.02991,-0.04456
7.5575,-0.00168,-0.04196,-0.03479,0.02502,-0.02731,-0.04578,-0.0145,0.00259,0.32318,-0.0148,-0.00702,-0.00244,-0.03738,0.01297,-0.00153,-0.04745
7.558,-0.00305,-0.0415,-0.03525,0.0116,-0.02655,-0.04486,-0.0116,0.00214,0.11688,-0.01755,-0.00458,-0.00153,-0.03845,0.02457,0.01892,-0.04715
7.5585,-0.00198,-0.04211,-0.03555,-0.00504,-0.02533,-0.04639,-0.00549,0.00031,-0.09689,-0.01938,-0.00458,-0.00153,-0.0383,0.03296,0.02792,-0.04288
7.559,0.00107,-0.04227,-0.03494,-0.0177,-0.02579,-0.04562,-0.00153,-0.0029,-0.29541,-0.01984,-0.00626,-0.00061,-0.03906,0.0351,0.05096,-0.03799
7.5595,0.0032,-0.04272,-0.03342,-0.02167,-0.02716,-0.04486,-0.00336,-0.0058,-0.44693,-0.01846,-0.00824,0.00015,-0.03952,0.03448,0.10086,-0.0354
7.56,0.00351,-0.04303,-0.03235,-0.0209,-0.02716,-0.04242,-0.00809,-0.00702,-0.55511,-0.01755,-0.01053,0.00107,-0.0412,0.03281,0.14679,-0.03906
7.5605,0.00137,-0.04211,-0.03159,-0.0235,-0.02884,-0.04227,-0.01205,-0.00671,-0.66376,-0.01877,-0.01343,0.00168,-0.04257,0.02594,0.14618,-0.04562
7.561,0.00076,-0.0415,-0.0325,-0.02869,-0.0293,-0.04257,-0.01389,-0.00519,-0.81116,-0.02197,-0.01556,0.00076,-0.04181,0.01022,0.10254,-0.05081
7.5615,0.00168,-0.04089,-0.03189,-0.02762,-0.02899,-0.04288,-0.01373,-0.00381,-0.98175,-0.02441,-0.01648,0.00015,-0.03876,-0.01236,0.05478,-0.05173
7.562,0.0029,-0.03967,-0.03204,-0.01816,-0.02914,-0.04257,-0.01266,-0.00336,-1.12885,-0.0238,-0.0174,0.00031,-0.03571,-0.03876,0.02838,-0.05417
7.5625,0.00244,-0.0386,-0.03265,-0.00824,-0.02853,-0.04349,-0.01389,-0.0032,-1.24329,-0.02411,-0.01831,0.00092,-0.03387,-0.06851,0.01587,-0.06439
7.563,0.00137,-0.03815,-0.03357,-0.00641,-0.02869,-0.04364,-0.0148,-0.00336,-1.3504,-0.02579,-0.02045,0.00076,-0.03357,-0.10056,0.00824,-0.07538
7.5635,0.00061,-0.03922,-0.03555,-0.00809,-0.02853,-0.0444,-0.01495,-0.00259,-1.46133,-0.02563,-0.02426,0.00076,-0.03372,-0.12924,0.00732,-0.07721
7.564,-0.00076,-0.04044,-0.03586,-0.00931,-0.0296,-0.04456,-0.01465,-0.0029,-1.56418,-0.02304,-0.03281,0.00107,-0.03265,-0.14099,0.01419,-0.07095
7.5645,-0.00153,-0.03937,-0.03479,-0.01038,-0.03113,-0.0444,-0.01434,-0.0029,-1.64703,-0.01801,-0.04318,0.00031,-0.03006,-0.12421,0.02411,-0.06393
7.565,-0.00153,-0.03876,-0.03372,-0.01434,-0.03204,-0.04425,-0.01495,-0.00153,-1.69739,-0.0145,-0.04776,-0.00122,-0.02701,-0.08438,0.02853,-0.06042
7.5655,-0.00107,-0.03967,-0.03342,-0.01785,-0.03464,-0.04547,-0.01541,-0.00046,-1.7131,-0.01266,-0.04501,-0.00366,-0.0238,-0.04044,0.0206,-0.05402
7.566,-0.00153,-0.04181,-0.0354,-0.01694,-0.03662,-0.04852,-0.01511,-0.00015,-1.71967,-0.00992,-0.0415,-0.00519,-0.02121,-0.01007,-0.00412,-0.04196
7.5665,-0.00351,-0.04272,-0.03494,-0.01495,-0.0386,-0.04913,-0.01556,-0.00092,-1.74973,-0.00641,-0.04074,-0.00549,-0.0209,0.00244,-0.03845,-0.02853
7.567,-0.00488,-0.04166,-0.03479,-0.01587,-0.04181,-0.04837,-0.01862,-0.00229,-1.80389,-0.00397,-0.03922,-0.00366,-0.0238,0.00473,-0.05997,-0.0209
7.5675,-0.00549,-0.04074,-0.03525,-0.01831,-0.04593,-0.04776,-0.02182,-0.00244,-1.85745,-0.00443,-0.03174,-0.00198,-0.02609,0.00381,-0.06012,-0.01785
7.568,-0.00488,-0.0415,-0.03677,-0.0206,-0.04745,-0.04837,-0.02182,-0.00305,-1.89316,-0.00351,-0.02182,-0.00046,-0.02594,0.00122,-0.0531,-0.01999
7.5685,-0.00412,-0.04135,-0.03799,-0.02045,-0.04913,-0.04944,-0.01648,-0.00412,-1.91254,-0.00107,-0.01221,0.00015,-0.02441,-0.00214,-0.06393,-0.03403
7.569,-0.00427,-0.04013,-0.03815,-0.01648,-0.0502,-0.0502,-0.01175,-0.00504,-1.91666,-0.00046,-0.00443,0.00061,-0.02579,-0.0058,-0.09262,-0.05951
7.5695,-0.00565,-0.03891,-0.03784,-0.00519,-0.04974,-0.0499,-0.01022,-0.0032,-1.90262,-0.00458,0.00244,0.00183,-0.02975,-0.009,-0.112,-0.07767
7.57,-0.0061,-0.03952,-0.03616,0.00854,-0.0473,-0.0499,-0.00885,-0.00198,-1.87164,-0.0116,0.00931,0.00229,-0.03174,-0.00854,-0.08133,-0.07248
7.5705,-0.00626,-0.04074,-0.03555,0.01221,-0.04288,-0.05005,-0.00671,-0.00107,-1.83655,-0.01923,0.01221,0.00153,-0.03235,-0.00793,-0.00717,-0.04974
7.571,-0.0061,-0.03998,-0.03418,-0.00168,-0.03937,-0.04959,-0.00687,-0.00168,-1.80435,-0.02197,0.01266,0.00107,-0.0325,-0.00748,0.04684,-0.03311
7.5715,-0.0061,-0.03967,-0.03311,-0.02289,-0.03647,-0.04745,-0.01099,-0.00275,-1.78055,-0.02228,0.01129,0.00153,-0.0325,-0.00763,0.03326,-0.03296
7.572,-0.0061,-0.03998,-0.03281,-0.03525,-0.03418,-0.047,-0.01526,-0.00336,-1.77231,-0.02029,0.01007,0.00244,-0.03143,-0.00671,-0.00885,-0.04257
7.5725,-0.00534,-0.04105,-0.03418,-0.03387,-0.03265,-0.04745,-0.01556,-0.00412,-1.78177,-0.01801,0.00885,0.00214,-0.02991,-0.00641,-0.01221,-0.04822
7.573,-0.00458,-0.04196,-0.03647,-0.02701,-0.03311,-0.04807,-0.01419,-0.00336,-1.7923,-0.01785,0.0087,0.00183,-0.0296,-0.00839,0.03799,-0.04501
7.5735,-0.00305,-0.04181,-0.03784,-0.02182,-0.03265,-0.04684,-0.01404,-0.00397,-1.77902,-0.0174,0.00839,0.00229,-0.03036,-0.00916,0.09842,-0.03708
7.574,-0.00351,-0.04135,-0.03754,-0.01938,-0.0322,-0.04562,-0.01495,-0.00473,-1.73874,-0.01694,0.00626,0.0058,-0.03113,-0.00671,0.11246,-0.03098
7.5745,-0.00427,-0.04044,-0.03586,-0.01678,-0.03098,-0.04608,-0.0148,-0.00488,-1.69952,-0.01663,0.00061,0.00778,-0.03098,-0.00061,0.0647,-0.03052
7.575,-0.00412,-0.04044,-0.03464,-0.01373,-0.0296,-0.04623,-0.01495,-0.00366,-1.67389,-0.01617,-0.00778,0.00778,-0.03174,0.00595,-0.00412,-0.03433
7.5755,-0.0032,-0.04181,-0.0354,-0.0119,-0.02823,-0.04608,-0.01495,-0.0029,-1.64169,-0.01648,-0.0148,0.00595,-0.03448,0.009,-0.03815,-0.03616
7.576,-0.00351,-0.04272,-0.03571,-0.01083,-0.02991,-0.04532,-0.01511,-0.00412,-1.59821,-0.01572,-0.01801,0.00488,-0.03723,0.00778,-0.03143,-0.03357
7.5765,-0.00443,-0.04105,-0.0354,-0.01022,-0.03021,-0.04517,-0.01419,-0.00549,-1.55487,-0.01358,-0.01801,0.00458,-0.03784,0.00351,-0.0206,-0.03265
7.577,-0.00565,-0.03799,-0.03281,-0.01053,-0.02945,-0.04639,-0.01251,-0.0058,-1.51077,-0.01297,-0.01648,0.00381,-0.03723,-0.00061,-0.03265,-0.03754
7.5775,-0.00534,-0.03845,-0.03159,-0.01068,-0.02777,-0.04684,-0.01175,-0.00458,-1.46164,-0.01587,-0.01511,0.00366,-0.03784,-0.00397,-0.0473,-0.0444
7.578,-0.00473,-0.03998,-0.03265,-0.01068,-0.02792,-0.04684,-0.01053,-0.00244,-1.41342,-0.01938,-0.01297,0.00275,-0.0383,-0.00702,-0.02426,-0.04501
7.5785,-0.00427,-0.04059,-0.0325,-0.01022,-0.02838,-0.04684,-0.01053,-0.00351,-1.36261,-0.02243,-0.01022,0.00153,-0.03738,-0.01083,0.04684,-0.04089
7.579,-0.00412,-0.04044,-0.03159,-0.00946,-0.02991,-0.04608,-0.01266,-0.00732,-1.30508,-0.02365,-0.00671,0.00046,-0.0351,-0.01892,0.11703,-0.04074
7.5795,-0.00336,-0.03891,-0.03021,-0.00977,-0.02838,-0.04562,-0.01556,-0.00961,-1.25046,-0.02335,-0.00366,-0.00092,-0.03265,-0.0296,0.12039,-0.04669
7.58,-0.00153,-0.03784,-0.03021,-0.01038,-0.0267,-0.04654,-0.01694,-0.00732,-1.21155,-0.02396,-0.00336,-0.00092,-0.03036,-0.04227,0.05371,-0.05005
7.5805,-0.00061,-0.03647,-0.03082,-0.01221,-0.0264,-0.047,-0.01556,-0.00458,-1.18179,-0.02563,-0.00595,-0.00031,-0.02853,-0.05432,-0.02182,-0.04562
7.581,-0.00168,-0.03647,-0.03098,-0.01419,-0.02747,-0.04684,-0.01328,-0.00366,-1.147,-0.02838,-0.00763,0.00015,-0.02823,-0.0621,-0.05234,-0.03433
7.5815,-0.00275,-0.03769,-0.03082,-0.01343,-0.02975,-0.04684,-0.01282,-0.00488,-1.10291,-0.0325,-0.00687,0.00015,-0.02808,-0.06134,-0.04425,-0.02502
7.582,-0.00275,-0.03906,-0.03098,-0.01022,-0.03128,-0.04715,-0.01343,-0.00504,-1.0585,-0.03571,-0.0058,0.00015,-0.02838,-0.05127,-0.03494,-0.02014
7.5825,-0.0029,-0.03906,-0.03281,-0.009,-0.03113,-0.04776,-0.01419,-0.00458,-1.02768,-0.03677,-0.0058,-0.00092,-0.02869,-0.03433,-0.04532,-0.01938
7.583,-0.00351,-0.03922,-0.03357,-0.0087,-0.03021,-0.04883,-0.01373,-0.00504,-1.01166,-0.03647,-0.009,-0.00168,-0.02792,-0.01923,-0.05905,-0.02182
7.5835,-0.00412,-0.03922,-0.03281,-0.00885,-0.02899,-0.04959,-0.01343,-0.0058,-0.99579,-0.03525,-0.01282,-0.00198,-0.0267,-0.01175,-0.04868,-0.02625
7.584,-0.00458,-0.04089,-0.03159,-0.00946,-0.0293,-0.0499,-0.01373,-0.00671,-0.96741,-0.03647,-0.01694,-0.00061,-0.02701,-0.01114,-0.00397,-0.03113
7.5845,-0.00473,-0.04211,-0.03128,-0.009,-0.03052,-0.0502,-0.01495,-0.0058,-0.93307,-0.03693,-0.01831,0.00092,-0.02884,-0.01251,0.05188,-0.03693
7.585,-0.00473,-0.04211,-0.0322,-0.00824,-0.03128,-0.04944,-0.01511,-0.00504,-0.90118,-0.0354,-0.01862,0.00183,-0.03098,-0.01221,0.08713,-0.03952
7.5855,-0.00473,-0.04196,-0.03311,-0.00961,-0.03235,-0.0499,-0.01343,-0.00519,-0.8725,-0.03036,-0.02075,0.00259,-0.02975,-0.01068,0.08514,-0.0383
7.586,-0.00626,-0.0412,-0.03448,-0.01022,-0.03311,-0.05035,-0.01266,-0.00565,-0.84732,-0.02182,-0.02945,0.0029,-0.02777,-0.00916,0.06516,-0.03357
7.5865,-0.00778,-0.04013,-0.03616,-0.00916,-0.03296,-0.0499,-0.0119,-0.00549,-0.83237,-0.00885,-0.04333,0.00214,-0.02808,-0.01022,0.04593,-0.03342
7.587,-0.009,-0.04028,-0.0351,-0.00885,-0.03235,-0.04837,-0.01404,-0.00519,-0.8168,0.00595,-0.05798,-0.00015,-0.03036,-0.01282,0.03311,-0.04288
7.5875,-0.009,-0.04196,-0.0351,-0.01038,-0.0322,-0.04669,-0.01465,-0.0058,-0.78506,0.01923,-0.06592,-0.0029,-0.03235,-0.0148,0.02487,-0.05463
7.588,-0.00809,-0.04471,-0.03387,-0.01236,-0.03204,-0.04654,-0.01343,-0.00717,-0.74951,0.02518,-0.06302,-0.0032,-0.03189,-0.01511,0.02136,-0.05676
7.5885,-0.00793,-0.04517,-0.03494,-0.01434,-0.03189,-0.04761,-0.01114,-0.00916,-0.72098,0.02365,-0.04761,-0.00092,-0.03098,-0.01434,0.02258,-0.04944
7.589,-0.00931,-0.0444,-0.03586,-0.01572,-0.03326,-0.04868,-0.00992,-0.00961,-0.68542,0.01862,-0.02533,0.00122,-0.03143,-0.01419,0.02472,-0.04318
7.5895,-0.01007,-0.04395,-0.03647,-0.01724,-0.03281,-0.05005,-0.01038,-0.00687,-0.64026,0.01343,-0.00076,-0.00031,-0.03143,-0.01465,0.02243,-0.04105
7.59,-0.00854,-0.0444,-0.03555,-0.02106,-0.0322,-0.0499,-0.01099,-0.00336,-0.60272,0.00717,0.0177,-0.0032,-0.03113,-0.01373,0.01328,-0.03983
7.5905,-0.00641,-0.04456,-0.0351,-0.02548,-0.03326,-0.04944,-0.01068,-0.00153,-0.57541,0.00031,0.02579,-0.00351,-0.03128,-0.01236,0.00229,-0.03479
7.591,-0.00671,-0.0444,-0.0354,-0.02716,-0.03525,-0.04929,-0.01129,-0.00198,-0.54871,-0.00549,0.02548,-0.00183,-0.03174,-0.01221,-0.00473,-0.02716
7.5915,-0.00702,-0.04379,-0.03571,-0.02487,-0.03677,-0.04944,-0.01099,-0.00366,-0.51483,-0.00992,0.02289,0.00046,-0.03128,-0.01373,-0.01236,-0.0264
7.592,-0.00702,-0.04272,-0.03525,-0.01923,-0.03693,-0.04761,-0.01144,-0.00381,-0.46814,-0.01358,0.01907,0.00076,-0.03098,-0.01587,-0.02899,-0.03433
7.5925,-0.0061,-0.04196,-0.03479,-0.01038,-0.03754,-0.04639,-0.01114,-0.00229,-0.41046,-0.01862,0.01282,-0.00031,-0.03143,-0.01587,-0.05432,-0.04578
7.593,-0.00626,-0.04181,-0.03418,0.00076,-0.03677,-0.04608,-0.01114,-0.00153,-0.35934,-0.0235,0.00519,-0.00137,-0.03189,-0.01587,-0.07477,-0.056
7.5935,-0.00671,-0.04318,-0.03281,0.00931,-0.03616,-0.04745,-0.0116,-0.00336,-0.32761,-0.02808,-0.0029,-0.00153,-0.03143,-0.01572,-0.08041,-0.06287
7.594,-0.00641,-0.04501,-0.03342,0.00854,-0.03677,-0.04837,-0.01266,-0.00549,-0.31067,-0.03006,-0.00793,-0.00107,-0.03143,-0.0174,-0.07339,-0.06439
7.5945,-0.0058,-0.04547,-0.03464,-0.00031,-0.03754,-0.04822,-0.01312,-0.00641,-0.29037,-0.03098,-0.0119,0.00031,-0.0325,-0.01907,-0.05371,-0.06256
7.595,-0.00534,-0.04486,-0.0351,-0.00824,-0.03845,-0.04791,-0.01389,-0.00534,-0.24933,-0.03265,-0.01587,0.00198,-0.03265,-0.01968,-0.01007,-0.05875
7.5955,-0.00565,-0.0444,-0.03418,-0.00748,-0.0383,-0.04822,-0.01358,-0.00443,-0.19073,-0.03555,-0.01877,0.00381,-0.0325,-0.01846,0.06241,-0.05432
7.596,-0.0058,-0.0444,-0.03464,-0.00153,-0.03723,-0.04898,-0.01312,-0.00351,-0.13733,-0.03693,-0.01999,0.0032,-0.0322,-0.01648,0.12039,-0.05051
7.5965,-0.00641,-0.04257,-0.03632,-0.00031,-0.03632,-0.04959,-0.01129,-0.00366,-0.10529,-0.03571,-0.01999,0.00183,-0.0322,-0.01434,0.11139,-0.04868
7.597,-0.00656,-0.04135,-0.03754,-0.00702,-0.03784,-0.04944,-0.01205,-0.00397,-0.08545,-0.03433,-0.01968,0.00122,-0.03296,-0.01389,0.04684,-0.04745
7.5975,-0.00778,-0.04211,-0.03708,-0.0174,-0.03998,-0.04913,-0.01373,-0.00458,-0.05707,-0.03387,-0.02029,0.00046,-0.03204,-0.01465,-0.00122,-0.047
7.598,-0.00793,-0.0441,-0.03693,-0.02396,-0.04028,-0.04929,-0.01419,-0.0058,-0.01877,-0.0354,-0.02335,-0.00061,-0.03082,-0.01511,-0.00107,-0.04761
7.5985,-0.00839,-0.04486,-0.03586,-0.02335,-0.03983,-0.05005,-0.01419,-0.0061,0.01862,-0.03464,-0.02884,-0.00244,-0.03189,-0.01541,0.01709,-0.04822
7.599,-0.00732,-0.04257,-0.03464,-0.01816,-0.03922,-0.0499,-0.01434,-0.00565,0.04608,-0.03235,-0.03525,-0.00458,-0.03311,-0.01389,0.0177,-0.04929
7.5995,-0.00626,-0.04105,-0.03525,-0.01297,-0.03906,-0.05005,-0.01389,-0.00336,0.05981,-0.02716,-0.03876,-0.0061,-0.03357,-0.01175,0.0029,-0.05188
7.6,-0.00488,-0.04028,-0.03555,-0.00961,-0.03891,-0.0499,-0.01404,-0.00153,0.06287,-0.02213,-0.03906,-0.00641,-0.03479,-0.01007,-0.01022,-0.05524
7.6005,-0.00305,-0.04196,-0.03616,-0.00809,-0.03799,-0.04944,-0.01495,-0.00061,0.07248,-0.01862,-0.03891,-0.00519,-0.03601,-0.01099,-0.02106,-0.05676
7.601,-0.00336,-0.04272,-0.03693,-0.00732,-0.03632,-0.04898,-0.01404,-0.00046,0.09979,-0.0174,-0.03799,-0.00244,-0.0386,-0.01389,-0.03113,-0.05417
7.6015,-0.00473,-0.04227,-0.03784,-0.00687,-0.03494,-0.04791,-0.01282,-0.00137,0.12482,-0.01678,-0.03601,-0.00061,-0.03937,-0.01846,-0.03815,-0.04669
7.602,-0.00534,-0.04211,-0.03769,-0.00778,-0.03403,-0.04745,-0.01236,-0.00214,0.13123,-0.01709,-0.03143,0.00046,-0.0386,-0.02197,-0.03998,-0.04028
7.6025,-0.00534,-0.04303,-0.03723,-0.00885,-0.03342,-0.04715,-0.01221,-0.00214,0.1358,-0.01694,-0.02396,0.00107,-0.03677,-0.02472,-0.0386,-0.03738
7.603,-0.00427,-0.04318,-0.03754,-0.00916,-0.0325,-0.04745,-0.01251,-0.00183,0.15213,-0.01816,-0.01587,0.00229,-0.03647,-0.02777,-0.02289,-0.03754
7.6035,-0.00443,-0.04181,-0.0383,-0.00931,-0.03174,-0.04791,-0.01205,-0.00122,0.17303,-0.01984,-0.00824,0.00107,-0.03723,-0.03342,0.0148,-0.03708
7.604,-0.00458,-0.04028,-0.03845,-0.00885,-0.03174,-0.04715,-0.0119,-0.00092,0.19241,-0.02304,-0.0032,-0.00214,-0.03784,-0.04028,0.04684,-0.03555
7.6045,-0.00504,-0.03937,-0.03754,-0.00946,-0.03159,-0.04593,-0.01114,-0.00153,0.20782,-0.02762,-0.00046,-0.00443,-0.0383,-0.04715,0.03693,-0.03494
7.605,-0.00519,-0.03967,-0.03693,-0.01068,-0.03113,-0.04593,-0.01083,-0.00137,0.22049,-0.03143,0.00092,-0.00366,-0.03876,-0.05219,-0.00183,-0.0351
7.6055,-0.00473,-0.04089,-0.03708,-0.01297,-0.0296,-0.047,-0.01053,-0.00046,0.2449,-0.03143,0.00183,-0.00183,-0.03937,-0.05096,-0.02365,-0.03403
7.606,-0.00473,-0.04089,-0.03708,-0.01419,-0.02914,-0.04761,-0.01114,0.0,0.27985,-0.02945,0.00259,-0.00061,-0.0386,-0.04333,-0.0119,-0.03204
7.6065,-0.00488,-0.03952,-0.03647,-0.01404,-0.02823,-0.04745,-0.01266,-0.00046,0.30319,-0.02853,0.0032,-0.00061,-0.03769,-0.03326,0.01068,-0.03235
7.607,-0.00565,-0.03876,-0.03601,-0.01358,-0.02808,-0.04593,-0.01526,-0.00137,0.3038,-0.02991,0.00351,-0.00107,-0.03815,-0.02579,0.0293,-0.03693
7.6075,-0.0061,-0.03891,-0.03632,-0.01343,-0.02655,-0.04639,-0.01648,-0.00046,0.29984,-0.02884,0.00168,-0.00122,-0.03937,-0.01999,0.03998,-0.04333
7.608,-0.00565,-0.03937,-0.03586,-0.01419,-0.02426,-0.04654,-0.01633,-0.00015,0.30914,-0.02701,-0.00244,-0.00168,-0.03937,-0.01678,0.02792,-0.04837
7.6085,-0.00412,-0.03906,-0.03616,-0.01526,-0.02411,-0.04532,-0.01419,0.0,0.32623,-0.02563,-0.00671,-0.00275,-0.03815,-0.01572,-0.01389,-0.0502
7.609,-0.0029,-0.03891,-0.03616,-0.01602,-0.02625,-0.04272,-0.01358,0.0,0.33813,-0.02594,-0.01007,-0.00336,-0.03632,-0.0174,-0.065,-0.0502
7.6095,-0.00259,-0.03845,-0.03632,-0.0148,-0.0264,-0.04074,-0.01221,0.0,0.34973,-0.02289,-0.00977,-0.00229,-0.03357,-0.01862,-0.0943,-0.04761
7.61,-0.00336,-0.0383,-0.03494,-0.01328,-0.02533,-0.03937,-0.01541,0.0,0.36819,-0.01602,-0.00977,-0.00092,-0.03189,-0.01617,-0.11017,-0.04272
7.6105,-0.00366,-0.0383,-0.03418,-0.01312,-0.02441,-0.03967,-0.01587,-0.00168,0.39352,-0.00656,-0.01175,-0.00107,-0.03174,-0.01221,-0.13214,-0.04028
7.611,-0.00397,-0.03815,-0.03418,-0.01297,-0.02487,-0.04135,-0.01389,-0.00259,0.41962,0.0029,-0.01495,-0.00259,-0.03159,-0.00916,-0.1413,-0.03937
7.6115,-0.00458,-0.03891,-0.03494,-0.0119,-0.0264,-0.04196,-0.01404,-0.00198,0.44281,0.00671,-0.01785,-0.00259,-0.03128,-0.00717,-0.09644,-0.0386
7.612,-0.00427,-0.04105,-0.0351,-0.01129,-0.02762,-0.04257,-0.01495,-0.00153,0.46066,0.0029,-0.01755,-0.0029,-0.0296,-0.00565,-0.02243,-0.03464
7.6125,-0.00336,-0.04211,-0.03372,-0.01053,-0.02792,-0.04272,-0.01465,-0.00107,0.47287,-0.00443,-0.01678,-0.0032,-0.02853,-0.00626,-0.00015,-0.03174
7.613,-0.00198,-0.04089,-0.03357,-0.00931,-0.0267,-0.04349,-0.01373,-0.00122,0.48187,-0.00793,-0.0177,-0.00122,-0.02808,-0.00702,-0.03204,-0.03052
7.6135,-0.00275,-0.03922,-0.03387,-0.00732,-0.02426,-0.04425,-0.01251,-0.00061,0.49118,-0.00763,-0.02106,0.00153,-0.02747,-0.00854,-0.01038,-0.03143
7.614,-0.00412,-0.03799,-0.03479,-0.00656,-0.02426,-0.0444,-0.01297,-0.00061,0.51529,-0.00717,-0.02304,0.00534,-0.02716,-0.01236,0.10696,-0.03448
7.6145,-0.00412,-0.03723,-0.03357,-0.00504,-0.02457,-0.04486,-0.01373,-0.00092,0.55786,-0.0087,-0.02304,0.0061,-0.02731,-0.01526,0.20203,-0.0386
7.615,-0.00366,-0.03738,-0.03098,-0.00488,-0.02426,-0.0444,-0.01465,-0.0032,0.59662,-0.01251,-0.01923,0.00381,-0.02823,-0.01877,0.159,-0.04135
7.6155,-0.00458,-0.03815,-0.02884,-0.00534,-0.02411,-0.04471,-0.01389,-0.00473,0.62241,-0.01572,-0.01648,0.00137,-0.03036,-0.02151,0.03036,-0.03906
7.616,-0.00565,-0.03876,-0.02884,-0.00565,-0.02426,-0.04639,-0.01373,-0.00443,0.65277,-0.01572,-0.01648,-0.00031,-0.03159,-0.02167,-0.03891,-0.03082
7.6165,-0.00549,-0.03952,-0.03021,-0.0061,-0.02579,-0.04791,-0.01434,-0.0029,0.68985,-0.01389,-0.01678,-0.00122,-0.0322,-0.02014,0.00381,-0.01999
7.617,-0.00565,-0.04074,-0.03174,-0.00854,-0.02762,-0.04791,-0.01587,-0.00229,0.70709,-0.0145,-0.0145,-0.00092,-0.03265,-0.01862,0.10117,-0.01038
7.6175,-0.00626,-0.04211,-0.03265,-0.01221,-0.02777,-0.04684,-0.01617,-0.00351,0.70206,-0.01846,-0.01221,-0.00092,-0.03418,-0.01724,0.18692,-0.00519
7.618,-0.00687,-0.04257,-0.0322,-0.01633,-0.02716,-0.04639,-0.01572,-0.00412,0.68756,-0.02655,-0.01175,-0.00076,-0.03525,-0.01556,0.21988,-0.00717
7.6185,-0.00656,-0.04211,-0.03281,-0.01999,-0.02579,-0.04623,-0.01343,-0.00412,0.67444,-0.03723,-0.01389,0.0,-0.03479,-0.01419,0.17914,-0.0177
7.619,-0.00626,-0.04196,-0.03311,-0.02045,-0.02441,-0.04684,-0.01511,-0.00412,0.67429,-0.0473,-0.01511,0.00076,-0.03464,-0.01389,0.08316,-0.03571
7.6195,-0.00778,-0.04257,-0.03555,-0.01816,-0.02304,-0.04578,-0.0148,-0.00504,0.68497,-0.05417,-0.01358,0.00153,-0.03372,-0.01419,-0.00488,-0.0563
7.62,-0.00748,-0.04227,-0.03586,-0.01648,-0.02396,-0.04379,-0.01572,-0.0058,0.68878,-0.05203,-0.01343,0.00107,-0.0322,-0.01389,-0.0351,-0.07141
7.6205,-0.00717,-0.04181,-0.03433,-0.01617,-0.02594,-0.04196,-0.01328,-0.0061,0.67581,-0.04288,-0.01434,-0.00076,-0.03036,-0.01312,-0.01831,-0.07675
7.621,-0.0058,-0.04105,-0.03387,-0.0174,-0.02747,-0.04227,-0.0119,-0.00412,0.65308,-0.03006,-0.01526,-0.00351,-0.0296,-0.01389,-0.00488,-0.07217
7.6215,-0.00397,-0.04059,-0.03342,-0.01892,-0.0264,-0.04333,-0.01175,-0.00183,0.62988,-0.01984,-0.01526,-0.00488,-0.03021,-0.01511,-0.01251,-0.05981
7.622,-0.00198,-0.04074,-0.0325,-0.01846,-0.0264,-0.04257,-0.01328,-0.00183,0.6076,-0.01266,-0.01526,-0.00427,-0.03006,-0.01801,-0.01678,-0.04745
