time,RectFemL,VastusMedL,VastusLatL,TibAntL,HamMedL,HamLatL,GastroMedL,GastroLatL,RectFemR,VastusMedR,VastusLatR,TibAntR,HamMedR,HamLatR,GastroMedR,GastroLatR
4.35,-0.03235,0.02716,0.1358,-0.02884,-0.02792,-0.08057,-0.01389,-0.0032,-0.03143,-0.05096,-0.19012,-0.06226,-0.03357,-0.02228,0.00824,-0.04257
4.3505,-0.03464,0.05051,0.13947,-0.0209,-0.02365,-0.07385,-0.01419,-0.00412,-0.0267,-0.04715,-0.14511,-0.08881,-0.03326,-0.02243,0.00778,-0.04166
4.351,-0.03769,0.06989,0.11795,-0.00885,-0.02213,-0.06454,-0.0148,-0.00488,-0.02472,-0.04913,-0.09354,-0.12405,-0.03418,-0.02304,0.00778,-0.04089
4.3515,-0.0386,0.08377,0.08163,0.00885,-0.02258,-0.05386,-0.01663,-0.00412,-0.02548,-0.05096,-0.06973,-0.13565,-0.03433,-0.02487,0.00839,-0.03983
4.352,-0.03723,0.08545,0.03983,0.02472,-0.02365,-0.04501,-0.01892,-0.00366,-0.02945,-0.04868,-0.08301,-0.08102,-0.0351,-0.0264,0.00961,-0.03906
4.3525,-0.03632,0.06775,-0.00076,0.02533,-0.02258,-0.0383,-0.01984,-0.00366,-0.0354,-0.04227,-0.11292,0.0383,-0.03418,-0.02686,0.0087,-0.04089
4.353,-0.03799,0.03433,-0.04135,0.0058,-0.02228,-0.03387,-0.01785,-0.00458,-0.04196,-0.03479,-0.13321,0.14786,-0.03311,-0.02579,0.00671,-0.04379
4.3535,-0.03983,0.00351,-0.09964,-0.01663,-0.02289,-0.03082,-0.01389,-0.00488,-0.04929,-0.02731,-0.13519,0.16754,-0.03372,-0.02625,0.00549,-0.04593
4.354,-0.03952,-0.01221,-0.19836,-0.01862,-0.02563,-0.02899,-0.01007,-0.00336,-0.05417,-0.01816,-0.12634,0.11734,-0.03571,-0.02792,0.00671,-0.04562
4.3545,-0.0386,-0.01801,-0.32593,0.00153,-0.02991,-0.0293,-0.00778,0.0,-0.05341,-0.00824,-0.11429,0.09247,-0.03632,-0.03006,0.00885,-0.04288
4.355,-0.03586,-0.02029,-0.4155,0.01038,-0.03403,-0.0322,-0.00504,0.00412,-0.0473,-0.00305,-0.10574,0.13199,-0.03479,-0.0296,0.0087,-0.03998
4.3555,-0.02701,-0.01877,-0.39917,-0.01694,-0.03677,-0.03586,-0.00305,0.00671,-0.03693,-0.00641,-0.10315,0.18616,-0.03281,-0.02563,0.009,-0.03937
4.356,-0.00687,-0.00916,-0.27954,-0.0531,-0.03708,-0.0383,-0.00534,0.0061,-0.02441,-0.01587,-0.10391,0.2005,-0.03265,-0.02121,0.01038,-0.03998
4.3565,0.01877,0.00763,-0.12726,-0.05341,-0.03571,-0.0386,-0.01312,0.00183,-0.01434,-0.02365,-0.09933,0.17029,-0.03326,-0.01907,0.0119,-0.04059
4.357,0.03586,0.02533,0.00458,-0.03067,-0.03281,-0.03952,-0.02029,-0.00305,-0.00473,-0.02289,-0.0853,0.1123,-0.03265,-0.01892,0.01328,-0.04059
4.3575,0.03723,0.03891,0.12268,-0.03708,-0.03281,-0.04471,-0.02289,-0.00595,0.00641,-0.0148,-0.06561,0.03479,-0.03067,-0.01678,0.01266,-0.0412
4.358,0.02792,0.04181,0.23132,-0.08102,-0.03281,-0.05569,-0.02136,-0.00397,0.0209,-0.0058,-0.04745,-0.04623,-0.02838,-0.01511,0.0119,-0.04166
4.3585,0.01785,0.01938,0.28397,-0.11536,-0.03464,-0.06409,-0.0177,-0.00229,0.03372,0.00107,-0.02441,-0.11047,-0.02716,-0.01434,0.01144,-0.04105
4.359,0.00946,-0.0354,0.24811,-0.11444,-0.03571,-0.06332,-0.01099,-0.00183,0.03998,0.0058,0.00381,-0.14389,-0.02609,-0.01587,0.01251,-0.03845
4.3595,-0.00595,-0.10559,0.18494,-0.10193,-0.03448,-0.05508,-0.00229,-0.00244,0.03952,0.01068,0.03525,-0.14694,-0.02533,-0.0177,0.01511,-0.03662
4.36,-0.03265,-0.16098,0.19333,-0.09125,-0.0325,-0.04578,0.0058,-0.00214,0.0354,0.01617,0.05585,-0.12802,-0.02487,-0.01709,0.01617,-0.03784
4.3605,-0.05768,-0.18555,0.28061,-0.05646,-0.03036,-0.03952,0.01053,-0.00107,0.0296,0.02136,0.06058,-0.09888,-0.02533,-0.01541,0.01221,-0.04211
4.361,-0.0647,-0.18539,0.35294,-0.00732,-0.03006,-0.03601,0.00687,-0.00031,0.02289,0.02411,0.05569,-0.07004,-0.02563,-0.01434,0.00717,-0.04471
4.3615,-0.05783,-0.17258,0.3331,-0.00244,-0.03113,-0.03586,-0.00854,-0.00092,0.01297,0.02167,0.05203,-0.04471,-0.02609,-0.01495,0.00488,-0.04425
4.362,-0.05173,-0.15839,0.24109,-0.04913,-0.03281,-0.03677,-0.03128,-0.00015,0.00183,0.01266,0.05234,-0.02747,-0.02792,-0.01587,0.00519,-0.04379
4.3625,-0.05188,-0.14008,0.1387,-0.07202,-0.03342,-0.04105,-0.04456,0.0,-0.00473,-0.00488,0.05875,-0.02792,-0.02945,-0.01694,0.00656,-0.0444
4.363,-0.05478,-0.10986,0.04593,-0.02319,-0.03342,-0.04471,-0.03998,-0.00122,-0.00443,-0.02304,0.07401,-0.05219,-0.03082,-0.01785,0.00687,-0.04379
4.3635,-0.05981,-0.06134,-0.06134,0.04028,-0.03357,-0.04501,-0.02151,-0.00275,0.00183,-0.03296,0.09659,-0.08759,-0.03098,-0.01801,0.00824,-0.04211
4.364,-0.06683,-0.00229,-0.1944,0.04318,-0.0322,-0.04074,-0.00595,-0.0032,0.00931,-0.02853,0.12695,-0.10345,-0.03113,-0.01846,0.00778,-0.04044
4.3645,-0.06805,0.04639,-0.33707,-0.01251,-0.03113,-0.03571,-0.00244,-0.00153,0.01541,-0.01297,0.17044,-0.07568,-0.03204,-0.01846,0.00702,-0.03952
4.365,-0.05386,0.06622,-0.46555,-0.07309,-0.03006,-0.0351,-0.00748,-0.00046,0.01648,0.00504,0.22537,-0.01801,-0.03265,-0.01923,0.00595,-0.03983
4.3655,-0.02457,0.06042,-0.52948,-0.10986,-0.03098,-0.03845,-0.01266,-0.00198,0.01282,0.01709,0.2623,0.03326,-0.03281,-0.01984,0.00565,-0.0412
4.366,0.0058,0.04349,-0.47134,-0.13123,-0.03159,-0.04211,-0.01419,-0.00504,0.0061,0.01877,0.24033,0.0473,-0.03281,-0.01801,0.0058,-0.04196
4.3665,0.02808,0.02502,-0.29572,-0.13947,-0.03311,-0.04211,-0.0148,-0.00702,-0.00183,0.01343,0.15518,0.03479,-0.03235,-0.0148,0.00641,-0.04181
4.367,0.04135,0.00122,-0.09415,-0.12711,-0.03296,-0.04211,-0.01556,-0.00549,-0.00916,0.00885,0.04684,0.02808,-0.03189,-0.01266,0.0087,-0.04059
4.3675,0.04944,-0.02838,0.0354,-0.10284,-0.03372,-0.04318,-0.01648,-0.00168,-0.01312,0.00443,-0.04288,0.03448,-0.03281,-0.01251,0.01099,-0.03906
4.368,0.04807,-0.05417,0.07324,-0.07141,-0.03265,-0.04578,-0.01526,0.0032,-0.01358,0.0029,-0.09979,0.03021,-0.03387,-0.01221,0.01053,-0.03891
4.3685,0.03571,-0.06531,0.05798,-0.00641,-0.03174,-0.04715,-0.01114,0.00671,-0.01312,0.00183,-0.11597,-0.00259,-0.0354,-0.01114,0.00809,-0.03784
4.369,0.02518,-0.06287,0.02213,0.13794,-0.03265,-0.04654,-0.01053,0.00793,-0.01541,0.00168,-0.08194,-0.05096,-0.03723,-0.00992,0.00458,-0.03845
4.3695,0.02823,-0.05569,-0.02243,0.35187,-0.03448,-0.04623,-0.00946,0.00793,-0.02197,0.00031,-0.00946,-0.0769,-0.03815,-0.01038,0.00229,-0.04013
4.37,0.04166,-0.05341,-0.06485,0.52719,-0.03281,-0.04913,-0.00702,0.00854,-0.03067,-0.00092,0.05005,-0.06302,-0.03754,-0.01068,0.00259,-0.04135
4.3705,0.05569,-0.05615,-0.09094,0.54108,-0.03021,-0.05417,-0.00519,0.00916,-0.0415,-0.01007,0.04898,-0.03632,-0.03647,-0.01038,0.00595,-0.04105
4.371,0.06439,-0.05417,-0.09415,0.38773,-0.02686,-0.05569,-0.00656,0.00839,-0.05341,-0.02838,-0.01434,-0.03098,-0.03647,-0.0119,0.009,-0.04044
4.3715,0.06607,-0.04623,-0.08102,0.18158,-0.02548,-0.0531,-0.00916,0.00565,-0.06409,-0.05203,-0.10025,-0.04272,-0.03662,-0.01511,0.01221,-0.03952
4.372,0.06302,-0.03891,-0.05829,0.0441,-0.02472,-0.0502,-0.01175,0.00153,-0.07339,-0.07416,-0.16479,-0.03265,-0.03723,-0.01907,0.01312,-0.03845
4.3725,0.05585,-0.04257,-0.02975,0.00656,-0.02457,-0.0499,-0.0119,-0.00229,-0.07813,-0.09171,-0.18768,0.01785,-0.03693,-0.02045,0.01053,-0.03922
4.373,0.04074,-0.06378,-0.00443,0.00519,-0.02548,-0.05234,-0.01282,-0.0058,-0.07568,-0.10406,-0.17288,0.09552,-0.03632,-0.01877,0.01053,-0.03922
4.3735,0.01724,-0.09933,0.0119,-0.04272,-0.02701,-0.05539,-0.01587,-0.009,-0.06622,-0.11017,-0.13504,0.1564,-0.03601,-0.01602,0.01144,-0.03967
4.374,-0.00793,-0.13229,0.0177,-0.13901,-0.02914,-0.05524,-0.02029,-0.01266,-0.05203,-0.10483,-0.09094,0.15762,-0.03494,-0.01419,0.01175,-0.03952
4.3745,-0.01892,-0.14099,0.01801,-0.21698,-0.03036,-0.05249,-0.02228,-0.01556,-0.0351,-0.08804,-0.04333,0.10605,-0.03357,-0.01373,0.009,-0.0412
4.375,-0.01175,-0.1239,0.00778,-0.24536,-0.03113,-0.0473,-0.02045,-0.01617,-0.01312,-0.06638,0.02182,0.04135,-0.03159,-0.01358,0.00641,-0.04318
4.3755,-0.00015,-0.09613,-0.02823,-0.2478,-0.03128,-0.04089,-0.01511,-0.01648,0.01358,-0.04761,0.11063,-0.02213,-0.03082,-0.01602,0.00366,-0.04669
4.376,0.00153,-0.07019,-0.09872,-0.23956,-0.03128,-0.03632,-0.01053,-0.01434,0.0354,-0.03235,0.19226,-0.10391,-0.03174,-0.01968,0.00214,-0.04883
4.3765,-0.00916,-0.04807,-0.16342,-0.20691,-0.03204,-0.03632,-0.01236,-0.01297,0.04333,-0.02045,0.21622,-0.19455,-0.03555,-0.02319,0.00122,-0.04868
4.377,-0.02182,-0.02838,-0.16052,-0.15335,-0.03235,-0.03876,-0.02213,-0.0119,0.03571,-0.0119,0.15808,-0.23438,-0.03738,-0.02518,0.00137,-0.047
4.3775,-0.02167,-0.0116,-0.07431,-0.10544,-0.03448,-0.04074,-0.03235,-0.01129,0.02014,-0.00931,0.0444,-0.18051,-0.0386,-0.02548,0.00412,-0.04593
4.378,0.00046,0.00183,0.03891,-0.08041,-0.03632,-0.04257,-0.03418,-0.01038,0.00702,-0.01312,-0.0737,-0.0592,-0.03983,-0.02533,0.00671,-0.04608
4.3785,0.0351,0.01068,0.10559,-0.08057,-0.03616,-0.04501,-0.0264,-0.01175,-0.00183,-0.02304,-0.14969,0.06088,-0.0412,-0.02563,0.00854,-0.04654
4.379,0.05997,0.00885,0.10529,-0.09918,-0.03403,-0.04929,-0.01648,-0.01358,-0.00793,-0.03479,-0.15945,0.12375,-0.03998,-0.02731,0.00854,-0.04654
4.3795,0.0647,-0.00168,0.065,-0.12115,-0.03311,-0.05157,-0.01266,-0.01587,-0.01389,-0.04547,-0.11108,0.10788,-0.03815,-0.02808,0.01022,-0.04379
4.38,0.05829,-0.00702,0.00839,-0.12665,-0.03433,-0.0499,-0.01358,-0.01434,-0.01877,-0.05157,-0.04166,0.0441,-0.03693,-0.02716,0.01266,-0.03937
4.3805,0.0563,0.00168,-0.05005,-0.10681,-0.03632,-0.04486,-0.01495,-0.01007,-0.02228,-0.05783,0.01694,0.0,-0.03647,-0.02457,0.01404,-0.03662
4.381,0.05859,0.01465,-0.10498,-0.05051,-0.03555,-0.0383,-0.01526,-0.00458,-0.02426,-0.06195,0.05249,0.01633,-0.03662,-0.02228,0.01282,-0.03723
4.3815,0.05127,0.01511,-0.14633,0.04227,-0.03448,-0.0354,-0.01343,-0.00061,-0.03372,-0.06058,0.06348,0.05829,-0.03616,-0.02426,0.00961,-0.03906
4.382,0.02899,0.00153,-0.17136,0.11673,-0.03143,-0.03677,-0.01282,0.00168,-0.05356,-0.04791,0.04364,0.05783,-0.0351,-0.02701,0.00824,-0.03967
4.3825,-0.00366,-0.01556,-0.1709,0.10513,-0.03067,-0.0415,-0.01312,0.00137,-0.06927,-0.02945,-0.00809,-0.00229,-0.03464,-0.02823,0.00961,-0.03998
4.383,-0.04089,-0.03571,-0.13367,0.02563,-0.03128,-0.04669,-0.01297,-0.00031,-0.06287,-0.01282,-0.08072,-0.06607,-0.03479,-0.02579,0.00824,-0.04059
4.3835,-0.07736,-0.06134,-0.06653,-0.02502,-0.03296,-0.04791,-0.01358,-0.00275,-0.04028,-0.00565,-0.14572,-0.08408,-0.03555,-0.02274,0.00626,-0.04272
4.384,-0.10178,-0.08423,-0.00061,-0.00809,-0.03281,-0.04501,-0.01282,-0.00259,-0.02609,-0.00565,-0.18295,-0.06409,-0.0351,-0.02213,0.00488,-0.04349
4.3845,-0.10651,-0.09003,0.04059,0.01099,-0.0325,-0.04166,-0.01221,-0.00153,-0.03082,-0.01038,-0.18433,-0.0441,-0.03479,-0.0238,0.00488,-0.04242
4.385,-0.0943,-0.08301,0.05814,-0.02563,-0.0322,-0.03967,-0.01129,0.0,-0.03983,-0.01602,-0.15823,-0.03143,-0.03479,-0.02472,0.00626,-0.0415
4.3855,-0.08026,-0.08469,0.06958,-0.0856,-0.03387,-0.03952,-0.01038,0.00107,-0.03525,-0.02014,-0.11551,-0.01144,-0.03342,-0.02304,0.00839,-0.04059
4.386,-0.06882,-0.11398,0.07736,-0.10345,-0.03387,-0.0412,-0.01068,0.00229,-0.01511,-0.02029,-0.06638,0.02289,-0.0322,-0.02121,0.01022,-0.03906
4.3865,-0.05325,-0.17197,0.07095,-0.07294,-0.03342,-0.04471,-0.01236,0.00366,0.00931,-0.01694,-0.009,0.05096,-0.03128,-0.01938,0.01083,-0.03769
4.387,-0.03326,-0.23315,0.03967,-0.0322,-0.03311,-0.05173,-0.01282,0.0032,0.02792,-0.00961,0.06134,0.04135,-0.02869,-0.01678,0.01022,-0.03754
4.3875,-0.01862,-0.26459,-0.0177,0.00137,-0.03494,-0.06149,-0.01144,0.00168,0.03403,0.00275,0.12329,-0.02258,-0.02487,-0.01205,0.00916,-0.03906
4.388,-0.01953,-0.24857,-0.1004,0.03479,-0.03571,-0.06927,-0.01038,0.00031,0.02792,0.0174,0.13351,-0.11368,-0.02228,-0.00763,0.00687,-0.04227
4.3885,-0.03204,-0.19608,-0.19302,0.05707,-0.03372,-0.07156,-0.00885,0.00031,0.01495,0.0264,0.07172,-0.17334,-0.02228,-0.00626,0.00458,-0.04669
4.389,-0.0444,-0.13,-0.26718,0.05539,-0.03067,-0.06866,-0.00839,0.00061,0.00229,0.02182,-0.03403,-0.159,-0.02472,-0.00778,0.0032,-0.04776
4.3895,-0.04272,-0.0647,-0.28305,0.04227,-0.02884,-0.06592,-0.00732,0.0,0.00031,0.00671,-0.13489,-0.07187,-0.02533,-0.00992,0.00427,-0.04562
4.39,-0.02502,-0.00549,-0.23026,0.0415,-0.02777,-0.06485,-0.0058,-0.00137,0.01297,-0.00702,-0.19547,0.05554,-0.02335,-0.01068,0.00717,-0.0412
4.3905,-0.0029,0.03937,-0.1355,0.0499,-0.02762,-0.06332,-0.00549,-0.00198,0.0296,-0.01587,-0.20386,0.16418,-0.02075,-0.01053,0.01114,-0.0383
4.391,0.01282,0.06149,-0.04044,0.05005,-0.02701,-0.05875,-0.01038,-0.00092,0.03632,-0.0174,-0.16159,0.20355,-0.02075,-0.00992,0.01129,-0.03952
4.3915,0.02213,0.06271,0.03021,0.05493,-0.02609,-0.0531,-0.01953,-0.00122,0.03311,-0.0174,-0.08713,0.17609,-0.02319,-0.01007,0.00946,-0.04333
4.392,0.02869,0.05569,0.07278,0.07706,-0.0264,-0.04883,-0.02731,-0.0032,0.03372,-0.01724,-0.01419,0.13062,-0.02487,-0.01266,0.00763,-0.04562
4.3925,0.02945,0.04959,0.09277,0.07767,-0.02899,-0.04623,-0.02716,-0.00351,0.04272,-0.02258,0.02731,0.09766,-0.0264,-0.01755,0.00687,-0.0441
4.393,0.02151,0.04517,0.08972,0.02014,-0.03021,-0.04593,-0.02014,-0.00092,0.04913,-0.03281,0.02991,0.07217,-0.02747,-0.02106,0.00778,-0.04166
4.3935,0.01083,0.03967,0.06271,-0.05173,-0.03098,-0.04623,-0.01328,0.00107,0.04028,-0.04822,0.00916,0.04272,-0.02853,-0.02045,0.00961,-0.04013
4.394,0.0087,0.03433,0.01938,-0.06683,-0.03098,-0.04639,-0.01282,-0.00046,0.02136,-0.06287,0.00305,0.01129,-0.02945,-0.01923,0.01053,-0.04135
4.3945,0.02518,0.03052,-0.02319,-0.03601,-0.03082,-0.04486,-0.01526,-0.00305,0.00198,-0.07416,0.04349,-0.02548,-0.03036,-0.02045,0.01038,-0.04211
4.395,0.05249,0.02182,-0.047,-0.04044,-0.0293,-0.04181,-0.01709,-0.00412,-0.01968,-0.08453,0.11795,-0.07355,-0.03113,-0.02396,0.00885,-0.04288
4.3955,0.07141,-0.00153,-0.05157,-0.10056,-0.02884,-0.03845,-0.0148,-0.00534,-0.05249,-0.08972,0.16403,-0.1329,-0.0322,-0.0267,0.00732,-0.04105
4.396,0.06866,-0.03525,-0.04486,-0.14175,-0.02899,-0.03784,-0.01038,-0.00626,-0.08804,-0.08606,0.13107,-0.18234,-0.03296,-0.02731,0.00687,-0.0383
4.3965,0.05188,-0.05936,-0.03357,-0.10574,-0.03036,-0.04059,-0.00641,-0.00458,-0.10437,-0.07278,0.03998,-0.19897,-0.0325,-0.02609,0.00824,-0.0351
4.397,0.03601,-0.06104,-0.02472,-0.00504,-0.03159,-0.04501,-0.0058,-0.00107,-0.09705,-0.06058,-0.04181,-0.16739,-0.03052,-0.02457,0.01053,-0.03403
4.3975,0.02716,-0.04684,-0.03174,0.12939,-0.03189,-0.04684,-0.00824,0.00122,-0.08774,-0.05341,-0.07065,-0.08667,-0.02838,-0.02289,0.01419,-0.03357
4.398,0.02151,-0.03983,-0.08011,0.26993,-0.03281,-0.04471,-0.01099,0.00153,-0.09018,-0.03876,-0.05569,0.02502,-0.02625,-0.02121,0.01511,-0.03387
4.3985,0.01099,-0.05692,-0.17242,0.35568,-0.03189,-0.04181,-0.01068,0.00061,-0.09354,-0.00427,-0.02182,0.11307,-0.02594,-0.01938,0.01297,-0.03571
4.399,-0.01373,-0.09201,-0.25665,0.32364,-0.03052,-0.0412,-0.00916,-0.00015,-0.08469,0.04028,0.01968,0.12482,-0.02625,-0.01709,0.00916,-0.03967
4.3995,-0.04745,-0.11703,-0.26031,0.2005,-0.02899,-0.04395,-0.00885,-0.00092,-0.06439,0.07996,0.06256,0.07156,-0.02731,-0.01434,0.00702,-0.04288
4.4,-0.07278,-0.10864,-0.1651,0.08926,-0.02731,-0.047,-0.009,-0.00107,-0.04059,0.10971,0.0943,0.01862,-0.02869,-0.01236,0.00717,-0.04303
4.4005,-0.08163,-0.06882,-0.02502,0.05722,-0.02655,-0.04944,-0.00946,-0.00137,-0.02197,0.13245,0.10513,-0.00412,-0.02884,-0.01114,0.009,-0.04074
4.401,-0.0798,-0.01572,0.08636,0.0766,-0.02655,-0.0502,-0.01022,-0.00076,-0.0148,0.14435,0.09201,-0.02914,-0.02884,-0.01007,0.01175,-0.03891
4.4015,-0.07507,0.03143,0.13199,0.07919,-0.0264,-0.04822,-0.01114,0.00031,-0.01968,0.13626,0.05234,-0.07034,-0.02914,-0.00931,0.01358,-0.03937
4.402,-0.06683,0.06165,0.11414,0.02533,-0.02625,-0.04303,-0.01175,0.0032,-0.02625,0.11032,-0.00458,-0.08011,-0.03082,-0.00977,0.01511,-0.04166
4.4025,-0.06027,0.07324,0.06241,-0.0679,-0.02655,-0.03601,-0.01175,0.00626,-0.02487,0.08484,-0.05234,-0.02182,-0.03235,-0.01038,0.01587,-0.04395
4.403,-0.0647,0.07111,0.00565,-0.1532,-0.02747,-0.03113,-0.01083,0.00931,-0.01877,0.07065,-0.07126,0.06531,-0.03326,-0.01007,0.01434,-0.0444
4.4035,-0.0795,0.05844,-0.0415,-0.19974,-0.02991,-0.03281,-0.00946,0.00763,-0.0177,0.06104,-0.06714,0.11673,-0.03342,-0.01068,0.01266,-0.04517
4.404,-0.0885,0.03983,-0.07492,-0.22308,-0.03326,-0.03922,-0.00977,0.0029,-0.02029,0.04257,-0.06287,0.10559,-0.03326,-0.01205,0.00946,-0.047
4.4045,-0.08102,0.02243,-0.08362,-0.22644,-0.03769,-0.0499,-0.01144,-0.00229,-0.01617,0.01328,-0.06561,0.04333,-0.03235,-0.01556,0.00656,-0.05005
4.405,-0.06592,0.00671,-0.06195,-0.1506,-0.04089,-0.0621,-0.0145,-0.00458,0.00244,-0.01282,-0.06546,-0.03082,-0.03296,-0.01846,0.00443,-0.05325
4.4055,-0.0531,-0.00916,-0.02319,0.03067,-0.04074,-0.0708,-0.01694,-0.00519,0.02701,-0.0238,-0.05676,-0.05264,-0.03387,-0.01877,0.00259,-0.05432
4.406,-0.03891,-0.02655,-0.00076,0.19165,-0.03922,-0.07172,-0.01709,-0.00671,0.03891,-0.02182,-0.04807,0.0061,-0.03342,-0.01648,0.00336,-0.05127
4.4065,-0.01785,-0.04379,-0.00122,0.19714,-0.03891,-0.06363,-0.01709,-0.00854,0.03082,-0.02502,-0.04257,0.1001,-0.03326,-0.01511,0.0061,-0.047
4.407,0.00412,-0.05814,0.00244,0.10162,-0.04013,-0.0499,-0.01648,-0.00793,0.01556,-0.04211,-0.03006,0.16769,-0.03387,-0.01648,0.009,-0.04425
4.4075,0.01709,-0.06882,0.03189,0.05127,-0.04135,-0.0383,-0.01572,-0.00488,0.00778,-0.0705,0.00427,0.18509,-0.03555,-0.01816,0.00992,-0.0444
4.408,0.02274,-0.07645,0.0708,0.06134,-0.04028,-0.03403,-0.01633,-0.00412,0.00778,-0.09857,0.05524,0.15717,-0.03555,-0.01953,0.009,-0.04456
4.4085,0.03448,-0.07843,0.0824,0.0383,-0.03708,-0.03754,-0.01816,-0.00763,0.00305,-0.12009,0.09506,0.09766,-0.03387,-0.02045,0.00809,-0.04333
4.409,0.05798,-0.07767,0.04089,-0.05646,-0.03387,-0.04379,-0.02014,-0.01236,-0.01038,-0.14374,0.09308,0.04349,-0.03342,-0.02304,0.00687,-0.04272
4.4095,0.08224,-0.08316,-0.03784,-0.16342,-0.03189,-0.04639,-0.02014,-0.01373,-0.02777,-0.17792,0.04395,0.03082,-0.03403,-0.02701,0.00549,-0.04395
4.41,0.09125,-0.10315,-0.09583,-0.22171,-0.03143,-0.04456,-0.01785,-0.01236,-0.0473,-0.21881,-0.03265,0.05676,-0.03494,-0.02838,0.00549,-0.04532
4.4105,0.08118,-0.12329,-0.07462,-0.24033,-0.03143,-0.04196,-0.01556,-0.00977,-0.06378,-0.25177,-0.1091,0.08896,-0.03448,-0.02777,0.00626,-0.04593
4.411,0.06271,-0.112,0.00824,-0.25101,-0.03342,-0.03998,-0.01404,-0.00595,-0.06271,-0.26733,-0.16296,0.09293,-0.03265,-0.02625,0.00778,-0.04364
4.4115,0.04303,-0.06332,0.08179,-0.22903,-0.03433,-0.03952,-0.01389,-0.00244,-0.03769,-0.26428,-0.18646,0.05692,-0.03189,-0.02472,0.00854,-0.0415
4.412,0.02289,-0.0174,0.10574,-0.12726,-0.03555,-0.03891,-0.01358,-0.00107,-0.00473,-0.24918,-0.18326,-0.00336,-0.03189,-0.02319,0.00824,-0.03952
4.4125,0.00107,-0.01053,0.1149,0.00732,-0.03616,-0.03952,-0.01434,-0.00153,0.00961,-0.22461,-0.15991,-0.05127,-0.03342,-0.02258,0.00839,-0.0383
4.413,-0.02319,-0.02991,0.14709,0.06454,-0.03632,-0.04364,-0.01526,-0.00351,0.00061,-0.18738,-0.11932,-0.06027,-0.03479,-0.02319,0.00977,-0.03784
4.4135,-0.05264,-0.03586,0.18234,0.02197,-0.03616,-0.05402,-0.01633,-0.0061,-0.01801,-0.13809,-0.07156,-0.04593,-0.03555,-0.02457,0.01083,-0.03922
4.414,-0.08499,-0.02533,0.18661,-0.02686,-0.03342,-0.07156,-0.0174,-0.00763,-0.03143,-0.07797,-0.03418,-0.04425,-0.03448,-0.02487,0.00961,-0.04105
4.4145,-0.10666,-0.02975,0.1622,-0.01862,-0.03311,-0.09445,-0.01968,-0.00885,-0.03571,-0.01663,-0.01434,-0.0563,-0.03265,-0.02274,0.0087,-0.04196
4.415,-0.10361,-0.06165,0.13412,0.00824,-0.03571,-0.11032,-0.0206,-0.00961,-0.03235,0.03677,-0.0029,-0.04807,-0.0296,-0.01968,0.00931,-0.04089
4.4155,-0.07492,-0.09842,0.09842,-0.00214,-0.03906,-0.10895,-0.01984,-0.01007,-0.02243,0.08011,0.01068,-0.00687,-0.02731,-0.01663,0.00931,-0.03906
4.416,-0.03159,-0.11337,0.03311,-0.04166,-0.03983,-0.09171,-0.01755,-0.00809,-0.00854,0.11902,0.02563,0.03845,-0.0267,-0.01495,0.00839,-0.03754
4.4165,0.00198,-0.10178,-0.06775,-0.0708,-0.03738,-0.06958,-0.01511,-0.00458,-0.00214,0.15793,0.03342,0.05005,-0.02609,-0.01434,0.00748,-0.03632
4.417,0.009,-0.07614,-0.17548,-0.08163,-0.03326,-0.05463,-0.01465,-0.0032,-0.01053,0.19073,0.02869,0.00977,-0.02533,-0.01419,0.00839,-0.03387
4.4175,-0.00763,-0.04807,-0.24414,-0.10773,-0.03143,-0.04669,-0.01434,-0.00488,-0.02716,0.21317,0.01205,-0.05447,-0.02518,-0.01358,0.01022,-0.03174
4.418,-0.02441,-0.02655,-0.25558,-0.16495,-0.03128,-0.04456,-0.01205,-0.00656,-0.03403,0.22354,-0.00748,-0.09399,-0.02533,-0.01358,0.01099,-0.03113
4.4185,-0.01877,-0.01587,-0.2301,-0.22568,-0.0325,-0.0444,-0.00977,-0.00641,-0.02396,0.22797,-0.01526,-0.08621,-0.02823,-0.01343,0.01205,-0.03281
4.419,0.00992,-0.01801,-0.20203,-0.24063,-0.0322,-0.04242,-0.01068,-0.00397,-0.01022,0.22629,-0.00305,-0.05478,-0.03098,-0.01358,0.01251,-0.03448
4.4195,0.03922,-0.03143,-0.18829,-0.18951,-0.03082,-0.03876,-0.01328,-0.00153,-0.00793,0.21835,0.02319,-0.03662,-0.03326,-0.01404,0.01312,-0.03601
4.42,0.04761,-0.05173,-0.18219,-0.10513,-0.02823,-0.03418,-0.01358,-0.00076,-0.01236,0.20447,0.04898,-0.03555,-0.03357,-0.01495,0.0116,-0.03876
4.4205,0.03387,-0.07187,-0.17136,-0.03525,-0.02609,-0.03098,-0.01221,0.00031,-0.01434,0.18616,0.0621,-0.02579,-0.0351,-0.01678,0.009,-0.04257
4.421,0.01877,-0.0853,-0.15182,-0.00076,-0.02579,-0.02762,-0.01236,0.00137,-0.01465,0.1593,0.06226,0.00259,-0.03647,-0.01755,0.00687,-0.04517
4.4215,0.02289,-0.08911,-0.13123,0.01297,-0.02579,-0.02609,-0.01389,0.00046,-0.02701,0.12268,0.04761,0.02655,-0.03769,-0.01709,0.0058,-0.04532
4.422,0.04807,-0.08438,-0.11673,0.03448,-0.02625,-0.02762,-0.01495,-0.00076,-0.04852,0.08209,0.02197,0.02716,-0.03738,-0.01724,0.00381,-0.0441
4.4225,0.07736,-0.07614,-0.12375,0.06668,-0.02563,-0.0325,-0.01389,-0.00168,-0.05783,0.04593,-0.00488,0.01404,-0.03922,-0.01709,0.0029,-0.04395
4.423,0.0975,-0.06577,-0.16846,0.10712,-0.02533,-0.03601,-0.01144,-0.00076,-0.04105,0.01938,-0.0206,0.00549,-0.04166,-0.01755,0.00137,-0.04501
4.4235,0.11353,-0.05234,-0.2417,0.16296,-0.02441,-0.03571,-0.01129,-0.00107,-0.00748,0.00229,-0.02304,0.00229,-0.04364,-0.01862,0.00122,-0.04532
4.424,0.13275,-0.03754,-0.27893,0.21408,-0.02731,-0.03464,-0.01312,-0.0029,0.02197,-0.0087,-0.01785,0.0,-0.04242,-0.01938,0.00427,-0.04486
4.4245,0.15579,-0.02197,-0.20569,0.20706,-0.03082,-0.0383,-0.01465,-0.00443,0.03891,-0.01556,-0.01266,-0.00122,-0.04013,-0.01999,0.00656,-0.04257
4.425,0.17532,-0.00458,-0.03098,0.1326,-0.03433,-0.04333,-0.01434,-0.00519,0.0441,-0.01801,-0.01434,0.00046,-0.03754,-0.01984,0.009,-0.04013
4.4255,0.18036,0.0145,0.15259,0.04959,-0.03677,-0.04486,-0.01343,-0.00412,0.04044,-0.01907,-0.0148,0.00732,-0.03754,-0.02029,0.00931,-0.03937
4.426,0.15762,0.03052,0.25604,0.00031,-0.03632,-0.04181,-0.01266,-0.00229,0.03098,-0.02121,0.01083,0.01877,-0.03967,-0.02167,0.0061,-0.04044
4.4265,0.10712,0.03281,0.26703,-0.03586,-0.03555,-0.03769,-0.01099,-0.00046,0.02045,-0.03357,0.08148,0.03143,-0.04166,-0.02319,0.00275,-0.04227
4.427,0.05005,0.02167,0.20859,-0.07492,-0.03433,-0.03571,-0.01068,-0.00061,0.0145,-0.0621,0.16983,0.03464,-0.04089,-0.02167,0.00122,-0.04379
4.4275,0.00275,0.01022,0.09705,-0.08591,-0.03326,-0.03555,-0.01251,-0.00305,0.00961,-0.10376,0.21362,0.02136,-0.03845,-0.01938,0.00336,-0.04562
4.428,-0.03784,0.01801,-0.05066,-0.04562,-0.03143,-0.03479,-0.01526,-0.00443,0.00351,-0.14786,0.17654,0.00092,-0.03723,-0.01923,0.00565,-0.04517
4.4285,-0.08041,0.04501,-0.16495,0.02228,-0.03036,-0.03174,-0.01633,-0.00412,-0.00458,-0.17868,0.07217,-0.0177,-0.03723,-0.02151,0.00748,-0.04272
4.429,-0.11795,0.05478,-0.16312,0.09094,-0.03098,-0.02945,-0.01633,-0.00351,-0.01144,-0.18753,-0.05539,-0.047,-0.03769,-0.02457,0.00931,-0.04059
4.4295,-0.13702,0.02151,-0.04425,0.1535,-0.03189,-0.03159,-0.0148,-0.00244,-0.0148,-0.17868,-0.16586,-0.09216,-0.03632,-0.02548,0.01099,-0.03937
4.43,-0.13565,-0.03036,0.09232,0.2002,-0.03235,-0.03952,-0.01328,-0.00137,-0.01526,-0.16113,-0.22964,-0.13214,-0.03479,-0.02335,0.01266,-0.03952
4.4305,-0.12207,-0.05966,0.15015,0.21973,-0.03174,-0.04929,-0.01221,0.00031,-0.01785,-0.13885,-0.23575,-0.14084,-0.03342,-0.02075,0.01251,-0.04044
4.431,-0.09781,-0.05707,0.12695,0.22354,-0.03128,-0.056,-0.01175,0.00198,-0.02472,-0.11032,-0.19058,-0.11948,-0.03189,-0.01831,0.01114,-0.0415
4.4315,-0.06027,-0.04272,0.08713,0.22247,-0.03128,-0.05386,-0.01221,0.00412,-0.02823,-0.07675,-0.1091,-0.08667,-0.03113,-0.01724,0.00992,-0.04181
4.432,-0.01343,-0.02853,0.07126,0.19135,-0.0325,-0.04379,-0.01144,0.00458,-0.02289,-0.04578,-0.00351,-0.05051,-0.02991,-0.01801,0.01038,-0.04272
4.4325,0.0267,-0.01221,0.07401,0.10254,-0.03387,-0.03036,-0.0116,0.00443,-0.0177,-0.02289,0.1033,-0.00977,-0.03021,-0.01999,0.01038,-0.04364
4.433,0.0499,0.00031,0.07431,-0.01678,-0.03494,-0.02274,-0.01251,0.00305,-0.02563,-0.01221,0.17715,0.02502,-0.03143,-0.02045,0.00885,-0.04456
4.4335,0.06134,0.00198,0.06134,-0.09827,-0.0351,-0.02396,-0.01343,0.00076,-0.04181,-0.01831,0.1915,0.03784,-0.03342,-0.01862,0.00763,-0.04395
4.434,0.06516,-0.00397,0.03326,-0.09521,-0.03326,-0.03159,-0.01419,-0.00122,-0.04974,-0.04074,0.15457,0.02747,-0.03448,-0.01587,0.00671,-0.04471
4.4345,0.05203,-0.0119,-0.00366,-0.01999,-0.03067,-0.04486,-0.01419,-0.00229,-0.04288,-0.06271,0.11246,0.01251,-0.03525,-0.01495,0.00732,-0.04532
4.435,0.01617,-0.02884,-0.0386,0.06668,-0.02975,-0.06485,-0.01434,-0.00336,-0.02533,-0.06836,0.1062,0.01373,-0.0354,-0.01633,0.00885,-0.04562
4.4355,-0.03052,-0.05737,-0.06485,0.10315,-0.03098,-0.08911,-0.01389,-0.00473,-0.00824,-0.05692,0.1152,0.03143,-0.03616,-0.01816,0.00824,-0.04501
4.436,-0.07278,-0.08728,-0.08896,0.07309,-0.03159,-0.11032,-0.01373,-0.00671,-0.00381,-0.03632,0.08682,0.04623,-0.03601,-0.01999,0.00778,-0.04272
4.4365,-0.10742,-0.10498,-0.12024,0.00977,-0.03143,-0.11734,-0.01404,-0.00809,-0.01526,-0.0174,0.00626,0.0412,-0.03387,-0.02151,0.0087,-0.04211
4.437,-0.13947,-0.10849,-0.15915,-0.04974,-0.03098,-0.10574,-0.0148,-0.00641,-0.0322,-0.00641,-0.08377,0.01556,-0.03098,-0.02365,0.00931,-0.0444
4.4375,-0.17639,-0.10941,-0.20325,-0.11154,-0.02975,-0.08331,-0.01511,-0.0032,-0.04013,-0.00534,-0.13962,-0.0148,-0.03067,-0.02502,0.00992,-0.04532
4.438,-0.21179,-0.12146,-0.25146,-0.19958,-0.02823,-0.0647,-0.0145,0.0,-0.03281,-0.00427,-0.15182,-0.04059,-0.0322,-0.02396,0.00961,-0.04379
4.4385,-0.21851,-0.14755,-0.29922,-0.29846,-0.02609,-0.05615,-0.0119,0.00107,-0.01831,0.00748,-0.13321,-0.06256,-0.03372,-0.02243,0.00946,-0.0412
4.439,-0.17258,-0.17426,-0.31326,-0.36407,-0.02472,-0.05463,-0.01083,-0.00031,-0.00443,0.0267,-0.09842,-0.08209,-0.03418,-0.02121,0.01022,-0.03952
4.4395,-0.09033,-0.18021,-0.25879,-0.37567,-0.02655,-0.05478,-0.01221,-0.00244,0.00854,0.04257,-0.05569,-0.09033,-0.03479,-0.02243,0.01007,-0.03952
4.44,-0.01511,-0.15533,-0.1474,-0.3215,-0.02884,-0.05753,-0.01495,-0.00366,0.01709,0.04623,-0.00992,-0.06439,-0.03555,-0.02457,0.01022,-0.03967
4.4405,0.03311,-0.11292,-0.03021,-0.16922,-0.02838,-0.06378,-0.01511,-0.00366,0.01343,0.04059,0.02335,0.01465,-0.03601,-0.0264,0.01038,-0.03876
4.441,0.06592,-0.07004,0.05219,0.04745,-0.02548,-0.06653,-0.01251,-0.00336,-0.00183,0.0296,0.01373,0.12344,-0.03387,-0.02457,0.01099,-0.03723
4.4415,0.08743,-0.03387,0.09277,0.17426,-0.02182,-0.06027,-0.01022,-0.00275,-0.01587,0.01221,-0.05554,0.19333,-0.03098,-0.02136,0.01068,-0.03647
4.442,0.08453,-0.00732,0.08362,0.11429,-0.02197,-0.04868,-0.00992,-0.00198,-0.01587,-0.00839,-0.15915,0.17242,-0.02838,-0.01755,0.01007,-0.03769
4.4425,0.05951,0.00275,0.01144,-0.0293,-0.02426,-0.03952,-0.01083,-0.00061,-0.00702,-0.02228,-0.24872,0.0824,-0.02762,-0.01221,0.0087,-0.0386
4.443,0.03143,-0.00137,-0.0975,-0.09323,-0.02609,-0.03479,-0.01236,-0.00031,-0.00015,-0.02182,-0.28961,-0.00214,-0.02777,-0.00809,0.00702,-0.04074
4.4435,0.01541,-0.00854,-0.17487,-0.06439,-0.02472,-0.03281,-0.01404,-0.00183,0.00336,-0.01022,-0.27618,-0.02884,-0.02991,-0.00854,0.00473,-0.04257
4.444,0.00732,-0.00916,-0.17548,-0.02213,-0.02533,-0.03296,-0.01556,-0.00397,0.01648,0.00443,-0.22018,-0.00687,-0.03113,-0.01175,0.00443,-0.04227
4.4445,-0.00031,-0.00153,-0.11887,0.02777,-0.0267,-0.03693,-0.01663,-0.00687,0.04684,0.01572,-0.14236,0.01907,-0.03265,-0.01556,0.00534,-0.04059
4.445,-0.00732,0.00839,-0.05585,0.10574,-0.02853,-0.04196,-0.01572,-0.00854,0.08179,0.0238,-0.06989,0.02518,-0.03311,-0.01633,0.00488,-0.03967
4.4455,-0.01205,0.01556,-0.02045,0.14877,-0.02975,-0.04486,-0.0148,-0.00946,0.09949,0.03052,-0.01816,0.01556,-0.03265,-0.01389,0.00381,-0.04028
4.446,-0.0145,0.0148,-0.01083,0.09201,-0.03128,-0.0441,-0.01556,-0.01053,0.09033,0.03067,0.01144,0.00336,-0.03174,-0.01312,0.00381,-0.04196
4.4465,-0.01495,0.00412,-0.00748,-0.00046,-0.03296,-0.04501,-0.01862,-0.01114,0.06317,0.01862,0.0238,-0.00885,-0.03021,-0.01541,0.00366,-0.04379
4.447,-0.00534,-0.01343,0.00549,-0.0296,-0.03342,-0.04959,-0.01999,-0.0116,0.02853,-0.01022,0.0264,-0.03036,-0.02884,-0.01785,0.00305,-0.04379
4.4475,0.01801,-0.03128,0.0235,-0.01373,-0.03265,-0.05264,-0.01923,-0.00961,-0.01343,-0.04944,0.0238,-0.0708,-0.02884,-0.01816,0.00305,-0.04242
4.448,0.04532,-0.04456,0.03433,-0.03708,-0.03082,-0.04974,-0.01709,-0.00595,-0.06073,-0.08224,0.01816,-0.12466,-0.02945,-0.01663,0.00504,-0.04105
4.4485,0.06287,-0.05356,0.03922,-0.10406,-0.03098,-0.04272,-0.01495,-0.00259,-0.10178,-0.09857,0.01785,-0.15747,-0.02991,-0.01373,0.00595,-0.04059
4.449,0.06577,-0.05753,0.03723,-0.14557,-0.0325,-0.03906,-0.01419,-0.00183,-0.12268,-0.10376,0.03922,-0.1358,-0.03281,-0.01251,0.0061,-0.04227
4.4495,0.05798,-0.05447,0.02228,-0.1239,-0.03265,-0.03876,-0.0148,-0.0032,-0.12741,-0.10956,0.08194,-0.06195,-0.0354,-0.01266,0.00656,-0.04257
4.45,0.04059,-0.04333,-0.01144,-0.0592,-0.03189,-0.03952,-0.01511,-0.00381,-0.12573,-0.11948,0.12314,0.01984,-0.03525,-0.01358,0.00763,-0.04272
4.4505,0.01633,-0.03479,-0.05188,0.0058,-0.03067,-0.03906,-0.01465,-0.00351,-0.11932,-0.13,0.13474,0.06714,-0.03326,-0.01358,0.00763,-0.04196
4.451,-0.01022,-0.03937,-0.0798,0.03113,-0.03067,-0.03708,-0.01434,-0.0029,-0.10468,-0.14008,0.10925,0.06485,-0.03281,-0.01312,0.00641,-0.04166
4.4515,-0.0351,-0.05386,-0.0914,0.00443,-0.03036,-0.03342,-0.01419,-0.00275,-0.08453,-0.15076,0.05295,0.04364,-0.03281,-0.01389,0.0061,-0.04135
4.452,-0.05493,-0.06531,-0.10132,-0.03967,-0.03098,-0.02914,-0.01358,-0.00412,-0.06317,-0.16159,-0.009,0.05554,-0.0325,-0.01587,0.00793,-0.04196
4.4525,-0.06821,-0.06454,-0.11505,-0.05295,-0.03235,-0.02655,-0.01312,-0.00488,-0.0386,-0.1738,-0.04837,0.11353,-0.03143,-0.01724,0.00931,-0.04333
4.453,-0.07629,-0.05646,-0.11749,-0.03098,-0.03342,-0.02625,-0.01297,-0.00443,-0.00931,-0.18768,-0.04913,0.16388,-0.03098,-0.01755,0.01038,-0.04242
4.4535,-0.07736,-0.05005,-0.09583,-0.00473,-0.03433,-0.02731,-0.01328,-0.00366,0.01984,-0.19638,-0.02182,0.15244,-0.03189,-0.01907,0.01053,-0.04074
4.454,-0.06424,-0.05081,-0.05783,0.01129,-0.03418,-0.03021,-0.01465,-0.00305,0.03601,-0.18433,0.01434,0.0946,-0.03387,-0.02136,0.01068,-0.03952
4.4545,-0.03281,-0.06348,-0.03159,0.03555,-0.03448,-0.03342,-0.01556,-0.00229,0.0351,-0.14297,0.03799,0.0531,-0.03738,-0.02441,0.01099,-0.03983
4.455,0.00641,-0.09933,-0.03815,0.07782,-0.03372,-0.03433,-0.01526,-0.00107,0.02197,-0.07782,0.03342,0.06348,-0.0386,-0.02518,0.01038,-0.0415
4.4555,0.03052,-0.15579,-0.06165,0.11429,-0.03418,-0.03418,-0.01511,-0.00061,0.00519,-0.00412,0.0029,0.09628,-0.03891,-0.02609,0.00977,-0.04288
4.456,0.02792,-0.20782,-0.06165,0.11368,-0.0354,-0.03448,-0.0145,0.00015,-0.00916,0.0647,-0.02716,0.09628,-0.03815,-0.02777,0.00824,-0.0441
4.4565,0.00839,-0.22614,-0.01816,0.0798,-0.03616,-0.03616,-0.01328,0.00092,-0.01801,0.12238,-0.03799,0.02472,-0.03601,-0.0293,0.00687,-0.04395
4.457,-0.01205,-0.20416,0.03906,0.03876,-0.03479,-0.03937,-0.01205,0.00214,-0.01236,0.16678,-0.03418,-0.12619,-0.03326,-0.02838,0.0061,-0.04379
4.4575,-0.02502,-0.16251,0.06607,0.00488,-0.03342,-0.0444,-0.01129,0.00275,0.01129,0.19135,-0.03204,-0.3125,-0.03082,-0.02533,0.00565,-0.04349
4.458,-0.03464,-0.11429,0.05844,-0.04013,-0.03418,-0.04913,-0.0116,0.00549,0.04639,0.19241,-0.03784,-0.42603,-0.02869,-0.02151,0.00809,-0.04089
4.4585,-0.04608,-0.06149,0.05417,-0.10101,-0.03601,-0.05142,-0.01144,0.00763,0.07721,0.17456,-0.04715,-0.36118,-0.02792,-0.01877,0.01251,-0.03769
4.459,-0.05814,-0.00916,0.08484,-0.13138,-0.03738,-0.05173,-0.00961,0.00809,0.08774,0.14786,-0.05356,-0.1149,-0.02731,-0.01678,0.01633,-0.0351
4.4595,-0.06622,0.0325,0.14725,-0.09811,-0.03525,-0.04883,-0.00702,0.0061,0.06805,0.1207,-0.05341,0.17685,-0.02625,-0.0148,0.01724,-0.03448
4.46,-0.06317,0.05371,0.20859,-0.03235,-0.03159,-0.047,-0.00702,0.00397,0.02029,0.0972,-0.04532,0.32898,-0.02579,-0.01328,0.01602,-0.03693
4.4605,-0.05249,0.05463,0.23849,0.02701,-0.0293,-0.04654,-0.01022,0.00397,-0.03601,0.07492,-0.03448,0.26672,-0.02609,-0.01389,0.01495,-0.03922
4.461,-0.04547,0.04303,0.22964,0.08469,-0.02899,-0.04684,-0.01129,0.00534,-0.07111,0.05341,-0.02121,0.09186,-0.02655,-0.01465,0.01495,-0.03998
4.4615,-0.04791,0.02838,0.19424,0.13351,-0.02838,-0.04776,-0.01099,0.00641,-0.07431,0.03174,0.0032,-0.03174,-0.02686,-0.01511,0.01358,-0.04135
4.462,-0.047,0.01389,0.13962,0.1329,-0.02701,-0.04883,-0.01038,0.00595,-0.06592,0.00778,0.04608,-0.04913,-0.02838,-0.01495,0.01129,-0.04288
4.4625,-0.02594,-0.00061,0.06226,0.08133,-0.02808,-0.05249,-0.01221,0.00427,-0.07553,-0.01663,0.09018,-0.02029,-0.02899,-0.01236,0.00961,-0.0441
4.463,0.00854,-0.01129,-0.03815,0.04044,-0.03052,-0.05829,-0.01404,0.00092,-0.11322,-0.04044,0.10696,0.00259,-0.02716,-0.01083,0.01007,-0.04623
4.4635,0.03845,-0.01236,-0.14191,0.04929,-0.03189,-0.06332,-0.01419,-0.00259,-0.15854,-0.06149,0.08667,0.02457,-0.02487,-0.01083,0.00885,-0.04745
4.464,0.05875,-0.00626,-0.22125,0.06287,-0.03052,-0.06546,-0.01389,-0.00488,-0.17319,-0.08011,0.03967,0.04028,-0.0238,-0.01129,0.00793,-0.04684
4.4645,0.0795,-0.01419,-0.24933,0.01785,-0.0293,-0.06195,-0.01404,-0.0058,-0.14099,-0.09613,-0.01984,0.01831,-0.0264,-0.01129,0.00717,-0.04486
4.465,0.10239,-0.04883,-0.21774,-0.07919,-0.02991,-0.05661,-0.0145,-0.0058,-0.08743,-0.10925,-0.07629,-0.04333,-0.02899,-0.01114,0.00687,-0.04379
4.4655,0.11261,-0.08743,-0.14938,-0.1564,-0.03036,-0.05173,-0.01495,-0.00687,-0.05081,-0.12131,-0.10971,-0.09369,-0.03128,-0.01129,0.009,-0.04257
4.466,0.10101,-0.09323,-0.08423,-0.16663,-0.03021,-0.04944,-0.01633,-0.00946,-0.03784,-0.12817,-0.10941,-0.09659,-0.0325,-0.0119,0.01129,-0.0415
4.4665,0.07751,-0.06866,-0.04776,-0.13657,-0.02762,-0.04684,-0.01816,-0.01007,-0.03265,-0.12634,-0.08423,-0.07904,-0.03281,-0.0119,0.01373,-0.04089
4.467,0.05859,-0.04669,-0.03433,-0.11856,-0.0267,-0.03983,-0.01862,-0.01083,-0.02487,-0.1178,-0.05569,-0.08957,-0.03311,-0.01343,0.01358,-0.04074
4.4675,0.05157,-0.03326,-0.03815,-0.12375,-0.02747,-0.02914,-0.0174,-0.01144,-0.01495,-0.112,-0.03418,-0.1297,-0.03357,-0.01587,0.01083,-0.04166
4.468,0.0473,-0.00778,-0.06821,-0.11978,-0.02914,-0.02228,-0.01556,-0.01205,-0.00305,-0.11749,-0.01846,-0.15045,-0.03372,-0.01907,0.00732,-0.04349
4.4685,0.0325,0.03632,-0.12131,-0.09338,-0.02991,-0.02121,-0.01465,-0.01144,0.00702,-0.12161,-0.00809,-0.1004,-0.03296,-0.02106,0.00412,-0.047
4.469,0.01053,0.07843,-0.16388,-0.07324,-0.02945,-0.02563,-0.01556,-0.01007,0.009,-0.10605,-0.00885,0.02289,-0.03128,-0.02106,0.00153,-0.05096
4.4695,0.00259,0.09674,-0.15884,-0.07935,-0.02869,-0.02945,-0.01694,-0.009,-0.00244,-0.06744,-0.02075,0.15869,-0.02945,-0.02106,0.00107,-0.05173
4.47,0.01816,0.0856,-0.11246,-0.0676,-0.02945,-0.03235,-0.01755,-0.00885,-0.01984,-0.0238,-0.03296,0.22781,-0.02914,-0.02136,0.00244,-0.04913
4.4705,0.03937,0.05493,-0.05493,-0.00015,-0.03006,-0.03525,-0.01602,-0.00839,-0.03067,0.00641,-0.03403,0.19653,-0.02975,-0.0238,0.00397,-0.04715
4.471,0.04257,0.02228,-0.00839,0.06836,-0.02899,-0.03723,-0.01358,-0.00687,-0.02808,0.02258,-0.02274,0.11292,-0.03189,-0.02594,0.0032,-0.04761
4.4715,0.02274,0.00412,0.01053,0.0618,-0.02701,-0.03952,-0.01038,-0.00336,-0.01846,0.03632,-0.00336,0.05005,-0.03265,-0.02579,-0.00015,-0.04868
4.472,-0.00656,0.00748,-0.01968,0.00977,-0.02777,-0.04272,-0.00854,-0.00046,-0.01007,0.05814,0.01099,0.02838,-0.03281,-0.02335,-0.00107,-0.04944
4.4725,-0.03799,0.02563,-0.08408,-0.0029,-0.03098,-0.04501,-0.01144,-0.00092,-0.0029,0.08621,0.00381,0.01617,-0.03113,-0.02151,0.00122,-0.05051
4.473,-0.0766,0.04059,-0.12665,0.02686,-0.03265,-0.04532,-0.01663,-0.00366,0.00717,0.11261,-0.02777,-0.009,-0.02991,-0.01953,0.00443,-0.04929
4.4735,-0.12207,0.04105,-0.10437,0.03113,-0.03311,-0.04272,-0.02014,-0.00824,0.02258,0.12863,-0.06348,-0.04227,-0.02914,-0.0174,0.00717,-0.04684
4.474,-0.16129,0.03265,-0.0351,-0.01785,-0.03204,-0.04028,-0.02136,-0.01053,0.0441,0.12909,-0.07965,-0.07599,-0.0296,-0.01678,0.00687,-0.04303
4.4745,-0.17883,0.02899,0.03082,-0.06897,-0.03021,-0.04089,-0.0206,-0.01053,0.06866,0.11459,-0.07095,-0.10193,-0.02808,-0.01724,0.00534,-0.04135
4.475,-0.16525,0.03281,0.06836,-0.07263,-0.02991,-0.04425,-0.01923,-0.00961,0.09109,0.09186,-0.05188,-0.09476,-0.02716,-0.01923,0.00519,-0.03998
4.4755,-0.12527,0.02975,0.07172,-0.04791,-0.03082,-0.0499,-0.01785,-0.009,0.10834,0.0705,-0.03647,-0.03708,-0.02945,-0.01953,0.00793,-0.0383
4.476,-0.07462,0.00992,0.03738,-0.0415,-0.03296,-0.05615,-0.0174,-0.00931,0.11627,0.05295,-0.02609,0.03616,-0.03357,-0.01999,0.0116,-0.03403
4.4765,-0.03296,-0.01801,-0.02045,-0.05753,-0.03357,-0.06149,-0.01678,-0.00809,0.10559,0.03616,-0.01526,0.07019,-0.03555,-0.01984,0.01373,-0.03006
4.477,-0.00885,-0.04395,-0.04944,-0.06256,-0.03265,-0.0676,-0.01526,-0.00565,0.06866,0.01556,-0.00549,0.06607,-0.03571,-0.02213,0.01282,-0.02975
4.4775,0.00565,-0.06226,-0.01694,-0.0296,-0.03189,-0.07477,-0.01328,-0.00153,0.01419,-0.00427,-0.00107,0.06485,-0.03464,-0.02441,0.01129,-0.03525
4.478,0.01968,-0.07217,0.0502,0.04684,-0.03281,-0.07919,-0.01022,0.00183,-0.03021,-0.01862,-0.00534,0.08194,-0.03342,-0.02411,0.00687,-0.04166
4.4785,0.03494,-0.07523,0.09232,0.14084,-0.03433,-0.07828,-0.00916,0.00336,-0.04349,-0.02731,-0.01129,0.08987,-0.03281,-0.02136,0.00427,-0.04395
4.479,0.04532,-0.07584,0.08621,0.19913,-0.03448,-0.0737,-0.01007,0.00336,-0.03281,-0.03616,-0.01129,0.06882,-0.03342,-0.01846,0.00366,-0.04333
4.4795,0.04745,-0.0766,0.04547,0.2005,-0.03387,-0.06943,-0.0119,0.00076,-0.0206,-0.04654,-0.00031,0.03052,-0.03311,-0.01572,0.00504,-0.04074
4.48,0.04425,-0.07751,-0.01099,0.1738,-0.0325,-0.06577,-0.01282,-0.00092,-0.01984,-0.05829,0.01648,-0.00702,-0.03235,-0.01373,0.00565,-0.04089
4.4805,0.04272,-0.08148,-0.07401,0.13855,-0.03128,-0.05981,-0.01282,-0.0029,-0.02747,-0.06927,0.02609,-0.04257,-0.03159,-0.01358,0.00504,-0.04349
4.481,0.04471,-0.09003,-0.13092,0.08041,-0.02884,-0.0499,-0.01465,-0.00519,-0.03296,-0.07629,0.02563,-0.07523,-0.03082,-0.01572,0.00534,-0.0441
4.4815,0.04593,-0.10513,-0.16602,0.01007,-0.02579,-0.03922,-0.01541,-0.00687,-0.03159,-0.07797,0.02548,-0.08438,-0.03067,-0.01877,0.00839,-0.04181
4.482,0.04654,-0.12451,-0.17715,-0.02014,-0.02319,-0.03021,-0.0145,-0.00687,-0.02548,-0.07034,0.03479,-0.04654,-0.03036,-0.02151,0.01114,-0.03906
4.4825,0.05051,-0.14511,-0.17624,0.01755,-0.02304,-0.02579,-0.01068,-0.00427,-0.02213,-0.05539,0.0531,0.03326,-0.03159,-0.0235,0.01099,-0.0386
4.483,0.05676,-0.16708,-0.17273,0.0885,-0.02472,-0.02472,-0.00793,-0.00031,-0.02533,-0.03998,0.065,0.11368,-0.03372,-0.02487,0.00946,-0.04013
4.4835,0.05981,-0.18524,-0.16281,0.12527,-0.02701,-0.02426,-0.0087,0.00305,-0.03174,-0.03113,0.06348,0.13382,-0.03525,-0.02502,0.00748,-0.04318
4.484,0.05341,-0.19135,-0.14069,0.09232,-0.02777,-0.02365,-0.01068,0.00275,-0.03586,-0.03265,0.05478,0.05936,-0.03677,-0.02289,0.00763,-0.0444
4.4845,0.03799,-0.18036,-0.112,0.0209,-0.02747,-0.02121,-0.01282,0.00061,-0.03983,-0.04349,0.04807,-0.06409,-0.03601,-0.02045,0.00946,-0.04425
4.485,0.02777,-0.15427,-0.09079,-0.02365,-0.02655,-0.01846,-0.01266,-0.00092,-0.04562,-0.05417,0.04288,-0.13885,-0.03571,-0.01953,0.01099,-0.04318
4.4855,0.0351,-0.12299,-0.08331,-0.02258,-0.02701,-0.01602,-0.01236,-0.00031,-0.0531,-0.06165,0.03571,-0.10193,-0.03632,-0.02106,0.00931,-0.04166
4.486,0.05508,-0.09384,-0.08057,-0.01373,-0.02853,-0.01633,-0.01266,0.00031,-0.05722,-0.06775,0.0238,0.00748,-0.03769,-0.02213,0.00626,-0.04074
4.4865,0.06805,-0.06836,-0.06256,-0.0351,-0.0293,-0.01968,-0.01282,-0.00046,-0.0531,-0.07874,0.00778,0.09048,-0.03784,-0.02106,0.00305,-0.0386
4.487,0.06256,-0.04456,-0.02045,-0.0769,-0.02899,-0.02625,-0.01312,-0.00168,-0.03662,-0.08987,-0.01389,0.08865,-0.03479,-0.01831,0.00458,-0.03815
4.4875,0.04883,-0.02594,0.02609,-0.11108,-0.02838,-0.03479,-0.01282,-0.00198,-0.01572,-0.08957,-0.03632,0.04303,-0.03159,-0.01724,0.00732,-0.03815
4.488,0.03708,-0.0235,0.04044,-0.13199,-0.02899,-0.04501,-0.01266,0.00031,-0.00732,-0.07385,-0.03967,0.0296,-0.03098,-0.01801,0.01282,-0.03769
4.4885,0.02945,-0.04349,-0.00793,-0.1564,-0.03052,-0.0592,-0.01343,0.00153,-0.01678,-0.04364,0.00031,0.05554,-0.03113,-0.01877,0.01724,-0.03616
4.489,0.02182,-0.07614,-0.10849,-0.18784,-0.03113,-0.07614,-0.0148,0.0,-0.03128,-0.00626,0.07004,0.06317,-0.03143,-0.01816,0.01785,-0.03632
4.4895,0.00504,-0.1059,-0.18814,-0.20645,-0.03235,-0.08728,-0.01541,-0.00259,-0.03311,0.0293,0.1268,0.02182,-0.03159,-0.01678,0.01617,-0.03769
4.49,-0.01862,-0.11566,-0.15915,-0.19958,-0.0325,-0.08347,-0.01617,-0.00214,-0.02258,0.05783,0.12787,-0.05402,-0.03098,-0.01694,0.01373,-0.03952
4.4905,-0.03555,-0.09384,-0.01892,-0.16129,-0.03311,-0.06485,-0.01556,-0.00092,-0.01801,0.07294,0.07584,-0.13824,-0.03159,-0.01755,0.01266,-0.04013
4.491,-0.02792,-0.0473,0.13107,-0.08652,-0.03311,-0.04364,-0.01404,0.00031,-0.03189,0.07309,0.00626,-0.2037,-0.03159,-0.01877,0.01221,-0.04089
4.4915,0.00259,0.00748,0.18967,0.02777,-0.03357,-0.0325,-0.01251,0.00137,-0.056,0.06073,-0.04501,-0.21729,-0.03052,-0.01831,0.01144,-0.04242
4.492,0.03006,0.05234,0.15472,0.14023,-0.0351,-0.03311,-0.01129,0.0032,-0.06805,0.04135,-0.06744,-0.17303,-0.02991,-0.01709,0.00946,-0.0441
4.4925,0.03235,0.07782,0.09689,0.17685,-0.03754,-0.04044,-0.0119,0.00458,-0.05402,0.0177,-0.07034,-0.103,-0.03082,-0.01678,0.00839,-0.04242
4.493,0.01251,0.08408,0.06531,0.11581,-0.04044,-0.04623,-0.01389,0.00443,-0.0264,-0.01343,-0.06485,-0.04349,-0.0325,-0.0177,0.00931,-0.03967
4.4935,-0.01205,0.07156,0.05142,0.02899,-0.04333,-0.04196,-0.01617,0.00275,-0.00488,-0.0531,-0.0563,-0.00854,-0.03387,-0.01877,0.00992,-0.03891
4.494,-0.03311,0.04211,0.03647,-0.009,-0.04486,-0.02777,-0.01785,0.00015,0.00641,-0.09201,-0.05035,0.00214,-0.03525,-0.01892,0.00977,-0.04135
4.4945,-0.05295,0.00549,0.02228,-0.00946,-0.04578,-0.01434,-0.01678,-0.00122,0.02289,-0.11505,-0.05493,-0.00427,-0.03571,-0.01816,0.00809,-0.04288
4.495,-0.07233,-0.01953,0.02777,-0.00778,-0.04562,-0.01846,-0.01511,-0.00198,0.04929,-0.11688,-0.06912,-0.00595,-0.03632,-0.01633,0.00702,-0.04379
4.4955,-0.09232,-0.02136,0.05173,0.01389,-0.0441,-0.0415,-0.01434,-0.00168,0.06821,-0.10513,-0.07141,0.01801,-0.03708,-0.01602,0.00671,-0.0444
4.496,-0.11765,-0.00641,0.06149,0.06149,-0.04288,-0.07004,-0.01373,-0.00031,0.0676,-0.08881,-0.02579,0.06561,-0.03677,-0.01724,0.00824,-0.04471
4.4965,-0.14496,0.01419,0.02319,0.06195,-0.04028,-0.08957,-0.01343,0.00107,0.05447,-0.07263,0.08102,0.1088,-0.03601,-0.01816,0.00732,-0.04272
4.497,-0.15976,0.03403,-0.05707,-0.02762,-0.03708,-0.09613,-0.01328,0.00214,0.04181,-0.05753,0.20142,0.11734,-0.0351,-0.01907,0.00778,-0.03922
4.4975,-0.14984,0.05508,-0.12543,-0.12482,-0.03357,-0.09399,-0.0145,0.00137,0.02716,-0.04074,0.24872,0.07782,-0.03571,-0.01938,0.00763,-0.03769
4.498,-0.12115,0.07751,-0.13489,-0.13275,-0.03174,-0.0885,-0.01389,-0.00214,0.00061,-0.02167,0.17761,-0.00153,-0.03632,-0.01846,0.00687,-0.03815
4.4985,-0.09338,0.09033,-0.08682,-0.07172,-0.03204,-0.08499,-0.01358,-0.00626,-0.03738,0.0029,0.03433,-0.08469,-0.03525,-0.01678,0.00565,-0.04013
4.499,-0.07263,0.08133,-0.02792,-0.03021,-0.03204,-0.08484,-0.01434,-0.00946,-0.07141,0.03036,-0.09842,-0.12115,-0.03296,-0.01282,0.00519,-0.04227
4.4995,-0.0502,0.05356,0.00671,-0.03006,-0.03098,-0.08759,-0.01572,-0.00854,-0.08102,0.05386,-0.16754,-0.08469,-0.03143,-0.01068,0.0058,-0.04425
4.5,-0.02319,0.01968,0.01221,-0.03601,-0.02991,-0.09369,-0.01587,-0.00641,-0.06653,0.06653,-0.16953,0.00504,-0.03159,-0.01083,0.00717,-0.04471
4.5005,-0.00153,-0.01617,-0.00107,-0.0351,-0.03036,-0.1004,-0.01465,-0.00443,-0.04807,0.0621,-0.12283,0.09933,-0.03021,-0.01526,0.00702,-0.04379
4.501,0.00351,-0.05798,-0.0235,-0.03998,-0.03021,-0.10132,-0.01389,-0.00519,-0.03677,0.0441,-0.05554,0.14801,-0.02747,-0.01999,0.00717,-0.04303
4.5015,-0.00076,-0.10117,-0.04715,-0.03967,-0.03052,-0.08835,-0.01328,-0.00656,-0.02975,0.02304,0.00183,0.12848,-0.0267,-0.02533,0.00809,-0.04333
4.502,-0.00443,-0.13351,-0.06409,-0.02228,-0.03159,-0.06027,-0.01358,-0.00748,-0.02457,0.00534,0.01923,0.07507,-0.02914,-0.02792,0.00961,-0.04318
4.5025,-0.00046,-0.14908,-0.07309,-0.00107,-0.0325,-0.03067,-0.0148,-0.00763,-0.02304,-0.00717,-0.01633,0.04364,-0.03281,-0.02762,0.01083,-0.04303
4.503,0.00656,-0.15228,-0.07996,-0.00793,-0.03265,-0.01617,-0.01587,-0.00839,-0.02411,-0.01572,-0.09125,0.0473,-0.03372,-0.02579,0.01175,-0.04196
4.5035,0.01236,-0.15137,-0.09079,-0.03845,-0.03311,-0.01831,-0.01694,-0.01022,-0.02197,-0.01923,-0.17273,0.05737,-0.03311,-0.02457,0.01282,-0.04166
4.504,0.0145,-0.14481,-0.09872,-0.05783,-0.0351,-0.03311,-0.01801,-0.01144,-0.01755,-0.01953,-0.22781,0.05173,-0.03174,-0.02533,0.01205,-0.03952
4.5045,0.01572,-0.13275,-0.09857,-0.0444,-0.03708,-0.0528,-0.01846,-0.01068,-0.0177,-0.01862,-0.24109,0.0293,-0.03098,-0.02594,0.00961,-0.03769
4.505,0.01724,-0.11749,-0.0882,-0.01022,-0.03799,-0.07111,-0.01831,-0.0087,-0.02167,-0.01877,-0.21637,-0.00031,-0.03113,-0.02441,0.00687,-0.03769
4.5055,0.02075,-0.10345,-0.07782,0.01938,-0.03784,-0.08087,-0.01709,-0.00702,-0.02335,-0.02075,-0.17227,-0.02441,-0.03174,-0.02121,0.00519,-0.03891
4.506,0.02609,-0.09293,-0.07385,0.03143,-0.03647,-0.07828,-0.01602,-0.00702,-0.01999,-0.02411,-0.12619,-0.04578,-0.03128,-0.01923,0.00656,-0.03983
4.5065,0.03464,-0.08575,-0.07721,0.03128,-0.03311,-0.0679,-0.01556,-0.00702,-0.01892,-0.02625,-0.0885,-0.08347,-0.0293,-0.01755,0.00961,-0.03876
4.507,0.04669,-0.08118,-0.07874,0.02899,-0.03052,-0.05142,-0.0148,-0.00687,-0.02472,-0.02426,-0.05997,-0.14313,-0.02991,-0.01587,0.0119,-0.03586
4.5075,0.06027,-0.07751,-0.07431,0.03082,-0.02838,-0.03311,-0.01465,-0.00702,-0.03357,-0.01968,-0.03845,-0.18051,-0.03128,-0.01526,0.01205,-0.03281
4.508,0.07156,-0.07523,-0.06256,0.03159,-0.02823,-0.01785,-0.01358,-0.00671,-0.03555,-0.01022,-0.02502,-0.14374,-0.03159,-0.0177,0.00992,-0.03265
4.5085,0.07767,-0.07309,-0.03967,0.01511,-0.02686,-0.01068,-0.01266,-0.0061,-0.02853,0.00336,-0.02243,-0.04623,-0.02991,-0.02243,0.00778,-0.0354
4.509,0.07523,-0.06851,-0.00519,-0.02075,-0.02609,-0.01297,-0.01205,-0.00504,-0.01465,0.01816,-0.02396,0.03082,-0.02823,-0.02579,0.00671,-0.03983
4.5095,0.06439,-0.06424,0.03311,-0.05768,-0.02777,-0.02167,-0.01221,-0.00443,0.00275,0.03342,-0.0148,0.03052,-0.02823,-0.02502,0.00641,-0.04135
4.51,0.04898,-0.06516,0.06134,-0.07416,-0.02975,-0.03098,-0.01221,-0.00397,0.02533,0.04715,0.01511,-0.02121,-0.02808,-0.0235,0.00626,-0.04135
4.5105,0.0386,-0.06927,0.08057,-0.06607,-0.03235,-0.03754,-0.01221,-0.00275,0.05157,0.06012,0.05447,-0.0647,-0.02777,-0.02258,0.00702,-0.04211
4.511,0.04044,-0.06516,0.10223,-0.03876,-0.03281,-0.03937,-0.01175,-0.00031,0.07172,0.0676,0.07431,-0.07568,-0.02838,-0.0209,0.00717,-0.0441
4.5115,0.05157,-0.04593,0.12024,0.0058,-0.03311,-0.03799,-0.01144,0.00259,0.07629,0.06943,0.06882,-0.07385,-0.02914,-0.01816,0.00839,-0.04501
4.512,0.05814,-0.01724,0.1123,0.05371,-0.03372,-0.03708,-0.01083,0.00473,0.065,0.06454,0.06378,-0.07782,-0.0296,-0.01373,0.00748,-0.04211
4.5125,0.05173,0.00778,0.05447,0.07568,-0.03433,-0.03891,-0.01099,0.00381,0.04669,0.0528,0.07065,-0.08514,-0.02975,-0.0116,0.00687,-0.03891
4.513,0.0473,0.02304,-0.05051,0.05371,-0.03387,-0.04166,-0.01068,0.00153,0.02625,0.03876,0.06744,-0.07187,-0.02869,-0.01266,0.00778,-0.03723
4.5135,0.05966,0.03098,-0.17502,0.00641,-0.03311,-0.04395,-0.01099,0.00046,0.00504,0.02243,0.03937,-0.01831,-0.02792,-0.0145,0.00946,-0.03647
4.514,0.07401,0.03586,-0.27893,-0.03082,-0.03342,-0.04517,-0.01144,0.00076,-0.01755,0.00763,0.01053,0.05341,-0.02869,-0.01572,0.00977,-0.03754
4.5145,0.06042,0.04501,-0.31693,-0.04089,-0.03555,-0.047,-0.01038,0.00259,-0.03998,-0.00793,0.00778,0.09109,-0.03021,-0.01602,0.00702,-0.03906
4.515,0.01175,0.06104,-0.25803,-0.03616,-0.03647,-0.0473,-0.00839,0.00366,-0.05875,-0.02625,0.02136,0.06744,-0.0322,-0.01709,0.00473,-0.04135
4.5155,-0.04837,0.07492,-0.11719,-0.0325,-0.03433,-0.04517,-0.00809,0.00214,-0.07004,-0.04456,0.02274,0.02075,-0.03403,-0.01755,0.00443,-0.04227
4.516,-0.10178,0.06546,0.03403,-0.03372,-0.03052,-0.04105,-0.00977,-0.00076,-0.07126,-0.05737,0.00366,0.00549,-0.03586,-0.01678,0.00732,-0.04196
4.5165,-0.14038,0.01846,0.11948,-0.04272,-0.02808,-0.03754,-0.01251,-0.00229,-0.065,-0.06012,-0.01526,0.02594,-0.03708,-0.0145,0.00961,-0.04013
4.517,-0.15671,-0.05127,0.11444,-0.0679,-0.02716,-0.03479,-0.01312,-0.00183,-0.05722,-0.06134,-0.01678,0.047,-0.03845,-0.0148,0.00946,-0.03937
4.5175,-0.14984,-0.11337,0.06775,-0.10513,-0.02716,-0.03387,-0.0119,0.00046,-0.04959,-0.06866,-0.00412,0.04623,-0.03799,-0.01648,0.00854,-0.04059
4.518,-0.13733,-0.14496,0.04715,-0.11765,-0.02838,-0.03555,-0.01053,0.00259,-0.03983,-0.08255,0.01724,0.01999,-0.03769,-0.01801,0.00748,-0.04471
4.5185,-0.1384,-0.14938,0.0618,-0.05493,-0.02823,-0.03983,-0.01175,0.00107,-0.0293,-0.1004,0.05035,-0.02029,-0.03799,-0.01862,0.00641,-0.04837
4.519,-0.14664,-0.13687,0.06989,0.09262,-0.02777,-0.04395,-0.01419,-0.00259,-0.02518,-0.11932,0.0798,-0.05493,-0.03983,-0.01984,0.0061,-0.05035
4.5195,-0.14008,-0.10849,0.04898,0.24307,-0.02609,-0.04776,-0.01389,-0.00381,-0.02945,-0.13489,0.08148,-0.07172,-0.04044,-0.02228,0.00595,-0.04929
4.52,-0.11475,-0.06897,0.01617,0.28381,-0.02426,-0.04929,-0.01221,-0.00244,-0.04379,-0.14328,0.04501,-0.07782,-0.04028,-0.02319,0.00671,-0.04532
4.5205,-0.08789,-0.03632,-0.01175,0.19928,-0.02396,-0.04852,-0.01236,-0.00031,-0.06653,-0.14694,-0.0145,-0.07019,-0.03799,-0.02289,0.00763,-0.04181
4.521,-0.06943,-0.02747,-0.04776,0.0882,-0.02457,-0.04562,-0.01343,-0.00107,-0.09079,-0.14709,-0.07919,-0.02609,-0.03662,-0.02151,0.00992,-0.03983
4.5215,-0.05539,-0.03876,-0.12619,0.03082,-0.02335,-0.04028,-0.0145,-0.00427,-0.10376,-0.14694,-0.13077,0.05829,-0.0351,-0.01846,0.01144,-0.03983
4.522,-0.03677,-0.05539,-0.25085,0.01007,-0.02213,-0.03433,-0.0145,-0.00549,-0.09171,-0.14359,-0.15015,0.13687,-0.03342,-0.01434,0.01175,-0.04028
4.5225,-0.01846,-0.0647,-0.36789,-0.0206,-0.02029,-0.03143,-0.01389,-0.00519,-0.06271,-0.12955,-0.13336,0.14893,-0.03098,-0.01022,0.00992,-0.03998
4.523,-0.00534,-0.06607,-0.39108,-0.06134,-0.02106,-0.03494,-0.01343,-0.00381,-0.03372,-0.10605,-0.09995,0.09094,-0.02853,-0.009,0.0087,-0.03998
4.5235,0.00702,-0.06714,-0.28717,-0.08911,-0.02243,-0.04196,-0.01297,-0.00305,-0.01236,-0.07996,-0.07721,0.02121,-0.02777,-0.01068,0.009,-0.04135
4.524,0.02335,-0.07431,-0.11749,-0.10147,-0.0235,-0.04608,-0.01343,-0.00336,0.00549,-0.05478,-0.06424,-0.01923,-0.02731,-0.0148,0.009,-0.04303
4.5245,0.04135,-0.08026,0.01724,-0.10559,-0.02289,-0.04227,-0.01373,-0.0032,0.02563,-0.03555,-0.05188,-0.03906,-0.0267,-0.01648,0.00885,-0.0441
4.525,0.0531,-0.07217,0.06531,-0.09506,-0.02304,-0.03372,-0.0148,-0.00336,0.04303,-0.02411,-0.03876,-0.05005,-0.02594,-0.0148,0.00916,-0.04318
4.5255,0.05707,-0.04471,0.04257,-0.05951,-0.02472,-0.02747,-0.01495,-0.00259,0.05005,-0.02426,-0.02838,-0.04654,-0.02625,-0.01221,0.01053,-0.03952
4.526,0.06104,-0.01343,-0.02274,-0.01282,-0.02655,-0.02625,-0.01404,-0.00214,0.04654,-0.0325,-0.00839,-0.03555,-0.02747,-0.01083,0.01236,-0.0386
4.5265,0.07111,-0.00046,-0.12543,0.00916,-0.02823,-0.03113,-0.01328,-0.00259,0.03754,-0.04303,0.02151,-0.0351,-0.02899,-0.01236,0.01266,-0.03876
4.527,0.08469,-0.01648,-0.24384,-0.00702,-0.03021,-0.03967,-0.01343,-0.00305,0.02533,-0.04761,0.03983,-0.04333,-0.03143,-0.01541,0.0116,-0.04135
4.5275,0.09293,-0.05066,-0.30273,-0.03922,-0.03143,-0.04562,-0.01556,-0.00351,0.01083,-0.04242,0.03006,-0.04425,-0.03357,-0.01846,0.009,-0.04227
4.528,0.08957,-0.07904,-0.23224,-0.0563,-0.03342,-0.04715,-0.01694,-0.00397,-0.00504,-0.02747,0.00061,-0.03967,-0.0354,-0.01999,0.00687,-0.04395
4.5285,0.0798,-0.08911,-0.05783,-0.05096,-0.03372,-0.04623,-0.0148,-0.00351,-0.02441,-0.00885,-0.03326,-0.03174,-0.0351,-0.01968,0.0058,-0.04608
4.529,0.07233,-0.0853,0.12329,-0.02899,-0.03479,-0.04593,-0.0116,-0.00366,-0.04456,0.01007,-0.06699,0.00671,-0.03387,-0.01846,0.0058,-0.04776
4.5295,0.06592,-0.07736,0.25116,-0.00168,-0.0351,-0.04578,-0.009,-0.00412,-0.05264,0.0322,-0.09781,0.09094,-0.03143,-0.01801,0.00671,-0.04761
4.53,0.05386,-0.06073,0.32623,0.01556,-0.03571,-0.0441,-0.00931,-0.00549,-0.03891,0.05585,-0.10925,0.17609,-0.02975,-0.01831,0.00732,-0.04578
4.5305,0.03418,-0.02502,0.33936,0.01373,-0.03754,-0.04135,-0.01297,-0.00656,-0.01007,0.07278,-0.0946,0.20325,-0.0296,-0.02029,0.00885,-0.04562
4.531,0.01251,0.02518,0.26001,0.00366,-0.04044,-0.03967,-0.0174,-0.00732,0.01724,0.07858,-0.05951,0.16388,-0.03067,-0.02136,0.01083,-0.04486
4.5315,-0.01053,0.06424,0.11871,0.00122,-0.04166,-0.04135,-0.01938,-0.00824,0.03052,0.07767,-0.00931,0.08698,-0.03067,-0.02243,0.01266,-0.04074
4.532,-0.03784,0.0705,0.02335,0.00153,-0.03998,-0.04807,-0.01785,-0.00809,0.02594,0.07599,0.06317,0.00992,-0.02914,-0.02213,0.01389,-0.03708
4.5325,-0.06485,0.04715,0.04105,-0.00305,-0.03632,-0.06073,-0.01587,-0.00717,0.00366,0.0708,0.14694,-0.03876,-0.02701,-0.02136,0.01434,-0.03571
4.533,-0.07462,0.00488,0.11719,-0.00259,-0.03571,-0.07416,-0.01541,-0.00549,-0.0235,0.05844,0.1918,-0.05569,-0.02609,-0.02045,0.01266,-0.03799
4.5335,-0.05569,-0.05386,0.15518,0.01007,-0.03677,-0.07874,-0.01419,-0.00549,-0.03937,0.04242,0.15854,-0.05386,-0.02838,-0.02014,0.00946,-0.04105
4.534,-0.02045,-0.12039,0.12283,0.0264,-0.03937,-0.07339,-0.01205,-0.00488,-0.03891,0.02594,0.06836,-0.04761,-0.03067,-0.02136,0.00626,-0.04318
4.5345,0.00107,-0.16403,0.05844,0.0351,-0.03845,-0.06714,-0.01114,-0.0029,-0.03311,0.00854,-0.01526,-0.05035,-0.03143,-0.02396,0.00504,-0.04486
4.535,0.00076,-0.16174,-0.00793,0.03571,-0.03799,-0.06607,-0.01144,-0.00183,-0.03571,-0.00916,-0.05173,-0.07477,-0.03204,-0.02655,0.00565,-0.04517
4.5355,-0.00244,-0.12131,-0.07156,0.03922,-0.03693,-0.06805,-0.0119,-0.00244,-0.04669,-0.02182,-0.05356,-0.10727,-0.03311,-0.02762,0.00717,-0.04517
4.536,0.00763,-0.0676,-0.12512,0.03586,-0.03693,-0.06775,-0.01129,-0.00275,-0.05081,-0.02625,-0.0444,-0.09979,-0.03448,-0.02777,0.00854,-0.04532
4.5365,0.02151,-0.01724,-0.14694,-0.00046,-0.03647,-0.06287,-0.01022,0.0,-0.0293,-0.02289,-0.03448,-0.03235,-0.0351,-0.02609,0.00931,-0.04425
4.537,0.01938,0.01465,-0.13672,-0.06485,-0.03586,-0.05722,-0.01007,0.00366,0.0116,-0.01678,-0.03021,0.05692,-0.03448,-0.02335,0.00931,-0.04333
4.5375,-0.00198,0.01709,-0.1207,-0.10223,-0.03647,-0.05295,-0.00992,0.00504,0.04578,-0.01236,-0.0383,0.10574,-0.03342,-0.02045,0.01083,-0.04318
4.538,-0.02808,-0.00549,-0.11917,-0.07736,-0.03616,-0.05219,-0.01068,0.00336,0.05646,-0.00992,-0.06271,0.08865,-0.03265,-0.01862,0.0119,-0.0444
4.5385,-0.04395,-0.03204,-0.13123,-0.03967,-0.0351,-0.056,-0.01175,0.0,0.04883,-0.01022,-0.08987,0.0383,-0.03311,-0.0177,0.01144,-0.04486
4.539,-0.05035,-0.0441,-0.14679,-0.05966,-0.03342,-0.06058,-0.01221,-0.00229,0.03357,-0.01312,-0.10178,0.01358,-0.03433,-0.01923,0.00931,-0.04501
4.5395,-0.05676,-0.04196,-0.15823,-0.11734,-0.03204,-0.05997,-0.01175,-0.0032,0.02029,-0.02045,-0.09216,0.03372,-0.03387,-0.01968,0.00809,-0.04318
4.54,-0.06332,-0.04044,-0.15991,-0.12817,-0.03281,-0.05402,-0.0119,-0.00366,0.01831,-0.03082,-0.06882,0.05692,-0.03265,-0.01923,0.00839,-0.04242
4.5405,-0.05798,-0.0473,-0.14832,-0.08469,-0.03159,-0.04486,-0.01175,-0.0032,0.02472,-0.04059,-0.04395,0.0354,-0.03128,-0.01678,0.0087,-0.04395
4.541,-0.03281,-0.04944,-0.12482,-0.07233,-0.03098,-0.03662,-0.01236,-0.00351,0.02594,-0.0499,-0.02243,-0.01587,-0.03082,-0.01358,0.00778,-0.04562
4.5415,0.00397,-0.03601,-0.09918,-0.11322,-0.02945,-0.03326,-0.01389,-0.00534,0.00946,-0.05829,-0.00641,-0.03677,-0.03036,-0.01007,0.0061,-0.04608
4.542,0.03448,-0.00748,-0.07797,-0.13977,-0.03082,-0.03372,-0.01678,-0.00854,-0.02289,-0.06363,0.00656,-0.01419,-0.03036,-0.00854,0.00458,-0.047
4.5425,0.05035,0.02045,-0.06409,-0.12619,-0.03265,-0.03769,-0.01877,-0.01007,-0.05798,-0.05814,0.01801,0.01221,-0.02899,-0.00809,0.00443,-0.047
4.543,0.05554,0.03815,-0.05676,-0.09674,-0.03326,-0.04303,-0.02029,-0.01007,-0.08606,-0.03708,0.0293,0.01022,-0.02792,-0.0087,0.00397,-0.04593
4.5435,0.05478,0.0473,-0.05463,-0.02411,-0.03281,-0.04791,-0.02136,-0.01068,-0.10345,-0.00534,0.03708,-0.00519,-0.02838,-0.01083,0.00427,-0.04532
4.544,0.04913,0.05569,-0.05615,0.09689,-0.03296,-0.05112,-0.02121,-0.01221,-0.10284,0.02838,0.03906,-0.01083,-0.0296,-0.01297,0.00565,-0.04349
4.5445,0.03799,0.06866,-0.06454,0.16815,-0.03296,-0.05341,-0.02106,-0.01343,-0.07813,0.05676,0.03479,-0.01022,-0.03128,-0.01312,0.00641,-0.04135
4.545,0.02045,0.08011,-0.09064,0.10605,-0.03296,-0.05493,-0.01984,-0.01129,-0.03983,0.07339,0.02609,-0.01266,-0.03143,-0.01343,0.00504,-0.04044
4.5455,-0.00076,0.07538,-0.13367,-0.01038,-0.03418,-0.05402,-0.02029,-0.009,-0.00687,0.07599,0.02029,-0.01801,-0.03082,-0.0148,0.00443,-0.04135
4.546,-0.0209,0.05035,-0.16251,-0.05005,-0.03235,-0.05066,-0.02014,-0.00748,0.00931,0.06622,0.02151,-0.03067,-0.02975,-0.01816,0.00443,-0.04318
4.5465,-0.02487,0.01572,-0.13718,-0.00397,-0.03128,-0.04883,-0.01892,-0.00671,0.01297,0.05234,0.0293,-0.05325,-0.02991,-0.02151,0.00565,-0.04379
4.547,-0.00763,-0.01282,-0.06027,0.03571,-0.03128,-0.05051,-0.01648,-0.00427,0.01038,0.04303,0.03494,-0.06409,-0.03189,-0.02243,0.00626,-0.04135
4.5475,0.01816,-0.03113,0.0235,0.0235,-0.03143,-0.05371,-0.01511,-0.00046,0.00137,0.03815,0.03357,-0.02838,-0.03387,-0.02243,0.00702,-0.04074
4.548,0.0354,-0.04333,0.07675,0.0,-0.03052,-0.0528,-0.01541,0.00061,-0.01221,0.03174,0.02533,0.0589,-0.0351,-0.02319,0.00839,-0.03983
4.5485,0.03677,-0.05798,0.09903,0.0177,-0.02823,-0.04791,-0.01678,-0.00076,-0.02289,0.02289,0.01358,0.15762,-0.03616,-0.02396,0.00992,-0.04059
4.549,0.02792,-0.08179,0.10468,0.07324,-0.02762,-0.04486,-0.0174,-0.00397,-0.02533,0.01724,0.00031,0.2066,-0.03708,-0.02411,0.01007,-0.04028
4.5495,0.01633,-0.11353,0.10101,0.12268,-0.02762,-0.04486,-0.01648,-0.00473,-0.0206,0.01862,-0.01114,0.17883,-0.03784,-0.02472,0.01068,-0.03891
4.55,0.00305,-0.13489,0.08636,0.13748,-0.03052,-0.04654,-0.01617,-0.00381,-0.0148,0.02365,-0.01633,0.11093,-0.03937,-0.02441,0.0116,-0.03647
4.5505,-0.01266,-0.12955,0.07095,0.1239,-0.03159,-0.04654,-0.01617,-0.00412,-0.00977,0.02609,-0.01877,0.05127,-0.04013,-0.0238,0.01297,-0.03738
4.551,-0.02716,-0.10223,0.06134,0.09964,-0.03189,-0.04517,-0.01602,-0.00336,-0.00778,0.02075,-0.02274,0.01434,-0.03998,-0.02258,0.0119,-0.03876
4.5515,-0.0386,-0.06927,0.06485,0.07187,-0.03174,-0.04196,-0.01556,-0.00107,-0.00809,0.01007,-0.0264,-0.00473,-0.03769,-0.02319,0.01083,-0.03952
4.552,-0.04837,-0.03662,0.07538,0.04105,-0.03372,-0.03754,-0.01434,0.00183,-0.00961,-0.00275,-0.02304,-0.00641,-0.03571,-0.02518,0.01038,-0.03967
4.5525,-0.05722,0.0,0.0592,-0.00488,-0.03616,-0.02991,-0.01129,0.00153,-0.01038,-0.01297,-0.01236,0.0058,-0.03555,-0.02457,0.00992,-0.03998
4.553,-0.06119,0.03601,-0.02136,-0.07599,-0.03708,-0.02533,-0.00732,-0.00046,-0.00854,-0.02319,-0.00031,0.01984,-0.03662,-0.02365,0.00931,-0.04074
4.5535,-0.05569,0.05112,-0.1445,-0.15198,-0.03769,-0.02609,-0.00351,-0.00076,-0.00717,-0.03448,0.00992,0.02411,-0.03693,-0.0238,0.00809,-0.03998
4.554,-0.04745,0.03143,-0.21591,-0.19165,-0.03845,-0.03448,-0.00214,0.00061,-0.00732,-0.04333,0.01816,0.01328,-0.03601,-0.02472,0.00839,-0.03723
4.5545,-0.04532,-0.01144,-0.17593,-0.16953,-0.03723,-0.04242,-0.00595,0.0029,-0.00885,-0.04761,0.02563,-0.01221,-0.03464,-0.0235,0.00961,-0.03647
4.555,-0.04944,-0.05341,-0.07263,-0.09933,-0.03555,-0.0444,-0.01602,0.00259,-0.00702,-0.05096,0.03326,-0.04272,-0.03372,-0.02197,0.01129,-0.03799
4.5555,-0.05417,-0.07599,-0.00443,-0.01495,-0.03159,-0.04379,-0.0267,0.00061,-0.00305,-0.05661,0.04105,-0.05722,-0.03433,-0.01907,0.01312,-0.03937
4.556,-0.05569,-0.07965,0.00015,0.04745,-0.02777,-0.04364,-0.03021,-0.00092,-0.00305,-0.06165,0.0531,-0.04761,-0.03586,-0.01617,0.01266,-0.03922
4.5565,-0.05646,-0.07568,-0.01022,0.06226,-0.02563,-0.04501,-0.02243,-0.00259,-0.01175,-0.05814,0.08194,-0.02777,-0.03677,-0.01434,0.00931,-0.03998
4.557,-0.05539,-0.07431,0.00198,0.03265,-0.02762,-0.04486,-0.01068,-0.00427,-0.02411,-0.04547,0.12878,-0.01266,-0.03738,-0.01526,0.00519,-0.04181
4.5575,-0.05005,-0.07477,0.01923,-0.00122,-0.0293,-0.04501,-0.00412,-0.00443,-0.03708,-0.0386,0.16617,-0.00137,-0.03662,-0.01678,0.00336,-0.04288
4.558,-0.0412,-0.06866,0.00854,-0.00305,-0.02823,-0.04379,-0.00443,-0.00412,-0.05051,-0.04425,0.1535,0.01038,-0.03433,-0.01495,0.00351,-0.04288
4.5585,-0.0325,-0.05356,-0.01923,0.01984,-0.0238,-0.04471,-0.00931,-0.00565,-0.06363,-0.06378,0.08438,0.01862,-0.03281,-0.01053,0.00488,-0.04257
4.559,-0.02518,-0.0383,-0.02747,0.03815,-0.02136,-0.04974,-0.0145,-0.00916,-0.07553,-0.08652,-0.00931,0.02197,-0.0322,-0.00687,0.00702,-0.04272
4.5595,-0.01678,-0.03723,-0.00458,0.04684,-0.02304,-0.05875,-0.0177,-0.01099,-0.07629,-0.10254,-0.09277,0.02594,-0.03128,-0.00519,0.00946,-0.04028
4.56,-0.0061,-0.05188,0.0174,0.05692,-0.02686,-0.06821,-0.01678,-0.00946,-0.06241,-0.11185,-0.14679,0.02869,-0.02792,-0.00473,0.00977,-0.03876
4.5605,0.00336,-0.07339,0.00702,0.05219,-0.02823,-0.07462,-0.01511,-0.00519,-0.04181,-0.11734,-0.15854,0.02014,-0.02533,-0.00519,0.00809,-0.03906
4.561,0.01266,-0.08896,-0.03128,0.00381,-0.02655,-0.07492,-0.01205,-0.00092,-0.02808,-0.11978,-0.12604,-0.00076,-0.02457,-0.00763,0.00549,-0.04059
4.5615,0.02213,-0.09537,-0.07431,-0.08606,-0.02502,-0.06866,-0.01038,0.00046,-0.02762,-0.11536,-0.07004,-0.02655,-0.02457,-0.01129,0.00549,-0.03983
4.562,0.03036,-0.0975,-0.10437,-0.16907,-0.02258,-0.05951,-0.01099,0.00031,-0.03296,-0.10559,-0.02869,-0.04288,-0.02426,-0.01373,0.00488,-0.03983
4.5625,0.03357,-0.09888,-0.11566,-0.19897,-0.02182,-0.0499,-0.01175,-0.00061,-0.03052,-0.09262,-0.03616,-0.04761,-0.0238,-0.0148,0.00549,-0.03967
4.563,0.03143,-0.0975,-0.11307,-0.16373,-0.02029,-0.04059,-0.0116,-0.00092,-0.01877,-0.07553,-0.08957,-0.04318,-0.02426,-0.01587,0.00549,-0.04013
4.5635,0.02808,-0.09384,-0.10498,-0.06805,-0.01968,-0.03143,-0.01221,-0.00122,-0.00351,-0.05463,-0.15427,-0.03357,-0.02579,-0.0177,0.00519,-0.03983
4.564,0.03174,-0.08789,-0.09293,0.07065,-0.01877,-0.02335,-0.01358,0.00092,0.00748,-0.03052,-0.19287,-0.0238,-0.02686,-0.01816,0.00565,-0.0386
4.5645,0.04379,-0.0824,-0.07507,0.18127,-0.0177,-0.01633,-0.0148,0.00336,0.01556,-0.00854,-0.19028,-0.02792,-0.02686,-0.01617,0.00626,-0.03799
4.565,0.05783,-0.07874,-0.05692,0.16983,-0.01801,-0.01053,-0.01373,0.00427,0.02457,0.00702,-0.15671,-0.06897,-0.02731,-0.01434,0.00565,-0.03967
4.5655,0.06775,-0.07492,-0.04776,0.03448,-0.01953,-0.00366,-0.01251,0.00168,0.03296,0.01297,-0.10727,-0.13809,-0.02884,-0.01511,0.00519,-0.04211
4.566,0.07019,-0.07156,-0.05508,-0.11063,-0.02136,0.00153,-0.01129,-0.00183,0.03662,0.00763,-0.05402,-0.17868,-0.03006,-0.01755,0.00534,-0.04288
4.5665,0.06821,-0.06897,-0.08774,-0.16663,-0.0238,0.00336,-0.01053,-0.00305,0.03525,-0.00778,-0.0032,-0.13779,-0.03143,-0.01984,0.00824,-0.04196
4.567,0.06393,-0.06607,-0.15656,-0.13901,-0.02625,0.00168,-0.00961,-0.00153,0.0296,-0.02914,0.04913,-0.03418,-0.03418,-0.02258,0.01114,-0.03998
4.5675,0.05844,-0.06104,-0.25604,-0.09216,-0.02808,-0.00183,-0.01083,0.00015,0.01892,-0.04807,0.10254,0.04761,-0.03723,-0.02533,0.01205,-0.03799
4.568,0.05356,-0.05249,-0.34088,-0.0589,-0.03082,-0.00565,-0.01038,0.00031,0.00626,-0.05463,0.15869,0.04333,-0.03845,-0.02823,0.01083,-0.03708
4.5685,0.04959,-0.04303,-0.34805,-0.02945,-0.03098,-0.01083,-0.00641,0.0,-0.00427,-0.04181,0.20432,-0.0177,-0.0386,-0.02945,0.009,-0.03937
4.569,0.04425,-0.0351,-0.2565,0.0087,-0.0293,-0.01831,-0.00305,-0.00031,-0.01312,-0.01923,0.21194,-0.0415,-0.0383,-0.02625,0.00809,-0.04196
4.5695,0.03647,-0.02945,-0.11276,0.04272,-0.02899,-0.02655,-0.0061,-0.00031,-0.02197,0.00183,0.16098,0.02014,-0.03693,-0.02197,0.00778,-0.04486
4.57,0.02625,-0.02548,0.01221,0.0531,-0.03143,-0.03952,-0.01495,0.00031,-0.03021,0.0174,0.05859,0.11276,-0.03433,-0.01801,0.0087,-0.04471
4.5705,0.01556,-0.0206,0.07858,0.04135,-0.0354,-0.06393,-0.0206,-0.00168,-0.03281,0.02884,-0.05295,0.15472,-0.03265,-0.01678,0.00946,-0.04364
4.571,0.0058,-0.02029,0.09613,0.02014,-0.0386,-0.0943,-0.01999,-0.00351,-0.02731,0.03159,-0.12878,0.13763,-0.03418,-0.01648,0.0087,-0.04288
4.5715,-0.00259,-0.02991,0.08575,0.00458,-0.03693,-0.11261,-0.01801,-0.0032,-0.01511,0.01556,-0.1535,0.10834,-0.03571,-0.01755,0.00778,-0.04395
4.572,-0.00717,-0.04822,0.05249,0.0029,-0.03342,-0.10986,-0.01801,-0.00183,-0.00305,-0.01419,-0.13641,0.09369,-0.03616,-0.0177,0.00778,-0.04395
4.5725,-0.00763,-0.06317,0.00595,0.02075,-0.03174,-0.09567,-0.01953,-0.00092,0.00519,-0.03891,-0.0943,0.06973,-0.0354,-0.01663,0.00763,-0.0441
4.573,-0.00671,-0.06256,-0.00107,0.04776,-0.03143,-0.08606,-0.01862,-0.00046,0.01343,-0.04349,-0.04242,0.01175,-0.03433,-0.01572,0.00763,-0.04242
4.5735,-0.00626,-0.04715,0.06973,0.065,-0.03174,-0.08682,-0.01724,0.00031,0.02457,-0.02945,0.00412,-0.06042,-0.0354,-0.01633,0.0087,-0.04181
4.574,-0.00732,-0.03082,0.18585,0.06287,-0.03082,-0.08865,-0.01755,0.00183,0.03357,-0.01129,0.02884,-0.10696,-0.03571,-0.0174,0.0087,-0.04211
4.5745,-0.00397,-0.02594,0.27756,0.04822,-0.03036,-0.08133,-0.01724,0.0032,0.03235,-0.00412,0.03296,-0.11658,-0.0351,-0.01648,0.00778,-0.04318
4.575,0.00504,-0.05005,0.31677,0.03281,-0.02914,-0.06866,-0.01511,0.00351,0.01816,-0.01114,0.04822,-0.10437,-0.03418,-0.01694,0.00626,-0.04517
4.5755,0.01495,-0.10513,0.32822,0.01923,-0.02838,-0.06134,-0.01205,0.00214,-0.00626,-0.0296,0.09033,-0.07492,-0.03433,-0.01724,0.00671,-0.04745
4.576,0.01694,-0.15961,0.33615,0.01114,-0.02777,-0.06271,-0.01114,0.00015,-0.03296,-0.04822,0.12085,-0.02945,-0.03525,-0.0174,0.00595,-0.04745
4.5765,0.00961,-0.16998,0.32562,0.00778,-0.02899,-0.07111,-0.01236,-0.00244,-0.05463,-0.0676,0.0856,0.02258,-0.03632,-0.01648,0.0061,-0.04669
4.577,0.0058,-0.12283,0.27237,0.00717,-0.03143,-0.08514,-0.01434,-0.00519,-0.06454,-0.09598,-0.01495,0.0621,-0.03891,-0.01602,0.00565,-0.047
4.5775,0.01831,-0.04837,0.18372,0.00397,-0.0325,-0.0943,-0.01419,-0.00793,-0.06058,-0.13519,-0.12756,0.08133,-0.03952,-0.01801,0.00595,-0.04791
4.578,0.04211,0.02045,0.08957,-0.00092,-0.03296,-0.09232,-0.01328,-0.00916,-0.05295,-0.17715,-0.19623,0.08545,-0.03891,-0.02228,0.00717,-0.04776
4.5785,0.05646,0.07217,0.00763,-0.00366,-0.03265,-0.07706,-0.01343,-0.0087,-0.05188,-0.20294,-0.2066,0.08575,-0.03845,-0.0264,0.0087,-0.04578
4.579,0.0415,0.10757,-0.0679,-0.00473,-0.03082,-0.05783,-0.01434,-0.00641,-0.05508,-0.20218,-0.17746,0.08362,-0.03799,-0.02808,0.00916,-0.04379
4.5795,-0.00107,0.11826,-0.15182,-0.00931,-0.02716,-0.04242,-0.01419,-0.00519,-0.05341,-0.18219,-0.13184,0.06882,-0.03845,-0.02792,0.00916,-0.04135
4.58,-0.04898,0.09949,-0.23956,-0.02319,-0.02747,-0.03677,-0.01312,-0.00488,-0.0441,-0.15198,-0.08469,0.02716,-0.03784,-0.02823,0.01007,-0.03769
4.5805,-0.08011,0.06378,-0.28671,-0.047,-0.03021,-0.0354,-0.01083,-0.00626,-0.03387,-0.12268,-0.04456,-0.03021,-0.03738,-0.02762,0.01175,-0.0351
4.581,-0.0882,0.03143,-0.25528,-0.07126,-0.03204,-0.03143,-0.01007,-0.00717,-0.02731,-0.09567,-0.0116,-0.06622,-0.03632,-0.02594,0.01114,-0.0354
4.5815,-0.08835,0.01373,-0.15839,-0.08667,-0.0325,-0.0238,-0.01083,-0.00732,-0.02487,-0.07431,0.01572,-0.05615,-0.03525,-0.02441,0.00854,-0.03708
4.582,-0.0972,0.00351,-0.07309,-0.08774,-0.03052,-0.01785,-0.01205,-0.00778,-0.02396,-0.06104,0.03143,-0.01984,-0.03479,-0.02487,0.00671,-0.04028
4.5825,-0.12161,-0.00549,-0.08652,-0.06851,-0.0293,-0.01373,-0.01266,-0.00763,-0.02258,-0.05188,0.02579,-0.0029,-0.0351,-0.02533,0.00702,-0.0412
4.583,-0.15152,-0.01404,-0.21378,-0.02975,-0.02945,-0.01144,-0.01114,-0.00687,-0.01617,-0.04318,-0.00198,-0.02274,-0.03571,-0.02533,0.00824,-0.04135
4.5835,-0.16342,-0.01862,-0.36102,0.0119,-0.03082,-0.01144,-0.00992,-0.00412,-0.00259,-0.02823,-0.04074,-0.04852,-0.03586,-0.02396,0.0087,-0.04196
4.584,-0.14267,-0.02274,-0.37964,0.03464,-0.03052,-0.01328,-0.01068,-0.00031,0.01038,-0.00519,-0.07187,-0.03021,-0.03555,-0.02258,0.00931,-0.04227
4.5845,-0.09689,-0.02899,-0.21347,0.03586,-0.03021,-0.01419,-0.0116,0.00153,0.01343,0.02731,-0.0798,0.03098,-0.03342,-0.02319,0.009,-0.04364
4.585,-0.04776,-0.03586,0.02289,0.02945,-0.03036,-0.0145,-0.0116,0.00015,0.00351,0.07355,-0.06927,0.08423,-0.03128,-0.02319,0.00702,-0.04547
4.5855,-0.00793,-0.03525,0.16602,0.02197,-0.03265,-0.01862,-0.01175,-0.00244,-0.00916,0.1297,-0.06058,0.08865,-0.02945,-0.02182,0.00427,-0.047
4.586,0.01785,-0.02655,0.15823,0.01129,-0.03616,-0.03052,-0.01297,-0.00427,-0.01099,0.18707,-0.06012,0.05951,-0.02899,-0.01984,0.00275,-0.04807
4.5865,0.0267,-0.02502,0.0679,-0.00626,-0.03891,-0.04715,-0.01633,-0.00412,0.00168,0.23483,-0.05173,0.03387,-0.02701,-0.01724,0.00473,-0.04868
4.587,0.01831,-0.04456,-0.0119,-0.02899,-0.04013,-0.06195,-0.01892,-0.00534,0.01755,0.27023,-0.0322,0.02167,-0.02319,-0.01434,0.00748,-0.04776
4.5875,0.00061,-0.08209,-0.05264,-0.05386,-0.0412,-0.07065,-0.01938,-0.00687,0.02243,0.29648,-0.01358,0.01251,-0.02014,-0.01221,0.0087,-0.04486
4.588,-0.01816,-0.11871,-0.07416,-0.0737,-0.04044,-0.0769,-0.0209,-0.00763,0.01175,0.31342,0.00046,-0.00244,-0.01953,-0.01099,0.00946,-0.04135
4.5885,-0.03036,-0.14526,-0.09354,-0.07843,-0.03891,-0.0824,-0.02716,-0.0061,0.00153,0.32059,0.02319,-0.02975,-0.02106,-0.0119,0.00916,-0.03784
4.589,-0.02853,-0.16418,-0.10254,-0.06393,-0.03708,-0.08606,-0.03464,-0.00595,0.01022,0.31509,0.05524,-0.06348,-0.02213,-0.01144,0.01022,-0.03647
4.5895,-0.01572,-0.17349,-0.09567,-0.03159,-0.03525,-0.08347,-0.03616,-0.00504,0.03006,0.29449,0.06592,-0.09079,-0.02197,-0.00931,0.01175,-0.03632
4.59,-0.00519,-0.16281,-0.07965,0.0087,-0.03235,-0.07767,-0.0325,-0.00397,0.03265,0.26321,0.03113,-0.09903,-0.02335,-0.009,0.01221,-0.03601
4.5905,-0.00641,-0.13077,-0.05798,0.03586,-0.03067,-0.0705,-0.02731,-0.00046,0.00336,0.2243,-0.03174,-0.08713,-0.02457,-0.01083,0.01022,-0.0351
4.591,-0.00809,-0.08652,-0.02686,0.03357,-0.03113,-0.06134,-0.02411,0.00092,-0.03998,0.1767,-0.08606,-0.05661,-0.02548,-0.01266,0.01007,-0.03494
4.5915,0.00702,-0.03937,0.00519,0.01419,-0.03189,-0.05035,-0.02106,-0.00031,-0.07309,0.12039,-0.10941,-0.01312,-0.02548,-0.01328,0.01068,-0.03647
4.592,0.03311,0.00427,0.01602,0.00397,-0.03265,-0.0415,-0.01297,-0.00275,-0.08453,0.05844,-0.10635,0.01282,-0.02716,-0.01511,0.01007,-0.0383
4.5925,0.04501,0.03189,-0.00244,0.00961,-0.03387,-0.03937,0.0061,-0.00397,-0.07538,0.00046,-0.08606,-0.0087,-0.02945,-0.01633,0.00977,-0.04074
4.593,0.03357,0.03387,-0.03479,0.0148,-0.03525,-0.04623,0.03006,-0.00427,-0.05615,-0.04898,-0.06058,-0.0621,-0.03159,-0.01648,0.01053,-0.04013
4.5935,0.01709,0.01556,-0.0737,0.01068,-0.03754,-0.05722,0.04105,-0.00366,-0.04395,-0.09125,-0.04242,-0.08545,-0.03265,-0.01495,0.01282,-0.03769
4.594,0.01434,-0.00732,-0.13107,0.00397,-0.03922,-0.06577,0.02487,-0.0029,-0.05051,-0.12421,-0.03616,-0.03845,-0.0325,-0.01282,0.0148,-0.03723
4.5945,0.02151,-0.0267,-0.20599,0.0029,-0.04013,-0.06393,-0.00366,-0.00153,-0.06714,-0.14023,-0.03647,0.04745,-0.03143,-0.01373,0.01465,-0.03952
4.595,0.02838,-0.0383,-0.25558,0.01007,-0.03937,-0.05371,-0.02106,-0.00061,-0.07172,-0.13901,-0.04013,0.11108,-0.03036,-0.01617,0.01297,-0.04242
4.5955,0.02747,-0.04242,-0.2388,0.02304,-0.03891,-0.04456,-0.01923,0.00031,-0.05585,-0.1326,-0.04868,0.12146,-0.03128,-0.01907,0.0119,-0.04242
4.596,0.01541,-0.03891,-0.17059,0.03555,-0.03677,-0.0412,-0.01083,0.00122,-0.03708,-0.13504,-0.0589,0.08331,-0.0322,-0.02167,0.00961,-0.04028
4.5965,-0.01236,-0.03204,-0.10147,0.03525,-0.03464,-0.04379,-0.00916,0.00031,-0.0296,-0.1387,-0.06134,0.01541,-0.03189,-0.02213,0.00778,-0.04074
4.597,-0.04852,-0.02701,-0.05737,0.01709,-0.03281,-0.04654,-0.01343,-0.00137,-0.02838,-0.13275,-0.05234,-0.04837,-0.03067,-0.02167,0.00626,-0.04272
4.5975,-0.07095,-0.02914,-0.02991,-0.00717,-0.03082,-0.04654,-0.01724,-0.0029,-0.01953,-0.11917,-0.03204,-0.07584,-0.02945,-0.02121,0.00656,-0.04532
4.598,-0.06485,-0.03952,-0.00412,-0.02579,-0.03006,-0.04364,-0.01877,-0.0032,-0.00031,-0.11078,0.00107,-0.06042,-0.02869,-0.01999,0.00702,-0.04654
4.5985,-0.03738,-0.05524,0.01938,-0.03586,-0.0293,-0.04059,-0.01984,-0.00275,0.01678,-0.11612,0.05051,-0.0296,-0.0293,-0.01877,0.00641,-0.04684
4.599,-0.00549,-0.06927,0.03372,-0.04028,-0.02975,-0.03738,-0.02075,-0.00229,0.0235,-0.12787,0.10223,-0.00641,-0.02991,-0.01709,0.00595,-0.04547
4.5995,0.01938,-0.07248,0.03464,-0.03983,-0.03006,-0.03311,-0.02045,-0.00214,0.0206,-0.13885,0.12772,0.00534,-0.02899,-0.01419,0.00534,-0.04395
4.6,0.03098,-0.06577,0.02762,-0.03418,-0.03067,-0.02823,-0.01892,-0.00397,0.01343,-0.14725,0.11337,0.0116,-0.02777,-0.00977,0.00641,-0.04196
4.6005,0.03555,-0.05447,0.01862,-0.02274,-0.03143,-0.02762,-0.0177,-0.00504,0.00259,-0.1535,0.07294,0.0119,-0.02701,-0.00809,0.00839,-0.04074
4.601,0.04395,-0.04379,0.01221,-0.00763,-0.03403,-0.03326,-0.01709,-0.00549,-0.0087,-0.15076,0.03311,0.00229,-0.02869,-0.00961,0.00961,-0.04166
4.6015,0.06058,-0.03555,0.00916,0.00168,-0.03403,-0.04196,-0.01602,-0.00412,-0.01175,-0.13245,0.00687,-0.01144,-0.03235,-0.01221,0.00809,-0.04013
4.602,0.07462,-0.0325,0.009,-0.00015,-0.03235,-0.04852,-0.0145,-0.00198,0.00076,-0.1001,-0.00275,-0.01862,-0.03403,-0.01556,0.00702,-0.03906
4.6025,0.07278,-0.04028,0.01129,-0.01587,-0.03052,-0.05051,-0.01389,-0.00061,0.0235,-0.05722,0.00381,-0.01495,-0.03326,-0.01968,0.00793,-0.03876
4.603,0.05173,-0.05493,0.01297,-0.04166,-0.02853,-0.04852,-0.01266,0.00061,0.04379,-0.00809,0.02274,-0.00473,-0.03159,-0.02197,0.01038,-0.03998
4.6035,0.02014,-0.06882,0.00366,-0.07294,-0.02808,-0.04471,-0.00977,0.00198,0.05402,0.04211,0.03922,-0.0029,-0.03113,-0.0235,0.01007,-0.04227
4.604,-0.00214,-0.08194,-0.02243,-0.09872,-0.02945,-0.0386,-0.00687,0.00244,0.06012,0.08835,0.04517,-0.02747,-0.03128,-0.02411,0.00839,-0.0444
4.6045,-0.00183,-0.10605,-0.05524,-0.10681,-0.03281,-0.03098,-0.0058,0.00046,0.07202,0.12283,0.04608,-0.08286,-0.03174,-0.02472,0.00885,-0.04501
4.605,0.01282,-0.13885,-0.07797,-0.10391,-0.03769,-0.02426,-0.0087,-0.00168,0.09415,0.14206,0.0618,-0.13336,-0.03067,-0.02457,0.01099,-0.04425
4.6055,0.02197,-0.16006,-0.0769,-0.10193,-0.04013,-0.01953,-0.01389,-0.00412,0.11871,0.14755,0.09979,-0.12604,-0.03036,-0.02304,0.01099,-0.04349
4.606,0.01495,-0.1564,-0.0592,-0.09613,-0.03998,-0.01892,-0.0177,-0.0058,0.1265,0.14069,0.13214,-0.05585,-0.03052,-0.02106,0.00839,-0.0441
4.6065,0.00198,-0.13489,-0.05768,-0.06821,-0.03952,-0.02182,-0.01801,-0.00626,0.10406,0.11963,0.11444,0.02228,-0.03082,-0.01968,0.00763,-0.0444
4.607,-0.00671,-0.1004,-0.10101,-0.02213,-0.03891,-0.02853,-0.01587,-0.00671,0.05539,0.08072,0.03815,0.03754,-0.03098,-0.0177,0.00854,-0.04349
4.6075,-0.01144,-0.05661,-0.17487,0.01297,-0.03662,-0.03555,-0.0148,-0.00717,-0.00458,0.03052,-0.05402,-0.02686,-0.03235,-0.01755,0.00824,-0.04166
4.608,-0.01846,-0.01892,-0.22415,0.01617,-0.03418,-0.04196,-0.01755,-0.00839,-0.06058,-0.01907,-0.11093,-0.10864,-0.03433,-0.01648,0.00824,-0.04105
4.6085,-0.02716,0.00122,-0.19653,0.00259,-0.03281,-0.04669,-0.02243,-0.00839,-0.10483,-0.05371,-0.11429,-0.11932,-0.03555,-0.01602,0.00519,-0.04135
4.609,-0.03204,0.00687,-0.09003,-0.00549,-0.03326,-0.04837,-0.02777,-0.00702,-0.13062,-0.07111,-0.07858,-0.03677,-0.03525,-0.01633,0.00412,-0.04105
4.6095,-0.03098,0.01144,0.05432,-0.01526,-0.03418,-0.04868,-0.03052,-0.00687,-0.13641,-0.07675,-0.02304,0.07492,-0.03418,-0.01694,0.00763,-0.03998
4.61,-0.03052,0.01526,0.17624,-0.05066,-0.03387,-0.04913,-0.02777,-0.00839,-0.13046,-0.08133,0.0412,0.14145,-0.03448,-0.01709,0.01038,-0.03815
4.6105,-0.03525,0.01312,0.23666,-0.11917,-0.03342,-0.05081,-0.02228,-0.00916,-0.12268,-0.09415,0.1091,0.1474,-0.03586,-0.01785,0.00992,-0.03891
4.611,-0.03845,0.00839,0.22858,-0.18845,-0.03311,-0.05539,-0.01724,-0.00732,-0.11978,-0.11673,0.1622,0.12512,-0.03662,-0.01923,0.00732,-0.0412
4.6115,-0.03479,0.02075,0.16479,-0.21622,-0.03204,-0.05844,-0.01434,-0.00366,-0.12115,-0.13931,0.17853,0.09918,-0.03586,-0.01892,0.00641,-0.04364
4.612,-0.02502,0.05096,0.06577,-0.16739,-0.03067,-0.05936,-0.01266,-0.00168,-0.11566,-0.14816,0.1503,0.06927,-0.03555,-0.01801,0.00595,-0.0444
4.6125,-0.00824,0.0827,-0.03891,-0.02502,-0.02777,-0.05661,-0.01205,0.0,-0.09872,-0.14343,0.08774,0.0383,-0.03525,-0.01755,0.0061,-0.04288
4.613,0.01678,0.09949,-0.11765,0.18234,-0.02609,-0.05066,-0.01099,0.00351,-0.07584,-0.13123,0.00854,0.02106,-0.03555,-0.01877,0.00595,-0.04074
4.6135,0.04562,0.10101,-0.16479,0.36545,-0.02502,-0.04532,-0.00961,0.00809,-0.05905,-0.12009,-0.07309,0.02106,-0.0351,-0.01938,0.00717,-0.0386
4.614,0.06348,0.09689,-0.17975,0.42404,-0.0264,-0.04196,-0.00854,0.01007,-0.05341,-0.11154,-0.1442,0.01007,-0.03433,-0.01938,0.01053,-0.0386
4.6145,0.06256,0.09018,-0.14664,0.33218,-0.03098,-0.0412,-0.00961,0.00824,-0.0502,-0.10269,-0.18982,-0.03952,-0.03357,-0.01984,0.01175,-0.03815
4.615,0.04868,0.07858,-0.05844,0.15808,-0.03464,-0.04318,-0.01053,0.0029,-0.04349,-0.09384,-0.19653,-0.10284,-0.03418,-0.02319,0.01129,-0.03784
4.6155,0.03281,0.06042,0.03357,-0.00107,-0.0383,-0.04608,-0.01175,-0.00244,-0.03494,-0.08163,-0.16815,-0.11765,-0.0354,-0.0264,0.01114,-0.03723
4.616,0.01801,0.03403,0.06363,-0.08682,-0.03983,-0.04837,-0.01266,-0.00534,-0.02899,-0.06104,-0.13,-0.0592,-0.03555,-0.02594,0.01068,-0.03845
4.6165,0.00427,0.00519,0.03052,-0.08804,-0.04074,-0.04822,-0.01373,-0.0058,-0.02075,-0.03036,-0.09949,0.02655,-0.0325,-0.02182,0.00977,-0.04074
4.617,-0.01541,-0.01663,-0.01007,-0.03082,-0.03952,-0.04593,-0.01572,-0.00717,-0.00198,0.00854,-0.07492,0.07904,-0.02823,-0.01846,0.00839,-0.04272
4.6175,-0.0441,-0.02731,-0.02777,0.02457,-0.03708,-0.04379,-0.01785,-0.01007,0.01907,0.04227,-0.04105,0.07965,-0.02548,-0.01602,0.00671,-0.04379
4.618,-0.07507,-0.03159,-0.03052,0.02396,-0.03693,-0.04486,-0.01831,-0.0119,0.02823,0.05676,0.01251,0.06256,-0.0267,-0.01587,0.00671,-0.04349
4.6185,-0.0943,-0.03387,-0.02899,-0.03128,-0.03708,-0.04944,-0.01709,-0.01129,0.02243,0.04669,0.06989,0.0621,-0.02914,-0.01663,0.00717,-0.04196
4.619,-0.09155,-0.0354,-0.01633,-0.09872,-0.03769,-0.05356,-0.01678,-0.009,0.01221,0.0177,0.08774,0.07767,-0.03067,-0.01846,0.00748,-0.0412
4.6195,-0.07248,-0.03387,0.0058,-0.13962,-0.03586,-0.05676,-0.01755,-0.00687,0.01144,-0.01312,0.04105,0.07904,-0.03098,-0.01938,0.00763,-0.0412
4.62,-0.05249,-0.03189,0.02884,-0.14374,-0.03448,-0.05875,-0.01785,-0.0061,0.01984,-0.03265,-0.03891,0.05295,-0.03098,-0.01877,0.00763,-0.04089
4.6205,-0.03754,-0.02899,0.05737,-0.11826,-0.03418,-0.05966,-0.01587,-0.00473,0.03189,-0.03601,-0.09598,0.01755,-0.03189,-0.01694,0.0087,-0.04105
4.621,-0.01953,-0.02838,0.10483,-0.08102,-0.03403,-0.05814,-0.01556,-0.00198,0.04227,-0.02991,-0.10498,0.00427,-0.03143,-0.01602,0.00839,-0.04303
4.6215,0.00092,-0.03998,0.16449,-0.04959,-0.03311,-0.05569,-0.01648,0.00015,0.04807,-0.02502,-0.08408,0.01541,-0.03021,-0.01694,0.00656,-0.04425
4.622,0.01373,-0.07187,0.20676,-0.0264,-0.03204,-0.05417,-0.01617,0.00015,0.04593,-0.02747,-0.06149,0.01877,-0.02945,-0.01877,0.00595,-0.04471
4.6225,0.00977,-0.11826,0.2037,0.00107,-0.03189,-0.05386,-0.01404,-0.00076,0.03632,-0.03296,-0.04547,-0.01572,-0.03067,-0.02106,0.00641,-0.0441
4.623,0.00153,-0.16449,0.15915,0.03662,-0.03265,-0.05539,-0.01221,-0.00122,0.0267,-0.03387,-0.02945,-0.07263,-0.03265,-0.02243,0.00641,-0.04303
4.6235,0.00015,-0.19104,0.09186,0.06424,-0.0325,-0.05768,-0.01068,-0.00229,0.02609,-0.02594,-0.0061,-0.10208,-0.03357,-0.02197,0.0061,-0.04135
4.624,0.0029,-0.18799,0.01205,0.06821,-0.03067,-0.05966,-0.00931,-0.00198,0.0322,-0.01358,0.02808,-0.06775,-0.0325,-0.02014,0.00793,-0.04074
4.6245,0.0058,-0.159,-0.07126,0.05005,-0.02975,-0.05951,-0.00885,-0.00198,0.02884,-0.00351,0.06927,0.01358,-0.03143,-0.01953,0.009,-0.04105
4.625,0.01022,-0.12955,-0.13275,0.02213,-0.02945,-0.05814,-0.01007,-0.00076,0.00778,-0.00443,0.08942,0.08301,-0.03143,-0.01846,0.01053,-0.04074
4.6255,0.0206,-0.1239,-0.1416,-0.00168,-0.02884,-0.05692,-0.01068,-0.00031,-0.0238,-0.01389,0.05814,0.08591,-0.03098,-0.01678,0.01068,-0.03845
4.626,0.0322,-0.13855,-0.10223,-0.01892,-0.02747,-0.05432,-0.01083,-0.00031,-0.05569,-0.0264,-0.01923,0.02884,-0.03098,-0.01358,0.01007,-0.03738
4.6265,0.03677,-0.14374,-0.04837,-0.03433,-0.02594,-0.05264,-0.00977,-0.00031,-0.08362,-0.03647,-0.09918,-0.02243,-0.03204,-0.01175,0.00977,-0.0383
4.627,0.03082,-0.12299,-0.0119,-0.05661,-0.0235,-0.05219,-0.01053,-0.00229,-0.1033,-0.04074,-0.14786,-0.01831,-0.03357,-0.01251,0.0087,-0.03998
4.6275,0.0174,-0.09323,0.00443,-0.08011,-0.0206,-0.05478,-0.01251,-0.00717,-0.10941,-0.04425,-0.16724,0.02167,-0.03479,-0.01602,0.009,-0.04028
4.628,0.00336,-0.0705,0.00488,-0.0943,-0.02197,-0.0589,-0.01373,-0.01175,-0.10178,-0.05402,-0.16769,0.04745,-0.03601,-0.01907,0.0087,-0.04105
4.6285,-0.00687,-0.05051,-0.01358,-0.09628,-0.0238,-0.06149,-0.01358,-0.01175,-0.08255,-0.06851,-0.13885,0.03723,-0.03601,-0.01999,0.00732,-0.04181
4.629,-0.01633,-0.02457,-0.05722,-0.08972,-0.02579,-0.05905,-0.01419,-0.00763,-0.05554,-0.0769,-0.07202,0.00702,-0.03601,-0.0206,0.00671,-0.04257
4.6295,-0.02716,-0.00107,-0.11398,-0.06668,-0.02411,-0.05188,-0.01526,-0.00351,-0.02563,-0.07111,0.00748,-0.02243,-0.0354,-0.02197,0.00732,-0.04288
4.63,-0.03632,0.00595,-0.16846,-0.02457,-0.02121,-0.04364,-0.0148,-0.00244,-0.00183,-0.06393,0.05951,-0.04745,-0.03387,-0.02304,0.00793,-0.0412
4.6305,-0.03311,-0.00244,-0.20508,0.01694,-0.01923,-0.03845,-0.01312,-0.00397,0.00992,-0.07202,0.07401,-0.06714,-0.03143,-0.02289,0.00778,-0.03906
4.631,-0.01297,-0.01312,-0.22018,0.03891,-0.01892,-0.03403,-0.01083,-0.00336,0.01038,-0.08789,0.06866,-0.07797,-0.02975,-0.02197,0.00656,-0.03815
4.6315,0.01312,-0.02106,-0.21652,0.04074,-0.01938,-0.0296,-0.00961,-0.00214,0.00534,-0.08896,0.06393,-0.08896,-0.02945,-0.02014,0.00717,-0.03845
4.632,0.03052,-0.02686,-0.20142,0.03387,-0.02045,-0.0267,-0.01038,-0.00031,-0.00244,-0.06714,0.05539,-0.11612,-0.0293,-0.01862,0.00916,-0.04028
4.6325,0.0325,-0.03464,-0.17807,0.02243,-0.02228,-0.02609,-0.01343,-0.00046,-0.0116,-0.03204,0.03403,-0.15121,-0.02991,-0.01816,0.00977,-0.04196
4.633,0.02792,-0.04852,-0.1474,0.00946,-0.02472,-0.02716,-0.01877,-0.00168,-0.01709,-0.00168,0.00137,-0.15305,-0.03036,-0.01892,0.00809,-0.04318
4.6335,0.02289,-0.07553,-0.103,0.00504,-0.02518,-0.03021,-0.02136,-0.00183,-0.01541,0.01495,-0.03281,-0.08713,-0.03082,-0.02182,0.00656,-0.04395
4.634,0.01678,-0.10117,-0.05737,0.00534,-0.02304,-0.03357,-0.01999,-0.00198,-0.00793,0.02136,-0.0621,0.02029,-0.03113,-0.02518,0.0058,-0.04379
4.6345,0.00565,-0.10056,-0.04547,-0.00473,-0.02289,-0.03555,-0.01465,-0.00275,0.00046,0.02716,-0.08148,0.09247,-0.03189,-0.0267,0.00656,-0.04318
4.635,-0.01175,-0.06699,-0.07996,-0.02991,-0.02365,-0.03799,-0.01053,-0.00305,0.0058,0.03418,-0.08499,0.07782,-0.03387,-0.02655,0.00793,-0.04288
4.6355,-0.03571,-0.02365,-0.13016,-0.04898,-0.02548,-0.03967,-0.01099,-0.0029,0.01068,0.04074,-0.07095,0.01221,-0.03616,-0.0235,0.00793,-0.04318
4.636,-0.0592,0.00275,-0.15518,-0.03326,-0.0264,-0.04089,-0.01389,-0.00183,0.01953,0.0444,-0.03998,-0.01999,-0.03616,-0.01984,0.00824,-0.04333
4.6365,-0.06058,0.00687,-0.15961,0.02213,-0.02579,-0.04318,-0.01663,-0.00031,0.0325,0.04791,0.00778,0.02197,-0.03571,-0.01556,0.00778,-0.04318
4.637,-0.02869,-0.00183,-0.16357,0.08881,-0.02563,-0.04471,-0.01724,0.0,0.04257,0.05432,0.06073,0.0882,-0.03494,-0.01251,0.00748,-0.04349
4.6375,0.01099,-0.01068,-0.16144,0.11795,-0.02472,-0.04303,-0.01755,-0.00061,0.04486,0.06714,0.09247,0.10254,-0.03372,-0.00992,0.00778,-0.0441
4.638,0.0235,-0.01205,-0.14801,0.08408,-0.02472,-0.03754,-0.01587,0.00015,0.04593,0.08026,0.09232,0.0528,-0.0322,-0.00946,0.00717,-0.04501
4.6385,0.0029,-0.00702,-0.16251,0.01526,-0.02304,-0.0322,-0.01404,0.00046,0.05402,0.08347,0.08301,-0.00473,-0.03189,-0.0116,0.00641,-0.04608
4.639,-0.02411,-0.00671,-0.22034,-0.0293,-0.02441,-0.03113,-0.01297,0.0,0.06668,0.06821,0.08926,-0.0174,-0.03403,-0.01511,0.00534,-0.04562
4.6395,-0.03479,-0.02075,-0.2504,-0.02365,-0.02502,-0.03616,-0.01312,-0.00153,0.07217,0.03891,0.10086,0.01816,-0.03677,-0.01755,0.0061,-0.04395
4.64,-0.03296,-0.05005,-0.18143,0.00107,-0.02655,-0.04333,-0.01404,-0.00275,0.06577,0.00519,0.09048,0.07248,-0.03799,-0.01724,0.00748,-0.04135
4.6405,-0.03036,-0.0856,-0.0676,0.00656,-0.02609,-0.05142,-0.0148,-0.00336,0.04913,-0.02289,0.05081,0.11261,-0.03769,-0.0148,0.00778,-0.03906
4.641,-0.03281,-0.1236,-0.03632,-0.00381,-0.02548,-0.05737,-0.01541,-0.00381,0.02426,-0.04303,-0.00946,0.11322,-0.03708,-0.01404,0.00854,-0.03815
4.6415,-0.03311,-0.15854,-0.10239,-0.00687,-0.0267,-0.05936,-0.01526,-0.00443,-0.0087,-0.05844,-0.07523,0.07019,-0.03632,-0.0148,0.00839,-0.03799
4.642,-0.03128,-0.17883,-0.14084,0.00168,-0.02914,-0.05737,-0.01328,-0.0029,-0.0441,-0.06439,-0.12482,0.009,-0.03708,-0.01709,0.00687,-0.03891
4.6425,-0.02808,-0.17258,-0.05737,0.00107,-0.02914,-0.05493,-0.01175,-0.00122,-0.06866,-0.05768,-0.13474,-0.03189,-0.03906,-0.01877,0.00443,-0.03937
4.643,-0.02625,-0.14343,0.09537,-0.0177,-0.02838,-0.05432,-0.01236,-0.00137,-0.07706,-0.0473,-0.10117,-0.03967,-0.04059,-0.01816,0.00397,-0.03983
4.6435,-0.02533,-0.10559,0.20966,-0.04379,-0.02899,-0.05569,-0.01465,-0.0029,-0.08041,-0.05096,-0.04791,-0.02869,-0.04074,-0.01587,0.00565,-0.04028
4.644,-0.02213,-0.06866,0.25024,-0.06409,-0.03098,-0.05661,-0.01617,-0.00473,-0.09048,-0.07156,0.00198,-0.01465,-0.03769,-0.01373,0.00793,-0.04105
4.6445,-0.01587,-0.0325,0.2565,-0.0798,-0.03403,-0.05508,-0.01633,-0.0058,-0.10986,-0.09354,0.03998,-0.0029,-0.03555,-0.01404,0.00824,-0.04227
4.645,-0.00641,0.00397,0.2652,-0.09232,-0.03555,-0.05463,-0.01633,-0.0058,-0.13107,-0.103,0.06668,0.00259,-0.03525,-0.01663,0.00793,-0.04425
4.6455,0.00504,0.0354,0.27054,-0.09338,-0.03632,-0.05264,-0.01694,-0.0058,-0.14175,-0.10132,0.07675,-0.00107,-0.03693,-0.02213,0.00687,-0.04517
4.646,0.01801,0.05615,0.2475,-0.08026,-0.03494,-0.05005,-0.0177,-0.0061,-0.13702,-0.09659,0.07614,-0.00366,-0.0386,-0.0264,0.0058,-0.04532
4.6465,0.03006,0.06882,0.18951,-0.06287,-0.03342,-0.047,-0.01907,-0.00717,-0.12009,-0.08743,0.07477,0.00671,-0.03784,-0.02716,0.00534,-0.04379
4.647,0.0386,0.07278,0.11612,-0.05661,-0.03281,-0.04547,-0.0209,-0.00793,-0.10101,-0.07309,0.06638,0.02533,-0.03494,-0.02579,0.00504,-0.04211
4.6475,0.03876,0.06821,0.05508,-0.07263,-0.03281,-0.04776,-0.02045,-0.00778,-0.08606,-0.05295,0.02426,0.03357,-0.03357,-0.02472,0.00519,-0.04257
4.648,0.03326,0.05707,0.01511,-0.09674,-0.03235,-0.05142,-0.01556,-0.00549,-0.07141,-0.0235,-0.0499,0.02151,-0.03479,-0.02594,0.00656,-0.04379
4.6485,0.02945,0.04425,-0.009,-0.08514,-0.0325,-0.05356,-0.00839,-0.00214,-0.05112,0.01083,-0.11993,-0.00504,-0.03464,-0.02686,0.00687,-0.04349
4.649,0.03067,0.03052,-0.02228,0.01114,-0.03296,-0.05402,-0.00214,0.00137,-0.02655,0.04196,-0.15488,-0.03372,-0.0322,-0.02701,0.00641,-0.04242
4.6495,0.03235,0.01328,-0.01938,0.15579,-0.03311,-0.0528,0.00153,0.00183,-0.0032,0.06653,-0.15076,-0.04974,-0.02747,-0.02655,0.00626,-0.04227
4.65,0.02991,-0.00198,-0.00412,0.23422,-0.03357,-0.04898,-0.00061,0.00015,0.01343,0.08896,-0.11612,-0.05432,-0.02502,-0.02548,0.00626,-0.04379
4.6505,0.02487,-0.00992,0.01114,0.18906,-0.03403,-0.0444,-0.00565,0.0,0.02533,0.11398,-0.06729,-0.06119,-0.02472,-0.02396,0.00565,-0.04486
4.651,0.02197,-0.00839,0.00183,0.08652,-0.03448,-0.03983,-0.01022,0.00229,0.03555,0.1358,-0.02365,-0.07431,-0.0264,-0.02029,0.00504,-0.04318
4.6515,0.01907,-0.0058,-0.04944,-0.00214,-0.03403,-0.03708,-0.01114,0.00397,0.04364,0.14801,-0.00031,-0.08118,-0.02731,-0.0174,0.00626,-0.04074
4.652,0.01251,-0.00793,-0.13702,-0.08911,-0.03418,-0.03647,-0.01038,0.00244,0.04913,0.14587,0.00153,-0.07141,-0.02716,-0.01694,0.00839,-0.04028
4.6525,-0.00107,-0.01419,-0.22278,-0.19653,-0.03586,-0.03738,-0.01129,-0.00061,0.04929,0.13123,-0.00839,-0.05188,-0.02609,-0.0174,0.00961,-0.04044
4.653,-0.01434,-0.02396,-0.26093,-0.28061,-0.04059,-0.03937,-0.0145,-0.00412,0.0441,0.11307,-0.0174,-0.03143,-0.0267,-0.01602,0.00946,-0.03998
4.6535,-0.01175,-0.03647,-0.23605,-0.27603,-0.04669,-0.04272,-0.01587,-0.00732,0.03525,0.10193,-0.01312,-0.01022,-0.02762,-0.01404,0.01083,-0.03891
4.654,0.01038,-0.0473,-0.18204,-0.15747,-0.05142,-0.04593,-0.01511,-0.00809,0.02579,0.10147,0.00031,0.01083,-0.02838,-0.01251,0.01144,-0.03876
4.6545,0.03159,-0.05264,-0.14511,0.03662,-0.05127,-0.04974,-0.01724,-0.00534,0.01892,0.09842,-0.00336,0.02106,-0.02808,-0.01343,0.00961,-0.04105
4.655,0.02716,-0.05341,-0.12573,0.20721,-0.04807,-0.05203,-0.02319,0.00015,0.01999,0.08301,-0.04623,0.00763,-0.02899,-0.01373,0.00763,-0.04395
4.6555,-0.00259,-0.06058,-0.07828,0.24673,-0.04349,-0.05539,-0.02808,0.00305,0.02899,0.0528,-0.11215,-0.02274,-0.03021,-0.01251,0.00748,-0.04532
4.656,-0.03342,-0.07568,0.01816,0.15503,-0.04059,-0.06088,-0.02289,0.00214,0.03616,0.02365,-0.17075,-0.05096,-0.02991,-0.0116,0.00778,-0.04517
4.6565,-0.04837,-0.0943,0.12375,0.04349,-0.03891,-0.06546,-0.01251,-0.00031,0.0296,0.00214,-0.20538,-0.05463,-0.03006,-0.0119,0.00778,-0.04425
4.657,-0.05142,-0.11063,0.18463,0.00015,-0.03677,-0.06516,-0.00732,-0.00244,0.00412,-0.01602,-0.21103,-0.02731,-0.03326,-0.0148,0.00748,-0.04211
4.6575,-0.05325,-0.12314,0.18585,0.00732,-0.03723,-0.06073,-0.00778,-0.00259,-0.03403,-0.03754,-0.18463,0.01175,-0.03738,-0.01785,0.00748,-0.04028
4.658,-0.05692,-0.13214,0.1532,0.01419,-0.03937,-0.05875,-0.01129,-0.0029,-0.06927,-0.065,-0.13535,0.0354,-0.04044,-0.0209,0.00732,-0.03922
4.6585,-0.05707,-0.12878,0.10956,0.01724,-0.03845,-0.05905,-0.01282,-0.00275,-0.08423,-0.09567,-0.08514,0.03113,-0.03937,-0.02106,0.00732,-0.03922
4.659,-0.0502,-0.10529,0.06287,0.04211,-0.03708,-0.06042,-0.01282,-0.00214,-0.07614,-0.12573,-0.0444,0.00519,-0.03662,-0.01984,0.00809,-0.03937
4.6595,-0.03616,-0.06393,0.01312,0.07233,-0.03586,-0.05966,-0.01282,-0.00076,-0.06531,-0.14908,-0.01038,-0.03204,-0.0351,-0.01877,0.00992,-0.04074
4.66,-0.02274,-0.01633,-0.04196,0.056,-0.03662,-0.05692,-0.01175,0.00092,-0.06927,-0.16785,0.01709,-0.05661,-0.03601,-0.01907,0.01205,-0.04028
4.6605,-0.01709,0.01999,-0.09521,-0.01617,-0.0386,-0.05325,-0.01007,0.00183,-0.08102,-0.17944,0.03204,-0.03693,-0.03662,-0.0209,0.01236,-0.04013
4.661,-0.01862,0.03647,-0.13123,-0.08575,-0.04044,-0.0499,-0.01068,0.00046,-0.07858,-0.18143,0.03387,0.02747,-0.03555,-0.0238,0.01099,-0.03998
4.6615,-0.02029,0.03647,-0.13718,-0.0946,-0.04028,-0.04776,-0.01251,-0.0032,-0.05234,-0.1651,0.03342,0.09399,-0.03403,-0.02487,0.00916,-0.04211
4.662,-0.0148,0.02838,-0.1181,-0.05157,-0.0383,-0.04761,-0.01434,-0.00778,-0.02075,-0.13092,0.03952,0.11719,-0.03448,-0.02579,0.00824,-0.04349
4.6625,-0.00092,0.01633,-0.09476,-0.00351,-0.03647,-0.04486,-0.0145,-0.00931,-0.00549,-0.08286,0.05692,0.08759,-0.03448,-0.02563,0.00854,-0.04379
4.663,0.01328,-0.00046,-0.08301,0.02228,-0.03494,-0.04288,-0.01343,-0.00809,-0.00778,-0.03494,0.09262,0.01938,-0.03403,-0.02289,0.00854,-0.04211
4.6635,0.02075,-0.0264,-0.08835,0.03189,-0.03235,-0.04227,-0.01343,-0.00641,-0.0145,0.00458,0.1416,-0.06271,-0.03204,-0.0177,0.01068,-0.04059
4.664,0.01984,-0.06088,-0.11154,0.02899,-0.02945,-0.04379,-0.01389,-0.00565,-0.01526,0.03494,0.17365,-0.12817,-0.03067,-0.01022,0.01328,-0.03906
4.6645,0.01465,-0.09262,-0.14435,0.01007,-0.02701,-0.04547,-0.01511,-0.00565,-0.00931,0.05615,0.16159,-0.16663,-0.03021,-0.00458,0.0148,-0.03769
4.665,0.00992,-0.11108,-0.1651,-0.01297,-0.02609,-0.04639,-0.01617,-0.00565,0.00107,0.06149,0.12177,-0.18127,-0.02991,-0.00229,0.01312,-0.03723
4.6655,0.00412,-0.11505,-0.14969,-0.009,-0.02625,-0.04684,-0.01617,-0.00412,0.01328,0.03983,0.09109,-0.15961,-0.02914,-0.0061,0.01038,-0.0383
4.666,-0.00458,-0.11063,-0.09613,0.02136,-0.02823,-0.0473,-0.01434,-0.00214,0.02029,-0.00305,0.07492,-0.07919,-0.02991,-0.01312,0.00824,-0.04013
4.6665,-0.01343,-0.09583,-0.02869,0.0354,-0.02991,-0.04684,-0.01129,0.0,0.02533,-0.05341,0.05508,0.04669,-0.03174,-0.01938,0.00854,-0.0415
4.667,-0.0209,-0.07172,0.02731,0.009,-0.03036,-0.04333,-0.00946,0.00305,0.03265,-0.09613,0.03647,0.15106,-0.03281,-0.02289,0.01038,-0.04227
4.6675,-0.02609,-0.04532,0.06287,-0.02914,-0.02945,-0.04028,-0.00839,0.00458,0.04395,-0.13062,0.0354,0.1712,-0.03189,-0.02365,0.0116,-0.04227
4.668,-0.02945,-0.02365,0.07919,-0.05447,-0.02777,-0.03784,-0.00916,0.00427,0.04944,-0.16571,0.04868,0.12238,-0.03067,-0.02411,0.01083,-0.04364
4.6685,-0.02731,-0.00732,0.08255,-0.08392,-0.02609,-0.03952,-0.01175,0.00153,0.04044,-0.20401,0.05188,0.06943,-0.03021,-0.02411,0.01114,-0.04517
4.669,-0.01816,0.00229,0.08041,-0.12726,-0.02563,-0.04272,-0.01434,-0.00259,0.02228,-0.23483,0.03403,0.03799,-0.03082,-0.0238,0.01053,-0.04562
4.6695,-0.00351,0.00275,0.07401,-0.1535,-0.0235,-0.04486,-0.01511,-0.00427,0.01129,-0.23727,-0.00214,0.00183,-0.03113,-0.02167,0.01114,-0.04303
4.67,0.00732,-0.00931,0.05203,-0.1384,-0.01984,-0.0444,-0.01312,-0.00443,0.00992,-0.20569,-0.04318,-0.0441,-0.03174,-0.02045,0.01129,-0.04044
4.6705,0.0087,-0.02579,0.00259,-0.103,-0.0177,-0.04242,-0.0119,-0.00366,0.0032,-0.15274,-0.06592,-0.05798,-0.03174,-0.02029,0.0116,-0.04135
4.671,0.00488,-0.03281,-0.05997,-0.06851,-0.01877,-0.03998,-0.01114,-0.00412,-0.01984,-0.09613,-0.05508,-0.01816,-0.03082,-0.02075,0.01129,-0.04364
4.6715,0.00046,-0.02243,-0.09323,-0.01785,-0.02213,-0.03952,-0.01053,-0.00381,-0.04562,-0.04364,-0.03113,0.02594,-0.0293,-0.01968,0.00961,-0.04532
4.672,-0.00336,-0.00473,-0.06104,0.05936,-0.02502,-0.0383,-0.00916,-0.00351,-0.05478,0.00458,-0.03555,0.0148,-0.03036,-0.01724,0.00961,-0.04471
4.6725,-0.00732,0.00443,0.00992,0.12527,-0.0267,-0.03708,-0.00824,-0.00458,-0.05066,0.04532,-0.07416,-0.03433,-0.03311,-0.01663,0.01053,-0.04272
4.673,-0.01022,0.00275,0.05417,0.13687,-0.02823,-0.03784,-0.00961,-0.0061,-0.0528,0.07843,-0.10803,-0.05005,-0.03479,-0.01694,0.01099,-0.0415
4.6735,-0.01205,-0.00534,0.03403,0.09064,-0.03021,-0.04135,-0.01266,-0.00778,-0.06805,0.10727,-0.10742,-0.00427,-0.03418,-0.01831,0.01022,-0.04059
4.674,-0.01358,-0.01663,-0.01755,0.01968,-0.03281,-0.04868,-0.01541,-0.00809,-0.07736,0.13733,-0.08469,0.05661,-0.03311,-0.01907,0.00763,-0.03998
4.6745,-0.01282,-0.02899,-0.04288,-0.04303,-0.03418,-0.05569,-0.01892,-0.00778,-0.06363,0.16312,-0.06424,0.08041,-0.03174,-0.01923,0.00534,-0.03922
4.675,-0.00793,-0.04684,-0.02869,-0.07523,-0.03494,-0.0592,-0.02182,-0.00732,-0.03128,0.16922,-0.047,0.07324,-0.03143,-0.01892,0.00412,-0.03876
4.6755,0.00046,-0.07965,-0.0177,-0.07263,-0.03479,-0.0592,-0.02213,-0.00641,-0.0032,0.15015,-0.02853,0.08102,-0.03128,-0.01862,0.00427,-0.03983
4.676,0.01007,-0.12604,-0.04471,-0.05325,-0.03571,-0.05341,-0.01923,-0.00549,0.00427,0.11581,-0.01663,0.11581,-0.03204,-0.01938,0.0029,-0.04196
4.6765,0.02151,-0.16434,-0.08652,-0.03586,-0.03693,-0.04562,-0.01541,-0.00427,-0.00443,0.08148,-0.02777,0.14252,-0.03204,-0.02045,0.0029,-0.04379
4.677,0.03418,-0.17181,-0.08926,-0.02289,-0.03693,-0.04242,-0.01404,-0.00412,-0.01404,0.04913,-0.05554,0.13199,-0.03159,-0.0206,0.00519,-0.04486
4.6775,0.0444,-0.14816,-0.04181,-0.00687,-0.03571,-0.04929,-0.01404,-0.00488,-0.01633,0.01862,-0.08224,0.08881,-0.03082,-0.02014,0.00717,-0.04654
4.678,0.04547,-0.10727,0.0174,0.00931,-0.0325,-0.06042,-0.01602,-0.0061,-0.01343,-0.01389,-0.09689,0.03235,-0.03082,-0.02045,0.00626,-0.0473
4.6785,0.03479,-0.06027,0.05005,0.01312,-0.03311,-0.06821,-0.01801,-0.00641,-0.01251,-0.04898,-0.09827,-0.02914,-0.03036,-0.0206,0.00488,-0.04715
4.679,0.01541,-0.01526,0.04944,0.00259,-0.03525,-0.07019,-0.02029,-0.00565,-0.01434,-0.0766,-0.08713,-0.07843,-0.02945,-0.02106,0.00473,-0.04608
4.6795,-0.00687,0.01984,0.01587,-0.00992,-0.03723,-0.06653,-0.01984,-0.00351,-0.01541,-0.08545,-0.06638,-0.08347,-0.02777,-0.02106,0.0061,-0.04517
4.68,-0.02991,0.03601,-0.06454,-0.01678,-0.03647,-0.0592,-0.0177,-0.00107,-0.01526,-0.07217,-0.04913,-0.03159,-0.02655,-0.02106,0.00778,-0.04379
4.6805,-0.04883,0.03143,-0.17639,-0.02808,-0.03403,-0.05249,-0.01572,-0.00092,-0.01602,-0.05219,-0.04593,0.04013,-0.02625,-0.02274,0.00946,-0.04364
4.681,-0.06119,0.01389,-0.24887,-0.04761,-0.03326,-0.04898,-0.01526,-0.00275,-0.0177,-0.03983,-0.047,0.07416,-0.02823,-0.02487,0.00961,-0.04318
4.6815,-0.06668,-0.00656,-0.21469,-0.05432,-0.03357,-0.04898,-0.0148,-0.00473,-0.01938,-0.04013,-0.04303,0.04425,-0.03113,-0.02609,0.00961,-0.04303
4.682,-0.06607,-0.02243,-0.10468,-0.02991,-0.03448,-0.05081,-0.01419,-0.00427,-0.01984,-0.04745,-0.03265,-0.00809,-0.03174,-0.02487,0.01022,-0.0415
4.6825,-0.05676,-0.03143,-0.01541,0.01266,-0.0351,-0.05157,-0.0145,-0.00366,-0.02106,-0.05295,-0.02182,-0.02365,-0.03036,-0.02136,0.00977,-0.04166
4.683,-0.0351,-0.03326,0.00427,0.0441,-0.0354,-0.04959,-0.01434,-0.0029,-0.02136,-0.04669,-0.0145,0.00717,-0.02853,-0.01785,0.00931,-0.0415
4.6835,-0.00656,-0.03464,-0.01358,0.0531,-0.0351,-0.04623,-0.01419,-0.00244,-0.01678,-0.02441,-0.0061,0.04562,-0.0267,-0.01526,0.00809,-0.04028
4.684,0.01877,-0.04517,-0.02106,0.05493,-0.03571,-0.04135,-0.0148,-0.00031,-0.01205,0.01068,0.00366,0.0528,-0.02548,-0.01434,0.00641,-0.04028
4.6845,0.03403,-0.07904,-0.02228,0.06546,-0.03555,-0.03632,-0.01434,0.00046,-0.0119,0.04959,0.01373,0.03235,-0.02457,-0.01404,0.00534,-0.0412
4.685,0.04242,-0.13336,-0.0499,0.08362,-0.03357,-0.03265,-0.01312,-0.00015,-0.01755,0.08087,0.02045,0.00732,-0.02457,-0.01282,0.00534,-0.04227
4.6855,0.04623,-0.18082,-0.11597,0.09949,-0.03265,-0.03006,-0.0119,-0.00153,-0.02136,0.09689,0.02319,-0.01251,-0.0267,-0.01236,0.00549,-0.04349
4.686,0.04242,-0.19043,-0.18829,0.09857,-0.03265,-0.0293,-0.01175,-0.00122,-0.02045,0.09842,0.02167,-0.03265,-0.02945,-0.01419,0.0061,-0.04379
4.6865,0.03067,-0.15793,-0.20966,0.06149,-0.03418,-0.03342,-0.01236,-0.00061,-0.01892,0.08942,0.01984,-0.05203,-0.03159,-0.01572,0.00549,-0.04364
4.687,0.01877,-0.11047,-0.15457,-0.01602,-0.03525,-0.04379,-0.01343,-0.00214,-0.02167,0.07492,0.02518,-0.06363,-0.03189,-0.01633,0.0058,-0.04379
4.6875,0.01709,-0.07462,-0.0502,-0.10666,-0.03616,-0.05539,-0.01328,-0.00397,-0.02686,0.05508,0.04944,-0.06485,-0.03265,-0.01862,0.00748,-0.04349
4.688,0.02884,-0.05325,0.04684,-0.1561,-0.03586,-0.06226,-0.01266,-0.00412,-0.02533,0.03021,0.0946,-0.05493,-0.0354,-0.0209,0.00885,-0.04257
4.6885,0.04547,-0.0354,0.09827,-0.13214,-0.03448,-0.06027,-0.01236,-0.00122,-0.01038,0.00946,0.1387,-0.03143,-0.0383,-0.02213,0.00992,-0.04257
4.689,0.05844,-0.01465,0.09811,-0.06897,-0.03296,-0.05341,-0.01205,0.00137,0.01419,-0.00458,0.14694,0.00549,-0.0412,-0.02289,0.00977,-0.04196
4.6895,0.06332,0.00458,0.065,-0.03036,-0.03067,-0.04684,-0.01068,0.0029,0.03479,-0.0174,0.10971,0.04242,-0.04166,-0.02228,0.00931,-0.04211
4.69,0.06195,0.01648,0.01602,-0.03952,-0.02808,-0.04227,-0.00992,0.00153,0.04166,-0.03693,0.06058,0.05798,-0.03922,-0.02243,0.01022,-0.04242
4.6905,0.05737,0.02228,-0.03342,-0.06149,-0.02701,-0.04166,-0.0116,-0.00153,0.0354,-0.06165,0.03189,0.04456,-0.03693,-0.02243,0.0119,-0.0415
4.691,0.05157,0.02731,-0.07324,-0.05402,-0.02655,-0.04501,-0.01434,-0.0032,0.02563,-0.08194,0.0267,0.01328,-0.03677,-0.02045,0.01343,-0.03952
4.6915,0.04883,0.03448,-0.09491,-0.0145,-0.02792,-0.05249,-0.01556,-0.00076,0.02136,-0.09659,0.03174,-0.02548,-0.03738,-0.01892,0.01236,-0.03754
4.692,0.05005,0.04532,-0.10529,0.01328,-0.03006,-0.05905,-0.01343,0.00107,0.02441,-0.10818,0.04868,-0.06653,-0.03784,-0.0177,0.01022,-0.03769
4.6925,0.04807,0.05707,-0.11856,-0.00961,-0.0325,-0.05814,-0.01038,0.00061,0.03281,-0.1181,0.07721,-0.10498,-0.03677,-0.01724,0.00824,-0.03891
4.693,0.0325,0.06653,-0.13229,-0.07614,-0.03296,-0.05066,-0.01053,-0.00198,0.03967,-0.12375,0.0885,-0.11902,-0.03677,-0.01709,0.00763,-0.0415
4.6935,0.00107,0.06973,-0.12207,-0.14374,-0.03143,-0.04318,-0.01282,-0.00336,0.04166,-0.12314,0.05142,-0.09491,-0.03937,-0.01877,0.00809,-0.04196
4.694,-0.03769,0.06531,-0.08087,-0.18082,-0.0296,-0.04181,-0.01404,-0.00381,0.0383,-0.11642,-0.02136,-0.04761,-0.04105,-0.02136,0.00992,-0.04135
4.6945,-0.0708,0.05005,-0.04211,-0.16525,-0.02899,-0.04471,-0.01373,-0.00305,0.02975,-0.09995,-0.08759,-0.0119,-0.03906,-0.02182,0.01099,-0.04074
4.695,-0.09247,0.01602,-0.04486,-0.07385,-0.03036,-0.04639,-0.01312,-0.00259,0.01419,-0.07278,-0.11932,-0.00519,-0.03494,-0.01816,0.01129,-0.03998
4.6955,-0.1059,-0.02945,-0.08377,0.0705,-0.03189,-0.04486,-0.01129,-0.0032,-0.00519,-0.04242,-0.11795,-0.01175,-0.03235,-0.01236,0.01007,-0.04013
4.696,-0.12619,-0.06775,-0.13168,0.17639,-0.03174,-0.04364,-0.01053,-0.00397,-0.01862,-0.02228,-0.09949,0.00122,-0.03143,-0.00854,0.00931,-0.03922
4.6965,-0.16434,-0.08408,-0.19821,0.17105,-0.03067,-0.04562,-0.01129,-0.00519,-0.02487,-0.01862,-0.07721,0.04196,-0.03204,-0.00992,0.0087,-0.03876
4.697,-0.20187,-0.08347,-0.31342,0.08163,-0.03021,-0.04822,-0.01404,-0.00702,-0.03723,-0.02853,-0.06363,0.07935,-0.03357,-0.01266,0.00763,-0.03906
4.6975,-0.19638,-0.07904,-0.43457,-0.00549,-0.02975,-0.05051,-0.01663,-0.00809,-0.06119,-0.03677,-0.06729,0.07385,-0.03571,-0.01373,0.00778,-0.04044
4.698,-0.13397,-0.07477,-0.44006,-0.0415,-0.0296,-0.05066,-0.0174,-0.00717,-0.08606,-0.03052,-0.08041,0.0325,-0.03784,-0.01495,0.00885,-0.04028
4.6985,-0.05447,-0.06836,-0.26337,-0.04593,-0.03006,-0.05066,-0.01648,-0.00473,-0.09583,-0.01266,-0.08881,-0.00488,-0.03738,-0.01465,0.01007,-0.04044
4.699,-0.00534,-0.0618,0.01419,-0.05386,-0.03143,-0.05112,-0.01572,-0.00381,-0.0853,-0.00015,-0.08667,-0.0174,-0.03525,-0.01343,0.009,-0.04135
4.6995,0.00763,-0.06424,0.23712,-0.06012,-0.03357,-0.05112,-0.01694,-0.00443,-0.06241,-0.00275,-0.08118,-0.01938,-0.03372,-0.01068,0.00748,-0.0412
4.7,0.00732,-0.08072,0.30914,-0.03586,-0.03265,-0.04959,-0.01816,-0.00626,-0.04364,-0.01724,-0.08011,-0.02579,-0.03204,-0.00854,0.00656,-0.04028
4.7005,0.01129,-0.10406,0.23483,0.01312,-0.02899,-0.04807,-0.01816,-0.00732,-0.03845,-0.03326,-0.07385,-0.02991,-0.03006,-0.01038,0.00519,-0.03998
4.701,0.01923,-0.11902,0.09064,0.04639,-0.02487,-0.04684,-0.01709,-0.00717,-0.03891,-0.04669,-0.05173,-0.01999,-0.02716,-0.01404,0.00443,-0.04028
4.7015,0.02274,-0.11719,-0.0296,0.0441,-0.02319,-0.04791,-0.01587,-0.00443,-0.03326,-0.05692,-0.01633,-0.00214,-0.02609,-0.01572,0.00351,-0.0415
4.702,0.0145,-0.10666,-0.06958,0.04059,-0.02426,-0.04791,-0.01663,-0.00168,-0.02075,-0.06348,0.01266,0.00397,-0.02777,-0.01434,0.00458,-0.04227
4.7025,-0.00015,-0.0972,-0.03052,0.05524,-0.02533,-0.04471,-0.01587,-0.00183,-0.01144,-0.06805,0.02899,-0.00717,-0.02975,-0.01266,0.0061,-0.04044
4.703,-0.00961,-0.08972,0.05402,0.06516,-0.02487,-0.03937,-0.01541,-0.00305,-0.00854,-0.07355,0.04044,-0.01907,-0.03021,-0.01266,0.00778,-0.03754
4.7035,-0.00687,-0.07782,0.14008,0.04913,-0.02213,-0.03754,-0.01495,-0.00534,-0.01068,-0.07813,0.05478,-0.01266,-0.02853,-0.01328,0.00931,-0.03662
4.704,0.00107,-0.05478,0.18509,0.02441,-0.02075,-0.03799,-0.01587,-0.00626,-0.01678,-0.07889,0.07401,0.00839,-0.02777,-0.01373,0.00931,-0.03769
4.7045,0.00549,-0.02335,0.16571,0.01205,-0.02106,-0.04013,-0.01678,-0.0058,-0.03113,-0.07339,0.09338,0.0296,-0.02686,-0.01511,0.01022,-0.03937
4.705,0.009,0.0058,0.11108,0.00824,-0.02228,-0.04211,-0.01663,-0.00534,-0.04974,-0.06042,0.09933,0.03983,-0.02594,-0.0174,0.01114,-0.03891
4.7055,0.01968,0.02167,0.08057,-0.00122,-0.02411,-0.04196,-0.01526,-0.00412,-0.0621,-0.04181,0.07568,0.03967,-0.02548,-0.01862,0.01266,-0.03738
4.706,0.03403,0.0235,0.09598,-0.01587,-0.02609,-0.03876,-0.01282,-0.00168,-0.05966,-0.02029,0.02289,0.03723,-0.02548,-0.01953,0.01358,-0.03571
4.7065,0.04425,0.01862,0.11642,-0.02838,-0.02502,-0.03403,-0.01068,0.00061,-0.0499,0.00107,-0.03845,0.03891,-0.02594,-0.02014,0.0119,-0.03632
4.707,0.04623,0.01556,0.09003,-0.04486,-0.02335,-0.03098,-0.01099,0.00153,-0.04776,0.01511,-0.08896,0.04654,-0.02792,-0.02289,0.009,-0.03922
4.7075,0.04349,0.0119,0.0116,-0.08072,-0.02228,-0.03159,-0.01328,0.00015,-0.05615,0.01404,-0.11566,0.05188,-0.0296,-0.02594,0.00824,-0.04318
4.708,0.03708,-0.00214,-0.07919,-0.13,-0.02365,-0.0354,-0.01465,-0.00107,-0.05722,-0.00137,-0.10956,0.04089,-0.03036,-0.02579,0.009,-0.04456
4.7085,0.02823,-0.02731,-0.13229,-0.159,-0.02579,-0.04028,-0.01389,-0.00168,-0.03937,-0.01709,-0.06699,0.00687,-0.03021,-0.02441,0.01053,-0.04181
4.709,0.02426,-0.05051,-0.12741,-0.14191,-0.02731,-0.04379,-0.01236,-0.00122,-0.00824,-0.01389,0.0032,-0.03464,-0.03128,-0.02304,0.01068,-0.03799
4.7095,0.02716,-0.05814,-0.08209,-0.06775,-0.0296,-0.04517,-0.01282,-0.00061,0.01282,0.01282,0.07416,-0.05493,-0.03326,-0.0235,0.00992,-0.0354
4.71,0.02884,-0.05234,-0.03143,0.06439,-0.03113,-0.04547,-0.01282,-0.00168,0.01495,0.04807,0.10147,-0.04852,-0.0351,-0.02426,0.0087,-0.03632
4.7105,0.01587,-0.04288,0.00702,0.21011,-0.03143,-0.04471,-0.01251,-0.00183,0.00519,0.07401,0.0592,-0.03922,-0.0351,-0.02548,0.0087,-0.04013
4.711,-0.01358,-0.03174,0.03738,0.27237,-0.03159,-0.047,-0.01114,-0.00244,-0.00153,0.08484,-0.02838,-0.05066,-0.03357,-0.02609,0.00931,-0.04227
4.7115,-0.04471,-0.01953,0.06393,0.21622,-0.03235,-0.05127,-0.01083,-0.00336,0.00046,0.08682,-0.11002,-0.07477,-0.03159,-0.02625,0.01007,-0.04242
4.712,-0.05875,-0.01389,0.07889,0.12009,-0.03418,-0.05539,-0.01175,-0.00488,0.00656,0.08133,-0.14847,-0.08224,-0.03036,-0.02335,0.01129,-0.04257
4.7125,-0.047,-0.01999,0.06744,0.06851,-0.0351,-0.05661,-0.01236,-0.00717,0.00778,0.07584,-0.14618,-0.06042,-0.02914,-0.02029,0.01266,-0.04395
4.713,-0.01648,-0.03265,0.02502,0.0502,-0.03433,-0.05432,-0.01282,-0.00763,0.00137,0.07431,-0.11826,-0.01938,-0.02975,-0.01724,0.01205,-0.04425
4.7135,0.01556,-0.0383,-0.02869,0.00854,-0.03189,-0.05096,-0.01236,-0.00626,-0.00809,0.07492,-0.08011,0.02106,-0.03082,-0.01526,0.01083,-0.04395
4.714,0.03662,-0.0325,-0.06332,-0.06195,-0.03357,-0.04837,-0.0116,-0.00366,-0.01343,0.06836,-0.04791,0.0412,-0.03159,-0.0148,0.01022,-0.04379
4.7145,0.04425,-0.02731,-0.06271,-0.11658,-0.03616,-0.04715,-0.0119,-0.00046,-0.01343,0.05264,-0.0325,0.02823,-0.03128,-0.01526,0.00992,-0.04349
4.715,0.04395,-0.03098,-0.04288,-0.12024,-0.03647,-0.047,-0.01266,0.00198,-0.01099,0.03571,-0.03143,-0.00977,-0.03174,-0.01556,0.00946,-0.04349
4.7155,0.04227,-0.03815,-0.03662,-0.0885,-0.0354,-0.04547,-0.01373,0.00183,-0.00519,0.01984,-0.0351,-0.04868,-0.03143,-0.0177,0.00778,-0.04349
4.716,0.03891,-0.04059,-0.05295,-0.05737,-0.03479,-0.04608,-0.01419,0.00107,0.00519,0.00183,-0.04135,-0.06546,-0.03098,-0.01938,0.00885,-0.0441
4.7165,0.03204,-0.03891,-0.06485,-0.04364,-0.0351,-0.04837,-0.01343,-0.00015,0.01572,-0.0238,-0.05508,-0.05569,-0.03067,-0.01968,0.01144,-0.0444
4.717,0.02151,-0.04257,-0.04074,-0.03891,-0.03601,-0.05127,-0.0116,-0.00198,0.02167,-0.05539,-0.07233,-0.02945,-0.03021,-0.01877,0.01221,-0.04471
4.7175,0.00671,-0.05844,0.01419,-0.03342,-0.03601,-0.05066,-0.01007,-0.00458,0.02106,-0.08743,-0.07858,-0.00305,-0.03052,-0.01831,0.01068,-0.04456
4.718,-0.0061,-0.08377,0.05951,-0.03204,-0.03464,-0.04639,-0.01144,-0.00534,0.01968,-0.11444,-0.06516,0.01678,-0.03098,-0.01846,0.00732,-0.0441
4.7185,-0.01465,-0.10437,0.06531,-0.04868,-0.03372,-0.04272,-0.01236,-0.00534,0.02213,-0.13351,-0.03998,0.02869,-0.02991,-0.01831,0.00748,-0.04349
4.719,-0.02029,-0.1091,0.03769,-0.08484,-0.03387,-0.04425,-0.01297,-0.00458,0.03128,-0.14389,-0.01663,0.03586,-0.02838,-0.01633,0.00977,-0.04196
4.7195,-0.02579,-0.10117,0.00244,-0.11917,-0.03525,-0.04852,-0.01236,-0.00427,0.03815,-0.14603,0.00916,0.03494,-0.02792,-0.01297,0.01068,-0.04059
4.72,-0.03418,-0.09033,-0.01633,-0.12894,-0.03632,-0.05081,-0.01236,-0.00259,0.03204,-0.14252,0.05386,0.02457,-0.02884,-0.01022,0.00977,-0.04044
4.7205,-0.0473,-0.08011,-0.02716,-0.10483,-0.03632,-0.05035,-0.01205,-0.00198,0.01068,-0.13321,0.11444,0.00931,-0.03067,-0.01007,0.00809,-0.0412
4.721,-0.06592,-0.06714,-0.05432,-0.0351,-0.03571,-0.04929,-0.01282,-0.00107,-0.01236,-0.12131,0.15396,0.00015,-0.03113,-0.01266,0.009,-0.0415
4.7215,-0.08224,-0.04654,-0.10529,0.07477,-0.03372,-0.04898,-0.01495,-0.00092,-0.02625,-0.10864,0.13443,-0.00168,-0.03174,-0.01587,0.00977,-0.04196
4.722,-0.08331,-0.02014,-0.1506,0.16327,-0.03113,-0.0499,-0.01663,-0.00076,-0.03159,-0.09964,0.06104,-0.00641,-0.03143,-0.01923,0.00977,-0.04333
4.7225,-0.07126,0.00626,-0.1506,0.15549,-0.02991,-0.05188,-0.01801,-0.00046,-0.03815,-0.09079,-0.03021,-0.02335,-0.03235,-0.02106,0.00854,-0.0444
4.723,-0.06409,0.0267,-0.10361,0.06607,-0.03174,-0.05463,-0.01923,0.00046,-0.04761,-0.08102,-0.10315,-0.05417,-0.0325,-0.0206,0.00687,-0.04517
4.7235,-0.06516,0.03555,-0.04059,-0.0116,-0.03403,-0.05585,-0.02045,0.00031,-0.05707,-0.07355,-0.13443,-0.08362,-0.03387,-0.0209,0.00717,-0.04395
4.724,-0.05539,0.02594,0.00732,-0.02808,-0.03494,-0.05493,-0.0206,-0.00229,-0.06454,-0.06882,-0.10208,-0.08148,-0.03693,-0.02106,0.00763,-0.04318
4.7245,-0.02121,0.00107,0.0296,-0.01266,-0.03342,-0.05264,-0.01923,-0.00626,-0.06989,-0.05829,0.00534,-0.0322,-0.03937,-0.02136,0.00839,-0.04349
4.725,0.02197,-0.02716,0.0322,-0.00443,-0.03113,-0.04944,-0.01862,-0.00839,-0.06775,-0.03021,0.15396,0.04074,-0.03983,-0.02213,0.00839,-0.04425
4.7255,0.04578,-0.05066,0.02426,-0.00381,-0.02991,-0.0473,-0.01801,-0.00748,-0.04974,0.0119,0.2594,0.08972,-0.03845,-0.02197,0.00748,-0.0444
4.726,0.04471,-0.07095,0.00427,-0.00076,-0.03036,-0.04761,-0.01846,-0.00565,-0.02533,0.05524,0.25726,0.08911,-0.03601,-0.02151,0.00687,-0.04379
4.7265,0.03693,-0.08545,-0.04715,0.00137,-0.03204,-0.0499,-0.01968,-0.00473,-0.00885,0.09308,0.17227,0.05936,-0.03387,-0.02228,0.00702,-0.04395
4.727,0.03815,-0.08682,-0.13397,0.00061,-0.03372,-0.05051,-0.01877,-0.00412,-0.00854,0.12482,0.07767,0.0354,-0.03387,-0.02472,0.00778,-0.04425
4.7275,0.04486,-0.07019,-0.22186,0.00565,-0.03525,-0.05005,-0.01572,-0.00275,-0.01389,0.14633,0.00671,0.0296,-0.0354,-0.0267,0.0087,-0.0444
4.728,0.04669,-0.04318,-0.25681,0.01846,-0.0351,-0.04959,-0.01266,-0.00122,-0.01831,0.15228,-0.04532,0.03372,-0.03754,-0.02594,0.00778,-0.04379
4.7285,0.0412,-0.01968,-0.21973,0.02579,-0.03387,-0.04852,-0.01068,-0.00061,-0.02396,0.14755,-0.07492,0.03693,-0.03845,-0.02518,0.00549,-0.04379
4.729,0.03571,-0.00076,-0.14435,0.01404,-0.03174,-0.04745,-0.01038,-0.00076,-0.03235,0.13748,-0.06851,0.03769,-0.03784,-0.02457,0.0032,-0.04395
4.7295,0.03433,0.01678,-0.07278,-0.0145,-0.03021,-0.04654,-0.00992,0.0,-0.03998,0.12146,-0.02808,0.03616,-0.03555,-0.0267,0.00381,-0.04425
4.73,0.03342,0.02975,-0.02182,-0.05585,-0.0296,-0.04684,-0.01053,-0.00061,-0.04288,0.09918,0.02899,0.03189,-0.03372,-0.02762,0.00626,-0.04227
4.7305,0.02731,0.02304,0.01114,-0.11063,-0.03128,-0.04822,-0.0119,-0.00397,-0.04089,0.06561,0.07507,0.02762,-0.03342,-0.02747,0.00778,-0.03967
4.731,0.01511,-0.0087,0.02914,-0.16708,-0.03326,-0.04898,-0.01434,-0.00839,-0.03418,0.02838,0.07813,0.02701,-0.0354,-0.02533,0.00702,-0.03799
4.7315,-0.00061,-0.04959,0.02701,-0.19577,-0.03433,-0.04929,-0.01495,-0.00931,-0.02563,0.00076,0.0235,0.03555,-0.03525,-0.02213,0.00565,-0.0383
4.732,-0.01236,-0.0766,0.00839,-0.17456,-0.03418,-0.04929,-0.0145,-0.00702,-0.01877,-0.00458,-0.06012,0.04913,-0.03265,-0.01923,0.00549,-0.03967
4.7325,-0.01495,-0.07843,-0.01175,-0.11673,-0.03357,-0.04852,-0.01419,-0.00473,-0.02136,0.00473,-0.12009,0.05035,-0.03082,-0.01694,0.0061,-0.0415
4.733,-0.01083,-0.0621,-0.02365,-0.05997,-0.03235,-0.04776,-0.01251,-0.00275,-0.03143,0.01312,-0.13992,0.02762,-0.03113,-0.01633,0.00778,-0.04242
4.7335,-0.00519,-0.04059,-0.03342,-0.02014,-0.03067,-0.04608,-0.01282,-0.00351,-0.03738,0.01099,-0.14725,-0.00916,-0.03357,-0.01633,0.00763,-0.04272
4.734,-0.00427,-0.02731,-0.04593,0.01343,-0.02975,-0.04395,-0.01389,-0.00488,-0.03586,0.00229,-0.16266,-0.03296,-0.03464,-0.01724,0.00885,-0.04181
4.7345,-0.00458,-0.02975,-0.05539,0.03891,-0.03174,-0.04486,-0.01511,-0.00656,-0.03357,-0.00717,-0.17105,-0.03357,-0.03448,-0.01816,0.01022,-0.0412
4.735,-0.00061,-0.0528,-0.05508,0.03723,-0.03464,-0.04379,-0.01541,-0.00763,-0.03632,-0.01587,-0.16129,-0.04272,-0.03326,-0.01862,0.01114,-0.04181
4.7355,0.00793,-0.08789,-0.05173,0.00778,-0.03525,-0.04074,-0.01511,-0.00702,-0.03815,-0.02518,-0.15564,-0.10208,-0.03265,-0.01755,0.00946,-0.04242
4.736,0.01648,-0.11948,-0.0531,-0.01907,-0.03372,-0.03677,-0.0148,-0.00549,-0.03082,-0.03265,-0.17609,-0.19073,-0.0325,-0.01465,0.00641,-0.04349
4.7365,0.02075,-0.13458,-0.05859,-0.01617,-0.03143,-0.03586,-0.01373,-0.0032,-0.01572,-0.03113,-0.20645,-0.23087,-0.03021,-0.01099,0.00519,-0.04333
4.737,0.02182,-0.13718,-0.06332,0.0116,-0.03098,-0.03891,-0.01266,-0.00046,0.00351,-0.01968,-0.21439,-0.19608,-0.02777,-0.01022,0.0058,-0.04456
4.7375,0.02213,-0.12802,-0.07126,0.03922,-0.03204,-0.04395,-0.0116,0.00122,0.02594,-0.0032,-0.19058,-0.14999,-0.02701,-0.01144,0.00717,-0.0441
4.738,0.02594,-0.11215,-0.08224,0.04608,-0.03265,-0.04822,-0.01099,-0.00031,0.04684,0.00839,-0.14923,-0.14389,-0.02655,-0.01175,0.00702,-0.04349
4.7385,0.03448,-0.09735,-0.08713,0.02838,-0.03235,-0.05142,-0.01022,-0.0029,0.05646,0.00961,-0.10803,-0.13733,-0.02533,-0.01083,0.00671,-0.04211
4.739,0.0412,-0.08698,-0.07767,0.00153,-0.03159,-0.05249,-0.01083,-0.00336,0.05081,-0.00809,-0.07355,-0.06958,-0.02335,-0.01144,0.00671,-0.04105
4.7395,0.0386,-0.07217,-0.05905,-0.01297,-0.03067,-0.05356,-0.00992,-0.00092,0.0354,-0.04242,-0.04562,0.05524,-0.02304,-0.01404,0.00626,-0.03906
4.74,0.02213,-0.04929,-0.05966,-0.00839,-0.03052,-0.05539,-0.0087,0.00076,0.01801,-0.08209,-0.02396,0.17609,-0.02487,-0.01694,0.00626,-0.03754
4.7405,-0.00549,-0.02853,-0.12558,0.00275,-0.03159,-0.05676,-0.00885,0.00275,0.00824,-0.11032,-0.00519,0.24612,-0.02823,-0.01755,0.00824,-0.03784
4.741,-0.03418,-0.01633,-0.26855,0.00534,-0.0322,-0.05661,-0.00977,0.00381,0.01495,-0.11902,0.01328,0.25284,-0.03067,-0.0174,0.01068,-0.03708
4.7415,-0.05325,-0.00671,-0.39902,-0.00031,-0.03143,-0.05371,-0.01007,0.00458,0.03067,-0.11398,0.03052,0.22156,-0.03159,-0.01602,0.0116,-0.03738
4.742,-0.0592,0.00336,-0.38071,-0.00504,-0.02899,-0.05188,-0.01007,0.00443,0.03799,-0.10605,0.04257,0.18494,-0.03143,-0.01511,0.01068,-0.03845
4.7425,-0.05661,0.009,-0.18433,-0.00381,-0.02823,-0.05264,-0.0116,0.0032,0.02884,-0.10208,0.04745,0.15182,-0.02975,-0.01373,0.00763,-0.04166
4.743,-0.05386,0.00534,0.06241,-0.00168,-0.0293,-0.05661,-0.01343,0.00244,0.01373,-0.09918,0.04639,0.11108,-0.02853,-0.01389,0.00626,-0.0444
4.7435,-0.05371,-0.00259,0.21072,-0.00534,-0.0322,-0.05966,-0.01389,0.00244,0.00839,-0.09048,0.04196,0.06378,-0.02853,-0.01434,0.00549,-0.04547
4.744,-0.0473,-0.01038,0.23087,-0.0148,-0.03372,-0.0589,-0.01282,0.00214,0.01663,-0.06851,0.03525,0.03098,-0.03052,-0.01587,0.00626,-0.04578
4.7445,-0.03311,-0.02121,0.18372,-0.02579,-0.03433,-0.05447,-0.01099,0.00046,0.03006,-0.03403,0.02823,0.02075,-0.03296,-0.01678,0.00793,-0.04547
4.745,-0.02014,-0.03922,0.11932,-0.03159,-0.03448,-0.04929,-0.01144,-0.00397,0.03693,0.00519,0.02487,0.0209,-0.03448,-0.0174,0.00809,-0.04486
4.7455,-0.0209,-0.06485,0.0531,-0.03387,-0.03571,-0.047,-0.01358,-0.00961,0.03159,0.04272,0.0386,0.01846,-0.03525,-0.01801,0.00717,-0.04227
4.746,-0.03311,-0.10254,-0.00763,-0.04456,-0.03693,-0.04807,-0.01602,-0.01343,0.01785,0.0708,0.0766,0.01221,-0.03571,-0.01984,0.00595,-0.03998
4.7465,-0.04623,-0.15579,-0.04517,-0.07034,-0.03754,-0.04898,-0.01663,-0.01312,0.00717,0.08011,0.12283,0.0087,-0.0351,-0.02136,0.0061,-0.03891
4.747,-0.0531,-0.20248,-0.05264,-0.09552,-0.03754,-0.04868,-0.01694,-0.00992,0.00366,0.06958,0.14496,0.00961,-0.03479,-0.0209,0.00809,-0.03891
4.7475,-0.05554,-0.20355,-0.03586,-0.09979,-0.03632,-0.04776,-0.01877,-0.00488,0.00015,0.04547,0.12497,0.01022,-0.0351,-0.01907,0.00839,-0.03876
4.748,-0.05585,-0.15198,-0.00565,-0.06683,-0.03479,-0.047,-0.02228,-0.00092,-0.0116,0.0177,0.06607,0.00885,-0.03525,-0.01663,0.00702,-0.03891
4.7485,-0.05249,-0.07523,0.02869,0.00595,-0.03342,-0.04562,-0.02319,0.0,-0.02853,-0.01495,-0.00534,0.0058,-0.03387,-0.01541,0.00565,-0.03998
4.749,-0.0412,-0.00504,0.05844,0.09079,-0.03372,-0.04501,-0.02121,-0.00183,-0.03693,-0.0563,-0.04227,0.00244,-0.03143,-0.01724,0.00565,-0.04181
4.7495,-0.02045,0.04654,0.07034,0.14023,-0.03403,-0.04578,-0.01816,-0.00565,-0.03036,-0.09735,-0.00717,-0.00107,-0.03128,-0.02029,0.00732,-0.04166
4.75,0.00427,0.07523,0.06134,0.13214,-0.03387,-0.047,-0.01465,-0.00778,-0.01846,-0.11978,0.07065,-0.0058,-0.03372,-0.02319,0.00748,-0.0412
4.7505,0.02502,0.08286,0.04089,0.09109,-0.03189,-0.0473,-0.01251,-0.00732,-0.0177,-0.11276,0.12863,-0.009,-0.03616,-0.02502,0.00687,-0.04013
4.751,0.03738,0.07492,0.02182,0.05295,-0.03067,-0.04593,-0.01144,-0.00504,-0.03296,-0.07874,0.13947,-0.00595,-0.03815,-0.02533,0.00824,-0.03983
4.7515,0.04471,0.06256,0.00732,0.03387,-0.03113,-0.0444,-0.01175,-0.00305,-0.05402,-0.03525,0.12695,0.00153,-0.03906,-0.02502,0.01129,-0.03952
4.752,0.04852,0.05646,-0.01419,0.02502,-0.03052,-0.04333,-0.01312,-0.00366,-0.07294,-0.00015,0.10834,0.0032,-0.03952,-0.02487,0.01205,-0.04028
4.7525,0.04379,0.05844,-0.05569,0.01724,-0.03036,-0.04227,-0.01328,-0.00595,-0.08682,0.02258,0.07538,-0.00427,-0.04028,-0.02335,0.01251,-0.0412
4.753,0.02975,0.05371,-0.09842,0.01144,-0.02991,-0.04242,-0.01358,-0.00717,-0.09689,0.03387,0.02533,-0.01297,-0.03937,-0.02106,0.01236,-0.04211
4.7535,0.01434,0.03021,-0.10696,0.00946,-0.03128,-0.04547,-0.01465,-0.00732,-0.10117,0.03784,-0.01999,-0.01404,-0.03769,-0.01953,0.01221,-0.04196
4.754,0.00214,-0.00824,-0.07416,0.01068,-0.0322,-0.04715,-0.01602,-0.00671,-0.09537,0.03723,-0.04196,-0.00977,-0.03601,-0.01816,0.01144,-0.04135
4.7545,-0.00458,-0.04715,-0.04547,0.01251,-0.03098,-0.04807,-0.01526,-0.00534,-0.08209,0.03387,-0.04684,-0.00809,-0.0351,-0.01999,0.01022,-0.04059
4.755,-0.01083,-0.07797,-0.06851,0.00626,-0.0293,-0.04883,-0.01343,-0.00549,-0.07111,0.02716,-0.04593,-0.01907,-0.03235,-0.02151,0.00946,-0.03952
4.7555,-0.02213,-0.09567,-0.13138,-0.02045,-0.02853,-0.04944,-0.01282,-0.00702,-0.06653,0.02014,-0.0296,-0.0531,-0.03052,-0.02197,0.0087,-0.03998
4.756,-0.03418,-0.09628,-0.17075,-0.06821,-0.02762,-0.05005,-0.01297,-0.00793,-0.065,0.0116,0.00656,-0.10422,-0.02823,-0.01938,0.00687,-0.03983
4.7565,-0.03265,-0.0798,-0.13687,-0.11276,-0.02747,-0.05051,-0.01389,-0.00793,-0.06165,0.00229,0.0412,-0.14175,-0.02914,-0.01877,0.00473,-0.0412
4.757,-0.01328,-0.05875,-0.05005,-0.12772,-0.02777,-0.05157,-0.01419,-0.00717,-0.05661,-0.00824,0.04105,-0.12726,-0.03082,-0.01984,0.00366,-0.04257
4.7575,0.00626,-0.04471,0.03418,-0.10788,-0.02991,-0.05219,-0.01465,-0.00641,-0.05463,-0.02106,0.00626,-0.0592,-0.03189,-0.02029,0.00351,-0.04318
4.758,0.0087,-0.04257,0.08133,-0.05981,-0.03098,-0.05051,-0.01495,-0.00626,-0.05798,-0.03448,-0.02731,0.01907,-0.0322,-0.01999,0.00443,-0.04227
4.7585,-0.00031,-0.04745,0.0972,0.0116,-0.02975,-0.04562,-0.01343,-0.00381,-0.06027,-0.04913,-0.03433,0.05142,-0.03281,-0.01877,0.00443,-0.0412
4.759,-0.00626,-0.05219,0.09964,0.09613,-0.02655,-0.03906,-0.01251,-0.00183,-0.05432,-0.06607,-0.02396,0.02518,-0.03372,-0.01846,0.00534,-0.04044
4.7595,-0.0029,-0.04944,0.09293,0.15091,-0.02472,-0.03403,-0.01099,0.00031,-0.03906,-0.08209,-0.02502,-0.02365,-0.03235,-0.01648,0.00702,-0.04074
4.76,0.0032,-0.03632,0.06912,0.13824,-0.02396,-0.03311,-0.01068,0.00061,-0.02289,-0.09354,-0.04837,-0.05768,-0.03082,-0.0145,0.00748,-0.04089
4.7605,0.00626,-0.01648,0.00778,0.07492,-0.0238,-0.03448,-0.0119,0.00046,-0.01007,-0.09995,-0.07843,-0.07523,-0.03021,-0.01419,0.00717,-0.04028
4.761,0.01114,0.00244,-0.103,0.01266,-0.02396,-0.03647,-0.01343,-0.00031,-0.00137,-0.09995,-0.09872,-0.09094,-0.03265,-0.01694,0.00793,-0.04028
4.7615,0.02075,0.01251,-0.22812,-0.02213,-0.0238,-0.03754,-0.01343,-0.00153,0.00793,-0.10208,-0.10742,-0.10101,-0.03571,-0.01862,0.009,-0.03952
4.762,0.03296,0.01144,-0.28748,-0.04349,-0.02319,-0.04013,-0.01251,-0.00061,0.01846,-0.10101,-0.09964,-0.08163,-0.03601,-0.01846,0.00961,-0.03906
4.7625,0.04013,0.00412,-0.22507,-0.06882,-0.02121,-0.04303,-0.01129,0.00229,0.02884,-0.09933,-0.0618,-0.02426,-0.03433,-0.01648,0.01022,-0.03922
4.763,0.03937,-0.00305,-0.08331,-0.08438,-0.0206,-0.04364,-0.01129,0.00427,0.0351,-0.09476,0.00107,0.04822,-0.0325,-0.01556,0.01038,-0.03952
4.7635,0.0322,-0.00778,0.04517,-0.06714,-0.02167,-0.03998,-0.0116,0.0029,0.0354,-0.0882,0.04166,0.10376,-0.03174,-0.01556,0.01053,-0.04013
4.764,0.02411,-0.01236,0.10727,-0.02197,-0.02182,-0.03357,-0.01129,-0.00046,0.03265,-0.08286,0.01892,0.14099,-0.02975,-0.01617,0.01053,-0.04089
4.7645,0.01678,-0.01709,0.11429,0.01846,-0.02289,-0.03143,-0.01099,-0.00427,0.03036,-0.0798,-0.05219,0.17044,-0.02762,-0.01602,0.01068,-0.03967
4.765,0.01007,-0.01923,0.09796,0.02975,-0.02487,-0.03128,-0.01144,-0.00534,0.03036,-0.07629,-0.11765,0.17639,-0.02808,-0.01572,0.00992,-0.03815
