time,RectFemL,VastusMedL,VastusLatL,TibAntL,HamMedL,HamLatL,GastroMedL,GastroLatL,RectFemR,VastusMedR,VastusLatR,TibAntR,HamMedR,HamLatR,GastroMedR,GastroLatR
3.36,-0.03311,-0.0209,-0.02945,0.03281,-0.03525,-0.05356,-0.01556,-0.00198,-0.01846,-0.02945,-0.01419,0.04089,-0.03235,-0.01846,0.01053,-0.04044
3.3605,-0.04883,-0.0264,-0.03723,0.02762,-0.03448,-0.05341,-0.01801,-0.00046,-0.01465,-0.03738,-0.00992,0.05417,-0.03265,-0.01816,0.00763,-0.04105
3.361,-0.05829,-0.03036,-0.04593,0.01511,-0.03372,-0.05203,-0.01968,-0.00137,-0.01205,-0.04944,-0.00839,0.04562,-0.03448,-0.02014,0.0061,-0.04196
3.3615,-0.05234,-0.03342,-0.05173,0.00977,-0.03326,-0.05157,-0.02014,-0.00275,-0.0119,-0.05798,-0.00778,0.01297,-0.03418,-0.02151,0.00732,-0.04257
3.362,-0.03387,-0.03448,-0.05325,0.02167,-0.03326,-0.05142,-0.01907,-0.00168,-0.01266,-0.05981,-0.0058,-0.02289,-0.0325,-0.01953,0.00961,-0.04166
3.3625,-0.01312,-0.0325,-0.0528,0.03723,-0.03296,-0.05081,-0.01877,-0.00137,-0.01282,-0.05539,-0.00336,-0.04807,-0.03067,-0.01648,0.01068,-0.04242
3.363,0.0029,-0.02655,-0.05386,0.03876,-0.03296,-0.04913,-0.01801,-0.00305,-0.01343,-0.04852,-0.0032,-0.06332,-0.03067,-0.0145,0.01022,-0.0444
3.3635,0.01526,-0.02075,-0.0563,0.02502,-0.03235,-0.04852,-0.01663,-0.00458,-0.0148,-0.04105,-0.00412,-0.07446,-0.03098,-0.01556,0.00885,-0.04654
3.364,0.02609,-0.02014,-0.05356,0.00488,-0.03143,-0.04974,-0.01556,-0.00443,-0.01663,-0.03326,-0.00504,-0.08286,-0.03067,-0.01602,0.00824,-0.04715
3.3645,0.03494,-0.02548,-0.04532,-0.01556,-0.03036,-0.05142,-0.01495,-0.0029,-0.01831,-0.02518,-0.00687,-0.08209,-0.03006,-0.01495,0.00931,-0.04684
3.365,0.04105,-0.03464,-0.03494,-0.0296,-0.02991,-0.05112,-0.01556,-0.00198,-0.01831,-0.01907,-0.00992,-0.07172,-0.03174,-0.01236,0.00961,-0.04501
3.3655,0.04745,-0.04181,-0.02792,-0.03387,-0.02945,-0.04791,-0.01572,-0.00198,-0.01862,-0.01572,-0.0145,-0.05402,-0.03555,-0.01175,0.00946,-0.04456
3.366,0.04913,-0.04745,-0.02701,-0.03082,-0.02884,-0.04318,-0.01587,-0.00412,-0.01877,-0.01404,-0.01801,-0.03067,-0.03723,-0.01373,0.00717,-0.04501
3.3665,0.04227,-0.05173,-0.03021,-0.02609,-0.02792,-0.04196,-0.01556,-0.00793,-0.02045,-0.01221,-0.01846,0.00137,-0.03784,-0.01755,0.00519,-0.04608
3.367,0.02716,-0.05341,-0.03464,-0.01953,-0.02716,-0.04288,-0.0148,-0.00992,-0.0238,-0.01129,-0.01968,0.03601,-0.03632,-0.02075,0.00443,-0.04532
3.3675,0.01038,-0.05493,-0.03464,-0.01312,-0.02808,-0.04684,-0.01434,-0.009,-0.0267,-0.01068,-0.02319,0.05386,-0.03586,-0.02121,0.00549,-0.04425
3.368,-0.00015,-0.05615,-0.03204,-0.01282,-0.02853,-0.05096,-0.01389,-0.0058,-0.02655,-0.00839,-0.02747,0.04303,-0.03708,-0.01984,0.00778,-0.04486
3.3685,-0.00549,-0.05814,-0.02975,-0.02487,-0.03006,-0.05341,-0.01373,-0.00443,-0.02426,-0.00702,-0.02991,0.01801,-0.03784,-0.01877,0.00931,-0.04578
3.369,-0.01129,-0.06149,-0.03052,-0.0502,-0.0296,-0.05356,-0.01297,-0.00534,-0.02289,-0.0058,-0.0325,0.00687,-0.03662,-0.01968,0.00793,-0.04578
3.3695,-0.02151,-0.06409,-0.03098,-0.08255,-0.02975,-0.05173,-0.01221,-0.00458,-0.02304,-0.00519,-0.0325,0.01724,-0.03403,-0.01984,0.00687,-0.04425
3.37,-0.03616,-0.06378,-0.02808,-0.11002,-0.03021,-0.05066,-0.01312,-0.00259,-0.02167,-0.00534,-0.03113,0.03494,-0.03098,-0.01907,0.00671,-0.04242
3.3705,-0.05249,-0.05981,-0.0235,-0.12009,-0.03143,-0.05035,-0.01404,-0.00183,-0.01923,-0.00473,-0.02975,0.04593,-0.0322,-0.01862,0.00626,-0.04227
3.371,-0.06409,-0.05341,-0.01816,-0.10651,-0.03311,-0.04944,-0.01465,-0.00259,-0.01755,-0.00458,-0.02899,0.04562,-0.03433,-0.01877,0.00473,-0.04166
3.3715,-0.06638,-0.04868,-0.01511,-0.06622,-0.03403,-0.04959,-0.01312,-0.00443,-0.01678,-0.0032,-0.02792,0.03906,-0.03448,-0.01785,0.00412,-0.03952
3.372,-0.06012,-0.04868,-0.02365,0.0032,-0.03403,-0.05066,-0.0119,-0.00381,-0.01617,-0.00397,-0.02411,0.03006,-0.03204,-0.0174,0.00641,-0.03754
3.3725,-0.04959,-0.05127,-0.05341,0.09277,-0.03204,-0.05127,-0.01221,-0.00183,-0.01495,-0.00641,-0.01785,0.02228,-0.03067,-0.01923,0.00839,-0.03616
3.373,-0.03922,-0.04761,-0.10178,0.16937,-0.03067,-0.05219,-0.01297,-0.00031,-0.01297,-0.00977,-0.01129,0.01129,-0.03235,-0.02182,0.009,-0.03723
3.3735,-0.03403,-0.03754,-0.1445,0.19135,-0.02899,-0.05051,-0.01419,-0.00092,-0.01007,-0.01404,-0.00656,-0.01144,-0.03464,-0.02167,0.00748,-0.03769
3.374,-0.03281,-0.02686,-0.14862,0.15442,-0.02869,-0.04868,-0.01434,-0.00168,-0.00748,-0.01572,-0.00443,-0.04684,-0.03403,-0.01831,0.00595,-0.03784
3.3745,-0.03189,-0.02411,-0.10269,0.09811,-0.02945,-0.04623,-0.01389,-0.00198,-0.00534,-0.01511,-0.00198,-0.08163,-0.03128,-0.01511,0.00717,-0.03708
3.375,-0.02625,-0.02792,-0.03036,0.06012,-0.03036,-0.04562,-0.01465,-0.0029,-0.00473,-0.01602,0.00107,-0.10086,-0.03082,-0.01404,0.00992,-0.03647
3.3755,-0.01556,-0.03204,0.03799,0.03876,-0.03143,-0.04684,-0.01526,-0.00473,-0.00671,-0.0177,0.00504,-0.09842,-0.03204,-0.01404,0.01266,-0.03632
3.376,-0.00504,-0.03372,0.09033,0.01663,-0.03143,-0.04807,-0.01389,-0.00458,-0.00946,-0.02151,0.00809,-0.07553,-0.03342,-0.0145,0.01343,-0.03693
3.3765,-0.00015,-0.03464,0.12207,-0.00916,-0.02914,-0.0499,-0.01038,-0.00229,-0.00961,-0.02457,0.00931,-0.03967,-0.03342,-0.01541,0.01221,-0.03723
3.377,-0.00076,-0.03632,0.12665,-0.02731,-0.02899,-0.05081,-0.0087,0.00092,-0.00748,-0.02518,0.01114,0.00046,-0.03128,-0.01709,0.01007,-0.03723
3.3775,-0.00214,-0.03952,0.10742,-0.03601,-0.03128,-0.05188,-0.00931,0.00198,-0.00565,-0.02563,0.01328,0.03464,-0.03006,-0.01755,0.00839,-0.03769
3.378,-0.00214,-0.04105,0.08224,-0.04364,-0.03326,-0.05234,-0.01129,0.00031,-0.00488,-0.03021,0.01221,0.04974,-0.02945,-0.01709,0.00732,-0.03922
3.3785,-0.00076,-0.03632,0.06393,-0.04959,-0.03296,-0.05188,-0.01221,-0.00076,-0.00656,-0.04501,0.00763,0.04013,-0.02945,-0.01724,0.00778,-0.04013
3.379,-0.00259,-0.02487,0.03815,-0.04517,-0.03189,-0.05157,-0.0119,-0.00214,-0.00931,-0.06668,-0.00031,0.02609,-0.0293,-0.01877,0.00885,-0.04089
3.3795,-0.00687,-0.01297,-0.0177,-0.04425,-0.03113,-0.0502,-0.01205,-0.00229,-0.01282,-0.0827,-0.00839,0.0354,-0.02869,-0.01953,0.00931,-0.04013
3.38,-0.01114,-0.01556,-0.09354,-0.0705,-0.03159,-0.04883,-0.01251,-0.00366,-0.01556,-0.08652,-0.01419,0.06592,-0.02808,-0.01923,0.01022,-0.04044
3.3805,-0.01419,-0.03571,-0.14267,-0.10757,-0.03174,-0.0473,-0.01404,-0.00519,-0.01587,-0.07919,-0.01556,0.08942,-0.02701,-0.01678,0.00946,-0.04089
3.381,-0.01755,-0.0592,-0.13733,-0.112,-0.0296,-0.04684,-0.01511,-0.00549,-0.01541,-0.07065,-0.01068,0.09354,-0.02823,-0.01633,0.00977,-0.03998
3.3815,-0.02182,-0.06836,-0.09918,-0.07965,-0.02823,-0.04639,-0.01587,-0.00534,-0.01587,-0.06363,-0.00168,0.08713,-0.03021,-0.01801,0.00931,-0.03784
3.382,-0.02472,-0.06348,-0.06836,-0.0444,-0.02853,-0.04684,-0.01648,-0.0058,-0.01877,-0.05951,0.00641,0.08026,-0.03159,-0.01923,0.00839,-0.03922
3.3825,-0.02396,-0.05463,-0.05859,-0.02426,-0.03021,-0.04684,-0.01724,-0.0061,-0.0206,-0.05997,0.01175,0.07233,-0.03342,-0.01984,0.00931,-0.04257
3.383,-0.02045,-0.05096,-0.05981,-0.0061,-0.0296,-0.04532,-0.01633,-0.00702,-0.02075,-0.06088,0.01511,0.0592,-0.03372,-0.01923,0.009,-0.04456
3.3835,-0.01709,-0.05188,-0.06149,0.01099,-0.02838,-0.04272,-0.01373,-0.00656,-0.02136,-0.05569,0.0177,0.04425,-0.03387,-0.01968,0.0087,-0.04562
3.384,-0.01587,-0.05249,-0.06378,0.01068,-0.02945,-0.04257,-0.01221,-0.00504,-0.02151,-0.04074,0.01648,0.03281,-0.03372,-0.02106,0.0061,-0.04608
3.3845,-0.01343,-0.0499,-0.06958,-0.00641,-0.03143,-0.04349,-0.01068,-0.00183,-0.02029,-0.02258,0.0116,0.02716,-0.03372,-0.02075,0.00397,-0.047
3.385,-0.01114,-0.04639,-0.07477,-0.01526,-0.03174,-0.04532,-0.00946,0.00046,-0.01785,-0.00732,0.00488,0.02197,-0.0322,-0.0206,0.00366,-0.04745
3.3855,-0.01114,-0.04318,-0.07706,0.00412,-0.0293,-0.04684,-0.009,0.00229,-0.01724,0.00443,-0.0032,0.01633,-0.03128,-0.02075,0.00519,-0.04669
3.386,-0.01404,-0.04044,-0.07568,0.03601,-0.02731,-0.04715,-0.00946,0.00076,-0.01907,0.01587,-0.01495,0.01083,-0.03235,-0.02243,0.00748,-0.04608
3.3865,-0.01724,-0.04059,-0.07339,0.05066,-0.02731,-0.047,-0.01114,-0.00168,-0.0209,0.02487,-0.03067,0.00885,-0.03448,-0.02258,0.00839,-0.04593
3.387,-0.02075,-0.04608,-0.06973,0.03677,-0.02884,-0.04517,-0.0145,-0.00351,-0.02213,0.03159,-0.04944,0.00793,-0.03601,-0.0238,0.00916,-0.0444
3.3875,-0.02487,-0.05463,-0.06882,0.01236,-0.03036,-0.04456,-0.01862,-0.00549,-0.02594,0.0351,-0.06592,0.00626,-0.03586,-0.02472,0.0087,-0.04318
3.388,-0.03006,-0.06134,-0.06973,-0.00488,-0.03006,-0.04608,-0.02151,-0.00748,-0.03204,0.03571,-0.07889,0.0032,-0.03525,-0.02502,0.0087,-0.04257
3.3885,-0.03204,-0.06439,-0.07263,-0.01785,-0.02823,-0.04791,-0.02121,-0.00854,-0.03815,0.03265,-0.08636,-0.00015,-0.03662,-0.02548,0.00763,-0.04181
3.389,-0.02609,-0.06638,-0.07629,-0.03281,-0.02777,-0.04837,-0.01968,-0.00778,-0.03998,0.02533,-0.08713,-0.0029,-0.0386,-0.0264,0.00687,-0.04074
3.3895,-0.01328,-0.06836,-0.07645,-0.04883,-0.02914,-0.04837,-0.01907,-0.00519,-0.03937,0.01724,-0.08163,-0.00305,-0.03952,-0.02747,0.00839,-0.03906
3.39,-0.00244,-0.06577,-0.07202,-0.06546,-0.03036,-0.04501,-0.01892,-0.00412,-0.03754,0.00961,-0.07172,-0.0029,-0.03937,-0.02579,0.009,-0.0383
3.3905,0.00275,-0.05966,-0.06485,-0.08682,-0.03113,-0.0415,-0.01907,-0.00427,-0.03571,0.00381,-0.05814,-0.00351,-0.03952,-0.0238,0.01007,-0.03708
3.391,0.00351,-0.05203,-0.05783,-0.10651,-0.03006,-0.04105,-0.01633,-0.00504,-0.03311,-0.00107,-0.04608,-0.00458,-0.03891,-0.02335,0.00992,-0.03616
3.3915,0.00412,-0.04837,-0.04929,-0.10223,-0.02899,-0.04349,-0.01343,-0.00412,-0.02823,-0.0032,-0.03693,-0.00549,-0.03738,-0.02396,0.00931,-0.03738
3.392,0.0087,-0.05157,-0.04059,-0.0769,-0.02838,-0.04578,-0.01099,-0.00275,-0.02319,-0.00275,-0.03052,-0.00626,-0.03616,-0.02487,0.00885,-0.03922
3.3925,0.01678,-0.05737,-0.03082,-0.0798,-0.02884,-0.04639,-0.01144,-0.00076,-0.02167,-0.00137,-0.02274,-0.00671,-0.03632,-0.02487,0.0087,-0.0412
3.393,0.02609,-0.06058,-0.0209,-0.13336,-0.02975,-0.04623,-0.0119,0.00015,-0.02533,-0.00046,-0.01358,-0.0058,-0.0354,-0.0238,0.009,-0.04059
3.3935,0.03433,-0.05936,-0.00961,-0.17776,-0.03159,-0.04578,-0.01236,0.00137,-0.02914,-0.0029,-0.00717,-0.00275,-0.03418,-0.02258,0.00931,-0.03937
3.394,0.03876,-0.056,0.00305,-0.12512,-0.03128,-0.04654,-0.0119,0.00244,-0.02716,-0.0061,-0.00214,-0.00122,-0.03326,-0.0206,0.009,-0.0383
3.3945,0.03952,-0.0528,0.01236,0.0206,-0.03143,-0.04929,-0.01266,0.00092,-0.01709,-0.01022,0.0029,-0.00107,-0.03235,-0.0174,0.00885,-0.0386
3.395,0.03754,-0.04608,0.01389,0.1651,-0.03067,-0.04959,-0.01282,-0.00275,-0.00565,-0.01297,0.01236,-0.00504,-0.03128,-0.01526,0.00946,-0.03876
3.3955,0.03418,-0.03082,0.00854,0.22736,-0.03128,-0.04776,-0.01389,-0.00641,0.0029,-0.01617,0.02365,-0.01389,-0.02991,-0.01511,0.01022,-0.03967
3.396,0.02975,-0.00824,-0.00046,0.20615,-0.03082,-0.04501,-0.01419,-0.00748,0.01038,-0.02045,0.03342,-0.02792,-0.02975,-0.01465,0.00824,-0.04044
3.3965,0.02472,0.00427,-0.00687,0.14252,-0.03143,-0.04272,-0.01404,-0.00549,0.01862,-0.02411,0.04059,-0.04471,-0.02914,-0.01389,0.0061,-0.03906
3.397,0.02335,-0.00778,-0.00992,0.0708,-0.03174,-0.04349,-0.0145,-0.00244,0.02518,-0.02594,0.04532,-0.0531,-0.02808,-0.01358,0.00565,-0.03784
3.3975,0.02609,-0.03723,-0.0119,0.01007,-0.03128,-0.04578,-0.01419,-0.00259,0.02411,-0.02579,0.04715,-0.0473,-0.02655,-0.01419,0.00671,-0.03708
3.398,0.03189,-0.05676,-0.01495,-0.02655,-0.03159,-0.04684,-0.01465,-0.00519,0.01801,-0.02426,0.04425,-0.02975,-0.02777,-0.01572,0.00824,-0.03738
3.3985,0.03754,-0.05859,-0.01801,-0.03494,-0.03418,-0.04654,-0.0148,-0.00763,0.01251,-0.0235,0.03433,-0.01328,-0.03113,-0.01816,0.00732,-0.0386
3.399,0.03891,-0.05264,-0.0177,-0.0264,-0.03571,-0.04593,-0.0148,-0.00824,0.01083,-0.02716,0.01923,-0.00732,-0.03235,-0.01923,0.00549,-0.04028
3.3995,0.03662,-0.04974,-0.01389,-0.01709,-0.03494,-0.04593,-0.01389,-0.0058,0.01129,-0.03922,0.00092,-0.01266,-0.03082,-0.01831,0.00687,-0.0412
3.4,0.03235,-0.04913,-0.00458,-0.00671,-0.03403,-0.04501,-0.01266,-0.00214,0.01144,-0.05829,-0.01678,-0.0293,-0.02853,-0.01831,0.01068,-0.04028
3.4005,0.02838,-0.04501,0.00793,0.01404,-0.03387,-0.04364,-0.01205,0.00076,0.01053,-0.07446,-0.02853,-0.05936,-0.02747,-0.01801,0.01297,-0.03891
3.401,0.0235,-0.03708,0.01862,0.03845,-0.03632,-0.04227,-0.01129,0.00198,0.00946,-0.07904,-0.0322,-0.09247,-0.02747,-0.01709,0.01266,-0.03906
3.4015,0.01785,-0.02686,0.02106,0.04333,-0.03815,-0.04257,-0.00992,0.00153,0.00534,-0.07202,-0.03189,-0.10437,-0.02869,-0.01587,0.01053,-0.04105
3.402,0.01129,-0.01678,0.01465,0.0209,-0.03876,-0.04288,-0.00977,-0.00015,-0.00229,-0.06058,-0.03235,-0.08179,-0.03159,-0.0145,0.0087,-0.04242
3.4025,0.00717,-0.01389,0.0,-0.01541,-0.03891,-0.04181,-0.01068,-0.00092,-0.01373,-0.04898,-0.03006,-0.03708,-0.03616,-0.01419,0.00839,-0.04135
3.403,0.00229,-0.02136,-0.0174,-0.04425,-0.03891,-0.0412,-0.01251,0.0,-0.02457,-0.03571,-0.02304,0.00702,-0.0386,-0.01526,0.01007,-0.03769
3.4035,-0.0061,-0.0351,-0.03204,-0.05585,-0.0386,-0.04105,-0.01221,0.00168,-0.03021,-0.02335,-0.01053,0.03937,-0.03754,-0.01617,0.0119,-0.03479
3.404,-0.01862,-0.04379,-0.03845,-0.05219,-0.0383,-0.04089,-0.01099,0.00244,-0.02777,-0.01556,0.00153,0.05875,-0.03586,-0.01572,0.01343,-0.03403
3.4045,-0.02899,-0.04425,-0.03784,-0.03418,-0.03723,-0.04242,-0.01114,0.00153,-0.02167,-0.01205,0.01495,0.05875,-0.03662,-0.01312,0.01328,-0.03601
3.405,-0.03342,-0.04196,-0.03723,-0.00641,-0.03479,-0.04654,-0.01205,-0.00168,-0.0148,-0.00854,0.03067,0.04562,-0.03754,-0.01068,0.01358,-0.0383
3.4055,-0.02914,-0.04135,-0.04425,0.02151,-0.03296,-0.05219,-0.01389,-0.00549,-0.01205,-0.00259,0.04349,0.03815,-0.03662,-0.01007,0.01328,-0.0412
3.406,-0.01816,-0.04013,-0.05569,0.03983,-0.03159,-0.05478,-0.0145,-0.00778,-0.01251,0.0032,0.04776,0.04639,-0.03464,-0.01099,0.01312,-0.04364
3.4065,-0.0061,-0.03616,-0.06531,0.04623,-0.03113,-0.05112,-0.01434,-0.00793,-0.01465,0.0087,0.04532,0.05997,-0.03296,-0.01328,0.01129,-0.04425
3.407,0.00015,-0.03143,-0.07324,0.04562,-0.03036,-0.04425,-0.01328,-0.0058,-0.01862,0.01511,0.04028,0.05524,-0.0325,-0.01465,0.009,-0.04425
3.4075,0.00076,-0.02731,-0.09689,0.03662,-0.02991,-0.0412,-0.01389,-0.00366,-0.0235,0.02518,0.02945,0.0209,-0.0322,-0.01602,0.00824,-0.04562
3.408,-0.00168,-0.02457,-0.15427,0.01862,-0.02914,-0.0444,-0.01495,-0.00336,-0.02838,0.03128,0.00229,-0.02716,-0.03265,-0.01678,0.00717,-0.04547
3.4085,-0.00488,-0.02228,-0.22736,-0.00275,-0.03067,-0.05142,-0.01526,-0.00351,-0.03357,0.01968,-0.04044,-0.04791,-0.03448,-0.01724,0.00458,-0.04593
3.409,-0.00977,-0.02121,-0.27054,-0.02045,-0.03403,-0.05753,-0.0148,-0.00275,-0.04074,-0.01221,-0.08408,-0.01312,-0.03479,-0.01816,0.00122,-0.04562
3.4095,-0.01831,-0.02106,-0.25909,-0.03616,-0.03464,-0.06058,-0.01434,-0.00229,-0.04929,-0.04852,-0.11307,0.05402,-0.03387,-0.01999,0.00122,-0.04532
3.41,-0.02701,-0.01862,-0.21118,-0.05356,-0.03342,-0.06088,-0.01495,-0.00153,-0.05402,-0.06989,-0.12009,0.10376,-0.03357,-0.02106,0.00549,-0.04303
3.4105,-0.03143,-0.0148,-0.14404,-0.065,-0.03128,-0.05966,-0.01511,-0.00137,-0.0528,-0.07965,-0.10422,0.10971,-0.03296,-0.01999,0.00717,-0.04044
3.411,-0.03098,-0.01083,-0.05951,-0.05951,-0.03036,-0.056,-0.01572,-0.00275,-0.04639,-0.08621,-0.07538,0.08545,-0.03281,-0.01877,0.00946,-0.03891
3.4115,-0.02808,-0.00519,0.03448,-0.0415,-0.03098,-0.05188,-0.01495,-0.00427,-0.0383,-0.08957,-0.05127,0.056,-0.03052,-0.01831,0.0116,-0.03937
3.412,-0.0264,0.00458,0.10941,-0.02518,-0.03052,-0.04822,-0.01404,-0.00641,-0.0293,-0.07935,-0.04196,0.03357,-0.02853,-0.01816,0.01236,-0.04059
3.4125,-0.02594,0.01205,0.14725,-0.01511,-0.03006,-0.047,-0.01404,-0.00671,-0.01923,-0.05615,-0.04486,0.02014,-0.02777,-0.0174,0.01236,-0.04074
3.413,-0.02472,0.0087,0.15213,-0.00244,-0.03036,-0.04883,-0.01358,-0.0058,-0.01022,-0.03098,-0.04684,0.01785,-0.02823,-0.01587,0.01205,-0.04059
3.4135,-0.02151,-0.00519,0.14297,0.01129,-0.0322,-0.05341,-0.01297,-0.00412,-0.00656,-0.0119,-0.04181,0.02792,-0.02899,-0.01556,0.01144,-0.04044
3.414,-0.01907,-0.02182,0.12741,0.01785,-0.03387,-0.0592,-0.01129,-0.00275,-0.00641,-0.00031,-0.03754,0.0444,-0.02899,-0.01694,0.01083,-0.0412
3.4145,-0.01831,-0.03143,0.10574,0.01572,-0.03433,-0.06531,-0.00854,-0.00076,-0.00595,0.00641,-0.04028,0.056,-0.02869,-0.01801,0.00885,-0.04272
3.415,-0.0206,-0.03036,0.07721,0.01312,-0.03265,-0.07034,-0.00732,0.00031,-0.00595,0.00763,-0.04929,0.04959,-0.02884,-0.01907,0.00702,-0.04349
3.4155,-0.02136,-0.02228,0.04623,0.01648,-0.03021,-0.07111,-0.00916,0.00076,-0.00977,0.00381,-0.05585,0.02487,-0.02991,-0.01907,0.00565,-0.04349
3.416,-0.01541,-0.0145,0.01816,0.01755,-0.02853,-0.06592,-0.01312,0.00015,-0.0206,0.00015,-0.05997,-0.0032,-0.03036,-0.01999,0.00504,-0.04456
3.4165,-0.00183,-0.01633,-0.00656,0.00397,-0.02945,-0.05814,-0.01343,-0.00153,-0.0354,0.00443,-0.06393,-0.02579,-0.03021,-0.02045,0.00427,-0.04562
3.417,0.01175,-0.02609,-0.02792,-0.0264,-0.0322,-0.05295,-0.00931,-0.0029,-0.04623,0.01724,-0.06332,-0.04303,-0.03128,-0.02167,0.00351,-0.04639
3.4175,0.01892,-0.03845,-0.0473,-0.06119,-0.03418,-0.05127,-0.00534,-0.00259,-0.04364,0.0354,-0.04669,-0.05417,-0.03082,-0.02167,0.0032,-0.04532
3.418,0.01694,-0.04639,-0.06607,-0.08011,-0.03357,-0.05066,-0.00748,-0.00336,-0.02716,0.0531,-0.00824,-0.0528,-0.02899,-0.02014,0.00443,-0.04333
3.4185,0.00656,-0.05188,-0.09094,-0.07736,-0.03128,-0.04745,-0.01831,-0.0058,-0.00519,0.06882,0.0351,-0.04059,-0.02716,-0.01892,0.00565,-0.0412
3.419,-0.00793,-0.0592,-0.12421,-0.06805,-0.03204,-0.04257,-0.02777,-0.00793,0.01297,0.08163,0.05981,-0.02808,-0.02747,-0.01907,0.00793,-0.04059
3.4195,-0.02014,-0.06882,-0.15533,-0.06851,-0.0325,-0.03571,-0.02701,-0.0058,0.02655,0.09018,0.05829,-0.02411,-0.02838,-0.01938,0.01022,-0.04196
3.42,-0.02106,-0.0766,-0.16663,-0.07294,-0.03265,-0.0296,-0.01816,-0.00214,0.03723,0.09323,0.0415,-0.03036,-0.03082,-0.02014,0.01053,-0.04318
3.4205,-0.0087,-0.08118,-0.1532,-0.06744,-0.03143,-0.02716,-0.01083,-0.00122,0.04166,0.09232,0.02625,-0.03876,-0.03174,-0.02197,0.00977,-0.04501
3.421,0.00641,-0.08453,-0.12589,-0.05463,-0.03052,-0.02792,-0.00961,-0.00229,0.03693,0.08942,0.0235,-0.04303,-0.03342,-0.02365,0.00732,-0.04395
3.4215,0.01511,-0.0882,-0.09521,-0.04486,-0.03082,-0.03174,-0.01144,-0.00381,0.02716,0.08545,0.04105,-0.03967,-0.03403,-0.02457,0.00534,-0.04349
3.422,0.01511,-0.09476,-0.06805,-0.04089,-0.0322,-0.03677,-0.01343,-0.00412,0.01862,0.07843,0.07507,-0.03265,-0.03418,-0.02457,0.00412,-0.04303
3.4225,0.01312,-0.10376,-0.0441,-0.04242,-0.03342,-0.0444,-0.01404,-0.00443,0.01465,0.06592,0.10574,-0.0293,-0.03464,-0.02441,0.00473,-0.04395
3.423,0.01663,-0.11154,-0.02045,-0.05585,-0.03204,-0.05035,-0.01328,-0.00427,0.01617,0.04715,0.10651,-0.03036,-0.03448,-0.02258,0.00626,-0.04379
3.4235,0.02289,-0.11566,-0.00031,-0.08072,-0.03052,-0.05295,-0.01266,-0.00336,0.01755,0.02014,0.07416,-0.03403,-0.03418,-0.02045,0.0058,-0.04349
3.424,0.02213,-0.11292,0.00809,-0.10345,-0.03021,-0.05203,-0.01221,-0.00259,0.01358,-0.01465,0.02884,-0.03586,-0.03235,-0.0174,0.00488,-0.0415
3.4245,0.01297,-0.1062,0.00015,-0.10986,-0.02975,-0.04913,-0.01328,-0.00198,0.00031,-0.04898,-0.00961,-0.03372,-0.03098,-0.01541,0.00458,-0.04181
3.425,0.00397,-0.09842,-0.01984,-0.09918,-0.0296,-0.04623,-0.01617,-0.00092,-0.01999,-0.07187,-0.04028,-0.02808,-0.0296,-0.01602,0.00519,-0.04333
3.4255,0.00168,-0.08972,-0.04089,-0.0769,-0.02823,-0.04318,-0.01984,0.00031,-0.0383,-0.07904,-0.06287,-0.02106,-0.0293,-0.01648,0.00504,-0.0444
3.426,0.00504,-0.08255,-0.05127,-0.04364,-0.02731,-0.03952,-0.02167,0.00092,-0.04715,-0.07797,-0.07477,-0.01404,-0.03052,-0.01678,0.00427,-0.04532
3.4265,0.00687,-0.07675,-0.04578,0.00153,-0.02716,-0.03647,-0.01984,0.0,-0.04791,-0.07629,-0.07751,-0.00977,-0.03235,-0.01648,0.00412,-0.04547
3.427,0.00031,-0.07034,-0.02441,0.04532,-0.02777,-0.0354,-0.01648,-0.00061,-0.04089,-0.07629,-0.07828,-0.00778,-0.03372,-0.01694,0.00519,-0.04486
3.4275,-0.01617,-0.05692,-0.00275,0.06836,-0.03036,-0.03464,-0.01312,0.0,-0.02823,-0.07507,-0.08118,-0.00641,-0.03464,-0.01984,0.00702,-0.04349
3.428,-0.03418,-0.03464,0.00504,0.06866,-0.03326,-0.03387,-0.01068,0.00092,-0.01816,-0.0737,-0.08331,-0.00397,-0.03448,-0.02243,0.00641,-0.0415
3.4285,-0.04379,-0.00824,-0.0061,0.06332,-0.03448,-0.03418,-0.01038,0.00275,-0.01923,-0.08301,-0.08392,-0.00336,-0.03433,-0.0238,0.00443,-0.04089
3.429,-0.04807,0.0058,-0.01984,0.06485,-0.0351,-0.03616,-0.0119,0.00305,-0.02548,-0.11292,-0.08698,-0.00702,-0.0351,-0.0235,0.00412,-0.0412
3.4295,-0.05493,0.00168,-0.00992,0.07111,-0.03342,-0.03754,-0.0145,0.00183,-0.02197,-0.15884,-0.09155,-0.01328,-0.03464,-0.02274,0.00549,-0.03983
3.43,-0.06332,-0.01602,0.02762,0.07767,-0.03189,-0.03784,-0.01587,-0.00061,-0.00778,-0.19836,-0.09018,-0.01846,-0.03464,-0.02274,0.00641,-0.03693
3.4305,-0.06256,-0.03448,0.07156,0.08331,-0.03021,-0.03952,-0.01495,-0.00168,0.0032,-0.20981,-0.07645,-0.02136,-0.03586,-0.0238,0.00534,-0.03601
3.431,-0.04745,-0.04379,0.08728,0.08575,-0.03113,-0.04211,-0.01434,-0.00168,0.00198,-0.19318,-0.05463,-0.01724,-0.03662,-0.02579,0.00534,-0.03708
3.4315,-0.02472,-0.04456,0.05493,0.08942,-0.0322,-0.04608,-0.01434,-0.00259,-0.00763,-0.16129,-0.02914,-0.00763,-0.03601,-0.02502,0.00671,-0.0383
3.432,-0.00854,-0.04089,-0.00854,0.09369,-0.03128,-0.05066,-0.0145,-0.00443,-0.01511,-0.12817,0.00259,-0.00336,-0.03479,-0.02243,0.00854,-0.03891
3.4325,-0.0058,-0.0351,-0.05646,0.08774,-0.03204,-0.05554,-0.01312,-0.00534,-0.01617,-0.09705,0.04074,-0.00992,-0.03326,-0.01923,0.00839,-0.03937
3.433,-0.01099,-0.02487,-0.05676,0.06241,-0.03281,-0.06027,-0.01221,-0.00366,-0.01297,-0.06393,0.07111,-0.01221,-0.03189,-0.01724,0.00717,-0.0383
3.4335,-0.01389,-0.00793,-0.01923,0.01785,-0.03235,-0.06302,-0.01175,-0.00137,-0.0116,-0.03006,0.07706,0.00412,-0.03128,-0.0174,0.00793,-0.03647
3.434,-0.0119,0.01328,0.01526,-0.04074,-0.03098,-0.06378,-0.01251,-0.00015,-0.01205,0.0032,0.0592,0.03174,-0.03098,-0.01816,0.01053,-0.03494
3.4345,-0.00809,0.03418,0.009,-0.10559,-0.0293,-0.06317,-0.01251,0.00015,-0.01266,0.0351,0.03448,0.05157,-0.02991,-0.01785,0.01144,-0.0354
3.435,-0.00931,0.04303,-0.03845,-0.15549,-0.03067,-0.06256,-0.01221,-0.00076,-0.01205,0.06104,0.01358,0.05402,-0.0293,-0.01663,0.0119,-0.03738
3.4355,-0.01556,0.03403,-0.08728,-0.16937,-0.03174,-0.06119,-0.01282,-0.00168,-0.01251,0.07965,-0.0032,0.05096,-0.03052,-0.01617,0.0119,-0.03983
3.436,-0.01968,0.01495,-0.09583,-0.15182,-0.03113,-0.06088,-0.01328,-0.00214,-0.01297,0.08698,-0.01038,0.05402,-0.03159,-0.01755,0.01205,-0.04074
3.4365,-0.01587,0.00336,-0.06714,-0.1181,-0.03021,-0.06042,-0.01266,-0.00244,-0.0119,0.08591,-0.00305,0.05829,-0.03143,-0.01938,0.01221,-0.04074
3.437,-0.00488,0.00992,-0.03952,-0.07156,-0.02914,-0.05859,-0.01099,-0.00259,-0.00748,0.08118,0.01587,0.05569,-0.03067,-0.01953,0.0119,-0.04013
3.4375,0.00778,0.02075,-0.02792,-0.01709,-0.0296,-0.056,-0.01068,-0.0029,-0.00122,0.07233,0.03403,0.04257,-0.03143,-0.01907,0.01038,-0.04013
3.438,0.01709,0.01251,-0.01053,0.03021,-0.02975,-0.05569,-0.01205,-0.00244,0.00687,0.05524,0.03922,0.02258,-0.03235,-0.01907,0.01053,-0.03998
3.4385,0.01968,-0.03143,0.02991,0.06165,-0.0296,-0.05829,-0.01404,-0.0029,0.01328,0.03128,0.03723,0.00198,-0.03235,-0.01923,0.01129,-0.04105
3.439,0.01633,-0.09872,0.07782,0.06989,-0.02869,-0.06088,-0.0145,-0.00519,0.01343,0.00885,0.0351,-0.01358,-0.03082,-0.01877,0.01007,-0.04272
3.4395,0.01328,-0.15686,0.11002,0.03998,-0.02686,-0.05936,-0.01343,-0.00687,0.00748,-0.00778,0.03937,-0.01663,-0.0293,-0.0174,0.00931,-0.04349
3.44,0.01129,-0.1799,0.12955,-0.03265,-0.02411,-0.05386,-0.01205,-0.00595,0.00153,-0.01999,0.04913,-0.00931,-0.0293,-0.01587,0.01038,-0.04379
3.4405,0.01038,-0.16891,0.14389,-0.11902,-0.02396,-0.04791,-0.0119,-0.00275,-0.00168,-0.03204,0.06088,-0.00824,-0.02975,-0.0148,0.01175,-0.0444
3.441,0.00671,-0.14206,0.15106,-0.17685,-0.02563,-0.04517,-0.01144,-0.00061,-0.00595,-0.04547,0.06607,-0.03021,-0.02808,-0.01328,0.0116,-0.04425
3.4415,0.00229,-0.11292,0.13535,-0.18188,-0.02899,-0.04272,-0.01144,-0.00015,-0.01434,-0.05875,0.04913,-0.0708,-0.02563,-0.01251,0.01083,-0.04349
3.442,-0.00259,-0.08591,0.08911,-0.1268,-0.02899,-0.04196,-0.01144,-0.00046,-0.01953,-0.06912,0.01053,-0.10529,-0.02594,-0.01389,0.01022,-0.04135
3.4425,-0.00656,-0.06577,0.02792,-0.02365,-0.0296,-0.04303,-0.01129,-0.00046,-0.01724,-0.07507,-0.02914,-0.11642,-0.02777,-0.01419,0.01114,-0.04059
3.443,-0.01099,-0.056,-0.02411,0.09064,-0.03021,-0.04303,-0.01099,-0.00092,-0.01938,-0.07462,-0.04471,-0.11124,-0.02792,-0.01205,0.01099,-0.04196
3.4435,-0.0145,-0.05722,-0.05783,0.1738,-0.03082,-0.03967,-0.01022,-0.00092,-0.03769,-0.07324,-0.03342,-0.10818,-0.02579,-0.00961,0.00992,-0.04379
3.444,-0.01266,-0.06378,-0.08911,0.19821,-0.03174,-0.03693,-0.00916,0.0,-0.065,-0.07843,-0.00443,-0.11536,-0.02487,-0.01099,0.00763,-0.04501
3.4445,-0.00183,-0.06989,-0.13672,0.15594,-0.03128,-0.03662,-0.00885,0.00168,-0.08118,-0.09018,0.03372,-0.12985,-0.02777,-0.01465,0.0061,-0.04471
3.445,0.01236,-0.07324,-0.20233,0.06683,-0.02945,-0.03723,-0.01038,0.00259,-0.07721,-0.09949,0.06882,-0.1387,-0.03204,-0.01724,0.00641,-0.0444
3.4455,0.01938,-0.07355,-0.28122,-0.02396,-0.0296,-0.03723,-0.01297,0.00092,-0.06256,-0.10071,0.0766,-0.1297,-0.03418,-0.01587,0.00824,-0.0441
3.446,0.01465,-0.06012,-0.3804,-0.0737,-0.03128,-0.03479,-0.01541,-0.00107,-0.04913,-0.09537,0.04532,-0.08713,-0.03387,-0.01495,0.00778,-0.04395
3.4465,0.00305,-0.02289,-0.48859,-0.07828,-0.03281,-0.03174,-0.01556,-0.00351,-0.04303,-0.08591,-0.00809,-0.01144,-0.03342,-0.0148,0.00732,-0.04349
3.447,-0.00885,0.03082,-0.55008,-0.05997,-0.03326,-0.0293,-0.01526,-0.00549,-0.04196,-0.07019,-0.05707,0.06897,-0.03296,-0.01587,0.00641,-0.04379
3.4475,-0.01816,0.07523,-0.50507,-0.02228,-0.03128,-0.02747,-0.01434,-0.00732,-0.03937,-0.04471,-0.08942,0.11902,-0.03265,-0.01602,0.00717,-0.04532
3.448,-0.02487,0.08682,-0.35202,0.05081,-0.02899,-0.0267,-0.01282,-0.00793,-0.0293,-0.00931,-0.11078,0.13443,-0.0325,-0.01663,0.00916,-0.04761
3.4485,-0.03342,0.07233,-0.15137,0.14023,-0.02792,-0.02853,-0.01068,-0.00671,-0.01144,0.02914,-0.12741,0.13336,-0.03296,-0.01831,0.00931,-0.04913
3.449,-0.04425,0.05341,0.02762,0.17975,-0.02823,-0.03403,-0.00931,-0.00534,0.00626,0.06332,-0.13977,0.11749,-0.03311,-0.01907,0.00763,-0.04898
3.4495,-0.05203,0.04227,0.14633,0.13412,-0.03021,-0.04074,-0.00854,-0.00473,0.01602,0.09155,-0.14801,0.07797,-0.03326,-0.01877,0.00702,-0.047
3.45,-0.056,0.03403,0.1973,0.05203,-0.03281,-0.04608,-0.00977,-0.00336,0.02029,0.11444,-0.15167,0.01862,-0.03265,-0.01785,0.00793,-0.04456
3.4505,-0.05875,0.02029,0.19684,0.00519,-0.03387,-0.04883,-0.0116,-0.00214,0.01984,0.13245,-0.14557,-0.04089,-0.03265,-0.01678,0.009,-0.04257
3.451,-0.06424,0.00458,0.1712,0.00381,-0.03433,-0.04761,-0.01266,-0.00229,0.01099,0.14175,-0.12863,-0.07721,-0.03387,-0.0174,0.00992,-0.04166
3.4515,-0.07324,-0.00717,0.14313,0.00854,-0.03403,-0.04425,-0.01297,-0.00427,-0.00549,0.13779,-0.10788,-0.07446,-0.03418,-0.01923,0.00885,-0.0415
3.452,-0.07706,-0.01221,0.11688,-0.00534,-0.03403,-0.04364,-0.01373,-0.00717,-0.01633,0.11993,-0.09583,-0.04028,-0.03387,-0.02213,0.00763,-0.04196
3.4525,-0.06943,-0.01144,0.08804,-0.02869,-0.0325,-0.047,-0.01434,-0.00824,-0.01312,0.09384,-0.09018,0.00092,-0.03342,-0.02472,0.0061,-0.04242
3.453,-0.05188,-0.00687,0.05341,-0.04639,-0.03021,-0.05264,-0.01373,-0.00671,-0.00183,0.06195,-0.0795,0.03815,-0.03281,-0.02518,0.0058,-0.0415
3.4535,-0.03403,-0.00565,0.01541,-0.05859,-0.02884,-0.05524,-0.01205,-0.00397,0.00504,0.02518,-0.06104,0.07126,-0.03311,-0.02472,0.00626,-0.04105
3.454,-0.02045,-0.01358,-0.01877,-0.07019,-0.03006,-0.05219,-0.01175,-0.00305,0.01022,-0.01938,-0.0441,0.09659,-0.03357,-0.02396,0.00717,-0.04196
3.4545,-0.00931,-0.02945,-0.04639,-0.08148,-0.03113,-0.04822,-0.01175,-0.00397,0.02182,-0.06699,-0.03464,0.10544,-0.03372,-0.02289,0.00824,-0.04211
3.455,0.00351,-0.04608,-0.06638,-0.07645,-0.03159,-0.04547,-0.0116,-0.00565,0.03647,-0.11169,-0.03677,0.10117,-0.03571,-0.02319,0.009,-0.04257
3.4555,0.02045,-0.05905,-0.07538,-0.0412,-0.03143,-0.04623,-0.01297,-0.00534,0.04364,-0.15015,-0.05005,0.09018,-0.03693,-0.02411,0.00778,-0.04318
3.456,0.03876,-0.06927,-0.07324,0.0087,-0.03098,-0.04807,-0.0148,-0.00443,0.03937,-0.17715,-0.0647,0.07385,-0.03708,-0.02594,0.00641,-0.04303
3.4565,0.05325,-0.07782,-0.0679,0.03479,-0.03174,-0.04929,-0.01663,-0.00366,0.02502,-0.18661,-0.06882,0.05173,-0.03723,-0.02792,0.00687,-0.04318
3.457,0.05737,-0.08408,-0.06454,0.01099,-0.03342,-0.05051,-0.01755,-0.00412,0.00031,-0.17502,-0.06653,0.0322,-0.03754,-0.03021,0.00671,-0.04379
3.4575,0.04807,-0.09277,-0.06409,-0.04593,-0.03418,-0.05249,-0.01831,-0.00427,-0.02853,-0.15305,-0.0737,0.02029,-0.03754,-0.03159,0.00717,-0.04379
3.458,0.02899,-0.10544,-0.06607,-0.09583,-0.03403,-0.05692,-0.01923,-0.00488,-0.04654,-0.13458,-0.0946,0.01602,-0.03738,-0.03082,0.00732,-0.04456
3.4585,0.0087,-0.11642,-0.07065,-0.10529,-0.03342,-0.06271,-0.02106,-0.00656,-0.04501,-0.12527,-0.11383,0.01923,-0.03708,-0.02945,0.00549,-0.04501
3.459,-0.00626,-0.1207,-0.07813,-0.06775,-0.03281,-0.06424,-0.02106,-0.00748,-0.03372,-0.11444,-0.11932,0.02747,-0.03632,-0.02609,0.00488,-0.04517
3.4595,-0.01282,-0.12177,-0.08453,-0.00015,-0.03098,-0.05844,-0.01938,-0.00641,-0.02777,-0.08621,-0.1149,0.03448,-0.03448,-0.02304,0.00641,-0.04364
3.46,-0.01328,-0.11856,-0.09018,0.07111,-0.02899,-0.04745,-0.01663,-0.00397,-0.03159,-0.03998,-0.10239,0.02808,-0.03342,-0.02167,0.009,-0.04242
3.4605,-0.00778,-0.10788,-0.1001,0.12436,-0.0267,-0.0383,-0.01556,-0.00183,-0.03906,0.0145,-0.07446,0.00214,-0.03342,-0.02167,0.01022,-0.04227
3.461,0.00031,-0.09293,-0.11429,0.14145,-0.02563,-0.03311,-0.01434,-0.00198,-0.04715,0.06668,-0.03189,-0.03189,-0.03342,-0.01923,0.00946,-0.04333
3.4615,0.00702,-0.08575,-0.13168,0.12024,-0.02518,-0.03128,-0.01251,-0.00229,-0.05554,0.11566,0.01389,-0.04761,-0.03265,-0.01389,0.009,-0.0441
3.462,0.01053,-0.08591,-0.14206,0.07324,-0.02396,-0.0322,-0.01129,-0.00153,-0.06226,0.16296,0.05676,-0.02716,-0.03235,-0.00916,0.009,-0.0444
3.4625,0.01846,-0.08026,-0.13947,0.01511,-0.02274,-0.03204,-0.00946,-0.00031,-0.06226,0.20706,0.09506,0.01968,-0.03204,-0.00717,0.00977,-0.04318
3.463,0.04089,-0.05722,-0.12634,-0.04898,-0.02197,-0.03021,-0.00946,0.00046,-0.05508,0.24017,0.12238,0.05646,-0.03174,-0.00702,0.01053,-0.04257
3.4635,0.07462,-0.02289,-0.11475,-0.1004,-0.02197,-0.02777,-0.01022,-0.00153,-0.04456,0.25452,0.13443,0.04654,-0.03098,-0.00717,0.01251,-0.04135
3.464,0.1059,0.00427,-0.10574,-0.11078,-0.02319,-0.02899,-0.01266,-0.00351,-0.03403,0.24429,0.1326,-0.01816,-0.0296,-0.00671,0.01328,-0.04105
3.4645,0.12405,0.01526,-0.08667,-0.08011,-0.02548,-0.03204,-0.01373,-0.00381,-0.02258,0.20447,0.13306,-0.11261,-0.02762,-0.00626,0.01297,-0.04074
3.465,0.12939,0.01617,-0.05371,-0.04898,-0.02762,-0.03281,-0.01343,-0.00183,-0.00992,0.14053,0.14099,-0.20126,-0.02792,-0.00641,0.01144,-0.04013
3.4655,0.13031,0.01709,-0.01465,-0.05783,-0.02853,-0.03189,-0.01236,0.00061,0.0,0.07309,0.15778,-0.26474,-0.0293,-0.00656,0.01236,-0.03983
3.466,0.12802,0.0174,0.02304,-0.09979,-0.02884,-0.03113,-0.01114,0.00076,0.00565,0.02121,0.1825,-0.28473,-0.0296,-0.00687,0.01251,-0.03937
3.4665,0.11917,0.01114,0.06165,-0.13809,-0.03082,-0.03418,-0.01068,-0.00061,0.01083,-0.01617,0.20203,-0.24872,-0.03052,-0.00763,0.0119,-0.0383
3.467,0.10132,-0.00473,0.0975,-0.14801,-0.03174,-0.03983,-0.01266,-0.00259,0.02014,-0.05402,0.18845,-0.16556,-0.03159,-0.009,0.01144,-0.03922
3.4675,0.07645,-0.02319,0.12131,-0.14801,-0.03311,-0.04547,-0.01495,-0.00412,0.03326,-0.09735,0.13336,-0.05447,-0.03403,-0.01266,0.01236,-0.04089
3.468,0.04623,-0.03693,0.12222,-0.16663,-0.03433,-0.0502,-0.0174,-0.00702,0.04791,-0.13382,0.05859,0.06577,-0.03586,-0.01465,0.01205,-0.04211
3.4685,0.01129,-0.04303,0.09964,-0.20584,-0.03662,-0.0528,-0.01923,-0.01038,0.0589,-0.15198,-0.00443,0.16235,-0.03586,-0.01556,0.01129,-0.04028
3.469,-0.02579,-0.04272,0.06424,-0.24033,-0.03784,-0.05585,-0.01816,-0.01099,0.05585,-0.15457,-0.03296,0.19379,-0.03326,-0.01404,0.01083,-0.03647
3.4695,-0.05936,-0.04242,0.02869,-0.23666,-0.03922,-0.05676,-0.01434,-0.009,0.03372,-0.15305,-0.01633,0.15533,-0.03036,-0.01328,0.01083,-0.0354
3.47,-0.08102,-0.04395,-0.00198,-0.1828,-0.04013,-0.056,-0.01129,-0.00549,-0.00031,-0.1506,0.03098,0.0943,-0.02869,-0.01434,0.0116,-0.03754
3.4705,-0.08682,-0.04456,-0.03555,-0.09399,-0.04089,-0.05447,-0.01129,-0.00259,-0.03403,-0.13855,0.07019,0.0618,-0.03052,-0.01724,0.0116,-0.04013
3.471,-0.08347,-0.03845,-0.07263,-0.01068,-0.03983,-0.05356,-0.01358,-0.00031,-0.05829,-0.1062,0.07172,0.06088,-0.03281,-0.02014,0.01099,-0.04181
3.4715,-0.08041,-0.02197,-0.10162,0.03387,-0.0383,-0.05417,-0.01419,0.00351,-0.07263,-0.05783,0.0322,0.06409,-0.03342,-0.02274,0.00885,-0.04227
3.472,-0.08118,-0.00336,-0.10849,0.05814,-0.03754,-0.05341,-0.01114,0.00565,-0.08041,-0.01068,-0.03143,0.0705,-0.03479,-0.02411,0.00504,-0.04333
3.4725,-0.08667,-0.00259,-0.09705,0.11307,-0.03754,-0.04944,-0.00854,0.00488,-0.08728,0.02274,-0.09781,0.09384,-0.03571,-0.02457,0.00244,-0.04318
3.473,-0.09277,-0.03143,-0.08514,0.2002,-0.03845,-0.04395,-0.00854,0.00137,-0.09537,0.03494,-0.14084,0.1239,-0.03616,-0.02319,0.00183,-0.04181
3.4735,-0.09583,-0.07568,-0.09247,0.24933,-0.03876,-0.04288,-0.01022,-0.00015,-0.10406,0.02762,-0.13504,0.12375,-0.03448,-0.02243,0.0032,-0.04166
3.474,-0.09384,-0.10727,-0.11536,0.21423,-0.03952,-0.04776,-0.01175,0.00107,-0.10666,0.01526,-0.08453,0.07309,-0.03204,-0.02182,0.00259,-0.04486
3.4745,-0.08316,-0.11688,-0.12634,0.14099,-0.03937,-0.05539,-0.01068,0.00504,-0.0975,0.01465,-0.0267,-0.00687,-0.03174,-0.02029,0.00107,-0.04898
3.475,-0.06577,-0.11978,-0.09888,0.0975,-0.03876,-0.06058,-0.01022,0.00671,-0.07584,0.02884,-0.00137,-0.0769,-0.03159,-0.02045,0.0,-0.0499
3.4755,-0.04547,-0.13168,-0.03525,0.07889,-0.03815,-0.06149,-0.01007,0.00458,-0.04929,0.04257,-0.01602,-0.10712,-0.03113,-0.0206,0.00137,-0.04852
3.476,-0.02975,-0.14771,0.03906,0.04333,-0.03967,-0.06027,-0.01022,0.00046,-0.02869,0.04623,-0.04852,-0.09186,-0.03098,-0.02045,0.00412,-0.047
3.4765,-0.02762,-0.15182,0.09964,-0.00046,-0.03983,-0.05676,-0.01038,-0.00275,-0.01862,0.04379,-0.06744,-0.04089,-0.03311,-0.02182,0.00626,-0.04501
3.477,-0.0386,-0.14435,0.12924,-0.01923,-0.0386,-0.0528,-0.0116,-0.00397,-0.01373,0.04105,-0.05264,0.02701,-0.0351,-0.02411,0.00809,-0.04364
3.4775,-0.05157,-0.14084,0.10788,-0.02502,-0.03494,-0.05051,-0.01282,-0.00427,-0.0032,0.03922,-0.00916,0.08301,-0.03601,-0.02579,0.00732,-0.04242
3.478,-0.05524,-0.1416,0.03082,-0.06699,-0.03418,-0.05173,-0.01404,-0.00443,0.0174,0.03296,0.03098,0.10025,-0.03479,-0.0267,0.00595,-0.0415
3.4785,-0.04654,-0.12375,-0.05371,-0.14694,-0.03433,-0.05432,-0.01511,-0.00534,0.03525,0.0145,0.0386,0.07935,-0.03342,-0.02594,0.00443,-0.04257
3.479,-0.03098,-0.07751,-0.0647,-0.1947,-0.03448,-0.05569,-0.01678,-0.00702,0.03342,-0.01755,0.01663,0.04959,-0.03311,-0.02319,0.00412,-0.04501
3.4795,-0.01617,-0.02686,0.01648,-0.15442,-0.03281,-0.056,-0.01923,-0.00885,0.00961,-0.05524,-0.01205,0.03204,-0.03311,-0.01984,0.0058,-0.047
3.48,-0.00595,0.00122,0.11169,-0.04898,-0.0325,-0.05692,-0.01938,-0.00854,-0.02106,-0.09033,-0.03433,0.0235,-0.0325,-0.01801,0.00656,-0.04715
3.4805,0.00183,0.00671,0.13214,0.05219,-0.03479,-0.06226,-0.01862,-0.00854,-0.04166,-0.11383,-0.05249,0.01831,-0.03189,-0.0174,0.00504,-0.04532
3.481,0.00687,0.0061,0.07919,0.10437,-0.03845,-0.06836,-0.01617,-0.00763,-0.05081,-0.12665,-0.06577,0.02029,-0.0322,-0.01663,0.00336,-0.04333
3.4815,0.00534,0.00778,0.00305,0.10574,-0.03891,-0.07462,-0.01373,-0.00687,-0.05463,-0.12878,-0.06607,0.03738,-0.0325,-0.01465,0.00351,-0.04318
3.482,-0.0029,0.00854,-0.06165,0.08102,-0.03799,-0.07813,-0.01312,-0.00732,-0.0618,-0.12787,-0.05127,0.05951,-0.0325,-0.01343,0.0058,-0.04395
3.4825,-0.01068,0.00793,-0.1088,0.05615,-0.03769,-0.0769,-0.01465,-0.00809,-0.07019,-0.12985,-0.03922,0.07034,-0.03174,-0.01266,0.0058,-0.04471
3.483,-0.01038,0.01129,-0.13107,0.04135,-0.03632,-0.07034,-0.01587,-0.00839,-0.0708,-0.13596,-0.05142,0.05844,-0.03098,-0.01205,0.00519,-0.04395
3.4835,0.00092,0.01801,-0.12772,0.03128,-0.03281,-0.06134,-0.01633,-0.00854,-0.06088,-0.14145,-0.0885,0.03418,-0.03098,-0.01068,0.0058,-0.04105
3.484,0.01709,0.02045,-0.10818,0.02441,-0.03067,-0.05585,-0.01633,-0.00916,-0.04578,-0.13443,-0.1268,0.01526,-0.03082,-0.01022,0.00717,-0.03967
3.4845,0.03128,0.01785,-0.06577,0.03143,-0.02991,-0.05463,-0.01678,-0.009,-0.03403,-0.1152,-0.1384,0.00717,-0.02991,-0.01068,0.00793,-0.03952
3.485,0.0386,0.01419,0.00854,0.05676,-0.03052,-0.05264,-0.0174,-0.00687,-0.0267,-0.08896,-0.11032,0.00778,-0.02899,-0.01251,0.00824,-0.04074
3.4855,0.0441,0.00931,0.09293,0.08926,-0.03159,-0.0499,-0.01724,-0.00534,-0.02075,-0.05844,-0.05432,0.00885,-0.0296,-0.01511,0.00854,-0.0415
3.486,0.05234,0.00046,0.14923,0.11185,-0.0325,-0.04868,-0.01511,-0.00519,-0.01526,-0.0209,-0.00107,0.00809,-0.03036,-0.01694,0.00839,-0.04013
3.4865,0.05844,-0.01312,0.16434,0.11063,-0.03326,-0.04959,-0.01236,-0.00397,-0.01251,0.01221,0.02319,0.00565,-0.03098,-0.01785,0.00961,-0.03876
3.487,0.05219,-0.02167,0.15762,0.08453,-0.03281,-0.04929,-0.01083,-0.00305,-0.01114,0.02335,0.00961,0.0,-0.03098,-0.01907,0.01068,-0.03952
3.4875,0.03632,-0.02121,0.14145,0.03937,-0.03143,-0.04456,-0.01175,-0.00305,-0.00824,0.01038,-0.02411,-0.00763,-0.03006,-0.02014,0.00992,-0.0412
3.488,0.02411,-0.01526,0.11276,-0.01328,-0.0296,-0.03677,-0.01389,-0.00534,-0.00168,-0.00732,-0.05981,-0.0148,-0.0293,-0.02029,0.00977,-0.0415
3.4885,0.01938,-0.0119,0.06699,-0.05676,-0.02792,-0.0293,-0.01617,-0.00854,0.00793,-0.0119,-0.09003,-0.02106,-0.0296,-0.01907,0.01083,-0.03906
3.489,0.01724,-0.01572,0.0174,-0.06851,-0.02594,-0.02396,-0.01724,-0.01053,0.02197,-0.00183,-0.11337,-0.02518,-0.03021,-0.01907,0.01266,-0.03799
3.4895,0.01205,-0.02655,-0.02701,-0.04166,-0.02502,-0.02136,-0.01663,-0.00839,0.04013,0.01221,-0.1178,-0.02518,-0.03021,-0.01999,0.01495,-0.03922
3.49,-0.00015,-0.04105,-0.06805,-0.00214,-0.02396,-0.02167,-0.01556,-0.00595,0.05539,0.02106,-0.09369,-0.02319,-0.02945,-0.01923,0.01465,-0.0412
3.4905,-0.01678,-0.05173,-0.11093,0.0264,-0.02258,-0.02808,-0.01419,-0.00412,0.05646,0.02106,-0.04349,-0.02197,-0.02777,-0.01755,0.01282,-0.04105
3.491,-0.03815,-0.05234,-0.15106,0.04883,-0.02243,-0.03876,-0.01404,-0.0029,0.03677,0.01465,0.01144,-0.02411,-0.02609,-0.01755,0.01099,-0.03922
3.4915,-0.06577,-0.04654,-0.17868,0.07309,-0.02441,-0.05081,-0.01587,-0.00244,0.01007,0.00946,0.04868,-0.02655,-0.02533,-0.01816,0.01022,-0.03693
3.492,-0.09293,-0.04257,-0.19028,0.08011,-0.02716,-0.05768,-0.0177,-0.00168,-0.00519,0.00916,0.05539,-0.02701,-0.02472,-0.01862,0.01099,-0.03647
3.4925,-0.10544,-0.04288,-0.19043,0.04684,-0.02808,-0.05646,-0.01816,-0.00183,-0.00183,0.00824,0.03738,-0.02594,-0.02518,-0.01907,0.0119,-0.03769
3.493,-0.09674,-0.04944,-0.1889,-0.01389,-0.02762,-0.047,-0.01724,-0.00275,0.01083,0.0032,0.00931,-0.02457,-0.02563,-0.0209,0.01328,-0.03983
3.4935,-0.07599,-0.06775,-0.19333,-0.0592,-0.02716,-0.03525,-0.01572,-0.0032,0.02319,-0.0032,-0.01389,-0.02182,-0.02594,-0.02258,0.01419,-0.03937
3.494,-0.05585,-0.09079,-0.19958,-0.0618,-0.02853,-0.02792,-0.01495,-0.00351,0.03281,-0.01038,-0.02701,-0.0174,-0.02563,-0.02396,0.01419,-0.03891
3.4945,-0.03876,-0.09933,-0.19928,-0.03067,-0.03021,-0.02853,-0.01465,-0.0032,0.03799,-0.02274,-0.03098,-0.01068,-0.02594,-0.02365,0.0119,-0.03998
3.495,-0.01938,-0.08163,-0.18646,0.00626,-0.03189,-0.03342,-0.01389,-0.00214,0.03525,-0.04288,-0.03098,-0.00198,-0.02563,-0.02243,0.0087,-0.04318
3.4955,0.00351,-0.05386,-0.16495,0.02792,-0.0322,-0.03891,-0.01389,-0.00198,0.02762,-0.0647,-0.02975,0.00137,-0.02579,-0.02182,0.0058,-0.04761
3.496,0.02609,-0.03754,-0.1442,0.02762,-0.03189,-0.0415,-0.01511,-0.00259,0.02121,-0.07935,-0.0267,-0.00977,-0.0267,-0.02167,0.00412,-0.04791
3.4965,0.04578,-0.0325,-0.13901,0.00854,-0.03296,-0.04333,-0.01678,-0.0029,0.01663,-0.08636,-0.02945,-0.03006,-0.02914,-0.0209,0.00443,-0.04471
3.497,0.06165,-0.02487,-0.16129,-0.01846,-0.03403,-0.04471,-0.01724,-0.00336,0.00977,-0.09003,-0.04318,-0.04135,-0.03113,-0.0209,0.00702,-0.03998
3.4975,0.07477,-0.00595,-0.20996,-0.0444,-0.0351,-0.04807,-0.01465,-0.0029,-0.00015,-0.09277,-0.05997,-0.03677,-0.03326,-0.02075,0.00931,-0.03662
3.498,0.08636,0.01617,-0.25269,-0.06577,-0.0351,-0.05234,-0.01282,-0.00244,-0.00595,-0.09232,-0.06378,-0.02686,-0.03418,-0.01984,0.01068,-0.03555
3.4985,0.09171,0.03418,-0.24521,-0.08209,-0.03433,-0.05554,-0.01251,-0.00275,-0.00351,-0.08438,-0.04959,-0.02213,-0.03571,-0.01877,0.01175,-0.03464
3.499,0.08621,0.0531,-0.17075,-0.09277,-0.03189,-0.05814,-0.01297,-0.00198,0.00046,-0.06729,-0.02457,-0.02045,-0.03586,-0.01816,0.0116,-0.03525
3.4995,0.06622,0.07629,-0.05249,-0.09109,-0.02991,-0.05951,-0.01266,0.00046,-0.00397,-0.04272,0.00549,-0.01694,-0.0354,-0.01755,0.00961,-0.03632
3.5,0.03998,0.09201,0.07385,-0.07095,-0.02701,-0.06027,-0.01236,0.00229,-0.01587,-0.01419,0.03815,-0.00946,-0.03494,-0.01816,0.00854,-0.03738
3.5005,0.01556,0.08606,0.18692,-0.04562,-0.02518,-0.05966,-0.01251,0.00305,-0.02808,0.01617,0.06149,0.00854,-0.03403,-0.01953,0.009,-0.03586
3.501,-0.00137,0.0618,0.27054,-0.0325,-0.02518,-0.05768,-0.01312,0.00305,-0.0351,0.04471,0.06714,0.04288,-0.03342,-0.02075,0.01022,-0.03265
3.5015,-0.01511,0.03433,0.30823,-0.02686,-0.02594,-0.0528,-0.01266,0.00168,-0.03494,0.06943,0.05981,0.08423,-0.03372,-0.02106,0.00961,-0.03113
3.502,-0.03235,0.00992,0.2948,-0.01007,-0.02762,-0.05035,-0.01144,0.00061,-0.02884,0.09109,0.05264,0.10757,-0.03586,-0.02167,0.00656,-0.0322
3.5025,-0.05219,-0.01068,0.24597,0.01617,-0.02975,-0.05142,-0.01053,0.00137,-0.01862,0.10986,0.05203,0.103,-0.03616,-0.02014,0.00458,-0.03448
3.503,-0.06332,-0.02975,0.186,0.03571,-0.03235,-0.05325,-0.01099,0.00275,-0.00931,0.11719,0.05951,0.07996,-0.03525,-0.01923,0.00549,-0.03601
3.5035,-0.05707,-0.04623,0.13031,0.04257,-0.03387,-0.05264,-0.01236,0.00488,-0.00259,0.10178,0.08011,0.05356,-0.03479,-0.01923,0.00641,-0.03601
3.504,-0.03464,-0.06058,0.07584,0.03799,-0.0325,-0.05219,-0.01297,0.00534,0.0,0.06271,0.11047,0.03021,-0.03494,-0.02014,0.00809,-0.03555
3.5045,-0.00961,-0.07645,0.02304,0.01801,-0.03036,-0.05081,-0.01266,0.00473,-0.00107,0.01114,0.13809,0.00763,-0.03464,-0.02121,0.00824,-0.03586
3.505,0.00366,-0.09079,-0.02548,-0.02151,-0.03006,-0.04822,-0.0119,0.00381,-0.00275,-0.03952,0.14145,-0.0174,-0.03601,-0.0206,0.00854,-0.03754
3.5055,0.00427,-0.09857,-0.06592,-0.07462,-0.03006,-0.04593,-0.01083,0.00275,-0.00366,-0.08209,0.11429,-0.04379,-0.03677,-0.02014,0.00778,-0.03937
3.506,0.00504,-0.09598,-0.09491,-0.12558,-0.03036,-0.04395,-0.00961,0.00107,-0.00809,-0.11322,0.06439,-0.06592,-0.03799,-0.02075,0.00839,-0.04166
3.5065,0.0116,-0.08774,-0.1178,-0.16098,-0.03128,-0.04257,-0.00793,0.00107,-0.01953,-0.12772,0.00671,-0.08575,-0.03784,-0.02167,0.00778,-0.04135
3.507,0.02335,-0.08163,-0.159,-0.17548,-0.03052,-0.04196,-0.00824,0.00092,-0.03662,-0.12436,-0.04593,-0.11047,-0.03708,-0.02243,0.00626,-0.04166
3.5075,0.03448,-0.08087,-0.24506,-0.16571,-0.03082,-0.0415,-0.01053,0.00107,-0.05066,-0.11139,-0.08072,-0.14221,-0.03586,-0.02243,0.00626,-0.04089
3.508,0.04013,-0.08026,-0.35324,-0.13565,-0.03098,-0.04211,-0.01297,0.00122,-0.05478,-0.10101,-0.08896,-0.16663,-0.03555,-0.02182,0.00793,-0.04013
3.5085,0.03754,-0.07568,-0.40253,-0.09705,-0.03082,-0.04486,-0.01343,0.00076,-0.04868,-0.09781,-0.0766,-0.16403,-0.03632,-0.02258,0.00854,-0.03983
3.509,0.03006,-0.07034,-0.32593,-0.06332,-0.03159,-0.04654,-0.01358,-0.00107,-0.04135,-0.09171,-0.05783,-0.12833,-0.03647,-0.02243,0.00717,-0.03983
3.5095,0.01968,-0.06805,-0.15503,-0.05157,-0.03204,-0.04623,-0.01404,-0.00351,-0.03754,-0.07645,-0.04456,-0.0708,-0.03479,-0.02045,0.00702,-0.03922
3.51,0.0058,-0.06821,0.0174,-0.06699,-0.03189,-0.0441,-0.01526,-0.00595,-0.03586,-0.056,-0.04059,-0.01389,-0.03403,-0.01953,0.00839,-0.03922
3.5105,-0.00992,-0.06714,0.12787,-0.07172,-0.03113,-0.04135,-0.0148,-0.0061,-0.03159,-0.04013,-0.04227,0.02197,-0.0354,-0.0209,0.01053,-0.03937
3.511,-0.01938,-0.06241,0.17868,-0.03021,-0.02853,-0.03952,-0.01312,-0.00443,-0.02228,-0.02686,-0.04135,0.03525,-0.03647,-0.02243,0.00961,-0.03967
3.5115,-0.01816,-0.05005,0.19318,0.01663,-0.02579,-0.03784,-0.01266,-0.00168,-0.0116,-0.00854,-0.03372,0.0412,-0.03601,-0.02335,0.00748,-0.04105
3.512,-0.01358,-0.03311,0.17731,-0.00275,-0.02457,-0.03601,-0.01312,0.0,-0.00626,0.02014,-0.02716,0.04822,-0.03479,-0.02274,0.00595,-0.0441
3.5125,-0.01236,-0.01984,0.13336,-0.06409,-0.02563,-0.03296,-0.01434,0.00046,-0.00824,0.05585,-0.03082,0.047,-0.03281,-0.02151,0.00534,-0.04791
3.513,-0.01175,-0.02182,0.07782,-0.04807,-0.02686,-0.02853,-0.01434,0.00015,-0.00946,0.08224,-0.04288,0.03021,-0.03143,-0.01968,0.00427,-0.04822
3.5135,-0.00839,-0.04059,0.0322,0.08453,-0.02731,-0.02426,-0.01434,-0.00076,-0.00458,0.0914,-0.04837,0.00748,-0.03067,-0.0174,0.00397,-0.047
3.514,-0.00809,-0.06378,0.00122,0.21194,-0.02716,-0.02213,-0.01434,-0.00259,0.00229,0.08301,-0.03799,-0.00214,-0.0296,-0.01511,0.00412,-0.0444
3.5145,-0.01556,-0.07751,-0.01801,0.20905,-0.02777,-0.02258,-0.01434,-0.00366,0.00443,0.06989,-0.01068,-0.00076,-0.02869,-0.01373,0.00488,-0.04272
3.515,-0.02197,-0.08087,-0.02914,0.09354,-0.02853,-0.02426,-0.0148,-0.00504,0.0,0.06073,0.02594,-0.00061,-0.0293,-0.01358,0.00473,-0.04272
3.5155,-0.01938,-0.08057,-0.03693,-0.02625,-0.03067,-0.02792,-0.01617,-0.0061,-0.00626,0.05005,0.06134,-0.00534,-0.03021,-0.01389,0.00549,-0.04181
3.516,-0.01175,-0.08026,-0.04471,-0.07721,-0.03372,-0.03464,-0.01846,-0.00763,-0.01083,0.02762,0.07523,-0.01007,-0.03159,-0.01587,0.00824,-0.04135
3.5165,-0.00671,-0.08179,-0.05615,-0.06012,-0.03723,-0.04623,-0.01984,-0.00854,-0.01495,-0.00809,0.05707,-0.00946,-0.0325,-0.01892,0.00839,-0.0415
3.517,-0.00549,-0.08377,-0.07095,-0.01755,-0.04044,-0.06027,-0.01999,-0.00885,-0.01984,-0.04837,0.01816,-0.00656,-0.0325,-0.01999,0.00778,-0.0415
3.5175,-0.00687,-0.08789,-0.08316,-0.00015,-0.04059,-0.07553,-0.01999,-0.00885,-0.02289,-0.08698,-0.02029,-0.00488,-0.03189,-0.01877,0.00687,-0.04074
3.518,-0.00992,-0.09109,-0.08652,-0.02625,-0.03754,-0.08621,-0.01968,-0.009,-0.02136,-0.12405,-0.04623,-0.00549,-0.03021,-0.01709,0.0058,-0.03937
3.5185,-0.00961,-0.08881,-0.08362,-0.06454,-0.03494,-0.08957,-0.01877,-0.009,-0.01907,-0.15533,-0.0592,-0.00656,-0.02899,-0.01587,0.00671,-0.03906
3.519,-0.00305,-0.07813,-0.08209,-0.07904,-0.03311,-0.08499,-0.0177,-0.00854,-0.01724,-0.16769,-0.05844,-0.00443,-0.02899,-0.01724,0.00778,-0.04044
3.5195,0.00839,-0.05966,-0.08759,-0.07324,-0.03387,-0.07385,-0.01572,-0.00702,-0.01572,-0.15427,-0.03769,-0.00061,-0.02975,-0.01907,0.00992,-0.04257
3.52,0.01984,-0.03937,-0.09659,-0.06866,-0.03296,-0.06393,-0.01465,-0.00488,-0.01801,-0.11978,0.00748,0.00198,-0.03098,-0.01953,0.01038,-0.04196
3.5205,0.0293,-0.02594,-0.09613,-0.06271,-0.03113,-0.05981,-0.01373,-0.00443,-0.02808,-0.07477,0.06012,0.00122,-0.03159,-0.01862,0.00824,-0.04059
3.521,0.03082,-0.02182,-0.07858,-0.03265,-0.03036,-0.05844,-0.01297,-0.00458,-0.03937,-0.0235,0.08728,0.00061,-0.03189,-0.01678,0.0058,-0.03906
3.5215,0.02075,-0.02136,-0.05188,0.03586,-0.03067,-0.05478,-0.01221,-0.00473,-0.04425,0.03036,0.05768,0.00107,-0.03082,-0.01526,0.00519,-0.03967
3.522,0.00046,-0.0235,-0.02884,0.12466,-0.03006,-0.0502,-0.0116,-0.00443,-0.04257,0.07736,-0.02335,0.0032,-0.02975,-0.01373,0.0058,-0.04044
3.5225,-0.01831,-0.03113,-0.00198,0.18219,-0.02914,-0.047,-0.01343,-0.00397,-0.03983,0.10803,-0.11154,0.00519,-0.03143,-0.01419,0.00565,-0.04028
3.523,-0.02869,-0.03937,0.03708,0.16327,-0.0296,-0.04471,-0.01755,-0.00259,-0.0354,0.12192,-0.15335,0.00671,-0.03387,-0.01648,0.00504,-0.03998
3.5235,-0.03357,-0.03677,0.07721,0.08469,-0.03006,-0.03998,-0.02075,-0.00214,-0.02502,0.12009,-0.12131,0.0087,-0.03571,-0.01923,0.00534,-0.04059
3.524,-0.04272,-0.02502,0.09445,0.01785,-0.03006,-0.03479,-0.02151,-0.0032,-0.01648,0.10544,-0.03021,0.01114,-0.03555,-0.01984,0.00519,-0.04211
3.5245,-0.06393,-0.01572,0.08453,0.00717,-0.02838,-0.03082,-0.01953,-0.00549,-0.02258,0.08301,0.0676,0.01236,-0.03525,-0.01801,0.0061,-0.04303
3.525,-0.09399,-0.01343,0.06439,0.03128,-0.02701,-0.0322,-0.01572,-0.00732,-0.04456,0.06592,0.11642,0.01266,-0.03586,-0.01541,0.00641,-0.0444
3.5255,-0.11887,-0.02197,0.04837,0.04349,-0.02762,-0.03571,-0.01236,-0.00717,-0.06912,0.05936,0.09659,0.01251,-0.0354,-0.01221,0.00702,-0.0444
3.526,-0.12039,-0.03845,0.02899,0.03479,-0.02853,-0.03571,-0.00793,-0.00549,-0.08484,0.056,0.03601,0.01221,-0.03464,-0.01129,0.00824,-0.04486
3.5265,-0.09064,-0.05508,-0.00397,0.02716,-0.0293,-0.03082,-0.00443,-0.00305,-0.09384,0.05035,-0.02274,0.01144,-0.03403,-0.01297,0.00946,-0.04379
3.527,-0.04303,-0.06058,-0.04654,0.02396,-0.02945,-0.02625,-0.00473,-0.00214,-0.10162,0.04532,-0.04959,0.00977,-0.03448,-0.01434,0.00916,-0.04288
3.5275,-0.00107,-0.05234,-0.07904,0.00336,-0.03036,-0.02319,-0.01007,-0.00168,-0.10971,0.047,-0.03891,0.00824,-0.0354,-0.01633,0.00732,-0.04211
3.528,0.02197,-0.03876,-0.09094,-0.03815,-0.0322,-0.02502,-0.01572,-0.00214,-0.12085,0.05432,-0.00153,0.00809,-0.03632,-0.01846,0.00671,-0.04089
3.5285,0.02487,-0.02731,-0.09171,-0.07446,-0.03555,-0.03052,-0.01831,-0.00214,-0.13046,0.05905,0.04547,0.00763,-0.03708,-0.01984,0.00748,-0.04074
3.529,0.00778,-0.02304,-0.09613,-0.0882,-0.03784,-0.03708,-0.01694,-0.00183,-0.12955,0.05585,0.08911,0.00504,-0.03754,-0.02228,0.00763,-0.04089
3.5295,-0.02777,-0.03067,-0.10315,-0.09018,-0.03876,-0.0412,-0.01373,-0.00031,-0.11368,0.04639,0.1152,0.00351,-0.03693,-0.02396,0.00702,-0.04105
3.53,-0.06958,-0.05157,-0.10208,-0.09354,-0.0383,-0.04181,-0.01205,0.00229,-0.09125,0.03082,0.11047,0.00229,-0.03616,-0.02533,0.00732,-0.04135
3.5305,-0.09415,-0.08438,-0.09201,-0.09247,-0.03616,-0.04303,-0.01205,0.00427,-0.07233,0.01221,0.07431,0.00275,-0.0351,-0.02579,0.00885,-0.04288
3.531,-0.09079,-0.11993,-0.08514,-0.08102,-0.03464,-0.04745,-0.01419,0.00458,-0.05707,-0.00687,0.01938,0.00244,-0.03479,-0.02563,0.01251,-0.04425
3.5315,-0.06622,-0.14938,-0.08789,-0.06424,-0.03433,-0.05493,-0.01312,0.00351,-0.04272,-0.02045,-0.05051,0.00229,-0.03357,-0.02533,0.01526,-0.04395
3.532,-0.03387,-0.16769,-0.09201,-0.05417,-0.03479,-0.06088,-0.00916,0.00244,-0.0325,-0.02548,-0.13138,0.00351,-0.03174,-0.02304,0.01541,-0.04333
3.5325,-0.00076,-0.16754,-0.08774,-0.04608,-0.03448,-0.06012,-0.00595,0.00198,-0.02655,-0.02808,-0.20004,0.00504,-0.03082,-0.02075,0.01328,-0.04257
3.533,0.03494,-0.14114,-0.0769,-0.02228,-0.0325,-0.05264,-0.00595,0.00092,-0.02014,-0.03372,-0.23056,0.00595,-0.03082,-0.01877,0.0116,-0.04333
3.5335,0.06302,-0.09506,-0.06439,0.02808,-0.0322,-0.04227,-0.01099,-0.00015,-0.00854,-0.0412,-0.21805,0.00458,-0.03113,-0.01938,0.01114,-0.04318
3.534,0.0705,-0.05051,-0.05066,0.09262,-0.03326,-0.03479,-0.01755,0.00076,0.00534,-0.04822,-0.17639,0.00214,-0.03235,-0.02151,0.01129,-0.04242
3.5345,0.06226,-0.02182,-0.03342,0.14297,-0.03387,-0.0322,-0.02167,0.0029,0.0174,-0.05402,-0.12558,0.00015,-0.03357,-0.02228,0.01129,-0.04074
3.535,0.05234,-0.00473,-0.01495,0.14832,-0.03372,-0.03555,-0.02029,0.00549,0.02441,-0.05997,-0.08377,-0.00122,-0.03448,-0.02197,0.01129,-0.03906
3.5355,0.04211,0.01038,-0.00229,0.11276,-0.03433,-0.04166,-0.01617,0.00549,0.02609,-0.06592,-0.06287,-0.00229,-0.03418,-0.02136,0.01038,-0.0383
3.536,0.0238,0.02533,0.00626,0.07538,-0.03418,-0.04807,-0.0119,0.00198,0.02594,-0.06912,-0.06317,-0.00076,-0.03342,-0.02136,0.01007,-0.03967
3.5365,-0.00031,0.03342,0.01022,0.06256,-0.03433,-0.05173,-0.00885,-0.00259,0.02563,-0.06958,-0.07278,0.00214,-0.03403,-0.02319,0.00931,-0.04303
3.537,-0.01999,0.03098,0.00946,0.06104,-0.03357,-0.05249,-0.00748,-0.00732,0.02487,-0.06958,-0.07874,0.00336,-0.03677,-0.02457,0.00854,-0.04501
3.5375,-0.03433,0.01984,-0.00183,0.05081,-0.03342,-0.05157,-0.00778,-0.00839,0.02243,-0.07019,-0.0737,0.00214,-0.03738,-0.02487,0.00885,-0.04395
3.538,-0.0499,0.00565,-0.03021,0.02792,-0.03204,-0.05325,-0.00854,-0.00748,0.01526,-0.07355,-0.05829,-0.00061,-0.03632,-0.02594,0.01068,-0.04196
3.5385,-0.07004,-0.009,-0.08728,0.00519,-0.03189,-0.05722,-0.00977,-0.00656,0.00214,-0.08102,-0.03784,-0.00107,-0.03464,-0.02747,0.00992,-0.04074
3.539,-0.08804,-0.01831,-0.16586,-0.00717,-0.02945,-0.0589,-0.01068,-0.00717,-0.01694,-0.09064,-0.01312,-0.00015,-0.03403,-0.02792,0.00793,-0.04196
3.5395,-0.09567,-0.01526,-0.22141,-0.01205,-0.02808,-0.05829,-0.00946,-0.0087,-0.03387,-0.09674,0.01801,0.00076,-0.03357,-0.02563,0.0061,-0.04303
3.54,-0.08652,-0.00214,-0.21759,-0.01724,-0.02792,-0.05585,-0.00763,-0.00626,-0.04044,-0.0943,0.04288,0.00168,-0.03174,-0.02335,0.00748,-0.04181
3.5405,-0.06104,0.00275,-0.17792,-0.01907,-0.02686,-0.0531,-0.00671,-0.00122,-0.03433,-0.08728,0.03769,0.00137,-0.03067,-0.02274,0.00931,-0.04181
3.541,-0.02396,-0.009,-0.14877,-0.01633,-0.02655,-0.05249,-0.00839,0.00107,-0.02365,-0.08392,-0.00153,-0.00031,-0.0296,-0.02319,0.00992,-0.04211
3.5415,0.01282,-0.02518,-0.13046,-0.01907,-0.02533,-0.05692,-0.01144,-0.00061,-0.01816,-0.08652,-0.04318,-0.01007,-0.0264,-0.02289,0.00839,-0.04288
3.542,0.03067,-0.02869,-0.09018,-0.03677,-0.02548,-0.06378,-0.01434,-0.00366,-0.0177,-0.09232,-0.05417,-0.03891,-0.02426,-0.02151,0.00717,-0.04333
3.5425,0.02777,-0.02228,-0.02197,-0.06561,-0.02655,-0.07294,-0.0148,-0.0061,-0.01358,-0.09674,-0.03387,-0.08514,-0.02594,-0.02014,0.00687,-0.04333
3.543,0.0267,-0.01831,0.047,-0.08972,-0.0264,-0.08148,-0.01404,-0.0058,0.00015,-0.09995,-0.00427,-0.11841,-0.03021,-0.01892,0.00854,-0.04425
3.5435,0.04333,-0.01892,0.09995,-0.09094,-0.0267,-0.08392,-0.01205,-0.00366,0.02121,-0.1004,0.02075,-0.10849,-0.03281,-0.01831,0.01083,-0.04517
3.544,0.06958,-0.01968,0.13702,-0.05707,-0.02655,-0.07523,-0.01068,-0.00092,0.0415,-0.09552,0.04059,-0.05829,-0.03387,-0.01801,0.01114,-0.04501
3.5445,0.08514,-0.01816,0.15701,0.00031,-0.02457,-0.0618,-0.01144,0.00168,0.05417,-0.08606,0.05173,-0.0058,-0.03372,-0.01587,0.01083,-0.0441
3.545,0.08484,-0.0148,0.14755,0.05005,-0.02335,-0.04715,-0.01282,0.00198,0.05676,-0.07065,0.04974,0.02213,-0.03372,-0.01541,0.01007,-0.0444
3.5455,0.07767,-0.01251,0.10513,0.06744,-0.02106,-0.03952,-0.01343,-0.00122,0.05112,-0.04883,0.03464,0.02686,-0.03403,-0.01495,0.00946,-0.04501
3.546,0.06927,-0.01099,0.05096,0.0499,-0.02243,-0.03967,-0.01633,-0.00626,0.03998,-0.02396,0.02197,0.02289,-0.03357,-0.01602,0.00961,-0.04379
3.5465,0.05875,-0.00778,0.00977,0.01663,-0.02518,-0.04318,-0.01678,-0.00931,0.02457,-0.00504,0.02411,0.02121,-0.03326,-0.01709,0.00809,-0.04257
3.547,0.04517,-0.00259,-0.01099,-0.01297,-0.02716,-0.0444,-0.01572,-0.00854,0.00153,-0.00656,0.03571,0.02274,-0.03342,-0.01785,0.0061,-0.04211
3.5475,0.03189,0.00244,-0.0177,-0.03433,-0.02563,-0.0444,-0.01389,-0.00671,-0.02548,-0.02823,0.03937,0.02701,-0.03418,-0.01617,0.00504,-0.04181
3.548,0.02686,0.00061,-0.01953,-0.05157,-0.02731,-0.04242,-0.01328,-0.00443,-0.04211,-0.05066,0.03036,0.0354,-0.0354,-0.01358,0.0061,-0.04059
3.5485,0.03281,-0.01266,-0.01709,-0.07278,-0.02838,-0.04181,-0.01312,-0.00229,-0.04257,-0.05707,0.02014,0.047,-0.03586,-0.01221,0.00809,-0.0415
3.549,0.04471,-0.0296,-0.0148,-0.10986,-0.03052,-0.04074,-0.01312,-0.00259,-0.04242,-0.04822,0.01953,0.056,-0.03632,-0.01389,0.00916,-0.0441
3.5495,0.05371,-0.04013,-0.01785,-0.17365,-0.03006,-0.0383,-0.01404,-0.00397,-0.05554,-0.03571,0.02701,0.06073,-0.03555,-0.01587,0.00763,-0.04501
3.55,0.05661,-0.03906,-0.0296,-0.25024,-0.02777,-0.0354,-0.01419,-0.00534,-0.06836,-0.02365,0.03586,0.0621,-0.03479,-0.01724,0.00748,-0.04089
3.5505,0.056,-0.02991,-0.03952,-0.29846,-0.02533,-0.03525,-0.0145,-0.00504,-0.05905,-0.00961,0.04227,0.0618,-0.03448,-0.01877,0.00977,-0.03708
3.551,0.05569,-0.0206,-0.04074,-0.29007,-0.02533,-0.03723,-0.01434,-0.00473,-0.03006,0.00671,0.04776,0.05814,-0.03616,-0.02045,0.01099,-0.03662
3.5515,0.05447,-0.01938,-0.0351,-0.23346,-0.02777,-0.04044,-0.01312,-0.00488,-0.00824,0.01953,0.04898,0.05737,-0.03723,-0.02197,0.00992,-0.03845
3.552,0.04929,-0.02335,-0.03098,-0.13824,-0.02975,-0.04105,-0.01205,-0.00504,-0.00656,0.02792,0.04105,0.06546,-0.03799,-0.02167,0.00702,-0.04028
3.5525,0.03967,-0.03082,-0.0296,-0.00229,-0.03113,-0.04059,-0.01175,-0.00259,-0.01556,0.03464,0.02014,0.06882,-0.03693,-0.02136,0.00626,-0.04028
3.553,0.02975,-0.04639,-0.0235,0.13184,-0.03082,-0.03876,-0.01205,0.0,-0.02228,0.03998,-0.01038,0.05051,-0.03586,-0.01953,0.00946,-0.03952
3.5535,0.01984,-0.06912,-0.01556,0.17471,-0.03021,-0.0351,-0.01266,0.00214,-0.02396,0.03754,-0.03967,0.01556,-0.03326,-0.01633,0.0119,-0.04013
3.554,0.00839,-0.09048,-0.02762,0.09293,-0.03021,-0.03067,-0.01266,0.00259,-0.02518,0.02487,-0.05951,-0.01511,-0.03082,-0.01419,0.01175,-0.04242
3.5545,-0.00366,-0.09674,-0.07523,-0.03571,-0.03174,-0.02518,-0.01343,0.00046,-0.02365,0.0058,-0.07004,-0.02914,-0.0296,-0.01358,0.00946,-0.0444
3.555,-0.00748,-0.08484,-0.1326,-0.11459,-0.03494,-0.02197,-0.01404,-0.00244,-0.01907,-0.00992,-0.0737,-0.02747,-0.02991,-0.01282,0.00839,-0.04547
3.5555,0.00198,-0.06195,-0.14038,-0.12772,-0.03677,-0.02045,-0.01678,-0.00549,-0.00961,-0.02274,-0.0679,-0.01785,-0.03006,-0.01434,0.00717,-0.04532
3.556,0.01785,-0.03235,-0.07629,-0.1149,-0.03723,-0.02487,-0.01892,-0.00839,0.00504,-0.03738,-0.05051,-0.00473,-0.03052,-0.01587,0.00549,-0.04379
3.5565,0.02548,-0.00809,0.02197,-0.0972,-0.03693,-0.03555,-0.02014,-0.01022,0.02487,-0.05829,-0.0351,0.0087,-0.02899,-0.01648,0.00641,-0.04242
3.557,0.01907,-0.0058,0.08804,-0.06454,-0.03754,-0.05035,-0.01877,-0.01129,0.04257,-0.0795,-0.04181,0.02106,-0.02594,-0.01495,0.00763,-0.0412
3.5575,0.00488,-0.02777,0.07874,-0.02258,-0.03876,-0.06516,-0.01785,-0.01053,0.05188,-0.09399,-0.06332,0.02762,-0.02411,-0.01266,0.00809,-0.04196
3.558,-0.00397,-0.05646,0.00443,-0.00397,-0.04364,-0.07767,-0.0177,-0.00824,0.04883,-0.09644,-0.06592,0.0235,-0.02411,-0.01129,0.00931,-0.04211
3.5585,0.00244,-0.06607,-0.06958,-0.01266,-0.04883,-0.08728,-0.01816,-0.0061,0.03708,-0.08865,-0.02365,0.01297,-0.02457,-0.01068,0.00916,-0.04303
3.559,0.0206,-0.05264,-0.0798,-0.00641,-0.04959,-0.09171,-0.01785,-0.0058,0.02014,-0.07187,0.04684,0.00244,-0.0264,-0.00946,0.01099,-0.04349
3.5595,0.03418,-0.03326,-0.02441,0.04211,-0.04715,-0.08469,-0.01633,-0.0061,-0.00092,-0.04425,0.10956,-0.00275,-0.02808,-0.00778,0.01175,-0.04364
3.56,0.03387,-0.02167,0.04517,0.10574,-0.0444,-0.07095,-0.01648,-0.00488,-0.02014,-0.01007,0.13718,-0.00244,-0.02899,-0.00488,0.0119,-0.04303
3.5605,0.02823,-0.02319,0.09155,0.13763,-0.04272,-0.05859,-0.0177,-0.00397,-0.0325,0.01816,0.12054,-0.00137,-0.02991,-0.00488,0.01144,-0.04379
3.561,0.03067,-0.0383,0.11032,0.12466,-0.04135,-0.05524,-0.01923,-0.00336,-0.03693,0.03082,0.06348,-0.00168,-0.02991,-0.00839,0.009,-0.04532
3.5615,0.04044,-0.07141,0.1123,0.08682,-0.04013,-0.05783,-0.01923,-0.00351,-0.03677,0.02899,-0.00793,-0.00397,-0.02914,-0.01389,0.00671,-0.04684
3.562,0.04181,-0.11444,0.09445,0.05432,-0.03845,-0.06088,-0.01831,-0.00305,-0.0325,0.02563,-0.06042,-0.00534,-0.02808,-0.01694,0.00473,-0.047
3.5625,0.03418,-0.1442,0.0531,0.03479,-0.03677,-0.05875,-0.01663,-0.00214,-0.02625,0.02808,-0.07507,-0.00305,-0.02747,-0.0174,0.00336,-0.04562
3.563,0.03082,-0.14343,-0.00092,0.01678,-0.03494,-0.05264,-0.01587,-0.00092,-0.01999,0.03448,-0.06348,0.00824,-0.02762,-0.01633,0.00397,-0.04257
3.5635,0.04883,-0.12344,-0.04913,-0.01434,-0.03311,-0.04791,-0.01633,-0.00046,-0.00885,0.04028,-0.04974,0.02502,-0.02899,-0.01511,0.00473,-0.0412
3.564,0.08026,-0.10559,-0.08591,-0.0531,-0.03113,-0.04562,-0.01694,-0.00244,0.01205,0.04318,-0.04456,0.03418,-0.03113,-0.01526,0.00534,-0.0412
3.5645,0.10452,-0.09674,-0.11307,-0.07187,-0.03067,-0.04471,-0.01541,-0.00534,0.0351,0.04257,-0.04593,0.02914,-0.03204,-0.01755,0.0058,-0.04211
3.565,0.11093,-0.09125,-0.13382,-0.05371,-0.03113,-0.04684,-0.01282,-0.00641,0.04517,0.03571,-0.04395,0.0145,-0.03098,-0.02014,0.00565,-0.04135
3.5655,0.1091,-0.08423,-0.1503,-0.01236,-0.03143,-0.05035,-0.01083,-0.00397,0.03586,0.02441,-0.0325,-0.00046,-0.02975,-0.02029,0.00626,-0.04089
3.566,0.11063,-0.07339,-0.16479,0.02106,-0.03235,-0.05493,-0.0119,-0.00229,0.01877,0.01297,-0.01862,-0.01114,-0.02975,-0.01801,0.00793,-0.04105
3.5665,0.10925,-0.06012,-0.18311,0.02762,-0.03342,-0.05997,-0.01495,-0.00305,0.00626,0.01022,-0.01083,-0.01953,-0.03159,-0.01633,0.009,-0.03967
3.567,0.09247,-0.04547,-0.20554,0.01556,-0.03342,-0.06348,-0.01602,-0.00519,0.00107,0.0177,-0.01511,-0.02625,-0.03265,-0.01572,0.00885,-0.03876
3.5675,0.05859,-0.0322,-0.22537,0.00153,-0.03143,-0.06271,-0.01465,-0.00504,0.00061,0.02884,-0.03342,-0.02991,-0.03174,-0.01556,0.00702,-0.03769
3.568,0.01587,-0.02625,-0.23972,-0.01633,-0.0296,-0.05737,-0.01312,-0.00244,0.00351,0.03998,-0.05798,-0.03113,-0.03113,-0.01602,0.00595,-0.03922
3.5685,-0.03571,-0.0325,-0.2388,-0.04898,-0.02731,-0.0502,-0.0145,-0.00061,0.00854,0.04684,-0.07156,-0.0325,-0.03265,-0.01724,0.00763,-0.04196
3.569,-0.09262,-0.05478,-0.20706,-0.09033,-0.02594,-0.047,-0.01602,-0.00107,0.01617,0.047,-0.05936,-0.03448,-0.03586,-0.01846,0.00977,-0.04272
3.5695,-0.13687,-0.0943,-0.13733,-0.12314,-0.02686,-0.0473,-0.01617,-0.00351,0.02411,0.03876,-0.02289,-0.03586,-0.03632,-0.01968,0.00931,-0.04013
3.57,-0.14877,-0.13092,-0.05066,-0.13336,-0.02716,-0.04837,-0.01389,-0.00458,0.02487,0.02213,0.01358,-0.03342,-0.03433,-0.01968,0.00763,-0.03723
3.5705,-0.13077,-0.13794,0.0238,-0.10498,-0.02701,-0.04654,-0.01282,-0.00458,0.01831,-0.00061,0.02655,-0.02731,-0.03296,-0.01923,0.00732,-0.03632
3.571,-0.10818,-0.1059,0.07187,-0.01495,-0.02655,-0.04379,-0.01312,-0.00366,0.01404,-0.0296,0.00168,-0.02136,-0.03326,-0.0177,0.00778,-0.03647
3.5715,-0.09735,-0.0528,0.09644,0.12833,-0.02853,-0.04211,-0.01373,-0.00229,0.01785,-0.0589,-0.05676,-0.02045,-0.03494,-0.0174,0.00931,-0.03738
3.572,-0.09293,-0.00443,0.10529,0.25467,-0.03036,-0.04166,-0.01328,-0.00153,0.02289,-0.07599,-0.12711,-0.02335,-0.03586,-0.01938,0.00961,-0.03952
3.5725,-0.08789,0.0293,0.10406,0.28488,-0.02991,-0.04196,-0.01099,-0.00137,0.02441,-0.06882,-0.17517,-0.02548,-0.03799,-0.02258,0.00946,-0.04074
3.573,-0.08469,0.05493,0.10025,0.2298,-0.02792,-0.04257,-0.01007,-0.00092,0.02258,-0.04288,-0.18158,-0.0206,-0.04181,-0.02579,0.00885,-0.04166
3.5735,-0.08301,0.07706,0.09644,0.17456,-0.02914,-0.04379,-0.01038,0.00015,0.02319,-0.01068,-0.1506,-0.01251,-0.04349,-0.0264,0.00854,-0.04135
3.574,-0.08255,0.09354,0.08972,0.15976,-0.02975,-0.0441,-0.01175,0.00137,0.02548,0.01907,-0.103,-0.00671,-0.04242,-0.0238,0.00839,-0.04089
3.5745,-0.08606,0.09995,0.07797,0.14511,-0.03113,-0.04349,-0.01312,0.00015,0.02396,0.04242,-0.056,-0.00565,-0.03799,-0.02136,0.00687,-0.04135
3.575,-0.10315,0.09811,0.06195,0.09613,-0.0325,-0.04074,-0.01404,-0.00107,0.01831,0.056,-0.01663,-0.00687,-0.03571,-0.01999,0.00595,-0.04257
3.5755,-0.13412,0.09308,0.04364,0.03815,-0.0325,-0.03937,-0.01495,-0.00198,0.01282,0.0528,0.01282,-0.00671,-0.03555,-0.02106,0.0061,-0.04257
3.576,-0.16602,0.08377,0.02182,0.00854,-0.03265,-0.03967,-0.01511,-0.00122,0.01053,0.03372,0.0322,-0.00519,-0.03586,-0.02197,0.00687,-0.0415
3.5765,-0.18661,0.06912,-0.00381,0.0058,-0.03448,-0.03967,-0.01389,-0.00061,0.00824,0.00656,0.04669,-0.00336,-0.03616,-0.02182,0.00763,-0.04013
3.577,-0.19562,0.0473,-0.03159,0.00763,-0.03586,-0.04089,-0.01297,-0.00046,0.00122,-0.01236,0.0621,-0.00259,-0.03571,-0.02045,0.00687,-0.04013
3.5775,-0.19531,0.02182,-0.05936,0.0061,-0.03525,-0.04242,-0.01404,-0.00107,-0.00366,-0.0177,0.07645,-0.00198,-0.03586,-0.01877,0.00565,-0.03967
3.578,-0.17853,-0.0058,-0.08652,0.00534,-0.03235,-0.04349,-0.01434,-0.00214,-0.00092,-0.01389,0.07843,-0.00153,-0.03632,-0.01862,0.00473,-0.03922
3.5785,-0.1445,-0.03128,-0.10757,0.00305,-0.03113,-0.04196,-0.0148,-0.00351,0.00717,-0.00961,0.06622,-0.00031,-0.03708,-0.01862,0.00534,-0.03967
3.579,-0.10422,-0.04974,-0.11993,0.00015,-0.03174,-0.04028,-0.01434,-0.00366,0.01404,-0.00809,0.04822,0.00412,-0.03754,-0.0177,0.00626,-0.04059
3.5795,-0.06622,-0.05859,-0.121,0.00122,-0.03235,-0.03815,-0.01419,-0.00336,0.01617,-0.01144,0.03235,0.01022,-0.03677,-0.01678,0.00702,-0.0412
3.58,-0.03113,-0.06027,-0.11459,0.00854,-0.03082,-0.03494,-0.01389,-0.00305,0.01328,-0.01999,0.01602,0.01495,-0.03448,-0.01526,0.00992,-0.04028
3.5805,-0.0029,-0.05981,-0.10544,0.01205,-0.03052,-0.03159,-0.01297,-0.00504,0.00977,-0.03632,-0.00137,0.01511,-0.03189,-0.01694,0.01129,-0.03983
3.581,0.01312,-0.0589,-0.10468,-0.00259,-0.0296,-0.0296,-0.01266,-0.00534,0.00748,-0.05493,-0.00977,0.01312,-0.03052,-0.01694,0.0119,-0.0386
3.5815,0.02289,-0.05951,-0.12833,-0.0296,-0.0293,-0.02975,-0.01251,-0.00366,0.00641,-0.06775,-0.00259,0.01221,-0.02914,-0.0148,0.01144,-0.03845
3.582,0.03418,-0.0621,-0.16418,-0.05112,-0.02853,-0.03174,-0.01144,-0.00168,0.00107,-0.07538,0.0116,0.01297,-0.02716,-0.01038,0.00916,-0.04074
3.5825,0.04242,-0.06561,-0.1799,-0.05188,-0.03052,-0.03555,-0.01068,-0.00198,-0.01389,-0.08331,0.0235,0.0145,-0.02609,-0.01053,0.00732,-0.04211
3.583,0.03937,-0.06744,-0.15152,-0.03662,-0.03235,-0.03723,-0.01083,-0.00336,-0.0351,-0.09613,0.03586,0.01434,-0.02609,-0.01572,0.00671,-0.04257
3.5835,0.02655,-0.0679,-0.09476,-0.02518,-0.0325,-0.03448,-0.01068,-0.00229,-0.05112,-0.11063,0.05386,0.01175,-0.02884,-0.02075,0.00778,-0.04318
3.584,0.01129,-0.07019,-0.03647,-0.03616,-0.03082,-0.0293,-0.01007,0.00198,-0.05432,-0.12421,0.07187,0.00854,-0.03174,-0.02304,0.00748,-0.0444
3.5845,0.0,-0.07385,0.00671,-0.07538,-0.03067,-0.02701,-0.00854,0.00687,-0.04562,-0.1387,0.0769,0.00702,-0.03357,-0.02106,0.00671,-0.04486
3.585,-0.00305,-0.07904,0.03708,-0.1268,-0.03143,-0.03113,-0.00732,0.00793,-0.0322,-0.15671,0.06836,0.00717,-0.03464,-0.01907,0.00763,-0.04364
3.5855,0.00717,-0.08728,0.05493,-0.1561,-0.03128,-0.03769,-0.00671,0.00641,-0.01923,-0.16907,0.05722,0.00824,-0.03433,-0.02029,0.009,-0.04318
3.586,0.02136,-0.09567,0.05371,-0.14572,-0.0293,-0.04501,-0.00793,0.00458,-0.00916,-0.16037,0.04517,0.00778,-0.03372,-0.02243,0.01007,-0.04272
3.5865,0.02197,-0.10101,0.03311,-0.11688,-0.02777,-0.04898,-0.00961,0.00366,-0.00229,-0.12375,0.0238,0.009,-0.03159,-0.02106,0.00977,-0.04272
3.587,0.00519,-0.10468,-0.00153,-0.10345,-0.02747,-0.04898,-0.01083,0.00153,-0.00061,-0.07004,-0.01068,0.0119,-0.03006,-0.01648,0.00809,-0.04227
3.5875,-0.00992,-0.10941,-0.0444,-0.10574,-0.02838,-0.04654,-0.01282,-0.00214,-0.00366,-0.02213,-0.04807,0.01602,-0.02914,-0.01297,0.0061,-0.04105
3.588,-0.01144,-0.11597,-0.0824,-0.08957,-0.03021,-0.04318,-0.01404,-0.00473,-0.00763,0.00488,-0.07187,0.01724,-0.02838,-0.01282,0.0058,-0.03922
3.5885,-0.00488,-0.11749,-0.09796,-0.0473,-0.03067,-0.04074,-0.01617,-0.0061,-0.00656,0.01465,-0.07446,0.01389,-0.02792,-0.01556,0.00671,-0.03998
3.589,0.00031,-0.11383,-0.08575,-0.01846,-0.02975,-0.0412,-0.01846,-0.00732,-0.00061,0.01419,-0.06577,0.00931,-0.02731,-0.01785,0.00763,-0.03967
3.5895,0.00458,-0.11215,-0.05783,-0.03616,-0.02853,-0.04715,-0.02304,-0.00656,0.00092,0.00824,-0.05905,0.00717,-0.02594,-0.01846,0.00809,-0.03922
3.59,0.00916,-0.11353,-0.03235,-0.08331,-0.02823,-0.056,-0.02884,-0.00656,-0.00885,-0.00732,-0.05692,0.00717,-0.02411,-0.01907,0.00809,-0.03876
3.5905,0.0119,-0.10605,-0.02304,-0.11337,-0.02869,-0.06226,-0.03418,-0.00854,-0.0264,-0.02792,-0.0444,0.00626,-0.02457,-0.02121,0.00763,-0.03967
3.591,0.01602,-0.07904,-0.04745,-0.10223,-0.02762,-0.06134,-0.03448,-0.01068,-0.04242,-0.04044,-0.01053,0.00458,-0.02579,-0.02258,0.00778,-0.04059
3.5915,0.02151,-0.04456,-0.11429,-0.06592,-0.02563,-0.05646,-0.02838,-0.01114,-0.04837,-0.03494,0.02991,0.00351,-0.02594,-0.02319,0.00839,-0.03983
3.592,0.02777,-0.02991,-0.18341,-0.03235,-0.02396,-0.05447,-0.02029,-0.01038,-0.04745,-0.00931,0.04257,0.00305,-0.02579,-0.02045,0.00793,-0.03891
3.5925,0.03342,-0.04486,-0.1828,-0.0209,-0.02396,-0.05753,-0.01221,-0.00885,-0.04272,0.03098,0.01343,0.0029,-0.02594,-0.0177,0.00748,-0.03891
3.593,0.03372,-0.06607,-0.09109,-0.03235,-0.02533,-0.06073,-0.00229,-0.00717,-0.03876,0.07874,-0.03754,0.00244,-0.0264,-0.0177,0.00687,-0.04028
3.5935,0.02777,-0.06744,0.03479,-0.05066,-0.02731,-0.06104,0.01282,-0.00641,-0.03586,0.12558,-0.0769,0.0032,-0.02945,-0.01907,0.00641,-0.04105
3.594,0.01923,-0.05219,0.12314,-0.05661,-0.02945,-0.05768,0.0206,-0.00671,-0.03342,0.16174,-0.09048,0.0032,-0.03357,-0.02106,0.00626,-0.04196
3.5945,0.0116,-0.03586,0.16113,-0.04196,-0.02991,-0.05112,0.00717,-0.00732,-0.02762,0.17807,-0.07553,0.00214,-0.03998,-0.02029,0.00702,-0.04227
3.595,0.0061,-0.02609,0.16891,-0.01709,-0.02853,-0.04517,-0.02075,-0.0058,-0.01877,0.17288,-0.02762,0.00061,-0.04578,-0.0206,0.00885,-0.04272
3.5955,0.00397,-0.0174,0.15915,0.00565,-0.02808,-0.04227,-0.03952,-0.00412,-0.00748,0.15503,0.04578,-0.00107,-0.04944,-0.02213,0.01099,-0.04288
3.596,0.00458,-0.00671,0.12711,0.02396,-0.02899,-0.04013,-0.03555,-0.00244,0.00336,0.13214,0.10101,-0.00336,-0.05005,-0.02304,0.0119,-0.04181
3.5965,0.00717,0.00046,0.07462,0.04318,-0.03021,-0.03845,-0.01923,-0.00183,0.00885,0.10818,0.09521,-0.00412,-0.04745,-0.02274,0.01068,-0.04196
3.597,0.01236,0.0032,0.00732,0.06042,-0.02975,-0.03799,-0.00687,-0.00153,0.00778,0.08347,0.03952,-0.00366,-0.04486,-0.02304,0.00931,-0.04227
3.5975,0.0177,0.00183,-0.07248,0.06332,-0.02853,-0.03998,-0.0029,-0.00107,0.00275,0.05905,-0.02411,-0.00046,-0.04349,-0.02457,0.00885,-0.04196
3.598,0.02106,-0.00107,-0.14893,0.04959,-0.02777,-0.04379,-0.00549,-0.00015,-0.00183,0.03784,-0.0705,0.00275,-0.04211,-0.02625,0.01038,-0.04074
3.5985,0.02243,-0.00443,-0.18723,0.03067,-0.02823,-0.04913,-0.0087,-0.00061,-0.00656,0.01968,-0.1001,0.00412,-0.03952,-0.02594,0.0116,-0.03983
3.599,0.02213,-0.00717,-0.16464,0.02045,-0.02914,-0.05341,-0.01022,-0.00244,-0.01144,0.00992,-0.10803,0.00381,-0.03632,-0.02563,0.01221,-0.04013
3.5995,0.02045,-0.01251,-0.10147,0.01785,-0.02991,-0.05646,-0.00946,-0.00336,-0.01724,0.00931,-0.08759,0.00366,-0.03525,-0.02472,0.01129,-0.0415
3.6,0.01816,-0.02075,-0.03464,0.01572,-0.03006,-0.05722,-0.00824,-0.00198,-0.0235,0.01404,-0.04242,0.00549,-0.03555,-0.02167,0.01053,-0.04211
3.6005,0.01572,-0.02884,0.01556,0.01511,-0.02975,-0.05798,-0.00916,0.00015,-0.02701,0.01694,0.00702,0.00839,-0.03677,-0.01678,0.01038,-0.04227
3.601,0.01511,-0.03189,0.05249,0.0174,-0.03281,-0.05875,-0.01343,0.00168,-0.01968,0.01511,0.04517,0.01236,-0.03616,-0.01312,0.0087,-0.04318
3.6015,0.01556,-0.03128,0.07111,0.01846,-0.03403,-0.05814,-0.01602,0.00244,-0.00336,0.00885,0.06836,0.01587,-0.03448,-0.01266,0.00763,-0.04333
3.602,0.01373,-0.03357,0.06012,0.01465,-0.03525,-0.05722,-0.01755,0.00092,0.01221,0.00122,0.07339,0.01816,-0.03342,-0.01511,0.00717,-0.04288
3.6025,0.01099,-0.04089,0.02136,0.0087,-0.03464,-0.05737,-0.01572,-0.00046,0.01694,-0.00641,0.04761,0.01709,-0.03311,-0.01785,0.00656,-0.04349
3.603,0.00992,-0.04822,-0.01907,0.0058,-0.0351,-0.05844,-0.01495,-0.00183,0.01328,-0.01328,-0.00504,0.0145,-0.03448,-0.01923,0.0061,-0.04395
3.6035,0.01419,-0.05203,-0.03448,0.00748,-0.0351,-0.05676,-0.01587,-0.00122,0.00748,-0.02441,-0.04669,0.01419,-0.03464,-0.01984,0.00565,-0.04333
3.604,0.0238,-0.05493,-0.02274,0.01038,-0.03448,-0.0528,-0.01755,0.00122,-0.00031,-0.03967,-0.03708,0.01434,-0.03601,-0.02167,0.00671,-0.0415
3.6045,0.03769,-0.06226,0.00443,0.01129,-0.03296,-0.04776,-0.01617,0.00366,-0.01404,-0.05936,0.02029,0.01266,-0.03677,-0.02274,0.00732,-0.04028
3.605,0.04852,-0.07492,0.0325,0.01099,-0.03128,-0.04517,-0.01328,0.00381,-0.03372,-0.08179,0.07965,0.00931,-0.03738,-0.02304,0.00839,-0.0415
3.6055,0.04898,-0.0824,0.0444,0.0119,-0.03128,-0.0441,-0.01114,0.00198,-0.05219,-0.10925,0.10269,0.00534,-0.03662,-0.0238,0.00732,-0.04333
3.606,0.03983,-0.07446,0.03311,0.01434,-0.03143,-0.04333,-0.01251,-0.00122,-0.0621,-0.1384,0.08865,0.00336,-0.03387,-0.02258,0.00732,-0.0441
3.6065,0.02914,-0.05554,0.01129,0.01465,-0.03174,-0.04089,-0.0148,-0.00427,-0.0647,-0.15884,0.05096,0.00122,-0.03098,-0.02151,0.00916,-0.04242
3.607,0.02274,-0.04059,0.00229,0.0119,-0.03143,-0.03784,-0.01587,-0.00732,-0.06454,-0.16388,-0.0058,-0.00107,-0.02686,-0.02213,0.01129,-0.04181
3.6075,0.0174,-0.03586,0.01175,0.00793,-0.03128,-0.03677,-0.01587,-0.00992,-0.06317,-0.15457,-0.07614,-0.00259,-0.02441,-0.02319,0.01175,-0.04211
3.608,0.00519,-0.03265,0.01556,0.00519,-0.03143,-0.03632,-0.01602,-0.00977,-0.0589,-0.13992,-0.13931,-0.00381,-0.0238,-0.02396,0.01083,-0.04196
3.6085,-0.0174,-0.02151,-0.01343,0.00443,-0.03067,-0.03754,-0.01556,-0.00732,-0.05081,-0.1268,-0.17715,-0.00473,-0.02457,-0.02502,0.00961,-0.04242
3.609,-0.04333,-0.00473,-0.07507,0.00748,-0.03189,-0.03906,-0.01495,-0.00397,-0.04166,-0.11429,-0.18784,-0.00549,-0.02502,-0.02563,0.01068,-0.04272
3.6095,-0.0618,0.01007,-0.12787,0.01709,-0.03265,-0.0386,-0.01358,-0.00214,-0.03403,-0.10208,-0.17899,-0.0061,-0.02579,-0.02457,0.01221,-0.04242
3.61,-0.06851,0.01953,-0.13107,0.0325,-0.03281,-0.03708,-0.0119,-0.00183,-0.02625,-0.08881,-0.15808,-0.00732,-0.02502,-0.02197,0.01129,-0.0415
3.6105,-0.06058,0.02472,-0.09338,0.04074,-0.03342,-0.03693,-0.009,-0.00153,-0.01617,-0.07675,-0.13275,-0.009,-0.02502,-0.02197,0.00916,-0.04089
3.611,-0.03723,0.02747,-0.05402,0.02396,-0.03372,-0.03922,-0.00641,0.00046,-0.00732,-0.06393,-0.10712,-0.00916,-0.02487,-0.02289,0.00778,-0.04089
3.6115,-0.00717,0.03281,-0.02899,-0.0145,-0.03571,-0.04456,-0.00549,0.00259,-0.00168,-0.05051,-0.08087,-0.0087,-0.02472,-0.0238,0.00748,-0.04196
3.612,0.01587,0.04288,-0.00504,-0.04837,-0.03632,-0.05249,-0.00778,0.00336,0.00061,-0.03815,-0.04974,-0.01068,-0.02487,-0.02365,0.00671,-0.04272
3.6125,0.02991,0.04776,0.02243,-0.05325,-0.03693,-0.06104,-0.01083,0.00458,0.00458,-0.03143,-0.01678,-0.01389,-0.02441,-0.02274,0.00656,-0.04364
3.613,0.03891,0.03937,0.03616,-0.0351,-0.03769,-0.06897,-0.01175,0.00504,0.0061,-0.03021,0.00732,-0.01694,-0.02441,-0.02197,0.00641,-0.04257
3.6135,0.04547,0.01587,0.01953,-0.01633,-0.03662,-0.07324,-0.01083,0.00336,-0.00061,-0.03448,0.0177,-0.01709,-0.02472,-0.02182,0.00656,-0.04105
3.614,0.04395,-0.01785,-0.02136,-0.00702,-0.03632,-0.07248,-0.00992,-0.00046,-0.01373,-0.04135,0.02182,-0.01663,-0.02335,-0.01877,0.00549,-0.0412
3.6145,0.03342,-0.05615,-0.06424,-0.00366,-0.03403,-0.06927,-0.01053,-0.00397,-0.02319,-0.04532,0.03372,-0.01678,-0.02136,-0.01495,0.00427,-0.04227
3.615,0.01907,-0.08652,-0.09521,-0.01053,-0.0322,-0.06241,-0.01175,-0.00488,-0.02502,-0.04181,0.06973,-0.0177,-0.01984,-0.01129,0.00473,-0.04349
3.6155,0.00595,-0.09811,-0.11368,-0.03296,-0.03113,-0.05432,-0.0119,-0.00519,-0.02136,-0.03082,0.12589,-0.01709,-0.01968,-0.00977,0.00626,-0.04456
3.616,-0.00473,-0.09125,-0.1236,-0.05829,-0.03021,-0.04807,-0.01297,-0.00702,-0.01724,-0.01572,0.15945,-0.01373,-0.02029,-0.00992,0.00809,-0.0444
3.6165,-0.01724,-0.0798,-0.12741,-0.06027,-0.02884,-0.04395,-0.01495,-0.01068,-0.01511,-0.0029,0.12848,-0.00885,-0.02136,-0.01175,0.00885,-0.04272
3.617,-0.03006,-0.07568,-0.12665,-0.0383,-0.02823,-0.04166,-0.01572,-0.01068,-0.01572,0.00397,0.04349,-0.00458,-0.02167,-0.01266,0.00763,-0.0415
3.6175,-0.03815,-0.08087,-0.11993,-0.02319,-0.02823,-0.04028,-0.0145,-0.00793,-0.01724,0.00153,-0.04166,-0.00153,-0.02289,-0.01419,0.00702,-0.04166
3.618,-0.03845,-0.08743,-0.10986,-0.04166,-0.02777,-0.03937,-0.01221,-0.00488,-0.01663,-0.00763,-0.09491,0.00137,-0.02426,-0.01526,0.00626,-0.04257
3.6185,-0.03479,-0.08499,-0.09949,-0.08392,-0.02777,-0.03769,-0.01038,-0.00381,-0.01419,-0.01862,-0.12131,0.00458,-0.02563,-0.01587,0.00565,-0.04181
3.619,-0.02808,-0.07172,-0.09171,-0.12146,-0.02777,-0.03632,-0.00992,-0.00351,-0.01343,-0.02533,-0.14008,0.00763,-0.02579,-0.01556,0.00458,-0.04059
3.6195,-0.01694,-0.05142,-0.08804,-0.14587,-0.02808,-0.03403,-0.01068,-0.0029,-0.0148,-0.02472,-0.15137,0.01205,-0.0267,-0.01495,0.00504,-0.04089
3.62,-0.0032,-0.03387,-0.08301,-0.16602,-0.02884,-0.03311,-0.01251,-0.0029,-0.01785,-0.02243,-0.15411,0.01495,-0.02823,-0.01602,0.00626,-0.0415
3.6205,0.00443,-0.02258,-0.0737,-0.18097,-0.0296,-0.03372,-0.01434,-0.00412,-0.02029,-0.01907,-0.1564,0.01572,-0.0296,-0.01892,0.00671,-0.04211
3.621,-0.00031,-0.01602,-0.06531,-0.16968,-0.02975,-0.03723,-0.0145,-0.00427,-0.02228,-0.01236,-0.16373,0.01419,-0.02899,-0.02075,0.00641,-0.04227
3.6215,-0.01373,-0.01465,-0.06561,-0.11703,-0.02899,-0.0415,-0.01434,-0.00198,-0.02197,-0.00168,-0.16876,0.01266,-0.02762,-0.02182,0.00671,-0.04089
3.622,-0.02686,-0.01541,-0.07416,-0.02548,-0.0293,-0.04425,-0.01694,0.00137,-0.01999,0.00977,-0.15549,0.01282,-0.02823,-0.02258,0.0061,-0.04028
3.6225,-0.03479,-0.01694,-0.08255,0.06516,-0.03006,-0.04471,-0.0209,0.00275,-0.01953,0.01923,-0.11765,0.01297,-0.02945,-0.02365,0.00549,-0.04181
3.623,-0.03876,-0.01648,-0.08209,0.10422,-0.03143,-0.04196,-0.02289,-0.00031,-0.02167,0.02701,-0.06302,0.01205,-0.03052,-0.02441,0.0058,-0.0444
3.6235,-0.04379,-0.01633,-0.07492,0.09033,-0.03113,-0.03433,-0.02136,-0.0061,-0.02487,0.03464,-0.01312,0.00961,-0.02869,-0.02182,0.00839,-0.04379
3.624,-0.05096,-0.01877,-0.07217,0.07599,-0.03174,-0.02747,-0.01801,-0.01022,-0.02762,0.03891,0.01297,0.00732,-0.02869,-0.01831,0.00961,-0.04135
3.6245,-0.05432,-0.02533,-0.09033,0.09338,-0.03387,-0.02365,-0.01495,-0.00931,-0.02625,0.03815,0.01205,0.00671,-0.02869,-0.01602,0.00885,-0.03983
3.625,-0.04654,-0.03372,-0.14191,0.1152,-0.03769,-0.02487,-0.01312,-0.00549,-0.02365,0.03082,-0.00137,0.00656,-0.03021,-0.01678,0.00671,-0.04105
3.6255,-0.02792,-0.03998,-0.19669,0.10361,-0.04028,-0.0267,-0.01068,-0.0029,-0.0235,0.01663,-0.01221,0.00259,-0.0325,-0.01938,0.00427,-0.04303
3.626,-0.00671,-0.03967,-0.18875,0.06027,-0.04074,-0.02731,-0.00763,-0.0029,-0.02258,-0.00443,-0.01709,-0.00809,-0.03494,-0.0209,0.00351,-0.04333
3.6265,0.00793,-0.03647,-0.09048,0.01389,-0.03906,-0.02869,-0.00565,-0.00305,-0.01755,-0.02762,-0.01938,-0.03052,-0.03448,-0.02014,0.00351,-0.04288
3.627,0.01678,-0.03632,0.04379,-0.01175,-0.03876,-0.0354,-0.00687,-0.00168,-0.01038,-0.04364,-0.01694,-0.06531,-0.03387,-0.01892,0.00275,-0.0444
3.6275,0.02396,-0.03998,0.14252,-0.01709,-0.03876,-0.04532,-0.00992,0.00092,-0.00504,-0.0473,-0.0058,-0.09949,-0.03403,-0.01953,0.00229,-0.04517
3.628,0.03265,-0.04333,0.18005,-0.02106,-0.03906,-0.05905,-0.01251,0.00198,-0.00259,-0.04074,0.01282,-0.11505,-0.03418,-0.02106,0.0032,-0.04532
3.6285,0.04181,-0.04395,0.17731,-0.03708,-0.03937,-0.07172,-0.01343,0.00107,0.00076,-0.03174,0.03128,-0.10513,-0.03281,-0.02197,0.00519,-0.04486
3.629,0.047,-0.04517,0.15427,-0.06012,-0.03876,-0.08057,-0.0145,-0.00153,0.00702,-0.02625,0.0415,-0.08057,-0.03143,-0.02075,0.00671,-0.04501
3.6295,0.04761,-0.04868,0.11383,-0.07477,-0.03754,-0.08194,-0.01572,-0.0032,0.01251,-0.02396,0.04211,-0.05386,-0.03036,-0.01938,0.00687,-0.04395
3.63,0.04745,-0.05356,0.06332,-0.05981,-0.03494,-0.07721,-0.01541,-0.00244,0.01144,-0.02579,0.03525,-0.03265,-0.03082,-0.01862,0.00656,-0.04257
3.6305,0.05173,-0.05569,0.01755,0.00931,-0.03342,-0.07111,-0.01312,-0.00046,0.00351,-0.03006,0.02869,-0.02502,-0.03098,-0.01953,0.00778,-0.04166
3.631,0.06287,-0.056,-0.00717,0.12482,-0.03387,-0.06805,-0.01205,0.00107,-0.00549,-0.03067,0.0293,-0.02991,-0.03204,-0.01984,0.00961,-0.04089
3.6315,0.07568,-0.0563,-0.01358,0.21027,-0.03494,-0.06851,-0.01251,0.00259,-0.00946,-0.02213,0.03876,-0.03036,-0.03372,-0.01953,0.01205,-0.0386
3.632,0.08575,-0.0563,-0.00931,0.18951,-0.03693,-0.07187,-0.0145,0.00366,-0.0058,-0.01083,0.05569,-0.00336,-0.03418,-0.01877,0.01129,-0.0383
3.6325,0.09033,-0.05707,-0.00671,0.08682,-0.0386,-0.07507,-0.01663,0.00092,0.00183,-0.00366,0.0827,0.05997,-0.03372,-0.0174,0.00885,-0.03983
3.633,0.09033,-0.05615,-0.01251,-0.00854,-0.03891,-0.07538,-0.0177,-0.0029,0.00687,-0.00015,0.1178,0.13184,-0.03372,-0.01694,0.00595,-0.04196
3.6335,0.08316,-0.04684,-0.0264,-0.05341,-0.03799,-0.07233,-0.01785,-0.00717,0.00183,0.00656,0.14603,0.16937,-0.0351,-0.01495,0.00366,-0.04272
3.634,0.06409,-0.02731,-0.04776,-0.07278,-0.03799,-0.06729,-0.01633,-0.00961,-0.01022,0.01404,0.15671,0.16418,-0.03632,-0.01144,0.00458,-0.04227
3.6345,0.03204,-0.00626,-0.06989,-0.08896,-0.03708,-0.06134,-0.01404,-0.01053,-0.02014,0.01694,0.15198,0.14908,-0.03647,-0.00839,0.00656,-0.04059
3.635,-0.00595,0.00305,-0.07965,-0.09827,-0.03662,-0.05707,-0.01236,-0.01053,-0.02319,0.01251,0.13977,0.14755,-0.03876,-0.00885,0.00824,-0.03983
3.6355,-0.04257,0.0,-0.06973,-0.10345,-0.03647,-0.05295,-0.01434,-0.01053,-0.02411,0.00336,0.11948,0.14618,-0.04013,-0.01114,0.00793,-0.04013
3.636,-0.06973,-0.00381,-0.04547,-0.12314,-0.0354,-0.04654,-0.01907,-0.00824,-0.02533,-0.01068,0.08453,0.12711,-0.04105,-0.01312,0.00809,-0.0412
3.6365,-0.08591,-0.00305,-0.02151,-0.1622,-0.0351,-0.03891,-0.02258,-0.00397,-0.02808,-0.02869,0.04105,0.09399,-0.04227,-0.01373,0.00916,-0.04196
3.637,-0.09598,-0.00885,-0.00443,-0.19882,-0.03357,-0.03204,-0.01862,0.0,-0.03159,-0.0499,0.00473,0.05829,-0.0441,-0.01511,0.00961,-0.04181
3.6375,-0.10818,-0.03296,0.00641,-0.21561,-0.03052,-0.02853,-0.01007,0.00061,-0.03204,-0.07553,-0.01572,0.02182,-0.04547,-0.0177,0.0087,-0.04166
3.638,-0.12161,-0.06989,0.01846,-0.21591,-0.02808,-0.0293,-0.00519,-0.00031,-0.02625,-0.10895,-0.02182,-0.01892,-0.04578,-0.02136,0.00793,-0.04166
3.6385,-0.12756,-0.10284,0.03128,-0.1976,-0.02853,-0.03174,-0.00732,0.0,-0.01617,-0.14725,-0.01755,-0.0676,-0.04593,-0.02396,0.00839,-0.04166
3.639,-0.11749,-0.11871,0.03677,-0.12299,-0.02945,-0.03494,-0.01068,0.00107,-0.009,-0.17685,-0.01251,-0.12604,-0.04501,-0.02487,0.00824,-0.04135
3.6395,-0.09674,-0.11749,0.0296,0.03845,-0.02945,-0.03784,-0.00839,0.00198,-0.01022,-0.1889,-0.02213,-0.18509,-0.04242,-0.02411,0.0058,-0.04211
3.64,-0.07751,-0.10544,0.01328,0.22751,-0.02914,-0.03891,-0.00366,0.00259,-0.01907,-0.18829,-0.05066,-0.22491,-0.03906,-0.0235,0.00458,-0.04379
3.6405,-0.06577,-0.09308,-0.00626,0.31158,-0.02823,-0.03998,-0.00137,0.00458,-0.03098,-0.18463,-0.0856,-0.22339,-0.03494,-0.02365,0.00656,-0.0444
3.641,-0.05661,-0.08392,-0.02487,0.23499,-0.02838,-0.04211,-0.0029,0.00656,-0.04257,-0.17227,-0.11276,-0.18265,-0.03296,-0.02365,0.00961,-0.04242
3.6415,-0.04837,-0.08057,-0.0473,0.09842,-0.02853,-0.04364,-0.0061,0.00595,-0.04974,-0.14694,-0.12955,-0.13077,-0.03113,-0.02319,0.01236,-0.04013
3.642,-0.0441,-0.0798,-0.07324,0.03586,-0.02884,-0.04517,-0.01007,0.00229,-0.04883,-0.11124,-0.13519,-0.0975,-0.03036,-0.02335,0.01221,-0.03922
3.6425,-0.04242,-0.08057,-0.10025,0.0676,-0.03052,-0.04639,-0.01404,-0.00229,-0.04089,-0.07538,-0.12314,-0.08911,-0.02991,-0.02411,0.01083,-0.03998
3.643,-0.03906,-0.08057,-0.12146,0.12177,-0.03204,-0.04807,-0.01678,-0.00488,-0.0322,-0.04105,-0.09323,-0.08957,-0.02914,-0.0235,0.00961,-0.0412
3.6435,-0.0322,-0.07889,-0.13428,0.13901,-0.03021,-0.04929,-0.01892,-0.00763,-0.02838,-0.009,-0.05875,-0.08011,-0.02869,-0.02213,0.00916,-0.03998
3.644,-0.02167,-0.07736,-0.13641,0.11276,-0.0293,-0.04791,-0.02014,-0.01007,-0.02686,0.02136,-0.0383,-0.05005,-0.0296,-0.01999,0.01007,-0.03922
3.6445,-0.00687,-0.07874,-0.13565,0.06546,-0.02884,-0.04471,-0.01938,-0.00931,-0.01923,0.04852,-0.03876,-0.00534,-0.03006,-0.01831,0.00946,-0.03967
3.645,0.01465,-0.08224,-0.13336,0.02396,-0.02823,-0.0415,-0.01648,-0.0058,-0.00519,0.07462,-0.05081,0.0415,-0.0296,-0.01694,0.00977,-0.04013
3.6455,0.03708,-0.08713,-0.1297,-0.00229,-0.02838,-0.03983,-0.01495,-0.00397,0.00763,0.0946,-0.06119,0.07813,-0.0293,-0.01602,0.00961,-0.04211
3.646,0.05112,-0.09064,-0.11734,-0.03067,-0.02975,-0.03998,-0.01556,-0.00504,0.01312,0.10406,-0.06409,0.09064,-0.02899,-0.01404,0.00916,-0.04318
3.6465,0.05249,-0.09048,-0.09613,-0.07111,-0.0322,-0.04074,-0.0174,-0.00687,0.01205,0.09674,-0.06241,0.06897,-0.02884,-0.01251,0.00641,-0.0444
3.647,0.04639,-0.08682,-0.07462,-0.10147,-0.03418,-0.04196,-0.01862,-0.00687,0.00854,0.07172,-0.05936,0.0238,-0.02991,-0.01282,0.00168,-0.04608
3.6475,0.04242,-0.08041,-0.0592,-0.09567,-0.03296,-0.04349,-0.01892,-0.00565,0.00809,0.03662,-0.05524,-0.01862,-0.03021,-0.01389,-0.00061,-0.04715
3.648,0.04318,-0.07187,-0.04791,-0.06439,-0.03006,-0.04364,-0.01846,-0.00488,0.01007,0.00153,-0.04883,-0.03967,-0.03021,-0.01221,0.00061,-0.04761
3.6485,0.04501,-0.06317,-0.04013,-0.04242,-0.02625,-0.04272,-0.01755,-0.00488,0.00992,-0.02335,-0.04044,-0.04333,-0.03143,-0.01175,0.00397,-0.04761
3.649,0.04669,-0.05569,-0.0351,-0.0415,-0.02655,-0.0415,-0.01633,-0.00473,0.00671,-0.03021,-0.0267,-0.04089,-0.03326,-0.01434,0.0058,-0.04593
3.6495,0.04593,-0.04715,-0.03265,-0.04395,-0.02747,-0.04059,-0.01602,-0.00534,0.00183,-0.01816,-0.00595,-0.03021,-0.03448,-0.01877,0.0061,-0.04471
3.65,0.04257,-0.0383,-0.03052,-0.03235,-0.02792,-0.03906,-0.01511,-0.00595,0.00046,0.00732,0.01633,-0.00717,-0.03494,-0.02075,0.00641,-0.04425
3.6505,0.03464,-0.02945,-0.02625,-0.01038,-0.02808,-0.03845,-0.01511,-0.00565,0.00153,0.03647,0.03464,0.01831,-0.03479,-0.0206,0.00824,-0.04593
3.651,0.02411,-0.0209,-0.02029,0.01633,-0.02716,-0.03937,-0.01572,-0.00397,-0.00229,0.06393,0.04623,0.03784,-0.03479,-0.01923,0.00946,-0.04807
3.6515,0.01526,-0.01282,-0.01633,0.04517,-0.02747,-0.04089,-0.01709,-0.00412,-0.01556,0.0882,0.05554,0.04959,-0.0354,-0.01816,0.01053,-0.04868
3.652,0.00977,-0.00366,-0.01511,0.07568,-0.02716,-0.04135,-0.01785,-0.00565,-0.03128,0.10666,0.06485,0.05219,-0.0351,-0.0174,0.01038,-0.04807
3.6525,0.00641,0.00763,-0.0145,0.10056,-0.0264,-0.04211,-0.01602,-0.0058,-0.04089,0.11536,0.07278,0.03876,-0.03494,-0.01587,0.01068,-0.04639
3.653,0.00061,0.01923,-0.01175,0.10925,-0.02655,-0.04364,-0.01389,-0.00366,-0.04074,0.10971,0.07645,0.01587,-0.03448,-0.0145,0.01083,-0.04501
3.6535,-0.00565,0.02609,-0.0116,0.09354,-0.02914,-0.04486,-0.0119,-0.00259,-0.03754,0.09506,0.07767,0.00366,-0.03601,-0.01343,0.00961,-0.04318
3.654,-0.00839,0.02441,-0.01999,0.05737,-0.03281,-0.04684,-0.01129,-0.0032,-0.03632,0.08301,0.0795,0.01373,-0.0383,-0.0148,0.00778,-0.0412
3.6545,-0.00412,0.01846,-0.04242,0.01129,-0.0351,-0.04501,-0.01221,-0.00336,-0.0386,0.07935,0.08163,0.03662,-0.03876,-0.01907,0.00626,-0.04105
3.655,0.00671,0.01404,-0.0708,-0.03693,-0.03571,-0.03998,-0.01297,-0.00244,-0.04288,0.0853,0.07584,0.05524,-0.03845,-0.02304,0.00641,-0.04135
3.6555,0.01862,0.00977,-0.08194,-0.08591,-0.03555,-0.03372,-0.01343,-0.00107,-0.04288,0.09338,0.056,0.05554,-0.03922,-0.02533,0.00626,-0.0415
3.656,0.02365,0.0032,-0.06317,-0.13519,-0.0354,-0.02716,-0.01404,-0.00183,-0.03128,0.09598,0.02838,0.03662,-0.03983,-0.02655,0.0058,-0.04013
3.6565,0.0209,-0.00458,-0.02487,-0.17761,-0.03571,-0.02258,-0.01556,-0.00214,-0.00824,0.08575,0.00259,0.00671,-0.04089,-0.02518,0.00412,-0.03952
3.657,0.01892,-0.00793,0.00992,-0.1947,-0.03525,-0.02304,-0.01617,-0.00137,0.01526,0.05585,-0.01984,-0.01877,-0.0412,-0.02396,0.00427,-0.03906
3.6575,0.02274,-0.00549,0.02792,-0.16937,-0.03464,-0.02838,-0.0148,-0.00015,0.02304,0.00885,-0.04654,-0.02701,-0.0415,-0.0235,0.00534,-0.04074
3.658,0.02441,-0.00153,0.02518,-0.10605,-0.03448,-0.03586,-0.01404,0.00031,0.01328,-0.047,-0.07294,-0.02106,-0.04166,-0.0238,0.00763,-0.04196
3.6585,0.01419,-0.00366,0.00778,-0.03677,-0.03555,-0.04303,-0.01419,0.0,-0.00671,-0.09888,-0.08881,-0.01083,-0.04181,-0.02457,0.00778,-0.04242
3.659,-0.00748,-0.01129,-0.01724,-0.00443,-0.0351,-0.04807,-0.01633,-0.00122,-0.02289,-0.13916,-0.08591,-0.00473,-0.04166,-0.02594,0.00778,-0.04272
3.6595,-0.03098,-0.02014,-0.03448,-0.01572,-0.03555,-0.04868,-0.01755,-0.0029,-0.02762,-0.16541,-0.07019,-0.0029,-0.04105,-0.02563,0.00839,-0.04288
3.66,-0.04837,-0.02899,-0.04288,-0.03799,-0.03693,-0.0444,-0.01785,-0.00381,-0.02625,-0.17792,-0.05142,-0.00015,-0.0412,-0.02335,0.00885,-0.04242
3.6605,-0.05768,-0.04013,-0.04608,-0.04227,-0.03799,-0.03876,-0.01709,-0.00381,-0.02747,-0.17975,-0.0325,0.00427,-0.04059,-0.0209,0.00916,-0.04135
3.661,-0.06058,-0.05707,-0.04684,-0.02609,-0.03876,-0.03601,-0.0148,-0.0029,-0.03555,-0.17273,-0.01465,0.00885,-0.03906,-0.02045,0.00931,-0.04074
3.6615,-0.05936,-0.08759,-0.03922,0.00015,-0.03784,-0.03922,-0.01328,-0.00229,-0.04791,-0.1561,-0.00366,0.01236,-0.03708,-0.02243,0.00977,-0.04059
3.662,-0.05798,-0.12527,-0.02121,0.0293,-0.0383,-0.04547,-0.01389,-0.00305,-0.06256,-0.12787,-0.00732,0.01602,-0.03693,-0.02457,0.0116,-0.04059
3.6625,-0.05722,-0.14755,-0.00061,0.05234,-0.03769,-0.04974,-0.01511,-0.00549,-0.07782,-0.08636,-0.02563,0.01846,-0.03708,-0.02411,0.01251,-0.03967
3.663,-0.05417,-0.13474,0.0145,0.05951,-0.03586,-0.0499,-0.01602,-0.00732,-0.08896,-0.03174,-0.05295,0.0148,-0.03632,-0.01968,0.01282,-0.0383
3.6635,-0.04013,-0.09476,0.02304,0.04745,-0.03372,-0.04715,-0.01511,-0.00732,-0.08652,0.02762,-0.07858,0.0029,-0.03235,-0.01389,0.01144,-0.0386
3.664,-0.01694,-0.05142,0.02655,0.02426,-0.03143,-0.04822,-0.01297,-0.00626,-0.06744,0.08133,-0.09216,-0.01694,-0.02777,-0.01053,0.01038,-0.04089
3.6645,0.00168,-0.02121,0.02426,0.0058,-0.03265,-0.05478,-0.01083,-0.00427,-0.03983,0.12253,-0.08865,-0.04074,-0.02655,-0.01007,0.01022,-0.04181
3.665,-0.00015,-0.0029,0.01221,0.00092,-0.03479,-0.06516,-0.01007,-0.0029,-0.01709,0.14908,-0.07523,-0.0592,-0.02747,-0.01205,0.01083,-0.04135
3.6655,-0.02182,0.00992,-0.01144,0.01114,-0.03555,-0.07553,-0.01022,-0.00122,-0.00412,0.16098,-0.06714,-0.06699,-0.02945,-0.0148,0.01236,-0.04059
3.666,-0.0473,0.01816,-0.04974,0.03098,-0.03525,-0.08148,-0.01114,-0.00137,0.00351,0.15518,-0.0679,-0.07202,-0.03067,-0.0177,0.01312,-0.04028
3.6665,-0.06699,0.01968,-0.10284,0.04898,-0.03403,-0.07996,-0.01099,-0.00214,0.01343,0.12558,-0.06973,-0.07492,-0.03143,-0.01907,0.0116,-0.03937
3.667,-0.07767,0.01312,-0.14969,0.06165,-0.03387,-0.07263,-0.01038,-0.00168,0.02655,0.08133,-0.06561,-0.06302,-0.03159,-0.01877,0.01129,-0.03769
3.6675,-0.07462,0.00183,-0.15686,0.07599,-0.03448,-0.06439,-0.00977,-0.00137,0.03754,0.04456,-0.05676,-0.03113,-0.0296,-0.01648,0.01251,-0.03571
3.668,-0.05539,-0.01221,-0.13092,0.09247,-0.03326,-0.05936,-0.01022,-0.00137,0.03983,0.02548,-0.03967,0.00168,-0.0264,-0.01526,0.01465,-0.03464
3.6685,-0.02731,-0.02563,-0.11536,0.09262,-0.03189,-0.05905,-0.01129,-0.00107,0.03326,0.01663,0.00198,0.0119,-0.02502,-0.0148,0.01465,-0.0354
3.669,-0.0061,-0.03784,-0.12329,0.06546,-0.02991,-0.06287,-0.0119,0.00046,0.02197,0.00153,0.07675,-0.00046,-0.02563,-0.01678,0.01389,-0.03815
3.6695,0.00153,-0.04944,-0.11627,0.03479,-0.02853,-0.06409,-0.01205,0.00198,0.01236,-0.02441,0.15045,-0.0148,-0.02747,-0.01862,0.01297,-0.04013
3.67,-0.00107,-0.06165,-0.06531,0.02869,-0.02701,-0.06073,-0.01389,0.00229,0.00504,-0.06378,0.17227,-0.01099,-0.03098,-0.01831,0.0116,-0.04135
3.6705,-0.00763,-0.0705,0.01083,0.03952,-0.02594,-0.05508,-0.01724,0.00168,-0.0032,-0.11093,0.13382,0.00809,-0.03448,-0.01816,0.00977,-0.04257
3.671,-0.01022,-0.07065,0.07736,0.03723,-0.02487,-0.0528,-0.01892,0.00061,-0.01862,-0.15152,0.07355,0.02625,-0.0351,-0.01678,0.00763,-0.04288
3.6715,-0.0061,-0.06271,0.12299,0.00519,-0.02396,-0.05463,-0.01709,0.00061,-0.04181,-0.17029,0.03311,0.03799,-0.03235,-0.01663,0.0061,-0.04272
3.672,0.00015,-0.05142,0.14877,-0.0502,-0.02396,-0.05859,-0.01312,0.00198,-0.06165,-0.16663,0.02762,0.04547,-0.03021,-0.01617,0.00565,-0.04303
3.6725,-0.00015,-0.04196,0.15167,-0.11353,-0.02441,-0.05936,-0.00931,0.00244,-0.05966,-0.14938,0.05035,0.04669,-0.02869,-0.01617,0.00595,-0.04318
3.673,-0.00854,-0.03403,0.13031,-0.17334,-0.0264,-0.06104,-0.00916,0.00168,-0.03159,-0.13123,0.08011,0.04013,-0.02884,-0.01663,0.00549,-0.04349
3.6735,-0.01846,-0.02899,0.09659,-0.22034,-0.0293,-0.06485,-0.01022,0.00015,0.00275,-0.11856,0.09018,0.03281,-0.02914,-0.01801,0.00565,-0.04349
3.674,-0.02609,-0.02487,0.06805,-0.23315,-0.0322,-0.06851,-0.01236,-0.00153,0.01938,-0.10788,0.06149,0.03326,-0.0293,-0.01984,0.00671,-0.04333
3.6745,-0.03052,-0.02029,0.04623,-0.18326,-0.03189,-0.06805,-0.01389,-0.00275,0.01205,-0.09323,0.00626,0.03479,-0.02838,-0.02014,0.00626,-0.04333
3.675,-0.0325,-0.01389,0.0145,-0.06744,-0.02869,-0.06058,-0.01328,-0.00336,-0.01038,-0.07233,-0.04852,0.03159,-0.02686,-0.0177,0.00824,-0.04318
3.6755,-0.03326,-0.00656,-0.04272,0.07217,-0.02579,-0.05005,-0.01297,-0.00275,-0.03494,-0.04639,-0.0853,0.03006,-0.02625,-0.0148,0.00916,-0.0415
3.676,-0.0351,0.00351,-0.10742,0.17563,-0.02533,-0.04181,-0.01373,-0.0032,-0.05447,-0.01602,-0.10162,0.03677,-0.02747,-0.0148,0.009,-0.04013
3.6765,-0.04059,0.01709,-0.14572,0.20294,-0.0267,-0.03769,-0.01617,-0.00763,-0.06485,0.01495,-0.09506,0.04379,-0.03021,-0.0174,0.00885,-0.03952
3.677,-0.04913,0.02548,-0.14282,0.14008,-0.02762,-0.03815,-0.01999,-0.01251,-0.06805,0.03906,-0.06882,0.03525,-0.03143,-0.01923,0.009,-0.03937
3.6775,-0.05493,0.01862,-0.11475,0.02686,-0.02609,-0.04181,-0.02136,-0.01526,-0.07141,0.0528,-0.04074,0.01465,-0.0322,-0.01846,0.01007,-0.04044
3.678,-0.0528,-0.00244,-0.08713,-0.07034,-0.02457,-0.0444,-0.02029,-0.01297,-0.07538,0.05798,-0.03708,-0.00229,-0.03082,-0.01617,0.01022,-0.04074
3.6785,-0.04379,-0.02884,-0.06882,-0.12085,-0.02396,-0.04242,-0.01831,-0.00748,-0.07172,0.05936,-0.06989,-0.00946,-0.02899,-0.0145,0.01022,-0.04166
3.679,-0.03738,-0.0499,-0.05493,-0.14709,-0.02487,-0.03586,-0.01633,-0.00198,-0.05463,0.06058,-0.12283,-0.01129,-0.02914,-0.01434,0.00977,-0.04288
3.6795,-0.03555,-0.06332,-0.04395,-0.16708,-0.02457,-0.02914,-0.01404,0.00061,-0.03235,0.05737,-0.159,-0.00961,-0.03082,-0.01617,0.00961,-0.04486
3.68,-0.03296,-0.0705,-0.03281,-0.17136,-0.02472,-0.02747,-0.01282,0.00244,-0.01663,0.04669,-0.15335,-0.00229,-0.03159,-0.01816,0.01022,-0.04532
3.6805,-0.02899,-0.07263,-0.02136,-0.15137,-0.02594,-0.03235,-0.01297,0.00229,-0.01129,0.02823,-0.11459,0.00809,-0.03021,-0.01923,0.00885,-0.04288
3.681,-0.02792,-0.07034,-0.01129,-0.11566,-0.02701,-0.04059,-0.01389,-0.00046,-0.00992,0.00595,-0.06668,0.01465,-0.0293,-0.01846,0.00824,-0.04074
3.6815,-0.03113,-0.06363,-0.00626,-0.06592,-0.02533,-0.04547,-0.01541,-0.00473,-0.00626,-0.01801,-0.03159,0.01816,-0.02838,-0.0177,0.00763,-0.04166
3.682,-0.03189,-0.05249,-0.00717,-0.00015,-0.02228,-0.04456,-0.01556,-0.00839,0.00519,-0.04105,-0.01495,0.03006,-0.02747,-0.01862,0.00732,-0.04318
3.6825,-0.02533,-0.04471,-0.01297,0.0647,-0.02289,-0.04028,-0.01404,-0.0087,0.02075,-0.05798,-0.01175,0.05066,-0.0264,-0.0206,0.00763,-0.04318
3.683,-0.00946,-0.04868,-0.02258,0.09567,-0.02411,-0.03906,-0.01266,-0.00732,0.03159,-0.06851,-0.01633,0.0647,-0.02518,-0.02197,0.00946,-0.04166
3.6835,0.00992,-0.06104,-0.04074,0.07675,-0.02579,-0.04349,-0.01221,-0.00626,0.02625,-0.07431,-0.03235,0.06134,-0.02457,-0.01968,0.01007,-0.04135
3.684,0.02548,-0.07477,-0.06668,0.02487,-0.02731,-0.04868,-0.01312,-0.00626,0.00549,-0.08102,-0.06149,0.04715,-0.02304,-0.01587,0.00977,-0.04196
3.6845,0.02914,-0.08698,-0.08621,-0.02777,-0.02884,-0.04944,-0.0148,-0.00565,-0.01678,-0.09109,-0.09735,0.03479,-0.02045,-0.01312,0.00885,-0.04227
3.685,0.02304,-0.10025,-0.09537,-0.06073,-0.03021,-0.04456,-0.01465,-0.00534,-0.0293,-0.10071,-0.12039,0.02441,-0.01968,-0.01175,0.00839,-0.04272
3.6855,0.01633,-0.11108,-0.12695,-0.07401,-0.0296,-0.03952,-0.01404,-0.00534,-0.0325,-0.10574,-0.11658,0.00504,-0.02075,-0.01114,0.00702,-0.04395
3.686,0.0177,-0.1088,-0.215,-0.08606,-0.02975,-0.04044,-0.01343,-0.00626,-0.03281,-0.10315,-0.09109,-0.02563,-0.02197,-0.01038,0.00626,-0.04456
3.6865,0.02487,-0.08652,-0.31296,-0.10513,-0.03067,-0.04868,-0.01328,-0.00458,-0.03418,-0.09781,-0.06042,-0.05173,-0.02243,-0.00992,0.00549,-0.0441
3.687,0.02838,-0.05249,-0.31677,-0.10117,-0.0322,-0.06073,-0.01236,-0.00198,-0.03601,-0.08713,-0.03265,-0.05951,-0.02243,-0.00977,0.00565,-0.04257
3.6875,0.02335,-0.02304,-0.19058,-0.04791,-0.03159,-0.06882,-0.01068,-0.00046,-0.03693,-0.06866,-0.00565,-0.05615,-0.02319,-0.01129,0.00488,-0.0415
3.688,0.01556,-0.00809,-0.01907,0.01129,-0.03082,-0.07034,-0.00931,-0.00046,-0.03296,-0.04486,0.01831,-0.05463,-0.02563,-0.01404,0.00443,-0.04181
3.6885,0.01068,-0.00992,0.10208,0.00992,-0.03098,-0.06592,-0.00854,-0.00061,-0.02167,-0.02045,0.03006,-0.05737,-0.02731,-0.01602,0.00549,-0.04196
3.689,0.00946,-0.02625,0.1683,-0.0531,-0.03174,-0.05981,-0.0087,-0.00168,-0.00214,0.00076,0.03128,-0.06531,-0.02945,-0.01602,0.00778,-0.04166
3.6895,0.00763,-0.04776,0.2243,-0.12451,-0.03159,-0.05249,-0.00961,-0.00214,0.02396,0.01984,0.03265,-0.07813,-0.02991,-0.01434,0.01038,-0.04044
3.69,0.00381,-0.05783,0.26779,-0.16113,-0.03052,-0.04578,-0.0116,-0.00366,0.05035,0.03708,0.04166,-0.08179,-0.03067,-0.01221,0.01068,-0.03998
3.6905,-0.00061,-0.04395,0.25085,-0.15411,-0.03143,-0.04379,-0.01373,-0.00458,0.06958,0.04837,0.05249,-0.06226,-0.03113,-0.0119,0.00961,-0.04135
3.691,-0.00107,-0.01068,0.15396,-0.09949,-0.03357,-0.04608,-0.01495,-0.00488,0.0769,0.04898,0.05829,-0.02975,-0.03113,-0.01343,0.00763,-0.04288
3.6915,0.00656,0.02213,0.02792,0.00366,-0.03494,-0.04776,-0.0145,-0.00305,0.07187,0.03952,0.06149,-0.00702,-0.03128,-0.01633,0.0058,-0.04288
3.692,0.01999,0.03189,-0.04807,0.12375,-0.03464,-0.047,-0.01434,-0.00198,0.05493,0.03174,0.0705,0.00809,-0.03204,-0.01862,0.00534,-0.04257
3.6925,0.03281,0.0119,-0.05585,0.18997,-0.03372,-0.04333,-0.01434,-0.00153,0.02914,0.03448,0.0975,0.02777,-0.03418,-0.01907,0.00626,-0.0412
3.693,0.0383,-0.02213,-0.05661,0.16022,-0.03036,-0.04089,-0.01343,-0.00137,0.00427,0.04227,0.13153,0.047,-0.03586,-0.01892,0.00748,-0.04013
3.6935,0.03799,-0.05112,-0.11169,0.07477,-0.0293,-0.03952,-0.01312,-0.00229,-0.01328,0.04303,0.14587,0.04669,-0.03632,-0.0177,0.00748,-0.03952
3.694,0.03876,-0.06577,-0.19165,0.0145,-0.02945,-0.03937,-0.01434,-0.0032,-0.02167,0.0296,0.12497,0.02396,-0.03799,-0.01648,0.00702,-0.0386
3.6945,0.0441,-0.06805,-0.2092,0.0087,-0.03128,-0.04028,-0.01602,-0.00366,-0.02701,0.0087,0.09079,-0.00427,-0.03967,-0.01511,0.00748,-0.03922
3.695,0.04715,-0.06424,-0.13382,0.02899,-0.03387,-0.04318,-0.01709,-0.00351,-0.03967,-0.01251,0.08972,-0.02625,-0.04059,-0.01617,0.00946,-0.04257
3.6955,0.03967,-0.05844,-0.02487,0.04898,-0.03677,-0.04715,-0.01648,-0.00275,-0.05875,-0.03387,0.14664,-0.03174,-0.04044,-0.01862,0.01007,-0.04471
3.696,0.02472,-0.04883,0.04974,0.06638,-0.03677,-0.05096,-0.01434,-0.00244,-0.0676,-0.06012,0.21881,-0.00702,-0.03998,-0.02151,0.00931,-0.04745
3.6965,0.01572,-0.03357,0.08392,0.08469,-0.03784,-0.05371,-0.01282,-0.00214,-0.05829,-0.09644,0.22079,0.04608,-0.03937,-0.02396,0.0087,-0.04822
3.697,0.01999,-0.0116,0.1004,0.09415,-0.03616,-0.05615,-0.01297,-0.00122,-0.04303,-0.13763,0.12207,0.0946,-0.03754,-0.0264,0.00931,-0.04669
3.6975,0.02106,0.01312,0.10178,0.08316,-0.03372,-0.05768,-0.01389,-0.00092,-0.03891,-0.16739,-0.01404,0.10651,-0.03616,-0.0296,0.00977,-0.04318
3.698,-0.00198,0.03906,0.08347,0.0589,-0.0322,-0.0563,-0.0145,-0.00198,-0.04562,-0.17548,-0.10178,0.0856,-0.03616,-0.03006,0.00977,-0.03937
3.6985,-0.04913,0.05493,0.05386,0.04196,-0.03128,-0.0528,-0.01404,-0.00214,-0.05173,-0.16632,-0.12207,0.05783,-0.03784,-0.02655,0.00946,-0.03738
3.699,-0.1004,0.04822,0.02396,0.05127,-0.03052,-0.05112,-0.01373,-0.00229,-0.04868,-0.15442,-0.10712,0.04166,-0.0383,-0.02243,0.00961,-0.0383
3.6995,-0.1387,0.01678,0.00015,0.07919,-0.02975,-0.05142,-0.01358,-0.00137,-0.03876,-0.14908,-0.08072,0.04196,-0.03754,-0.0209,0.0087,-0.03983
3.7,-0.16098,-0.02029,-0.02228,0.09827,-0.02945,-0.05249,-0.01343,-0.00168,-0.02594,-0.14648,-0.05219,0.05402,-0.03632,-0.02243,0.009,-0.04105
3.7005,-0.16815,-0.0415,-0.04303,0.08743,-0.02838,-0.05127,-0.01419,-0.00198,-0.01389,-0.13962,-0.04578,0.06668,-0.03479,-0.02274,0.00854,-0.04181
3.701,-0.16022,-0.04379,-0.05997,0.05249,-0.02731,-0.04837,-0.01389,-0.00137,-0.00763,-0.12604,-0.08896,0.06836,-0.03387,-0.02167,0.01053,-0.04135
3.7015,-0.14374,-0.03952,-0.07339,0.01648,-0.02518,-0.04517,-0.01312,-0.00015,-0.01129,-0.10941,-0.1712,0.04898,-0.03311,-0.01846,0.0119,-0.03998
3.702,-0.12894,-0.04257,-0.08942,-0.01114,-0.02426,-0.04227,-0.01236,0.00015,-0.02167,-0.09064,-0.25299,0.00488,-0.03387,-0.01755,0.01297,-0.03906
3.7025,-0.1152,-0.05539,-0.10422,-0.03677,-0.02548,-0.03876,-0.01205,-0.00031,-0.03052,-0.06714,-0.29755,-0.0531,-0.03601,-0.01755,0.01343,-0.03891
3.703,-0.09506,-0.07477,-0.11063,-0.0531,-0.02457,-0.03555,-0.0116,0.00015,-0.03296,-0.03677,-0.29892,-0.09872,-0.03677,-0.01816,0.01312,-0.03906
3.7035,-0.06668,-0.09903,-0.11047,-0.04181,-0.02411,-0.03326,-0.0116,0.00183,-0.03159,-0.0029,-0.26642,-0.10773,-0.03586,-0.01846,0.0119,-0.03983
3.704,-0.0383,-0.12924,-0.11673,-0.00458,-0.02457,-0.03372,-0.01022,0.00153,-0.03128,0.02884,-0.21576,-0.08621,-0.03342,-0.01907,0.01007,-0.04074
3.7045,-0.01709,-0.16083,-0.12817,0.03052,-0.02625,-0.03708,-0.00977,0.00061,-0.02914,0.05753,-0.16449,-0.06165,-0.03265,-0.01984,0.00885,-0.04181
3.705,0.00107,-0.19302,-0.13565,0.03235,-0.02899,-0.03967,-0.01175,0.00015,-0.02274,0.08224,-0.13138,-0.05539,-0.03357,-0.02151,0.00946,-0.04242
3.7055,0.02304,-0.21957,-0.14297,0.00336,-0.03082,-0.04028,-0.01419,0.00076,-0.01175,0.10223,-0.12054,-0.06378,-0.03555,-0.02304,0.00992,-0.04166
3.706,0.04929,-0.22507,-0.16495,-0.02991,-0.03021,-0.0386,-0.01495,0.00031,0.00198,0.121,-0.11703,-0.0647,-0.03571,-0.02335,0.00809,-0.04105
3.7065,0.07629,-0.19974,-0.19913,-0.04364,-0.02762,-0.03647,-0.01465,-0.00122,0.0174,0.13947,-0.103,-0.04044,-0.03479,-0.02182,0.0058,-0.03937
3.707,0.09811,-0.15289,-0.21942,-0.03342,-0.0267,-0.03586,-0.01572,-0.00366,0.03128,0.1532,-0.07706,0.00656,-0.03326,-0.02121,0.00549,-0.03937
3.7075,0.11246,-0.10651,-0.21194,-0.00626,-0.02792,-0.03616,-0.01816,-0.0029,0.03876,0.15244,-0.0502,0.05371,-0.03372,-0.0206,0.00763,-0.03952
3.708,0.11597,-0.07202,-0.18448,0.02426,-0.0296,-0.03708,-0.01892,-0.00275,0.03616,0.13077,-0.02884,0.07507,-0.03448,-0.02136,0.00916,-0.03983
3.7085,0.10742,-0.04822,-0.15305,0.03403,-0.0293,-0.0412,-0.01617,-0.00412,0.02625,0.09338,-0.01633,0.06653,-0.03418,-0.02045,0.0087,-0.04044
3.709,0.09048,-0.02899,-0.11673,0.00092,-0.02853,-0.0473,-0.01404,-0.0058,0.01389,0.05219,-0.01602,0.05356,-0.03143,-0.01892,0.00687,-0.04211
3.7095,0.07233,-0.01434,-0.07523,-0.06561,-0.02884,-0.05295,-0.01251,-0.00336,0.00214,0.01678,-0.02502,0.05829,-0.02823,-0.01846,0.00534,-0.04272
3.71,0.05814,-0.00748,-0.03372,-0.12665,-0.02869,-0.05646,-0.0119,0.0,-0.00809,-0.00687,-0.0264,0.07309,-0.02716,-0.01923,0.00534,-0.04288
3.7105,0.04547,-0.00732,-0.00305,-0.14572,-0.03021,-0.056,-0.01297,0.00244,-0.01953,-0.01648,-0.00626,0.06836,-0.02899,-0.02106,0.00717,-0.04181
3.711,0.02914,-0.01022,0.01434,-0.12726,-0.03067,-0.05386,-0.01373,0.00046,-0.03357,-0.01083,0.0351,0.02701,-0.03098,-0.02121,0.00824,-0.03967
3.7115,0.01099,-0.00916,0.01862,-0.1088,-0.03189,-0.05112,-0.01266,-0.00183,-0.04669,0.00229,0.07889,-0.0322,-0.03098,-0.01862,0.00687,-0.03754
3.712,-0.00168,-0.00549,0.01251,-0.12024,-0.0325,-0.0499,-0.01129,-0.00076,-0.05447,0.01419,0.11307,-0.07858,-0.03098,-0.01572,0.00778,-0.03677
3.7125,-0.00687,0.00061,-0.00183,-0.14954,-0.03342,-0.04868,-0.01007,0.00229,-0.05524,0.01755,0.13596,-0.09766,-0.03342,-0.0145,0.00946,-0.03754
3.713,-0.00565,0.00732,-0.01801,-0.15945,-0.03372,-0.04669,-0.01007,0.00397,-0.0499,0.00916,0.15167,-0.10025,-0.03494,-0.01556,0.01175,-0.03891
3.7135,0.00214,0.01099,-0.03128,-0.13199,-0.03448,-0.04547,-0.01068,0.00092,-0.04089,-0.00961,0.16083,-0.09583,-0.03464,-0.01801,0.01099,-0.03983
3.714,0.01984,0.00641,-0.03876,-0.08026,-0.03387,-0.04486,-0.01328,-0.00351,-0.0351,-0.03006,0.16479,-0.08698,-0.03265,-0.01999,0.00748,-0.04196
3.7145,0.04272,-0.00351,-0.03784,-0.02365,-0.03372,-0.04379,-0.01602,-0.00717,-0.03403,-0.04044,0.15717,-0.07523,-0.03235,-0.02182,0.00504,-0.04318
3.715,0.06012,-0.01434,-0.02853,0.01862,-0.03326,-0.04089,-0.01709,-0.00778,-0.03555,-0.03448,0.13199,-0.05188,-0.03372,-0.02411,0.00488,-0.04425
3.7155,0.06439,-0.02518,-0.01434,0.03143,-0.03448,-0.03632,-0.01709,-0.00763,-0.03433,-0.02106,0.09109,-0.0145,-0.0351,-0.02579,0.00717,-0.04379
3.716,0.06073,-0.0354,0.00183,0.01541,-0.03464,-0.03372,-0.01755,-0.00824,-0.02991,-0.00656,0.04745,0.01968,-0.03586,-0.02563,0.00763,-0.04318
3.7165,0.05661,-0.03998,0.01678,-0.00702,-0.0351,-0.0325,-0.01892,-0.01221,-0.02579,0.00351,0.01389,0.02563,-0.03479,-0.02197,0.00626,-0.04166
3.717,0.05661,-0.02975,0.02762,-0.0145,-0.03418,-0.03174,-0.01831,-0.01511,-0.01999,0.00839,-0.00137,0.009,-0.0322,-0.01648,0.00473,-0.04074
3.7175,0.05371,-0.01068,0.03433,-0.00839,-0.03387,-0.02914,-0.01709,-0.01465,-0.01114,0.0087,0.01297,0.00214,-0.03082,-0.01312,0.00504,-0.04059
3.718,0.03876,0.00046,0.03494,-0.00107,-0.03326,-0.02777,-0.01526,-0.01282,0.00031,0.01175,0.06226,0.01923,-0.03159,-0.01266,0.00626,-0.04105
3.7185,0.01144,-0.00168,0.02838,-0.00214,-0.03372,-0.03052,-0.01419,-0.0116,0.00961,0.01892,0.13397,0.03876,-0.03326,-0.0148,0.00549,-0.04288
3.719,-0.01541,-0.0061,0.01846,-0.01007,-0.03433,-0.03571,-0.01358,-0.01038,0.01144,0.02106,0.18906,0.03738,-0.03326,-0.01617,0.00687,-0.04288
3.7195,-0.02975,0.00305,0.01373,-0.0174,-0.0351,-0.04074,-0.01373,-0.00824,0.00168,0.00839,0.18402,0.0209,-0.03357,-0.01801,0.01022,-0.04318
3.72,-0.03906,0.02045,0.02106,-0.02197,-0.03647,-0.04471,-0.01419,-0.00626,-0.01358,-0.02014,0.11047,0.0116,-0.03235,-0.02075,0.01129,-0.04318
3.7205,-0.05661,0.03372,0.03494,-0.03174,-0.03677,-0.04822,-0.01404,-0.0058,-0.02838,-0.05035,0.009,0.02548,-0.03189,-0.02274,0.01038,-0.04379
3.721,-0.07965,0.03601,0.04272,-0.04745,-0.03616,-0.04898,-0.01465,-0.00717,-0.0383,-0.06668,-0.06821,0.06226,-0.03159,-0.02289,0.00916,-0.04318
3.7215,-0.09323,0.0296,0.03525,-0.04684,-0.03586,-0.04532,-0.01465,-0.00778,-0.04608,-0.06561,-0.09872,0.10925,-0.03281,-0.02167,0.00717,-0.04257
3.722,-0.09033,0.02274,0.0032,-0.01709,-0.03601,-0.04089,-0.01404,-0.00687,-0.05463,-0.05539,-0.09033,0.14572,-0.03433,-0.01984,0.00748,-0.04166
3.7225,-0.08316,0.02029,-0.05432,0.00336,-0.03662,-0.04181,-0.01297,-0.00458,-0.06073,-0.03769,-0.0647,0.15427,-0.03418,-0.01862,0.00885,-0.04257
3.723,-0.08377,0.02274,-0.11322,-0.02945,-0.03723,-0.04837,-0.01175,-0.00259,-0.06119,-0.01099,-0.0383,0.13687,-0.03342,-0.01709,0.00885,-0.04349
3.7235,-0.09384,0.02457,-0.13153,-0.08606,-0.03799,-0.05539,-0.01083,-0.00214,-0.0592,0.02197,-0.02518,0.11139,-0.03281,-0.01648,0.00839,-0.04242
3.724,-0.10559,0.0174,-0.08865,-0.08514,-0.03754,-0.05951,-0.0119,-0.00305,-0.05966,0.05264,-0.02777,0.08926,-0.03326,-0.0177,0.00778,-0.04105
3.7245,-0.11002,-0.00137,-0.00275,0.01755,-0.03586,-0.05875,-0.01312,-0.00473,-0.05707,0.07172,-0.04242,0.07462,-0.03448,-0.01785,0.00824,-0.04059
3.725,-0.09872,-0.02869,0.08514,0.17822,-0.03418,-0.05508,-0.01465,-0.00412,-0.04639,0.07126,-0.05875,0.07401,-0.0351,-0.0174,0.01144,-0.04089
3.7255,-0.0737,-0.05814,0.14359,0.29144,-0.03281,-0.05066,-0.01495,-0.00259,-0.03113,0.05081,-0.06989,0.08423,-0.03494,-0.01694,0.01343,-0.04135
3.726,-0.04471,-0.08255,0.15564,0.27985,-0.03281,-0.04745,-0.01541,-0.00183,-0.01648,0.01541,-0.06989,0.0798,-0.03342,-0.01633,0.01297,-0.04059
3.7265,-0.02243,-0.09644,0.1207,0.17883,-0.03204,-0.04562,-0.0145,-0.00168,-0.00839,-0.02045,-0.05737,0.04486,-0.03174,-0.01633,0.01144,-0.03983
3.727,-0.01205,-0.09949,0.0589,0.10101,-0.03052,-0.04456,-0.01404,-0.00229,-0.00458,-0.04486,-0.0415,0.00061,-0.03174,-0.01648,0.00854,-0.03937
3.7275,-0.01266,-0.09872,0.00198,0.10361,-0.02975,-0.04517,-0.01373,-0.0029,-0.00168,-0.05234,-0.03876,-0.01938,-0.03296,-0.01831,0.00946,-0.03937
3.728,-0.01892,-0.09995,-0.04471,0.13489,-0.02899,-0.04807,-0.0145,-0.00336,0.00153,-0.04929,-0.05203,-0.01587,-0.03281,-0.02029,0.01022,-0.03998
3.7285,-0.02258,-0.09644,-0.09323,0.1181,-0.0296,-0.05249,-0.01465,-0.00381,0.00122,-0.04471,-0.06851,-0.01465,-0.03174,-0.02182,0.00885,-0.0412
3.729,-0.01877,-0.08392,-0.14847,0.05478,-0.03098,-0.05814,-0.01495,-0.00443,-0.00443,-0.03815,-0.07492,-0.02853,-0.03036,-0.02319,0.00534,-0.04196
3.7295,-0.01114,-0.06195,-0.18356,0.00031,-0.03128,-0.06607,-0.0148,-0.00443,-0.01205,-0.0293,-0.06592,-0.04272,-0.02884,-0.02228,0.00519,-0.04135
3.73,-0.00778,-0.0386,-0.17578,-0.02396,-0.02975,-0.07187,-0.01511,-0.00305,-0.01663,-0.01984,-0.04913,-0.0441,-0.02838,-0.01801,0.00778,-0.03922
3.7305,-0.00854,-0.02762,-0.13412,-0.04349,-0.02884,-0.07202,-0.01495,-0.00107,-0.02014,-0.0119,-0.03296,-0.03738,-0.02792,-0.01495,0.01007,-0.03845
3.731,-0.0032,-0.03494,-0.07965,-0.0737,-0.02869,-0.06271,-0.01297,0.00107,-0.02213,-0.01022,-0.01938,-0.03311,-0.02823,-0.01495,0.01053,-0.03906
3.7315,0.01038,-0.0499,-0.02579,-0.09796,-0.02914,-0.05096,-0.01144,0.00122,-0.01846,-0.02121,-0.00549,-0.03693,-0.02869,-0.0174,0.00885,-0.03998
3.732,0.02304,-0.05783,0.01663,-0.0975,-0.03021,-0.04303,-0.0116,0.00107,-0.01007,-0.04684,0.01465,-0.0563,-0.02701,-0.01862,0.00656,-0.04044
3.7325,0.02594,-0.05676,0.03693,-0.08133,-0.03036,-0.03815,-0.01221,0.00122,-0.0058,-0.07446,0.03983,-0.11063,-0.02625,-0.01892,0.00504,-0.04089
3.733,0.01984,-0.06058,0.03159,-0.07172,-0.02838,-0.03525,-0.01236,0.00076,-0.00992,-0.09171,0.07156,-0.19821,-0.02655,-0.01816,0.00443,-0.0415
3.7335,0.01205,-0.07523,0.0116,-0.07217,-0.02686,-0.03296,-0.0116,-0.00061,-0.01587,-0.09323,0.11765,-0.29022,-0.02853,-0.01877,0.00488,-0.04196
3.734,0.009,-0.09216,-0.01556,-0.06714,-0.0264,-0.02991,-0.0119,-0.00198,-0.01572,-0.08591,0.16312,-0.34897,-0.03036,-0.02106,0.00626,-0.04135
3.7345,0.01053,-0.10178,-0.04837,-0.05402,-0.0293,-0.02563,-0.01266,-0.00153,-0.01175,-0.07751,0.15869,-0.34943,-0.0322,-0.02335,0.00748,-0.04074
3.735,0.0119,-0.10544,-0.08209,-0.05508,-0.03143,-0.01907,-0.01389,-0.00061,-0.00992,-0.06683,0.0766,-0.28778,-0.0325,-0.0238,0.00778,-0.04181
3.7355,0.0029,-0.11093,-0.10666,-0.08179,-0.03281,-0.01648,-0.0148,0.00015,-0.01221,-0.05188,-0.05051,-0.18127,-0.03143,-0.02274,0.00778,-0.04242
3.736,-0.01633,-0.12253,-0.11887,-0.11719,-0.03387,-0.01968,-0.0148,0.00107,-0.01572,-0.03662,-0.15671,-0.05981,-0.03113,-0.02106,0.0087,-0.04257
3.7365,-0.03204,-0.14114,-0.1178,-0.13565,-0.03494,-0.02609,-0.01465,0.00015,-0.01846,-0.02441,-0.20279,0.04669,-0.03006,-0.01984,0.01022,-0.04288
3.737,-0.03067,-0.15549,-0.10986,-0.12405,-0.03494,-0.03479,-0.01511,-0.00214,-0.01678,-0.01511,-0.19318,0.11887,-0.02899,-0.02045,0.01175,-0.04547
3.7375,-0.01358,-0.15488,-0.09964,-0.08636,-0.03616,-0.04623,-0.01526,-0.00336,-0.01022,-0.0061,-0.14938,0.16266,-0.02838,-0.02167,0.01099,-0.04684
3.738,0.00626,-0.14236,-0.09369,-0.03586,-0.03906,-0.06317,-0.01495,-0.00244,-0.00504,-0.00137,-0.09521,0.20081,-0.02884,-0.02258,0.00977,-0.04654
3.7385,0.02197,-0.13229,-0.08789,0.01434,-0.04181,-0.08331,-0.01511,-0.00076,-0.00824,-0.0058,-0.05157,0.22842,-0.03082,-0.02289,0.00793,-0.04517
3.739,0.03265,-0.12878,-0.07843,0.0618,-0.0412,-0.10117,-0.01328,0.00015,-0.01968,-0.02228,-0.02853,0.22888,-0.03265,-0.02243,0.0058,-0.04425
3.7395,0.03815,-0.12009,-0.06088,0.09735,-0.03738,-0.10818,-0.01129,-0.00031,-0.02762,-0.0441,-0.02213,0.20264,-0.03311,-0.02121,0.00565,-0.0444
3.74,0.0383,-0.09766,-0.04288,0.09476,-0.03265,-0.10162,-0.0087,0.00046,-0.02167,-0.06165,-0.02502,0.15915,-0.03174,-0.01938,0.00656,-0.04547
3.7405,0.03586,-0.06989,-0.02838,0.03311,-0.03082,-0.08896,-0.00885,0.00061,-0.00656,-0.07294,-0.03326,0.10117,-0.03143,-0.01724,0.0058,-0.04593
3.741,0.03677,-0.04639,-0.02136,-0.05768,-0.03204,-0.07767,-0.0116,0.00153,0.00229,-0.07782,-0.04242,0.0444,-0.03174,-0.01465,0.00427,-0.04517
3.7415,0.04059,-0.02411,-0.01068,-0.112,-0.03296,-0.0679,-0.01404,0.00061,-0.00412,-0.07538,-0.04303,0.01694,-0.03326,-0.01297,0.00458,-0.04364
3.742,0.0441,0.00336,0.01022,-0.1033,-0.03326,-0.05844,-0.01373,-0.00107,-0.01953,-0.06287,-0.01831,0.02335,-0.03448,-0.01282,0.00504,-0.04227
3.7425,0.04578,0.02975,0.0386,-0.07874,-0.03174,-0.04959,-0.01297,-0.00244,-0.03067,-0.04181,0.03616,0.03708,-0.03525,-0.01389,0.00656,-0.04242
3.743,0.04776,0.04288,0.0563,-0.10056,-0.03128,-0.04333,-0.01251,-0.00107,-0.03357,-0.02167,0.10376,0.03647,-0.03479,-0.01373,0.00778,-0.04227
3.7435,0.04913,0.04272,0.04974,-0.17319,-0.03281,-0.04196,-0.01358,-0.00015,-0.03586,-0.0087,0.1474,0.02502,-0.03372,-0.01328,0.00946,-0.0412
3.744,0.05264,0.03952,0.02777,-0.24536,-0.03372,-0.04135,-0.01419,-0.00137,-0.04257,-0.00214,0.14145,0.01221,-0.03311,-0.0119,0.00992,-0.0412
3.7445,0.05615,0.03983,0.00977,-0.26276,-0.03387,-0.04166,-0.01358,-0.00275,-0.0531,0.00244,0.09491,0.0,-0.0322,-0.01114,0.00793,-0.04227
3.745,0.05615,0.04211,0.0029,-0.20432,-0.03265,-0.04318,-0.01144,-0.00412,-0.05981,0.0061,0.02869,-0.01007,-0.03204,-0.01251,0.00595,-0.04272
3.7455,0.05112,0.0412,-0.00092,-0.07858,-0.03128,-0.04517,-0.01144,-0.00336,-0.05081,0.00412,-0.0386,-0.01343,-0.03235,-0.0145,0.00656,-0.04272
3.746,0.04135,0.03784,-0.00839,0.08331,-0.03143,-0.04807,-0.0116,-0.00214,-0.02426,-0.00458,-0.09506,-0.00992,-0.03189,-0.01572,0.00854,-0.04257
3.7465,0.03128,0.03632,-0.02167,0.22034,-0.0322,-0.04745,-0.01053,-0.00183,0.00473,-0.01877,-0.13046,-0.00626,-0.0322,-0.01572,0.00931,-0.04242
3.747,0.02258,0.03616,-0.03174,0.27023,-0.03143,-0.04471,-0.01007,-0.00107,0.01602,-0.03525,-0.14038,-0.00565,-0.03204,-0.01556,0.00809,-0.04211
3.7475,0.01144,0.03616,-0.0383,0.22339,-0.0325,-0.04028,-0.0116,-0.00168,0.01022,-0.0502,-0.11795,-0.00656,-0.03418,-0.01617,0.00565,-0.04318
3.748,-0.00214,0.03693,-0.04166,0.14175,-0.03326,-0.03571,-0.01328,-0.00183,0.00244,-0.05844,-0.0647,-0.00488,-0.03555,-0.0174,0.00565,-0.04501
3.7485,-0.01663,0.04028,-0.04318,0.08911,-0.03403,-0.03082,-0.01434,-0.00214,0.0029,-0.05722,-0.00107,0.00137,-0.03525,-0.01877,0.0087,-0.04547
3.749,-0.02716,0.0444,-0.04211,0.07294,-0.03433,-0.02777,-0.01343,-0.00183,0.01083,-0.04471,0.03204,0.00916,-0.03433,-0.02014,0.01083,-0.04364
3.7495,-0.0325,0.04456,-0.04028,0.06088,-0.03372,-0.02777,-0.01083,-0.00153,0.02045,-0.02762,0.01038,0.0116,-0.03525,-0.02045,0.01328,-0.04135
3.75,-0.03769,0.04013,-0.04227,0.03738,-0.03082,-0.02502,-0.01038,-0.00214,0.02579,-0.01068,-0.03738,0.0029,-0.03555,-0.01938,0.01373,-0.03952
3.7505,-0.04501,0.03265,-0.05325,0.01587,-0.0293,-0.02121,-0.01175,-0.00412,0.02151,0.00992,-0.0676,-0.01694,-0.03525,-0.01816,0.01328,-0.04044
3.751,-0.05417,0.02167,-0.06744,0.00717,-0.02808,-0.01831,-0.01373,-0.00626,0.00824,0.03494,-0.06668,-0.04669,-0.03418,-0.01801,0.01343,-0.04272
3.7515,-0.05783,-0.00443,-0.07202,0.00839,-0.03021,-0.01816,-0.0145,-0.00732,-0.0061,0.06592,-0.04578,-0.08408,-0.03265,-0.01801,0.01282,-0.04318
3.752,-0.05234,-0.04791,-0.05798,0.01343,-0.03159,-0.01785,-0.01434,-0.00732,-0.01282,0.09064,-0.01724,-0.12192,-0.03174,-0.0174,0.01144,-0.04196
3.7525,-0.04181,-0.08759,-0.02792,0.01785,-0.03296,-0.01434,-0.0148,-0.00626,-0.01053,0.10483,0.0206,-0.14313,-0.03098,-0.01602,0.00885,-0.0412
3.753,-0.03281,-0.09796,-0.00122,0.01984,-0.03418,-0.00977,-0.01541,-0.00626,-0.00626,0.10651,0.06958,-0.13,-0.03021,-0.01511,0.00717,-0.03998
3.7535,-0.02655,-0.08621,0.00763,0.02106,-0.03357,-0.00946,-0.01556,-0.00549,-0.00717,0.09308,0.11261,-0.07935,-0.02975,-0.01511,0.00748,-0.03983
3.754,-0.01541,-0.0795,-0.00397,0.02075,-0.03464,-0.01648,-0.01495,-0.00412,-0.0148,0.06104,0.11581,-0.009,-0.03036,-0.01801,0.00961,-0.04028
3.7545,0.00168,-0.08118,-0.03021,0.01663,-0.03723,-0.03143,-0.01419,-0.0032,-0.02747,0.0177,0.06531,0.0499,-0.03128,-0.02182,0.00977,-0.0412
3.755,0.01923,-0.06561,-0.06393,0.00778,-0.03937,-0.05127,-0.01434,-0.00351,-0.03815,-0.01877,-0.00748,0.07065,-0.03357,-0.02533,0.00824,-0.04181
3.7555,0.03113,-0.02167,-0.1004,-0.00214,-0.04059,-0.07034,-0.0148,-0.00244,-0.03815,-0.03098,-0.04562,0.06165,-0.03555,-0.0264,0.00702,-0.04105
3.756,0.03708,0.02228,-0.13306,-0.00824,-0.04059,-0.08499,-0.01419,-0.00122,-0.02625,-0.02121,-0.01938,0.0528,-0.0354,-0.02487,0.00717,-0.03891
3.7565,0.0415,0.03326,-0.16006,-0.01083,-0.04135,-0.09293,-0.01434,0.00046,-0.01175,-0.00259,0.03754,0.05264,-0.03281,-0.02289,0.00763,-0.03708
3.757,0.047,0.0145,-0.1889,-0.01328,-0.04044,-0.09445,-0.01434,0.00168,-0.00778,0.01663,0.06607,0.04883,-0.02991,-0.02075,0.00534,-0.03891
3.7575,0.05081,-0.00488,-0.22919,-0.0148,-0.03922,-0.09094,-0.01511,0.00107,-0.0119,0.02762,0.04532,0.03128,-0.0293,-0.01938,0.00443,-0.04135
3.758,0.05219,-0.00885,-0.28275,-0.01343,-0.03815,-0.08423,-0.01648,-0.00046,-0.01663,0.02213,-0.0029,0.01068,-0.02899,-0.01816,0.00641,-0.04166
3.7585,0.04868,-0.0032,-0.33783,-0.01236,-0.03799,-0.07736,-0.0177,-0.00153,-0.01419,-0.00565,-0.047,-0.00458,-0.02899,-0.01801,0.01129,-0.04105
3.759,0.04318,0.00015,-0.35355,-0.01373,-0.03922,-0.07233,-0.01709,-0.00183,-0.00412,-0.05524,-0.0705,-0.01221,-0.02823,-0.02014,0.01312,-0.03998
3.7595,0.0383,-0.00595,-0.27802,-0.01801,-0.0386,-0.07034,-0.01419,-0.00198,0.00916,-0.11002,-0.07156,-0.0145,-0.02838,-0.02335,0.01282,-0.03998
3.76,0.03983,-0.02304,-0.11765,-0.02106,-0.03693,-0.07202,-0.01144,-0.00214,0.01709,-0.14877,-0.05661,-0.01328,-0.02899,-0.02472,0.01099,-0.04013
3.7605,0.04837,-0.04623,0.04272,-0.02258,-0.03647,-0.07538,-0.01114,-0.00305,0.01144,-0.16403,-0.03799,-0.01282,-0.03067,-0.02411,0.01053,-0.04013
3.761,0.06104,-0.0676,0.12558,-0.02426,-0.03693,-0.07751,-0.0116,-0.00397,-0.00229,-0.16159,-0.02869,-0.01617,-0.03174,-0.02319,0.01083,-0.0415
3.7615,0.07126,-0.08301,0.13016,-0.0267,-0.03693,-0.07416,-0.01221,-0.00351,-0.01495,-0.14633,-0.03479,-0.02075,-0.03418,-0.02258,0.01144,-0.04242
3.762,0.07416,-0.09644,0.11383,-0.02792,-0.03647,-0.06622,-0.01114,-0.00229,-0.01938,-0.12314,-0.0589,-0.01923,-0.03632,-0.0235,0.01068,-0.04196
3.7625,0.0679,-0.10727,0.12756,-0.02899,-0.03616,-0.05722,-0.01068,-0.00229,-0.01923,-0.09506,-0.09064,-0.01205,-0.03876,-0.02365,0.01068,-0.0412
3.763,0.05417,-0.11261,0.18021,-0.02823,-0.03433,-0.05051,-0.01114,-0.00259,-0.01694,-0.06927,-0.11734,-0.00549,-0.03967,-0.02274,0.01038,-0.04105
3.7635,0.03601,-0.11063,0.25024,-0.02747,-0.03128,-0.04654,-0.01251,-0.00183,-0.01343,-0.04868,-0.12955,-0.00275,-0.04074,-0.02228,0.00946,-0.04257
3.764,0.01511,-0.1059,0.30502,-0.02518,-0.0293,-0.04501,-0.01251,-0.00061,-0.009,-0.02731,-0.12695,-0.00076,-0.04135,-0.0209,0.00885,-0.04288
3.7645,-0.00656,-0.10361,0.32608,-0.0235,-0.02808,-0.04456,-0.0119,0.00061,-0.00656,-0.0032,-0.10818,0.00244,-0.04044,-0.01968,0.00885,-0.04181
3.765,-0.0235,-0.09995,0.3038,-0.02808,-0.02716,-0.0444,-0.0119,0.00275,-0.00519,0.01846,-0.07339,0.00763,-0.03693,-0.01678,0.00854,-0.03998
3.7655,-0.02548,-0.09003,0.24597,-0.03983,-0.02563,-0.04333,-0.0119,0.00336,-0.00717,0.02792,-0.0264,0.01266,-0.03235,-0.01282,0.00885,-0.03922
3.766,-0.00809,-0.07828,0.16861,-0.05096,-0.02411,-0.04318,-0.0116,0.0032,-0.0119,0.0235,0.01892,0.01312,-0.03036,-0.01114,0.00748,-0.03937
3.7665,0.01938,-0.07751,0.08682,-0.05402,-0.0235,-0.04272,-0.01068,0.00244,-0.01755,0.01007,0.04349,0.009,-0.03006,-0.0116,0.00809,-0.04013
3.767,0.03601,-0.09232,0.00504,-0.04776,-0.02396,-0.0412,-0.01068,0.00168,-0.01968,-0.00275,0.03952,0.00153,-0.03067,-0.01236,0.0087,-0.04181
3.7675,0.03494,-0.11078,-0.07538,-0.03006,-0.02258,-0.0386,-0.01129,0.00183,-0.01602,-0.01312,0.0209,-0.00839,-0.02945,-0.01358,0.00809,-0.04242
3.768,0.02701,-0.1181,-0.13611,-0.00397,-0.01923,-0.03525,-0.01068,0.00275,-0.00854,-0.0209,0.00214,-0.01816,-0.02884,-0.01678,0.00809,-0.04288
3.7685,0.02548,-0.11078,-0.15869,0.0177,-0.0177,-0.03067,-0.01038,0.0032,-0.00305,-0.02411,-0.01144,-0.02182,-0.03006,-0.02014,0.00885,-0.04227
3.769,0.0322,-0.10376,-0.14404,0.01648,-0.01953,-0.02625,-0.00977,0.00137,-0.00153,-0.01862,-0.01785,-0.01968,-0.03128,-0.02167,0.00854,-0.04196
3.7695,0.04074,-0.10971,-0.11078,-0.0032,-0.02243,-0.02441,-0.00885,-0.00137,-0.00122,-0.00732,-0.01694,-0.01404,-0.03128,-0.01953,0.00809,-0.04074
3.77,0.04501,-0.11917,-0.0769,-0.0177,-0.02533,-0.02563,-0.00931,-0.00443,0.00229,0.0029,-0.00839,-0.00809,-0.03098,-0.01877,0.00839,-0.04089
3.7705,0.04639,-0.11215,-0.05859,-0.01419,-0.02502,-0.02991,-0.01144,-0.00778,0.00793,0.01022,-0.00412,-0.00168,-0.03143,-0.01892,0.00961,-0.03952
3.771,0.0444,-0.07553,-0.07294,-0.00443,-0.02472,-0.03555,-0.01511,-0.01129,0.01251,0.01373,-0.01526,0.0029,-0.03143,-0.01968,0.01083,-0.03784
3.7715,0.03937,-0.01785,-0.11551,-0.00275,-0.02441,-0.03937,-0.01846,-0.0119,0.01251,0.01572,-0.03891,0.00427,-0.03311,-0.02029,0.00854,-0.03632
3.772,0.03128,0.03555,-0.15564,-0.00763,-0.02472,-0.04028,-0.01999,-0.01053,0.00626,0.01541,-0.05814,0.00351,-0.0354,-0.02045,0.00595,-0.03723
3.7725,0.02457,0.06241,-0.17624,-0.01251,-0.02487,-0.03937,-0.01801,-0.00854,-0.00381,0.0174,-0.06439,0.00549,-0.03616,-0.0206,0.00549,-0.04013
3.773,0.02365,0.06561,-0.19257,-0.01419,-0.02411,-0.03906,-0.01404,-0.00687,-0.01602,0.02228,-0.06393,0.01114,-0.03632,-0.02075,0.00793,-0.04211
3.7735,0.02686,0.05875,-0.22095,-0.01572,-0.02365,-0.03769,-0.0119,-0.00687,-0.02991,0.02838,-0.06729,0.01709,-0.03616,-0.0206,0.00946,-0.04166
3.774,0.02655,0.05508,-0.2504,-0.01633,-0.02289,-0.03586,-0.01282,-0.00778,-0.04486,0.03021,-0.07431,0.01724,-0.03708,-0.02167,0.00916,-0.03998
3.7745,0.02075,0.05402,-0.242,-0.01602,-0.02365,-0.03433,-0.01648,-0.00748,-0.05875,0.02441,-0.07843,0.01068,-0.03784,-0.0235,0.00824,-0.03967
