time,RectFemL,VastusMedL,VastusLatL,TibAntL,HamMedL,HamLatL,GastroMedL,GastroLatL,RectFemR,VastusMedR,VastusLatR,TibAntR,HamMedR,HamLatR,GastroMedR,GastroLatR
8.52,0.00015,-0.07141,-0.03372,-0.01297,-0.02472,-0.05447,-0.05768,-0.01602,-1.16989,-0.04196,0.01389,-0.06546,-0.06058,-0.00748,-0.00732,-0.04898
8.5205,-0.00046,-0.07584,-0.02853,-0.0145,-0.02518,-0.05676,-0.06653,-0.03143,-1.17645,-0.04395,0.01022,-0.08377,-0.0592,-0.0058,-0.01297,-0.04898
8.521,-0.00153,-0.06943,-0.02884,-0.01633,-0.02594,-0.05524,-0.06882,-0.05234,-1.17355,-0.04333,0.00824,-0.08621,-0.05707,-0.00458,-0.01419,-0.04791
8.5215,-0.00153,-0.06149,-0.03113,-0.01801,-0.02869,-0.05508,-0.05112,-0.07446,-1.16638,-0.0412,0.00641,-0.07843,-0.05341,-0.00183,-0.01602,-0.04654
8.522,-0.00122,-0.06058,-0.03464,-0.01892,-0.03525,-0.05417,-0.00992,-0.09521,-1.15295,-0.03647,0.00275,-0.05844,-0.04929,0.0032,-0.01999,-0.04608
8.5225,-0.00061,-0.06531,-0.03662,-0.01862,-0.04486,-0.05356,0.03891,-0.09506,-1.13327,-0.03067,-0.00046,-0.02548,-0.04272,0.00732,-0.0209,-0.04593
8.523,-0.00107,-0.06516,-0.03555,-0.01663,-0.05219,-0.05341,0.05859,-0.0528,-1.11298,-0.02243,-0.00168,0.00626,-0.03342,0.00641,-0.0206,-0.04471
8.5235,-0.00107,-0.056,-0.03571,-0.01297,-0.05539,-0.05081,0.03494,0.01862,-1.09283,-0.01511,-0.00061,0.02029,-0.02289,-0.00015,-0.02563,-0.04471
8.524,-0.00076,-0.04257,-0.03922,-0.0087,-0.05417,-0.04807,0.00214,0.07355,-1.07071,-0.01022,0.00168,0.0177,-0.01556,-0.00763,-0.04028,-0.04425
8.5245,0.0032,-0.03113,-0.04211,-0.00656,-0.05142,-0.04456,0.0032,0.07477,-1.04767,-0.00778,0.00229,0.01572,-0.01343,-0.01511,-0.06393,-0.04364
8.525,0.00839,-0.02258,-0.05112,-0.00748,-0.04852,-0.04547,0.02594,0.0383,-1.02524,-0.00641,0.00122,0.03021,-0.01587,-0.02563,-0.09537,-0.04196
8.5255,0.01282,-0.01343,-0.0708,-0.00977,-0.04486,-0.04486,0.0206,0.00931,-1.00189,-0.00351,-0.00046,0.0528,-0.01923,-0.0383,-0.12787,-0.03922
8.526,0.01587,-0.00275,-0.10544,-0.0119,-0.04044,-0.04425,-0.02304,0.01419,-0.97549,0.0,-0.00214,0.0592,-0.02136,-0.04974,-0.17563,-0.03296
8.5265,0.01495,0.00595,-0.14008,-0.01343,-0.03555,-0.04486,-0.06577,0.04013,-0.94391,0.00397,-0.00443,0.04105,-0.01984,-0.05569,-0.23773,-0.02472
8.527,0.01144,0.01007,-0.1564,-0.01312,-0.03159,-0.04349,-0.06851,0.05463,-0.91171,0.00809,-0.00504,0.01877,-0.01633,-0.05432,-0.28992,-0.01816
8.5275,0.00214,0.01251,-0.1503,-0.01312,-0.02899,-0.04059,-0.03235,0.03616,-0.88257,0.01358,-0.00305,0.01541,-0.01068,-0.0473,-0.30014,-0.01663
8.528,-0.00732,0.01617,-0.13062,-0.01465,-0.02808,-0.0412,0.01663,-0.00336,-0.8551,0.01663,0.00015,0.02457,-0.0058,-0.03845,-0.24612,-0.01953
8.5285,-0.01328,0.02167,-0.0943,-0.01709,-0.02853,-0.04211,0.04196,-0.03845,-0.82657,0.01389,0.00183,0.02045,-0.00351,-0.03281,-0.14206,-0.02319
8.529,-0.01312,0.0238,-0.03799,-0.0177,-0.02899,-0.04593,0.02487,-0.05402,-0.7933,0.00458,0.00168,-0.00336,-0.00534,-0.03067,-0.065,-0.02625
8.5295,-0.00916,0.01831,0.03082,-0.01572,-0.02884,-0.04791,-0.01587,-0.056,-0.75699,-0.01068,0.00061,-0.02747,-0.00809,-0.02991,-0.08148,-0.03067
8.53,-0.00717,0.00702,0.09811,-0.01221,-0.02869,-0.04883,-0.03738,-0.06683,-0.7222,-0.0264,-0.00183,-0.02625,-0.00824,-0.03021,-0.15518,-0.03632
8.5305,-0.00763,-0.00519,0.15411,-0.01022,-0.02884,-0.04913,-0.02747,-0.10132,-0.69275,-0.04318,-0.00549,0.00092,-0.00778,-0.03357,-0.19897,-0.04501
8.531,-0.01007,-0.01511,0.18326,-0.00992,-0.02884,-0.04791,-0.00992,-0.14435,-0.66849,-0.05508,-0.00916,0.02975,-0.01022,-0.03662,-0.2005,-0.05447
8.5315,-0.01144,-0.02228,0.17807,-0.01099,-0.02808,-0.04486,-0.00916,-0.15686,-0.64865,-0.06134,-0.01129,0.03662,-0.01511,-0.03616,-0.19852,-0.0621
8.532,-0.01251,-0.02914,0.14359,-0.01328,-0.02869,-0.04684,-0.02319,-0.11398,-0.62378,-0.06317,-0.01205,0.02594,-0.02045,-0.03189,-0.17685,-0.06607
8.5325,-0.01389,-0.03693,0.0853,-0.01556,-0.02899,-0.04639,-0.0351,-0.0238,-0.59006,-0.05997,-0.00992,0.01877,-0.02762,-0.02777,-0.10345,-0.06638
8.533,-0.01511,-0.04288,0.01938,-0.01541,-0.0296,-0.04608,-0.03265,0.07568,-0.55695,-0.05325,-0.00946,0.0293,-0.03693,-0.02518,0.02716,-0.06577
8.5335,-0.01434,-0.04684,-0.03113,-0.01358,-0.02945,-0.04593,-0.0177,0.13687,-0.53131,-0.04395,-0.01175,0.05035,-0.047,-0.02502,0.18692,-0.06439
8.534,-0.0119,-0.05234,-0.06073,-0.0116,-0.02869,-0.04883,-0.00504,0.12436,-0.5011,-0.03479,-0.01572,0.06607,-0.05585,-0.02396,0.36194,-0.06165
8.5345,-0.00854,-0.06042,-0.07095,-0.00946,-0.02777,-0.0502,-0.00244,0.05264,-0.46204,-0.0293,-0.01678,0.06561,-0.05997,-0.02213,0.49835,-0.05844
8.535,-0.00534,-0.07172,-0.07431,-0.00687,-0.02823,-0.05188,-0.00443,-0.02121,-0.42236,-0.02853,-0.0116,0.04745,-0.0618,-0.0206,0.48187,-0.05676
8.5355,-0.00336,-0.08408,-0.07523,-0.00504,-0.02838,-0.05234,-0.00122,-0.04868,-0.38193,-0.03128,-0.00748,0.01801,-0.06195,-0.02289,0.2977,-0.05676
8.536,-0.00107,-0.09048,-0.06973,-0.00519,-0.02838,-0.04822,0.00519,-0.03204,-0.33646,-0.03387,-0.01389,-0.01236,-0.06134,-0.02502,0.09888,-0.05661
8.5365,0.00076,-0.0856,-0.05936,-0.00687,-0.02914,-0.05005,0.00671,-0.00366,-0.28336,-0.03311,-0.0267,-0.0293,-0.06027,-0.02716,0.03418,-0.0531
8.537,0.00168,-0.07339,-0.0441,-0.0087,-0.0296,-0.04791,-0.00305,0.01038,-0.21622,-0.02823,-0.02548,-0.02975,-0.05875,-0.02899,0.07996,-0.04822
8.5375,0.00183,-0.06165,-0.02991,-0.00931,-0.02884,-0.04868,-0.02289,0.00427,-0.13641,-0.02045,-0.00061,-0.02289,-0.05768,-0.03036,0.14984,-0.0441
8.538,0.0,-0.05676,-0.0206,-0.00931,-0.02823,-0.04852,-0.04211,-0.0148,-0.05936,-0.0119,0.02701,-0.02258,-0.05463,-0.02823,0.22263,-0.0415
8.5385,-0.00153,-0.05676,-0.01465,-0.00854,-0.02731,-0.04913,-0.05219,-0.03265,0.00809,-0.00443,0.0296,-0.0322,-0.05051,-0.02182,0.298,-0.03983
8.539,-0.00214,-0.05737,-0.0119,-0.00809,-0.02716,-0.04807,-0.05005,-0.03464,0.07736,-0.00061,0.00839,-0.04181,-0.04669,-0.01556,0.30396,-0.03845
8.5395,-0.00061,-0.05493,-0.01129,-0.00671,-0.0264,-0.04669,-0.03723,-0.01678,0.1561,0.00534,-0.01694,-0.03967,-0.04379,-0.01114,0.21622,-0.03586
8.54,0.00259,-0.05142,-0.0148,-0.00504,-0.0235,-0.04578,-0.02457,0.00748,0.24063,0.01389,-0.0354,-0.02701,-0.04181,-0.00824,0.12634,-0.03281
8.5405,0.00305,-0.04822,-0.02472,-0.00381,-0.02136,-0.04318,-0.02136,0.02625,0.32227,0.02258,-0.056,-0.00336,-0.03967,-0.00504,0.1297,-0.03143
8.541,-0.00137,-0.04669,-0.04364,-0.00488,-0.02197,-0.04211,-0.01877,0.03326,0.40024,0.02289,-0.08499,0.02823,-0.0383,-0.00214,0.17929,-0.03281
8.5415,-0.00626,-0.04608,-0.06592,-0.00671,-0.0235,-0.0415,-0.0058,0.0264,0.47424,0.00977,-0.11185,0.05341,-0.03693,-0.00244,0.16907,-0.03555
8.542,-0.00458,-0.04349,-0.08331,-0.00824,-0.02426,-0.04272,0.00809,0.00992,0.54474,-0.00671,-0.12329,0.05157,-0.03662,-0.00565,0.09659,-0.0383
8.5425,0.00275,-0.03693,-0.08667,-0.00946,-0.02472,-0.0441,0.00687,-0.00488,0.61356,-0.0206,-0.11841,0.01892,-0.03616,-0.0087,0.05783,-0.03799
8.543,0.00854,-0.03082,-0.0769,-0.00916,-0.02441,-0.04272,-0.0061,-0.00916,0.68024,-0.02701,-0.10178,-0.02182,-0.03342,-0.01038,0.09369,-0.03433
8.5435,0.00824,-0.02945,-0.05905,-0.00931,-0.02655,-0.04395,-0.01556,-0.00702,0.74677,-0.02838,-0.08255,-0.04776,-0.02808,-0.01068,0.13458,-0.02975
8.544,0.00626,-0.03586,-0.03571,-0.00977,-0.02914,-0.04074,-0.0148,-0.00565,0.81299,-0.0267,-0.06409,-0.05585,-0.02151,-0.01175,0.11414,-0.02686
8.5445,0.0058,-0.05157,-0.00793,-0.00885,-0.03189,-0.04257,-0.01114,-0.00732,0.87662,-0.02563,-0.05112,-0.04913,-0.01526,-0.01266,0.05737,-0.02899
8.545,0.00412,-0.07294,0.01495,-0.00732,-0.03448,-0.04349,-0.01007,-0.00641,0.93765,-0.02335,-0.04242,-0.02655,-0.0116,-0.01358,0.02213,-0.03235
8.5455,0.00061,-0.08698,0.0177,-0.00702,-0.03983,-0.04669,-0.01038,-0.0029,1.00372,-0.01724,-0.03494,0.00488,-0.0116,-0.01343,0.02167,-0.03555
8.546,-0.0029,-0.08423,-0.00412,-0.00839,-0.04623,-0.04654,-0.00854,-0.00168,1.07895,-0.00717,-0.02625,0.01968,-0.01434,-0.01266,0.02365,-0.03632
8.5465,-0.00443,-0.06989,-0.03265,-0.00992,-0.04913,-0.04852,-0.00687,-0.0061,1.15021,0.00107,-0.01724,0.00381,-0.01831,-0.01083,0.01022,-0.03738
8.547,-0.00412,-0.05768,-0.0473,-0.01007,-0.0499,-0.0499,-0.00595,-0.01297,1.20621,0.0029,-0.01221,-0.02823,-0.0209,-0.00977,-0.00656,-0.03922
8.5475,-0.00519,-0.05402,-0.04501,-0.009,-0.0499,-0.05264,-0.00687,-0.0206,1.25549,-0.00366,-0.01205,-0.05371,-0.02487,-0.00946,-0.01404,-0.04089
8.548,-0.00748,-0.05539,-0.04318,-0.00854,-0.04929,-0.05142,-0.00839,-0.03403,1.30203,-0.01633,-0.01389,-0.0647,-0.02792,-0.01038,-0.01465,-0.04166
8.5485,-0.01022,-0.056,-0.05524,-0.00916,-0.04791,-0.05341,-0.0116,-0.05615,1.34201,-0.02945,-0.01312,-0.06653,-0.03143,-0.01038,-0.01602,-0.0415
8.549,-0.01328,-0.05554,-0.07553,-0.00961,-0.04517,-0.05524,-0.01511,-0.07523,1.37512,-0.03586,-0.01114,-0.06226,-0.03586,-0.00854,-0.02197,-0.04303
8.5495,-0.01572,-0.05203,-0.09491,-0.009,-0.04166,-0.05844,-0.01801,-0.07401,1.40305,-0.03021,-0.00687,-0.04868,-0.03845,-0.00458,-0.02716,-0.04211
8.55,-0.01831,-0.04196,-0.11154,-0.00717,-0.03952,-0.05463,-0.02045,-0.05768,1.42685,-0.01724,-0.00122,-0.03235,-0.0386,-0.00076,-0.03159,-0.04059
8.5505,-0.01984,-0.0293,-0.12421,-0.00549,-0.03616,-0.05341,-0.0264,-0.04166,1.45462,-0.00397,0.0058,-0.01724,-0.03342,0.00046,-0.0351,-0.04105
8.551,-0.02167,-0.02075,-0.121,-0.00504,-0.03036,-0.05173,-0.04227,-0.01785,1.48987,0.00427,0.01144,0.00748,-0.02594,-0.00137,-0.03983,-0.04349
8.5515,-0.02151,-0.01953,-0.09552,-0.00626,-0.02319,-0.0528,-0.06699,0.047,1.51932,0.00748,0.01297,0.05203,-0.01862,-0.00443,-0.04456,-0.04578
8.552,-0.01999,-0.02426,-0.0473,-0.00809,-0.01617,-0.05478,-0.08087,0.14832,1.52847,0.00488,0.01297,0.08575,-0.01511,-0.00565,-0.04715,-0.04562
8.5525,-0.01709,-0.0267,0.00732,-0.01068,-0.01083,-0.05402,-0.05859,0.2153,1.51886,-0.00443,0.01389,0.06699,-0.01312,-0.00336,-0.05081,-0.04364
8.553,-0.01328,-0.02411,0.0528,-0.01175,-0.00687,-0.05051,0.00198,0.18387,1.50253,-0.01266,0.01328,0.01495,-0.01205,0.00061,-0.06058,-0.04166
8.5535,-0.00961,-0.01846,0.08194,-0.01129,-0.00504,-0.04959,0.05981,0.08331,1.48788,-0.0148,0.00717,-0.01053,-0.01053,0.00198,-0.08087,-0.03922
8.554,-0.0061,-0.0119,0.09476,-0.01114,-0.00595,-0.04745,0.06866,0.00183,1.47522,-0.01358,-0.00229,0.00854,-0.01114,0.00046,-0.10712,-0.03586
8.5545,-0.00458,-0.00427,0.0946,-0.01053,-0.00854,-0.04593,0.02975,-0.01617,1.46393,-0.01694,-0.00763,0.0293,-0.01556,-0.00259,-0.12665,-0.03342
8.555,-0.00549,-0.00214,0.07568,-0.00946,-0.01205,-0.04593,-0.00763,-0.00305,1.45294,-0.0322,-0.009,0.0206,-0.02213,-0.0058,-0.13824,-0.03235
8.5555,-0.00732,-0.00656,0.03967,-0.00916,-0.01694,-0.047,-0.01114,0.00244,1.43646,-0.05157,-0.01175,-0.0032,-0.02777,-0.01129,-0.14572,-0.03265
8.556,-0.00824,-0.01678,-0.00595,-0.01038,-0.02029,-0.04639,-0.00107,-0.00443,1.40686,-0.06378,-0.0116,-0.0145,-0.03204,-0.02075,-0.14984,-0.03418
8.5565,-0.00946,-0.02686,-0.04227,-0.01205,-0.02289,-0.0473,-0.01007,-0.0087,1.36459,-0.06378,0.00885,-0.009,-0.03525,-0.03357,-0.14618,-0.03479
8.557,-0.00885,-0.03357,-0.06348,-0.01312,-0.02579,-0.04517,-0.03296,-0.00351,1.31622,-0.0592,0.05066,-0.00046,-0.03693,-0.04654,-0.12711,-0.03464
8.5575,-0.0058,-0.0383,-0.07843,-0.01312,-0.02731,-0.04318,-0.04288,0.00717,1.26556,-0.05417,0.07858,0.00397,-0.03738,-0.05478,-0.08636,-0.03555
8.558,-0.00275,-0.04547,-0.09918,-0.01205,-0.02914,-0.04456,-0.03128,0.01205,1.20987,-0.04669,0.05814,0.00519,-0.03616,-0.0592,-0.02167,-0.03967
8.5585,-0.00153,-0.05249,-0.12177,-0.01053,-0.03036,-0.04562,-0.01373,0.00229,1.14349,-0.03342,-0.00015,0.00168,-0.03448,-0.05951,0.06424,-0.0444
8.559,-0.00381,-0.05798,-0.13519,-0.00961,-0.03159,-0.04501,-0.00366,-0.02121,1.07422,-0.01709,-0.05325,-0.00305,-0.0354,-0.056,0.13901,-0.04791
8.5595,-0.0061,-0.06027,-0.13687,-0.00885,-0.03448,-0.04333,0.00015,-0.04379,1.00815,-0.00961,-0.06821,-0.00351,-0.03952,-0.05249,0.15457,-0.0499
8.56,-0.0061,-0.05981,-0.12695,-0.00824,-0.03784,-0.03983,0.00931,-0.04715,0.94284,-0.00839,-0.05249,0.00458,-0.04456,-0.04868,0.08957,-0.05051
8.5605,-0.00504,-0.05646,-0.10468,-0.00839,-0.0412,-0.03876,0.02701,-0.03036,0.87616,-0.00595,-0.03464,0.0148,-0.05096,-0.04822,-0.02914,-0.0502
8.561,-0.00519,-0.05264,-0.07004,-0.009,-0.04364,-0.03983,0.03769,-0.00916,0.81528,0.00244,-0.03876,0.01846,-0.05646,-0.04868,-0.13306,-0.05035
8.5615,-0.00458,-0.05386,-0.02502,-0.01038,-0.04303,-0.04257,0.02548,-0.00854,0.75592,0.01312,-0.05707,0.01465,-0.06104,-0.0502,-0.168,-0.0499
8.562,-0.00412,-0.06104,0.01907,-0.0119,-0.04303,-0.04364,-0.00839,-0.04395,0.68512,0.02014,-0.06226,0.00839,-0.06073,-0.047,-0.14084,-0.04959
8.5625,-0.00275,-0.06958,0.04944,-0.0119,-0.04395,-0.04349,-0.04456,-0.09644,0.60181,0.02075,-0.04105,0.00168,-0.05737,-0.04135,-0.09613,-0.04913
8.563,-0.00107,-0.07111,0.06302,-0.01251,-0.04532,-0.04379,-0.06821,-0.10391,0.51147,0.01572,-0.01068,-0.00793,-0.05463,-0.03372,-0.05051,-0.04837
8.5635,0.00046,-0.06195,0.06393,-0.01312,-0.047,-0.04501,-0.07797,-0.02838,0.42038,0.00839,0.01419,-0.01923,-0.05524,-0.02701,0.02045,-0.04623
8.564,0.00351,-0.04868,0.05753,-0.01389,-0.0473,-0.04623,-0.07202,0.07797,0.34348,0.00015,0.03189,-0.02548,-0.056,-0.02136,0.12161,-0.04257
8.5645,0.00717,-0.03845,0.04532,-0.01297,-0.0473,-0.04654,-0.04669,0.11856,0.289,-0.00671,0.04654,-0.01617,-0.05478,-0.01526,0.19272,-0.04059
8.565,0.01038,-0.03601,0.02899,-0.01068,-0.04852,-0.04868,-0.01312,0.07339,0.2446,-0.0119,0.05356,0.00458,-0.05081,-0.00931,0.16556,-0.04028
8.5655,0.01205,-0.03876,0.00931,-0.00854,-0.0502,-0.04944,0.00198,0.01602,0.19562,-0.01862,0.05249,0.01907,-0.04562,-0.00412,0.06165,-0.04166
8.566,0.01175,-0.04074,-0.00946,-0.00854,-0.05234,-0.04929,-0.00977,0.00305,0.14221,-0.02914,0.04608,0.0209,-0.04257,-0.00061,-0.02106,-0.04272
8.5665,0.00961,-0.0383,-0.0267,-0.00961,-0.05356,-0.04959,-0.02319,0.01373,0.0885,-0.03891,0.0386,0.02884,-0.04135,0.00183,-0.03281,-0.04272
8.567,0.00656,-0.02884,-0.03723,-0.00977,-0.05249,-0.05096,-0.00732,0.01251,0.03525,-0.04303,0.03067,0.04974,-0.03906,0.00656,-0.00916,-0.04166
8.5675,0.00397,-0.0174,-0.04196,-0.01068,-0.04684,-0.05295,0.0293,0.00092,-0.01038,-0.03983,0.02258,0.06195,-0.03479,0.01144,-0.00748,-0.04074
8.568,0.00183,-0.01358,-0.047,-0.01114,-0.04181,-0.05402,0.04715,-0.0029,-0.0383,-0.03464,0.01556,0.04913,-0.03159,0.01068,-0.02655,-0.04181
8.5685,0.0,-0.01907,-0.05417,-0.0116,-0.04044,-0.05463,0.02701,0.00061,-0.04944,-0.03143,0.01053,0.02777,-0.03021,0.00854,-0.04089,-0.04395
8.569,-0.00275,-0.02594,-0.05844,-0.0119,-0.04044,-0.05371,-0.0058,-0.00122,-0.06119,-0.02548,0.00763,0.02396,-0.03052,0.00397,-0.04211,-0.04486
8.5695,-0.00626,-0.02731,-0.06088,-0.01114,-0.03998,-0.05341,-0.01953,-0.00671,-0.08881,-0.01617,0.00397,0.03494,-0.03021,-0.00183,-0.03845,-0.04456
8.57,-0.0087,-0.02289,-0.0647,-0.00946,-0.04044,-0.05325,-0.01328,-0.00763,-0.13046,-0.00519,0.00336,0.03937,-0.03006,-0.00824,-0.02563,-0.04211
8.5705,-0.01099,-0.01663,-0.07599,-0.00946,-0.04059,-0.05493,-0.00916,-0.00839,-0.18127,0.00595,0.00763,0.03006,-0.03143,-0.01617,0.01144,-0.04074
8.571,-0.01251,-0.01495,-0.09232,-0.01083,-0.04196,-0.05676,-0.01404,-0.01434,-0.23148,0.01099,0.02029,0.01648,-0.03464,-0.02533,0.05371,-0.03967
8.5715,-0.0148,-0.01984,-0.10071,-0.01129,-0.04364,-0.05722,-0.02106,-0.02106,-0.27405,0.00504,0.04852,0.00763,-0.04044,-0.03586,0.05051,-0.03983
8.572,-0.01648,-0.02701,-0.09598,-0.01129,-0.0415,-0.05447,-0.02121,-0.02167,-0.31052,-0.01633,0.08453,0.00168,-0.04669,-0.04547,-0.00961,-0.04074
8.5725,-0.01465,-0.03616,-0.0853,-0.01175,-0.03601,-0.04669,-0.01785,-0.01785,-0.34302,-0.04379,0.09216,-0.00778,-0.05188,-0.04959,-0.06989,-0.04028
8.573,-0.00839,-0.04272,-0.07187,-0.01129,-0.03098,-0.03815,-0.0148,-0.01526,-0.37216,-0.06302,0.04562,-0.02625,-0.05493,-0.04486,-0.06729,-0.03998
8.5735,0.00183,-0.04669,-0.05905,-0.01022,-0.02945,-0.03311,-0.01343,-0.01373,-0.39795,-0.07111,-0.02975,-0.04578,-0.0531,-0.03372,-0.00671,-0.03952
8.574,0.01205,-0.04929,-0.04395,-0.009,-0.02991,-0.03525,-0.01404,-0.01266,-0.41367,-0.07797,-0.07889,-0.05341,-0.05112,-0.02213,0.05768,-0.03998
8.5745,0.01816,-0.05219,-0.02884,-0.0087,-0.02899,-0.04028,-0.01312,-0.01083,-0.40924,-0.08469,-0.08194,-0.04517,-0.04974,-0.01465,0.06973,-0.04013
8.575,0.01801,-0.05722,-0.01968,-0.01007,-0.02716,-0.04288,-0.01114,-0.00961,-0.38971,-0.08331,-0.06561,-0.03021,-0.04929,-0.00839,0.03616,-0.04074
8.5755,0.01175,-0.06409,-0.01678,-0.01221,-0.0264,-0.04013,-0.00885,-0.00946,-0.36377,-0.06577,-0.06378,-0.01587,-0.0499,-0.00412,0.00549,-0.04257
8.576,0.00381,-0.07401,-0.01663,-0.01312,-0.02762,-0.03784,-0.00839,-0.00824,-0.33234,-0.03922,-0.07477,-0.00214,-0.0499,0.00259,0.00519,-0.04425
8.5765,-0.0029,-0.08331,-0.01434,-0.01358,-0.02884,-0.04044,-0.00992,-0.00656,-0.29663,-0.01419,-0.07782,0.01663,-0.04837,0.00763,0.01892,-0.04517
8.577,-0.00778,-0.08774,-0.01862,-0.01465,-0.03174,-0.04456,-0.01434,-0.00748,-0.2597,0.00504,-0.0647,0.03906,-0.04593,0.0087,0.02182,-0.04517
8.5775,-0.01221,-0.08255,-0.02869,-0.01587,-0.0322,-0.04761,-0.02029,-0.01022,-0.21927,0.0238,-0.06012,0.05463,-0.04379,0.00443,0.01663,-0.04501
8.578,-0.01434,-0.07248,-0.03876,-0.01602,-0.03128,-0.05005,-0.02487,-0.01312,-0.18921,0.03677,-0.08408,0.04517,-0.03891,-0.00351,0.01312,-0.04547
8.5785,-0.0174,-0.06577,-0.04059,-0.01419,-0.02625,-0.05096,-0.02548,-0.01282,-0.1976,0.03632,-0.12161,0.00778,-0.0322,-0.00961,0.01129,-0.0441
8.579,-0.0206,-0.06332,-0.03433,-0.01373,-0.02151,-0.05142,-0.02213,-0.01129,-0.25208,0.01862,-0.13702,-0.02457,-0.02686,-0.00778,0.00702,-0.0415
8.5795,-0.02426,-0.06287,-0.02655,-0.01312,-0.01633,-0.05051,-0.01831,-0.01038,-0.32425,-0.00534,-0.11734,-0.02426,-0.02213,0.00427,-0.00046,-0.03967
8.58,-0.02808,-0.06683,-0.02319,-0.0119,-0.0116,-0.04852,-0.01556,-0.00977,-0.37613,-0.01236,-0.08133,-0.00824,-0.01801,0.02121,-0.0145,-0.03906
8.5805,-0.03189,-0.07782,-0.02411,-0.01144,-0.00854,-0.04913,-0.01602,-0.00885,-0.38864,0.00595,-0.05142,-0.0087,-0.01526,0.03387,-0.03876,-0.0386
8.581,-0.03616,-0.08514,-0.02823,-0.01053,-0.00763,-0.04913,-0.01648,-0.00656,-0.37689,0.03693,-0.03326,-0.02579,-0.01511,0.03586,-0.06271,-0.03769
8.5815,-0.04028,-0.07919,-0.03555,-0.009,-0.00702,-0.04745,-0.01297,-0.00336,-0.36789,0.05264,-0.01938,-0.02884,-0.01755,0.02594,-0.07294,-0.03784
8.582,-0.0415,-0.06439,-0.04562,-0.00839,-0.00748,-0.04364,-0.00946,0.00015,-0.36865,0.04532,-0.00778,-0.00854,-0.02121,0.01144,-0.06943,-0.0383
8.5825,-0.03922,-0.05402,-0.05508,-0.00793,-0.00961,-0.04135,-0.00778,-0.00015,-0.35645,0.02838,0.00031,0.00961,-0.0235,-0.00443,-0.06073,-0.03815
8.583,-0.03372,-0.05417,-0.06271,-0.00839,-0.01328,-0.03937,-0.01007,-0.00168,-0.30243,0.01953,0.00061,0.00549,-0.0238,-0.01984,-0.02335,-0.03784
8.5835,-0.02792,-0.05829,-0.06516,-0.009,-0.01755,-0.04211,-0.01236,-0.00244,-0.20706,0.01755,-0.0116,-0.01831,-0.02441,-0.03036,0.05508,-0.0383
8.584,-0.0235,-0.05676,-0.06439,-0.00931,-0.01892,-0.04593,-0.01389,-0.0029,-0.0972,0.00809,-0.03769,-0.04364,-0.02411,-0.03906,0.12772,-0.03952
8.5845,-0.01938,-0.04669,-0.06439,-0.00961,-0.0235,-0.04868,-0.01526,-0.00427,0.009,-0.0061,-0.07004,-0.05371,-0.02243,-0.04776,0.1178,-0.04135
8.585,-0.01434,-0.03311,-0.06577,-0.01022,-0.02884,-0.047,-0.01816,-0.00778,0.10834,-0.01663,-0.0885,-0.04089,-0.01862,-0.05585,0.04532,-0.03967
8.5855,-0.00931,-0.02609,-0.0679,-0.00916,-0.03204,-0.04593,-0.01984,-0.00854,0.20264,-0.0174,-0.0705,-0.01587,-0.01541,-0.0589,0.00748,-0.03876
8.586,-0.00565,-0.02533,-0.06775,-0.00885,-0.03143,-0.0473,-0.02045,-0.00717,0.30258,-0.01175,-0.00259,0.00443,-0.01419,-0.05554,0.04288,-0.03983
8.5865,-0.00366,-0.02502,-0.06683,-0.00778,-0.03357,-0.04929,-0.01724,-0.00504,0.42282,-0.00534,0.10147,0.01221,-0.01526,-0.05219,0.07858,-0.04074
8.587,-0.00214,-0.01938,-0.06195,-0.00748,-0.04135,-0.04883,-0.01404,-0.00412,0.54871,0.00137,0.19379,0.01709,-0.0177,-0.05325,0.0531,-0.04135
8.5875,-0.00107,-0.00961,-0.05524,-0.00763,-0.04593,-0.04807,-0.01221,-0.00504,0.64484,0.01083,0.22354,0.03891,-0.02014,-0.05646,0.00778,-0.04166
8.588,0.0,-0.00137,-0.04349,-0.00839,-0.0473,-0.04852,-0.01282,-0.00504,0.69489,0.01724,0.18097,0.08194,-0.02151,-0.0563,0.00198,-0.04105
8.5885,0.00229,0.00488,-0.02991,-0.00961,-0.047,-0.04868,-0.01511,-0.0058,0.72891,0.01907,0.09903,0.11993,-0.02243,-0.05142,0.02625,-0.04044
8.589,0.00671,0.00687,-0.01678,-0.01221,-0.04761,-0.04822,-0.01648,-0.00809,0.78979,0.01556,0.01205,0.11581,-0.02243,-0.04364,0.03708,-0.04013
8.5895,0.00946,0.00229,-0.0058,-0.01465,-0.05035,-0.04684,-0.0148,-0.00916,0.88776,0.01266,-0.06775,0.06409,-0.02228,-0.03342,0.02853,-0.03998
8.59,0.009,-0.01251,0.00183,-0.01465,-0.05066,-0.04761,-0.01251,-0.00702,0.97687,0.01099,-0.13229,-0.00305,-0.02014,-0.02258,0.0177,-0.03876
8.5905,0.00549,-0.03143,0.00397,-0.01373,-0.04883,-0.04837,-0.0119,-0.0032,0.99716,0.00885,-0.17502,-0.047,-0.01633,-0.01266,0.01282,-0.03708
8.591,0.00183,-0.04303,-0.00381,-0.01266,-0.04608,-0.04852,-0.01373,-0.00214,0.90775,0.00275,-0.17868,-0.05997,-0.01328,-0.00458,0.00671,-0.03616
8.5915,0.0,-0.04028,-0.01999,-0.01083,-0.03952,-0.04654,-0.0145,-0.00366,0.68848,-0.00641,-0.13519,-0.05875,-0.01328,-0.00076,-0.00061,-0.03662
8.592,0.00046,-0.02991,-0.03876,-0.01099,-0.0325,-0.04669,-0.01373,-0.00351,0.35065,-0.01877,-0.06668,-0.056,-0.01617,-0.00107,-0.00793,-0.03387
8.5925,0.00305,-0.02243,-0.05127,-0.01099,-0.02457,-0.04715,-0.01205,-0.00076,-0.06454,-0.03555,-0.00854,-0.05112,-0.01907,-0.00275,-0.01129,-0.03189
8.593,0.00473,-0.02182,-0.05554,-0.01068,-0.01801,-0.04669,-0.01144,0.00107,-0.53391,-0.05508,0.01907,-0.0386,-0.02228,-0.00534,-0.00687,-0.03021
8.5935,0.0058,-0.02243,-0.05432,-0.01007,-0.01434,-0.04395,-0.01144,-0.00015,-1.05286,-0.07034,0.01938,-0.02213,-0.02731,-0.0087,0.01038,-0.03143
8.594,0.00534,-0.0209,-0.05066,-0.00916,-0.01495,-0.04227,-0.0116,-0.00229,-1.57211,-0.08392,0.00641,-0.00961,-0.03067,-0.01236,0.03372,-0.03204
8.5945,0.00412,-0.01678,-0.04089,-0.00793,-0.01572,-0.0441,-0.01144,-0.00214,-2.00043,-0.09689,-0.00793,-0.0061,-0.03098,-0.01709,0.04272,-0.03189
8.595,0.00381,-0.01175,-0.02411,-0.00824,-0.01938,-0.04639,-0.01175,-0.00122,-2.29538,-0.10529,-0.02213,-0.00626,-0.0296,-0.0177,0.02823,-0.03342
8.5955,0.00443,-0.0087,0.00275,-0.00916,-0.02411,-0.04684,-0.0119,-0.00168,-2.50092,-0.09949,-0.04562,-0.00824,-0.02884,-0.01495,0.00244,-0.03876
8.596,0.00504,-0.00702,0.0293,-0.00946,-0.0264,-0.0444,-0.01297,-0.00381,-2.67395,-0.08255,-0.06821,-0.01083,-0.02991,-0.01068,-0.0119,-0.0441
8.5965,0.0058,-0.00916,0.04196,-0.00946,-0.02762,-0.04257,-0.01297,-0.00565,-2.81265,-0.06271,-0.06729,-0.01236,-0.0322,-0.00854,-0.00732,-0.0415
8.597,0.00732,-0.01633,0.02914,-0.00992,-0.02853,-0.04166,-0.01312,-0.00534,-2.8923,-0.05417,-0.03632,-0.01129,-0.03326,-0.01053,0.00427,-0.0267
8.5975,0.00931,-0.02625,0.00153,-0.00977,-0.02899,-0.04211,-0.01373,-0.00244,-2.9303,-0.06073,0.01129,-0.00793,-0.03403,-0.0119,0.00778,-0.00809
8.598,0.01144,-0.03433,-0.01999,-0.00885,-0.02991,-0.04303,-0.01358,-0.00198,-2.98508,-0.07614,0.06546,-0.00763,-0.03342,-0.01038,0.00626,0.00153
8.5985,0.01236,-0.04074,-0.02991,-0.00763,-0.03036,-0.04501,-0.01282,-0.00183,-3.09311,-0.08926,0.11963,-0.01495,-0.03143,-0.00778,0.00443,-0.00153
8.599,0.01129,-0.04471,-0.03235,-0.00824,-0.02975,-0.04654,-0.01251,-0.00137,-3.22189,-0.09842,0.14542,-0.0238,-0.0296,-0.0087,0.00473,-0.01389
8.5995,0.01068,-0.047,-0.03082,-0.00977,-0.03296,-0.04868,-0.0116,-0.00183,-3.30078,-0.11307,0.12527,-0.02228,-0.02701,-0.01129,0.00443,-0.02533
8.6,0.01022,-0.04578,-0.0325,-0.01053,-0.03647,-0.05035,-0.01144,-0.00244,-3.29803,-0.13733,0.07477,-0.00763,-0.02563,-0.01373,0.00427,-0.03372
8.6005,0.00839,-0.04318,-0.03326,-0.00961,-0.04013,-0.05112,-0.01175,-0.0032,-3.2547,-0.1619,0.02151,0.00931,-0.02441,-0.01434,0.00259,-0.04105
8.601,0.0061,-0.04089,-0.03418,-0.00916,-0.04318,-0.05173,-0.01251,-0.0032,-3.21121,-0.16678,-0.02518,0.02136,-0.02426,-0.01755,0.0029,-0.04868
8.6015,0.00412,-0.0412,-0.03571,-0.00961,-0.04501,-0.0531,-0.01282,-0.00183,-3.13889,-0.14709,-0.06332,0.02975,-0.02487,-0.02243,0.00137,-0.05737
8.602,0.00351,-0.04257,-0.03815,-0.00992,-0.04837,-0.05371,-0.01266,-0.00031,-2.99149,-0.112,-0.08514,0.0386,-0.02762,-0.0267,-0.00061,-0.06577
8.6025,0.00107,-0.0441,-0.03906,-0.00992,-0.05066,-0.05142,-0.01251,0.00031,-2.78717,-0.07538,-0.08255,0.04547,-0.03098,-0.02716,-0.00183,-0.07202
8.603,-0.00214,-0.04608,-0.04044,-0.009,-0.05203,-0.04959,-0.01251,-0.00137,-2.60025,-0.04883,-0.06088,0.05005,-0.03265,-0.02167,-0.00092,-0.07599
8.6035,-0.00412,-0.04761,-0.03891,-0.0087,-0.05112,-0.04807,-0.01312,-0.0029,-2.4762,-0.0322,-0.03342,0.04456,-0.03174,-0.01175,-0.00031,-0.07599
8.604,-0.00443,-0.04822,-0.03693,-0.009,-0.04486,-0.04776,-0.01297,-0.00397,-2.37442,-0.01968,-0.01266,0.02167,-0.03067,-0.00275,-0.00153,-0.07339
8.6045,-0.00397,-0.04776,-0.03632,-0.00977,-0.04242,-0.04715,-0.0116,-0.0032,-2.22366,-0.00198,-0.00351,-0.00793,-0.03159,0.00046,-0.00168,-0.06973
8.605,-0.00397,-0.04715,-0.03723,-0.0116,-0.04074,-0.04745,-0.01038,-0.00198,-2.0314,0.02426,-0.00534,-0.01694,-0.03418,-0.00183,0.00015,-0.06821
8.6055,-0.00488,-0.04852,-0.0383,-0.01251,-0.04013,-0.04959,-0.01053,-0.00031,-1.92856,0.0502,-0.0119,0.00229,-0.03647,-0.00595,0.00183,-0.06516
8.606,-0.0058,-0.05005,-0.0383,-0.01434,-0.03967,-0.05081,-0.01099,0.00198,-2.06192,0.06714,-0.01389,0.0206,-0.03677,-0.00763,0.00061,-0.05783
8.6065,-0.00656,-0.05005,-0.03952,-0.01587,-0.03769,-0.05142,-0.01236,0.00168,-2.40753,0.07187,-0.00916,0.0116,-0.03464,-0.00977,-0.00137,-0.04929
8.607,-0.00717,-0.04974,-0.04135,-0.01678,-0.03448,-0.05112,-0.01358,-0.00061,-2.74948,0.07492,-0.00519,-0.01465,-0.03326,-0.01526,-0.00183,-0.0444
8.6075,-0.00809,-0.04959,-0.04166,-0.01755,-0.0325,-0.05005,-0.01434,-0.00214,-2.8891,0.0885,-0.00824,-0.03189,-0.03174,-0.02136,0.0,-0.04257
8.608,-0.00732,-0.0502,-0.04013,-0.01755,-0.0322,-0.04883,-0.01343,-0.00061,-2.8241,0.11063,-0.01801,-0.03265,-0.03265,-0.02563,0.0029,-0.04013
8.6085,-0.00641,-0.05051,-0.04135,-0.01648,-0.03296,-0.05005,-0.01266,0.00137,-2.67181,0.12482,-0.02945,-0.0267,-0.03464,-0.02686,0.00366,-0.03571
8.609,-0.00549,-0.05066,-0.03967,-0.01556,-0.03128,-0.05173,-0.0145,0.00198,-2.50854,0.10818,-0.03738,-0.01877,-0.03677,-0.0264,0.00412,-0.03235
8.6095,-0.00534,-0.05051,-0.03845,-0.0148,-0.02884,-0.05112,-0.01541,0.00092,-2.33002,0.0589,-0.03769,-0.00351,-0.0383,-0.0296,0.00656,-0.0322
8.61,-0.00671,-0.05005,-0.03708,-0.01297,-0.02655,-0.04822,-0.01465,-0.00122,-2.11273,0.0,-0.03036,0.02289,-0.03799,-0.03448,0.00946,-0.03357
8.6105,-0.00961,-0.04761,-0.03632,-0.01144,-0.02686,-0.04562,-0.01312,-0.00244,-1.86432,-0.0351,-0.01587,0.04807,-0.03815,-0.03799,0.01297,-0.03326
8.611,-0.01068,-0.04456,-0.03677,-0.00977,-0.02747,-0.04364,-0.01251,-0.00381,-1.61896,-0.03571,0.01678,0.06027,-0.03708,-0.03647,0.01663,-0.03159
8.6115,-0.01068,-0.04333,-0.03754,-0.01038,-0.02899,-0.0441,-0.01358,-0.00427,-1.40121,-0.0177,0.0708,0.05814,-0.0354,-0.03128,0.02075,-0.02747
8.612,-0.00992,-0.04501,-0.03922,-0.01114,-0.03006,-0.04623,-0.01511,-0.00381,-1.20422,0.00122,0.12009,0.0444,-0.03464,-0.02502,0.0235,-0.0238
8.6125,-0.00961,-0.04898,-0.04059,-0.01236,-0.03082,-0.04791,-0.01572,-0.00183,-1.00388,0.01511,0.12405,0.02029,-0.03433,-0.02106,0.02426,-0.02472
8.613,-0.00809,-0.0531,-0.0415,-0.01221,-0.0296,-0.04929,-0.01663,-0.00015,-0.77866,0.0325,0.07462,-0.00748,-0.03479,-0.01892,0.02213,-0.03021
8.6135,-0.00671,-0.06073,-0.04181,-0.01114,-0.02518,-0.04639,-0.0177,-0.00107,-0.53574,0.05478,0.01022,-0.02777,-0.03403,-0.01846,0.02106,-0.04059
8.614,-0.00626,-0.07385,-0.04074,-0.01038,-0.02258,-0.04456,-0.01816,-0.00336,-0.30563,0.07401,-0.03296,-0.03235,-0.03006,-0.01785,0.02106,-0.05295
8.6145,-0.00778,-0.09094,-0.0383,-0.01038,-0.01999,-0.04089,-0.01694,-0.00473,-0.10391,0.08057,-0.056,-0.02502,-0.02426,-0.01511,0.02106,-0.06271
8.615,-0.01007,-0.10681,-0.03525,-0.01144,-0.01785,-0.04211,-0.01602,-0.00504,0.08102,0.07889,-0.0737,-0.02045,-0.01633,-0.01389,0.0174,-0.06577
8.6155,-0.01053,-0.11276,-0.03387,-0.01007,-0.01389,-0.04211,-0.01633,-0.00412,0.26093,0.07278,-0.09247,-0.0206,-0.00702,-0.01373,0.01114,-0.06134
8.616,-0.01053,-0.10498,-0.03479,-0.009,-0.01007,-0.04272,-0.0174,-0.00259,0.43671,0.06119,-0.11444,-0.02243,0.00092,-0.01373,0.00381,-0.05356
8.6165,-0.01053,-0.08606,-0.03738,-0.01022,-0.00778,-0.04425,-0.01663,-0.00122,0.61722,0.03845,-0.14069,-0.02106,0.00549,-0.0145,0.00198,-0.04135
8.617,-0.01038,-0.06607,-0.03738,-0.01236,-0.00717,-0.04684,-0.01465,0.0,0.80414,0.0087,-0.16342,-0.01495,0.00504,-0.0145,0.00763,-0.03036
8.6175,-0.009,-0.05051,-0.03662,-0.01389,-0.00519,-0.04868,-0.01358,-0.00168,0.98587,-0.01709,-0.16678,-0.00641,0.00183,-0.01434,0.01541,-0.02594
8.618,-0.00824,-0.03647,-0.03601,-0.01389,-0.0061,-0.05066,-0.01312,-0.0032,1.14777,-0.03677,-0.14297,0.0029,-0.00305,-0.01511,0.02167,-0.02777
8.6185,-0.00946,-0.02411,-0.03555,-0.01343,-0.00977,-0.05142,-0.01282,-0.00351,1.28143,-0.0528,-0.10269,0.00961,-0.00732,-0.01419,0.02502,-0.03021
8.619,-0.01007,-0.01236,-0.03571,-0.01205,-0.01587,-0.05356,-0.01251,-0.0029,1.39297,-0.06363,-0.05798,0.01114,-0.0116,-0.01312,0.0264,-0.03036
8.6195,-0.00961,-0.00641,-0.03494,-0.01007,-0.02289,-0.05463,-0.01221,-0.00168,1.49673,-0.0647,-0.01434,0.00854,-0.0145,-0.01373,0.02396,-0.02914
8.62,-0.00854,-0.00595,-0.03647,-0.00702,-0.02991,-0.05432,-0.01129,-0.00015,1.59454,-0.05539,0.02472,0.00717,-0.01892,-0.01801,0.01831,-0.0322
8.6205,-0.00946,-0.00641,-0.03876,-0.00336,-0.03647,-0.05417,-0.01129,0.00015,1.67236,-0.04364,0.05157,0.00854,-0.02808,-0.0235,0.01328,-0.03693
8.621,-0.0119,-0.00519,-0.04944,0.00107,-0.04272,-0.05539,-0.01282,0.00061,1.72379,-0.03616,0.06332,0.01175,-0.03937,-0.02884,0.01297,-0.03922
8.6215,-0.01236,0.00015,-0.07462,0.00626,-0.05081,-0.05676,-0.0148,-0.00092,1.76025,-0.03616,0.06256,0.01083,-0.0473,-0.03235,0.0177,-0.03815
8.622,-0.00885,0.00443,-0.11139,0.00763,-0.06165,-0.05692,-0.01648,-0.00275,1.80038,-0.04013,0.05371,0.00305,-0.05173,-0.03296,0.02289,-0.03204
8.6225,-0.00214,0.0032,-0.14465,0.0032,-0.07355,-0.05707,-0.01511,-0.00259,1.87805,-0.04486,0.04028,-0.00519,-0.05432,-0.03098,0.02457,-0.02106
8.623,0.00259,-0.00458,-0.16327,-0.00458,-0.0827,-0.05646,-0.01343,-0.00198,2.02652,-0.04028,0.02838,-0.00839,-0.056,-0.02838,0.02274,-0.00977
8.6235,0.00229,-0.01404,-0.1622,-0.0116,-0.08423,-0.05539,-0.0119,-0.00168,2.23572,-0.02609,0.02396,-0.00961,-0.05386,-0.0264,0.02228,-0.0029
8.624,-0.00214,-0.01999,-0.13779,-0.01862,-0.07843,-0.05173,-0.01221,0.00046,2.43469,-0.0116,0.02518,-0.01343,-0.05096,-0.02426,0.02365,0.01312
8.6245,-0.00854,-0.02228,-0.09094,-0.02701,-0.06851,-0.04776,-0.01343,0.0032,2.58118,-0.00763,0.02396,-0.01862,-0.05173,-0.02304,0.02548,0.05219
8.625,-0.01343,-0.02197,-0.02914,-0.03357,-0.05875,-0.04425,-0.01511,0.0032,2.7243,-0.0119,0.01511,-0.01923,-0.05478,-0.02121,0.02487,0.09369
8.6255,-0.01724,-0.0209,0.03464,-0.03571,-0.04929,-0.04364,-0.01541,0.00031,2.9184,-0.01587,0.00183,-0.0145,-0.06104,-0.01907,0.02365,0.08713
8.626,-0.01846,-0.01953,0.08575,-0.03464,-0.04227,-0.04364,-0.01541,-0.0029,3.11447,-0.01862,-0.01068,-0.00763,-0.06516,-0.01617,0.02289,0.02319
8.6265,-0.01709,-0.01831,0.11688,-0.03555,-0.03464,-0.04395,-0.01587,-0.00504,3.22525,-0.02487,-0.02121,-0.00061,-0.06805,-0.01465,0.0238,-0.04745
8.627,-0.01572,-0.01846,0.12787,-0.03693,-0.02609,-0.04501,-0.01617,-0.0061,3.24677,-0.03708,-0.03113,0.00534,-0.06882,-0.01328,0.02151,-0.07904
8.6275,-0.0145,-0.02106,0.11841,-0.02533,-0.01938,-0.04501,-0.01648,-0.00702,3.25806,-0.04852,-0.03632,0.00946,-0.06851,-0.01312,0.01526,-0.08331
8.628,-0.0145,-0.02609,0.09445,0.00656,-0.01251,-0.04333,-0.01678,-0.00671,3.33298,-0.05386,-0.03082,0.01083,-0.06607,-0.01343,0.00885,-0.10391
8.6285,-0.0145,-0.02991,0.0589,0.04852,-0.00671,-0.04196,-0.01663,-0.00549,3.50174,-0.05356,-0.01816,0.01221,-0.06378,-0.01221,0.00305,-0.15305
8.629,-0.01419,-0.03113,0.01892,0.0737,-0.00244,-0.04272,-0.01434,-0.00595,3.77167,-0.05096,-0.00961,0.01251,-0.06439,-0.01297,-0.00092,-0.19791
8.6295,-0.01495,-0.03403,-0.01251,0.06683,0.00015,-0.04395,-0.01434,-0.00656,4.15207,-0.04913,-0.00702,0.01068,-0.0676,-0.01297,-0.00656,-0.20645
8.63,-0.01633,-0.03967,-0.0267,0.03494,0.00137,-0.04425,-0.01526,-0.00671,4.57809,-0.04837,-0.00977,0.00473,-0.06958,-0.01221,-0.01129,-0.18082
8.6305,-0.01633,-0.04745,-0.02609,-0.00534,0.00366,-0.04578,-0.01633,-0.00778,4.87442,-0.04852,-0.01282,-0.00137,-0.06882,-0.01221,-0.00656,-0.14481
8.631,-0.01419,-0.05371,-0.02365,-0.03937,0.00809,-0.04425,-0.01587,-0.00793,4.9263,-0.04745,-0.01389,-0.00473,-0.06439,-0.01312,0.01328,-0.11337
8.6315,-0.009,-0.05722,-0.0267,-0.05676,0.00946,-0.04257,-0.01465,-0.00763,4.83078,-0.04211,-0.01343,-0.00351,-0.05936,-0.01419,0.0322,-0.08911
8.632,-0.00458,-0.0592,-0.03372,-0.0589,0.01068,-0.03998,-0.0145,-0.00763,4.75845,-0.0325,-0.0087,0.00076,-0.0531,-0.01526,0.03281,-0.06821
8.6325,-0.00244,-0.05829,-0.03876,-0.06302,0.01129,-0.04074,-0.01434,-0.00717,4.74899,-0.02167,-0.0029,0.00336,-0.04745,-0.01404,0.01495,-0.0589
8.633,0.00031,-0.05753,-0.03998,-0.08759,0.01099,-0.04166,-0.01434,-0.0058,4.73099,-0.01862,-0.00015,0.00443,-0.04379,-0.01389,-0.00259,-0.05951
8.6335,0.00519,-0.06027,-0.03983,-0.12207,0.00977,-0.0412,-0.01465,-0.00458,4.64737,-0.02045,-0.00534,0.00671,-0.04196,-0.01495,-0.00687,-0.06149
8.634,0.00931,-0.06683,-0.0412,-0.12848,0.00641,-0.04013,-0.01495,-0.00412,4.44382,-0.02701,-0.01694,0.01083,-0.04074,-0.01724,-0.00168,-0.0592
8.6345,0.0116,-0.07233,-0.04318,-0.08377,0.00107,-0.04181,-0.01434,-0.00443,4.12476,-0.0325,-0.02396,0.01312,-0.03799,-0.01846,0.00351,-0.05768
8.635,0.01053,-0.07431,-0.04623,-0.00977,-0.0058,-0.04456,-0.01434,-0.00565,3.85117,-0.03754,-0.01862,0.01144,-0.03754,-0.01938,0.00534,-0.06775
8.6355,0.009,-0.07034,-0.04684,0.04868,-0.01404,-0.0473,-0.01404,-0.00702,3.76892,-0.03983,-0.00626,0.00763,-0.03845,-0.02014,0.00778,-0.07919
8.636,0.00809,-0.06393,-0.04532,0.06836,-0.02151,-0.04868,-0.01389,-0.00641,3.77747,-0.04166,0.00183,0.00549,-0.03983,-0.02182,0.01175,-0.07385
8.6365,0.00824,-0.05753,-0.04364,0.05753,-0.0264,-0.04837,-0.01419,-0.00519,3.65021,-0.04166,0.00336,0.00656,-0.04013,-0.0238,0.01633,-0.05219
8.637,0.00809,-0.05341,-0.04379,0.0383,-0.03036,-0.04898,-0.01465,-0.00351,3.30582,-0.04349,0.0,0.00626,-0.03922,-0.02472,0.01892,-0.03708
8.6375,0.00778,-0.05051,-0.04425,0.02304,-0.03326,-0.04944,-0.01556,-0.00488,2.85309,-0.04517,-0.00412,0.00427,-0.03815,-0.02457,0.01801,-0.04257
8.638,0.00687,-0.04791,-0.04379,0.01495,-0.03677,-0.05142,-0.01633,-0.00885,2.41684,-0.04684,-0.00778,0.00107,-0.03616,-0.02411,0.0145,-0.06073
8.6385,0.00534,-0.04578,-0.04547,0.00732,-0.03799,-0.05188,-0.01633,-0.01328,2.02133,-0.04608,-0.01099,-0.0029,-0.0351,-0.0238,0.01038,-0.06897
8.639,0.00381,-0.0444,-0.04639,-0.00153,-0.03769,-0.05188,-0.01511,-0.01358,1.651,-0.04456,-0.01404,-0.00595,-0.03098,-0.0238,0.00763,-0.06653
8.6395,0.00305,-0.04379,-0.0473,-0.009,-0.03738,-0.0502,-0.01266,-0.00992,1.32874,-0.04486,-0.01862,-0.00626,-0.02563,-0.02411,0.00687,-0.06393
8.64,0.00244,-0.04196,-0.047,-0.01099,-0.0383,-0.05127,-0.01221,-0.00565,1.07925,-0.04456,-0.02411,-0.00473,-0.01999,-0.02335,0.00778,-0.06424
8.6405,0.00183,-0.03983,-0.04532,-0.01205,-0.04028,-0.05173,-0.01358,-0.00427,0.85892,-0.04074,-0.02625,-0.00015,-0.01953,-0.02182,0.00809,-0.06378
8.641,0.00214,-0.03876,-0.0441,-0.01816,-0.04425,-0.05249,-0.01541,-0.00473,0.58807,-0.03143,-0.02151,0.00381,-0.02151,-0.02213,0.00992,-0.05539
8.6415,0.00229,-0.03967,-0.04486,-0.02792,-0.04684,-0.05112,-0.01511,-0.00519,0.25574,-0.01999,-0.00977,0.00351,-0.02594,-0.02411,0.00702,-0.0383
8.642,0.00137,-0.04044,-0.04639,-0.03265,-0.04913,-0.0499,-0.01495,-0.00427,-0.06607,-0.01144,-0.00107,0.00137,-0.02853,-0.02563,-0.00717,-0.02045
8.6425,0.00061,-0.03952,-0.04532,-0.02884,-0.05081,-0.04944,-0.01495,-0.00397,-0.3273,-0.01144,-0.00137,0.0,-0.02945,-0.02701,-0.03387,-0.01373
8.643,0.0,-0.03738,-0.04364,-0.01495,-0.05188,-0.04913,-0.01495,-0.00412,-0.54794,-0.0145,-0.0087,0.00198,-0.02884,-0.02884,-0.06027,-0.02274
8.6435,0.00122,-0.03601,-0.04257,0.00778,-0.05554,-0.04883,-0.01358,-0.00214,-0.76477,-0.01862,-0.0145,0.00671,-0.02686,-0.02975,-0.07019,-0.04028
8.644,0.00168,-0.03662,-0.04333,0.02945,-0.05753,-0.04761,-0.01358,-0.00092,-0.99625,-0.01907,-0.01266,0.01312,-0.02304,-0.02838,-0.05829,-0.0592
8.6445,0.00137,-0.0386,-0.0444,0.03479,-0.06042,-0.04776,-0.01404,-0.00229,-1.22925,-0.01678,-0.00885,0.02319,-0.01862,-0.0264,-0.02869,-0.09659
8.645,0.00107,-0.03876,-0.04227,0.0209,-0.06195,-0.04745,-0.01419,-0.00412,-1.42899,-0.01587,-0.00839,0.03708,-0.01343,-0.02396,0.00748,-0.13992
8.6455,-0.00122,-0.03769,-0.04013,0.00214,-0.06119,-0.04745,-0.01373,-0.00443,-1.58295,-0.01587,-0.01831,0.0502,-0.01099,-0.02197,0.04547,-0.13046
8.646,-0.00351,-0.03677,-0.04013,-0.00534,-0.05768,-0.04776,-0.01236,-0.00366,-1.72516,-0.01724,-0.04074,0.05493,-0.01022,-0.02136,0.07248,-0.04196
8.6465,-0.00595,-0.03708,-0.03998,-0.00366,-0.05356,-0.04852,-0.0119,-0.00229,-1.88354,-0.02151,-0.07217,0.0415,-0.01236,-0.02182,0.07599,0.05554
8.647,-0.00656,-0.03677,-0.03922,0.00015,-0.04974,-0.04837,-0.01251,0.00015,-2.03995,-0.02823,-0.10025,0.01678,-0.01572,-0.02151,0.05554,0.07538
8.6475,-0.00595,-0.03632,-0.0386,0.0,-0.04745,-0.04623,-0.01297,0.00076,-2.16217,-0.03815,-0.10895,-0.01053,-0.01831,-0.01801,0.02655,0.02213
8.648,-0.00504,-0.0354,-0.03815,-0.0032,-0.04532,-0.04425,-0.01328,-0.00092,-2.24854,-0.05203,-0.09628,-0.03784,-0.02045,-0.01022,0.00854,-0.03571
8.6485,-0.00488,-0.0354,-0.03967,-0.00702,-0.04089,-0.04242,-0.01358,-0.00336,-2.31476,-0.06683,-0.07294,-0.06119,-0.02426,-0.00244,0.00534,-0.05402
8.649,-0.00473,-0.03571,-0.04044,-0.0119,-0.03464,-0.04227,-0.01312,-0.00473,-2.36603,-0.08148,-0.0499,-0.05783,-0.02808,0.00244,0.00778,-0.04089
8.6495,-0.00549,-0.03647,-0.03876,-0.01785,-0.0296,-0.04166,-0.01236,-0.0032,-2.388,-0.09094,-0.03036,-0.00778,-0.03006,0.00473,0.00763,-0.02411
8.65,-0.0058,-0.03616,-0.03799,-0.02335,-0.02487,-0.0412,-0.0116,-0.00122,-2.37671,-0.08881,-0.00732,0.06027,-0.02975,0.00717,0.00473,-0.00854
8.6505,-0.00702,-0.03586,-0.03723,-0.02594,-0.0206,-0.04181,-0.01038,-0.00107,-2.34146,-0.06989,0.01465,0.09079,-0.02731,0.00961,0.00366,0.00809
8.651,-0.00778,-0.03616,-0.03784,-0.02411,-0.01999,-0.04364,-0.01099,-0.00229,-2.29324,-0.03677,0.02609,0.0827,-0.02457,0.01007,0.00198,0.02396
8.6515,-0.00946,-0.03662,-0.03784,-0.01923,-0.02136,-0.04578,-0.01297,-0.00259,-2.23694,-0.0032,0.01938,0.09048,-0.02121,0.00717,-0.00153,0.02655
8.652,-0.01053,-0.03632,-0.03708,-0.01602,-0.02396,-0.04715,-0.01434,-0.00244,-2.16873,0.01663,0.00534,0.12436,-0.01709,-0.00015,-0.00412,0.01831
8.6525,-0.01129,-0.0351,-0.03647,-0.01602,-0.02487,-0.04837,-0.01465,-0.00244,-2.08023,0.01984,0.00977,0.1268,-0.01404,-0.01038,-0.00565,0.00427
8.653,-0.01022,-0.03479,-0.03601,-0.01511,-0.02548,-0.047,-0.01389,-0.00366,-1.96548,0.01862,0.04013,0.06744,-0.01236,-0.01984,-0.0058,-0.01038
8.6535,-0.01129,-0.0354,-0.03403,-0.01129,-0.02411,-0.04608,-0.01221,-0.00412,-1.82114,0.02243,0.06729,-0.01266,-0.01343,-0.02792,-0.00854,-0.02701
8.654,-0.01221,-0.0354,-0.03265,-0.0058,-0.02213,-0.04684,-0.01236,-0.00351,-1.65649,0.03159,0.06165,-0.06287,-0.0148,-0.03555,-0.01572,-0.04028
8.6545,-0.01251,-0.03586,-0.03174,-0.00427,-0.02029,-0.04578,-0.01282,-0.0029,-1.5094,0.03738,0.02884,-0.08224,-0.01587,-0.04532,-0.02396,-0.04211
8.655,-0.01175,-0.03693,-0.03296,-0.01785,-0.02014,-0.04578,-0.01343,-0.00305,-1.40732,0.03662,-0.00397,-0.0914,-0.01907,-0.05402,-0.02899,-0.0383
8.6555,-0.01129,-0.03891,-0.03555,-0.04807,-0.02014,-0.04608,-0.01419,-0.00366,-1.33469,0.0325,-0.02899,-0.10086,-0.02274,-0.05997,-0.02899,-0.03998
8.656,-0.01022,-0.03952,-0.03647,-0.08408,-0.02029,-0.04807,-0.01297,-0.00412,-1.25763,0.02655,-0.05447,-0.09995,-0.02487,-0.05936,-0.0209,-0.04501
8.6565,-0.009,-0.0386,-0.03494,-0.10895,-0.02014,-0.04944,-0.01175,-0.00275,-1.15936,0.01831,-0.06958,-0.07813,-0.02472,-0.05371,-0.00122,-0.04944
8.657,-0.00809,-0.03799,-0.03494,-0.11169,-0.01907,-0.05005,-0.01114,-0.00031,-1.04904,0.00946,-0.05249,-0.04562,-0.02106,-0.04395,0.03021,-0.0444
8.6575,-0.00809,-0.03738,-0.0351,-0.08362,-0.01694,-0.04883,-0.01328,0.00015,-0.94879,-0.00061,-0.00748,-0.02853,-0.01892,-0.03296,0.05936,-0.03326
8.658,-0.00824,-0.03784,-0.03632,-0.02563,-0.01694,-0.04822,-0.01404,0.0,-0.8725,-0.01007,0.03159,-0.04639,-0.01907,-0.02426,0.06134,-0.01404
8.6585,-0.0087,-0.03845,-0.03937,0.047,-0.01831,-0.04883,-0.01328,-0.00061,-0.79895,-0.02029,0.03723,-0.07645,-0.01999,-0.01953,0.03906,0.00153
8.659,-0.00946,-0.03845,-0.04105,0.11459,-0.02106,-0.04852,-0.01297,0.0,-0.70862,-0.02991,0.01373,-0.08545,-0.01999,-0.0174,0.02045,0.00107
8.6595,-0.00946,-0.03891,-0.0415,0.16541,-0.02319,-0.04868,-0.01419,0.00153,-0.61462,-0.03784,-0.01465,-0.06851,-0.01831,-0.01572,0.02304,-0.01678
8.66,-0.00992,-0.03952,-0.03967,0.18448,-0.02396,-0.04898,-0.0148,0.00168,-0.5423,-0.04471,-0.02869,-0.04059,-0.01816,-0.0145,0.03418,-0.02365
8.6605,-0.00931,-0.03967,-0.03784,0.15488,-0.02472,-0.0499,-0.01328,0.00198,-0.49591,-0.05173,-0.02563,-0.01343,-0.02029,-0.01465,0.03204,0.00549
8.661,-0.00916,-0.03891,-0.03555,0.08743,-0.02731,-0.04974,-0.01175,0.00137,-0.46265,-0.05325,-0.0177,0.01251,-0.02228,-0.0148,0.02167,0.05875
8.6615,-0.00793,-0.03738,-0.0351,0.02914,-0.02823,-0.0499,-0.01205,0.00275,-0.43549,-0.05066,-0.01709,0.01984,-0.02289,-0.0148,0.01068,0.10941
8.662,-0.00656,-0.03815,-0.03494,0.00946,-0.02914,-0.04898,-0.01373,0.00519,-0.41733,-0.04456,-0.0267,-0.00763,-0.02304,-0.01602,0.00824,0.16388
8.6625,-0.00549,-0.04028,-0.03494,0.01022,-0.02762,-0.04959,-0.01511,0.00519,-0.41092,-0.0351,-0.03876,-0.05142,-0.02563,-0.01785,0.01083,0.242
8.663,-0.00519,-0.04074,-0.03403,-0.00473,-0.02655,-0.04959,-0.01572,0.00259,-0.41367,-0.02182,-0.04654,-0.06927,-0.02808,-0.01877,0.0177,0.3093
8.6635,-0.00397,-0.04013,-0.03387,-0.04227,-0.02609,-0.04959,-0.01526,-0.00046,-0.42053,-0.00275,-0.05173,-0.04105,-0.02853,-0.01892,0.0325,0.29587
8.664,-0.00305,-0.03998,-0.03281,-0.07843,-0.02487,-0.04852,-0.01465,-0.00198,-0.42969,0.02075,-0.05676,0.0058,-0.02869,-0.01831,0.05173,0.18051
8.6645,-0.0029,-0.03998,-0.03128,-0.0943,-0.02518,-0.04898,-0.0148,-0.00229,-0.4425,0.03815,-0.06104,0.0325,-0.03235,-0.01923,0.05707,0.02457
8.665,-0.00397,-0.03967,-0.02869,-0.0885,-0.02243,-0.04776,-0.01495,-0.00244,-0.4628,0.04227,-0.06577,0.03265,-0.03845,-0.02045,0.0325,-0.07889
8.6655,-0.00656,-0.0383,-0.02579,-0.06424,-0.02167,-0.04807,-0.01404,-0.00229,-0.49362,0.03922,-0.07156,0.03281,-0.04272,-0.02136,-0.01328,-0.08606
8.666,-0.00793,-0.03876,-0.02441,-0.02731,-0.02335,-0.04883,-0.01205,-0.00122,-0.53696,0.04074,-0.07507,0.05219,-0.0441,-0.0209,-0.06195,-0.04654
8.6665,-0.00854,-0.03906,-0.02579,0.01083,-0.02304,-0.0502,-0.01129,-0.00076,-0.59235,0.04898,-0.07172,0.07568,-0.04578,-0.01755,-0.11002,-0.05173
8.667,-0.00778,-0.03998,-0.02884,0.03952,-0.02365,-0.04959,-0.01266,-0.00229,-0.64178,0.05188,-0.05875,0.07858,-0.04745,-0.01205,-0.15945,-0.11551
8.6675,-0.00748,-0.04059,-0.03143,0.06271,-0.02136,-0.04837,-0.01221,-0.00473,-0.66986,0.04593,-0.03998,0.0592,-0.04883,-0.00885,-0.18494,-0.159
8.668,-0.00748,-0.0415,-0.0322,0.09033,-0.01999,-0.04608,-0.01129,-0.0058,-0.6926,0.03403,-0.01938,0.03799,-0.04654,-0.00793,-0.14343,-0.13687
8.6685,-0.00809,-0.04288,-0.02975,0.10849,-0.02029,-0.04532,-0.01068,-0.00473,-0.72906,0.01984,-0.00168,0.03036,-0.04105,-0.00702,-0.05341,-0.11429
8.669,-0.00809,-0.04425,-0.03006,0.09598,-0.02472,-0.04852,-0.0116,-0.00443,-0.77133,0.00153,0.00793,0.03143,-0.0386,-0.0061,0.01205,-0.17212
8.6695,-0.00687,-0.0441,-0.03082,0.05707,-0.03006,-0.04929,-0.0116,-0.00381,-0.80505,-0.01892,0.01175,0.03159,-0.04135,-0.00565,0.03326,-0.29526
8.67,-0.00504,-0.04395,-0.03159,0.01678,-0.03418,-0.04913,-0.01053,-0.00397,-0.83389,-0.03326,0.01129,0.02838,-0.04517,-0.0058,0.0621,-0.39032
8.6705,-0.00351,-0.04471,-0.0325,-0.01831,-0.03571,-0.04776,-0.0116,-0.00336,-0.85983,-0.03693,0.00931,0.02197,-0.04684,-0.00656,0.1001,-0.39902
8.671,-0.00336,-0.04562,-0.03143,-0.0592,-0.03464,-0.0473,-0.0145,-0.00381,-0.88959,-0.03464,0.00687,0.01587,-0.04242,-0.00656,0.07843,-0.34149
8.6715,-0.00473,-0.04578,-0.02914,-0.10208,-0.03204,-0.04593,-0.01678,-0.00565,-0.92728,-0.03296,0.00137,0.01266,-0.03555,-0.0061,0.00214,-0.28244
8.672,-0.00504,-0.04532,-0.03052,-0.12939,-0.03235,-0.0441,-0.01648,-0.00885,-0.95963,-0.03525,-0.00366,0.01343,-0.02945,-0.00854,-0.04028,-0.25909
8.6725,-0.00443,-0.04517,-0.03067,-0.12222,-0.03479,-0.04379,-0.01572,-0.01114,-0.97382,-0.03815,-0.00671,0.01495,-0.02594,-0.01022,-0.02228,-0.26627
8.673,-0.00397,-0.04425,-0.03128,-0.0798,-0.0412,-0.04486,-0.01694,-0.0116,-0.98312,-0.03998,-0.00656,0.01328,-0.02411,-0.01144,-0.01785,-0.27634
8.6735,-0.00366,-0.0444,-0.03128,-0.0235,-0.04791,-0.04623,-0.01846,-0.01038,-1.00189,-0.03723,-0.00275,0.01007,-0.02258,-0.00977,-0.06851,-0.26093
8.674,-0.00473,-0.04425,-0.03052,0.01877,-0.05447,-0.04669,-0.02029,-0.00824,-1.02371,-0.0322,0.00122,0.009,-0.02136,-0.00595,-0.12436,-0.21744
8.6745,-0.00595,-0.04425,-0.03128,0.02396,-0.05692,-0.04761,-0.02106,-0.00702,-1.04187,-0.0264,0.00427,0.01297,-0.01953,-0.00153,-0.11353,-0.16693
8.675,-0.00656,-0.04425,-0.03342,-0.00366,-0.05463,-0.04868,-0.02075,-0.00717,-1.06049,-0.02258,0.00473,0.01831,-0.01755,0.00229,-0.01938,-0.13351
8.6755,-0.00549,-0.04501,-0.03418,-0.04379,-0.05371,-0.04929,-0.01907,-0.00732,-1.08215,-0.01831,0.00107,0.02029,-0.01572,0.00214,0.11963,-0.11108
8.676,-0.00565,-0.04669,-0.0322,-0.08682,-0.05524,-0.05051,-0.01556,-0.00809,-1.1026,-0.01175,-0.0058,0.01663,-0.01785,-0.00061,0.224,-0.07889
8.6765,-0.00565,-0.047,-0.03098,-0.13489,-0.05692,-0.05173,-0.01373,-0.0058,-1.11572,-0.00488,-0.01144,0.01068,-0.02167,-0.00778,0.22354,-0.03326
8.677,-0.00626,-0.04578,-0.03113,-0.1857,-0.05676,-0.05219,-0.01343,-0.00168,-1.12488,-0.00534,-0.01694,0.00549,-0.02533,-0.01587,0.1181,0.00473
8.6775,-0.00488,-0.0441,-0.03342,-0.21957,-0.05402,-0.05325,-0.01419,0.00183,-1.13373,-0.01419,-0.02792,0.00046,-0.02777,-0.02167,-0.02121,0.02701
8.678,-0.00336,-0.04395,-0.03403,-0.21545,-0.05219,-0.05386,-0.01297,0.0029,-1.14105,-0.02441,-0.04059,-0.00473,-0.02991,-0.02563,-0.12421,0.04745
8.6785,-0.00336,-0.04471,-0.03296,-0.15717,-0.05249,-0.0531,-0.01282,0.00031,-1.14365,-0.03159,-0.04425,-0.00854,-0.03387,-0.0296,-0.19241,0.06821
8.679,-0.00458,-0.04425,-0.03387,-0.0412,-0.05249,-0.0528,-0.01266,-0.0029,-1.14166,-0.03326,-0.03571,-0.01007,-0.0383,-0.03357,-0.28076,0.05844
8.6795,-0.00549,-0.04288,-0.03174,0.08789,-0.04837,-0.05157,-0.01343,-0.00458,-1.14151,-0.03403,-0.01877,-0.00793,-0.04272,-0.03387,-0.38574,0.01221
8.68,-0.00443,-0.04242,-0.03189,0.15076,-0.04166,-0.04898,-0.0145,-0.00412,-1.15311,-0.03586,-0.00381,-0.00565,-0.04486,-0.03418,-0.39337,-0.01801
8.6805,-0.0029,-0.04349,-0.03174,0.11826,-0.03754,-0.04532,-0.01617,-0.00305,-1.16531,-0.04044,-0.00458,-0.00626,-0.04669,-0.03677,-0.22232,0.01556
8.681,-0.00153,-0.04456,-0.03204,0.04517,-0.03845,-0.04318,-0.01862,-0.00473,-1.15982,-0.0441,-0.02808,-0.01007,-0.05127,-0.04288,0.0296,0.08026
8.6815,-0.00061,-0.04456,-0.03372,0.00153,-0.04288,-0.04349,-0.01953,-0.00854,-1.14029,-0.04349,-0.05585,-0.01328,-0.05798,-0.05081,0.21591,0.11261
8.682,-0.00061,-0.04395,-0.03311,0.00061,-0.04776,-0.04486,-0.01938,-0.01221,-1.12411,-0.03876,-0.06241,-0.01328,-0.0679,-0.0589,0.34546,0.10574
8.6825,-0.00092,-0.04364,-0.0322,0.02106,-0.05203,-0.04776,-0.01678,-0.01083,-1.11038,-0.03387,-0.04654,-0.01007,-0.07813,-0.06653,0.47272,0.10468
8.683,-0.00046,-0.04395,-0.03174,0.0441,-0.05447,-0.04852,-0.01434,-0.0061,-1.09467,-0.03281,-0.03235,-0.00671,-0.08743,-0.07065,0.5127,0.11719
8.6835,-0.00031,-0.04364,-0.03159,0.065,-0.056,-0.04852,-0.01297,-0.00198,-1.08124,-0.03876,-0.0296,-0.0058,-0.09552,-0.07095,0.38071,0.11307
8.684,0.0,-0.04349,-0.03235,0.07797,-0.05432,-0.04684,-0.01373,0.00046,-1.06659,-0.05051,-0.02151,-0.00687,-0.10208,-0.06683,0.17624,0.08179
8.6845,0.00137,-0.04211,-0.03311,0.07935,-0.05356,-0.04547,-0.01312,0.00198,-1.04675,-0.06271,0.00259,-0.00809,-0.1062,-0.05966,0.06577,0.04745
8.685,0.00244,-0.04013,-0.03265,0.06409,-0.05066,-0.04349,-0.00977,0.00458,-1.02341,-0.07065,0.03204,-0.00763,-0.10559,-0.04883,0.04318,0.02182
8.6855,0.00412,-0.03876,-0.03265,0.0354,-0.04562,-0.0412,-0.00809,0.00732,-0.98969,-0.06851,0.05005,-0.00656,-0.0972,-0.03677,-0.01038,-0.00412
8.686,0.00443,-0.03967,-0.03342,0.0,-0.03845,-0.04013,-0.00854,0.009,-0.94498,-0.05875,0.04822,-0.00809,-0.08316,-0.02655,-0.1326,-0.02899
8.6865,0.00381,-0.04181,-0.03357,-0.03967,-0.03342,-0.04074,-0.00992,0.00977,-0.90118,-0.04852,0.03403,-0.01129,-0.07065,-0.02151,-0.2359,-0.02579
8.687,0.00366,-0.04333,-0.03387,-0.08484,-0.03189,-0.04318,-0.01007,0.01053,-0.87051,-0.04242,0.02167,-0.01099,-0.06241,-0.02075,-0.23315,0.01907
8.6875,0.00443,-0.04288,-0.03464,-0.12222,-0.03281,-0.04547,-0.01022,0.009,-0.85022,-0.03738,0.01785,-0.00702,-0.05661,-0.02045,-0.13824,0.07187
8.688,0.00565,-0.04257,-0.0351,-0.13046,-0.03464,-0.04684,-0.01282,0.00473,-0.83191,-0.03006,0.02045,-0.00519,-0.05051,-0.0177,-0.04196,0.11642
8.6885,0.00549,-0.04257,-0.03372,-0.10895,-0.0325,-0.04868,-0.01694,-0.00153,-0.81009,-0.02365,0.02441,-0.00702,-0.04547,-0.01511,0.01114,0.18814
8.689,0.00458,-0.04364,-0.03265,-0.09125,-0.03448,-0.04883,-0.01953,-0.0058,-0.78171,-0.02136,0.02991,-0.00946,-0.04257,-0.0148,0.05722,0.29739
8.6895,0.0029,-0.04486,-0.03326,-0.1059,-0.03448,-0.04745,-0.01923,-0.00656,-0.75165,-0.02029,0.04044,-0.0087,-0.04227,-0.01694,0.11139,0.35629
8.69,0.00275,-0.04379,-0.03281,-0.14053,-0.03494,-0.04547,-0.01694,-0.00748,-0.72266,-0.01465,0.05127,-0.00473,-0.04028,-0.01678,0.10452,0.27283
8.6905,0.00259,-0.0412,-0.03265,-0.15747,-0.03418,-0.0444,-0.01587,-0.00931,-0.69687,-0.00397,0.05386,-0.00107,-0.03418,-0.01266,-0.00549,0.06668
8.691,0.00259,-0.03967,-0.03265,-0.13565,-0.03357,-0.04318,-0.01831,-0.01022,-0.67047,0.00809,0.04517,-0.00214,-0.02289,-0.00687,-0.14999,-0.15366
8.6915,0.00229,-0.04089,-0.03357,-0.08835,-0.02991,-0.04181,-0.0206,-0.0116,-0.64194,0.02029,0.0293,-0.00793,-0.01144,-0.00153,-0.21973,-0.31494
8.692,0.00259,-0.04318,-0.03357,-0.03616,-0.02853,-0.04074,-0.0206,-0.01358,-0.61371,0.02762,0.01373,-0.01465,-0.0029,0.00031,-0.16251,-0.41458
8.6925,0.00259,-0.04333,-0.03525,0.0296,-0.02808,-0.04257,-0.01923,-0.01587,-0.58899,0.02838,0.00397,-0.0177,-0.00092,-0.00031,-0.00214,-0.46387
8.693,0.00244,-0.04242,-0.03525,0.11017,-0.02686,-0.04486,-0.01801,-0.01358,-0.5751,0.01984,0.00473,-0.01572,-0.00092,-0.00336,0.18356,-0.44495
8.6935,0.00168,-0.0412,-0.03479,0.1651,-0.02472,-0.04669,-0.01678,-0.00824,-0.57327,0.00687,0.02319,-0.01343,-0.00122,-0.01038,0.298,-0.3714
8.694,0.00076,-0.04211,-0.03265,0.14679,-0.02136,-0.04684,-0.01633,-0.00473,-0.56671,-0.00397,0.06073,-0.01419,-0.00183,-0.01938,0.27985,-0.30869
8.6945,-0.00046,-0.04318,-0.03464,0.07263,-0.01907,-0.04547,-0.01633,-0.00519,-0.53925,-0.00717,0.0975,-0.01373,-0.00183,-0.02762,0.17075,-0.29877
8.695,-0.00183,-0.04395,-0.03387,0.00778,-0.01831,-0.04517,-0.01678,-0.00732,-0.50797,-0.00473,0.09689,-0.01114,-0.00229,-0.03006,0.06683,-0.30518
8.6955,-0.00275,-0.0444,-0.03387,-0.00946,-0.01587,-0.04547,-0.01755,-0.00824,-0.49347,0.00229,0.05463,-0.00687,-0.00259,-0.0264,0.02441,-0.27664
8.696,-0.00244,-0.04501,-0.03357,0.00183,-0.01404,-0.04639,-0.01785,-0.00885,-0.48309,0.00854,0.01572,-0.00534,-0.00229,-0.02075,0.02487,-0.22614
8.6965,-0.00183,-0.04578,-0.03311,0.01343,-0.01373,-0.04517,-0.0174,-0.00931,-0.46631,0.01251,0.0209,-0.00717,0.00092,-0.01785,0.03159,-0.18845
8.697,-0.00229,-0.04547,-0.03418,0.01648,-0.01602,-0.04471,-0.01556,-0.0087,-0.45212,0.01816,0.05142,-0.01038,0.00336,-0.01556,0.0296,-0.16205
8.6975,-0.00275,-0.04501,-0.0351,0.01694,-0.01968,-0.04562,-0.01343,-0.00687,-0.44662,0.02396,0.05615,-0.01175,0.00641,-0.01068,0.03723,-0.12695
8.698,-0.00366,-0.04517,-0.03586,0.01831,-0.02151,-0.04593,-0.01144,-0.00565,-0.44846,0.03006,0.0177,-0.01144,0.00763,-0.00198,0.07736,-0.08423
8.6985,-0.00504,-0.04532,-0.03601,0.02014,-0.02075,-0.04578,-0.01175,-0.00458,-0.45258,0.03067,-0.03815,-0.00916,0.00977,0.00671,0.12833,-0.05661
8.699,-0.00748,-0.04379,-0.03586,0.02029,-0.02014,-0.04486,-0.01266,-0.00351,-0.44403,0.02487,-0.08224,-0.00732,0.01099,0.01572,0.159,-0.04883
8.6995,-0.00916,-0.04242,-0.03708,0.01785,-0.01846,-0.04486,-0.01373,-0.00107,-0.4187,0.01541,-0.10483,-0.00671,0.01251,0.02579,0.14694,-0.04333
8.7,-0.00839,-0.04257,-0.03571,0.01328,-0.0177,-0.04547,-0.01404,-0.00061,-0.39459,0.0061,-0.10803,-0.00748,0.01343,0.03723,0.10956,-0.02625
8.7005,-0.00626,-0.04395,-0.03418,0.0119,-0.01907,-0.04486,-0.01312,-0.00168,-0.39063,0.00015,-0.0972,-0.00931,0.01236,0.04364,0.05615,-0.00702
8.701,-0.00519,-0.04501,-0.0351,0.01587,-0.02121,-0.04501,-0.01175,-0.00229,-0.39902,-0.00092,-0.08377,-0.00916,0.00977,0.04333,-0.00717,0.00778
8.7015,-0.0058,-0.04578,-0.03723,0.01968,-0.02258,-0.04501,-0.01083,-0.00122,-0.40451,-0.00183,-0.07874,-0.00793,0.00717,0.03876,-0.05402,0.01709
8.702,-0.00778,-0.04623,-0.03891,0.01694,-0.02274,-0.04547,-0.01144,0.00061,-0.41,-0.00809,-0.08606,-0.00763,0.00641,0.03571,-0.07187,0.0235
8.7025,-0.01099,-0.04623,-0.03693,0.00946,-0.02228,-0.04547,-0.01358,0.00137,-0.4216,-0.02045,-0.10345,-0.00839,0.0058,0.03448,-0.07294,0.02655
8.703,-0.01373,-0.04517,-0.03769,0.00488,-0.02243,-0.04608,-0.01404,0.00031,-0.44312,-0.03342,-0.11963,-0.00839,0.00473,0.03189,-0.06836,0.02304
8.7035,-0.01419,-0.04364,-0.03891,0.00671,-0.02289,-0.04715,-0.01312,-0.00122,-0.47043,-0.04135,-0.11658,-0.00626,0.00275,0.02197,-0.06165,0.01953
8.704,-0.01236,-0.0444,-0.04059,0.01144,-0.02319,-0.04868,-0.0119,-0.00244,-0.50339,-0.04349,-0.08972,-0.00427,0.0,0.00626,-0.08362,0.02213
8.7045,-0.01205,-0.04654,-0.04059,0.01099,-0.02319,-0.04944,-0.01251,-0.0032,-0.53986,-0.04456,-0.05508,-0.00443,-0.00168,-0.01205,-0.14511,0.03433
8.705,-0.01144,-0.04791,-0.03967,0.00687,-0.02258,-0.05066,-0.01373,-0.00305,-0.57968,-0.04608,-0.03586,-0.00626,-0.00198,-0.02823,-0.19531,0.05142
8.7055,-0.01114,-0.04852,-0.04013,0.00443,-0.02228,-0.05112,-0.0148,-0.00122,-0.62714,-0.04684,-0.03906,-0.00702,-0.00137,-0.04181,-0.19394,0.06653
8.706,-0.009,-0.04852,-0.03799,0.00336,-0.02289,-0.05096,-0.01373,0.00061,-0.69717,-0.04684,-0.05081,-0.00687,-0.00198,-0.0528,-0.17502,0.07843
8.7065,-0.00793,-0.047,-0.03922,0.00137,-0.02335,-0.05051,-0.01221,0.00137,-0.80627,-0.04562,-0.05569,-0.00946,-0.00244,-0.05844,-0.16953,0.0856
8.707,-0.00854,-0.04654,-0.0386,-0.00183,-0.0238,-0.0499,-0.01221,0.00061,-0.95383,-0.04333,-0.04837,-0.01312,-0.00473,-0.05844,-0.12619,0.08286
8.7075,-0.01053,-0.04532,-0.03906,-0.00732,-0.02441,-0.04959,-0.01221,-0.00046,-1.12122,-0.04044,-0.03387,-0.01297,-0.00656,-0.05508,0.00305,0.07004
8.708,-0.01114,-0.04517,-0.04044,-0.01221,-0.02594,-0.04929,-0.01251,-0.00214,-1.30157,-0.03906,-0.0206,-0.00931,-0.0087,-0.05157,0.14191,0.05219
8.7085,-0.01053,-0.04486,-0.04074,-0.0116,-0.02655,-0.0473,-0.01175,-0.0029,-1.53107,-0.03769,-0.01205,-0.00626,-0.0116,-0.047,0.19012,0.0322
8.709,-0.00992,-0.04501,-0.03906,-0.00412,-0.02701,-0.04547,-0.01099,-0.0032,-1.8866,-0.03662,-0.00778,-0.009,-0.01404,-0.03525,0.17365,0.01282
8.7095,-0.01053,-0.04593,-0.03891,0.00443,-0.02838,-0.04501,-0.01236,-0.00229,-2.49039,-0.03326,-0.00351,-0.01389,-0.01663,-0.01221,0.186,0.00046
8.71,-0.01129,-0.04562,-0.03662,0.00488,-0.02899,-0.04547,-0.01251,-0.0032,-3.40057,-0.02975,0.0,-0.0148,-0.01755,0.01266,0.21866,0.00351
8.7105,-0.01205,-0.04562,-0.03967,-0.00381,-0.02884,-0.0473,-0.01221,-0.0032,-4.30862,-0.02731,0.00061,-0.01099,-0.0177,0.02899,0.18539,0.02502
8.711,-0.01175,-0.04639,-0.03983,-0.01495,-0.03036,-0.04776,-0.01251,-0.00351,-4.70047,-0.02625,-0.00168,-0.00824,-0.01938,0.03342,0.07141,0.05508
8.7115,-0.01236,-0.04654,-0.04105,-0.02106,-0.03082,-0.04715,-0.01343,-0.00351,-4.57123,-0.02777,-0.00519,-0.00793,-0.02213,0.03082,-0.04028,0.07919
8.712,-0.01328,-0.04639,-0.04166,-0.02457,-0.03189,-0.04639,-0.01465,-0.00336,-4.32007,-0.03098,-0.00854,-0.00854,-0.02487,0.02472,-0.09995,0.09033
8.7125,-0.01328,-0.04623,-0.04028,-0.02792,-0.0325,-0.04562,-0.01495,-0.00351,-3.98392,-0.03387,-0.00946,-0.00717,-0.02533,0.01511,-0.12939,0.08804
8.713,-0.01358,-0.04623,-0.03891,-0.03159,-0.03281,-0.04608,-0.01465,-0.00305,-3.19077,-0.03387,-0.00839,-0.00351,-0.02426,0.00015,-0.15152,0.06927
8.7135,-0.01343,-0.04639,-0.03799,-0.03448,-0.03281,-0.04684,-0.01358,-0.00168,-1.93909,-0.0325,-0.00809,-0.00076,-0.02182,-0.01831,-0.15274,0.03326
8.714,-0.01404,-0.0444,-0.03906,-0.0354,-0.0325,-0.04623,-0.01373,0.00015,-0.72556,-0.02975,-0.00641,0.00137,-0.02182,-0.03494,-0.16998,-0.01251
8.7145,-0.01404,-0.04272,-0.04044,-0.03387,-0.03067,-0.04623,-0.0145,0.00214,0.14496,-0.02747,-0.00275,0.00336,-0.02487,-0.04532,-0.24353,-0.05295
8.715,-0.01373,-0.04272,-0.03769,-0.03143,-0.02991,-0.04654,-0.01602,0.00259,0.82306,-0.02731,0.00137,0.00153,-0.03052,-0.04669,-0.29861,-0.07843
8.7155,-0.01343,-0.04257,-0.0354,-0.03113,-0.02899,-0.047,-0.01724,0.00153,1.4624,-0.03098,0.0032,-0.00183,-0.0351,-0.03769,-0.18524,-0.08743
8.716,-0.01282,-0.04242,-0.03632,-0.03418,-0.02808,-0.0473,-0.01755,-0.00137,1.97327,-0.03723,0.00168,-0.0032,-0.03586,-0.02274,0.09689,-0.08865
8.7165,-0.01236,-0.04227,-0.0383,-0.03601,-0.02655,-0.04669,-0.01724,-0.00229,2.27554,-0.04211,-0.00229,-0.00214,-0.03494,-0.01053,0.34393,-0.08972
8.717,-0.01129,-0.04211,-0.03937,-0.03464,-0.02502,-0.04669,-0.01587,-0.00214,2.45575,-0.04303,-0.00748,0.0,-0.03479,-0.01144,0.3891,-0.09079
8.7175,-0.01022,-0.04074,-0.03876,-0.03082,-0.02747,-0.04623,-0.01358,-0.00031,2.60574,-0.04028,-0.01495,0.00031,-0.03815,-0.02609,0.28275,-0.08835
8.718,-0.00961,-0.03967,-0.03845,-0.02716,-0.02838,-0.04669,-0.01312,0.00046,2.7002,-0.03616,-0.02304,-0.00137,-0.04379,-0.04593,0.1767,-0.07751
8.7185,-0.00839,-0.03952,-0.03799,-0.02502,-0.02884,-0.04715,-0.01389,-0.00015,2.69287,-0.03479,-0.02686,-0.00198,-0.04974,-0.06516,0.13947,-0.06104
8.719,-0.00656,-0.04028,-0.04059,-0.02533,-0.02884,-0.04715,-0.01541,-0.00122,2.61322,-0.03555,-0.02396,-0.00015,-0.0528,-0.08011,0.13474,-0.0441
8.7195,-0.0058,-0.04074,-0.04196,-0.02548,-0.0264,-0.04898,-0.01587,-0.00229,2.5209,-0.03571,-0.01556,0.00168,-0.05203,-0.08591,0.11871,-0.03052
8.72,-0.00565,-0.04028,-0.04166,-0.02319,-0.0267,-0.04913,-0.01556,-0.00122,2.43622,-0.03357,-0.00793,0.00198,-0.05142,-0.07889,0.07431,-0.02151
8.7205,-0.00595,-0.03906,-0.03845,-0.01572,-0.02853,-0.0473,-0.01602,0.00015,2.35474,-0.02853,-0.00412,0.00168,-0.05066,-0.06699,-0.00153,-0.01846
8.721,-0.00595,-0.0383,-0.03693,-0.00473,-0.0325,-0.04486,-0.01602,0.00153,2.2876,-0.02228,-0.00275,0.00458,-0.04822,-0.05844,-0.09384,-0.02045
8.7215,-0.00671,-0.0386,-0.03662,0.00519,-0.03632,-0.04395,-0.01495,0.00031,2.25372,-0.01633,-0.00275,0.00778,-0.04547,-0.05402,-0.16251,-0.02899
8.722,-0.00778,-0.04028,-0.03693,0.01282,-0.03937,-0.04562,-0.01297,-0.00198,2.25281,-0.00946,-0.00519,0.00977,-0.04471,-0.04837,-0.1767,-0.04501
8.7225,-0.00824,-0.04211,-0.03708,0.01617,-0.04196,-0.04807,-0.0119,-0.00275,2.2908,0.00305,-0.00839,0.00961,-0.04807,-0.04196,-0.15488,-0.06119
8.723,-0.00748,-0.0415,-0.03647,0.01572,-0.04059,-0.04913,-0.01297,-0.00259,2.41013,0.02121,-0.01129,0.01007,-0.0531,-0.03754,-0.10818,-0.06805
8.7235,-0.00595,-0.04135,-0.03754,0.00885,-0.0386,-0.05005,-0.01343,-0.00153,2.65244,0.03525,-0.01038,0.0119,-0.05615,-0.03525,-0.01678,-0.06332
8.724,-0.00427,-0.04257,-0.03937,-0.00092,-0.03693,-0.04929,-0.01343,-0.00214,3.00949,0.03632,-0.00702,0.01434,-0.05646,-0.02823,0.12314,-0.0531
8.7245,-0.0029,-0.04593,-0.0386,-0.00992,-0.03799,-0.04776,-0.01389,-0.00336,3.43704,0.0264,-0.00717,0.01602,-0.05539,-0.01343,0.2356,-0.04578
8.725,-0.00137,-0.04822,-0.03586,-0.01511,-0.03906,-0.04761,-0.01434,-0.00305,3.9325,0.0148,-0.01068,0.0174,-0.05554,0.00183,0.21744,-0.04288
8.7255,-0.00107,-0.0473,-0.03342,-0.0174,-0.03922,-0.04654,-0.01465,-0.00305,4.50073,0.00534,-0.01404,0.01816,-0.05844,0.0087,0.07187,-0.04242
8.726,-0.00153,-0.04456,-0.03235,-0.01587,-0.03799,-0.047,-0.01511,-0.0029,4.94629,-0.00183,-0.01312,0.0174,-0.06363,0.01038,-0.07645,-0.04166
8.7265,-0.00137,-0.04166,-0.03189,-0.01144,-0.03571,-0.0473,-0.01556,-0.00336,4.99985,-0.00763,-0.00946,0.01526,-0.06699,0.01282,-0.10849,-0.0412
8.727,-0.00168,-0.04105,-0.03342,-0.00381,-0.03571,-0.04791,-0.01556,-0.00305,4.98001,-0.00992,-0.00809,0.01358,-0.06699,0.01862,-0.03586,-0.04196
8.7275,-0.00153,-0.04318,-0.03403,0.00412,-0.0354,-0.04898,-0.0148,-0.00336,4.92264,-0.01007,-0.00931,0.01236,-0.06592,0.02197,0.04395,-0.04547
8.728,-0.00153,-0.04456,-0.03448,0.00839,-0.03616,-0.0499,-0.01511,-0.00565,4.95377,-0.0116,-0.01053,0.01221,-0.06607,0.02014,0.05447,-0.04639
8.7285,-0.00107,-0.04501,-0.03281,0.00793,-0.03738,-0.05096,-0.01556,-0.00824,4.96399,-0.01312,-0.00778,0.01251,-0.06775,0.01526,-0.01312,-0.04501
8.729,-0.00076,-0.0444,-0.03265,0.00687,-0.03845,-0.05142,-0.01648,-0.00931,4.90997,-0.01312,-0.00412,0.0145,-0.06943,0.00778,-0.12421,-0.04425
8.7295,-0.00046,-0.04379,-0.0293,0.00809,-0.03754,-0.05127,-0.01694,-0.00809,4.85168,-0.00992,-0.00351,0.01633,-0.06989,-0.00229,-0.22797,-0.04379
8.73,-0.00046,-0.04532,-0.02731,0.00916,-0.03464,-0.0502,-0.01694,-0.00626,4.82529,-0.00702,-0.01053,0.01694,-0.07019,-0.01572,-0.27618,-0.04501
8.7305,0.00061,-0.04669,-0.02747,0.00885,-0.03052,-0.04959,-0.01694,-0.00534,4.80286,-0.00717,-0.02213,0.01556,-0.07202,-0.03403,-0.23376,-0.04654
8.731,0.00046,-0.04807,-0.02838,0.00961,-0.02853,-0.04974,-0.01556,-0.00488,4.76318,-0.00961,-0.03036,0.01556,-0.07462,-0.05356,-0.10254,-0.04761
8.7315,-0.00031,-0.04745,-0.02884,0.01297,-0.02762,-0.04822,-0.01404,-0.00381,4.72061,-0.01175,-0.03021,0.01724,-0.07538,-0.07431,0.04578,-0.04562
8.732,-0.00107,-0.04593,-0.0296,0.01755,-0.02899,-0.04669,-0.01419,-0.00427,4.68582,-0.01465,-0.02502,0.01862,-0.07339,-0.09262,0.11917,-0.04089
8.7325,-0.00153,-0.04471,-0.0293,0.02106,-0.02853,-0.047,-0.01465,-0.00473,4.65149,-0.01923,-0.02029,0.0177,-0.07095,-0.10132,0.10178,-0.03555
8.733,-0.00214,-0.0444,-0.02792,0.02335,-0.02777,-0.04745,-0.01511,-0.00443,4.60983,-0.02579,-0.01755,0.01541,-0.0679,-0.09323,0.04974,-0.03113
8.7335,-0.0032,-0.04379,-0.02762,0.02274,-0.0264,-0.04868,-0.01312,-0.00336,4.4603,-0.0325,-0.01358,0.01511,-0.06393,-0.07385,0.0,-0.02914
8.734,-0.00351,-0.04303,-0.02777,0.01892,-0.02563,-0.04974,-0.0119,-0.00244,3.54294,-0.03632,-0.00748,0.01587,-0.05966,-0.0528,-0.0354,-0.02869
8.7345,-0.00381,-0.04425,-0.0267,0.01114,-0.02472,-0.04929,-0.01221,-0.00183,1.01929,-0.03723,0.00092,0.01755,-0.05585,-0.03632,-0.01099,-0.03006
8.735,-0.00473,-0.04593,-0.02792,-0.00275,-0.02625,-0.04898,-0.01282,-0.00107,-2.2261,-0.03845,0.00916,0.01801,-0.05447,-0.0238,0.10239,-0.03036
8.7355,-0.00565,-0.047,-0.02808,-0.02213,-0.02777,-0.04807,-0.01251,-0.00076,-3.79456,-0.04822,0.01419,0.01892,-0.05341,-0.00961,0.24612,-0.03189
8.736,-0.00443,-0.04761,-0.02747,-0.0415,-0.02869,-0.04684,-0.01144,-0.00137,-2.89871,-0.06866,0.01328,0.01877,-0.05127,0.0061,0.30823,-0.04013
8.7365,-0.00168,-0.04639,-0.02563,-0.05524,-0.02991,-0.04654,-0.01022,-0.00214,-1.31348,-0.09064,0.0061,0.01648,-0.04791,0.01938,0.25314,-0.05188
8.737,-0.00076,-0.04501,-0.02472,-0.06042,-0.03052,-0.04745,-0.01099,-0.00198,-0.75287,-0.10269,-0.00107,0.01373,-0.04562,0.02747,0.14603,-0.05829
8.7375,-0.00198,-0.04395,-0.02365,-0.05783,-0.0325,-0.04669,-0.01266,-0.00275,-0.94635,-0.10193,-0.0032,0.01205,-0.04379,0.03342,0.05157,-0.05569
8.738,-0.0029,-0.04181,-0.02487,-0.05188,-0.0351,-0.04501,-0.01495,-0.00504,-0.88882,-0.08957,-0.00046,0.01221,-0.04196,0.0386,-0.02075,-0.0502
8.7385,-0.00168,-0.04074,-0.02487,-0.0412,-0.03693,-0.04501,-0.01602,-0.00717,-0.47546,-0.06989,0.00092,0.01282,-0.03891,0.03769,-0.07111,-0.05066
8.739,-0.00061,-0.04059,-0.0238,-0.02335,-0.03647,-0.0473,-0.01648,-0.00641,-0.18951,-0.04471,-0.00259,0.01297,-0.03632,0.02548,-0.06729,-0.05432
8.7395,0.0,-0.04166,-0.02151,0.00198,-0.03418,-0.04837,-0.01465,-0.00351,-0.15732,-0.01831,-0.01312,0.01175,-0.03479,0.00183,0.00671,-0.05295
8.74,-0.00076,-0.04135,-0.01968,0.02228,-0.03235,-0.04807,-0.0116,-0.00137,-0.16296,0.0061,-0.02823,0.00977,-0.03479,-0.02716,0.12527,-0.04532
8.7405,-0.00214,-0.04059,-0.02151,0.02533,-0.03143,-0.04791,-0.01038,0.0,-0.13504,0.02701,-0.04074,0.00748,-0.03601,-0.05234,0.21957,-0.04028
8.741,-0.00259,-0.03891,-0.02411,0.01144,-0.03326,-0.04745,-0.01175,0.00015,-0.16632,0.04013,-0.04471,0.00595,-0.03799,-0.06958,0.21317,-0.0415
8.7415,-0.00381,-0.03876,-0.0264,-0.00504,-0.03387,-0.04745,-0.01389,0.00092,-0.27374,0.04395,-0.04105,0.00534,-0.0412,-0.07645,0.09262,-0.04501
8.742,-0.00519,-0.04074,-0.02594,-0.01022,-0.03342,-0.04608,-0.01541,0.00046,-0.39063,0.04333,-0.03601,0.00534,-0.04456,-0.07416,-0.06638,-0.04654
8.7425,-0.00595,-0.04105,-0.02518,-0.00473,-0.03174,-0.047,-0.0148,0.0,-0.48584,0.04684,-0.03372,0.00443,-0.04364,-0.06592,-0.16556,-0.0473
8.743,-0.00534,-0.03967,-0.02289,0.00153,-0.02823,-0.04608,-0.01328,0.00061,-0.5809,0.05295,-0.03326,0.00366,-0.04028,-0.05386,-0.16907,-0.04868
8.7435,-0.00519,-0.0383,-0.02289,0.0,-0.02808,-0.04593,-0.01099,0.00168,-0.68832,0.05234,-0.03372,0.0032,-0.03677,-0.03906,-0.10452,-0.04745
8.744,-0.00549,-0.03845,-0.02411,-0.00946,-0.02899,-0.04593,-0.01038,0.00137,-0.79514,0.03586,-0.03189,0.00229,-0.03235,-0.01724,-0.00961,-0.04471
8.7445,-0.00595,-0.0383,-0.02548,-0.01907,-0.03082,-0.04578,-0.01083,-0.00046,-0.89279,0.01465,-0.02487,0.00137,-0.02899,0.01068,0.08392,-0.04074
8.745,-0.00534,-0.03632,-0.02609,-0.02548,-0.0322,-0.04578,-0.01175,-0.00198,-0.98572,0.00046,-0.0148,0.00153,-0.02655,0.03983,0.13962,-0.03906
8.7455,-0.00443,-0.03296,-0.02686,-0.03525,-0.03403,-0.04578,-0.01389,-0.00198,-1.08383,-0.00214,-0.009,0.00305,-0.02396,0.06424,0.13138,-0.04257
8.746,-0.00458,-0.03143,-0.02792,-0.05051,-0.03479,-0.04639,-0.01465,0.0,-1.18988,-0.00061,-0.00992,0.00336,-0.02228,0.08209,0.06088,-0.05432
8.7465,-0.0058,-0.03265,-0.02823,-0.06256,-0.03632,-0.047,-0.01465,0.00107,-1.2944,-0.00183,-0.01205,0.00183,-0.01938,0.09644,-0.02975,-0.07355
8.747,-0.00793,-0.03479,-0.02747,-0.0528,-0.0354,-0.047,-0.01373,-0.00015,-1.39511,-0.00534,-0.01373,-0.00031,-0.01694,0.10529,-0.09918,-0.09308
8.7475,-0.00793,-0.03479,-0.02625,-0.01755,-0.03281,-0.04623,-0.01251,-0.00214,-1.49658,-0.00809,-0.01541,-0.00381,-0.01511,0.10422,-0.14984,-0.1001
8.748,-0.00671,-0.0351,-0.02594,0.02563,-0.03174,-0.04578,-0.01266,-0.00259,-1.59103,-0.01144,-0.01923,-0.00626,-0.01495,0.08926,-0.20966,-0.07599
8.7485,-0.00702,-0.03494,-0.02655,0.0531,-0.0325,-0.04761,-0.01297,-0.00107,-1.66214,-0.01556,-0.02335,-0.00854,-0.01923,0.05966,-0.26062,-0.00946
8.749,-0.00854,-0.03418,-0.02808,0.05173,-0.03403,-0.04913,-0.01175,-0.00046,-1.71753,-0.02151,-0.02609,-0.01053,-0.02625,0.01801,-0.26733,0.07645
8.7495,-0.01007,-0.03326,-0.02762,0.03815,-0.0322,-0.04944,-0.01007,-0.00168,-1.77765,-0.02319,-0.02655,-0.01068,-0.02975,-0.0267,-0.25543,0.13565
8.75,-0.00946,-0.0322,-0.02686,0.03235,-0.02945,-0.04807,-0.01038,-0.00183,-1.83853,-0.02045,-0.03052,-0.00977,-0.0264,-0.06775,-0.26993,0.13748
8.7505,-0.00839,-0.03235,-0.02502,0.03036,-0.02914,-0.04639,-0.01312,0.0,-1.88843,-0.02136,-0.03815,-0.00793,-0.01892,-0.10284,-0.28824,0.09399
8.751,-0.0087,-0.03296,-0.02594,0.01617,-0.0293,-0.04593,-0.01434,0.00107,-1.93024,-0.02777,-0.04303,-0.00809,-0.01221,-0.13382,-0.28229,0.03357
8.7515,-0.00916,-0.03357,-0.02792,-0.01175,-0.02991,-0.04715,-0.01343,-0.00076,-1.96472,-0.03983,-0.03845,-0.01022,-0.01129,-0.15854,-0.31631,-0.03448
8.752,-0.00992,-0.0325,-0.02899,-0.03677,-0.0293,-0.04791,-0.01266,-0.00473,-1.99463,-0.05112,-0.03021,-0.01251,-0.01495,-0.16891,-0.44556,-0.10605
8.7525,-0.01083,-0.03098,-0.03036,-0.04471,-0.02792,-0.04715,-0.01297,-0.00626,-2.01965,-0.05554,-0.02548,-0.01205,-0.0177,-0.16098,-0.53101,-0.15549
8.753,-0.01205,-0.03021,-0.02899,-0.04135,-0.02701,-0.04578,-0.01282,-0.00565,-2.02896,-0.0499,-0.03479,-0.009,-0.01755,-0.13474,-0.36346,-0.14755
8.7535,-0.01266,-0.03098,-0.03006,-0.03738,-0.02701,-0.04608,-0.01221,-0.00565,-2.01752,-0.03708,-0.05539,-0.00534,-0.01434,-0.09918,0.03326,-0.09735
8.754,-0.0116,-0.0322,-0.03113,-0.03784,-0.02625,-0.04822,-0.01175,-0.00671,-2.0018,-0.02335,-0.06912,-0.00214,-0.01129,-0.05966,0.39551,-0.05997
8.7545,-0.00961,-0.03296,-0.03082,-0.03769,-0.02533,-0.04761,-0.01236,-0.00748,-1.99677,-0.01312,-0.05539,-0.00031,-0.00717,-0.02045,0.54764,-0.06973
8.755,-0.00961,-0.03311,-0.03113,-0.03525,-0.02457,-0.04761,-0.01282,-0.00641,-1.99829,-0.00565,-0.0148,0.0,-0.00275,0.01587,0.52185,-0.11002
8.7555,-0.01007,-0.03342,-0.03357,-0.03296,-0.02472,-0.04776,-0.01221,-0.00519,-1.99387,-0.00153,0.02914,-0.00046,0.00153,0.04272,0.40604,-0.15045
8.756,-0.01007,-0.03387,-0.03403,-0.03204,-0.02411,-0.04944,-0.01053,-0.00504,-1.97937,-0.00015,0.05707,-0.00244,0.0029,0.05386,0.27039,-0.17883
8.7565,-0.00946,-0.0351,-0.0351,-0.03586,-0.02197,-0.05005,-0.00931,-0.00641,-1.95648,0.00061,0.06699,-0.00534,-0.00229,0.04959,0.19623,-0.18356
8.757,-0.01022,-0.03662,-0.03342,-0.0444,-0.02106,-0.04837,-0.00931,-0.00778,-1.92871,0.00183,0.06546,-0.00793,-0.01236,0.03357,0.20294,-0.14923
8.7575,-0.0116,-0.03754,-0.03372,-0.05539,-0.02457,-0.04807,-0.01007,-0.00778,-1.89804,0.00168,0.05417,-0.00961,-0.02319,0.01312,0.23026,-0.08301
8.758,-0.01221,-0.03693,-0.03342,-0.06165,-0.0267,-0.04868,-0.01205,-0.00717,-1.86752,-0.00137,0.03723,-0.01007,-0.03098,-0.00259,0.22141,-0.02487
8.7585,-0.0116,-0.03586,-0.03326,-0.05722,-0.02838,-0.04898,-0.01266,-0.00656,-1.83823,-0.00931,0.02197,-0.0116,-0.0354,-0.01251,0.15991,-0.01312
8.759,-0.00916,-0.03555,-0.03387,-0.04608,-0.02853,-0.05005,-0.01266,-0.0058,-1.8071,-0.0209,0.01724,-0.01236,-0.03555,-0.01541,0.06058,-0.04196
8.7595,-0.00702,-0.03479,-0.03357,-0.0354,-0.02869,-0.05081,-0.01144,-0.00549,-1.76804,-0.03387,0.01877,-0.01022,-0.03204,-0.01373,-0.02045,-0.07263
8.76,-0.00656,-0.03387,-0.03296,-0.03204,-0.03052,-0.04974,-0.01022,-0.00488,-1.72409,-0.04608,0.01953,-0.00641,-0.02792,-0.00671,-0.01984,-0.07584
8.7605,-0.00671,-0.03296,-0.03204,-0.03189,-0.03387,-0.04807,-0.00977,-0.0058,-1.68671,-0.05325,0.01648,-0.00412,-0.02579,0.00092,0.0798,-0.05676
8.761,-0.00671,-0.03433,-0.03036,-0.02808,-0.03754,-0.04654,-0.01022,-0.0061,-1.66382,-0.05493,0.01068,-0.00412,-0.02609,0.00793,0.18539,-0.03418
8.7615,-0.00427,-0.03586,-0.03235,-0.01099,-0.03967,-0.047,-0.01022,-0.00595,-1.64047,-0.04974,0.00443,-0.00671,-0.0267,0.01358,0.17685,-0.02228
8.762,-0.00259,-0.03693,-0.03403,0.01678,-0.04166,-0.04837,-0.01007,-0.00443,-1.59622,-0.0412,-0.00534,-0.00809,-0.02609,0.0174,0.01633,-0.02121
8.7625,-0.00244,-0.03479,-0.03326,0.03922,-0.03998,-0.0473,-0.01038,-0.00198,-1.54053,-0.03433,-0.02151,-0.00732,-0.02411,0.01663,-0.17227,-0.02274
8.763,-0.00305,-0.03342,-0.03403,0.03494,-0.03769,-0.04562,-0.00977,-0.00015,-1.4888,-0.0296,-0.03632,-0.00687,-0.02258,0.01175,-0.233,-0.02167
8.7635,-0.00198,-0.03326,-0.03418,0.00824,-0.03754,-0.04547,-0.01053,0.00015,-1.43524,-0.02869,-0.03693,-0.00671,-0.02136,0.0061,-0.16403,-0.0174
8.764,0.0,-0.03494,-0.03403,-0.01755,-0.03738,-0.04517,-0.01038,-0.00122,-1.37573,-0.02869,-0.01968,-0.0058,-0.02014,-0.00031,-0.08667,-0.0145
8.7645,0.00092,-0.03494,-0.03494,-0.02426,-0.03632,-0.04486,-0.01083,-0.00351,-1.32187,-0.02914,0.00366,-0.00504,-0.02151,-0.01251,-0.04211,-0.01755
8.765,0.00076,-0.03357,-0.03525,-0.01694,-0.03296,-0.04639,-0.01083,-0.00595,-1.27594,-0.02792,0.01862,-0.00534,-0.02701,-0.02747,0.04135,-0.01801
8.7655,0.00092,-0.03342,-0.03464,-0.01129,-0.03098,-0.0473,-0.01083,-0.00595,-1.23474,-0.02701,0.01755,-0.0058,-0.03342,-0.04181,0.15244,-0.00977
8.766,0.00153,-0.03479,-0.03555,-0.01328,-0.03082,-0.04807,-0.01083,-0.00549,-1.19537,-0.02655,0.0032,-0.00671,-0.03754,-0.047,0.15854,0.00763
8.7665,0.00259,-0.03586,-0.03693,-0.01938,-0.03006,-0.05035,-0.01022,-0.00458,-1.14426,-0.02625,-0.01434,-0.0061,-0.0386,-0.04318,0.03265,0.02106
8.767,0.00381,-0.03632,-0.03708,-0.02502,-0.02884,-0.05173,-0.01083,-0.00351,-1.07712,-0.02655,-0.02518,-0.00595,-0.03952,-0.03586,-0.0737,0.01465
8.7675,0.00412,-0.03754,-0.03647,-0.02838,-0.02594,-0.05371,-0.01129,-0.00244,-1.01059,-0.02655,-0.02441,-0.00641,-0.04013,-0.03067,-0.05417,-0.00565
8.768,0.00504,-0.03891,-0.03586,-0.02792,-0.02457,-0.05249,-0.0119,-0.00336,-0.96252,-0.02808,-0.01968,-0.00626,-0.04013,-0.02777,0.03967,-0.01007
8.7685,0.00595,-0.04013,-0.03723,-0.02609,-0.0235,-0.05234,-0.01221,-0.00519,-0.92667,-0.03021,-0.02197,-0.00595,-0.03967,-0.02411,0.16098,0.02838
8.769,0.00656,-0.03967,-0.03784,-0.02533,-0.02365,-0.05112,-0.01205,-0.00626,-0.89081,-0.03082,-0.03403,-0.00717,-0.03967,-0.01694,0.29831,0.09232
8.7695,0.00687,-0.03952,-0.03555,-0.02518,-0.02396,-0.05249,-0.01266,-0.00549,-0.85144,-0.02594,-0.04532,-0.01083,-0.03906,-0.00839,0.37109,0.12436
8.77,0.00732,-0.03891,-0.03418,-0.02548,-0.0238,-0.05188,-0.01175,-0.00534,-0.81467,-0.01755,-0.04227,-0.01175,-0.03723,-0.00076,0.298,0.08194
8.7705,0.00793,-0.03922,-0.03448,-0.02563,-0.02441,-0.05081,-0.01114,-0.00519,-0.78445,-0.01175,-0.02731,-0.00839,-0.03586,0.0058,0.1564,-0.02335
8.771,0.00717,-0.03983,-0.03571,-0.02319,-0.0264,-0.04959,-0.01205,-0.00595,-0.76065,-0.01114,-0.01541,-0.00092,-0.03754,0.0119,0.08652,-0.13474
8.7715,0.0061,-0.03998,-0.03586,-0.02014,-0.0293,-0.04776,-0.01175,-0.00397,-0.74249,-0.01511,-0.01236,0.00519,-0.04135,0.01556,0.09018,-0.18478
8.772,0.0058,-0.04059,-0.03571,-0.02197,-0.03281,-0.04745,-0.01144,-0.00305,-0.72815,-0.02151,-0.01465,0.00702,-0.04349,0.01602,0.06683,-0.13885
8.7725,0.00702,-0.04089,-0.03662,-0.02991,-0.03479,-0.04745,-0.01129,-0.00366,-0.71426,-0.02579,-0.01572,0.0032,-0.04166,0.01129,-0.01022,-0.04318
8.773,0.00854,-0.04074,-0.03784,-0.03784,-0.03632,-0.04776,-0.0119,-0.00427,-0.70145,-0.02457,-0.01755,-0.00198,-0.03876,0.00702,-0.09827,0.00275
8.7735,0.0087,-0.04105,-0.03799,-0.03479,-0.03708,-0.04761,-0.01236,-0.00336,-0.6926,-0.01755,-0.02228,-0.00488,-0.03571,0.00397,-0.18143,-0.04807
8.774,0.00931,-0.04089,-0.03723,-0.01709,-0.03937,-0.0473,-0.01221,-0.00244,-0.69626,-0.00946,-0.03265,-0.00214,-0.03372,0.00076,-0.25177,-0.13779
8.7745,0.01022,-0.04059,-0.03601,0.00549,-0.04547,-0.04837,-0.01038,-0.00229,-0.7196,-0.0058,-0.05035,0.00336,-0.0322,-0.00687,-0.25131,-0.1741
8.775,0.01068,-0.04166,-0.0351,0.01877,-0.04608,-0.04776,-0.00977,-0.0029,-0.75653,-0.0087,-0.0824,0.00549,-0.03082,-0.01862,-0.12756,-0.12711
8.7755,0.01007,-0.04318,-0.03494,0.01434,-0.04761,-0.04868,-0.01053,-0.00412,-0.79773,-0.01633,-0.12634,0.00351,-0.0293,-0.03204,0.0795,-0.04333
8.776,0.01053,-0.04303,-0.03662,0.0,-0.04807,-0.04913,-0.01175,-0.00549,-0.85358,-0.02396,-0.17258,0.00137,-0.0296,-0.04501,0.24673,0.00076
8.7765,0.01282,-0.04074,-0.03998,-0.01129,-0.04608,-0.0502,-0.01266,-0.00595,-0.93384,-0.02808,-0.20477,0.00183,-0.03036,-0.05859,0.27115,-0.0293
8.777,0.01495,-0.03952,-0.03952,-0.01434,-0.04227,-0.0502,-0.01312,-0.00641,-1.02707,-0.02579,-0.2063,0.00473,-0.03143,-0.07187,0.14755,-0.08743
8.7775,0.01526,-0.04166,-0.03784,-0.01312,-0.0383,-0.04791,-0.01389,-0.00626,-1.13113,-0.01816,-0.16327,0.00732,-0.03326,-0.08331,-0.03525,-0.1123
8.778,0.01328,-0.04349,-0.03571,-0.01038,-0.03464,-0.04654,-0.01465,-0.00534,-1.25336,-0.00885,-0.08926,0.009,-0.03952,-0.09094,-0.16907,-0.0914
8.7785,0.01099,-0.04349,-0.03525,-0.00824,-0.03448,-0.047,-0.01495,-0.00427,-1.37787,0.00031,-0.01801,0.01022,-0.04944,-0.09186,-0.20676,-0.06195
8.779,0.01038,-0.04333,-0.0354,-0.0058,-0.03647,-0.05005,-0.0148,-0.00381,-1.48834,0.00687,0.02853,0.009,-0.05829,-0.08591,-0.17426,-0.05188
8.7795,0.01129,-0.04364,-0.03555,-0.00443,-0.03952,-0.05112,-0.01266,-0.00427,-1.60583,0.0061,0.05798,0.00595,-0.06409,-0.0705,-0.10361,-0.05386
8.78,0.01236,-0.04425,-0.03555,-0.00381,-0.04089,-0.04974,-0.01251,-0.00473,-1.76392,-0.00671,0.08636,0.0032,-0.06485,-0.05234,-0.01175,-0.05341
8.7805,0.01266,-0.0441,-0.03677,-0.00504,-0.03998,-0.047,-0.01282,-0.00397,-1.95404,-0.02716,0.11444,0.00336,-0.06302,-0.03571,0.0679,-0.06241
8.781,0.01175,-0.04257,-0.03708,-0.00656,-0.03906,-0.04578,-0.01373,-0.00275,-2.12311,-0.04501,0.13535,0.00565,-0.06012,-0.02151,0.09857,-0.09689
8.7815,0.00977,-0.0412,-0.03586,-0.00946,-0.03891,-0.04578,-0.01419,-0.0029,-2.21603,-0.05386,0.1416,0.00748,-0.05447,-0.0116,0.08667,-0.1387
8.782,0.00854,-0.04074,-0.03464,-0.01175,-0.03723,-0.047,-0.01358,-0.00443,-2.21725,-0.0528,0.13626,0.00717,-0.04776,-0.00458,0.06668,-0.13168
8.7825,0.00763,-0.04074,-0.03586,-0.01236,-0.03647,-0.04807,-0.01236,-0.00534,-2.15759,-0.04745,0.12741,0.00687,-0.04028,-0.00107,0.05112,-0.056
8.783,0.0061,-0.04028,-0.03662,-0.01236,-0.03387,-0.04868,-0.01114,-0.0058,-2.08618,-0.03754,0.1178,0.0061,-0.03372,-0.00076,0.03891,0.03265
8.7835,0.00549,-0.04089,-0.03784,-0.01251,-0.03082,-0.04837,-0.01099,-0.00534,-2.02209,-0.02762,0.10086,0.00565,-0.0293,-0.00275,0.03265,0.06805
8.784,0.00626,-0.04166,-0.03784,-0.0119,-0.02792,-0.04791,-0.01266,-0.00488,-1.92825,-0.02274,0.06287,0.00549,-0.02731,-0.0029,0.03143,0.04303
8.7845,0.00626,-0.04318,-0.03906,-0.01083,-0.0267,-0.04593,-0.01434,-0.00458,-1.75522,-0.02243,-0.00595,0.00549,-0.02686,-0.00214,0.02518,0.00122
8.785,0.00565,-0.04517,-0.03952,-0.00992,-0.02747,-0.04395,-0.01434,-0.00336,-1.49872,-0.0206,-0.08972,0.00534,-0.02686,-0.00107,0.00839,-0.0238
8.7855,0.00381,-0.04639,-0.0383,-0.00977,-0.02884,-0.04333,-0.01434,-0.0032,-1.20941,-0.0119,-0.14023,0.00488,-0.02548,0.00137,-0.01312,-0.0322
8.786,0.00366,-0.04501,-0.03723,-0.01129,-0.03113,-0.04364,-0.0177,-0.00305,-0.93033,-0.00244,-0.12131,0.00626,-0.02136,0.00427,-0.02533,-0.03525
8.7865,0.00504,-0.04364,-0.03845,-0.01221,-0.02945,-0.04562,-0.02304,-0.0029,-0.65491,-0.00153,-0.0592,0.00641,-0.01801,0.00687,-0.02411,-0.03799
8.787,0.0058,-0.04211,-0.04059,-0.01266,-0.02838,-0.04669,-0.02899,-0.00336,-0.36606,-0.01114,-0.00549,0.00427,-0.01984,0.00336,-0.01663,-0.04211
8.7875,0.00458,-0.04135,-0.04242,-0.01358,-0.03159,-0.04623,-0.0351,-0.00244,-0.07904,-0.0235,0.01663,0.00153,-0.02548,-0.00534,-0.01724,-0.04715
8.788,0.00168,-0.04196,-0.0412,-0.01389,-0.03265,-0.04623,-0.04333,-0.00259,0.17761,-0.02731,0.02762,-0.00076,-0.02808,-0.01389,-0.02777,-0.05112
8.7885,0.00031,-0.04242,-0.03784,-0.01328,-0.03326,-0.04715,-0.047,-0.00305,0.39993,-0.01907,0.04623,-0.00122,-0.02441,-0.01465,-0.03677,-0.05127
8.789,0.00092,-0.04318,-0.03708,-0.0116,-0.03326,-0.04868,-0.0386,-0.00305,0.60593,-0.00351,0.06577,0.00076,-0.01801,-0.00519,-0.03784,-0.047
8.7895,0.0032,-0.04303,-0.03815,-0.00961,-0.03235,-0.04868,-0.01801,-0.00305,0.80017,0.00717,0.07141,0.0029,-0.01114,0.01465,-0.03448,-0.03922
8.79,0.00412,-0.04395,-0.03967,-0.00809,-0.03006,-0.04761,0.00473,-0.00366,0.98419,0.00626,0.06134,0.00473,-0.0032,0.0383,-0.03265,-0.03433
8.7905,0.00336,-0.04486,-0.04044,-0.00763,-0.02625,-0.04761,0.02228,-0.0032,1.17386,-0.00366,0.04898,0.00549,0.00397,0.05325,-0.03418,-0.03693
8.791,0.00183,-0.04425,-0.03998,-0.00778,-0.02548,-0.04761,0.02502,-0.00092,1.37772,-0.01541,0.04135,0.00595,0.00549,0.05814,-0.03601,-0.04395
8.7915,0.00107,-0.04242,-0.03906,-0.00824,-0.02625,-0.04807,0.0148,0.00092,1.57715,-0.02289,0.03769,0.00656,-0.00031,0.05386,-0.03616,-0.04578
8.792,0.00031,-0.04074,-0.0386,-0.00824,-0.02716,-0.04837,0.00381,0.00046,1.7543,-0.02518,0.02884,0.00687,-0.00824,0.04822,-0.0351,-0.03906
8.7925,-0.00092,-0.03983,-0.03891,-0.00854,-0.02808,-0.04715,0.00168,-0.00137,1.91254,-0.02335,0.01205,0.00473,-0.01587,0.04303,-0.03433,-0.03189
8.793,0.0,-0.03906,-0.03891,-0.00854,-0.0264,-0.04654,0.00656,-0.00198,2.06619,-0.02319,-0.01038,0.0032,-0.02243,0.03433,-0.03387,-0.03098
8.7935,-0.00015,-0.0383,-0.03876,-0.00854,-0.02472,-0.04593,0.00488,-0.00229,2.21939,-0.0296,-0.03052,0.00198,-0.03204,0.01785,-0.03418,-0.03464
8.794,0.00046,-0.03784,-0.03754,-0.00824,-0.02548,-0.04593,-0.00687,-0.00275,2.35138,-0.04379,-0.0441,0.00153,-0.04349,-0.00198,-0.03265,-0.03784
8.7945,-0.00092,-0.03891,-0.03738,-0.00748,-0.02655,-0.04593,-0.01923,-0.0029,2.44049,-0.05234,-0.0502,0.00244,-0.05356,-0.02014,-0.03006,-0.03601
8.795,-0.00275,-0.03906,-0.03708,-0.00641,-0.03098,-0.04547,-0.02396,-0.00259,2.49084,-0.04822,-0.05219,0.0029,-0.05707,-0.0354,-0.02899,-0.03616
8.7955,-0.00519,-0.03906,-0.0386,-0.00595,-0.03387,-0.04608,-0.0209,-0.00153,2.5209,-0.03235,-0.05112,0.00214,-0.05386,-0.05356,-0.02808,-0.0386
8.796,-0.0061,-0.0383,-0.03876,-0.00717,-0.03418,-0.0473,-0.01709,0.00046,2.53876,-0.01282,-0.04883,0.00168,-0.04929,-0.07477,-0.02716,-0.03922
8.7965,-0.00732,-0.03784,-0.03998,-0.00839,-0.03281,-0.04791,-0.01633,0.00092,2.54196,0.0032,-0.04608,0.00153,-0.04578,-0.0914,-0.0267,-0.03876
8.797,-0.009,-0.03876,-0.03922,-0.009,-0.0322,-0.04761,-0.0177,-0.00076,2.53372,0.01617,-0.04074,0.00122,-0.04318,-0.10025,-0.02563,-0.03876
8.7975,-0.01068,-0.03891,-0.03784,-0.00961,-0.03525,-0.04654,-0.0177,-0.00305,2.52563,0.02991,-0.0322,0.00015,-0.03998,-0.10147,-0.02396,-0.03891
8.798,-0.01205,-0.03906,-0.03738,-0.00977,-0.03555,-0.04669,-0.01678,-0.00381,2.52899,0.04028,-0.02457,0.00046,-0.03799,-0.10025,-0.02151,-0.03891
8.7985,-0.01221,-0.03952,-0.03723,-0.00931,-0.03418,-0.04639,-0.01633,-0.0029,2.53662,0.04196,-0.02579,0.00061,-0.03815,-0.09903,-0.02045,-0.03784
8.799,-0.01114,-0.04059,-0.03708,-0.00824,-0.03189,-0.04639,-0.01633,-0.00305,2.53998,0.03601,-0.02502,0.00137,-0.03906,-0.09735,-0.01816,-0.0386
8.7995,-0.00992,-0.04044,-0.03632,-0.00702,-0.03098,-0.04669,-0.01602,-0.00504,2.54318,0.02991,-0.00519,0.00214,-0.03922,-0.09491,-0.0148,-0.04028
8.8,-0.00916,-0.03952,-0.03479,-0.00595,-0.03067,-0.04517,-0.01526,-0.00427,2.55234,0.02304,0.03159,0.00229,-0.04013,-0.09125,-0.01129,-0.04044
8.8005,-0.0087,-0.0386,-0.03387,-0.00626,-0.03067,-0.04501,-0.01556,-0.00122,2.55432,0.01175,0.05951,0.00183,-0.04288,-0.08759,-0.009,-0.03952
8.801,-0.01007,-0.0383,-0.03387,-0.00702,-0.02975,-0.04517,-0.01755,0.00046,2.52853,-0.01114,0.06317,0.00076,-0.04501,-0.08835,-0.01038,-0.03983
8.8015,-0.01221,-0.03906,-0.03494,-0.00702,-0.02838,-0.04669,-0.01923,0.0,2.46841,-0.04593,0.05264,-0.00031,-0.04272,-0.09689,-0.01038,-0.03998
8.802,-0.01572,-0.03983,-0.03586,-0.00626,-0.02762,-0.04654,-0.01999,-0.00092,2.39868,-0.08148,0.03723,-0.00092,-0.03891,-0.10986,-0.01068,-0.03967
8.8025,-0.01755,-0.04135,-0.03693,-0.00534,-0.02777,-0.04639,-0.01938,-0.00092,2.3439,-0.10681,0.0174,-0.00061,-0.03296,-0.11337,-0.00961,-0.0386
8.803,-0.01602,-0.04303,-0.03708,-0.00549,-0.02777,-0.04868,-0.01801,0.00046,2.29691,-0.10651,-0.00839,0.0,-0.0267,-0.09827,-0.00885,-0.03922
8.8035,-0.01389,-0.04288,-0.03601,-0.00671,-0.02808,-0.04944,-0.0177,0.00092,2.24289,-0.08484,-0.03983,0.00061,-0.01923,-0.06546,-0.0058,-0.04166
8.804,-0.01404,-0.04196,-0.03555,-0.00809,-0.02914,-0.04944,-0.01755,0.00015,2.19284,-0.05798,-0.08041,0.00214,-0.01068,-0.02228,-0.00214,-0.04333
8.8045,-0.01724,-0.04044,-0.03479,-0.0087,-0.03021,-0.04822,-0.01678,-0.00061,2.15958,-0.03662,-0.1387,0.0029,-0.00397,0.0206,0.00244,-0.0412
8.805,-0.02029,-0.04013,-0.03525,-0.00824,-0.03082,-0.047,-0.01511,-0.00153,2.13623,-0.02655,-0.20279,0.00259,-0.00351,0.04654,0.00214,-0.03983
8.8055,-0.02029,-0.04089,-0.0351,-0.00748,-0.03036,-0.04745,-0.01312,-0.00214,2.11395,-0.02747,-0.24506,0.00137,-0.01022,0.04944,0.00092,-0.04013
8.806,-0.01877,-0.0412,-0.03296,-0.00687,-0.03174,-0.04837,-0.01465,-0.00122,2.09259,-0.03311,-0.24719,0.00031,-0.01801,0.03906,0.00168,-0.04105
8.8065,-0.01801,-0.04059,-0.03174,-0.0061,-0.03174,-0.0473,-0.01785,-0.00092,2.08298,-0.03494,-0.21393,0.0,-0.02289,0.02945,0.00534,-0.0415
8.807,-0.01846,-0.04044,-0.03174,-0.00778,-0.02991,-0.04608,-0.0206,-0.00061,2.09717,-0.02777,-0.16357,-0.00031,-0.02502,0.0235,0.01022,-0.04059
8.8075,-0.01892,-0.04166,-0.0325,-0.009,-0.02853,-0.047,-0.01953,-0.00137,2.12219,-0.01511,-0.11673,-0.00076,-0.0238,0.01602,0.01068,-0.0415
8.808,-0.01892,-0.04379,-0.03342,-0.00916,-0.02808,-0.04822,-0.01755,-0.00183,2.13333,-0.00854,-0.09293,-0.00046,-0.02228,0.00458,0.00977,-0.04272
8.8085,-0.01907,-0.04349,-0.03403,-0.00961,-0.02777,-0.04837,-0.01678,-0.00153,2.12631,-0.00519,-0.09171,0.0,-0.02151,-0.00854,0.009,-0.0444
8.809,-0.01984,-0.04272,-0.03326,-0.00946,-0.02899,-0.04684,-0.01572,-0.00076,2.11823,0.0,-0.08636,0.00122,-0.02167,-0.01709,0.01007,-0.04562
8.8095,-0.02045,-0.04196,-0.03265,-0.00946,-0.02884,-0.04547,-0.0148,-0.00046,2.12067,0.00534,-0.04883,0.00122,-0.02274,-0.02121,0.01129,-0.04562
8.81,-0.01999,-0.04135,-0.03342,-0.0087,-0.02792,-0.04517,-0.01297,-0.00046,2.11945,0.0058,0.00778,0.00076,-0.02243,-0.02411,0.0119,-0.04547
8.8105,-0.01968,-0.04166,-0.03387,-0.00885,-0.02625,-0.04532,-0.01251,-0.00046,2.08817,-0.00107,0.04883,-0.00031,-0.02167,-0.02991,0.01251,-0.04456
8.811,-0.01892,-0.04196,-0.03311,-0.01038,-0.02594,-0.04532,-0.01266,-0.00031,2.02652,-0.00671,0.06683,-0.00214,-0.02136,-0.03845,0.01373,-0.04333
8.8115,-0.0177,-0.0412,-0.03098,-0.0119,-0.02533,-0.04501,-0.01358,-0.00137,1.96457,0.00046,0.08194,-0.00381,-0.02167,-0.047,0.01556,-0.04349
8.812,-0.01785,-0.04089,-0.03036,-0.0116,-0.02502,-0.04593,-0.01495,-0.00214,1.93405,0.02182,0.10468,-0.00336,-0.02365,-0.04791,0.01602,-0.0444
8.8125,-0.01877,-0.0415,-0.03342,-0.01053,-0.02747,-0.04837,-0.01602,-0.00275,1.93405,0.04059,0.11917,-0.00153,-0.02609,-0.03586,0.01572,-0.04669
8.813,-0.01785,-0.04349,-0.03571,-0.00885,-0.02823,-0.05005,-0.01587,-0.00214,1.94229,0.04013,0.11795,0.0,-0.02838,-0.01511,0.01572,-0.04684
8.8135,-0.01724,-0.04318,-0.03632,-0.00961,-0.03021,-0.0499,-0.01602,-0.00198,1.94458,0.01846,0.1004,0.00061,-0.03281,0.00336,0.01694,-0.0444
8.814,-0.01617,-0.04211,-0.03525,-0.01114,-0.03128,-0.04883,-0.01678,-0.00244,1.94275,-0.00671,0.07141,0.00031,-0.03845,0.01068,0.01892,-0.04303
8.8145,-0.01511,-0.04318,-0.03342,-0.01251,-0.03052,-0.04837,-0.01709,-0.00351,1.94046,-0.01923,0.03372,0.00046,-0.04227,0.00549,0.01862,-0.04379
8.815,-0.01389,-0.04593,-0.03342,-0.01266,-0.0296,-0.04715,-0.01648,-0.00534,1.93344,-0.01801,-0.00412,0.00031,-0.04364,-0.00244,0.01709,-0.04578
8.8155,-0.01236,-0.04745,-0.0325,-0.01144,-0.02899,-0.04654,-0.01648,-0.00671,1.92352,-0.01556,-0.02457,-0.00336,-0.04333,-0.0087,0.01602,-0.04517
8.816,-0.01175,-0.04745,-0.03159,-0.01068,-0.02975,-0.04669,-0.01495,-0.00656,1.91528,-0.0206,-0.02686,-0.01038,-0.04318,-0.01617,0.01785,-0.04425
8.8165,-0.01205,-0.04547,-0.03235,-0.01007,-0.03052,-0.04684,-0.01526,-0.00534,1.90292,-0.02853,-0.01785,-0.01572,-0.04333,-0.02975,0.02029,-0.04196
8.817,-0.01114,-0.04257,-0.03387,-0.00992,-0.03021,-0.04807,-0.01648,-0.00488,1.88675,-0.02914,-0.00961,-0.01266,-0.04547,-0.04745,0.0206,-0.04333
8.8175,-0.01022,-0.04089,-0.03464,-0.00916,-0.03159,-0.04898,-0.01724,-0.00443,1.88217,-0.01801,-0.00748,-0.00427,-0.04852,-0.06577,0.01968,-0.0444
8.818,-0.00961,-0.04135,-0.03403,-0.00763,-0.03021,-0.04868,-0.01755,-0.0032,1.89377,-0.00443,-0.01144,0.00351,-0.05081,-0.0769,0.01816,-0.04471
8.8185,-0.00931,-0.04318,-0.03235,-0.00702,-0.03113,-0.04898,-0.01678,-0.00214,1.91055,0.00137,-0.01709,0.00916,-0.05081,-0.0798,0.01602,-0.0441
8.819,-0.0087,-0.0441,-0.03204,-0.00702,-0.03143,-0.04852,-0.01556,-0.00244,1.94046,-0.00458,-0.01907,0.02029,-0.04913,-0.07019,0.01709,-0.04425
8.8195,-0.00778,-0.04395,-0.03372,-0.0061,-0.03204,-0.04913,-0.01511,-0.00351,2.00012,-0.01526,-0.01572,0.03922,-0.04425,-0.04669,0.0177,-0.04486
8.82,-0.0061,-0.04272,-0.03372,-0.00641,-0.03189,-0.04898,-0.01541,-0.00458,2.06039,-0.02274,-0.00488,0.05737,-0.03708,-0.01312,0.01816,-0.04639
8.8205,-0.00519,-0.04196,-0.03311,-0.00778,-0.03159,-0.04883,-0.01572,-0.00458,2.02393,-0.02106,0.01266,0.06302,-0.02838,0.02274,0.01724,-0.04639
8.821,-0.00595,-0.04181,-0.03143,-0.00992,-0.03342,-0.0499,-0.01572,-0.00534,1.81076,-0.01556,0.03525,0.05447,-0.01953,0.05112,0.01709,-0.0473
8.8215,-0.00595,-0.04181,-0.03128,-0.01038,-0.0351,-0.05127,-0.01602,-0.00504,1.45477,-0.01343,0.04883,0.03189,-0.0119,0.06622,0.01877,-0.04684
8.822,-0.00504,-0.0412,-0.03113,-0.01053,-0.0351,-0.05112,-0.01633,-0.00504,1.06995,-0.0174,0.03494,-0.00107,-0.00702,0.06927,0.02045,-0.04486
8.8225,-0.00381,-0.03876,-0.03235,-0.01114,-0.0354,-0.04929,-0.01633,-0.00504,0.74127,-0.02258,-0.00458,-0.03616,-0.0061,0.06317,0.02228,-0.04288
8.823,-0.00397,-0.03784,-0.0322,-0.01282,-0.03571,-0.04776,-0.01404,-0.00305,0.49759,-0.02167,-0.03952,-0.06287,-0.00854,0.0528,0.02274,-0.0412
8.8235,-0.00504,-0.03922,-0.03143,-0.01389,-0.03632,-0.04807,-0.01129,0.00061,0.36163,-0.01892,-0.04349,-0.07721,-0.0119,0.0412,0.02029,-0.04028
8.824,-0.00534,-0.04074,-0.03143,-0.01511,-0.03769,-0.04852,-0.01068,0.00397,0.3447,-0.02121,-0.0177,-0.08286,-0.01617,0.0325,0.01846,-0.04105
8.8245,-0.00504,-0.04211,-0.0322,-0.01465,-0.03769,-0.04837,-0.01266,0.00443,0.39978,-0.03265,0.01266,-0.0737,-0.01862,0.02792,0.01755,-0.04211
8.825,-0.00458,-0.04181,-0.03433,-0.01404,-0.03799,-0.047,-0.01434,0.00229,0.43808,-0.04974,0.02731,-0.04517,-0.01923,0.02304,0.01862,-0.04227
8.8255,-0.00443,-0.0412,-0.03479,-0.01526,-0.03738,-0.04745,-0.01389,-0.00107,0.41946,-0.05966,0.0174,-0.00854,-0.01938,0.01617,0.01984,-0.03967
8.826,-0.00427,-0.04074,-0.03433,-0.01633,-0.03525,-0.04776,-0.01251,-0.00336,0.36545,-0.05707,-0.01389,0.0116,-0.02136,0.00839,0.01907,-0.03708
8.8265,-0.00504,-0.04135,-0.0322,-0.01694,-0.03326,-0.04883,-0.01312,-0.00427,0.27542,-0.04608,-0.04654,0.01419,-0.02457,0.00412,0.0148,-0.03555
8.827,-0.00488,-0.04227,-0.03189,-0.01266,-0.03403,-0.04791,-0.0148,-0.00443,0.12543,-0.0383,-0.05447,0.0206,-0.02853,0.00198,0.00641,-0.03723
8.8275,-0.00427,-0.04211,-0.03113,-0.00366,-0.03204,-0.047,-0.01633,-0.00504,-0.05661,-0.03952,-0.03601,0.03357,-0.0322,-0.00153,-0.00366,-0.03891
8.828,-0.0032,-0.04105,-0.03174,0.00778,-0.03098,-0.04623,-0.01389,-0.0061,-0.2005,-0.05051,-0.01419,0.03128,-0.03418,-0.0058,-0.01038,-0.03967
8.8285,-0.00336,-0.04013,-0.03418,0.01541,-0.03159,-0.04547,-0.01129,-0.00519,-0.27786,-0.06836,-0.01923,0.0029,-0.0354,-0.00717,-0.00885,-0.03952
8.829,-0.00229,-0.03983,-0.0354,0.01434,-0.0322,-0.04578,-0.01083,-0.00427,-0.3125,-0.08728,-0.05417,-0.02869,-0.0351,-0.00305,0.00015,-0.03815
8.8295,-0.00061,-0.04028,-0.0351,0.00992,-0.03281,-0.04608,-0.01205,-0.00381,-0.34241,-0.09827,-0.08774,-0.04227,-0.0351,0.00443,0.01846,-0.03616
8.83,0.00061,-0.04074,-0.03433,0.00763,-0.03311,-0.04608,-0.01297,-0.00443,-0.4068,-0.10071,-0.08957,-0.04196,-0.03448,0.00793,0.0383,-0.0354
8.8305,0.00107,-0.03952,-0.03387,0.00641,-0.03036,-0.04578,-0.01465,-0.00534,-0.52139,-0.0946,-0.05783,-0.04211,-0.03601,0.0032,0.04456,-0.03601
8.831,0.00107,-0.03815,-0.03326,-0.00107,-0.02945,-0.04608,-0.01907,-0.00488,-0.65552,-0.0856,-0.02243,-0.03723,-0.03922,-0.00626,0.03601,-0.03906
8.8315,-0.00046,-0.03677,-0.03326,-0.01907,-0.0264,-0.047,-0.02289,-0.00443,-0.77927,-0.07462,-0.00748,-0.01434,-0.04181,-0.01419,0.02686,-0.04364
8.832,-0.0029,-0.03662,-0.03326,-0.04379,-0.02609,-0.04807,-0.02472,-0.00458,-0.90225,-0.05997,-0.01419,0.01984,-0.04196,-0.0177,0.02533,-0.04776
8.8325,-0.00427,-0.03799,-0.03418,-0.06393,-0.02609,-0.04608,-0.02075,-0.00519,-1.04675,-0.03784,-0.03036,0.04181,-0.0412,-0.0209,0.02563,-0.04761
8.833,-0.00381,-0.03937,-0.03357,-0.07751,-0.02716,-0.04471,-0.01587,-0.00504,-1.20468,-0.00656,-0.04013,0.03845,-0.03876,-0.02655,0.02151,-0.04364
8.8335,-0.00244,-0.04074,-0.0322,-0.09003,-0.02808,-0.04395,-0.01266,-0.00427,-1.33224,0.03296,-0.03586,0.02792,-0.03738,-0.03464,0.01221,-0.04074
8.834,-0.00259,-0.04059,-0.03235,-0.10132,-0.02838,-0.04501,-0.01022,-0.00305,-1.38763,0.07523,-0.01678,0.03418,-0.03693,-0.04318,0.00061,-0.04227
8.8345,-0.0032,-0.0415,-0.0325,-0.09476,-0.03174,-0.04501,-0.00839,-0.00214,-1.38306,0.1091,0.00763,0.04883,-0.03769,-0.04547,-0.01312,-0.04593
8.835,-0.00275,-0.04364,-0.03403,-0.04913,-0.03204,-0.04532,-0.009,-0.00244,-1.36261,0.12177,0.03098,0.04181,-0.0386,-0.0412,-0.01755,-0.04761
8.8355,-0.00183,-0.04547,-0.03448,0.03281,-0.03189,-0.04654,-0.01236,-0.00137,-1.34033,0.11002,0.04898,0.01129,-0.04059,-0.03204,-0.00275,-0.04501
8.836,-0.00168,-0.04517,-0.03571,0.09964,-0.03265,-0.04776,-0.01633,-0.00031,-1.30341,0.08102,0.06042,-0.01312,-0.04135,-0.02396,0.02518,-0.04257
8.8365,-0.00336,-0.04318,-0.03723,0.09857,-0.03342,-0.04837,-0.01999,-0.00092,-1.27472,0.04715,0.05997,-0.00961,-0.04303,-0.01907,0.0415,-0.04166
8.837,-0.00488,-0.04166,-0.03662,0.04242,-0.03204,-0.04715,-0.02167,-0.00229,-1.31058,0.0209,0.04883,0.00519,-0.04547,-0.01923,0.03189,-0.0441
8.8375,-0.00351,-0.04272,-0.03571,-0.00916,-0.03067,-0.04593,-0.02243,-0.0032,-1.41968,0.00595,0.03494,0.01114,-0.04669,-0.02029,0.00717,-0.04761
8.838,-0.00092,-0.04456,-0.03525,-0.02029,-0.03036,-0.04578,-0.01953,-0.00351,-1.53992,0.00229,0.02228,0.00519,-0.04501,-0.01892,-0.0061,-0.05112
8.8385,0.00015,-0.04517,-0.03525,-0.01099,-0.03143,-0.04684,-0.01526,-0.00305,-1.61484,0.00214,0.00793,-0.00183,-0.04059,-0.01434,0.00031,-0.05386
8.839,-0.00137,-0.04486,-0.03601,-0.00519,-0.03204,-0.047,-0.01099,-0.00336,-1.6481,0.00061,-0.01236,-0.0061,-0.03571,-0.00824,0.01129,-0.05554
8.8395,-0.00305,-0.04517,-0.03586,-0.0061,-0.03403,-0.04669,-0.01038,-0.00412,-1.66946,-0.00244,-0.03464,-0.00687,-0.03387,-0.00763,0.01236,-0.05722
8.84,-0.0029,-0.0441,-0.03464,-0.00595,-0.03403,-0.04684,-0.01297,-0.00366,-1.68182,-0.00412,-0.05157,-0.00504,-0.03632,-0.01511,0.00671,-0.05783
8.8405,-0.00198,-0.0441,-0.03387,-0.00717,-0.03418,-0.04822,-0.01678,-0.00427,-1.67175,-0.00931,-0.05722,-0.00153,-0.04059,-0.02869,0.00412,-0.05325
8.841,-0.0029,-0.04471,-0.03571,-0.01068,-0.03464,-0.04852,-0.01602,-0.00534,-1.64001,-0.01724,-0.05478,0.00076,-0.04211,-0.04059,0.00671,-0.04715
8.8415,-0.00565,-0.04486,-0.03799,-0.01404,-0.03494,-0.04761,-0.00687,-0.00488,-1.61011,-0.02533,-0.05997,0.00015,-0.03937,-0.04364,0.0058,-0.04593
8.842,-0.00778,-0.04425,-0.03937,-0.01205,-0.03235,-0.04745,0.00336,-0.00244,-1.60583,-0.03448,-0.09583,0.00259,-0.03601,-0.03586,-0.00198,-0.04639
8.8425,-0.00687,-0.04288,-0.0383,0.00259,-0.03098,-0.04715,0.00259,-0.00153,-1.6188,-0.04852,-0.15137,0.01419,-0.03525,-0.02075,-0.00793,-0.04776
8.843,-0.0058,-0.04257,-0.03662,0.03143,-0.03143,-0.04745,-0.00809,-0.00366,-1.6156,-0.06973,-0.17792,0.03128,-0.03433,-0.00229,-0.00504,-0.04913
8.8435,-0.00488,-0.04242,-0.03616,0.0589,-0.03128,-0.04623,-0.01556,-0.0058,-1.59149,-0.09033,-0.1442,0.03891,-0.03311,0.0119,0.00092,-0.04868
8.844,-0.00412,-0.04303,-0.03647,0.06058,-0.03143,-0.04471,-0.01343,-0.00641,-1.56616,-0.10056,-0.07309,0.02869,-0.0322,0.01755,0.00443,-0.04868
8.8445,-0.00427,-0.04333,-0.03616,0.02747,-0.03403,-0.04456,-0.00763,-0.00595,-1.54785,-0.09628,-0.00381,0.00671,-0.03281,0.0177,0.00549,-0.04684
8.845,-0.00595,-0.04257,-0.03586,-0.02274,-0.0322,-0.04608,-0.00656,-0.00626,-1.53397,-0.08179,0.04654,-0.01251,-0.0351,0.01526,0.00626,-0.04486
8.8455,-0.00778,-0.04242,-0.03525,-0.06332,-0.03052,-0.04868,-0.01053,-0.00717,-1.52908,-0.065,0.07919,-0.02258,-0.0386,0.01038,0.0061,-0.04242
8.846,-0.00793,-0.04196,-0.03647,-0.07996,-0.03143,-0.04883,-0.01694,-0.00763,-1.52924,-0.05005,0.09125,-0.02655,-0.04211,0.00046,0.00473,-0.04059
8.8465,-0.00687,-0.04227,-0.03754,-0.06897,-0.0322,-0.04715,-0.02441,-0.00778,-1.53061,-0.03433,0.08133,-0.02853,-0.04456,-0.01175,0.00504,-0.03922
8.847,-0.00626,-0.04395,-0.03784,-0.03372,-0.03357,-0.04623,-0.02945,-0.00626,-1.52939,-0.0148,0.06363,-0.03052,-0.04517,-0.02563,0.00763,-0.03632
8.8475,-0.00626,-0.0441,-0.03754,0.01022,-0.03326,-0.04623,-0.02701,-0.00366,-1.51154,0.01099,0.05829,-0.03281,-0.04227,-0.04089,0.01068,-0.03448
8.848,-0.00656,-0.04303,-0.03662,0.03784,-0.03174,-0.04654,-0.01801,-0.00122,-1.46896,0.0351,0.06851,-0.03311,-0.04028,-0.05859,0.01266,-0.03555
8.8485,-0.00656,-0.04074,-0.0386,0.03403,-0.03174,-0.04745,-0.00885,-0.00076,-1.41693,0.05356,0.08133,-0.02731,-0.03998,-0.07874,0.01282,-0.03387
8.849,-0.00671,-0.04135,-0.03952,0.01282,-0.03281,-0.04837,-0.00839,-0.0029,-1.37299,0.06287,0.08514,-0.0174,-0.03998,-0.09384,0.01251,-0.0322
8.8495,-0.00519,-0.0444,-0.0386,-0.00153,-0.03265,-0.04898,-0.01221,-0.0058,-1.33926,0.06363,0.08026,-0.00793,-0.03967,-0.09567,0.0119,-0.03098
8.85,-0.00336,-0.04501,-0.03677,-0.0061,-0.03555,-0.04669,-0.01511,-0.00504,-1.31012,0.05539,0.06775,-0.00412,-0.03937,-0.08698,0.01251,-0.03189
8.8505,-0.00259,-0.04272,-0.03662,-0.01007,-0.03265,-0.04456,-0.01541,-0.00381,-1.27899,0.0412,0.04639,-0.00488,-0.03922,-0.07721,0.00977,-0.03693
8.851,-0.00275,-0.04181,-0.0383,-0.01862,-0.03372,-0.0441,-0.01511,-0.00427,-1.23566,0.03006,0.01221,-0.00687,-0.03952,-0.06958,0.00381,-0.04486
8.8515,-0.0029,-0.04196,-0.03983,-0.0235,-0.03296,-0.04623,-0.01511,-0.00519,-1.17188,0.0267,-0.04074,-0.00595,-0.03815,-0.05997,0.00076,-0.05493
8.852,-0.00275,-0.04333,-0.03937,-0.02167,-0.03387,-0.04776,-0.01556,-0.00519,-1.09985,0.02655,-0.10849,-0.00336,-0.03723,-0.03967,0.00504,-0.05524
8.8525,-0.00214,-0.04288,-0.03952,-0.01663,-0.03494,-0.04868,-0.01572,-0.00336,-1.03851,0.02274,-0.15472,-0.00122,-0.03693,-0.00946,0.01541,-0.05081
8.853,-0.0029,-0.04196,-0.03815,-0.01404,-0.03281,-0.04929,-0.01465,-0.00061,-0.99442,0.01541,-0.14084,0.00046,-0.03738,0.02197,0.02518,-0.04257
8.8535,-0.00397,-0.04105,-0.03815,-0.01251,-0.0322,-0.04883,-0.01373,0.00046,-0.96359,0.00793,-0.07568,0.00153,-0.03677,0.04303,0.02701,-0.03708
8.854,-0.00366,-0.04089,-0.03876,-0.0119,-0.03296,-0.0473,-0.01373,-0.00031,-0.9407,0.00092,-0.00763,0.00214,-0.03586,0.04913,0.02319,-0.0322
8.8545,-0.00244,-0.04135,-0.0386,-0.01068,-0.03296,-0.04501,-0.01495,-0.00137,-0.91919,-0.00992,0.03281,0.00214,-0.03693,0.04791,0.01862,-0.03265
8.855,-0.00168,-0.04211,-0.03967,-0.01114,-0.03189,-0.0444,-0.01678,-0.00137,-0.89401,-0.02289,0.0499,0.00092,-0.03998,0.04883,0.0145,-0.03769
8.8555,-0.00153,-0.04227,-0.0386,-0.01099,-0.02991,-0.04562,-0.01694,-0.00137,-0.86609,-0.03082,0.05539,-0.00092,-0.04166,0.04669,0.01022,-0.047
8.856,-0.00305,-0.04211,-0.03754,-0.00992,-0.03006,-0.04623,-0.01572,-0.00168,-0.83084,-0.03372,0.05035,-0.00137,-0.04379,0.03479,0.00854,-0.04929
8.8565,-0.00381,-0.04196,-0.03723,-0.00702,-0.03006,-0.04593,-0.01343,-0.00214,-0.78415,-0.03448,0.03464,-0.00015,-0.04242,0.01465,0.01343,-0.04562
8.857,-0.00397,-0.0412,-0.03677,-0.00641,-0.02991,-0.04517,-0.01343,-0.00183,-0.73883,-0.03479,0.01358,0.00122,-0.04028,-0.00763,0.01617,-0.04257
8.8575,-0.00351,-0.04028,-0.03662,-0.00656,-0.02884,-0.04639,-0.01389,-0.00153,-0.7016,-0.03738,-0.01389,0.00107,-0.03708,-0.03235,0.00473,-0.04135
8.858,-0.0032,-0.03998,-0.03555,-0.00992,-0.02945,-0.047,-0.01404,-0.00275,-0.65765,-0.04562,-0.04883,0.0,-0.03494,-0.06165,-0.0148,-0.0386
8.8585,-0.00397,-0.04196,-0.0354,-0.01389,-0.03052,-0.04822,-0.01495,-0.00336,-0.6015,-0.06119,-0.08224,-0.00046,-0.03326,-0.09369,-0.0206,-0.03265
8.859,-0.00381,-0.04395,-0.03586,-0.01816,-0.03098,-0.04974,-0.01556,-0.00443,-0.54688,-0.07858,-0.0943,0.00061,-0.03204,-0.11917,-0.00031,-0.03021
8.8595,-0.00214,-0.04349,-0.03647,-0.01968,-0.03159,-0.05051,-0.01587,-0.00381,-0.49713,-0.08499,-0.07507,0.00259,-0.03067,-0.1355,0.02319,-0.03326
8.86,-0.00122,-0.04074,-0.03601,-0.01755,-0.0325,-0.04974,-0.0145,-0.00214,-0.45135,-0.07889,-0.03876,0.00275,-0.02975,-0.13977,0.02762,-0.04044
8.8605,-0.00183,-0.0386,-0.03571,-0.01419,-0.0325,-0.04776,-0.01282,-0.00031,-0.4071,-0.07309,-0.009,0.00153,-0.03036,-0.12909,0.0174,-0.04654
8.861,-0.00259,-0.03784,-0.03464,-0.0116,-0.03128,-0.04684,-0.0116,0.00122,-0.34912,-0.07874,0.00061,0.00183,-0.03021,-0.10498,0.00687,-0.04333
8.8615,-0.00305,-0.04044,-0.03418,-0.01007,-0.02869,-0.04807,-0.01297,0.00076,-0.27725,-0.09338,-0.00793,0.0029,-0.0296,-0.07965,0.00092,-0.03265
8.862,-0.00427,-0.04196,-0.03433,-0.00916,-0.02914,-0.04944,-0.0148,0.00122,-0.22263,-0.10605,-0.01816,0.00259,-0.02808,-0.065,-0.00305,-0.02167
8.8625,-0.0058,-0.04196,-0.03494,-0.00809,-0.02884,-0.05081,-0.01648,0.00061,-0.2092,-0.10605,-0.0206,0.00061,-0.02686,-0.05966,-0.00031,-0.01968
8.863,-0.00626,-0.0415,-0.03433,-0.00656,-0.02853,-0.05081,-0.01678,0.00122,-0.21713,-0.09491,-0.01755,-0.00244,-0.02579,-0.05142,0.00839,-0.02487
8.8635,-0.0058,-0.0412,-0.03372,-0.00488,-0.02975,-0.04868,-0.01602,0.00076,-0.21362,-0.08209,-0.01648,-0.00366,-0.02258,-0.03616,0.01434,-0.03372
8.864,-0.00595,-0.04028,-0.03342,-0.00351,-0.02945,-0.047,-0.01343,0.00061,-0.19257,-0.07217,-0.0177,-0.00229,-0.02075,-0.01923,0.01587,-0.04196
8.8645,-0.0058,-0.03815,-0.03296,-0.00137,-0.02777,-0.04532,-0.01175,0.00061,-0.16937,-0.06409,-0.0209,-0.00137,-0.02121,-0.0087,0.02716,-0.04242
8.865,-0.00519,-0.03647,-0.03479,-0.00061,-0.02853,-0.04593,-0.01129,0.00061,-0.15564,-0.05432,-0.02365,-0.00107,-0.02457,-0.00443,0.04944,-0.03372
8.8655,-0.00412,-0.03738,-0.03647,-0.00214,-0.02914,-0.04807,-0.01205,0.00046,-0.15076,-0.04272,-0.02563,-0.00076,-0.02747,-0.0032,0.0676,-0.02121
8.866,-0.00351,-0.04013,-0.03647,-0.00732,-0.02975,-0.05005,-0.01358,0.00061,-0.14786,-0.03448,-0.02716,-0.00031,-0.02838,-0.00107,0.06332,-0.01541
8.8665,-0.00351,-0.04105,-0.03479,-0.01831,-0.02869,-0.04898,-0.01297,-0.00061,-0.14084,-0.02457,-0.02808,-0.00061,-0.0264,0.00366,0.03891,-0.02136
8.867,-0.00381,-0.04044,-0.03372,-0.0322,-0.02716,-0.04715,-0.01221,-0.00275,-0.12726,-0.01007,-0.0267,-0.00122,-0.0238,0.00946,0.01129,-0.03586
8.8675,-0.00397,-0.03998,-0.03494,-0.04166,-0.02716,-0.04791,-0.01221,-0.00488,-0.11124,0.0061,-0.01923,-0.00061,-0.02319,0.01312,-0.00381,-0.05157
8.868,-0.00458,-0.03998,-0.03693,-0.04349,-0.02792,-0.04929,-0.01312,-0.00549,-0.09705,0.01358,-0.0058,0.00183,-0.0235,0.01129,-0.00671,-0.0621
8.8685,-0.0058,-0.04105,-0.0386,-0.03891,-0.02914,-0.05051,-0.01526,-0.00656,-0.09125,0.00702,0.00839,0.00443,-0.02213,0.00626,-0.00626,-0.06531
8.869,-0.00687,-0.03998,-0.03723,-0.03525,-0.02853,-0.04883,-0.01755,-0.00565,-0.09796,-0.00305,0.01389,0.00549,-0.02243,0.00198,-0.00717,-0.05875
8.8695,-0.00717,-0.03845,-0.03723,-0.03403,-0.0293,-0.04745,-0.01923,-0.00519,-0.10513,-0.00427,0.01129,0.00595,-0.02457,0.00168,-0.00336,-0.04868
8.87,-0.00595,-0.03906,-0.03754,-0.03067,-0.02884,-0.04547,-0.01938,-0.00504,-0.09598,0.00809,0.00473,0.00702,-0.0264,0.00351,0.0029,-0.03922
8.8705,-0.00397,-0.03998,-0.03815,-0.01938,-0.02762,-0.04532,-0.01709,-0.0032,-0.08102,0.0238,-0.00244,0.00702,-0.02747,0.00488,0.00717,-0.03723
8.871,-0.00305,-0.04135,-0.03708,0.00183,-0.02731,-0.04578,-0.01251,-0.00107,-0.07141,0.03098,-0.01343,0.00504,-0.02747,0.00488,0.00946,-0.0415
8.8715,-0.00336,-0.04227,-0.03448,0.01587,-0.02655,-0.04654,-0.009,0.0,-0.05966,0.02609,-0.02884,0.00244,-0.02777,0.00397,0.01465,-0.04776
8.872,-0.00381,-0.04272,-0.03326,0.00916,-0.02594,-0.04593,-0.01068,-0.00107,-0.04196,0.01389,-0.04135,0.0,-0.02808,0.00397,0.02319,-0.05249
8.8725,-0.00366,-0.04242,-0.03418,-0.00946,-0.02609,-0.04593,-0.01511,-0.00351,-0.03128,0.00031,-0.04425,-0.00137,-0.02655,0.00565,0.02426,-0.05661
8.873,-0.00412,-0.04196,-0.03494,-0.01892,-0.02731,-0.04578,-0.01831,-0.00427,-0.02884,-0.00732,-0.03906,-0.00214,-0.02457,0.00931,0.01205,-0.0563
8.8735,-0.00534,-0.04135,-0.03448,-0.01434,-0.02838,-0.04562,-0.01724,-0.00412,-0.0296,-0.00107,-0.03555,-0.00183,-0.02289,0.01556,-0.0058,-0.05325
8.874,-0.00595,-0.04044,-0.03387,-0.00778,-0.02945,-0.04501,-0.01495,-0.00366,-0.0296,0.02167,-0.03906,-0.00153,-0.02411,0.02258,-0.01633,-0.04929
8.8745,-0.00671,-0.03983,-0.03357,-0.00641,-0.03021,-0.0444,-0.01373,-0.00412,-0.01633,0.05264,-0.04974,0.00031,-0.02701,0.02747,-0.0148,-0.04532
8.875,-0.00793,-0.04059,-0.03433,-0.00519,-0.03006,-0.04425,-0.01434,-0.00427,0.01724,0.07172,-0.06271,0.00214,-0.03006,0.02762,-0.00549,-0.04425
8.8755,-0.0087,-0.04257,-0.03525,0.00519,-0.03006,-0.04578,-0.01419,-0.00443,0.05341,0.06699,-0.07034,0.00336,-0.03082,0.02319,0.0029,-0.04089
8.876,-0.00961,-0.04364,-0.03616,0.01801,-0.02899,-0.04715,-0.01312,-0.0032,0.07355,0.04196,-0.0647,0.00275,-0.02899,0.01678,0.00519,-0.03952
8.8765,-0.00977,-0.04242,-0.03555,0.01923,-0.02914,-0.04669,-0.01221,-0.00259,0.08011,0.0116,-0.05005,0.00061,-0.02853,0.00824,0.00275,-0.03983
8.877,-0.00977,-0.04059,-0.03448,0.00519,-0.02975,-0.04593,-0.01175,-0.00214,0.08408,-0.00946,-0.03586,-0.00229,-0.03082,-0.00412,-0.00076,-0.04166
8.8775,-0.009,-0.03967,-0.03235,-0.01434,-0.02945,-0.04623,-0.01251,-0.00366,0.08484,-0.02121,-0.02518,-0.00305,-0.03555,-0.0209,-0.00198,-0.04456
8.878,-0.00793,-0.04028,-0.03098,-0.02731,-0.02716,-0.0473,-0.01328,-0.00458,0.07614,-0.02518,-0.01846,-0.00351,-0.03876,-0.03952,0.00153,-0.04761
8.8785,-0.00702,-0.04135,-0.03052,-0.02808,-0.02655,-0.04852,-0.01373,-0.00626,0.06424,-0.02701,-0.01633,-0.00397,-0.04028,-0.05554,0.00519,-0.04822
8.879,-0.0058,-0.0412,-0.03098,-0.0235,-0.02808,-0.04852,-0.01312,-0.00702,0.05814,-0.02731,-0.02045,-0.0058,-0.03937,-0.06332,0.00458,-0.0499
8.8795,-0.00427,-0.04059,-0.03082,-0.01953,-0.0293,-0.04868,-0.01343,-0.00671,0.05859,-0.02609,-0.02625,-0.00671,-0.03662,-0.06271,0.00259,-0.0502
8.88,-0.00336,-0.03983,-0.02899,-0.01358,-0.02899,-0.04883,-0.01312,-0.00488,0.06027,-0.01999,-0.02762,-0.00549,-0.03265,-0.05814,0.00214,-0.05127
8.8805,-0.00336,-0.04044,-0.02899,-0.00244,-0.02808,-0.0499,-0.01389,-0.00412,0.05798,-0.009,-0.02151,-0.00305,-0.0293,-0.05478,0.00305,-0.04929
8.881,-0.00504,-0.04089,-0.03113,0.00961,-0.02777,-0.05051,-0.01328,-0.00473,0.05112,0.00229,-0.01129,0.00015,-0.02838,-0.05203,0.00565,-0.0415
8.8815,-0.00778,-0.03998,-0.03235,0.01328,-0.02853,-0.05035,-0.01266,-0.00519,0.04395,0.00702,-0.00122,0.00183,-0.02838,-0.04654,0.01175,-0.02975
8.882,-0.01053,-0.0386,-0.0325,0.00427,-0.03052,-0.04974,-0.01266,-0.00534,0.03006,0.00168,0.00351,0.00092,-0.02914,-0.03525,0.01816,-0.01953
8.8825,-0.01129,-0.03922,-0.03189,-0.00809,-0.03189,-0.04974,-0.01282,-0.00519,0.0032,-0.00381,0.00168,-0.00153,-0.02762,-0.02258,0.01892,-0.01434
8.883,-0.01053,-0.04135,-0.03143,-0.01572,-0.03204,-0.05035,-0.01389,-0.00488,-0.02472,-0.00504,-0.00244,-0.0032,-0.0264,-0.01038,0.00946,-0.01404
8.8835,-0.0087,-0.04196,-0.03113,-0.01541,-0.03143,-0.05066,-0.01511,-0.00504,-0.03616,-0.00381,-0.0032,-0.00305,-0.02563,-0.00153,-0.00961,-0.01373
8.884,-0.00641,-0.04242,-0.0322,-0.01328,-0.03036,-0.04959,-0.01785,-0.00519,-0.03876,-0.00549,0.00076,-0.00366,-0.02548,0.00137,-0.03418,-0.01648
8.8845,-0.00595,-0.04105,-0.03281,-0.01251,-0.02884,-0.04822,-0.01999,-0.00595,-0.04639,-0.01083,0.00443,-0.00717,-0.02747,0.00046,-0.05875,-0.02731
8.885,-0.00641,-0.03906,-0.03281,-0.0116,-0.02838,-0.04669,-0.01999,-0.00717,-0.05234,-0.01633,0.00565,-0.01144,-0.03052,-0.00259,-0.07416,-0.04684
8.8855,-0.00732,-0.0383,-0.03082,-0.01022,-0.02914,-0.04593,-0.01602,-0.00809,-0.047,-0.02731,0.00381,-0.01297,-0.03311,-0.0058,-0.06622,-0.06516
8.886,-0.00717,-0.03891,-0.03098,-0.00793,-0.02884,-0.04684,-0.01144,-0.00656,-0.04013,-0.04898,0.00198,-0.00916,-0.03479,-0.01007,-0.02075,-0.07584
8.8865,-0.00839,-0.04013,-0.0325,-0.00519,-0.02853,-0.04456,-0.0087,-0.00488,-0.0351,-0.07858,-0.00137,-0.00366,-0.03693,-0.01404,0.05432,-0.0795
8.887,-0.00778,-0.04196,-0.03326,-0.00137,-0.0293,-0.04257,-0.00839,-0.00381,-0.03204,-0.10651,-0.00931,-0.00031,-0.0412,-0.01648,0.10895,-0.07538
8.8875,-0.0058,-0.04166,-0.03143,0.00168,-0.03052,-0.04135,-0.01175,-0.00336,-0.03036,-0.12405,-0.02594,0.00183,-0.04379,-0.01648,0.09567,-0.06653
8.888,-0.00336,-0.04044,-0.03082,0.00214,-0.03143,-0.04333,-0.01984,-0.00336,-0.01968,-0.12955,-0.04715,0.0029,-0.04196,-0.01465,0.03372,-0.05829
8.8885,-0.00229,-0.03952,-0.03159,-0.00168,-0.0322,-0.04654,-0.02747,-0.00168,0.00549,-0.12344,-0.06042,0.00214,-0.03815,-0.01221,-0.01434,-0.05859
8.889,-0.0029,-0.03906,-0.03189,-0.00687,-0.03159,-0.04883,-0.02411,-0.00015,0.03326,-0.10513,-0.05402,0.00107,-0.0354,-0.01053,-0.02335,-0.06378
8.8895,-0.00351,-0.0386,-0.03189,-0.01114,-0.03296,-0.04883,-0.00763,0.00061,0.05035,-0.07584,-0.03159,0.00092,-0.03189,-0.00854,-0.01801,-0.06622
8.89,-0.00366,-0.03784,-0.03098,-0.01495,-0.03311,-0.04822,0.00809,0.00137,0.06058,-0.04486,-0.00992,0.00137,-0.02914,-0.00671,-0.02045,-0.06058
8.8905,-0.00381,-0.03891,-0.03174,-0.01984,-0.03281,-0.04669,0.00839,0.00214,0.07324,-0.02335,0.00031,0.00244,-0.02808,-0.00504,-0.0322,-0.05386
8.891,-0.00473,-0.04028,-0.03342,-0.02625,-0.03265,-0.04684,-0.00229,0.00107,0.08652,-0.01602,-0.0032,0.00229,-0.02975,-0.00259,-0.04349,-0.0502
8.8915,-0.00473,-0.04089,-0.03418,-0.03448,-0.0322,-0.04654,-0.01099,-0.00061,0.09308,-0.01892,-0.01953,0.00183,-0.03387,-0.00351,-0.04456,-0.05173
8.892,-0.00458,-0.04028,-0.03372,-0.03937,-0.03403,-0.047,-0.01129,-0.00229,0.08881,-0.01801,-0.03983,0.00122,-0.03448,-0.00595,-0.0351,-0.05585
8.8925,-0.00336,-0.03983,-0.03281,-0.04105,-0.03555,-0.04745,-0.00977,-0.00259,0.07523,-0.0061,-0.05051,0.0,-0.03357,-0.00809,-0.01297,-0.0589
8.893,-0.00305,-0.03952,-0.0322,-0.04181,-0.03525,-0.04745,-0.0119,-0.0032,0.0592,0.01083,-0.04272,-0.00092,-0.03143,-0.0087,0.03448,-0.06134
8.8935,-0.00381,-0.03983,-0.03143,-0.04257,-0.03418,-0.04807,-0.01495,-0.00275,0.04654,0.02548,-0.01907,-0.00153,-0.03174,-0.00839,0.10101,-0.05981
8.894,-0.00473,-0.03952,-0.0325,-0.04196,-0.03372,-0.04852,-0.01556,-0.00137,0.04181,0.03235,0.00748,-0.00092,-0.03235,-0.00824,0.13275,-0.0589
8.8945,-0.00565,-0.03799,-0.03403,-0.03265,-0.03418,-0.04807,-0.01495,-0.00122,0.04227,0.02838,0.02823,-0.00031,-0.03204,-0.009,0.09201,-0.05447
8.895,-0.00641,-0.03723,-0.03494,-0.01373,-0.03464,-0.04807,-0.01373,-0.00397,0.04395,0.01846,0.03845,-0.00046,-0.03067,-0.01221,0.02808,-0.04364
8.8955,-0.00595,-0.0386,-0.03464,0.00946,-0.03571,-0.04761,-0.01251,-0.00641,0.03723,0.01282,0.0412,-0.00015,-0.03082,-0.01556,0.01038,-0.02975
8.896,-0.00488,-0.0412,-0.03464,0.02609,-0.03571,-0.04837,-0.01236,-0.00549,0.01877,0.01419,0.03967,0.00015,-0.03281,-0.01709,0.03433,-0.02121
8.8965,-0.00381,-0.04318,-0.03342,0.02777,-0.03494,-0.04807,-0.01297,-0.00351,0.00336,0.0177,0.03769,0.00183,-0.03448,-0.01648,0.0441,-0.02029
8.897,-0.00381,-0.04349,-0.03418,0.01526,-0.03372,-0.0473,-0.01373,-0.00168,0.00641,0.02075,0.02869,0.00214,-0.03448,-0.01572,0.02533,-0.02319
8.8975,-0.00351,-0.04211,-0.03464,-0.00031,-0.03296,-0.04776,-0.01343,-0.00153,0.01602,0.02335,0.0029,0.00198,-0.0325,-0.01526,0.00671,-0.02884
8.898,-0.0029,-0.0412,-0.03433,-0.00839,-0.03387,-0.04868,-0.01266,-0.00259,0.01617,0.02502,-0.03494,0.00229,-0.02991,-0.01648,0.00397,-0.03647
8.8985,-0.00427,-0.04074,-0.0354,-0.00763,-0.03387,-0.04913,-0.01312,-0.00443,0.01404,0.02151,-0.06012,0.00351,-0.02869,-0.01801,0.00107,-0.03937
8.899,-0.00473,-0.04044,-0.03586,-0.00504,-0.03296,-0.04913,-0.01343,-0.0061,0.01862,0.01053,-0.05432,0.00275,-0.02899,-0.01953,-0.01526,-0.03738
8.8995,-0.00351,-0.03876,-0.03571,-0.00397,-0.03113,-0.04807,-0.01282,-0.0061,0.02304,-0.00412,-0.0267,0.00229,-0.03052,-0.02075,-0.03403,-0.0325
8.9,-0.00244,-0.03845,-0.03326,-0.00519,-0.03143,-0.0473,-0.01114,-0.00336,0.02777,-0.01694,-0.00198,0.00107,-0.03021,-0.02228,-0.0415,-0.03067
8.9005,-0.00214,-0.03922,-0.03189,-0.00961,-0.03296,-0.04715,-0.0116,-0.00107,0.03281,-0.02731,0.01129,-0.00015,-0.03021,-0.02426,-0.03815,-0.02945
8.901,-0.00183,-0.04059,-0.03265,-0.01617,-0.03403,-0.04669,-0.01389,0.00046,0.03769,-0.03433,0.02182,-0.00183,-0.0293,-0.02502,-0.02914,-0.02701
8.9015,-0.00076,-0.04135,-0.03311,-0.02335,-0.03464,-0.04654,-0.0177,0.00046,0.05219,-0.0386,0.03281,-0.0032,-0.0293,-0.02472,0.00565,-0.01877
8.902,-0.00137,-0.04196,-0.03235,-0.02991,-0.03448,-0.04578,-0.0209,-0.00153,0.08148,-0.04196,0.03769,-0.00214,-0.02991,-0.02457,0.0679,-0.009
8.9025,-0.00153,-0.04242,-0.03098,-0.03464,-0.03494,-0.04471,-0.02151,-0.00351,0.1088,-0.04608,0.03357,0.0,-0.0296,-0.02457,0.11917,-0.0032
8.903,-0.00076,-0.04257,-0.03021,-0.03494,-0.0351,-0.04501,-0.01953,-0.00397,0.11932,-0.05356,0.02792,0.00046,-0.02838,-0.02472,0.10513,-0.00046
8.9035,0.00214,-0.04211,-0.03098,-0.03052,-0.03677,-0.04562,-0.01633,-0.00275,0.11871,-0.05829,0.02716,0.00015,-0.02686,-0.02548,0.02975,-0.00153
8.904,0.00351,-0.04135,-0.03159,-0.01877,-0.03754,-0.04486,-0.01526,-0.00275,0.11887,-0.0563,0.03204,0.00031,-0.02838,-0.02533,-0.03845,-0.00488
8.9045,0.00076,-0.04089,-0.03265,0.00198,-0.03662,-0.0444,-0.01495,-0.00366,0.12009,-0.047,0.03342,0.00259,-0.0296,-0.02457,-0.05798,-0.00595
8.905,-0.00046,-0.04105,-0.0325,0.0325,-0.03372,-0.04562,-0.01572,-0.00397,0.12222,-0.03418,0.01816,0.00427,-0.03082,-0.02411,-0.05753,-0.00687
8.9055,-0.00076,-0.0412,-0.03311,0.0592,-0.03357,-0.047,-0.01556,-0.00305,0.12726,-0.0235,-0.01282,0.00504,-0.0296,-0.02472,-0.07996,-0.01526
8.906,0.00076,-0.04135,-0.03281,0.06149,-0.03342,-0.04776,-0.01587,-0.00305,0.13718,-0.01373,-0.04425,0.00443,-0.02884,-0.02502,-0.09491,-0.03311
8.9065,0.00153,-0.04272,-0.03174,0.03433,-0.03433,-0.04807,-0.01511,-0.00458,0.14771,-0.00763,-0.06561,0.00336,-0.03113,-0.02533,-0.06119,-0.05783
8.907,0.00107,-0.04379,-0.03189,0.00031,-0.03418,-0.04776,-0.01389,-0.00565,0.15488,-0.00549,-0.07751,0.00031,-0.03403,-0.02609,-0.02167,-0.07278
8.9075,0.00046,-0.04456,-0.03235,-0.01999,-0.03418,-0.04684,-0.01343,-0.0058,0.1564,-0.00824,-0.09445,-0.00305,-0.0354,-0.02823,-0.03799,-0.07675
8.908,0.00122,-0.04318,-0.03159,-0.02213,-0.03372,-0.04669,-0.01724,-0.00397,0.15732,-0.01556,-0.11765,-0.00519,-0.0354,-0.03052,-0.07721,-0.07874
8.9085,0.00229,-0.04059,-0.0322,-0.0206,-0.03281,-0.04684,-0.0238,-0.00305,0.1593,-0.02228,-0.13062,-0.00381,-0.0354,-0.03143,-0.06973,-0.07782
8.909,0.00229,-0.03937,-0.03326,-0.02106,-0.03174,-0.04791,-0.03128,-0.00366,0.15442,-0.02808,-0.11978,0.00031,-0.0351,-0.03021,-0.0296,-0.07187
8.9095,0.00031,-0.04013,-0.03448,-0.02197,-0.03067,-0.04822,-0.03448,-0.00458,0.1358,-0.03052,-0.08606,0.00336,-0.03525,-0.02731,0.00366,-0.06424
8.91,-0.00122,-0.04196,-0.03525,-0.01877,-0.02945,-0.04868,-0.0322,-0.00458,0.12039,-0.02975,-0.04303,0.00351,-0.03616,-0.02625,0.06454,-0.05875
8.9105,-0.00076,-0.04364,-0.03494,-0.01312,-0.02808,-0.04837,-0.02655,-0.00412,0.12711,-0.02808,-0.00488,0.00198,-0.03708,-0.02579,0.16678,-0.04837
8.911,0.00031,-0.04456,-0.0354,-0.00946,-0.0267,-0.04898,-0.02182,-0.00458,0.14343,-0.02808,0.02365,0.00122,-0.03677,-0.02411,0.21072,-0.03036
8.9115,0.00092,-0.0441,-0.0354,-0.0087,-0.02594,-0.04959,-0.01801,-0.00549,0.14984,-0.02914,0.04456,0.00031,-0.03586,-0.02228,0.11658,-0.02029
8.912,0.00153,-0.0444,-0.0351,-0.00931,-0.02594,-0.05112,-0.01282,-0.00549,0.15381,-0.0296,0.06012,-0.00107,-0.03479,-0.02243,-0.01999,-0.02838
8.9125,0.00214,-0.04395,-0.03525,-0.00931,-0.02548,-0.05096,-0.00092,-0.00458,0.16693,-0.02899,0.0676,-0.00107,-0.03311,-0.02365,-0.04608,-0.04272
8.913,0.00076,-0.04166,-0.03647,-0.01007,-0.02655,-0.0499,0.01633,-0.00244,0.1825,-0.03036,0.0647,0.00076,-0.03143,-0.02335,0.0325,-0.04807
8.9135,-0.00122,-0.03998,-0.03647,-0.01282,-0.02594,-0.04761,0.02518,-0.00107,0.19699,-0.03555,0.05905,0.00275,-0.02991,-0.02014,0.08774,-0.04395
8.914,-0.00214,-0.03952,-0.03571,-0.01511,-0.02563,-0.04715,0.01572,-0.00198,0.20752,-0.04333,0.05539,0.00443,-0.02899,-0.01541,0.07523,-0.03754
8.9145,-0.00366,-0.0412,-0.03479,-0.01617,-0.02548,-0.04776,-0.00381,-0.00473,0.21286,-0.05081,0.05203,0.00519,-0.02899,-0.01114,0.07584,-0.0293
8.915,-0.00534,-0.04074,-0.03311,-0.01617,-0.02655,-0.04715,-0.01587,-0.0061,0.22186,-0.05249,0.04272,0.00427,-0.03067,-0.00946,0.13168,-0.02106
8.9155,-0.00687,-0.03937,-0.03128,-0.01556,-0.02914,-0.04639,-0.01541,-0.00519,0.24261,-0.05096,0.03052,0.0032,-0.03159,-0.01022,0.16296,-0.02319
8.916,-0.00595,-0.03876,-0.03052,-0.01343,-0.02975,-0.04669,-0.01205,-0.00381,0.26352,-0.04807,0.01984,0.00305,-0.03159,-0.01129,0.0882,-0.04349
8.9165,-0.00427,-0.04028,-0.03143,-0.01205,-0.03098,-0.04669,-0.0119,-0.00366,0.27344,-0.04837,0.01373,0.00473,-0.03082,-0.01175,-0.04532,-0.06912
8.917,-0.00259,-0.04089,-0.03342,-0.0116,-0.02914,-0.04547,-0.01358,-0.00565,0.27756,-0.04898,0.00992,0.00641,-0.03036,-0.01251,-0.13657,-0.08102
8.9175,-0.0029,-0.04135,-0.03357,-0.0119,-0.0293,-0.04272,-0.0148,-0.0061,0.2832,-0.04471,0.00565,0.00671,-0.03143,-0.01465,-0.15625,-0.07004
8.918,-0.00412,-0.04105,-0.03326,-0.01205,-0.03113,-0.04166,-0.0148,-0.00504,0.28809,-0.0325,0.00137,0.00626,-0.02991,-0.01816,-0.13336,-0.05493
8.9185,-0.00534,-0.04089,-0.03387,-0.0116,-0.0325,-0.04211,-0.0148,-0.00488,0.28595,-0.01678,-0.00595,0.00397,-0.03052,-0.01999,-0.07904,-0.05997
8.919,-0.00504,-0.04028,-0.03464,-0.01114,-0.03281,-0.04303,-0.0145,-0.00549,0.2803,-0.00122,-0.0145,0.00153,-0.03098,-0.01938,0.00931,-0.07919
8.9195,-0.00351,-0.04013,-0.03326,-0.01099,-0.03296,-0.04379,-0.01251,-0.00504,0.27496,0.01526,-0.02411,-0.00076,-0.03281,-0.0174,0.10406,-0.07477
8.92,-0.00198,-0.04059,-0.03128,-0.01068,-0.03281,-0.0444,-0.01038,-0.0029,0.27481,0.0293,-0.03296,-0.00488,-0.03265,-0.01495,0.15854,-0.02975
8.9205,-0.00198,-0.04074,-0.03113,-0.01038,-0.0322,-0.04547,-0.00839,-0.00153,0.27679,0.03723,-0.04303,-0.0119,-0.03265,-0.01556,0.14984,0.01205
8.921,-0.00244,-0.04074,-0.03357,-0.00992,-0.03311,-0.04593,-0.0061,-0.00137,0.28076,0.03708,-0.05417,-0.01511,-0.02945,-0.01602,0.08942,0.00107
8.9215,-0.00275,-0.04074,-0.03448,-0.01022,-0.03387,-0.04547,-0.00732,-0.0029,0.28717,0.0325,-0.06073,-0.01068,-0.02686,-0.01587,0.01938,-0.04639
8.922,-0.0032,-0.04135,-0.03372,-0.01068,-0.03372,-0.04425,-0.01465,-0.00305,0.29739,0.02762,-0.05692,-0.00351,-0.0264,-0.01389,-0.01801,-0.07401
8.9225,-0.00458,-0.04257,-0.0325,-0.01205,-0.03281,-0.04318,-0.02731,-0.00259,0.29999,0.02121,-0.04425,0.00275,-0.02655,-0.01358,-0.02609,-0.06454
8.923,-0.00549,-0.04425,-0.0322,-0.01343,-0.03281,-0.04349,-0.03433,-0.00275,0.28641,0.01129,-0.03174,0.00427,-0.02777,-0.01343,-0.02991,-0.05585
8.9235,-0.00534,-0.04486,-0.03296,-0.01373,-0.03296,-0.04379,-0.03021,-0.00229,0.26855,-0.00046,-0.02472,0.0032,-0.02975,-0.01358,-0.04944,-0.07248
8.924,-0.00519,-0.04395,-0.03433,-0.01266,-0.03189,-0.04562,-0.01907,-0.00214,0.26764,-0.00961,-0.02136,0.00137,-0.03159,-0.01266,-0.08835,-0.08957
8.9245,-0.00412,-0.04272,-0.03479,-0.01175,-0.03052,-0.04623,-0.01114,-0.00137,0.27451,-0.01511,-0.01923,-0.00031,-0.03128,-0.01144,-0.14618,-0.08209
8.925,-0.00427,-0.0415,-0.03387,-0.01022,-0.0296,-0.04669,-0.01083,-0.00015,0.271,-0.01785,-0.01801,-0.00153,-0.03189,-0.01083,-0.22141,-0.0621
8.9255,-0.00504,-0.0412,-0.03403,-0.00946,-0.03036,-0.0473,-0.01419,-0.00107,0.2655,-0.01984,-0.01785,-0.00198,-0.0325,-0.01007,-0.29938,-0.0621
8.926,-0.00595,-0.04166,-0.03433,-0.00885,-0.03281,-0.04898,-0.0177,-0.00214,0.26764,-0.02319,-0.02045,-0.00092,-0.03204,-0.01022,-0.33051,-0.08011
8.9265,-0.00504,-0.0415,-0.03265,-0.00885,-0.03525,-0.04898,-0.01877,-0.00244,0.27145,-0.02884,-0.02182,0.00153,-0.03067,-0.01282,-0.25116,-0.08087
8.927,-0.00366,-0.04028,-0.03235,-0.00839,-0.03479,-0.04807,-0.01724,-0.00198,0.27298,-0.03372,-0.02335,0.00427,-0.03128,-0.01663,-0.03372,-0.04562
8.9275,-0.00259,-0.03891,-0.03372,-0.00763,-0.03464,-0.04822,-0.01434,-0.00076,0.27008,-0.03647,-0.02945,0.00427,-0.0322,-0.01862,0.22537,0.00381
8.928,-0.00351,-0.03952,-0.03448,-0.00656,-0.03433,-0.04883,-0.01007,0.00015,0.26398,-0.03769,-0.03784,0.00214,-0.03082,-0.01831,0.3421,0.03342
8.9285,-0.00443,-0.0415,-0.03372,-0.00565,-0.03448,-0.04868,-0.00824,0.00076,0.26581,-0.03723,-0.04181,-0.00183,-0.03098,-0.01785,0.22278,0.02975
8.929,-0.00534,-0.04257,-0.03189,-0.0058,-0.03326,-0.04898,-0.01007,0.00061,0.28137,-0.03662,-0.03693,-0.00488,-0.03235,-0.01923,-0.00671,0.00046
8.9295,-0.00504,-0.04044,-0.03128,-0.00488,-0.03372,-0.04898,-0.01328,-0.00031,0.29541,-0.03357,-0.02548,-0.0061,-0.03479,-0.02167,-0.15045,-0.03754
8.93,-0.00366,-0.03952,-0.03159,-0.00427,-0.03372,-0.04837,-0.01434,-0.00198,0.29419,-0.02762,-0.01526,-0.00488,-0.03754,-0.0235,-0.1709,-0.06714
8.9305,-0.00488,-0.04181,-0.03387,-0.00259,-0.03479,-0.04822,-0.01373,-0.00183,0.28259,-0.02045,-0.01068,-0.00183,-0.03891,-0.02396,-0.16495,-0.0798
8.931,-0.00778,-0.0444,-0.03555,0.00671,-0.0354,-0.04807,-0.01251,-0.00076,0.27313,-0.01434,-0.0116,-0.00061,-0.03876,-0.02182,-0.15656,-0.08316
8.9315,-0.00885,-0.04333,-0.03525,0.02167,-0.03616,-0.04639,-0.01221,-0.00107,0.26688,-0.00916,-0.01465,-0.00168,-0.03769,-0.01343,-0.07126,-0.08301
8.932,-0.00732,-0.04044,-0.03326,0.03159,-0.03494,-0.04623,-0.01343,-0.00122,0.25848,-0.00397,-0.01892,-0.00275,-0.03616,0.00351,0.10895,-0.0769
