time,RectFemL,VastusMedL,VastusLatL,TibAntL,HamMedL,HamLatL,GastroMedL,GastroLatL,RectFemR,VastusMedR,VastusLatR,TibAntR,HamMedR,HamLatR,GastroMedR,GastroLatR
8.84,0.03159,-0.05127,0.1683,-0.01526,-0.01648,-0.04761,-0.01953,-0.0267,1.33484,-0.01801,-0.01328,-0.0206,-0.01556,-0.03067,0.00549,-0.04669
8.8405,0.03189,-0.05173,0.10681,-0.01312,-0.01175,-0.04745,-0.01114,-0.04944,1.21567,-0.02167,-0.01755,-0.01022,-0.00259,-0.02594,0.00427,-0.04623
8.841,0.03052,-0.05219,0.02151,-0.01312,-0.0116,-0.04486,-0.00351,-0.07095,1.12823,-0.0238,-0.02396,-0.00565,0.00977,-0.01801,-0.00214,-0.04456
8.8415,0.02686,-0.05066,-0.06393,-0.01587,-0.01175,-0.04044,-0.00061,-0.08209,1.03912,-0.02243,-0.02853,-0.0087,0.01465,-0.00626,-0.01343,-0.04425
8.842,0.02106,-0.04929,-0.12146,-0.02182,-0.01297,-0.03769,-0.00473,-0.09186,0.90195,-0.02029,-0.02853,-0.01236,0.01266,0.00244,-0.02533,-0.04486
8.8425,0.01617,-0.05127,-0.14221,-0.0264,-0.01221,-0.03891,-0.01694,-0.08453,0.7547,-0.02014,-0.02487,-0.01083,0.00504,0.00504,-0.03296,-0.04456
8.843,0.01221,-0.05249,-0.13596,-0.0267,-0.01251,-0.04227,-0.03922,-0.02701,0.6955,-0.02029,-0.02182,-0.00458,-0.00122,0.00351,-0.03571,-0.04379
8.8435,0.0087,-0.05035,-0.11627,-0.02319,-0.01587,-0.04364,-0.06271,0.05936,0.7753,-0.02274,-0.01953,-0.00198,-0.00595,0.00504,-0.03922,-0.04318
8.844,0.00641,-0.04669,-0.08194,-0.01999,-0.01923,-0.04303,-0.06989,0.09125,0.94772,-0.03067,-0.01572,-0.0061,-0.01038,0.01053,-0.04547,-0.04379
8.8445,0.00336,-0.04623,-0.03448,-0.01999,-0.02716,-0.04562,-0.0563,0.03189,1.1528,-0.04257,-0.01236,-0.01221,-0.01816,0.01862,-0.03906,-0.04379
8.845,0.00122,-0.04974,0.02258,-0.02167,-0.03052,-0.05112,-0.02869,-0.05325,1.39984,-0.05066,-0.01083,-0.01099,-0.03082,0.02502,-0.00061,-0.04288
8.8455,0.00046,-0.05524,0.07965,-0.02304,-0.03204,-0.05615,0.00412,-0.08835,1.73553,-0.04684,-0.0116,0.00824,-0.047,0.0264,0.06027,-0.04135
8.846,-0.00046,-0.05737,0.12436,-0.0235,-0.03098,-0.05997,0.02335,-0.07477,2.16812,-0.03372,-0.01282,0.0412,-0.0647,0.02151,0.10406,-0.04196
8.8465,-0.00076,-0.05417,0.14542,-0.02335,-0.02899,-0.0618,0.00183,-0.05615,2.6564,-0.01999,-0.01236,0.06958,-0.07813,0.01389,0.09811,-0.04242
8.847,-0.00153,-0.04761,0.13702,-0.02182,-0.0264,-0.05753,-0.05829,-0.04318,3.17413,-0.01083,-0.01053,0.07553,-0.08499,0.00656,0.06058,-0.04303
8.8475,-0.00183,-0.04303,0.10208,-0.01678,-0.02487,-0.05035,-0.1181,-0.01053,3.72528,-0.0061,-0.01022,0.05615,-0.08636,0.00275,0.03113,-0.04395
8.848,-0.00229,-0.04059,0.04944,-0.01038,-0.02747,-0.0441,-0.14984,0.04929,4.272,-0.0029,-0.01083,0.02563,-0.08438,0.00107,0.02304,-0.0441
8.8485,-0.00244,-0.03952,-0.00534,-0.00565,-0.03159,-0.04242,-0.15823,0.1001,4.70581,-0.00244,-0.01175,-0.00153,-0.08209,-0.00259,0.02441,-0.04272
8.849,-0.00244,-0.03662,-0.04196,-0.00351,-0.03601,-0.04486,-0.15381,0.09796,4.93851,-0.00275,-0.0116,-0.0235,-0.07828,-0.009,0.02213,-0.04074
8.8495,-0.00366,-0.03342,-0.04883,-0.00443,-0.03586,-0.04791,-0.12222,0.04608,4.96613,-0.00137,-0.01312,-0.04288,-0.07248,-0.01709,0.01846,-0.03891
8.85,-0.00778,-0.02914,-0.03876,-0.00717,-0.03418,-0.0499,-0.05035,-0.01266,4.88937,-0.00107,-0.01495,-0.06226,-0.06454,-0.02304,0.01541,-0.03922
8.8505,-0.01373,-0.02655,-0.03204,-0.01144,-0.03265,-0.05203,0.03738,-0.04135,4.82803,-0.00305,-0.01755,-0.08026,-0.05478,-0.02686,0.01129,-0.04135
8.851,-0.01694,-0.02823,-0.0383,-0.01312,-0.03082,-0.05417,0.10437,-0.03754,4.8085,-0.0061,-0.01709,-0.08713,-0.04852,-0.03006,0.00275,-0.04181
8.8515,-0.01816,-0.0325,-0.04944,-0.01266,-0.03326,-0.0563,0.14481,-0.01892,4.78729,-0.00687,-0.01572,-0.07614,-0.04547,-0.03555,-0.00778,-0.04227
8.852,-0.01617,-0.03845,-0.05508,-0.01038,-0.03265,-0.05646,0.16251,0.00381,4.74487,-0.00641,-0.01373,-0.05539,-0.04395,-0.04425,-0.01678,-0.0412
8.8525,-0.01312,-0.05188,-0.05768,-0.00885,-0.03311,-0.05447,0.14145,0.0264,4.69406,-0.00717,-0.01251,-0.03036,-0.04211,-0.05356,-0.02228,-0.04211
8.853,-0.00854,-0.07446,-0.06241,-0.00687,-0.03403,-0.05142,0.09277,0.03906,4.58847,-0.00946,-0.01495,0.0061,-0.04074,-0.05966,-0.02274,-0.04395
8.8535,-0.00366,-0.09995,-0.06943,-0.00381,-0.03326,-0.04944,0.06989,0.03326,4.31274,-0.01694,-0.01923,0.05096,-0.0386,-0.06088,-0.02136,-0.04501
8.854,-0.00412,-0.10971,-0.07385,-0.00122,-0.03143,-0.05081,0.09399,0.00778,3.86292,-0.02792,-0.02563,0.07401,-0.03525,-0.05783,-0.01877,-0.04395
8.8545,-0.009,-0.09476,-0.07599,-0.00153,-0.02792,-0.05417,0.11063,-0.02045,3.41187,-0.03677,-0.03113,0.05585,-0.03082,-0.05188,-0.00946,-0.04166
8.855,-0.01678,-0.0647,-0.07782,-0.00473,-0.02609,-0.05585,0.07401,-0.0325,3.0835,-0.04272,-0.03067,0.01846,-0.02533,-0.04303,0.00397,-0.04044
8.8555,-0.02289,-0.0383,-0.0827,-0.00839,-0.02594,-0.05585,0.00778,-0.02426,2.82104,-0.04547,-0.02213,-0.00168,-0.01907,-0.02853,0.02396,-0.04044
8.856,-0.02579,-0.02289,-0.09003,-0.00885,-0.02686,-0.05478,-0.03357,-0.01022,2.53357,-0.04471,-0.01099,-0.00046,-0.01282,-0.01038,0.04501,-0.04272
8.8565,-0.02579,-0.01846,-0.09872,-0.00626,-0.02914,-0.05386,-0.02808,-0.00381,2.22137,-0.04272,-0.00229,-0.00061,-0.00732,0.00854,0.05356,-0.04501
8.857,-0.02563,-0.02045,-0.10498,-0.00336,-0.03113,-0.05249,0.00015,-0.0029,1.92551,-0.0412,0.0032,-0.00778,-0.00168,0.02441,0.04532,-0.04379
8.8575,-0.02731,-0.02365,-0.10544,-0.00183,-0.0351,-0.04837,0.01755,0.00168,1.64841,-0.03876,0.00717,-0.01007,0.0032,0.03357,0.02975,-0.04196
8.858,-0.02899,-0.01968,-0.09918,-0.00351,-0.03647,-0.04364,0.0119,0.01114,1.36734,-0.03632,0.00732,-0.00488,0.0058,0.03754,0.01724,-0.04074
8.8585,-0.03052,-0.0087,-0.08804,-0.00473,-0.03891,-0.04196,-0.00397,0.01648,1.08032,-0.0325,0.00259,-0.00198,0.00732,0.03967,0.00854,-0.04257
8.859,-0.03189,0.00168,-0.07217,-0.00549,-0.04028,-0.0441,-0.01328,0.0148,0.80948,-0.02762,-0.00595,-0.00443,0.00641,0.04288,0.00214,-0.04379
8.8595,-0.03372,0.00168,-0.05173,-0.00626,-0.04196,-0.04745,-0.01419,0.00732,0.57602,-0.02213,-0.01297,-0.01007,0.00519,0.04486,-0.00122,-0.04303
8.86,-0.03403,-0.00992,-0.03021,-0.00565,-0.04166,-0.04791,-0.01343,-0.00214,0.37369,-0.01953,-0.01953,-0.01389,0.00336,0.0412,-0.00137,-0.04181
8.8605,-0.03311,-0.02396,-0.01892,-0.00458,-0.03937,-0.04654,-0.01892,-0.00656,0.17822,-0.02213,-0.0267,-0.0116,0.00076,0.03143,0.00214,-0.04257
8.861,-0.02975,-0.03082,-0.02411,-0.00412,-0.03799,-0.04562,-0.02502,-0.00443,-0.01114,-0.02655,-0.03143,-0.00488,-0.00122,0.01984,0.0058,-0.04288
8.8615,-0.02563,-0.0322,-0.03952,-0.00626,-0.03799,-0.04761,-0.02396,-0.00412,-0.17349,-0.02731,-0.03433,-0.00793,-0.00305,0.0087,0.00748,-0.04349
8.862,-0.02014,-0.03357,-0.04807,-0.00793,-0.04059,-0.04852,-0.01495,-0.01526,-0.30731,-0.02029,-0.03189,-0.03357,-0.00519,-0.00153,0.00549,-0.0441
8.8625,-0.01465,-0.03998,-0.03372,-0.00809,-0.04272,-0.04761,-0.00351,-0.03098,-0.42984,-0.01175,-0.02747,-0.06577,-0.00519,-0.01266,0.00015,-0.04578
8.863,-0.00992,-0.05188,0.00427,-0.00885,-0.04364,-0.04562,-0.00244,-0.03586,-0.55084,-0.00504,-0.02075,-0.06195,-0.00412,-0.02441,-0.00839,-0.04684
8.8635,-0.0058,-0.06165,0.03952,-0.00977,-0.04211,-0.04379,-0.02029,-0.0322,-0.67078,-0.00259,-0.01572,-0.00366,-0.00153,-0.03479,-0.01633,-0.04654
8.864,-0.00244,-0.06409,0.04211,-0.01205,-0.03906,-0.04333,-0.05096,-0.04517,-0.78247,-0.00046,-0.01053,0.06241,-0.00137,-0.04395,-0.02182,-0.04623
8.8645,0.00061,-0.05768,0.00656,-0.01495,-0.03433,-0.04196,-0.07858,-0.09705,-0.87494,0.00259,-0.0087,0.06973,-0.00443,-0.05096,-0.02533,-0.04593
8.865,0.00366,-0.04913,-0.03647,-0.01587,-0.02884,-0.03922,-0.08652,-0.16739,-0.94971,0.00198,-0.01114,0.02014,-0.01068,-0.05508,-0.03128,-0.04761
8.8655,0.00519,-0.04623,-0.05661,-0.01465,-0.02411,-0.03799,-0.07828,-0.21271,-1.02005,-0.00153,-0.01465,-0.01511,-0.01678,-0.05676,-0.04807,-0.04852
8.866,0.00687,-0.04883,-0.05341,-0.01312,-0.01999,-0.03662,-0.07019,-0.20325,-1.0878,-0.0058,-0.01633,0.00076,-0.01892,-0.05737,-0.07813,-0.04837
8.8665,0.00839,-0.05096,-0.04562,-0.01221,-0.01724,-0.03555,-0.0705,-0.12863,-1.14334,-0.01236,-0.01709,0.02502,-0.01572,-0.05676,-0.10651,-0.0473
8.867,0.00946,-0.04639,-0.047,-0.01343,-0.01678,-0.03479,-0.05981,0.00122,-1.18546,-0.01755,-0.0174,0.01328,-0.01251,-0.05356,-0.11093,-0.04623
8.8675,0.01022,-0.03754,-0.0531,-0.0145,-0.02045,-0.03494,-0.03082,0.11826,-1.21689,-0.02228,-0.01816,-0.01801,-0.01465,-0.04913,-0.0882,-0.047
8.868,0.00854,-0.02991,-0.0618,-0.01389,-0.02274,-0.03632,-0.00259,0.12405,-1.23672,-0.02396,-0.01862,-0.03113,-0.02243,-0.04593,-0.06363,-0.04654
8.8685,0.0061,-0.02731,-0.07355,-0.01221,-0.02716,-0.03815,0.00107,0.00702,-1.23428,-0.02182,-0.01846,-0.02029,-0.03479,-0.04517,-0.06577,-0.04547
8.869,0.00305,-0.02716,-0.08469,-0.01007,-0.03235,-0.04303,-0.0238,-0.10773,-1.20117,-0.0174,-0.01663,-0.00229,-0.04852,-0.04471,-0.08499,-0.04471
8.8695,0.00153,-0.02701,-0.08591,-0.01053,-0.0383,-0.05173,-0.04822,-0.1001,-1.14288,-0.01099,-0.01297,0.01373,-0.06287,-0.04211,-0.05936,-0.04333
8.87,0.00122,-0.02655,-0.07629,-0.0116,-0.0441,-0.06287,-0.02991,-0.00015,-1.073,-0.0058,-0.01266,0.03098,-0.07492,-0.03769,0.05112,-0.04089
8.8705,0.00198,-0.02747,-0.06042,-0.01053,-0.04776,-0.07309,0.02731,0.05753,-1.00159,-0.00229,-0.01511,0.04745,-0.0827,-0.03342,0.19943,-0.03769
8.871,0.00259,-0.03052,-0.04242,-0.00626,-0.05219,-0.07553,0.0563,0.01755,-0.92606,-0.00031,-0.02289,0.0592,-0.08591,-0.03128,0.27252,-0.0383
8.8715,0.00351,-0.03479,-0.02411,-0.00183,-0.05493,-0.0679,0.00916,-0.01602,-0.84702,0.00153,-0.0351,0.0621,-0.08774,-0.03281,0.21957,-0.03891
8.872,0.00336,-0.03738,-0.00687,-0.00275,-0.05478,-0.05402,-0.05447,0.05905,-0.77728,0.00107,-0.04669,0.04517,-0.08942,-0.03372,0.10895,-0.04105
8.8725,0.00259,-0.03418,0.009,-0.00519,-0.05249,-0.04318,-0.04333,0.18021,-0.72403,-0.00061,-0.04776,0.01236,-0.08972,-0.03021,0.03616,-0.04028
8.873,0.00259,-0.02563,0.01877,-0.00885,-0.0499,-0.03906,0.02518,0.20401,-0.67047,-0.00519,-0.04074,-0.01083,-0.08713,-0.02335,0.02228,-0.03662
8.8735,0.00549,-0.01907,0.02228,-0.00824,-0.04669,-0.04211,0.05814,0.121,-0.61432,-0.00931,-0.03098,-0.00595,-0.0824,-0.01495,0.03021,-0.03082
8.874,0.00839,-0.01999,0.01801,-0.009,-0.04105,-0.04684,0.0267,0.05188,-0.58533,-0.01205,-0.02472,0.01297,-0.07568,-0.00656,0.03342,-0.02228
8.8745,0.00732,-0.02853,0.00671,-0.01144,-0.03693,-0.05219,-0.01572,0.05051,-0.59006,-0.01251,-0.0206,0.01907,-0.06882,0.00168,0.03357,-0.01419
8.875,0.00458,-0.03723,-0.01511,-0.01511,-0.03052,-0.05478,-0.03754,0.06027,-0.5986,-0.01358,-0.01266,0.00824,-0.06104,0.00885,0.0351,-0.01175
8.8755,0.00244,-0.04272,-0.047,-0.01617,-0.02457,-0.05264,-0.05524,0.0354,-0.60226,-0.0148,0.00076,-0.00214,-0.05417,0.01465,0.03616,-0.01587
8.876,0.00397,-0.04379,-0.07889,-0.01389,-0.02197,-0.04684,-0.06592,0.00137,-0.60562,-0.0177,0.01678,-0.00473,-0.04791,0.0206,0.03784,-0.02472
8.8765,0.00671,-0.04501,-0.09735,-0.00977,-0.02258,-0.04364,-0.03799,-0.01068,-0.59677,-0.01999,0.0206,-0.00916,-0.04181,0.02563,0.04379,-0.03448
8.877,0.00626,-0.04745,-0.09766,-0.0061,-0.02319,-0.04395,0.01846,-0.00809,-0.55939,-0.02014,0.01053,-0.02411,-0.03571,0.02563,0.05173,-0.04074
8.8775,0.00412,-0.05173,-0.09369,-0.00427,-0.0267,-0.04608,0.04578,-0.00565,-0.50491,-0.02228,-0.00214,-0.04517,-0.03204,0.02014,0.04639,-0.04471
8.878,0.00229,-0.05585,-0.09796,-0.00504,-0.02579,-0.04745,0.01709,-0.00336,-0.47821,-0.02457,-0.00702,-0.05524,-0.03159,0.01389,0.02441,-0.05112
8.8785,0.00183,-0.05905,-0.10422,-0.00641,-0.02655,-0.04791,-0.02518,0.00183,-0.51758,-0.02472,-0.00488,-0.04898,-0.0322,0.01434,0.00031,-0.05951
8.879,0.00092,-0.0647,-0.10178,-0.00702,-0.02808,-0.04868,-0.0351,0.00519,-0.59937,-0.02655,-0.00092,-0.03082,-0.03311,0.02029,-0.00519,-0.06653
8.8795,-0.00168,-0.06989,-0.08423,-0.00626,-0.03082,-0.04944,-0.02136,0.00351,-0.63766,-0.0267,-0.00229,-0.00412,-0.03403,0.02533,0.01282,-0.06866
8.88,-0.00458,-0.06882,-0.05737,-0.00534,-0.0325,-0.0499,-0.01328,0.00046,-0.569,-0.02762,-0.01022,0.02869,-0.03448,0.02472,0.03891,-0.06622
8.8805,-0.00687,-0.06088,-0.02823,-0.00519,-0.03265,-0.04913,-0.01968,-0.00412,-0.41992,-0.02884,-0.02182,0.06424,-0.03326,0.01511,0.05173,-0.06226
8.881,-0.0087,-0.05386,-0.00702,-0.00549,-0.03525,-0.04837,-0.02518,-0.01053,-0.27786,-0.0296,-0.03235,0.09018,-0.0293,-0.00031,0.04059,-0.06027
8.8815,-0.01053,-0.04944,-0.00259,-0.0058,-0.03693,-0.04791,-0.02319,-0.01495,-0.24719,-0.02899,-0.03937,0.08804,-0.02441,-0.02243,0.01663,-0.06073
8.882,-0.0116,-0.04608,-0.01572,-0.00534,-0.03906,-0.04791,-0.01923,-0.01282,-0.40283,-0.02716,-0.03983,0.05081,-0.02319,-0.04837,-0.00183,-0.05981
8.8825,-0.01129,-0.03983,-0.03906,-0.00427,-0.0412,-0.0473,-0.01816,-0.0061,-0.72662,-0.02518,-0.03479,0.00504,-0.02426,-0.07446,-0.00916,-0.05661
8.883,-0.009,-0.03387,-0.0679,-0.00488,-0.04074,-0.0441,-0.01938,-0.00122,-1.13754,-0.02365,-0.02533,-0.01007,-0.02533,-0.09735,-0.01083,-0.05096
8.8835,-0.00626,-0.03403,-0.08804,-0.00702,-0.0415,-0.04364,-0.02167,-0.00046,-1.62033,-0.02487,-0.01526,0.00961,-0.02579,-0.11459,-0.01099,-0.04669
8.884,-0.00473,-0.04181,-0.09186,-0.01053,-0.03983,-0.04547,-0.02411,-0.00259,-2.22275,-0.02716,-0.0061,0.02563,-0.02731,-0.11932,-0.00946,-0.04608
8.8845,-0.00366,-0.05203,-0.07111,-0.01251,-0.04059,-0.04715,-0.02579,-0.00473,-2.90222,-0.03067,-0.00015,0.00809,-0.02792,-0.11139,-0.00793,-0.04501
8.885,-0.00336,-0.0589,-0.02426,-0.01297,-0.03922,-0.04623,-0.02396,-0.00656,-3.52539,-0.03372,0.0058,-0.03036,-0.02777,-0.09735,-0.00763,-0.04364
8.8855,-0.00275,-0.06073,0.03952,-0.01205,-0.03448,-0.0441,-0.01999,-0.00656,-4.04007,-0.03662,0.00687,-0.05753,-0.02594,-0.08591,-0.00946,-0.04257
8.886,-0.00198,-0.06134,0.09735,-0.01022,-0.0296,-0.04288,-0.0174,-0.00702,-4.50089,-0.03876,0.00443,-0.06012,-0.02274,-0.07797,-0.01419,-0.04211
8.8865,-0.00107,-0.05997,0.12924,-0.00885,-0.02747,-0.04288,-0.01709,-0.0061,-4.87625,-0.04044,0.00122,-0.05264,-0.01862,-0.06882,-0.01648,-0.04013
8.887,-0.00107,-0.05463,0.13397,-0.00946,-0.02808,-0.04425,-0.01663,-0.00504,-4.97437,-0.0444,0.00229,-0.0499,-0.01419,-0.05844,-0.01404,-0.03876
8.8875,-0.00275,-0.04791,0.12146,-0.01007,-0.02838,-0.04501,-0.0148,-0.00458,-4.97498,-0.05295,0.00504,-0.0531,-0.01129,-0.04807,-0.00809,-0.03616
8.888,-0.00504,-0.04211,0.09369,-0.01144,-0.02914,-0.04623,-0.01251,-0.00458,-4.9646,-0.06195,0.00534,-0.05585,-0.00931,-0.03769,0.0,-0.03571
8.8885,-0.00717,-0.0412,0.05127,-0.0119,-0.02914,-0.04623,-0.01144,-0.00702,-4.94171,-0.06332,0.00122,-0.05646,-0.00763,-0.02609,0.00748,-0.03586
8.889,-0.00748,-0.04242,0.00671,-0.01343,-0.02884,-0.04471,-0.01083,-0.0116,-4.92783,-0.05646,-0.00229,-0.05356,-0.00549,-0.01465,0.01373,-0.03616
8.8895,-0.00839,-0.04501,-0.02182,-0.01526,-0.02838,-0.0444,-0.01144,-0.01511,-4.87183,-0.04684,-0.00397,-0.04395,-0.00504,-0.00824,0.01587,-0.03647
8.89,-0.00961,-0.04761,-0.03204,-0.01648,-0.03067,-0.0473,-0.01389,-0.01572,-4.68582,-0.03922,-0.00351,-0.02487,-0.00458,-0.00641,0.00977,-0.03708
8.8905,-0.00961,-0.05096,-0.03418,-0.01633,-0.02975,-0.05096,-0.01678,-0.0148,-4.20563,-0.03479,-0.00275,-0.00198,-0.00351,-0.0061,-0.00519,-0.03891
8.891,-0.0061,-0.05188,-0.0386,-0.0148,-0.03036,-0.05371,-0.01907,-0.01114,-3.43994,-0.03464,-0.00153,0.01312,-0.0029,-0.00565,-0.0209,-0.04059
8.8915,0.0,-0.04929,-0.04364,-0.01175,-0.03113,-0.05371,-0.01801,-0.00381,-2.69287,-0.03616,0.00031,0.01984,-0.00443,-0.00488,-0.02655,-0.0415
8.892,0.00656,-0.04486,-0.04715,-0.00931,-0.03174,-0.05264,-0.0177,0.00351,-2.18765,-0.0386,-0.00046,0.0267,-0.00565,-0.00473,-0.02136,-0.04089
8.8925,0.00961,-0.04166,-0.05005,-0.00885,-0.03159,-0.05249,-0.02014,0.00336,-1.83273,-0.03662,-0.00534,0.03616,-0.00488,-0.00381,-0.01358,-0.03952
8.893,0.00702,-0.04074,-0.05219,-0.01022,-0.03021,-0.05325,-0.02487,-0.00305,-1.44928,-0.0296,-0.01205,0.03326,-0.0032,-0.00168,-0.01053,-0.03906
8.8935,0.00137,-0.0412,-0.05341,-0.01144,-0.02686,-0.0528,-0.02594,-0.00961,-1.02768,-0.01999,-0.01877,0.00519,-0.00244,-0.00015,-0.01068,-0.03967
8.894,-0.00458,-0.04211,-0.05249,-0.01221,-0.02655,-0.04974,-0.02014,-0.00931,-0.65369,-0.01175,-0.02411,-0.03159,-0.00214,0.00122,-0.01083,-0.03922
8.8945,-0.00824,-0.04089,-0.05219,-0.01358,-0.02777,-0.0441,-0.01175,-0.00427,-0.33539,-0.00488,-0.0264,-0.03967,-0.00198,0.00229,-0.01022,-0.0386
8.895,-0.01114,-0.03815,-0.05112,-0.01465,-0.02716,-0.03769,-0.00839,-0.00183,-0.01678,-0.00122,-0.02487,-0.01022,-0.00229,0.00122,-0.009,-0.03891
8.8955,-0.01312,-0.0351,-0.04883,-0.01495,-0.02563,-0.03738,-0.01114,-0.0029,0.31616,0.00229,-0.02243,0.02213,-0.00397,-0.00137,-0.00778,-0.03876
8.896,-0.0148,-0.03326,-0.0444,-0.01556,-0.02655,-0.0415,-0.01465,-0.0058,0.63049,0.00778,-0.01999,0.01877,-0.00763,-0.00198,-0.00519,-0.0383
8.8965,-0.0174,-0.03647,-0.04013,-0.01526,-0.02808,-0.04318,-0.01434,-0.00793,0.90622,0.01938,-0.01587,-0.01236,-0.01221,-0.00076,-0.00259,-0.03708
8.897,-0.01846,-0.04684,-0.03815,-0.01404,-0.0296,-0.0415,-0.01358,-0.00778,1.15555,0.03372,-0.01144,-0.03052,-0.01724,-0.00031,-0.00168,-0.03738
8.8975,-0.01694,-0.05798,-0.04074,-0.01099,-0.03006,-0.03708,-0.0174,-0.00626,1.38855,0.04227,-0.00809,-0.01114,-0.02365,-0.00214,-0.00229,-0.03662
8.898,-0.01297,-0.06088,-0.04669,-0.00839,-0.03265,-0.03738,-0.01831,-0.00046,1.59302,0.04242,-0.01099,0.02823,-0.0296,-0.0058,-0.00137,-0.03647
8.8985,-0.01038,-0.0528,-0.05203,-0.00732,-0.03616,-0.04105,-0.00916,0.00763,1.75705,0.03632,-0.01694,0.05295,-0.03387,-0.01053,0.00046,-0.03693
8.899,-0.01083,-0.03998,-0.05783,-0.00916,-0.0386,-0.04379,0.00656,0.0116,1.88278,0.02899,-0.02121,0.05051,-0.03555,-0.01343,0.00259,-0.0386
8.8995,-0.01205,-0.0296,-0.06287,-0.01312,-0.03815,-0.0441,0.01572,0.0061,1.98257,0.02594,-0.0206,0.03799,-0.03693,-0.01419,0.00259,-0.03922
8.9,-0.01251,-0.02426,-0.06302,-0.01495,-0.03387,-0.04303,0.009,-0.00473,2.07733,0.0296,-0.01495,0.03937,-0.0386,-0.01251,0.00122,-0.03754
8.9005,-0.01038,-0.0209,-0.05859,-0.0148,-0.03204,-0.04349,-0.01053,-0.00885,2.17575,0.03464,-0.00702,0.06851,-0.03845,-0.01099,0.00061,-0.03662
8.901,-0.00626,-0.0174,-0.05051,-0.01236,-0.03265,-0.04166,-0.03036,-0.00473,2.25861,0.03433,0.0,0.10956,-0.03754,-0.01144,0.00183,-0.03769
8.9015,0.00031,-0.01328,-0.04486,-0.01144,-0.03387,-0.04059,-0.03952,-0.00259,2.31827,0.02853,0.00336,0.11871,-0.03555,-0.01297,0.00443,-0.03799
8.902,0.00656,-0.01007,-0.0412,-0.0119,-0.03479,-0.03998,-0.03204,-0.01266,2.37411,0.02121,0.00381,0.07248,-0.03326,-0.01358,0.0061,-0.03723
8.9025,0.00977,-0.00992,-0.0412,-0.0116,-0.03616,-0.04318,-0.01663,-0.0296,2.44034,0.01389,0.00031,-0.00275,-0.03372,-0.01373,0.00702,-0.03708
8.903,0.01099,-0.01083,-0.04288,-0.0116,-0.03845,-0.04639,-0.00732,-0.0383,2.51404,0.00565,-0.00412,-0.05463,-0.03616,-0.01404,0.00671,-0.03586
8.9035,0.0116,-0.01144,-0.04379,-0.01144,-0.04211,-0.05005,-0.01022,-0.03555,2.57874,-0.00351,-0.00961,-0.06241,-0.03723,-0.01495,0.00809,-0.0351
8.904,0.01434,-0.01495,-0.04486,-0.01221,-0.04242,-0.05173,-0.01862,-0.02899,2.60941,-0.01129,-0.01511,-0.04456,-0.0386,-0.01801,0.00839,-0.03448
8.9045,0.01694,-0.02182,-0.04608,-0.01221,-0.03967,-0.05341,-0.02167,-0.02243,2.59964,-0.01801,-0.01892,-0.02991,-0.03937,-0.01953,0.00824,-0.03403
8.905,0.01831,-0.0293,-0.047,-0.01053,-0.03601,-0.05539,-0.02121,-0.01328,2.57645,-0.02274,-0.0209,-0.02396,-0.04166,-0.01877,0.00748,-0.03342
8.9055,0.01648,-0.03708,-0.04715,-0.00885,-0.03357,-0.05783,-0.02441,-0.00122,2.55417,-0.02869,-0.02365,-0.01541,-0.04486,-0.01877,0.00946,-0.03342
8.906,0.01465,-0.04517,-0.04532,-0.00793,-0.02945,-0.05905,-0.02701,0.00656,2.51602,-0.03769,-0.02762,0.00519,-0.04822,-0.01923,0.01175,-0.03372
8.9065,0.01541,-0.05219,-0.0441,-0.00778,-0.02289,-0.05676,-0.01526,0.00366,2.44919,-0.04623,-0.03342,0.03754,-0.05051,-0.01953,0.01266,-0.03387
8.907,0.01663,-0.05432,-0.04517,-0.009,-0.01633,-0.05371,0.00519,-0.00458,2.36603,-0.0502,-0.03616,0.0676,-0.05081,-0.01694,0.01312,-0.03342
8.9075,0.01419,-0.04913,-0.047,-0.009,-0.01343,-0.05249,0.01129,-0.00717,2.2821,-0.04608,-0.02747,0.07355,-0.04761,-0.01144,0.01205,-0.03433
8.908,0.00687,-0.04089,-0.047,-0.00717,-0.0145,-0.0502,-0.00351,-0.00412,2.19666,-0.04211,-0.01007,0.03891,-0.04257,-0.00626,0.01007,-0.03433
8.9085,-0.00107,-0.03525,-0.04425,-0.0058,-0.01602,-0.04837,-0.01907,-0.00244,2.10754,-0.04166,0.00214,-0.01724,-0.03799,-0.00366,0.00931,-0.03464
8.909,-0.00641,-0.03143,-0.04074,-0.00534,-0.01617,-0.04517,-0.01892,-0.00458,2.01523,-0.04364,-0.00168,-0.05844,-0.03616,-0.00549,0.01114,-0.03479
8.9095,-0.00946,-0.02914,-0.0383,-0.00519,-0.01678,-0.04349,-0.00748,-0.00595,1.91971,-0.04776,-0.01419,-0.06622,-0.0383,-0.00885,0.01205,-0.0354
8.91,-0.01083,-0.03052,-0.03662,-0.00504,-0.01923,-0.04242,0.0,-0.00427,1.81808,-0.04913,-0.02106,-0.05157,-0.04257,-0.01175,0.01404,-0.03616
8.9105,-0.01389,-0.03784,-0.03616,-0.00458,-0.02304,-0.04303,-0.00122,-0.00259,1.71066,-0.05219,-0.02075,-0.02853,-0.04761,-0.01511,0.01358,-0.03494
8.911,-0.01816,-0.05081,-0.03632,-0.00565,-0.02518,-0.04211,-0.00595,-0.00183,1.59973,-0.05508,-0.02289,0.00092,-0.05188,-0.0177,0.01434,-0.0354
8.9115,-0.02121,-0.05997,-0.03342,-0.00702,-0.02716,-0.04135,-0.00717,-0.00137,1.48941,-0.05341,-0.02716,0.03494,-0.05447,-0.01923,0.01587,-0.03525
8.912,-0.0206,-0.056,-0.02869,-0.00854,-0.02777,-0.03983,-0.00824,-0.00153,1.37985,-0.04745,-0.02579,0.0592,-0.05707,-0.0209,0.01724,-0.03708
8.9125,-0.01801,-0.04333,-0.02441,-0.00992,-0.02808,-0.03922,-0.01022,-0.00198,1.26343,-0.04089,-0.01846,0.05707,-0.05997,-0.02258,0.01541,-0.0386
8.913,-0.01541,-0.03571,-0.02441,-0.01175,-0.02899,-0.0415,-0.01266,0.0,1.13708,-0.03571,-0.01755,0.02182,-0.06424,-0.02319,0.01175,-0.03967
8.9135,-0.0148,-0.03677,-0.03036,-0.0119,-0.02899,-0.04669,-0.01373,0.0087,1.01883,-0.03174,-0.0383,-0.02533,-0.06622,-0.0238,0.009,-0.0412
8.914,-0.01541,-0.03937,-0.0415,-0.0119,-0.02991,-0.05188,-0.01221,0.01923,0.92194,-0.02548,-0.07813,-0.05875,-0.06638,-0.02457,0.00961,-0.04227
8.9145,-0.01556,-0.0386,-0.05249,-0.01221,-0.03372,-0.05264,-0.0087,0.02151,0.82901,-0.01831,-0.10788,-0.0737,-0.06592,-0.02533,0.01007,-0.04333
8.915,-0.0119,-0.03693,-0.05905,-0.01404,-0.03632,-0.04883,-0.00488,0.01816,0.72647,-0.01419,-0.09949,-0.08163,-0.06714,-0.02365,0.00961,-0.04303
8.9155,-0.00702,-0.03998,-0.05859,-0.01389,-0.03922,-0.04578,-0.00244,0.0148,0.62393,-0.01404,-0.056,-0.08423,-0.06882,-0.02045,0.00946,-0.04288
8.916,-0.00671,-0.04608,-0.05417,-0.0119,-0.03967,-0.04745,-0.00336,0.01495,0.52628,-0.01984,-0.00534,-0.07446,-0.06836,-0.01709,0.01022,-0.04257
8.9165,-0.01266,-0.04761,-0.04944,-0.01175,-0.03922,-0.05127,-0.00671,0.01495,0.43091,-0.02716,0.03036,-0.05264,-0.06516,-0.01511,0.01053,-0.04242
8.917,-0.0206,-0.04272,-0.05096,-0.01434,-0.03967,-0.0531,-0.01099,0.01221,0.33951,-0.0351,0.05249,-0.03265,-0.0618,-0.01358,0.01129,-0.04395
8.9175,-0.02579,-0.03754,-0.06088,-0.01678,-0.04089,-0.0531,-0.01617,0.00992,0.24979,-0.0412,0.0798,-0.02014,-0.05966,-0.01282,0.00961,-0.04547
8.918,-0.0264,-0.03784,-0.07858,-0.01694,-0.04196,-0.05356,-0.02136,0.00839,0.16312,-0.04486,0.11093,-0.01373,-0.0592,-0.01328,0.00885,-0.04623
8.9185,-0.02502,-0.04196,-0.09521,-0.01587,-0.04288,-0.05173,-0.02457,0.00153,0.09445,-0.04944,0.11322,-0.01205,-0.05783,-0.01389,0.00916,-0.04715
8.919,-0.0238,-0.04761,-0.1091,-0.01678,-0.04364,-0.05737,-0.02167,-0.01343,0.04227,-0.0528,0.06653,-0.01373,-0.05402,-0.01419,0.00931,-0.04669
8.9195,-0.02213,-0.05798,-0.11887,-0.01785,-0.04303,-0.05737,-0.01343,-0.02869,-0.01266,-0.05112,-0.00198,-0.01434,-0.04974,-0.01389,0.00961,-0.04684
8.92,-0.01755,-0.07446,-0.12054,-0.01617,-0.03983,-0.05493,-0.0061,-0.03296,-0.08057,-0.04562,-0.04303,-0.00916,-0.04578,-0.01266,0.00809,-0.04868
8.9205,-0.01266,-0.08713,-0.1123,-0.0119,-0.03555,-0.05188,-0.0029,-0.02548,-0.15045,-0.03906,-0.03998,-0.00015,-0.04318,-0.01114,0.00519,-0.05081
8.921,-0.00977,-0.08438,-0.09567,-0.00946,-0.0322,-0.05112,-0.0058,-0.01724,-0.21515,-0.0322,-0.01724,0.0087,-0.04089,-0.00946,0.00519,-0.04898
8.9215,-0.00931,-0.06882,-0.07553,-0.01175,-0.03235,-0.05157,-0.01007,-0.02106,-0.27634,-0.02243,-0.00137,0.0119,-0.03815,-0.00854,0.00992,-0.04562
8.922,-0.01038,-0.05493,-0.05554,-0.01373,-0.03403,-0.04913,-0.01663,-0.02975,-0.33493,-0.00885,0.00275,0.00305,-0.03387,-0.00854,0.01297,-0.04272
8.9225,-0.01129,-0.04608,-0.03296,-0.0119,-0.03616,-0.05096,-0.02289,-0.02975,-0.3923,0.01007,0.00137,-0.01541,-0.03159,-0.00702,0.01312,-0.04288
8.923,-0.00961,-0.03891,-0.00458,-0.00839,-0.03693,-0.05066,-0.02762,-0.01846,-0.4483,0.03021,0.00076,-0.02609,-0.03128,-0.00504,0.01053,-0.0441
8.9235,-0.00763,-0.03021,0.02777,-0.00793,-0.03769,-0.05219,-0.02853,-0.0061,-0.5014,0.04608,0.00137,-0.01831,-0.03067,-0.00473,0.00931,-0.04425
8.924,-0.00488,-0.02289,0.05951,-0.00961,-0.03876,-0.05203,-0.02563,-0.00122,-0.54855,0.05295,-0.00198,-0.00412,-0.03021,-0.00916,0.01236,-0.04425
8.9245,-0.00214,-0.01846,0.08041,-0.01083,-0.03723,-0.04913,-0.02075,-0.00092,-0.58762,0.04974,-0.02045,0.00214,-0.03143,-0.01465,0.01419,-0.04395
8.925,0.0,-0.01816,0.08377,-0.0116,-0.0354,-0.0444,-0.01587,-0.00046,-0.61996,0.04059,-0.047,0.0058,-0.03387,-0.01968,0.0119,-0.0444
8.9255,-0.00046,-0.02274,0.06577,-0.01205,-0.03357,-0.03983,-0.01358,0.00244,-0.65292,0.03006,-0.05219,0.02167,-0.03448,-0.02243,0.00763,-0.04517
8.926,-0.00183,-0.03052,0.03403,-0.01282,-0.03342,-0.04013,-0.01343,0.00092,-0.69687,0.01862,-0.01495,0.03784,-0.03036,-0.02151,0.00839,-0.04959
8.9265,-0.00137,-0.03555,0.0058,-0.01328,-0.03342,-0.03891,-0.01404,-0.00595,-0.75134,0.00854,0.03433,0.03357,-0.02365,-0.01938,0.01251,-0.05478
8.927,0.00153,-0.03677,0.00031,-0.01251,-0.03265,-0.04211,-0.01511,-0.01266,-0.79636,0.00015,0.0412,0.01373,-0.01816,-0.0177,0.01648,-0.05615
8.9275,0.00412,-0.03708,0.02304,-0.01175,-0.03174,-0.04517,-0.01602,-0.01007,-0.81802,-0.00671,-0.00168,-0.00031,-0.01495,-0.01648,0.01755,-0.04974
8.928,0.00198,-0.04593,0.0589,-0.01099,-0.03082,-0.04654,-0.01648,-0.00229,-0.83801,-0.01007,-0.05203,0.00214,-0.01251,-0.01526,0.01709,-0.04044
8.9285,-0.00122,-0.06821,0.07751,-0.0119,-0.03143,-0.04761,-0.01556,0.00168,-0.87128,-0.01358,-0.06989,0.00778,-0.01068,-0.01434,0.01526,-0.03677
8.929,-0.00381,-0.09018,0.06287,-0.01236,-0.03128,-0.04837,-0.01419,0.00076,-0.90363,-0.01801,-0.06226,0.00763,-0.00946,-0.01343,0.01572,-0.03952
8.9295,-0.00458,-0.09262,0.02838,-0.01099,-0.03067,-0.04593,-0.01312,-0.00031,-0.92575,-0.02228,-0.0499,0.0032,-0.01007,-0.0119,0.01587,-0.04379
8.93,-0.0058,-0.07095,-0.00214,-0.01007,-0.02945,-0.04608,-0.01282,0.00229,-0.9407,-0.0235,-0.0412,-0.00214,-0.0116,-0.01053,0.01709,-0.04333
8.9305,-0.00748,-0.04196,-0.01617,-0.01007,-0.02899,-0.0473,-0.01358,0.0032,-0.9494,-0.02838,-0.03296,-0.01144,-0.01328,-0.01083,0.0177,-0.04196
8.931,-0.00824,-0.02258,-0.02106,-0.01068,-0.02899,-0.04837,-0.01389,0.00244,-0.95428,-0.03906,-0.0235,-0.02243,-0.01541,-0.01328,0.0174,-0.04333
8.9315,-0.009,-0.01541,-0.02563,-0.01022,-0.02594,-0.04852,-0.01373,0.00153,-0.95764,-0.05646,-0.01633,-0.02243,-0.01801,-0.01495,0.01755,-0.04639
8.932,-0.009,-0.01404,-0.03433,-0.01083,-0.02106,-0.04669,-0.01221,0.00183,-0.95337,-0.07507,-0.01251,0.00214,-0.02106,-0.01541,0.0174,-0.04822
8.9325,-0.00809,-0.01526,-0.04211,-0.01236,-0.01755,-0.04517,-0.00931,0.00229,-0.94391,-0.08682,-0.01068,0.05524,-0.0235,-0.01511,0.01633,-0.04745
8.933,-0.00534,-0.01862,-0.04761,-0.01205,-0.01602,-0.04318,-0.00732,0.00305,-0.9436,-0.0882,-0.01022,0.11108,-0.02335,-0.01495,0.01572,-0.04745
8.9335,-0.00015,-0.02487,-0.05035,-0.01068,-0.01755,-0.04318,-0.00748,0.00305,-0.96054,-0.08133,-0.01266,0.1207,-0.02289,-0.01587,0.01465,-0.04761
8.934,0.00671,-0.03128,-0.05127,-0.00992,-0.01938,-0.04196,-0.00946,0.00214,-0.98389,-0.07248,-0.01434,0.07797,-0.02365,-0.0177,0.01511,-0.047
8.9345,0.0116,-0.03342,-0.05066,-0.01038,-0.01907,-0.04227,-0.01114,0.00183,-1.00174,-0.06271,-0.01144,0.03983,-0.02579,-0.01923,0.01282,-0.04623
8.935,0.0119,-0.03036,-0.047,-0.01266,-0.01633,-0.04211,-0.01205,0.00092,-1.01379,-0.05325,-0.00595,0.04547,-0.02731,-0.02121,0.01083,-0.04623
8.9355,0.00763,-0.0267,-0.04456,-0.01236,-0.01297,-0.04089,-0.01251,0.0,-1.02509,-0.04303,-0.0087,0.06241,-0.03036,-0.0235,0.01007,-0.04715
8.936,0.00259,-0.02686,-0.04425,-0.01205,-0.00778,-0.03998,-0.01343,0.00015,-1.03607,-0.0351,-0.02151,0.04196,-0.03418,-0.02594,0.01022,-0.04532
8.9365,-0.00259,-0.03189,-0.04608,-0.01144,-0.00549,-0.03967,-0.01328,-0.00031,-1.04416,-0.03296,-0.03952,-0.00732,-0.03632,-0.02731,0.01038,-0.04257
8.937,-0.00671,-0.03708,-0.047,-0.01144,-0.00748,-0.04089,-0.01343,0.0,-1.04752,-0.03906,-0.05264,-0.03952,-0.03357,-0.02625,0.009,-0.04196
8.9375,-0.00961,-0.03906,-0.0473,-0.0116,-0.01144,-0.04395,-0.01358,0.00015,-1.04965,-0.04669,-0.05402,-0.03784,-0.02869,-0.02441,0.00824,-0.0441
8.938,-0.01205,-0.03799,-0.04639,-0.01251,-0.01465,-0.04791,-0.01419,0.00061,-1.0556,-0.0473,-0.04364,-0.02838,-0.02487,-0.0235,0.00717,-0.04776
8.9385,-0.01434,-0.03494,-0.04898,-0.01282,-0.01602,-0.05035,-0.0148,0.00061,-1.06812,-0.0351,-0.02853,-0.03311,-0.02121,-0.02228,0.00656,-0.05051
8.939,-0.01465,-0.02945,-0.05447,-0.01282,-0.01663,-0.05081,-0.01389,-0.00092,-1.08719,-0.01312,-0.02106,-0.04517,-0.01633,-0.02045,0.00641,-0.0502
8.9395,-0.01266,-0.02472,-0.06653,-0.01312,-0.01846,-0.04776,-0.0119,-0.00214,-1.11526,0.00854,-0.03372,-0.04562,-0.01251,-0.01785,0.00671,-0.04898
8.94,-0.00916,-0.02029,-0.08621,-0.01297,-0.02396,-0.04684,-0.01068,-0.00229,-1.14914,0.02472,-0.06271,-0.03189,-0.01053,-0.01724,0.00717,-0.04715
8.9405,-0.00717,-0.01831,-0.11063,-0.01144,-0.03189,-0.04623,-0.01221,-0.00229,-1.16913,0.03235,-0.08606,-0.01221,-0.0116,-0.02014,0.00839,-0.04501
8.941,-0.00641,-0.01785,-0.13397,-0.00961,-0.04105,-0.04395,-0.01419,-0.00198,-1.16669,0.03342,-0.07858,0.00732,-0.01053,-0.0235,0.01007,-0.04364
8.9415,-0.00732,-0.02121,-0.1503,-0.0087,-0.04822,-0.04425,-0.01358,-0.00153,-1.16608,0.02777,-0.04425,0.02029,-0.00763,-0.02487,0.00961,-0.04227
8.942,-0.00916,-0.02579,-0.15488,-0.00931,-0.0528,-0.04547,-0.01266,-0.00092,-1.18652,0.02274,-0.00702,0.01831,-0.00656,-0.02411,0.00595,-0.04135
8.9425,-0.00946,-0.0293,-0.13794,-0.01022,-0.05646,-0.04715,-0.01266,-0.00137,-1.21887,0.01663,0.01617,0.00931,-0.00824,-0.02075,0.00031,-0.04181
8.943,-0.00717,-0.03098,-0.10101,-0.01129,-0.05997,-0.04807,-0.01404,-0.00214,-1.25748,0.01358,0.02487,0.01801,-0.01099,-0.01663,-0.00549,-0.04196
8.9435,-0.0032,-0.03159,-0.04791,-0.01236,-0.06226,-0.04868,-0.01389,-0.00107,-1.29791,0.01007,0.02594,0.04044,-0.01236,-0.01465,-0.00931,-0.04196
8.944,-0.00107,-0.03326,0.00961,-0.01282,-0.06332,-0.04684,-0.01282,0.00046,-1.32431,0.01221,0.0238,0.04639,-0.0119,-0.0148,-0.01129,-0.04135
8.9445,0.00061,-0.03632,0.05356,-0.0119,-0.06348,-0.04929,-0.01205,0.00122,-1.30997,0.01862,0.02197,0.02029,-0.0119,-0.01495,-0.0119,-0.04044
8.945,0.00381,-0.0415,0.07553,-0.01022,-0.06439,-0.04913,-0.01221,0.0,-1.21002,0.03036,0.02136,-0.01068,-0.01251,-0.01495,-0.01175,-0.03967
8.9455,0.00748,-0.05157,0.07553,-0.00916,-0.06378,-0.05142,-0.01358,-0.00076,-0.99365,0.04333,0.02228,-0.0148,-0.01373,-0.01465,-0.00458,-0.03983
8.946,0.00854,-0.06424,0.05661,-0.00916,-0.06195,-0.05447,-0.0148,-0.00168,-0.67413,0.05096,0.02243,0.00748,-0.01724,-0.01648,0.00992,-0.03876
8.9465,0.00671,-0.07721,0.02243,-0.00885,-0.05981,-0.05539,-0.01541,-0.00198,-0.27161,0.05051,0.02228,0.03098,-0.02304,-0.01831,0.03296,-0.03693
8.947,0.00336,-0.08972,-0.02655,-0.01022,-0.05524,-0.0563,-0.0148,-0.0029,0.21423,0.03647,0.02182,0.03189,-0.02991,-0.01862,0.04745,-0.03632
8.9475,0.00092,-0.1004,-0.07675,-0.0116,-0.04837,-0.05737,-0.01434,-0.00351,0.75287,0.0177,0.0235,0.01404,-0.03586,-0.02029,0.04227,-0.03708
8.948,-0.00259,-0.10086,-0.10696,-0.01236,-0.04395,-0.05997,-0.01404,-0.00381,1.29501,0.00397,0.02518,-0.00793,-0.0386,-0.0235,0.02594,-0.03784
8.9485,-0.00809,-0.08713,-0.10223,-0.0116,-0.04227,-0.05936,-0.0148,-0.00397,1.85226,-0.00046,0.02441,-0.01846,-0.03845,-0.02548,0.01648,-0.03693
8.949,-0.01328,-0.06332,-0.07034,-0.01083,-0.04166,-0.05981,-0.01572,-0.00351,2.4852,-0.00031,0.02136,-0.01801,-0.04044,-0.02457,0.01862,-0.03464
8.9495,-0.01419,-0.04288,-0.03082,-0.00961,-0.03922,-0.05875,-0.01602,-0.00229,3.20465,-0.00214,0.01816,-0.01328,-0.04257,-0.02457,0.01953,-0.03448
8.95,-0.01221,-0.02991,0.00488,-0.00763,-0.03586,-0.05371,-0.01572,-0.00214,3.94791,-0.00687,0.01511,-0.00412,-0.04578,-0.02625,0.01663,-0.03677
8.9505,-0.01022,-0.02029,0.03326,-0.00763,-0.03387,-0.0563,-0.01587,-0.00214,4.57443,-0.01114,0.00946,0.00763,-0.0499,-0.0296,0.01373,-0.03937
8.951,-0.0087,-0.01129,0.05112,-0.00885,-0.03128,-0.05737,-0.01526,-0.00275,4.897,-0.01678,0.00214,0.01831,-0.05447,-0.03265,0.01465,-0.04074
8.9515,-0.00488,-0.00824,0.05829,-0.01007,-0.03143,-0.06134,-0.01312,-0.00229,4.89502,-0.02167,-0.00854,0.01816,-0.05692,-0.03357,0.01465,-0.0412
8.952,0.00015,-0.01205,0.05356,-0.01038,-0.03052,-0.05783,-0.01312,-0.00244,4.76898,-0.02518,-0.01663,0.00687,-0.05478,-0.0325,0.0119,-0.04196
8.9525,0.00458,-0.02075,0.03555,-0.00931,-0.03036,-0.05112,-0.0145,-0.00336,4.71176,-0.02838,-0.01923,-0.00336,-0.04913,-0.03036,0.00885,-0.0415
8.953,0.00885,-0.02869,0.00381,-0.00763,-0.03189,-0.04639,-0.01678,-0.00427,4.71863,-0.03403,-0.01572,-0.00351,-0.04578,-0.02975,0.00809,-0.03479
8.9535,0.01221,-0.03296,-0.03723,-0.00748,-0.03143,-0.04395,-0.01633,-0.00473,4.6965,-0.04852,-0.01297,0.00214,-0.04868,-0.03143,0.00885,-0.0238
8.954,0.01556,-0.03403,-0.06897,-0.00916,-0.03036,-0.04547,-0.01373,-0.00595,4.64096,-0.07019,-0.01663,0.0061,-0.05508,-0.03342,0.00916,-0.01419
8.9545,0.01816,-0.03418,-0.0798,-0.01129,-0.03052,-0.04272,-0.01236,-0.00687,4.599,-0.09064,-0.03311,0.00351,-0.0592,-0.03555,0.00992,-0.01312
8.955,0.01816,-0.03357,-0.0708,-0.01205,-0.03006,-0.04089,-0.01343,-0.00656,4.57672,-0.10056,-0.05402,-0.00305,-0.0592,-0.03677,0.00839,-0.01984
8.9555,0.0174,-0.03311,-0.05859,-0.01175,-0.03021,-0.03937,-0.0148,-0.0058,4.54742,-0.09857,-0.06424,-0.01053,-0.05569,-0.03571,0.00839,-0.0296
8.956,0.01495,-0.03571,-0.05234,-0.0119,-0.0293,-0.04013,-0.01541,-0.00504,4.50836,-0.08926,-0.05676,-0.01602,-0.05264,-0.03311,0.00916,-0.03693
8.9565,0.01297,-0.04272,-0.04745,-0.01282,-0.02914,-0.04013,-0.01541,-0.00504,4.47281,-0.07584,-0.03983,-0.01724,-0.05096,-0.03052,0.00885,-0.04135
8.957,0.0116,-0.05035,-0.04227,-0.01312,-0.02747,-0.04181,-0.01648,-0.00626,4.44397,-0.06012,-0.0238,-0.01099,-0.05096,-0.03098,0.00946,-0.04501
8.9575,0.01007,-0.05508,-0.04074,-0.0119,-0.02518,-0.04044,-0.01663,-0.00702,4.41345,-0.04578,-0.01099,0.00198,-0.05356,-0.03403,0.01007,-0.05173
8.958,0.00671,-0.05692,-0.04196,-0.01068,-0.02396,-0.04364,-0.01602,-0.00656,4.38065,-0.03281,0.00076,0.01465,-0.05676,-0.03754,0.00946,-0.05936
8.9585,0.00168,-0.05661,-0.04395,-0.00992,-0.02396,-0.0441,-0.01556,-0.00534,4.34875,-0.02304,0.00931,0.01892,-0.05707,-0.03815,0.00931,-0.06485
8.959,-0.00168,-0.05661,-0.04456,-0.00961,-0.02136,-0.04608,-0.0148,-0.00427,4.31915,-0.01785,0.00977,0.01862,-0.05432,-0.03464,0.00885,-0.06897
8.9595,-0.0029,-0.05524,-0.04303,-0.00961,-0.01724,-0.04395,-0.01419,-0.00473,4.28879,-0.01678,0.00153,0.02274,-0.04974,-0.02869,0.00656,-0.0708
8.96,-0.0029,-0.05173,-0.04257,-0.00916,-0.01358,-0.04089,-0.01419,-0.00519,4.2572,-0.01617,-0.00854,0.02945,-0.04684,-0.02197,0.00427,-0.07324
8.9605,-0.00351,-0.04898,-0.04379,-0.009,-0.01358,-0.04135,-0.01526,-0.00641,4.22653,-0.00992,-0.01465,0.02609,-0.0441,-0.01877,0.00336,-0.07278
8.961,-0.00519,-0.04761,-0.04547,-0.00931,-0.01328,-0.04303,-0.01587,-0.00549,4.19693,0.00137,-0.01968,0.01266,-0.03983,-0.01541,0.00107,-0.06821
8.9615,-0.00732,-0.04761,-0.04654,-0.00946,-0.01114,-0.04379,-0.01617,-0.00671,4.16794,0.01175,-0.02365,0.00565,-0.03448,-0.0119,0.00183,-0.05859
8.962,-0.00946,-0.04944,-0.04639,-0.00992,-0.00885,-0.0444,-0.01572,-0.00626,4.13788,0.01358,-0.01953,0.01587,-0.02914,-0.00687,0.00244,-0.04837
8.9625,-0.01022,-0.05066,-0.0441,-0.00977,-0.00763,-0.04242,-0.01587,-0.00519,4.10812,0.00565,-0.00031,0.03693,-0.02655,-0.00351,0.00443,-0.04028
8.963,-0.01099,-0.04837,-0.04196,-0.00916,-0.00732,-0.04105,-0.01541,-0.00519,4.07364,-0.00351,0.02838,0.04898,-0.02655,-0.00305,0.00595,-0.03601
8.9635,-0.01236,-0.04257,-0.03983,-0.00992,-0.00626,-0.04288,-0.01312,-0.0058,3.98834,-0.00977,0.04745,0.04013,-0.0293,-0.0032,0.00626,-0.03464
8.964,-0.01328,-0.03784,-0.04166,-0.0116,-0.0058,-0.04608,-0.0119,-0.00565,3.72208,-0.00778,0.047,0.01602,-0.03128,-0.0029,0.0032,-0.03372
8.9645,-0.01434,-0.03571,-0.04089,-0.01221,-0.0061,-0.04532,-0.01114,-0.00534,3.21793,-0.00427,0.03464,-0.0087,-0.03143,-0.00366,0.00275,-0.03372
8.965,-0.0145,-0.03601,-0.03998,-0.0119,-0.009,-0.04593,-0.01114,-0.00504,2.61017,0.00061,0.01846,-0.02579,-0.03174,-0.00565,0.00336,-0.03494
8.9655,-0.01495,-0.03601,-0.03922,-0.01022,-0.01465,-0.04562,-0.01175,-0.00473,2.05475,0.0029,0.00504,-0.03952,-0.03403,-0.00961,0.00397,-0.03738
8.966,-0.01511,-0.03586,-0.03937,-0.01007,-0.02243,-0.04532,-0.01282,-0.00458,1.55853,0.00565,-0.00397,-0.04944,-0.03647,-0.01434,0.00275,-0.03937
8.9665,-0.01404,-0.03586,-0.04074,-0.01053,-0.02747,-0.04669,-0.01312,-0.00366,1.07208,0.0058,-0.01144,-0.05142,-0.03738,-0.01755,0.00305,-0.04166
8.967,-0.01251,-0.03647,-0.04425,-0.01068,-0.03296,-0.04929,-0.01266,-0.00244,0.60532,0.00565,-0.01953,-0.04257,-0.03769,-0.0174,0.00244,-0.04288
8.9675,-0.0119,-0.03693,-0.047,-0.01007,-0.03708,-0.05051,-0.01312,-0.0032,0.19547,0.00153,-0.02991,-0.02731,-0.03708,-0.01495,0.00122,-0.04547
8.968,-0.01343,-0.03662,-0.04684,-0.00839,-0.04181,-0.05219,-0.01282,-0.00397,-0.1593,-0.00595,-0.05325,-0.01846,-0.03586,-0.01266,0.0,-0.04608
8.9685,-0.01572,-0.03708,-0.04593,-0.00717,-0.04486,-0.04974,-0.01328,-0.00565,-0.49591,-0.01404,-0.09857,-0.01831,-0.03433,-0.01343,0.0,-0.04257
8.969,-0.01755,-0.03693,-0.04547,-0.00793,-0.04578,-0.05035,-0.01404,-0.00626,-0.82932,-0.01846,-0.14496,-0.02563,-0.03265,-0.0177,0.00137,-0.03769
8.9695,-0.01755,-0.03647,-0.04364,-0.00824,-0.04547,-0.05081,-0.01465,-0.00595,-1.1322,-0.02014,-0.15823,-0.02823,-0.0322,-0.02151,0.0029,-0.0322
8.97,-0.01587,-0.03647,-0.04242,-0.00778,-0.04517,-0.05051,-0.01434,-0.00595,-1.36261,-0.01862,-0.12863,-0.01602,-0.03052,-0.0206,0.00549,-0.02808
8.9705,-0.01434,-0.03708,-0.04044,-0.00732,-0.04639,-0.0502,-0.01343,-0.00458,-1.48224,-0.01877,-0.08331,0.009,-0.02869,-0.01587,0.00748,-0.02579
8.971,-0.01251,-0.03738,-0.03952,-0.00748,-0.04974,-0.05096,-0.01282,-0.00259,-1.44699,-0.02258,-0.04883,0.02884,-0.02747,-0.0119,0.00732,-0.02533
8.9715,-0.0116,-0.0354,-0.03693,-0.00854,-0.04959,-0.05112,-0.01297,-0.00198,-1.24924,-0.02823,-0.02548,0.0293,-0.02609,-0.00748,0.00595,-0.02655
8.972,-0.01328,-0.03326,-0.03632,-0.00992,-0.04822,-0.05356,-0.01266,-0.00412,-0.95261,-0.03571,-0.00214,0.01205,-0.02441,-0.0061,0.00565,-0.02914
8.9725,-0.01617,-0.03128,-0.03357,-0.01099,-0.04608,-0.05112,-0.01251,-0.00534,-0.66711,-0.04379,0.01877,-0.00381,-0.02411,-0.00656,0.00443,-0.03128
8.973,-0.01617,-0.03052,-0.02914,-0.01205,-0.04517,-0.05081,-0.0119,-0.00488,-0.5069,-0.05005,0.02991,-0.01343,-0.02502,-0.00778,0.00397,-0.0322
8.9735,-0.01389,-0.03067,-0.02304,-0.01251,-0.04242,-0.04974,-0.01297,-0.00336,-0.55237,-0.05432,0.03311,-0.01968,-0.02655,-0.00931,0.00443,-0.03433
8.974,-0.0116,-0.03311,-0.01572,-0.01297,-0.03799,-0.04837,-0.01465,-0.00336,-0.77393,-0.05295,0.03464,-0.02792,-0.02548,-0.00916,0.00488,-0.03677
8.9745,-0.01205,-0.04059,-0.01068,-0.01312,-0.03403,-0.04776,-0.01587,-0.00626,-1.02402,-0.04883,0.03693,-0.03418,-0.02365,-0.01053,0.00519,-0.04013
8.975,-0.01663,-0.05096,-0.00824,-0.01389,-0.03098,-0.0473,-0.01633,-0.01007,-1.20071,-0.04562,0.03571,-0.03418,-0.02167,-0.01205,0.00397,-0.04517
8.9755,-0.02106,-0.05539,-0.01404,-0.01404,-0.02869,-0.04883,-0.01633,-0.01068,-1.4183,-0.04639,0.02792,-0.03021,-0.02045,-0.01404,0.00198,-0.05127
8.976,-0.01892,-0.0502,-0.02411,-0.01358,-0.02792,-0.04868,-0.01663,-0.00885,-1.85593,-0.04791,0.01083,-0.02289,-0.01801,-0.0148,-0.00015,-0.05539
8.9765,-0.01144,-0.03922,-0.03662,-0.0116,-0.03082,-0.047,-0.01617,-0.00595,-2.48337,-0.04517,-0.02441,-0.01282,-0.01434,-0.01328,-0.00336,-0.05341
8.977,-0.00488,-0.03006,-0.04272,-0.01038,-0.03479,-0.0473,-0.0148,-0.00351,-3.09387,-0.03937,-0.07736,-0.00427,-0.01221,-0.01205,-0.00565,-0.04745
8.9775,-0.00381,-0.02777,-0.04211,-0.00885,-0.03723,-0.04669,-0.01404,-0.00153,-3.58536,-0.0351,-0.12085,0.0,-0.01221,-0.01282,-0.00671,-0.04181
8.978,-0.00443,-0.02975,-0.04028,-0.00717,-0.03815,-0.047,-0.01495,-0.00183,-4.04343,-0.03586,-0.11154,0.00244,-0.01511,-0.01419,-0.00641,-0.0383
8.9785,-0.00458,-0.03342,-0.04288,-0.0029,-0.03891,-0.04654,-0.01526,-0.00259,-4.53781,-0.03876,-0.04059,0.00534,-0.01892,-0.01495,-0.00519,-0.03555
8.979,-0.00351,-0.0386,-0.05005,0.00885,-0.03845,-0.04684,-0.01526,-0.00168,-4.93134,-0.03647,0.04059,0.00931,-0.02594,-0.01465,-0.00076,-0.03159
8.9795,-0.00458,-0.04425,-0.05905,0.03006,-0.03616,-0.04715,-0.01434,0.00336,-4.97437,-0.02884,0.07584,0.01221,-0.03357,-0.0145,0.00183,-0.02869
8.98,-0.0061,-0.04837,-0.06577,0.05005,-0.03326,-0.04471,-0.01282,0.0087,-4.97406,-0.02319,0.06561,0.01236,-0.03998,-0.01251,0.00519,-0.02777
8.9805,-0.00702,-0.04547,-0.0708,0.05219,-0.03098,-0.04379,-0.01266,0.01068,-4.96902,-0.02258,0.04715,0.01007,-0.04562,-0.01099,0.0058,-0.02823
8.981,-0.00519,-0.03799,-0.07492,0.03326,-0.03067,-0.04089,-0.01358,0.00946,-4.97559,-0.02655,0.04211,0.00916,-0.05173,-0.01175,0.00565,-0.02975
8.9815,-0.00351,-0.03296,-0.07202,0.00885,-0.02975,-0.04059,-0.01389,0.00687,-4.97528,-0.03052,0.05081,0.00916,-0.0563,-0.01312,0.0058,-0.03174
8.982,-0.00214,-0.0354,-0.06409,-0.00885,-0.02777,-0.03937,-0.01373,0.00687,-4.97498,-0.03143,0.0705,0.01083,-0.05707,-0.01419,0.00748,-0.03662
8.9825,0.00046,-0.04364,-0.05051,-0.02167,-0.02625,-0.03906,-0.01297,0.00656,-4.97482,-0.03143,0.09003,0.01099,-0.05432,-0.01312,0.01068,-0.04181
8.983,0.00488,-0.04944,-0.04028,-0.03647,-0.02487,-0.04028,-0.01266,0.00641,-4.97482,-0.03189,0.0766,0.00931,-0.04959,-0.01099,0.01389,-0.04639
8.9835,0.009,-0.04959,-0.02945,-0.05295,-0.02457,-0.0444,-0.01389,0.0061,-4.97482,-0.03357,0.0145,0.00565,-0.04333,-0.009,0.01312,-0.05051
8.984,0.01175,-0.04654,-0.01343,-0.06454,-0.02411,-0.04684,-0.01511,0.00473,-4.97452,-0.03204,-0.05798,0.00397,-0.03738,-0.00793,0.01022,-0.05417
8.9845,0.01709,-0.04364,0.00549,-0.06729,-0.02518,-0.04898,-0.01465,0.00198,-4.97452,-0.02426,-0.08865,0.0032,-0.03357,-0.009,0.00793,-0.05478
8.985,0.02548,-0.04364,0.02075,-0.06393,-0.02563,-0.04929,-0.01297,-0.00137,-4.97482,-0.01175,-0.07431,0.00214,-0.03082,-0.01022,0.00854,-0.05035
8.9855,0.03128,-0.04715,0.02594,-0.05997,-0.02411,-0.04898,-0.01144,-0.0032,-4.97513,0.00092,-0.05341,-0.00046,-0.02716,-0.01129,0.00946,-0.04105
8.986,0.02991,-0.05356,0.01709,-0.05676,-0.0206,-0.04883,-0.01236,-0.00366,-4.97482,0.00977,-0.0499,-0.00137,-0.02365,-0.01083,0.00961,-0.03235
8.9865,0.02304,-0.05981,0.00412,-0.05463,-0.01801,-0.04883,-0.01434,-0.00458,-4.97482,0.01312,-0.05569,0.00305,-0.02197,-0.01144,0.00717,-0.02914
8.987,0.01526,-0.06012,-0.00641,-0.05173,-0.01678,-0.04639,-0.01572,-0.0061,-4.97467,0.01068,-0.05615,0.00641,-0.02213,-0.01297,0.00366,-0.02975
8.9875,0.00778,-0.056,-0.00916,-0.04776,-0.01648,-0.04471,-0.01633,-0.00839,-4.97482,0.00641,-0.05127,-0.00229,-0.02243,-0.01404,0.00305,-0.03006
8.988,0.00137,-0.05005,-0.01022,-0.03998,-0.01633,-0.04395,-0.01465,-0.00992,-4.97467,0.00412,-0.04593,-0.02136,-0.02289,-0.01541,0.00504,-0.02823
8.9885,-0.00412,-0.04501,-0.00931,-0.02701,-0.0177,-0.04532,-0.01328,-0.00961,-4.97467,0.00366,-0.03616,-0.03433,-0.02228,-0.01602,0.00717,-0.0293
8.989,-0.00565,-0.04105,-0.01358,-0.01007,-0.01892,-0.04562,-0.01312,-0.0087,-4.95956,0.00488,-0.02029,-0.02777,-0.02228,-0.01694,0.00946,-0.03235
8.9895,-0.00473,-0.03922,-0.02045,0.00168,-0.02029,-0.04578,-0.0145,-0.00748,-4.91989,0.00641,-0.00687,-0.00595,-0.02182,-0.01877,0.0119,-0.03418
8.99,-0.00351,-0.03723,-0.02869,0.00351,-0.02151,-0.04578,-0.01526,-0.00702,-4.88312,0.00565,-0.00458,0.0148,-0.0209,-0.01968,0.01526,-0.03098
8.9905,-0.00366,-0.0354,-0.03387,-0.00168,-0.0235,-0.04608,-0.01617,-0.00732,-4.8497,0.00015,-0.01526,0.0264,-0.01907,-0.02014,0.0145,-0.02655
8.991,-0.00397,-0.03265,-0.03616,-0.00381,-0.02625,-0.04791,-0.01633,-0.00702,-4.81613,-0.01007,-0.02609,0.0325,-0.01785,-0.01968,0.01419,-0.02487
8.9915,-0.0029,-0.03052,-0.03418,-0.00153,-0.02625,-0.05005,-0.01572,-0.00671,-4.77905,-0.01846,-0.02747,0.03799,-0.0174,-0.01831,0.01541,-0.02777
8.992,-0.00366,-0.02991,-0.03403,0.00504,-0.02472,-0.05173,-0.01511,-0.00671,-4.74258,-0.0235,-0.02426,0.0441,-0.01724,-0.0177,0.01846,-0.03296
8.9925,-0.00549,-0.0322,-0.03738,0.01221,-0.02808,-0.05127,-0.0148,-0.00732,-4.69055,-0.02487,-0.02289,0.04181,-0.0177,-0.01831,0.02045,-0.03815
8.993,-0.01053,-0.03555,-0.0412,0.01755,-0.03113,-0.05066,-0.01434,-0.009,-4.50668,-0.02197,-0.02426,0.02441,-0.01923,-0.01923,0.01862,-0.04288
8.9935,-0.01495,-0.03754,-0.04379,0.01968,-0.03632,-0.05112,-0.01404,-0.00961,-4.0184,-0.01602,-0.02792,-0.00046,-0.02075,-0.01877,0.01465,-0.04364
8.994,-0.01572,-0.03754,-0.04517,0.02029,-0.03922,-0.05188,-0.01404,-0.01053,-3.26767,-0.00885,-0.03372,-0.01724,-0.02075,-0.01831,0.01129,-0.03906
8.9945,-0.01328,-0.0383,-0.04486,0.02228,-0.03967,-0.05051,-0.01495,-0.00977,-2.53555,-0.009,-0.03891,-0.02274,-0.01907,-0.01877,0.00992,-0.02991
8.995,-0.01099,-0.03967,-0.04349,0.02182,-0.03998,-0.04837,-0.01587,-0.00748,-1.99158,-0.01831,-0.0415,-0.02548,-0.01984,-0.01907,0.00946,-0.02487
8.9955,-0.00961,-0.0415,-0.0412,0.01724,-0.03952,-0.04822,-0.01617,-0.00488,-1.55563,-0.03387,-0.0444,-0.02869,-0.02304,-0.01907,0.00854,-0.02563
8.996,-0.01022,-0.04227,-0.04013,0.0116,-0.03784,-0.04913,-0.01572,-0.00351,-1.11557,-0.0441,-0.05157,-0.02701,-0.02563,-0.01862,0.00717,-0.02594
8.9965,-0.01007,-0.04181,-0.04013,0.00778,-0.03616,-0.05051,-0.0148,-0.0032,-0.69763,-0.0415,-0.05981,-0.0177,-0.02548,-0.0177,0.00763,-0.02258
8.997,-0.00885,-0.04227,-0.04028,-0.00092,-0.03784,-0.05051,-0.01312,-0.00198,-0.36041,-0.02808,-0.0618,-0.00748,-0.02411,-0.01785,0.00916,-0.01877
8.9975,-0.00671,-0.04395,-0.04211,-0.02029,-0.04044,-0.04959,-0.01175,0.00031,-0.05768,-0.01129,-0.056,-0.00565,-0.02441,-0.01968,0.00977,-0.02533
8.998,-0.00519,-0.04456,-0.04333,-0.04227,-0.03983,-0.05081,-0.01175,0.00198,0.28595,0.00458,-0.0473,-0.00916,-0.02655,-0.0235,0.00885,-0.04044
8.9985,-0.00473,-0.04227,-0.04303,-0.04669,-0.03738,-0.05188,-0.01297,0.00259,0.64499,0.01801,-0.03632,-0.00809,-0.02808,-0.0267,0.00854,-0.05676
8.999,-0.00595,-0.03967,-0.04196,-0.02594,-0.03311,-0.05203,-0.01404,0.00244,0.94452,0.02426,-0.02472,0.00061,-0.02655,-0.02808,0.00763,-0.06897
8.9995,-0.00748,-0.03769,-0.03998,0.01099,-0.02869,-0.05005,-0.01266,0.00259,1.16333,0.02579,-0.01144,0.009,-0.02457,-0.02838,0.00671,-0.08224
9.0,-0.00748,-0.03708,-0.0383,0.03708,-0.02502,-0.04852,-0.01083,0.00366,1.31882,0.0238,-0.00107,0.01053,-0.02335,-0.02853,0.00626,-0.09399
9.0005,-0.00824,-0.03876,-0.03647,0.03265,-0.02319,-0.04837,-0.00946,0.00412,1.42502,0.02304,0.00015,0.00641,-0.02335,-0.02884,0.00763,-0.09506
9.001,-0.00992,-0.03876,-0.03555,-0.00519,-0.02335,-0.04883,-0.01129,0.0029,1.49597,0.02533,-0.00793,0.00488,-0.02411,-0.03006,0.00946,-0.08072
9.0015,-0.01099,-0.03799,-0.0351,-0.05585,-0.02731,-0.04868,-0.01251,-0.00015,1.53641,0.02869,-0.02197,0.00671,-0.02686,-0.03235,0.01129,-0.06348
9.002,-0.01099,-0.03754,-0.0351,-0.08942,-0.02991,-0.04837,-0.01358,-0.00137,1.51611,0.02762,-0.03265,0.00809,-0.03128,-0.03387,0.0119,-0.05447
9.0025,-0.01099,-0.03769,-0.03479,-0.09125,-0.03174,-0.04791,-0.01251,-0.00259,1.42395,0.01984,-0.03311,0.00671,-0.03357,-0.03357,0.01053,-0.05341
9.003,-0.01312,-0.03723,-0.03387,-0.07416,-0.03113,-0.047,-0.01205,-0.0032,1.29318,0.00763,-0.02548,0.00443,-0.03387,-0.03189,0.00763,-0.05447
9.0035,-0.01953,-0.03693,-0.03403,-0.05753,-0.03204,-0.047,-0.0119,-0.00381,1.14899,-0.00473,-0.01862,0.00458,-0.03433,-0.03082,0.00702,-0.05615
9.004,-0.02594,-0.03601,-0.03448,-0.04593,-0.03479,-0.04822,-0.01282,-0.00473,0.96085,-0.01328,-0.0148,0.00671,-0.03464,-0.03128,0.00763,-0.06058
9.0045,-0.02823,-0.03632,-0.03326,-0.02869,-0.03998,-0.04913,-0.01373,-0.00504,0.65109,-0.02335,-0.01144,0.00778,-0.03387,-0.03159,0.00763,-0.06577
9.005,-0.02411,-0.03815,-0.03143,0.00305,-0.04623,-0.04807,-0.01404,-0.0032,0.21561,-0.02777,-0.00519,0.00565,-0.0325,-0.03098,0.00763,-0.06805
9.0055,-0.01877,-0.03952,-0.0293,0.03799,-0.05051,-0.04776,-0.01419,-0.0032,-0.1799,-0.03571,0.00076,0.00275,-0.03143,-0.03174,0.00595,-0.06973
9.006,-0.01389,-0.03937,-0.02899,0.05554,-0.05157,-0.04623,-0.01434,-0.00397,-0.40894,-0.03937,0.00595,0.00031,-0.03159,-0.03082,0.0061,-0.07339
9.0065,-0.01205,-0.03937,-0.02884,0.05264,-0.04913,-0.04654,-0.01495,-0.00519,-0.64758,-0.04562,0.00488,-0.00168,-0.03265,-0.02991,0.00977,-0.07919
9.007,-0.00961,-0.0415,-0.02747,0.04395,-0.04807,-0.04639,-0.0148,-0.00641,-1.18042,-0.05615,-0.00366,-0.00244,-0.03403,-0.02823,0.01038,-0.08301
9.0075,-0.00626,-0.04379,-0.0267,0.03586,-0.04852,-0.047,-0.01434,-0.00671,-1.93085,-0.07187,-0.0148,-0.00198,-0.03235,-0.02625,0.00885,-0.08286
9.008,-0.00336,-0.04501,-0.0267,0.0238,-0.04974,-0.04791,-0.01526,-0.00702,-2.40891,-0.08102,-0.01816,-0.00076,-0.02808,-0.02594,0.00549,-0.07782
9.0085,-0.00107,-0.04471,-0.02823,0.00641,-0.05005,-0.04669,-0.01694,-0.00656,-2.24625,-0.08331,-0.01373,0.00015,-0.02411,-0.02655,0.00412,-0.07034
9.009,0.00183,-0.04532,-0.03174,-0.00519,-0.04761,-0.04486,-0.01678,-0.00534,-1.62018,-0.07355,-0.00397,0.00015,-0.02365,-0.02914,0.00504,-0.06104
9.0095,0.00504,-0.04715,-0.03937,-0.00336,-0.04318,-0.04471,-0.01526,-0.0032,-0.98587,-0.0647,0.00641,0.00015,-0.02335,-0.03128,0.00702,-0.05341
9.01,0.00824,-0.04868,-0.05096,0.00793,-0.03998,-0.04639,-0.01312,-0.00122,-0.55756,-0.05829,0.01663,0.00015,-0.01892,-0.03128,0.00763,-0.04791
9.0105,0.01007,-0.05035,-0.06195,0.01511,-0.03769,-0.04669,-0.01297,-0.00031,-0.2446,-0.04929,0.02304,0.00092,-0.01144,-0.03021,0.00702,-0.0444
9.011,0.01068,-0.05188,-0.06271,0.01602,-0.03601,-0.04532,-0.0145,-0.00107,0.06744,-0.04471,0.02182,0.00183,-0.00565,-0.0296,0.00626,-0.03738
9.0115,0.01114,-0.05463,-0.05035,0.01358,-0.0354,-0.0444,-0.0148,-0.00183,0.37201,-0.04379,0.0148,-0.00046,-0.00473,-0.03082,0.00641,-0.02884
9.012,0.00977,-0.06027,-0.03662,0.01022,-0.03525,-0.04517,-0.01434,-0.00244,0.62134,-0.04349,0.00565,-0.00412,-0.00977,-0.03372,0.00778,-0.02197
9.0125,0.0087,-0.0679,-0.03036,0.00671,-0.03265,-0.04684,-0.01343,-0.00183,0.82321,-0.03922,0.0,-0.00412,-0.01663,-0.0354,0.01083,-0.01724
9.013,0.00854,-0.07217,-0.03265,-0.00015,-0.03006,-0.04654,-0.01221,0.00061,1.01685,-0.03006,-0.00198,-0.00076,-0.02502,-0.0354,0.01419,-0.0148
9.0135,0.01007,-0.06912,-0.03662,-0.00702,-0.02731,-0.04593,-0.0116,0.0032,1.20529,-0.01526,-0.00336,0.00305,-0.03387,-0.03525,0.01648,-0.01541
9.014,0.01205,-0.06088,-0.03754,-0.01266,-0.02808,-0.04593,-0.01221,0.00488,1.35834,0.00122,-0.0058,0.00214,-0.04562,-0.03647,0.01648,-0.02106
9.0145,0.01221,-0.05157,-0.03693,-0.01419,-0.02762,-0.04654,-0.01205,0.00412,1.46591,0.01541,-0.01587,-0.00137,-0.06195,-0.03693,0.01465,-0.03052
9.015,0.01053,-0.04456,-0.03586,-0.01495,-0.02686,-0.04639,-0.01236,0.00168,1.54251,0.0264,-0.04196,-0.00488,-0.07874,-0.0351,0.01236,-0.04379
9.0155,0.009,-0.03693,-0.03464,-0.0148,-0.02426,-0.04578,-0.01312,-0.00107,1.59286,0.02777,-0.07126,-0.00671,-0.09048,-0.03189,0.01083,-0.05478
9.016,0.00641,-0.03189,-0.03265,-0.01541,-0.02304,-0.04578,-0.01434,-0.00061,1.62262,0.01358,-0.06912,-0.00809,-0.09247,-0.02853,0.01068,-0.06271
9.0165,0.00397,-0.03082,-0.03204,-0.01434,-0.02365,-0.04593,-0.01434,0.00061,1.65298,-0.00839,-0.02319,-0.01007,-0.08453,-0.02625,0.01083,-0.06912
9.017,0.00198,-0.02991,-0.03311,-0.01389,-0.02365,-0.04608,-0.0148,0.00168,1.69342,-0.0235,0.03647,-0.00946,-0.07187,-0.02396,0.01129,-0.07065
9.0175,0.00137,-0.02853,-0.03326,-0.0148,-0.02365,-0.04593,-0.0148,0.00183,1.72379,-0.0238,0.06638,-0.00641,-0.06073,-0.02197,0.01099,-0.06866
9.018,0.00198,-0.02533,-0.03235,-0.01495,-0.02197,-0.04517,-0.0148,0.00229,1.72485,-0.01892,0.06027,-0.0029,-0.05447,-0.01892,0.00824,-0.06073
9.0185,0.00244,-0.02365,-0.03113,-0.01434,-0.02167,-0.04654,-0.01434,0.00259,1.70258,-0.01465,0.03433,-0.00153,-0.0502,-0.01419,0.00565,-0.05508
9.019,0.00107,-0.02289,-0.03082,-0.01389,-0.02197,-0.04608,-0.0145,0.00061,1.67465,-0.01236,0.00656,-0.0029,-0.04684,-0.00977,0.00458,-0.05463
9.0195,-0.00076,-0.02365,-0.03174,-0.01373,-0.02243,-0.04517,-0.01312,-0.00061,1.64429,-0.01602,-0.0145,-0.00381,-0.04395,-0.009,0.00595,-0.05951
9.02,-0.00183,-0.02655,-0.03143,-0.01282,-0.02045,-0.04501,-0.01205,0.0,1.60263,-0.02411,-0.02396,-0.00244,-0.04379,-0.00961,0.00687,-0.05997
9.0205,-0.00244,-0.03143,-0.03052,-0.01205,-0.01877,-0.04456,-0.01129,0.00183,1.54404,-0.03235,-0.01694,0.00046,-0.04654,-0.00916,0.00732,-0.05569
9.021,-0.00275,-0.03647,-0.02838,-0.01282,-0.01801,-0.04501,-0.01144,0.00107,1.47186,-0.04166,-0.00198,0.00305,-0.04883,-0.00763,0.0061,-0.04883
9.0215,-0.00397,-0.03967,-0.02792,-0.01434,-0.01755,-0.04547,-0.01221,-0.00137,1.40656,-0.05432,0.0061,0.00381,-0.0499,-0.00595,0.00534,-0.04257
9.022,-0.00626,-0.03967,-0.02914,-0.01541,-0.01984,-0.04745,-0.01343,-0.00381,1.35818,-0.06683,0.0,0.0032,-0.04807,-0.00565,0.00732,-0.03647
9.0225,-0.00793,-0.03845,-0.03098,-0.01572,-0.01999,-0.04913,-0.01343,-0.00534,1.30722,-0.07355,-0.00824,0.00198,-0.0444,-0.00504,0.00885,-0.03296
9.023,-0.00809,-0.03723,-0.03311,-0.01633,-0.02258,-0.04929,-0.01419,-0.00549,1.24298,-0.06805,0.0032,0.00092,-0.04135,-0.00519,0.00854,-0.03143
9.0235,-0.00885,-0.03784,-0.03387,-0.01663,-0.02396,-0.04929,-0.01541,-0.00519,1.18042,-0.05661,0.03952,0.00031,-0.03952,-0.00595,0.00687,-0.02991
9.024,-0.00946,-0.04013,-0.03296,-0.01587,-0.02838,-0.04822,-0.01602,-0.00549,1.12183,-0.0473,0.06943,0.00031,-0.03952,-0.00717,0.00656,-0.02716
9.0245,-0.01068,-0.04303,-0.03296,-0.01389,-0.03235,-0.04822,-0.01602,-0.00443,1.05896,-0.04517,0.0618,0.00244,-0.03967,-0.00778,0.00748,-0.02563
9.025,-0.01251,-0.04471,-0.03403,-0.0119,-0.03723,-0.04944,-0.01633,-0.00397,0.99457,-0.0444,0.02151,0.00549,-0.04105,-0.00656,0.00793,-0.02411
9.0255,-0.01358,-0.04547,-0.03479,-0.01175,-0.0412,-0.05127,-0.01617,-0.00549,0.92957,-0.04288,-0.02213,0.00763,-0.04471,-0.00702,0.00854,-0.02213
9.026,-0.01343,-0.04532,-0.03418,-0.01266,-0.04349,-0.0502,-0.01617,-0.00793,0.86731,-0.03708,-0.04715,0.00854,-0.04776,-0.00748,0.009,-0.02121
9.0265,-0.01312,-0.04593,-0.03448,-0.0145,-0.04257,-0.04837,-0.01495,-0.00946,0.81772,-0.02594,-0.05417,0.00824,-0.04852,-0.00839,0.0087,-0.01984
9.027,-0.01328,-0.047,-0.03448,-0.01541,-0.04242,-0.04761,-0.01389,-0.00885,0.77835,-0.01389,-0.05341,0.00763,-0.04608,-0.00763,0.00931,-0.01907
9.0275,-0.01343,-0.04852,-0.03464,-0.01511,-0.04242,-0.04761,-0.01312,-0.0087,0.73303,-0.00183,-0.04959,0.00824,-0.04318,-0.00656,0.01114,-0.01877
9.028,-0.01419,-0.04776,-0.03494,-0.01343,-0.04318,-0.04822,-0.01312,-0.0087,0.67581,0.01068,-0.03571,0.00702,-0.04044,-0.00809,0.01404,-0.01831
9.0285,-0.01404,-0.04684,-0.03571,-0.01068,-0.04379,-0.04852,-0.01297,-0.00885,0.61493,0.03021,-0.0058,0.0032,-0.03586,-0.01114,0.01465,-0.0209
9.029,-0.01541,-0.04669,-0.0354,-0.00824,-0.0444,-0.04868,-0.01297,-0.00885,0.55695,0.05905,0.02274,-0.00214,-0.02853,-0.01404,0.01129,-0.02335
9.0295,-0.01648,-0.04807,-0.03586,-0.00885,-0.04425,-0.04868,-0.01266,-0.00763,0.50125,0.08057,0.0235,-0.00549,-0.02029,-0.01495,0.0087,-0.02518
9.03,-0.01663,-0.04852,-0.03586,-0.00931,-0.04349,-0.04883,-0.01221,-0.00641,0.44418,0.07767,-0.00534,-0.00336,-0.01404,-0.01373,0.00763,-0.02594
9.0305,-0.01434,-0.04776,-0.03677,-0.01068,-0.04272,-0.04868,-0.01251,-0.00626,0.38513,0.05096,-0.03647,0.00092,-0.01053,-0.01282,0.00839,-0.0264
9.031,-0.01175,-0.04822,-0.03662,-0.01083,-0.03952,-0.04929,-0.01358,-0.00702,0.32776,0.01877,-0.04868,0.00397,-0.009,-0.01144,0.00809,-0.0264
9.0315,-0.01053,-0.04883,-0.03525,-0.01038,-0.03616,-0.04898,-0.01511,-0.00732,0.27679,-0.00305,-0.04532,0.0061,-0.00732,-0.01022,0.00626,-0.02731
9.032,-0.01251,-0.0499,-0.03418,-0.01099,-0.03357,-0.04898,-0.01678,-0.00626,0.22873,-0.0145,-0.04044,0.00763,-0.00443,-0.01007,0.00504,-0.02945
9.0325,-0.01419,-0.05112,-0.03372,-0.01083,-0.03235,-0.04852,-0.01678,-0.00488,0.17853,-0.02518,-0.03891,0.009,-0.00168,-0.0119,0.0058,-0.03036
9.033,-0.01358,-0.04944,-0.0351,-0.0116,-0.03128,-0.04761,-0.01633,-0.00534,0.12314,-0.03799,-0.03159,0.01022,-0.00092,-0.01343,0.00854,-0.03067
9.0335,-0.01251,-0.04715,-0.03571,-0.01129,-0.03006,-0.04684,-0.01633,-0.00763,0.06912,-0.04196,-0.01953,0.01129,-0.00153,-0.01022,0.00977,-0.0293
9.034,-0.01175,-0.04517,-0.0354,-0.01221,-0.0293,-0.047,-0.0177,-0.00809,0.01831,-0.0322,-0.01526,0.0119,-0.00381,-0.00259,0.01007,-0.02762
9.0345,-0.01175,-0.04486,-0.03525,-0.01114,-0.03021,-0.04776,-0.01862,-0.00656,-0.02884,-0.01587,-0.03357,0.0148,-0.00687,0.00412,0.00992,-0.02655
9.035,-0.01266,-0.04669,-0.03525,-0.01068,-0.03174,-0.04868,-0.0174,-0.0061,-0.06149,-0.00198,-0.06668,0.02106,-0.01328,0.0058,0.01175,-0.02716
9.0355,-0.01312,-0.04852,-0.03571,-0.01007,-0.03265,-0.04684,-0.01556,-0.00671,-0.07538,0.00595,-0.08759,0.03357,-0.02121,0.00214,0.0119,-0.02914
9.036,-0.01343,-0.04868,-0.03586,-0.01068,-0.0325,-0.04684,-0.01511,-0.00671,-0.08835,0.00916,-0.08255,0.05127,-0.02792,-0.00275,0.0119,-0.03021
9.0365,-0.01373,-0.04852,-0.0354,-0.01205,-0.03159,-0.04578,-0.01587,-0.00656,-0.10986,0.01129,-0.06531,0.06912,-0.03296,-0.00443,0.0116,-0.02869
9.037,-0.01419,-0.04684,-0.03586,-0.01266,-0.03128,-0.04669,-0.0174,-0.00671,-0.12665,0.01328,-0.05722,0.08347,-0.04028,-0.00397,0.01266,-0.02869
9.0375,-0.01389,-0.04486,-0.03586,-0.01221,-0.03006,-0.04761,-0.01694,-0.0087,-0.1358,0.0206,-0.06195,0.08621,-0.04868,-0.00427,0.01495,-0.02838
9.038,-0.01358,-0.0444,-0.03464,-0.01175,-0.0296,-0.04883,-0.01541,-0.00977,-0.14481,0.03021,-0.06989,0.06683,-0.05447,-0.00931,0.01709,-0.02579
9.0385,-0.01297,-0.04517,-0.03403,-0.01221,-0.0293,-0.04883,-0.01465,-0.00839,-0.15625,0.03693,-0.07614,0.02243,-0.05295,-0.01953,0.0174,-0.02563
9.039,-0.01175,-0.04562,-0.03433,-0.01205,-0.02899,-0.04715,-0.01434,-0.00458,-0.17456,0.03143,-0.07629,-0.03265,-0.04395,-0.03113,0.01511,-0.02762
9.0395,-0.009,-0.04562,-0.03418,-0.0119,-0.02884,-0.04578,-0.01434,-0.00137,-0.19196,0.01526,-0.06897,-0.08179,-0.03082,-0.03876,0.01404,-0.03082
9.04,-0.00916,-0.04364,-0.03342,-0.01221,-0.02808,-0.04562,-0.01465,-0.00031,-0.19073,-0.0029,-0.05615,-0.11932,-0.01801,-0.04166,0.01175,-0.03479
9.0405,-0.00992,-0.04272,-0.03372,-0.01175,-0.02701,-0.04593,-0.01434,-0.00046,-0.17136,-0.01602,-0.04089,-0.14389,-0.00778,-0.04395,0.01007,-0.03876
9.041,-0.00992,-0.04196,-0.03479,-0.01053,-0.02777,-0.04562,-0.01297,0.0,-0.16129,-0.02563,-0.02686,-0.14404,-0.00153,-0.04807,0.00839,-0.04059
9.0415,-0.00946,-0.0412,-0.03708,-0.01038,-0.02808,-0.04456,-0.01266,-0.00015,-0.17731,-0.03525,-0.01389,-0.10468,0.00214,-0.05066,0.00778,-0.04288
9.042,-0.00824,-0.04013,-0.03876,-0.01129,-0.02808,-0.04349,-0.01358,-0.00122,-0.20721,-0.04196,-0.00092,-0.02441,0.00351,-0.04822,0.00763,-0.04364
9.0425,-0.00656,-0.03937,-0.03998,-0.01175,-0.02792,-0.04593,-0.01541,-0.0029,-0.23254,-0.04303,0.01404,0.06592,0.00351,-0.04089,0.00748,-0.04486
9.043,-0.00397,-0.03967,-0.03983,-0.01175,-0.02853,-0.04578,-0.01556,-0.0029,-0.24765,-0.0412,0.02625,0.10284,0.00275,-0.03433,0.00809,-0.04486
9.0435,-0.00229,-0.03952,-0.03891,-0.01144,-0.03036,-0.04639,-0.01511,-0.00168,-0.25467,-0.04044,0.03082,0.05692,0.00107,-0.03052,0.00885,-0.04608
9.044,-0.00092,-0.03891,-0.0386,-0.01251,-0.03098,-0.04639,-0.01572,-0.00092,-0.25421,-0.0473,0.0264,-0.01724,-0.00061,-0.03006,0.00885,-0.04684
9.0445,0.00031,-0.03922,-0.03815,-0.01358,-0.03052,-0.04623,-0.01617,-0.00122,-0.24826,-0.06302,0.0206,-0.04242,-0.0032,-0.0293,0.00763,-0.04684
9.045,0.00229,-0.04059,-0.03906,-0.01328,-0.03052,-0.04517,-0.01648,-0.00214,-0.23956,-0.07599,0.01862,-0.01541,-0.00687,-0.02884,0.00641,-0.04791
9.0455,0.00427,-0.04196,-0.03998,-0.01297,-0.0296,-0.04425,-0.01648,-0.00244,-0.22995,-0.07889,0.01724,0.01495,-0.01083,-0.03082,0.00671,-0.04868
9.046,0.00504,-0.04196,-0.04105,-0.01266,-0.02792,-0.04349,-0.01694,-0.00122,-0.21866,-0.06378,0.01175,0.01587,-0.01343,-0.03464,0.00717,-0.04837
9.0465,0.00519,-0.04135,-0.03967,-0.01358,-0.02609,-0.04364,-0.01694,-0.00046,-0.20691,-0.04547,0.00107,0.00214,-0.01358,-0.03479,0.00931,-0.047
9.047,0.00519,-0.03967,-0.03952,-0.0148,-0.02594,-0.0444,-0.01755,-0.00076,-0.19913,-0.03296,-0.00793,-0.00687,-0.01205,-0.02884,0.0119,-0.04456
9.0475,0.00641,-0.03906,-0.03952,-0.01389,-0.02747,-0.04532,-0.01648,-0.00244,-0.19852,-0.02899,-0.01022,-0.00397,-0.00992,-0.01892,0.01099,-0.04501
9.048,0.00641,-0.03952,-0.04059,-0.01266,-0.03052,-0.04623,-0.01434,-0.0029,-0.20462,-0.02502,-0.00641,0.0029,-0.00946,-0.01114,0.0087,-0.04623
9.0485,0.0058,-0.03983,-0.04211,-0.01053,-0.03189,-0.04669,-0.01343,-0.00214,-0.20508,-0.02029,0.00153,0.00076,-0.01205,-0.00778,0.00351,-0.04761
9.049,0.00534,-0.04028,-0.04166,-0.00885,-0.0322,-0.04776,-0.01389,0.00015,-0.19806,-0.02213,0.01083,-0.01816,-0.01541,-0.00839,0.00031,-0.04837
9.0495,0.00671,-0.04135,-0.04074,-0.00732,-0.03159,-0.04807,-0.01343,0.00122,-0.2066,-0.03815,0.01312,-0.04532,-0.01801,-0.01022,-0.00137,-0.04944
9.05,0.00824,-0.0412,-0.04074,-0.00504,-0.02914,-0.047,-0.0116,0.00031,-0.23178,-0.05905,0.00504,-0.06241,-0.01938,-0.01175,-0.00122,-0.05112
9.0505,0.00809,-0.04013,-0.04135,-0.00443,-0.02853,-0.0473,-0.00992,0.0,-0.24963,-0.06424,-0.00748,-0.06104,-0.02304,-0.01007,-0.00137,-0.05463
9.051,0.00763,-0.03754,-0.04059,-0.00626,-0.02945,-0.04852,-0.01007,0.00198,-0.25177,-0.04944,-0.02289,-0.04639,-0.02655,-0.00488,-0.00443,-0.05676
9.0515,0.00671,-0.03616,-0.03906,-0.00824,-0.03082,-0.04913,-0.01038,0.0058,-0.24918,-0.02518,-0.04898,-0.02502,-0.02991,0.00015,-0.00626,-0.05844
9.052,0.00534,-0.03662,-0.03815,-0.00992,-0.03296,-0.04913,-0.01175,0.00671,-0.24841,-0.00534,-0.08896,-0.00381,-0.03235,0.00107,-0.00549,-0.05768
9.0525,0.00504,-0.0386,-0.0386,-0.01007,-0.03342,-0.0499,-0.0119,0.0032,-0.24887,0.00336,-0.12558,0.0116,-0.03448,-0.00046,-0.00336,-0.05554
9.053,0.00458,-0.04013,-0.03952,-0.009,-0.03281,-0.05173,-0.01129,-0.0029,-0.24765,-0.00031,-0.12802,0.01602,-0.03708,-0.00168,-0.00214,-0.05402
9.0535,0.00534,-0.03967,-0.03845,-0.00854,-0.0322,-0.05188,-0.01083,-0.0087,-0.22995,-0.00854,-0.08636,0.01434,-0.03922,-0.0032,-0.00046,-0.05463
9.054,0.00534,-0.04028,-0.0383,-0.00885,-0.03189,-0.05051,-0.01083,-0.00931,-0.19379,-0.01099,-0.02121,0.01999,-0.0412,-0.00534,0.00122,-0.05356
9.0545,0.00534,-0.04135,-0.03799,-0.00961,-0.03189,-0.04776,-0.01205,-0.00275,-0.16006,-0.00092,0.03128,0.03601,-0.04257,-0.00732,0.00305,-0.0528
9.055,0.00504,-0.04196,-0.03754,-0.01083,-0.03189,-0.047,-0.01343,0.00397,-0.14435,0.01144,0.05402,0.0441,-0.04303,-0.00809,0.00473,-0.04944
9.0555,0.00351,-0.04166,-0.03632,-0.01144,-0.03143,-0.04684,-0.01389,0.00504,-0.14328,0.0177,0.06287,0.02686,-0.04517,-0.00977,0.00534,-0.04654
9.056,0.00107,-0.04272,-0.03586,-0.01175,-0.03052,-0.04684,-0.01373,0.00031,-0.14679,0.01373,0.08026,-0.00458,-0.04837,-0.01144,0.00671,-0.0441
9.0565,-0.00046,-0.04288,-0.03662,-0.01297,-0.02853,-0.04776,-0.01221,-0.00656,-0.14343,0.00519,0.1059,-0.0296,-0.05127,-0.01465,0.00916,-0.04135
9.057,-0.00015,-0.04333,-0.03693,-0.01404,-0.02716,-0.04852,-0.01022,-0.01083,-0.12863,-0.00336,0.11841,-0.0415,-0.05341,-0.01968,0.01007,-0.04105
9.0575,0.00031,-0.04318,-0.03693,-0.01404,-0.02609,-0.04807,-0.00977,-0.01053,-0.10757,-0.01282,0.10406,-0.04257,-0.05554,-0.02747,0.00946,-0.0415
9.058,-0.00046,-0.04333,-0.03647,-0.01266,-0.02533,-0.04868,-0.01251,-0.00641,-0.09247,-0.02472,0.07248,-0.02991,-0.05707,-0.03571,0.00824,-0.04196
9.0585,-0.00305,-0.04425,-0.03769,-0.0119,-0.02609,-0.04868,-0.01511,-0.00244,-0.09232,-0.03494,0.03586,-0.0061,-0.05829,-0.03754,0.00793,-0.04105
9.059,-0.0058,-0.04456,-0.03738,-0.01236,-0.02731,-0.04837,-0.01587,-0.00214,-0.10483,-0.0441,0.0029,0.01312,-0.05554,-0.02914,0.00824,-0.03937
9.0595,-0.00641,-0.0444,-0.03677,-0.01251,-0.02655,-0.04807,-0.01404,-0.00305,-0.12161,-0.05066,-0.02472,0.02106,-0.0502,-0.01587,0.0087,-0.03891
9.06,-0.00641,-0.04379,-0.03494,-0.01282,-0.02548,-0.04639,-0.0116,-0.00122,-0.13763,-0.05417,-0.04074,0.02197,-0.04379,-0.00763,0.00992,-0.03906
9.0605,-0.00763,-0.0444,-0.03418,-0.01312,-0.0267,-0.0444,-0.01175,0.00275,-0.16251,-0.05249,-0.0354,0.01984,-0.03998,-0.00671,0.00992,-0.04013
9.061,-0.00778,-0.04593,-0.03448,-0.0145,-0.02853,-0.04425,-0.01343,0.00565,-0.20828,-0.04105,-0.01099,0.01755,-0.03922,-0.009,0.00916,-0.04013
9.0615,-0.00809,-0.04745,-0.03448,-0.01556,-0.02884,-0.04593,-0.01495,0.0061,-0.27069,-0.02365,0.01419,0.02472,-0.03937,-0.01022,0.00809,-0.04089
9.062,-0.00687,-0.04807,-0.03601,-0.01541,-0.02731,-0.04654,-0.0145,0.0032,-0.31967,-0.01007,0.02502,0.04395,-0.04059,-0.0116,0.00671,-0.04318
9.0625,-0.00656,-0.04868,-0.03586,-0.01663,-0.02625,-0.04684,-0.01343,-0.00336,-0.34271,-0.00626,0.02441,0.05554,-0.04211,-0.01343,0.00473,-0.04623
9.063,-0.00717,-0.04776,-0.03494,-0.01755,-0.0264,-0.04684,-0.01205,-0.01129,-0.36041,-0.00641,0.02487,0.03693,-0.04318,-0.01343,0.00305,-0.04791
9.0635,-0.00778,-0.04501,-0.03311,-0.01633,-0.02792,-0.04745,-0.0119,-0.01205,-0.3923,-0.00366,0.02487,0.00031,-0.04196,-0.01266,0.0032,-0.04822
9.064,-0.00793,-0.04303,-0.03265,-0.0145,-0.0296,-0.04898,-0.01282,-0.00305,-0.42999,0.00656,0.01526,-0.01007,-0.03998,-0.01251,0.0058,-0.04578
9.0645,-0.00702,-0.04242,-0.03387,-0.0145,-0.03235,-0.04913,-0.01404,0.00488,-0.47195,0.01587,0.00076,0.0293,-0.04028,-0.01419,0.00763,-0.0444
9.065,-0.00641,-0.04349,-0.03647,-0.01617,-0.03494,-0.04883,-0.01434,0.00351,-0.52551,0.01755,-0.00549,0.08011,-0.04242,-0.01663,0.00885,-0.04364
9.0655,-0.0061,-0.04425,-0.03647,-0.01678,-0.03601,-0.04852,-0.01312,-0.00336,-0.59082,0.01083,-0.00336,0.08133,-0.04501,-0.01785,0.00824,-0.04089
9.066,-0.00763,-0.0441,-0.03342,-0.01755,-0.03647,-0.04852,-0.01175,-0.00809,-0.672,0.00153,-0.00244,0.02686,-0.04639,-0.01877,0.00824,-0.03845
9.0665,-0.00961,-0.04333,-0.03204,-0.01755,-0.03616,-0.04868,-0.01221,-0.0087,-0.78262,-0.00626,-0.01038,-0.03036,-0.04684,-0.01938,0.00977,-0.03647
9.067,-0.01144,-0.04333,-0.0325,-0.01801,-0.03616,-0.04776,-0.0145,-0.00656,-0.92743,-0.01175,-0.02151,-0.04242,-0.04517,-0.01816,0.01053,-0.03708
9.0675,-0.01282,-0.04349,-0.03403,-0.01785,-0.0354,-0.04837,-0.01602,-0.00458,-1.12015,-0.01221,-0.02823,-0.02243,-0.04288,-0.01526,0.00931,-0.03937
9.068,-0.01328,-0.04471,-0.03372,-0.01602,-0.03586,-0.04959,-0.01572,-0.0029,-1.36993,-0.01251,-0.03311,-0.01144,-0.04074,-0.01404,0.0087,-0.04272
9.0685,-0.01373,-0.04532,-0.03204,-0.01587,-0.03571,-0.05035,-0.01358,-0.00229,-1.67175,-0.01328,-0.05585,-0.03906,-0.04059,-0.01602,0.00702,-0.04517
9.069,-0.01328,-0.04517,-0.03128,-0.01541,-0.0354,-0.04959,-0.01282,-0.00153,-2.12311,-0.01541,-0.10849,-0.09735,-0.04135,-0.01602,0.00687,-0.04654
9.0695,-0.01144,-0.04456,-0.02991,-0.01617,-0.03464,-0.0473,-0.01389,-0.00183,-2.98218,-0.0174,-0.1622,-0.14938,-0.04074,-0.01343,0.00732,-0.0473
9.07,-0.01053,-0.04456,-0.03052,-0.01648,-0.03372,-0.04669,-0.01495,-0.00214,-4.15054,-0.01816,-0.16357,-0.1503,-0.03983,-0.01053,0.00854,-0.0473
9.0705,-0.01129,-0.04333,-0.02884,-0.01633,-0.03403,-0.04807,-0.01511,-0.00214,-4.89197,-0.01907,-0.10162,-0.09247,-0.04013,-0.01129,0.01236,-0.04669
9.071,-0.01266,-0.04227,-0.02792,-0.01633,-0.03433,-0.05035,-0.01511,-0.00214,-4.86404,-0.01984,-0.01877,-0.00595,-0.04166,-0.01312,0.01541,-0.04456
9.0715,-0.01297,-0.04135,-0.02548,-0.01602,-0.03464,-0.05096,-0.01511,-0.00122,-4.56146,-0.02045,0.03647,0.06012,-0.0444,-0.01526,0.01694,-0.03952
9.072,-0.01297,-0.04105,-0.02533,-0.0148,-0.0354,-0.04837,-0.01465,-0.00168,-4.49951,-0.02228,0.05173,0.06897,-0.04974,-0.01572,0.01587,-0.03723
9.0725,-0.01251,-0.03998,-0.02686,-0.01419,-0.03662,-0.04471,-0.01373,-0.00275,-4.59808,-0.02487,0.03967,0.01358,-0.05615,-0.01694,0.01419,-0.03738
9.073,-0.01129,-0.0386,-0.02808,-0.01434,-0.0383,-0.04486,-0.01236,-0.00427,-4.58771,-0.02686,0.0209,-0.06638,-0.06256,-0.01816,0.01511,-0.03937
9.0735,-0.01099,-0.03876,-0.02884,-0.01373,-0.0386,-0.04654,-0.01328,-0.00458,-4.48746,-0.03098,0.01404,-0.10681,-0.06729,-0.01953,0.01404,-0.0412
9.074,-0.01114,-0.03967,-0.02747,-0.01419,-0.03922,-0.04822,-0.01434,-0.00198,-4.44138,-0.03586,0.03235,-0.08682,-0.06836,-0.02258,0.01236,-0.0441
9.0745,-0.01266,-0.04044,-0.02518,-0.01282,-0.03937,-0.04761,-0.01541,0.00122,-4.44672,-0.03754,0.07584,-0.05203,-0.06714,-0.02594,0.01083,-0.04684
9.075,-0.01236,-0.03998,-0.02533,-0.01266,-0.03815,-0.04669,-0.01541,0.00198,-4.42551,-0.03647,0.12405,-0.04318,-0.06348,-0.02823,0.01053,-0.04898
9.0755,-0.01022,-0.03906,-0.02655,-0.01236,-0.03662,-0.04562,-0.01572,0.00015,-4.37561,-0.03479,0.1474,-0.03738,-0.06012,-0.0293,0.01083,-0.04898
9.076,-0.00931,-0.03784,-0.02655,-0.01266,-0.0351,-0.04654,-0.01617,-0.0029,-4.32739,-0.03571,0.12604,0.00122,-0.05692,-0.02945,0.01022,-0.04974
9.0765,-0.00931,-0.03616,-0.02686,-0.01282,-0.03433,-0.04791,-0.01633,-0.00397,-4.15253,-0.03845,0.07141,0.05875,-0.056,-0.02884,0.00961,-0.05051
9.077,-0.00931,-0.03586,-0.02686,-0.01282,-0.0351,-0.04974,-0.0177,-0.0032,-3.55392,-0.03799,0.01266,0.10117,-0.05508,-0.0264,0.00717,-0.0531
9.0775,-0.009,-0.03677,-0.02686,-0.01373,-0.03494,-0.05081,-0.01755,-0.00214,-2.49222,-0.03479,-0.02747,0.11581,-0.05203,-0.02319,0.0058,-0.0563
9.078,-0.00763,-0.03754,-0.0267,-0.01648,-0.03571,-0.04913,-0.01617,-0.00214,-1.40656,-0.0267,-0.04868,0.10544,-0.0473,-0.01907,0.00336,-0.05753
9.0785,-0.00763,-0.03677,-0.0267,-0.01755,-0.03433,-0.04745,-0.01511,-0.0029,-0.68329,-0.01663,-0.06348,0.06973,-0.04135,-0.01617,0.00305,-0.05508
9.079,-0.00763,-0.03662,-0.02548,-0.01709,-0.03159,-0.04517,-0.01389,-0.00412,-0.19592,-0.00565,-0.08133,0.02243,-0.03571,-0.01541,0.00641,-0.05081
9.0795,-0.00687,-0.03708,-0.02563,-0.0148,-0.02823,-0.04379,-0.01221,-0.00427,0.35706,-0.00076,-0.10056,-0.0145,-0.03067,-0.01801,0.00931,-0.04593
9.08,-0.00519,-0.03616,-0.02548,-0.01236,-0.02731,-0.04395,-0.00977,-0.00275,1.01303,-0.00488,-0.12299,-0.03571,-0.02747,-0.02136,0.01053,-0.04349
9.0805,-0.00458,-0.03311,-0.02548,-0.01266,-0.02838,-0.04547,-0.00931,-0.00092,1.6391,-0.01633,-0.14893,-0.05325,-0.02487,-0.02335,0.01114,-0.04349
9.081,-0.00473,-0.03143,-0.0267,-0.01404,-0.03006,-0.04578,-0.01068,-0.00076,2.19086,-0.03799,-0.16846,-0.06561,-0.02213,-0.02548,0.01175,-0.04181
9.0815,-0.00549,-0.03052,-0.02625,-0.01572,-0.03143,-0.04593,-0.0119,-0.00137,2.71942,-0.06287,-0.15823,-0.06027,-0.02167,-0.02808,0.01297,-0.0415
9.082,-0.00641,-0.03204,-0.02716,-0.01648,-0.03143,-0.04471,-0.01175,-0.00275,3.24554,-0.08026,-0.10803,-0.03464,-0.02319,-0.03052,0.01328,-0.04196
9.0825,-0.00702,-0.0325,-0.02701,-0.01724,-0.03098,-0.0441,-0.01068,-0.0029,3.73718,-0.08011,-0.0386,-0.01282,-0.02762,-0.03006,0.01358,-0.04349
9.083,-0.00656,-0.03159,-0.02579,-0.0177,-0.02899,-0.04471,-0.00977,-0.00122,4.18762,-0.06439,0.01617,-0.01221,-0.03098,-0.02686,0.01358,-0.04257
9.0835,-0.0061,-0.02945,-0.02472,-0.01419,-0.0264,-0.04562,-0.01022,0.0,4.6019,-0.04532,0.03891,-0.01999,-0.03174,-0.02319,0.01343,-0.03815
9.084,-0.00549,-0.02884,-0.02319,-0.00595,-0.0267,-0.04684,-0.01129,-0.00076,4.90906,-0.03769,0.03143,-0.01389,-0.03006,-0.02075,0.01282,-0.03571
9.0845,-0.00488,-0.03052,-0.02472,0.00351,-0.02731,-0.04761,-0.0119,-0.00259,4.99985,-0.04196,0.00168,0.00412,-0.02792,-0.01846,0.0119,-0.03555
9.085,-0.00381,-0.03235,-0.02563,0.01114,-0.02884,-0.04822,-0.01175,-0.00397,4.98627,-0.04608,-0.0441,0.01022,-0.02487,-0.01709,0.0119,-0.03799
9.0855,-0.0032,-0.03326,-0.02701,0.01465,-0.02716,-0.04807,-0.0116,-0.0032,4.94644,-0.04181,-0.08774,-0.0087,-0.02289,-0.0174,0.01068,-0.04089
9.086,-0.00259,-0.03342,-0.02838,0.01648,-0.02731,-0.04822,-0.01129,-0.00244,4.96002,-0.02853,-0.10864,-0.03113,-0.02136,-0.01648,0.00992,-0.0415
9.0865,-0.0032,-0.03403,-0.02914,0.02426,-0.02838,-0.04852,-0.0116,-0.00259,4.98016,-0.01556,-0.10101,-0.02106,-0.01984,-0.01236,0.01053,-0.04135
9.087,-0.00427,-0.03448,-0.02808,0.03815,-0.03113,-0.04898,-0.01221,-0.00366,4.97513,-0.0119,-0.08743,0.03189,-0.01831,-0.00702,0.01099,-0.04227
9.0875,-0.00534,-0.03464,-0.02686,0.04715,-0.0322,-0.04913,-0.01129,-0.00427,4.96445,-0.01434,-0.08179,0.09369,-0.01648,-0.00244,0.00931,-0.04288
9.088,-0.00549,-0.03357,-0.02716,0.04211,-0.03128,-0.04868,-0.01099,-0.00443,4.96674,-0.0177,-0.07431,0.11215,-0.01465,0.00397,0.00702,-0.04166
9.0885,-0.00519,-0.03403,-0.02731,0.02945,-0.03006,-0.04776,-0.01114,-0.00412,4.97208,-0.01663,-0.04349,0.06927,-0.01389,0.01404,0.0061,-0.0412
9.089,-0.00336,-0.03433,-0.02701,0.01999,-0.02747,-0.04791,-0.01175,-0.00458,4.97131,-0.01526,0.0032,0.00153,-0.01312,0.02609,0.00732,-0.04196
9.0895,-0.00244,-0.03479,-0.02655,0.01221,-0.03006,-0.04807,-0.01175,-0.00412,4.96841,-0.01358,0.03983,-0.04578,-0.01022,0.03448,0.00671,-0.04242
9.09,-0.00198,-0.03448,-0.02563,-0.00519,-0.0322,-0.0473,-0.01007,-0.00336,4.96918,-0.01007,0.05508,-0.05722,-0.0061,0.03403,0.00656,-0.04166
9.0905,-0.00198,-0.03387,-0.02548,-0.03693,-0.03693,-0.04669,-0.00946,-0.00473,4.96826,0.00092,0.06042,-0.05066,-0.00427,0.02487,0.00626,-0.03967
9.091,-0.00183,-0.03387,-0.02563,-0.07599,-0.04089,-0.04669,-0.01007,-0.00565,4.9556,0.01434,0.07065,-0.03967,-0.00961,0.01068,0.00549,-0.03922
9.0915,-0.00168,-0.03357,-0.02563,-0.11597,-0.03983,-0.04669,-0.01068,-0.00717,4.92401,0.02243,0.08072,-0.02487,-0.01694,-0.00427,0.00549,-0.04105
9.092,-0.00214,-0.03235,-0.02625,-0.1506,-0.03632,-0.04608,-0.01022,-0.00809,4.88449,0.0206,0.07706,-0.00351,-0.02197,-0.0206,0.0061,-0.04181
9.0925,-0.00229,-0.03143,-0.02655,-0.1709,-0.03418,-0.04654,-0.01053,-0.00793,4.84756,0.01541,0.05981,0.03113,-0.02411,-0.03967,0.00671,-0.04089
9.093,-0.00137,-0.0322,-0.02594,-0.1712,-0.03342,-0.04684,-0.00961,-0.00549,4.81461,0.0116,0.03571,0.08499,-0.02533,-0.0589,0.00641,-0.03799
9.0935,0.00031,-0.03372,-0.02594,-0.15259,-0.03311,-0.04745,-0.00854,-0.00351,4.77982,0.01801,0.00381,0.14725,-0.02686,-0.0766,0.00671,-0.03647
9.094,-0.00015,-0.03525,-0.02686,-0.11673,-0.03311,-0.04807,-0.00854,-0.00244,4.74319,0.03281,-0.04242,0.1828,-0.02884,-0.08881,0.00793,-0.03723
9.0945,-0.00092,-0.0351,-0.02808,-0.06241,-0.03082,-0.0473,-0.00931,-0.00275,4.70795,0.04776,-0.09094,0.15839,-0.02853,-0.09186,0.00946,-0.03784
9.095,-0.00031,-0.03448,-0.0296,0.01053,-0.02823,-0.04684,-0.00946,-0.00305,4.67453,0.05432,-0.11719,0.08865,-0.02686,-0.08652,0.00793,-0.0386
9.0955,0.00137,-0.03494,-0.03006,0.08759,-0.02609,-0.04654,-0.00977,-0.00259,4.64081,0.05524,-0.11337,0.02701,-0.02594,-0.07446,0.00366,-0.03937
9.096,0.00275,-0.03647,-0.03067,0.14648,-0.02594,-0.04623,-0.01129,-0.00259,4.60754,0.05417,-0.09247,-0.00092,-0.0264,-0.05798,0.00076,-0.04135
9.0965,0.00351,-0.0383,-0.03113,0.16846,-0.02792,-0.04669,-0.0116,-0.00214,4.57458,0.05325,-0.065,-0.01907,-0.0264,-0.03769,0.00092,-0.04303
9.097,0.00305,-0.03769,-0.03098,0.15274,-0.02884,-0.04654,-0.01221,-0.00275,4.54285,0.04593,-0.04074,-0.04517,-0.02502,-0.01694,0.00351,-0.04318
9.0975,0.00259,-0.03647,-0.03235,0.11414,-0.02792,-0.04593,-0.01266,-0.00412,4.51004,0.03494,-0.02182,-0.0592,-0.02548,-0.00168,0.00549,-0.04196
9.098,0.00214,-0.03677,-0.03357,0.07095,-0.02533,-0.04623,-0.01358,-0.00473,4.47723,0.02411,-0.00961,-0.04608,-0.02731,0.00198,0.0061,-0.04028
9.0985,0.00244,-0.03708,-0.03326,0.03418,-0.02563,-0.0473,-0.01389,-0.00458,4.44534,0.01144,0.00015,-0.02686,-0.03021,-0.00259,0.00717,-0.03693
9.099,0.00275,-0.03708,-0.03281,0.00519,-0.02808,-0.04807,-0.01419,-0.00366,4.41269,-0.00839,0.01022,-0.02396,-0.03189,-0.00763,0.00809,-0.03357
9.0995,0.00305,-0.03723,-0.0325,-0.02563,-0.02777,-0.04745,-0.01389,-0.00366,4.38019,-0.03525,0.01175,-0.02045,-0.03067,-0.01022,0.00931,-0.02991
9.1,0.00381,-0.03677,-0.03326,-0.06027,-0.02701,-0.04593,-0.01343,-0.00397,4.33914,-0.05997,-0.00992,-0.00122,-0.02914,-0.01434,0.0116,-0.02792
9.1005,0.00351,-0.03693,-0.03296,-0.08987,-0.02609,-0.04547,-0.01236,-0.0058,4.2157,-0.07416,-0.0499,0.01892,-0.02808,-0.02411,0.01373,-0.02914
9.101,0.00275,-0.03769,-0.0322,-0.09659,-0.02502,-0.04669,-0.01144,-0.0061,3.89221,-0.07858,-0.07187,0.0087,-0.03006,-0.0351,0.01495,-0.03113
9.1015,0.00137,-0.03815,-0.03174,-0.07263,-0.02533,-0.04654,-0.01129,-0.00565,3.37753,-0.07919,-0.05035,-0.02975,-0.03342,-0.03967,0.01434,-0.03326
9.102,0.00153,-0.03906,-0.03265,-0.02243,-0.02594,-0.047,-0.01083,-0.00473,2.86163,-0.07309,-0.00519,-0.05676,-0.03433,-0.03708,0.01221,-0.0351
9.1025,0.00244,-0.03922,-0.03342,0.03601,-0.02625,-0.04776,-0.0119,-0.00275,2.49054,-0.06073,0.0351,-0.04074,-0.03189,-0.03372,0.01022,-0.03525
9.103,0.0029,-0.03952,-0.03403,0.07248,-0.02899,-0.04913,-0.01236,-0.00153,2.20779,-0.04547,0.05737,0.009,-0.02747,-0.03464,0.00824,-0.03357
9.1035,0.00198,-0.03937,-0.03494,0.05875,-0.03021,-0.05035,-0.01297,-0.00168,1.88873,-0.03281,0.06546,0.05524,-0.02411,-0.03845,0.0061,-0.03067
9.104,0.00153,-0.03952,-0.03632,0.00809,-0.0296,-0.04944,-0.01434,-0.00366,1.52405,-0.02136,0.06287,0.07339,-0.02014,-0.0415,0.00366,-0.0293
9.1045,0.00198,-0.03906,-0.03601,-0.03281,-0.02838,-0.04852,-0.01678,-0.0061,1.17905,-0.00732,0.04547,0.0676,-0.01541,-0.04227,0.00046,-0.03189
9.105,0.00336,-0.03952,-0.03632,-0.03464,-0.02792,-0.04761,-0.01862,-0.00732,0.86853,0.00809,0.01816,0.05829,-0.01129,-0.03983,-0.00046,-0.03662
9.1055,0.00427,-0.04059,-0.03647,-0.01526,-0.02762,-0.04852,-0.01831,-0.00702,0.56503,0.01877,-0.00015,0.05417,-0.00961,-0.03433,0.00504,-0.04028
9.106,0.00443,-0.04181,-0.03586,-0.00381,-0.02747,-0.04913,-0.01801,-0.00809,0.27069,0.02258,0.00351,0.04257,-0.00961,-0.02487,0.0145,-0.04181
9.1065,0.00549,-0.04211,-0.03586,-0.00397,-0.02884,-0.04837,-0.01678,-0.0087,-0.00107,0.01511,0.02411,0.01175,-0.00931,-0.01511,0.02182,-0.04166
9.107,0.0058,-0.04105,-0.03571,-0.0032,-0.02869,-0.04669,-0.01602,-0.00839,-0.24872,0.00305,0.04532,-0.02228,-0.00809,-0.00351,0.02151,-0.04105
9.1075,0.00565,-0.04028,-0.03464,0.00275,-0.02945,-0.04623,-0.01572,-0.00732,-0.47302,-0.00565,0.05142,-0.03128,-0.00824,0.01053,0.01358,-0.03952
9.108,0.00519,-0.04013,-0.03357,0.00534,-0.02945,-0.04684,-0.01587,-0.00549,-0.68024,-0.0116,0.04501,-0.01465,-0.00854,0.02457,0.0029,-0.03738
9.1085,0.00626,-0.04135,-0.03372,0.0029,-0.02991,-0.04868,-0.0174,-0.00412,-0.88181,-0.01923,0.03265,0.00122,-0.01007,0.0322,-0.00259,-0.03601
9.109,0.00763,-0.04135,-0.03525,-0.0029,-0.0325,-0.04913,-0.01755,-0.00519,-1.07834,-0.03555,0.02045,-0.00061,-0.01373,0.03098,-0.00153,-0.03693
9.1095,0.00824,-0.04135,-0.03632,-0.009,-0.03281,-0.04852,-0.0174,-0.00595,-1.26434,-0.05859,0.00916,-0.00717,-0.01923,0.02411,0.00381,-0.04013
9.11,0.00717,-0.04211,-0.03571,-0.01419,-0.03204,-0.04745,-0.01587,-0.00519,-1.43723,-0.08179,-0.00015,-0.00137,-0.02533,0.01755,0.00671,-0.04089
9.1105,0.0058,-0.04288,-0.03616,-0.01755,-0.03052,-0.04761,-0.01495,-0.00305,-1.60141,-0.09827,-0.00824,0.01572,-0.03021,0.01099,0.00671,-0.04013
9.111,0.00458,-0.04257,-0.03784,-0.01541,-0.0293,-0.04776,-0.01373,-0.00061,-1.75354,-0.10559,-0.01663,0.02869,-0.03204,0.00565,0.00839,-0.04074
9.1115,0.00504,-0.04089,-0.03906,-0.00977,-0.03006,-0.04822,-0.01312,0.0,-1.89026,-0.10651,-0.02747,0.02686,-0.03235,0.00092,0.01297,-0.04364
9.112,0.00443,-0.03983,-0.0383,-0.00427,-0.02853,-0.04883,-0.01297,-0.00198,-2.01279,-0.10086,-0.0386,0.0148,-0.03143,-0.00107,0.01419,-0.04684
9.1125,0.0029,-0.04028,-0.03677,-0.00137,-0.02975,-0.04868,-0.0145,-0.00412,-2.12631,-0.09232,-0.04593,0.00381,-0.03021,-0.00015,0.00992,-0.04913
9.113,0.00214,-0.04028,-0.03647,-0.00061,-0.03021,-0.04791,-0.01526,-0.00488,-2.23053,-0.08087,-0.04532,-0.00122,-0.0296,0.00183,0.0061,-0.04852
9.1135,0.00244,-0.04059,-0.03708,0.00046,-0.03006,-0.04684,-0.01404,-0.0032,-2.32376,-0.06836,-0.03937,-0.00137,-0.03082,0.00107,0.00824,-0.04593
9.114,0.00259,-0.04089,-0.03815,-0.00046,-0.02884,-0.04669,-0.01312,-0.00107,-2.40524,-0.05188,-0.0322,-0.00122,-0.03464,0.00031,0.01419,-0.04349
9.1145,0.00168,-0.04059,-0.03937,-0.00458,-0.03021,-0.04807,-0.01312,0.00076,-2.47879,-0.03189,-0.02884,-0.00214,-0.03601,0.00229,0.01236,-0.04181
9.115,0.0,-0.04044,-0.03983,-0.00916,-0.03159,-0.04898,-0.01389,0.00092,-2.55325,-0.0058,-0.02472,-0.0032,-0.03479,0.00549,0.00244,-0.03983
9.1155,-0.00259,-0.04196,-0.03937,-0.01373,-0.03387,-0.04791,-0.01419,-0.00031,-2.62939,0.01953,-0.01846,-0.00366,-0.03372,0.0061,-0.00946,-0.03448
9.116,-0.0032,-0.04303,-0.04044,-0.01511,-0.03632,-0.047,-0.01373,-0.00107,-2.68906,0.03769,-0.0145,-0.00397,-0.03555,0.00336,-0.01114,-0.02914
9.1165,-0.00214,-0.04456,-0.04059,-0.01038,-0.0354,-0.04807,-0.01236,-0.00031,-2.71973,0.03998,-0.01602,-0.00168,-0.03784,-0.00275,-0.00259,-0.02838
9.117,-0.00137,-0.04547,-0.04059,-0.00137,-0.03799,-0.04959,-0.01236,0.00031,-2.74063,0.03372,-0.0209,0.00259,-0.03845,-0.00839,0.00565,-0.03159
9.1175,-0.0032,-0.04623,-0.04044,0.00519,-0.03937,-0.05035,-0.01419,-0.00046,-2.76657,0.02945,-0.02167,0.00946,-0.03845,-0.01312,0.00671,-0.03708
9.118,-0.00534,-0.04639,-0.04044,0.00244,-0.03845,-0.04913,-0.01556,-0.00229,-2.7861,0.03342,-0.01846,0.0206,-0.03876,-0.01511,0.00595,-0.04578
9.1185,-0.00626,-0.04532,-0.04105,-0.00565,-0.03815,-0.04898,-0.01709,-0.0029,-2.79251,0.04059,-0.01312,0.03693,-0.03998,-0.01816,0.01358,-0.05829
9.119,-0.0058,-0.04349,-0.04105,-0.01328,-0.03906,-0.04837,-0.01724,-0.00275,-2.79114,0.04791,-0.00778,0.0528,-0.04135,-0.02502,0.02869,-0.06668
9.1195,-0.00473,-0.04135,-0.03952,-0.01694,-0.03952,-0.0473,-0.01617,-0.00336,-2.78152,0.04852,-0.00061,0.05386,-0.04227,-0.03326,0.03525,-0.05981
9.12,-0.0029,-0.04044,-0.03815,-0.01785,-0.0386,-0.04501,-0.01434,-0.0058,-2.76855,0.04105,0.01144,0.03326,-0.04318,-0.03967,0.02655,-0.04196
9.1205,-0.0029,-0.04272,-0.03876,-0.01862,-0.03754,-0.04379,-0.01297,-0.00687,-2.75345,0.02396,0.02365,0.00183,-0.04562,-0.0415,0.01312,-0.02197
9.121,-0.00427,-0.04532,-0.03998,-0.02151,-0.03677,-0.04517,-0.01236,-0.0061,-2.72736,0.00656,0.02441,-0.02701,-0.04898,-0.03769,0.00839,-0.01465
9.1215,-0.0061,-0.04578,-0.04074,-0.02792,-0.03769,-0.04639,-0.0119,-0.00473,-2.68738,-0.00732,0.00916,-0.04456,-0.05157,-0.03403,0.00992,-0.02304
9.122,-0.00702,-0.04578,-0.03998,-0.0325,-0.03464,-0.0473,-0.01266,-0.00366,-2.6474,-0.01556,-0.00763,-0.05127,-0.05112,-0.03189,0.00839,-0.04181
9.1225,-0.00687,-0.04517,-0.03952,-0.02426,-0.03494,-0.04761,-0.01282,-0.00336,-2.6149,-0.0206,-0.02167,-0.05219,-0.04913,-0.02899,-0.00153,-0.0589
9.123,-0.00549,-0.04456,-0.03906,-0.00473,-0.03418,-0.0473,-0.01373,-0.00397,-2.58499,-0.02335,-0.02747,-0.05341,-0.04852,-0.02258,-0.02197,-0.06454
9.1235,-0.00443,-0.04471,-0.04013,0.01236,-0.0351,-0.04669,-0.0145,-0.00458,-2.54852,-0.02472,-0.03174,-0.05417,-0.047,-0.01556,-0.0528,-0.05585
9.124,-0.00458,-0.0444,-0.04242,0.0148,-0.03723,-0.04654,-0.01556,-0.00427,-2.50443,-0.02213,-0.03357,-0.05005,-0.04639,-0.01282,-0.08392,-0.03952
9.1245,-0.00443,-0.0444,-0.04379,0.00443,-0.03632,-0.047,-0.01633,-0.00443,-2.45529,-0.02106,-0.03464,-0.04227,-0.04639,-0.01495,-0.09491,-0.02274
9.125,-0.0032,-0.04395,-0.04333,-0.00793,-0.03601,-0.04745,-0.01572,-0.00565,-2.40646,-0.02075,-0.03342,-0.03922,-0.04745,-0.01755,-0.0856,-0.01022
9.1255,-0.00214,-0.04364,-0.04105,-0.02045,-0.03632,-0.04761,-0.01526,-0.00549,-2.36038,-0.02457,-0.0322,-0.04272,-0.04807,-0.01801,-0.08041,-0.01022
9.126,-0.00137,-0.04272,-0.03906,-0.03799,-0.0386,-0.04807,-0.01495,-0.00427,-2.31598,-0.02838,-0.03052,-0.04059,-0.04791,-0.02014,-0.08301,-0.02701
9.1265,-0.00076,-0.04242,-0.03845,-0.05661,-0.03601,-0.04929,-0.01343,-0.00366,-2.26868,-0.03296,-0.03754,-0.02625,-0.04608,-0.0238,-0.04852,-0.05386
9.127,-0.00153,-0.04242,-0.03891,-0.06393,-0.03738,-0.0499,-0.01266,-0.00336,-2.21573,-0.04089,-0.05417,-0.00992,-0.04318,-0.03082,0.0618,-0.07813
9.1275,-0.00381,-0.04333,-0.04074,-0.05981,-0.03708,-0.04852,-0.01312,-0.0029,-2.15775,-0.0499,-0.07202,-0.01129,-0.03952,-0.03708,0.19684,-0.08865
9.128,-0.0058,-0.04379,-0.04074,-0.0528,-0.03586,-0.0473,-0.0145,-0.00259,-2.09961,-0.056,-0.07843,-0.03143,-0.03662,-0.03448,0.24857,-0.08453
9.1285,-0.00641,-0.0441,-0.04028,-0.04883,-0.03342,-0.04791,-0.01511,-0.00153,-2.05368,-0.05905,-0.06638,-0.05249,-0.03326,-0.02274,0.18387,-0.07172
9.129,-0.0058,-0.04257,-0.03998,-0.04059,-0.03632,-0.0473,-0.01465,-0.00168,-2.01859,-0.05875,-0.04456,-0.05783,-0.02853,-0.00717,0.08041,-0.05722
9.1295,-0.00626,-0.0412,-0.03967,-0.02502,-0.03693,-0.04745,-0.01328,-0.00214,-1.97632,-0.05798,-0.02396,-0.03021,-0.02274,0.00259,0.02594,-0.04623
9.13,-0.00702,-0.04074,-0.03891,-0.00885,-0.03662,-0.04761,-0.01297,-0.00351,-1.91574,-0.056,-0.00961,0.03342,-0.01846,0.00534,0.01999,-0.0412
9.1305,-0.00748,-0.0412,-0.03845,-0.00107,-0.03433,-0.04761,-0.01297,-0.00427,-1.85501,-0.05219,-0.00427,0.09491,-0.01816,0.00137,0.01511,-0.03769
9.131,-0.00748,-0.04242,-0.03815,-0.00107,-0.03159,-0.04715,-0.01404,-0.00351,-1.80466,-0.0473,-0.00366,0.09521,-0.0206,-0.00824,-0.00092,-0.02991
9.1315,-0.00626,-0.04181,-0.0383,-0.00534,-0.02792,-0.04745,-0.01434,-0.00214,-1.75232,-0.04745,-0.00687,0.03494,-0.0238,-0.02426,0.00671,-0.01602
9.132,-0.00641,-0.04059,-0.03784,-0.0087,-0.02914,-0.04822,-0.01419,-0.00168,-1.69556,-0.04883,-0.00992,-0.01129,-0.02762,-0.04395,0.05814,-0.00168
9.1325,-0.00778,-0.04074,-0.0386,-0.00946,-0.0296,-0.04745,-0.01389,-0.00168,-1.64322,-0.05127,-0.00977,0.00076,-0.03143,-0.06317,0.11383,0.00198
9.133,-0.00931,-0.0415,-0.0383,-0.00595,-0.02945,-0.04562,-0.01389,-0.00275,-1.59729,-0.05142,-0.00824,0.02731,-0.03571,-0.07828,0.11139,-0.00977
9.1335,-0.01053,-0.04211,-0.03815,-0.00168,-0.02823,-0.04517,-0.01358,-0.0032,-1.55884,-0.05142,-0.00977,0.01572,-0.03967,-0.0853,0.04486,-0.03601
9.134,-0.01205,-0.04105,-0.03876,-0.00092,-0.02869,-0.04593,-0.01434,-0.00336,-1.52435,-0.05295,-0.0145,-0.01526,-0.04242,-0.08469,-0.02243,-0.06424
9.1345,-0.01266,-0.04135,-0.03799,-0.00748,-0.0322,-0.04669,-0.01404,-0.00183,-1.4801,-0.05371,-0.01846,-0.0235,-0.04364,-0.07782,-0.05127,-0.0795
9.135,-0.01266,-0.04135,-0.03571,-0.02228,-0.0296,-0.04761,-0.01434,0.0,-1.42441,-0.05051,-0.02411,-0.00809,-0.04517,-0.06958,-0.05692,-0.07874
9.1355,-0.01236,-0.04272,-0.03418,-0.03784,-0.03265,-0.04791,-0.01419,0.00107,-1.37558,-0.047,-0.03845,0.00214,-0.04761,-0.06088,-0.06073,-0.07004
9.136,-0.01266,-0.04196,-0.03357,-0.0415,-0.02838,-0.04837,-0.01495,0.00092,-1.34567,-0.04181,-0.06073,0.00275,-0.04852,-0.04868,-0.05508,-0.06256
9.1365,-0.01373,-0.04135,-0.03448,-0.03235,-0.03067,-0.04883,-0.01556,0.00031,-1.32919,-0.03342,-0.0766,0.00458,-0.04944,-0.03357,-0.03998,-0.05447
9.137,-0.01343,-0.04135,-0.03479,-0.01923,-0.03281,-0.04929,-0.01602,-0.00092,-1.33545,-0.01755,-0.07126,0.01068,-0.05173,-0.0174,-0.03891,-0.04425
9.1375,-0.01297,-0.04181,-0.03586,-0.00931,-0.03021,-0.04929,-0.01678,-0.00275,-1.39648,0.00381,-0.04684,0.01266,-0.05539,-0.00397,-0.07141,-0.03769
9.138,-0.01266,-0.04227,-0.03632,-0.00473,-0.03067,-0.04929,-0.01709,-0.00336,-1.51855,0.02548,-0.0174,0.01068,-0.05768,0.00854,-0.12451,-0.04059
9.1385,-0.01175,-0.0412,-0.03662,-0.00122,-0.03006,-0.04944,-0.01709,-0.00153,-1.64658,0.03723,0.00504,0.00824,-0.05661,0.01984,-0.16327,-0.04623
9.139,-0.01129,-0.0415,-0.03586,0.00244,-0.02899,-0.05035,-0.01617,0.0,-1.72882,0.0351,0.01877,0.00504,-0.05356,0.02548,-0.15701,-0.04211
9.1395,-0.01083,-0.04333,-0.03571,0.00656,-0.02884,-0.04898,-0.0148,0.00046,-1.79214,0.02625,0.02701,-0.00198,-0.04974,0.0235,-0.12543,-0.02487
9.14,-0.01038,-0.0444,-0.03662,0.00916,-0.02853,-0.047,-0.01526,0.00092,-1.88431,0.01923,0.0296,-0.00946,-0.04715,0.0174,-0.12451,-0.00671
9.1405,-0.01083,-0.04364,-0.03799,0.00916,-0.03067,-0.04517,-0.0145,0.00076,-1.9957,0.01877,0.02716,-0.01266,-0.04379,0.01144,-0.15076,-0.00031
9.141,-0.01343,-0.04166,-0.03693,0.0061,-0.03265,-0.04654,-0.01419,0.00061,-2.10602,0.01938,0.02243,-0.00809,-0.03769,0.00854,-0.12695,-0.0087
9.1415,-0.01495,-0.03983,-0.03616,-0.00107,-0.03433,-0.04807,-0.01373,0.00061,-2.26334,0.01846,0.01785,-0.00122,-0.03296,0.00443,-0.00153,-0.02502
9.142,-0.01358,-0.03876,-0.03632,-0.00671,-0.03326,-0.04852,-0.01434,0.00031,-2.54181,0.01434,0.01663,0.0029,-0.03159,-0.00427,0.16418,-0.04044
9.1425,-0.0119,-0.03983,-0.03601,-0.00259,-0.0296,-0.047,-0.01526,0.00076,-2.94098,0.01007,0.01892,0.00443,-0.03235,-0.01678,0.25574,-0.04623
9.143,-0.01068,-0.04227,-0.03479,0.00885,-0.03036,-0.04654,-0.01511,-0.00092,-3.36731,0.00336,0.02243,0.00397,-0.03189,-0.02747,0.23361,-0.04456
9.1435,-0.01114,-0.04181,-0.03464,0.02045,-0.03098,-0.04715,-0.01465,-0.00305,-3.74588,-0.0029,0.02457,0.00198,-0.02991,-0.03372,0.15991,-0.04135
9.144,-0.0119,-0.03967,-0.03571,0.02686,-0.03128,-0.04791,-0.01495,-0.00366,-4.0799,-0.009,0.02655,-0.00122,-0.02823,-0.03723,0.07797,-0.04532
9.1445,-0.01099,-0.03754,-0.03571,0.03204,-0.03357,-0.0473,-0.01572,-0.00336,-4.38858,-0.01251,0.02731,-0.00305,-0.02899,-0.04074,-0.04303,-0.05539
9.145,-0.00931,-0.03815,-0.03555,0.04013,-0.03357,-0.04654,-0.01556,-0.00168,-4.59259,-0.01556,0.02151,-0.00366,-0.02777,-0.04349,-0.17914,-0.0618
9.1455,-0.00748,-0.04013,-0.03525,0.04501,-0.03464,-0.04593,-0.01511,-0.00046,-4.61655,-0.01801,0.00198,-0.00412,-0.0267,-0.04349,-0.20737,-0.06073
9.146,-0.00687,-0.04089,-0.03448,0.03235,-0.03235,-0.04684,-0.0148,-0.00031,-4.53278,-0.01907,-0.03036,-0.00504,-0.02396,-0.04044,-0.05508,-0.05905
9.1465,-0.00732,-0.04135,-0.03448,-0.00107,-0.03235,-0.04715,-0.01404,-0.00046,-4.47495,-0.02045,-0.06241,-0.00595,-0.02213,-0.03769,0.14435,-0.05463
9.147,-0.00885,-0.04181,-0.03448,-0.047,-0.02838,-0.04852,-0.01251,0.00046,-4.46533,-0.02502,-0.07797,-0.0058,-0.02151,-0.03784,0.20676,-0.03876
9.1475,-0.00839,-0.0412,-0.03433,-0.08499,-0.02686,-0.04898,-0.01282,0.00153,-4.44962,-0.0351,-0.07141,-0.00443,-0.02228,-0.03616,0.1445,-0.01511
9.148,-0.00626,-0.04028,-0.03433,-0.09689,-0.02762,-0.04852,-0.01266,0.00305,-4.40674,-0.04623,-0.0502,-0.00259,-0.02411,-0.02823,0.10635,-0.00488
9.1485,-0.00458,-0.04028,-0.03448,-0.07614,-0.02945,-0.04776,-0.01266,0.00229,-4.36722,-0.05295,-0.02655,-0.00015,-0.02472,-0.01816,0.14297,-0.02014
9.149,-0.00534,-0.04028,-0.03372,-0.03754,-0.03082,-0.04654,-0.01373,0.00122,-4.34189,-0.04929,-0.00687,0.00046,-0.0264,-0.01251,0.17441,-0.04944
9.1495,-0.00793,-0.04044,-0.03265,-0.00595,-0.03067,-0.04654,-0.01404,-0.00046,-4.31686,-0.03922,0.0061,-0.00031,-0.02914,-0.01144,0.13626,-0.07294
9.15,-0.00992,-0.04028,-0.03021,0.0058,-0.02884,-0.04715,-0.01373,-0.00107,-4.28391,-0.02731,0.01419,-0.00229,-0.03281,-0.01297,0.04578,-0.07721
9.1505,-0.00916,-0.04044,-0.02991,0.0119,-0.0267,-0.04654,-0.01175,0.00061,-4.25034,-0.01785,0.0174,-0.00397,-0.03204,-0.01373,-0.05554,-0.0592
9.151,-0.00687,-0.04181,-0.03235,0.02731,-0.02548,-0.04532,-0.0116,0.00427,-4.2215,-0.01465,0.01587,-0.00534,-0.0293,-0.01511,-0.11642,-0.02945
9.1515,-0.00565,-0.04272,-0.0351,0.04196,-0.02457,-0.04425,-0.01205,0.0061,-4.19434,-0.01587,0.00748,-0.00656,-0.02777,-0.01617,-0.0795,-0.00534
9.152,-0.00473,-0.04257,-0.03647,0.03555,-0.02655,-0.04532,-0.01328,0.00366,-4.16489,-0.02045,-0.009,-0.0061,-0.02731,-0.01465,0.05142,-0.00671
9.1525,-0.00458,-0.04227,-0.03418,0.01419,-0.02808,-0.04639,-0.01511,0.00031,-4.12094,-0.02533,-0.0267,-0.00412,-0.02747,-0.01236,0.1709,-0.02975
9.153,-0.00458,-0.04272,-0.0322,0.00885,-0.02975,-0.04547,-0.01678,-0.0029,-3.97263,-0.02914,-0.03708,-0.00183,-0.02792,-0.01129,0.18829,-0.05661
9.1535,-0.00519,-0.04333,-0.03159,0.0351,-0.03021,-0.04547,-0.01755,-0.00549,-3.55972,-0.0296,-0.03525,0.0,-0.02884,-0.01282,0.14786,-0.06958
9.154,-0.00504,-0.04425,-0.03387,0.07126,-0.03052,-0.04669,-0.01862,-0.00717,-2.89612,-0.02533,-0.02411,0.00122,-0.0293,-0.01526,0.13626,-0.06851
9.1545,-0.00443,-0.0441,-0.03525,0.07782,-0.03021,-0.04715,-0.01923,-0.00763,-2.25494,-0.0177,-0.01144,0.00351,-0.02823,-0.01511,0.15671,-0.06149
9.155,-0.00351,-0.04272,-0.03586,0.04379,-0.03113,-0.04822,-0.01953,-0.0087,-1.8219,-0.01343,-0.00763,0.00305,-0.0267,-0.01266,0.14618,-0.05402
9.1555,-0.00366,-0.04196,-0.03464,-0.00427,-0.03281,-0.0473,-0.01907,-0.01053,-1.48941,-0.0174,-0.00961,-0.0029,-0.02563,-0.0119,0.09064,-0.04333
9.156,-0.00473,-0.04166,-0.03357,-0.03448,-0.03418,-0.04807,-0.01862,-0.01114,-1.09833,-0.02701,-0.01175,-0.01053,-0.0264,-0.01358,0.02869,-0.03403
9.1565,-0.00534,-0.0415,-0.03204,-0.03799,-0.03708,-0.04852,-0.01724,-0.01038,-0.65735,-0.03036,-0.00885,-0.01404,-0.02701,-0.01755,-0.0264,-0.02975
9.157,-0.00565,-0.04211,-0.03189,-0.02991,-0.03799,-0.04791,-0.01633,-0.009,-0.24017,-0.02182,-0.0029,-0.01282,-0.02808,-0.01923,-0.09537,-0.03128
9.1575,-0.00504,-0.04181,-0.03281,-0.02472,-0.03937,-0.0473,-0.01617,-0.00748,0.14511,-0.00717,0.00031,-0.00961,-0.02792,-0.01663,-0.17365,-0.03967
9.158,-0.00488,-0.04227,-0.03357,-0.02777,-0.03937,-0.04761,-0.01511,-0.00717,0.53284,0.00504,-0.0032,-0.00977,-0.02731,-0.01297,-0.21637,-0.04639
9.1585,-0.00519,-0.04166,-0.03494,-0.03937,-0.03845,-0.04807,-0.0145,-0.00702,0.92773,0.00961,-0.01099,-0.01038,-0.02945,-0.01373,-0.19592,-0.04822
9.159,-0.00458,-0.04013,-0.03525,-0.05692,-0.0386,-0.04974,-0.0148,-0.00595,1.30829,0.009,-0.01572,-0.00916,-0.03067,-0.0148,-0.12543,-0.04288
9.1595,-0.00397,-0.03891,-0.03448,-0.07843,-0.03906,-0.04959,-0.01556,-0.0032,1.66687,0.00687,-0.0148,-0.00351,-0.03128,-0.01343,-0.03723,-0.03662
9.16,-0.0029,-0.03784,-0.03418,-0.09781,-0.03799,-0.04837,-0.01541,-0.00046,2.01004,0.00565,-0.00793,0.00183,-0.03159,-0.00839,0.0267,-0.03998
9.1605,-0.00275,-0.03922,-0.03403,-0.10635,-0.03784,-0.04593,-0.01389,0.00015,2.33841,0.0058,-0.00916,0.00443,-0.03296,0.0,0.01419,-0.05005
9.161,-0.00244,-0.0412,-0.03326,-0.09933,-0.03738,-0.04486,-0.0119,-0.00153,2.65656,0.00336,-0.03036,0.00549,-0.03281,0.01022,-0.09521,-0.06027
9.1615,-0.00214,-0.04349,-0.03296,-0.08301,-0.03403,-0.04593,-0.01114,-0.0032,2.97913,-0.00473,-0.06668,0.00549,-0.03067,0.02243,-0.23727,-0.06317
9.162,-0.00046,-0.04379,-0.03326,-0.07339,-0.03189,-0.04608,-0.01312,-0.00366,3.30704,-0.02014,-0.09079,0.00381,-0.02838,0.03296,-0.30762,-0.05875
9.1625,-0.00046,-0.04333,-0.03311,-0.07416,-0.0293,-0.04639,-0.01495,-0.00427,3.61816,-0.0412,-0.07965,0.00092,-0.02762,0.03983,-0.25726,-0.05447
9.163,-0.00137,-0.04089,-0.03235,-0.07324,-0.02838,-0.04547,-0.01495,-0.00443,3.90137,-0.06012,-0.03967,-0.00061,-0.02747,0.04547,-0.10788,-0.05142
9.1635,-0.00214,-0.0383,-0.03265,-0.05798,-0.02762,-0.04578,-0.01373,-0.00427,4.16443,-0.0679,-0.0032,-0.00092,-0.02808,0.0499,0.07339,-0.04654
9.164,-0.00244,-0.03769,-0.03067,-0.02731,-0.02563,-0.04562,-0.01404,-0.00488,4.41452,-0.06638,0.00229,-0.00092,-0.02853,0.05142,0.15991,-0.03632
9.1645,-0.00336,-0.03922,-0.03036,0.00244,-0.02594,-0.04501,-0.01389,-0.00641,4.64371,-0.06134,-0.03616,-0.00137,-0.02975,0.04745,0.06592,-0.02823
9.165,-0.00397,-0.04059,-0.03082,0.01495,-0.02594,-0.04425,-0.01297,-0.00641,4.8349,-0.05798,-0.10361,-0.00153,-0.0296,0.03677,-0.1123,-0.0322
9.1655,-0.00397,-0.04105,-0.03281,0.00748,-0.0267,-0.04425,-0.01236,-0.00443,4.95468,-0.05646,-0.15228,-0.00107,-0.03021,0.01907,-0.168,-0.04852
9.166,-0.00366,-0.04013,-0.03387,0.00336,-0.02686,-0.04608,-0.01236,-0.00198,4.98779,-0.05219,-0.13718,0.00137,-0.03281,-0.0061,-0.03265,-0.06012
9.1665,-0.00381,-0.03967,-0.03265,0.02899,-0.02823,-0.04807,-0.01221,-0.00153,4.97269,-0.0473,-0.0708,0.0061,-0.03876,-0.03403,0.14008,-0.05188
9.167,-0.00336,-0.04013,-0.03204,0.07156,-0.0296,-0.04837,-0.01175,-0.0032,4.96109,-0.04425,-0.00076,0.00992,-0.04242,-0.05768,0.20111,-0.03204
9.1675,-0.00259,-0.04074,-0.03265,0.0827,-0.02975,-0.04608,-0.01114,-0.00427,4.9675,-0.04654,0.03799,0.0119,-0.04196,-0.07233,0.18463,-0.02182
9.168,-0.00183,-0.04135,-0.03372,0.04852,-0.02899,-0.04669,-0.01205,-0.00397,4.97375,-0.04959,0.05219,0.01236,-0.03876,-0.07919,0.20142,-0.02762
9.1685,-0.00153,-0.04166,-0.03418,0.00565,-0.02914,-0.04745,-0.01328,-0.0029,4.97086,-0.04471,0.06363,0.01053,-0.03525,-0.07919,0.24109,-0.03525
9.169,-0.00183,-0.0415,-0.03403,-0.00885,-0.03204,-0.04791,-0.01282,-0.00244,4.96735,-0.02594,0.08072,0.00732,-0.03357,-0.07141,0.21088,-0.03174
9.1695,-0.00107,-0.04013,-0.03387,0.0029,-0.03326,-0.04593,-0.01175,-0.00137,4.96902,-0.00076,0.0972,0.00305,-0.03265,-0.05219,0.09979,-0.02274
9.17,0.00015,-0.03876,-0.03387,0.01923,-0.03403,-0.04547,-0.01205,0.00076,4.97116,0.01907,0.09918,-0.00122,-0.03235,-0.03204,0.01572,-0.02319
9.1705,0.00031,-0.0383,-0.03311,0.03098,-0.03387,-0.04623,-0.01328,0.00168,4.97116,0.02274,0.08835,-0.00504,-0.03326,-0.02335,0.03235,-0.03342
9.171,0.0,-0.03754,-0.03143,0.0383,-0.03555,-0.0473,-0.0148,0.00046,4.97009,0.01785,0.07645,-0.00488,-0.03464,-0.03159,0.10818,-0.03754
9.1715,0.00015,-0.03616,-0.03174,0.03983,-0.03586,-0.04791,-0.0148,-0.00122,4.96994,0.01343,0.07156,-0.00092,-0.03571,-0.04791,0.16022,-0.03448
9.172,0.0,-0.03555,-0.03143,0.03693,-0.03235,-0.04761,-0.01282,-0.0029,4.97101,0.01144,0.06607,0.00427,-0.03723,-0.06271,0.17075,-0.03036
9.1725,-0.00015,-0.03662,-0.03021,0.0444,-0.02945,-0.04623,-0.01053,-0.00473,4.9707,0.00992,0.04639,0.00809,-0.0386,-0.07477,0.15686,-0.03204
9.173,-0.00092,-0.03815,-0.03098,0.07248,-0.02823,-0.04517,-0.00992,-0.00534,4.96979,0.00519,0.02014,0.009,-0.03967,-0.0853,0.11978,-0.03632
9.1735,-0.00061,-0.03922,-0.03357,0.11124,-0.0296,-0.04456,-0.01114,-0.00381,4.96674,-0.00229,0.00198,0.00732,-0.04089,-0.09781,0.05707,-0.03998
9.174,0.0,-0.03937,-0.03662,0.13168,-0.03113,-0.04456,-0.01144,-0.00198,4.95392,-0.00397,-0.00504,0.00504,-0.04135,-0.10483,-0.00031,-0.03952
9.1745,0.00061,-0.03876,-0.03708,0.11917,-0.03387,-0.04639,-0.01083,-0.00031,4.92386,-0.00122,-0.00885,0.00305,-0.04028,-0.09369,-0.02502,-0.03799
9.175,0.00107,-0.03906,-0.03677,0.08667,-0.0354,-0.04669,-0.01053,0.0,4.88358,0.00244,-0.01633,0.00244,-0.03601,-0.06226,-0.03464,-0.03922
9.1755,0.00168,-0.03983,-0.03555,0.05081,-0.03326,-0.047,-0.01099,-0.00015,4.84497,0.00275,-0.02304,0.00244,-0.0293,-0.0235,-0.05768,-0.04364
9.176,0.00183,-0.04074,-0.03571,0.01129,-0.0325,-0.04791,-0.01266,-0.00031,4.81171,0.00305,-0.02625,0.00412,-0.02197,0.0061,-0.07996,-0.04532
9.1765,0.00076,-0.04135,-0.0354,-0.03479,-0.03204,-0.04868,-0.01328,-0.00076,4.77859,0.00824,-0.02792,0.00549,-0.01694,0.0264,-0.06195,-0.03998
9.177,-0.00092,-0.0412,-0.03647,-0.07355,-0.03235,-0.04852,-0.01343,-0.00198,4.74289,0.01617,-0.0296,0.0061,-0.01648,0.04227,-0.00549,-0.03036
9.1775,-0.00122,-0.04105,-0.03693,-0.08987,-0.03265,-0.0473,-0.01282,-0.00153,4.70688,0.02426,-0.03082,0.00534,-0.01816,0.05447,0.03998,-0.02335
9.178,-0.00259,-0.04013,-0.03708,-0.08514,-0.0325,-0.04791,-0.01099,-0.00015,4.67285,0.02762,-0.03189,0.00427,-0.02045,0.05585,0.04013,-0.02365
9.1785,-0.00351,-0.03891,-0.03738,-0.07797,-0.03143,-0.04913,-0.01053,0.00076,4.63989,0.02563,-0.03525,0.00412,-0.02045,0.04135,0.0238,-0.02975
9.179,-0.00534,-0.03952,-0.03769,-0.07721,-0.0296,-0.04929,-0.01083,0.00031,4.60587,0.01968,-0.03769,0.00534,-0.01801,0.0177,0.0351,-0.03708
9.1795,-0.00549,-0.04059,-0.03769,-0.07675,-0.02731,-0.04852,-0.01266,0.00015,4.5723,0.01236,-0.03784,0.00778,-0.01297,-0.00732,0.06134,-0.04166
9.18,-0.00351,-0.03983,-0.03738,-0.07385,-0.02579,-0.04761,-0.01328,-0.00168,4.51385,0.00626,-0.03479,0.00885,-0.00854,-0.03296,0.04166,-0.04562
9.1805,-0.00122,-0.03876,-0.03601,-0.07126,-0.02625,-0.04822,-0.01312,-0.00397,4.27994,-0.00107,-0.03021,0.00763,-0.00885,-0.0589,-0.03937,-0.05142
9.181,-0.00031,-0.03937,-0.03586,-0.06882,-0.02884,-0.04852,-0.01358,-0.00641,3.68073,-0.00641,-0.02853,0.00397,-0.01144,-0.08362,-0.12665,-0.05966
9.1815,-0.00107,-0.03998,-0.03555,-0.06454,-0.03036,-0.04868,-0.0148,-0.00793,2.83722,-0.01221,-0.02884,0.00153,-0.01114,-0.09964,-0.17563,-0.06424
9.182,-0.00259,-0.04089,-0.03571,-0.05646,-0.02869,-0.04669,-0.01495,-0.00839,2.10495,-0.01541,-0.02838,0.00244,-0.00793,-0.10071,-0.20325,-0.06149
9.1825,-0.0032,-0.04135,-0.0354,-0.04898,-0.02731,-0.04654,-0.01495,-0.0058,1.59607,-0.01816,-0.0296,0.00366,-0.00565,-0.08835,-0.22491,-0.05402
9.183,-0.00336,-0.04166,-0.03555,-0.0441,-0.02899,-0.04761,-0.01556,-0.0029,1.13266,-0.02106,-0.04059,0.00488,-0.00641,-0.07065,-0.20676,-0.04684
9.1835,-0.00336,-0.04181,-0.03464,-0.03937,-0.03021,-0.04913,-0.01526,-0.00214,0.70557,-0.02426,-0.06699,0.00534,-0.01007,-0.05463,-0.13641,-0.03967
9.184,-0.00397,-0.04303,-0.03479,-0.03082,-0.03235,-0.04852,-0.01434,-0.0029,0.53238,-0.02762,-0.09781,0.00534,-0.01465,-0.03815,-0.05905,-0.02762
9.1845,-0.00473,-0.04303,-0.03555,-0.02136,-0.03281,-0.04837,-0.01358,-0.00427,0.65414,-0.03143,-0.1088,0.00366,-0.01892,-0.02228,-0.01022,-0.01465
9.185,-0.00488,-0.04166,-0.03693,-0.01617,-0.03296,-0.04837,-0.01389,-0.00488,0.84152,-0.03555,-0.08804,-0.00122,-0.02243,-0.01007,0.00748,-0.01251
9.1855,-0.00488,-0.04166,-0.03754,-0.01389,-0.03296,-0.0502,-0.0148,-0.00549,0.91003,-0.03876,-0.05096,-0.00671,-0.0267,-0.00366,-0.0238,-0.02762
9.186,-0.00534,-0.04242,-0.03601,-0.00748,-0.03113,-0.05096,-0.01526,-0.00641,0.88379,-0.04227,-0.01877,-0.00839,-0.0293,-0.00046,-0.12772,-0.05203
9.1865,-0.00641,-0.04349,-0.03525,0.00809,-0.03098,-0.04959,-0.01434,-0.00702,0.85846,-0.05081,0.0,-0.0061,-0.03159,0.00137,-0.25177,-0.06516
9.187,-0.00763,-0.04318,-0.03723,0.02411,-0.03189,-0.04761,-0.01404,-0.00809,0.85571,-0.05493,0.01083,-0.00137,-0.03265,0.00671,-0.30457,-0.05783
9.1875,-0.00687,-0.04364,-0.0386,0.02808,-0.03296,-0.047,-0.01389,-0.00824,0.84259,-0.05569,0.01709,0.00229,-0.0322,0.0174,-0.27512,-0.04593
9.188,-0.00504,-0.04486,-0.03906,0.02106,-0.03342,-0.04852,-0.01328,-0.00687,0.81161,-0.04944,0.01984,0.00458,-0.0322,0.03067,-0.19485,-0.04791
9.1885,-0.00397,-0.04578,-0.0383,0.01419,-0.03357,-0.0502,-0.01358,-0.00458,0.79086,-0.0415,0.01801,0.0058,-0.03479,0.03998,-0.06668,-0.06058
9.189,-0.00519,-0.04623,-0.03723,0.01389,-0.03311,-0.05173,-0.01343,-0.00336,0.78979,-0.03082,0.01236,0.00732,-0.03754,0.04349,0.07339,-0.06714
9.1895,-0.0058,-0.04623,-0.0354,0.01877,-0.03174,-0.05081,-0.01373,-0.00351,0.7869,-0.01831,0.00351,0.00793,-0.03998,0.04211,0.12314,-0.05966
9.19,-0.00473,-0.04532,-0.03357,0.02182,-0.03052,-0.04822,-0.01343,-0.00443,0.76584,-0.009,-0.00488,0.00656,-0.04227,0.03738,0.05646,-0.04883
9.1905,-0.00427,-0.04349,-0.03265,0.0206,-0.03113,-0.04684,-0.01297,-0.00473,0.73318,-0.00961,-0.00992,0.00305,-0.04608,0.02518,-0.03143,-0.04852
9.191,-0.00534,-0.04227,-0.03418,0.01129,-0.0325,-0.04593,-0.01328,-0.00381,0.69382,-0.02197,-0.00946,0.00076,-0.0502,0.00824,-0.0856,-0.05539
9.1915,-0.00687,-0.04303,-0.03662,-0.00839,-0.03326,-0.04684,-0.01404,-0.00244,0.63705,-0.0415,-0.00351,0.00092,-0.05157,-0.00916,-0.15625,-0.05646
9.192,-0.00778,-0.04364,-0.03723,-0.03708,-0.03296,-0.04684,-0.01434,-0.00183,0.55725,-0.05737,0.00519,0.00198,-0.05142,-0.02579,-0.24948,-0.04257
9.1925,-0.00778,-0.04211,-0.03647,-0.0621,-0.03281,-0.04745,-0.01389,-0.00092,0.4628,-0.06042,0.01404,0.00305,-0.05188,-0.04074,-0.26199,-0.02716
9.193,-0.00778,-0.03952,-0.03448,-0.06836,-0.03326,-0.047,-0.01297,-0.00107,0.37155,-0.05341,0.01831,0.00351,-0.05096,-0.05417,-0.13641,-0.02518
9.1935,-0.00763,-0.03845,-0.03448,-0.05707,-0.03342,-0.04517,-0.01282,-0.00259,0.298,-0.04395,0.01541,0.00458,-0.04883,-0.06348,0.05035,-0.03143
9.194,-0.00687,-0.03998,-0.0354,-0.04196,-0.03342,-0.04562,-0.01343,-0.00519,0.24323,-0.03769,0.0058,0.00519,-0.047,-0.06897,0.21255,-0.02609
9.1945,-0.00626,-0.04166,-0.03555,-0.03159,-0.03281,-0.04471,-0.01312,-0.00702,0.19806,-0.02808,-0.01114,0.00443,-0.04684,-0.07172,0.33951,-0.00946
9.195,-0.00671,-0.04272,-0.03387,-0.02563,-0.03265,-0.04517,-0.01312,-0.00702,0.15137,-0.01801,-0.0293,0.00107,-0.047,-0.0737,0.41428,0.00153
9.1955,-0.00732,-0.04272,-0.03281,-0.02304,-0.03281,-0.04456,-0.01404,-0.00656,0.09079,-0.0148,-0.03815,-0.00244,-0.04501,-0.07706,0.37155,-0.00595
9.196,-0.00793,-0.04227,-0.03448,-0.02716,-0.03235,-0.04562,-0.01434,-0.0061,0.00717,-0.01816,-0.02823,-0.00473,-0.04013,-0.07874,0.21851,-0.02228
9.1965,-0.00702,-0.04089,-0.03571,-0.03464,-0.03204,-0.04654,-0.01389,-0.00504,-0.1004,-0.02396,-0.0061,-0.00443,-0.03311,-0.07294,0.07401,-0.03357
9.197,-0.00671,-0.04028,-0.03601,-0.04089,-0.03113,-0.04837,-0.01328,-0.00549,-0.21103,-0.02853,0.00992,-0.00198,-0.02625,-0.05585,0.04028,-0.0386
9.1975,-0.00641,-0.03952,-0.0351,-0.04028,-0.02914,-0.04807,-0.01343,-0.0061,-0.3067,-0.03021,0.01114,0.0,-0.0209,-0.03098,0.10162,-0.04868
9.198,-0.0061,-0.03922,-0.03479,-0.03662,-0.02884,-0.04868,-0.01343,-0.00641,-0.39917,-0.02945,0.00458,0.00153,-0.01572,-0.00534,0.16693,-0.07004
9.1985,-0.00702,-0.0383,-0.03571,-0.03235,-0.02808,-0.04807,-0.01434,-0.00656,-0.49088,-0.0264,0.00061,0.00366,-0.00992,0.01419,0.17517,-0.08713
9.199,-0.00717,-0.03799,-0.03448,-0.02991,-0.02716,-0.04822,-0.01678,-0.00702,-0.56259,-0.02304,0.00107,0.00732,-0.00443,0.02472,0.14542,-0.08331
9.1995,-0.00717,-0.0383,-0.03204,-0.02884,-0.02487,-0.04761,-0.01816,-0.00717,-0.61859,-0.02106,-0.00168,0.01053,-0.00275,0.02792,0.14008,-0.06256
9.2,-0.00626,-0.03876,-0.03082,-0.02655,-0.02396,-0.04654,-0.01785,-0.00565,-0.6839,-0.01511,-0.01663,0.0116,-0.0058,0.0264,0.19257,-0.04379
9.2005,-0.00549,-0.03983,-0.03113,-0.02228,-0.02502,-0.0473,-0.01541,-0.00427,-0.76431,-0.00458,-0.04379,0.01068,-0.0116,0.02426,0.2623,-0.03738
9.201,-0.00519,-0.04089,-0.03235,-0.0177,-0.02563,-0.04852,-0.01373,-0.00336,-0.84351,0.01022,-0.07751,0.00916,-0.01862,0.02274,0.26047,-0.04395
9.2015,-0.00504,-0.04318,-0.03281,-0.01404,-0.02533,-0.04868,-0.01297,-0.00381,-0.90927,0.02243,-0.11078,0.00809,-0.02411,0.0206,0.1474,-0.06149
9.202,-0.00427,-0.04395,-0.0325,-0.01129,-0.02411,-0.04852,-0.01312,-0.00366,-0.95703,0.02869,-0.13306,0.00656,-0.02869,0.01511,-0.00992,-0.08011
9.2025,-0.00458,-0.04456,-0.03265,-0.00916,-0.02411,-0.04776,-0.01404,-0.0029,-1.00021,0.03555,-0.13596,0.00351,-0.03006,0.00778,-0.1062,-0.08636
9.203,-0.00458,-0.04318,-0.03296,-0.00702,-0.02319,-0.04883,-0.01404,-0.00244,-1.05133,0.04181,-0.11246,0.00015,-0.02731,-0.00046,-0.10544,-0.07355
9.2035,-0.00473,-0.04303,-0.03326,-0.00488,-0.02426,-0.04868,-0.01389,-0.00275,-1.10321,0.03998,-0.07141,-0.00305,-0.02228,-0.00748,-0.03616,-0.05539
9.204,-0.00549,-0.04349,-0.03494,-0.00137,-0.02441,-0.0502,-0.01389,-0.00214,-1.1412,0.02594,-0.0293,-0.00381,-0.01801,-0.01328,0.05493,-0.04761
9.2045,-0.0058,-0.0444,-0.03555,0.0061,-0.0267,-0.04791,-0.01389,-0.00183,-1.16806,0.00763,-0.00229,-0.00412,-0.01526,-0.01587,0.11505,-0.05402
9.205,-0.00488,-0.04578,-0.03616,0.01221,-0.02945,-0.04547,-0.01312,-0.00168,-1.19797,-0.00397,0.00961,-0.00366,-0.01221,-0.01373,0.112,-0.06424
9.2055,-0.00412,-0.04715,-0.03616,0.00931,-0.03082,-0.04654,-0.01373,-0.00305,-1.23947,-0.00809,0.01114,-0.00183,-0.00839,-0.00839,0.07797,-0.06149
9.206,-0.00275,-0.04669,-0.03616,-0.00671,-0.03265,-0.0473,-0.01434,-0.00443,-1.28784,-0.01144,0.00931,0.00183,-0.00626,-0.00153,0.08255,-0.04593
9.2065,-0.00305,-0.04547,-0.03632,-0.02899,-0.0351,-0.047,-0.01511,-0.0058,-1.33484,-0.01877,0.01282,0.00427,-0.00702,0.00168,0.13657,-0.03204
9.207,-0.00427,-0.0441,-0.03677,-0.05142,-0.03647,-0.04623,-0.01602,-0.00656,-1.37802,-0.02838,0.02838,0.00366,-0.01144,0.00351,0.18219,-0.03021
9.2075,-0.00565,-0.04318,-0.03693,-0.07141,-0.03708,-0.04562,-0.01526,-0.00656,-1.41937,-0.03754,0.05463,0.00153,-0.02319,0.0029,0.17502,-0.03571
9.208,-0.00732,-0.04425,-0.03555,-0.09415,-0.03677,-0.04456,-0.01404,-0.00595,-1.46454,-0.04135,0.07767,-0.00076,-0.04028,0.00519,0.12192,-0.03769
9.2085,-0.00748,-0.04456,-0.03479,-0.1178,-0.03693,-0.04639,-0.01312,-0.00397,-1.50925,-0.03754,0.07797,-0.00305,-0.05554,0.01129,0.0592,-0.03067
9.209,-0.00687,-0.04471,-0.03418,-0.13229,-0.03494,-0.04807,-0.01144,-0.00229,-1.55319,-0.03616,0.0531,-0.00366,-0.06317,0.01984,0.01221,-0.01907
9.2095,-0.00641,-0.04318,-0.0354,-0.12756,-0.03525,-0.04745,-0.01007,-0.00214,-1.60446,-0.03418,0.02106,-0.0029,-0.06439,0.02625,-0.01144,-0.01175
9.21,-0.0061,-0.04257,-0.03647,-0.10666,-0.03342,-0.04501,-0.009,-0.00214,-1.6684,-0.03342,0.00183,-0.00122,-0.06485,0.02563,-0.02151,-0.01144
9.2105,-0.00565,-0.04166,-0.0354,-0.0824,-0.03174,-0.0441,-0.01007,-0.00137,-1.72363,-0.03601,-0.00366,0.0,-0.06927,0.01602,-0.03098,-0.01633
9.211,-0.00549,-0.04074,-0.03418,-0.05615,-0.03098,-0.04532,-0.0116,0.00107,-1.74927,-0.03494,-0.00458,0.00061,-0.07889,0.00122,-0.03204,-0.02029
9.2115,-0.00427,-0.04059,-0.03281,-0.01877,-0.03113,-0.04776,-0.0119,0.00214,-1.7598,-0.03159,-0.00656,0.00214,-0.09064,-0.01221,-0.00473,-0.02289
9.212,-0.00366,-0.04074,-0.03235,0.04242,-0.03098,-0.04898,-0.01068,0.00153,-1.77338,-0.03021,-0.00977,0.0029,-0.09766,-0.01572,0.03326,-0.02823
9.2125,-0.00397,-0.04105,-0.03296,0.13138,-0.02991,-0.04776,-0.01144,0.00061,-1.78497,-0.02853,-0.01129,0.00244,-0.09613,-0.00839,0.03677,-0.03723
9.213,-0.00412,-0.04089,-0.03281,0.22552,-0.02914,-0.04669,-0.01236,0.00046,-1.78802,-0.02396,-0.00946,0.00046,-0.08209,0.00107,0.0,-0.04501
9.2135,-0.00458,-0.04242,-0.03311,0.27237,-0.03082,-0.04623,-0.01343,0.00107,-1.78436,-0.01633,-0.00824,-0.00183,-0.06332,0.00259,-0.04059,-0.05707
9.214,-0.00549,-0.04303,-0.03143,0.23361,-0.0325,-0.04623,-0.0148,0.00046,-1.772,-0.01266,-0.00778,-0.00168,-0.04944,-0.00565,-0.07156,-0.08438
9.2145,-0.0058,-0.04196,-0.03067,0.13458,-0.03296,-0.04715,-0.01541,-0.00183,-1.75079,-0.01709,-0.0087,-0.00061,-0.04364,-0.0174,-0.10773,-0.11551
9.215,-0.00504,-0.04089,-0.03113,0.04745,-0.03265,-0.04715,-0.01556,-0.00351,-1.72134,-0.02289,-0.01038,0.00122,-0.03998,-0.0264,-0.13702,-0.11093
9.2155,-0.00534,-0.03983,-0.03296,0.01801,-0.03281,-0.047,-0.01602,-0.00351,-1.67709,-0.02609,-0.01068,0.00107,-0.03479,-0.03555,-0.11993,-0.03952
9.216,-0.00732,-0.03983,-0.03357,0.02884,-0.03281,-0.04807,-0.01511,-0.00381,-1.62338,-0.02197,-0.00916,-0.00031,-0.03098,-0.04807,-0.0618,0.0679
9.2165,-0.00778,-0.03967,-0.0322,0.04242,-0.03159,-0.04883,-0.01526,-0.00458,-1.57349,-0.02151,-0.00748,-0.00168,-0.03113,-0.06149,-0.03235,0.13672
9.217,-0.00687,-0.03967,-0.03143,0.04364,-0.03006,-0.04837,-0.01495,-0.00504,-1.53091,-0.02838,-0.00748,-0.00259,-0.03525,-0.07034,-0.07782,0.11932
9.2175,-0.00504,-0.0412,-0.03189,0.04135,-0.03052,-0.04745,-0.01511,-0.00443,-1.48468,-0.03876,-0.0087,-0.00412,-0.03876,-0.07278,-0.16647,0.04608
9.218,-0.00412,-0.04257,-0.03235,0.04318,-0.0325,-0.04623,-0.01495,-0.00488,-1.42853,-0.04364,-0.01038,-0.00565,-0.03952,-0.07324,-0.24582,-0.02563
9.2185,-0.0029,-0.04242,-0.03311,0.05432,-0.03403,-0.04669,-0.01465,-0.00549,-1.3678,-0.03952,-0.01221,-0.00397,-0.03815,-0.07614,-0.30075,-0.07568
9.219,-0.00198,-0.04105,-0.03372,0.07324,-0.03311,-0.04761,-0.0148,-0.00656,-1.30692,-0.02823,-0.01587,-0.00122,-0.03571,-0.07736,-0.32928,-0.11734
9.2195,-0.00015,-0.04028,-0.03342,0.09109,-0.03159,-0.0473,-0.01465,-0.00641,-1.24725,-0.01663,-0.02472,-0.00061,-0.03311,-0.07019,-0.30731,-0.14389
9.22,0.00137,-0.0412,-0.03311,0.08972,-0.03082,-0.047,-0.0148,-0.00397,-1.18881,-0.00656,-0.0415,-0.0029,-0.02884,-0.05157,-0.20798,-0.12741
9.2205,0.00107,-0.0415,-0.03342,0.05981,-0.03128,-0.04684,-0.01419,-0.00122,-1.12823,-0.00214,-0.06516,-0.00519,-0.02335,-0.02823,-0.07416,-0.06866
9.221,0.0,-0.04181,-0.03265,0.00946,-0.03128,-0.04684,-0.01343,0.00168,-1.0585,-0.00137,-0.0827,-0.0061,-0.01572,-0.01007,-0.0145,-0.01617
9.2215,-0.00061,-0.0415,-0.03326,-0.04181,-0.03128,-0.04532,-0.01404,0.00229,-0.97641,-0.0032,-0.08453,-0.00641,-0.00778,-0.00717,-0.08606,-0.00137
9.222,-0.00046,-0.04135,-0.03342,-0.07843,-0.03143,-0.04669,-0.01678,0.00031,-0.88577,-0.00671,-0.07004,-0.0058,-0.00595,-0.01938,-0.2298,-0.01068
9.2225,-0.00092,-0.04166,-0.03296,-0.09827,-0.03281,-0.04745,-0.01831,-0.00168,-0.79224,-0.00992,-0.0502,-0.00534,-0.01312,-0.03647,-0.3537,-0.01358
9.223,-0.00229,-0.0412,-0.03403,-0.10956,-0.03372,-0.04761,-0.0177,-0.00229,-0.70145,-0.01389,-0.03387,-0.00351,-0.02411,-0.04333,-0.40588,-0.00458
9.2235,-0.00412,-0.04074,-0.03555,-0.11871,-0.03403,-0.047,-0.01541,-0.00076,-0.61584,-0.01755,-0.02609,-0.00168,-0.03357,-0.03784,-0.35141,0.00916
9.224,-0.00458,-0.03967,-0.03738,-0.12329,-0.03448,-0.04608,-0.01434,0.00031,-0.53192,-0.02335,-0.02396,-0.00031,-0.03799,-0.0267,-0.19394,0.02426
9.2245,-0.00473,-0.03998,-0.03769,-0.1236,-0.03525,-0.04868,-0.01434,0.00031,-0.44403,-0.02838,-0.02319,0.00031,-0.0412,-0.01663,-0.00443,0.03433
9.225,-0.00366,-0.04166,-0.03632,-0.12207,-0.03616,-0.04837,-0.0148,-0.00061,-0.36087,-0.03296,-0.02045,-0.00061,-0.04379,-0.00854,0.14359,0.03021
9.2255,-0.00305,-0.04333,-0.03632,-0.12222,-0.03616,-0.04807,-0.01572,-0.00153,-0.28244,-0.03723,-0.01511,-0.00259,-0.04288,-0.00168,0.2533,0.00092
9.226,-0.0032,-0.04303,-0.03571,-0.12619,-0.03571,-0.04852,-0.01694,-0.00412,-0.19897,-0.03922,-0.00778,-0.00412,-0.03738,0.00183,0.37109,-0.0499
9.2265,-0.00397,-0.04272,-0.03632,-0.13626,-0.03525,-0.04822,-0.01785,-0.00656,-0.10956,-0.03754,0.0,-0.00427,-0.0293,0.00412,0.47775,-0.09857
9.227,-0.00412,-0.04379,-0.03708,-0.14923,-0.03387,-0.04684,-0.01785,-0.00671,-0.01663,-0.03357,0.00763,-0.00458,-0.0209,0.00809,0.46463,-0.10849
9.2275,-0.00366,-0.04456,-0.03738,-0.14664,-0.03326,-0.04517,-0.01663,-0.00488,0.08148,-0.0296,0.01495,-0.0058,-0.01251,0.01373,0.26947,-0.07553
9.228,-0.0032,-0.04257,-0.03723,-0.10544,-0.03357,-0.04517,-0.01556,-0.00351,0.17181,-0.02747,0.02213,-0.00626,-0.00656,0.01663,0.01068,-0.04257
9.2285,-0.00381,-0.04105,-0.03601,-0.02365,-0.03479,-0.047,-0.01434,-0.0029,0.24048,-0.02716,0.02594,-0.00366,-0.00534,0.01465,-0.10666,-0.04745
9.229,-0.00519,-0.04074,-0.0351,0.05722,-0.03586,-0.04898,-0.01404,-0.0029,0.29755,-0.02655,0.02487,0.00122,-0.00839,0.00641,-0.02731,-0.07996
9.2295,-0.00717,-0.04074,-0.03326,0.08926,-0.03464,-0.04852,-0.01343,-0.00168,0.36118,-0.02457,0.0206,0.00504,-0.0119,-0.00656,0.09689,-0.0943
9.23,-0.00793,-0.03983,-0.03281,0.07782,-0.03265,-0.04745,-0.01343,0.00031,0.42557,-0.02151,0.01663,0.00488,-0.01266,-0.02121,0.09399,-0.08545
9.2305,-0.00671,-0.03952,-0.03342,0.0737,-0.03159,-0.04684,-0.01266,0.00183,0.45166,-0.01892,0.01328,0.00153,-0.0119,-0.03143,-0.02716,-0.07675
9.231,-0.00656,-0.04028,-0.03387,0.09872,-0.03235,-0.04593,-0.01251,0.0029,0.35492,-0.01389,0.00992,0.0,-0.01038,-0.0322,-0.0946,-0.0827
9.2315,-0.00641,-0.0412,-0.03342,0.11276,-0.03357,-0.04562,-0.01266,0.0032,0.0351,-0.00961,0.00336,0.00122,-0.01022,-0.02563,-0.00641,-0.09933
9.232,-0.00656,-0.04105,-0.03326,0.08133,-0.03326,-0.04623,-0.01419,0.00336,-0.52017,-0.00946,-0.00443,0.00275,-0.01251,-0.0209,0.14801,-0.1239
9.2325,-0.00534,-0.04074,-0.03448,0.03326,-0.03296,-0.04593,-0.01678,0.00122,-1.17462,-0.00992,-0.01022,0.00458,-0.01602,-0.02121,0.24307,-0.14603
9.233,-0.00397,-0.04089,-0.03418,0.01801,-0.03143,-0.04532,-0.01892,-0.00061,-1.74332,-0.01068,-0.00946,0.00641,-0.02075,-0.02472,0.29343,-0.1358
9.2335,-0.0029,-0.04074,-0.03403,0.03693,-0.03113,-0.04639,-0.01907,-0.00198,-2.14722,-0.00946,-0.00549,0.00732,-0.02411,-0.02731,0.35828,-0.08453
9.234,-0.00275,-0.04074,-0.03235,0.05325,-0.03052,-0.04623,-0.0177,-0.00259,-2.43683,-0.01022,-0.00565,0.00687,-0.02731,-0.02792,0.38528,-0.0351
9.2345,-0.00351,-0.04028,-0.03052,0.04044,-0.02975,-0.04715,-0.0174,-0.00381,-2.68402,-0.01312,-0.01068,0.00397,-0.03067,-0.0293,0.30441,-0.03647
9.235,-0.0032,-0.03967,-0.0322,0.00931,-0.02991,-0.04822,-0.01801,-0.00549,-2.89932,-0.01816,-0.01617,0.0,-0.03433,-0.03082,0.18097,-0.0824
9.2355,-0.00381,-0.03952,-0.03204,-0.01816,-0.02899,-0.04959,-0.01907,-0.00565,-3.06412,-0.0209,-0.01984,-0.00504,-0.03616,-0.0296,0.13031,-0.12344
9.236,-0.00427,-0.03937,-0.03311,-0.0322,-0.02838,-0.04959,-0.01923,-0.00488,-3.17963,-0.02243,-0.02228,-0.00717,-0.03525,-0.02533,0.13977,-0.12924
9.2365,-0.00473,-0.03952,-0.03418,-0.03433,-0.02747,-0.04944,-0.01923,-0.00458,-3.26385,-0.02457,-0.02686,-0.00641,-0.03464,-0.01907,0.10986,-0.11887
9.237,-0.00443,-0.04013,-0.03479,-0.02869,-0.02731,-0.04868,-0.01892,-0.00549,-3.32092,-0.02563,-0.03082,-0.00153,-0.03632,-0.01297,0.03357,-0.11459
9.2375,-0.00488,-0.04028,-0.03616,-0.01877,-0.02762,-0.04807,-0.01923,-0.0061,-3.34091,-0.02548,-0.02914,0.0029,-0.03815,-0.00824,0.00504,-0.10834
9.238,-0.0058,-0.04059,-0.0354,-0.00656,-0.02731,-0.04807,-0.01892,-0.00534,-3.3461,-0.02121,-0.02151,0.00458,-0.04059,-0.0061,0.05447,-0.08957
9.2385,-0.00641,-0.04059,-0.03387,0.00153,-0.02502,-0.04944,-0.01801,-0.00488,-3.39157,-0.01831,-0.01373,0.00168,-0.04486,-0.0061,0.12009,-0.07004
9.239,-0.00488,-0.04166,-0.03357,0.00626,-0.02319,-0.04974,-0.01602,-0.00504,-3.49777,-0.01862,-0.00977,-0.00214,-0.04883,-0.00778,0.15457,-0.06302
9.2395,-0.00305,-0.04135,-0.03403,0.00504,-0.02121,-0.0499,-0.01465,-0.00534,-3.61786,-0.01968,-0.00793,-0.0032,-0.05066,-0.00763,0.15305,-0.06882
9.24,-0.00229,-0.03891,-0.03372,-0.0029,-0.01984,-0.04807,-0.01312,-0.00534,-3.71506,-0.02045,-0.00702,-0.00076,-0.05066,-0.00595,0.1123,-0.07202
9.2405,-0.00229,-0.03723,-0.03311,-0.01938,-0.01907,-0.0473,-0.01282,-0.00443,-3.79364,-0.02029,-0.00732,0.00137,-0.0499,-0.00504,0.05005,-0.05798
9.241,-0.00229,-0.03662,-0.0322,-0.03967,-0.01984,-0.04684,-0.01297,-0.0029,-3.88062,-0.02304,-0.01022,0.00214,-0.04974,-0.00443,0.009,-0.0322
9.2415,-0.00214,-0.03738,-0.03265,-0.05753,-0.01999,-0.0473,-0.01434,-0.00305,-4.02863,-0.02365,-0.01328,0.00015,-0.05051,-0.00458,0.00092,-0.00854
9.242,-0.00229,-0.0386,-0.03357,-0.06805,-0.02151,-0.04761,-0.01495,-0.0032,-4.28284,-0.02304,-0.01617,-0.00214,-0.05081,-0.00519,-0.00946,0.00046
9.2425,-0.0029,-0.03876,-0.03342,-0.07401,-0.02426,-0.04852,-0.01404,-0.00336,-4.56146,-0.02151,-0.01816,-0.00305,-0.04791,-0.00443,-0.0528,-0.00076
9.243,-0.00412,-0.03876,-0.03357,-0.07141,-0.02686,-0.04974,-0.01221,-0.00183,-4.69452,-0.01938,-0.0206,-0.00259,-0.04242,-0.00381,-0.11276,-0.00488
9.2435,-0.00504,-0.03876,-0.0322,-0.05539,-0.0293,-0.04883,-0.01099,-0.00076,-4.64844,-0.01678,-0.02136,-0.00076,-0.03754,-0.00305,-0.15427,-0.00916
9.244,-0.00519,-0.04135,-0.03235,-0.0296,-0.03189,-0.04929,-0.01144,-0.00198,-4.5462,-0.01495,-0.02106,0.00137,-0.03418,-0.00336,-0.159,-0.01907
9.2445,-0.00519,-0.04242,-0.03372,-0.00854,-0.03311,-0.04898,-0.0119,-0.00381,-4.43695,-0.01358,-0.02106,0.00381,-0.03021,-0.00565,-0.13168,-0.02945
9.245,-0.0061,-0.04227,-0.03448,-0.00229,-0.03448,-0.04883,-0.0119,-0.00565,-4.25644,-0.0119,-0.02045,0.00626,-0.02655,-0.0087,-0.07706,-0.03174
9.2455,-0.0061,-0.04105,-0.03433,-0.00443,-0.03494,-0.04684,-0.01175,-0.00534,-4.02969,-0.01007,-0.01846,0.00595,-0.02365,-0.0116,-0.01434,-0.0148
9.246,-0.00504,-0.03922,-0.0351,-0.00839,-0.03586,-0.04639,-0.01144,-0.00336,-3.86307,-0.00534,-0.01358,0.00366,-0.02182,-0.01266,0.01373,0.01236
9.2465,-0.00519,-0.03815,-0.03632,-0.01083,-0.03555,-0.04593,-0.01129,-0.0032,-3.73367,0.00229,-0.00839,0.00381,-0.02243,-0.01328,-0.01709,0.03494
9.247,-0.0061,-0.03876,-0.03799,-0.01404,-0.03677,-0.04776,-0.0116,-0.00458,-3.55042,0.00916,-0.00839,0.00427,-0.02472,-0.01465,-0.06577,0.04517
9.2475,-0.00778,-0.03967,-0.03662,-0.01602,-0.03738,-0.04929,-0.01129,-0.00488,-3.35953,0.0116,-0.01907,0.00305,-0.02762,-0.01633,-0.07538,0.04242
9.248,-0.00748,-0.04089,-0.03433,-0.01633,-0.03799,-0.04974,-0.0116,-0.00381,-3.28979,0.00854,-0.03738,-0.00122,-0.02899,-0.01831,-0.04074,0.0351
9.2485,-0.00595,-0.04089,-0.03326,-0.01541,-0.03647,-0.0473,-0.01114,-0.00366,-3.33466,0.00366,-0.05112,-0.00549,-0.02869,-0.0206,-0.01617,0.02197
9.249,-0.00504,-0.04028,-0.03357,-0.01526,-0.03326,-0.04578,-0.01068,-0.00488,-3.32626,0.0,-0.04898,-0.00702,-0.02945,-0.02243,-0.04807,0.00427
9.2495,-0.00534,-0.04089,-0.03464,-0.01373,-0.03113,-0.04395,-0.01068,-0.00488,-3.12561,-0.00046,-0.03113,-0.0061,-0.03204,-0.02396,-0.12848,-0.01312
9.25,-0.00488,-0.0415,-0.0351,-0.01221,-0.0296,-0.04272,-0.00931,-0.00122,-2.74628,-0.00168,-0.00931,-0.0032,-0.03403,-0.02457,-0.20813,-0.03265
9.2505,-0.00519,-0.04135,-0.03326,-0.01328,-0.03036,-0.04196,-0.0087,0.00183,-2.30377,-0.00519,0.00977,-0.00153,-0.03525,-0.02472,-0.23834,-0.06332
9.251,-0.0058,-0.0415,-0.03265,-0.01633,-0.03082,-0.04303,-0.0087,0.00198,-1.89285,-0.01022,0.0209,0.00031,-0.03586,-0.02472,-0.1915,-0.10696
9.2515,-0.0058,-0.04089,-0.03296,-0.01892,-0.03113,-0.04471,-0.00977,0.00015,-1.52023,-0.0174,0.02457,0.00412,-0.03601,-0.02594,-0.05783,-0.13504
