time,RectFemL,VastusMedL,VastusLatL,TibAntL,HamMedL,HamLatL,GastroMedL,GastroLatL,RectFemR,VastusMedR,VastusLatR,TibAntR,HamMedR,HamLatR,GastroMedR,GastroLatR
7.49,0.01877,-0.00427,0.00031,-0.01236,-0.02319,-0.03906,-0.04547,-0.27969,0.05966,-0.02075,-0.00854,-0.00275,-0.02731,-0.0148,0.09186,-0.1178
7.4905,0.0235,0.00305,0.00595,-0.0148,-0.01907,-0.04242,-0.05951,-0.05402,-0.16617,-0.01953,-0.00473,-0.00076,-0.03189,-0.01831,0.12604,-0.10712
7.491,0.02701,0.0061,0.00473,-0.0174,-0.01755,-0.04562,-0.07431,0.22552,-0.36057,-0.02045,-0.00229,0.00061,-0.03632,-0.02213,0.06256,-0.08606
7.4915,0.02975,0.0061,-0.0058,-0.01343,-0.01846,-0.04745,-0.06714,0.38986,-0.49896,-0.02548,-0.00626,0.00244,-0.04105,-0.02502,-0.10101,-0.06638
7.492,0.0296,0.00305,-0.0238,0.00458,-0.02151,-0.047,-0.03571,0.35126,-0.59814,-0.03601,-0.02487,0.00153,-0.04562,-0.02777,-0.25192,-0.05569
7.4925,0.02686,-0.00092,-0.04028,0.02747,-0.02472,-0.04593,-0.00656,0.1619,-0.67093,-0.05249,-0.0528,0.00092,-0.04608,-0.0296,-0.28854,-0.05219
7.493,0.02319,-0.009,-0.04807,0.03693,-0.02487,-0.04517,0.00198,-0.04593,-0.70633,-0.0647,-0.06927,-0.00061,-0.04272,-0.02869,-0.19913,-0.05096
7.4935,0.02029,-0.02502,-0.04974,0.02716,-0.02457,-0.04486,-0.01205,-0.14023,-0.7106,-0.06424,-0.05554,-0.00031,-0.03937,-0.02441,-0.04089,-0.05096
7.494,0.01755,-0.05081,-0.05219,0.01495,-0.02487,-0.04349,-0.04272,-0.06454,-0.72479,-0.05066,-0.02075,0.00061,-0.0383,-0.01923,0.09689,-0.05493
7.4945,0.01328,-0.07538,-0.0531,0.01648,-0.02655,-0.04364,-0.07767,0.09247,-0.78064,-0.03586,0.01389,0.00259,-0.03799,-0.01648,0.16235,-0.05981
7.495,0.00885,-0.09064,-0.05188,0.01785,-0.02869,-0.04501,-0.09918,0.16708,-0.87097,-0.02457,0.03601,0.00427,-0.03616,-0.01617,0.19226,-0.0647
7.4955,0.00519,-0.09491,-0.05051,-0.00427,-0.03128,-0.04684,-0.09338,0.09827,-0.96558,-0.01617,0.04669,0.00565,-0.03082,-0.01419,0.24445,-0.0676
7.496,0.00198,-0.08621,-0.05096,-0.0412,-0.03204,-0.04745,-0.05341,-0.01266,-1.04752,-0.00778,0.05173,0.00519,-0.02502,-0.0119,0.30258,-0.06668
7.4965,-0.00046,-0.06546,-0.05127,-0.06271,-0.03113,-0.04623,0.00885,-0.05432,-1.12091,-0.00137,0.05051,0.00366,-0.02045,-0.01099,0.31052,-0.06409
7.497,-0.00259,-0.04044,-0.05127,-0.05814,-0.03052,-0.04623,0.06149,-0.03738,-1.19293,-0.00092,0.04654,0.00031,-0.01923,-0.00977,0.27725,-0.06149
7.4975,-0.00626,-0.0177,-0.04913,-0.03967,-0.03098,-0.04593,0.07309,-0.02609,-1.26114,-0.00366,0.04379,-0.00046,-0.02029,-0.00626,0.24811,-0.0589
7.498,-0.01038,-0.00122,-0.04715,-0.01892,-0.0322,-0.04593,0.0441,-0.02991,-1.32004,-0.00641,0.04425,0.00015,-0.02396,-0.00107,0.22308,-0.05539
7.4985,-0.01419,0.0087,-0.04974,0.00351,-0.03372,-0.04578,0.0032,-0.02167,-1.38397,-0.01129,0.04425,0.00168,-0.02853,0.00122,0.17715,-0.05096
7.499,-0.01556,0.01144,-0.05341,0.0209,-0.03296,-0.04593,-0.02106,-0.0087,-1.47125,-0.01907,0.03738,0.00031,-0.03128,0.00443,0.12466,-0.04501
7.4995,-0.01419,0.00854,-0.056,0.01984,-0.03281,-0.04684,-0.01526,-0.02548,-1.57394,-0.02533,0.02518,-0.00214,-0.03113,0.00198,0.09216,-0.03922
7.5,-0.01022,0.00351,-0.05707,0.0032,-0.03174,-0.04684,0.01343,-0.06973,-1.65939,-0.02777,0.01083,-0.00275,-0.03189,0.00275,0.07736,-0.03418
7.5005,-0.00534,-0.00443,-0.05844,-0.01205,-0.03021,-0.04608,0.03357,-0.10925,-1.69647,-0.02579,-0.00839,0.0,-0.03387,0.00183,0.05295,-0.03098
7.501,-0.00198,-0.01572,-0.06516,-0.01404,-0.03021,-0.04608,0.00641,-0.13657,-1.67587,-0.02151,-0.0325,0.0032,-0.0351,-0.00137,0.01419,-0.0293
7.5015,0.00198,-0.02258,-0.07813,-0.00626,-0.03189,-0.04669,-0.05554,-0.16495,-1.62277,-0.01511,-0.05554,0.00565,-0.03494,-0.00671,-0.03052,-0.02655
7.502,0.00595,-0.01801,-0.0882,0.00122,-0.03555,-0.04807,-0.09598,-0.17563,-1.57318,-0.0087,-0.06516,0.00793,-0.03448,-0.01312,-0.07889,-0.02518
7.5025,0.00916,-0.00473,-0.08743,0.00381,-0.03967,-0.05035,-0.07462,-0.10544,-1.53717,-0.00229,-0.06149,0.01022,-0.03357,-0.01694,-0.12756,-0.02579
7.503,0.00977,0.00641,-0.07324,0.00153,-0.04242,-0.05432,-0.01038,0.05493,-1.51169,0.00229,-0.04929,0.01572,-0.03204,-0.01755,-0.15915,-0.02625
7.5035,0.009,0.01083,-0.05447,-0.00305,-0.04333,-0.05676,0.04715,0.19455,-1.51169,0.00336,-0.03433,0.02106,-0.02884,-0.01984,-0.14801,-0.02655
7.504,0.00809,0.01129,-0.03693,-0.00565,-0.04333,-0.05646,0.06516,0.18188,-1.54831,-0.00153,-0.02106,0.02167,-0.02655,-0.02136,-0.09933,-0.02609
7.5045,0.00839,0.00931,-0.0235,-0.00702,-0.03983,-0.05386,0.05341,0.04272,-1.60019,-0.01282,-0.01495,0.01541,-0.02502,-0.0238,-0.06714,-0.02686
7.505,0.00854,0.00473,-0.01282,-0.00824,-0.03662,-0.05234,0.03922,-0.06699,-1.651,-0.02625,-0.01709,0.00534,-0.02441,-0.02686,-0.08835,-0.02731
7.5055,0.00671,-0.00427,-0.00824,-0.00961,-0.03418,-0.05234,0.02945,-0.06287,-1.70258,-0.03403,-0.02151,-0.0061,-0.02319,-0.02823,-0.11169,-0.02686
7.506,0.00336,-0.01266,-0.01266,-0.01236,-0.03098,-0.05173,0.01236,-0.01221,-1.75735,-0.03357,-0.0238,-0.01724,-0.0209,-0.03082,-0.06195,-0.02472
7.5065,-0.00046,-0.01785,-0.02563,-0.0174,-0.02808,-0.05096,-0.01053,-0.00031,-1.80588,-0.02762,-0.02548,-0.03082,-0.0177,-0.02899,0.03998,-0.0238
7.507,-0.00458,-0.02106,-0.04517,-0.02899,-0.02457,-0.05005,-0.0174,-0.01755,-1.84143,-0.0209,-0.02701,-0.04547,-0.0145,-0.02686,0.08682,-0.02579
7.5075,-0.00946,-0.02609,-0.06165,-0.04868,-0.02213,-0.0499,0.00381,-0.01205,-1.85608,-0.01434,-0.03006,-0.05005,-0.01343,-0.02518,0.03448,-0.0293
7.508,-0.01358,-0.03403,-0.07309,-0.06958,-0.02228,-0.05051,0.03616,0.00168,-1.83029,-0.0061,-0.03143,-0.04059,-0.01556,-0.02625,-0.03555,-0.03128
7.5085,-0.01419,-0.04105,-0.08011,-0.08408,-0.02594,-0.05035,0.04822,-0.03723,-1.75369,-0.00015,-0.03265,-0.02213,-0.0209,-0.02975,-0.03525,-0.03082
7.509,-0.01358,-0.04547,-0.08835,-0.08942,-0.03113,-0.05035,0.03006,-0.13809,-1.64673,0.00519,-0.03448,-0.00412,-0.02472,-0.03281,0.02655,-0.02914
7.5095,-0.01617,-0.04593,-0.10361,-0.08438,-0.0351,-0.05173,0.00214,-0.21713,-1.55075,0.00763,-0.04608,0.00809,-0.02655,-0.03647,0.0827,-0.02884
7.51,-0.02014,-0.04456,-0.12161,-0.06424,-0.03952,-0.05493,-0.01266,-0.16479,-1.49902,0.00946,-0.0853,0.01694,-0.02838,-0.03738,0.09018,-0.02945
7.5105,-0.02075,-0.04471,-0.13382,-0.02319,-0.0412,-0.056,-0.01755,0.04333,-1.48819,0.01129,-0.15213,0.02274,-0.03265,-0.0351,0.05463,-0.02975
7.511,-0.01511,-0.0473,-0.12817,0.03296,-0.04242,-0.05432,-0.02975,0.27939,-1.46942,0.01266,-0.20447,0.03052,-0.03571,-0.02914,0.00671,-0.02991
7.5115,-0.00885,-0.0531,-0.10452,0.07629,-0.04211,-0.05035,-0.05737,0.3627,-1.39191,0.01129,-0.1947,0.03799,-0.0351,-0.02411,-0.02365,-0.03098
7.512,-0.00977,-0.06073,-0.07294,0.08102,-0.04105,-0.04852,-0.0856,0.25513,-1.25061,0.00732,-0.12558,0.04318,-0.0351,-0.01999,-0.02808,-0.03143
7.5125,-0.01556,-0.06638,-0.04257,0.04868,-0.03769,-0.04791,-0.09369,0.09216,-1.06812,0.00107,-0.04272,0.04288,-0.03891,-0.01724,-0.01923,-0.03021
7.513,-0.02213,-0.06577,-0.01373,0.00977,-0.03387,-0.04929,-0.07965,0.01175,-0.86533,-0.00427,0.01816,0.0351,-0.0444,-0.01541,-0.01373,-0.0293
7.5135,-0.0267,-0.05768,0.01892,-0.01587,-0.03342,-0.04898,-0.06195,0.01755,-0.66727,-0.00961,0.05707,0.02014,-0.04791,-0.0148,-0.01373,-0.02762
7.514,-0.02991,-0.04959,0.05539,-0.03143,-0.03601,-0.0444,-0.05219,0.03662,-0.53345,-0.01099,0.08026,-0.00061,-0.04852,-0.01465,-0.01663,-0.02472
7.5145,-0.03235,-0.047,0.08774,-0.04883,-0.03769,-0.03952,-0.03616,0.0322,-0.55298,-0.00732,0.09338,-0.01801,-0.05234,-0.01495,-0.02213,-0.02487
7.515,-0.03311,-0.04852,0.11353,-0.06104,-0.03769,-0.0386,0.00214,0.01816,-0.69611,-0.00244,0.103,-0.02548,-0.05859,-0.01648,-0.02869,-0.0264
7.5155,-0.03189,-0.05096,0.13489,-0.05402,-0.0351,-0.04272,0.03677,0.01068,-0.58517,-0.00061,0.12131,-0.02487,-0.06378,-0.01602,-0.03387,-0.02869
7.516,-0.02686,-0.05463,0.14923,-0.03342,-0.0351,-0.04822,0.02808,0.00656,0.20035,0.0,0.14481,-0.02289,-0.06409,-0.01144,-0.03738,-0.03082
7.5165,-0.01892,-0.0618,0.14786,-0.02274,-0.03708,-0.05157,-0.01221,-0.0029,1.38168,-0.00122,0.15182,-0.02258,-0.06165,-0.00885,-0.04517,-0.0325
7.517,-0.009,-0.07187,0.1268,-0.01633,-0.03723,-0.05188,-0.03174,-0.02014,2.11411,-0.00626,0.12924,-0.02563,-0.05997,-0.00778,-0.06805,-0.03128
7.5175,-0.00061,-0.07965,0.08972,0.03006,-0.03571,-0.05096,-0.01328,-0.04257,2.0105,-0.01617,0.08575,-0.03616,-0.06027,-0.00854,-0.10696,-0.02594
7.518,0.0061,-0.08118,0.04715,0.11749,-0.03357,-0.04822,0.0058,-0.06012,1.53214,-0.03128,0.03922,-0.0502,-0.05951,-0.01251,-0.15076,-0.01633
7.5185,0.01129,-0.07904,0.01053,0.17014,-0.03159,-0.04532,-0.00595,-0.05402,1.28265,-0.04547,-0.0032,-0.05035,-0.05707,-0.01709,-0.186,-0.0087
7.519,0.01663,-0.07568,-0.01358,0.13474,-0.02899,-0.04364,-0.03632,-0.01892,1.36871,-0.05707,-0.03494,-0.02411,-0.05386,-0.01953,-0.2124,-0.00595
7.5195,0.02075,-0.07416,-0.02838,0.05676,-0.02533,-0.04227,-0.05417,0.01953,1.5358,-0.06439,-0.04807,0.0116,-0.05295,-0.02136,-0.2301,-0.009
7.52,0.02319,-0.07065,-0.03662,0.01099,-0.02213,-0.04242,-0.04181,0.02457,1.58249,-0.06912,-0.04288,0.02167,-0.05341,-0.02365,-0.24231,-0.00854
7.5205,0.02243,-0.06226,-0.03693,0.00717,-0.02151,-0.04395,-0.00641,0.00336,1.52557,-0.07629,-0.0322,0.00839,-0.05524,-0.02716,-0.23499,0.00336
7.521,0.02045,-0.05127,-0.02594,0.00854,-0.02289,-0.04669,0.02197,-0.00656,1.48438,-0.08133,-0.02975,-0.00275,-0.05508,-0.02884,-0.18143,0.0267
7.5215,0.01923,-0.04257,-0.01251,0.00015,-0.02594,-0.04715,0.01541,0.00916,1.5329,-0.08286,-0.04089,0.00336,-0.0528,-0.03067,-0.06943,0.03769
7.522,0.01816,-0.03586,-0.00717,-0.00549,-0.02731,-0.04669,-0.01678,0.02014,1.67938,-0.07843,-0.06775,0.02228,-0.04852,-0.03372,0.0676,0.0177
7.5225,0.01587,-0.03128,-0.01038,-0.00305,-0.02487,-0.04456,-0.03571,0.00519,1.89835,-0.0705,-0.10406,0.04608,-0.04501,-0.03799,0.15137,-0.02319
7.523,0.01389,-0.02914,-0.01389,-0.00229,-0.02319,-0.0441,-0.03113,-0.02319,2.0993,-0.06546,-0.14175,0.0592,-0.04181,-0.04059,0.12253,-0.05615
7.5235,0.01419,-0.02869,-0.01465,-0.00839,-0.02319,-0.04379,-0.02808,-0.0412,2.15652,-0.06607,-0.17105,0.04181,-0.03754,-0.04135,0.01633,-0.07263
7.524,0.01572,-0.02731,-0.02014,-0.01465,-0.0293,-0.04318,-0.03632,-0.04715,2.03415,-0.06439,-0.18555,0.00214,-0.03143,-0.04272,-0.06073,-0.08484
7.5245,0.01663,-0.0238,-0.03311,-0.01755,-0.03616,-0.04364,-0.03265,-0.04669,1.80573,-0.05219,-0.16769,-0.02121,-0.0238,-0.0441,-0.04013,-0.10117
7.525,0.01404,-0.02106,-0.04791,-0.01831,-0.03723,-0.04547,-0.00015,-0.04471,1.53625,-0.03571,-0.11353,-0.00992,-0.01801,-0.04593,0.06744,-0.11429
7.5255,0.00916,-0.02121,-0.05844,-0.01923,-0.03632,-0.04623,0.04211,-0.0473,1.24847,-0.02136,-0.04745,0.01495,-0.01648,-0.04562,0.2005,-0.11734
7.526,0.00214,-0.02396,-0.06683,-0.02045,-0.03769,-0.04578,0.05829,-0.06531,1.04431,-0.00366,0.00198,0.01862,-0.01694,-0.04181,0.26642,-0.11322
7.5265,-0.00504,-0.02502,-0.07263,-0.02136,-0.04135,-0.04379,0.03479,-0.10681,1.0907,0.01907,0.03876,0.0,-0.01801,-0.03342,0.20538,-0.10529
7.527,-0.00946,-0.02563,-0.07751,-0.0209,-0.04333,-0.04501,-0.00717,-0.16708,1.41388,0.04364,0.08102,-0.009,-0.01846,-0.02182,0.06348,-0.09674
7.5275,-0.01221,-0.02655,-0.07782,-0.02197,-0.04745,-0.04929,-0.03754,-0.21271,1.81671,0.05966,0.11993,0.00488,-0.01846,-0.01038,-0.05753,-0.08713
7.528,-0.01602,-0.02884,-0.07431,-0.02319,-0.05081,-0.05508,-0.0412,-0.18524,2.09,0.06607,0.13672,0.02441,-0.01846,-0.00259,-0.11627,-0.07782
7.5285,-0.02335,-0.03326,-0.06607,-0.02411,-0.04959,-0.05798,-0.03143,-0.06195,2.21664,0.06165,0.12802,0.0264,-0.01984,-0.00015,-0.16159,-0.07019
7.529,-0.02991,-0.04105,-0.05234,-0.02487,-0.04715,-0.0589,-0.02777,0.08209,2.31567,0.04913,0.10239,0.01205,-0.0209,-0.00153,-0.23972,-0.06393
7.5295,-0.0325,-0.05188,-0.03555,-0.02441,-0.04593,-0.05722,-0.03632,0.13367,2.44461,0.03403,0.06744,0.00031,-0.02029,-0.00412,-0.32104,-0.05661
7.53,-0.03281,-0.05905,-0.02136,-0.02487,-0.04044,-0.05508,-0.04089,0.0856,2.53464,0.02167,0.03357,-0.00031,-0.01694,-0.00641,-0.32944,-0.04822
7.5305,-0.03311,-0.05524,-0.0148,-0.02518,-0.03571,-0.05295,-0.02396,0.04166,2.50275,0.01144,0.0119,0.0029,-0.01251,-0.01083,-0.2359,-0.04288
7.531,-0.0325,-0.0415,-0.01892,-0.0267,-0.03159,-0.04974,0.01556,0.06241,2.38174,-0.00198,0.00595,0.00641,-0.01053,-0.01938,-0.10986,-0.04288
7.5315,-0.02899,-0.03052,-0.03372,-0.02731,-0.02838,-0.04517,0.05493,0.09552,2.29172,-0.02167,0.00351,0.00549,-0.01266,-0.02914,-0.0441,-0.04379
7.532,-0.02411,-0.02823,-0.05127,-0.02747,-0.02472,-0.0412,0.07263,0.08057,2.27219,-0.04013,-0.00656,0.00458,-0.02014,-0.03281,-0.01831,-0.04318
7.5325,-0.0206,-0.03113,-0.06393,-0.0296,-0.02472,-0.04028,0.06226,0.03738,2.18689,-0.04684,-0.01938,0.00351,-0.0296,-0.02899,0.07858,-0.03937
7.533,-0.01877,-0.03113,-0.06332,-0.03265,-0.02487,-0.04105,0.03204,0.01755,1.87576,-0.04074,-0.01877,0.00381,-0.03876,-0.02151,0.26077,-0.03448
7.5335,-0.01984,-0.02686,-0.05463,-0.03754,-0.02289,-0.04227,-0.00366,0.02731,1.3678,-0.03311,-0.00961,0.00061,-0.04471,-0.01678,0.39154,-0.03159
7.534,-0.01846,-0.02106,-0.05173,-0.04395,-0.02151,-0.04257,-0.03036,0.03967,0.8696,-0.03525,-0.00854,-0.00931,-0.04684,-0.01663,0.35416,-0.03265
7.5345,-0.01572,-0.0174,-0.06317,-0.04761,-0.0177,-0.04456,-0.03922,0.03906,0.55466,-0.04959,-0.01984,-0.02457,-0.04379,-0.01694,0.20325,-0.03433
7.535,-0.01266,-0.01251,-0.08484,-0.04196,-0.01541,-0.04578,-0.03662,0.0325,0.43884,-0.06195,-0.03082,-0.03387,-0.03937,-0.01556,0.0885,-0.03372
7.5355,-0.01083,-0.00244,-0.10422,-0.03159,-0.01526,-0.04608,-0.03723,0.0322,0.43549,-0.05569,-0.03265,-0.03052,-0.03922,-0.01251,0.09705,-0.0296
7.536,-0.00992,0.00809,-0.11749,-0.03159,-0.01495,-0.04517,-0.05203,0.03571,0.45303,-0.02853,-0.0238,-0.01709,-0.04318,-0.01129,0.18005,-0.02457
7.5365,-0.00931,0.00793,-0.12955,-0.047,-0.01617,-0.04471,-0.07202,0.03738,0.42343,0.00534,-0.01541,-0.00427,-0.04547,-0.0116,0.22644,-0.02274
7.537,-0.00824,-0.01266,-0.13901,-0.06668,-0.01801,-0.04517,-0.06775,0.03128,0.30594,0.02792,-0.01144,0.00366,-0.04166,-0.01068,0.1799,-0.02396
7.5375,-0.00671,-0.04654,-0.13763,-0.06088,-0.0206,-0.04623,-0.02441,0.02213,0.10971,0.03723,-0.01373,0.00687,-0.03403,-0.00824,0.09842,-0.02762
7.538,-0.00412,-0.08041,-0.11078,-0.0116,-0.02228,-0.04547,0.02304,0.0119,-0.1149,0.03815,-0.02045,0.00992,-0.02747,-0.00748,0.07339,-0.02991
7.5385,-0.00092,-0.10773,-0.05966,0.05646,-0.02533,-0.04349,0.01892,0.00351,-0.33966,0.03403,-0.02792,0.01068,-0.02609,-0.01007,0.11444,-0.0293
7.539,0.00015,-0.1236,-0.00549,0.07919,-0.02441,-0.04227,-0.0325,-0.00885,-0.64651,0.02533,-0.02457,0.00763,-0.02701,-0.01434,0.15244,-0.02136
7.5395,-0.00107,-0.12512,0.01968,0.0383,-0.02457,-0.0441,-0.07172,-0.02548,-1.15982,0.0119,-0.00656,-0.00397,-0.02792,-0.01556,0.12527,-0.0058
7.54,-0.00259,-0.11673,-0.00168,-0.00778,-0.02304,-0.04761,-0.05524,-0.03891,-1.87302,0.00076,0.0174,-0.0209,-0.02777,-0.0145,0.04333,0.01175
7.5405,-0.00366,-0.11002,-0.04669,-0.00275,-0.02258,-0.05051,-0.00381,-0.0444,-2.66907,-0.00443,0.03342,-0.03159,-0.02731,-0.0145,-0.047,0.02136
7.541,-0.00214,-0.10925,-0.07568,0.03357,-0.0264,-0.04959,0.0293,-0.04211,-3.47656,-0.00458,0.03372,-0.02975,-0.02594,-0.01404,-0.11459,0.02121
7.5415,0.0029,-0.10773,-0.0766,0.0441,-0.02899,-0.0473,0.02319,-0.04059,-4.22836,-0.00275,0.0206,-0.01724,-0.02319,-0.01358,-0.17487,0.01694
7.542,0.01297,-0.09918,-0.06622,0.01877,-0.03204,-0.04669,-0.0029,-0.04013,-4.73877,-0.00168,-0.00397,-0.0029,-0.02121,-0.0119,-0.23956,0.01373
7.5425,0.02396,-0.08575,-0.05859,-0.009,-0.03586,-0.047,-0.01465,-0.03662,-4.87595,-0.00397,-0.03555,0.00946,-0.02045,-0.0119,-0.29099,0.01022
7.543,0.03067,-0.07233,-0.05112,-0.01587,-0.03769,-0.04745,-0.00214,-0.02731,-4.69849,-0.01007,-0.06073,0.01495,-0.02411,-0.01633,-0.30212,0.00366
7.5435,0.0322,-0.06073,-0.04257,-0.0119,-0.04028,-0.04715,0.01251,-0.01785,-4.40231,-0.02167,-0.06607,0.01419,-0.03143,-0.0209,-0.2684,-0.00504
7.544,0.03159,-0.04929,-0.04013,-0.01556,-0.04211,-0.04807,0.00977,-0.01404,-4.20898,-0.03708,-0.07111,0.01892,-0.0386,-0.02213,-0.21332,-0.01434
7.5445,0.03082,-0.03647,-0.04242,-0.02655,-0.04532,-0.04944,-0.00824,-0.01556,-4.21616,-0.0531,-0.09567,0.03555,-0.04089,-0.01984,-0.14603,-0.02533
7.545,0.02914,-0.0267,-0.03662,-0.03357,-0.04639,-0.04822,-0.02518,-0.01633,-4.29413,-0.06897,-0.14297,0.05371,-0.04105,-0.02029,-0.05646,-0.03891
7.5455,0.02518,-0.0238,-0.01465,-0.0322,-0.04547,-0.04654,-0.03204,-0.0145,-4.21631,-0.08682,-0.17944,0.05127,-0.04044,-0.02335,0.0499,-0.05371
7.546,0.01663,-0.0325,0.02304,-0.02899,-0.04425,-0.04486,-0.03326,-0.0119,-3.91464,-0.10544,-0.17075,0.02411,-0.03815,-0.02472,0.16495,-0.06668
7.5465,0.00565,-0.05173,0.0676,-0.02899,-0.04593,-0.04532,-0.03265,-0.01053,-3.54111,-0.11536,-0.12009,-0.01114,-0.03448,-0.02121,0.30045,-0.07736
7.547,-0.0058,-0.07828,0.10742,-0.03052,-0.04837,-0.04807,-0.03098,-0.009,-3.2547,-0.10727,-0.0592,-0.0383,-0.03021,-0.01495,0.43335,-0.08667
7.5475,-0.01678,-0.10086,0.1329,-0.03159,-0.0502,-0.05127,-0.02747,-0.00687,-3.04459,-0.0827,-0.01373,-0.05844,-0.02655,-0.01129,0.47913,-0.09857
7.548,-0.02625,-0.112,0.13901,-0.03159,-0.04761,-0.05341,-0.02258,-0.00336,-2.83005,-0.05463,0.01404,-0.07385,-0.02518,-0.01022,0.39063,-0.10818
7.5485,-0.03296,-0.10712,0.12985,-0.03067,-0.04303,-0.05325,-0.01755,-0.00046,-2.60803,-0.03082,0.02792,-0.06897,-0.02609,-0.009,0.23773,-0.10986
7.549,-0.03403,-0.08987,0.10727,-0.02838,-0.03998,-0.05249,-0.01404,0.00183,-2.42722,-0.0145,0.02548,-0.03159,-0.02945,-0.00839,0.12863,-0.10269
7.5495,-0.0293,-0.06699,0.0647,-0.0238,-0.0351,-0.05127,-0.01404,0.00473,-2.2728,-0.00549,0.00702,0.01785,-0.03296,-0.00793,0.09155,-0.09415
7.55,-0.02686,-0.04181,-0.00137,-0.01923,-0.03281,-0.04959,-0.01602,0.00534,-2.08298,-0.00031,-0.01312,0.03479,-0.03357,-0.00641,0.07828,-0.09155
7.5505,-0.03265,-0.01831,-0.08301,-0.01923,-0.03052,-0.04852,-0.02045,0.00458,-1.85959,0.00092,-0.01541,0.00916,-0.03265,-0.00534,0.05142,-0.09247
7.551,-0.04181,-0.00031,-0.159,-0.02197,-0.02808,-0.04913,-0.02808,0.00275,-1.69006,0.00397,0.00336,-0.01343,-0.03036,-0.00519,0.01968,-0.09171
7.5515,-0.04669,0.009,-0.20874,-0.02228,-0.02609,-0.04959,-0.0354,-0.00153,-1.62903,0.01053,0.01785,0.00015,-0.02884,-0.00702,0.00381,-0.08987
7.552,-0.0441,0.01221,-0.21759,-0.01953,-0.02335,-0.04868,-0.03723,-0.00793,-1.63498,0.02319,-0.00504,0.02823,-0.02991,-0.00885,0.00656,-0.08896
7.5525,-0.03723,0.0119,-0.18784,-0.01648,-0.02197,-0.0473,-0.03189,-0.01114,-1.6391,0.03784,-0.07553,0.0325,-0.03021,-0.01099,0.0177,-0.08804
7.553,-0.02869,0.01144,-0.13641,-0.01404,-0.02213,-0.0444,-0.02701,-0.00931,-1.63757,0.04807,-0.16296,0.01221,-0.03021,-0.01205,0.02823,-0.08408
7.5535,-0.01907,0.01404,-0.08163,-0.0119,-0.0238,-0.0412,-0.03067,-0.00336,-1.70593,0.04166,-0.20721,-0.00641,-0.02716,-0.01755,0.02258,-0.07858
7.554,-0.00992,0.01801,-0.02991,-0.00931,-0.02548,-0.03769,-0.04135,0.00244,-1.90079,0.01785,-0.18448,-0.01358,-0.02701,-0.02731,0.00122,-0.07507
7.5545,0.00015,0.01968,0.009,-0.00702,-0.02686,-0.0351,-0.047,0.0061,-2.13181,-0.00946,-0.11139,-0.01694,-0.02884,-0.04181,-0.01724,-0.07339
7.555,0.01404,0.01678,0.02319,-0.00717,-0.02655,-0.03494,-0.03128,0.00931,-2.22183,-0.02655,-0.03204,-0.01877,-0.03067,-0.05417,-0.02945,-0.0708
7.5555,0.02792,0.00961,0.01465,-0.00732,-0.02701,-0.03632,-0.00168,0.01404,-2.12341,-0.03571,0.03159,-0.01694,-0.03174,-0.06104,-0.05707,-0.06653
7.556,0.03662,-0.00214,0.00397,-0.00732,-0.02563,-0.03876,0.01648,0.01953,-1.96945,-0.03754,0.0737,-0.01297,-0.03113,-0.06088,-0.09995,-0.06195
7.5565,0.03769,-0.01495,0.01083,-0.00641,-0.02487,-0.0412,0.0061,0.02533,-1.89804,-0.0325,0.09537,-0.01114,-0.03036,-0.0563,-0.1239,-0.05783
7.557,0.0354,-0.0174,0.02731,-0.0058,-0.02472,-0.04364,-0.01755,0.0325,-1.93085,-0.01953,0.0975,-0.00946,-0.03098,-0.04898,-0.08698,-0.05371
7.5575,0.03372,-0.00427,0.03647,-0.00595,-0.02533,-0.04486,-0.02747,0.04456,-2.05383,-0.0058,0.08942,-0.00549,-0.03113,-0.03738,0.01633,-0.0499
7.558,0.03235,0.00748,0.03555,-0.00748,-0.02533,-0.04471,-0.01053,0.05432,-2.25113,0.00275,0.0737,-0.00046,-0.02899,-0.02258,0.12726,-0.04593
7.5585,0.0293,0.00061,0.0354,-0.00946,-0.0264,-0.0444,0.02106,0.04364,-2.41882,0.00549,0.06592,0.00412,-0.02411,-0.00839,0.1503,-0.04211
7.559,0.02441,-0.01694,0.0354,-0.01038,-0.02823,-0.04684,0.04333,0.00885,-2.38312,0.00565,0.07217,0.00793,-0.02136,-0.00015,0.05325,-0.03738
7.5595,0.01831,-0.02625,0.02838,-0.00931,-0.03098,-0.0502,0.03494,-0.02945,-2.08786,0.00732,0.09598,0.01312,-0.02029,0.0,-0.07919,-0.03296
7.56,0.01205,-0.02502,0.0145,-0.00732,-0.03448,-0.05219,0.00031,-0.05188,-1.66153,0.01114,0.12405,0.02106,-0.0209,-0.00519,-0.14374,-0.03036
7.5605,0.00656,-0.02426,0.00336,-0.00458,-0.0351,-0.05173,-0.0296,-0.05951,-1.25336,0.01312,0.13626,0.02792,-0.0209,-0.01389,-0.12634,-0.02975
7.561,0.00275,-0.03082,-0.00183,-0.00244,-0.03677,-0.0499,-0.03098,-0.05722,-0.89218,0.0087,0.12115,0.03021,-0.01907,-0.02106,-0.07126,-0.02945
7.5615,0.00336,-0.0415,-0.00763,-0.00198,-0.03922,-0.05035,-0.0145,-0.04135,-0.56793,0.0,0.08011,0.0235,-0.01648,-0.02472,0.00107,-0.02869
7.562,0.00488,-0.05066,-0.01602,-0.00427,-0.04196,-0.05142,-0.00412,-0.01404,-0.34714,-0.01358,0.03021,0.0116,-0.01282,-0.02335,0.08072,-0.02853
7.5625,0.00305,-0.05569,-0.02319,-0.00656,-0.0444,-0.05127,-0.00748,0.00336,-0.3215,-0.02563,-0.01282,0.00153,-0.00931,-0.02075,0.12711,-0.02975
7.563,-0.00122,-0.05737,-0.02823,-0.00671,-0.0444,-0.05035,-0.01938,-0.01175,-0.42053,-0.03708,-0.04349,-0.0029,-0.00656,-0.01877,0.1088,-0.02945
7.5635,-0.00748,-0.05829,-0.03662,-0.0061,-0.04272,-0.04974,-0.03281,-0.05783,-0.37872,-0.04654,-0.05417,-0.00305,-0.0058,-0.01846,0.05722,-0.02838
7.564,-0.01236,-0.05859,-0.04852,-0.0058,-0.0415,-0.04898,-0.03693,-0.10773,-0.01328,-0.05646,-0.05707,-0.00275,-0.00824,-0.01755,0.01678,-0.02609
7.5645,-0.01663,-0.05753,-0.05493,-0.00534,-0.03815,-0.04837,-0.02548,-0.13031,0.54428,-0.06363,-0.07217,-0.00381,-0.01236,-0.01694,-0.00702,-0.02426
7.565,-0.01877,-0.05402,-0.05402,-0.00351,-0.03571,-0.047,-0.00458,-0.12512,1.03256,-0.06668,-0.11414,-0.00305,-0.01694,-0.01724,-0.02365,-0.02182
7.5655,-0.02029,-0.05005,-0.05173,-0.00198,-0.03372,-0.04639,0.00885,-0.09857,1.36688,-0.07278,-0.16205,-0.0032,-0.02197,-0.01923,-0.02991,-0.01999
7.566,-0.02121,-0.05081,-0.05524,-0.00107,-0.03296,-0.047,0.00534,-0.04547,1.63391,-0.08209,-0.16876,-0.00534,-0.02838,-0.02014,-0.02106,-0.01877
7.5665,-0.02502,-0.05417,-0.06226,-0.00153,-0.03082,-0.04868,-0.0119,0.02319,1.90521,-0.08652,-0.12299,-0.009,-0.03494,-0.01999,-0.0116,-0.0206
7.567,-0.03098,-0.05493,-0.06638,-0.00137,-0.02838,-0.05142,-0.0267,0.06653,2.17407,-0.07324,-0.0592,-0.01526,-0.03952,-0.01892,-0.01617,-0.02457
7.5675,-0.03799,-0.04959,-0.06409,-0.00229,-0.0293,-0.05234,-0.03036,0.0766,2.41531,-0.03967,-0.0145,-0.02182,-0.04303,-0.01923,-0.03052,-0.03052
7.568,-0.04471,-0.03586,-0.06409,-0.00412,-0.03159,-0.05127,-0.02457,0.09689,2.62054,0.00412,0.0032,-0.02548,-0.04837,-0.01999,-0.04242,-0.03677
7.5685,-0.04761,-0.01907,-0.07874,-0.00641,-0.03311,-0.04959,-0.01831,0.13046,2.78839,0.04486,0.009,-0.02243,-0.05402,-0.01999,-0.04639,-0.04349
7.569,-0.0473,-0.00717,-0.11353,-0.00992,-0.03342,-0.04837,-0.01556,0.11795,2.89505,0.07294,0.01114,-0.0116,-0.05661,-0.01846,-0.04349,-0.04807
7.5695,-0.04395,-0.00565,-0.15488,-0.01129,-0.0325,-0.04745,-0.01434,0.03891,2.91794,0.08194,0.00565,0.00153,-0.05264,-0.01663,-0.03983,-0.04913
7.57,-0.03647,-0.00931,-0.18295,-0.01022,-0.0293,-0.04517,-0.01282,-0.04974,2.90588,0.07095,-0.01389,0.01022,-0.04501,-0.01633,-0.03754,-0.04776
7.5705,-0.0235,-0.01099,-0.18784,-0.00778,-0.02502,-0.04288,-0.01312,-0.11398,2.9454,0.04913,-0.04044,0.0116,-0.03708,-0.01877,-0.03448,-0.04578
7.571,-0.0116,-0.01114,-0.17258,-0.00778,-0.02258,-0.0412,-0.01541,-0.19058,3.05649,0.0293,-0.05112,0.00977,-0.0325,-0.02075,-0.03159,-0.04318
7.5715,-0.00992,-0.01358,-0.14618,-0.00854,-0.02365,-0.04196,-0.0174,-0.298,3.18481,0.01419,-0.03845,0.01053,-0.02884,-0.02182,-0.03036,-0.04105
7.572,-0.01511,-0.01968,-0.11169,-0.00946,-0.02625,-0.04471,-0.01633,-0.32608,3.28171,-0.00198,-0.01541,0.01938,-0.02472,-0.02136,-0.02823,-0.03906
7.5725,-0.01801,-0.02289,-0.06638,-0.00977,-0.0296,-0.04868,-0.01205,-0.1152,3.33054,-0.02136,-0.00015,0.03448,-0.02075,-0.01984,-0.02533,-0.03769
7.573,-0.01144,-0.02121,-0.01907,-0.00946,-0.03235,-0.05096,-0.0058,0.28671,3.33221,-0.03922,0.01205,0.04395,-0.01831,-0.01862,-0.02106,-0.03754
7.5735,0.00259,-0.01968,0.00351,-0.00961,-0.03281,-0.04974,0.00305,0.56992,3.31482,-0.04654,0.02792,0.03662,-0.01755,-0.01633,-0.01892,-0.03662
7.574,0.01602,-0.02808,-0.01419,-0.00961,-0.03052,-0.04349,0.01297,0.50217,3.32581,-0.04501,0.04562,0.01801,-0.01602,-0.01251,-0.01877,-0.03647
7.5745,0.02213,-0.04364,-0.04364,-0.00961,-0.0267,-0.04089,0.01465,0.20813,3.36761,-0.04135,0.05569,0.00259,-0.01602,-0.00839,-0.01846,-0.03448
7.575,0.02228,-0.05829,-0.04364,-0.01114,-0.02441,-0.04272,-0.01297,-0.01343,3.37646,-0.04501,0.06271,-0.00275,-0.01953,-0.00366,-0.01587,-0.03098
7.5755,0.02014,-0.06851,-0.00961,-0.01328,-0.02426,-0.04639,-0.06317,-0.04669,3.30353,-0.05325,0.06851,-0.00351,-0.02686,-0.00198,-0.01343,-0.02548
7.576,0.01846,-0.0766,0.0267,-0.01678,-0.02563,-0.04761,-0.09216,0.01266,3.18756,-0.06302,0.06363,-0.00687,-0.03342,-0.0029,-0.01221,-0.01572
7.5765,0.01511,-0.08484,0.04547,-0.01892,-0.02457,-0.04517,-0.06958,0.07202,3.10669,-0.07034,0.03998,-0.00977,-0.03433,-0.00427,-0.01038,0.00198
7.577,0.01007,-0.09094,0.05356,-0.01938,-0.0238,-0.04379,-0.02579,0.11353,3.07953,-0.07782,0.00809,-0.00916,-0.03036,-0.00504,-0.00778,0.02228
7.5775,0.0061,-0.09186,0.06241,-0.01755,-0.02396,-0.04257,-0.00336,0.1268,3.04581,-0.08926,-0.01694,-0.00397,-0.02579,-0.00534,-0.00534,0.03418
7.578,0.00381,-0.09262,0.06699,-0.01465,-0.02411,-0.0412,-0.00549,0.08545,2.95319,-0.09369,-0.02411,0.00015,-0.02335,-0.00793,-0.00412,0.02304
7.5785,0.00458,-0.09628,0.06348,-0.01434,-0.02396,-0.03891,-0.00488,0.01312,2.83157,-0.08179,-0.01465,0.00122,-0.02518,-0.01221,-0.00504,-0.00366
7.579,0.00473,-0.10178,0.05386,-0.01678,-0.02365,-0.03708,0.01434,-0.02289,2.75024,-0.06042,0.00443,0.00153,-0.02838,-0.01556,-0.00458,-0.02579
7.5795,0.00763,-0.10437,0.04044,-0.0206,-0.02258,-0.03494,0.03601,-0.0029,2.71667,-0.04471,0.02975,0.00717,-0.03143,-0.01495,-0.00198,-0.03204
7.58,0.01053,-0.10193,0.0206,-0.02106,-0.0206,-0.0322,0.03159,0.02106,2.68707,-0.03769,0.05066,0.01419,-0.03342,-0.01236,0.00092,-0.0383
7.5805,0.01221,-0.09842,-0.00275,-0.01633,-0.01846,-0.0322,-0.00397,0.00031,2.63916,-0.03616,0.05325,0.01175,-0.03494,-0.01251,0.00198,-0.06149
7.581,0.00885,-0.09705,-0.01678,-0.01053,-0.0177,-0.03525,-0.03845,-0.04623,2.5766,-0.03601,0.03204,-0.00015,-0.03571,-0.01694,0.00305,-0.09094
7.5815,0.00488,-0.08987,-0.01205,-0.00656,-0.01846,-0.03922,-0.03616,-0.07187,2.50198,-0.03799,-0.00168,-0.01129,-0.03708,-0.02213,0.00412,-0.10162
7.582,0.00076,-0.07324,0.00458,-0.00641,-0.02014,-0.04318,-0.00534,-0.06577,2.41806,-0.04196,-0.03098,-0.01495,-0.0351,-0.02472,0.00565,-0.09003
7.5825,-0.00122,-0.05341,0.00931,-0.00916,-0.02167,-0.04654,0.01541,-0.04822,2.33566,-0.04776,-0.0441,-0.01373,-0.03464,-0.02335,0.0061,-0.07492
7.583,-0.0032,-0.04135,-0.00534,-0.00839,-0.02045,-0.04852,0.00671,-0.03952,2.26578,-0.04715,-0.04776,-0.01328,-0.03281,-0.01907,0.00687,-0.07309
7.5835,-0.00748,-0.03891,-0.02792,-0.00412,-0.01694,-0.05096,-0.01221,-0.04471,2.20718,-0.04379,-0.04761,-0.01175,-0.03082,-0.01511,0.00534,-0.07858
7.584,-0.01053,-0.03983,-0.0412,0.00061,-0.01663,-0.05432,-0.02304,-0.05707,2.13715,-0.03357,-0.04456,-0.00626,-0.02625,-0.01282,-0.00031,-0.08148
7.5845,-0.01022,-0.03937,-0.04501,0.00259,-0.01648,-0.05646,-0.03036,-0.06638,2.04117,-0.01877,-0.03372,0.00137,-0.02014,-0.01282,-0.01114,-0.08087
7.585,-0.00702,-0.03983,-0.0502,0.00427,-0.01877,-0.05661,-0.03906,-0.06973,1.94229,-0.00107,-0.01556,0.009,-0.01465,-0.0119,-0.02029,-0.07797
7.5855,-0.00549,-0.04044,-0.05905,0.00641,-0.02029,-0.05463,-0.04044,-0.07339,1.8782,0.00992,0.00076,0.01373,-0.01282,-0.00931,-0.02274,-0.07278
7.586,-0.00534,-0.04074,-0.06256,0.00809,-0.02167,-0.05295,-0.02808,-0.08057,1.85394,0.01205,0.01022,0.01434,-0.01266,-0.00504,-0.02075,-0.06363
7.5865,-0.00504,-0.04044,-0.05402,0.00809,-0.02167,-0.05234,-0.01099,-0.0882,1.84387,0.00961,0.0116,0.00977,-0.01389,0.00015,-0.02319,-0.05127
7.587,-0.00259,-0.04211,-0.0383,0.00534,-0.02289,-0.05386,-0.00305,-0.08026,1.82144,0.01129,0.0058,0.00351,-0.01816,0.0029,-0.03159,-0.04227
7.5875,-0.00275,-0.04562,-0.02625,0.00198,-0.02411,-0.05432,-0.00122,-0.0415,1.77444,0.01801,-0.00183,0.00229,-0.02533,0.00076,-0.02884,-0.03922
7.588,-0.0058,-0.05005,-0.02274,-0.00137,-0.0264,-0.0531,0.00076,0.01984,1.70456,0.02441,-0.00641,0.00671,-0.0325,-0.00641,0.00153,-0.04013
7.5885,-0.00488,-0.05402,-0.0267,-0.00397,-0.02853,-0.05157,-0.00031,0.06226,1.62064,0.02533,-0.01282,0.01343,-0.03723,-0.01648,0.03983,-0.04288
7.589,0.00381,-0.05417,-0.03235,-0.00717,-0.03159,-0.04944,-0.01068,0.04868,1.54449,0.01892,-0.02289,0.01999,-0.0412,-0.02655,0.03693,-0.04486
7.5895,0.01617,-0.04623,-0.0386,-0.01068,-0.03448,-0.04822,-0.02563,-0.01236,1.49689,0.01328,-0.03159,0.0264,-0.04364,-0.0325,-0.01038,-0.04623
7.59,0.0209,-0.02686,-0.04105,-0.0116,-0.03784,-0.04745,-0.03265,-0.07599,1.46957,0.00961,-0.02853,0.03433,-0.04395,-0.03296,-0.04608,-0.0473
7.5905,0.01373,-0.00229,-0.03952,-0.01175,-0.0415,-0.04608,-0.0293,-0.10498,1.42517,0.01053,-0.02045,0.04074,-0.0412,-0.02792,-0.03067,-0.04684
7.591,0.00031,0.01236,-0.03632,-0.0116,-0.04486,-0.04684,-0.02182,-0.09338,1.34369,0.01495,-0.01434,0.04593,-0.03647,-0.01984,0.01801,-0.04211
7.5915,-0.01175,0.01221,-0.03357,-0.01328,-0.04578,-0.04745,-0.01755,-0.05844,1.24481,0.01648,-0.00717,0.04593,-0.03189,-0.01343,0.05966,-0.03632
7.592,-0.01923,0.00061,-0.03052,-0.01389,-0.04639,-0.0473,-0.01587,-0.0267,1.15311,0.01266,0.00122,0.03281,-0.02975,-0.01205,0.0827,-0.03143
7.5925,-0.02487,-0.0119,-0.02701,-0.01251,-0.04639,-0.04761,-0.01251,-0.01068,1.05576,0.00229,0.00046,0.00381,-0.02853,-0.01511,0.08362,-0.02563
7.593,-0.03052,-0.02396,-0.02182,-0.00931,-0.04929,-0.04837,-0.00748,-0.00427,0.91461,-0.01129,-0.02151,-0.03296,-0.02762,-0.01862,0.05341,-0.0174
7.5935,-0.03769,-0.04074,-0.01892,-0.00763,-0.05173,-0.05188,-0.00732,-0.00153,0.73059,-0.02289,-0.05524,-0.06195,-0.02731,-0.01923,0.00107,-0.00534
7.594,-0.04349,-0.05798,-0.01953,-0.00793,-0.05524,-0.05798,-0.01511,-0.00351,0.55481,-0.02762,-0.07248,-0.07507,-0.0296,-0.0174,-0.03693,0.00427
7.5945,-0.04684,-0.06638,-0.02838,-0.00946,-0.05722,-0.05981,-0.02975,-0.00885,0.40451,-0.0235,-0.06042,-0.07858,-0.03418,-0.01526,-0.02167,0.0032
7.595,-0.04562,-0.06165,-0.04105,-0.01022,-0.05875,-0.06271,-0.04272,-0.01022,0.25024,-0.01358,-0.03189,-0.07965,-0.04044,-0.01511,0.0415,-0.00366
7.5955,-0.0441,-0.04929,-0.047,-0.01022,-0.05951,-0.06577,-0.04517,-0.00549,0.08514,-0.00687,-0.00824,-0.07507,-0.04623,-0.01633,0.09628,0.0
7.596,-0.04639,-0.03128,-0.04303,-0.01175,-0.05966,-0.06699,-0.03983,-0.00412,-0.07416,-0.0061,0.00732,-0.05859,-0.05142,-0.01663,0.09415,0.01984
7.5965,-0.05356,-0.00305,-0.03448,-0.01434,-0.05951,-0.06561,-0.04578,-0.01663,-0.22888,-0.01465,0.02014,-0.03082,-0.05585,-0.01511,0.03922,0.0322
7.597,-0.05783,0.03159,-0.03067,-0.01663,-0.05783,-0.06165,-0.07187,-0.04761,-0.38269,-0.02731,0.02747,0.00458,-0.06241,-0.01282,-0.01648,0.01678
7.5975,-0.0531,0.05188,-0.0383,-0.01801,-0.0563,-0.05524,-0.09155,-0.09125,-0.52444,-0.03601,0.02625,0.04379,-0.06729,-0.01236,-0.04486,-0.00885
7.598,-0.04166,0.04181,-0.05692,-0.0177,-0.05295,-0.0502,-0.06042,-0.13611,-0.6517,-0.0383,0.02319,0.0705,-0.06989,-0.01343,-0.06195,-0.01022
7.5985,-0.03006,0.01282,-0.07904,-0.01816,-0.04929,-0.04562,0.02213,-0.16388,-0.79117,-0.03738,0.01785,0.06149,-0.06973,-0.01434,-0.08499,0.01236
7.599,-0.02335,-0.01236,-0.09811,-0.01953,-0.04318,-0.0415,0.08759,-0.15915,-0.98114,-0.03754,-0.00031,0.0177,-0.06927,-0.01678,-0.1088,0.03174
7.5995,-0.01801,-0.02609,-0.11078,-0.01923,-0.03815,-0.03647,0.07843,-0.10178,-1.22803,-0.03799,-0.03433,-0.02487,-0.06775,-0.01999,-0.12589,0.03815
7.6,-0.00946,-0.03784,-0.1149,-0.01801,-0.03632,-0.03403,0.02472,0.02411,-1.48499,-0.03876,-0.07324,-0.03433,-0.06622,-0.02213,-0.13031,0.04578
7.6005,0.00076,-0.05478,-0.10757,-0.01556,-0.03357,-0.03647,-0.01343,0.1944,-1.68457,-0.03845,-0.09995,-0.01602,-0.06653,-0.02457,-0.09369,0.056
7.601,0.0087,-0.07263,-0.09094,-0.0148,-0.03098,-0.04059,-0.02777,0.31296,-1.80618,-0.03815,-0.12115,0.00198,-0.06683,-0.02747,0.00549,0.05585
7.6015,0.01266,-0.08499,-0.06989,-0.01404,-0.02823,-0.04471,-0.03662,0.29785,-1.88736,-0.03891,-0.14526,-0.00015,-0.06683,-0.02945,0.1181,0.04532
7.602,0.01343,-0.09033,-0.05295,-0.01389,-0.02441,-0.04547,-0.03479,0.18646,-1.96838,-0.04288,-0.16434,-0.01434,-0.06516,-0.03021,0.15503,0.04181
7.6025,0.01617,-0.0885,-0.04318,-0.01297,-0.02243,-0.04639,-0.00961,0.08469,-2.05154,-0.05524,-0.15915,-0.01938,-0.06287,-0.03082,0.11292,0.05157
7.603,0.02106,-0.07874,-0.03708,-0.01587,-0.01923,-0.0441,0.02319,0.03448,-2.11151,-0.07599,-0.13077,-0.00305,-0.06256,-0.03052,0.08575,0.05615
7.6035,0.0264,-0.06607,-0.0322,-0.02151,-0.01724,-0.04318,0.03815,-0.00061,-2.14035,-0.09277,-0.08713,0.02258,-0.06454,-0.0293,0.12054,0.03143
7.604,0.0267,-0.05798,-0.02426,-0.02594,-0.01663,-0.04318,0.0354,-0.04425,-2.15012,-0.09537,-0.03525,0.03204,-0.0676,-0.02838,0.14618,-0.02045
7.6045,0.01968,-0.05875,-0.0174,-0.02548,-0.0174,-0.04364,0.02747,-0.06073,-2.15775,-0.0853,0.01953,0.0145,-0.06973,-0.02777,0.09415,-0.0824
7.605,0.00992,-0.06317,-0.01617,-0.02136,-0.0177,-0.04471,0.01846,-0.02869,-2.16705,-0.06607,0.05768,-0.00656,-0.06943,-0.02716,0.0058,-0.14801
7.6055,0.00397,-0.0647,-0.02594,-0.01495,-0.01755,-0.04517,0.01984,0.00824,-2.16797,-0.04013,0.06851,0.00061,-0.06882,-0.0267,-0.04105,-0.21667
7.606,0.00153,-0.06149,-0.04242,-0.00946,-0.0177,-0.04562,0.04364,-0.00549,-2.14722,-0.00595,0.05951,0.03372,-0.07019,-0.0264,-0.03052,-0.27908
7.6065,0.00122,-0.0592,-0.05585,-0.00458,-0.01801,-0.04639,0.0679,-0.06088,-2.11029,0.03082,0.03494,0.0589,-0.07034,-0.0264,-0.00717,-0.30975
7.607,0.00061,-0.05829,-0.0589,-0.00198,-0.01709,-0.04608,0.05447,-0.10406,-2.07092,0.06195,-0.01053,0.05493,-0.06912,-0.02792,-0.00778,-0.30426
7.6075,-0.00015,-0.05814,-0.05234,-0.00092,-0.01801,-0.04639,0.00977,-0.103,-2.02927,0.08102,-0.06271,0.03372,-0.06592,-0.02731,-0.03326,-0.28381
7.608,-0.00046,-0.05478,-0.04532,0.0,-0.01801,-0.04669,-0.01953,-0.07202,-1.97342,0.08789,-0.08255,0.01495,-0.06165,-0.02502,-0.06149,-0.26825
7.6085,-0.00076,-0.0499,-0.04227,0.00076,-0.01709,-0.04715,-0.01465,-0.03708,-1.90491,0.08545,-0.05066,0.00641,-0.05661,-0.01968,-0.05569,-0.25482
7.609,-0.00092,-0.04562,-0.04471,0.00259,-0.01572,-0.04745,-0.00092,-0.01541,-1.82556,0.07446,0.00565,0.00488,-0.05081,-0.01419,0.00778,-0.22888
7.6095,0.00031,-0.04425,-0.04852,0.00183,-0.01419,-0.04822,-0.00107,-0.02182,-1.74042,0.05829,0.04227,0.00732,-0.04608,-0.01266,0.1059,-0.19028
7.61,0.00153,-0.04364,-0.04868,0.00107,-0.01358,-0.04578,-0.01144,-0.05798,-1.66107,0.0383,0.0441,0.00778,-0.04318,-0.01389,0.18173,-0.14801
7.6105,0.00198,-0.04272,-0.0441,0.00107,-0.01266,-0.04761,-0.01877,-0.08804,-1.5834,0.01511,0.02258,0.00153,-0.0412,-0.01633,0.18509,-0.11215
7.611,0.00168,-0.04089,-0.03586,0.00259,-0.01343,-0.04822,-0.02197,-0.05585,-1.49429,-0.00626,0.00092,-0.00977,-0.0386,-0.01556,0.12253,-0.08301
7.6115,0.00183,-0.03983,-0.02716,0.00473,-0.01205,-0.04776,-0.02762,0.04532,-1.38718,-0.01953,-0.0029,-0.02151,-0.03494,-0.01266,0.05112,-0.05493
7.612,0.00244,-0.03845,-0.02213,0.00381,-0.01114,-0.04684,-0.03632,0.13367,-1.25763,-0.02625,0.00931,-0.0267,-0.0293,-0.0119,0.0209,-0.02686
7.6125,0.00336,-0.03754,-0.02045,0.00076,-0.01144,-0.04593,-0.03937,0.11948,-1.1026,-0.0322,0.02411,-0.02716,-0.02487,-0.01221,0.02808,-0.00595
7.613,0.00473,-0.03815,-0.0206,-0.00229,-0.01129,-0.04395,-0.0322,0.01358,-0.93979,-0.03998,0.02258,-0.03036,-0.02228,-0.01419,0.03464,0.00015
7.6135,0.0058,-0.03891,-0.0209,-0.00275,-0.01282,-0.04349,-0.02335,-0.09674,-0.79712,-0.04379,0.00153,-0.04074,-0.02014,-0.01541,0.02014,-0.00397
7.614,0.00488,-0.03708,-0.02029,-0.00305,-0.01572,-0.04501,-0.02579,-0.14618,-0.68436,-0.04242,-0.0235,-0.05173,-0.01755,-0.0145,-0.00412,-0.01175
7.6145,0.00168,-0.03311,-0.01953,-0.00336,-0.02045,-0.04822,-0.04181,-0.11719,-0.58319,-0.03326,-0.03372,-0.05234,-0.01343,-0.01434,-0.02686,-0.01862
7.615,-0.00092,-0.02991,-0.01938,-0.00519,-0.02716,-0.05035,-0.06012,-0.01617,-0.47394,-0.01556,-0.03021,-0.03693,-0.01083,-0.01358,-0.04776,-0.02609
7.6155,-0.0029,-0.02914,-0.02045,-0.00916,-0.03494,-0.05157,-0.05615,0.11185,-0.35507,0.00854,-0.02716,-0.00122,-0.00854,-0.01282,-0.06454,-0.03555
7.616,-0.00351,-0.02914,-0.02197,-0.01251,-0.04364,-0.05005,-0.02167,0.18219,-0.23605,0.0296,-0.03815,0.04761,-0.00763,-0.01511,-0.07202,-0.04593
7.6165,-0.00473,-0.0293,-0.02182,-0.01419,-0.05096,-0.05035,0.0145,0.14679,-0.12436,0.03342,-0.06088,0.08591,-0.00595,-0.01984,-0.07141,-0.05478
7.617,-0.00565,-0.02899,-0.01953,-0.01373,-0.05692,-0.05371,0.01724,0.05753,-0.02731,0.01968,-0.08087,0.0882,-0.0058,-0.02365,-0.06531,-0.05768
7.6175,-0.00549,-0.02991,-0.01465,-0.01312,-0.06149,-0.05463,-0.0116,-0.00046,0.0441,0.00107,-0.0856,0.05478,-0.00549,-0.02335,-0.05203,-0.05356
7.618,-0.00595,-0.03098,-0.00854,-0.01221,-0.06165,-0.05386,-0.03616,-0.00244,0.10056,-0.00946,-0.08179,0.01007,-0.00656,-0.02289,-0.03876,-0.04486
7.6185,-0.00595,-0.03357,-0.00656,-0.01236,-0.0589,-0.05219,-0.02533,0.01663,0.25269,-0.0177,-0.09842,-0.02106,-0.00793,-0.02411,-0.03876,-0.03387
7.619,-0.00488,-0.03479,-0.00626,-0.01282,-0.05692,-0.05203,0.01266,0.0235,0.68741,-0.02731,-0.15152,-0.02808,-0.00793,-0.02533,-0.05539,-0.02365
7.6195,-0.00366,-0.03433,-0.00763,-0.01373,-0.05447,-0.05203,0.03311,0.01343,1.39847,-0.03479,-0.21561,-0.00488,-0.00702,-0.02396,-0.06989,-0.01602
7.62,-0.00122,-0.03098,-0.00854,-0.01343,-0.05066,-0.05264,-0.00061,-0.00641,1.99753,-0.03525,-0.23438,0.04593,-0.00534,-0.02121,-0.05783,-0.01144
7.6205,0.00015,-0.02869,-0.01114,-0.01282,-0.04959,-0.05249,-0.05997,-0.03174,2.07474,-0.0293,-0.17883,0.09491,-0.00488,-0.01923,-0.00443,-0.00977
7.621,-0.00031,-0.02975,-0.0145,-0.01205,-0.04959,-0.05356,-0.08286,-0.05356,1.69022,-0.02594,-0.07629,0.09659,-0.00412,-0.01984,0.07584,-0.00839
7.6215,-0.00259,-0.0293,-0.01755,-0.01251,-0.04944,-0.05447,-0.05554,-0.05692,1.25687,-0.02792,0.02701,0.04745,-0.00275,-0.02151,0.14038,-0.0058
7.622,-0.00473,-0.02853,-0.02029,-0.01434,-0.04852,-0.05371,-0.02396,-0.02838,1.00586,-0.02914,0.11093,-0.00336,-0.00122,-0.02319,0.15228,-0.00198
7.6225,-0.00549,-0.02747,-0.0235,-0.0174,-0.04745,-0.05249,-0.02335,0.01434,0.84946,-0.02411,0.16983,-0.02274,0.00076,-0.02487,0.1088,0.00153
7.623,-0.0058,-0.02792,-0.02792,-0.01816,-0.04623,-0.05173,-0.02914,0.03174,0.728,-0.01556,0.19058,-0.02502,0.00702,-0.02487,0.0354,0.00229
7.6235,-0.00687,-0.0296,-0.03265,-0.01862,-0.04517,-0.05081,-0.00351,0.01053,0.79498,-0.0087,0.17212,-0.03693,0.01526,-0.02396,-0.02777,-0.00015
7.624,-0.00946,-0.0322,-0.03555,-0.01846,-0.04608,-0.04929,0.03616,-0.0235,1.12427,-0.01114,0.13809,-0.05493,0.01999,-0.02502,-0.04501,-0.00122
7.6245,-0.01022,-0.03433,-0.03983,-0.0177,-0.04501,-0.04517,0.0351,-0.04501,1.42883,-0.02289,0.12131,-0.06195,0.01816,-0.02594,-0.01907,-0.00244
7.625,-0.00565,-0.0351,-0.04517,-0.01633,-0.04349,-0.04044,-0.01358,-0.04944,1.31973,-0.04074,0.11948,-0.06104,0.01312,-0.02487,0.00641,-0.00519
7.6255,0.00092,-0.03418,-0.05188,-0.01434,-0.04044,-0.03708,-0.05569,-0.0412,0.76019,-0.05463,0.11169,-0.06226,0.00839,-0.02243,0.01556,-0.0087
7.626,0.00549,-0.03403,-0.05249,-0.01297,-0.03876,-0.03647,-0.05188,-0.02136,0.07996,-0.05585,0.08743,-0.05966,0.00473,-0.02197,0.04944,-0.01083
7.6265,0.00565,-0.03479,-0.04532,-0.01312,-0.03586,-0.03723,-0.02228,-0.00168,-0.37979,-0.04929,0.05569,-0.04684,0.00076,-0.02518,0.11597,-0.009
7.627,0.00381,-0.03525,-0.03677,-0.01144,-0.03174,-0.03845,-0.00702,-0.01373,-0.56305,-0.04013,0.01633,-0.0322,-0.00473,-0.02899,0.14191,-0.00656
7.6275,0.00214,-0.03601,-0.03128,-0.01007,-0.02396,-0.04013,-0.01129,-0.06653,-0.7019,-0.02487,-0.02686,-0.02228,-0.01007,-0.02945,0.06866,-0.00824
7.628,0.00076,-0.03815,-0.02991,-0.01022,-0.01617,-0.04044,-0.01144,-0.13245,-1.01532,0.0,-0.05112,-0.01282,-0.01831,-0.02823,-0.04364,-0.01205
7.6285,-0.00092,-0.04074,-0.02991,-0.01129,-0.01221,-0.04364,0.0061,-0.1535,-1.3858,0.02716,-0.03464,0.00107,-0.02838,-0.02701,-0.09277,-0.01236
7.629,-0.00214,-0.04364,-0.03006,-0.01251,-0.01007,-0.04288,0.02396,-0.08667,-1.46912,0.04105,0.00626,0.0145,-0.0386,-0.02884,-0.06165,-0.00458
7.6295,-0.00183,-0.04272,-0.02914,-0.01251,-0.00854,-0.04242,0.0206,0.04059,-1.15707,0.03296,0.03937,0.01541,-0.04456,-0.03296,-0.01083,0.00381
7.63,-0.00061,-0.03952,-0.0293,-0.01282,-0.00595,-0.04227,0.00198,0.11993,-0.72769,0.01236,0.05402,0.00473,-0.04608,-0.03632,0.01999,0.00732
7.6305,0.00137,-0.0386,-0.02899,-0.01343,-0.00229,-0.04227,-0.01144,0.05768,-0.4837,-0.00732,0.05508,-0.00381,-0.04486,-0.03815,0.04837,-0.00305
7.631,0.0029,-0.03952,-0.02884,-0.01389,0.00015,-0.04288,-0.01312,-0.10101,-0.42831,-0.02228,0.05142,-0.00443,-0.03967,-0.03723,0.0856,-0.02457
7.6315,0.00214,-0.04028,-0.02716,-0.01419,0.00198,-0.0441,-0.0119,-0.18616,-0.40451,-0.03891,0.04013,-0.00153,-0.03235,-0.03357,0.09277,-0.0351
7.632,0.00153,-0.04089,-0.02579,-0.01511,0.00275,-0.04532,-0.01602,-0.06744,-0.37613,-0.0621,0.0238,-0.00214,-0.02518,-0.02884,0.04562,-0.00305
7.6325,0.00061,-0.03998,-0.02655,-0.01419,0.00244,-0.04745,-0.02182,0.17639,-0.41061,-0.08011,0.00641,-0.00015,-0.02014,-0.02441,0.00458,0.07965
7.633,0.00015,-0.03998,-0.02884,-0.01144,0.00031,-0.04852,-0.02289,0.32394,-0.50354,-0.08179,-0.00366,0.00717,-0.01877,-0.02182,0.01511,0.17715
7.6335,-0.00092,-0.04044,-0.03128,-0.00839,-0.00198,-0.05142,-0.02121,0.26352,-0.60043,-0.06821,-0.01282,0.01297,-0.02029,-0.02106,0.03601,0.23254
7.634,-0.00183,-0.0415,-0.03357,-0.00732,-0.0058,-0.05478,-0.01968,0.10513,-0.72815,-0.04822,-0.02472,0.01282,-0.02197,-0.02075,0.01526,0.21683
7.6345,-0.00153,-0.04303,-0.03479,-0.00717,-0.01205,-0.056,-0.02136,0.01617,-0.98373,-0.0264,-0.03708,0.01328,-0.02609,-0.02167,-0.03418,0.15549
7.635,-0.00137,-0.0444,-0.03586,-0.00809,-0.02167,-0.05844,-0.02396,0.02151,-1.42212,-0.00778,-0.04288,0.0174,-0.03113,-0.02228,-0.07019,0.10544
7.6355,-0.00137,-0.04623,-0.0351,-0.00809,-0.03418,-0.05676,-0.02472,0.04242,-1.97906,0.00443,-0.0351,0.02121,-0.0351,-0.02075,-0.08698,0.08011
7.636,-0.00153,-0.04715,-0.03448,-0.00931,-0.04623,-0.05676,-0.02243,0.02991,-2.50214,0.0058,-0.02441,0.01617,-0.03555,-0.01801,-0.09796,0.04654
7.6365,-0.00137,-0.04654,-0.03433,-0.01114,-0.05417,-0.05707,-0.0209,0.00534,-2.87689,-0.00351,-0.01556,0.0032,-0.03281,-0.0148,-0.0882,-0.00839
7.637,-0.0029,-0.0473,-0.03448,-0.01266,-0.06119,-0.05585,-0.02106,-0.00305,-3.08853,-0.01419,-0.01251,-0.00793,-0.02731,-0.01312,-0.0264,-0.04074
7.6375,-0.00458,-0.04761,-0.03403,-0.01205,-0.06622,-0.05386,-0.02167,0.0,-3.15567,-0.01953,-0.01801,-0.01221,-0.02258,-0.01297,0.08118,-0.00656
7.638,-0.00519,-0.0473,-0.03265,-0.01144,-0.07095,-0.05127,-0.01923,-0.00198,-3.0835,-0.0177,-0.0325,-0.01221,-0.02014,-0.01328,0.17838,0.07721
7.6385,-0.00473,-0.04547,-0.03281,-0.0116,-0.07462,-0.05005,-0.01663,-0.0119,-2.90192,-0.0177,-0.04974,-0.01144,-0.0206,-0.01465,0.21133,0.15564
7.639,-0.00488,-0.04517,-0.03342,-0.01236,-0.07294,-0.04837,-0.01633,-0.02121,-2.64969,-0.02701,-0.06744,-0.01114,-0.0235,-0.01633,0.17273,0.18173
7.6395,-0.00595,-0.04517,-0.03571,-0.01251,-0.06653,-0.04639,-0.01694,-0.02319,-2.34009,-0.03967,-0.07904,-0.0119,-0.02518,-0.01694,0.10284,0.14267
7.64,-0.00549,-0.04639,-0.03586,-0.01221,-0.06104,-0.04745,-0.01831,-0.02289,-1.99051,-0.04669,-0.07767,-0.0145,-0.02457,-0.01602,0.04013,0.08133
7.6405,-0.00534,-0.04745,-0.03342,-0.01282,-0.05692,-0.04745,-0.01846,-0.02182,-1.63406,-0.04852,-0.0737,-0.01648,-0.02396,-0.01511,-0.01144,0.05646
7.641,-0.00458,-0.04684,-0.03326,-0.01373,-0.05463,-0.04807,-0.01617,-0.01892,-1.2851,-0.0499,-0.09079,-0.01678,-0.0238,-0.01633,-0.06378,0.0592
7.6415,-0.00488,-0.04562,-0.03311,-0.01358,-0.05463,-0.04745,-0.0148,-0.01373,-0.94818,-0.05234,-0.14206,-0.01526,-0.02472,-0.01633,-0.10971,0.01114
7.642,-0.00488,-0.04547,-0.03265,-0.01236,-0.05478,-0.04654,-0.01801,-0.00885,-0.65033,-0.05005,-0.20248,-0.01419,-0.02548,-0.01587,-0.13565,-0.11856
7.6425,-0.00458,-0.04547,-0.03281,-0.01144,-0.05386,-0.04471,-0.02396,-0.01328,-0.43137,-0.04242,-0.20874,-0.01495,-0.0267,-0.01465,-0.12939,-0.26566
7.643,-0.00412,-0.04486,-0.03372,-0.01099,-0.04959,-0.04303,-0.02563,-0.02945,-0.30396,-0.03235,-0.14084,-0.01465,-0.02869,-0.01404,-0.08865,-0.35843
7.6435,-0.00443,-0.04333,-0.0351,-0.01221,-0.04196,-0.04242,-0.02274,-0.0499,-0.24857,-0.02502,-0.04074,-0.01129,-0.03067,-0.0148,-0.02502,-0.40466
7.644,-0.00443,-0.04364,-0.03586,-0.01205,-0.03296,-0.04364,-0.0177,-0.05859,-0.24536,-0.02121,0.03555,-0.00534,-0.03311,-0.01587,0.03082,-0.4512
7.6445,-0.00519,-0.04303,-0.03525,-0.0119,-0.02975,-0.04395,-0.01511,-0.04196,-0.28946,-0.02106,0.06607,-0.00092,-0.0351,-0.01709,0.05157,-0.50385
7.645,-0.00519,-0.04196,-0.03448,-0.0119,-0.02808,-0.04395,-0.01389,0.00214,-0.35507,-0.02151,0.07629,0.00168,-0.03616,-0.01816,0.03952,-0.52841
7.6455,-0.00443,-0.04059,-0.03418,-0.01236,-0.02625,-0.04196,-0.01221,0.04791,-0.36545,-0.02319,0.07645,0.00366,-0.03586,-0.01892,0.00351,-0.51086
7.646,-0.00351,-0.04059,-0.0351,-0.01297,-0.02136,-0.04242,-0.01007,0.05951,-0.25528,-0.02609,0.07339,0.00641,-0.03433,-0.01801,-0.06226,-0.46387
7.6465,-0.00351,-0.04105,-0.03403,-0.01144,-0.01419,-0.04395,-0.01038,0.03143,-0.08835,-0.0267,0.05569,0.00793,-0.03464,-0.0148,-0.15137,-0.40451
7.647,-0.00458,-0.04211,-0.03357,-0.00916,-0.00626,-0.04349,-0.01114,-0.00336,-0.03021,-0.02686,0.0238,0.00793,-0.03632,-0.01083,-0.22812,-0.33844
7.6475,-0.00565,-0.04272,-0.03403,-0.00793,0.00351,-0.04242,-0.01221,-0.01953,-0.15961,-0.02762,-0.00992,0.00641,-0.03952,-0.00961,-0.24689,-0.27008
7.648,-0.00534,-0.04211,-0.03433,-0.009,0.00809,-0.04181,-0.01221,-0.02228,-0.38391,-0.02655,-0.03662,0.00519,-0.04211,-0.01144,-0.18234,-0.20828
7.6485,-0.00519,-0.0412,-0.03586,-0.01099,0.00931,-0.04303,-0.01236,-0.02777,-0.57465,-0.02258,-0.03464,0.00626,-0.04456,-0.01175,-0.05402,-0.16083
7.649,-0.00519,-0.04059,-0.03632,-0.0119,0.00793,-0.04593,-0.01526,-0.03571,-0.64957,-0.01801,-0.01236,0.00778,-0.04593,-0.009,0.09125,-0.12619
7.6495,-0.00504,-0.0415,-0.03723,-0.01129,0.00443,-0.04868,-0.01938,-0.03647,-0.48157,-0.01953,0.01663,0.00854,-0.04623,-0.00488,0.2121,-0.10117
7.65,-0.00549,-0.04242,-0.03723,-0.00992,0.00015,-0.04944,-0.02182,-0.02792,0.07828,-0.02823,0.03494,0.0087,-0.04608,-0.00397,0.27863,-0.08316
7.6505,-0.0058,-0.04089,-0.03738,-0.009,-0.0032,-0.05188,-0.02121,-0.02228,1.01135,-0.03815,0.03754,0.00885,-0.04486,-0.00885,0.26337,-0.06775
7.651,-0.00565,-0.03815,-0.03525,-0.00778,-0.00656,-0.05188,-0.0177,-0.02335,2.07962,-0.04135,0.02823,0.0119,-0.04379,-0.0145,0.17838,-0.04868
7.6515,-0.00626,-0.03632,-0.03387,-0.00809,-0.01007,-0.05081,-0.01343,-0.02487,2.995,-0.04089,0.01129,0.02106,-0.04211,-0.0177,0.09064,-0.02686
7.652,-0.00748,-0.03738,-0.03372,-0.01038,-0.01358,-0.05127,-0.01007,-0.0238,3.61084,-0.04364,-0.01068,0.03784,-0.04013,-0.01831,0.05829,-0.00885
7.6525,-0.00748,-0.04059,-0.03433,-0.0119,-0.01862,-0.05066,-0.00381,-0.02289,3.96759,-0.04837,-0.04929,0.05234,-0.03754,-0.01694,0.06973,0.00305
7.653,-0.00626,-0.0412,-0.0354,-0.01328,-0.02731,-0.04913,0.00259,-0.02792,4.13467,-0.04578,-0.09216,0.05112,-0.03433,-0.01511,0.07446,0.00839
7.6535,-0.0061,-0.03967,-0.03799,-0.01312,-0.03479,-0.04745,0.00351,-0.03555,4.02161,-0.02808,-0.11658,0.03632,-0.03265,-0.01358,0.04807,0.00961
7.654,-0.00748,-0.03891,-0.03937,-0.0116,-0.0412,-0.04684,-0.00824,-0.03632,3.37921,0.0,-0.11368,0.01877,-0.03128,-0.01633,0.00946,0.00931
7.6545,-0.00778,-0.03967,-0.03876,-0.00763,-0.04517,-0.047,-0.0322,-0.02579,2.11304,0.02289,-0.1091,0.00885,-0.03159,-0.02258,-0.02533,0.01312
7.655,-0.0061,-0.04089,-0.03754,-0.00427,-0.04959,-0.04837,-0.05478,-0.00763,0.58548,0.02945,-0.10513,0.00305,-0.03281,-0.02869,-0.05417,0.02365
7.6555,-0.00488,-0.04074,-0.03616,-0.00275,-0.05173,-0.05112,-0.05951,0.01068,-0.56961,0.02106,-0.09369,-0.00473,-0.03494,-0.03128,-0.06851,0.03677
7.656,-0.00504,-0.03952,-0.03723,-0.00549,-0.05035,-0.05005,-0.03616,0.0235,-1.03531,0.0119,-0.05875,-0.01572,-0.0383,-0.03036,-0.03845,0.04395
7.6565,-0.00549,-0.03983,-0.03754,-0.00656,-0.04608,-0.04852,-0.00092,0.02747,-1.05331,0.01053,-0.00183,-0.02594,-0.04105,-0.02823,0.03586,0.04257
7.657,-0.00595,-0.04074,-0.03693,-0.00366,-0.04044,-0.04745,0.01801,0.02121,-1.03577,0.0119,0.05783,-0.03326,-0.04333,-0.02747,0.09277,0.04211
7.6575,-0.00687,-0.0412,-0.03555,-0.00076,-0.03693,-0.04578,0.01083,0.00763,-1.11282,0.00748,0.09171,-0.03357,-0.04623,-0.02655,0.08026,0.04517
7.658,-0.00763,-0.0412,-0.03571,-0.00092,-0.03647,-0.04532,-0.0058,-0.00824,-1.15891,-0.00229,0.0885,-0.02869,-0.04837,-0.0267,0.04349,0.04486
7.6585,-0.00916,-0.04028,-0.03708,-0.00336,-0.03418,-0.04425,-0.01389,-0.02487,-1.11984,-0.00946,0.07431,-0.02014,-0.04715,-0.02869,0.05295,0.03464
7.659,-0.00961,-0.04074,-0.03876,-0.00595,-0.03006,-0.04242,-0.01221,-0.04684,-1.10077,-0.01419,0.06485,-0.0058,-0.04288,-0.0322,0.0853,0.01862
7.6595,-0.00839,-0.0412,-0.03815,-0.0058,-0.02563,-0.03967,-0.01083,-0.07889,-1.1586,-0.0235,0.06058,0.0148,-0.03571,-0.03586,0.07828,0.00839
7.66,-0.00656,-0.0412,-0.03815,-0.00351,-0.02289,-0.03799,-0.01236,-0.11642,-1.20941,-0.03876,0.04684,0.03067,-0.02594,-0.03769,0.03922,0.0145
7.6605,-0.0058,-0.04181,-0.03662,-0.00168,-0.02228,-0.04196,-0.01434,-0.13962,-1.18134,-0.05341,0.03357,0.02808,-0.01511,-0.03616,0.0145,0.0354
7.661,-0.00656,-0.04257,-0.03632,-0.00031,-0.02457,-0.04761,-0.01282,-0.10788,-1.10962,-0.05768,0.03281,0.00961,-0.00687,-0.03235,0.0119,0.06012
7.6615,-0.0061,-0.04257,-0.03677,-0.00153,-0.03036,-0.05173,-0.01099,-0.00092,-1.04523,-0.0502,0.04883,-0.01099,-0.00778,-0.02808,-0.00015,0.07233
7.662,-0.00626,-0.04211,-0.03647,-0.00549,-0.03159,-0.05234,-0.00916,0.12421,-0.9906,-0.04044,0.06302,-0.02411,-0.01556,-0.02213,-0.02609,0.0618
7.6625,-0.00488,-0.04044,-0.03693,-0.01236,-0.03189,-0.0531,-0.00946,0.16983,-0.94208,-0.03128,0.05356,-0.03036,-0.0235,-0.01526,-0.03845,0.03677
7.663,-0.00443,-0.03845,-0.03799,-0.01892,-0.03448,-0.05341,-0.00946,0.11276,-0.90866,-0.0296,0.0354,-0.03326,-0.02792,-0.00916,-0.01923,0.01907
7.6635,-0.00534,-0.0386,-0.0383,-0.02365,-0.04181,-0.05157,-0.01007,0.02899,-0.8963,-0.03693,0.01328,-0.03479,-0.03128,-0.00687,0.01221,0.01968
7.664,-0.00565,-0.04074,-0.03876,-0.02701,-0.05051,-0.0473,-0.00977,-0.00854,-0.90225,-0.05997,-0.00671,-0.03357,-0.03464,-0.01038,0.0293,0.03143
7.6645,-0.0061,-0.04105,-0.03845,-0.02777,-0.05646,-0.04486,-0.00916,-0.0032,-0.90805,-0.0943,-0.02869,-0.02731,-0.03799,-0.01709,0.02335,0.04105
7.665,-0.00671,-0.03952,-0.03784,-0.02243,-0.05737,-0.04456,-0.00885,0.00473,-0.88928,-0.12161,-0.04791,-0.01541,-0.04242,-0.02228,0.00793,0.04822
7.6655,-0.00687,-0.03738,-0.03799,-0.00412,-0.05402,-0.04425,-0.01007,0.0032,-0.84106,-0.12436,-0.04944,-0.00168,-0.04776,-0.02289,-0.00702,0.05173
7.666,-0.00656,-0.03784,-0.03815,0.02533,-0.04898,-0.04227,-0.01053,0.00336,-0.78293,-0.10391,-0.04135,0.01053,-0.05173,-0.01968,-0.01465,0.04318
7.6665,-0.00549,-0.03998,-0.03754,0.04883,-0.04074,-0.0415,-0.01083,0.01068,-0.728,-0.07477,-0.02762,0.01556,-0.0502,-0.01221,-0.01511,0.02792
7.667,-0.00443,-0.04135,-0.03647,0.04349,-0.0296,-0.04135,-0.01099,0.01755,-0.67734,-0.04761,-0.02441,0.01495,-0.04684,-0.00565,-0.01251,0.03311
7.6675,-0.00305,-0.04059,-0.03571,0.00656,-0.01999,-0.04333,-0.01129,0.0174,-0.63477,-0.01846,-0.02945,0.01404,-0.04318,-0.00244,-0.01083,0.0647
7.668,-0.00229,-0.03876,-0.03601,-0.03677,-0.01129,-0.04501,-0.01144,0.01343,-0.60776,0.01068,-0.03586,0.01709,-0.04288,-0.00366,-0.01663,0.07889
7.6685,-0.00259,-0.03815,-0.03662,-0.05646,-0.0116,-0.04623,-0.01205,0.00885,-0.58731,0.03525,-0.03983,0.02243,-0.04456,-0.00778,-0.02884,0.03632
7.669,-0.0029,-0.03845,-0.03754,-0.04333,-0.01816,-0.04745,-0.01236,0.00504,-0.55267,0.05508,-0.04456,0.0293,-0.04379,-0.009,-0.03647,-0.04272
7.6695,-0.00381,-0.03876,-0.03677,-0.01511,-0.02563,-0.04807,-0.01297,0.00153,-0.49408,0.07294,-0.0383,0.03571,-0.04059,-0.00305,-0.03098,-0.09415
7.67,-0.00412,-0.0386,-0.03632,0.00793,-0.02869,-0.05005,-0.01389,-0.00076,-0.41763,0.09048,-0.02487,0.03677,-0.03555,0.00595,-0.01785,-0.08011
7.6705,-0.00458,-0.03815,-0.03677,0.01053,-0.02899,-0.05203,-0.01434,-0.00351,-0.34103,0.10559,-0.0032,0.02808,-0.03159,0.0148,-0.01205,-0.03418
7.671,-0.00336,-0.0383,-0.03616,-0.01343,-0.02411,-0.05249,-0.01419,-0.00519,-0.28137,0.112,0.00916,0.0177,-0.02762,0.01984,-0.01907,-0.02182
7.6715,-0.00229,-0.0386,-0.0351,-0.05188,-0.01999,-0.05264,-0.01312,-0.00656,-0.2478,0.10696,0.01328,0.00961,-0.02487,0.01938,-0.03708,-0.05966
7.672,-0.00198,-0.03967,-0.0351,-0.07675,-0.01572,-0.05295,-0.01312,-0.00671,-0.24155,0.08469,0.00992,0.00214,-0.02335,0.01358,-0.06989,-0.08743
7.6725,-0.00229,-0.03967,-0.03555,-0.06851,-0.01434,-0.05478,-0.01221,-0.00656,-0.24536,0.04623,0.01297,-0.00595,-0.02289,0.00427,-0.10834,-0.05341
7.673,-0.0029,-0.03769,-0.03571,-0.02869,-0.01678,-0.05768,-0.0119,-0.00595,-0.22537,0.00504,0.03006,-0.01236,-0.02396,-0.00549,-0.12497,0.01282
7.6735,-0.00366,-0.03677,-0.03647,0.02594,-0.02502,-0.05905,-0.01099,-0.00443,-0.15594,-0.02258,0.06012,-0.01205,-0.02686,-0.01556,-0.10101,0.03998
7.674,-0.00488,-0.03891,-0.03754,0.07095,-0.03754,-0.05981,-0.01007,-0.00198,-0.04868,-0.03159,0.06897,-0.00504,-0.03006,-0.0264,-0.05432,0.00534
7.6745,-0.00305,-0.04211,-0.03906,0.07675,-0.04898,-0.0589,-0.01007,0.00015,0.07172,-0.02991,0.04822,0.00153,-0.03113,-0.03494,-0.00824,-0.04807
7.675,-0.00137,-0.04349,-0.04028,0.02838,-0.05798,-0.05814,-0.01007,0.0,0.20172,-0.0267,0.01541,-0.00031,-0.02899,-0.03708,0.02548,-0.06866
7.6755,-0.00061,-0.04196,-0.0412,-0.05447,-0.06424,-0.05676,-0.01114,-0.00168,0.33813,-0.03036,-0.00702,-0.00885,-0.02655,-0.03204,0.03693,-0.0351
7.676,-0.00107,-0.04028,-0.03967,-0.13092,-0.06866,-0.05386,-0.01221,-0.00366,0.4686,-0.04059,-0.02686,-0.0148,-0.02731,-0.0238,0.00076,0.05066
7.6765,-0.00214,-0.03952,-0.03799,-0.18005,-0.07294,-0.05081,-0.01373,-0.00473,0.5925,-0.05051,-0.08606,-0.00946,-0.0296,-0.01648,-0.09247,0.16418
7.677,-0.00229,-0.03998,-0.03586,-0.21088,-0.07416,-0.04959,-0.01389,-0.0058,0.70831,-0.05432,-0.17944,0.00336,-0.03159,-0.01236,-0.19821,0.25757
7.6775,-0.0029,-0.03998,-0.0351,-0.22934,-0.07172,-0.04776,-0.01358,-0.00717,0.8017,-0.05066,-0.25803,0.01678,-0.03159,-0.01038,-0.25299,0.2919
7.678,-0.00504,-0.03967,-0.03403,-0.21301,-0.06454,-0.04456,-0.01343,-0.00809,0.87036,-0.04578,-0.26047,0.01862,-0.03281,-0.00931,-0.24048,0.2562
7.6785,-0.00565,-0.03922,-0.03357,-0.1413,-0.05371,-0.04013,-0.01373,-0.00702,0.93109,-0.04105,-0.19318,0.00549,-0.03708,-0.00793,-0.21545,0.1593
7.679,-0.00458,-0.0386,-0.03418,-0.04929,-0.04517,-0.03708,-0.01358,-0.0058,0.99014,-0.03616,-0.10971,-0.01419,-0.04089,-0.0058,-0.2037,0.04578
7.6795,-0.0029,-0.0383,-0.0354,0.00839,-0.03708,-0.03555,-0.01266,-0.00443,1.0347,-0.03845,-0.05905,-0.02747,-0.04166,-0.00336,-0.14557,-0.02457
7.68,-0.0029,-0.03754,-0.03326,0.03448,-0.03052,-0.03555,-0.01129,-0.0029,1.05927,-0.05447,-0.03876,-0.03021,-0.03983,-0.00168,0.03738,-0.0592
7.6805,-0.00488,-0.03662,-0.03281,0.08636,-0.02518,-0.03601,-0.00977,-0.00168,1.07193,-0.07828,-0.02899,-0.02975,-0.03891,-0.00397,0.29541,-0.13016
7.681,-0.00641,-0.03662,-0.03265,0.18661,-0.01923,-0.03479,-0.00916,-0.00015,1.07101,-0.08911,-0.01434,-0.02762,-0.04028,-0.01053,0.45151,-0.24658
7.6815,-0.00732,-0.03754,-0.03357,0.29449,-0.00702,-0.03372,-0.01038,0.00015,1.04446,-0.07675,0.00214,-0.02045,-0.04196,-0.01724,0.39673,-0.33081
7.682,-0.00671,-0.03922,-0.03326,0.35019,0.00565,-0.03342,-0.01297,0.00061,0.98755,-0.04456,0.01114,-0.00854,-0.04303,-0.01968,0.22202,-0.32516
7.6825,-0.00732,-0.04166,-0.03464,0.31876,0.02213,-0.03326,-0.01511,-0.00015,0.91156,0.00198,0.01572,0.00595,-0.04379,-0.0177,0.08224,-0.25864
7.683,-0.00885,-0.04318,-0.03586,0.22171,0.03799,-0.03357,-0.01541,-0.00076,0.83725,0.05524,0.01373,0.02029,-0.04425,-0.01678,0.0209,-0.17471
7.6835,-0.00931,-0.0444,-0.0354,0.12985,0.04837,-0.03571,-0.0148,-0.00244,0.7814,0.09689,0.00031,0.03021,-0.04456,-0.01892,-0.0267,-0.103
7.684,-0.00916,-0.04379,-0.03555,0.08545,0.04898,-0.0386,-0.01617,-0.00443,0.74219,0.112,-0.02304,0.03326,-0.04532,-0.02335,-0.10269,-0.0621
7.6845,-0.00839,-0.04288,-0.03632,0.05585,0.03967,-0.04395,-0.01877,-0.00717,0.69916,0.09933,-0.0264,0.03235,-0.04349,-0.02823,-0.16663,-0.05722
7.685,-0.00824,-0.04288,-0.03723,0.00031,0.02228,-0.04898,-0.02121,-0.01114,0.63568,0.0769,0.00549,0.0351,-0.03952,-0.03448,-0.18723,-0.06683
7.6855,-0.00763,-0.04333,-0.03906,-0.05249,0.0,-0.05112,-0.02289,-0.01404,0.55984,0.06042,0.05325,0.04181,-0.03403,-0.0383,-0.19791,-0.06104
7.686,-0.00595,-0.04257,-0.03967,-0.05859,-0.02304,-0.05341,-0.02319,-0.01541,0.49377,0.05051,0.07187,0.04166,-0.03113,-0.0351,-0.21759,-0.02884
7.6865,-0.00458,-0.04028,-0.0386,-0.0322,-0.04471,-0.05539,-0.02228,-0.01678,0.45685,0.04028,0.04913,0.0238,-0.03128,-0.02686,-0.16846,0.00763
7.687,-0.00351,-0.04028,-0.03799,-0.01831,-0.06531,-0.05615,-0.0206,-0.01678,0.45959,0.03067,0.01923,-0.00336,-0.03464,-0.01938,0.02274,0.00458
7.6875,-0.0032,-0.04059,-0.03632,-0.01907,-0.08301,-0.05768,-0.01862,-0.01358,0.50629,0.0264,0.00122,-0.01755,-0.03693,-0.01907,0.25238,-0.0296
7.688,-0.00351,-0.03952,-0.03448,0.00153,-0.09171,-0.0589,-0.01617,-0.00748,0.59982,0.02792,-0.01312,-0.00961,-0.03601,-0.02258,0.31418,-0.03464
7.6885,-0.00259,-0.0383,-0.0351,0.05417,-0.08972,-0.0592,-0.01495,-0.00244,0.71655,0.02655,-0.03311,0.00275,-0.03387,-0.02625,0.19562,0.00748
7.689,-0.00031,-0.03876,-0.03464,0.09079,-0.08331,-0.056,-0.01541,-0.00061,0.81329,0.01755,-0.04517,0.00458,-0.03326,-0.02792,0.12375,0.02914
7.6895,0.00183,-0.04028,-0.03403,0.05508,-0.08102,-0.05127,-0.01511,0.00031,0.86761,0.00214,-0.02563,-0.00061,-0.03464,-0.02655,0.20386,-0.0206
7.69,0.00198,-0.04257,-0.03418,-0.05051,-0.09232,-0.04807,-0.01266,0.00305,0.90317,-0.01663,0.01328,-0.00427,-0.03555,-0.02106,0.22949,-0.09827
7.6905,0.00168,-0.04272,-0.03525,-0.16632,-0.10574,-0.047,-0.01007,0.00778,0.94009,-0.0415,0.04044,-0.00549,-0.03357,-0.0087,0.03387,-0.15198
7.691,0.00092,-0.04105,-0.03357,-0.23743,-0.11398,-0.04639,-0.00885,0.00992,0.9642,-0.06531,0.04059,-0.00626,-0.02853,0.00656,-0.20996,-0.20889
7.6915,0.00076,-0.0383,-0.03265,-0.25436,-0.11612,-0.04318,-0.00992,0.00977,0.95352,-0.07553,0.03326,-0.00687,-0.02335,0.01816,-0.27557,-0.31662
7.692,0.00183,-0.0386,-0.03265,-0.23972,-0.10925,-0.04105,-0.01083,0.00763,0.90546,-0.06836,0.0351,-0.00427,-0.02106,0.02289,-0.22034,-0.45151
7.6925,0.00244,-0.03983,-0.0325,-0.22461,-0.09674,-0.04227,-0.01205,0.00595,0.83649,-0.05112,0.05234,-0.00076,-0.01907,0.01953,-0.19806,-0.54276
7.693,0.00183,-0.04044,-0.03342,-0.23407,-0.08133,-0.04654,-0.01434,0.00397,0.76645,-0.0322,0.06012,0.00168,-0.01556,0.01328,-0.18021,-0.55023
7.6935,-0.00015,-0.04074,-0.03372,-0.26596,-0.06653,-0.04898,-0.01709,-0.00015,0.70129,-0.01572,0.04776,0.00412,-0.01083,0.00702,-0.10117,-0.47791
7.694,-0.00198,-0.04105,-0.03525,-0.28656,-0.05432,-0.05173,-0.01968,-0.00687,0.63919,-0.00565,0.01709,0.00778,-0.0058,0.00229,-0.06561,-0.35049
7.6945,-0.00259,-0.04288,-0.03693,-0.25635,-0.04974,-0.05432,-0.02029,-0.0119,0.58075,-0.00458,-0.01923,0.0116,-0.0029,0.0,-0.17654,-0.2066
7.695,-0.0032,-0.04456,-0.03769,-0.17731,-0.0528,-0.05783,-0.02136,-0.01526,0.52399,-0.01053,-0.0473,0.01175,-0.00229,-0.00443,-0.32761,-0.08041
7.6955,-0.00259,-0.04456,-0.03723,-0.09308,-0.05783,-0.05981,-0.02243,-0.01617,0.46722,-0.01785,-0.06546,0.00763,-0.0061,-0.01236,-0.33615,0.02975
7.696,-0.00214,-0.0441,-0.03616,-0.03998,-0.06012,-0.05905,-0.02182,-0.0145,0.41672,-0.0238,-0.09186,0.00366,-0.0145,-0.02548,-0.13718,0.14282
7.6965,-0.00122,-0.0441,-0.03815,-0.00183,-0.05188,-0.05585,-0.0206,-0.01175,0.40848,-0.02991,-0.12924,0.00458,-0.02472,-0.04181,0.15961,0.24033
7.697,-0.00092,-0.0444,-0.03571,0.05264,-0.03952,-0.05417,-0.01877,-0.00824,0.51956,-0.03723,-0.16129,0.00748,-0.03311,-0.056,0.35355,0.29434
7.6975,-0.00046,-0.04486,-0.03586,0.11612,-0.0293,-0.05295,-0.0174,-0.00443,0.83633,-0.04242,-0.15915,0.00748,-0.03845,-0.06119,0.33401,0.30914
7.698,0.00061,-0.0444,-0.03479,0.14816,-0.02243,-0.05402,-0.0177,-0.00137,1.35635,-0.04303,-0.12375,0.00122,-0.04257,-0.05814,0.20279,0.29144
7.6985,0.00137,-0.04425,-0.03433,0.14999,-0.01923,-0.05493,-0.01862,-0.00092,1.91315,-0.04196,-0.09354,-0.00549,-0.04791,-0.05188,0.14893,0.22629
7.699,0.00137,-0.04517,-0.03418,0.17639,-0.01633,-0.05371,-0.01816,-0.00092,2.26166,-0.04166,-0.07584,-0.0087,-0.05432,-0.04456,0.21835,0.1358
7.6995,0.00122,-0.04547,-0.03296,0.2417,-0.0116,-0.05051,-0.01511,0.00061,2.29996,-0.04028,-0.03891,-0.00809,-0.0589,-0.03616,0.2919,0.08026
7.7,0.00168,-0.04379,-0.03311,0.271,-0.00793,-0.04715,-0.01221,0.00336,2.15057,-0.0351,0.03738,-0.00854,-0.05859,-0.02548,0.30045,0.05615
7.7005,0.00229,-0.04242,-0.03265,0.20615,-0.00397,-0.04578,-0.01251,0.00397,1.98807,-0.03036,0.11505,-0.01266,-0.05478,-0.01907,0.2919,0.00046
7.701,0.00244,-0.04181,-0.03357,0.09445,0.00046,-0.04333,-0.0145,0.00153,1.85257,-0.02914,0.14679,-0.01373,-0.05112,-0.01678,0.2977,-0.09506
7.7015,0.00244,-0.04135,-0.03372,0.01877,0.00534,-0.04013,-0.01633,-0.00168,1.69296,-0.03296,0.12283,-0.00977,-0.04913,-0.01755,0.28458,-0.18082
7.702,0.00259,-0.0412,-0.03357,-0.00275,0.01099,-0.03723,-0.01602,-0.00381,1.48972,-0.03662,0.07339,-0.0061,-0.04868,-0.01923,0.25421,-0.23468
7.7025,0.00244,-0.04135,-0.03387,-0.00595,0.01282,-0.03723,-0.01526,-0.00427,1.27594,-0.04196,0.02228,-0.0061,-0.04807,-0.0209,0.2388,-0.26108
7.703,0.00183,-0.04135,-0.03372,-0.01801,0.01068,-0.03983,-0.01526,-0.00381,1.0759,-0.05051,-0.01678,-0.00809,-0.04593,-0.02304,0.20569,-0.23285
7.7035,0.00168,-0.04196,-0.03281,-0.04761,0.00549,-0.04288,-0.01648,-0.00397,0.88638,-0.06317,-0.03265,-0.00824,-0.0441,-0.02426,0.09399,-0.11871
7.704,0.00153,-0.04349,-0.03265,-0.09567,0.00641,-0.04532,-0.0177,-0.00381,0.69458,-0.0798,-0.02243,-0.00717,-0.0441,-0.02487,-0.06424,0.05402
7.7045,0.00061,-0.04562,-0.03342,-0.13962,0.0087,-0.04822,-0.01694,-0.00336,0.49927,-0.09506,-0.00076,-0.00702,-0.04608,-0.02548,-0.16617,0.21347
7.705,-0.00092,-0.04822,-0.0351,-0.15747,0.01114,-0.05096,-0.01511,-0.00244,0.31708,-0.10361,0.01022,-0.00778,-0.04776,-0.02701,-0.1799,0.31799
7.7055,-0.00275,-0.04883,-0.03448,-0.14954,0.00839,-0.0531,-0.01434,-0.00153,0.15686,-0.1033,0.0029,-0.00641,-0.04745,-0.02716,-0.14572,0.36835
7.706,-0.00336,-0.04807,-0.03418,-0.13092,0.00488,-0.05386,-0.01419,-0.00244,0.00214,-0.09537,-0.00809,-0.0032,-0.04578,-0.02731,-0.0705,0.34409
7.7065,-0.0032,-0.04715,-0.03296,-0.09781,0.00351,-0.05249,-0.01541,-0.00473,-0.15869,-0.08606,-0.0148,0.00183,-0.04379,-0.02792,0.06546,0.20447
7.707,-0.0029,-0.04654,-0.0325,-0.04211,0.00534,-0.05096,-0.01678,-0.00732,-0.3186,-0.07339,-0.00977,0.00565,-0.04135,-0.02609,0.19897,-0.02243
7.7075,-0.0029,-0.04547,-0.03281,0.01053,0.00717,-0.0502,-0.01724,-0.00961,-0.46143,-0.05569,-0.00031,0.00885,-0.0386,-0.01892,0.20447,-0.21225
7.708,-0.00351,-0.04456,-0.03174,0.01831,0.0058,-0.05081,-0.01816,-0.01053,-0.58365,-0.03708,0.0119,0.01053,-0.03586,-0.00793,0.05554,-0.26382
7.7085,-0.00381,-0.04364,-0.03204,-0.02319,0.00107,-0.05127,-0.02075,-0.01343,-0.69397,-0.02151,0.01999,0.01099,-0.03479,0.00153,-0.1152,-0.23041
7.709,-0.00305,-0.04333,-0.03128,-0.06683,-0.009,-0.05081,-0.02213,-0.01465,-0.7933,-0.01633,0.02686,0.01099,-0.03387,0.00641,-0.13351,-0.26123
7.7095,-0.00153,-0.04272,-0.03006,-0.06195,-0.02151,-0.04913,-0.02045,-0.01221,-0.88181,-0.01953,0.03769,0.00946,-0.03098,0.0087,0.03494,-0.40955
7.71,-0.00046,-0.04303,-0.0296,0.0,-0.03464,-0.04791,-0.01694,-0.00595,-0.9642,-0.02747,0.0592,0.00778,-0.02731,0.009,0.25024,-0.56381
7.7105,-0.00015,-0.04364,-0.03098,0.07782,-0.04379,-0.04807,-0.01526,-0.0032,-1.04492,-0.03418,0.08591,0.00778,-0.02457,0.00809,0.34592,-0.60623
7.711,-0.00244,-0.04456,-0.0322,0.12482,-0.04852,-0.05112,-0.01602,-0.00183,-1.12091,-0.03601,0.09766,0.00702,-0.02487,0.00626,0.2507,-0.55115
7.7115,-0.00381,-0.04395,-0.03433,0.13,-0.05142,-0.05234,-0.01724,-0.00137,-1.18774,-0.03693,0.08133,0.0029,-0.02777,0.00443,0.02396,-0.46875
7.712,-0.00351,-0.04333,-0.0351,0.11078,-0.05478,-0.05173,-0.01785,-0.00122,-1.24756,-0.03891,0.04562,-0.00549,-0.03082,0.00046,-0.18539,-0.37598
7.7125,-0.00275,-0.04364,-0.03387,0.08575,-0.06149,-0.05066,-0.01694,-0.00305,-1.31104,-0.0322,0.0087,-0.01419,-0.0322,-0.00702,-0.26367,-0.26733
7.713,-0.00381,-0.04272,-0.03281,0.07233,-0.06775,-0.04898,-0.0148,-0.00534,-1.38947,-0.01434,-0.01648,-0.0174,-0.03204,-0.01434,-0.22797,-0.17075
7.7135,-0.00488,-0.04211,-0.03235,0.08011,-0.06866,-0.04852,-0.01358,-0.00488,-1.48163,0.01328,-0.03052,-0.01785,-0.03006,-0.01816,-0.1593,-0.12665
7.714,-0.0061,-0.04364,-0.03128,0.09781,-0.06424,-0.04715,-0.01389,-0.00259,-1.57639,0.03845,-0.0415,-0.01831,-0.02808,-0.01724,-0.10742,-0.14053
7.7145,-0.00656,-0.04608,-0.03113,0.09811,-0.05463,-0.04486,-0.01556,0.00015,-1.66809,0.04913,-0.06165,-0.01877,-0.0264,-0.01556,-0.09689,-0.18051
7.715,-0.00824,-0.04807,-0.03128,0.05402,-0.0444,-0.04333,-0.01678,0.00198,-1.75827,0.03876,-0.09232,-0.01343,-0.02533,-0.01617,-0.17761,-0.19302
7.7155,-0.009,-0.04837,-0.03021,-0.03082,-0.0325,-0.04349,-0.01678,0.00366,-1.84906,0.01556,-0.11871,-0.00198,-0.02518,-0.0235,-0.33249,-0.1384
7.716,-0.00931,-0.04761,-0.0296,-0.11734,-0.02686,-0.04486,-0.01648,0.00443,-1.95023,-0.00595,-0.12619,0.00824,-0.02655,-0.03571,-0.42572,-0.02655
7.7165,-0.01022,-0.04639,-0.03082,-0.16449,-0.0296,-0.04608,-0.01434,0.00504,-2.0871,-0.01755,-0.11276,0.0119,-0.02945,-0.04883,-0.32608,0.07462
7.717,-0.01221,-0.04532,-0.03204,-0.15656,-0.03265,-0.04547,-0.01205,0.00641,-2.28897,-0.02258,-0.0975,0.00916,-0.03113,-0.05524,-0.08194,0.10284
7.7175,-0.01297,-0.04486,-0.03159,-0.09079,-0.03082,-0.0441,-0.00931,0.00961,-2.55157,-0.02716,-0.1268,0.00809,-0.0325,-0.05524,0.11566,0.06332
7.718,-0.01236,-0.04486,-0.03128,0.02701,-0.02396,-0.04379,-0.00763,0.01221,-2.78992,-0.03418,-0.2356,0.00916,-0.03098,-0.05249,0.13138,0.01312
7.7185,-0.01099,-0.04593,-0.03082,0.15564,-0.01755,-0.04471,-0.00809,0.01266,-2.86331,-0.0383,-0.37872,0.01007,-0.02975,-0.05005,0.04883,-0.01511
7.719,-0.01053,-0.04623,-0.03067,0.22995,-0.01297,-0.04486,-0.00977,0.01114,-2.69272,-0.03601,-0.42679,0.00839,-0.03036,-0.04745,0.03326,-0.03265
7.7195,-0.01114,-0.04471,-0.03082,0.21988,-0.01144,-0.0444,-0.01099,0.00916,-2.36771,-0.02747,-0.31342,0.00778,-0.03113,-0.04349,0.13596,-0.04364
7.72,-0.01083,-0.04211,-0.02899,0.14999,-0.0145,-0.04547,-0.01205,0.0058,-2.06787,-0.01709,-0.11948,0.00809,-0.03067,-0.04089,0.24124,-0.01907
7.7205,-0.01053,-0.04059,-0.02686,0.05981,-0.01694,-0.0473,-0.01343,0.00305,-1.88477,-0.00717,0.03845,0.00854,-0.03021,-0.04089,0.2507,0.05356
7.721,-0.01083,-0.03998,-0.02716,-0.01999,-0.01816,-0.04776,-0.01358,0.00153,-1.77811,-0.00092,0.12634,0.00656,-0.0325,-0.03952,0.20142,0.13214
7.7215,-0.01144,-0.04028,-0.02762,-0.06943,-0.01678,-0.04623,-0.01389,0.00046,-1.67938,0.00549,0.17151,0.0061,-0.03632,-0.03082,0.16739,0.16022
7.722,-0.01221,-0.04013,-0.02853,-0.09369,-0.01785,-0.04517,-0.01465,-0.0032,-1.56693,0.01236,0.19562,0.0058,-0.03815,-0.01266,0.15259,0.1239
7.7225,-0.0116,-0.04013,-0.02808,-0.10971,-0.01923,-0.0444,-0.01587,-0.00854,-1.44791,0.01587,0.19409,0.00488,-0.03571,0.00839,0.15778,0.06149
7.723,-0.01129,-0.03967,-0.02945,-0.1236,-0.01968,-0.0441,-0.01694,-0.01022,-1.33224,0.01022,0.17487,0.00366,-0.03021,0.02487,0.21713,0.01465
7.7235,-0.0119,-0.04074,-0.03159,-0.12482,-0.0177,-0.04257,-0.01617,-0.00732,-1.22528,-0.00519,0.15213,0.00244,-0.02609,0.03326,0.30121,-0.00412
7.724,-0.01266,-0.04166,-0.03326,-0.11017,-0.01602,-0.04089,-0.01358,-0.00412,-1.11801,-0.02518,0.13229,0.00259,-0.02335,0.03494,0.31219,0.00244
7.7245,-0.01328,-0.04196,-0.03204,-0.09216,-0.01633,-0.04074,-0.01129,-0.00244,-1.00082,-0.0412,0.1088,0.0032,-0.02487,0.03006,0.21347,0.02945
7.725,-0.01312,-0.04059,-0.03113,-0.08499,-0.01785,-0.04059,-0.01175,-0.00381,-0.87952,-0.04745,0.08621,0.00305,-0.02655,0.01938,0.0769,0.06454
7.7255,-0.01221,-0.03799,-0.03265,-0.0856,-0.01953,-0.03906,-0.01266,-0.00458,-0.77591,-0.047,0.06577,0.00107,-0.02823,0.00183,-0.01389,0.09964
7.726,-0.01175,-0.03662,-0.03433,-0.08331,-0.02167,-0.03891,-0.01358,-0.00565,-0.70663,-0.04227,0.0528,-0.00122,-0.02869,-0.02014,-0.03754,0.13168
7.7265,-0.0119,-0.03815,-0.03326,-0.07324,-0.0264,-0.03983,-0.01282,-0.00626,-0.66589,-0.03616,0.04349,-0.00244,-0.02838,-0.04135,-0.03006,0.14999
7.727,-0.01297,-0.04089,-0.03082,-0.06165,-0.03021,-0.04181,-0.01328,-0.00504,-0.62561,-0.0296,0.03693,-0.00214,-0.02808,-0.0592,-0.04028,0.13443
7.7275,-0.01328,-0.04318,-0.03098,-0.056,-0.03464,-0.04303,-0.01434,-0.00549,-0.5658,-0.0235,0.02701,-0.00122,-0.02823,-0.07431,-0.11429,0.08835
7.728,-0.0116,-0.04288,-0.03235,-0.06058,-0.03525,-0.04364,-0.01328,-0.00626,-0.49591,-0.01785,0.01312,-0.00122,-0.02884,-0.0885,-0.2597,0.05569
7.7285,-0.00961,-0.0412,-0.03372,-0.07034,-0.03571,-0.04303,-0.01083,-0.00504,-0.44968,-0.01511,0.00107,-0.0032,-0.02899,-0.09995,-0.40894,0.06042
7.729,-0.00854,-0.0412,-0.03326,-0.06271,-0.03479,-0.04288,-0.01007,-0.00229,-0.45532,-0.01892,-0.00626,-0.00763,-0.02853,-0.10406,-0.46234,0.08224
7.7295,-0.009,-0.04166,-0.03174,-0.02457,-0.03387,-0.04272,-0.01114,-0.00015,-0.51117,-0.02258,-0.00977,-0.01144,-0.02914,-0.10361,-0.38391,0.09857
7.73,-0.0087,-0.04227,-0.02975,0.01724,-0.03372,-0.04379,-0.01129,0.00092,-0.54504,-0.01297,-0.0145,-0.01343,-0.03159,-0.10178,-0.21194,0.1149
7.7305,-0.00702,-0.04272,-0.03006,0.01511,-0.03326,-0.04517,-0.01022,0.00122,-0.46005,0.00961,-0.03021,-0.01129,-0.03616,-0.09689,-0.02548,0.14145
7.731,-0.00626,-0.04257,-0.02899,-0.02945,-0.03189,-0.04639,-0.01007,0.00076,-0.25909,0.0296,-0.07309,-0.00748,-0.03845,-0.08194,0.0769,0.16785
7.7315,-0.00732,-0.04227,-0.03082,-0.05386,-0.02945,-0.04547,-0.01053,0.00092,-0.04608,0.02838,-0.13687,-0.0061,-0.03799,-0.05905,0.05219,0.16708
7.732,-0.00854,-0.04211,-0.03143,-0.03006,-0.02731,-0.04395,-0.01099,0.00076,0.11322,0.01251,-0.1828,-0.00916,-0.03326,-0.03708,-0.00946,0.14557
7.7325,-0.00809,-0.0415,-0.03113,0.00977,-0.0264,-0.04272,-0.01129,0.00076,0.25085,-0.00198,-0.168,-0.01175,-0.03036,-0.0206,-0.00092,0.12833
7.733,-0.00717,-0.0415,-0.03067,0.02945,-0.02563,-0.04456,-0.01099,0.00122,0.40848,0.00031,-0.10025,-0.01175,-0.02625,-0.01007,0.05386,0.11978
7.7335,-0.00778,-0.04074,-0.03021,0.03586,-0.02472,-0.04593,-0.01144,0.00168,0.56351,0.01221,-0.02731,-0.01068,-0.02426,-0.00229,0.08804,0.09338
7.734,-0.00824,-0.04013,-0.03036,0.04745,-0.02533,-0.04623,-0.0116,0.00305,0.67581,0.02594,0.02197,-0.01083,-0.02533,0.00168,0.11078,0.03677
7.7345,-0.0087,-0.04059,-0.03082,0.05615,-0.02625,-0.04669,-0.01022,0.00336,0.7547,0.03326,0.04745,-0.0116,-0.02777,0.00351,0.12024,-0.02441
7.735,-0.00687,-0.03983,-0.03311,0.04456,-0.0264,-0.04868,-0.01099,0.00244,0.83755,0.03754,0.0592,-0.0116,-0.02991,0.00366,0.06378,-0.05371
7.7355,-0.0061,-0.03906,-0.03311,0.01953,-0.02716,-0.05051,-0.01129,0.00107,0.9317,0.03922,0.06119,-0.00931,-0.03143,0.00504,-0.03433,-0.04669
7.736,-0.00687,-0.03845,-0.03296,-0.00031,-0.02777,-0.04822,-0.01236,0.00092,1.00739,0.03311,0.0589,-0.00671,-0.03098,0.00992,-0.05417,-0.03082
7.7365,-0.00748,-0.03769,-0.0322,-0.00534,-0.02716,-0.04547,-0.01282,0.00168,1.05164,0.01999,0.05753,-0.00504,-0.02823,0.01709,0.00565,-0.02075
7.737,-0.00839,-0.03708,-0.03067,0.00458,-0.02579,-0.04608,-0.01373,0.00214,1.08505,0.00488,0.04944,-0.00519,-0.0235,0.02289,-0.01282,-0.01236
7.7375,-0.009,-0.03708,-0.03067,0.02243,-0.02335,-0.04807,-0.01389,0.00198,1.12823,-0.00473,0.03387,-0.00473,-0.01892,0.02533,-0.19424,-0.01755
7.738,-0.00916,-0.03891,-0.03098,0.03876,-0.02441,-0.04883,-0.01328,0.00198,1.17004,-0.00778,0.01663,-0.00443,-0.01648,0.0238,-0.41489,-0.05219
7.7385,-0.0087,-0.04013,-0.03174,0.04852,-0.02899,-0.04684,-0.01328,0.00214,1.19308,-0.00916,0.00641,-0.00397,-0.01816,0.01877,-0.51453,-0.0705
7.739,-0.00763,-0.03937,-0.0322,0.05264,-0.0322,-0.04364,-0.01312,0.00198,1.18179,-0.0119,-0.00046,-0.00549,-0.02319,0.01312,-0.47836,-0.0029
7.7395,-0.00748,-0.03754,-0.03128,0.05814,-0.03113,-0.04517,-0.01328,0.00076,1.12289,-0.02228,-0.00992,-0.00671,-0.02853,0.0087,-0.36636,0.14053
7.74,-0.00763,-0.03632,-0.02975,0.06561,-0.02808,-0.04639,-0.01373,-0.00061,1.01593,-0.03433,-0.02151,-0.00626,-0.03342,0.00626,-0.14145,0.22949
7.7405,-0.00778,-0.03723,-0.02838,0.07416,-0.0267,-0.04639,-0.01495,-0.00381,0.87677,-0.04105,-0.02914,-0.0058,-0.03677,0.00565,0.25742,0.15442
7.741,-0.00656,-0.03799,-0.02945,0.08148,-0.02686,-0.04623,-0.01587,-0.00641,0.71213,-0.0473,-0.02792,-0.00824,-0.03754,0.00534,0.65216,-0.03967
7.7415,-0.00519,-0.03784,-0.02914,0.08575,-0.0267,-0.04562,-0.0174,-0.00702,0.50568,-0.05096,-0.02197,-0.01343,-0.03891,0.0032,0.74234,-0.21057
7.742,-0.00488,-0.03784,-0.02853,0.0882,-0.02747,-0.04578,-0.01755,-0.00473,0.27466,-0.05905,-0.01572,-0.01587,-0.04013,-0.00336,0.52689,-0.28748
7.7425,-0.00641,-0.03876,-0.02686,0.08652,-0.0293,-0.04654,-0.01602,-0.00198,0.0856,-0.07797,-0.01236,-0.01511,-0.04196,-0.01266,0.30304,-0.31189
7.743,-0.00748,-0.03967,-0.02594,0.07217,-0.03159,-0.04669,-0.01282,0.00015,-0.02731,-0.09903,-0.01602,-0.01129,-0.04257,-0.01953,0.21271,-0.33264
7.7435,-0.00763,-0.03967,-0.02686,0.03555,-0.03174,-0.04822,-0.01099,0.00107,-0.10544,-0.11261,-0.0264,-0.00641,-0.04181,-0.02136,0.13077,-0.32318
7.744,-0.00839,-0.03983,-0.02838,-0.0061,-0.03235,-0.04852,-0.01236,0.00015,-0.18967,-0.11002,-0.0415,-0.00107,-0.04181,-0.01801,-0.02655,-0.242
7.7445,-0.00931,-0.03983,-0.02823,-0.02625,-0.03143,-0.04913,-0.01297,-0.00076,-0.25909,-0.10193,-0.05585,0.00381,-0.04135,-0.01511,-0.1355,-0.1358
7.745,-0.0087,-0.03937,-0.02899,-0.02136,-0.03128,-0.04868,-0.01389,-0.00168,-0.271,-0.09338,-0.06897,0.00443,-0.0412,-0.01434,-0.03876,-0.10147
7.7455,-0.00763,-0.03769,-0.02914,-0.02136,-0.03067,-0.04929,-0.01389,-0.00168,-0.2037,-0.08286,-0.09735,0.00076,-0.0412,-0.01526,0.21118,-0.15442
7.746,-0.00809,-0.03555,-0.02884,-0.05096,-0.02975,-0.0499,-0.01434,-0.00168,-0.08362,-0.0679,-0.14786,-0.00351,-0.03967,-0.01617,0.3775,-0.20065
7.7465,-0.00977,-0.03357,-0.02747,-0.10742,-0.02991,-0.05081,-0.01526,-0.00381,0.03006,-0.05295,-0.17899,-0.00473,-0.03738,-0.01495,0.32043,-0.15198
7.747,-0.0087,-0.03159,-0.02701,-0.16891,-0.03021,-0.05127,-0.01663,-0.00854,0.11337,-0.04486,-0.14038,-0.00397,-0.03525,-0.01114,0.15442,-0.03387
7.7475,-0.00671,-0.03067,-0.02686,-0.22034,-0.03052,-0.05127,-0.01816,-0.01175,0.19836,-0.04501,-0.04028,-0.00412,-0.03342,-0.00427,0.07568,0.04944
7.748,-0.00504,-0.03113,-0.02792,-0.25513,-0.02975,-0.05142,-0.01984,-0.01129,0.31464,-0.03738,0.0592,-0.00839,-0.03265,0.00061,0.121,0.04044
7.7485,-0.00427,-0.0322,-0.02869,-0.27069,-0.03052,-0.04929,-0.01816,-0.00977,0.45364,-0.01495,0.12054,-0.01343,-0.03433,0.00214,0.15839,-0.01038
7.749,-0.00534,-0.03296,-0.02838,-0.26672,-0.03128,-0.04715,-0.01572,-0.00824,0.58075,0.00412,0.14969,-0.01312,-0.03754,-0.00031,0.08789,-0.02228
7.7495,-0.00549,-0.03281,-0.02914,-0.24261,-0.03113,-0.04807,-0.01389,-0.00687,0.66391,0.01343,0.15869,-0.00656,-0.04105,-0.00397,-0.03937,0.02151
7.75,-0.00458,-0.03052,-0.02914,-0.18265,-0.03067,-0.04883,-0.01266,-0.00473,0.71671,0.00504,0.14145,-0.00031,-0.04089,-0.00824,-0.13901,0.07858
7.7505,-0.00412,-0.02792,-0.03006,-0.0676,-0.02975,-0.04944,-0.01282,-0.0029,0.82336,-0.0061,0.0972,0.00183,-0.03967,-0.01236,-0.22034,0.10162
7.751,-0.00443,-0.02884,-0.03128,0.08865,-0.02914,-0.04868,-0.01175,-0.00168,1.06598,-0.00946,0.04654,0.00412,-0.03891,-0.01434,-0.28625,0.07919
7.7515,-0.00412,-0.03098,-0.03204,0.2124,-0.02823,-0.04745,-0.01129,-0.00076,1.40656,0.00488,0.00565,0.00961,-0.03708,-0.0145,-0.23987,0.02411
7.752,-0.00381,-0.03357,-0.03174,0.21301,-0.02792,-0.04578,-0.0119,0.00015,1.81732,0.02823,-0.02914,0.0145,-0.03632,-0.0148,-0.03784,-0.03723
7.7525,-0.00275,-0.0351,-0.03098,0.08835,-0.02945,-0.04639,-0.01282,0.00015,2.5177,0.0473,-0.06485,0.01511,-0.0354,-0.01511,0.19119,-0.07721
7.753,-0.00092,-0.03525,-0.03159,-0.05737,-0.03113,-0.05005,-0.01282,0.00015,3.6467,0.04929,-0.0946,0.01495,-0.03403,-0.01358,0.26688,-0.09171
7.7535,-0.00015,-0.03586,-0.03342,-0.12039,-0.03235,-0.05081,-0.01251,-0.00107,4.71909,0.03357,-0.10895,0.01678,-0.0322,-0.01068,0.13718,-0.09323
7.754,-0.00046,-0.0383,-0.03357,-0.07751,-0.0322,-0.04974,-0.01343,-0.00443,4.99985,0.01801,-0.10406,0.01877,-0.03021,-0.00839,-0.07294,-0.08545
7.7545,-0.00092,-0.04166,-0.03494,0.02182,-0.03113,-0.047,-0.01556,-0.0087,4.5256,0.00595,-0.08286,0.01678,-0.02945,-0.0087,-0.177,-0.06882
7.755,-0.00122,-0.04517,-0.03632,0.0975,-0.0296,-0.04517,-0.01648,-0.01099,3.77899,-0.00229,-0.05859,0.01144,-0.0293,-0.01175,-0.09796,-0.04959
7.7555,-0.00137,-0.04639,-0.03754,0.09888,-0.0293,-0.04547,-0.01511,-0.01038,3.30719,-0.00122,-0.04379,0.00549,-0.0293,-0.0148,0.06577,-0.04791
7.756,-0.00153,-0.04562,-0.03891,0.05997,-0.03113,-0.04715,-0.01328,-0.00931,3.07159,0.00717,-0.03967,0.00107,-0.02808,-0.01617,0.14999,-0.07645
7.7565,-0.00061,-0.04501,-0.04013,0.06012,-0.03235,-0.04776,-0.01266,-0.00839,2.72919,0.02808,-0.03891,-0.00122,-0.02655,-0.01511,0.10345,-0.12802
7.757,0.00122,-0.04486,-0.04028,0.11658,-0.03372,-0.047,-0.01358,-0.00961,2.13837,0.04807,-0.03677,0.0,-0.02579,-0.01205,0.01572,-0.17487
7.7575,0.00397,-0.04486,-0.0415,0.16083,-0.03494,-0.04532,-0.01511,-0.01129,1.52527,0.06027,-0.03387,0.00488,-0.02701,-0.00809,-0.01816,-0.17349
7.758,0.00488,-0.04578,-0.0441,0.14206,-0.03418,-0.04471,-0.01663,-0.01114,1.18301,0.06058,-0.0325,0.01007,-0.0293,-0.00076,-0.0119,-0.10529
7.7585,0.00549,-0.04654,-0.04623,0.08759,-0.03342,-0.04272,-0.01602,-0.01007,1.09726,0.05234,-0.03189,0.0119,-0.03006,0.01389,-0.05569,-0.01862
7.759,0.00763,-0.04791,-0.04562,0.04379,-0.03265,-0.04272,-0.01572,-0.01038,0.99915,0.03845,-0.0235,0.00977,-0.0296,0.03555,-0.18524,-0.00122
7.7595,0.00992,-0.04745,-0.04272,0.0145,-0.03265,-0.04486,-0.0148,-0.01251,0.67505,0.02609,-0.00626,0.00504,-0.02884,0.05234,-0.33249,-0.08026
7.76,0.01114,-0.04395,-0.03967,-0.0148,-0.03342,-0.04593,-0.01541,-0.01434,0.00961,0.01343,0.00839,0.00412,-0.03067,0.05478,-0.40375,-0.1857
7.7605,0.00931,-0.03906,-0.03906,-0.04791,-0.03403,-0.04639,-0.01572,-0.01633,-1.02768,0.01022,0.01099,0.00641,-0.03235,0.04761,-0.37033,-0.22369
7.761,0.00732,-0.03433,-0.03845,-0.07523,-0.03372,-0.04593,-0.01572,-0.01541,-2.10419,0.00778,0.00488,0.00824,-0.03326,0.03906,-0.26062,-0.15274
7.7615,0.00656,-0.03159,-0.03784,-0.09186,-0.03372,-0.0444,-0.01328,-0.01114,-2.5769,0.00336,0.00107,0.00778,-0.03326,0.02823,-0.13,-0.01633
7.762,0.00443,-0.03143,-0.03723,-0.08942,-0.03357,-0.04333,-0.00992,-0.00595,-2.16827,-0.00229,-0.00168,0.00626,-0.03433,0.00641,-0.04776,0.06821
7.7625,0.00076,-0.03067,-0.03815,-0.05859,-0.03311,-0.0415,-0.00778,-0.00137,-1.30508,-0.00946,-0.01556,0.00565,-0.03571,-0.02487,-0.03784,0.00183
7.763,-0.0032,-0.02914,-0.03708,-0.0119,-0.03464,-0.04349,-0.00717,0.00061,-0.5809,-0.01968,-0.04395,0.00656,-0.03632,-0.05737,-0.05371,-0.16907
7.7635,-0.00565,-0.02731,-0.03723,0.03113,-0.03571,-0.04532,-0.00732,0.00153,-0.27115,-0.02792,-0.06927,0.00671,-0.03464,-0.08408,-0.02975,-0.25726
7.764,-0.00778,-0.02655,-0.0383,0.06317,-0.03586,-0.04608,-0.00732,0.00168,-0.4425,-0.03494,-0.06821,0.00626,-0.03479,-0.10452,0.03967,-0.12024
7.7645,-0.00931,-0.02808,-0.03891,0.07797,-0.03464,-0.04547,-0.00717,0.00015,-1.0083,-0.04364,-0.04074,0.00504,-0.0351,-0.1239,0.09857,0.15884
7.765,-0.01114,-0.02869,-0.04013,0.06485,-0.03326,-0.04456,-0.00854,-0.00183,-1.56342,-0.05569,-0.01556,0.00504,-0.03464,-0.13824,0.07248,0.35095
7.7655,-0.0119,-0.0296,-0.04471,0.0174,-0.03311,-0.04578,-0.01083,-0.00504,-1.68488,-0.07202,-0.01358,0.00656,-0.03464,-0.14252,-0.05859,0.32333
7.766,-0.01236,-0.03098,-0.05157,-0.04471,-0.03403,-0.04761,-0.01328,-0.00778,-1.44012,-0.08026,-0.02426,0.00641,-0.0354,-0.13245,-0.21454,0.14282
7.7665,-0.0119,-0.03235,-0.05524,-0.09537,-0.03647,-0.04684,-0.01572,-0.01007,-1.23764,-0.08026,-0.02319,0.00046,-0.03601,-0.11185,-0.24734,-0.04395
7.767,-0.0119,-0.03296,-0.05432,-0.12085,-0.03647,-0.04608,-0.01633,-0.01251,-1.25168,-0.07858,-0.00778,-0.00687,-0.03525,-0.08347,-0.0592,-0.15274
7.7675,-0.0116,-0.03159,-0.05234,-0.11963,-0.03632,-0.04715,-0.01709,-0.01465,-1.31134,-0.07599,0.00809,-0.00732,-0.03143,-0.05432,0.26215,-0.18204
7.768,-0.01205,-0.03067,-0.05157,-0.10147,-0.03571,-0.04898,-0.01801,-0.01434,-1.26709,-0.07141,0.01678,-0.00137,-0.02792,-0.03433,0.43701,-0.15579
7.7685,-0.01144,-0.03143,-0.05692,-0.07553,-0.0351,-0.05051,-0.01724,-0.0119,-1.17676,-0.06638,0.02045,0.00626,-0.02518,-0.02472,0.29144,-0.10483
7.769,-0.01129,-0.03448,-0.07095,-0.03708,-0.03647,-0.05173,-0.01556,-0.00992,-1.13144,-0.0676,0.01968,0.00778,-0.02594,-0.02151,0.00473,-0.05707
7.7695,-0.01129,-0.03586,-0.09048,0.01007,-0.03662,-0.05157,-0.0145,-0.00931,-1.11099,-0.07568,0.01007,0.00641,-0.02502,-0.0177,-0.10132,-0.02838
7.77,-0.01129,-0.0351,-0.10971,0.04791,-0.03754,-0.04959,-0.01297,-0.00931,-1.0672,-0.08621,-0.00549,0.0061,-0.0235,-0.01251,0.04684,-0.01968
7.7705,-0.01266,-0.03418,-0.12222,0.04837,-0.03708,-0.04837,-0.01358,-0.009,-1.01044,-0.08102,-0.02518,0.00839,-0.02151,-0.00748,0.23636,-0.02838
7.771,-0.01373,-0.03265,-0.12299,0.01144,-0.03738,-0.04639,-0.01343,-0.00778,-0.95947,-0.06424,-0.04196,0.01053,-0.02151,-0.00488,0.26245,-0.04837
7.7715,-0.01602,-0.0322,-0.11276,-0.03143,-0.03708,-0.04837,-0.01343,-0.00519,-0.90759,-0.0444,-0.04456,0.01175,-0.02136,-0.00397,0.14359,-0.07095
7.772,-0.01663,-0.03281,-0.09201,-0.04852,-0.03723,-0.04959,-0.01205,-0.00336,-0.84549,-0.03784,-0.02625,0.01205,-0.02136,-0.00351,0.04517,-0.08347
7.7725,-0.01434,-0.03571,-0.06073,-0.03571,-0.03845,-0.05066,-0.01068,-0.00198,-0.77377,-0.03784,-0.00168,0.01068,-0.02136,-0.00229,0.05508,-0.08148
7.773,-0.01068,-0.03952,-0.02289,-0.01251,-0.0383,-0.04852,-0.01038,-0.00137,-0.69473,-0.03265,0.00916,0.00824,-0.0209,0.00031,0.10727,-0.06439
7.7735,-0.00778,-0.0415,0.01709,-0.00183,-0.03708,-0.04791,-0.01114,-0.00168,-0.6189,-0.01495,-0.00183,0.00595,-0.0206,0.00336,0.11185,-0.03937
7.774,-0.00595,-0.03998,0.0502,-0.0116,-0.03677,-0.04852,-0.01144,-0.00122,-0.55695,0.00793,-0.02518,0.00473,-0.02121,0.00351,0.06714,-0.01617
7.7745,-0.00458,-0.03769,0.07156,-0.04364,-0.03525,-0.04868,-0.00961,-0.00061,-0.504,0.02563,-0.04379,0.00534,-0.02258,0.0029,0.02731,-0.0032
7.775,-0.00412,-0.0354,0.07904,-0.0914,-0.03479,-0.0499,-0.00854,-0.00015,-0.44708,0.03067,-0.04913,0.00717,-0.02487,0.00229,0.01572,-0.00504
7.7755,-0.00565,-0.03342,0.07706,-0.12375,-0.03525,-0.04974,-0.00854,-0.00122,-0.38574,0.02991,-0.04562,0.00824,-0.02502,0.00198,0.01495,-0.01526
7.776,-0.00687,-0.03021,0.06805,-0.11017,-0.03571,-0.04974,-0.01007,-0.00275,-0.3241,0.0264,-0.04425,0.00717,-0.02472,0.00229,0.00473,-0.0238
7.7765,-0.0058,-0.02777,0.05447,-0.05951,-0.03433,-0.04929,-0.01129,-0.0029,-0.26154,0.02609,-0.05722,0.00458,-0.02518,0.00336,-0.01785,-0.02533
7.777,-0.00458,-0.02594,0.03616,-0.00793,-0.03372,-0.05051,-0.01205,-0.00397,-0.19485,0.02716,-0.09354,0.00351,-0.0235,0.00534,-0.03952,-0.01907
7.7775,-0.0029,-0.02548,0.0177,0.02335,-0.03204,-0.05051,-0.0116,-0.00473,-0.12634,0.03342,-0.14999,0.00427,-0.0209,0.00671,-0.03601,-0.0177
7.778,-0.00168,-0.02487,0.00122,0.03906,-0.03143,-0.05188,-0.01266,-0.0061,-0.06699,0.03815,-0.19638,0.00595,-0.01801,0.00504,0.00046,-0.02762
7.7785,-0.00015,-0.02625,-0.01266,0.04364,-0.03204,-0.04913,-0.01221,-0.00565,-0.02136,0.03601,-0.19073,0.00549,-0.01709,-0.00092,0.04059,-0.03799
7.779,0.00061,-0.0293,-0.02472,0.03098,-0.03265,-0.04883,-0.01083,-0.00351,0.01648,0.01663,-0.12283,0.00259,-0.01648,-0.00946,0.04395,-0.03128
7.7795,0.00107,-0.03357,-0.03357,-0.00549,-0.03235,-0.04654,-0.00885,0.00015,0.05234,-0.02075,-0.02701,0.00076,-0.0177,-0.01633,0.02029,-0.00992
7.78,0.00137,-0.03662,-0.04074,-0.05142,-0.03174,-0.04654,-0.00839,0.00244,0.08163,-0.05829,0.05493,0.00168,-0.0177,-0.01892,0.00259,0.00198
7.7805,0.00275,-0.03891,-0.04608,-0.08286,-0.03128,-0.0473,-0.01007,0.00198,0.0914,-0.07019,0.10803,0.00061,-0.0174,-0.01968,-0.00809,-0.00595
7.781,0.00397,-0.03998,-0.0499,-0.08438,-0.03052,-0.04761,-0.01022,0.00198,0.08438,-0.05508,0.13336,-0.00214,-0.02045,-0.01801,-0.0351,-0.02289
7.7815,0.00473,-0.04196,-0.05112,-0.05997,-0.03082,-0.04913,-0.009,0.00214,0.08423,-0.02655,0.13596,-0.00336,-0.0238,-0.01892,-0.05966,-0.03662
7.782,0.00397,-0.04486,-0.04776,-0.03052,-0.03159,-0.05005,-0.0087,0.00259,0.09918,-0.00305,0.12177,-0.00061,-0.0264,-0.02167,-0.04761,-0.03952
7.7825,0.00381,-0.04822,-0.04181,-0.00092,-0.03372,-0.05035,-0.00961,0.00168,0.1152,0.01221,0.09537,0.00473,-0.02853,-0.02487,-0.00565,-0.02869
7.783,0.00443,-0.05035,-0.03708,0.04349,-0.03555,-0.04974,-0.00946,0.00015,0.13321,0.0267,0.0621,0.00778,-0.03189,-0.02853,0.01907,-0.00687
7.7835,0.00534,-0.05142,-0.03632,0.09048,-0.03525,-0.04913,-0.00809,0.0,0.15686,0.03235,0.03006,0.00687,-0.03479,-0.03082,0.00198,0.00351
7.784,0.00427,-0.05173,-0.03708,0.08545,-0.03433,-0.05051,-0.00824,-0.00046,0.17792,0.03418,0.00885,0.00305,-0.03632,-0.03036,-0.02426,-0.01526
7.7845,0.00183,-0.05157,-0.03952,-0.00504,-0.03342,-0.05325,-0.00931,-0.00229,0.19363,0.02243,0.00122,0.00031,-0.03479,-0.02655,-0.02289,-0.05035
7.785,-0.00229,-0.05127,-0.04135,-0.12344,-0.03387,-0.0531,-0.00931,-0.0029,0.20416,0.00824,0.00336,-0.00198,-0.03387,-0.02213,-0.00565,-0.0766
7.7855,-0.00443,-0.05157,-0.04181,-0.18707,-0.03326,-0.05341,-0.00916,-0.00168,0.20996,-0.00656,0.00931,-0.00366,-0.03326,-0.01999,-0.0174,-0.08987
7.786,-0.00443,-0.05127,-0.04074,-0.16617,-0.0325,-0.05356,-0.00946,0.00153,0.21667,-0.0174,0.01648,-0.00336,-0.03342,-0.02167,-0.07294,-0.10574
7.7865,-0.00244,-0.05035,-0.04013,-0.09644,-0.03265,-0.05356,-0.01144,0.00198,0.2359,-0.02777,0.01816,0.00153,-0.03326,-0.0238,-0.11841,-0.12878
7.787,0.00183,-0.04959,-0.04044,-0.03983,-0.03265,-0.05371,-0.01266,0.00046,0.25742,-0.0386,0.0087,0.0058,-0.03387,-0.02548,-0.09277,-0.12497
7.7875,0.00748,-0.04929,-0.04257,-0.03525,-0.0325,-0.05188,-0.01251,-0.00107,0.2655,-0.04776,-0.00549,0.00504,-0.03433,-0.02441,-0.01038,-0.07233
7.788,0.01053,-0.04913,-0.04425,-0.05753,-0.03265,-0.0502,-0.01297,-0.00198,0.26459,-0.05035,-0.009,0.0,-0.03433,-0.02045,0.04608,-0.00748
7.7885,0.01083,-0.04745,-0.04486,-0.04623,-0.03311,-0.04974,-0.01266,-0.00275,0.27557,-0.04211,0.00519,-0.00458,-0.03418,-0.0148,0.02823,0.02106
7.789,0.00809,-0.04639,-0.0441,0.03036,-0.03372,-0.04883,-0.0119,-0.00229,0.30258,-0.02884,0.02777,-0.00534,-0.03128,-0.01068,-0.02151,0.00961
7.7895,0.00656,-0.04868,-0.04517,0.13275,-0.03326,-0.04837,-0.01175,-0.00061,0.32532,-0.01617,0.04074,-0.00122,-0.03006,-0.00793,-0.03326,-0.01785
7.79,0.00687,-0.05264,-0.04578,0.2002,-0.03342,-0.04745,-0.01221,-0.00015,0.32501,-0.00778,0.0386,0.00275,-0.03113,-0.00916,-0.00381,-0.05112
7.7905,0.00809,-0.05493,-0.04639,0.20508,-0.03281,-0.04654,-0.01343,-0.00183,0.30746,-0.00519,0.01541,0.00259,-0.03448,-0.01404,0.00946,-0.08469
7.791,0.00977,-0.05524,-0.04745,0.16815,-0.03387,-0.04684,-0.01373,-0.00412,0.28992,-0.01068,-0.03189,-0.00183,-0.03708,-0.02075,-0.01175,-0.10544
7.7915,0.01083,-0.05417,-0.04807,0.12054,-0.0351,-0.04807,-0.01419,-0.00519,0.27985,-0.02182,-0.08575,-0.00717,-0.0386,-0.02472,-0.02228,-0.11887
7.792,0.01129,-0.05234,-0.04837,0.08133,-0.03555,-0.04883,-0.01465,-0.00519,0.27145,-0.03067,-0.10971,-0.01007,-0.04059,-0.02396,0.00336,-0.13474
7.7925,0.01221,-0.05066,-0.04776,0.05768,-0.03418,-0.04974,-0.0145,-0.00473,0.26062,-0.03418,-0.09079,-0.00931,-0.04211,-0.02243,0.03815,-0.12436
7.793,0.01129,-0.04913,-0.04684,0.047,-0.03113,-0.04852,-0.01328,-0.00565,0.24414,-0.03479,-0.06409,-0.00656,-0.04333,-0.02029,0.04837,-0.05554
7.7935,0.01038,-0.04745,-0.04684,0.03677,-0.0293,-0.047,-0.01282,-0.00641,0.21698,-0.03937,-0.07004,-0.00336,-0.04196,-0.01999,0.03098,0.0354
7.794,0.00977,-0.0473,-0.04684,0.02823,-0.03021,-0.04593,-0.01404,-0.0058,0.18112,-0.05234,-0.09583,-0.00061,-0.04379,-0.02151,0.00351,0.07187
7.7945,0.00977,-0.04883,-0.04669,0.02518,-0.03098,-0.04791,-0.01495,-0.00519,0.1564,-0.06851,-0.09811,0.00153,-0.04456,-0.02426,-0.02029,0.03006
7.795,0.00977,-0.05173,-0.04623,0.03387,-0.03159,-0.04929,-0.01389,-0.00488,0.16525,-0.08255,-0.06882,0.00214,-0.04532,-0.0264,-0.04135,-0.0351
7.7955,0.00946,-0.05371,-0.04593,0.04074,-0.03281,-0.05112,-0.01221,-0.00366,0.1944,-0.0885,-0.03754,0.00092,-0.04471,-0.02808,-0.06744,-0.06973
7.796,0.00931,-0.05325,-0.04425,0.03189,-0.03265,-0.05219,-0.01251,-0.00366,0.21118,-0.08865,-0.02304,0.0,-0.0441,-0.02945,-0.09872,-0.07828
7.7965,0.0087,-0.05188,-0.04211,0.01175,-0.03342,-0.0499,-0.01389,-0.00488,0.21225,-0.09613,-0.01373,-0.00122,-0.04364,-0.02731,-0.12772,-0.08224
7.797,0.00763,-0.05096,-0.04089,-0.00214,-0.03311,-0.04898,-0.01572,-0.00717,0.20996,-0.09888,0.00565,-0.00046,-0.04257,-0.02197,-0.12695,-0.0885
7.7975,0.0058,-0.05005,-0.04044,0.00183,-0.03418,-0.04868,-0.01617,-0.00824,0.20386,-0.09293,0.03082,0.00061,-0.03998,-0.01587,-0.06683,-0.08514
7.798,0.00412,-0.04883,-0.0386,0.01282,-0.03464,-0.0499,-0.0145,-0.00549,0.19485,-0.07156,0.05035,0.00183,-0.03723,-0.01205,0.02441,-0.07553
7.7985,0.0029,-0.04822,-0.03708,0.01373,-0.03433,-0.05112,-0.01328,-0.00214,0.18692,-0.04822,0.06195,0.00275,-0.03464,-0.01129,0.07156,-0.06683
7.799,0.0029,-0.04791,-0.03632,0.0,-0.03281,-0.05035,-0.01266,-0.00046,0.18341,-0.02975,0.06668,0.00244,-0.03403,-0.01266,0.04608,-0.06104
7.7995,0.00305,-0.04883,-0.03632,-0.02136,-0.03098,-0.04837,-0.01205,-0.00031,0.19012,-0.02106,0.06943,0.00046,-0.03281,-0.01373,-0.00549,-0.05569
7.8,0.00351,-0.0499,-0.03525,-0.04272,-0.03098,-0.04684,-0.01251,0.00153,0.20752,-0.00671,0.0737,-0.00168,-0.03067,-0.01328,-0.01373,-0.05463
7.8005,0.00351,-0.05005,-0.03387,-0.05829,-0.03342,-0.04532,-0.01282,0.0029,0.21454,0.00748,0.07675,-0.00275,-0.03143,-0.01312,0.03983,-0.0621
7.801,0.00427,-0.04944,-0.03448,-0.06561,-0.03525,-0.04501,-0.01358,0.00305,0.19424,0.01114,0.08377,-0.00137,-0.03067,-0.01358,0.1149,-0.07401
7.8015,0.00427,-0.04715,-0.03479,-0.06546,-0.03616,-0.04639,-0.01343,0.00137,0.15121,0.00534,0.09689,0.00015,-0.03052,-0.01511,0.13824,-0.09079
7.802,0.00336,-0.04517,-0.03464,-0.0621,-0.03525,-0.04822,-0.01312,0.0,0.10376,-0.009,0.10391,0.00092,-0.0322,-0.01678,0.09186,-0.09933
7.8025,0.00198,-0.04501,-0.03387,-0.05493,-0.03387,-0.04837,-0.01297,0.0,0.06409,-0.01373,0.08774,0.00015,-0.03555,-0.01785,0.03281,-0.07462
7.803,0.00183,-0.04486,-0.03342,-0.04486,-0.03296,-0.04791,-0.01282,-0.00046,0.0354,-0.00992,0.04929,-0.00046,-0.0383,-0.01877,0.01419,-0.01343
7.8035,0.00229,-0.04501,-0.03372,-0.03693,-0.03372,-0.047,-0.01358,-0.0029,0.01541,0.00046,0.01129,0.00031,-0.03799,-0.01923,0.02701,0.04395
7.804,0.00168,-0.04517,-0.03311,-0.0386,-0.03616,-0.04852,-0.01419,-0.00549,-0.00061,0.00824,-0.01205,0.00259,-0.03571,-0.02014,0.03387,0.04898
7.8045,0.00015,-0.04547,-0.03235,-0.05188,-0.03799,-0.04974,-0.01343,-0.00626,-0.0148,0.0116,-0.02533,0.00305,-0.03387,-0.02274,0.03098,0.00504
7.805,-0.00198,-0.04486,-0.03128,-0.06973,-0.0383,-0.0499,-0.01312,-0.00565,-0.02747,0.01328,-0.03632,-0.00015,-0.03204,-0.02502,0.03311,-0.04044
7.8055,-0.00336,-0.04395,-0.03113,-0.08026,-0.03784,-0.04883,-0.01312,-0.00488,-0.03937,0.01862,-0.04364,-0.00504,-0.03067,-0.02609,0.03708,-0.05768
7.806,-0.00443,-0.04288,-0.03098,-0.07782,-0.03723,-0.04761,-0.01373,-0.00473,-0.05829,0.02808,-0.04623,-0.00656,-0.03052,-0.02716,0.03128,-0.05157
7.8065,-0.00397,-0.04242,-0.03082,-0.06058,-0.03525,-0.04623,-0.01434,-0.00549,-0.08667,0.03708,-0.05753,-0.00412,-0.0325,-0.02777,0.0174,-0.03952
7.807,-0.0032,-0.04211,-0.03143,-0.02716,-0.03494,-0.04639,-0.01358,-0.00443,-0.12207,0.03494,-0.08591,0.00076,-0.0351,-0.02869,0.00626,-0.02426
7.8075,-0.00275,-0.04333,-0.03189,0.01602,-0.03326,-0.04639,-0.01312,-0.00259,-0.16068,0.01724,-0.12024,0.00381,-0.03693,-0.02823,0.00488,-0.01205
7.808,-0.00198,-0.04532,-0.03342,0.04776,-0.03311,-0.04562,-0.01266,-0.00275,-0.19196,-0.00412,-0.13138,0.00336,-0.03708,-0.02686,0.00885,-0.00504
7.8085,-0.00214,-0.0473,-0.03433,0.04791,-0.03448,-0.04501,-0.01266,-0.00366,-0.20538,-0.02518,-0.10773,0.00214,-0.03601,-0.02579,0.01053,-0.0061
7.809,-0.00412,-0.04761,-0.03296,0.02167,-0.03494,-0.04639,-0.01297,-0.00381,-0.20798,-0.0412,-0.06027,0.0032,-0.03571,-0.02472,0.01068,-0.01175
7.8095,-0.00687,-0.04501,-0.03006,-0.00183,-0.03448,-0.04898,-0.01343,-0.00336,-0.21606,-0.05493,-0.01511,0.00458,-0.0351,-0.02319,0.0119,-0.01511
7.81,-0.00793,-0.04181,-0.02792,-0.0087,-0.03418,-0.04974,-0.01389,-0.00168,-0.2269,-0.06836,0.00931,0.00519,-0.03418,-0.0235,0.01114,-0.01846
7.8105,-0.00778,-0.04196,-0.02853,-0.00748,-0.03296,-0.0473,-0.01419,-0.00031,-0.23804,-0.07294,0.01862,0.00443,-0.03326,-0.02548,0.00961,-0.02045
7.811,-0.00671,-0.04364,-0.03067,-0.00854,-0.03235,-0.04623,-0.01404,0.00107,-0.26474,-0.06866,0.03082,0.00305,-0.03342,-0.02701,0.00656,-0.02106
7.8115,-0.00748,-0.04578,-0.03128,-0.01358,-0.0322,-0.04669,-0.01465,0.00076,-0.30884,-0.0531,0.04822,0.00122,-0.03479,-0.0296,0.0058,-0.01328
7.812,-0.00839,-0.04593,-0.0296,-0.01495,-0.03113,-0.04761,-0.01511,0.00076,-0.35233,-0.04761,0.06104,-0.00031,-0.03647,-0.0325,0.00977,0.00183
7.8125,-0.00946,-0.04578,-0.02792,-0.01511,-0.03128,-0.04669,-0.01465,0.00076,-0.37857,-0.04181,0.05737,-0.00015,-0.03754,-0.03571,0.01694,0.01129
7.813,-0.00946,-0.04425,-0.0293,-0.01724,-0.03098,-0.04608,-0.01495,0.00076,-0.3804,-0.03922,0.03342,-0.00015,-0.03815,-0.03372,0.01968,0.0058
7.8135,-0.00931,-0.04303,-0.0322,-0.01984,-0.03098,-0.04623,-0.01495,-0.00046,-0.36179,-0.02899,-0.02151,-0.00198,-0.0354,-0.02579,0.0148,-0.01297
7.814,-0.00961,-0.04211,-0.03464,-0.02014,-0.02945,-0.04715,-0.01572,-0.00244,-0.34302,-0.01633,-0.1149,-0.00351,-0.03052,-0.01816,0.00641,-0.03265
7.8145,-0.00961,-0.04074,-0.03357,-0.01877,-0.02975,-0.04791,-0.01465,-0.00458,-0.33661,-0.00351,-0.22186,-0.00046,-0.02792,-0.0174,0.00427,-0.04562
7.815,-0.00931,-0.03815,-0.03235,-0.01953,-0.03006,-0.04593,-0.01419,-0.00427,-0.33829,0.00977,-0.28244,0.00595,-0.02823,-0.02029,0.00885,-0.05386
7.8155,-0.00885,-0.0383,-0.03174,-0.02365,-0.02869,-0.04395,-0.01434,-0.00381,-0.33752,0.01801,-0.26382,0.00626,-0.02853,-0.02136,0.01282,-0.06088
7.816,-0.00809,-0.03983,-0.03082,-0.02563,-0.02533,-0.04227,-0.01495,-0.00198,-0.33371,0.03448,-0.19501,-0.00214,-0.0267,-0.01709,0.00916,-0.07019
7.8165,-0.00778,-0.0412,-0.02975,-0.02533,-0.02029,-0.04166,-0.01404,-0.00092,-0.33173,0.05417,-0.11932,-0.01251,-0.02502,-0.01251,0.00244,-0.07614
7.817,-0.00839,-0.0412,-0.03006,-0.02396,-0.01816,-0.04364,-0.0148,-0.00168,-0.336,0.06775,-0.05295,-0.0116,-0.02731,-0.01343,0.00031,-0.07294
7.8175,-0.00961,-0.04089,-0.03143,-0.02258,-0.01801,-0.0441,-0.01511,-0.00305,-0.34698,0.06409,0.00519,-0.00107,-0.03052,-0.01801,0.00427,-0.0589
7.818,-0.00977,-0.04166,-0.03143,-0.02197,-0.01846,-0.04486,-0.01556,-0.00305,-0.36224,0.03845,0.04929,0.00504,-0.03174,-0.02258,0.00748,-0.04791
7.8185,-0.00931,-0.04303,-0.03143,-0.0209,-0.01968,-0.04486,-0.01617,-0.00214,-0.37949,0.01495,0.07431,0.00244,-0.02991,-0.02533,0.00565,-0.05127
7.819,-0.00961,-0.04364,-0.03143,-0.01953,-0.01923,-0.04547,-0.01587,-0.00137,-0.39688,0.00183,0.09155,-0.0029,-0.02777,-0.02396,0.00137,-0.06226
7.8195,-0.01068,-0.04272,-0.03265,-0.01892,-0.01816,-0.04608,-0.01587,-0.00031,-0.40985,0.00015,0.10651,-0.00305,-0.02548,-0.01709,0.00046,-0.06348
7.82,-0.0116,-0.04181,-0.03265,-0.01907,-0.01968,-0.04623,-0.01602,0.00107,-0.41641,0.00183,0.11154,0.00244,-0.0238,-0.00839,0.00488,-0.05402
7.8205,-0.01114,-0.03937,-0.03265,-0.01877,-0.02304,-0.04486,-0.0148,0.00198,-0.42404,0.00198,0.10132,0.0061,-0.02304,-0.00488,0.00809,-0.03998
7.821,-0.01038,-0.03754,-0.03342,-0.01877,-0.02701,-0.04364,-0.01328,0.00061,-0.44952,-0.00031,0.08545,0.0061,-0.02411,-0.00824,0.00748,-0.03326
7.8215,-0.00961,-0.03616,-0.03372,-0.01968,-0.03067,-0.04257,-0.01251,-0.00183,-0.48431,-0.01053,0.07294,0.00351,-0.02548,-0.01251,0.00458,-0.03387
7.822,-0.01022,-0.03662,-0.03296,-0.02029,-0.03448,-0.04501,-0.01389,-0.00305,-0.50293,-0.01892,0.05997,0.00198,-0.02625,-0.01282,0.00259,-0.03555
7.8225,-0.01099,-0.03708,-0.0322,-0.02258,-0.03983,-0.04745,-0.01495,-0.00305,-0.49515,-0.0296,0.04471,0.00244,-0.02655,-0.01083,0.00473,-0.03128
7.823,-0.01175,-0.03891,-0.03265,-0.02548,-0.047,-0.04852,-0.01419,-0.00259,-0.48004,-0.04578,0.03067,0.0032,-0.02655,-0.00992,0.009,-0.02411
7.8235,-0.01144,-0.04059,-0.03311,-0.02731,-0.05234,-0.04776,-0.01099,-0.00229,-0.46753,-0.06012,0.01892,0.00122,-0.02625,-0.00916,0.01205,-0.02289
7.824,-0.00992,-0.04196,-0.03296,-0.02655,-0.05219,-0.04654,-0.00916,-0.00229,-0.46066,-0.0676,0.00763,-0.00107,-0.02686,-0.00931,0.01328,-0.0296
7.8245,-0.00992,-0.04227,-0.03265,-0.02335,-0.04776,-0.04456,-0.01053,-0.0032,-0.46738,-0.05386,-0.00259,-0.00168,-0.02792,-0.01205,0.01678,-0.03952
7.825,-0.01083,-0.04181,-0.03235,-0.01923,-0.04166,-0.04379,-0.01495,-0.00366,-0.4776,-0.04105,-0.00687,-0.00168,-0.0296,-0.01694,0.02014,-0.04486
7.8255,-0.01205,-0.04135,-0.03265,-0.01648,-0.03662,-0.04471,-0.02045,-0.00443,-0.466,-0.02609,-0.00702,-0.00549,-0.0293,-0.01892,0.01862,-0.04364
7.826,-0.01144,-0.04196,-0.03265,-0.01373,-0.03372,-0.04608,-0.02563,-0.00549,-0.42511,-0.01694,-0.00854,-0.01129,-0.02731,-0.01633,0.01389,-0.04257
7.8265,-0.01022,-0.04272,-0.0325,-0.01251,-0.0322,-0.04669,-0.02884,-0.0058,-0.36758,-0.01434,-0.01404,-0.0148,-0.02579,-0.01144,0.00763,-0.04181
7.827,-0.00961,-0.04318,-0.03296,-0.01083,-0.03082,-0.04639,-0.02762,-0.00504,-0.31174,-0.01328,-0.02151,-0.01175,-0.02441,-0.01083,0.00351,-0.04349
7.8275,-0.01022,-0.04211,-0.03418,-0.00961,-0.0322,-0.04669,-0.02502,-0.00381,-0.27069,-0.02029,-0.02884,-0.0061,-0.02533,-0.01663,0.00061,-0.04791
7.828,-0.01129,-0.04013,-0.03296,-0.00854,-0.03281,-0.04654,-0.02289,-0.00351,-0.24643,-0.03128,-0.03464,-0.00473,-0.02823,-0.02701,-0.00015,-0.04929
7.8285,-0.01129,-0.04028,-0.03143,-0.00656,-0.03189,-0.04547,-0.02289,-0.00458,-0.23499,-0.04257,-0.04227,-0.00992,-0.02945,-0.03754,-0.00137,-0.04501
7.829,-0.0116,-0.04181,-0.03082,-0.00595,-0.02747,-0.04456,-0.0238,-0.00519,-0.24033,-0.04761,-0.05142,-0.01831,-0.02823,-0.04364,-0.00458,-0.04456
7.8295,-0.01083,-0.0415,-0.03113,-0.00534,-0.0235,-0.04425,-0.02182,-0.0061,-0.27893,-0.05325,-0.05951,-0.02167,-0.0267,-0.04456,-0.00687,-0.05692
7.83,-0.01068,-0.04059,-0.03311,-0.00397,-0.02228,-0.04379,-0.0119,-0.00656,-0.3508,-0.06012,-0.06226,-0.01419,-0.0267,-0.03952,-0.00275,-0.07187
7.8305,-0.00961,-0.03952,-0.03418,-0.00275,-0.02335,-0.0441,0.00336,-0.00641,-0.42511,-0.06119,-0.05997,-0.00015,-0.02747,-0.03159,0.00595,-0.06851
7.831,-0.00809,-0.03922,-0.03555,-0.00305,-0.02426,-0.04425,0.01373,-0.00397,-0.45898,-0.04837,-0.05371,0.01038,-0.02792,-0.02335,0.00946,-0.04578
7.8315,-0.00809,-0.03799,-0.03464,-0.0032,-0.02579,-0.04395,0.00488,-0.00137,-0.43167,-0.0296,-0.04837,0.01251,-0.02884,-0.0174,-0.01572,-0.02701
7.832,-0.00916,-0.03738,-0.03387,-0.0029,-0.02701,-0.04395,-0.01602,-0.00061,-0.33188,-0.01389,-0.04684,0.00748,-0.03067,-0.01617,-0.07568,-0.02975
7.8325,-0.01068,-0.03815,-0.03311,-0.00214,-0.02731,-0.04486,-0.02747,-0.00153,-0.14404,-0.00092,-0.04532,0.00168,-0.03189,-0.01633,-0.14832,-0.04395
7.833,-0.01099,-0.03906,-0.03387,-0.00259,-0.02731,-0.04623,-0.01801,-0.00122,0.11032,0.00427,-0.04105,-0.00046,-0.03082,-0.0148,-0.1828,-0.04776
7.8335,-0.01083,-0.04089,-0.03357,-0.00473,-0.02655,-0.0473,-0.0058,-0.00046,0.34973,-0.0058,-0.03479,0.00107,-0.02655,-0.01205,-0.14114,-0.04028
7.834,-0.01022,-0.04196,-0.03433,-0.00504,-0.0267,-0.04669,-0.00595,0.00015,0.50537,-0.01968,-0.02609,0.0032,-0.02258,-0.00885,-0.04807,-0.03616
7.8345,-0.00931,-0.04227,-0.03479,-0.00626,-0.02792,-0.04578,-0.01251,-0.00168,0.58777,-0.01572,-0.01648,0.00137,-0.02121,-0.00656,0.0267,-0.0441
7.835,-0.00824,-0.04196,-0.0351,-0.00702,-0.02869,-0.04608,-0.01312,-0.00397,0.66772,0.00076,-0.00824,-0.00259,-0.02289,-0.00565,0.06927,-0.06058
7.8355,-0.00732,-0.0412,-0.03525,-0.00916,-0.03021,-0.04852,-0.00763,-0.00488,0.79468,0.01648,-0.00122,-0.00366,-0.02441,-0.00519,0.12482,-0.06882
7.836,-0.00717,-0.03922,-0.03494,-0.00839,-0.03143,-0.04974,-0.00641,-0.00351,0.94467,0.02136,0.00046,0.00076,-0.02441,-0.00504,0.18188,-0.05859
7.8365,-0.00717,-0.03845,-0.03494,-0.00641,-0.03159,-0.04883,-0.01297,-0.00214,1.0611,0.01404,-0.00107,0.00412,-0.02335,-0.00549,0.1709,-0.0383
7.837,-0.00778,-0.03876,-0.03586,-0.00626,-0.03143,-0.0473,-0.02121,-0.00153,1.12625,0.01099,-0.00381,0.00641,-0.02243,-0.00549,0.09506,-0.02121
7.8375,-0.00793,-0.03983,-0.03662,-0.00748,-0.03235,-0.04745,-0.02274,-0.00183,1.15662,0.00992,-0.00168,0.00504,-0.02258,-0.00397,0.0322,-0.01251
7.838,-0.00687,-0.03967,-0.03571,-0.00824,-0.03342,-0.047,-0.01465,-0.00092,1.15692,0.00656,0.01022,0.0029,-0.02182,-0.00214,0.01663,-0.01038
7.8385,-0.00595,-0.03952,-0.03387,-0.00824,-0.03357,-0.04715,-0.00336,-0.00122,1.12946,-0.00351,0.03143,0.00092,-0.0209,-0.0029,0.01511,-0.01694
7.839,-0.00473,-0.03967,-0.03296,-0.00763,-0.0322,-0.04822,0.00015,-0.00336,1.08917,-0.01328,0.04395,0.00015,-0.01953,-0.00763,0.01236,-0.03464
7.8395,-0.00397,-0.03952,-0.03464,-0.00748,-0.03006,-0.04745,-0.0061,-0.00473,1.05225,-0.02151,0.02426,0.00061,-0.0174,-0.01129,0.0267,-0.05936
7.84,-0.00351,-0.0383,-0.03586,-0.00626,-0.02914,-0.0473,-0.01434,-0.00336,1.02524,-0.02609,-0.03479,0.00214,-0.01617,-0.01205,0.06241,-0.07675
7.8405,-0.00397,-0.03754,-0.0354,-0.00549,-0.03006,-0.04715,-0.01831,-0.00153,1.00571,-0.03845,-0.10635,0.0029,-0.0177,-0.01205,0.0853,-0.06775
7.841,-0.00504,-0.0383,-0.03403,-0.00534,-0.03006,-0.04776,-0.01755,-0.00046,0.98175,-0.0502,-0.14709,0.00397,-0.02365,-0.01251,0.07401,-0.0264
7.8415,-0.00427,-0.03967,-0.03403,-0.0058,-0.02991,-0.04837,-0.01465,-0.00153,0.93704,-0.05142,-0.14084,0.00549,-0.03128,-0.01434,0.04593,0.03143
7.842,-0.00443,-0.03967,-0.0351,-0.00702,-0.02945,-0.04822,-0.01358,-0.00305,0.86975,-0.03082,-0.11154,0.00793,-0.03693,-0.01282,0.03174,0.07278
7.8425,-0.00488,-0.03906,-0.03586,-0.00748,-0.0296,-0.04837,-0.01297,-0.00244,0.80017,0.00305,-0.08438,0.01022,-0.04074,-0.0087,0.03632,0.07706
7.843,-0.00687,-0.03784,-0.03586,-0.00702,-0.03098,-0.04822,-0.01434,-0.00076,0.74295,0.02182,-0.06485,0.01266,-0.0444,-0.00488,0.04364,0.05096
7.8435,-0.00778,-0.03784,-0.03448,-0.00717,-0.03174,-0.04822,-0.01587,0.00046,0.68909,0.01419,-0.05402,0.0148,-0.04883,-0.00366,0.0412,0.01953
7.844,-0.00824,-0.03967,-0.03342,-0.00946,-0.03189,-0.04776,-0.01648,-0.00015,0.62164,-0.01465,-0.05798,0.01617,-0.05234,-0.00488,0.02991,0.00793
7.8445,-0.00793,-0.04242,-0.0325,-0.01373,-0.03143,-0.04761,-0.01633,-0.00259,0.54108,-0.03952,-0.06912,0.01511,-0.0528,-0.00717,0.0174,0.02472
7.845,-0.00717,-0.04364,-0.03204,-0.01617,-0.03082,-0.04822,-0.01678,-0.00366,0.46082,-0.0499,-0.06409,0.01038,-0.05219,-0.01022,0.01038,0.04745
7.8455,-0.00595,-0.04257,-0.03189,-0.01343,-0.03021,-0.0499,-0.0177,-0.00381,0.38956,-0.05096,-0.03174,0.00275,-0.05005,-0.01495,0.00992,0.02945
7.846,-0.00595,-0.04074,-0.03235,-0.01007,-0.03265,-0.05035,-0.0174,-0.00412,0.33051,-0.06134,0.00732,-0.00351,-0.04669,-0.01907,0.01465,-0.04333
7.8465,-0.00656,-0.03891,-0.0322,-0.0116,-0.03418,-0.04868,-0.0177,-0.00473,0.27939,-0.06393,0.03326,-0.00366,-0.04196,-0.0209,0.02274,-0.12543
7.847,-0.00839,-0.03784,-0.03143,-0.01617,-0.03738,-0.04807,-0.01801,-0.00427,0.22079,-0.05936,0.05142,-0.00137,-0.03754,-0.02045,0.02686,-0.16861
7.8475,-0.009,-0.03738,-0.03174,-0.0177,-0.03769,-0.04898,-0.01648,-0.00366,0.13657,-0.04578,0.07263,-0.0029,-0.03342,-0.02075,0.01923,-0.17944
7.848,-0.00824,-0.03708,-0.03326,-0.01205,-0.03586,-0.04883,-0.01144,-0.00168,0.03204,-0.02548,0.08972,-0.00885,-0.02975,-0.02274,0.00107,-0.18845
7.8485,-0.00671,-0.03769,-0.03342,-0.00183,-0.03265,-0.04807,-0.00748,-0.00061,-0.06439,-0.00961,0.0975,-0.01038,-0.02594,-0.02502,-0.01328,-0.1915
7.849,-0.00626,-0.03754,-0.03326,0.00626,-0.03036,-0.04654,-0.00687,-0.00092,-0.1358,0.01358,0.09811,-0.00519,-0.02167,-0.02396,-0.01312,-0.16708
7.8495,-0.00732,-0.03647,-0.03265,0.00549,-0.0296,-0.04715,-0.00977,-0.00244,-0.19485,0.04486,0.09308,0.00259,-0.0177,-0.02121,-0.00458,-0.13275
7.85,-0.00854,-0.03738,-0.0322,-0.00259,-0.02777,-0.04791,-0.01389,-0.00397,-0.25803,0.07294,0.07385,0.0061,-0.01831,-0.01968,-0.00031,-0.12192
7.8505,-0.00824,-0.04166,-0.03296,-0.01419,-0.02579,-0.04776,-0.02228,-0.00595,-0.32349,0.08667,0.03845,0.00412,-0.02487,-0.02045,-0.00504,-0.13168
7.851,-0.00763,-0.04974,-0.03418,-0.02289,-0.02548,-0.04715,-0.03464,-0.00626,-0.38849,0.08118,0.00336,-0.00214,-0.0325,-0.0209,-0.01755,-0.13123
7.8515,-0.00702,-0.05539,-0.03525,-0.01892,-0.0267,-0.04684,-0.04181,-0.00458,-0.45258,0.06668,-0.01144,-0.00839,-0.03845,-0.01907,-0.03265,-0.11215
7.852,-0.00534,-0.05585,-0.0354,0.00458,-0.02777,-0.04715,-0.03296,-0.00259,-0.5072,0.05264,-0.0058,-0.00946,-0.04196,-0.01541,-0.04211,-0.08942
7.8525,-0.00534,-0.05188,-0.03571,0.03113,-0.02823,-0.04745,-0.01328,-0.00198,-0.54352,0.03525,0.00565,-0.00549,-0.04395,-0.01266,-0.03723,-0.07263
7.853,-0.00595,-0.04761,-0.03632,0.03418,-0.02838,-0.04745,0.00061,-0.00183,-0.57037,0.02121,0.00809,-0.00076,-0.04517,-0.01404,-0.01816,-0.0621
7.8535,-0.00717,-0.04364,-0.03784,0.0116,-0.02579,-0.04761,0.00061,-0.00443,-0.59494,0.00336,-0.00229,-0.00061,-0.04623,-0.01755,-0.00076,-0.05188
7.854,-0.00748,-0.0383,-0.03708,-0.01022,-0.02289,-0.04822,-0.0061,-0.00641,-0.61874,-0.01007,-0.01633,-0.0029,-0.04639,-0.02136,-0.00687,-0.04044
7.8545,-0.00748,-0.03296,-0.03708,-0.01282,-0.02182,-0.04807,-0.01114,-0.00717,-0.64407,-0.02014,-0.02579,-0.00549,-0.04486,-0.0238,-0.05005,-0.03067
7.855,-0.00702,-0.02899,-0.0354,-0.00473,-0.02289,-0.04715,-0.01236,-0.00717,-0.67596,-0.01984,-0.02991,-0.00519,-0.04196,-0.02335,-0.10941,-0.02762
7.8555,-0.00793,-0.02731,-0.03464,-0.00168,-0.02441,-0.04608,-0.01282,-0.00687,-0.71503,-0.02563,-0.03159,-0.00305,-0.04028,-0.02029,-0.13504,-0.0293
7.856,-0.00854,-0.02731,-0.03479,-0.00687,-0.02411,-0.04593,-0.01434,-0.00687,-0.76202,-0.03082,-0.03174,-0.00122,-0.04166,-0.01709,-0.09247,-0.03281
7.8565,-0.00702,-0.02762,-0.0351,-0.0145,-0.02228,-0.04715,-0.01465,-0.00626,-0.82092,-0.04044,-0.02914,0.00031,-0.04242,-0.01434,-0.00168,-0.03845
7.857,-0.00504,-0.02869,-0.0351,-0.02014,-0.02197,-0.04898,-0.01495,-0.00641,-0.88287,-0.05264,-0.02869,0.00305,-0.03983,-0.01312,0.08301,-0.05951
7.8575,-0.00412,-0.0296,-0.03357,-0.0238,-0.02197,-0.04898,-0.0148,-0.00671,-0.88577,-0.06668,-0.03448,0.0061,-0.03601,-0.0119,0.11383,-0.08972
7.858,-0.00412,-0.02975,-0.03342,-0.02487,-0.02319,-0.04883,-0.01556,-0.00687,-0.71304,-0.07736,-0.04257,0.00824,-0.03464,-0.01297,0.10086,-0.08743
7.8585,-0.00351,-0.02808,-0.03296,-0.01923,-0.0238,-0.04868,-0.01511,-0.00595,-0.27222,-0.08179,-0.04669,0.00717,-0.03693,-0.01617,0.09232,-0.01511
7.859,-0.00214,-0.02701,-0.03326,-0.00488,-0.02655,-0.04868,-0.0145,-0.00412,0.33936,-0.07156,-0.04288,0.0029,-0.03754,-0.01968,0.10651,0.07706
7.8595,-0.00198,-0.02747,-0.03357,0.01343,-0.02914,-0.04822,-0.01389,-0.0029,0.81528,-0.06439,-0.0325,-0.00031,-0.03433,-0.01877,0.10406,0.09552
7.86,-0.00168,-0.02914,-0.03311,0.02426,-0.03281,-0.0473,-0.01312,-0.00244,0.92514,-0.05859,-0.01877,-0.00351,-0.0296,-0.01511,0.05173,0.02136
7.8605,-0.00244,-0.03067,-0.03342,0.01816,-0.03571,-0.04761,-0.01251,-0.0029,0.7605,-0.06058,-0.00534,-0.00702,-0.02701,-0.01328,-0.02686,-0.06073
7.861,-0.00259,-0.03235,-0.03387,0.00183,-0.03769,-0.04745,-0.01312,-0.00443,0.62454,-0.05753,0.00992,-0.00977,-0.02823,-0.01526,-0.0856,-0.08118
7.8615,-0.00107,-0.03387,-0.03311,-0.0119,-0.0383,-0.04684,-0.01419,-0.00687,0.69519,-0.04883,0.02304,-0.00763,-0.03174,-0.01907,-0.11139,-0.05783
7.862,-0.00092,-0.03586,-0.03342,-0.01511,-0.03754,-0.04623,-0.0145,-0.00748,0.896,-0.04074,0.0235,-0.00259,-0.03525,-0.02213,-0.11047,-0.03967
7.8625,-0.00198,-0.03708,-0.03433,-0.01129,-0.03876,-0.04684,-0.01419,-0.00626,1.0498,-0.04242,0.00595,0.00366,-0.03738,-0.02274,-0.07614,-0.03403
7.863,-0.00336,-0.03876,-0.03586,-0.00702,-0.03799,-0.04776,-0.01266,-0.00458,1.07086,-0.04608,-0.02411,0.00793,-0.03754,-0.02136,-0.00732,-0.02365
7.8635,-0.00351,-0.03952,-0.03464,-0.00412,-0.03601,-0.04776,-0.01144,-0.00427,1.01898,-0.05463,-0.05051,0.00717,-0.03769,-0.01907,0.05356,-0.00763
7.864,-0.0029,-0.03937,-0.03357,-0.00137,-0.0325,-0.04807,-0.01144,-0.00458,1.00128,-0.05249,-0.06134,0.00168,-0.03662,-0.01633,0.05417,-0.00168
7.8645,-0.00305,-0.04013,-0.03448,0.00275,-0.03235,-0.04776,-0.01236,-0.00366,1.00296,-0.04074,-0.0563,-0.00412,-0.03647,-0.01617,-0.00443,-0.00946
7.865,-0.00427,-0.04059,-0.03662,0.0058,-0.03372,-0.0473,-0.01404,-0.00198,0.91995,-0.03464,-0.04395,-0.0061,-0.03769,-0.01846,-0.06699,-0.01389
7.8655,-0.00381,-0.04166,-0.03769,0.00595,-0.03448,-0.04745,-0.01389,-0.00137,0.74036,-0.02518,-0.03296,-0.0029,-0.03815,-0.01984,-0.09476,-0.01328
7.866,-0.00443,-0.0415,-0.03677,-0.00183,-0.03174,-0.04822,-0.01389,-0.00275,0.58151,-0.01953,-0.02991,0.00244,-0.03616,-0.02029,-0.08652,-0.03433
7.8665,-0.00412,-0.04074,-0.03479,-0.01892,-0.02686,-0.04776,-0.01419,-0.00366,0.55359,-0.01556,-0.03128,0.00549,-0.03159,-0.01984,-0.04745,-0.08316
7.867,-0.00397,-0.04028,-0.03342,-0.0351,-0.02655,-0.04791,-0.01556,-0.00351,0.64667,-0.01038,-0.02457,0.00366,-0.02975,-0.01877,0.01007,-0.11276
7.8675,-0.00305,-0.04028,-0.03342,-0.04059,-0.02808,-0.04822,-0.01602,-0.00336,0.73639,-0.00717,-0.00427,-0.00183,-0.03082,-0.01801,0.04044,-0.08499
7.868,-0.00259,-0.0415,-0.0354,-0.0351,-0.03021,-0.05066,-0.01633,-0.00427,0.7045,-0.0029,0.01923,-0.0058,-0.03418,-0.01831,0.0119,-0.02991
7.8685,-0.00351,-0.04288,-0.03677,-0.02731,-0.03052,-0.05203,-0.01678,-0.00351,0.54443,-0.00046,0.0351,-0.00519,-0.03799,-0.01923,-0.02563,0.00107
7.869,-0.00488,-0.04288,-0.03571,-0.02182,-0.03235,-0.05173,-0.01602,-0.00031,0.32379,0.00687,0.03998,-0.00153,-0.04242,-0.0209,0.01892,0.0058
7.8695,-0.00504,-0.04288,-0.0351,-0.01556,-0.03418,-0.05157,-0.01266,0.00198,0.07233,0.0174,0.03998,0.00015,-0.04852,-0.02167,0.14359,0.00916
7.87,-0.00412,-0.04288,-0.03387,-0.00549,-0.03372,-0.05234,-0.00961,0.00183,-0.19104,0.02319,0.0325,-0.00229,-0.05554,-0.02121,0.23102,0.00519
7.8705,-0.00412,-0.04181,-0.03464,0.00275,-0.03235,-0.05356,-0.00931,0.00031,-0.36087,0.01694,0.0116,-0.00595,-0.06073,-0.02243,0.19409,-0.02975
7.871,-0.00443,-0.04013,-0.03433,0.00015,-0.03204,-0.0528,-0.01099,-0.00061,-0.32074,-0.0029,-0.02365,-0.00626,-0.05859,-0.02182,0.08911,-0.09293
7.8715,-0.00381,-0.03937,-0.03357,-0.01236,-0.03296,-0.05066,-0.01389,-0.00153,-0.11871,-0.03128,-0.05966,-0.0032,-0.04745,-0.01953,0.0238,-0.1561
7.872,-0.00244,-0.04059,-0.03159,-0.02487,-0.03525,-0.04883,-0.01465,-0.00336,0.03952,-0.04822,-0.07797,0.00229,-0.0351,-0.0177,0.01404,-0.17944
7.8725,-0.00046,-0.04211,-0.02991,-0.02777,-0.03555,-0.04807,-0.01465,-0.00458,0.01999,-0.05844,-0.07065,0.0061,-0.0293,-0.01862,0.00824,-0.13916
7.873,0.00031,-0.04364,-0.03082,-0.02197,-0.03601,-0.04761,-0.0145,-0.00549,-0.11353,-0.05234,-0.0499,0.00687,-0.02914,-0.02258,-0.00946,-0.04211
7.8735,-0.00076,-0.0444,-0.03189,-0.01633,-0.03021,-0.04822,-0.01541,-0.0058,-0.24994,-0.04395,-0.03021,0.00473,-0.03052,-0.02533,-0.01465,0.05737
7.874,-0.00183,-0.04425,-0.03204,-0.01709,-0.03006,-0.04837,-0.01556,-0.00641,-0.39047,-0.03128,-0.01785,0.00397,-0.03265,-0.02686,-0.00076,0.09445
7.8745,-0.00122,-0.04272,-0.03296,-0.02197,-0.02838,-0.04822,-0.01419,-0.00595,-0.60593,-0.02258,-0.01114,0.00549,-0.0412,-0.02548,0.0116,0.0528
7.875,-0.00046,-0.04105,-0.03265,-0.02197,-0.02747,-0.047,-0.01312,-0.00443,-0.92239,-0.02502,-0.00397,0.00519,-0.05463,-0.02258,0.01144,-0.01495
7.8755,-0.00046,-0.04242,-0.03387,-0.01526,-0.02747,-0.04623,-0.01358,-0.00275,-1.28113,-0.03937,0.00107,0.00427,-0.06683,-0.02045,0.00748,-0.04364
7.876,-0.00092,-0.04471,-0.03387,-0.00763,-0.02487,-0.0473,-0.01434,-0.00229,-1.60645,-0.05768,-0.00046,0.00198,-0.07202,-0.02045,0.00671,-0.01923
7.8765,0.0,-0.04562,-0.03387,-0.00641,-0.02335,-0.0473,-0.01404,-0.00137,-1.87317,-0.06805,-0.00107,0.00183,-0.07004,-0.0209,0.00854,0.02167
7.877,0.00061,-0.04517,-0.03265,-0.01038,-0.02182,-0.04608,-0.01312,0.00031,-2.0694,-0.06195,0.00977,0.00198,-0.0621,-0.01999,0.00992,0.0444
7.8775,0.00031,-0.04471,-0.0325,-0.01221,-0.02243,-0.04578,-0.01465,0.00122,-2.15317,-0.0415,0.02991,0.00153,-0.05127,-0.0148,0.01053,0.03586
7.878,-0.00107,-0.04486,-0.03143,-0.00839,-0.02258,-0.04593,-0.01648,0.00015,-2.10983,-0.01617,0.04333,0.00092,-0.03983,-0.00809,0.00687,-0.00565
7.8785,-0.00214,-0.04471,-0.03143,-0.00229,-0.0235,-0.04608,-0.01724,-0.00092,-1.99631,0.01373,0.03845,0.00046,-0.03296,-0.00381,0.00076,-0.07553
7.879,-0.00198,-0.04456,-0.03143,0.00198,-0.02457,-0.04562,-0.01678,-0.00122,-1.89117,0.03311,0.0206,-0.00015,-0.03143,-0.00397,-0.00305,-0.14206
7.8795,-0.00137,-0.04379,-0.03204,0.00183,-0.02731,-0.04684,-0.01556,0.0,-1.83136,0.03494,0.00473,0.0,-0.03189,-0.00641,0.00107,-0.15137
7.88,-0.00046,-0.04211,-0.03296,0.00076,-0.02441,-0.04974,-0.01465,0.00153,-1.80222,0.02029,-0.00229,-0.00061,-0.03128,-0.00839,0.01205,-0.06927
7.8805,-0.00092,-0.04028,-0.03235,-0.00061,-0.02411,-0.04974,-0.0145,0.0032,-1.76804,0.00946,-0.00412,-0.00183,-0.02975,-0.01022,0.02213,0.0592
7.881,-0.00229,-0.03967,-0.03128,-0.00702,-0.0267,-0.04578,-0.01541,0.0032,-1.70837,0.01282,-0.00473,-0.00122,-0.0293,-0.01221,0.02625,0.12878
7.8815,-0.00351,-0.04074,-0.03082,-0.02518,-0.02975,-0.04044,-0.01602,0.00244,-1.63193,0.02518,-0.00671,0.00275,-0.03067,-0.01556,0.0267,0.08575
7.882,-0.0032,-0.0415,-0.03265,-0.05432,-0.03159,-0.03662,-0.01282,0.00183,-1.55304,0.03067,-0.01083,0.00732,-0.03296,-0.01877,0.02502,-0.0029
7.8825,-0.00229,-0.04074,-0.03418,-0.07965,-0.0325,-0.03799,-0.0087,0.00092,-1.47614,0.02487,-0.01541,0.00763,-0.0322,-0.02136,0.01541,-0.01801
7.883,-0.00229,-0.03922,-0.03479,-0.09033,-0.03433,-0.03937,-0.00748,0.00214,-1.40366,0.01755,-0.01846,0.00275,-0.02747,-0.02289,-0.00214,0.05051
7.8835,-0.00244,-0.03876,-0.03296,-0.08926,-0.03448,-0.04105,-0.00992,0.00107,-1.33911,0.01099,-0.01923,-0.00336,-0.02106,-0.02365,-0.02121,0.08331
7.884,-0.00214,-0.03967,-0.0325,-0.08392,-0.03647,-0.04211,-0.01404,0.00092,-1.27823,0.00122,-0.01999,-0.00824,-0.01709,-0.02396,-0.03555,-0.01709
7.8845,-0.00046,-0.04089,-0.03311,-0.06546,-0.0383,-0.04547,-0.01602,0.00046,-1.21048,-0.00214,-0.02106,-0.00854,-0.01526,-0.02396,-0.05096,-0.16846
7.885,-0.00015,-0.04227,-0.03342,-0.02823,-0.03998,-0.04852,-0.01526,-0.00031,-1.13739,-0.00885,-0.02304,-0.00534,-0.01419,-0.0235,-0.05707,-0.20721
7.8855,-0.00168,-0.04318,-0.03174,0.00824,-0.04272,-0.05173,-0.01495,-0.00076,-1.07025,-0.01404,-0.02487,-0.00153,-0.01251,-0.02365,-0.03555,-0.11688
7.886,-0.00244,-0.04257,-0.03159,0.00809,-0.04272,-0.05356,-0.01526,0.00046,-1.01517,-0.01801,-0.02441,0.0,-0.01343,-0.02426,-0.00244,-0.04547
7.8865,-0.00153,-0.04318,-0.03326,-0.02808,-0.04425,-0.05615,-0.01511,0.00168,-0.96573,-0.02502,-0.0235,-0.00214,-0.01831,-0.02411,0.01633,-0.07751
7.887,-0.00122,-0.0441,-0.03693,-0.04211,-0.04547,-0.06104,-0.01465,0.00214,-0.90958,-0.03616,-0.02335,-0.00656,-0.02258,-0.02426,0.03265,-0.13947
7.8875,-0.00259,-0.04456,-0.03922,0.01831,-0.04745,-0.06805,-0.01404,-0.00046,-0.84259,-0.04532,-0.02426,-0.00793,-0.02548,-0.02289,0.05966,-0.15854
7.888,-0.00458,-0.04349,-0.03906,0.12161,-0.05051,-0.07477,-0.01556,-0.00336,-0.7782,-0.04761,-0.02655,-0.0058,-0.02655,-0.02014,0.0618,-0.15564
7.8885,-0.00443,-0.0415,-0.03738,0.16708,-0.05402,-0.07324,-0.01938,-0.00549,-0.73395,-0.03616,-0.02823,-0.00244,-0.02655,-0.01724,0.0177,-0.13794
7.889,-0.00305,-0.0412,-0.03616,0.10788,-0.05157,-0.065,-0.0206,-0.00519,-0.7019,-0.02075,-0.02838,0.00092,-0.02686,-0.01709,-0.02716,-0.05676
7.8895,-0.00153,-0.04227,-0.03647,0.01511,-0.04364,-0.05539,-0.01587,-0.00351,-0.65353,-0.0087,-0.02762,0.00381,-0.02594,-0.01923,-0.02411,0.06943
7.89,-0.00137,-0.04257,-0.03616,-0.02106,-0.03983,-0.05173,-0.00839,-0.00122,-0.58517,0.00031,-0.02853,0.00717,-0.02365,-0.02045,0.0145,0.13382
7.8905,-0.00153,-0.04257,-0.0351,0.00244,-0.03708,-0.05081,-0.00458,-0.00031,-0.52139,-0.00641,-0.02975,0.00885,-0.02258,-0.01984,0.03799,0.09171
7.891,-0.00168,-0.04196,-0.03448,0.03098,-0.03418,-0.04929,-0.01083,-0.00122,-0.4689,-0.0206,-0.02869,0.00824,-0.02335,-0.01846,0.03128,0.02411
7.8915,-0.00153,-0.04135,-0.03357,0.03784,-0.0351,-0.0444,-0.02579,-0.00244,-0.41122,-0.03357,-0.02625,0.00595,-0.02533,-0.01923,0.00626,0.01053
7.892,-0.00153,-0.04211,-0.03479,0.03998,-0.03586,-0.04196,-0.04532,-0.00259,-0.34271,-0.03616,-0.02487,0.00244,-0.02731,-0.0206,-0.02289,0.02502
7.8925,-0.00214,-0.04166,-0.0351,0.04715,-0.03784,-0.04211,-0.05539,-0.00183,-0.26871,-0.02853,-0.02686,-0.0032,-0.02731,-0.02136,-0.04166,0.0061
7.893,-0.00366,-0.04074,-0.03525,0.04288,-0.03723,-0.04456,-0.04044,-0.00092,-0.20294,-0.02335,-0.02884,-0.00473,-0.02594,-0.02136,-0.03387,-0.0473
7.8935,-0.00412,-0.04044,-0.03464,0.01251,-0.03448,-0.04578,-0.00275,-0.00031,-0.15778,-0.02213,-0.02686,-0.00168,-0.0235,-0.02136,-0.00061,-0.09232
7.894,-0.00412,-0.04074,-0.03586,-0.02945,-0.02808,-0.04501,0.02838,-0.00107,-0.1265,-0.02167,-0.02274,0.00473,-0.02151,-0.02167,0.02899,-0.10269
7.8945,-0.00381,-0.04089,-0.0354,-0.06714,-0.02472,-0.04379,0.02899,-0.00198,-0.09613,-0.01999,-0.02228,0.00916,-0.01785,-0.02167,0.02655,-0.08591
7.895,-0.00381,-0.04028,-0.03464,-0.10208,-0.0267,-0.04166,0.0119,-0.00519,-0.0766,-0.0235,-0.02747,0.01114,-0.01312,-0.02151,-0.0061,-0.06042
7.8955,-0.00336,-0.03967,-0.03479,-0.13321,-0.02609,-0.0415,0.00412,-0.00732,-0.08255,-0.03159,-0.03235,0.01114,-0.00854,-0.02197,-0.04684,-0.04028
7.896,-0.00397,-0.04059,-0.03433,-0.13443,-0.02792,-0.04135,0.00366,-0.00702,-0.1088,-0.0351,-0.03021,0.00778,-0.00793,-0.02335,-0.07965,-0.0383
7.8965,-0.00519,-0.04181,-0.03403,-0.08972,-0.02808,-0.04181,-0.00671,-0.00534,-0.1297,-0.0351,-0.02075,0.00092,-0.01144,-0.02365,-0.10696,-0.05814
7.897,-0.00549,-0.0412,-0.03357,-0.03525,-0.02792,-0.04471,-0.02823,-0.00412,-0.12253,-0.02686,-0.01221,-0.0061,-0.0148,-0.02182,-0.13367,-0.08926
7.8975,-0.00488,-0.04028,-0.03342,-0.02075,-0.02762,-0.05096,-0.04105,-0.00443,-0.08438,-0.02243,-0.00946,-0.01038,-0.01572,-0.02045,-0.14252,-0.11581
7.898,-0.00351,-0.03983,-0.03387,-0.04059,-0.02823,-0.05569,-0.03647,-0.00565,-0.04074,-0.0206,-0.01328,-0.00824,-0.01465,-0.02075,-0.09155,-0.13321
7.8985,-0.00427,-0.04059,-0.03464,-0.0441,-0.02975,-0.05829,-0.02396,-0.00549,-0.01297,-0.02274,-0.01648,-0.00366,-0.01587,-0.02182,0.009,-0.14175
7.899,-0.0061,-0.04013,-0.03479,-0.01144,-0.02777,-0.05539,-0.01465,-0.00641,0.00519,-0.02228,-0.01709,0.00061,-0.01968,-0.02243,0.09323,-0.14252
7.8995,-0.00656,-0.03769,-0.0351,0.02533,-0.02594,-0.04944,-0.00916,-0.00671,0.03052,-0.01984,-0.01419,0.00275,-0.02472,-0.02289,0.1088,-0.13474
7.9,-0.00412,-0.03693,-0.03418,0.03448,-0.02502,-0.04532,-0.00671,-0.00778,0.06622,-0.01678,-0.01068,0.00336,-0.02808,-0.02304,0.05783,-0.10803
7.9005,-0.00336,-0.03708,-0.03372,0.02487,-0.02548,-0.04425,-0.00732,-0.00824,0.11017,-0.01617,-0.00809,0.00336,-0.02838,-0.02579,-0.04196,-0.04913
7.901,-0.00244,-0.03738,-0.03387,0.02167,-0.0264,-0.04562,-0.01083,-0.00885,0.17395,-0.01328,-0.00534,0.00458,-0.02686,-0.02884,-0.15533,0.03098
7.9015,-0.00244,-0.03616,-0.03326,0.03021,-0.02579,-0.04562,-0.01297,-0.00824,0.26413,-0.00885,-0.00107,0.00626,-0.0267,-0.03021,-0.20523,0.08881
7.902,-0.0032,-0.0354,-0.03265,0.03754,-0.02472,-0.0441,-0.01419,-0.00732,0.35019,-0.00504,0.00122,0.00671,-0.03128,-0.0293,-0.12741,0.09354
7.9025,-0.00351,-0.03677,-0.03342,0.03174,-0.02441,-0.04318,-0.01419,-0.00671,0.39825,-0.0029,0.00107,0.00488,-0.03738,-0.02655,0.0206,0.05997
7.903,-0.00397,-0.03891,-0.03387,0.01205,-0.02502,-0.04379,-0.01465,-0.00595,0.42023,-0.00488,0.00137,-0.00107,-0.04425,-0.02182,0.11795,0.00778
