time,RectFemL,VastusMedL,VastusLatL,TibAntL,HamMedL,HamLatL,GastroMedL,GastroLatL,RectFemR,VastusMedR,VastusLatR,TibAntR,HamMedR,HamLatR,GastroMedR,GastroLatR
7.98,0.00336,-0.02411,-0.26291,0.01038,-0.04349,-0.06454,-0.01617,0.01785,-0.78827,-0.00854,-0.00641,0.00183,-0.06516,-0.00778,0.05646,0.37369
7.9805,0.00809,-0.03769,-0.23285,0.01007,-0.04135,-0.05859,-0.0148,0.01205,-0.79956,-0.01038,-0.00565,0.00656,-0.07904,0.00763,-0.0946,0.31906
7.981,0.01678,-0.04105,-0.21103,0.01038,-0.03754,-0.04547,-0.01297,0.00656,-0.81009,-0.01205,-0.00839,0.0087,-0.09125,0.02838,-0.14297,0.33493
7.9815,0.02686,-0.03448,-0.19928,0.01022,-0.03387,-0.01846,-0.00977,0.00412,-0.81879,-0.01373,-0.01099,0.00809,-0.09903,0.0499,-0.11978,0.35004
7.982,0.03372,-0.02075,-0.16052,0.00717,-0.02884,0.01678,-0.00839,0.00168,-0.83054,-0.01495,-0.01328,0.00595,-0.10101,0.06348,-0.03998,0.28122
7.9825,0.03769,0.00015,-0.0708,0.0032,-0.02487,0.0441,-0.00809,-0.00504,-0.85159,-0.01648,-0.0145,0.0032,-0.09827,0.0705,0.08316,0.14725
7.983,0.03906,0.01999,0.02563,0.00107,-0.02304,0.05768,-0.01007,-0.0148,-0.87112,-0.02151,-0.01633,0.00259,-0.0914,0.07904,0.16159,0.02182
7.9835,0.04074,0.03281,0.05936,0.00351,-0.02182,0.06134,-0.01297,-0.01907,-0.8728,-0.02777,-0.01892,0.00397,-0.08118,0.09018,0.09232,-0.07874
7.984,0.04456,0.03845,0.02762,0.01053,-0.01907,0.06424,-0.01526,-0.01389,-0.86548,-0.03235,-0.0235,0.00519,-0.07294,0.09293,-0.12512,-0.17258
7.9845,0.04913,0.04105,-0.01816,0.01617,-0.01389,0.0679,-0.0148,-0.00458,-0.86502,-0.03265,-0.03204,0.00488,-0.06714,0.07904,-0.3891,-0.2417
7.985,0.0499,0.04044,-0.047,0.0148,-0.00717,0.07202,-0.0148,-0.00168,-0.86975,-0.02899,-0.04074,0.00259,-0.06516,0.05203,-0.58624,-0.24811
7.9855,0.04074,0.04074,-0.07706,0.00641,-0.00183,0.07248,-0.01526,-0.00839,-0.87326,-0.02686,-0.04761,0.00275,-0.06592,0.02075,-0.65765,-0.20416
7.986,0.02304,0.04501,-0.13367,-0.00305,0.00092,0.04547,-0.01709,-0.01999,-0.88425,-0.0267,-0.05173,0.00931,-0.06638,-0.00992,-0.61523,-0.16724
7.9865,0.00885,0.05035,-0.21606,-0.00961,0.00183,-0.03143,-0.01617,-0.02609,-0.91599,-0.03067,-0.04776,0.02548,-0.06516,-0.04227,-0.49438,-0.16586
7.987,0.00534,0.047,-0.29739,-0.01312,-0.00061,-0.14328,-0.01312,-0.02457,-0.99091,-0.03418,-0.04044,0.04059,-0.06073,-0.07507,-0.31143,-0.16296
7.9875,0.00854,0.03357,-0.33798,-0.02045,-0.00397,-0.22003,-0.01053,-0.01801,-1.11526,-0.03647,-0.02975,0.04074,-0.05371,-0.10513,-0.06744,-0.13168
7.988,0.01083,0.0177,-0.32562,-0.03571,-0.00931,-0.2066,-0.01053,-0.01205,-1.26785,-0.03906,-0.01541,0.01572,-0.04715,-0.12817,0.20096,-0.11658
7.9885,0.0116,0.00595,-0.28702,-0.05798,-0.01999,-0.12863,-0.01236,-0.00717,-1.45767,-0.03998,0.00214,-0.02594,-0.04105,-0.14374,0.41962,-0.17136
7.989,0.01617,-0.00351,-0.25528,-0.08133,-0.03464,-0.05447,-0.01419,-0.00183,-1.76117,-0.04013,0.0177,-0.05829,-0.0354,-0.15854,0.49561,-0.2594
7.9895,0.02274,-0.01266,-0.22598,-0.10117,-0.04715,-0.02899,-0.01617,0.00427,-2.21649,-0.03876,0.02914,-0.06302,-0.02792,-0.17761,0.38788,-0.29953
7.99,0.02625,-0.01923,-0.16525,-0.11459,-0.05615,-0.04089,-0.01801,0.00626,-2.72858,-0.03815,0.0322,-0.0502,-0.01846,-0.19501,0.15564,-0.27344
7.9905,0.02808,-0.02029,-0.05615,-0.11383,-0.06287,-0.06683,-0.01984,0.00275,-3.13675,-0.0386,0.02899,-0.04089,-0.00977,-0.2005,-0.06454,-0.24078
7.991,0.03189,-0.01541,0.08087,-0.09048,-0.06943,-0.09308,-0.01968,-0.00031,-3.36731,-0.04059,0.02243,-0.04181,-0.00351,-0.1915,-0.16022,-0.25284
7.9915,0.03891,-0.01175,0.2092,-0.047,-0.07538,-0.11108,-0.01617,0.00443,-3.45627,-0.04166,0.02213,-0.04196,-0.00046,-0.17563,-0.12039,-0.30106
7.992,0.04242,-0.01785,0.3067,0.00397,-0.07736,-0.11993,-0.01144,0.01389,-3.45596,-0.03906,0.01419,-0.02609,0.00015,-0.15732,-0.0174,-0.33569
7.9925,0.03662,-0.03616,0.36758,0.04898,-0.07294,-0.13062,-0.00763,0.01984,-3.39233,-0.02975,-0.01419,0.00687,0.00153,-0.13626,0.06958,-0.3067
7.993,0.02213,-0.06027,0.38345,0.07507,-0.06317,-0.1532,-0.00763,0.01999,-3.28873,-0.01816,-0.06836,0.03998,0.0029,-0.11276,0.103,-0.19638
7.9935,0.00763,-0.08118,0.34103,0.07919,-0.05142,-0.18539,-0.00809,0.0174,-3.17307,-0.00549,-0.13794,0.04776,0.00122,-0.09384,0.11536,-0.04288
7.994,-0.00473,-0.0943,0.24887,0.07629,-0.03998,-0.20004,-0.00916,0.01602,-3.05771,0.00595,-0.19135,0.02563,-0.00168,-0.07874,0.16922,0.07858
7.9945,-0.01694,-0.09628,0.1442,0.08331,-0.02869,-0.17502,-0.01038,0.01678,-2.93304,0.01419,-0.21362,-0.00046,-0.0029,-0.06531,0.27527,0.11627
7.995,-0.03021,-0.09064,0.07324,0.09277,-0.01816,-0.11642,-0.01114,0.01892,-2.79526,0.01404,-0.21057,-0.00412,-0.00122,-0.0528,0.3511,0.08911
7.9955,-0.04028,-0.08484,0.05325,0.08209,-0.00748,-0.05676,-0.01251,0.01801,-2.66632,0.00336,-0.1976,0.01755,0.00214,-0.04059,0.34592,0.05692
7.996,-0.04135,-0.08713,0.06744,0.04181,0.0,-0.02396,-0.01755,0.01083,-2.58224,-0.01465,-0.17502,0.04593,0.00259,-0.02777,0.33127,0.05127
7.9965,-0.03555,-0.09766,0.08163,-0.00534,0.0058,-0.01511,-0.02914,-0.00488,-2.55966,-0.03189,-0.13367,0.06592,0.00076,-0.01358,0.37857,0.05768
7.997,-0.02609,-0.11337,0.0766,-0.03708,0.01068,-0.00961,-0.0415,-0.02655,-2.57126,-0.04242,-0.07782,0.07156,0.0,0.00336,0.42038,0.06088
7.9975,-0.0145,-0.12848,0.05661,-0.04913,0.01434,0.0029,-0.04654,-0.04807,-2.56531,-0.04791,-0.0206,0.06851,-0.00015,0.02167,0.34821,0.06088
7.998,-0.00122,-0.13992,0.03143,-0.05356,0.01724,0.00961,-0.03937,-0.05951,-2.4939,-0.04944,0.02701,0.06607,0.0,0.04074,0.19226,0.0679
7.9985,0.01053,-0.14709,0.00473,-0.06104,0.01907,0.00183,-0.02975,-0.0592,-2.33627,-0.04974,0.06409,0.06638,-0.00153,0.05646,0.07767,0.07797
7.999,0.01633,-0.14618,-0.01953,-0.07126,0.02029,-0.02151,-0.03387,-0.05081,-2.11121,-0.05157,0.0975,0.05615,-0.00275,0.06393,0.04959,0.08621
7.9995,0.01862,-0.13153,-0.03601,-0.08087,0.01968,-0.047,-0.05081,-0.04074,-1.86005,-0.05371,0.13382,0.0325,-0.00351,0.06317,0.04745,0.09003
8.0,0.01953,-0.1033,-0.04608,-0.09109,0.01938,-0.05112,-0.05554,-0.03128,-1.61072,-0.05753,0.16693,0.00702,-0.00549,0.05463,0.01831,0.09277
8.0005,0.02243,-0.07385,-0.05356,-0.10101,0.01785,-0.02319,-0.03006,-0.02106,-1.37268,-0.06516,0.19638,-0.00641,-0.00778,0.04059,-0.02243,0.09369
8.001,0.0238,-0.0621,-0.06424,-0.09979,0.01617,0.01892,-0.00122,-0.01266,-1.13953,-0.06958,0.2121,-0.00916,-0.009,0.02686,-0.04837,0.09018
8.0015,0.02121,-0.06958,-0.07538,-0.07767,0.00931,0.0444,-0.01083,-0.01236,-0.89722,-0.06195,0.20737,-0.0116,-0.00778,0.0177,-0.0528,0.07996
8.002,0.01663,-0.08408,-0.08484,-0.04135,-0.00183,0.04089,-0.05295,-0.01984,-0.65262,-0.04364,0.17487,-0.01862,-0.00717,0.01099,-0.03342,0.06744
8.0025,0.01144,-0.0943,-0.09262,-0.00793,-0.01785,0.02029,-0.08118,-0.02701,-0.43625,-0.0148,0.12085,-0.02777,-0.00854,0.00412,0.0029,0.0589
8.003,0.00671,-0.09735,-0.09659,0.0119,-0.0325,-0.00977,-0.07568,-0.02151,-0.25513,0.01328,0.07538,-0.04196,-0.01282,-0.00488,0.01602,0.05737
8.0035,0.00214,-0.09583,-0.09918,0.01755,-0.04562,-0.05646,-0.05142,-0.00427,-0.08041,0.03693,0.05768,-0.06302,-0.01785,-0.01389,-0.03098,0.05692
8.004,0.0,-0.08804,-0.09613,0.0148,-0.05722,-0.11597,-0.02365,0.00885,0.10925,0.05798,0.06027,-0.08286,-0.02213,-0.02014,-0.10544,0.0502
8.0045,-0.00168,-0.07339,-0.08743,0.0087,-0.065,-0.16617,0.00565,0.00565,0.29739,0.06882,0.05554,-0.08224,-0.02335,-0.02045,-0.14328,0.03906
8.005,-0.00687,-0.05188,-0.07309,0.00702,-0.06622,-0.18555,0.03677,-0.01083,0.46204,0.06943,0.03052,-0.05814,-0.02365,-0.0145,-0.13428,0.03006
8.0055,-0.01831,-0.0264,-0.05707,0.01038,-0.06546,-0.1796,0.06363,-0.02731,0.60333,0.06241,-0.01083,-0.02686,-0.0238,-0.00336,-0.11719,0.02426
8.006,-0.0322,0.00153,-0.04822,0.01389,-0.06577,-0.16663,0.07767,-0.03479,0.73807,0.05081,-0.06699,-0.00809,-0.02594,0.00671,-0.11765,0.01862
8.0065,-0.04074,0.03616,-0.04822,0.01099,-0.07111,-0.15198,0.07339,-0.03632,0.87463,0.04272,-0.12497,-0.0058,-0.02853,0.01251,-0.12619,0.01404
8.007,-0.04318,0.08347,-0.05386,0.00534,-0.08194,-0.1329,0.05524,-0.03479,1.00967,0.04333,-0.16418,-0.01511,-0.03281,0.01251,-0.1297,0.01022
8.0075,-0.04288,0.13428,-0.06332,0.00427,-0.09674,-0.10788,0.03296,-0.02884,1.13403,0.03906,-0.16159,-0.02258,-0.0386,0.0116,-0.12924,0.00916
8.008,-0.04379,0.16174,-0.07401,0.00717,-0.11719,-0.08072,0.01282,-0.02045,1.23962,0.03052,-0.12985,-0.01465,-0.04379,0.0116,-0.12863,0.01038
8.0085,-0.04623,0.14206,-0.08118,0.00809,-0.13611,-0.05875,-0.00732,-0.00839,1.32599,0.01602,-0.08133,0.00366,-0.04715,0.00916,-0.12711,0.01221
8.009,-0.04791,0.08636,-0.08301,0.00549,-0.14633,-0.04135,-0.0293,0.00854,1.39923,0.00046,-0.02228,0.00427,-0.05112,0.00519,-0.1239,0.01175
8.0095,-0.04822,0.02472,-0.08469,0.00198,-0.13824,-0.02853,-0.04776,0.03052,1.46591,-0.01114,0.04623,-0.02884,-0.05463,0.00122,-0.12253,0.00931
8.01,-0.0499,-0.02228,-0.09003,0.0029,-0.12009,-0.01785,-0.05463,0.04471,1.51672,-0.02441,0.10193,-0.0766,-0.0563,0.00183,-0.12146,0.00488
8.0105,-0.05447,-0.05814,-0.0975,0.0058,-0.09964,-0.00839,-0.04196,0.04181,1.539,-0.03952,0.13443,-0.10605,-0.05615,0.00336,-0.12009,0.00122
8.011,-0.05859,-0.09537,-0.10056,0.00778,-0.08102,-0.00061,-0.0087,0.03082,1.53488,-0.04852,0.13397,-0.09995,-0.05569,0.00565,-0.11551,0.00076
8.0115,-0.06042,-0.13199,-0.09567,0.00809,-0.0621,0.00412,0.02747,0.02808,1.5271,-0.05249,0.12039,-0.06393,-0.056,0.00534,-0.10666,0.00092
8.012,-0.0589,-0.15228,-0.09201,0.00732,-0.04562,0.00153,0.03494,0.03296,1.51672,-0.05096,0.10529,-0.02441,-0.05615,0.00275,-0.09705,0.00046
8.0125,-0.05508,-0.14526,-0.09537,0.00641,-0.03494,-0.00732,0.00916,0.01831,1.46927,-0.0563,0.08499,-0.00488,-0.05508,0.0,-0.0885,-0.00031
8.013,-0.04745,-0.12375,-0.10468,0.00504,-0.02853,-0.01602,-0.01526,-0.03723,1.38245,-0.06104,0.05203,-0.00229,-0.05432,0.00229,-0.08408,-0.00168
8.0135,-0.03418,-0.1062,-0.12115,0.00229,-0.02518,-0.01648,-0.00778,-0.1091,1.31531,-0.05463,0.009,0.01144,-0.05661,0.01129,-0.07935,-0.00198
8.014,-0.01938,-0.0946,-0.14313,-0.00259,-0.02014,-0.01053,0.01617,-0.14099,1.31042,-0.03937,-0.03464,0.04684,-0.05966,0.01907,-0.07233,0.00076
8.0145,-0.00778,-0.08514,-0.16052,-0.00961,-0.01678,-0.00641,0.02289,-0.10696,1.34476,-0.02563,-0.06363,0.0885,-0.06088,0.02014,-0.06531,0.00351
8.015,-0.00351,-0.07965,-0.1709,-0.01617,-0.01358,-0.00488,-0.00061,-0.04135,1.3739,-0.02045,-0.08041,0.11017,-0.05951,0.01785,-0.07111,0.00076
8.0155,-0.00305,-0.08118,-0.17441,-0.01862,-0.00824,-0.00229,-0.0412,0.00763,1.38718,-0.01862,-0.11002,0.11032,-0.06042,0.01663,-0.09079,-0.01297
8.016,-0.0029,-0.08484,-0.17136,-0.01373,-0.00061,0.00198,-0.06989,0.02625,1.38611,-0.01663,-0.15396,0.1088,-0.06348,0.01816,-0.11261,-0.03296
8.0165,-0.00229,-0.08026,-0.15808,-0.01007,0.00565,0.00336,-0.05951,0.02426,1.37161,-0.01297,-0.17914,0.11551,-0.06805,0.01862,-0.12375,-0.04959
8.017,-0.00031,-0.06775,-0.13428,-0.01038,0.00824,0.00092,-0.00214,-0.00534,1.35864,-0.03235,-0.1622,0.11612,-0.07141,0.01724,-0.12894,-0.05844
8.0175,-0.00046,-0.05844,-0.10406,-0.01083,0.0061,-0.00275,0.07233,-0.09644,1.37466,-0.07187,-0.11215,0.10117,-0.07462,0.01282,-0.12741,-0.0592
8.018,-0.00305,-0.05646,-0.06744,-0.01083,0.00397,-0.00381,0.11368,-0.23651,1.43585,-0.10071,-0.06454,0.07675,-0.08011,-0.00092,-0.11108,-0.04745
8.0185,-0.00565,-0.06271,-0.02655,-0.01053,0.00275,-0.00702,0.10056,-0.32867,1.53702,-0.10269,-0.03067,0.05341,-0.08636,-0.02777,-0.07584,-0.01556
8.019,-0.00839,-0.07004,0.02106,-0.01358,-0.00046,-0.01404,0.05768,-0.25177,1.64948,-0.0795,-0.00122,0.03555,-0.09201,-0.06271,-0.05478,0.01923
8.0195,-0.01099,-0.07339,0.07172,-0.01816,-0.00381,-0.02167,0.01984,0.00198,1.71646,-0.05524,0.03952,0.0209,-0.09399,-0.09628,-0.08347,0.02792
8.02,-0.01266,-0.07004,0.11536,-0.02136,-0.00565,-0.02563,-0.00168,0.2803,1.69083,-0.03662,0.07278,0.00122,-0.09155,-0.12238,-0.14999,0.0032
8.0205,-0.01251,-0.0621,0.13504,-0.02243,-0.00626,-0.02686,-0.01862,0.39597,1.61285,-0.02533,0.08453,-0.02457,-0.08545,-0.13611,-0.20584,-0.03952
8.021,-0.01266,-0.06119,0.12527,-0.0206,-0.00824,-0.02945,-0.04517,0.28793,1.58691,-0.01205,0.06546,-0.04623,-0.07706,-0.13596,-0.22324,-0.07767
8.0215,-0.01236,-0.07538,0.09399,-0.01907,-0.01007,-0.03265,-0.07568,0.06699,1.62659,0.00473,0.02335,-0.05493,-0.0679,-0.11826,-0.20355,-0.09872
8.022,-0.01328,-0.08835,0.0589,-0.01938,-0.0119,-0.03403,-0.08804,-0.08392,1.60706,0.02075,-0.02121,-0.0528,-0.05783,-0.08408,-0.13412,-0.10101
8.0225,-0.01434,-0.07675,0.03265,-0.02106,-0.01556,-0.03464,-0.07553,-0.06088,1.41403,0.03036,-0.0444,-0.04868,-0.04852,-0.04303,-0.00076,-0.08804
8.023,-0.01282,-0.04181,0.01663,-0.02182,-0.01953,-0.03555,-0.05981,0.07782,1.082,0.02853,-0.047,-0.04425,-0.04135,-0.00961,0.15305,-0.07248
8.0235,-0.00885,-0.00961,0.00717,-0.01846,-0.0238,-0.03784,-0.0621,0.19669,0.76508,0.01251,-0.05112,-0.04761,-0.03586,0.00641,0.22644,-0.06195
8.024,-0.00366,0.00244,0.00046,-0.0145,-0.02853,-0.03906,-0.08453,0.24033,0.57419,-0.00397,-0.07034,-0.06027,-0.03265,0.00748,0.16922,-0.0592
8.0245,0.00031,0.00031,-0.00351,-0.01251,-0.03052,-0.03784,-0.11063,0.24811,0.46555,-0.00305,-0.09705,-0.06866,-0.02945,0.00229,0.03708,-0.05585
8.025,0.00244,-0.00427,-0.00961,-0.01465,-0.03098,-0.03708,-0.12466,0.24185,0.34714,0.01511,-0.11215,-0.056,-0.02594,-0.00565,-0.07858,-0.05035
8.0255,0.00198,-0.009,-0.01511,-0.01495,-0.03357,-0.03815,-0.11475,0.19653,0.21988,0.03281,-0.11688,-0.02747,-0.02274,-0.01602,-0.15152,-0.04608
8.026,-0.00229,-0.01297,-0.02014,-0.01511,-0.03616,-0.04105,-0.08621,0.10284,0.12665,0.04349,-0.12375,-0.00366,-0.01953,-0.03113,-0.2182,-0.04974
8.0265,-0.01068,-0.01511,-0.02426,-0.01694,-0.03616,-0.0412,-0.06546,-0.00885,0.04395,0.04807,-0.121,0.01373,-0.0174,-0.05219,-0.29541,-0.06546
8.027,-0.01862,-0.01343,-0.02853,-0.02228,-0.03387,-0.03693,-0.07309,-0.08743,-0.10193,0.0473,-0.09094,0.03693,-0.0174,-0.07401,-0.31982,-0.08331
8.0275,-0.01999,-0.01389,-0.03235,-0.02625,-0.02991,-0.03326,-0.09811,-0.10834,-0.31555,0.03983,-0.0296,0.06607,-0.01831,-0.08881,-0.20798,-0.09415
8.028,-0.01328,-0.02121,-0.03571,-0.02365,-0.02731,-0.03281,-0.09308,-0.1004,-0.44617,0.02029,0.03189,0.08316,-0.01999,-0.09033,0.01648,-0.09109
8.0285,-0.00305,-0.02777,-0.03784,-0.01755,-0.02792,-0.03555,-0.02106,-0.11017,-0.36331,-0.00992,0.07721,0.07385,-0.02075,-0.07736,0.21225,-0.08072
8.029,0.00473,-0.0235,-0.03723,-0.0148,-0.0296,-0.03754,0.07874,-0.12634,-0.24536,-0.0412,0.11108,0.04822,-0.01938,-0.05844,0.29587,-0.07767
8.0295,0.00916,-0.00946,-0.03311,-0.01434,-0.02731,-0.03708,0.11887,-0.10162,-0.44098,-0.065,0.12802,0.02441,-0.01755,-0.04257,0.32562,-0.08911
8.03,0.01221,0.00381,-0.0293,-0.0148,-0.02136,-0.0351,0.0676,-0.05051,-0.95612,-0.07614,0.09018,0.01053,-0.01495,-0.03204,0.35416,-0.10406
8.0305,0.01556,0.00504,-0.02945,-0.01312,-0.0116,-0.03754,-0.00443,-0.04944,-1.27151,-0.08423,-0.03799,0.00168,-0.01083,-0.0264,0.33524,-0.10544
8.031,0.01953,-0.00183,-0.0322,-0.00961,-0.00336,-0.04318,-0.00748,-0.11688,-0.73257,-0.08102,-0.20126,-0.00366,-0.00443,-0.02167,0.2388,-0.08972
8.0315,0.02335,-0.00931,-0.03372,-0.00549,0.00198,-0.04822,0.05219,-0.17197,0.6897,-0.06302,-0.30228,-0.00198,0.00381,-0.01923,0.15884,-0.07523
8.032,0.02716,-0.01541,-0.03403,0.0,0.00656,-0.05096,0.09827,-0.14313,2.13303,-0.02457,-0.28824,0.00153,0.00778,-0.01999,0.18021,-0.06958
8.0325,0.03052,-0.02396,-0.03555,0.00427,0.00778,-0.05203,0.08698,-0.06363,2.74139,0.01831,-0.21027,-0.00748,0.00717,-0.01602,0.24872,-0.06927
8.033,0.03296,-0.03525,-0.04074,0.00488,0.00946,-0.05417,0.03693,-0.00717,2.55386,0.0473,-0.12634,-0.0386,0.00351,-0.00397,0.25146,-0.065
8.0335,0.03494,-0.03906,-0.04562,0.00259,0.01266,-0.05661,-0.0145,0.01541,2.20291,0.04913,-0.05051,-0.07858,0.00229,0.01328,0.18768,-0.05859
8.034,0.03616,-0.03281,-0.04913,-0.00198,0.01617,-0.05768,-0.0351,0.04837,1.99265,0.04074,0.00671,-0.10406,0.0032,0.02625,0.12863,-0.05615
8.0345,0.03616,-0.02365,-0.04974,-0.0061,0.01297,-0.05875,-0.00397,0.10559,1.72852,0.02518,0.02243,-0.1091,0.00092,0.03067,0.11948,-0.05585
8.035,0.0322,-0.01892,-0.04761,-0.00839,0.00763,-0.06134,0.05676,0.13733,1.19339,0.01419,0.0029,-0.10651,-0.00412,0.03098,0.12787,-0.0531
8.0355,0.02426,-0.02075,-0.04288,-0.00992,0.00137,-0.0647,0.0824,0.09811,0.4454,0.00244,-0.02075,-0.10941,-0.00763,0.03082,0.1207,-0.04929
8.036,0.01556,-0.02533,-0.04059,-0.01007,-0.00351,-0.06821,0.03876,0.01526,-0.22598,-0.01663,-0.02762,-0.11383,-0.00824,0.03006,0.10254,-0.05188
8.0365,0.00961,-0.03021,-0.04013,-0.00977,-0.00961,-0.07019,-0.03204,-0.0473,-0.54047,-0.03418,-0.02319,-0.10193,-0.009,0.02731,0.0853,-0.06393
8.037,0.0087,-0.03387,-0.03906,-0.00992,-0.01816,-0.0708,-0.06683,-0.06607,-0.54657,-0.04868,-0.03479,-0.05737,-0.01373,0.02151,0.06668,-0.0798
8.0375,0.00961,-0.03571,-0.03708,-0.0116,-0.02594,-0.07126,-0.05402,-0.07111,-0.58746,-0.04776,-0.05173,0.01328,-0.0174,0.01358,0.04486,-0.09003
8.038,0.01022,-0.03693,-0.0351,-0.01282,-0.03403,-0.07294,-0.01892,-0.09262,-0.85724,-0.0444,-0.04959,0.08163,-0.02014,0.00214,0.01984,-0.0882
8.0385,0.00992,-0.03677,-0.03265,-0.01129,-0.04395,-0.07294,0.01343,-0.12314,-1.22955,-0.04532,-0.02151,0.12436,-0.02274,-0.01022,-0.00381,-0.08102
8.039,0.00702,-0.0351,-0.03387,-0.00504,-0.05341,-0.07065,0.02945,-0.13748,-1.55579,-0.05081,0.02151,0.12955,-0.02777,-0.01755,-0.02014,-0.07416
8.0395,0.00076,-0.03372,-0.03052,0.00381,-0.06439,-0.0676,0.03128,-0.13748,-1.84097,-0.05844,0.06393,0.09705,-0.03342,-0.01572,-0.02029,-0.06866
8.04,-0.00885,-0.03189,-0.02945,0.00916,-0.07477,-0.06607,0.01831,-0.15442,-2.0816,-0.06714,0.09277,0.04486,-0.03891,-0.00732,-0.00671,-0.06256
8.0405,-0.01633,-0.03189,-0.02594,0.00717,-0.08408,-0.06683,-0.02777,-0.19592,-2.17178,-0.07172,0.09064,0.00565,-0.04471,0.00336,0.00397,-0.05844
8.041,-0.01633,-0.03296,-0.0267,-0.00137,-0.09293,-0.0676,-0.11551,-0.21179,-2.08939,-0.07462,0.05341,-0.00595,-0.04868,0.01465,0.0029,-0.06195
8.0415,-0.01175,-0.03372,-0.02914,-0.01022,-0.10025,-0.0676,-0.19608,-0.15015,-1.98212,-0.07553,0.00885,-0.00458,-0.04974,0.02304,-0.0116,-0.06683
8.042,-0.00717,-0.03372,-0.0325,-0.01434,-0.10193,-0.06683,-0.20157,-0.00931,-1.97632,-0.06973,0.01099,-0.01144,-0.04837,0.02731,-0.02518,-0.06409
8.0425,-0.00504,-0.03357,-0.03464,-0.01389,-0.0975,-0.06516,-0.12665,0.16068,-2.01645,-0.05432,0.05981,-0.02319,-0.04654,0.02609,-0.03815,-0.05264
8.043,-0.0032,-0.0351,-0.03387,-0.01251,-0.09079,-0.06287,-0.03891,0.26062,-1.95938,-0.01968,0.11948,-0.02136,-0.04562,0.01999,-0.04501,-0.03876
8.0435,0.00031,-0.03784,-0.03448,-0.0116,-0.08743,-0.06042,-0.00092,0.18738,-1.7569,0.02869,0.16342,0.01129,-0.04471,0.01358,-0.04181,-0.02716
8.044,0.00443,-0.03891,-0.03464,-0.00931,-0.08148,-0.05676,-0.01999,-0.05188,-1.49918,0.08667,0.1889,0.06348,-0.04379,0.00916,-0.0264,-0.01907
8.0445,0.00656,-0.03906,-0.03555,-0.00748,-0.07278,-0.05173,-0.05768,-0.32242,-1.20804,0.12619,0.19821,0.09766,-0.04242,0.00687,-0.0119,-0.01511
8.045,0.0061,-0.04013,-0.03464,-0.0087,-0.06271,-0.04608,-0.065,-0.4689,-0.54169,0.13733,0.17807,0.09338,-0.04196,0.00351,-0.0061,-0.01022
8.0455,0.00473,-0.04211,-0.03143,-0.01205,-0.05615,-0.04425,-0.02304,-0.38528,0.99564,0.12115,0.13718,0.08118,-0.04181,-0.00183,-0.00595,-0.00488
8.046,0.00793,-0.04471,-0.02899,-0.01358,-0.05295,-0.04578,0.03296,-0.06989,3.20007,0.09811,0.10193,0.0972,-0.03967,-0.00717,-0.00122,-0.00107
8.0465,0.01495,-0.04715,-0.02808,-0.01419,-0.05249,-0.04715,0.0531,0.30533,4.88403,0.08118,0.07156,0.12619,-0.03586,-0.00992,0.00641,-0.00473
8.047,0.01938,-0.04929,-0.02655,-0.01358,-0.04944,-0.04776,0.0322,0.495,4.99985,0.05936,0.01801,0.11841,-0.03098,-0.00931,0.01129,-0.01877
8.0475,0.0145,-0.04913,-0.02731,-0.01282,-0.04425,-0.04852,0.01953,0.4451,4.81247,0.03494,-0.06882,0.06271,-0.0264,-0.01099,0.00702,-0.03769
8.048,0.00137,-0.04211,-0.02502,-0.01114,-0.03647,-0.04974,0.05371,0.34058,4.599,0.01114,-0.15274,0.00717,-0.02533,-0.01999,-0.00366,-0.05478
8.0485,-0.01022,-0.03098,-0.02075,-0.00702,-0.02945,-0.0502,0.11032,0.32516,4.72855,-0.00732,-0.17044,-0.00458,-0.02808,-0.0383,-0.01923,-0.06638
8.049,-0.01312,-0.02716,-0.01617,-0.00153,-0.0206,-0.05081,0.13626,0.33661,4.79156,-0.01999,-0.10788,0.01099,-0.03235,-0.05188,-0.03952,-0.07248
8.0495,-0.00839,-0.03342,-0.01282,0.00519,-0.01419,-0.05173,0.11261,0.271,4.67773,-0.02823,-0.00519,0.0061,-0.0325,-0.04761,-0.056,-0.07202
8.05,-0.0029,-0.04196,-0.01205,0.01297,-0.01373,-0.05249,0.06989,0.16739,4.58893,-0.03876,0.0795,-0.03113,-0.02853,-0.02396,-0.06287,-0.06592
8.0505,-0.00046,-0.047,-0.01419,0.01785,-0.01953,-0.05173,0.03601,0.12039,4.59045,-0.05081,0.11917,-0.07233,-0.02304,0.00198,-0.06073,-0.05966
8.051,-0.00015,-0.04837,-0.02258,0.0174,-0.02853,-0.04791,0.00824,0.13382,4.57443,-0.06592,0.1329,-0.07904,-0.0209,0.01892,-0.06073,-0.05188
8.0515,0.00259,-0.04944,-0.03006,0.01129,-0.03769,-0.04272,-0.02869,0.13535,4.51324,-0.08057,0.1329,-0.0412,-0.02274,0.02563,-0.06577,-0.04059
8.052,0.00458,-0.05234,-0.03723,0.00412,-0.04395,-0.03815,-0.0708,0.08743,4.47449,-0.08484,0.12924,0.01068,-0.02487,0.02853,-0.05692,-0.0267
8.0525,0.00504,-0.05432,-0.04105,0.00092,-0.04318,-0.03967,-0.0885,0.01114,4.46823,-0.09033,0.12085,0.02579,-0.02594,0.03159,-0.01862,-0.01862
8.053,0.0029,-0.05432,-0.04044,0.00107,-0.03891,-0.04501,-0.06561,-0.05707,4.4104,-0.09979,0.09583,-0.01175,-0.02625,0.0293,0.03082,-0.03128
8.0535,0.00046,-0.05096,-0.04166,0.00122,-0.03052,-0.05219,-0.02441,-0.09033,4.09973,-0.11429,0.04822,-0.06409,-0.02716,0.01953,0.04669,-0.06104
8.054,-0.00015,-0.04318,-0.04745,-0.00061,-0.02396,-0.05615,-0.00427,-0.06897,3.24463,-0.12711,-0.0145,-0.08209,-0.02686,0.00534,0.01114,-0.08896
8.0545,-0.00015,-0.03143,-0.05798,-0.00366,-0.01694,-0.0589,-0.02396,0.00595,1.84586,-0.13138,-0.07004,-0.05157,-0.02609,-0.00763,-0.03815,-0.0946
8.055,-0.00214,-0.02365,-0.06271,-0.00504,-0.01144,-0.06302,-0.05997,0.09491,0.41351,-0.12299,-0.0975,0.0029,-0.02441,-0.01923,-0.05554,-0.08041
8.0555,-0.00793,-0.02563,-0.0592,-0.00351,-0.00534,-0.07126,-0.0737,0.1239,-0.54794,-0.10162,-0.09888,0.04807,-0.0235,-0.03036,-0.02838,-0.06302
8.056,-0.01587,-0.03464,-0.04883,0.00122,0.00015,-0.07843,-0.04471,0.04303,-1.16684,-0.06897,-0.09186,0.06424,-0.02304,-0.04059,0.01221,-0.05386
8.0565,-0.01968,-0.04166,-0.04074,0.00671,0.00961,-0.07507,0.00992,-0.10239,-1.88553,-0.03098,-0.09567,0.04898,-0.02304,-0.05157,0.02792,-0.05157
8.057,-0.01617,-0.04333,-0.03708,0.00931,0.01572,-0.06256,0.04318,-0.19165,-2.47665,0.01038,-0.11597,0.0061,-0.02426,-0.06622,0.02121,-0.0502
8.0575,-0.00778,-0.04669,-0.0354,0.00641,0.01602,-0.0502,0.0264,-0.13901,-2.02759,0.05264,-0.14084,-0.04608,-0.02731,-0.08163,0.01328,-0.04196
8.058,-0.00076,-0.05508,-0.03464,-0.00183,0.01144,-0.04608,-0.01404,0.02792,-0.55206,0.09628,-0.16785,-0.08987,-0.03067,-0.09247,0.02304,-0.0296
8.0585,0.00061,-0.065,-0.03265,-0.01038,-0.00229,-0.04898,-0.03021,0.18845,0.2565,0.12436,-0.18845,-0.11429,-0.03265,-0.09491,0.03952,-0.01907
8.059,-0.00137,-0.06851,-0.03067,-0.01617,-0.01923,-0.05188,-0.01373,0.20844,-0.91812,0.12558,-0.18707,-0.11398,-0.0322,-0.08896,0.04639,-0.01877
8.0595,-0.00336,-0.06561,-0.03082,-0.01694,-0.03952,-0.05173,0.00717,0.04883,-3.08105,0.1033,-0.15564,-0.09644,-0.02975,-0.08331,0.03647,-0.03113
8.06,-0.00443,-0.06378,-0.03159,-0.01511,-0.05951,-0.0502,0.01633,-0.18936,-4.18274,0.07401,-0.11154,-0.09003,-0.02594,-0.08102,0.02029,-0.04791
8.0605,-0.00595,-0.06638,-0.03082,-0.01602,-0.0737,-0.04715,0.01511,-0.36575,-3.46558,0.05646,-0.07339,-0.11154,-0.0235,-0.07767,0.01373,-0.05722
8.061,-0.00793,-0.07004,-0.02991,-0.02274,-0.07996,-0.04257,0.00519,-0.43167,-1.92383,0.04929,-0.04486,-0.12939,-0.02213,-0.06561,0.01984,-0.05829
8.0615,-0.01007,-0.07095,-0.02869,-0.03479,-0.0795,-0.03662,-0.01343,-0.40894,-0.7605,0.04517,-0.01236,-0.10208,-0.02167,-0.04852,0.02777,-0.05951
8.062,-0.01083,-0.07034,-0.02686,-0.04501,-0.07507,-0.03189,-0.0383,-0.29922,-0.26047,0.03723,0.02213,-0.0415,-0.0209,-0.03448,0.02457,-0.06332
8.0625,-0.01114,-0.06821,-0.0293,-0.04807,-0.07156,-0.03036,-0.06897,-0.10376,-0.27222,0.02716,0.03891,0.00458,-0.01999,-0.02731,0.01175,-0.06607
8.063,-0.01099,-0.065,-0.03296,-0.0444,-0.06653,-0.03082,-0.10147,0.08728,-0.90958,0.01404,0.03769,0.01999,-0.01968,-0.02594,0.00427,-0.06348
8.0635,-0.01007,-0.06073,-0.04105,-0.03967,-0.05783,-0.03311,-0.10742,0.1503,-2.08725,-0.00763,0.03021,0.02716,-0.02014,-0.02655,0.00275,-0.06042
8.064,-0.009,-0.05371,-0.04913,-0.03815,-0.04654,-0.03647,-0.07263,0.06882,-3.07114,-0.04013,0.02472,0.0531,-0.0206,-0.02625,0.00015,-0.05692
8.0645,-0.00763,-0.04456,-0.04913,-0.03937,-0.03738,-0.04105,-0.02457,-0.04852,-3.22723,-0.07599,0.00626,0.10101,-0.02136,-0.02029,-0.01205,-0.05432
8.065,-0.00656,-0.03799,-0.04639,-0.03754,-0.03174,-0.04562,-0.00305,-0.1004,-2.72873,-0.10895,-0.04623,0.15167,-0.0206,-0.01251,-0.02014,-0.05066
8.0655,-0.00473,-0.0386,-0.04837,-0.0322,-0.03372,-0.04868,-0.01923,-0.07263,-2.06619,-0.13138,-0.11551,0.17639,-0.01999,-0.00793,-0.01968,-0.04852
8.066,-0.00275,-0.04807,-0.05341,-0.02487,-0.03464,-0.04807,-0.06012,-0.0177,-1.4537,-0.13901,-0.16708,0.16678,-0.01999,-0.00763,-0.01099,-0.0473
8.0665,-0.00046,-0.06531,-0.05051,-0.01953,-0.03143,-0.04623,-0.09033,-0.00534,-0.92972,-0.12238,-0.19516,0.13962,-0.0206,-0.00748,-0.0061,-0.04807
8.067,0.00214,-0.08575,-0.04288,-0.0174,-0.02609,-0.04456,-0.07034,-0.08209,-0.53604,-0.08408,-0.23788,0.11627,-0.02167,-0.00366,-0.00458,-0.05051
8.0675,0.00259,-0.09674,-0.03586,-0.01709,-0.02075,-0.04364,-0.01022,-0.22934,-0.26016,-0.0351,-0.31662,0.09506,-0.02182,0.00107,-0.00366,-0.05417
8.068,-0.00137,-0.08743,-0.03159,-0.01633,-0.01617,-0.04318,0.01678,-0.34363,0.02625,0.01251,-0.38406,0.06866,-0.02182,0.00015,-0.00168,-0.05524
8.0685,-0.00702,-0.06104,-0.02731,-0.01663,-0.01022,-0.04471,-0.01801,-0.31952,0.67291,0.05447,-0.36606,0.04929,-0.02197,-0.0061,-0.00046,-0.05264
8.069,-0.00961,-0.0325,-0.0209,-0.0174,-0.0061,-0.04456,-0.04211,-0.16739,2.08527,0.09155,-0.26031,0.05325,-0.02426,-0.01419,-0.00275,-0.04837
8.0695,-0.00656,-0.01221,-0.01007,-0.01831,-0.00351,-0.04425,0.00793,-0.00717,3.84705,0.12192,-0.12497,0.06577,-0.02747,-0.01968,-0.00443,-0.0444
8.07,-0.00168,0.00076,0.0032,-0.01907,-0.00427,-0.04211,0.0882,0.07462,4.59549,0.14023,0.01099,0.05524,-0.0296,-0.02014,-0.00122,-0.04074
8.0705,0.00076,0.00732,0.01373,-0.01968,-0.00381,-0.04135,0.11948,0.09537,3.61603,0.14404,0.14694,0.01801,-0.02991,-0.01846,0.0058,-0.0354
8.071,-0.00031,0.00748,0.00626,-0.01755,-0.00397,-0.04181,0.09689,0.0946,1.83701,0.13214,0.26489,-0.01801,-0.02808,-0.0148,0.00946,-0.03098
8.0715,-0.00015,0.00092,-0.02258,-0.01328,-0.00946,-0.04196,0.06531,0.08179,0.66071,0.10376,0.30685,-0.03143,-0.02853,-0.01129,0.00748,-0.02701
8.072,0.00137,-0.00732,-0.06042,-0.01114,-0.02045,-0.03937,0.04364,0.07416,0.33203,0.05798,0.2359,-0.02991,-0.03021,-0.00854,0.00717,-0.02258
8.0725,-0.00061,-0.01373,-0.0795,-0.01312,-0.03311,-0.03586,0.01556,0.10162,0.13718,0.00641,0.09537,-0.03052,-0.03098,-0.01022,0.01221,-0.01999
8.073,-0.00839,-0.01465,-0.0737,-0.01694,-0.04211,-0.03494,-0.01938,0.16327,-0.34424,-0.04318,-0.00351,-0.03342,-0.03265,-0.01678,0.01907,-0.02243
8.0735,-0.01877,-0.01205,-0.05295,-0.01495,-0.04517,-0.03601,-0.03372,0.24109,-0.82657,-0.08499,0.01083,-0.02808,-0.03387,-0.02289,0.02335,-0.0267
8.074,-0.02518,-0.00732,-0.03601,-0.009,-0.04532,-0.03769,-0.01663,0.3241,-0.76477,-0.12619,0.10757,-0.0116,-0.03464,-0.02716,0.02304,-0.02686
8.0745,-0.02655,-0.00641,-0.02441,-0.0032,-0.04562,-0.03906,0.01236,0.35934,0.1001,-0.16647,0.21042,0.00732,-0.03708,-0.03006,0.01984,-0.02045
8.075,-0.02472,-0.01114,-0.01556,-0.00015,-0.04318,-0.04013,0.02777,0.28381,1.25015,-0.19699,0.27649,0.01617,-0.04211,-0.03174,0.01724,-0.01755
8.0755,-0.01984,-0.02106,-0.00305,-0.00031,-0.03922,-0.04059,0.01877,0.1088,1.62903,-0.20828,0.30762,-0.00031,-0.04623,-0.02914,0.01938,-0.02197
8.076,-0.01541,-0.03296,0.0032,-0.00122,-0.03159,-0.04181,-0.00397,-0.07446,0.80322,-0.20416,0.3067,-0.03159,-0.04852,-0.01938,0.02884,-0.02716
8.0765,-0.009,-0.04318,0.00702,-0.0029,-0.02502,-0.04059,-0.01572,-0.18402,-0.28,-0.19333,0.27679,-0.03677,-0.04807,-0.01129,0.03784,-0.02441
8.077,-0.00305,-0.05005,0.0087,-0.00473,-0.01648,-0.03906,-0.00931,-0.18951,-0.19882,-0.18723,0.21912,0.00183,-0.0473,-0.01175,0.03983,-0.01373
8.0775,0.00015,-0.05432,0.01053,-0.00549,-0.00839,-0.03937,-0.00854,-0.10239,1.33636,-0.18326,0.13138,0.04608,-0.04684,-0.01724,0.03464,-0.00351
8.078,-0.00092,-0.05432,0.00916,-0.00473,0.00046,-0.04181,-0.02609,0.01495,3.20648,-0.17303,0.02396,0.06073,-0.04501,-0.01724,0.02167,-0.00259
8.0785,-0.00443,-0.05356,0.00183,-0.00381,0.00565,-0.04288,-0.05219,0.07263,4.21982,-0.1564,-0.07919,0.06989,-0.03952,-0.01129,0.00946,-0.00763
8.079,-0.00702,-0.05219,-0.01144,-0.00397,0.00717,-0.04196,-0.06561,0.03601,4.28604,-0.13428,-0.15274,0.11093,-0.03372,-0.00549,0.00168,-0.01266
8.0795,-0.00702,-0.05219,-0.02747,-0.00565,0.00687,-0.04089,-0.06165,-0.03418,4.11926,-0.11078,-0.19821,0.15823,-0.02991,-0.00366,0.00534,-0.01389
8.08,-0.00458,-0.05249,-0.03876,-0.00641,0.00626,-0.03906,-0.05005,-0.05981,4.17511,-0.08713,-0.23666,0.14725,-0.02731,-0.00412,0.01419,-0.01663
8.0805,-0.00275,-0.05157,-0.0415,-0.00504,0.00549,-0.04013,-0.03723,-0.03601,4.32632,-0.06714,-0.29495,0.06317,-0.02686,-0.00488,0.02441,-0.02304
8.081,-0.00061,-0.05096,-0.03937,-0.00244,0.00244,-0.04105,-0.03021,-0.01053,4.34753,-0.05356,-0.36392,-0.03006,-0.02777,-0.00778,0.03098,-0.02899
8.0815,0.00092,-0.0499,-0.0351,-0.00031,-0.00336,-0.04257,-0.03021,-0.00687,4.26849,-0.05096,-0.39902,-0.06622,-0.03036,-0.01373,0.02762,-0.02716
8.082,0.00183,-0.04944,-0.03418,0.00092,-0.00793,-0.04349,-0.0351,-0.00793,4.2186,-0.05768,-0.35706,-0.0473,-0.03357,-0.02106,0.02487,-0.02151
8.0825,0.00183,-0.04822,-0.03662,0.00229,-0.00854,-0.04623,-0.04181,0.00107,4.21173,-0.07858,-0.24536,-0.03647,-0.03738,-0.02625,0.02853,-0.02167
8.083,0.00031,-0.047,-0.03906,0.00153,-0.00946,-0.04852,-0.04379,0.01251,4.17694,-0.1181,-0.10895,-0.08072,-0.04089,-0.02747,0.0354,-0.03204
8.0835,-0.00275,-0.04547,-0.03876,0.00137,-0.01251,-0.05005,-0.04074,0.01251,4.03412,-0.17441,0.02518,-0.15793,-0.04333,-0.02731,0.02853,-0.04639
8.084,-0.00534,-0.04364,-0.03876,-0.00015,-0.01892,-0.05005,-0.03632,0.00443,3.70117,-0.22781,0.16174,-0.1976,-0.04379,-0.02747,0.00397,-0.05295
8.0845,-0.0058,-0.04227,-0.03799,-0.00198,-0.0235,-0.05112,-0.03433,-0.00183,3.1601,-0.25345,0.28839,-0.16693,-0.04318,-0.02991,-0.01678,-0.05219
8.085,-0.00549,-0.04288,-0.03967,-0.00336,-0.0238,-0.05157,-0.03418,-0.00656,2.51068,-0.24948,0.36209,-0.09796,-0.04303,-0.03433,-0.01511,-0.04593
8.0855,-0.00641,-0.04501,-0.04395,-0.00381,-0.01953,-0.05188,-0.03235,-0.01297,1.88095,-0.22751,0.35172,-0.03143,-0.04211,-0.03586,0.0032,-0.0415
8.086,-0.00702,-0.047,-0.05066,-0.00198,-0.01221,-0.05356,-0.02701,-0.01617,1.30402,-0.19928,0.27985,0.02686,-0.04105,-0.03571,0.01907,-0.04166
8.0865,-0.00397,-0.04745,-0.05753,0.00015,-0.00473,-0.05615,-0.02197,-0.01389,0.7373,-0.15366,0.19165,0.07126,-0.0415,-0.03387,0.01831,-0.04608
8.087,0.00443,-0.04486,-0.06165,-0.00122,0.00183,-0.05859,-0.01984,-0.0087,0.16235,-0.08606,0.11719,0.06927,-0.04486,-0.03265,0.01266,-0.04883
8.0875,0.01465,-0.04196,-0.06363,-0.00641,0.0,-0.06027,-0.02045,-0.00961,-0.3952,0.00275,0.06744,0.00885,-0.04868,-0.03052,0.00488,-0.04852
8.088,0.01907,-0.04028,-0.06332,-0.01205,-0.01266,-0.0618,-0.02197,-0.01785,-0.92209,0.09567,0.03174,-0.07599,-0.05081,-0.02762,-0.00244,-0.04456
8.0885,0.01587,-0.04501,-0.06073,-0.01404,-0.03342,-0.06271,-0.02365,-0.02563,-1.42853,0.17929,-0.0032,-0.13092,-0.04822,-0.02518,-0.00702,-0.04135
8.089,0.009,-0.0592,-0.05539,-0.01297,-0.05615,-0.06424,-0.02411,-0.03082,-1.89667,0.25299,-0.04105,-0.12527,-0.04669,-0.02396,-0.00549,-0.04089
8.0895,0.00305,-0.07599,-0.04547,-0.01144,-0.07614,-0.065,-0.02213,-0.03693,-2.2821,0.31052,-0.08057,-0.07004,-0.04791,-0.02197,-0.00031,-0.04486
8.09,-0.00122,-0.08392,-0.02747,-0.01144,-0.0914,-0.06119,-0.0209,-0.04822,-2.57645,0.33752,-0.11612,-0.0087,-0.04974,-0.0174,0.00763,-0.04913
8.0905,-0.00549,-0.07828,-0.00366,-0.01373,-0.10101,-0.05508,-0.0209,-0.06104,-2.82867,0.32364,-0.14694,0.02808,-0.05112,-0.01358,0.01328,-0.05219
8.091,-0.01038,-0.06882,0.01831,-0.01556,-0.10956,-0.0499,-0.02106,-0.06546,-3.08487,0.27954,-0.15732,0.04684,-0.05035,-0.01114,0.01846,-0.04883
8.0915,-0.0148,-0.06439,0.02472,-0.01587,-0.11505,-0.04684,-0.02045,-0.05569,-3.3519,0.22766,-0.13504,0.07187,-0.04929,-0.01053,0.02167,-0.04089
8.092,-0.0209,-0.06424,0.01404,-0.01648,-0.11688,-0.04623,-0.01984,-0.03738,-3.61771,0.17822,-0.09247,0.10956,-0.04944,-0.01297,0.02029,-0.03479
8.0925,-0.02808,-0.05936,-0.0119,-0.01663,-0.11429,-0.04761,-0.02045,-0.02167,-3.87314,0.12894,-0.05264,0.1268,-0.0502,-0.01556,0.01816,-0.0351
8.093,-0.03418,-0.04761,-0.03601,-0.01724,-0.10544,-0.04852,-0.02151,-0.01556,-4.11499,0.08194,-0.01785,0.07813,-0.05142,-0.0177,0.01602,-0.03723
8.0935,-0.03662,-0.03387,-0.04852,-0.01648,-0.09491,-0.04944,-0.02136,-0.01572,-4.3457,0.05768,0.02274,-0.02457,-0.05142,-0.01846,0.0148,-0.03601
8.094,-0.0354,-0.02335,-0.05402,-0.01556,-0.08499,-0.05035,-0.02121,-0.01785,-4.57443,0.05539,0.05905,-0.1062,-0.0499,-0.01724,0.0116,-0.03479
8.0945,-0.03372,-0.01678,-0.06119,-0.01617,-0.07507,-0.0499,-0.0206,-0.01953,-4.79706,0.06546,0.07294,-0.11719,-0.04684,-0.0119,0.00336,-0.03891
8.095,-0.03265,-0.01221,-0.07721,-0.01678,-0.065,-0.04898,-0.02029,-0.01862,-4.9614,0.06897,0.05478,-0.09354,-0.04318,-0.00504,-0.00305,-0.04501
8.0955,-0.0325,-0.00809,-0.0943,-0.01526,-0.05508,-0.0473,-0.01907,-0.01511,-4.97559,0.0563,0.00443,-0.09048,-0.04196,0.00183,0.00015,-0.04608
8.096,-0.03159,-0.00443,-0.10544,-0.0145,-0.04578,-0.04669,-0.01801,-0.01038,-4.97559,0.0412,-0.06866,-0.10422,-0.04288,0.00397,0.01297,-0.03998
8.0965,-0.03296,-0.00153,-0.09918,-0.01434,-0.0354,-0.04684,-0.01801,-0.00671,-4.97528,0.02396,-0.14908,-0.09369,-0.04288,0.00412,0.02289,-0.03479
8.097,-0.03571,0.00076,-0.07874,-0.01556,-0.02411,-0.04608,-0.01831,-0.0061,-4.97543,0.0116,-0.20981,-0.0528,-0.04135,0.0061,0.02243,-0.03754
8.0975,-0.03601,0.00259,-0.05142,-0.01755,-0.01266,-0.04562,-0.0174,-0.00778,-4.97589,-0.00153,-0.233,-0.01617,-0.03998,0.00946,0.01389,-0.04623
8.098,-0.03128,0.00275,-0.02609,-0.02045,-0.00549,-0.04562,-0.01419,-0.00961,-4.97543,-0.00931,-0.22202,-0.0177,-0.04059,0.01129,0.00427,-0.05493
8.0985,-0.0238,-0.00168,-0.00046,-0.02228,-0.00076,-0.04745,-0.01099,-0.01266,-4.97513,-0.02197,-0.19165,-0.0473,-0.0415,0.00824,0.00107,-0.06104
8.099,-0.01663,-0.00992,0.02106,-0.02182,0.00122,-0.04837,-0.00809,-0.01419,-4.97559,-0.03937,-0.14816,-0.04822,-0.03998,0.0029,0.0032,-0.06607
8.0995,-0.01297,-0.01648,0.03464,-0.01907,0.00107,-0.04944,-0.00626,-0.01373,-4.89395,-0.06287,-0.08987,0.00732,-0.03754,-0.00229,0.00565,-0.06744
8.1,-0.00931,-0.01846,0.0351,-0.01572,-0.00122,-0.0499,-0.00534,-0.01419,-4.77386,-0.07141,-0.01877,0.06714,-0.03555,-0.00854,0.0029,-0.06073
8.1005,-0.00702,-0.01801,0.02121,-0.01404,-0.00244,-0.0502,-0.00458,-0.01984,-4.79202,-0.06271,0.04791,0.065,-0.03372,-0.01404,0.00229,-0.04791
8.101,-0.0061,-0.01617,0.00031,-0.01556,-0.00168,-0.05173,-0.00549,-0.03189,-4.95209,-0.05508,0.09399,0.01617,-0.03326,-0.01526,0.00458,-0.03571
8.1015,-0.00702,-0.01602,-0.01816,-0.01663,-0.00229,-0.05371,-0.00595,-0.04425,-4.97543,-0.05127,0.11002,-0.02136,-0.03296,-0.01205,0.00702,-0.03235
8.102,-0.00809,-0.01862,-0.0293,-0.01556,-0.00214,-0.05371,-0.0058,-0.04456,-4.97528,-0.05737,0.09247,-0.02991,-0.03372,-0.00717,0.00626,-0.03876
8.1025,-0.00687,-0.0235,-0.03265,-0.01404,-0.00168,-0.05341,-0.00702,-0.02563,-4.96063,-0.06149,0.04791,-0.02731,-0.03311,-0.00336,0.0032,-0.04913
8.103,-0.00336,-0.02991,-0.03098,-0.01251,-0.0032,-0.05264,-0.00931,0.00473,-4.94034,-0.06775,-0.00046,-0.02655,-0.03113,-0.00381,0.00031,-0.0589
8.1035,0.00153,-0.03632,-0.03128,-0.01282,-0.00366,-0.05234,-0.0119,0.02502,-4.92752,-0.07324,-0.02884,-0.03998,-0.03082,-0.00916,0.00046,-0.06653
8.104,0.00565,-0.04044,-0.03845,-0.01282,-0.00626,-0.04959,-0.01251,0.02411,-4.88556,-0.08423,-0.02975,-0.08514,-0.03235,-0.01923,0.00198,-0.06958
8.1045,0.00702,-0.04303,-0.04623,-0.01221,-0.00702,-0.04654,-0.01389,0.01251,-4.83719,-0.09476,-0.01556,-0.14893,-0.03555,-0.03036,0.00275,-0.06714
8.105,0.00519,-0.04425,-0.04578,-0.0119,-0.00397,-0.04257,-0.01709,0.00595,-4.80515,-0.103,-0.00198,-0.17654,-0.03647,-0.03967,0.00565,-0.06073
8.1055,0.00275,-0.04593,-0.03906,-0.0119,0.00214,-0.03891,-0.01862,0.00961,-4.77814,-0.1033,0.009,-0.1326,-0.03616,-0.04593,0.00763,-0.05508
8.106,0.00275,-0.04517,-0.0354,-0.00961,0.00961,-0.03525,-0.01755,0.01999,-4.74243,-0.09003,0.02594,-0.05173,-0.03494,-0.04959,0.00641,-0.05096
8.1065,0.00366,-0.04227,-0.03525,-0.00397,0.01419,-0.03082,-0.01389,0.03052,-4.70413,-0.0676,0.05081,-0.00549,-0.03357,-0.05341,0.00473,-0.04944
8.107,0.00305,-0.0386,-0.03769,0.00061,0.01526,-0.02731,-0.00931,0.03708,-4.67163,-0.0502,0.07828,-0.01404,-0.03372,-0.05829,0.00488,-0.04852
8.1075,0.00153,-0.03571,-0.03769,0.00122,0.01297,-0.02579,-0.00549,0.03464,-4.64142,-0.03784,0.09872,-0.02213,-0.03372,-0.06516,0.00717,-0.04486
8.108,0.00153,-0.03586,-0.03525,0.0,0.01099,-0.0264,-0.00458,0.0238,-4.6077,-0.02914,0.10345,0.01801,-0.03311,-0.07187,0.00992,-0.03891
8.1085,0.00443,-0.03494,-0.03494,-0.00229,0.00702,-0.03006,-0.00458,0.00839,-4.57321,-0.02014,0.08606,0.0737,-0.0325,-0.07492,0.01205,-0.03494
8.109,0.00793,-0.03403,-0.03555,-0.00275,0.00183,-0.0354,-0.0058,-0.00427,-4.54117,-0.01373,0.05493,0.07889,-0.03326,-0.07217,0.01266,-0.03479
8.1095,0.00931,-0.03235,-0.0354,-0.00137,-0.00458,-0.04105,-0.00626,-0.00748,-4.51004,-0.02258,0.0322,0.03372,-0.0354,-0.06348,0.0116,-0.03784
8.11,0.00702,-0.03174,-0.0325,0.00015,-0.01328,-0.04578,-0.00778,-0.00351,-4.47769,-0.04593,0.02823,-0.00702,-0.03571,-0.0531,0.00793,-0.04456
8.1105,0.00427,-0.03235,-0.03021,0.00107,-0.0238,-0.04929,-0.00824,0.00259,-4.44427,-0.07248,0.03357,-0.01663,-0.03372,-0.04761,0.00427,-0.05356
8.111,0.00214,-0.03464,-0.03021,0.00122,-0.03555,-0.05295,-0.00671,0.00824,-4.4101,-0.07462,0.0325,-0.01389,-0.03021,-0.0502,0.00366,-0.06058
8.1115,-0.00015,-0.03906,-0.03403,0.00229,-0.04974,-0.05737,-0.00504,0.01404,-4.37637,-0.06439,0.01999,-0.00824,-0.02838,-0.05585,0.0029,-0.06226
8.112,-0.00351,-0.04501,-0.0412,0.00122,-0.06302,-0.06088,-0.00519,0.02014,-4.34555,-0.04242,-0.01083,0.0058,-0.02777,-0.05737,0.0032,-0.06058
8.1125,-0.00839,-0.05371,-0.04944,0.0,-0.07187,-0.06424,-0.00748,0.02228,-4.31641,-0.02441,-0.06775,0.01724,-0.02716,-0.05142,0.00259,-0.05646
8.113,-0.01404,-0.06516,-0.05768,-0.00305,-0.07584,-0.06607,-0.00931,0.02045,-4.28772,-0.01785,-0.13779,0.00427,-0.02518,-0.03967,0.0029,-0.05264
8.1135,-0.01907,-0.07965,-0.06348,-0.00656,-0.07797,-0.06622,-0.00793,0.01755,-4.25735,-0.02029,-0.18906,-0.02457,-0.01999,-0.02579,0.00702,-0.0499
8.114,-0.02579,-0.09415,-0.06821,-0.01114,-0.08087,-0.06332,-0.00641,0.01572,-4.22775,-0.03326,-0.1918,-0.03845,-0.01404,-0.01404,0.01038,-0.04929
8.1145,-0.04044,-0.10315,-0.07874,-0.01617,-0.08224,-0.06149,-0.00519,0.01495,-4.19891,-0.04913,-0.14725,-0.02319,-0.00916,-0.00641,0.01022,-0.04944
8.115,-0.0563,-0.10422,-0.09506,-0.01968,-0.07996,-0.06027,-0.00748,0.01083,-4.17038,-0.06332,-0.0827,0.00702,-0.00641,-0.00076,0.00946,-0.04929
8.1155,-0.05661,-0.09399,-0.11154,-0.01984,-0.07736,-0.05859,-0.01114,0.00595,-4.14108,-0.07309,-0.0293,0.03754,-0.00549,0.00549,0.01099,-0.04791
8.116,-0.0386,-0.07355,-0.12436,-0.0119,-0.07477,-0.056,-0.01282,0.00275,-4.11179,-0.07919,-0.00473,0.06439,-0.00671,0.01083,0.01251,-0.04684
8.1165,-0.01648,-0.04791,-0.12909,0.00122,-0.07111,-0.05295,-0.01266,0.00214,-4.08295,-0.0885,-0.00122,0.08179,-0.00946,0.01297,0.01144,-0.04578
8.117,-0.00168,-0.02121,-0.12848,0.01221,-0.06561,-0.05157,-0.01297,0.00198,-4.0535,-0.10513,-0.00183,0.08362,-0.01343,0.01022,0.00931,-0.04562
8.1175,0.00412,0.0058,-0.12192,0.01404,-0.05768,-0.05051,-0.01282,0.00122,-4.02191,-0.12711,0.00778,0.07492,-0.01633,0.00565,0.01068,-0.04852
8.118,0.00916,0.03265,-0.10544,0.00717,-0.05157,-0.0502,-0.01419,0.00061,-3.95798,-0.14069,0.02609,0.06302,-0.01816,0.00244,0.01617,-0.05081
8.1185,0.01602,0.05493,-0.07599,-0.00061,-0.04791,-0.05035,-0.01328,0.00076,-3.46893,-0.13107,0.03067,0.03799,-0.01968,0.00168,0.01984,-0.05081
8.119,0.02518,0.06577,-0.03662,-0.00412,-0.04456,-0.04852,-0.01175,0.00305,-1.55792,-0.10162,-0.00458,-0.00824,-0.02136,0.00092,0.01663,-0.04669
8.1195,0.03311,0.06516,0.00488,-0.00397,-0.04074,-0.04593,-0.01144,0.00366,1.95526,-0.06485,-0.07614,-0.05707,-0.02319,-0.00153,0.01175,-0.04242
8.12,0.03464,0.05768,0.04791,-0.00336,-0.03632,-0.04501,-0.0116,0.00336,4.93622,-0.02823,-0.13443,-0.07462,-0.02365,-0.00534,0.01129,-0.04028
8.1205,0.0296,0.04654,0.07996,-0.00519,-0.03082,-0.047,-0.01297,0.00229,4.99985,0.00931,-0.1413,-0.0528,-0.02441,-0.00854,0.01511,-0.03769
8.121,0.0206,0.02991,0.09903,-0.00702,-0.02655,-0.0528,-0.01389,0.00168,4.98825,0.05463,-0.10132,-0.02045,-0.02335,-0.01068,0.01678,-0.03281
8.1215,0.01404,0.01099,0.10376,-0.00824,-0.02335,-0.05722,-0.01404,0.00153,4.65698,0.10681,-0.04288,-0.00214,-0.02304,-0.00916,0.01175,-0.02975
8.122,0.01175,-0.00778,0.09293,-0.00763,-0.0209,-0.05859,-0.01404,0.00366,4.9382,0.15869,0.01831,0.00427,-0.02136,-0.00427,0.0032,-0.03555
8.1225,0.01022,-0.02548,0.06943,-0.00595,-0.02136,-0.05737,-0.01328,0.00839,4.99985,0.20096,0.07797,0.00916,-0.01938,0.00198,-0.00076,-0.04684
8.123,0.00427,-0.04517,0.03754,-0.00244,-0.0235,-0.05585,-0.01297,0.01373,4.9942,0.21912,0.12177,0.01251,-0.01816,0.00488,0.00122,-0.05463
8.1235,-0.00519,-0.06897,0.00046,0.0,-0.02426,-0.05493,-0.01251,0.01633,4.88815,0.20584,0.14069,0.00793,-0.0177,0.00076,0.00717,-0.05493
8.124,-0.01038,-0.0946,-0.03662,0.00031,-0.02319,-0.05463,-0.01282,0.01572,4.95361,0.17639,0.13748,-0.00015,-0.01923,-0.00595,0.00946,-0.05112
8.1245,-0.00824,-0.11551,-0.06592,-0.00092,-0.01938,-0.05295,-0.01236,0.01389,4.99985,0.15045,0.11887,-0.00107,-0.02045,-0.01083,0.00687,-0.04669
8.125,-0.00259,-0.12527,-0.08224,-0.00229,-0.01648,-0.04944,-0.01068,0.01389,4.98215,0.1329,0.08636,0.00931,-0.02106,-0.00992,0.00275,-0.04364
8.1255,0.00046,-0.12619,-0.08118,-0.00168,-0.01389,-0.04593,-0.00916,0.01495,4.94766,0.10406,0.04837,0.02487,-0.02075,-0.00717,0.00412,-0.04166
8.126,0.00122,-0.12085,-0.07004,-0.00229,-0.01251,-0.04196,-0.00961,0.01358,4.96292,0.05814,0.01144,0.03296,-0.01877,-0.00397,0.00671,-0.03922
8.1265,0.00183,-0.11337,-0.05707,-0.00351,-0.01068,-0.0383,-0.01129,0.00839,4.9823,0.01007,-0.02014,0.02853,-0.01709,-0.00015,0.01251,-0.03525
8.127,0.00488,-0.10452,-0.04868,-0.00671,-0.00961,-0.03555,-0.01312,0.00076,4.97482,-0.03067,-0.04471,0.0145,-0.01724,0.00595,0.01709,-0.03204
8.1275,0.00626,-0.0972,-0.04303,-0.01007,-0.00793,-0.0351,-0.01587,-0.0058,4.96429,-0.05676,-0.05478,-0.00015,-0.01923,0.01328,0.01907,-0.02777
8.128,0.00412,-0.0943,-0.03571,-0.01144,-0.0058,-0.0351,-0.01755,-0.00977,4.96735,-0.07172,-0.05249,-0.00595,-0.02121,0.01862,0.01984,-0.02579
8.1285,-0.00061,-0.09628,-0.0267,-0.01205,-0.00565,-0.03372,-0.01678,-0.01114,4.9736,-0.0737,-0.04959,0.00732,-0.02304,0.02121,0.01877,-0.02518
8.129,-0.00488,-0.09949,-0.02228,-0.01495,-0.0058,-0.03342,-0.01373,-0.01205,4.97253,-0.06134,-0.05569,0.04562,-0.02533,0.02274,0.01801,-0.02731
8.1295,-0.009,-0.09766,-0.02472,-0.01968,-0.00336,-0.03342,-0.01022,-0.01358,4.96902,-0.04486,-0.06271,0.08514,-0.02747,0.02518,0.01785,-0.02838
8.13,-0.0116,-0.08881,-0.03204,-0.02625,-0.00015,-0.03235,-0.00992,-0.01663,4.96994,-0.03235,-0.06226,0.08209,-0.02884,0.02792,0.01602,-0.02823
8.1305,-0.01434,-0.0766,-0.03586,-0.03464,0.00198,-0.03052,-0.01282,-0.02335,4.97253,-0.02121,-0.05447,0.03693,-0.02869,0.03174,0.01419,-0.02777
8.131,-0.01602,-0.0679,-0.03754,-0.03967,0.00259,-0.02991,-0.01648,-0.03189,4.97253,-0.00443,-0.04654,-0.00366,-0.02731,0.03769,0.01328,-0.02472
8.1315,-0.01724,-0.06287,-0.03891,-0.03952,0.00443,-0.03265,-0.01816,-0.0354,4.97116,0.00748,-0.04456,-0.01831,-0.02502,0.04135,0.01389,-0.01953
8.132,-0.0177,-0.05859,-0.03967,-0.03479,0.00473,-0.03647,-0.01755,-0.03357,4.96658,0.0087,-0.04883,-0.0293,-0.02487,0.03693,0.0145,-0.01465
8.1325,-0.01877,-0.05478,-0.04105,-0.0296,0.00229,-0.04044,-0.0174,-0.02853,4.94843,-0.00092,-0.05386,-0.04684,-0.02731,0.02686,0.01541,-0.0116
8.133,-0.0209,-0.05203,-0.0415,-0.02518,-0.00351,-0.04395,-0.01877,-0.02304,4.91348,-0.00809,-0.05264,-0.05234,-0.03235,0.01709,0.01572,-0.01068
8.1335,-0.0238,-0.05157,-0.04379,-0.01938,-0.01068,-0.04654,-0.01984,-0.01816,4.87152,-0.0061,-0.0444,-0.04105,-0.03799,0.01129,0.01465,-0.01007
8.134,-0.02655,-0.05234,-0.04623,-0.0148,-0.01434,-0.04807,-0.01999,-0.01511,4.83505,0.00397,-0.03464,-0.03021,-0.04211,0.00458,0.01236,-0.01266
8.1345,-0.02792,-0.05051,-0.04852,-0.0116,-0.01465,-0.04822,-0.01877,-0.01251,4.80347,0.01083,-0.03159,-0.02213,-0.04761,-0.00641,0.00748,-0.02167
8.135,-0.02701,-0.04807,-0.04837,-0.01068,-0.01251,-0.04913,-0.01785,-0.01022,4.77112,0.00885,-0.0351,-0.01358,-0.05341,-0.02274,0.0032,-0.03494
8.1355,-0.0267,-0.04395,-0.047,-0.01007,-0.01205,-0.05051,-0.0174,-0.00732,4.73602,0.00244,-0.03952,-0.00946,-0.05798,-0.03616,0.00153,-0.04761
8.136,-0.03036,-0.04028,-0.0473,-0.00992,-0.01709,-0.05325,-0.01678,-0.00473,4.70078,0.00046,-0.03983,-0.01434,-0.06027,-0.04227,0.00015,-0.05295
8.1365,-0.03494,-0.03769,-0.05188,-0.01099,-0.02853,-0.05569,-0.01663,-0.00336,4.6666,0.00519,-0.03601,-0.01343,-0.05997,-0.0444,0.00015,-0.05066
8.137,-0.03647,-0.03632,-0.0621,-0.0119,-0.0412,-0.05768,-0.0174,-0.00198,4.63318,0.01236,-0.03281,0.0029,-0.05981,-0.04898,-0.00259,-0.04333
8.1375,-0.03143,-0.03662,-0.07034,-0.01129,-0.05142,-0.0618,-0.01846,-0.00076,4.60022,0.01526,-0.03418,0.02289,-0.05859,-0.06042,-0.00381,-0.0351
8.138,-0.02029,-0.03708,-0.07248,-0.01053,-0.05936,-0.06378,-0.01785,0.00015,4.56757,0.009,-0.04196,0.03082,-0.0563,-0.08392,-0.0029,-0.03113
8.1385,-0.00534,-0.03525,-0.06714,-0.01038,-0.06851,-0.06485,-0.01678,0.00031,4.53461,-0.00275,-0.05005,0.03128,-0.05341,-0.12207,0.00229,-0.03464
8.139,0.00687,-0.02823,-0.06332,-0.00931,-0.07874,-0.06439,-0.01526,-0.00015,4.50211,-0.02167,-0.05142,0.03815,-0.05096,-0.16403,0.00839,-0.04562
8.1395,0.01022,-0.02121,-0.06012,-0.00641,-0.0853,-0.06119,-0.01511,0.00031,4.46991,-0.03876,-0.04044,0.04974,-0.04883,-0.18616,0.00534,-0.05798
8.14,0.00534,-0.02762,-0.05264,-0.00458,-0.08881,-0.05768,-0.01526,0.00275,4.43634,-0.04745,-0.02136,0.05447,-0.04791,-0.17273,-0.01083,-0.06958
8.1405,-0.00443,-0.04715,-0.03922,-0.00443,-0.09155,-0.05447,-0.0148,0.0061,4.37668,-0.05417,0.0,0.04974,-0.04852,-0.13,-0.03525,-0.07797
8.141,-0.01358,-0.06134,-0.02411,-0.00443,-0.09109,-0.05249,-0.0145,0.00732,4.20853,-0.06226,0.01617,0.04318,-0.05081,-0.08224,-0.05768,-0.08011
8.1415,-0.01846,-0.04745,-0.01678,-0.00397,-0.08865,-0.0499,-0.01526,0.0058,3.87329,-0.07599,0.01526,0.03998,-0.05325,-0.0499,-0.07706,-0.07523
8.142,-0.01801,-0.00397,-0.0206,-0.00275,-0.08514,-0.04593,-0.01617,0.00351,3.46802,-0.09125,-0.00977,0.03906,-0.05447,-0.03662,-0.0827,-0.06516
8.1425,-0.01633,0.04898,-0.03662,-0.00351,-0.07996,-0.04379,-0.01587,0.00351,3.14682,-0.10727,-0.04898,0.03693,-0.05554,-0.03281,-0.04395,-0.05295
8.143,-0.01724,0.08423,-0.05203,-0.00427,-0.07156,-0.04105,-0.01495,0.00443,2.91901,-0.12421,-0.07675,0.03296,-0.0563,-0.02945,0.04318,-0.04272
8.1435,-0.02014,0.08621,-0.05203,-0.00458,-0.06317,-0.03922,-0.01434,0.00519,2.68677,-0.13809,-0.06897,0.02991,-0.05783,-0.0238,0.11719,-0.03799
8.144,-0.02045,0.06195,-0.03387,-0.00397,-0.05753,-0.03769,-0.01419,0.00519,2.41501,-0.14404,-0.03281,0.02777,-0.05997,-0.02045,0.11536,-0.03967
8.1445,-0.0174,0.03036,-0.01251,-0.00259,-0.05508,-0.03586,-0.01389,0.00381,2.15363,-0.14114,0.00427,0.02457,-0.06241,-0.02151,0.05447,-0.04364
8.145,-0.01648,0.00336,-0.00519,-0.00183,-0.05295,-0.03708,-0.01434,0.00244,1.93863,-0.13535,0.01984,0.02075,-0.06241,-0.0235,0.00763,-0.047
8.1455,-0.02304,-0.01831,-0.01175,-0.00229,-0.04807,-0.03922,-0.01511,0.0029,1.75568,-0.13519,0.01785,0.01801,-0.0592,-0.0209,0.00793,-0.05157
8.146,-0.03418,-0.03815,-0.01938,-0.00183,-0.0412,-0.03952,-0.0148,0.00351,1.57288,-0.15213,0.01602,0.01862,-0.05295,-0.0148,0.02518,-0.0563
8.1465,-0.0415,-0.05463,-0.01709,-0.00198,-0.03708,-0.03952,-0.01511,0.00458,1.3826,-0.16861,0.02747,0.02182,-0.04593,-0.01083,0.02716,-0.05676
8.147,-0.03815,-0.06561,-0.01419,-0.00259,-0.03403,-0.03937,-0.01572,0.00519,1.20224,-0.15533,0.04807,0.02502,-0.04044,-0.01251,0.02029,-0.04471
8.1475,-0.02869,-0.07431,-0.01999,-0.00381,-0.03281,-0.03983,-0.01465,0.00443,1.04156,-0.09598,0.06531,0.02686,-0.03586,-0.01556,0.01968,-0.02213
8.148,-0.0174,-0.08575,-0.03586,-0.00641,-0.03098,-0.04196,-0.01373,0.00305,0.89294,-0.01175,0.06439,0.02533,-0.03372,-0.01862,0.02426,-0.00336
8.1485,-0.00885,-0.09811,-0.05142,-0.01038,-0.02991,-0.04623,-0.01358,0.00122,0.75195,0.06363,0.0412,0.02045,-0.03204,-0.01999,0.02884,0.00153
8.149,-0.00198,-0.11032,-0.05569,-0.01587,-0.02838,-0.04913,-0.01465,0.00031,0.61401,0.11429,0.00931,0.01404,-0.03128,-0.01541,0.03113,-0.00565
8.1495,0.00656,-0.12115,-0.04669,-0.01953,-0.02731,-0.04807,-0.0148,0.00092,0.47546,0.14557,0.00214,0.00992,-0.02975,-0.00336,0.02899,-0.01892
8.15,0.01633,-0.12878,-0.03204,-0.01999,-0.02579,-0.04272,-0.01373,0.00198,0.34973,0.16083,0.02914,0.00793,-0.02884,0.01221,0.02197,-0.03174
8.1505,0.0264,-0.13184,-0.02472,-0.01724,-0.02243,-0.03922,-0.01221,0.00259,0.24414,0.16342,0.06699,0.0061,-0.02899,0.02319,0.01297,-0.03769
8.151,0.03525,-0.12695,-0.02747,-0.01419,-0.01801,-0.03662,-0.0116,0.00351,0.14114,0.15869,0.08469,0.00351,-0.0296,0.02457,0.0061,-0.03647
8.1515,0.04044,-0.11536,-0.03616,-0.01205,-0.01419,-0.03677,-0.01236,0.0032,0.02441,0.14877,0.07797,0.00351,-0.03036,0.01526,0.00229,-0.03677
8.152,0.04013,-0.10025,-0.04318,-0.01129,-0.01373,-0.03815,-0.01404,0.00229,-0.09277,0.12833,0.05798,0.00488,-0.02853,0.00214,0.00351,-0.04349
8.1525,0.03601,-0.0824,-0.04395,-0.00992,-0.01556,-0.04074,-0.01617,-0.00015,-0.18799,0.09537,0.0325,0.00504,-0.02426,-0.00809,0.00809,-0.05676
8.153,0.0322,-0.06287,-0.03906,-0.00809,-0.0174,-0.04257,-0.01648,-0.00275,-0.26276,0.06393,0.00244,0.0029,-0.01984,-0.01328,0.01404,-0.06683
8.1535,0.02991,-0.04562,-0.03281,-0.00748,-0.01846,-0.04395,-0.01587,-0.00427,-0.3389,0.04242,-0.02655,0.0,-0.01694,-0.01328,0.01526,-0.0679
8.154,0.02914,-0.03433,-0.02914,-0.00763,-0.01923,-0.04318,-0.01465,-0.00519,-0.4277,0.02808,-0.0499,-0.00076,-0.0174,-0.01114,0.01434,-0.06012
8.1545,0.02777,-0.02975,-0.02762,-0.00748,-0.01984,-0.04196,-0.01419,-0.00504,-0.51941,0.01663,-0.07492,-0.00031,-0.01709,-0.00916,0.01144,-0.05188
8.155,0.02533,-0.02747,-0.02625,-0.00732,-0.01877,-0.04364,-0.0148,-0.00427,-0.60364,0.009,-0.11261,-0.00092,-0.01602,-0.00961,0.00488,-0.04883
8.1555,0.02136,-0.02563,-0.02716,-0.00824,-0.01846,-0.04395,-0.01511,-0.00305,-0.68024,0.00626,-0.15915,-0.0029,-0.01465,-0.01083,-0.00748,-0.05096
8.156,0.01434,-0.02716,-0.02853,-0.01099,-0.0174,-0.0444,-0.0148,-0.0032,-0.75546,0.00763,-0.19226,-0.0061,-0.0145,-0.01038,-0.02518,-0.05386
8.1565,0.0058,-0.0296,-0.02838,-0.01617,-0.01572,-0.04501,-0.01495,-0.00702,-0.83023,0.00381,-0.19028,-0.00961,-0.01663,-0.00473,-0.03876,-0.05478
8.157,-0.00122,-0.03098,-0.02762,-0.01846,-0.0145,-0.04547,-0.01572,-0.01068,-0.90393,-0.00778,-0.1593,-0.01007,-0.01907,0.0032,-0.04181,-0.04745
8.1575,-0.00702,-0.0296,-0.02701,-0.01678,-0.01419,-0.04501,-0.0174,-0.01205,-0.9819,-0.02151,-0.12161,-0.00931,-0.01877,0.00885,-0.03433,-0.03479
8.158,-0.01068,-0.02777,-0.02747,-0.01404,-0.01495,-0.04318,-0.01755,-0.01129,-1.07208,-0.03693,-0.08865,-0.00854,-0.01724,0.01068,-0.01923,-0.01938
8.1585,-0.01404,-0.02777,-0.02899,-0.01236,-0.01663,-0.04272,-0.01755,-0.01038,-1.16806,-0.04349,-0.05432,-0.00885,-0.0174,0.01114,0.00397,-0.00549
8.159,-0.01602,-0.02838,-0.0296,-0.0116,-0.0177,-0.04242,-0.01755,-0.00961,-1.24954,-0.04013,-0.01144,-0.01114,-0.01816,0.01068,0.03464,0.00656
8.1595,-0.01556,-0.02747,-0.02991,-0.01083,-0.0174,-0.04135,-0.01648,-0.00778,-1.31836,-0.03708,0.03479,-0.01328,-0.01907,0.01053,0.05905,0.0174
8.16,-0.01419,-0.02609,-0.02808,-0.009,-0.01648,-0.03967,-0.01511,-0.00549,-1.38824,-0.03906,0.06821,-0.01373,-0.01938,0.00916,0.04959,0.02609
8.1605,-0.0119,-0.02655,-0.02609,-0.00854,-0.0177,-0.0415,-0.01465,-0.00473,-1.45691,-0.04654,0.07797,-0.01282,-0.0209,0.00488,0.0032,0.02808
8.161,-0.01099,-0.02762,-0.02487,-0.00961,-0.02029,-0.04471,-0.0145,-0.00473,-1.5213,-0.04974,0.07446,-0.01144,-0.02304,0.00153,-0.04059,0.02426
8.1615,-0.01038,-0.02686,-0.02518,-0.01175,-0.02121,-0.04547,-0.01465,-0.00488,-1.58707,-0.05249,0.07172,-0.00931,-0.02396,0.00137,-0.05508,0.0174
8.162,-0.01099,-0.02518,-0.02533,-0.01358,-0.02167,-0.04181,-0.01541,-0.00473,-1.65543,-0.05829,0.07248,-0.00565,-0.02228,0.00275,-0.05096,0.00854
8.1625,-0.01297,-0.02396,-0.02502,-0.01328,-0.02197,-0.04105,-0.01526,-0.00427,-1.72592,-0.0647,0.06866,-0.00244,-0.01999,0.00137,-0.04532,-0.00153
8.163,-0.0145,-0.02457,-0.02579,-0.0119,-0.02304,-0.04166,-0.01434,-0.00275,-1.80527,-0.06302,0.06271,-0.0032,-0.01984,-0.00214,-0.03418,-0.01205
8.1635,-0.01343,-0.02518,-0.02655,-0.00946,-0.02533,-0.0444,-0.01312,-0.00122,-1.88324,-0.05432,0.05859,-0.00656,-0.02029,-0.00534,-0.02914,-0.0206
8.164,-0.01221,-0.02548,-0.02716,-0.009,-0.02655,-0.04639,-0.01251,0.0,-1.94061,-0.03494,0.05035,-0.01068,-0.0209,-0.00809,-0.04532,-0.02319
8.1645,-0.01175,-0.02518,-0.02701,-0.00916,-0.02579,-0.04639,-0.01312,-0.00015,-1.98196,-0.01221,0.02258,-0.0116,-0.0206,-0.00854,-0.06012,-0.02289
8.165,-0.01144,-0.02548,-0.0267,-0.00961,-0.02472,-0.04654,-0.01404,-0.00198,-2.03568,-0.00153,-0.02762,-0.00854,-0.01968,-0.00748,-0.03433,-0.02533
8.1655,-0.01083,-0.02762,-0.02655,-0.01022,-0.02472,-0.04669,-0.01465,-0.0029,-2.13165,-0.01068,-0.08148,-0.00504,-0.01831,-0.0058,0.02457,-0.03204
8.166,-0.01038,-0.03006,-0.02609,-0.01129,-0.02594,-0.04791,-0.01389,-0.00473,-2.29065,-0.03799,-0.11078,-0.00366,-0.01556,-0.00641,0.07172,-0.0441
8.1665,-0.01022,-0.03174,-0.0264,-0.01022,-0.02808,-0.04684,-0.01358,-0.00824,-2.49344,-0.06699,-0.10468,-0.00244,-0.01114,-0.00793,0.10849,-0.07004
8.167,-0.01007,-0.03067,-0.0267,-0.00885,-0.02975,-0.04684,-0.01404,-0.01114,-2.66022,-0.08759,-0.07767,-0.00198,-0.00656,-0.00595,0.15884,-0.11078
8.1675,-0.01144,-0.02914,-0.0267,-0.00778,-0.03143,-0.04745,-0.01495,-0.01129,-2.71759,-0.10132,-0.04883,-0.00107,-0.00397,0.00198,0.19165,-0.14664
8.168,-0.01129,-0.02869,-0.02594,-0.00839,-0.03189,-0.04898,-0.01511,-0.01068,-2.67807,-0.1178,-0.02792,-0.00168,-0.00565,0.01556,0.14999,-0.14847
8.1685,-0.01022,-0.03098,-0.02426,-0.01144,-0.03311,-0.04898,-0.01511,-0.00885,-2.60849,-0.13687,-0.01572,-0.0032,-0.00885,0.02838,0.06027,-0.11948
8.169,-0.00839,-0.03387,-0.0238,-0.01465,-0.03647,-0.04791,-0.01587,-0.00824,-2.53952,-0.14465,-0.00687,-0.00305,-0.00992,0.03662,0.00427,-0.09048
8.1695,-0.00656,-0.03296,-0.02472,-0.01709,-0.03952,-0.04883,-0.01648,-0.00839,-2.46643,-0.12894,0.00168,-0.00229,-0.00946,0.03906,0.01022,-0.08667
8.17,-0.00504,-0.03036,-0.02594,-0.01862,-0.0415,-0.05157,-0.01694,-0.00839,-2.39349,-0.08774,0.01022,-0.00275,-0.00961,0.03998,0.03128,-0.10422
8.1705,-0.00626,-0.02869,-0.02563,-0.0174,-0.04181,-0.0528,-0.01678,-0.00763,-2.34406,-0.0322,0.0209,-0.00641,-0.01114,0.0386,0.0386,-0.11978
8.171,-0.0058,-0.02838,-0.02411,-0.0148,-0.03937,-0.05173,-0.01526,-0.00656,-2.31873,0.02182,0.03189,-0.01114,-0.01312,0.02991,0.03967,-0.11871
8.1715,-0.00534,-0.02899,-0.02365,-0.01251,-0.03662,-0.05005,-0.01358,-0.00504,-2.28989,0.06363,0.04517,-0.0145,-0.01556,0.01007,0.03799,-0.10254
8.172,-0.00351,-0.03098,-0.02533,-0.01221,-0.03265,-0.05127,-0.01282,-0.00275,-2.23099,0.07996,0.05707,-0.01587,-0.01801,-0.01709,0.02258,-0.08667
8.1725,-0.00183,-0.03479,-0.02716,-0.01205,-0.02975,-0.05234,-0.01312,0.0,-2.14462,0.07126,0.0618,-0.01389,-0.02167,-0.04959,-0.00015,-0.08698
8.173,0.00061,-0.03708,-0.02914,-0.01144,-0.02808,-0.05173,-0.01328,0.00168,-2.06024,0.05234,0.05692,-0.01007,-0.02609,-0.08011,-0.01144,-0.10666
8.1735,0.00519,-0.03738,-0.0296,-0.01068,-0.02838,-0.05096,-0.01434,0.00198,-1.99646,0.03555,0.04593,-0.00534,-0.03296,-0.10498,-0.00992,-0.11093
8.174,0.01144,-0.03662,-0.02899,-0.01007,-0.03036,-0.04959,-0.01556,0.00031,-1.94016,0.02396,0.03448,-0.00259,-0.0412,-0.11902,-0.00427,-0.06058
8.1745,0.01663,-0.03677,-0.02716,-0.00885,-0.03128,-0.04837,-0.01678,0.00031,-1.8808,0.01343,0.02396,-0.00198,-0.04913,-0.1178,-0.00107,0.01785
8.175,0.01617,-0.0383,-0.02609,-0.00793,-0.03082,-0.047,-0.01678,0.00183,-1.82465,0.00259,0.0145,-0.00092,-0.05692,-0.10422,0.00229,0.04776
8.1755,0.01144,-0.03998,-0.0264,-0.00732,-0.03067,-0.04623,-0.01617,0.00458,-1.77048,-0.00916,0.00275,-0.00061,-0.06119,-0.08682,0.0087,-0.00153
8.176,0.00626,-0.04059,-0.02792,-0.00793,-0.03296,-0.04745,-0.01495,0.0058,-1.71631,-0.02548,-0.0116,0.00015,-0.06165,-0.07843,0.01144,-0.06683
8.1765,0.00214,-0.0415,-0.02808,-0.00839,-0.03632,-0.04822,-0.01389,0.00595,-1.67145,-0.0354,-0.02197,-0.00168,-0.05798,-0.08057,0.00351,-0.09003
8.177,-0.00031,-0.04227,-0.02899,-0.00961,-0.03677,-0.04776,-0.01328,0.00549,-1.63651,-0.04456,-0.02426,-0.00473,-0.05371,-0.0824,-0.01663,-0.07721
8.1775,-0.00412,-0.04349,-0.03036,-0.00885,-0.03693,-0.04654,-0.01373,0.00336,-1.5947,-0.04852,-0.01663,-0.00854,-0.04974,-0.07889,-0.04715,-0.07217
8.178,-0.00763,-0.04425,-0.03235,-0.00748,-0.03738,-0.04837,-0.01465,0.00046,-1.53519,-0.05157,-0.0087,-0.01114,-0.04593,-0.07385,-0.09521,-0.08484
8.1785,-0.00977,-0.04333,-0.03601,-0.0058,-0.04074,-0.04807,-0.01434,-0.00198,-1.46744,-0.05707,-0.00397,-0.0119,-0.04303,-0.06912,-0.16678,-0.09491
8.179,-0.00885,-0.04105,-0.03891,-0.00336,-0.04242,-0.04776,-0.01419,-0.00183,-1.4035,-0.05646,-0.00275,-0.01251,-0.04059,-0.05661,-0.2449,-0.08774
8.1795,-0.009,-0.0412,-0.03769,-0.00061,-0.04211,-0.0473,-0.01358,0.00015,-1.3443,-0.05554,-0.00244,-0.01114,-0.03738,-0.02502,-0.27252,-0.07065
8.18,-0.01175,-0.04227,-0.03601,0.00168,-0.03952,-0.04684,-0.01343,0.00061,-1.28754,-0.05539,-0.00443,-0.00885,-0.03632,0.0174,-0.19333,-0.05249
8.1805,-0.01526,-0.0444,-0.0325,0.00137,-0.03815,-0.04669,-0.01343,-0.00107,-1.23474,-0.05264,-0.00961,-0.00565,-0.0383,0.05325,-0.0264,-0.03815
8.181,-0.0174,-0.04593,-0.03098,0.00015,-0.03754,-0.04684,-0.01312,-0.00381,-1.19476,-0.04822,-0.01404,-0.0029,-0.04227,0.07309,0.1059,-0.02213
8.1815,-0.01816,-0.04791,-0.03021,-0.00198,-0.03738,-0.0473,-0.01282,-0.00427,-1.23627,-0.04608,-0.01129,-0.00183,-0.04547,0.0827,0.11993,-0.01068
8.182,-0.01755,-0.04852,-0.03174,-0.00305,-0.03677,-0.04776,-0.01266,-0.00443,-1.64001,-0.04028,-0.00778,-0.00366,-0.04333,0.08255,0.08163,-0.01083
8.1825,-0.01465,-0.04715,-0.03494,-0.00504,-0.03555,-0.04776,-0.01297,-0.00565,-2.77802,-0.0383,-0.0032,-0.00656,-0.03708,0.06729,0.10391,-0.02106
8.183,-0.00793,-0.04456,-0.03906,-0.0087,-0.03387,-0.04791,-0.01404,-0.00793,-4.32526,-0.04242,0.0032,-0.00854,-0.03098,0.03174,0.16968,-0.0322
8.1835,-0.00092,-0.04379,-0.03937,-0.0119,-0.03418,-0.04684,-0.01572,-0.01205,-4.96567,-0.05081,0.01587,-0.009,-0.02686,-0.01083,0.18341,-0.03632
8.184,0.00198,-0.04303,-0.03784,-0.01221,-0.03311,-0.04868,-0.01541,-0.01526,-4.97482,-0.0737,0.03479,-0.00854,-0.02289,-0.0412,0.13306,-0.02762
8.1845,0.00122,-0.04135,-0.03708,-0.00595,-0.03082,-0.04929,-0.01266,-0.01526,-4.86069,-0.10117,0.06027,-0.0087,-0.01587,-0.04562,0.08331,-0.00778
8.185,0.0,-0.03967,-0.03708,0.00214,-0.02975,-0.04929,-0.01038,-0.01144,-4.80331,-0.11978,0.08057,-0.00992,-0.00702,-0.03174,0.05524,0.01648
8.1855,0.00061,-0.03998,-0.0383,0.00504,-0.03052,-0.04898,-0.01251,-0.00916,-4.73709,-0.12558,0.08316,-0.00961,0.0,-0.01434,0.02533,0.03098
8.186,0.00092,-0.04166,-0.03799,-0.00168,-0.03174,-0.04791,-0.01511,-0.01022,-4.09958,-0.10956,0.05356,-0.0087,0.00275,0.00198,-0.00412,0.03433
8.1865,-0.00015,-0.04211,-0.03693,-0.01312,-0.03159,-0.04776,-0.01572,-0.01282,-2.91748,-0.09018,0.00198,-0.00732,0.00259,0.01694,-0.01541,0.03647
8.187,-0.00244,-0.04105,-0.03738,-0.02151,-0.02991,-0.04761,-0.01495,-0.01343,-1.81549,-0.07874,-0.05905,-0.00549,0.00076,0.01999,-0.02167,0.05112
8.1875,-0.00443,-0.04059,-0.04013,-0.02106,-0.02777,-0.04715,-0.01358,-0.01282,-1.12381,-0.07721,-0.11963,-0.00488,-0.00305,-0.00504,-0.04074,0.07843
8.188,-0.00671,-0.04044,-0.04272,-0.01434,-0.02701,-0.04807,-0.01358,-0.0119,-0.57022,-0.06989,-0.16556,-0.00565,-0.00885,-0.05753,-0.04471,0.12268
8.1885,-0.00961,-0.04089,-0.04272,-0.00717,-0.02655,-0.04837,-0.01465,-0.01144,0.17456,-0.05585,-0.19089,-0.00549,-0.01389,-0.1178,0.0029,0.1767
8.189,-0.01404,-0.04105,-0.04196,-0.00443,-0.02533,-0.04761,-0.01358,-0.00946,1.03424,-0.03265,-0.20096,-0.00381,-0.01907,-0.16068,0.07446,0.20447
8.1895,-0.01785,-0.04059,-0.04013,-0.00305,-0.02151,-0.04562,-0.01129,-0.00671,1.73004,-0.02213,-0.20401,-0.00122,-0.02136,-0.17151,0.10071,0.15884
8.19,-0.0177,-0.04074,-0.03937,0.00015,-0.01785,-0.0444,-0.00961,-0.00305,2.173,-0.02487,-0.19302,0.00092,-0.02106,-0.15015,0.07675,0.02808
8.1905,-0.01312,-0.04181,-0.04028,0.01297,-0.01602,-0.04288,-0.01007,0.00015,2.51434,-0.0415,-0.16861,0.00275,-0.0206,-0.11017,0.06149,-0.14008
8.191,-0.00656,-0.04257,-0.04059,0.03601,-0.01556,-0.04425,-0.01144,0.0029,2.88544,-0.06424,-0.1442,0.00336,-0.02243,-0.06607,0.08057,-0.26459
8.1915,-0.00092,-0.04196,-0.04074,0.06454,-0.01572,-0.04547,-0.01236,0.00366,3.24478,-0.06317,-0.12329,0.00381,-0.02533,-0.02991,0.0885,-0.28809
8.192,0.00214,-0.0415,-0.03937,0.08224,-0.01587,-0.04593,-0.01282,0.00168,3.49167,-0.047,-0.08881,0.00229,-0.02899,-0.00702,0.0592,-0.2269
8.1925,0.00229,-0.0415,-0.03876,0.06699,-0.01709,-0.04654,-0.01236,-0.00122,3.60931,-0.02045,-0.03128,0.00061,-0.0325,0.00381,0.0235,-0.16006
8.193,0.00168,-0.04257,-0.0386,0.01541,-0.01846,-0.0473,-0.01144,-0.00427,3.65921,-0.00397,0.01968,0.00092,-0.03738,0.00427,0.01144,-0.14389
8.1935,0.00076,-0.04318,-0.03662,-0.0499,-0.02045,-0.04944,-0.01175,-0.00687,3.69003,0.01389,0.03555,0.00366,-0.0415,0.00259,0.00641,-0.1619
8.194,0.00107,-0.04211,-0.03586,-0.09933,-0.02289,-0.0473,-0.01266,-0.00824,3.69659,0.02899,0.03159,0.00671,-0.04379,0.00183,-0.01633,-0.16708
8.1945,0.00259,-0.04028,-0.03525,-0.12543,-0.02502,-0.04623,-0.01495,-0.00778,3.64792,0.04288,0.03769,0.00839,-0.0441,0.00046,-0.04333,-0.14923
8.195,0.00381,-0.04135,-0.0351,-0.14252,-0.02609,-0.04578,-0.01587,-0.00565,3.53073,0.03693,0.05051,0.01022,-0.04395,-0.00671,-0.0444,-0.12222
8.1955,0.00305,-0.04257,-0.03479,-0.15198,-0.02853,-0.04974,-0.01495,-0.00458,3.36731,0.01389,0.05066,0.01312,-0.0441,-0.01984,-0.02136,-0.08575
8.196,0.00168,-0.04211,-0.0351,-0.14175,-0.03159,-0.0528,-0.01373,-0.00366,3.19962,-0.01236,0.03586,0.01373,-0.04517,-0.03677,-0.00198,-0.0473
8.1965,-0.00015,-0.04166,-0.03662,-0.09888,-0.03494,-0.05356,-0.01266,-0.00229,3.08884,-0.03326,0.0264,0.01007,-0.04669,-0.05325,-0.00259,-0.02548
8.197,-0.00168,-0.04196,-0.03693,-0.0206,-0.03738,-0.0528,-0.01343,-0.00046,3.19427,-0.04013,0.02762,0.00534,-0.04852,-0.06607,-0.0116,-0.0383
8.1975,-0.00366,-0.04257,-0.03769,0.08209,-0.03983,-0.0531,-0.01297,0.00061,3.73322,-0.0351,0.01892,0.00458,-0.04959,-0.06668,-0.01419,-0.07385
8.198,-0.00595,-0.04227,-0.03693,0.17075,-0.04181,-0.05402,-0.01175,0.00122,4.49646,-0.02701,-0.01114,0.00702,-0.0473,-0.05341,-0.00732,-0.09827
8.1985,-0.009,-0.04028,-0.03555,0.19211,-0.04242,-0.05524,-0.01083,0.00137,4.86908,-0.01968,-0.03845,0.00885,-0.04395,-0.03235,0.00488,-0.09689
8.199,-0.01083,-0.03937,-0.03296,0.13229,-0.04196,-0.05478,-0.01099,0.00031,4.72702,-0.0116,-0.04074,0.00534,-0.04166,-0.0148,0.01419,-0.08057
8.1995,-0.00946,-0.04013,-0.03204,0.04623,-0.04227,-0.05341,-0.01328,-0.00198,4.51279,-0.01526,-0.0209,-0.00275,-0.04044,-0.00549,0.01312,-0.07172
8.2,-0.00565,-0.03983,-0.0322,-0.00137,-0.04227,-0.05188,-0.0145,-0.00473,4.51385,-0.01465,0.0029,-0.01404,-0.03937,-0.00259,0.00488,-0.07706
8.2005,-0.0029,-0.03937,-0.03296,-0.01083,-0.04181,-0.05371,-0.01465,-0.00748,4.57443,-0.00366,0.02548,-0.02136,-0.0383,-0.00137,-0.00534,-0.08041
8.201,-0.00244,-0.03799,-0.03174,-0.02243,-0.03876,-0.05463,-0.01282,-0.00885,4.52927,0.0209,0.0499,-0.01953,-0.03799,-0.00122,-0.01129,-0.07446
8.2015,-0.00275,-0.03754,-0.03036,-0.04776,-0.03693,-0.05249,-0.01205,-0.00916,4.44717,0.06561,0.06897,-0.01251,-0.03876,-0.00183,-0.01556,-0.06241
8.202,-0.0032,-0.0383,-0.0296,-0.05569,-0.03525,-0.05051,-0.01236,-0.00778,4.41895,0.10818,0.07202,-0.00824,-0.03967,-0.00137,-0.01968,-0.05722
8.2025,-0.00259,-0.04028,-0.03174,-0.03311,-0.0325,-0.04898,-0.01328,-0.00504,4.41452,0.13367,0.06317,-0.00778,-0.03998,0.00061,-0.02457,-0.06073
8.203,-0.00168,-0.04089,-0.03403,-0.00427,-0.03036,-0.04791,-0.01297,-0.0029,4.38141,0.14328,0.05402,-0.00717,-0.03845,0.00397,-0.02716,-0.06409
8.2035,0.00061,-0.03983,-0.0351,0.0061,-0.02899,-0.04837,-0.01205,-0.00366,4.33426,0.13336,0.05203,-0.00214,-0.03723,0.00809,-0.02625,-0.05707
8.204,0.00305,-0.03815,-0.03342,-0.00046,-0.02792,-0.05081,-0.01144,-0.00641,4.26178,0.11871,0.05112,0.00366,-0.03723,0.00931,-0.02014,-0.04242
8.2045,0.00473,-0.03891,-0.0322,-0.01007,-0.02914,-0.05157,-0.01175,-0.00793,4.00833,0.09384,0.04959,0.00641,-0.03922,0.00885,-0.01083,-0.02823
8.205,0.00366,-0.04059,-0.03265,-0.01526,-0.0293,-0.05249,-0.0119,-0.00824,3.48358,0.07355,0.04379,0.00748,-0.04272,0.00778,-0.00504,-0.01984
8.2055,0.00259,-0.04089,-0.03326,-0.01755,-0.03036,-0.05066,-0.01205,-0.00732,2.94861,0.05981,0.03311,0.00748,-0.04562,0.00992,-0.00671,-0.0177
8.206,0.00229,-0.03952,-0.03235,-0.01953,-0.02991,-0.05112,-0.01282,-0.00656,2.7597,0.0528,0.02014,0.00732,-0.04562,0.01419,-0.01114,-0.01541
8.2065,0.00381,-0.03845,-0.03189,-0.02014,-0.0325,-0.05066,-0.01389,-0.00595,2.90482,0.04547,0.00519,0.00763,-0.04395,0.0177,-0.01251,-0.01114
8.207,0.00427,-0.03922,-0.03326,-0.01846,-0.0325,-0.04974,-0.01358,-0.00626,3.10318,0.03571,-0.00824,0.00916,-0.04288,0.01953,-0.00809,-0.00565
8.2075,0.00244,-0.04028,-0.03601,-0.01617,-0.0322,-0.04868,-0.01297,-0.00656,3.27576,0.02396,-0.01801,0.00961,-0.04395,0.02182,-0.0032,-0.00015
8.208,-0.00015,-0.04028,-0.03677,-0.01617,-0.03204,-0.04745,-0.0119,-0.00641,3.5733,0.0238,-0.02396,0.00977,-0.04471,0.0267,-0.00168,0.00061
8.2085,-0.00214,-0.03967,-0.03632,-0.01862,-0.03281,-0.04791,-0.0116,-0.00671,3.95782,0.0238,-0.03159,0.00977,-0.04608,0.0325,-0.0032,-0.00092
8.209,-0.00244,-0.03876,-0.0351,-0.02411,-0.03448,-0.0499,-0.01099,-0.00702,4.15009,0.02029,-0.04074,0.01007,-0.04623,0.03494,-0.00458,-0.00259
8.2095,-0.00092,-0.0383,-0.03448,-0.03418,-0.03571,-0.0499,-0.01099,-0.00702,4.06067,0.01556,-0.04532,0.00977,-0.0444,0.03448,-0.00305,-0.00656
8.21,0.00076,-0.03876,-0.03555,-0.04761,-0.03616,-0.04822,-0.00854,-0.00534,3.74054,0.00473,-0.04898,0.0087,-0.04333,0.03174,0.00122,-0.00778
8.2105,0.00107,-0.03906,-0.03555,-0.05402,-0.03387,-0.04639,-0.00809,-0.00412,2.96173,-0.01114,-0.04959,0.00732,-0.04333,0.02441,0.00351,-0.00656
8.211,0.00015,-0.0386,-0.03555,-0.04761,-0.03204,-0.04669,-0.00702,-0.00458,1.44104,-0.03479,-0.05432,0.00641,-0.04242,0.01053,0.00366,-0.00275
8.2115,-0.00122,-0.03952,-0.03525,-0.03571,-0.03189,-0.04929,-0.00778,-0.00565,-0.50797,-0.05417,-0.06042,0.00626,-0.0412,-0.00656,0.00427,-0.00122
8.212,-0.00107,-0.04013,-0.03403,-0.03616,-0.03159,-0.05005,-0.00931,-0.0058,-1.98761,-0.05798,-0.06104,0.00656,-0.04028,-0.01801,0.00565,-0.00259
8.2125,-0.00046,-0.03906,-0.03281,-0.05585,-0.0293,-0.05005,-0.01053,-0.00443,-2.37305,-0.05554,-0.05157,0.00732,-0.03952,-0.01846,0.00793,-0.00504
8.213,-0.00076,-0.03845,-0.03189,-0.08148,-0.02533,-0.04791,-0.01053,-0.00397,-1.8692,-0.05203,-0.03906,0.00992,-0.03922,-0.01175,0.00793,-0.00565
8.2135,-0.00168,-0.03784,-0.03189,-0.09552,-0.02274,-0.04761,-0.01099,-0.0058,-1.22406,-0.04974,-0.03296,0.0116,-0.03998,-0.00885,0.00839,-0.00519
8.214,-0.00397,-0.03754,-0.0322,-0.08896,-0.02151,-0.04883,-0.01099,-0.0061,-1.04446,-0.04929,-0.03372,0.0116,-0.04196,-0.01495,0.00977,-0.00351
8.2145,-0.00519,-0.03677,-0.03357,-0.05508,-0.02121,-0.04929,-0.01083,-0.00519,-1.61102,-0.047,-0.03555,0.00931,-0.04486,-0.02716,0.01038,-0.00244
8.215,-0.00641,-0.03586,-0.03403,0.00641,-0.01968,-0.04929,-0.01083,-0.00366,-2.84775,-0.05264,-0.0325,0.00702,-0.04776,-0.03983,0.009,-0.00198
8.2155,-0.00732,-0.03708,-0.03555,0.07111,-0.01892,-0.04913,-0.01068,-0.0032,-4.20776,-0.05524,-0.02777,0.0061,-0.05142,-0.05188,0.00854,-0.00336
8.216,-0.00839,-0.04028,-0.03662,0.09842,-0.01907,-0.04944,-0.01205,-0.0032,-4.94705,-0.05524,-0.02029,0.00427,-0.05615,-0.0676,0.00763,-0.00565
8.2165,-0.0087,-0.04333,-0.03571,0.07278,-0.02228,-0.05035,-0.0119,-0.00305,-4.97498,-0.05035,-0.00854,0.00351,-0.0621,-0.08087,0.01007,-0.00885
8.217,-0.009,-0.04333,-0.03616,0.02838,-0.02457,-0.05142,-0.01083,-0.00107,-4.97162,-0.04517,0.01617,0.00275,-0.06653,-0.0856,0.01144,-0.01221
8.2175,-0.00992,-0.04272,-0.03601,0.00839,-0.02533,-0.05234,-0.00977,-0.00015,-4.9501,-0.0412,0.04227,0.00076,-0.06851,-0.08102,0.01205,-0.01572
8.218,-0.01129,-0.04181,-0.03662,0.0148,-0.02609,-0.05234,-0.00885,0.00122,-4.97681,-0.03799,0.05508,-0.00031,-0.06699,-0.07477,0.01114,-0.01968
8.2185,-0.01129,-0.04288,-0.03708,0.02151,-0.02884,-0.05249,-0.00916,-0.00046,-4.97665,-0.03174,0.04395,-0.00153,-0.06271,-0.07004,0.01068,-0.02121
8.219,-0.01175,-0.04425,-0.03754,0.01587,-0.03281,-0.05295,-0.00977,-0.0029,-4.97559,-0.02975,0.0116,-0.00244,-0.05798,-0.06317,0.0087,-0.02106
8.2195,-0.0119,-0.04623,-0.0354,0.0087,-0.03601,-0.0528,-0.00961,-0.0032,-4.97513,-0.03082,-0.02472,-0.00381,-0.05219,-0.05142,0.00565,-0.01968
8.22,-0.0116,-0.04761,-0.0351,0.00763,-0.03708,-0.05142,-0.00885,-0.00092,-4.97513,-0.04578,-0.0531,-0.00549,-0.04669,-0.04211,0.00336,-0.02075
8.2205,-0.01282,-0.04852,-0.03387,0.00381,-0.03708,-0.05112,-0.00824,0.00168,-4.97467,-0.05905,-0.06897,-0.00473,-0.04013,-0.04318,0.00458,-0.0235
8.221,-0.01205,-0.04883,-0.03433,-0.01007,-0.03891,-0.05051,-0.00809,0.00153,-4.97421,-0.06866,-0.08514,-0.00229,-0.03403,-0.04944,0.00717,-0.0267
8.2215,-0.01083,-0.04654,-0.03311,-0.02701,-0.03952,-0.04974,-0.01053,-0.00122,-4.97437,-0.06821,-0.10727,-0.00031,-0.0296,-0.04959,0.00809,-0.02914
8.222,-0.01022,-0.04486,-0.03418,-0.03464,-0.03922,-0.04791,-0.01221,-0.0032,-4.97482,-0.06317,-0.12909,0.00122,-0.02655,-0.03784,0.00717,-0.03036
8.2225,-0.00992,-0.04547,-0.03616,-0.03189,-0.03876,-0.04791,-0.01236,-0.00488,-4.97467,-0.065,-0.13474,0.00305,-0.02289,-0.01938,0.00595,-0.03571
8.223,-0.00992,-0.04608,-0.03693,-0.02899,-0.04074,-0.04898,-0.01144,-0.00519,-4.97498,-0.06119,-0.11169,0.0058,-0.01724,-0.00214,0.00854,-0.03769
8.2235,-0.00992,-0.04517,-0.03433,-0.03128,-0.0415,-0.05005,-0.01129,-0.00534,-4.97452,-0.04807,-0.07324,0.00839,-0.01083,0.01114,0.01465,-0.03464
8.224,-0.00977,-0.04333,-0.03143,-0.03952,-0.04303,-0.04944,-0.01221,-0.00458,-4.97452,-0.03632,-0.03937,0.00763,-0.00824,0.01602,0.0174,-0.02838
8.2245,-0.01083,-0.04349,-0.03098,-0.05554,-0.04364,-0.04929,-0.01343,-0.00397,-4.97467,-0.03372,-0.03082,0.00412,-0.00885,0.01038,0.01495,-0.02396
8.225,-0.01068,-0.04532,-0.03326,-0.08301,-0.04303,-0.04883,-0.01343,-0.00336,-4.97482,-0.04135,-0.04578,0.00031,-0.01144,-0.00153,0.00961,-0.02472
8.2255,-0.00916,-0.04807,-0.03555,-0.12222,-0.04105,-0.0502,-0.01282,-0.00305,-4.97467,-0.03662,-0.07492,-0.00061,-0.01373,-0.01373,0.00534,-0.02838
8.226,-0.00671,-0.04868,-0.03632,-0.16037,-0.03998,-0.05112,-0.01358,-0.00351,-4.97482,-0.0296,-0.0975,0.00183,-0.01663,-0.02243,0.00336,-0.02945
8.2265,-0.00397,-0.04791,-0.03479,-0.18173,-0.03952,-0.05127,-0.01495,-0.00458,-4.97513,-0.02213,-0.09094,0.00504,-0.0174,-0.02823,0.00504,-0.02594
8.227,-0.00229,-0.04807,-0.0354,-0.16937,-0.03998,-0.0502,-0.01556,-0.00473,-4.95712,-0.01678,-0.04562,0.0058,-0.01678,-0.0264,0.00854,-0.02151
8.2275,-0.00137,-0.04868,-0.03754,-0.10895,-0.03922,-0.04959,-0.01511,-0.0032,-4.91379,-0.00519,0.01389,0.00397,-0.01373,-0.01633,0.01068,-0.02014
8.228,-0.00137,-0.04929,-0.03738,-0.00641,-0.03876,-0.04929,-0.01404,-0.00183,-4.87366,0.00839,0.05722,0.00259,-0.01129,-0.00336,0.01312,-0.02014
8.2285,-0.00168,-0.04913,-0.03738,0.09262,-0.03708,-0.05035,-0.01297,-0.00153,-4.77264,0.00565,0.08026,0.00229,-0.00916,0.0029,0.01663,-0.01846
8.229,-0.00168,-0.04868,-0.03677,0.13,-0.03555,-0.05005,-0.01205,-0.00183,-4.12628,-0.00931,0.09308,0.00275,-0.009,0.00549,0.02106,-0.01755
8.2295,-0.00107,-0.04684,-0.03815,0.09384,-0.0354,-0.04883,-0.01251,-0.00183,-2.17667,-0.02274,0.09659,0.00214,-0.00961,0.01389,0.02335,-0.01984
8.23,0.00031,-0.04425,-0.0383,0.0325,-0.03433,-0.04883,-0.01389,0.00015,0.51575,-0.0235,0.08911,0.00015,-0.01129,0.02899,0.02167,-0.02472
8.2305,0.00168,-0.04272,-0.0354,-0.00397,-0.03174,-0.04807,-0.01556,0.00092,2.07855,-0.01511,0.06897,-0.00122,-0.01358,0.04578,0.01999,-0.03143
8.231,0.00229,-0.04379,-0.03433,-0.00885,-0.03326,-0.04807,-0.01617,-0.00061,2.01553,0.00748,0.04944,-0.00229,-0.01633,0.05676,0.0209,-0.03799
8.2315,0.00244,-0.04456,-0.03311,-0.00931,-0.02991,-0.04654,-0.01556,-0.0032,1.76239,0.02655,0.03448,-0.00336,-0.01999,0.06302,0.02502,-0.04669
8.232,0.00198,-0.0441,-0.03235,-0.0177,-0.03052,-0.04532,-0.01587,-0.00458,2.35794,0.02838,0.01511,-0.0061,-0.02411,0.06256,0.02579,-0.05814
8.2325,0.00183,-0.04364,-0.03235,-0.02487,-0.03098,-0.04333,-0.01678,-0.00549,3.26126,0.01343,-0.00763,-0.01038,-0.02899,0.05005,0.02243,-0.07248
8.233,0.00351,-0.0444,-0.0325,-0.02197,-0.03006,-0.04333,-0.01785,-0.00671,3.73672,-0.00061,-0.02747,-0.01465,-0.03372,0.0174,0.01541,-0.08743
8.2335,0.00443,-0.04578,-0.03296,-0.01236,-0.03021,-0.04349,-0.0174,-0.00854,3.91647,-0.00397,-0.03464,-0.01633,-0.03693,-0.03143,0.00977,-0.09644
8.234,0.00595,-0.04593,-0.03433,0.00168,-0.02823,-0.04578,-0.01633,-0.009,4.20273,-0.00336,-0.02884,-0.01343,-0.03799,-0.08224,0.00717,-0.09872
8.2345,0.00793,-0.04517,-0.03693,0.01892,-0.0267,-0.04715,-0.01694,-0.0058,4.57428,-0.00122,-0.02106,-0.00931,-0.03677,-0.11688,0.00671,-0.09445
8.235,0.01099,-0.04349,-0.03677,0.03464,-0.02792,-0.04715,-0.01816,-0.0032,4.81445,-0.01221,-0.02014,-0.00717,-0.03632,-0.11856,0.00748,-0.08713
8.2355,0.01434,-0.04257,-0.03571,0.04639,-0.02914,-0.04456,-0.01694,-0.00183,4.87732,-0.01663,-0.02762,-0.00656,-0.03601,-0.0853,0.00793,-0.0795
8.236,0.01938,-0.0415,-0.03357,0.05936,-0.03143,-0.04318,-0.01358,-0.00153,4.84879,-0.01358,-0.03616,-0.00534,-0.03677,-0.0322,0.00809,-0.07172
8.2365,0.02548,-0.04272,-0.03433,0.07584,-0.03128,-0.04395,-0.01175,-0.00214,4.8024,-0.00595,-0.03662,-0.00458,-0.03922,0.01282,0.00977,-0.06363
8.237,0.02945,-0.0444,-0.03403,0.08255,-0.03159,-0.047,-0.01251,-0.00168,4.76242,0.00076,-0.02808,-0.00351,-0.04227,0.03952,0.01236,-0.05646
8.2375,0.02823,-0.04318,-0.03418,0.06287,-0.03128,-0.04822,-0.01373,-0.00046,4.73068,0.00809,-0.01648,-0.00397,-0.0444,0.05463,0.01373,-0.05371
8.238,0.02396,-0.04028,-0.03265,0.01938,-0.03204,-0.0473,-0.01434,-0.00031,4.69757,0.00656,-0.01205,-0.00656,-0.047,0.06622,0.01221,-0.05661
8.2385,0.02014,-0.0383,-0.03265,-0.03067,-0.03036,-0.04562,-0.01373,-0.00061,4.66232,0.00412,-0.01205,-0.01068,-0.05096,0.07782,0.00687,-0.06149
8.239,0.01801,-0.03952,-0.0322,-0.06927,-0.02975,-0.04379,-0.01221,-0.00107,4.62799,-0.00092,-0.01358,-0.01419,-0.05463,0.09171,0.00259,-0.06485
8.2395,0.01617,-0.04044,-0.03036,-0.08942,-0.0293,-0.04288,-0.01236,0.00107,4.59503,0.00458,-0.01205,-0.01434,-0.05722,0.10941,0.00015,-0.06516
8.24,0.01358,-0.04044,-0.03113,-0.09537,-0.0293,-0.04227,-0.01175,0.0029,4.56299,0.01862,-0.00671,-0.01068,-0.05722,0.11917,-0.00015,-0.06134
8.2405,0.01144,-0.04028,-0.03128,-0.0914,-0.02899,-0.04272,-0.01144,0.00336,4.52866,0.03311,-0.00443,-0.00534,-0.05692,0.10635,0.00168,-0.05692
8.241,0.00824,-0.04135,-0.03021,-0.07217,-0.02884,-0.04379,-0.01221,0.00275,4.49524,0.03464,-0.0061,-0.00107,-0.05768,0.06638,0.00458,-0.0528
8.2415,0.00381,-0.04303,-0.03036,-0.03937,-0.02869,-0.04425,-0.01297,0.00275,4.46411,0.0209,-0.01114,0.00168,-0.05875,0.01129,0.00687,-0.05005
8.242,-0.00198,-0.0441,-0.03052,-0.01343,-0.02792,-0.04456,-0.01343,0.00381,4.43268,0.00381,-0.01373,0.00473,-0.05646,-0.04654,0.00778,-0.0499
8.2425,-0.00641,-0.04227,-0.0325,-0.01678,-0.0296,-0.04486,-0.01404,0.00458,4.40002,-0.00626,-0.01328,0.00931,-0.05081,-0.09766,0.00992,-0.04959
8.243,-0.00916,-0.04105,-0.03342,-0.04333,-0.03113,-0.04456,-0.01434,0.0032,4.36783,-0.00793,-0.01251,0.01053,-0.04303,-0.14008,0.01175,-0.04776
8.2435,-0.0119,-0.03983,-0.03372,-0.06271,-0.03143,-0.04471,-0.01434,0.0029,4.33609,-0.01129,-0.01892,0.00854,-0.03448,-0.1712,0.01556,-0.0473
8.244,-0.01556,-0.03967,-0.03128,-0.05875,-0.03159,-0.04562,-0.0145,0.00336,4.29672,-0.01785,-0.05417,0.00687,-0.0238,-0.18036,0.01648,-0.04837
8.2445,-0.02014,-0.04059,-0.03036,-0.03204,-0.02975,-0.04608,-0.0145,0.00198,4.21158,-0.02869,-0.12665,0.00748,-0.01221,-0.16312,0.01511,-0.04944
8.245,-0.02258,-0.04028,-0.03082,0.02518,-0.03021,-0.04684,-0.01511,-0.00214,4.04175,-0.0386,-0.21011,0.00916,-0.00183,-0.12619,0.00961,-0.0499
8.2455,-0.02258,-0.03967,-0.03174,0.11353,-0.02945,-0.04791,-0.01526,-0.00443,3.81088,-0.03967,-0.25238,0.00992,0.00412,-0.08652,-0.00061,-0.04974
8.246,-0.02045,-0.03967,-0.0325,0.18829,-0.02975,-0.04807,-0.01541,-0.00381,3.59161,-0.04059,-0.22949,0.00854,0.00717,-0.05951,-0.00595,-0.05096
8.2465,-0.01617,-0.03891,-0.03418,0.1886,-0.02975,-0.04822,-0.01633,-0.00168,3.41644,-0.04471,-0.16083,0.00504,0.00702,-0.04929,-0.00824,-0.05173
8.247,-0.0116,-0.03769,-0.03265,0.11871,-0.03052,-0.04715,-0.0174,-0.00092,3.24997,-0.04425,-0.07309,0.00214,0.00153,-0.05096,-0.0206,-0.04883
8.2475,-0.00702,-0.03662,-0.03357,0.0528,-0.03052,-0.04639,-0.01724,-0.00031,3.06152,-0.04272,0.02197,0.00092,-0.00839,-0.06546,-0.05264,-0.04303
8.248,-0.00443,-0.03754,-0.03357,0.03326,-0.03006,-0.047,-0.0174,0.00015,2.85858,-0.03983,0.10681,0.00061,-0.01953,-0.09247,-0.07614,-0.03601
8.2485,-0.0029,-0.03891,-0.03311,0.02762,-0.02945,-0.04761,-0.01755,0.0,2.66144,-0.03525,0.14648,0.0,-0.02792,-0.12848,-0.04807,-0.03357
8.249,-0.00122,-0.03998,-0.03281,-0.00641,-0.02945,-0.04929,-0.01755,-0.00183,2.47452,-0.03464,0.13199,-0.00107,-0.0325,-0.16251,0.01892,-0.03708
8.2495,0.00122,-0.04074,-0.03281,-0.05402,-0.03021,-0.04929,-0.01862,-0.00366,2.29584,-0.03021,0.09659,-0.00046,-0.03403,-0.18387,0.06561,-0.03952
8.25,0.00275,-0.03998,-0.03296,-0.07111,-0.02991,-0.04822,-0.01785,-0.00336,2.12372,-0.02655,0.0737,0.00214,-0.03403,-0.18219,0.06424,-0.03891
8.2505,0.00397,-0.03998,-0.03387,-0.04868,-0.02975,-0.04837,-0.0174,-0.00229,1.95602,-0.02487,0.06836,0.00534,-0.03159,-0.1535,0.05219,-0.03708
8.251,0.00443,-0.03845,-0.03387,-0.02365,-0.02991,-0.05005,-0.01572,-0.00137,1.79276,-0.02899,0.06683,0.00778,-0.02655,-0.10651,0.05493,-0.03464
8.2515,0.00458,-0.03754,-0.03235,-0.02869,-0.02838,-0.05112,-0.01404,-0.00214,1.63361,-0.03235,0.05722,0.00916,-0.02167,-0.06165,0.0325,-0.03204
8.252,0.00427,-0.03815,-0.03189,-0.06088,-0.02762,-0.04959,-0.01373,-0.00229,1.48026,-0.03677,0.03281,0.00946,-0.01678,-0.0322,-0.04425,-0.03098
8.2525,0.00259,-0.03906,-0.03189,-0.09628,-0.02792,-0.04654,-0.01328,-0.00244,1.33316,-0.04791,-0.00549,0.01175,-0.01328,-0.01663,-0.13916,-0.03357
8.253,0.00092,-0.03952,-0.03433,-0.121,-0.02808,-0.04715,-0.01266,-0.00153,1.19476,-0.06119,-0.04486,0.01419,-0.01266,-0.00809,-0.17593,-0.03876
8.2535,0.0,-0.03952,-0.03494,-0.13184,-0.02884,-0.04852,-0.01297,-0.00153,1.0672,-0.07004,-0.06943,0.01648,-0.0148,-0.00397,-0.12756,-0.04089
8.254,-0.00015,-0.04044,-0.03494,-0.13077,-0.03006,-0.05066,-0.01434,-0.00153,0.94833,-0.07462,-0.06454,0.01541,-0.01907,-0.00153,-0.0325,-0.04105
8.2545,-0.00015,-0.04166,-0.03464,-0.12405,-0.03265,-0.04974,-0.01556,-0.0032,0.83267,-0.06821,-0.02823,0.01221,-0.02121,0.00763,0.07401,-0.04303
8.255,0.00107,-0.0412,-0.03418,-0.11978,-0.03403,-0.04791,-0.01602,-0.00336,0.7196,-0.05737,0.02548,0.0087,-0.01968,0.02579,0.16769,-0.04837
8.2555,0.00351,-0.04059,-0.0354,-0.11734,-0.03403,-0.04776,-0.01541,-0.00244,0.61508,-0.04318,0.07111,0.00732,-0.01801,0.04425,0.20264,-0.05234
8.256,0.00534,-0.04059,-0.0351,-0.10727,-0.03342,-0.04837,-0.01434,-0.00153,0.51529,-0.02594,0.08759,0.00885,-0.0177,0.056,0.13885,-0.04929
8.2565,0.00534,-0.04028,-0.03342,-0.08087,-0.03342,-0.04669,-0.01343,-0.00168,0.41611,-0.01709,0.07721,0.01053,-0.01877,0.065,0.03769,-0.0412
8.257,0.00336,-0.03952,-0.03174,-0.04745,-0.03479,-0.0444,-0.0145,-0.00305,0.32104,-0.01038,0.06348,0.01007,-0.01984,0.07751,-0.00473,-0.03616
8.2575,0.00122,-0.0386,-0.03052,-0.02655,-0.03448,-0.04349,-0.01587,-0.00519,0.23224,-0.00641,0.06409,0.00702,-0.02121,0.09216,0.01801,-0.03967
8.258,0.00183,-0.03906,-0.0293,-0.02075,-0.03342,-0.04471,-0.01709,-0.00656,0.15213,-0.00534,0.07507,0.00732,-0.02121,0.10452,0.04196,-0.04227
8.2585,0.0032,-0.03937,-0.02869,-0.00626,-0.03189,-0.04639,-0.0177,-0.00793,0.0798,-0.01236,0.08011,0.01053,-0.01938,0.1149,0.04578,-0.03525
8.259,0.00412,-0.03952,-0.02792,0.03952,-0.03143,-0.04715,-0.01785,-0.00977,0.01282,-0.0351,0.06775,0.01648,-0.01617,0.12451,0.05203,-0.0264
8.2595,0.00458,-0.03815,-0.02823,0.09995,-0.03235,-0.04593,-0.01663,-0.00977,-0.05264,-0.05463,0.04211,0.02869,-0.01434,0.12909,0.05768,-0.02838
8.26,0.00488,-0.03784,-0.02869,0.1387,-0.03235,-0.04547,-0.01556,-0.00702,-0.11688,-0.05219,0.01678,0.04303,-0.0145,0.12085,0.0412,-0.03922
8.2605,0.00519,-0.03784,-0.0296,0.13992,-0.03189,-0.04532,-0.01526,-0.00275,-0.17899,-0.0351,0.00214,0.04272,-0.01755,0.09262,0.01541,-0.04532
8.261,0.00427,-0.03876,-0.0293,0.1236,-0.03143,-0.04517,-0.01404,0.00015,-0.23819,-0.02365,-0.00427,0.01907,-0.02075,0.03937,0.00443,-0.04135
8.2615,0.00443,-0.03922,-0.02777,0.11703,-0.03174,-0.04532,-0.01404,0.00046,-0.29388,-0.02167,-0.00992,-0.01129,-0.02441,-0.03403,0.00854,-0.03677
8.262,0.00519,-0.03967,-0.02747,0.12222,-0.0325,-0.04593,-0.01434,0.00015,-0.34363,-0.02533,-0.01923,-0.02518,-0.02869,-0.1091,0.0116,-0.04089
8.2625,0.00488,-0.04089,-0.02762,0.12024,-0.03265,-0.04669,-0.01434,-0.00076,-0.38712,-0.01923,-0.03387,-0.01648,-0.03174,-0.15839,0.01114,-0.04639
8.263,0.00412,-0.0412,-0.02792,0.09766,-0.03143,-0.04684,-0.01556,-0.00229,-0.42755,-0.00809,-0.05066,0.00092,-0.03113,-0.16113,0.0148,-0.04578
8.2635,0.00351,-0.04059,-0.02731,0.06546,-0.03067,-0.0473,-0.01648,-0.00366,-0.4689,0.00275,-0.06165,0.01816,-0.02853,-0.121,0.02655,-0.03983
8.264,0.00336,-0.04028,-0.02808,0.03952,-0.02991,-0.04562,-0.01678,-0.00473,-0.5101,0.01038,-0.06271,0.03738,-0.02609,-0.06561,0.03723,-0.03372
8.2645,0.0032,-0.04044,-0.02991,0.02518,-0.03082,-0.04456,-0.0174,-0.00565,-0.54764,0.01541,-0.05585,0.05768,-0.02365,-0.02472,0.03128,-0.02869
8.265,0.00305,-0.04135,-0.03052,0.02045,-0.03098,-0.04456,-0.01755,-0.00656,-0.57877,0.01892,-0.04868,0.06454,-0.02258,-0.00534,0.01923,-0.02396
8.2655,0.00198,-0.04135,-0.02899,0.0235,-0.03235,-0.04547,-0.01602,-0.0061,-0.60699,0.01022,-0.04608,0.04654,-0.02045,0.00229,0.00565,-0.0235
8.266,-0.00107,-0.04044,-0.02838,0.02945,-0.03357,-0.04562,-0.01541,-0.00412,-0.63675,-0.00046,-0.04684,0.01251,-0.02045,0.00656,-0.01068,-0.02899
8.2665,-0.00473,-0.03967,-0.02914,0.02411,-0.03281,-0.04532,-0.0145,-0.00137,-0.66772,-0.0145,-0.04272,-0.01862,-0.02243,0.00778,-0.04196,-0.03845
8.267,-0.00702,-0.03983,-0.0293,-0.00427,-0.03189,-0.04471,-0.01419,0.0,-0.69427,-0.0267,-0.02731,-0.03876,-0.02518,0.00793,-0.0856,-0.04639
8.2675,-0.00839,-0.04105,-0.02899,-0.04608,-0.03174,-0.04456,-0.01343,-0.00015,-0.71304,-0.03494,-0.00687,-0.05676,-0.02747,0.00778,-0.12436,-0.05142
8.268,-0.00977,-0.04135,-0.02914,-0.07477,-0.03204,-0.04593,-0.01297,0.0,-0.73227,-0.04059,0.01251,-0.07813,-0.0293,0.00702,-0.14572,-0.0531
8.2685,-0.01083,-0.04089,-0.02914,-0.08087,-0.03082,-0.04715,-0.01175,0.00046,-0.75287,-0.04135,0.02594,-0.09842,-0.03113,-0.00092,-0.13824,-0.05295
8.269,-0.00931,-0.04089,-0.02853,-0.07385,-0.02945,-0.04745,-0.01022,0.0,-0.76553,-0.04425,0.03387,-0.10529,-0.03265,-0.01892,-0.08728,-0.05295
8.2695,-0.00565,-0.03998,-0.02914,-0.07034,-0.02686,-0.04639,-0.00992,0.00015,-0.77362,-0.05066,0.03708,-0.09171,-0.03357,-0.0412,-0.00183,-0.05203
8.27,-0.00214,-0.0386,-0.03036,-0.07523,-0.02609,-0.04562,-0.01099,0.00015,-0.78033,-0.05646,0.03937,-0.06149,-0.03479,-0.05768,0.08743,-0.05066
8.2705,-0.00015,-0.0383,-0.03204,-0.08514,-0.02716,-0.0441,-0.01068,0.00168,-0.79056,-0.05295,0.04288,-0.02884,-0.03616,-0.05966,0.1506,-0.047
8.271,0.00122,-0.04028,-0.03098,-0.09537,-0.02838,-0.0444,-0.01083,0.00259,-0.79727,-0.04654,0.04364,-0.01114,-0.03693,-0.04959,0.16357,-0.03708
8.2715,0.00168,-0.04196,-0.0293,-0.10452,-0.03006,-0.04517,-0.01099,0.00183,-0.79681,-0.03967,0.03738,-0.01785,-0.03647,-0.03448,0.12054,-0.02151
8.272,0.00214,-0.04211,-0.03021,-0.11322,-0.03098,-0.04547,-0.01312,0.00076,-0.79132,-0.03662,0.02258,-0.03479,-0.0354,-0.02197,0.04654,-0.00641
8.2725,0.00229,-0.04135,-0.03204,-0.12375,-0.03098,-0.04501,-0.01434,0.00092,-0.78857,-0.03372,0.00473,-0.03723,-0.03418,-0.01358,0.00732,0.00443
8.273,0.00183,-0.0412,-0.03326,-0.1329,-0.02991,-0.04395,-0.01312,0.00229,-0.79315,-0.03006,-0.01266,-0.01572,-0.03372,-0.01053,0.03677,0.01495
8.2735,0.00122,-0.0412,-0.03387,-0.12421,-0.03082,-0.04318,-0.01099,0.00229,-0.73456,-0.03479,-0.03174,0.00458,-0.03372,-0.00931,0.09491,0.02258
8.274,0.00092,-0.04181,-0.03143,-0.07767,-0.03128,-0.04349,-0.01114,0.00092,-0.23041,-0.04562,-0.05096,0.00305,-0.03433,-0.0058,0.12161,0.02213
8.2745,0.00275,-0.0415,-0.03326,0.0032,-0.03159,-0.04456,-0.01297,-0.00046,1.24802,-0.06256,-0.05814,-0.00946,-0.03555,0.00015,0.10971,0.01266
8.275,0.00504,-0.04333,-0.03433,0.08301,-0.03098,-0.04578,-0.01373,0.0,3.24371,-0.07584,-0.04776,-0.00931,-0.03723,0.00366,0.09338,-0.00229
8.2755,0.00458,-0.04364,-0.03632,0.12085,-0.03082,-0.04639,-0.01389,0.00137,4.37408,-0.08606,-0.03128,0.0032,-0.03906,0.00534,0.08194,-0.02625
8.276,0.0032,-0.04364,-0.03693,0.10956,-0.03159,-0.04684,-0.01343,0.00275,4.2128,-0.09109,-0.02869,0.01068,-0.03922,0.00641,0.05432,-0.0563
8.2765,0.00198,-0.04349,-0.03586,0.0769,-0.03311,-0.04837,-0.01419,0.0029,3.73734,-0.0882,-0.04257,0.00763,-0.0383,0.00595,0.01343,-0.08026
8.277,0.00336,-0.04349,-0.03479,0.04883,-0.03326,-0.04959,-0.01434,0.0029,3.50555,-0.07462,-0.05859,0.00275,-0.03891,0.00427,-0.01633,-0.08926
8.2775,0.00488,-0.0441,-0.03418,0.02884,-0.03357,-0.05051,-0.01328,0.00229,2.75177,-0.04547,-0.06332,0.00381,-0.0412,0.00046,-0.03403,-0.09247
8.278,0.00427,-0.04486,-0.03464,0.00488,-0.03479,-0.04974,-0.01343,0.00168,0.82031,-0.00198,-0.05737,0.00687,-0.04349,-0.0032,-0.05386,-0.10178
8.2785,0.00092,-0.04501,-0.03571,-0.0267,-0.03616,-0.04837,-0.01312,0.0,-1.51382,0.04471,-0.04883,0.01144,-0.04333,-0.0058,-0.0737,-0.1091
8.279,-0.00198,-0.04318,-0.03494,-0.05768,-0.03647,-0.04776,-0.01266,-0.00168,-2.95441,0.07462,-0.0412,0.01678,-0.04318,-0.009,-0.06866,-0.09552
8.2795,-0.00092,-0.04074,-0.03342,-0.07477,-0.03464,-0.04639,-0.01114,-0.00259,-3.31146,0.07858,-0.03738,0.02243,-0.04303,-0.01068,-0.02838,-0.06134
8.28,0.00061,-0.0412,-0.03326,-0.06699,-0.03372,-0.04639,-0.01053,-0.00061,-3.36258,0.06851,-0.04074,0.02304,-0.04257,-0.01114,0.02213,-0.02853
8.2805,0.00076,-0.04288,-0.03235,-0.03265,-0.03418,-0.04639,-0.01083,0.00229,-3.62289,0.05066,-0.05127,0.01846,-0.0412,-0.01083,0.04776,-0.01312
8.281,-0.00061,-0.04333,-0.03265,0.01938,-0.03464,-0.04623,-0.0116,0.00427,-3.92441,0.03738,-0.06332,0.01297,-0.04166,-0.009,0.0351,-0.01465
8.2815,-0.00107,-0.04196,-0.03342,0.06485,-0.03418,-0.04684,-0.01175,0.00381,-3.96469,0.02991,-0.07324,0.0116,-0.04272,-0.00732,0.0058,-0.02457
8.282,-0.00198,-0.04166,-0.03677,0.08072,-0.03265,-0.04654,-0.01099,0.00183,-3.65891,0.02686,-0.0737,0.0119,-0.04333,-0.00748,-0.00809,-0.03693
8.2825,-0.00275,-0.04288,-0.03723,0.06821,-0.0322,-0.04684,-0.01205,0.00015,-3.02567,0.02426,-0.06195,0.00992,-0.04272,-0.009,-0.0032,-0.04715
8.283,-0.00351,-0.04425,-0.03601,0.04257,-0.03082,-0.04776,-0.01205,0.00046,-2.13181,0.02274,-0.03906,0.00549,-0.0412,-0.00763,0.00015,-0.05249
8.2835,-0.00366,-0.04395,-0.03464,0.02106,-0.03128,-0.04837,-0.01205,-0.00046,-1.20209,0.0235,-0.0148,0.00275,-0.03952,-0.00351,-0.00595,-0.06332
8.284,-0.0032,-0.04425,-0.03601,0.00732,-0.03052,-0.04761,-0.01083,-0.00137,-0.59891,0.02426,0.00443,0.00397,-0.03845,0.00397,-0.01587,-0.08713
8.2845,-0.00351,-0.04456,-0.03601,0.00336,-0.02945,-0.047,-0.00961,-0.00137,-0.54413,0.0209,0.02029,0.00824,-0.03891,0.0145,-0.03235,-0.11108
8.285,-0.00427,-0.04517,-0.03632,0.00381,-0.0296,-0.04791,-0.01068,-0.00153,-1.00754,0.01663,0.03662,0.01083,-0.03876,0.02533,-0.05478,-0.11459
8.2855,-0.00412,-0.04562,-0.0354,0.0029,-0.03052,-0.04898,-0.01282,-0.00259,-2.05658,0.01419,0.0473,0.01068,-0.03891,0.03448,-0.07935,-0.09644
8.286,-0.00427,-0.04608,-0.03342,0.00519,-0.03052,-0.04898,-0.01358,-0.00412,-3.67279,0.01038,0.03632,0.01099,-0.04013,0.03616,-0.09842,-0.07446
8.2865,-0.00504,-0.04684,-0.03571,0.01434,-0.0296,-0.04791,-0.01312,-0.0061,-4.91928,-0.00427,0.00717,0.01282,-0.04211,0.03067,-0.0972,-0.06302
8.287,-0.00671,-0.04715,-0.03784,0.02701,-0.0296,-0.04776,-0.01236,-0.0061,-4.97467,-0.03006,-0.01205,0.01465,-0.04486,0.02365,-0.06882,-0.05997
8.2875,-0.00885,-0.04761,-0.03891,0.0296,-0.02945,-0.04837,-0.01175,-0.00565,-4.9707,-0.06332,0.00137,0.01602,-0.04608,0.02182,-0.02502,-0.05768
8.288,-0.00931,-0.04929,-0.03799,0.0174,-0.02823,-0.04745,-0.01083,-0.00488,-4.8465,-0.09308,0.03738,0.01709,-0.04456,0.02609,0.00381,-0.05615
8.2885,-0.00931,-0.05051,-0.03754,-0.00122,-0.02686,-0.04578,-0.00931,-0.0032,-4.96704,-0.10406,0.05966,0.01846,-0.04196,0.03204,0.00183,-0.05676
8.289,-0.00839,-0.05035,-0.03647,-0.01511,-0.02701,-0.04486,-0.00854,-0.00122,-4.97604,-0.09964,0.04318,0.01724,-0.04028,0.03357,-0.01709,-0.05585
8.2895,-0.00732,-0.04913,-0.03525,-0.02579,-0.02731,-0.04517,-0.00931,-0.00015,-4.97543,-0.07828,-0.00458,0.01587,-0.03906,0.02625,-0.02151,-0.04959
8.29,-0.00717,-0.04745,-0.03464,-0.03693,-0.03052,-0.04654,-0.01083,-0.00229,-4.93652,-0.04608,-0.06088,0.0145,-0.03906,0.00931,-0.01083,-0.04272
8.2905,-0.00748,-0.04761,-0.03601,-0.0473,-0.03021,-0.04715,-0.0116,-0.00443,-4.85931,-0.02121,-0.10574,0.01541,-0.04211,-0.01663,0.00504,-0.03677
8.291,-0.00839,-0.04837,-0.03586,-0.04883,-0.03006,-0.04807,-0.01175,-0.0061,-4.62921,-0.01434,-0.12924,0.01724,-0.04517,-0.04822,0.02167,-0.02884
8.2915,-0.01007,-0.0473,-0.03494,-0.04395,-0.02991,-0.0473,-0.01007,-0.00793,-4.23523,-0.02548,-0.13626,0.01801,-0.04745,-0.08011,0.03571,-0.01907
8.292,-0.01266,-0.04654,-0.03479,-0.04166,-0.02808,-0.04608,-0.01022,-0.00748,-3.82111,-0.05417,-0.14145,0.01968,-0.04791,-0.10178,0.0322,-0.01022
8.2925,-0.01389,-0.04669,-0.03601,-0.04822,-0.02869,-0.04517,-0.01022,-0.00656,-3.46664,-0.09216,-0.14771,0.0264,-0.04807,-0.10086,0.0119,-0.00183
8.293,-0.01434,-0.04761,-0.03632,-0.0647,-0.02975,-0.04501,-0.01205,-0.00549,-3.14178,-0.12695,-0.13748,0.03998,-0.04562,-0.07248,-0.00565,0.00641
8.2935,-0.01343,-0.04913,-0.03632,-0.08194,-0.03067,-0.04486,-0.01312,-0.00412,-2.81738,-0.14694,-0.09933,0.0528,-0.04074,-0.03082,-0.00473,0.01419
8.294,-0.01266,-0.0499,-0.0354,-0.08621,-0.03067,-0.04456,-0.01389,-0.0058,-2.48734,-0.14908,-0.04578,0.05585,-0.03723,0.00137,0.00885,0.01419
8.2945,-0.01266,-0.04974,-0.03418,-0.0589,-0.02991,-0.04547,-0.01373,-0.00641,-2.13867,-0.14023,-0.00122,0.04654,-0.04059,0.01343,0.02411,-0.00107
8.295,-0.01465,-0.04822,-0.03647,0.00824,-0.0293,-0.04669,-0.01358,-0.00671,-1.76682,-0.12314,0.01175,0.03021,-0.0499,0.01617,0.03082,-0.02869
8.2955,-0.01648,-0.04776,-0.04013,0.09308,-0.02747,-0.04669,-0.01373,-0.00687,-1.3855,-0.10345,-0.02884,0.01251,-0.06027,0.02151,0.02716,-0.05814
8.296,-0.01801,-0.04807,-0.04074,0.14603,-0.02792,-0.04623,-0.01495,-0.00732,-1.01563,-0.08286,-0.12054,-0.00427,-0.06882,0.02518,0.01846,-0.07568
8.2965,-0.0177,-0.04898,-0.03967,0.14008,-0.02899,-0.04639,-0.01587,-0.00885,-0.66299,-0.06714,-0.20325,-0.02518,-0.07324,0.01556,0.00916,-0.08087
8.297,-0.01617,-0.04959,-0.0386,0.10941,-0.0293,-0.0473,-0.01617,-0.01038,-0.31464,-0.05219,-0.2095,-0.05249,-0.07324,-0.0058,0.00809,-0.08072
8.2975,-0.01389,-0.04913,-0.03769,0.10284,-0.0296,-0.04822,-0.01633,-0.01175,0.04639,-0.02396,-0.13885,-0.07477,-0.06851,-0.03448,0.01129,-0.08316
8.298,-0.01373,-0.04852,-0.03845,0.11063,-0.03006,-0.04807,-0.01556,-0.01282,0.4483,0.01419,-0.0412,-0.07828,-0.06241,-0.07339,0.01328,-0.08316
8.2985,-0.01541,-0.0473,-0.03922,0.08377,-0.0293,-0.0473,-0.01389,-0.01282,0.96359,0.05905,0.04684,-0.06638,-0.05783,-0.13367,0.01297,-0.07614
8.299,-0.01694,-0.04623,-0.04044,0.01541,-0.0296,-0.04776,-0.01236,-0.01175,1.65543,0.09476,0.12283,-0.0473,-0.05478,-0.20905,0.01648,-0.06271
8.2995,-0.01678,-0.04471,-0.03967,-0.04578,-0.02762,-0.04822,-0.01221,-0.00992,2.491,0.10223,0.17349,-0.02029,-0.04944,-0.27466,0.02487,-0.04959
8.3,-0.01663,-0.04288,-0.03845,-0.06653,-0.0264,-0.04852,-0.01266,-0.00641,3.39371,0.08041,0.17853,0.01251,-0.03983,-0.30426,0.02945,-0.04364
8.3005,-0.01694,-0.0412,-0.03586,-0.06042,-0.02594,-0.04852,-0.01328,-0.00519,4.2305,0.04669,0.13458,0.0354,-0.02823,-0.28778,0.02167,-0.04654
8.301,-0.01724,-0.04089,-0.03616,-0.05829,-0.02686,-0.04807,-0.01221,-0.00626,4.70673,0.0296,0.05569,0.04105,-0.01587,-0.22949,0.00168,-0.05173
8.3015,-0.01694,-0.04089,-0.03693,-0.06866,-0.02823,-0.04715,-0.01038,-0.00702,4.71222,0.03265,-0.0441,0.04471,-0.00549,-0.14938,-0.01373,-0.05203
8.302,-0.01785,-0.0415,-0.03738,-0.07385,-0.02808,-0.04608,-0.01099,-0.00748,4.52911,0.03555,-0.14252,0.05341,-0.00061,-0.07629,-0.01511,-0.04837
8.3025,-0.0209,-0.04074,-0.03769,-0.06485,-0.02716,-0.04532,-0.01389,-0.00702,4.4632,0.02258,-0.20203,0.04761,0.00092,-0.03128,-0.01053,-0.04593
8.303,-0.02518,-0.03906,-0.03754,-0.05051,-0.02609,-0.04379,-0.01434,-0.00824,4.50058,0.00031,-0.19592,0.01266,0.00153,-0.00916,-0.03296,-0.04852
8.3035,-0.02731,-0.03769,-0.03708,-0.04379,-0.02594,-0.04471,-0.01312,-0.009,4.48914,-0.00473,-0.13077,-0.02747,0.00137,0.00626,-0.08728,-0.05295
8.304,-0.02808,-0.03799,-0.03769,-0.04868,-0.02792,-0.04669,-0.01282,-0.00839,4.42154,0.02411,-0.0322,-0.04028,0.00015,0.02426,-0.13046,-0.0528
8.3045,-0.02777,-0.03876,-0.03845,-0.05753,-0.02975,-0.04929,-0.01511,-0.00778,4.37546,0.06653,0.07187,-0.02396,-0.00488,0.04105,-0.11337,-0.04547
8.305,-0.02838,-0.03845,-0.03922,-0.06699,-0.03174,-0.05051,-0.01678,-0.00763,4.35944,0.09216,0.15289,-0.00061,-0.01007,0.04684,-0.05325,-0.03738
8.3055,-0.02975,-0.03876,-0.03952,-0.07813,-0.0322,-0.0502,-0.01709,-0.00778,4.33243,0.08865,0.18585,0.01389,-0.01465,0.03983,-0.0058,-0.03067
8.306,-0.03067,-0.0386,-0.03784,-0.0914,-0.03159,-0.0502,-0.01526,-0.00824,4.28558,0.06393,0.16083,0.01968,-0.01816,0.02335,0.03143,-0.02396
8.3065,-0.03143,-0.0383,-0.03693,-0.1004,-0.03159,-0.04929,-0.01343,-0.0061,4.08051,0.0322,0.10635,0.02319,-0.02258,0.00534,0.08804,-0.01434
8.307,-0.03204,-0.0386,-0.03632,-0.10513,-0.03265,-0.0502,-0.01328,-0.00351,3.31528,-0.00092,0.06363,0.02716,-0.02518,-0.00687,0.13855,-0.00732
8.3075,-0.03433,-0.03815,-0.03616,-0.10513,-0.03357,-0.0502,-0.01389,-0.00244,1.8399,-0.03326,0.04959,0.03189,-0.0238,-0.00671,0.12329,-0.00504
8.308,-0.03723,-0.03677,-0.03571,-0.09552,-0.0322,-0.0502,-0.01404,-0.00366,0.30243,-0.05875,0.04593,0.03357,-0.01938,0.00351,0.06042,-0.00687
8.3085,-0.03815,-0.03418,-0.03586,-0.06958,-0.03128,-0.04852,-0.01541,-0.0058,-0.5162,-0.07599,0.0386,0.03052,-0.0174,0.01999,0.03433,-0.009
8.309,-0.03662,-0.0351,-0.03601,-0.03098,-0.03067,-0.04883,-0.01633,-0.0061,-0.70084,-0.07248,0.03586,0.02441,-0.02121,0.0386,0.0824,-0.00946
8.3095,-0.03174,-0.03662,-0.03494,0.00839,-0.03113,-0.04822,-0.01556,-0.00397,-0.88287,-0.04593,0.04868,0.01907,-0.02731,0.05676,0.13687,-0.01114
8.31,-0.02609,-0.03784,-0.03204,0.03845,-0.03143,-0.04822,-0.01373,-0.00244,-1.33423,-0.01038,0.06897,0.0174,-0.03159,0.07233,0.1236,-0.01511
8.3105,-0.02014,-0.03662,-0.03006,0.05341,-0.03159,-0.04669,-0.01236,-0.0029,-1.85898,0.01129,0.08636,0.0174,-0.03204,0.07721,0.06058,-0.01755
8.311,-0.01404,-0.03555,-0.03082,0.05463,-0.03189,-0.04562,-0.01221,-0.00549,-2.28943,0.0087,0.10391,0.01343,-0.0322,0.07385,0.0148,-0.01343
8.3115,-0.00916,-0.03616,-0.03265,0.04349,-0.03265,-0.04623,-0.01129,-0.00534,-2.67349,-0.00168,0.12604,0.00214,-0.03143,0.065,0.01755,-0.00351
8.312,-0.00671,-0.03769,-0.03296,0.0238,-0.03174,-0.04913,-0.01099,-0.00351,-3.06381,-0.00061,0.14053,-0.01617,-0.03036,0.05524,0.03326,0.00229
8.3125,-0.00687,-0.03723,-0.03204,0.00778,-0.03067,-0.05188,-0.01099,-0.00076,-3.42422,0.00916,0.13672,-0.03601,-0.02884,0.04593,0.03311,-0.00061
8.313,-0.00839,-0.03601,-0.03128,0.00381,-0.03098,-0.05219,-0.01114,0.00198,-3.71628,0.01419,0.11703,-0.05035,-0.02686,0.03586,0.01968,-0.01038
8.3135,-0.0087,-0.0354,-0.03113,0.00977,-0.03235,-0.05127,-0.01053,0.0032,-3.94775,0.01312,0.09171,-0.04959,-0.02548,0.03113,0.00641,-0.01892
8.314,-0.00687,-0.03479,-0.0322,0.01678,-0.03281,-0.05005,-0.01114,0.00275,-4.12933,0.01572,0.06424,-0.02182,-0.02335,0.03571,0.00183,-0.02151
8.3145,-0.00259,-0.03464,-0.03296,0.01846,-0.03235,-0.05051,-0.01251,0.00137,-4.25461,0.03036,0.0386,0.0235,-0.01938,0.0473,0.00183,-0.01968
8.315,0.00336,-0.03418,-0.03311,0.01358,-0.03265,-0.05081,-0.01465,-0.00031,-4.3222,0.05081,0.01785,0.04593,-0.01511,0.05371,0.00366,-0.02029
8.3155,0.00763,-0.03418,-0.03311,0.00992,-0.03357,-0.04898,-0.01602,-0.00061,-4.34982,0.06546,-0.00107,0.02213,-0.01343,0.04333,0.00626,-0.02777
8.316,0.009,-0.03265,-0.03265,0.02106,-0.03296,-0.04776,-0.01617,-0.00092,-4.35104,0.07416,-0.02136,-0.01389,-0.01404,0.01312,0.01572,-0.03983
8.3165,0.00977,-0.03128,-0.03265,0.04791,-0.03174,-0.04913,-0.01587,-0.00153,-4.32434,0.06989,-0.04379,-0.01343,-0.01587,-0.03006,0.03433,-0.04791
8.317,0.01114,-0.0293,-0.03296,0.07355,-0.03098,-0.04974,-0.01495,-0.00259,-4.2627,0.05249,-0.06577,0.0177,-0.01846,-0.08148,0.05005,-0.05142
8.3175,0.01358,-0.02884,-0.03342,0.07797,-0.03128,-0.04974,-0.01404,-0.00473,-4.16794,0.02243,-0.08514,0.03891,-0.02243,-0.1265,0.047,-0.05463
8.318,0.01419,-0.02899,-0.03372,0.05875,-0.03265,-0.04944,-0.01404,-0.0058,-4.04831,-0.0058,-0.09888,0.03296,-0.0267,-0.14236,0.02945,-0.05783
8.3185,0.01358,-0.03098,-0.03372,0.0322,-0.03464,-0.04837,-0.01495,-0.00504,-3.91159,-0.02411,-0.09689,0.01465,-0.02823,-0.1149,0.01694,-0.05707
8.319,0.01373,-0.03296,-0.03387,0.0087,-0.03555,-0.04822,-0.01587,-0.00275,-3.7619,-0.03098,-0.07355,-0.00244,-0.02777,-0.06317,0.01465,-0.05417
8.3195,0.01602,-0.03555,-0.03296,-0.01541,-0.03494,-0.04791,-0.01617,-0.00031,-3.59955,-0.03265,-0.04623,-0.01801,-0.02533,-0.02487,0.01541,-0.05386
8.32,0.01724,-0.03601,-0.03098,-0.04211,-0.03296,-0.04684,-0.01511,0.00122,-3.423,-0.03159,-0.05478,-0.02594,-0.02335,-0.01816,0.01221,-0.05722
8.3205,0.01465,-0.03494,-0.0322,-0.0592,-0.03098,-0.04547,-0.0148,0.00122,-3.23547,-0.03159,-0.10986,-0.0177,-0.02258,-0.02838,0.0087,-0.05936
8.321,0.01022,-0.03204,-0.03342,-0.05524,-0.02975,-0.04562,-0.01526,-0.00015,-3.03696,-0.03769,-0.15717,0.00412,-0.02258,-0.0322,0.00671,-0.06073
8.3215,0.0087,-0.02991,-0.03372,-0.03693,-0.02823,-0.04776,-0.01633,-0.00168,-2.83493,-0.05615,-0.13443,0.02411,-0.02396,-0.02014,0.00427,-0.06729
8.322,0.00946,-0.02869,-0.0322,-0.01984,-0.02838,-0.04913,-0.01678,-0.00336,-2.6355,-0.08194,-0.047,0.02716,-0.02426,0.00046,-0.00305,-0.08072
8.3225,0.01083,-0.0293,-0.03204,-0.00992,-0.02884,-0.04852,-0.01633,-0.00458,-2.43851,-0.09735,0.04837,0.00961,-0.02441,0.02045,-0.01205,-0.09354
8.323,0.01328,-0.0296,-0.03159,-0.00397,-0.03052,-0.04684,-0.01495,-0.00473,-2.24594,-0.09521,0.10727,-0.0174,-0.02472,0.03693,-0.01831,-0.09872
8.3235,0.01678,-0.03006,-0.03189,0.0032,-0.03128,-0.04654,-0.01526,-0.00305,-2.06055,-0.08362,0.12543,-0.03662,-0.02441,0.05127,-0.02106,-0.09537
8.324,0.02014,-0.02899,-0.03113,0.01495,-0.03036,-0.04669,-0.01556,-0.00229,-1.87958,-0.07599,0.11322,-0.03845,-0.0235,0.06226,-0.02182,-0.08667
8.3245,0.02167,-0.02853,-0.03128,0.02991,-0.02945,-0.04761,-0.01678,-0.00244,-1.70532,-0.06744,0.07874,-0.03067,-0.02457,0.06485,-0.0209,-0.07477
8.325,0.02213,-0.02899,-0.03143,0.0415,-0.03006,-0.04776,-0.01785,-0.00244,-1.53458,-0.05753,0.02289,-0.02762,-0.02899,0.05753,-0.01389,-0.06485
8.3255,0.02121,-0.02823,-0.03174,0.04501,-0.03311,-0.04761,-0.01907,-0.00305,-1.35452,-0.04608,-0.05386,-0.03357,-0.03418,0.04379,0.00198,-0.06134
8.326,0.0209,-0.02762,-0.0322,0.0354,-0.03464,-0.04669,-0.01999,-0.00366,-1.15204,-0.03632,-0.14084,-0.03906,-0.03723,0.02808,0.01923,-0.06271
8.3265,0.02243,-0.02747,-0.03265,0.01907,-0.03525,-0.04654,-0.01953,-0.00458,-0.93338,-0.03143,-0.21255,-0.0351,-0.03922,0.00687,0.02701,-0.06119
8.327,0.0238,-0.02884,-0.03464,0.00412,-0.03494,-0.04868,-0.0177,-0.00519,-0.71915,-0.02472,-0.24796,-0.02396,-0.0412,-0.02213,0.01984,-0.05386
8.3275,0.02441,-0.03006,-0.03479,-0.00565,-0.03525,-0.05035,-0.01526,-0.00534,-0.51987,-0.00854,-0.24872,-0.0148,-0.04272,-0.05707,0.01099,-0.04395
8.328,0.02411,-0.03052,-0.03403,-0.01678,-0.03571,-0.0499,-0.01404,-0.00443,-0.33173,0.01938,-0.23102,-0.01236,-0.04364,-0.08636,0.00809,-0.03708
8.3285,0.0238,-0.03174,-0.03464,-0.03555,-0.03601,-0.04852,-0.01419,-0.0029,-0.14847,0.04349,-0.20203,-0.01221,-0.04379,-0.09811,0.00534,-0.03265
8.329,0.02182,-0.0325,-0.03586,-0.06073,-0.03571,-0.04761,-0.01511,-0.00122,0.02075,0.05264,-0.15656,-0.00946,-0.04471,-0.0914,-0.00046,-0.03021
8.3295,0.01938,-0.03403,-0.03525,-0.08316,-0.03494,-0.04761,-0.01495,0.00015,0.16602,0.04593,-0.09995,-0.00397,-0.04333,-0.06866,-0.00427,-0.03387
8.33,0.01755,-0.03464,-0.03281,-0.09262,-0.03311,-0.0473,-0.01373,0.00122,0.33386,0.03433,-0.05096,0.00015,-0.03906,-0.0412,-0.00336,-0.03983
8.3305,0.01816,-0.03448,-0.03174,-0.08636,-0.03143,-0.04807,-0.01251,0.0032,0.60028,0.02487,-0.0235,0.00168,-0.03357,-0.02121,-0.00092,-0.03708
8.331,0.01984,-0.03448,-0.0322,-0.07034,-0.03052,-0.04852,-0.01205,0.00427,0.93597,0.01633,-0.01572,0.00092,-0.02975,-0.02029,-0.00336,-0.0235
8.3315,0.01938,-0.03387,-0.03326,-0.0647,-0.03021,-0.04807,-0.0116,0.00504,1.18958,0.00793,-0.01801,-0.00153,-0.03082,-0.04211,-0.0061,-0.01038
8.332,0.01587,-0.03296,-0.03403,-0.08698,-0.03113,-0.04761,-0.01205,0.00412,1.2648,0.01022,-0.01831,-0.0061,-0.03632,-0.07416,-0.00778,-0.01099
8.3325,0.01251,-0.03342,-0.03418,-0.1236,-0.03265,-0.047,-0.01389,0.00259,1.21445,0.0174,-0.00427,-0.01068,-0.0412,-0.09094,-0.0061,-0.02167
8.333,0.01068,-0.03357,-0.03418,-0.14206,-0.03372,-0.04608,-0.0174,0.00061,1.14334,0.0177,0.02502,-0.01419,-0.04242,-0.07629,-0.00427,-0.03006
8.3335,0.01022,-0.03296,-0.03525,-0.11826,-0.03418,-0.04684,-0.01968,-0.00183,1.07803,0.00122,0.05692,-0.01328,-0.04333,-0.03983,-0.00153,-0.02945
8.334,0.01022,-0.0322,-0.03662,-0.0618,-0.03372,-0.0473,-0.01968,-0.00458,0.99213,-0.02121,0.07507,-0.01007,-0.047,-0.00748,0.00168,-0.02579
8.3345,0.00854,-0.0322,-0.03769,0.0058,-0.03311,-0.04837,-0.01846,-0.00641,0.88242,-0.03555,0.07187,-0.0087,-0.05157,0.00656,0.00305,-0.0209
8.335,0.00549,-0.03357,-0.03723,0.05615,-0.03281,-0.04852,-0.0174,-0.00549,0.77484,-0.03632,0.05035,-0.01053,-0.05585,0.00504,0.00244,-0.01572
8.3355,0.00107,-0.03464,-0.03769,0.06607,-0.03265,-0.04776,-0.01648,-0.00427,0.69214,-0.03693,0.02457,-0.01541,-0.05814,-0.00137,-0.00015,-0.00992
8.336,-0.00305,-0.03571,-0.03647,0.03983,-0.0325,-0.04684,-0.01648,-0.00198,0.64056,-0.0473,0.00916,-0.01877,-0.05814,-0.00992,-0.00061,-0.01114
8.3365,-0.00717,-0.03632,-0.03693,0.01053,-0.0322,-0.04562,-0.01602,-0.00198,0.61172,-0.06088,0.00519,-0.01907,-0.05753,-0.0209,-0.00214,-0.02045
8.337,-0.01038,-0.03662,-0.03677,0.00397,-0.03143,-0.04654,-0.0174,-0.00381,0.59341,-0.07202,0.00122,-0.01617,-0.05524,-0.03555,-0.0032,-0.0354
8.3375,-0.01343,-0.03723,-0.03708,0.01038,-0.03052,-0.04684,-0.01785,-0.00504,0.58197,-0.07431,-0.01709,-0.00885,-0.0502,-0.05219,-0.00336,-0.04501
8.338,-0.01328,-0.0386,-0.03693,0.01236,-0.03159,-0.04562,-0.01846,-0.00549,0.58411,-0.07111,-0.0444,0.00259,-0.04272,-0.07294,-0.00107,-0.04517
8.3385,-0.01144,-0.03983,-0.03769,0.01221,-0.03189,-0.04486,-0.01785,-0.00565,0.60516,-0.07095,-0.05875,0.01724,-0.03479,-0.10605,0.00397,-0.04425
8.339,-0.00854,-0.03998,-0.03769,0.01678,-0.03159,-0.04654,-0.0177,-0.00565,0.67963,-0.07797,-0.04929,0.03113,-0.02899,-0.14221,0.00931,-0.05096
8.3395,-0.00504,-0.0383,-0.03845,0.01678,-0.03143,-0.04883,-0.01724,-0.00519,0.94666,-0.08163,-0.02808,0.03738,-0.02533,-0.15198,0.01205,-0.06042
8.34,-0.00031,-0.03693,-0.03906,0.00183,-0.03006,-0.04913,-0.01678,-0.00443,1.62949,-0.06638,-0.01434,0.02869,-0.0209,-0.1178,0.01236,-0.06378
8.3405,0.00488,-0.03738,-0.04028,-0.02396,-0.03021,-0.04715,-0.01556,-0.00305,2.76199,-0.02914,-0.00946,0.01053,-0.01556,-0.05753,0.01129,-0.06058
8.341,0.0087,-0.03662,-0.04166,-0.04364,-0.03098,-0.04547,-0.01495,-0.00366,3.96378,0.009,-0.00214,-0.00656,-0.01221,-0.01404,0.00854,-0.05829
8.3415,0.00992,-0.03616,-0.04181,-0.04913,-0.03067,-0.04593,-0.01633,-0.00519,4.65134,0.02594,0.0116,-0.0177,-0.01404,-0.00259,0.00595,-0.06516
8.342,0.01007,-0.03616,-0.0415,-0.04791,-0.03036,-0.04547,-0.01831,-0.00641,4.58969,0.01114,0.02487,-0.02777,-0.01907,-0.00732,0.00549,-0.07401
8.3425,0.01038,-0.03708,-0.04227,-0.04883,-0.02853,-0.04471,-0.01953,-0.00732,4.07242,-0.01511,0.0293,-0.03647,-0.02045,-0.00336,0.00519,-0.07339
8.343,0.01083,-0.03754,-0.04333,-0.05035,-0.02777,-0.04379,-0.01923,-0.00717,3.56689,-0.03113,0.02609,-0.04028,-0.01984,0.00778,0.00809,-0.06302
8.3435,0.00931,-0.03723,-0.04272,-0.0441,-0.02762,-0.0444,-0.01831,-0.0061,3.26813,-0.02762,0.01816,-0.0354,-0.01953,0.01709,0.00885,-0.05615
8.344,0.00732,-0.03784,-0.04242,-0.0293,-0.02808,-0.04562,-0.01694,-0.00473,3.04398,-0.0119,0.00717,-0.02563,-0.02167,0.0235,0.00687,-0.05737
8.3445,0.00427,-0.03952,-0.04318,-0.01282,-0.02808,-0.04593,-0.01526,-0.0032,2.77908,0.00137,-0.00488,-0.01709,-0.02289,0.02945,0.0032,-0.05997
8.345,0.00198,-0.04166,-0.0444,-0.00366,-0.02869,-0.04608,-0.0148,-0.0029,2.49954,0.00626,-0.01556,-0.01434,-0.02335,0.03357,0.00275,-0.05539
8.3455,0.00107,-0.04105,-0.04547,-0.00488,-0.02899,-0.04715,-0.01556,-0.0032,2.24579,0.00397,-0.02457,-0.01404,-0.02258,0.03616,0.00824,-0.0444
8.346,0.00076,-0.03922,-0.0441,-0.01282,-0.0296,-0.04837,-0.01663,-0.00458,1.99921,0.00061,-0.03311,-0.01221,-0.02213,0.04181,0.01526,-0.03799
8.3465,0.00168,-0.03693,-0.04166,-0.02106,-0.03036,-0.04852,-0.01694,-0.00549,1.74194,-0.00244,-0.0351,-0.00671,-0.0209,0.05417,0.02335,-0.0415
8.347,0.00137,-0.03708,-0.04166,-0.02518,-0.03036,-0.04791,-0.01755,-0.00595,1.49445,-0.00076,-0.02762,-0.00046,-0.01953,0.06454,0.02563,-0.05188
8.3475,0.00183,-0.03784,-0.04242,-0.02502,-0.03143,-0.04623,-0.01801,-0.00549,1.28082,0.0,-0.0145,0.0029,-0.01831,0.06439,0.01862,-0.05875
8.348,0.00229,-0.03662,-0.04196,-0.02838,-0.03281,-0.04608,-0.01877,-0.00473,1.09085,-0.0029,-0.00259,0.00244,-0.01907,0.04593,0.00275,-0.05585
8.3485,0.00229,-0.0354,-0.04044,-0.03372,-0.03357,-0.0473,-0.01755,-0.00549,0.89539,-0.0119,0.00153,0.00153,-0.01968,0.01038,-0.0145,-0.04684
8.349,0.00122,-0.0351,-0.03967,-0.04105,-0.03387,-0.04745,-0.01526,-0.00732,0.68497,-0.02136,0.00076,0.00061,-0.01999,-0.03387,-0.02563,-0.04257
8.3495,-0.00046,-0.03586,-0.03922,-0.04654,-0.03189,-0.04822,-0.01465,-0.00778,0.47775,-0.02487,0.00061,-0.00015,-0.02014,-0.07309,-0.03052,-0.04501
8.35,-0.00183,-0.03616,-0.03922,-0.04898,-0.0293,-0.04898,-0.0145,-0.00656,0.27466,-0.01984,0.00443,-0.00015,-0.02258,-0.09155,-0.02975,-0.04715
8.3505,-0.00305,-0.03632,-0.03738,-0.04196,-0.02869,-0.04822,-0.01511,-0.00443,0.05386,-0.01144,0.00946,0.00137,-0.02518,-0.08606,-0.02335,-0.04532
8.351,-0.00336,-0.03479,-0.03677,-0.0293,-0.03021,-0.04684,-0.01389,-0.00275,-0.18463,-0.00214,0.01205,0.00412,-0.02899,-0.06424,-0.0177,-0.04257
8.3515,-0.00336,-0.03311,-0.03723,-0.01511,-0.03174,-0.04654,-0.01266,-0.00305,-0.40909,0.00488,0.00366,0.00717,-0.03098,-0.0354,-0.009,-0.04166
8.352,-0.00458,-0.03326,-0.03738,-0.00473,-0.03235,-0.04822,-0.01404,-0.00305,-0.57724,0.00656,-0.0235,0.00778,-0.03052,-0.00565,0.01282,-0.04166
8.3525,-0.00504,-0.03342,-0.03708,0.00305,-0.03082,-0.05005,-0.01648,-0.00351,-0.66666,0.00443,-0.06012,0.00656,-0.02945,0.02365,0.04364,-0.03845
8.353,-0.00488,-0.03464,-0.03616,0.01053,-0.02991,-0.04837,-0.01678,-0.00443,-0.69794,-0.00122,-0.0853,0.0061,-0.03082,0.04974,0.05402,-0.03235
8.3535,-0.00504,-0.0351,-0.03738,0.01755,-0.0293,-0.04501,-0.0148,-0.0061,-0.74127,-0.01022,-0.08789,0.0058,-0.03326,0.06699,0.02396,-0.02579
8.354,-0.00565,-0.03555,-0.03769,0.02426,-0.02975,-0.04211,-0.01358,-0.00793,-0.85724,-0.01846,-0.0766,0.0058,-0.03662,0.07431,-0.0264,-0.02243
8.3545,-0.00732,-0.03571,-0.03677,0.02701,-0.0293,-0.04211,-0.01343,-0.00687,-1.03699,-0.02823,-0.05966,0.00549,-0.03998,0.07431,-0.05798,-0.02167
8.355,-0.00793,-0.03632,-0.03693,0.02579,-0.02884,-0.04318,-0.0145,-0.00504,-1.19644,-0.03754,-0.03281,0.00732,-0.04303,0.06897,-0.06088,-0.02289
8.3555,-0.00778,-0.03784,-0.03632,0.02151,-0.02914,-0.04349,-0.01434,-0.00397,-1.26617,-0.04684,0.00397,0.00992,-0.04395,0.06287,-0.0499,-0.0238
8.356,-0.00763,-0.03845,-0.03662,0.01907,-0.03067,-0.04395,-0.01556,-0.00381,-1.26068,-0.0563,0.03876,0.01038,-0.04578,0.05615,-0.02808,-0.02319
8.3565,-0.00778,-0.03937,-0.0354,0.01831,-0.03235,-0.04333,-0.01587,-0.00458,-1.24069,-0.06699,0.05325,0.00702,-0.0473,0.04868,0.02792,-0.02533
8.357,-0.00854,-0.03937,-0.0351,0.02045,-0.03418,-0.04303,-0.01572,-0.00412,-1.22253,-0.07721,0.04105,0.0032,-0.04883,0.03189,0.10864,-0.03204
8.3575,-0.00946,-0.0383,-0.03616,0.02426,-0.0351,-0.04364,-0.01511,-0.00366,-1.17126,-0.08148,0.01251,0.0032,-0.05051,-0.00214,0.15045,-0.03906
8.358,-0.00854,-0.03769,-0.03693,0.02472,-0.0354,-0.04669,-0.01511,-0.00397,-1.07315,-0.07782,-0.01892,0.00565,-0.05264,-0.05859,0.10956,-0.04074
8.3585,-0.0087,-0.03876,-0.03647,0.02151,-0.03479,-0.05127,-0.01541,-0.00549,-0.96954,-0.06729,-0.04074,0.00763,-0.05585,-0.12741,0.03235,-0.0383
8.359,-0.00931,-0.03937,-0.03601,0.01526,-0.03464,-0.05569,-0.01556,-0.00671,-0.90744,-0.04807,-0.04669,0.00671,-0.05661,-0.18372,-0.00366,-0.03662
8.3595,-0.00961,-0.03754,-0.0354,0.01038,-0.03571,-0.05875,-0.01465,-0.00717,-0.88058,-0.02411,-0.03693,0.00565,-0.05463,-0.20065,0.01205,-0.03525
8.36,-0.0087,-0.03616,-0.03571,0.00732,-0.03433,-0.05905,-0.01343,-0.00748,-0.86319,-0.00229,-0.01633,0.00595,-0.05066,-0.17258,0.03036,-0.03204
8.3605,-0.00778,-0.0351,-0.03525,0.00488,-0.0325,-0.05661,-0.01266,-0.00595,-0.85144,0.00793,0.00275,0.00397,-0.04608,-0.1236,0.03006,-0.03082
8.361,-0.00778,-0.03677,-0.03418,0.00259,-0.03006,-0.05203,-0.01221,-0.00366,-0.85068,0.00671,0.01617,0.00229,-0.04257,-0.08133,0.0267,-0.03204
8.3615,-0.009,-0.03784,-0.03342,0.00153,-0.02869,-0.04639,-0.01282,-0.00183,-0.85968,-0.00015,0.0267,0.00168,-0.04089,-0.05905,0.03174,-0.03586
8.362,-0.01038,-0.03754,-0.03464,0.00214,-0.02945,-0.04089,-0.01358,-0.00107,-0.89157,-0.01114,0.03204,0.0032,-0.04059,-0.0502,0.03281,-0.03906
8.3625,-0.0119,-0.03738,-0.0351,0.00198,-0.03098,-0.03799,-0.01373,-0.00107,-0.961,-0.02747,0.03113,0.00381,-0.04044,-0.04425,0.02182,-0.04181
8.363,-0.01205,-0.03784,-0.03433,-0.00076,-0.03204,-0.03677,-0.01297,-0.00122,-1.0405,-0.04471,0.02533,0.00412,-0.03845,-0.03555,0.0029,-0.04379
8.3635,-0.01099,-0.0383,-0.03464,-0.00549,-0.03311,-0.03738,-0.01297,-0.00107,-1.08612,-0.05569,0.01892,0.00427,-0.03586,-0.02747,-0.00977,-0.04272
8.364,-0.00961,-0.03922,-0.0351,-0.00717,-0.03464,-0.03799,-0.01343,-0.00153,-1.09497,-0.05463,0.01419,0.00488,-0.0322,-0.01984,-0.00961,-0.03494
8.3645,-0.00946,-0.03922,-0.03632,0.00031,-0.0351,-0.0383,-0.01328,-0.00244,-1.0968,-0.04257,0.01007,0.00641,-0.02716,-0.0116,0.00046,-0.02075
8.365,-0.01068,-0.03891,-0.0383,0.02289,-0.03342,-0.04074,-0.01419,-0.00244,-1.11099,-0.0264,0.00061,0.00717,-0.02335,-0.00412,0.01373,-0.00885
8.3655,-0.01205,-0.03723,-0.0383,0.04761,-0.03311,-0.04944,-0.01434,-0.00183,-1.13052,-0.01022,-0.01663,0.00687,-0.02304,-0.00351,0.01892,-0.00519
8.366,-0.01205,-0.03723,-0.03693,0.05569,-0.03372,-0.06485,-0.01465,0.00015,-1.13556,-0.00305,-0.03616,0.00732,-0.02457,-0.01282,0.01511,-0.00458
8.3665,-0.01175,-0.03769,-0.03586,0.03983,-0.03357,-0.07889,-0.01282,0.00198,-1.11649,-0.00931,-0.05157,0.00946,-0.02502,-0.02716,0.01099,0.00275
8.367,-0.01114,-0.03738,-0.03647,0.01297,-0.03403,-0.07874,-0.0119,0.00168,-1.08292,-0.02228,-0.06073,0.01053,-0.02518,-0.03983,0.00961,0.01678
8.3675,-0.01068,-0.03754,-0.03784,-0.01068,-0.03479,-0.06546,-0.01251,0.00137,-1.04507,-0.03159,-0.06119,0.0087,-0.02472,-0.04532,0.00412,0.02579
8.368,-0.01068,-0.03998,-0.03769,-0.02457,-0.0354,-0.05081,-0.01404,0.00183,-1.0051,-0.03006,-0.05371,0.00473,-0.02457,-0.04379,-0.00671,0.01648
8.3685,-0.01068,-0.04272,-0.03769,-0.03052,-0.0351,-0.04761,-0.01434,0.00275,-0.96802,-0.02213,-0.05341,0.00107,-0.02441,-0.03754,-0.00824,-0.01038
8.369,-0.01175,-0.04471,-0.0383,-0.02899,-0.03403,-0.0502,-0.01312,0.00183,-0.95337,-0.0119,-0.07767,0.00046,-0.02563,-0.03433,0.01129,-0.04425
8.3695,-0.01129,-0.04547,-0.03876,-0.02518,-0.03265,-0.05081,-0.01236,-0.00107,-0.97107,0.00031,-0.1181,0.00122,-0.02747,-0.0322,0.03586,-0.0676
8.37,-0.00992,-0.04486,-0.03708,-0.02197,-0.0322,-0.04776,-0.01312,-0.00381,-0.9993,0.01541,-0.13855,0.00092,-0.0293,-0.02975,0.03937,-0.07172
8.3705,-0.00946,-0.04333,-0.03479,-0.02075,-0.03235,-0.0444,-0.0148,-0.00397,-1.02615,0.02609,-0.11627,-0.00107,-0.03098,-0.0235,0.01892,-0.06302
8.371,-0.01114,-0.04333,-0.03479,-0.01923,-0.03387,-0.04486,-0.01556,-0.00168,-1.07376,0.02655,-0.06378,-0.00443,-0.03189,-0.01587,-0.00473,-0.06088
8.3715,-0.01266,-0.04547,-0.03525,-0.01831,-0.03372,-0.0473,-0.01541,0.00015,-1.129,0.0177,-0.00565,-0.00595,-0.03159,-0.00977,-0.01556,-0.07553
8.372,-0.01404,-0.04807,-0.03479,-0.01999,-0.03357,-0.04807,-0.01495,0.00076,-1.08688,0.00366,0.04684,-0.00259,-0.03067,-0.00458,-0.01282,-0.09369
8.3725,-0.0145,-0.05005,-0.03342,-0.02274,-0.02991,-0.04593,-0.0145,-0.00031,-0.88593,-0.00504,0.0882,0.00381,-0.0293,-0.00092,-0.0032,-0.09613
8.373,-0.01343,-0.04959,-0.03204,-0.02396,-0.02899,-0.04105,-0.01389,-0.00214,-0.62881,-0.01053,0.10849,0.01053,-0.02609,0.00351,0.00259,-0.07935
8.3735,-0.01221,-0.04898,-0.03265,-0.02426,-0.02914,-0.03479,-0.01312,-0.00229,-0.48492,-0.01358,0.10361,0.01007,-0.0235,0.00961,-0.00198,-0.0621
8.374,-0.01251,-0.04974,-0.03311,-0.02289,-0.02899,-0.02884,-0.01358,-0.00076,-0.48294,-0.01541,0.08347,0.0029,-0.02075,0.01648,-0.01251,-0.06119
8.3745,-0.01434,-0.05096,-0.03342,-0.02151,-0.02884,-0.02548,-0.0145,0.00107,-0.49179,-0.0177,0.06149,-0.00198,-0.01877,0.02457,-0.01862,-0.06805
8.375,-0.01434,-0.05096,-0.03296,-0.01938,-0.02884,-0.02502,-0.01602,0.00214,-0.41061,-0.01877,0.04745,-0.00122,-0.01602,0.03494,-0.01083,-0.06943
8.3755,-0.01328,-0.04944,-0.0322,-0.01755,-0.02869,-0.02594,-0.01602,0.00214,-0.28641,-0.01923,0.04318,0.00198,-0.01404,0.04715,0.00427,-0.06393
8.376,-0.01221,-0.04684,-0.03174,-0.01709,-0.03006,-0.03036,-0.01587,0.00137,-0.21042,-0.02151,0.03906,0.00214,-0.01495,0.05569,0.01526,-0.0647
8.3765,-0.01511,-0.04303,-0.03082,-0.01663,-0.0322,-0.03708,-0.0148,0.00107,-0.19287,-0.02792,0.02472,-0.00137,-0.01862,0.06088,0.01343,-0.07446
8.377,-0.01846,-0.03906,-0.03052,-0.01678,-0.03326,-0.04456,-0.01389,0.00046,-0.19791,-0.0351,0.00168,-0.00412,-0.02319,0.06378,0.00015,-0.08072
8.3775,-0.02029,-0.03815,-0.03098,-0.01724,-0.03189,-0.047,-0.01419,-0.00092,-0.2092,-0.04456,-0.01816,-0.00458,-0.0264,0.06714,-0.01129,-0.07767
8.378,-0.01862,-0.03998,-0.03143,-0.01816,-0.03143,-0.04593,-0.0145,-0.0029,-0.21988,-0.06058,-0.02899,-0.0029,-0.03021,0.07202,-0.01495,-0.07172
8.3785,-0.01694,-0.04211,-0.03174,-0.01801,-0.03128,-0.04608,-0.0148,-0.00381,-0.21973,-0.08286,-0.0351,-0.00259,-0.03387,0.07492,-0.01114,-0.0679
8.379,-0.01587,-0.04272,-0.0325,-0.0174,-0.03433,-0.05402,-0.01434,-0.00336,-0.21301,-0.10025,-0.04013,-0.00305,-0.03784,0.06622,-0.0058,-0.06683
8.3795,-0.01633,-0.04227,-0.03281,-0.01602,-0.03601,-0.06897,-0.01343,-0.00229,-0.21683,-0.10101,-0.05051,-0.00336,-0.04059,0.03693,-0.00153,-0.06271
8.38,-0.01633,-0.04135,-0.03143,-0.01511,-0.03662,-0.08148,-0.01221,-0.00122,-0.24094,-0.08835,-0.07217,-0.00107,-0.0412,-0.01999,0.00381,-0.05157
8.3805,-0.01694,-0.04028,-0.03006,-0.0145,-0.03464,-0.07828,-0.01144,0.0,-0.28412,-0.06561,-0.10254,0.00153,-0.04013,-0.0946,0.01038,-0.03784
8.381,-0.0177,-0.03937,-0.02914,-0.01602,-0.03326,-0.06149,-0.0116,0.00015,-0.33829,-0.03815,-0.12375,0.00336,-0.03998,-0.1561,0.0145,-0.03036
8.3815,-0.01785,-0.03983,-0.02869,-0.01694,-0.03174,-0.04486,-0.01236,-0.00015,-0.39856,-0.00946,-0.11627,0.00427,-0.04227,-0.17151,0.0145,-0.0322
8.382,-0.01678,-0.04333,-0.0296,-0.01709,-0.03174,-0.0383,-0.01251,-0.00015,-0.47333,0.0145,-0.08163,0.00519,-0.0444,-0.14069,0.01236,-0.0415
8.3825,-0.01694,-0.04623,-0.02899,-0.01572,-0.03235,-0.03998,-0.01205,-0.00031,-0.56702,0.03113,-0.03998,0.00473,-0.04395,-0.0882,0.01099,-0.04944
8.383,-0.01831,-0.04776,-0.0293,-0.0148,-0.0325,-0.04196,-0.01221,-0.00015,-0.66895,0.04379,-0.00443,0.0029,-0.04044,-0.0441,0.01343,-0.05264
8.3835,-0.01938,-0.0473,-0.03036,-0.01434,-0.03357,-0.04288,-0.0119,-0.00168,-0.75424,0.05707,0.02075,0.00031,-0.03571,-0.02274,0.01785,-0.04959
8.384,-0.02045,-0.04684,-0.0293,-0.01495,-0.03433,-0.04395,-0.01221,-0.0029,-0.7988,0.06836,0.03815,-0.00015,-0.0325,-0.01923,0.02762,-0.04044
8.3845,-0.0206,-0.04608,-0.02884,-0.01587,-0.03418,-0.04745,-0.0119,-0.00305,-0.79895,0.07034,0.03906,0.0032,-0.03159,-0.02319,0.0444,-0.02304
8.385,-0.0209,-0.04669,-0.02945,-0.01678,-0.03418,-0.05203,-0.0116,-0.00137,-0.79193,0.06027,0.01862,0.00687,-0.03113,-0.02625,0.07111,0.00366
8.3855,-0.0209,-0.04791,-0.03082,-0.01526,-0.03311,-0.05585,-0.01205,0.00046,-0.81757,0.03555,-0.00732,0.00732,-0.02975,-0.02502,0.09918,0.03601
8.386,-0.02197,-0.04578,-0.03281,-0.01343,-0.03448,-0.05997,-0.01328,0.00046,-0.86136,-0.00031,-0.01541,0.00412,-0.02975,-0.02228,0.112,0.06592
8.3865,-0.02365,-0.04196,-0.03357,-0.0119,-0.03494,-0.06546,-0.01343,-0.00137,-0.88028,-0.03815,-0.0058,-0.0029,-0.03052,-0.01892,0.0946,0.07782
8.387,-0.02563,-0.03906,-0.03708,-0.01221,-0.03738,-0.07111,-0.01404,-0.00305,-0.86731,-0.05997,0.00427,-0.00977,-0.03021,-0.01556,0.04852,0.05737
8.3875,-0.02701,-0.0386,-0.04593,-0.01236,-0.03616,-0.07645,-0.01251,-0.00336,-0.84625,-0.05676,0.00412,-0.01282,-0.03098,-0.01205,-0.00732,0.00641
8.388,-0.0267,-0.03891,-0.07416,-0.01328,-0.03479,-0.08118,-0.0116,-0.0032,-0.811,-0.03525,0.00443,-0.0087,-0.03265,-0.01205,-0.05341,-0.0502
8.3885,-0.02487,-0.03937,-0.112,-0.01328,-0.03296,-0.08469,-0.01144,-0.00305,-0.74066,-0.01221,0.01312,-0.00244,-0.03616,-0.0174,-0.07538,-0.0885
8.389,-0.02304,-0.04242,-0.13306,-0.0116,-0.03021,-0.08224,-0.01144,-0.00381,-0.66498,0.00336,0.02274,-0.00031,-0.03754,-0.02213,-0.05936,-0.09476
8.3895,-0.02121,-0.04562,-0.11993,-0.0058,-0.02792,-0.07141,-0.01083,-0.00381,-0.62393,0.0087,0.02518,-0.00046,-0.03525,-0.02151,-0.00809,-0.07294
8.39,-0.02045,-0.04761,-0.08347,0.00168,-0.02823,-0.05722,-0.01129,-0.00366,-0.59219,0.01068,0.01755,0.00137,-0.03265,-0.01617,0.03937,-0.0383
8.3905,-0.01999,-0.04761,-0.04333,0.00702,-0.02869,-0.04776,-0.01251,-0.0032,-0.52231,0.00961,0.00778,0.00641,-0.03021,-0.01373,0.03571,-0.01434
8.391,-0.01907,-0.04745,-0.00961,0.00763,-0.03006,-0.04562,-0.01343,-0.00473,-0.41901,0.0058,0.00107,0.00961,-0.02991,-0.01358,-0.02853,-0.02151
8.3915,-0.01801,-0.04868,0.01678,0.00565,-0.03006,-0.04562,-0.01144,-0.0058,-0.31967,-0.00107,-0.00397,0.00854,-0.02975,-0.01297,-0.10391,-0.0473
8.392,-0.0174,-0.0502,0.03647,0.00763,-0.03052,-0.04303,-0.00977,-0.00626,-0.24139,-0.01114,-0.00916,0.00641,-0.02853,-0.01022,-0.13229,-0.05615
8.3925,-0.01816,-0.05081,0.04562,0.01205,-0.03159,-0.0386,-0.00961,-0.00473,-0.16632,-0.01999,-0.01266,0.00687,-0.02716,-0.00717,-0.10406,-0.03738
8.393,-0.01846,-0.05035,0.04501,0.00946,-0.03174,-0.03708,-0.01038,-0.00305,-0.06104,-0.02457,-0.0145,0.00885,-0.02762,-0.00549,-0.06149,-0.01221
8.3935,-0.01694,-0.04944,0.0383,-0.00229,-0.03036,-0.03815,-0.0119,-0.00168,0.08041,-0.03098,-0.01556,0.00732,-0.03067,-0.00687,-0.02945,-0.00336
8.394,-0.01495,-0.04852,0.02777,-0.01389,-0.02884,-0.04181,-0.01343,-0.00137,0.224,-0.03784,-0.01862,0.00107,-0.03403,-0.01144,0.00397,-0.01541
8.3945,-0.01373,-0.04684,0.01755,-0.01678,-0.02777,-0.04562,-0.01282,-0.00107,0.33569,-0.04623,-0.02182,-0.00595,-0.03677,-0.01907,0.04044,-0.03738
