time,RectFemL,VastusMedL,VastusLatL,TibAntL,HamMedL,HamLatL,GastroMedL,GastroLatL,RectFemR,VastusMedR,VastusLatR,TibAntR,HamMedR,HamLatR,GastroMedR,GastroLatR
3.28,-0.01175,-0.03479,-0.00092,0.06531,-0.0351,-0.05768,-0.04089,-0.00198,-0.01328,0.00229,-0.04562,-0.00137,-0.02762,-0.01831,0.00931,-0.04623
3.2805,-0.00656,-0.03464,-0.01053,0.07278,-0.03632,-0.05798,-0.04303,-0.0029,-0.01923,0.00092,-0.04013,-0.00061,-0.02899,-0.0177,0.00763,-0.04623
3.281,-0.00397,-0.0354,-0.01877,0.05005,-0.03479,-0.05463,-0.03403,-0.00229,-0.02411,-0.00488,-0.03479,0.0,-0.03006,-0.01755,0.00626,-0.04532
3.2815,-0.00244,-0.03616,-0.02518,0.0148,-0.03128,-0.04913,-0.00366,-0.00107,-0.02716,-0.00778,-0.02914,-0.00061,-0.03052,-0.01602,0.00565,-0.0441
3.282,-0.00046,-0.03662,-0.03311,-0.01114,-0.02823,-0.04272,0.03723,-0.00107,-0.02884,-0.00626,-0.02411,-0.00061,-0.03082,-0.0145,0.00534,-0.04364
3.2825,0.00122,-0.03723,-0.04242,-0.01282,-0.02777,-0.03708,0.05829,-0.00214,-0.0293,-0.00351,-0.01938,-0.00031,-0.03143,-0.0145,0.00504,-0.04395
3.283,0.00153,-0.03723,-0.05188,0.0058,-0.02777,-0.03311,0.04532,-0.00305,-0.02731,-0.00351,-0.01511,0.00031,-0.03113,-0.01617,0.00534,-0.04456
3.2835,0.00015,-0.03799,-0.05783,0.0322,-0.02823,-0.03143,0.01801,-0.0029,-0.02457,-0.0087,-0.01175,-0.00031,-0.03067,-0.0174,0.0058,-0.04501
3.284,-0.00107,-0.03937,-0.05615,0.04929,-0.02869,-0.0322,0.00336,-0.00168,-0.02472,-0.0148,-0.01083,-0.00198,-0.03281,-0.01755,0.00595,-0.04562
3.2845,-0.00092,-0.0412,-0.04623,0.05157,-0.03021,-0.03448,0.00061,-0.00229,-0.02533,-0.01862,-0.01282,-0.00183,-0.03479,-0.01694,0.00519,-0.04578
3.285,0.00076,-0.04349,-0.03693,0.0412,-0.03128,-0.03784,-0.00214,-0.00214,-0.02213,-0.01877,-0.01511,-0.00076,-0.03571,-0.01663,0.00366,-0.04471
3.2855,0.00046,-0.04578,-0.03387,0.02563,-0.0322,-0.04028,-0.00687,-0.00153,-0.0145,-0.02014,-0.0148,0.0,-0.03372,-0.01663,0.00397,-0.04364
3.286,-0.0029,-0.04745,-0.03418,0.01038,-0.03204,-0.04059,-0.00854,0.00122,-0.00732,-0.02228,-0.01495,0.00061,-0.03143,-0.0174,0.00473,-0.04227
3.2865,-0.00732,-0.04791,-0.03082,-0.00443,-0.0322,-0.04074,-0.00854,0.00244,-0.00473,-0.02472,-0.01694,0.00168,-0.03143,-0.01892,0.00702,-0.04105
3.287,-0.01053,-0.04623,-0.0235,-0.01877,-0.03265,-0.04044,-0.01007,0.00214,-0.00488,-0.02716,-0.01907,0.00381,-0.03204,-0.01968,0.00916,-0.04013
3.2875,-0.009,-0.0444,-0.01846,-0.03479,-0.0322,-0.03815,-0.01221,0.00092,-0.00656,-0.02823,-0.01923,0.00504,-0.03235,-0.01846,0.01053,-0.03937
3.288,-0.00427,-0.04272,-0.01907,-0.05112,-0.03189,-0.03723,-0.01205,-0.00031,-0.00778,-0.02777,-0.01755,0.0032,-0.0325,-0.0174,0.01038,-0.03983
3.2885,-0.00122,-0.0415,-0.02411,-0.06256,-0.03143,-0.03799,-0.01099,-0.00259,-0.00763,-0.02701,-0.01572,0.00076,-0.0325,-0.01755,0.00961,-0.04059
3.289,-0.00076,-0.04089,-0.0293,-0.07141,-0.03098,-0.04181,-0.01083,-0.00641,-0.00641,-0.02548,-0.01312,0.00046,-0.03204,-0.01801,0.00809,-0.0415
3.2895,-0.00046,-0.03967,-0.03311,-0.0827,-0.03082,-0.0441,-0.01312,-0.00778,-0.00656,-0.02441,-0.01022,0.00198,-0.03342,-0.01663,0.00763,-0.0412
3.29,0.00046,-0.03891,-0.0354,-0.0943,-0.03052,-0.04333,-0.0148,-0.00671,-0.01205,-0.02426,-0.00702,0.0029,-0.03403,-0.01526,0.00854,-0.04227
3.2905,0.00153,-0.03799,-0.03769,-0.0914,-0.03113,-0.04044,-0.0145,-0.00534,-0.01785,-0.02502,-0.00443,0.00259,-0.03372,-0.01526,0.00748,-0.04593
3.291,0.00259,-0.03754,-0.03922,-0.06622,-0.03204,-0.03784,-0.01328,-0.00458,-0.02106,-0.02609,-0.0032,0.00153,-0.0322,-0.01617,0.00351,-0.04944
3.2915,0.00229,-0.03693,-0.03937,-0.03662,-0.03189,-0.03647,-0.01266,-0.00473,-0.02274,-0.0267,0.00122,0.00031,-0.03159,-0.01724,-0.00168,-0.04929
3.292,0.00061,-0.03738,-0.03769,-0.0206,-0.03113,-0.03281,-0.01312,-0.00473,-0.02777,-0.02686,0.01129,0.0,-0.03235,-0.0174,-0.00259,-0.04669
3.2925,-0.00183,-0.03876,-0.03632,-0.01923,-0.03128,-0.02884,-0.01373,-0.00381,-0.03616,-0.02747,0.02396,0.0,-0.03387,-0.01801,0.00137,-0.04501
3.293,-0.0029,-0.03967,-0.03479,-0.02014,-0.03098,-0.02594,-0.01419,-0.0029,-0.04639,-0.02716,0.02869,0.00137,-0.03479,-0.01831,0.00565,-0.04593
3.2935,-0.00412,-0.03937,-0.03326,-0.0177,-0.03098,-0.02701,-0.0145,-0.00275,-0.05157,-0.02609,0.01862,0.0032,-0.03494,-0.01831,0.00626,-0.04669
3.294,-0.00443,-0.04013,-0.03159,-0.01373,-0.02869,-0.02991,-0.01358,-0.00229,-0.04974,-0.02472,0.00137,0.0029,-0.03448,-0.01846,0.00549,-0.04547
3.2945,-0.00565,-0.04089,-0.03143,-0.01266,-0.02762,-0.0351,-0.01282,-0.00244,-0.04105,-0.02594,-0.00961,0.0,-0.03433,-0.01862,0.00519,-0.04272
3.295,-0.00687,-0.04135,-0.03296,-0.01633,-0.02792,-0.03967,-0.01312,-0.00351,-0.0322,-0.02853,-0.01114,-0.0029,-0.0351,-0.01907,0.00519,-0.03998
3.2955,-0.00793,-0.04059,-0.03235,-0.03067,-0.0293,-0.04242,-0.01419,-0.00427,-0.02594,-0.03281,-0.009,-0.00397,-0.03647,-0.01831,0.0058,-0.03845
3.296,-0.00809,-0.03998,-0.03113,-0.05356,-0.0293,-0.04028,-0.01511,-0.00259,-0.02289,-0.03738,-0.00687,-0.00183,-0.03632,-0.01709,0.00717,-0.03983
3.2965,-0.00778,-0.04044,-0.0296,-0.07263,-0.02884,-0.03571,-0.01495,0.00076,-0.02121,-0.04013,-0.00687,0.00015,-0.03555,-0.01678,0.00793,-0.04272
3.297,-0.0061,-0.04089,-0.0293,-0.06149,-0.02853,-0.03357,-0.01404,0.00397,-0.02045,-0.03952,-0.00595,0.00092,-0.03571,-0.0174,0.00793,-0.0444
3.2975,-0.00443,-0.04257,-0.02945,-0.00076,-0.02975,-0.03464,-0.01419,0.00488,-0.01953,-0.03632,-0.00565,0.00046,-0.03555,-0.01755,0.00717,-0.04486
3.298,-0.00397,-0.0441,-0.03128,0.08347,-0.03128,-0.03708,-0.01526,0.00565,-0.01801,-0.03281,-0.00519,0.00031,-0.03632,-0.0174,0.00763,-0.04349
3.2985,-0.00473,-0.04593,-0.03372,0.12909,-0.03036,-0.03906,-0.01633,0.00488,-0.0148,-0.02777,-0.00671,0.00137,-0.03662,-0.01816,0.00778,-0.04242
3.299,-0.00656,-0.04608,-0.03571,0.103,-0.02975,-0.03967,-0.01648,0.0029,-0.01175,-0.02289,-0.01221,0.00122,-0.03662,-0.02014,0.00748,-0.04196
3.2995,-0.00916,-0.04395,-0.03693,0.04196,-0.02823,-0.03586,-0.01633,-0.00061,-0.00961,-0.01892,-0.02319,0.00046,-0.0354,-0.02136,0.00763,-0.04181
3.3,-0.00961,-0.04181,-0.03693,0.00351,-0.02747,-0.03098,-0.01816,-0.00473,-0.00946,-0.01587,-0.03937,0.00076,-0.03433,-0.02213,0.00946,-0.04105
3.3005,-0.00809,-0.04089,-0.03555,0.00137,-0.02792,-0.02991,-0.01953,-0.00763,-0.00961,-0.01465,-0.06073,0.00168,-0.0351,-0.02335,0.00931,-0.04105
3.301,-0.00702,-0.04181,-0.03357,0.00717,-0.02884,-0.03464,-0.01816,-0.00732,-0.00763,-0.01251,-0.07858,0.00198,-0.03601,-0.02487,0.00977,-0.04196
3.3015,-0.00702,-0.04318,-0.03418,0.00214,-0.02899,-0.04333,-0.01373,-0.00488,-0.00488,-0.00626,-0.08606,0.00076,-0.03525,-0.02533,0.00824,-0.04395
3.302,-0.00732,-0.04333,-0.0351,-0.00748,-0.02823,-0.05203,-0.009,-0.00351,-0.00183,0.00275,-0.07889,0.0,-0.03281,-0.02258,0.00931,-0.04333
3.3025,-0.00702,-0.04318,-0.03555,-0.01053,-0.02716,-0.06165,-0.00931,-0.00443,0.00092,0.00809,-0.06485,-0.00015,-0.03021,-0.01816,0.009,-0.03952
3.303,-0.00641,-0.04242,-0.03586,-0.00809,-0.02731,-0.06836,-0.01511,-0.00641,0.0032,0.00397,-0.05203,0.00076,-0.02899,-0.01602,0.00854,-0.03677
3.3035,-0.00687,-0.0415,-0.03723,-0.01358,-0.02777,-0.07004,-0.02197,-0.00885,0.00214,-0.00473,-0.04089,0.00198,-0.0293,-0.01678,0.00824,-0.03738
3.304,-0.00641,-0.0412,-0.03616,-0.03235,-0.0293,-0.06592,-0.0238,-0.00885,-0.00229,-0.01083,-0.02823,0.00412,-0.03036,-0.01816,0.00717,-0.03906
3.3045,-0.0058,-0.04135,-0.03372,-0.05539,-0.03021,-0.06058,-0.02014,-0.00717,-0.00549,-0.01022,-0.01328,0.00488,-0.03143,-0.01862,0.00702,-0.04074
3.305,-0.00565,-0.04196,-0.03113,-0.07019,-0.03204,-0.05676,-0.01602,-0.00458,-0.0061,-0.00748,0.00015,0.00351,-0.03143,-0.01816,0.00763,-0.04211
3.3055,-0.00595,-0.04318,-0.03021,-0.07126,-0.03342,-0.05127,-0.01572,-0.00381,-0.00687,-0.00748,0.009,0.00137,-0.03143,-0.01877,0.00763,-0.04471
3.306,-0.00626,-0.04318,-0.03204,-0.05814,-0.03296,-0.04486,-0.01663,-0.00412,-0.01114,-0.01434,0.01404,0.00076,-0.03159,-0.01968,0.00732,-0.04745
3.3065,-0.0058,-0.04288,-0.03662,-0.02853,-0.03342,-0.0412,-0.01633,-0.00488,-0.0177,-0.02258,0.0174,0.00214,-0.03235,-0.02029,0.00702,-0.04791
3.307,-0.00504,-0.04074,-0.04074,0.0145,-0.03235,-0.04349,-0.01404,-0.00565,-0.02213,-0.02899,0.01953,0.0032,-0.03265,-0.01984,0.00687,-0.04715
3.3075,-0.00412,-0.03784,-0.04227,0.05753,-0.0322,-0.04913,-0.01312,-0.00397,-0.0238,-0.03189,0.02182,0.00351,-0.0325,-0.02045,0.00717,-0.04547
3.308,-0.00336,-0.03738,-0.04211,0.08575,-0.03021,-0.05356,-0.01297,-0.00168,-0.02548,-0.03296,0.02274,0.0029,-0.03204,-0.01984,0.00732,-0.04272
3.3085,-0.00259,-0.0383,-0.04272,0.09003,-0.02914,-0.056,-0.01266,0.00046,-0.0267,-0.03311,0.02121,0.00183,-0.0322,-0.01968,0.00748,-0.0412
3.309,-0.00214,-0.03967,-0.04227,0.06546,-0.0293,-0.0563,-0.01358,0.00122,-0.02655,-0.03189,0.01663,0.00229,-0.03189,-0.01999,0.00809,-0.04028
3.3095,-0.00244,-0.04013,-0.04105,0.01541,-0.03067,-0.05386,-0.01633,0.00046,-0.02533,-0.02869,0.01175,0.00473,-0.03174,-0.01984,0.00931,-0.03998
3.31,-0.00229,-0.04044,-0.03967,-0.03754,-0.03128,-0.04944,-0.02045,-0.00031,-0.02441,-0.02533,0.00854,0.00641,-0.03159,-0.01953,0.01022,-0.0383
3.3105,-0.00259,-0.04135,-0.03952,-0.06729,-0.03235,-0.04639,-0.02197,-0.00183,-0.02396,-0.01892,0.00671,0.0061,-0.03204,-0.02014,0.01022,-0.0354
3.311,-0.0029,-0.04288,-0.0412,-0.05981,-0.03342,-0.04761,-0.01892,-0.00244,-0.0238,-0.0116,0.00397,0.0032,-0.03342,-0.01953,0.01175,-0.03448
3.3115,-0.00473,-0.04379,-0.04242,-0.02075,-0.03494,-0.05508,-0.01511,-0.00198,-0.02106,-0.00763,-0.00031,0.00153,-0.03433,-0.01785,0.01419,-0.03555
3.312,-0.00656,-0.0441,-0.04272,0.03494,-0.03693,-0.06332,-0.0119,-0.00244,-0.01709,-0.00748,-0.00427,0.00153,-0.03357,-0.01663,0.01617,-0.0354
3.3125,-0.00809,-0.0444,-0.0412,0.07126,-0.03799,-0.06592,-0.01144,-0.0029,-0.01389,-0.009,-0.0061,0.00229,-0.03311,-0.01724,0.01572,-0.03433
3.313,-0.00778,-0.04456,-0.03891,0.05127,-0.03815,-0.06592,-0.01343,-0.00244,-0.0119,-0.00809,-0.00519,0.00153,-0.03281,-0.01831,0.01221,-0.03311
3.3135,-0.00687,-0.04379,-0.03754,-0.01358,-0.03708,-0.06729,-0.01572,-0.00107,-0.01038,-0.00366,-0.00305,0.00031,-0.03342,-0.01785,0.0087,-0.03372
3.314,-0.00671,-0.04288,-0.03616,-0.06683,-0.03632,-0.06943,-0.01694,0.0,-0.009,-0.00061,-0.00168,0.00061,-0.03342,-0.01602,0.00717,-0.03754
3.3145,-0.00671,-0.04288,-0.03403,-0.07355,-0.03662,-0.06973,-0.01663,-0.00031,-0.00687,0.00046,-0.00336,0.00168,-0.03204,-0.01572,0.00717,-0.04227
3.315,-0.00778,-0.04349,-0.03342,-0.05753,-0.03693,-0.06714,-0.01495,-0.00153,-0.00549,0.00153,-0.00687,0.00229,-0.03128,-0.01663,0.00793,-0.04333
3.3155,-0.00854,-0.04257,-0.03479,-0.05096,-0.03708,-0.0618,-0.01328,-0.00122,-0.00519,0.00076,-0.01038,0.00046,-0.0325,-0.01816,0.00641,-0.04105
3.316,-0.00778,-0.04105,-0.03677,-0.05249,-0.03555,-0.05554,-0.01328,-0.00076,-0.00702,-0.00153,-0.01282,-0.00183,-0.0351,-0.01968,0.00168,-0.03983
3.3165,-0.00519,-0.04013,-0.03647,-0.04242,-0.03387,-0.04761,-0.01404,-0.00198,-0.01114,-0.00641,-0.01328,-0.0032,-0.0351,-0.02029,-0.00214,-0.04471
3.317,-0.00366,-0.04059,-0.03525,-0.01511,-0.03265,-0.03723,-0.01541,-0.00473,-0.01633,-0.01114,-0.01572,-0.00275,-0.03357,-0.01862,-0.00229,-0.05264
3.3175,-0.00381,-0.04135,-0.03525,0.01434,-0.03113,-0.02411,-0.0177,-0.0061,-0.02167,-0.0145,-0.02136,-0.00122,-0.03189,-0.0177,-0.00092,-0.05692
3.318,-0.00443,-0.04166,-0.03479,0.03189,-0.02945,-0.01114,-0.01953,-0.00595,-0.02502,-0.01633,-0.03311,0.00015,-0.03128,-0.01678,0.00107,-0.05371
3.3185,-0.00458,-0.04242,-0.0351,0.03403,-0.02609,-0.0032,-0.02045,-0.00549,-0.02731,-0.01831,-0.05325,0.00046,-0.0322,-0.01663,0.00275,-0.04791
3.319,-0.00397,-0.04333,-0.03479,0.02548,-0.02289,-0.0058,-0.02075,-0.00534,-0.02762,-0.02014,-0.07553,0.00092,-0.03342,-0.01862,0.00397,-0.04532
3.3195,-0.00366,-0.04395,-0.03525,0.0116,-0.02136,-0.01648,-0.01862,-0.00549,-0.02472,-0.02289,-0.08331,0.00122,-0.03433,-0.02106,0.00702,-0.0444
3.32,-0.00366,-0.04349,-0.03632,-0.00458,-0.01953,-0.02823,-0.0174,-0.00565,-0.02106,-0.02411,-0.06668,0.00107,-0.03387,-0.02197,0.01083,-0.04471
3.3205,-0.0032,-0.04211,-0.03693,-0.01877,-0.01999,-0.03632,-0.01862,-0.00717,-0.02029,-0.02289,-0.03403,0.00031,-0.03311,-0.01938,0.01236,-0.04501
3.321,-0.0029,-0.04105,-0.03571,-0.02518,-0.02136,-0.04059,-0.01999,-0.00977,-0.02014,-0.02075,-0.00366,-0.00046,-0.03098,-0.01724,0.01328,-0.04471
3.3215,-0.0032,-0.03967,-0.03326,-0.02579,-0.02304,-0.04364,-0.0206,-0.01053,-0.01999,-0.01907,0.01389,-0.00031,-0.03006,-0.01617,0.01465,-0.04349
3.322,-0.00214,-0.03952,-0.03113,-0.02426,-0.02472,-0.04608,-0.02151,-0.00717,-0.01755,-0.01877,0.0209,-0.00092,-0.02914,-0.01694,0.01343,-0.04227
3.3225,-0.00076,-0.03937,-0.03143,-0.0238,-0.02747,-0.05264,-0.02304,-0.00336,-0.01648,-0.01846,0.02136,-0.00107,-0.02869,-0.01816,0.01328,-0.04227
3.323,-0.00092,-0.03937,-0.03448,-0.02396,-0.03021,-0.06027,-0.0238,-0.00198,-0.01923,-0.01724,0.01846,-0.00046,-0.02914,-0.01877,0.01312,-0.04456
3.3235,-0.00168,-0.03937,-0.03799,-0.0209,-0.03021,-0.06393,-0.02228,-0.00229,-0.02045,-0.0174,0.01434,-0.00122,-0.0296,-0.01907,0.01465,-0.04517
3.324,-0.00198,-0.03876,-0.0386,-0.01236,-0.02701,-0.0592,-0.01495,-0.00305,-0.0177,-0.0177,0.01083,-0.00305,-0.0296,-0.0177,0.01724,-0.04181
3.3245,-0.00214,-0.03662,-0.03723,0.00214,-0.02319,-0.05096,-0.00443,-0.00137,-0.01312,-0.01892,0.01114,-0.00458,-0.02975,-0.01526,0.01724,-0.03494
3.325,-0.00366,-0.03418,-0.03555,0.01404,-0.02411,-0.04501,0.0029,0.00015,-0.01282,-0.01923,0.01541,-0.00427,-0.03006,-0.01434,0.01404,-0.02884
3.3255,-0.00717,-0.03342,-0.0351,0.01465,-0.02792,-0.0412,0.00381,0.00031,-0.01495,-0.01999,0.0177,-0.00366,-0.03082,-0.01556,0.00992,-0.02838
3.326,-0.00992,-0.03555,-0.03754,0.00534,-0.03052,-0.03586,-0.00107,-0.00153,-0.01556,-0.02274,0.01373,-0.00305,-0.03036,-0.01709,0.00763,-0.03006
3.3265,-0.01114,-0.03738,-0.04135,-0.00046,-0.03174,-0.02884,-0.00793,-0.00397,-0.01312,-0.02548,0.00336,-0.00214,-0.02945,-0.0174,0.00702,-0.03265
3.327,-0.01068,-0.03693,-0.04471,0.00809,-0.03311,-0.02304,-0.0119,-0.00488,-0.0119,-0.02838,-0.00656,0.00031,-0.02884,-0.01663,0.00854,-0.03464
3.3275,-0.01053,-0.03677,-0.0473,0.02914,-0.03326,-0.0209,-0.01144,-0.00443,-0.01434,-0.03113,-0.01221,0.00351,-0.03036,-0.01678,0.01175,-0.03555
3.328,-0.01083,-0.03708,-0.04578,0.04486,-0.03342,-0.01999,-0.00931,-0.00458,-0.01633,-0.03387,-0.01129,0.00534,-0.0322,-0.01678,0.01617,-0.03632
3.3285,-0.01007,-0.03922,-0.04303,0.04044,-0.03326,-0.01724,-0.009,-0.00427,-0.01495,-0.03815,-0.009,0.00458,-0.03342,-0.01755,0.01968,-0.03967
3.329,-0.009,-0.04089,-0.03952,0.02502,-0.03403,-0.01694,-0.01038,-0.00244,-0.01144,-0.04608,-0.00931,0.00229,-0.03372,-0.01755,0.01602,-0.04761
3.3295,-0.00809,-0.0412,-0.03601,0.01984,-0.03433,-0.01877,-0.01129,0.00168,-0.00824,-0.05707,-0.01389,0.0,-0.03326,-0.01862,0.00626,-0.05402
3.33,-0.00763,-0.04089,-0.03326,0.02563,-0.03448,-0.01953,-0.00916,0.00687,-0.00748,-0.06516,-0.02029,-0.00198,-0.03235,-0.01892,-0.00443,-0.05402
3.3305,-0.00549,-0.04227,-0.03174,0.02228,-0.03357,-0.01587,-0.00732,0.00717,-0.01007,-0.06866,-0.02518,-0.00381,-0.03143,-0.01907,-0.00519,-0.04745
3.331,-0.00214,-0.04486,-0.03265,-0.00305,-0.0354,-0.0145,-0.00885,0.00214,-0.01282,-0.0679,-0.02533,-0.00443,-0.03067,-0.01892,0.00198,-0.04105
3.3315,0.00061,-0.04608,-0.03403,-0.03876,-0.04028,-0.02411,-0.01266,-0.00336,-0.01419,-0.06821,-0.02426,-0.00336,-0.03067,-0.01907,0.01114,-0.03906
3.332,0.00244,-0.04395,-0.03296,-0.0618,-0.04425,-0.05142,-0.01434,-0.00656,-0.01297,-0.07263,-0.02762,-0.00305,-0.03143,-0.01953,0.01266,-0.04288
3.3325,0.00351,-0.04105,-0.0293,-0.06622,-0.04745,-0.09247,-0.01266,-0.0058,-0.01236,-0.07492,-0.03723,-0.00366,-0.03296,-0.02075,0.00748,-0.04684
3.333,0.00473,-0.03906,-0.02121,-0.06302,-0.04837,-0.14359,-0.01114,-0.0032,-0.01282,-0.07187,-0.04791,-0.00244,-0.03433,-0.02258,0.0032,-0.04929
3.3335,0.00427,-0.04181,-0.01144,-0.06989,-0.04883,-0.19257,-0.01129,-0.00336,-0.01312,-0.06027,-0.05386,0.0,-0.03586,-0.02319,0.0032,-0.05066
3.334,0.00259,-0.04913,-0.00534,-0.09109,-0.04776,-0.22079,-0.01221,-0.00427,-0.01221,-0.04303,-0.04959,0.0032,-0.03525,-0.02411,0.0058,-0.05203
3.3345,0.00015,-0.05768,-0.00397,-0.11322,-0.04578,-0.2124,-0.01389,-0.00534,-0.01007,-0.02274,-0.03738,0.00519,-0.03418,-0.02411,0.00977,-0.05035
3.335,-0.00168,-0.06134,-0.00412,-0.11841,-0.04257,-0.17349,-0.01419,-0.00549,-0.00931,0.00107,-0.02243,0.00519,-0.03448,-0.02472,0.01236,-0.04684
3.3355,-0.0029,-0.05814,-0.00443,-0.09949,-0.03754,-0.12741,-0.01419,-0.00595,-0.0119,0.0238,-0.0116,0.00366,-0.0354,-0.0238,0.01205,-0.04379
3.336,-0.0029,-0.05096,-0.0032,-0.06989,-0.03281,-0.09247,-0.01434,-0.00519,-0.01511,0.04227,-0.00732,0.00275,-0.03479,-0.02182,0.01114,-0.04135
3.3365,-0.00458,-0.04318,-0.00519,-0.03311,-0.0293,-0.07431,-0.01404,-0.00488,-0.01648,0.05707,-0.00824,0.00092,-0.03372,-0.02106,0.01221,-0.0415
3.337,-0.00549,-0.03784,-0.01053,0.01938,-0.0267,-0.06516,-0.01389,-0.00412,-0.0174,0.06897,-0.01129,0.00015,-0.03265,-0.02167,0.01328,-0.04166
3.3375,-0.00534,-0.03784,-0.01968,0.08133,-0.02548,-0.06073,-0.01434,-0.0032,-0.01984,0.07416,-0.01495,-0.00107,-0.03464,-0.02243,0.0119,-0.04166
3.338,-0.00671,-0.04044,-0.02716,0.11612,-0.02365,-0.05722,-0.01495,-0.00351,-0.02167,0.06989,-0.0174,-0.00092,-0.03601,-0.02106,0.00732,-0.04105
3.3385,-0.00793,-0.04105,-0.03235,0.09796,-0.02121,-0.05081,-0.01511,-0.00397,-0.0206,0.05478,-0.01831,-0.00076,-0.03571,-0.01923,0.00443,-0.04105
3.339,-0.01038,-0.03906,-0.03677,0.05554,-0.01724,-0.03998,-0.01495,-0.00458,-0.01663,0.03769,-0.01816,0.00092,-0.03357,-0.01968,0.00473,-0.04242
3.3395,-0.01144,-0.0351,-0.04059,0.03265,-0.01556,-0.02472,-0.01648,-0.00473,-0.01144,0.02365,-0.01923,0.00198,-0.03174,-0.0206,0.00687,-0.04333
3.34,-0.01205,-0.03067,-0.04669,0.03586,-0.01724,-0.0087,-0.01755,-0.00534,-0.00626,0.01785,-0.02167,0.00137,-0.03174,-0.0206,0.00748,-0.04242
3.3405,-0.01434,-0.02655,-0.05783,0.03754,-0.02014,0.0,-0.0148,-0.00488,-0.00305,0.01434,-0.02319,0.00076,-0.03159,-0.01862,0.00717,-0.04227
3.341,-0.01633,-0.02563,-0.07507,0.01724,-0.02518,-0.00198,-0.01022,-0.00351,-0.00229,0.00702,-0.02304,0.00031,-0.03098,-0.0174,0.00732,-0.04059
3.3415,-0.01663,-0.02838,-0.09201,-0.01862,-0.02914,-0.00763,-0.00656,-0.00229,-0.00366,-0.01068,-0.0206,0.00076,-0.03082,-0.01938,0.00961,-0.04059
3.342,-0.01434,-0.03326,-0.09613,-0.05066,-0.03204,-0.0119,-0.00977,-0.00259,-0.00839,-0.03464,-0.0177,0.00046,-0.03143,-0.02106,0.0116,-0.04135
3.3425,-0.01129,-0.03845,-0.08728,-0.06927,-0.03372,-0.01328,-0.01602,-0.00336,-0.01312,-0.05447,-0.01572,0.00076,-0.03281,-0.02167,0.0116,-0.0415
3.343,-0.00778,-0.04196,-0.07202,-0.08057,-0.03464,-0.01343,-0.0206,-0.00229,-0.01556,-0.05951,-0.01343,0.00107,-0.03372,-0.02121,0.01007,-0.04181
3.3435,-0.00473,-0.04517,-0.06195,-0.09476,-0.03494,-0.01602,-0.02136,-0.00015,-0.01526,-0.05035,-0.00992,0.00153,-0.03342,-0.02029,0.00778,-0.04166
3.344,-0.0032,-0.04822,-0.05737,-0.1091,-0.03448,-0.02518,-0.01831,0.00122,-0.01373,-0.03433,-0.00671,0.00168,-0.03281,-0.01999,0.00778,-0.04074
3.3445,-0.00412,-0.05157,-0.05463,-0.11703,-0.03326,-0.03952,-0.01404,0.00015,-0.0116,-0.01968,-0.00565,0.00122,-0.03098,-0.01968,0.009,-0.03967
3.345,-0.00504,-0.05432,-0.05173,-0.11826,-0.03204,-0.0502,-0.01175,-0.00229,-0.01038,-0.009,-0.00671,-0.00015,-0.02884,-0.01755,0.01007,-0.03845
3.3455,-0.00534,-0.05432,-0.04852,-0.11765,-0.03021,-0.04959,-0.01297,-0.00443,-0.01053,-0.00214,-0.009,-0.00031,-0.0296,-0.01633,0.00961,-0.03769
3.346,-0.00336,-0.05066,-0.04486,-0.11276,-0.02747,-0.04013,-0.01511,-0.00427,-0.01175,0.00153,-0.01175,-0.00107,-0.03098,-0.01801,0.0087,-0.03662
3.3465,-0.00183,-0.04791,-0.04013,-0.09949,-0.02487,-0.03235,-0.01617,-0.00198,-0.01404,0.00122,-0.01465,-0.00168,-0.03143,-0.01968,0.00824,-0.03723
3.347,-0.00168,-0.04776,-0.0351,-0.07675,-0.0238,-0.03479,-0.01617,-0.00015,-0.01404,-0.00092,-0.01663,-0.00107,-0.03006,-0.01968,0.00931,-0.03769
3.3475,-0.00305,-0.04944,-0.03265,-0.04211,-0.02457,-0.03937,-0.01434,-0.00046,-0.01373,-0.00397,-0.0177,-0.00046,-0.02945,-0.01831,0.009,-0.0386
3.348,-0.0029,-0.05035,-0.0322,0.00916,-0.02457,-0.03693,-0.01236,-0.00183,-0.01404,-0.00656,-0.01801,-0.00061,-0.02899,-0.01755,0.00854,-0.03769
3.3485,-0.00107,-0.05005,-0.03235,0.06668,-0.02457,-0.02426,-0.01099,-0.00366,-0.01602,-0.00992,-0.01816,-0.00153,-0.02945,-0.01816,0.00839,-0.03571
3.349,0.00046,-0.04929,-0.0296,0.1059,-0.02457,-0.01358,-0.01175,-0.00412,-0.01678,-0.01526,-0.01892,-0.00092,-0.0296,-0.0177,0.00885,-0.03342
3.3495,0.00092,-0.04929,-0.0267,0.10223,-0.02365,-0.01205,-0.01373,-0.00275,-0.01556,-0.01862,-0.01755,0.00107,-0.03067,-0.01572,0.00946,-0.03403
3.35,0.00137,-0.04929,-0.02533,0.06134,-0.02365,-0.01938,-0.01556,0.0,-0.01343,-0.02106,-0.01511,0.00275,-0.03143,-0.01419,0.00961,-0.03799
3.3505,0.00214,-0.04807,-0.02426,0.01404,-0.02441,-0.02899,-0.01572,0.00015,-0.01434,-0.02106,-0.01251,0.0032,-0.03281,-0.01511,0.009,-0.04364
3.351,0.00351,-0.04684,-0.02289,-0.01343,-0.02625,-0.03632,-0.01465,-0.00229,-0.01709,-0.02335,-0.0119,0.0032,-0.03326,-0.01602,0.00931,-0.04639
3.3515,0.00626,-0.04425,-0.0206,-0.02319,-0.02884,-0.04257,-0.0145,-0.00397,-0.01907,-0.02655,-0.0116,0.00214,-0.03326,-0.01648,0.01068,-0.04623
3.352,0.0087,-0.0412,-0.01801,-0.0293,-0.0296,-0.04868,-0.01526,-0.00275,-0.02045,-0.02975,-0.01129,0.00061,-0.03235,-0.01633,0.01129,-0.0441
3.3525,0.00916,-0.03845,-0.0148,-0.03342,-0.02975,-0.0528,-0.01572,-0.00076,-0.02289,-0.03281,-0.01022,-0.00092,-0.03204,-0.01617,0.01099,-0.04211
3.353,0.00702,-0.03616,-0.01053,-0.03159,-0.02945,-0.05157,-0.01572,-0.00183,-0.0235,-0.03326,-0.01007,-0.0032,-0.03113,-0.01617,0.00977,-0.04074
3.3535,0.0058,-0.03586,-0.00427,-0.03036,-0.03082,-0.04517,-0.01663,-0.00534,-0.02197,-0.03204,-0.0119,-0.00488,-0.03021,-0.01511,0.00687,-0.03983
3.354,0.00549,-0.03662,0.00046,-0.03601,-0.03662,-0.03754,-0.01617,-0.00763,-0.02014,-0.03098,-0.01343,-0.00473,-0.0296,-0.01389,0.00412,-0.04013
3.3545,0.00549,-0.03738,0.00168,-0.0444,-0.04471,-0.03464,-0.01465,-0.00854,-0.01953,-0.02945,-0.01328,-0.00244,-0.02899,-0.01358,0.00458,-0.04089
3.355,0.00412,-0.03647,-0.00214,-0.04501,-0.04974,-0.03555,-0.01404,-0.00793,-0.01999,-0.02869,-0.01129,0.00076,-0.02869,-0.01495,0.00656,-0.04181
3.3555,0.00076,-0.03647,-0.00702,-0.03647,-0.04898,-0.03738,-0.0148,-0.00717,-0.01907,-0.02899,-0.01022,0.00183,-0.02823,-0.01556,0.00793,-0.04303
3.356,-0.00366,-0.03693,-0.01007,-0.02701,-0.04227,-0.03723,-0.01602,-0.0061,-0.01907,-0.03098,-0.00992,0.00244,-0.02945,-0.01648,0.00732,-0.0444
3.3565,-0.0087,-0.03723,-0.01358,-0.02029,-0.03418,-0.03693,-0.01572,-0.00549,-0.02029,-0.03265,-0.01068,0.00183,-0.03113,-0.0174,0.00702,-0.04318
3.357,-0.01282,-0.03601,-0.01755,-0.01022,-0.02869,-0.03815,-0.01511,-0.00626,-0.02075,-0.03296,-0.01175,0.00061,-0.03265,-0.01801,0.00748,-0.04318
3.3575,-0.01587,-0.0354,-0.0238,0.01511,-0.02777,-0.04089,-0.01541,-0.0058,-0.01785,-0.03204,-0.0119,-0.00092,-0.03372,-0.01862,0.00778,-0.04288
3.358,-0.01892,-0.0354,-0.03616,0.06241,-0.02869,-0.04211,-0.01572,-0.00397,-0.01434,-0.03174,-0.01129,-0.00244,-0.03433,-0.01907,0.00641,-0.04303
3.3585,-0.02075,-0.03586,-0.07141,0.11566,-0.02869,-0.0386,-0.01511,-0.00137,-0.01434,-0.03265,-0.01022,-0.00229,-0.03479,-0.01862,0.00504,-0.04318
3.359,-0.0209,-0.03433,-0.14542,0.14328,-0.02914,-0.03326,-0.01404,0.00031,-0.01862,-0.03372,-0.00916,-0.00122,-0.03601,-0.01785,0.00534,-0.04211
3.3595,-0.01617,-0.03159,-0.23056,0.13229,-0.02945,-0.02762,-0.0119,0.00153,-0.02151,-0.03326,-0.0087,0.00198,-0.03662,-0.01923,0.00671,-0.04013
3.36,-0.01038,-0.02945,-0.25558,0.09491,-0.03204,-0.02213,-0.01022,0.00244,-0.02213,-0.03281,-0.009,0.00473,-0.03571,-0.01984,0.00702,-0.03937
3.3605,-0.00778,-0.02808,-0.1825,0.05264,-0.03494,-0.01785,-0.00961,0.0029,-0.02243,-0.03189,-0.00931,0.00473,-0.03479,-0.02121,0.00778,-0.04074
3.361,-0.00854,-0.02792,-0.05814,0.01129,-0.03952,-0.01801,-0.01083,0.00305,-0.02579,-0.03082,-0.01053,0.00137,-0.03403,-0.02182,0.00931,-0.04303
3.3615,-0.00732,-0.02808,0.03677,-0.01541,-0.04349,-0.02106,-0.01175,0.00168,-0.03052,-0.02808,-0.00992,-0.00122,-0.03342,-0.02182,0.00885,-0.04318
3.362,-0.00458,-0.02975,0.06851,-0.00473,-0.04654,-0.02701,-0.01266,-0.00107,-0.03098,-0.02518,-0.00854,-0.00168,-0.03098,-0.02167,0.00763,-0.04318
3.3625,-0.00244,-0.03265,0.06088,0.04578,-0.04639,-0.03433,-0.01221,-0.00259,-0.02747,-0.02365,-0.00748,-0.00031,-0.02777,-0.02075,0.00702,-0.04364
3.363,-0.00336,-0.03555,0.04929,0.09445,-0.04364,-0.04059,-0.01205,-0.00107,-0.02365,-0.02243,-0.00748,0.00122,-0.02625,-0.02045,0.00778,-0.0441
3.3635,-0.00488,-0.0383,0.04227,0.08926,-0.03998,-0.04578,-0.01236,0.00046,-0.0235,-0.02106,-0.00839,0.00137,-0.02747,-0.0206,0.009,-0.04242
3.364,-0.0058,-0.03937,0.03494,0.03525,-0.03738,-0.04883,-0.01282,-0.00031,-0.0264,-0.01816,-0.00778,0.00107,-0.02945,-0.02213,0.00961,-0.03952
3.3645,-0.00427,-0.03998,0.02426,-0.01373,-0.03372,-0.05112,-0.01343,-0.00336,-0.02945,-0.01648,-0.00671,0.00198,-0.03036,-0.02228,0.00809,-0.03983
3.365,-0.00092,-0.03967,0.01221,-0.02792,-0.03021,-0.05371,-0.01434,-0.00458,-0.02945,-0.01617,-0.00717,0.00275,-0.03021,-0.02167,0.00793,-0.04089
3.3655,0.00275,-0.03967,-0.00473,-0.02853,-0.02884,-0.05722,-0.01495,-0.00427,-0.0264,-0.01587,-0.01038,0.00336,-0.02945,-0.01984,0.009,-0.04105
3.366,0.00595,-0.03922,-0.02701,-0.04761,-0.0296,-0.0618,-0.01572,-0.00336,-0.02182,-0.01663,-0.01404,0.00351,-0.03052,-0.01907,0.0116,-0.0386
3.3665,0.00717,-0.03876,-0.04791,-0.07751,-0.03036,-0.06546,-0.01694,-0.0029,-0.01831,-0.01678,-0.01602,0.00458,-0.0322,-0.01862,0.01266,-0.03586
3.367,0.00748,-0.03952,-0.0592,-0.08896,-0.03021,-0.06897,-0.01755,-0.0032,-0.01678,-0.01755,-0.01678,0.00549,-0.03311,-0.01801,0.01068,-0.0351
3.3675,0.00793,-0.04074,-0.05661,-0.07355,-0.03113,-0.07248,-0.01663,-0.00381,-0.01587,-0.01862,-0.01724,0.00549,-0.03128,-0.01801,0.00732,-0.0351
3.368,0.00793,-0.04211,-0.04272,-0.04379,-0.03357,-0.07217,-0.01556,-0.0032,-0.01419,-0.02014,-0.01953,0.00305,-0.02838,-0.01923,0.00397,-0.03571
3.3685,0.00809,-0.0441,-0.02457,-0.0177,-0.0354,-0.06683,-0.01526,-0.00305,-0.01175,-0.02365,-0.02182,0.00107,-0.02884,-0.02045,-0.00076,-0.03815
3.369,0.00839,-0.04517,-0.01328,-0.009,-0.03708,-0.05981,-0.01694,-0.00519,-0.01053,-0.02533,-0.02274,0.00198,-0.03082,-0.01953,-0.0061,-0.04059
3.3695,0.00778,-0.04532,-0.01144,-0.02304,-0.03571,-0.05463,-0.01801,-0.00931,-0.01022,-0.02884,-0.02243,0.00504,-0.03128,-0.01663,-0.01083,-0.0415
3.37,0.00595,-0.04364,-0.01831,-0.04486,-0.03387,-0.05234,-0.01801,-0.01465,-0.00961,-0.03006,-0.02243,0.00656,-0.0322,-0.01526,-0.00992,-0.04135
3.3705,0.00412,-0.04303,-0.02533,-0.05524,-0.03296,-0.05432,-0.01587,-0.01633,-0.01022,-0.0325,-0.02182,0.00687,-0.0325,-0.01663,-0.00778,-0.04135
3.371,0.00366,-0.04425,-0.03036,-0.0444,-0.03159,-0.06104,-0.0148,-0.01404,-0.01404,-0.03616,-0.0206,0.00549,-0.03296,-0.01846,-0.0061,-0.04318
3.3715,0.00397,-0.04501,-0.0325,-0.0177,-0.03036,-0.07172,-0.01358,-0.01144,-0.0206,-0.03784,-0.0174,0.00473,-0.03265,-0.01877,-0.00488,-0.04456
3.372,0.0032,-0.04471,-0.03326,0.0148,-0.02777,-0.07675,-0.01282,-0.00793,-0.02487,-0.03876,-0.01511,0.00351,-0.03235,-0.0174,0.00092,-0.04395
3.3725,0.00183,-0.0444,-0.03418,0.02899,-0.02548,-0.07202,-0.01282,-0.00488,-0.02487,-0.03983,-0.01511,0.00031,-0.03372,-0.01617,0.01465,-0.04227
3.373,0.00031,-0.04456,-0.03662,0.00168,-0.02365,-0.05997,-0.01236,-0.00214,-0.02548,-0.04028,-0.0148,-0.0032,-0.0354,-0.01648,0.03143,-0.04105
3.3735,-0.00107,-0.04486,-0.04059,-0.05585,-0.02274,-0.05157,-0.01083,0.00031,-0.02716,-0.03876,-0.01389,-0.00671,-0.03647,-0.01801,0.0383,-0.04166
3.374,-0.00168,-0.0444,-0.04471,-0.09552,-0.02182,-0.04761,-0.01068,0.00076,-0.02747,-0.03601,-0.0145,-0.00885,-0.03738,-0.01877,0.02914,-0.04227
3.3745,-0.00168,-0.04471,-0.04639,-0.08331,-0.0209,-0.04578,-0.01083,0.00137,-0.02304,-0.03021,-0.0148,-0.01144,-0.03632,-0.01831,0.01572,-0.04227
3.375,-0.00015,-0.04669,-0.04532,-0.03769,-0.02045,-0.04211,-0.01038,0.00061,-0.01877,-0.02289,-0.01465,-0.01221,-0.03464,-0.01694,0.01083,-0.04196
3.3755,0.00122,-0.04974,-0.04303,0.00153,-0.02197,-0.04074,-0.01007,0.0,-0.01862,-0.01694,-0.0119,-0.01083,-0.03372,-0.01709,0.01221,-0.04135
3.376,0.0029,-0.05157,-0.04028,0.01968,-0.02548,-0.04364,-0.01053,-0.00183,-0.01953,-0.01328,-0.01114,-0.00793,-0.03265,-0.01801,0.01373,-0.04257
3.3765,0.0032,-0.05035,-0.03784,0.0293,-0.03006,-0.04776,-0.01205,-0.00214,-0.01602,-0.01053,-0.01083,-0.00397,-0.03143,-0.01663,0.01251,-0.04257
3.377,0.00275,-0.04791,-0.03601,0.03937,-0.03494,-0.04929,-0.01358,-0.00244,-0.00931,-0.00824,-0.01038,0.00046,-0.03143,-0.01465,0.01175,-0.04196
3.3775,0.00046,-0.04562,-0.03525,0.04837,-0.03723,-0.04852,-0.0145,-0.00244,-0.00702,-0.00778,-0.00931,0.00214,-0.03113,-0.01495,0.01129,-0.04211
3.378,-0.00076,-0.04425,-0.0351,0.05661,-0.03815,-0.04745,-0.01694,-0.00198,-0.01083,-0.00916,-0.00809,0.0029,-0.03098,-0.01816,0.01022,-0.04425
3.3785,-0.00015,-0.04395,-0.03586,0.07202,-0.03922,-0.0473,-0.01953,-0.00198,-0.01572,-0.01068,-0.00793,0.00473,-0.02975,-0.01968,0.00824,-0.04562
3.379,0.00015,-0.04395,-0.03479,0.09476,-0.03983,-0.04578,-0.01923,-0.00122,-0.01556,-0.01114,-0.00778,0.00732,-0.02899,-0.01923,0.00656,-0.04456
3.3795,-0.00107,-0.0444,-0.03265,0.11108,-0.04074,-0.0441,-0.01541,-0.00061,-0.00946,-0.00885,-0.00778,0.0087,-0.02792,-0.01785,0.00748,-0.04105
3.38,-0.00366,-0.04456,-0.03143,0.10483,-0.03876,-0.04395,-0.01266,0.00061,-0.00214,-0.00504,-0.00824,0.00809,-0.02731,-0.01709,0.00793,-0.04059
3.3805,-0.0058,-0.04456,-0.03082,0.07584,-0.03708,-0.04883,-0.01373,-0.00046,0.00092,0.00046,-0.01007,0.00656,-0.02701,-0.01694,0.00793,-0.04074
3.381,-0.00809,-0.04379,-0.02823,0.03326,-0.03433,-0.05569,-0.01648,-0.00214,-0.00183,0.00778,-0.01312,0.00473,-0.02747,-0.01831,0.00854,-0.04105
3.3815,-0.01236,-0.04074,-0.01907,-0.01175,-0.0322,-0.06287,-0.01633,-0.00381,-0.00595,0.01175,-0.01709,0.00214,-0.02792,-0.01877,0.00931,-0.04044
3.382,-0.01709,-0.0383,-0.00351,-0.04852,-0.02975,-0.06699,-0.01404,-0.00504,-0.00931,0.00839,-0.02106,-0.00107,-0.02762,-0.01923,0.01083,-0.04028
3.3825,-0.01801,-0.03662,0.00885,-0.06989,-0.02731,-0.06805,-0.01144,-0.00458,-0.0119,-0.00015,-0.02548,-0.00244,-0.0267,-0.01953,0.00916,-0.04227
3.383,-0.01434,-0.03586,0.00946,-0.07828,-0.02518,-0.06454,-0.0116,-0.00381,-0.01419,-0.00778,-0.02808,-0.00061,-0.02716,-0.02014,0.0087,-0.04272
3.3835,-0.01205,-0.03723,-0.00305,-0.08179,-0.02533,-0.05707,-0.01373,-0.00305,-0.01556,-0.01068,-0.02823,0.00183,-0.02945,-0.02075,0.00702,-0.04242
3.384,-0.01205,-0.03952,-0.01831,-0.0824,-0.02838,-0.04791,-0.01526,-0.00198,-0.01587,-0.00763,-0.02609,0.00259,-0.03326,-0.02106,0.00534,-0.04181
3.3845,-0.01251,-0.0412,-0.02853,-0.08102,-0.0293,-0.04318,-0.0174,-0.00137,-0.01556,-0.00046,-0.02258,0.00198,-0.03586,-0.0209,0.00641,-0.04166
3.385,-0.00916,-0.04135,-0.03647,-0.0766,-0.02991,-0.04333,-0.02029,-0.00107,-0.01389,0.00656,-0.02029,0.00183,-0.03571,-0.02228,0.00885,-0.04242
3.3855,-0.00488,-0.04028,-0.04425,-0.06821,-0.03036,-0.04684,-0.02243,-0.00183,-0.01038,0.01099,-0.02029,0.00351,-0.03555,-0.02213,0.00992,-0.04257
3.386,-0.00351,-0.03906,-0.05096,-0.05783,-0.03189,-0.0499,-0.02182,-0.00366,-0.00763,0.01099,-0.02121,0.00412,-0.03555,-0.02121,0.00992,-0.04272
3.3865,-0.00488,-0.03784,-0.05676,-0.04761,-0.03357,-0.05081,-0.01907,-0.00534,-0.00778,0.0058,-0.02182,0.00122,-0.03601,-0.0206,0.00931,-0.04272
3.387,-0.00793,-0.03647,-0.06256,-0.03906,-0.03281,-0.04486,-0.01602,-0.00458,-0.00961,0.00092,-0.02045,-0.00397,-0.03662,-0.02151,0.00885,-0.04196
3.3875,-0.00931,-0.03586,-0.07065,-0.03204,-0.03311,-0.03281,-0.01709,-0.00397,-0.0119,-0.00427,-0.01877,-0.00748,-0.03647,-0.02289,0.00778,-0.04211
3.388,-0.00931,-0.03662,-0.08087,-0.02716,-0.03204,-0.02045,-0.02014,-0.00336,-0.01404,-0.00824,-0.01587,-0.00641,-0.03632,-0.02304,0.00671,-0.04257
3.3885,-0.00671,-0.0386,-0.09247,-0.02563,-0.03021,-0.01389,-0.0235,-0.0032,-0.01572,-0.01434,-0.01328,-0.00336,-0.03586,-0.02167,0.00534,-0.04211
3.389,-0.00351,-0.03983,-0.1004,-0.02579,-0.02884,-0.0145,-0.02426,-0.00214,-0.01556,-0.02075,-0.0119,-0.00275,-0.03479,-0.02136,0.00473,-0.04074
3.3895,-0.00107,-0.03891,-0.10223,-0.02045,-0.02899,-0.01862,-0.01984,-0.00061,-0.01663,-0.02625,-0.01266,-0.00397,-0.03418,-0.02106,0.00427,-0.03906
3.39,0.0,-0.03784,-0.09567,-0.00519,-0.03174,-0.02655,-0.01358,0.00183,-0.02045,-0.02869,-0.01221,-0.00595,-0.03372,-0.01938,0.00412,-0.03891
3.3905,0.0,-0.03738,-0.08469,0.01358,-0.03708,-0.03754,-0.00885,0.00351,-0.02533,-0.03021,-0.01038,-0.00702,-0.03342,-0.01801,0.00305,-0.03891
3.391,-0.00122,-0.03754,-0.07156,0.02167,-0.04395,-0.04974,-0.0061,0.00443,-0.02502,-0.03372,-0.009,-0.00839,-0.03418,-0.01892,0.00229,-0.03876
3.3915,-0.00259,-0.03769,-0.05844,0.01129,-0.05081,-0.05951,-0.00336,0.00519,-0.01694,-0.03616,-0.00885,-0.01022,-0.03418,-0.02045,0.00351,-0.03891
3.392,-0.00336,-0.03784,-0.04669,-0.01022,-0.05432,-0.06805,-0.00122,0.00626,-0.00824,-0.03601,-0.00946,-0.01205,-0.0322,-0.0209,0.0061,-0.03998
3.3925,-0.00214,-0.03876,-0.03769,-0.0293,-0.05463,-0.07736,-0.00122,0.00656,-0.00671,-0.03326,-0.00977,-0.01266,-0.02975,-0.01923,0.00687,-0.04196
3.393,-0.00107,-0.04257,-0.03311,-0.03265,-0.05386,-0.09247,-0.00351,0.0058,-0.0119,-0.02914,-0.01114,-0.01038,-0.02869,-0.01617,0.00641,-0.04288
3.3935,-0.00061,-0.04791,-0.03113,-0.0206,-0.05142,-0.1062,-0.00641,0.00427,-0.01511,-0.02655,-0.01175,-0.00839,-0.02945,-0.01373,0.00839,-0.04166
3.394,-0.00336,-0.05035,-0.0293,-0.00427,-0.04868,-0.1091,-0.00748,0.00214,-0.01434,-0.0238,-0.01144,-0.00504,-0.03082,-0.01434,0.01251,-0.04059
3.3945,-0.00809,-0.04807,-0.0267,0.00748,-0.04333,-0.09354,-0.00839,-0.00183,-0.0116,-0.02106,-0.00839,-0.00214,-0.03098,-0.01755,0.0148,-0.03922
3.395,-0.0116,-0.04349,-0.02151,0.01221,-0.03799,-0.0676,-0.01068,-0.00519,-0.00885,-0.0174,-0.00656,-0.00092,-0.02975,-0.01907,0.01328,-0.04044
3.3955,-0.01312,-0.03983,-0.01892,0.01419,-0.03082,-0.04242,-0.01099,-0.0058,-0.00595,-0.01083,-0.00595,-0.00168,-0.02701,-0.01907,0.00977,-0.04181
3.396,-0.01373,-0.03799,-0.01785,0.01266,-0.02274,-0.02594,-0.01022,-0.00412,-0.00229,-0.00092,-0.00565,-0.00259,-0.02609,-0.01923,0.00977,-0.04303
3.3965,-0.01495,-0.03601,-0.01892,0.00671,-0.01633,-0.0177,-0.00763,-0.00214,0.00122,0.00656,-0.00565,-0.00214,-0.02747,-0.01968,0.0119,-0.04318
3.397,-0.01694,-0.03403,-0.01968,-0.00824,-0.01266,-0.01617,-0.00687,-0.00122,0.00137,0.00412,-0.00717,-0.00107,-0.03052,-0.02014,0.01389,-0.04196
3.3975,-0.01953,-0.0322,-0.01984,-0.03265,-0.0119,-0.01846,-0.00916,-0.00443,-0.00122,-0.00626,-0.00977,-0.00031,-0.03326,-0.01923,0.01343,-0.04135
3.398,-0.02121,-0.03204,-0.01923,-0.06027,-0.01297,-0.02274,-0.01419,-0.01328,-0.00549,-0.01648,-0.01053,-0.00015,-0.03418,-0.01831,0.00931,-0.0415
3.3985,-0.01984,-0.03235,-0.01953,-0.08179,-0.01511,-0.0264,-0.01968,-0.02274,-0.00854,-0.02106,-0.00992,0.00015,-0.03448,-0.01831,0.00626,-0.04211
3.399,-0.01556,-0.03265,-0.01984,-0.09186,-0.01846,-0.02884,-0.02167,-0.02335,-0.01312,-0.02106,-0.01083,0.00015,-0.03525,-0.01953,0.00549,-0.04318
3.3995,-0.00809,-0.03159,-0.02106,-0.09323,-0.02243,-0.03036,-0.01938,-0.01404,-0.02197,-0.02243,-0.01343,0.00046,-0.03571,-0.02106,0.00626,-0.04349
3.4,-0.00153,-0.02975,-0.02151,-0.0946,-0.02563,-0.03204,-0.01831,-0.00366,-0.03235,-0.02563,-0.01511,0.00107,-0.03448,-0.02121,0.00671,-0.04257
3.4005,0.00031,-0.02991,-0.02014,-0.09705,-0.02655,-0.03647,-0.01984,0.00031,-0.03967,-0.02914,-0.01373,0.00259,-0.03235,-0.02151,0.00626,-0.0415
3.401,0.00015,-0.03281,-0.01312,-0.09186,-0.02625,-0.04364,-0.01984,-0.00183,-0.03937,-0.03128,-0.01083,0.00443,-0.03021,-0.02106,0.0061,-0.04196
3.4015,0.00046,-0.03693,-0.00183,-0.06973,-0.02563,-0.0528,-0.01633,-0.00244,-0.03342,-0.03281,-0.00824,0.00565,-0.02975,-0.02014,0.0087,-0.04471
3.402,0.00214,-0.0412,0.00595,-0.03357,-0.02609,-0.06317,-0.01129,-0.00076,-0.0264,-0.0325,-0.00809,0.00656,-0.02975,-0.01938,0.01007,-0.04669
3.4025,0.0029,-0.04547,0.00565,0.00046,-0.02991,-0.07156,-0.00931,0.00031,-0.02014,-0.03387,-0.00977,0.0061,-0.03006,-0.01801,0.01144,-0.04608
3.403,0.00137,-0.05295,0.00031,0.01511,-0.03433,-0.07416,-0.01007,-0.00076,-0.01389,-0.03403,-0.01297,0.00656,-0.03128,-0.0174,0.01114,-0.04364
3.4035,-0.00046,-0.05829,-0.00565,0.01297,-0.03647,-0.06821,-0.01129,-0.00305,-0.00793,-0.03342,-0.01419,0.0058,-0.0325,-0.01724,0.0119,-0.04105
3.404,-0.00259,-0.05432,-0.00992,0.01144,-0.03738,-0.06256,-0.01312,-0.00336,-0.00534,-0.03143,-0.01465,0.00504,-0.03174,-0.0174,0.01175,-0.0412
3.4045,-0.00381,-0.03998,-0.01526,0.0206,-0.03799,-0.06195,-0.01495,-0.00092,-0.00778,-0.03159,-0.01526,0.00549,-0.03052,-0.01724,0.01083,-0.04227
3.405,-0.00519,-0.02731,-0.02258,0.03174,-0.03815,-0.06607,-0.01556,0.00031,-0.01434,-0.03311,-0.01678,0.00534,-0.03082,-0.01801,0.00992,-0.04272
3.4055,-0.00717,-0.02274,-0.03357,0.03815,-0.03738,-0.07233,-0.0145,0.00015,-0.02075,-0.03342,-0.01709,0.00519,-0.03372,-0.01831,0.00916,-0.04211
3.406,-0.01022,-0.0267,-0.04639,0.0383,-0.03403,-0.07568,-0.01251,0.0,-0.02502,-0.03342,-0.01663,0.00427,-0.03586,-0.01831,0.00931,-0.04272
3.4065,-0.01373,-0.03159,-0.05829,0.03174,-0.02884,-0.07629,-0.01068,0.00031,-0.02945,-0.03296,-0.01617,0.0029,-0.0351,-0.0177,0.00931,-0.04471
3.407,-0.01755,-0.03601,-0.06134,0.01541,-0.02335,-0.0737,-0.00854,-0.00015,-0.03433,-0.03174,-0.01511,0.00183,-0.03326,-0.01755,0.00839,-0.04608
3.4075,-0.02075,-0.03983,-0.05508,-0.01053,-0.01831,-0.06836,-0.00732,-0.0029,-0.03769,-0.03128,-0.01221,0.00137,-0.03128,-0.01862,0.00702,-0.04669
3.408,-0.02274,-0.04257,-0.04578,-0.03937,-0.01663,-0.06409,-0.0061,-0.00534,-0.03632,-0.03098,-0.009,0.00076,-0.03098,-0.01923,0.00412,-0.04517
3.4085,-0.02319,-0.04501,-0.0412,-0.06699,-0.01663,-0.0618,-0.0058,-0.00534,-0.03265,-0.03204,-0.0058,-0.00061,-0.03143,-0.01938,0.00214,-0.04013
3.409,-0.02121,-0.04883,-0.04395,-0.09415,-0.01755,-0.05676,-0.00748,-0.0032,-0.02899,-0.03357,-0.00198,-0.00305,-0.03357,-0.01892,0.00153,-0.03464
3.4095,-0.01556,-0.05432,-0.05249,-0.1178,-0.01678,-0.04425,-0.01022,-0.00198,-0.02731,-0.04013,0.00534,-0.00198,-0.03555,-0.01785,0.00366,-0.03113
3.41,-0.00595,-0.0592,-0.05829,-0.12985,-0.01572,-0.02731,-0.01297,-0.00122,-0.02747,-0.05234,0.01373,0.00076,-0.03662,-0.01694,0.00656,-0.03311
3.4105,0.00214,-0.06012,-0.05646,-0.11734,-0.0174,-0.01129,-0.01434,0.00076,-0.02716,-0.06683,0.01556,0.00595,-0.03632,-0.01663,0.00854,-0.0386
3.411,0.00519,-0.05585,-0.04669,-0.06821,-0.0206,0.00473,-0.01556,0.00458,-0.02502,-0.07553,0.00778,0.00763,-0.03571,-0.01755,0.00931,-0.0415
3.4115,0.00565,-0.0502,-0.03601,0.00656,-0.02335,0.02121,-0.01602,0.01053,-0.02228,-0.06958,-0.0032,0.00717,-0.03571,-0.01801,0.009,-0.04089
3.412,0.00504,-0.04395,-0.03021,0.0618,-0.02518,0.03326,-0.01663,0.01312,-0.02243,-0.04791,-0.01221,0.00534,-0.03677,-0.01862,0.00793,-0.04013
3.4125,0.00488,-0.04089,-0.0296,0.0563,-0.02487,0.03784,-0.01495,0.00977,-0.02411,-0.02075,-0.01923,0.00397,-0.03708,-0.01953,0.00519,-0.04013
3.413,0.00443,-0.04272,-0.02914,0.00305,-0.02502,0.03922,-0.01038,-0.00107,-0.02167,0.0029,-0.0264,0.00366,-0.0354,-0.01984,0.00443,-0.04028
3.4135,0.00336,-0.04959,-0.02655,-0.04578,-0.02609,0.03571,-0.00778,-0.01465,-0.01434,0.01862,-0.03265,0.00366,-0.03189,-0.01984,0.00504,-0.04044
3.414,0.00153,-0.05646,-0.02243,-0.05814,-0.02686,0.02319,-0.01297,-0.02136,-0.00519,0.02716,-0.03296,0.00381,-0.02899,-0.01846,0.00702,-0.03967
3.4145,-0.00015,-0.05569,-0.01709,-0.03128,-0.02884,0.00259,-0.02365,-0.01678,0.00229,0.03021,-0.02899,0.00458,-0.02853,-0.0177,0.00732,-0.03937
3.415,-0.00046,-0.04913,-0.0119,0.02533,-0.03052,-0.02182,-0.03006,-0.00732,0.00641,0.02975,-0.02426,0.00534,-0.02945,-0.01816,0.00809,-0.03937
3.4155,-0.00046,-0.04395,-0.00763,0.0975,-0.03143,-0.04684,-0.02747,-0.00336,0.00671,0.02975,-0.02228,0.00443,-0.02975,-0.01923,0.00946,-0.0383
3.416,0.00031,-0.04288,-0.00397,0.15427,-0.03143,-0.07248,-0.02121,-0.00732,0.00687,0.03067,-0.02228,0.00214,-0.02762,-0.01877,0.0087,-0.03845
3.4165,-0.00015,-0.04288,-0.00214,0.16541,-0.03189,-0.09933,-0.01923,-0.01099,0.00656,0.02991,-0.02243,-0.00046,-0.02502,-0.01633,0.00793,-0.03906
3.417,-0.00168,-0.04227,-0.00137,0.12787,-0.03433,-0.12527,-0.02014,-0.00977,0.00534,0.02151,-0.02274,-0.00214,-0.02411,-0.0148,0.00809,-0.04135
3.4175,-0.00458,-0.04181,-0.00183,0.06821,-0.03632,-0.14191,-0.01984,-0.00443,0.00336,0.00931,-0.02441,-0.00259,-0.02426,-0.01465,0.009,-0.0441
3.418,-0.009,-0.04272,-0.00488,0.02213,-0.0386,-0.14481,-0.01694,-0.00198,0.00061,-0.0032,-0.02701,-0.00183,-0.02563,-0.01434,0.00885,-0.04608
3.4185,-0.0119,-0.04471,-0.00961,0.00381,-0.04044,-0.13229,-0.01541,-0.00275,-0.00092,-0.01038,-0.02884,0.00076,-0.0264,-0.01541,0.00885,-0.04517
3.419,-0.01389,-0.04532,-0.01602,0.00885,-0.04211,-0.1123,-0.01495,-0.00366,-0.00305,-0.01526,-0.02853,0.00336,-0.02716,-0.01694,0.00824,-0.04242
3.4195,-0.01617,-0.04501,-0.02182,0.02487,-0.04242,-0.09277,-0.01511,-0.00565,-0.00519,-0.01999,-0.02441,0.00504,-0.02686,-0.01907,0.00885,-0.03922
3.42,-0.01923,-0.0441,-0.02731,0.04288,-0.04105,-0.08102,-0.01389,-0.00656,-0.009,-0.02472,-0.01999,0.00443,-0.02609,-0.01999,0.00854,-0.03876
3.4205,-0.02304,-0.04242,-0.03372,0.05035,-0.03937,-0.07538,-0.01282,-0.00778,-0.01328,-0.02869,-0.01801,0.00214,-0.02701,-0.01953,0.00824,-0.04044
3.421,-0.02518,-0.0415,-0.04074,0.04181,-0.03769,-0.0708,-0.01343,-0.00702,-0.01785,-0.03128,-0.01907,-0.00061,-0.03113,-0.01999,0.00931,-0.04211
3.4215,-0.02228,-0.04166,-0.04791,0.02518,-0.03632,-0.06439,-0.01404,-0.00595,-0.02014,-0.03189,-0.02075,-0.00107,-0.0351,-0.02014,0.01053,-0.04318
3.422,-0.01633,-0.04272,-0.05997,0.01312,-0.03006,-0.05661,-0.01434,-0.00381,-0.02197,-0.03189,-0.02151,0.0,-0.03662,-0.01938,0.01251,-0.04333
3.4225,-0.01038,-0.04379,-0.08453,0.00824,-0.02045,-0.04745,-0.01266,-0.00168,-0.02319,-0.03143,-0.02014,0.00122,-0.03677,-0.01892,0.01205,-0.0444
3.423,-0.00488,-0.0441,-0.11734,0.00671,-0.01205,-0.0383,-0.01083,0.0,-0.02289,-0.03067,-0.0174,0.00092,-0.03738,-0.01846,0.0119,-0.04745
3.4235,0.00046,-0.04456,-0.14069,0.00687,-0.009,-0.0325,-0.01083,0.00092,-0.02258,-0.02914,-0.01389,0.0,-0.0383,-0.01846,0.01144,-0.04974
3.424,0.00534,-0.04684,-0.13596,0.00854,-0.01251,-0.03159,-0.0119,0.00122,-0.02014,-0.02762,-0.01266,-0.00031,-0.03922,-0.01968,0.01175,-0.0499
3.4245,0.00763,-0.04883,-0.1123,0.01297,-0.01709,-0.0325,-0.01465,0.0,-0.01755,-0.02594,-0.01266,-0.00107,-0.03845,-0.02182,0.01144,-0.04868
3.425,0.009,-0.04913,-0.09613,0.01373,-0.0206,-0.03281,-0.01801,-0.00214,-0.01602,-0.02365,-0.01266,-0.00168,-0.03784,-0.02228,0.01251,-0.04745
3.4255,0.01038,-0.04837,-0.08331,0.00732,-0.02502,-0.03235,-0.02075,-0.00336,-0.01633,-0.02197,-0.01205,-0.00198,-0.03647,-0.02151,0.01099,-0.04791
3.426,0.0116,-0.04807,-0.04623,-0.00336,-0.03174,-0.03296,-0.02014,-0.00397,-0.01587,-0.02258,-0.01236,-0.00229,-0.0351,-0.02075,0.01099,-0.0473
3.4265,0.01175,-0.04745,0.02167,-0.01328,-0.03845,-0.03433,-0.01694,-0.00626,-0.01541,-0.02304,-0.01266,-0.0032,-0.03403,-0.02045,0.01053,-0.04501
3.427,0.01007,-0.04456,0.0824,-0.01968,-0.04562,-0.0351,-0.01541,-0.00961,-0.01404,-0.02274,-0.01328,-0.00366,-0.03448,-0.01999,0.01129,-0.04242
3.4275,0.00778,-0.04074,0.10239,-0.03159,-0.0528,-0.03448,-0.01663,-0.01251,-0.01297,-0.02167,-0.01282,-0.00305,-0.03586,-0.02014,0.01099,-0.04013
3.428,0.00473,-0.03723,0.08362,-0.05493,-0.05829,-0.03326,-0.01892,-0.01175,-0.0145,-0.02197,-0.0116,-0.0029,-0.03647,-0.0206,0.01205,-0.04013
3.4285,0.00168,-0.03616,0.05569,-0.0824,-0.05981,-0.03296,-0.0177,-0.00854,-0.01617,-0.02106,-0.01175,-0.00351,-0.03479,-0.02075,0.01434,-0.04227
3.429,-0.00107,-0.03586,0.0351,-0.10162,-0.056,-0.03281,-0.01434,-0.00534,-0.01724,-0.01999,-0.01068,-0.00397,-0.03235,-0.01877,0.01328,-0.04089
3.4295,-0.00229,-0.03464,0.01648,-0.11322,-0.04791,-0.03372,-0.01312,-0.00168,-0.01602,-0.01633,-0.00931,-0.00366,-0.03082,-0.01572,0.01266,-0.03876
3.43,-0.00229,-0.03296,-0.00336,-0.12833,-0.04105,-0.03342,-0.01236,0.00214,-0.01434,-0.01068,-0.00702,-0.00275,-0.03006,-0.01465,0.01022,-0.03708
3.4305,-0.00168,-0.03296,-0.02563,-0.14923,-0.03738,-0.03448,-0.01282,0.00351,-0.01404,-0.0058,-0.00473,-0.00168,-0.02975,-0.01587,0.00778,-0.03952
3.431,-0.00061,-0.0354,-0.0473,-0.1622,-0.03693,-0.03616,-0.01205,0.00259,-0.01419,-0.00488,-0.00473,-0.00275,-0.02991,-0.01755,0.00397,-0.04364
3.4315,-0.00061,-0.03647,-0.06897,-0.14038,-0.03586,-0.03708,-0.01144,-0.00031,-0.01312,-0.00885,-0.00595,-0.00305,-0.02884,-0.01724,-0.00076,-0.04593
3.432,0.00046,-0.03571,-0.08728,-0.06668,-0.03418,-0.03708,-0.009,-0.0029,-0.01251,-0.01358,-0.00793,-0.0029,-0.02747,-0.01587,-0.00565,-0.04532
3.4325,-0.00137,-0.03159,-0.09705,0.03464,-0.03342,-0.0383,-0.00946,-0.00076,-0.01358,-0.01602,-0.00702,-0.00061,-0.02838,-0.01617,-0.00565,-0.04471
3.433,-0.00656,-0.02258,-0.09079,0.1001,-0.03342,-0.03952,-0.00824,0.00244,-0.0148,-0.01602,-0.00671,0.00015,-0.02991,-0.01785,-0.00977,-0.04425
3.4335,-0.0119,-0.00809,-0.07004,0.0914,-0.03387,-0.04028,-0.00687,0.00412,-0.01495,-0.01495,-0.00626,0.00092,-0.03052,-0.01907,-0.01617,-0.04395
3.434,-0.01221,0.00336,-0.04333,0.04852,-0.0354,-0.04028,-0.0058,0.00229,-0.0145,-0.01312,-0.00549,0.00168,-0.02975,-0.01953,-0.02075,-0.04333
3.4345,-0.00732,0.00092,-0.02106,0.0444,-0.03632,-0.03662,-0.00717,-0.00092,-0.01419,-0.01297,-0.00534,0.00229,-0.03006,-0.01984,-0.02213,-0.04364
3.435,-0.00168,-0.0177,-0.00839,0.0975,-0.03708,-0.03326,-0.00961,-0.00275,-0.01328,-0.01328,-0.0058,0.00168,-0.03159,-0.01892,-0.02121,-0.04227
3.4355,0.00107,-0.04013,-0.00381,0.15656,-0.03494,-0.02808,-0.01144,-0.0032,-0.01221,-0.01495,-0.00443,0.00137,-0.03387,-0.01709,-0.0209,-0.04074
3.436,-0.00153,-0.05127,-0.00427,0.16174,-0.03342,-0.02411,-0.01205,-0.00488,-0.01312,-0.01633,-0.00275,0.00137,-0.03555,-0.01633,-0.01938,-0.03677
3.4365,-0.00717,-0.05112,-0.00793,0.10818,-0.03204,-0.02029,-0.01221,-0.00595,-0.01312,-0.01678,-0.00443,0.00046,-0.03723,-0.0177,-0.0087,-0.0354
3.437,-0.01083,-0.04669,-0.01038,0.04639,-0.03098,-0.01404,-0.01373,-0.00839,-0.01373,-0.01617,-0.009,-0.00015,-0.03891,-0.02106,0.01587,-0.03586
3.4375,-0.01465,-0.0444,-0.01297,0.01999,-0.0296,-0.00702,-0.01633,-0.01007,-0.01312,-0.01633,-0.01343,-0.00046,-0.0386,-0.0209,0.04486,-0.03708
3.438,-0.01862,-0.04562,-0.01465,0.02197,-0.03021,-0.00229,-0.01694,-0.01068,-0.01373,-0.01892,-0.01358,-0.00092,-0.03677,-0.01968,0.06027,-0.04028
3.4385,-0.02014,-0.04608,-0.01694,0.01999,-0.03128,-0.00443,-0.01541,-0.00748,-0.01526,-0.02319,-0.0116,-0.00198,-0.03418,-0.01862,0.05295,-0.04166
3.439,-0.01816,-0.04486,-0.02075,-0.00717,-0.03159,-0.01419,-0.01282,-0.00473,-0.01724,-0.02777,-0.00839,-0.00244,-0.03159,-0.01984,0.03235,-0.0412
3.4395,-0.01389,-0.0441,-0.02869,-0.0441,-0.03235,-0.02975,-0.01083,-0.00305,-0.01846,-0.03021,-0.0061,-0.00183,-0.02884,-0.02243,0.01694,-0.03922
3.44,-0.01144,-0.04456,-0.03937,-0.05783,-0.03311,-0.05356,-0.00961,-0.00244,-0.01816,-0.03067,-0.00458,0.00046,-0.02731,-0.02274,0.0148,-0.03922
3.4405,-0.01175,-0.04883,-0.04913,-0.04456,-0.03494,-0.07782,-0.01038,-0.00412,-0.01923,-0.02945,-0.00717,0.00122,-0.02731,-0.02121,0.01785,-0.04059
3.441,-0.01236,-0.05554,-0.05356,-0.03174,-0.03616,-0.09262,-0.01205,-0.00565,-0.0206,-0.02838,-0.01266,0.00092,-0.02762,-0.01968,0.02029,-0.0412
3.4415,-0.0116,-0.06271,-0.05219,-0.04013,-0.0351,-0.09247,-0.01221,-0.00595,-0.02136,-0.02716,-0.01892,0.0,-0.02686,-0.0177,0.02075,-0.04089
3.442,-0.00748,-0.06439,-0.05142,-0.05859,-0.03525,-0.08286,-0.01053,-0.00412,-0.0209,-0.02777,-0.02472,-0.00122,-0.02747,-0.01785,0.01892,-0.04089
3.4425,-0.00275,-0.06165,-0.04929,-0.06317,-0.03571,-0.07523,-0.01022,-0.00305,-0.02136,-0.02899,-0.03067,-0.00214,-0.0296,-0.01816,0.01526,-0.0415
3.443,0.00031,-0.05569,-0.047,-0.05188,-0.03632,-0.07568,-0.00946,-0.00336,-0.02304,-0.02579,-0.03448,-0.00275,-0.03143,-0.02045,0.00977,-0.0415
3.4435,0.00275,-0.05188,-0.04196,-0.03693,-0.03555,-0.07767,-0.01022,-0.00275,-0.02289,-0.02045,-0.03357,-0.00214,-0.03265,-0.0206,0.00473,-0.04089
3.444,0.00427,-0.05051,-0.03448,-0.02777,-0.03387,-0.07721,-0.01144,-0.00244,-0.02014,-0.01511,-0.02808,-0.00214,-0.03433,-0.02075,0.00076,-0.03891
3.4445,0.00427,-0.04974,-0.02899,-0.02563,-0.03265,-0.07675,-0.01251,-0.0032,-0.01343,-0.01602,-0.02045,-0.00168,-0.03571,-0.02014,-0.00183,-0.03799
3.445,0.00137,-0.04654,-0.02441,-0.02884,-0.03387,-0.07782,-0.01205,-0.00381,-0.0058,-0.0174,-0.01694,-0.00076,-0.03632,-0.01877,-0.00305,-0.0386
3.4455,-0.0032,-0.04196,-0.02182,-0.03616,-0.03357,-0.07782,-0.01038,-0.0032,-0.00076,-0.02029,-0.01877,-0.00122,-0.03555,-0.01785,-0.00366,-0.03922
3.446,-0.00748,-0.03708,-0.02213,-0.04486,-0.03128,-0.07324,-0.01038,-0.00031,-0.00031,-0.02243,-0.02716,-0.00244,-0.03448,-0.01648,-0.00763,-0.03998
3.4465,-0.00916,-0.03418,-0.02625,-0.04837,-0.02701,-0.06439,-0.01266,0.00061,-0.00015,-0.0235,-0.03708,-0.00244,-0.03265,-0.01587,-0.0145,-0.03937
3.447,-0.01022,-0.03387,-0.0325,-0.04242,-0.02304,-0.056,-0.01709,-0.00031,-0.00031,-0.02182,-0.04135,-0.00259,-0.03052,-0.01526,-0.01541,-0.03891
3.4475,-0.01053,-0.0351,-0.04089,-0.02853,-0.01999,-0.04944,-0.02151,-0.00214,-0.00137,-0.01968,-0.03326,-0.00259,-0.02823,-0.01465,0.00259,-0.0386
3.448,-0.00961,-0.03738,-0.04883,-0.01343,-0.01923,-0.04517,-0.02197,-0.00183,-0.00504,-0.01968,-0.01877,-0.00153,-0.02853,-0.01495,0.03342,-0.03799
3.4485,-0.00809,-0.04074,-0.05661,-0.00778,-0.02045,-0.04318,-0.01999,0.0,-0.01007,-0.02121,-0.01175,-0.00031,-0.02899,-0.0174,0.047,-0.03845
3.449,-0.00839,-0.04288,-0.06577,-0.01312,-0.02319,-0.04303,-0.01801,-0.00015,-0.0174,-0.02457,-0.02274,0.00107,-0.02853,-0.0206,0.03418,-0.03769
3.4495,-0.01053,-0.04333,-0.0708,-0.01801,-0.02457,-0.04303,-0.01373,-0.00153,-0.02426,-0.02502,-0.0383,0.00244,-0.02777,-0.02167,0.0145,-0.0383
3.45,-0.01007,-0.04028,-0.06683,-0.01007,-0.02426,-0.04272,-0.0087,-0.0032,-0.03067,-0.0235,-0.02914,0.00381,-0.02884,-0.01968,0.01068,-0.04044
3.4505,-0.00778,-0.03632,-0.05707,0.00885,-0.02655,-0.04333,-0.00504,-0.00519,-0.03571,-0.01923,0.00992,0.00458,-0.03204,-0.0177,0.01755,-0.0415
3.451,-0.00473,-0.03296,-0.04944,0.02151,-0.03143,-0.04501,-0.00656,-0.00717,-0.03876,-0.01221,0.05234,0.00504,-0.03357,-0.01678,0.02258,-0.03998
3.4515,-0.00153,-0.03067,-0.04761,0.01251,-0.03281,-0.04486,-0.01205,-0.00946,-0.03784,-0.00504,0.06912,0.00336,-0.03265,-0.01724,0.02014,-0.03693
3.452,0.00092,-0.02777,-0.04837,-0.0116,-0.0322,-0.04471,-0.01709,-0.01007,-0.03586,0.00015,0.05966,0.00214,-0.03174,-0.01663,0.01572,-0.03586
3.4525,0.00198,-0.02594,-0.04684,-0.02731,-0.03036,-0.04486,-0.02106,-0.0087,-0.03372,0.00107,0.04105,0.00076,-0.03204,-0.01526,0.01297,-0.03769
3.453,0.00198,-0.02609,-0.04333,-0.02533,-0.02945,-0.04501,-0.02411,-0.00626,-0.03433,0.00076,0.02441,0.00061,-0.03098,-0.01511,0.01022,-0.04044
3.4535,0.00107,-0.02884,-0.03952,-0.02258,-0.0296,-0.04547,-0.02579,-0.00565,-0.0386,-0.00031,0.00931,0.00076,-0.02945,-0.01617,0.009,-0.04211
3.454,0.00015,-0.03296,-0.03479,-0.04074,-0.0293,-0.04593,-0.02304,-0.00656,-0.0441,-0.00183,-0.0032,0.00031,-0.02991,-0.01801,0.00885,-0.0415
3.4545,-0.00092,-0.03662,-0.02945,-0.0798,-0.03082,-0.04654,-0.01785,-0.00458,-0.0473,-0.00595,-0.01328,0.00046,-0.03113,-0.01831,0.00946,-0.04028
3.455,-0.0029,-0.03769,-0.02502,-0.1091,-0.03036,-0.04807,-0.01587,-0.00153,-0.04898,-0.01175,-0.01953,0.00076,-0.03189,-0.01801,0.009,-0.03922
3.4555,-0.00473,-0.03677,-0.02228,-0.10513,-0.03036,-0.04761,-0.01648,-0.00031,-0.04669,-0.01587,-0.02609,0.00092,-0.03159,-0.01846,0.00931,-0.03876
3.456,-0.00519,-0.03601,-0.02014,-0.06973,-0.0293,-0.04654,-0.01678,-0.00168,-0.04059,-0.01587,-0.0322,0.00122,-0.03189,-0.01923,0.00961,-0.03998
3.4565,-0.00351,-0.0354,-0.01419,-0.02579,-0.02853,-0.04562,-0.01572,-0.0032,-0.03204,-0.01816,-0.04059,0.00214,-0.0322,-0.01907,0.00931,-0.04211
3.457,-0.00214,-0.03616,-0.00351,0.00351,-0.02853,-0.0444,-0.01404,-0.00244,-0.02457,-0.02258,-0.05081,0.00229,-0.03189,-0.01831,0.00931,-0.04272
3.4575,-0.00259,-0.0386,0.00809,0.00763,-0.02838,-0.04349,-0.01282,-0.00061,-0.01648,-0.02914,-0.05829,0.00275,-0.03052,-0.01816,0.00809,-0.04318
3.458,-0.00198,-0.04349,0.01083,-0.009,-0.02823,-0.04272,-0.01297,0.00107,-0.00809,-0.03571,-0.05615,0.00397,-0.02975,-0.01907,0.00687,-0.04288
3.4585,0.00046,-0.04684,0.00381,-0.02701,-0.02975,-0.04166,-0.01434,0.00015,-0.00137,-0.04135,-0.04425,0.00488,-0.03067,-0.02136,0.00565,-0.04456
3.459,0.00366,-0.04715,-0.00778,-0.03067,-0.02975,-0.03967,-0.01617,-0.00381,0.00046,-0.047,-0.03265,0.00381,-0.03204,-0.02411,0.00381,-0.04532
3.4595,0.0061,-0.0444,-0.01312,-0.02075,-0.03052,-0.03586,-0.01556,-0.00931,-0.00092,-0.05157,-0.02472,0.00259,-0.03098,-0.02335,0.00412,-0.04501
3.46,0.00839,-0.04211,-0.01114,-0.009,-0.03052,-0.03159,-0.01328,-0.0116,-0.00458,-0.05341,-0.02014,0.00229,-0.02914,-0.02136,0.00565,-0.04425
3.4605,0.00916,-0.04135,-0.00992,-0.00259,-0.0325,-0.0293,-0.01099,-0.00885,-0.01007,-0.05203,-0.01587,0.00305,-0.02869,-0.01907,0.00641,-0.04272
3.461,0.00763,-0.0441,-0.01831,-0.00046,-0.03433,-0.03128,-0.01022,-0.00305,-0.0148,-0.04913,-0.01022,0.00381,-0.03098,-0.01831,0.00473,-0.04211
3.4615,0.0061,-0.04654,-0.03418,0.00076,-0.03342,-0.03525,-0.01251,0.00015,-0.01602,-0.04593,-0.00504,0.00443,-0.0322,-0.01907,0.00443,-0.04196
3.462,0.00412,-0.04532,-0.04807,0.00275,-0.0354,-0.03891,-0.01465,0.00031,-0.01373,-0.04395,-0.00198,0.00443,-0.0322,-0.02014,0.00473,-0.04074
3.4625,0.00336,-0.03845,-0.05585,0.00183,-0.03662,-0.04242,-0.01419,-0.00031,-0.01022,-0.04242,-0.00198,0.0032,-0.03174,-0.02121,0.00656,-0.03983
3.463,0.0029,-0.0296,-0.06241,0.00015,-0.03601,-0.04532,-0.01114,-0.00031,-0.00702,-0.03738,-0.00397,0.00122,-0.03235,-0.02121,0.00656,-0.04196
3.4635,0.00229,-0.02396,-0.07538,0.0,-0.03464,-0.04715,-0.00946,-0.00168,-0.00549,-0.02869,-0.00534,-0.00076,-0.03372,-0.0209,0.00275,-0.04501
3.464,-0.00183,-0.02365,-0.09308,0.00168,-0.03403,-0.047,-0.01022,-0.00519,-0.00458,-0.01556,-0.00534,-0.00183,-0.03418,-0.01999,-0.00092,-0.04471
3.4645,-0.00839,-0.0264,-0.10712,0.00565,-0.03357,-0.04044,-0.01144,-0.00793,-0.00214,0.00122,-0.00656,-0.00046,-0.03418,-0.01923,-0.00168,-0.04105
3.465,-0.01343,-0.02945,-0.1091,0.00824,-0.03387,-0.02853,-0.01205,-0.00717,0.0032,0.01801,-0.01114,0.00214,-0.03296,-0.01938,0.00046,-0.0386
3.4655,-0.01617,-0.03174,-0.09613,0.00931,-0.0351,-0.02121,-0.01129,-0.0029,0.01114,0.02975,-0.01831,0.00412,-0.03143,-0.02014,0.00229,-0.03952
3.466,-0.01831,-0.03433,-0.07339,0.00931,-0.03693,-0.02533,-0.0119,0.00046,0.01572,0.03098,-0.02426,0.00275,-0.03159,-0.0206,0.00183,-0.04242
3.4665,-0.02121,-0.03494,-0.04761,0.01007,-0.0386,-0.03845,-0.01358,0.00122,0.01251,0.0235,-0.02594,0.00122,-0.03189,-0.01999,0.0032,-0.04395
3.467,-0.02289,-0.03204,-0.02716,0.00977,-0.03952,-0.05142,-0.01419,-0.00214,0.00107,0.01617,-0.02411,0.00046,-0.03281,-0.01755,0.00595,-0.04318
3.4675,-0.01999,-0.02762,-0.01694,0.00717,-0.03769,-0.05783,-0.01266,-0.00641,-0.01099,0.01236,-0.02014,0.00137,-0.03387,-0.01633,0.009,-0.04257
3.468,-0.0116,-0.02777,-0.01495,0.0032,-0.03555,-0.05768,-0.0116,-0.00763,-0.01877,0.01282,-0.01053,0.00153,-0.03555,-0.01617,0.00702,-0.04501
3.4685,-0.00153,-0.03723,-0.01663,0.00076,-0.03387,-0.056,-0.00992,-0.00809,-0.02045,0.01221,0.00748,0.00076,-0.03632,-0.01816,-0.00061,-0.047
3.469,0.0058,-0.05173,-0.01953,-0.00198,-0.03433,-0.0563,-0.00793,-0.00839,-0.01923,0.00748,0.02686,0.00076,-0.03571,-0.02014,-0.00931,-0.04791
3.4695,0.009,-0.06195,-0.02258,-0.0061,-0.03464,-0.05905,-0.00824,-0.00763,-0.01648,0.00137,0.03372,0.00107,-0.03586,-0.02029,-0.01266,-0.04807
3.47,0.00839,-0.06409,-0.02441,-0.01007,-0.03464,-0.06348,-0.01144,-0.00351,-0.01205,-0.0058,0.02228,0.00153,-0.03616,-0.01984,-0.01068,-0.04684
3.4705,0.00351,-0.0621,-0.02655,-0.00824,-0.03281,-0.06729,-0.01907,0.00229,-0.00824,-0.0148,0.00153,0.00183,-0.03479,-0.01892,-0.00702,-0.04532
3.471,-0.00534,-0.06165,-0.02808,0.00412,-0.0325,-0.06821,-0.02701,0.00641,-0.00656,-0.02563,-0.01526,0.00214,-0.03128,-0.0177,-0.00443,-0.04456
3.4715,-0.01205,-0.0647,-0.02914,0.02106,-0.03265,-0.06821,-0.03021,0.00824,-0.00641,-0.03342,-0.02853,0.00198,-0.02914,-0.01572,-0.00031,-0.04501
3.472,-0.01511,-0.06866,-0.0322,0.03204,-0.03311,-0.06943,-0.02731,0.00641,-0.00885,-0.03342,-0.04105,0.00259,-0.02884,-0.01465,0.00916,-0.04471
3.4725,-0.01556,-0.07034,-0.03555,0.03357,-0.03311,-0.07324,-0.02304,0.00122,-0.01282,-0.02548,-0.05325,0.0029,-0.02975,-0.01541,0.02487,-0.04303
3.473,-0.01465,-0.06821,-0.03586,0.03128,-0.03326,-0.07538,-0.01923,-0.00259,-0.01709,-0.01862,-0.05814,0.00275,-0.03098,-0.01694,0.03525,-0.04257
3.4735,-0.01389,-0.06332,-0.03098,0.03235,-0.0322,-0.07202,-0.01648,-0.00443,-0.01862,-0.01816,-0.05341,0.00305,-0.03159,-0.01648,0.03067,-0.04425
3.474,-0.01266,-0.06149,-0.02502,0.03357,-0.03143,-0.06363,-0.01495,-0.00549,-0.01709,-0.02151,-0.04395,0.00214,-0.03128,-0.01617,0.01862,-0.04517
3.4745,-0.01099,-0.0621,-0.02167,0.02472,-0.03098,-0.05234,-0.0116,-0.00702,-0.01572,-0.02396,-0.03326,0.00092,-0.03128,-0.01572,0.01266,-0.04501
3.475,-0.00946,-0.06302,-0.01999,0.00168,-0.03021,-0.04135,-0.00656,-0.00748,-0.01572,-0.02106,-0.02502,-0.00092,-0.0322,-0.01602,0.01511,-0.04257
3.4755,-0.01022,-0.06134,-0.02075,-0.02762,-0.03036,-0.03372,-0.00275,-0.00595,-0.01709,-0.01617,-0.01984,-0.00214,-0.03235,-0.01663,0.01755,-0.0412
3.476,-0.00931,-0.05951,-0.02258,-0.05188,-0.03128,-0.03265,-0.0029,-0.00488,-0.01694,-0.01068,-0.01877,-0.00092,-0.03204,-0.0177,0.01694,-0.04181
3.4765,-0.00626,-0.05859,-0.02716,-0.06531,-0.03082,-0.03479,-0.00381,-0.00473,-0.01511,-0.00595,-0.01984,0.00031,-0.03265,-0.01999,0.01541,-0.04318
3.477,-0.00107,-0.05844,-0.03082,-0.07019,-0.03052,-0.03815,-0.0029,-0.00427,-0.01205,-0.00305,-0.02258,0.00137,-0.03342,-0.02167,0.01633,-0.04379
3.4775,0.00214,-0.05753,-0.03113,-0.06927,-0.02975,-0.03723,-0.00198,-0.00259,-0.00946,-0.00656,-0.02457,0.00122,-0.03448,-0.02213,0.01801,-0.04379
3.478,0.0029,-0.05264,-0.02762,-0.06699,-0.03036,-0.03311,-0.00427,-0.00031,-0.01007,-0.01923,-0.02518,0.0,-0.03662,-0.02167,0.01709,-0.04395
3.4785,0.0029,-0.0473,-0.02441,-0.06409,-0.03128,-0.02747,-0.00961,0.00168,-0.01556,-0.03479,-0.02243,-0.00122,-0.03723,-0.02121,0.0174,-0.04745
3.479,0.00443,-0.04303,-0.02396,-0.05997,-0.0325,-0.02197,-0.01572,0.00351,-0.02228,-0.04471,-0.01465,-0.00244,-0.03571,-0.02075,0.01694,-0.0502
3.4795,0.0058,-0.04089,-0.02167,-0.04974,-0.03342,-0.01938,-0.01785,0.00412,-0.02594,-0.04288,-0.00275,-0.00412,-0.0354,-0.01907,0.01617,-0.04898
3.48,0.00488,-0.03891,-0.02151,-0.03235,-0.03387,-0.02197,-0.01648,0.00458,-0.02533,-0.03387,0.00534,-0.00336,-0.03555,-0.01846,0.01282,-0.04227
3.4805,0.00214,-0.03784,-0.03342,-0.01465,-0.03311,-0.03021,-0.01266,0.00519,-0.02258,-0.02594,0.00305,-0.00031,-0.0354,-0.01785,0.01144,-0.03555
3.481,-0.00015,-0.03784,-0.0769,-0.00565,-0.03281,-0.04135,-0.00824,0.00305,-0.02045,-0.02151,-0.00565,0.00504,-0.03403,-0.01785,0.01419,-0.03189
3.4815,-0.00122,-0.03723,-0.15106,-0.01038,-0.03235,-0.05295,-0.00778,-0.00168,-0.0177,-0.01541,-0.01205,0.00763,-0.03372,-0.01862,0.01907,-0.02777
3.482,-0.00183,-0.03723,-0.21164,-0.02625,-0.03189,-0.0647,-0.01312,-0.0061,-0.01572,-0.00916,-0.01373,0.00626,-0.0351,-0.01892,0.01984,-0.02365
3.4825,-0.00259,-0.03662,-0.19562,-0.0444,-0.03067,-0.07568,-0.01862,-0.00717,-0.01587,-0.00351,-0.01389,0.00336,-0.03571,-0.02014,0.01556,-0.02396
3.483,-0.00549,-0.03571,-0.09247,-0.05447,-0.03098,-0.08377,-0.01862,-0.00412,-0.01785,0.00015,-0.01755,0.00153,-0.03372,-0.02106,0.01022,-0.02853
3.4835,-0.00717,-0.03372,0.0383,-0.05325,-0.0322,-0.08881,-0.01419,-0.00031,-0.01846,0.00473,-0.02136,0.00061,-0.03189,-0.02228,0.00916,-0.03448
3.484,-0.0058,-0.03128,0.12161,-0.0444,-0.03159,-0.08957,-0.01083,0.00107,-0.01648,0.00916,-0.02151,0.00015,-0.03128,-0.02274,0.01038,-0.03784
3.4845,-0.00336,-0.0296,0.13824,-0.02747,-0.02945,-0.08591,-0.01251,-0.00107,-0.01251,0.00809,-0.01862,0.00076,-0.03265,-0.02151,0.00977,-0.04135
3.485,-0.0032,-0.03006,0.11765,0.00473,-0.0267,-0.07751,-0.01678,-0.00397,-0.00992,0.00397,-0.01663,0.00275,-0.03357,-0.01999,0.00504,-0.04578
3.4855,-0.00595,-0.03403,0.09247,0.04608,-0.02731,-0.06638,-0.01984,-0.00443,-0.00992,0.00076,-0.01541,0.00488,-0.03387,-0.01923,0.00076,-0.05234
3.486,-0.00732,-0.03952,0.06653,0.07065,-0.02838,-0.05524,-0.01816,-0.00259,-0.01282,0.00244,-0.01404,0.00519,-0.03281,-0.01907,0.00031,-0.06042
3.4865,-0.00427,-0.04456,0.03891,0.0618,-0.02853,-0.04761,-0.01465,0.00015,-0.01724,0.00763,-0.01297,0.00259,-0.03235,-0.01862,-0.00076,-0.06805
3.487,0.00153,-0.04227,0.01068,0.03143,-0.02777,-0.04364,-0.0119,0.00305,-0.02075,0.00961,-0.01022,-0.00122,-0.03235,-0.01785,-0.00626,-0.0705
3.4875,0.0061,-0.03647,-0.00946,0.00092,-0.02762,-0.04105,-0.01129,0.00473,-0.02136,0.0029,-0.00778,-0.00122,-0.03281,-0.01785,-0.01053,-0.06439
3.488,0.00595,-0.02975,-0.02243,-0.01816,-0.02747,-0.03906,-0.01205,0.00397,-0.02014,-0.00793,-0.00671,0.00015,-0.03326,-0.01938,-0.00778,-0.05417
3.4885,0.0032,-0.02365,-0.03494,-0.0296,-0.02838,-0.03799,-0.01419,0.00122,-0.01831,-0.01724,-0.00809,0.00183,-0.03342,-0.0206,-0.00076,-0.04883
3.489,0.00137,-0.01755,-0.05173,-0.03525,-0.03067,-0.03799,-0.01678,-0.00198,-0.01694,-0.01984,-0.01038,0.00153,-0.03418,-0.01999,0.00702,-0.04868
3.4895,0.00046,-0.01221,-0.06821,-0.02975,-0.03189,-0.03769,-0.01816,-0.00153,-0.01312,-0.01801,-0.01282,0.00122,-0.03357,-0.01877,0.01068,-0.04593
3.49,-0.00137,-0.01022,-0.07675,-0.009,-0.03098,-0.03799,-0.01572,-0.00061,-0.00671,-0.01541,-0.0177,0.00153,-0.03143,-0.01801,0.01129,-0.03922
3.4905,-0.00687,-0.0148,-0.07797,0.01572,-0.02899,-0.03983,-0.01038,-0.0029,-0.00015,-0.01297,-0.02548,0.00198,-0.02945,-0.01862,0.00931,-0.03342
3.491,-0.01633,-0.0209,-0.07111,0.0267,-0.02899,-0.0412,-0.00748,-0.00687,0.00504,-0.01282,-0.03098,0.00168,-0.02838,-0.01846,0.00641,-0.03128
3.4915,-0.02747,-0.0238,-0.05997,0.02274,-0.02899,-0.03998,-0.0119,-0.00931,0.00931,-0.01755,-0.02457,0.00046,-0.02884,-0.01724,0.00458,-0.03387
3.492,-0.03845,-0.02258,-0.04456,0.01663,-0.0264,-0.0386,-0.01984,-0.00931,0.01328,-0.02808,-0.0061,-0.00107,-0.02899,-0.01602,0.00244,-0.03891
3.4925,-0.04364,-0.02106,-0.03586,0.00992,-0.02441,-0.03815,-0.02686,-0.00702,0.01419,-0.0412,0.0119,-0.00229,-0.02991,-0.01694,0.00183,-0.0444
3.493,-0.04135,-0.02441,-0.03769,-0.0058,-0.02441,-0.03799,-0.0293,-0.00305,0.0119,-0.04929,0.01495,-0.00488,-0.03036,-0.01755,0.00092,-0.04913
3.4935,-0.03525,-0.03006,-0.04303,-0.02686,-0.0264,-0.03571,-0.02792,-0.00046,0.00946,-0.04654,0.0032,-0.00778,-0.03113,-0.01633,0.00214,-0.0499
3.494,-0.03098,-0.03326,-0.04318,-0.03357,-0.02899,-0.03204,-0.02167,-0.00031,0.00931,-0.03647,-0.00885,-0.00916,-0.03082,-0.01434,0.00366,-0.04715
3.4945,-0.03036,-0.03143,-0.03845,-0.01678,-0.02869,-0.03052,-0.01434,-0.00381,0.00977,-0.02441,-0.01221,-0.00977,-0.03052,-0.01343,0.00549,-0.04349
3.495,-0.02899,-0.02762,-0.03571,0.01282,-0.02747,-0.03342,-0.01083,-0.00839,0.00641,-0.01434,-0.00977,-0.00793,-0.03174,-0.01511,0.00702,-0.04227
3.4955,-0.02319,-0.02716,-0.04028,0.04044,-0.02609,-0.03769,-0.01007,-0.01343,-0.00198,-0.009,-0.00854,-0.00458,-0.03418,-0.01724,0.0087,-0.04242
3.496,-0.01556,-0.03342,-0.04715,0.05234,-0.02533,-0.03754,-0.00931,-0.0174,-0.01129,-0.00626,-0.00778,-0.00198,-0.03693,-0.01892,0.01175,-0.04196
3.4965,-0.00793,-0.04578,-0.05081,0.03616,-0.02533,-0.0325,-0.00732,-0.0174,-0.01816,-0.00549,-0.00626,-0.00198,-0.03723,-0.01923,0.01373,-0.04013
3.497,-0.00107,-0.05905,-0.05188,-0.00397,-0.02655,-0.02304,-0.00671,-0.01373,-0.0206,-0.00793,-0.00397,-0.0029,-0.03632,-0.01877,0.01236,-0.03906
3.4975,0.00595,-0.06744,-0.0531,-0.04578,-0.02518,-0.0119,-0.009,-0.00793,-0.02213,-0.01312,-0.00305,-0.00427,-0.03601,-0.01953,0.00885,-0.03952
3.498,0.01236,-0.06729,-0.05615,-0.07599,-0.02472,-0.00305,-0.01053,-0.00397,-0.02411,-0.01816,-0.00351,-0.00427,-0.03586,-0.02045,0.00549,-0.0415
3.4985,0.01648,-0.06104,-0.05737,-0.10361,-0.0238,0.00046,-0.01144,-0.00305,-0.02899,-0.02213,-0.00443,-0.00458,-0.03616,-0.02106,0.00366,-0.04379
3.499,0.01831,-0.05417,-0.05402,-0.13977,-0.0238,0.00076,-0.01205,-0.00351,-0.0322,-0.02502,-0.00778,-0.00687,-0.03693,-0.02106,0.00275,-0.04456
3.4995,0.01862,-0.0499,-0.04776,-0.17441,-0.02426,0.0032,-0.0119,-0.00275,-0.02975,-0.03098,-0.0145,-0.01007,-0.03601,-0.02167,0.00168,-0.04288
3.5,0.0174,-0.04654,-0.04211,-0.16785,-0.02533,0.00626,-0.01114,-0.00092,-0.02518,-0.03784,-0.0206,-0.01114,-0.03464,-0.02136,0.00168,-0.04105
3.5005,0.01312,-0.04379,-0.03876,-0.06683,-0.02625,0.00641,-0.00961,-0.00031,-0.02167,-0.04379,-0.02243,-0.01038,-0.03403,-0.02014,0.00275,-0.04074
3.501,0.00702,-0.04181,-0.03708,0.13977,-0.02686,0.00107,-0.0087,0.00061,-0.01923,-0.047,-0.01877,-0.00748,-0.03342,-0.01907,0.00732,-0.04013
3.5015,0.00183,-0.04013,-0.03525,0.35492,-0.02747,-0.00946,-0.00626,0.00351,-0.01389,-0.04684,-0.01495,-0.00244,-0.03357,-0.0177,0.01358,-0.03662
3.502,-0.00076,-0.03876,-0.03357,0.4332,-0.02853,-0.02365,-0.00336,0.00839,-0.00656,-0.04669,-0.01358,0.00214,-0.03433,-0.0174,0.0174,-0.03281
3.5025,-0.00259,-0.03693,-0.03021,0.34058,-0.0325,-0.04562,-0.00519,0.00931,-0.00046,-0.04776,-0.01419,0.00366,-0.03387,-0.01785,0.01801,-0.03006
3.503,-0.00504,-0.03433,-0.02396,0.1918,-0.03586,-0.07385,-0.01465,0.00641,0.00275,-0.04852,-0.01526,0.0029,-0.03281,-0.01862,0.01816,-0.03067
3.5035,-0.00702,-0.03265,-0.01633,0.0975,-0.03876,-0.10208,-0.02625,0.00168,0.00336,-0.04807,-0.01526,0.00092,-0.03189,-0.02014,0.01938,-0.0325
3.504,-0.00687,-0.03281,-0.0116,0.0563,-0.03983,-0.12405,-0.03296,-0.00244,0.00687,-0.04944,-0.0145,0.00046,-0.03082,-0.02136,0.0206,-0.03387
3.5045,-0.0061,-0.03372,-0.01251,0.0177,-0.04028,-0.13397,-0.03143,-0.00809,0.01373,-0.05096,-0.01266,0.00046,-0.03082,-0.01953,0.0209,-0.0322
3.505,-0.0058,-0.03494,-0.01724,-0.02869,-0.03876,-0.13,-0.0264,-0.01755,0.01923,-0.05127,-0.01083,0.00107,-0.03174,-0.01755,0.02167,-0.02792
3.5055,-0.00397,-0.0354,-0.0235,-0.05905,-0.03632,-0.11505,-0.02167,-0.02487,0.02106,-0.0473,-0.00916,0.00183,-0.03281,-0.01572,0.01953,-0.0238
3.506,0.00031,-0.03723,-0.02899,-0.07126,-0.03555,-0.10147,-0.01923,-0.02396,0.01755,-0.04196,-0.00748,0.0029,-0.03296,-0.01495,0.01602,-0.02594
3.5065,0.00473,-0.03922,-0.03174,-0.08102,-0.03525,-0.09918,-0.01907,-0.01556,0.01251,-0.03723,-0.00488,0.00275,-0.03265,-0.01572,0.00824,-0.03784
3.507,0.0058,-0.0415,-0.03281,-0.09811,-0.0383,-0.10513,-0.01709,-0.00595,0.00885,-0.03342,-0.00122,0.00214,-0.03204,-0.01572,-0.00076,-0.05112
3.5075,0.00412,-0.04349,-0.03403,-0.11429,-0.03922,-0.10605,-0.01495,-0.00107,0.00809,-0.0293,0.00122,0.00031,-0.0322,-0.01541,-0.00839,-0.05539
3.508,0.00244,-0.04425,-0.03647,-0.11444,-0.03693,-0.09766,-0.0119,-0.00122,0.00839,-0.02487,0.0029,-0.00107,-0.03235,-0.0148,-0.009,-0.04913
3.5085,0.00168,-0.04395,-0.04044,-0.09476,-0.03265,-0.08575,-0.01083,-0.00351,0.00641,-0.02182,0.00381,-0.00183,-0.03204,-0.01541,-0.00412,-0.03952
3.509,0.00046,-0.04288,-0.04471,-0.0708,-0.03082,-0.07874,-0.01328,-0.00534,0.00259,-0.02121,0.00229,-0.00153,-0.03372,-0.01633,0.00244,-0.03433
3.5095,-0.00198,-0.04272,-0.04883,-0.05859,-0.03052,-0.07874,-0.01785,-0.00488,-0.00092,-0.02396,-0.00305,0.0,-0.03555,-0.01587,0.00488,-0.03403
3.51,-0.00641,-0.04517,-0.05066,-0.05646,-0.03052,-0.07874,-0.01923,-0.0029,-0.00595,-0.02731,-0.00992,0.00122,-0.03586,-0.01495,0.00443,-0.0351
3.5105,-0.01068,-0.0473,-0.04791,-0.04868,-0.03006,-0.07263,-0.01511,-0.00031,-0.01266,-0.02838,-0.01511,0.00183,-0.03357,-0.01556,0.00153,-0.03815
3.511,-0.01343,-0.0499,-0.04089,-0.02823,-0.02991,-0.06088,-0.01083,0.00275,-0.02106,-0.02487,-0.01831,0.00092,-0.03159,-0.0177,0.00198,-0.04166
3.5115,-0.01221,-0.05096,-0.03204,-0.00504,-0.03036,-0.05051,-0.01083,0.00366,-0.02838,-0.01709,-0.02213,0.00015,-0.03052,-0.01968,0.0058,-0.04532
3.512,-0.00946,-0.05142,-0.02441,0.01129,-0.0322,-0.04456,-0.01312,-0.00015,-0.03311,-0.01129,-0.02869,0.00092,-0.03174,-0.01907,0.01007,-0.04837
3.5125,-0.0058,-0.05005,-0.01907,0.01923,-0.03311,-0.04211,-0.01633,-0.00534,-0.03662,-0.009,-0.03647,0.00305,-0.03204,-0.01877,0.0116,-0.0499
3.513,-0.00137,-0.04471,-0.01801,0.02274,-0.03281,-0.04028,-0.01587,-0.00702,-0.03815,-0.01022,-0.04074,0.00397,-0.03204,-0.01907,0.01175,-0.05005
3.5135,0.00229,-0.03387,-0.02029,0.02747,-0.03159,-0.03983,-0.01175,-0.00488,-0.03418,-0.00961,-0.04013,0.00259,-0.03189,-0.01892,0.01282,-0.04852
3.514,0.00275,-0.01862,-0.02197,0.0351,-0.03265,-0.03998,-0.0087,-0.00244,-0.02609,-0.00534,-0.03464,0.00046,-0.03143,-0.01938,0.01328,-0.04562
3.5145,0.0,-0.00748,-0.02594,0.03845,-0.03479,-0.03754,-0.00946,-0.00214,-0.01617,-0.00046,-0.02594,-0.00046,-0.03143,-0.02029,0.01251,-0.04318
3.515,-0.00381,-0.00748,-0.03189,0.02518,-0.0354,-0.03372,-0.01236,-0.00229,-0.00916,0.00198,-0.01801,0.00122,-0.03113,-0.02029,0.01114,-0.04242
3.5155,-0.00671,-0.01694,-0.03723,-0.00793,-0.03387,-0.03113,-0.01404,-0.00198,-0.00397,0.00015,-0.01282,0.00214,-0.03082,-0.0206,0.01007,-0.04227
3.516,-0.00824,-0.02777,-0.0386,-0.04807,-0.0325,-0.03189,-0.01389,-0.00137,-0.00168,-0.00595,-0.01144,0.00061,-0.0293,-0.0206,0.00916,-0.04135
3.5165,-0.00961,-0.0354,-0.03372,-0.07935,-0.03342,-0.0354,-0.01297,-0.00015,-0.00198,-0.01068,-0.01495,-0.00092,-0.02838,-0.0209,0.00824,-0.04028
3.517,-0.0087,-0.04105,-0.02701,-0.0972,-0.03387,-0.03769,-0.01312,0.00107,-0.0061,-0.00977,-0.02457,-0.00092,-0.02792,-0.02029,0.00809,-0.04028
3.5175,-0.00656,-0.04517,-0.02411,-0.10666,-0.03357,-0.03769,-0.01389,0.00153,-0.0119,-0.00443,-0.0351,0.00015,-0.03006,-0.01907,0.00992,-0.03998
3.518,-0.00534,-0.04639,-0.0322,-0.11032,-0.03311,-0.03494,-0.01389,0.00092,-0.01434,0.00153,-0.03906,0.00107,-0.03189,-0.01846,0.0119,-0.03876
3.5185,-0.00595,-0.04501,-0.04684,-0.11063,-0.03281,-0.03296,-0.01358,-0.00061,-0.01328,0.00366,-0.03357,0.00076,-0.0322,-0.01938,0.01114,-0.03769
3.519,-0.00671,-0.04379,-0.06226,-0.10956,-0.03296,-0.0325,-0.01343,-0.00305,-0.01068,0.00427,-0.02319,0.00153,-0.03113,-0.02029,0.00885,-0.03799
3.5195,-0.00717,-0.04364,-0.07278,-0.10971,-0.03265,-0.03326,-0.01373,-0.0032,-0.00763,0.00778,-0.01343,0.0032,-0.03113,-0.01892,0.00595,-0.04105
3.52,-0.0058,-0.04654,-0.07477,-0.10452,-0.03174,-0.03174,-0.01236,-0.00153,-0.0058,0.01373,-0.00473,0.00381,-0.03265,-0.01709,0.00549,-0.04456
3.5205,-0.0061,-0.0499,-0.07233,-0.08392,-0.03128,-0.02991,-0.01114,0.00092,-0.00626,0.02029,0.0029,0.00427,-0.03265,-0.01785,0.00626,-0.04517
3.521,-0.0058,-0.05203,-0.06577,-0.04944,-0.03204,-0.02945,-0.01144,0.00275,-0.00732,0.02228,0.00671,0.00336,-0.03006,-0.01846,0.00854,-0.04333
3.5215,-0.00458,-0.056,-0.05951,-0.01877,-0.0322,-0.03281,-0.01312,0.00366,-0.00504,0.01907,0.00748,0.00229,-0.02686,-0.0177,0.00931,-0.04044
3.522,-0.00351,-0.06363,-0.05341,-0.00946,-0.0322,-0.03632,-0.01358,0.00412,0.00107,0.01144,0.00549,0.00122,-0.0267,-0.01816,0.0087,-0.03922
3.5225,-0.00458,-0.07172,-0.04776,-0.02167,-0.03189,-0.03677,-0.01129,0.0029,0.00671,0.00351,0.00351,-0.00107,-0.02945,-0.01938,0.00732,-0.04044
3.523,-0.00656,-0.07187,-0.04242,-0.03601,-0.03296,-0.03448,-0.009,0.00107,0.00732,-0.00122,0.00504,-0.00275,-0.03265,-0.0206,0.00641,-0.04135
3.5235,-0.00702,-0.06317,-0.03891,-0.03662,-0.03464,-0.03326,-0.00946,-0.00092,0.00153,-0.00214,0.00687,-0.00229,-0.03418,-0.0206,0.00412,-0.04181
3.524,-0.0058,-0.05096,-0.04532,-0.0264,-0.03464,-0.03418,-0.01099,-0.00275,-0.00504,-0.0029,0.00504,-0.00107,-0.03525,-0.01846,0.00381,-0.04166
3.5245,-0.00412,-0.04227,-0.06958,-0.01831,-0.03464,-0.03738,-0.01175,-0.00381,-0.00778,-0.00519,-0.00168,-0.00061,-0.03586,-0.01724,0.00427,-0.04166
3.525,-0.00351,-0.03876,-0.10315,-0.01709,-0.03311,-0.04044,-0.01297,-0.00504,-0.00824,-0.00839,-0.00687,-0.00107,-0.03586,-0.0177,0.00549,-0.04089
3.5255,-0.0029,-0.0383,-0.12299,-0.01968,-0.03189,-0.04028,-0.01556,-0.00732,-0.00946,-0.01114,-0.00641,-0.00122,-0.03357,-0.01877,0.00641,-0.03906
3.526,0.00046,-0.03647,-0.11063,-0.02686,-0.03189,-0.0383,-0.0177,-0.01068,-0.0119,-0.01282,-0.00244,-0.00122,-0.03265,-0.01892,0.00717,-0.03815
3.5265,0.00488,-0.03326,-0.07446,-0.03799,-0.03159,-0.03662,-0.01801,-0.0119,-0.01343,-0.01511,0.00046,-0.00122,-0.03235,-0.0174,0.00809,-0.0386
3.527,0.00626,-0.03006,-0.03571,-0.04913,-0.0325,-0.03784,-0.01633,-0.01099,-0.01251,-0.01816,0.00183,-0.00214,-0.03281,-0.01648,0.0087,-0.03937
3.5275,0.00198,-0.02777,-0.009,-0.05188,-0.03204,-0.04044,-0.01541,-0.00977,-0.0116,-0.02213,0.00107,-0.00229,-0.03372,-0.01602,0.0087,-0.0412
3.528,-0.00366,-0.02502,0.0061,-0.04395,-0.03159,-0.04181,-0.01602,-0.00839,-0.01236,-0.02747,-0.00244,-0.00183,-0.03632,-0.01785,0.00839,-0.04303
3.5285,-0.00717,-0.01999,0.01358,-0.02579,-0.03067,-0.04227,-0.0177,-0.0061,-0.01434,-0.0322,-0.00519,-0.00153,-0.03815,-0.01862,0.00916,-0.04425
3.529,-0.0058,-0.01251,0.01755,0.00214,-0.03113,-0.0412,-0.01923,-0.00412,-0.01678,-0.03784,-0.00809,-0.00076,-0.03769,-0.01923,0.01129,-0.04349
3.5295,-0.00107,-0.00687,0.01984,0.03616,-0.03143,-0.03998,-0.01877,-0.0032,-0.01923,-0.04395,-0.00946,0.00076,-0.03418,-0.01801,0.01419,-0.04044
3.53,0.00427,-0.00916,0.01862,0.06668,-0.03006,-0.03815,-0.01465,-0.00214,-0.02167,-0.04807,-0.01068,0.00183,-0.03143,-0.01709,0.01404,-0.03754
3.5305,0.00763,-0.01923,0.01297,0.08179,-0.0293,-0.03677,-0.00961,0.00046,-0.02304,-0.04959,-0.01022,0.00259,-0.0293,-0.01785,0.01389,-0.03708
3.531,0.00778,-0.0322,0.00183,0.07172,-0.02991,-0.03708,-0.01007,0.0032,-0.02396,-0.05096,-0.01022,0.00366,-0.02884,-0.02136,0.01328,-0.03769
3.5315,0.00641,-0.04288,-0.01236,0.03967,-0.02884,-0.03922,-0.01465,0.00275,-0.02457,-0.0528,-0.01038,0.00412,-0.0296,-0.02289,0.01266,-0.03815
3.532,0.00458,-0.05096,-0.03052,0.00183,-0.02853,-0.0412,-0.01877,0.00031,-0.02563,-0.05478,-0.01007,0.00427,-0.02991,-0.02167,0.0119,-0.0386
3.5325,0.0032,-0.05737,-0.04257,-0.01877,-0.02808,-0.04181,-0.01785,-0.00137,-0.02731,-0.05447,-0.00824,0.00427,-0.03113,-0.01999,0.01007,-0.04044
3.533,0.00015,-0.06165,-0.04501,-0.02167,-0.02853,-0.04364,-0.01434,-0.00198,-0.03036,-0.05234,-0.00412,0.00305,-0.0325,-0.02014,0.00778,-0.04181
3.5335,-0.00748,-0.06302,-0.03784,-0.01999,-0.02945,-0.04486,-0.01068,-0.00092,-0.03464,-0.05219,-0.00259,0.00259,-0.03403,-0.02304,0.00534,-0.04318
3.534,-0.01709,-0.06348,-0.02777,-0.02762,-0.03067,-0.04578,-0.00961,-0.00031,-0.03662,-0.05432,-0.00671,0.00214,-0.03586,-0.02533,0.00504,-0.04257
3.5345,-0.02487,-0.06485,-0.01862,-0.04883,-0.03204,-0.04654,-0.009,-0.00046,-0.03601,-0.05737,-0.01328,0.00137,-0.03632,-0.02548,0.00595,-0.04303
3.535,-0.02838,-0.06851,-0.01526,-0.08301,-0.03311,-0.047,-0.00824,-0.00229,-0.03204,-0.05875,-0.01785,0.00061,-0.03662,-0.02533,0.00626,-0.04425
3.5355,-0.02548,-0.07263,-0.01831,-0.12161,-0.03357,-0.047,-0.01038,-0.00427,-0.02991,-0.0528,-0.01724,0.00153,-0.03754,-0.02563,0.00565,-0.04425
3.536,-0.01633,-0.07309,-0.0238,-0.14374,-0.03342,-0.04639,-0.0145,-0.00504,-0.0296,-0.04181,-0.01556,0.00427,-0.03784,-0.02548,0.00519,-0.04379
3.5365,-0.0032,-0.07034,-0.03021,-0.12756,-0.03143,-0.04684,-0.0177,-0.00671,-0.03021,-0.03143,-0.0145,0.00748,-0.03632,-0.0238,0.00656,-0.04425
3.537,0.00671,-0.06577,-0.03677,-0.06882,-0.03082,-0.04776,-0.01801,-0.00885,-0.03159,-0.02426,-0.01633,0.00763,-0.0354,-0.02045,0.00763,-0.04456
3.5375,0.01007,-0.06424,-0.04105,0.01602,-0.03082,-0.04837,-0.01587,-0.00916,-0.03372,-0.0174,-0.0209,0.00504,-0.0354,-0.01801,0.00748,-0.04486
3.538,0.009,-0.06577,-0.04288,0.09659,-0.03143,-0.04761,-0.01373,-0.00793,-0.03586,-0.00763,-0.02563,0.00259,-0.03555,-0.01694,0.0061,-0.04333
3.5385,0.0087,-0.06531,-0.04166,0.15182,-0.03082,-0.04669,-0.0116,-0.00717,-0.03159,0.00748,-0.02884,0.00137,-0.0351,-0.01846,0.00702,-0.04272
3.539,0.00992,-0.06073,-0.03845,0.17899,-0.03036,-0.047,-0.00885,-0.00641,-0.0206,0.02625,-0.03128,0.00076,-0.0354,-0.01984,0.00992,-0.04425
3.5395,0.0119,-0.05219,-0.03586,0.18448,-0.03006,-0.04837,-0.00519,-0.00458,-0.01282,0.04089,-0.03174,0.0,-0.03662,-0.02106,0.01068,-0.04471
3.54,0.01266,-0.04501,-0.03296,0.16479,-0.03021,-0.0502,-0.00397,-0.00275,-0.01236,0.04669,-0.03128,-0.00031,-0.03632,-0.02075,0.00977,-0.04364
3.5405,0.01022,-0.04013,-0.02823,0.11475,-0.03021,-0.05341,-0.00671,-0.00198,-0.01389,0.04379,-0.0296,0.0,-0.03555,-0.01862,0.00793,-0.04196
3.541,0.00717,-0.03662,-0.02319,0.04715,-0.02914,-0.0563,-0.01328,-0.00198,-0.01205,0.03571,-0.03006,-0.00015,-0.03387,-0.01633,0.00748,-0.04196
3.5415,0.00381,-0.03265,-0.01816,-0.01373,-0.02716,-0.05676,-0.01907,-0.00107,-0.00931,0.02914,-0.0293,-0.00061,-0.03265,-0.01495,0.00778,-0.04425
3.542,0.00061,-0.0296,-0.0145,-0.05234,-0.02533,-0.056,-0.02243,0.00046,-0.01572,0.02502,-0.02655,-0.00061,-0.03174,-0.01587,0.00748,-0.04608
3.5425,-0.00122,-0.02991,-0.01663,-0.06577,-0.02655,-0.05341,-0.02136,0.00259,-0.03067,0.02182,-0.02274,0.0,-0.03204,-0.01617,0.0087,-0.04578
3.543,-0.00183,-0.03326,-0.02243,-0.0592,-0.02838,-0.05188,-0.0177,0.00565,-0.04395,0.01526,-0.02045,0.00046,-0.03143,-0.01648,0.01022,-0.04303
3.5435,-0.00244,-0.03601,-0.02762,-0.0415,-0.03082,-0.05066,-0.01495,0.00824,-0.04944,0.00412,-0.02014,0.00015,-0.03021,-0.01663,0.00992,-0.04089
3.544,-0.00473,-0.03723,-0.03021,-0.02625,-0.03067,-0.0499,-0.01312,0.0087,-0.04745,-0.00778,-0.01938,-0.00198,-0.02853,-0.01694,0.0116,-0.04181
3.5445,-0.00488,-0.03784,-0.03326,-0.0235,-0.02899,-0.04898,-0.01358,0.00748,-0.04395,-0.01801,-0.01755,-0.00259,-0.02869,-0.01694,0.0119,-0.04395
3.545,-0.00305,-0.0386,-0.04074,-0.03616,-0.02838,-0.04852,-0.0145,0.0029,-0.04242,-0.02731,-0.0174,-0.00305,-0.03036,-0.01602,0.01114,-0.04486
3.5455,0.00229,-0.04074,-0.04868,-0.0528,-0.02838,-0.04807,-0.01556,-0.00305,-0.04044,-0.03464,-0.01755,-0.00259,-0.03265,-0.01572,0.00793,-0.04379
3.546,0.00778,-0.04364,-0.05127,-0.05707,-0.02869,-0.0473,-0.0177,-0.01221,-0.03723,-0.04044,-0.01419,-0.00092,-0.03357,-0.01587,0.00565,-0.04349
3.5465,0.0087,-0.04608,-0.04593,-0.04318,-0.02655,-0.04868,-0.01892,-0.02121,-0.03082,-0.04333,-0.01221,0.00122,-0.03342,-0.01602,0.00534,-0.04471
3.547,0.00504,-0.04517,-0.03784,-0.01556,-0.02533,-0.05112,-0.01785,-0.02533,-0.02502,-0.0441,-0.01099,0.00275,-0.0325,-0.01633,0.0058,-0.0444
3.5475,-0.00137,-0.04013,-0.03174,0.01312,-0.02609,-0.05386,-0.01617,-0.02228,-0.01862,-0.04486,-0.01175,0.0029,-0.03143,-0.01694,0.00549,-0.04181
3.548,-0.009,-0.03418,-0.02975,0.0296,-0.02914,-0.056,-0.01495,-0.01602,-0.01419,-0.04883,-0.00809,0.0029,-0.02991,-0.01724,0.00473,-0.03937
3.5485,-0.0145,-0.02991,-0.03113,0.02747,-0.03113,-0.05753,-0.01572,-0.00977,-0.01389,-0.05356,0.00214,0.0032,-0.02945,-0.01801,0.00336,-0.0383
3.549,-0.01633,-0.02808,-0.03723,0.01709,-0.03113,-0.05936,-0.01572,-0.00641,-0.01785,-0.05569,0.01236,0.00153,-0.03036,-0.01816,0.00259,-0.03906
3.5495,-0.01373,-0.02716,-0.04761,0.01266,-0.02991,-0.05981,-0.01511,-0.00473,-0.02182,-0.05432,0.01358,0.00076,-0.03128,-0.01633,0.0032,-0.03845
3.55,-0.01038,-0.02686,-0.05844,0.01846,-0.0296,-0.05844,-0.01251,-0.00412,-0.02426,-0.0502,0.00381,0.00214,-0.03113,-0.0148,0.00504,-0.0351
3.5505,-0.01038,-0.02838,-0.06409,0.02441,-0.02884,-0.05325,-0.01083,-0.0029,-0.02594,-0.04578,-0.00763,0.00488,-0.0296,-0.01572,0.00687,-0.03296
3.551,-0.01434,-0.03143,-0.06653,0.0177,-0.02899,-0.047,-0.01068,0.00015,-0.02701,-0.04166,-0.01236,0.00595,-0.02914,-0.01877,0.00809,-0.03403
3.5515,-0.01785,-0.03494,-0.06424,-0.00702,-0.0293,-0.04196,-0.01129,0.00244,-0.02975,-0.03616,-0.00854,0.00427,-0.0293,-0.0206,0.00961,-0.03738
3.552,-0.01801,-0.03632,-0.05478,-0.04791,-0.02899,-0.03815,-0.01175,0.00244,-0.03143,-0.02655,-0.0058,0.00153,-0.0296,-0.02121,0.00931,-0.03998
3.5525,-0.01205,-0.03738,-0.0412,-0.09506,-0.03021,-0.03571,-0.01312,0.00031,-0.03113,-0.01526,-0.00977,0.00092,-0.02975,-0.02182,0.00885,-0.04074
3.553,-0.00412,-0.03845,-0.03143,-0.13336,-0.03067,-0.03342,-0.01419,-0.00259,-0.02731,-0.00732,-0.01785,0.00168,-0.03006,-0.02274,0.00687,-0.03967
3.5535,0.00381,-0.04044,-0.02975,-0.15259,-0.03052,-0.03159,-0.01495,-0.00397,-0.02075,-0.00687,-0.02426,0.00244,-0.03113,-0.02365,0.00626,-0.04074
3.554,0.00732,-0.04318,-0.03418,-0.14496,-0.0296,-0.02838,-0.01663,-0.00488,-0.01389,-0.01297,-0.02594,0.0029,-0.03098,-0.0235,0.00763,-0.04288
3.5545,0.00595,-0.04456,-0.05127,-0.10513,-0.02945,-0.02701,-0.01648,-0.00504,-0.01068,-0.01816,-0.02975,0.00198,-0.03128,-0.02243,0.00885,-0.04471
3.555,0.00275,-0.04501,-0.09109,-0.01114,-0.0296,-0.03525,-0.01526,-0.00397,-0.01129,-0.01907,-0.03754,-0.00031,-0.03143,-0.02182,0.00961,-0.04456
3.5555,0.00107,-0.0441,-0.13779,0.17136,-0.03128,-0.05371,-0.01282,-0.00183,-0.01251,-0.01678,-0.04486,-0.0032,-0.03174,-0.02182,0.00763,-0.04364
3.556,0.00122,-0.04211,-0.14511,0.40237,-0.03204,-0.07294,-0.01083,0.00061,-0.01282,-0.01419,-0.04807,-0.00381,-0.03113,-0.02151,0.00809,-0.04272
3.5565,0.00275,-0.03998,-0.08881,0.52292,-0.0325,-0.08133,-0.01053,0.00122,-0.01389,-0.01175,-0.04761,-0.00137,-0.02975,-0.0209,0.01083,-0.0415
3.557,0.00458,-0.03769,-0.00214,0.41,-0.03113,-0.07294,-0.01144,0.00046,-0.01587,-0.00824,-0.04745,0.00229,-0.02899,-0.01953,0.01389,-0.03967
3.5575,0.00473,-0.03693,0.06271,0.14435,-0.03006,-0.05661,-0.01282,-0.00015,-0.01404,-0.00198,-0.04364,0.00427,-0.02777,-0.01755,0.01328,-0.0383
3.558,0.00381,-0.03738,0.0824,-0.07477,-0.0296,-0.04379,-0.01434,-0.00061,-0.00854,0.00137,-0.03326,0.00229,-0.02716,-0.01678,0.01053,-0.03799
3.5585,0.00107,-0.03799,0.07401,-0.1593,-0.02975,-0.03937,-0.01556,-0.00122,-0.00366,-0.00061,-0.02029,-0.00076,-0.02625,-0.01678,0.00854,-0.03906
3.559,-0.00046,-0.03647,0.05585,-0.17273,-0.03052,-0.04044,-0.0148,-0.00244,-0.00229,-0.00778,-0.01175,-0.00153,-0.02594,-0.01678,0.00916,-0.04028
3.5595,0.00107,-0.03296,0.03967,-0.17685,-0.03021,-0.04395,-0.01328,-0.00397,-0.00366,-0.01587,-0.01022,0.0,-0.02686,-0.01541,0.01038,-0.04074
3.56,0.00626,-0.02609,0.02106,-0.14954,-0.02914,-0.04959,-0.01282,-0.00488,-0.00229,-0.01953,-0.01053,0.00214,-0.02747,-0.01434,0.01068,-0.04059
3.5605,0.0116,-0.02014,0.0,-0.06821,-0.02701,-0.05478,-0.01358,-0.00549,0.00122,-0.01755,-0.00854,0.00305,-0.02731,-0.01358,0.01114,-0.0415
3.561,0.01373,-0.01999,-0.01694,0.01221,-0.02792,-0.0563,-0.0145,-0.00549,0.00366,-0.01373,-0.00565,0.00229,-0.02747,-0.01373,0.01099,-0.04303
3.5615,0.00946,-0.02396,-0.02838,0.01907,-0.0296,-0.05585,-0.01389,-0.00397,0.0029,-0.01007,-0.00229,0.00229,-0.0293,-0.01358,0.01099,-0.04318
3.562,0.00214,-0.02808,-0.03372,-0.04089,-0.03036,-0.05829,-0.01389,-0.0029,-0.00061,-0.00732,0.00275,0.00198,-0.0322,-0.01266,0.00916,-0.04166
3.5625,-0.00458,-0.02884,-0.03967,-0.09674,-0.03036,-0.06424,-0.0148,-0.00336,-0.00427,-0.00549,0.01587,0.00153,-0.03387,-0.01266,0.00732,-0.04318
3.563,-0.00549,-0.02869,-0.05249,-0.10132,-0.03113,-0.06714,-0.01648,-0.00534,-0.00595,-0.00641,0.03647,-0.00061,-0.03372,-0.01389,0.00671,-0.04639
3.5635,-0.00214,-0.03098,-0.07553,-0.07126,-0.03357,-0.06454,-0.01678,-0.00732,-0.00519,-0.00854,0.05112,-0.00275,-0.0322,-0.01572,0.00671,-0.04791
3.564,0.00107,-0.03647,-0.10361,-0.0441,-0.03525,-0.0592,-0.01709,-0.00793,-0.00381,-0.01251,0.04379,-0.00259,-0.02991,-0.01648,0.00778,-0.04593
3.5645,0.00015,-0.04181,-0.12009,-0.03143,-0.03555,-0.05753,-0.01526,-0.00793,-0.00275,-0.01816,0.01862,0.00092,-0.02869,-0.01678,0.00824,-0.04257
3.565,-0.00259,-0.04364,-0.1062,-0.02518,-0.03281,-0.05981,-0.01328,-0.00763,-0.00214,-0.02151,-0.00824,0.00381,-0.02808,-0.01785,0.00839,-0.04166
3.5655,-0.00275,-0.04257,-0.06577,-0.02365,-0.03113,-0.06271,-0.01251,-0.00671,-0.00458,-0.02365,-0.0264,0.00504,-0.02899,-0.01816,0.00809,-0.04196
3.566,-0.00214,-0.04211,-0.01999,-0.03082,-0.03174,-0.06012,-0.01343,-0.00473,-0.01007,-0.02548,-0.03616,0.00473,-0.03036,-0.0174,0.00778,-0.0415
3.5665,-0.00153,-0.04181,0.01175,-0.04807,-0.03281,-0.05234,-0.01389,-0.00259,-0.01465,-0.02762,-0.04471,0.00519,-0.03113,-0.01785,0.00824,-0.04105
3.567,-0.0032,-0.03906,0.02518,-0.06317,-0.03296,-0.04562,-0.01343,-0.00015,-0.01587,-0.03128,-0.04745,0.00488,-0.03174,-0.02045,0.00931,-0.04181
3.5675,-0.00488,-0.03555,0.02533,-0.05554,-0.03159,-0.04349,-0.01221,0.00137,-0.01236,-0.0351,-0.04517,0.00275,-0.03433,-0.0235,0.00839,-0.04395
3.568,-0.00671,-0.03403,0.01816,-0.01968,-0.03143,-0.04395,-0.01144,0.00198,-0.01007,-0.03754,-0.04028,0.0,-0.03601,-0.02411,0.00717,-0.0441
3.5685,-0.01038,-0.03632,0.00839,0.01678,-0.03281,-0.04257,-0.01205,0.00214,-0.01144,-0.04013,-0.03632,-0.00122,-0.03616,-0.02304,0.0061,-0.04364
3.569,-0.0148,-0.03845,0.00168,0.02151,-0.03403,-0.0383,-0.01511,0.00259,-0.01541,-0.04486,-0.03265,-0.00107,-0.03448,-0.0238,0.00763,-0.04272
3.5695,-0.01984,-0.03647,-0.00031,-0.00305,-0.03311,-0.03525,-0.01801,0.00137,-0.01968,-0.05295,-0.02914,-0.00046,-0.03433,-0.02579,0.01007,-0.04318
3.57,-0.02502,-0.03281,-0.00198,-0.02533,-0.03021,-0.03418,-0.01831,-0.00015,-0.01968,-0.06516,-0.02686,0.00076,-0.03357,-0.0264,0.01236,-0.04272
3.5705,-0.02975,-0.03067,-0.00793,-0.02808,-0.02945,-0.0354,-0.0174,-0.00015,-0.01709,-0.07294,-0.0264,0.00153,-0.03296,-0.02548,0.01297,-0.04257
3.571,-0.02899,-0.03006,-0.01816,-0.02014,-0.02945,-0.03769,-0.01572,0.0,-0.01312,-0.0705,-0.02655,0.00137,-0.03128,-0.02426,0.01175,-0.04303
3.5715,-0.0235,-0.03021,-0.0293,-0.01816,-0.03098,-0.03845,-0.01511,-0.00183,-0.00778,-0.05768,-0.02396,0.00168,-0.02899,-0.02243,0.01007,-0.04272
3.572,-0.01785,-0.03296,-0.03906,-0.03036,-0.03235,-0.03998,-0.0148,-0.00412,-0.00137,-0.04135,-0.01404,0.00137,-0.02808,-0.01816,0.00854,-0.0415
3.5725,-0.01343,-0.03845,-0.04868,-0.05325,-0.03281,-0.04105,-0.01373,-0.00626,0.0029,-0.02625,0.00656,0.00015,-0.02823,-0.01404,0.0087,-0.04074
3.573,-0.00732,-0.04486,-0.0563,-0.07629,-0.0322,-0.04242,-0.01282,-0.00504,0.00153,-0.01175,0.03174,-0.00244,-0.02792,-0.01328,0.00931,-0.03998
3.5735,0.00015,-0.04837,-0.06409,-0.09064,-0.03021,-0.04303,-0.01282,-0.00381,-0.00214,0.0032,0.04532,-0.00275,-0.0267,-0.01602,0.01007,-0.0412
3.574,0.00488,-0.04852,-0.07645,-0.08926,-0.02914,-0.04349,-0.01373,-0.00488,-0.00504,0.01343,0.03754,-0.00107,-0.02655,-0.0177,0.00931,-0.04105
3.5745,-0.00046,-0.04776,-0.09003,-0.0795,-0.0322,-0.0444,-0.0148,-0.00534,-0.00305,0.01465,0.01694,0.00259,-0.02838,-0.01755,0.00992,-0.03952
3.575,-0.01129,-0.05051,-0.09033,-0.07217,-0.03403,-0.04562,-0.01511,-0.00656,0.00076,0.00519,-0.0029,0.00519,-0.03098,-0.01694,0.01022,-0.03876
3.5755,-0.0206,-0.05615,-0.07462,-0.06714,-0.03448,-0.04761,-0.01511,-0.00595,0.00488,-0.00565,-0.01648,0.00458,-0.0325,-0.01755,0.00977,-0.03891
3.576,-0.0206,-0.06516,-0.05127,-0.05676,-0.03479,-0.04913,-0.01541,-0.00427,0.00763,-0.00687,-0.02365,0.00198,-0.03235,-0.01801,0.00793,-0.04013
3.5765,-0.01312,-0.07324,-0.03296,-0.03265,-0.03555,-0.0502,-0.01434,-0.00198,0.00885,0.00168,-0.02625,0.0,-0.0322,-0.01755,0.00565,-0.04135
3.577,-0.00504,-0.07706,-0.02045,0.00336,-0.03708,-0.04944,-0.01373,-0.00046,0.00534,0.01282,-0.0235,-0.00061,-0.03189,-0.01648,0.00519,-0.04196
3.5775,-0.00198,-0.07401,-0.01205,0.03479,-0.0351,-0.047,-0.01389,0.00107,-0.00336,0.02045,-0.01999,-0.00107,-0.03204,-0.01633,0.00534,-0.04227
3.578,-0.00412,-0.06607,-0.0087,0.03815,-0.03204,-0.04486,-0.01312,0.00244,-0.01663,0.02655,-0.01846,-0.00214,-0.0325,-0.01694,0.00793,-0.04303
3.5785,-0.01114,-0.05783,-0.0116,0.00443,-0.03143,-0.04395,-0.0119,0.0029,-0.03143,0.02838,-0.02075,-0.00275,-0.03357,-0.01907,0.009,-0.04425
3.579,-0.0209,-0.05249,-0.01984,-0.03326,-0.0322,-0.0441,-0.01175,0.00244,-0.04333,0.02716,-0.02441,-0.00244,-0.03448,-0.02029,0.00992,-0.04471
3.5795,-0.02914,-0.05005,-0.03098,-0.04333,-0.03342,-0.04364,-0.01221,0.00214,-0.047,0.02258,-0.02625,-0.00122,-0.03525,-0.01907,0.01022,-0.04456
3.58,-0.0293,-0.04944,-0.04227,-0.02396,-0.03174,-0.04272,-0.0116,0.00336,-0.04486,0.01785,-0.02747,0.00046,-0.03418,-0.01663,0.01175,-0.04333
3.5805,-0.0238,-0.05157,-0.04929,-0.00076,-0.02991,-0.04059,-0.01022,0.00458,-0.04242,0.0148,-0.03098,0.00092,-0.03326,-0.01495,0.01266,-0.04181
3.581,-0.01724,-0.05386,-0.05188,0.01175,-0.02823,-0.03555,-0.00717,0.00458,-0.04105,0.01236,-0.03494,0.00137,-0.03281,-0.01617,0.01144,-0.04089
3.5815,-0.01312,-0.0528,-0.05188,0.01938,-0.02792,-0.03113,-0.00488,0.00168,-0.0386,0.00778,-0.03586,0.00076,-0.03296,-0.01755,0.009,-0.0415
3.582,-0.009,-0.04883,-0.05035,0.0267,-0.0296,-0.02945,-0.00549,-0.00275,-0.03555,0.00107,-0.03494,0.00015,-0.03342,-0.0174,0.00748,-0.04227
3.5825,-0.00351,-0.0444,-0.04501,0.02869,-0.03021,-0.02945,-0.00793,-0.00717,-0.03067,-0.00916,-0.03525,-0.00061,-0.03357,-0.0174,0.00748,-0.04318
3.583,0.00214,-0.04379,-0.03799,0.01907,-0.02808,-0.02777,-0.01083,-0.00931,-0.02472,-0.0209,-0.03647,-0.00168,-0.03387,-0.01831,0.00946,-0.04364
3.5835,0.00458,-0.0473,-0.03326,0.00778,-0.02655,-0.02182,-0.01358,-0.00977,-0.01984,-0.0296,-0.03784,-0.00107,-0.03357,-0.01816,0.01099,-0.04242
3.584,0.00519,-0.0499,-0.03357,0.00641,-0.02747,-0.01434,-0.01709,-0.00671,-0.01709,-0.03464,-0.03677,0.00061,-0.03204,-0.01862,0.0116,-0.04028
3.5845,0.0061,-0.04944,-0.03998,0.01755,-0.02991,-0.01007,-0.01938,-0.00183,-0.01648,-0.03784,-0.03342,0.00076,-0.03113,-0.01953,0.01144,-0.03906
3.585,0.00854,-0.04791,-0.04578,0.0296,-0.03036,-0.01038,-0.01892,0.00198,-0.01434,-0.03998,-0.02884,0.00046,-0.03067,-0.01999,0.01144,-0.03906
3.5855,0.00931,-0.04837,-0.04745,0.02472,-0.03189,-0.01511,-0.01801,0.00229,-0.0116,-0.04318,-0.02228,-0.00046,-0.03021,-0.01984,0.01007,-0.03952
3.586,0.00732,-0.04929,-0.04532,0.00137,-0.0354,-0.02274,-0.01831,-0.00092,-0.00885,-0.04623,-0.01572,-0.00061,-0.03021,-0.01923,0.00916,-0.03815
3.5865,0.00519,-0.04913,-0.04303,-0.02945,-0.0383,-0.0325,-0.01877,-0.00397,-0.00931,-0.04715,-0.00961,-0.00076,-0.02945,-0.01892,0.0087,-0.03754
3.587,0.00595,-0.04486,-0.0412,-0.05096,-0.03876,-0.04089,-0.01831,-0.00565,-0.01144,-0.04501,-0.0058,-0.00122,-0.02914,-0.01984,0.00824,-0.0383
3.5875,0.0087,-0.04059,-0.0412,-0.05676,-0.03723,-0.04379,-0.01587,-0.00626,-0.01389,-0.03998,-0.00381,-0.00076,-0.03052,-0.0209,0.00824,-0.04028
3.588,0.01129,-0.04089,-0.04242,-0.05096,-0.03723,-0.04318,-0.01297,-0.00488,-0.01282,-0.03387,-0.0029,-0.00092,-0.0325,-0.02029,0.00732,-0.04196
3.5885,0.01144,-0.04456,-0.04181,-0.04532,-0.03784,-0.0441,-0.01083,-0.00427,-0.0116,-0.02945,-0.00244,-0.00137,-0.03204,-0.01816,0.0058,-0.04333
3.589,0.00977,-0.04883,-0.03784,-0.04547,-0.0383,-0.05341,-0.01251,-0.00336,-0.01389,-0.02487,-0.00275,-0.00153,-0.0296,-0.01526,0.00443,-0.04318
3.5895,0.00641,-0.05112,-0.0354,-0.05341,-0.0386,-0.0737,-0.0145,-0.00275,-0.01953,-0.0209,-0.00168,-0.00137,-0.02869,-0.01419,0.00427,-0.04425
3.59,0.00381,-0.04959,-0.03479,-0.06378,-0.03754,-0.10239,-0.01694,-0.00305,-0.02594,-0.01953,-0.00046,0.0,-0.02975,-0.01556,0.00565,-0.04395
3.5905,0.00198,-0.04471,-0.03601,-0.06409,-0.03784,-0.12985,-0.01816,-0.00519,-0.02869,-0.02319,-0.00107,0.00046,-0.03113,-0.01801,0.00854,-0.04196
3.591,0.00214,-0.0383,-0.03815,-0.03998,-0.03983,-0.14069,-0.01755,-0.00732,-0.02609,-0.02945,-0.00336,0.0,-0.0322,-0.01953,0.01114,-0.04135
3.5915,0.00458,-0.03159,-0.04059,0.01022,-0.04044,-0.12863,-0.01678,-0.00778,-0.01923,-0.03403,-0.00748,-0.00092,-0.03235,-0.01892,0.0116,-0.04242
3.592,0.00748,-0.02548,-0.04318,0.05768,-0.03998,-0.10452,-0.01587,-0.00732,-0.01541,-0.03525,-0.01022,-0.00183,-0.03448,-0.0177,0.00885,-0.04379
3.5925,0.00656,-0.01816,-0.04501,0.06073,-0.03784,-0.08392,-0.01434,-0.00702,-0.01816,-0.03174,-0.00854,-0.00198,-0.03632,-0.01785,0.00717,-0.0441
3.593,0.00427,-0.01236,-0.04257,0.01022,-0.03677,-0.07339,-0.01343,-0.00748,-0.02502,-0.02655,-0.00641,-0.00229,-0.03693,-0.02014,0.00763,-0.04272
3.5935,0.00351,-0.00977,-0.03433,-0.03998,-0.03754,-0.06485,-0.01282,-0.00824,-0.0293,-0.02319,-0.00671,-0.00183,-0.03662,-0.02182,0.0087,-0.04074
3.594,0.00381,-0.00839,-0.02258,-0.02518,-0.03754,-0.056,-0.01328,-0.00717,-0.02991,-0.02411,-0.01129,-0.00107,-0.03708,-0.02106,0.0087,-0.03983
3.5945,0.00046,0.00122,-0.01266,0.06393,-0.03738,-0.05005,-0.01312,-0.0058,-0.02777,-0.02655,-0.0145,-0.00153,-0.03738,-0.01968,0.00763,-0.04013
3.595,-0.00778,0.01892,-0.00839,0.16251,-0.03677,-0.04807,-0.01297,-0.00336,-0.02441,-0.02899,-0.01251,-0.00244,-0.03677,-0.01831,0.00763,-0.0412
3.5955,-0.01633,0.02991,-0.00961,0.20126,-0.03647,-0.04791,-0.01221,-0.00214,-0.01968,-0.03098,-0.00687,-0.00259,-0.03479,-0.01678,0.00641,-0.04303
3.596,-0.02106,0.0209,-0.01221,0.17548,-0.03616,-0.04593,-0.01007,-0.00107,-0.01328,-0.03326,-0.00061,-0.00198,-0.03265,-0.01526,0.00595,-0.04486
3.5965,-0.01999,-0.0029,-0.0145,0.12695,-0.03525,-0.04486,-0.0087,0.00061,-0.00824,-0.03403,0.00259,-0.00168,-0.03128,-0.01419,0.00763,-0.04532
3.597,-0.01755,-0.02701,-0.01526,0.0795,-0.03464,-0.04623,-0.00916,0.0029,-0.00839,-0.03174,0.00488,-0.00153,-0.02991,-0.01511,0.00977,-0.04364
3.5975,-0.01633,-0.04044,-0.01236,0.03693,-0.03662,-0.047,-0.01099,0.00336,-0.01312,-0.02792,0.00626,-0.00168,-0.03021,-0.01724,0.00931,-0.04257
3.598,-0.01694,-0.04776,-0.00732,0.00366,-0.03845,-0.0441,-0.01328,0.00198,-0.02075,-0.02396,0.00809,-0.00183,-0.03098,-0.01862,0.00702,-0.04333
3.5985,-0.01724,-0.05371,-0.00519,-0.01175,-0.03891,-0.03815,-0.01465,-0.00107,-0.02762,-0.02045,0.00946,-0.00183,-0.03296,-0.01846,0.00565,-0.0441
3.599,-0.01724,-0.05859,-0.00793,-0.01404,-0.03708,-0.03357,-0.01526,-0.00473,-0.0322,-0.0206,0.00732,-0.00183,-0.03326,-0.0177,0.00595,-0.04425
3.5995,-0.01999,-0.05936,-0.01724,-0.01129,-0.03403,-0.03174,-0.01526,-0.00717,-0.03464,-0.02457,0.00168,-0.00198,-0.03189,-0.01724,0.00641,-0.04395
3.6,-0.02533,-0.05707,-0.03464,-0.00656,-0.03296,-0.03113,-0.0145,-0.00839,-0.03616,-0.02838,-0.00366,-0.00275,-0.03204,-0.01694,0.00656,-0.0441
3.6005,-0.02975,-0.056,-0.06989,-0.00748,-0.03204,-0.03036,-0.01541,-0.00854,-0.03555,-0.02991,-0.00595,-0.0029,-0.0325,-0.01694,0.00534,-0.04288
3.601,-0.03098,-0.05844,-0.11703,-0.02014,-0.03082,-0.02914,-0.0148,-0.00916,-0.02991,-0.02716,-0.00748,-0.00336,-0.03189,-0.0174,0.00366,-0.04105
3.6015,-0.02808,-0.06195,-0.14923,-0.03311,-0.03021,-0.02823,-0.01465,-0.0087,-0.01663,-0.02197,-0.00809,-0.00275,-0.03067,-0.01755,0.00473,-0.04074
3.602,-0.0264,-0.06348,-0.14893,-0.02777,-0.02884,-0.02853,-0.01465,-0.00778,0.00137,-0.01877,-0.00687,-0.00336,-0.02991,-0.01846,0.00702,-0.04089
3.6025,-0.02563,-0.06348,-0.12344,-0.01511,-0.02777,-0.02899,-0.01495,-0.00565,0.01953,-0.01633,-0.00366,-0.00259,-0.03052,-0.01999,0.00931,-0.04211
3.603,-0.02701,-0.06134,-0.09003,-0.01511,-0.02792,-0.03067,-0.01511,-0.00473,0.03113,-0.01495,-0.00198,-0.00031,-0.0322,-0.02228,0.01007,-0.0415
3.6035,-0.02762,-0.05768,-0.05722,-0.02167,-0.02777,-0.03311,-0.01511,-0.00488,0.03052,-0.01266,-0.00412,0.0029,-0.03296,-0.0235,0.00916,-0.04074
3.604,-0.02548,-0.05157,-0.0264,0.00381,-0.02823,-0.03342,-0.01541,-0.00458,0.01785,-0.01205,-0.00778,0.00458,-0.03143,-0.0235,0.00885,-0.04074
3.6045,-0.02151,-0.04486,-0.00153,0.07523,-0.03021,-0.03235,-0.01495,-0.0032,0.00229,-0.009,-0.01068,0.00397,-0.0296,-0.02243,0.00885,-0.0412
3.605,-0.01617,-0.04105,0.01282,0.14099,-0.0322,-0.03067,-0.01465,-0.00137,-0.00748,-0.00534,-0.01175,0.00183,-0.02792,-0.02151,0.00839,-0.04196
3.6055,-0.01022,-0.04227,0.02151,0.13504,-0.02975,-0.0264,-0.01373,-0.00076,-0.01083,-0.00107,-0.01114,-0.00107,-0.02899,-0.01999,0.00793,-0.04135
3.606,-0.00488,-0.04486,0.02457,0.06088,-0.02701,-0.01144,-0.01205,0.00031,-0.01434,0.00504,-0.00778,-0.00153,-0.03082,-0.01831,0.00763,-0.0412
3.6065,-0.00107,-0.04471,0.0206,-0.01465,-0.02548,0.0119,-0.01007,0.00381,-0.02457,0.0116,-0.00351,0.00031,-0.03204,-0.01678,0.00717,-0.04044
3.607,0.00076,-0.04562,0.00977,-0.05585,-0.02609,0.03159,-0.00854,0.00687,-0.03677,0.01907,-0.00092,0.00244,-0.03235,-0.0177,0.0061,-0.04074
3.6075,0.00366,-0.05127,-0.00671,-0.08652,-0.02655,0.03418,-0.00702,0.00717,-0.04532,0.02106,-0.00381,0.00153,-0.03235,-0.01968,0.00458,-0.04181
3.608,0.00671,-0.05707,-0.02472,-0.13458,-0.02808,0.02106,-0.00702,0.00397,-0.0502,0.01617,-0.01053,0.00046,-0.03189,-0.02121,0.00412,-0.04257
3.6085,0.00748,-0.05737,-0.0354,-0.18738,-0.02975,0.00275,-0.00717,0.00061,-0.05615,0.00656,-0.02045,-0.00015,-0.03174,-0.0206,0.0058,-0.0412
3.609,0.00656,-0.05356,-0.03662,-0.21912,-0.03235,-0.01511,-0.00641,-0.00122,-0.05951,-0.00305,-0.03098,0.0,-0.03204,-0.01831,0.009,-0.03952
3.6095,0.0061,-0.04959,-0.02945,-0.23361,-0.0351,-0.03418,-0.00504,-0.00061,-0.05112,-0.01022,-0.03891,0.00015,-0.03098,-0.01648,0.01022,-0.03906
3.61,0.00687,-0.04761,-0.0238,-0.23895,-0.03723,-0.05539,-0.00565,0.00183,-0.0325,-0.0119,-0.04227,0.00061,-0.02914,-0.01511,0.01053,-0.03891
3.6105,0.0087,-0.04471,-0.02335,-0.20996,-0.0386,-0.07233,-0.00916,0.0032,-0.01831,-0.01068,-0.04349,0.00046,-0.02808,-0.01572,0.01068,-0.03845
3.611,0.01022,-0.03876,-0.03174,-0.11017,-0.03784,-0.08301,-0.01221,0.00305,-0.01617,-0.01099,-0.04288,-0.00031,-0.02975,-0.01755,0.00946,-0.03891
3.6115,0.01099,-0.03418,-0.04333,0.03799,-0.03586,-0.09064,-0.0145,0.00137,-0.0174,-0.01312,-0.04181,0.00092,-0.0325,-0.01923,0.0087,-0.04044
3.612,0.00977,-0.03479,-0.0528,0.1474,-0.03403,-0.09872,-0.0174,0.0,-0.01236,-0.01633,-0.04059,0.0029,-0.0325,-0.01938,0.00839,-0.04105
3.6125,0.00885,-0.04166,-0.05554,0.15015,-0.03555,-0.10834,-0.02029,-0.00031,-0.00305,-0.0177,-0.03723,0.00488,-0.03159,-0.01862,0.00732,-0.0386
3.613,0.009,-0.04929,-0.05341,0.07782,-0.03876,-0.12024,-0.02197,-0.00168,-0.00092,-0.01892,-0.03235,0.00427,-0.03052,-0.0177,0.00854,-0.03662
3.6135,0.00839,-0.05463,-0.05264,0.01663,-0.03967,-0.13382,-0.02151,-0.00473,-0.00656,-0.02304,-0.02808,0.00259,-0.03052,-0.01831,0.01007,-0.03754
3.614,0.00702,-0.05615,-0.0528,-0.00793,-0.03906,-0.14267,-0.02014,-0.00885,-0.01434,-0.03204,-0.02396,0.00031,-0.0322,-0.01923,0.01083,-0.04013
3.6145,0.00504,-0.05524,-0.047,-0.03738,-0.03845,-0.1355,-0.01968,-0.0119,-0.01785,-0.04166,-0.01999,-0.00015,-0.03387,-0.01984,0.01007,-0.04272
3.615,0.00275,-0.05005,-0.02975,-0.07965,-0.03738,-0.11154,-0.01953,-0.01236,-0.01816,-0.04944,-0.01495,0.00031,-0.03479,-0.02014,0.01038,-0.0441
3.6155,-0.00137,-0.04272,-0.00702,-0.09567,-0.03571,-0.08636,-0.01846,-0.00977,-0.01953,-0.056,-0.0119,0.00122,-0.0354,-0.02029,0.01053,-0.04379
3.616,-0.00702,-0.03723,0.00473,-0.05707,-0.03326,-0.07263,-0.01694,-0.00778,-0.02289,-0.05966,-0.00946,0.00061,-0.03555,-0.02136,0.0116,-0.04349
3.6165,-0.0119,-0.03479,0.0,-0.0029,-0.02975,-0.07187,-0.01678,-0.0058,-0.02579,-0.06073,-0.00763,-0.00061,-0.03479,-0.02304,0.01144,-0.04456
3.617,-0.01358,-0.03601,-0.0116,0.00626,-0.02747,-0.07431,-0.01801,-0.00397,-0.02548,-0.06119,-0.00671,-0.0032,-0.03418,-0.02289,0.01007,-0.04669
3.6175,-0.01175,-0.03647,-0.02106,-0.0354,-0.02609,-0.07599,-0.01862,-0.0029,-0.02228,-0.05997,-0.00656,-0.00504,-0.03326,-0.02136,0.0087,-0.04807
3.618,-0.01068,-0.0351,-0.02533,-0.07996,-0.02579,-0.07813,-0.01755,-0.00412,-0.01831,-0.05692,-0.00824,-0.00504,-0.03204,-0.02045,0.00748,-0.04791
3.6185,-0.00885,-0.0322,-0.02731,-0.08804,-0.02487,-0.08209,-0.01663,-0.00687,-0.01511,-0.05264,-0.01205,-0.0032,-0.03159,-0.0209,0.00885,-0.04562
3.619,-0.00366,-0.02884,-0.02808,-0.06363,-0.02457,-0.08362,-0.01678,-0.00763,-0.0116,-0.04547,-0.0148,-0.00168,-0.03128,-0.02213,0.00946,-0.04471
3.6195,0.00244,-0.0264,-0.02533,-0.02075,-0.02472,-0.07492,-0.01831,-0.0058,-0.0058,-0.03738,-0.01236,-0.00122,-0.03235,-0.02182,0.00931,-0.04471
3.62,0.00488,-0.02701,-0.02457,0.02899,-0.02518,-0.05783,-0.02121,-0.00153,0.00061,-0.02823,0.00061,-0.00046,-0.03418,-0.01907,0.00809,-0.04517
3.6205,0.00183,-0.03067,-0.03067,0.06317,-0.02579,-0.04562,-0.02533,0.00015,0.00519,-0.0206,0.03326,-0.00183,-0.03555,-0.01694,0.00641,-0.04639
3.621,-0.00122,-0.03372,-0.04639,0.05524,-0.02686,-0.04135,-0.02686,-0.00031,0.00641,-0.01343,0.0885,-0.0032,-0.0351,-0.01495,0.00534,-0.04608
3.6215,0.00015,-0.03571,-0.06378,0.01053,-0.02579,-0.03967,-0.02396,-0.00137,0.00458,-0.00656,0.13428,-0.00336,-0.03464,-0.01312,0.00671,-0.04608
3.622,0.00397,-0.0354,-0.0708,-0.02625,-0.0235,-0.03662,-0.01923,-0.00137,0.00259,0.00061,0.12375,0.0,-0.03464,-0.01221,0.00763,-0.04333
3.6225,0.00565,-0.03555,-0.06302,-0.02777,-0.02136,-0.03448,-0.01419,-0.00214,0.00229,0.00366,0.05554,0.00214,-0.0354,-0.01297,0.00687,-0.03967
3.623,0.00427,-0.03601,-0.047,-0.00641,-0.02029,-0.03464,-0.00809,-0.00626,0.00015,0.00076,-0.02289,0.00168,-0.03525,-0.0148,0.00626,-0.03891
3.6235,0.00122,-0.03616,-0.03448,0.00565,-0.02167,-0.03769,0.0,-0.01221,-0.0058,-0.009,-0.07339,0.00092,-0.03479,-0.01572,0.00732,-0.03906
3.624,-0.00122,-0.03494,-0.03159,-0.00107,-0.0238,-0.0444,0.00809,-0.01434,-0.01389,-0.02274,-0.09308,0.00015,-0.03479,-0.01663,0.00916,-0.03784
3.6245,-0.0032,-0.03189,-0.0354,-0.00687,-0.02472,-0.05142,0.00824,-0.01266,-0.01968,-0.03464,-0.09537,0.00031,-0.03342,-0.01801,0.01068,-0.03586
3.625,-0.00427,-0.03021,-0.03799,0.0058,-0.02518,-0.05524,-0.00305,-0.01022,-0.02213,-0.03662,-0.08347,0.00031,-0.03189,-0.01877,0.01144,-0.03738
3.6255,-0.00397,-0.03021,-0.03662,0.02945,-0.02426,-0.05112,-0.01434,-0.00977,-0.02274,-0.02777,-0.06271,0.00107,-0.03174,-0.01816,0.01068,-0.04196
3.626,-0.0029,-0.03021,-0.02991,0.04074,-0.02548,-0.03922,-0.01526,-0.01038,-0.02106,-0.01205,-0.04028,0.00107,-0.03265,-0.01816,0.01053,-0.04471
3.6265,-0.00183,-0.02731,-0.01846,0.03342,-0.02823,-0.02335,-0.00931,-0.00992,-0.01923,0.00092,-0.02548,0.00137,-0.03418,-0.01785,0.01068,-0.04364
3.627,-0.00214,-0.01999,0.00031,0.0206,-0.02792,-0.00977,-0.0058,-0.009,-0.01923,0.00885,-0.02029,0.00046,-0.03525,-0.01846,0.01022,-0.04059
3.6275,-0.00351,-0.00854,0.01709,0.01541,-0.02655,-0.00366,-0.00656,-0.00763,-0.02243,0.0145,-0.02716,-0.00046,-0.0354,-0.01968,0.00992,-0.03784
3.628,-0.00458,0.00244,0.00641,0.01328,-0.02609,-0.00412,-0.00671,-0.00702,-0.02853,0.02258,-0.04013,-0.00183,-0.03616,-0.02213,0.00854,-0.03815
3.6285,-0.0058,0.00534,-0.04059,0.00931,-0.02777,-0.00717,-0.00397,-0.00671,-0.03433,0.03326,-0.04944,-0.00259,-0.03601,-0.02335,0.00763,-0.03998
3.629,-0.00519,-0.00122,-0.08743,0.00824,-0.02914,-0.00961,-0.0032,-0.00519,-0.03525,0.04288,-0.04898,-0.00366,-0.03601,-0.02319,0.00534,-0.04318
3.6295,-0.00214,-0.01282,-0.08377,0.01404,-0.02899,-0.01038,-0.00549,-0.00229,-0.03128,0.0473,-0.03922,-0.00336,-0.03586,-0.02228,0.00488,-0.0444
3.63,0.00183,-0.02182,-0.02365,0.02151,-0.02914,-0.01282,-0.00946,0.00214,-0.0267,0.04257,-0.02777,-0.00168,-0.03632,-0.02228,0.00549,-0.04303
3.6305,0.00259,-0.02884,0.04471,0.02151,-0.02991,-0.01816,-0.01251,0.00595,-0.02365,0.0325,-0.02121,0.00046,-0.03723,-0.02197,0.00519,-0.04318
3.631,-0.00198,-0.0351,0.07721,0.01099,-0.0322,-0.02457,-0.0145,0.00671,-0.02182,0.01984,-0.02228,0.00107,-0.03693,-0.01953,0.00534,-0.04364
3.6315,-0.01129,-0.03967,0.06973,-0.00549,-0.03235,-0.03082,-0.01526,0.00565,-0.01892,0.00748,-0.02762,0.00107,-0.03464,-0.01633,0.00732,-0.04379
3.632,-0.02014,-0.04257,0.04303,-0.02258,-0.03189,-0.03693,-0.01389,0.00473,-0.01526,-0.00412,-0.03433,0.00168,-0.03159,-0.01373,0.01205,-0.04135
3.6325,-0.02319,-0.04349,0.01266,-0.03815,-0.03311,-0.04471,-0.0119,0.00626,-0.01129,-0.01434,-0.03754,0.00137,-0.02869,-0.01434,0.01648,-0.03876
3.633,-0.02426,-0.04395,-0.01419,-0.05447,-0.03494,-0.056,-0.01099,0.00656,-0.00244,-0.02228,-0.03662,0.00122,-0.0264,-0.01572,0.01617,-0.03632
3.6335,-0.02411,-0.04318,-0.03769,-0.07324,-0.03662,-0.06943,-0.0119,0.00626,0.00916,-0.0296,-0.03067,0.00092,-0.02548,-0.01755,0.01572,-0.03403
3.634,-0.02121,-0.03937,-0.06241,-0.08972,-0.03708,-0.07874,-0.01251,0.00381,0.01892,-0.03311,-0.02274,0.00153,-0.02487,-0.0174,0.01602,-0.03159
3.6345,-0.01221,-0.03281,-0.09216,-0.0914,-0.03708,-0.07629,-0.01007,0.00046,0.02365,-0.03204,-0.01633,0.00229,-0.02609,-0.01556,0.01602,-0.03189
3.635,0.00168,-0.02731,-0.12787,-0.07141,-0.03555,-0.06378,-0.00946,-0.0029,0.02335,-0.02975,-0.01205,0.00275,-0.02869,-0.01404,0.01038,-0.03555
3.6355,0.01343,-0.02792,-0.14404,-0.03403,-0.03082,-0.04959,-0.01404,-0.00397,0.02014,-0.02777,-0.00793,0.00214,-0.0296,-0.01328,0.0,-0.04013
3.636,0.01587,-0.03204,-0.11871,-0.00031,-0.02731,-0.03723,-0.02258,0.00046,0.01404,-0.02609,-0.00412,0.0,-0.02838,-0.01404,-0.00641,-0.04242
3.6365,0.00977,-0.03983,-0.0621,0.01358,-0.02563,-0.02853,-0.02823,0.00565,0.00626,-0.02502,-0.00214,-0.00092,-0.02686,-0.01511,-0.00702,-0.04333
3.637,0.00137,-0.04852,-0.01022,0.01709,-0.02533,-0.01968,-0.02625,0.00748,0.00015,-0.02365,-0.00259,-0.00107,-0.02792,-0.01556,-0.00351,-0.04196
3.6375,-0.00549,-0.05783,0.0116,0.03036,-0.02579,-0.01495,-0.02136,0.00214,-0.0029,-0.02625,-0.00427,-0.00153,-0.03082,-0.01663,-0.00214,-0.04166
3.638,-0.0119,-0.06348,0.00916,0.05569,-0.02701,-0.01343,-0.0174,-0.01007,-0.00259,-0.03265,-0.00458,-0.00351,-0.03174,-0.01785,-0.00168,-0.04211
3.6385,-0.01923,-0.06577,0.00275,0.06989,-0.02716,-0.01373,-0.01617,-0.02319,-0.00137,-0.03937,-0.00427,-0.00183,-0.03098,-0.01923,0.00031,-0.04364
3.639,-0.02594,-0.06577,0.00198,0.06058,-0.02747,-0.01282,-0.01785,-0.02853,-0.00183,-0.04318,-0.00351,0.00198,-0.03006,-0.01938,0.00427,-0.0441
3.6395,-0.02777,-0.06622,0.0029,0.03662,-0.02747,-0.01007,-0.02075,-0.02213,-0.00061,-0.04608,-0.00168,0.00732,-0.02899,-0.01862,0.00793,-0.04181
3.64,-0.02701,-0.06714,-0.00153,0.01297,-0.0267,-0.0061,-0.02029,-0.01099,-0.00061,-0.04593,0.00153,0.00824,-0.02899,-0.0177,0.01068,-0.03891
3.6405,-0.02609,-0.06851,-0.01389,-0.01099,-0.02609,-0.00443,-0.0174,-0.0032,-0.00137,-0.04456,0.00443,0.00641,-0.03021,-0.01816,0.0116,-0.03937
3.641,-0.02365,-0.07187,-0.03189,-0.03784,-0.02625,-0.01053,-0.01205,-0.00153,-0.00198,-0.04532,0.00732,0.00275,-0.03082,-0.01862,0.00809,-0.04578
3.6415,-0.01602,-0.0766,-0.05157,-0.05859,-0.02762,-0.02335,-0.00992,-0.00244,-0.00122,-0.04562,0.00626,0.00092,-0.03159,-0.01907,0.00336,-0.05295
3.642,-0.00198,-0.08163,-0.06607,-0.06134,-0.02914,-0.04074,-0.01099,-0.00061,-0.00168,-0.04562,0.0032,0.00122,-0.03098,-0.01984,0.00183,-0.05539
3.6425,0.0116,-0.08636,-0.07645,-0.04272,-0.03052,-0.05966,-0.01328,0.00092,-0.00381,-0.04196,-0.00061,0.00351,-0.03098,-0.02014,0.00351,-0.05005
3.643,0.01907,-0.08926,-0.08255,-0.01511,-0.03159,-0.07614,-0.01587,0.00092,-0.00626,-0.03586,-0.00229,0.00458,-0.03174,-0.0206,0.00534,-0.0441
3.6435,0.02136,-0.09277,-0.08606,0.01205,-0.0322,-0.0824,-0.01755,0.00046,-0.00854,-0.02945,-0.0029,0.00381,-0.0322,-0.02075,0.00458,-0.0415
3.644,0.02228,-0.09735,-0.08759,0.04395,-0.0322,-0.07446,-0.01801,0.00153,-0.01175,-0.02335,-0.00259,0.00198,-0.03143,-0.02014,0.00381,-0.04349
3.6445,0.02563,-0.09933,-0.08743,0.09842,-0.03204,-0.05554,-0.01724,0.0032,-0.01465,-0.01724,-0.00214,-0.00015,-0.03189,-0.02014,0.00351,-0.0444
3.645,0.02747,-0.09552,-0.08377,0.18295,-0.03326,-0.04013,-0.01648,0.00381,-0.01862,-0.01083,-0.00275,0.00015,-0.03265,-0.02106,0.00397,-0.04318
3.6455,0.0267,-0.08347,-0.08072,0.25955,-0.03418,-0.03571,-0.01587,0.0029,-0.02167,-0.00504,-0.00961,0.00137,-0.03311,-0.02136,0.00351,-0.04242
3.646,0.02487,-0.06775,-0.07721,0.26169,-0.0354,-0.03967,-0.01419,0.00137,-0.02411,-0.00076,-0.02518,0.00259,-0.03235,-0.01968,0.00534,-0.04395
3.6465,0.02289,-0.05493,-0.07278,0.17517,-0.0354,-0.04471,-0.01083,0.00137,-0.02533,-0.00015,-0.04349,0.00168,-0.03204,-0.01862,0.00809,-0.04639
3.647,0.0206,-0.047,-0.06714,0.06256,-0.03525,-0.04654,-0.00854,0.00122,-0.02411,-0.00168,-0.05173,0.00076,-0.03326,-0.02014,0.01099,-0.04791
3.6475,0.01694,-0.04333,-0.05981,-0.01297,-0.03448,-0.04501,-0.00839,0.00015,-0.01892,-0.00443,-0.04517,0.00046,-0.03281,-0.02319,0.01251,-0.047
3.648,0.01328,-0.04181,-0.05157,-0.04974,-0.03387,-0.04013,-0.01007,-0.00137,-0.01373,-0.00961,-0.03067,0.00198,-0.03281,-0.02472,0.01633,-0.04425
3.6485,0.00748,-0.03952,-0.04227,-0.07568,-0.03403,-0.03891,-0.01404,-0.00488,-0.00961,-0.01434,-0.01663,0.00381,-0.03281,-0.02365,0.01801,-0.04135
3.649,-0.00214,-0.03616,-0.03342,-0.09506,-0.03311,-0.04471,-0.01801,-0.00946,-0.0061,-0.01755,-0.00443,0.00519,-0.03296,-0.02167,0.01953,-0.03937
3.6495,-0.01205,-0.0322,-0.02563,-0.09857,-0.03189,-0.05707,-0.02029,-0.01221,-0.00366,-0.01923,0.00366,0.00549,-0.03159,-0.01984,0.01785,-0.0386
3.65,-0.01511,-0.03021,-0.02182,-0.0972,-0.03082,-0.06958,-0.01968,-0.01282,-0.00183,-0.02197,0.00717,0.00534,-0.02945,-0.01816,0.01633,-0.04028
3.6505,-0.01099,-0.03036,-0.02136,-0.10864,-0.03006,-0.07568,-0.01587,-0.00992,-0.0029,-0.02731,0.00626,0.00488,-0.02884,-0.01678,0.01465,-0.04181
3.651,-0.00641,-0.02914,-0.02243,-0.13535,-0.03006,-0.07431,-0.01144,-0.00656,-0.00549,-0.03403,0.00427,0.00412,-0.02975,-0.01724,0.01022,-0.0415
3.6515,-0.00519,-0.02563,-0.0235,-0.16739,-0.02899,-0.06622,-0.00793,-0.00336,-0.00839,-0.04227,0.00381,0.0029,-0.03143,-0.01846,0.00336,-0.03998
3.652,-0.00656,-0.02243,-0.02502,-0.19501,-0.02609,-0.05402,-0.00763,-0.00229,-0.01099,-0.04776,0.00336,0.00153,-0.0322,-0.01984,-0.00244,-0.04013
3.6525,-0.00702,-0.02029,-0.03021,-0.2066,-0.02411,-0.0386,-0.00854,-0.0032,-0.01389,-0.04639,0.00092,0.00122,-0.03189,-0.02197,-0.00504,-0.04242
3.653,-0.00809,-0.01801,-0.03738,-0.18906,-0.0238,-0.02594,-0.01129,-0.00397,-0.01755,-0.03693,-0.00305,0.00107,-0.0325,-0.02335,-0.00412,-0.0441
3.6535,-0.00809,-0.01434,-0.0441,-0.13153,-0.02472,-0.0177,-0.01572,-0.0029,-0.02106,-0.02411,-0.00504,0.00076,-0.03296,-0.02243,-0.00473,-0.04272
3.654,-0.00931,-0.00839,-0.04517,-0.0441,-0.02899,-0.01556,-0.01984,-0.00046,-0.01984,-0.01312,-0.00397,0.0,-0.03265,-0.02182,-0.00504,-0.03891
3.6545,-0.01282,-0.00183,-0.03876,0.03693,-0.03174,-0.01663,-0.02075,0.00137,-0.01312,-0.00473,0.00061,0.00015,-0.03098,-0.01968,-0.0032,-0.03448
3.655,-0.01709,0.00275,-0.02853,0.06927,-0.03433,-0.01694,-0.01755,0.00275,-0.00626,0.00137,0.01465,0.00046,-0.03006,-0.0174,0.00687,-0.03189
3.6555,-0.02029,0.00305,-0.0177,0.04776,-0.03525,-0.01801,-0.01312,0.00259,-0.00397,0.00519,0.04547,-0.00031,-0.02884,-0.01633,0.0238,-0.03372
3.656,-0.0209,-0.00137,-0.01022,0.03021,-0.0354,-0.02136,-0.00839,0.00229,-0.00809,0.00519,0.08179,-0.00198,-0.02853,-0.01617,0.03738,-0.03784
3.6565,-0.02121,-0.00687,-0.00336,0.08087,-0.03632,-0.02945,-0.00656,0.00198,-0.01831,0.00153,0.09521,-0.0029,-0.02914,-0.01556,0.03647,-0.04257
3.657,-0.02228,-0.01266,0.00244,0.16632,-0.03815,-0.0383,-0.00702,0.00183,-0.03235,-0.00519,0.07095,-0.00275,-0.03098,-0.01587,0.0267,-0.04715
3.6575,-0.02289,-0.0174,0.00519,0.15991,-0.03876,-0.03983,-0.00961,0.00214,-0.04257,-0.0119,0.02808,-0.00214,-0.03281,-0.01556,0.01923,-0.0502
3.658,-0.02182,-0.02213,0.00137,0.00488,-0.03845,-0.03662,-0.01175,0.00107,-0.04288,-0.02029,-0.00244,-0.00198,-0.03296,-0.01663,0.01968,-0.05005
3.6585,-0.01602,-0.02777,-0.01038,-0.19089,-0.03738,-0.04074,-0.0116,0.00031,-0.03464,-0.02792,-0.00946,-0.00168,-0.03204,-0.01663,0.02151,-0.05081
3.659,-0.00656,-0.03387,-0.02441,-0.27817,-0.0351,-0.06271,-0.01129,-0.00046,-0.02869,-0.03311,-0.00931,-0.00229,-0.0322,-0.01556,0.01755,-0.05295
3.6595,0.00244,-0.03967,-0.03647,-0.23834,-0.03418,-0.09872,-0.01236,0.00031,-0.02792,-0.03403,-0.01511,-0.00244,-0.03342,-0.0145,0.01114,-0.05478
3.66,0.00504,-0.04517,-0.03876,-0.16693,-0.03372,-0.13107,-0.01251,0.00153,-0.02594,-0.03159,-0.0267,-0.00122,-0.03479,-0.01511,0.00763,-0.05173
3.6605,-0.00046,-0.04807,-0.0296,-0.12161,-0.03342,-0.14557,-0.01343,0.00107,-0.01938,-0.02975,-0.03601,0.00107,-0.03494,-0.01678,0.00977,-0.04578
3.661,-0.00549,-0.04379,-0.01129,-0.06912,-0.03326,-0.13824,-0.01282,-0.00031,-0.01434,-0.03098,-0.03891,0.00259,-0.03464,-0.01694,0.01373,-0.04105
3.6615,-0.00473,-0.02853,0.00931,-0.00031,-0.03418,-0.11307,-0.01236,-0.00412,-0.01572,-0.03326,-0.03281,0.00244,-0.03464,-0.01678,0.01724,-0.0386
3.662,-0.00305,-0.00946,0.01892,0.01892,-0.03433,-0.07736,-0.01221,-0.00671,-0.0209,-0.03372,-0.02335,0.00198,-0.03494,-0.01709,0.01709,-0.0354
3.6625,-0.00534,-0.00061,0.01175,-0.04272,-0.03311,-0.04715,-0.01343,-0.00717,-0.02197,-0.02945,-0.02151,0.00229,-0.03464,-0.01907,0.01556,-0.03128
3.663,-0.00916,-0.01175,-0.00534,-0.1149,-0.03098,-0.03296,-0.01465,-0.00656,-0.01556,-0.0238,-0.03281,0.00229,-0.03616,-0.02228,0.01175,-0.02823
3.6635,-0.01144,-0.03677,-0.02182,-0.12482,-0.02838,-0.03265,-0.01495,-0.00595,-0.00656,-0.01984,-0.0528,0.00137,-0.03815,-0.02563,0.00748,-0.03006
3.664,-0.01236,-0.05798,-0.03265,-0.08087,-0.02777,-0.04166,-0.01465,-0.00595,-0.00198,-0.01938,-0.07355,0.00122,-0.03983,-0.02823,0.0061,-0.03357
3.6645,-0.01587,-0.06439,-0.03998,-0.02625,-0.03021,-0.05737,-0.01541,-0.00641,-0.00031,-0.02075,-0.09003,0.00183,-0.03922,-0.02853,0.00565,-0.03677
3.665,-0.02045,-0.05875,-0.04501,0.01938,-0.03265,-0.08118,-0.0174,-0.0061,0.0029,-0.02472,-0.10147,0.00381,-0.03754,-0.02914,0.00473,-0.04013
3.6655,-0.02258,-0.05402,-0.04837,0.04898,-0.03418,-0.10056,-0.01785,-0.00534,0.01022,-0.03067,-0.10544,0.00519,-0.03769,-0.02884,0.00351,-0.04318
3.666,-0.02121,-0.05737,-0.04761,0.04211,-0.0325,-0.10162,-0.0174,-0.00458,0.02014,-0.03555,-0.10284,0.00244,-0.03845,-0.02792,0.00336,-0.04593
3.6665,-0.01892,-0.065,-0.04669,-0.0119,-0.02975,-0.08621,-0.01724,-0.00565,0.02762,-0.03784,-0.09521,-0.00061,-0.0386,-0.02502,0.00458,-0.04776
3.667,-0.01755,-0.07187,-0.05249,-0.07706,-0.02762,-0.06912,-0.01755,-0.00854,0.02747,-0.0383,-0.08591,-0.00061,-0.03632,-0.0206,0.00626,-0.04822
3.6675,-0.01617,-0.07629,-0.06058,-0.09827,-0.02777,-0.06241,-0.01831,-0.01038,0.01801,-0.03876,-0.07523,0.00259,-0.03387,-0.01816,0.00916,-0.04684
3.668,-0.01343,-0.08057,-0.07004,-0.06439,-0.02762,-0.06348,-0.0174,-0.01053,0.00122,-0.0383,-0.06332,0.00565,-0.03326,-0.01953,0.01022,-0.04471
3.6685,-0.00763,-0.08636,-0.07767,-0.01099,-0.02945,-0.06546,-0.01556,-0.00763,-0.01694,-0.03876,-0.0499,0.00549,-0.03448,-0.02029,0.01328,-0.04333
3.669,-0.00107,-0.09247,-0.08224,0.03174,-0.03052,-0.06317,-0.01465,-0.00427,-0.03403,-0.03601,-0.04272,0.0029,-0.0351,-0.01999,0.01236,-0.0444
3.6695,0.00519,-0.09735,-0.08316,0.06958,-0.03265,-0.05493,-0.01465,-0.00244,-0.04745,-0.03143,-0.04135,0.00107,-0.03418,-0.01877,0.01068,-0.04501
3.67,0.01038,-0.09644,-0.07858,0.11536,-0.03281,-0.04227,-0.0145,-0.00168,-0.0528,-0.0264,-0.03952,0.00153,-0.03159,-0.01801,0.00763,-0.04471
3.6705,0.01343,-0.0885,-0.06958,0.14999,-0.03281,-0.03235,-0.01511,-0.00275,-0.04791,-0.01846,-0.03464,0.00336,-0.03021,-0.01801,0.00671,-0.04196
3.671,0.01465,-0.07736,-0.05859,0.14816,-0.03281,-0.03265,-0.0148,-0.00275,-0.03525,-0.01007,-0.03036,0.00412,-0.03006,-0.01663,0.00687,-0.04074
3.6715,0.01556,-0.06516,-0.04654,0.11978,-0.0351,-0.04364,-0.0145,-0.00229,-0.02304,-0.00092,-0.02991,0.00397,-0.02975,-0.01465,0.00778,-0.04166
3.672,0.01404,-0.05447,-0.03601,0.10056,-0.03677,-0.05692,-0.01373,-0.00153,-0.01236,0.00839,-0.03098,0.00519,-0.02731,-0.01282,0.00854,-0.04456
3.6725,0.01053,-0.04517,-0.02945,0.09445,-0.03632,-0.06149,-0.01328,-0.00198,-0.00153,0.01846,-0.02792,0.00778,-0.02548,-0.01068,0.009,-0.04532
3.673,0.0061,-0.03891,-0.02808,0.08118,-0.0351,-0.05783,-0.01343,-0.00229,0.00763,0.02975,-0.02045,0.00885,-0.02686,-0.01038,0.00732,-0.0444
3.6735,0.00244,-0.03693,-0.02853,0.06012,-0.03418,-0.05417,-0.01328,-0.00046,0.01038,0.04135,-0.0119,0.00778,-0.02945,-0.01114,0.00504,-0.04379
3.674,0.00107,-0.03677,-0.02731,0.06805,-0.03418,-0.056,-0.0119,0.00259,0.00702,0.05035,-0.00519,0.00488,-0.03098,-0.01404,0.00412,-0.0444
3.6745,0.00061,-0.0354,-0.02762,0.12604,-0.03387,-0.05524,-0.01129,0.00427,0.00351,0.04929,-0.00183,0.00275,-0.03174,-0.01663,0.00397,-0.04623
3.675,0.00015,-0.03265,-0.02655,0.18143,-0.03098,-0.04669,-0.01114,0.00305,0.00214,0.04135,-0.00031,0.00244,-0.03082,-0.0174,0.00504,-0.047
3.6755,0.00015,-0.03036,-0.02441,0.16037,-0.02808,-0.03494,-0.01251,0.00092,0.00107,0.03036,0.00198,0.00275,-0.03036,-0.01633,0.00732,-0.04807
3.676,0.00092,-0.02899,-0.02106,0.08072,-0.02625,-0.02869,-0.01343,-0.00092,-0.00031,0.0206,0.00427,0.00366,-0.03159,-0.01572,0.00748,-0.04776
3.6765,0.0029,-0.02747,-0.01892,0.03067,-0.02747,-0.02762,-0.01358,-0.00183,-0.00061,0.01358,0.00671,0.00427,-0.03403,-0.01694,0.00626,-0.04776
3.677,0.00351,-0.02594,-0.01816,0.04211,-0.02884,-0.0264,-0.01343,-0.00244,0.00031,0.00839,0.00809,0.00336,-0.03525,-0.01831,0.00488,-0.04852
3.6775,0.00351,-0.02335,-0.01862,0.05478,-0.02914,-0.02457,-0.01297,-0.00259,0.00214,0.00244,0.00793,0.00244,-0.0351,-0.01999,0.00473,-0.0473
3.678,0.00275,-0.01938,-0.01816,0.02121,-0.02914,-0.02182,-0.01205,-0.00076,0.00397,-0.00351,0.00656,0.00183,-0.03357,-0.01907,0.00565,-0.04669
3.6785,0.00305,-0.01099,-0.01678,-0.03998,-0.03021,-0.01968,-0.0119,0.00061,0.00519,-0.00931,0.00549,0.00259,-0.03235,-0.01755,0.00656,-0.04623
3.679,0.00229,-0.00046,-0.01434,-0.0885,-0.03067,-0.01694,-0.01266,0.00092,0.0058,-0.01266,0.00504,0.00275,-0.03174,-0.0174,0.00656,-0.04593
3.6795,0.00198,0.00595,-0.00793,-0.11246,-0.03006,-0.01297,-0.01404,-0.00031,0.00534,-0.01465,0.00656,0.00259,-0.03128,-0.0177,0.00702,-0.04349
3.68,0.00061,0.00366,0.00397,-0.12711,-0.03006,-0.00717,-0.01465,-0.00259,0.00427,-0.0174,0.00916,0.00336,-0.03082,-0.0174,0.00763,-0.04044
3.6805,-0.00259,-0.00549,0.01511,-0.14862,-0.02884,-0.00153,-0.01526,-0.00504,0.0,-0.01984,0.01144,0.00366,-0.03098,-0.01633,0.00961,-0.03891
3.681,-0.0058,-0.01602,0.01602,-0.18356,-0.02808,0.00168,-0.01511,-0.00626,-0.00687,-0.02182,0.0119,0.0032,-0.03204,-0.01694,0.009,-0.03983
3.6815,-0.00793,-0.02319,0.00717,-0.20493,-0.02823,0.0029,-0.01617,-0.00702,-0.01511,-0.02182,0.01053,0.00183,-0.03235,-0.01816,0.00854,-0.0415
3.682,-0.00931,-0.02853,-0.00748,-0.16205,-0.03113,0.00046,-0.01678,-0.00702,-0.02335,-0.02151,0.00916,0.0032,-0.03342,-0.01892,0.00839,-0.04074
3.6825,-0.01068,-0.03311,-0.02182,-0.04684,-0.03403,-0.00687,-0.01572,-0.00534,-0.02731,-0.02136,0.00778,0.00427,-0.03479,-0.01923,0.0087,-0.03799
3.683,-0.0145,-0.03571,-0.03418,0.0679,-0.03586,-0.01938,-0.01297,-0.00183,-0.02594,-0.02609,0.009,0.0032,-0.03479,-0.02014,0.00839,-0.03586
3.6835,-0.01953,-0.03586,-0.04333,0.11688,-0.03693,-0.0293,-0.00961,0.00198,-0.02228,-0.03479,0.01022,0.00122,-0.03372,-0.0206,0.00961,-0.03708
3.684,-0.02213,-0.03586,-0.05081,0.12009,-0.03891,-0.03143,-0.00916,0.00473,-0.02167,-0.04654,0.01114,-0.00031,-0.03265,-0.01877,0.01083,-0.03891
3.6845,-0.02182,-0.03662,-0.06302,0.1152,-0.04059,-0.02777,-0.01099,0.00458,-0.02548,-0.05722,0.01068,-0.00061,-0.03403,-0.01678,0.01083,-0.03937
3.685,-0.02029,-0.04028,-0.08942,0.07935,-0.0415,-0.02625,-0.01419,0.00076,-0.02716,-0.06271,0.01007,0.00061,-0.03693,-0.01709,0.00977,-0.03983
3.6855,-0.01968,-0.04547,-0.12619,-0.01419,-0.0415,-0.03281,-0.01556,-0.00641,-0.02411,-0.06195,0.01007,0.00153,-0.03876,-0.01999,0.0087,-0.04074
3.686,-0.01999,-0.04913,-0.15045,-0.11765,-0.04074,-0.04822,-0.01678,-0.0119,-0.01999,-0.05783,0.01022,0.00122,-0.03845,-0.02167,0.00885,-0.04242
3.6865,-0.0209,-0.04898,-0.14206,-0.15579,-0.04028,-0.06821,-0.01801,-0.01328,-0.02045,-0.0528,0.00961,0.00061,-0.03738,-0.02014,0.009,-0.04318
3.687,-0.02289,-0.04578,-0.10895,-0.12909,-0.03891,-0.08743,-0.01862,-0.01053,-0.02731,-0.04974,0.00854,0.0,-0.03601,-0.01846,0.00946,-0.04196
3.6875,-0.0238,-0.04395,-0.08163,-0.10254,-0.03784,-0.1001,-0.01724,-0.00687,-0.03876,-0.04715,0.00626,-0.00076,-0.03571,-0.01923,0.009,-0.04013
3.688,-0.0206,-0.04364,-0.07019,-0.11398,-0.03677,-0.0975,-0.01495,-0.00641,-0.05051,-0.04242,0.00137,-0.00107,-0.03662,-0.0209,0.009,-0.04105
3.6885,-0.01328,-0.04425,-0.05722,-0.13794,-0.03403,-0.0795,-0.01373,-0.0087,-0.05997,-0.03571,-0.00427,-0.00061,-0.03723,-0.02289,0.00931,-0.04227
3.689,-0.00778,-0.04471,-0.03067,-0.13397,-0.0296,-0.05661,-0.01572,-0.01068,-0.06607,-0.02792,-0.00961,-0.00092,-0.03891,-0.02243,0.00824,-0.04395
3.6895,-0.00687,-0.04639,0.0029,-0.1004,-0.02518,-0.04288,-0.01801,-0.01114,-0.06866,-0.01862,-0.01343,0.00031,-0.03876,-0.02029,0.00717,-0.0441
3.69,-0.00809,-0.05005,0.02762,-0.06287,-0.02396,-0.04349,-0.0177,-0.01068,-0.06775,-0.00931,-0.01801,0.00214,-0.03647,-0.01846,0.00763,-0.04333
3.6905,-0.00748,-0.05432,0.03632,-0.03357,-0.02655,-0.05096,-0.01633,-0.01083,-0.06454,0.00153,-0.02182,0.00137,-0.03296,-0.01923,0.00824,-0.04318
3.691,-0.00626,-0.05707,0.03464,0.00031,-0.02914,-0.05753,-0.01495,-0.01068,-0.05951,0.0119,-0.02579,-0.00046,-0.03052,-0.02136,0.00885,-0.04425
3.6915,-0.00916,-0.05508,0.03006,0.03952,-0.03021,-0.06042,-0.01465,-0.00977,-0.04898,0.01572,-0.02869,-0.00183,-0.02914,-0.02182,0.00885,-0.04486
