time,RectFemL,VastusMedL,VastusLatL,TibAntL,HamMedL,HamLatL,GastroMedL,GastroLatL,RectFemR,VastusMedR,VastusLatR,TibAntR,HamMedR,HamLatR,GastroMedR,GastroLatR
7.35,-0.01343,-0.0267,-0.02747,-0.01282,-0.03754,-0.047,-0.07034,-0.11551,0.80078,-0.02289,-0.09308,0.0351,-0.0325,-0.01862,0.01175,-0.04318
7.3505,-0.01511,-0.02731,-0.02487,-0.01328,-0.03784,-0.04547,-0.04852,-0.0798,0.76767,-0.02594,-0.12009,0.00092,-0.03937,-0.02045,0.01251,-0.04288
7.351,-0.01556,-0.02502,-0.02106,-0.01328,-0.03693,-0.04471,-0.02075,0.01999,0.72845,-0.02808,-0.12131,-0.0267,-0.04333,-0.02304,0.01205,-0.04257
7.3515,-0.01282,-0.02426,-0.01648,-0.01465,-0.0354,-0.04547,-0.01755,0.12878,0.69611,-0.02914,-0.09781,-0.03647,-0.04501,-0.02457,0.01007,-0.04272
7.352,-0.00763,-0.02655,-0.01312,-0.01846,-0.03922,-0.04486,-0.03418,0.16663,0.69092,-0.02899,-0.05997,-0.03586,-0.04318,-0.02441,0.0061,-0.04242
7.3525,-0.00214,-0.0322,-0.01343,-0.02197,-0.03937,-0.04486,-0.03418,0.11215,0.7045,-0.02808,-0.02182,-0.03464,-0.04135,-0.02136,0.00488,-0.04059
7.353,0.00198,-0.03754,-0.01678,-0.02457,-0.0354,-0.04532,0.01251,0.02213,0.70084,-0.02563,0.00763,-0.03403,-0.0412,-0.01968,0.00626,-0.03906
7.3535,0.00641,-0.04318,-0.02029,-0.03006,-0.03036,-0.04623,0.08484,-0.04471,0.66132,-0.02365,0.02609,-0.02808,-0.04364,-0.02045,0.00763,-0.03906
7.354,0.01038,-0.04639,-0.02289,-0.0386,-0.02594,-0.04593,0.11749,-0.07111,0.60104,-0.0235,0.03448,-0.01923,-0.04486,-0.02258,0.00763,-0.03906
7.3545,0.01282,-0.04745,-0.02487,-0.04303,-0.02441,-0.04562,0.07126,-0.05783,0.54245,-0.02365,0.03967,-0.01221,-0.04501,-0.02396,0.0087,-0.03922
7.355,0.01205,-0.05005,-0.03052,-0.03571,-0.02518,-0.04547,-0.01953,-0.00946,0.49011,-0.02121,0.04654,-0.00961,-0.04593,-0.02304,0.00992,-0.03876
7.3555,0.01068,-0.05524,-0.04059,-0.02106,-0.02533,-0.04532,-0.08148,0.056,0.43869,-0.01572,0.05951,-0.01007,-0.04608,-0.01923,0.01038,-0.03876
7.356,0.00946,-0.06638,-0.04852,-0.0116,-0.02548,-0.04486,-0.07217,0.09216,0.38406,-0.01007,0.06989,-0.01083,-0.04471,-0.01587,0.00854,-0.03891
7.3565,0.01083,-0.07736,-0.05112,-0.01175,-0.02563,-0.04532,-0.01434,0.07141,0.32776,-0.0029,0.06775,-0.00748,-0.04272,-0.01419,0.00565,-0.03845
7.357,0.01404,-0.08224,-0.04654,-0.01724,-0.02731,-0.04639,0.03342,0.01785,0.27008,0.0029,0.04639,-0.00244,-0.04211,-0.01633,0.00443,-0.03693
7.3575,0.01663,-0.07584,-0.03815,-0.02075,-0.02823,-0.04532,0.04074,-0.02563,0.20462,0.01053,0.01495,0.00015,-0.04593,-0.01907,0.00443,-0.03418
7.358,0.01984,-0.0647,-0.03006,-0.01572,-0.02991,-0.04593,0.02563,-0.0444,0.13428,0.0177,-0.01038,0.00015,-0.04898,-0.0206,0.00473,-0.03265
7.3585,0.01953,-0.05402,-0.02441,0.00229,-0.03067,-0.04608,0.01801,-0.04959,0.07629,0.02441,-0.02136,-0.00092,-0.0502,-0.01968,0.00488,-0.03311
7.359,0.01694,-0.04761,-0.02335,0.02655,-0.03204,-0.04745,0.01862,-0.04974,0.0383,0.02441,-0.0238,-0.00076,-0.0499,-0.01846,0.00519,-0.03479
7.3595,0.01434,-0.0415,-0.02533,0.03555,-0.03342,-0.04837,0.00824,-0.04089,0.00214,0.01709,-0.0235,-0.00031,-0.04578,-0.01877,0.00504,-0.03586
7.36,0.0145,-0.0354,-0.03021,0.02411,-0.03342,-0.05051,-0.01938,-0.02548,-0.03937,0.00793,-0.02213,-0.00015,-0.0412,-0.01877,0.00473,-0.03571
7.3605,0.01694,-0.03189,-0.03754,0.00916,-0.03555,-0.05173,-0.04303,-0.01694,-0.07599,0.00092,-0.01648,-0.00122,-0.03662,-0.0177,0.00397,-0.0354
7.361,0.01801,-0.03128,-0.04303,0.00748,-0.03754,-0.0528,-0.04395,-0.02197,-0.10971,-0.00259,-0.00992,-0.00244,-0.03342,-0.01648,0.00519,-0.03571
7.3615,0.01755,-0.03342,-0.04654,0.0148,-0.03708,-0.05142,-0.0296,-0.03281,-0.14694,-0.00519,-0.00565,-0.00107,-0.03052,-0.01602,0.00305,-0.03769
7.362,0.01602,-0.03708,-0.04471,0.01663,-0.03601,-0.04852,-0.0293,-0.04196,-0.18433,-0.00793,-0.00626,0.00076,-0.02731,-0.0174,0.00259,-0.03983
7.3625,0.01312,-0.03937,-0.03754,0.01099,-0.03342,-0.04791,-0.05524,-0.04974,-0.21988,-0.01007,-0.00732,0.00198,-0.02411,-0.01831,0.00183,-0.04105
7.363,0.00809,-0.04013,-0.02701,0.00793,-0.0322,-0.05051,-0.0914,-0.05783,-0.24872,-0.01221,-0.00595,0.00229,-0.02182,-0.01907,0.0029,-0.04013
7.3635,0.00366,-0.03815,-0.01648,0.01221,-0.03082,-0.05035,-0.10605,-0.0589,-0.2626,-0.01373,-0.00488,0.00168,-0.01968,-0.01892,0.00549,-0.03616
7.364,-0.00092,-0.03662,-0.00824,0.01572,-0.03006,-0.05005,-0.07294,-0.05707,-0.26627,-0.0174,-0.00656,0.00183,-0.01816,-0.01892,0.00671,-0.02991
7.3645,-0.00519,-0.0351,-0.00412,0.01236,-0.03052,-0.05127,-0.00473,-0.08362,-0.27603,-0.01923,-0.00916,0.00122,-0.01663,-0.01907,0.0058,-0.02197
7.365,-0.00916,-0.0351,-0.0029,0.00641,-0.03265,-0.05035,0.04288,-0.17273,-0.2948,-0.02136,-0.009,0.00046,-0.0145,-0.01968,0.00458,-0.01785
7.3655,-0.01083,-0.03555,-0.00061,0.0029,-0.03464,-0.05173,0.03937,-0.30975,-0.31586,-0.02228,-0.00336,-0.00031,-0.0119,-0.01968,0.00381,-0.01755
7.366,-0.01144,-0.03708,0.00031,-0.00168,-0.03464,-0.05249,0.02625,-0.40421,-0.33493,-0.02365,0.00122,-0.00061,-0.01007,-0.01923,0.00412,-0.02045
7.3665,-0.00992,-0.03738,-0.00076,-0.00916,-0.03403,-0.05157,0.05753,-0.32867,-0.35492,-0.02487,0.0032,0.0,-0.01083,-0.0174,0.0032,-0.02335
7.367,-0.00839,-0.03799,-0.00565,-0.01633,-0.03464,-0.05142,0.10345,-0.03464,-0.37384,-0.02487,0.00198,0.0,-0.01312,-0.01724,0.00366,-0.02762
7.3675,-0.00412,-0.04013,-0.01648,-0.02075,-0.03632,-0.05081,0.09399,0.31937,-0.38803,-0.02457,-0.00259,0.00031,-0.01587,-0.01633,0.00732,-0.03296
7.368,0.0,-0.04547,-0.03281,-0.02274,-0.0386,-0.05219,0.01831,0.46295,-0.39963,-0.02304,-0.01923,0.00214,-0.01541,-0.01617,0.01068,-0.03922
7.3685,0.00366,-0.0528,-0.04776,-0.02548,-0.03799,-0.05234,-0.06104,0.32242,-0.41519,-0.01984,-0.06561,0.0061,-0.01297,-0.01587,0.01236,-0.04318
7.369,0.00427,-0.05859,-0.05096,-0.02777,-0.0386,-0.05188,-0.0885,0.12009,-0.4306,-0.01724,-0.14023,0.00992,-0.01068,-0.01526,0.0116,-0.04684
7.3695,0.00366,-0.06241,-0.03876,-0.02609,-0.04074,-0.05005,-0.06134,0.0705,-0.4303,-0.0148,-0.20432,0.01144,-0.01083,-0.01434,0.01175,-0.05173
7.37,0.00366,-0.06668,-0.02319,-0.02182,-0.04318,-0.04837,-0.02182,0.12131,-0.41473,-0.01389,-0.21667,0.00977,-0.01343,-0.01282,0.01205,-0.05905
7.3705,0.00519,-0.07446,-0.01663,-0.01755,-0.0444,-0.04684,-0.00931,0.0946,-0.40482,-0.0145,-0.17944,0.00519,-0.01831,-0.00977,0.01022,-0.06866
7.371,0.00534,-0.07996,-0.01862,-0.01328,-0.0441,-0.04639,-0.02609,-0.0383,-0.4158,-0.01419,-0.12344,-0.00061,-0.0209,-0.00595,0.00763,-0.07706
7.3715,0.00473,-0.07568,-0.02136,-0.00778,-0.04562,-0.04578,-0.04395,-0.16144,-0.43015,-0.01205,-0.06287,-0.00366,-0.01968,-0.00229,0.00488,-0.08179
7.372,0.00427,-0.06378,-0.02258,0.00122,-0.0473,-0.04578,-0.04028,-0.18982,-0.4158,-0.00977,0.00259,-0.00443,-0.01801,-0.00031,0.00397,-0.08179
7.3725,0.00458,-0.04959,-0.0238,0.01022,-0.04669,-0.04654,-0.02487,-0.12054,-0.3746,-0.01022,0.06378,-0.00397,-0.01602,-0.00092,0.00366,-0.07706
7.373,0.00565,-0.03967,-0.02579,0.0148,-0.04578,-0.04547,-0.02197,0.01617,-0.34317,-0.01221,0.10345,-0.00519,-0.01678,-0.0029,0.00473,-0.06973
7.3735,0.00702,-0.03448,-0.02747,0.01068,-0.04486,-0.04684,-0.03128,0.15991,-0.33554,-0.01511,0.11902,-0.00793,-0.0177,-0.00427,0.00687,-0.06073
7.374,0.00687,-0.03021,-0.02625,-0.00366,-0.04471,-0.0473,-0.03098,0.21835,-0.3363,-0.01541,0.12115,-0.00641,-0.02457,-0.00626,0.00809,-0.05157
7.3745,0.0058,-0.02625,-0.02533,-0.0293,-0.04333,-0.04745,-0.01633,0.15518,-0.33676,-0.01587,0.12314,0.00015,-0.03143,-0.01022,0.00885,-0.04227
7.375,0.00275,-0.02197,-0.02441,-0.06409,-0.03998,-0.04791,-0.01129,0.04684,-0.33051,-0.01556,0.12589,0.00717,-0.03738,-0.01831,0.00961,-0.03586
7.3755,0.00137,-0.01709,-0.02502,-0.09827,-0.0351,-0.04837,-0.02975,-0.00824,-0.3006,-0.01923,0.12085,0.00885,-0.03677,-0.02686,0.00946,-0.03296
7.376,0.00137,-0.01282,-0.02441,-0.13077,-0.03128,-0.05066,-0.04807,0.00183,-0.25574,-0.02014,0.1004,0.00519,-0.03082,-0.03296,0.00854,-0.03265
7.3765,0.00168,-0.0116,-0.02197,-0.16556,-0.02823,-0.05066,-0.03647,0.02396,-0.22629,-0.02335,0.07004,0.00275,-0.02304,-0.03494,0.00397,-0.03342
7.377,0.00137,-0.01312,-0.02136,-0.19852,-0.02518,-0.05066,-0.00031,0.02747,-0.2269,-0.02396,0.04395,0.00351,-0.01617,-0.03433,-0.00519,-0.03296
7.3775,0.00061,-0.01801,-0.02151,-0.21042,-0.02167,-0.04898,0.02396,0.01892,-0.24384,-0.02045,0.02884,0.00351,-0.01312,-0.03357,-0.01526,-0.03128
7.378,0.00031,-0.02365,-0.02411,-0.17212,-0.01923,-0.04776,0.01938,0.01266,-0.26489,-0.0145,0.01907,0.00244,-0.01312,-0.03403,-0.01999,-0.02792
7.3785,-0.00015,-0.02808,-0.02777,-0.065,-0.0174,-0.04761,0.009,0.0119,-0.28549,-0.01114,0.00687,0.0,-0.01556,-0.03357,-0.01862,-0.02548
7.379,-0.00122,-0.03036,-0.02945,0.09674,-0.0174,-0.04776,0.0119,0.0206,-0.30167,-0.01053,-0.00687,-0.00168,-0.01694,-0.03067,-0.01465,-0.02548
7.3795,-0.00092,-0.02838,-0.02899,0.25421,-0.02029,-0.04822,0.01251,0.03891,-0.30869,-0.01022,-0.01785,-0.00122,-0.01602,-0.02594,-0.00961,-0.02716
7.38,-0.00015,-0.02319,-0.02853,0.33325,-0.02548,-0.04959,-0.00885,0.05127,-0.31372,-0.01099,-0.02777,0.00031,-0.01358,-0.02151,-0.00336,-0.02853
7.3805,-0.00015,-0.02121,-0.02853,0.30075,-0.0296,-0.05096,-0.03708,0.04517,-0.31769,-0.01175,-0.04822,0.00168,-0.01495,-0.01877,0.00717,-0.03021
7.381,-0.00046,-0.02472,-0.0296,0.19928,-0.03204,-0.05249,-0.04272,0.02792,-0.29388,-0.01297,-0.07736,0.00244,-0.02106,-0.01968,0.02502,-0.03372
7.3815,0.00092,-0.03067,-0.0296,0.10239,-0.03235,-0.05142,-0.02411,0.01511,-0.21088,-0.01572,-0.10117,0.00259,-0.03052,-0.02258,0.04654,-0.03754
7.382,0.0029,-0.0354,-0.03052,0.05081,-0.03357,-0.04929,-0.00763,0.0032,-0.08652,-0.0177,-0.10773,0.00259,-0.03662,-0.02426,0.06104,-0.03922
7.3825,0.00381,-0.03952,-0.03159,0.02625,-0.03799,-0.04791,-0.00992,-0.02487,0.03128,-0.02151,-0.0972,0.00198,-0.0412,-0.02502,0.05737,-0.04044
7.383,0.0032,-0.04303,-0.03372,-0.00259,-0.04684,-0.04425,-0.02472,-0.07813,0.12604,-0.02563,-0.07904,0.00122,-0.04456,-0.0235,0.0386,-0.04593
7.3835,0.00275,-0.04532,-0.03769,-0.0383,-0.05661,-0.04089,-0.0386,-0.13947,0.21469,-0.02563,-0.05753,0.00092,-0.05005,-0.02136,0.02029,-0.05569
7.384,0.00305,-0.04517,-0.04288,-0.06027,-0.065,-0.03937,-0.04761,-0.17624,0.2948,-0.02319,-0.03693,0.00092,-0.05615,-0.02045,0.01053,-0.05569
7.3845,0.00671,-0.04379,-0.04898,-0.06409,-0.06973,-0.0386,-0.05524,-0.14877,0.3392,-0.02014,-0.01923,0.00061,-0.0618,-0.02029,0.00626,-0.03418
7.385,0.01144,-0.04395,-0.05493,-0.05997,-0.07065,-0.03891,-0.06363,-0.04364,0.34424,-0.01984,-0.00671,0.00061,-0.06744,-0.01953,0.00381,-0.00168
7.3855,0.01328,-0.04395,-0.06622,-0.0383,-0.06546,-0.03876,-0.07111,0.0972,0.34409,-0.02106,-0.00031,0.00076,-0.0737,-0.02014,0.00427,0.01312
7.386,0.01083,-0.04288,-0.08392,0.02487,-0.05661,-0.03891,-0.07919,0.18585,0.36026,-0.02274,0.00061,0.00092,-0.07889,-0.02182,0.00595,0.00137
7.3865,0.0032,-0.04211,-0.10056,0.11795,-0.04868,-0.03983,-0.08484,0.16418,0.36713,-0.02426,-0.00092,-0.00015,-0.08041,-0.02472,0.00854,-0.01755
7.387,-0.00595,-0.04333,-0.10254,0.17929,-0.04166,-0.03967,-0.07675,0.06577,0.34378,-0.02579,-0.00259,-0.00214,-0.07767,-0.02594,0.00961,-0.02426
7.3875,-0.01511,-0.04684,-0.08499,0.16312,-0.03693,-0.03967,-0.06454,-0.02335,0.30579,-0.03036,-0.0029,-0.00351,-0.07278,-0.02563,0.00931,-0.02563
7.388,-0.02243,-0.05112,-0.05646,0.0827,-0.03311,-0.03983,-0.0589,-0.05646,0.2739,-0.03372,-0.00229,-0.00305,-0.06866,-0.02365,0.00885,-0.02914
7.3885,-0.02457,-0.05493,-0.02777,-0.01114,-0.03235,-0.04166,-0.03448,-0.05081,0.24887,-0.03418,-0.00229,-0.00153,-0.065,-0.02228,0.00885,-0.02396
7.389,-0.02121,-0.05722,-0.00854,-0.08102,-0.03464,-0.04318,0.03799,-0.04135,0.21881,-0.03021,-0.00366,-0.00061,-0.06149,-0.02319,0.00839,0.00153
7.3895,-0.01572,-0.05692,-0.00549,-0.12558,-0.03799,-0.0444,0.12024,-0.03464,0.17899,-0.02563,-0.00687,-0.00061,-0.05692,-0.02502,0.00839,0.02747
7.39,-0.01373,-0.05234,-0.02075,-0.14404,-0.03677,-0.04593,0.12421,-0.02243,0.1442,-0.02197,-0.01053,-0.00107,-0.05341,-0.02472,0.01007,0.02029
7.3905,-0.01602,-0.04776,-0.04196,-0.12253,-0.03006,-0.04684,0.02747,-0.00549,0.13077,-0.02365,-0.01511,-0.00015,-0.05203,-0.02396,0.01389,-0.01785
7.391,-0.01831,-0.04501,-0.05508,-0.07492,-0.02213,-0.04684,-0.08545,0.00671,0.12741,-0.02579,-0.02396,0.00259,-0.05188,-0.0235,0.01755,-0.05249
7.3915,-0.0174,-0.04456,-0.0528,-0.0621,-0.01877,-0.04501,-0.11887,0.00961,0.11078,-0.02701,-0.03555,0.00427,-0.05219,-0.02335,0.02518,-0.06027
7.392,-0.0145,-0.04456,-0.0441,-0.11032,-0.01968,-0.04227,-0.05753,0.00473,0.08286,-0.02884,-0.04578,0.00412,-0.05157,-0.02167,0.03296,-0.04852
7.3925,-0.01038,-0.04562,-0.03723,-0.16037,-0.02319,-0.04044,0.03922,-0.00336,0.05798,-0.02991,-0.04974,0.00229,-0.04974,-0.01877,0.03448,-0.03159
7.393,-0.00671,-0.05096,-0.03372,-0.15228,-0.02655,-0.04272,0.10681,-0.01282,0.02563,-0.03632,-0.04425,0.00061,-0.04532,-0.01572,0.02197,-0.00778
7.3935,-0.00366,-0.05905,-0.02945,-0.10788,-0.02747,-0.04654,0.12009,-0.02319,-0.02792,-0.04501,-0.03601,0.0,-0.04013,-0.01083,-0.00748,0.01389
7.394,-0.00092,-0.06607,-0.01587,-0.07828,-0.02579,-0.04883,0.09796,-0.03296,-0.08484,-0.05447,-0.03403,0.00031,-0.03479,-0.00534,-0.0473,0.01724
7.3945,-0.00198,-0.06836,0.0058,-0.06927,-0.02426,-0.04837,0.07721,-0.04257,-0.11703,-0.05859,-0.04028,0.0,-0.0322,0.00031,-0.08621,0.00427
7.395,-0.00778,-0.06775,0.02701,-0.05554,-0.02228,-0.04715,0.07233,-0.04868,-0.12085,-0.05676,-0.05051,-0.00046,-0.03143,0.00519,-0.12146,-0.00122
7.3955,-0.01434,-0.06546,0.03891,-0.03876,-0.02136,-0.04639,0.06119,-0.04883,-0.11475,-0.05005,-0.05661,0.00076,-0.02991,0.00732,-0.15015,0.01068
7.396,-0.01755,-0.06165,0.0412,-0.02747,-0.01984,-0.04654,0.02228,-0.04257,-0.11169,-0.04364,-0.05661,0.00351,-0.02701,0.00336,-0.16357,0.01968
7.3965,-0.01587,-0.05692,0.03662,-0.01389,-0.01923,-0.04684,-0.02792,-0.03281,-0.11139,-0.03632,-0.05325,0.00397,-0.02365,-0.00549,-0.15121,-0.00214
7.397,-0.0148,-0.05142,0.02579,0.009,-0.02029,-0.0473,-0.0531,-0.02045,-0.11337,-0.0293,-0.04639,0.0032,-0.02182,-0.01312,-0.10712,-0.05249
7.3975,-0.01572,-0.04639,0.01236,0.02441,-0.02121,-0.04776,-0.04471,-0.00717,-0.121,-0.01862,-0.03815,0.00198,-0.02014,-0.01389,-0.03708,-0.10071
7.398,-0.01617,-0.04303,-0.00153,0.02213,-0.02289,-0.04776,-0.03265,0.00183,-0.14511,-0.00763,-0.02808,0.00122,-0.01801,-0.00748,0.02472,-0.12741
7.3985,-0.01541,-0.0415,-0.01556,0.01389,-0.02533,-0.0473,-0.03387,0.0029,-0.18311,0.00366,-0.01511,0.00015,-0.01495,0.00107,0.03815,-0.14374
7.399,-0.01343,-0.04028,-0.02945,0.01541,-0.02899,-0.04669,-0.03677,-0.00259,-0.2124,0.01038,0.00305,-0.00107,-0.01312,0.00595,-0.00214,-0.16693
7.3995,-0.0119,-0.03891,-0.04028,0.01923,-0.03098,-0.04562,-0.03693,-0.00687,-0.21576,0.01175,0.02319,-0.00076,-0.01221,0.00381,-0.05203,-0.19592
7.4,-0.01144,-0.03769,-0.04349,0.00931,-0.03082,-0.0444,-0.03937,-0.00351,-0.19501,0.01007,0.03693,-0.00031,-0.01175,-0.0029,-0.05829,-0.21423
7.4005,-0.01251,-0.03677,-0.04166,-0.00931,-0.02914,-0.04395,-0.03967,0.00854,-0.13718,0.00732,0.03647,-0.00076,-0.01282,-0.01022,0.0,-0.2092
7.401,-0.01343,-0.0386,-0.03906,-0.02411,-0.02731,-0.04425,-0.02838,0.02136,0.00809,0.00641,0.02655,-0.00153,-0.01633,-0.01373,0.10437,-0.18784
7.4015,-0.01312,-0.03937,-0.03845,-0.03342,-0.02472,-0.04486,-0.01312,0.02487,0.27771,0.00473,0.01633,-0.00015,-0.02197,-0.01419,0.20294,-0.16922
7.402,-0.01297,-0.03937,-0.03983,-0.03906,-0.02274,-0.0444,-0.00656,0.0116,0.61279,0.00137,0.0087,0.00092,-0.02792,-0.0145,0.24734,-0.16098
7.4025,-0.01312,-0.03906,-0.04181,-0.03525,-0.02136,-0.04395,-0.0058,-0.01434,0.59723,-0.00046,-0.00519,0.00122,-0.03204,-0.01617,0.22919,-0.15228
7.403,-0.01404,-0.03876,-0.04333,-0.02151,-0.01984,-0.04379,0.00488,-0.03937,-0.61707,-0.00214,-0.02777,-0.00046,-0.03326,-0.01892,0.16647,-0.13565
7.4035,-0.0148,-0.03845,-0.04486,-0.00977,-0.01877,-0.04501,0.02213,-0.0502,-3.05664,-0.00381,-0.05096,-0.00183,-0.03235,-0.02075,0.09293,-0.11612
7.404,-0.01572,-0.03693,-0.04532,-0.01511,-0.01785,-0.04715,0.02014,-0.04623,-4.90234,-0.00732,-0.06287,-0.00259,-0.02792,-0.02258,0.04272,-0.10101
7.4045,-0.01602,-0.03448,-0.04456,-0.0383,-0.01816,-0.04898,-0.00732,-0.03357,-4.9736,-0.01343,-0.05905,-0.00214,-0.02289,-0.02228,0.03662,-0.08728
7.405,-0.01816,-0.03464,-0.0444,-0.06058,-0.01877,-0.05066,-0.03494,-0.02167,-4.86801,-0.01678,-0.04684,-0.00122,-0.01755,-0.02304,0.05539,-0.07324
7.4055,-0.02045,-0.03571,-0.04395,-0.06088,-0.02075,-0.05112,-0.0386,-0.01663,-4.64188,-0.01953,-0.03418,-0.00107,-0.01511,-0.02441,0.06592,-0.05875
7.406,-0.02487,-0.03464,-0.04364,-0.03845,-0.02243,-0.0499,-0.02823,-0.01541,-4.82056,-0.02106,-0.02457,-0.00031,-0.01389,-0.02487,0.06302,-0.04776
7.4065,-0.02869,-0.0322,-0.04364,-0.00671,-0.02213,-0.04959,-0.02655,-0.00244,-4.79095,-0.0209,-0.01984,0.00031,-0.0145,-0.02319,0.05936,-0.04013
7.407,-0.02975,-0.03098,-0.04501,0.0238,-0.0209,-0.04868,-0.03967,0.02899,-4.37744,-0.01923,-0.0145,0.00122,-0.01633,-0.02151,0.05814,-0.03448
7.4075,-0.0264,-0.03448,-0.04883,0.04349,-0.01938,-0.04852,-0.05798,0.05478,-3.97141,-0.01877,-0.00031,0.00214,-0.01984,-0.01968,0.04395,-0.03021
7.408,-0.02213,-0.03815,-0.05798,0.04181,-0.02075,-0.04807,-0.06897,0.05127,-3.76328,-0.01968,0.02533,0.00198,-0.02548,-0.01984,0.00977,-0.02625
7.4085,-0.01938,-0.03647,-0.07095,0.02151,-0.02426,-0.04837,-0.07629,0.0264,-3.38989,-0.01953,0.05264,0.00275,-0.03204,-0.02029,-0.02991,-0.02136
7.409,-0.01938,-0.03052,-0.0798,0.00153,-0.02869,-0.04883,-0.08591,0.00504,-2.47452,-0.02121,0.06912,0.00275,-0.03677,-0.02014,-0.05783,-0.01526
7.4095,-0.02106,-0.02625,-0.07874,-0.00748,-0.03418,-0.04929,-0.09644,-0.00366,-1.17096,-0.02716,0.0679,0.00275,-0.03952,-0.02014,-0.06775,-0.00824
7.41,-0.02289,-0.03357,-0.07263,-0.00732,-0.03998,-0.04898,-0.09384,-0.01068,0.00824,-0.04028,0.05325,0.00275,-0.04349,-0.02228,-0.06699,0.00137
7.4105,-0.0267,-0.05066,-0.0737,-0.00534,-0.04562,-0.04883,-0.07126,-0.01907,0.76019,-0.05585,0.03265,0.00366,-0.05127,-0.02716,-0.06195,0.01022
7.411,-0.03372,-0.06119,-0.08408,-0.00244,-0.04654,-0.04944,-0.04639,-0.02487,1.18484,-0.06958,0.01587,0.00458,-0.0592,-0.0325,-0.04974,0.01373
7.4115,-0.04181,-0.05508,-0.09933,-0.00137,-0.0444,-0.05005,-0.04929,-0.02289,1.44928,-0.06973,0.00839,0.00473,-0.06073,-0.03387,-0.02289,0.00854
7.412,-0.04837,-0.03647,-0.12039,-0.00412,-0.04211,-0.04868,-0.07935,-0.01617,1.59424,-0.06378,0.00565,0.00427,-0.05325,-0.03082,0.0174,-0.00031
7.4125,-0.04837,-0.01663,-0.15579,-0.00656,-0.04105,-0.04807,-0.09369,-0.00717,1.65222,-0.05478,-0.00595,0.00336,-0.04089,-0.02533,0.05493,-0.00336
7.413,-0.04257,0.00015,-0.20157,-0.00244,-0.03998,-0.04852,-0.06256,0.00092,1.7157,-0.0499,-0.0293,0.0029,-0.03204,-0.02075,0.0827,0.00854
7.4135,-0.0325,0.0116,-0.22873,-0.00122,-0.03677,-0.0473,0.00275,0.00854,1.83762,-0.04898,-0.04745,0.00244,-0.02838,-0.01938,0.10696,0.03143
7.414,-0.02457,0.01266,-0.21317,-0.01236,-0.03235,-0.04471,0.06638,0.01266,1.99173,-0.04959,-0.04547,0.00122,-0.02853,-0.01999,0.12054,0.05081
7.4145,-0.02014,0.00275,-0.15503,-0.03143,-0.02945,-0.04013,0.09735,0.01038,2.12952,-0.04868,-0.02777,0.00107,-0.02975,-0.02106,0.10757,0.0528
7.415,-0.01846,-0.01144,-0.07416,-0.03036,-0.02716,-0.03754,0.08606,0.00412,2.22,-0.04883,-0.01511,0.00229,-0.02884,-0.02151,0.06775,0.03479
7.4155,-0.01831,-0.02731,0.01328,0.01099,-0.02487,-0.03479,0.0528,-0.00137,2.24625,-0.047,-0.01541,0.0032,-0.02716,-0.01984,0.02716,0.00793
7.416,-0.01801,-0.04318,0.09308,0.08087,-0.02304,-0.0354,0.04257,-0.00061,2.21283,-0.03952,-0.01938,0.0029,-0.0267,-0.0177,0.00717,-0.01358
7.4165,-0.01617,-0.05707,0.15335,0.13199,-0.0209,-0.03754,0.07401,0.00443,2.14523,-0.02563,-0.01816,0.00198,-0.02792,-0.01617,0.00122,-0.0264
7.417,-0.01434,-0.06439,0.18585,0.12573,-0.01877,-0.03998,0.11292,0.01038,2.06955,-0.01587,-0.01389,0.00168,-0.03067,-0.01663,-0.009,-0.03311
7.4175,-0.01144,-0.06561,0.1886,0.06638,-0.01556,-0.04211,0.10513,0.0116,1.99173,-0.01709,-0.01129,0.00259,-0.03418,-0.01617,-0.03128,-0.02777
7.418,-0.00793,-0.06485,0.16678,-0.00565,-0.01373,-0.04562,0.05173,0.0029,1.90689,-0.02075,-0.01328,0.00168,-0.03738,-0.01572,-0.06485,-0.00519
7.4185,-0.00397,-0.06638,0.13123,-0.05554,-0.0119,-0.04868,0.0,-0.01022,1.82159,-0.01877,-0.02335,-0.00015,-0.03952,-0.01419,-0.0975,0.02655
7.419,-0.00031,-0.06714,0.09537,-0.07187,-0.00961,-0.05035,-0.02594,-0.02151,1.74835,-0.01526,-0.04379,-0.00214,-0.04074,-0.01389,-0.10162,0.04425
7.4195,0.0029,-0.06409,0.065,-0.05936,-0.00565,-0.05051,-0.03601,-0.02609,1.6861,-0.00809,-0.07172,-0.00412,-0.04013,-0.01465,-0.05997,0.03586
7.42,0.00656,-0.05966,0.03342,-0.02533,-0.00031,-0.05173,-0.03479,-0.0267,1.61942,0.00305,-0.09521,-0.00992,-0.03647,-0.01526,-0.01053,0.01419
7.4205,0.01083,-0.05936,-0.0029,0.02228,0.00107,-0.05356,-0.01984,-0.02472,1.53961,0.01877,-0.1033,-0.02121,-0.0296,-0.01587,-0.01846,-0.00443
7.421,0.01541,-0.06577,-0.03983,0.07095,-0.00275,-0.0531,-0.00229,-0.01923,1.45416,0.02655,-0.09552,-0.03067,-0.02228,-0.01511,-0.08911,-0.01785
7.4215,0.02106,-0.07599,-0.06683,0.09064,-0.01114,-0.05173,-0.00092,-0.01236,1.38199,0.02014,-0.08041,-0.03372,-0.01602,-0.01358,-0.15198,-0.03586
7.422,0.02563,-0.08789,-0.07706,0.05493,-0.01907,-0.0499,-0.0145,-0.00916,1.33392,0.00458,-0.06012,-0.03235,-0.01373,-0.01434,-0.14221,-0.06134
7.4225,0.02701,-0.09369,-0.0737,-0.0267,-0.02548,-0.0499,-0.02243,-0.009,1.31653,-0.00595,-0.03128,-0.03281,-0.01343,-0.01633,-0.06317,-0.08926
7.423,0.02563,-0.0885,-0.06516,-0.10773,-0.03311,-0.05081,-0.01709,-0.00992,1.34781,-0.00015,0.00427,-0.03189,-0.01373,-0.01755,0.03525,-0.1059
7.4235,0.02167,-0.07599,-0.05951,-0.1532,-0.04242,-0.05035,-0.01038,-0.00626,1.4769,0.01129,0.03448,-0.01373,-0.01404,-0.01633,0.10193,-0.10483
7.424,0.01724,-0.06378,-0.06042,-0.15472,-0.05203,-0.04898,-0.01434,0.00015,1.76041,0.01862,0.04211,0.03235,-0.01602,-0.01526,0.12146,-0.08698
7.4245,0.01205,-0.05524,-0.06729,-0.11887,-0.05966,-0.04761,-0.02426,0.0061,2.18018,0.01984,0.01312,0.08667,-0.0209,-0.01434,0.10559,-0.06302
7.425,0.0087,-0.04852,-0.07614,-0.05661,-0.06409,-0.04639,-0.02884,0.00885,2.58682,0.01877,-0.04608,0.10025,-0.02747,-0.01328,0.06302,-0.05142
7.4255,0.00687,-0.04532,-0.08316,-0.0029,-0.06424,-0.04639,-0.02548,0.00595,2.8479,0.02213,-0.09705,0.05844,-0.03342,-0.01221,-0.00504,-0.06424
7.426,0.00473,-0.0473,-0.08392,0.01831,-0.06165,-0.04913,-0.02106,-0.00107,3.0658,0.02823,-0.09933,0.01022,-0.03616,-0.0116,-0.0708,-0.08621
7.4265,0.00275,-0.04791,-0.08301,0.04074,-0.0589,-0.0528,-0.02167,-0.00732,3.49579,0.03479,-0.05753,0.00244,-0.03662,-0.01389,-0.09186,-0.08667
7.427,0.00198,-0.03708,-0.08926,0.10635,-0.05707,-0.05554,-0.02487,-0.01068,4.18396,0.02396,-0.00793,0.01938,-0.03708,-0.01846,-0.05875,-0.056
7.4275,0.0029,-0.01648,-0.11276,0.18021,-0.05463,-0.056,-0.02563,-0.01175,4.75479,0.00473,0.02731,0.02182,-0.03845,-0.02274,0.00046,-0.02563
7.428,0.00488,0.00183,-0.14954,0.17929,-0.05066,-0.05646,-0.02457,-0.0116,4.87869,-0.00687,0.05173,0.00763,-0.04074,-0.02197,0.0473,-0.03204
7.4285,0.00702,0.00977,-0.18127,0.09033,-0.04639,-0.05737,-0.02609,-0.01114,4.71237,-0.00031,0.07614,0.00153,-0.04059,-0.01755,0.06561,-0.07156
7.429,0.00854,0.00824,-0.19012,-0.01236,-0.04196,-0.05814,-0.03082,-0.01068,4.60373,0.01266,0.09918,0.00809,-0.03693,-0.01328,0.06989,-0.10406
7.4295,0.01099,0.00412,-0.17181,-0.06348,-0.03876,-0.05844,-0.03647,-0.00961,4.62723,0.02563,0.11368,0.01373,-0.03296,-0.01343,0.08774,-0.10345
7.43,0.01572,0.00122,-0.13977,-0.07172,-0.03464,-0.05539,-0.03693,-0.009,4.63501,0.02563,0.10742,0.01297,-0.03174,-0.01831,0.11398,-0.08728
7.4305,0.02258,-0.00229,-0.10941,-0.07095,-0.02899,-0.05096,-0.03235,-0.00778,4.57275,0.01587,0.0708,0.0087,-0.03357,-0.02319,0.11673,-0.0766
7.431,0.02914,-0.01205,-0.09018,-0.06851,-0.02579,-0.04654,-0.02914,0.00092,4.51508,-0.0029,0.00946,0.00702,-0.03586,-0.02563,0.08194,-0.07324
7.4315,0.03296,-0.03754,-0.07767,-0.06073,-0.02396,-0.0444,-0.02777,0.01694,4.4693,-0.01907,-0.05127,0.00946,-0.03647,-0.02426,0.03891,-0.07172
7.432,0.03143,-0.07858,-0.05966,-0.05478,-0.02502,-0.04379,-0.02594,0.02579,4.18533,-0.04044,-0.08347,0.01526,-0.03662,-0.0206,0.02136,-0.06973
7.4325,0.02731,-0.11566,-0.03067,-0.05478,-0.02518,-0.0441,-0.01938,0.01923,3.24783,-0.05997,-0.09216,0.01923,-0.03632,-0.01923,0.02594,-0.06882
7.433,0.02274,-0.12604,-0.00031,-0.04761,-0.02426,-0.04379,-0.01511,0.00549,1.68457,-0.08316,-0.09827,0.01495,-0.03571,-0.02045,0.0296,-0.06805
7.4335,0.01892,-0.11307,0.02167,-0.03021,-0.02396,-0.04257,-0.01801,-0.00046,0.11063,-0.10544,-0.09979,0.00519,-0.03418,-0.02167,0.0238,-0.06363
7.434,0.01633,-0.09689,0.03754,-0.01526,-0.02411,-0.0415,-0.02289,0.00229,-0.97137,-0.12848,-0.07462,-0.00504,-0.03403,-0.02197,0.01816,-0.05325
7.4345,0.01358,-0.08484,0.05081,-0.01297,-0.02411,-0.04196,-0.02319,0.00519,-1.67374,-0.13351,-0.02731,-0.01205,-0.03708,-0.01984,0.01602,-0.03906
7.435,0.00809,-0.06592,0.05692,-0.01755,-0.02365,-0.0441,-0.02121,0.00519,-2.37564,-0.12283,-0.00137,-0.01587,-0.03937,-0.01663,0.0145,-0.02518
7.4355,-0.00137,-0.03555,0.04715,-0.01877,-0.02304,-0.04745,-0.02045,0.0032,-3.20526,-0.09247,-0.03098,-0.01785,-0.03845,-0.01251,0.01236,-0.01572
7.436,-0.01175,-0.00854,0.02029,-0.01694,-0.02411,-0.05234,-0.02228,0.00168,-3.95462,-0.06744,-0.08621,-0.01862,-0.0354,-0.00824,0.00839,-0.01343
7.4365,-0.02121,0.00244,-0.01328,-0.0148,-0.02609,-0.05676,-0.02289,0.00076,-4.44672,-0.04837,-0.10498,-0.01831,-0.0325,-0.00702,0.00412,-0.01755
7.437,-0.02975,0.0,-0.03494,-0.01434,-0.02899,-0.06012,-0.02029,0.00015,-4.76456,-0.03754,-0.07156,-0.01694,-0.03143,-0.01053,0.00366,-0.0235
7.4375,-0.03708,-0.00244,-0.03082,-0.01633,-0.03174,-0.06104,-0.01877,0.00107,-4.96628,-0.01938,-0.02106,-0.01526,-0.02975,-0.01511,0.00824,-0.03143
7.438,-0.0412,-0.00198,0.00046,-0.02045,-0.03326,-0.05936,-0.0177,0.00122,-4.97589,-0.00778,0.01862,-0.01404,-0.02655,-0.01831,0.01404,-0.04227
7.4385,-0.03815,-0.00214,0.05234,-0.02289,-0.03403,-0.05554,-0.0174,0.00076,-4.97543,0.00046,0.05798,-0.01099,-0.02319,-0.01923,0.01404,-0.05478
7.439,-0.02747,-0.00641,0.10345,-0.02075,-0.03296,-0.05142,-0.01663,-0.00046,-4.97665,0.00504,0.10544,-0.00549,-0.02258,-0.01968,0.00641,-0.06531
7.4395,-0.01099,-0.00961,0.12299,-0.01465,-0.03082,-0.04654,-0.01572,-0.00015,-4.97665,0.01526,0.13947,0.00244,-0.02396,-0.02045,-0.00336,-0.07034
7.44,0.00366,-0.00946,0.09338,-0.00809,-0.0296,-0.04456,-0.0145,0.00183,-4.97559,0.02045,0.13977,0.00961,-0.02563,-0.02243,-0.00763,-0.06943
7.4405,0.01358,-0.00732,0.0354,-0.00534,-0.03098,-0.04517,-0.01312,0.00366,-4.97498,0.02106,0.11414,0.0119,-0.02609,-0.02365,-0.00656,-0.06546
7.441,0.02045,-0.00473,-0.009,-0.0032,-0.03342,-0.047,-0.01343,0.0029,-4.97467,0.01144,0.08835,0.00885,-0.02686,-0.02243,-0.00824,-0.06454
7.4415,0.02594,-0.00259,-0.02533,-0.00031,-0.03494,-0.04807,-0.01495,0.0,-4.97513,-0.00443,0.07401,0.00366,-0.02747,-0.01984,-0.01144,-0.06668
7.442,0.03006,-0.00336,-0.02884,0.00092,-0.03708,-0.04898,-0.01556,-0.00107,-4.97482,-0.01358,0.05615,-0.00153,-0.02762,-0.01663,-0.01541,-0.07126
7.4425,0.03281,-0.01038,-0.03738,0.00122,-0.03616,-0.05035,-0.01511,0.00076,-4.96201,-0.02426,0.0264,-0.00778,-0.02747,-0.01541,-0.01602,-0.07431
7.443,0.03571,-0.01923,-0.04822,0.00137,-0.0354,-0.05203,-0.01434,0.00397,-4.9176,-0.03632,-0.0029,-0.01251,-0.02365,-0.01617,-0.01495,-0.07202
7.4435,0.03906,-0.02045,-0.05219,0.00183,-0.03387,-0.05341,-0.01343,0.00504,-4.87,-0.04364,-0.01923,-0.01572,-0.02029,-0.01816,-0.01236,-0.0621
7.444,0.0415,-0.01205,-0.05127,0.00015,-0.03326,-0.05264,-0.01404,0.00381,-4.76898,-0.04303,-0.0296,-0.0148,-0.01755,-0.01877,-0.00946,-0.04868
7.4445,0.04166,-0.00275,-0.05066,-0.00519,-0.03418,-0.05219,-0.01373,0.00153,-4.51767,-0.03876,-0.04684,-0.01282,-0.01785,-0.01816,-0.00977,-0.0386
7.445,0.0415,-0.00275,-0.05402,-0.01282,-0.03632,-0.05157,-0.01297,-0.00092,-4.10645,-0.0386,-0.08209,-0.01022,-0.01907,-0.01923,-0.01068,-0.0354
7.4455,0.0415,-0.01648,-0.06317,-0.02151,-0.03815,-0.05295,-0.01083,-0.00122,-3.66135,-0.03677,-0.12405,-0.00687,-0.02014,-0.02258,-0.01221,-0.03448
7.446,0.03967,-0.04257,-0.07477,-0.0296,-0.0386,-0.05234,-0.00931,-0.00244,-3.28369,-0.03555,-0.15533,-0.00214,-0.02274,-0.0264,-0.0119,-0.03174
7.4465,0.03387,-0.07019,-0.08072,-0.03433,-0.03677,-0.0499,-0.00534,-0.00305,-2.94083,-0.03036,-0.1561,0.00229,-0.02579,-0.02884,-0.01114,-0.02731
7.447,0.02472,-0.09094,-0.07629,-0.03372,-0.03525,-0.04715,0.0,-0.00229,-2.59521,-0.02319,-0.12604,0.00549,-0.02747,-0.03006,-0.01022,-0.02228
7.4475,0.01266,-0.09613,-0.06912,-0.02243,-0.0322,-0.04562,0.00336,-0.00153,-2.29568,-0.01663,-0.0795,0.0058,-0.02869,-0.0296,-0.01053,-0.01892
7.448,0.00122,-0.08148,-0.06943,0.00412,-0.03036,-0.04532,-0.00031,-0.00183,-2.09793,-0.009,-0.03098,-0.00198,-0.03174,-0.03036,-0.01114,-0.0174
7.4485,-0.01114,-0.0499,-0.08347,0.04013,-0.03082,-0.04547,-0.01511,-0.00183,-1.96823,-0.00031,0.01953,-0.0206,-0.03525,-0.03143,-0.01022,-0.01389
7.449,-0.02411,-0.01587,-0.10223,0.06409,-0.03479,-0.04807,-0.03555,0.00015,-1.81564,0.01129,0.07477,-0.03922,-0.03937,-0.03128,-0.00732,-0.00732
7.4495,-0.03662,0.00854,-0.11398,0.05508,-0.03754,-0.05066,-0.05264,0.00183,-1.58508,0.0238,0.12985,-0.04044,-0.04257,-0.02869,-0.00473,0.00046
7.45,-0.0444,0.0209,-0.11383,0.0206,-0.04135,-0.05295,-0.04944,0.00031,-1.29471,0.02533,0.16769,-0.0267,-0.04456,-0.02548,-0.00336,0.00504
7.4505,-0.047,0.02243,-0.10574,-0.01053,-0.04044,-0.05203,-0.02182,-0.00122,-0.99686,0.02014,0.16586,-0.00763,-0.04608,-0.02365,0.0,0.0029
7.451,-0.04776,0.01343,-0.09064,-0.01877,-0.03952,-0.04898,0.00763,0.00015,-0.72968,0.01205,0.11887,0.0061,-0.047,-0.02335,0.0061,-0.00015
7.4515,-0.04669,-0.00488,-0.06943,-0.01343,-0.03876,-0.04456,0.01358,0.00473,-0.49179,0.00519,0.05173,0.0145,-0.0473,-0.0235,0.01099,-0.00046
7.452,-0.04166,-0.02167,-0.04532,-0.01068,-0.03937,-0.04288,-0.00015,0.00854,-0.26382,0.00244,-0.00168,0.02182,-0.0444,-0.02304,0.00992,0.00412
7.4525,-0.03433,-0.02563,-0.02075,-0.01465,-0.0383,-0.04303,-0.0116,0.01038,-0.03784,0.01205,-0.03067,0.02838,-0.04074,-0.0209,0.00305,0.01404
7.453,-0.02518,-0.01175,0.00427,-0.01862,-0.03647,-0.04395,-0.01022,0.00961,0.1741,0.01923,-0.0444,0.03357,-0.03662,-0.01755,-0.00275,0.03128
7.4535,-0.02167,0.00824,0.02686,-0.0177,-0.03418,-0.04395,-0.00504,0.01053,0.36102,0.01404,-0.05463,0.03098,-0.03448,-0.01465,-0.00534,0.05096
7.454,-0.02228,0.01923,0.04303,-0.01617,-0.03128,-0.04608,-0.00473,0.00702,0.52628,-0.0116,-0.06592,0.01465,-0.03433,-0.01526,-0.00549,0.06546
7.4545,-0.02472,0.01678,0.04349,-0.01556,-0.03098,-0.04929,-0.00916,-0.0145,0.68848,-0.03204,-0.08377,-0.00595,-0.03479,-0.01999,-0.00458,0.0708
7.455,-0.0267,0.01053,0.02792,-0.01572,-0.03479,-0.05295,-0.01404,-0.07294,0.85541,-0.03799,-0.10391,-0.00793,-0.03281,-0.02426,-0.00076,0.06668
7.4555,-0.02975,0.00793,0.00381,-0.01648,-0.03418,-0.05539,-0.01785,-0.1651,1.01822,-0.02869,-0.11139,0.01328,-0.02823,-0.02533,0.00381,0.05203
7.456,-0.03769,0.0058,-0.01663,-0.01709,-0.03922,-0.05569,-0.01999,-0.26093,1.16486,-0.01999,-0.09415,0.04013,-0.02609,-0.02441,0.00778,0.02396
7.4565,-0.0444,-0.00107,-0.02609,-0.01755,-0.03632,-0.05539,-0.01953,-0.28931,1.29364,-0.01526,-0.05997,0.05234,-0.02792,-0.02518,0.00671,-0.00107
7.457,-0.04593,-0.00946,-0.02686,-0.01617,-0.03632,-0.05524,-0.01556,-0.1561,1.4003,-0.01511,-0.02289,0.04593,-0.03448,-0.02747,0.00259,0.00839
7.4575,-0.03922,-0.00931,-0.02121,-0.01404,-0.03448,-0.05661,-0.01205,0.13931,1.48895,-0.00031,0.01099,0.0296,-0.04074,-0.02838,-0.00153,0.05005
7.458,-0.02945,0.00092,-0.01373,-0.01358,-0.03311,-0.05508,-0.009,0.40329,1.58325,0.01404,0.04044,0.01068,-0.04333,-0.02579,-0.00137,0.07126
7.4585,-0.02167,0.00839,-0.01083,-0.01373,-0.02899,-0.05173,-0.0058,0.42206,1.7955,0.02594,0.06195,-0.0061,-0.04395,-0.02197,0.00198,0.02319
7.459,-0.01694,-0.0032,-0.01877,-0.01495,-0.02686,-0.04715,-0.0058,0.22629,2.35062,0.0296,0.06104,-0.01755,-0.04211,-0.01816,0.00717,-0.07431
7.4595,-0.0119,-0.03479,-0.03418,-0.01419,-0.02365,-0.04303,-0.009,0.04059,3.28629,0.02701,0.03006,-0.01968,-0.03876,-0.01678,0.00809,-0.16037
7.46,-0.00092,-0.07294,-0.05295,-0.01328,-0.02548,-0.03952,-0.01114,-0.01007,4.17145,0.03464,-0.01511,-0.01389,-0.03448,-0.01511,0.00015,-0.19714
7.4605,0.01694,-0.10971,-0.07675,-0.01144,-0.02304,-0.03738,-0.00534,0.00595,4.50714,0.04303,-0.05157,-0.00778,-0.03006,-0.01175,-0.0174,-0.19409
7.461,0.03403,-0.14343,-0.10559,-0.0119,-0.02457,-0.03738,0.00488,-0.00107,4.33289,0.04501,-0.06897,-0.00977,-0.02609,-0.00595,-0.0351,-0.17319
7.4615,0.03967,-0.16937,-0.13,-0.01282,-0.02823,-0.03784,0.00931,-0.0325,4.04327,0.03891,-0.07797,-0.02029,-0.02411,0.00061,-0.0415,-0.14984
7.462,0.03372,-0.17746,-0.14023,-0.01343,-0.03006,-0.0386,0.0058,-0.06348,3.85651,0.02243,-0.08743,-0.03174,-0.02319,0.0032,-0.04791,-0.13245
7.4625,0.02213,-0.16632,-0.13855,-0.01389,-0.03281,-0.03876,0.00198,-0.09445,3.70956,-0.00168,-0.09216,-0.0351,-0.02228,0.00122,-0.07355,-0.12787
7.463,0.01328,-0.14801,-0.1297,-0.0148,-0.03113,-0.03906,-0.00458,-0.11749,3.54294,-0.02426,-0.08347,-0.02701,-0.0209,-0.00259,-0.11108,-0.13443
7.4635,0.00717,-0.13611,-0.11139,-0.01556,-0.03052,-0.03967,-0.02594,-0.09064,3.41644,-0.04166,-0.06302,-0.01297,-0.02121,-0.00717,-0.1149,-0.14252
7.464,0.00336,-0.13107,-0.0824,-0.0145,-0.02609,-0.03983,-0.05508,-0.00565,3.38531,-0.05295,-0.0444,-0.00214,-0.0235,-0.01221,-0.05005,-0.14114
7.4645,0.00229,-0.1207,-0.04562,-0.01328,-0.0296,-0.03952,-0.06836,0.06317,3.42575,-0.05157,-0.04089,0.00275,-0.02747,-0.01724,0.05981,-0.12802
7.465,0.0032,-0.09918,-0.00153,-0.01236,-0.02991,-0.03952,-0.0563,0.04822,3.47336,-0.04349,-0.05295,0.00031,-0.0296,-0.02151,0.14099,-0.10864
7.4655,0.00595,-0.07553,0.05249,-0.01312,-0.02869,-0.04089,-0.03693,-0.00488,3.48114,-0.04272,-0.0679,-0.00397,-0.03113,-0.02411,0.1413,-0.09201
7.466,0.00809,-0.06088,0.11154,-0.01495,-0.02975,-0.04349,-0.02533,-0.00916,3.43964,-0.03586,-0.07034,-0.0058,-0.03098,-0.02625,0.09613,-0.08163
7.4665,0.00824,-0.05814,0.15182,-0.01648,-0.02686,-0.04456,-0.01877,0.03876,3.38531,-0.02747,-0.0592,-0.0032,-0.03036,-0.02777,0.0769,-0.07614
7.467,0.00748,-0.06134,0.14679,-0.01648,-0.0267,-0.04333,-0.00885,0.06546,3.36472,-0.01312,-0.04578,0.00061,-0.03036,-0.02869,0.09827,-0.06912
7.4675,0.00763,-0.06256,0.09476,-0.01663,-0.02213,-0.04181,0.00092,0.04059,3.3812,-0.00977,-0.04868,0.00137,-0.03021,-0.02777,0.10712,-0.06012
7.468,0.00916,-0.06271,0.02792,-0.01587,-0.02274,-0.04166,-0.00092,0.00809,3.37387,-0.02045,-0.07767,-0.00198,-0.03082,-0.02594,0.0708,-0.04913
7.4685,0.01175,-0.06424,-0.02106,-0.01556,-0.01984,-0.04349,-0.01984,0.0061,3.26309,-0.03967,-0.11261,-0.00626,-0.03021,-0.02319,0.0209,-0.04074
7.469,0.01419,-0.06531,-0.04166,-0.01526,-0.02182,-0.04364,-0.0441,0.01389,3.03391,-0.05493,-0.11673,-0.00763,-0.03036,-0.02014,-0.0058,-0.03586
7.4695,0.01694,-0.06042,-0.04211,-0.01511,-0.02045,-0.04395,-0.06012,0.00122,2.75986,-0.05585,-0.07538,-0.00488,-0.03036,-0.01831,-0.00946,-0.03143
7.47,0.01831,-0.04715,-0.0351,-0.01373,-0.02548,-0.0444,-0.06134,-0.02274,2.52151,-0.04517,-0.01053,-0.00092,-0.02914,-0.01846,-0.00793,-0.02579
7.4705,0.01663,-0.0264,-0.02777,-0.01236,-0.02762,-0.04639,-0.05066,-0.0351,2.32697,-0.03174,0.04425,0.00107,-0.02808,-0.02151,-0.01205,-0.01846
7.471,0.01404,-0.00504,-0.02075,-0.01022,-0.02869,-0.04883,-0.02808,-0.03525,2.14966,-0.01755,0.07675,0.00092,-0.02762,-0.02563,-0.01999,-0.00977
7.4715,0.0116,0.01007,-0.01755,-0.00839,-0.03159,-0.0499,0.00732,-0.03616,1.97723,0.0032,0.08926,-0.00122,-0.02808,-0.02594,-0.02014,-0.00412
7.472,0.0087,0.01724,-0.02289,-0.00839,-0.0322,-0.05035,0.04425,-0.03738,1.79794,0.02579,0.08835,-0.00244,-0.0296,-0.02457,-0.00168,-0.00549
7.4725,0.00443,0.01633,-0.03754,-0.00854,-0.03799,-0.05035,0.05341,-0.02991,1.604,0.04578,0.07675,-0.00366,-0.03067,-0.0235,0.01953,-0.01205
7.473,-0.00046,0.01175,-0.0528,-0.00824,-0.04272,-0.05035,0.02075,-0.01648,1.4064,0.05432,0.05249,-0.00366,-0.03036,-0.02228,0.01755,-0.02136
7.4735,-0.00702,0.00641,-0.06073,-0.00809,-0.04807,-0.05051,-0.01801,-0.00565,1.21735,0.056,0.01709,-0.00198,-0.02747,-0.02075,-0.01541,-0.03098
7.474,-0.01434,0.00092,-0.06012,-0.00717,-0.05096,-0.05096,-0.01587,-0.00275,1.03149,0.05188,-0.01358,0.00076,-0.02518,-0.01892,-0.05463,-0.03799
7.4745,-0.02243,-0.00656,-0.05783,-0.00671,-0.05142,-0.05188,0.02396,-0.0029,0.83771,0.05508,-0.02487,0.00443,-0.0235,-0.01923,-0.06241,-0.04074
7.475,-0.02914,-0.01663,-0.05981,-0.00809,-0.05402,-0.05035,0.04608,-0.009,0.64484,0.05447,-0.01968,0.0061,-0.02365,-0.02258,-0.01694,-0.04013
7.4755,-0.02945,-0.02991,-0.06012,-0.01129,-0.05264,-0.04379,0.02045,-0.02426,0.46478,0.04776,-0.01099,0.00626,-0.02304,-0.02502,0.05524,-0.03677
7.476,-0.02731,-0.04044,-0.05219,-0.01282,-0.05157,-0.03555,-0.02945,-0.0444,0.28748,0.04547,-0.01282,0.00549,-0.02457,-0.02502,0.09705,-0.03189
7.4765,-0.02625,-0.04486,-0.03952,-0.01328,-0.04562,-0.03296,-0.05737,-0.05142,0.09094,0.04562,-0.02701,0.00504,-0.0267,-0.02228,0.08331,-0.02731
7.477,-0.02838,-0.04181,-0.03357,-0.01312,-0.04105,-0.03723,-0.05432,-0.03036,-0.13229,0.0473,-0.04562,0.00366,-0.02869,-0.01923,0.04791,-0.02304
7.4775,-0.03342,-0.03891,-0.03372,-0.01297,-0.03799,-0.04532,-0.04013,0.00839,-0.37384,0.047,-0.05295,0.00107,-0.0293,-0.01816,0.03159,-0.02472
7.478,-0.03998,-0.04486,-0.0293,-0.01297,-0.03937,-0.05203,-0.04074,0.03555,-0.62332,0.04303,-0.03601,-0.00107,-0.03021,-0.01862,0.04059,-0.03021
7.4785,-0.04562,-0.0621,-0.01663,-0.01358,-0.04044,-0.05417,-0.06104,0.03052,-0.86166,0.03281,-0.00565,-0.00259,-0.03113,-0.01999,0.05798,-0.03189
7.479,-0.04517,-0.07782,-0.00809,-0.01404,-0.04135,-0.05356,-0.08575,0.00824,-1.05804,0.01953,-0.00061,-0.00214,-0.0296,-0.02106,0.07263,-0.02716
7.4795,-0.03616,-0.07599,-0.01511,-0.01312,-0.04257,-0.05188,-0.08881,0.00565,-1.20575,0.009,-0.04868,0.00061,-0.02625,-0.02228,0.07782,-0.01862
7.48,-0.02289,-0.05585,-0.03586,-0.01312,-0.04211,-0.05112,-0.04974,0.02884,-1.33591,0.00381,-0.1207,0.00336,-0.02243,-0.02228,0.06439,-0.01251
7.4805,-0.01236,-0.03357,-0.05615,-0.01419,-0.04257,-0.05096,0.01434,0.04044,-1.48682,-0.00412,-0.15213,0.00595,-0.01999,-0.02228,0.02975,-0.0116
7.481,-0.0058,-0.02563,-0.06149,-0.01511,-0.04181,-0.05142,0.06271,0.00641,-1.65543,-0.00961,-0.11429,0.0058,-0.02045,-0.02075,-0.01633,-0.01511
7.4815,0.00092,-0.03082,-0.04517,-0.01572,-0.04257,-0.05173,0.08331,-0.06516,-1.82098,-0.01663,-0.03937,0.00229,-0.02289,-0.01999,-0.05951,-0.01724
7.482,0.01373,-0.03799,-0.01282,-0.01617,-0.04135,-0.0528,0.09979,-0.14694,-1.97281,-0.01648,0.02457,-0.0058,-0.02716,-0.01953,-0.08926,-0.01389
7.4825,0.02869,-0.04257,0.02319,-0.01724,-0.04196,-0.05325,0.11932,-0.21011,-2.11227,-0.0174,0.06424,-0.01831,-0.03235,-0.01968,-0.10788,0.00015
7.483,0.03586,-0.04349,0.05386,-0.0177,-0.04074,-0.05096,0.1149,-0.21408,-2.23495,-0.02106,0.08347,-0.03082,-0.03799,-0.01953,-0.11902,0.03082
7.4835,0.02808,-0.04242,0.06897,-0.0174,-0.04166,-0.04639,0.0769,-0.12604,-2.33597,-0.02777,0.08926,-0.03311,-0.04501,-0.0209,-0.11719,0.06638
7.484,0.01144,-0.04196,0.05554,-0.01572,-0.04105,-0.04318,0.02869,0.02487,-2.41455,-0.03387,0.08606,-0.01724,-0.05188,-0.02319,-0.08163,0.08972
7.4845,-0.00443,-0.04608,0.01083,-0.01419,-0.03998,-0.04227,-0.00641,0.15579,-2.47391,-0.04776,0.07889,0.00641,-0.05798,-0.02594,0.00336,0.0882
7.485,-0.01022,-0.05615,-0.04837,-0.01434,-0.03922,-0.04379,-0.03586,0.18829,-2.51572,-0.05493,0.06561,0.01968,-0.06119,-0.02563,0.11581,0.06607
7.4855,-0.00473,-0.07034,-0.09445,-0.01526,-0.03632,-0.04578,-0.06882,0.09888,-2.54608,-0.06302,0.04547,0.02045,-0.06149,-0.02304,0.19196,0.03693
7.486,0.00732,-0.08667,-0.11108,-0.01678,-0.03342,-0.04761,-0.09583,-0.05035,-2.56882,-0.07416,0.0293,0.02731,-0.05951,-0.02106,0.16602,0.01785
7.4865,0.01999,-0.10345,-0.1088,-0.0177,-0.03189,-0.04715,-0.1001,-0.13809,-2.58133,-0.08865,0.03036,0.0412,-0.05676,-0.02136,0.03723,0.01648
7.487,0.02426,-0.11276,-0.10422,-0.01953,-0.03067,-0.04501,-0.08636,-0.10315,-2.58087,-0.11063,0.04517,0.04318,-0.0531,-0.02213,-0.10925,0.02518
7.4875,0.01663,-0.10239,-0.10117,-0.02106,-0.02975,-0.04471,-0.07278,-0.01877,-2.56378,-0.1239,0.05722,0.02579,-0.04791,-0.01862,-0.17868,0.02396
7.488,-0.00076,-0.07202,-0.08881,-0.01999,-0.02762,-0.04669,-0.05524,-0.00046,-2.5293,-0.12695,0.05508,0.009,-0.04211,-0.01266,-0.16052,0.00992
7.4885,-0.0209,-0.03967,-0.06775,-0.01633,-0.02487,-0.05035,-0.02319,-0.03891,-2.48154,-0.12222,0.0412,0.01343,-0.03799,-0.00702,-0.12177,-0.00809
7.489,-0.03586,-0.02472,-0.05463,-0.01236,-0.02502,-0.05417,0.00732,-0.01572,-2.42813,-0.11658,0.02518,0.0325,-0.03693,-0.00961,-0.10788,-0.02563
7.4895,-0.0444,-0.02441,-0.065,-0.01144,-0.02747,-0.05402,0.00687,0.103,-2.3735,-0.11063,0.01083,0.04318,-0.03815,-0.01953,-0.08682,-0.05615
7.49,-0.04364,-0.02853,-0.09293,-0.01038,-0.02823,-0.05051,-0.01266,0.20309,-2.31201,-0.08926,-0.00473,0.03357,-0.03876,-0.03006,-0.01419,-0.10025
7.4905,-0.03357,-0.03632,-0.11475,-0.00641,-0.02686,-0.04593,-0.01144,0.17715,-2.24045,-0.05844,-0.02777,0.01114,-0.04074,-0.0351,0.1004,-0.13748
7.491,-0.01709,-0.05432,-0.11719,-0.00031,-0.02213,-0.0415,0.0174,0.06714,-2.16019,-0.03082,-0.05569,-0.00519,-0.04257,-0.03693,0.17181,-0.14542
7.4915,0.00031,-0.07751,-0.11032,0.00229,-0.0177,-0.03937,0.03632,-0.01831,-2.07306,-0.02197,-0.08774,-0.00946,-0.04379,-0.03845,0.12009,-0.12527
7.492,0.01389,-0.09064,-0.10666,0.0,-0.01877,-0.03876,0.01877,-0.03647,-1.97708,-0.02563,-0.13855,-0.00641,-0.04211,-0.03693,-0.04379,-0.09369
7.4925,0.02457,-0.08972,-0.10361,-0.00336,-0.01953,-0.04074,-0.01877,-0.01312,-1.87302,-0.02304,-0.21042,-0.0032,-0.03754,-0.02838,-0.21576,-0.0705
7.493,0.02991,-0.07919,-0.09033,-0.00336,-0.01877,-0.04196,-0.04929,0.03235,-1.7662,-0.00092,-0.25742,-0.00656,-0.0325,-0.01678,-0.29526,-0.07217
7.4935,0.03021,-0.065,-0.06454,-0.00137,-0.01343,-0.0412,-0.05951,0.08148,-1.66,0.03098,-0.22217,-0.01831,-0.03006,-0.01236,-0.2597,-0.10101
7.494,0.02625,-0.05081,-0.03876,-0.00015,-0.01373,-0.03922,-0.04639,0.08804,-1.5567,0.06042,-0.11078,-0.03326,-0.02975,-0.01709,-0.15472,-0.13504
7.4945,0.02045,-0.03876,-0.01923,-0.0029,-0.01175,-0.03662,-0.00946,0.03632,-1.45767,0.07416,0.01175,-0.04196,-0.03067,-0.02686,-0.02411,-0.14862
7.495,0.0177,-0.03265,-0.00549,-0.00656,-0.0119,-0.03555,0.03067,-0.02274,-1.36078,0.07095,0.0946,-0.03998,-0.03036,-0.03281,0.12039,-0.1413
7.4955,0.01587,-0.03082,0.0061,-0.00992,-0.01144,-0.03708,0.04074,-0.0351,-1.26343,0.06241,0.12344,-0.03418,-0.02914,-0.03128,0.27069,-0.13474
7.496,0.01251,-0.02731,0.01862,-0.01251,-0.00946,-0.04013,0.01038,-0.01129,-1.16943,0.04593,0.11154,-0.0296,-0.02777,-0.01923,0.38788,-0.14221
7.4965,0.00656,-0.02121,0.03342,-0.01312,-0.009,-0.04425,-0.02548,0.00732,-1.07956,0.0238,0.07217,-0.02563,-0.02701,-0.0058,0.41656,-0.15213
7.497,0.00061,-0.01785,0.04532,-0.01068,-0.00336,-0.04547,-0.03296,0.00809,-0.9845,-0.00473,0.0145,-0.01907,-0.02747,-0.00336,0.3363,-0.1503
7.4975,-0.00381,-0.01724,0.04822,-0.00488,-0.00122,-0.04639,-0.02151,0.00717,-0.88089,-0.02289,-0.07126,-0.00534,-0.02686,-0.01266,0.19913,-0.13931
7.498,-0.00717,-0.01678,0.04211,-0.00137,0.00443,-0.0473,-0.01526,0.01038,-0.77271,-0.02487,-0.19409,0.01694,-0.02625,-0.02365,0.09811,-0.13123
7.4985,-0.00854,-0.01358,0.0325,-0.00168,0.00519,-0.047,-0.02457,0.00687,-0.66971,-0.00763,-0.30594,0.0386,-0.02518,-0.02731,0.07507,-0.13
7.499,-0.01007,-0.00946,0.02182,-0.00305,0.00534,-0.04669,-0.03265,-0.00244,-0.57816,0.0087,-0.32104,0.04089,-0.02502,-0.02182,0.07751,-0.12802
7.4995,-0.0119,-0.00717,0.009,-0.0032,0.0029,-0.04761,-0.02579,-0.00336,-0.50293,0.00946,-0.20187,0.02197,-0.02411,-0.01144,0.04852,-0.11719
7.5,-0.01358,-0.00717,-0.00473,-0.00153,0.00076,-0.04913,-0.0119,0.00977,-0.42435,0.00015,-0.01266,-0.00351,-0.02319,-0.00259,-0.00061,-0.10071
7.5005,-0.01419,-0.009,-0.01678,-0.00015,-0.0058,-0.05066,-0.00732,0.02487,-0.23285,-0.00671,0.1535,-0.01907,-0.02243,0.00061,-0.03708,-0.08606
7.501,-0.01404,-0.01083,-0.02853,-0.00122,-0.01068,-0.0502,-0.01389,0.02655,0.23483,-0.00671,0.2388,-0.02457,-0.02396,-0.00275,-0.07172,-0.07568
7.5015,-0.01434,-0.01297,-0.03708,-0.0032,-0.0148,-0.04898,-0.01816,0.01221,0.94742,-0.00458,0.25101,-0.03235,-0.02487,-0.00778,-0.1297,-0.06638
7.502,-0.01404,-0.01709,-0.04318,-0.00534,-0.0238,-0.04761,-0.01389,-0.00946,1.60126,-0.01007,0.23819,-0.04715,-0.02625,-0.00916,-0.1799,-0.05463
7.5025,-0.01312,-0.02014,-0.0444,-0.0058,-0.03082,-0.04761,-0.00885,-0.02853,1.92871,-0.02808,0.23682,-0.05722,-0.02899,-0.00717,-0.16663,-0.04166
7.503,-0.01266,-0.02136,-0.04318,-0.00504,-0.04074,-0.04807,-0.01114,-0.03845,1.97479,-0.0531,0.24353,-0.05508,-0.03082,-0.00427,-0.06927,-0.02853
7.5035,-0.01282,-0.02014,-0.04562,-0.00519,-0.04562,-0.04868,-0.01678,-0.04349,1.95526,-0.07568,0.22736,-0.04288,-0.03098,-0.00275,0.08408,-0.01251
7.504,-0.01343,-0.01953,-0.06073,-0.00671,-0.05005,-0.04944,-0.01831,-0.04517,1.97937,-0.09399,0.17715,-0.0293,-0.03006,-0.00168,0.22186,0.00595
7.5045,-0.01328,-0.02106,-0.09094,-0.00946,-0.05295,-0.05127,-0.01572,-0.04562,2.00302,-0.1178,0.10956,-0.02106,-0.02808,-0.00153,0.25116,0.01999
7.505,-0.01328,-0.02457,-0.12436,-0.0116,-0.05646,-0.0528,-0.01511,-0.04623,1.9754,-0.13977,0.04898,-0.01373,-0.02686,-0.00229,0.13718,0.02426
7.5055,-0.01404,-0.02914,-0.14557,-0.01404,-0.06256,-0.05325,-0.01877,-0.05432,1.90369,-0.14679,0.00763,0.00122,-0.02655,-0.00259,-0.02625,0.01801
7.506,-0.01526,-0.0322,-0.14725,-0.01602,-0.07034,-0.0531,-0.0209,-0.07217,1.8074,-0.13565,-0.01831,0.03159,-0.02686,-0.00183,-0.10422,0.00793
7.5065,-0.01678,-0.03433,-0.13168,-0.01709,-0.07446,-0.05341,-0.02274,-0.09583,1.69113,-0.10849,-0.04181,0.06989,-0.02777,-0.00061,-0.08179,0.00137
7.507,-0.01801,-0.03448,-0.10162,-0.01785,-0.07614,-0.05356,-0.02533,-0.12436,1.56372,-0.07843,-0.07523,0.08987,-0.02914,-0.00214,-0.03967,0.00336
7.5075,-0.01907,-0.03418,-0.0589,-0.01617,-0.07843,-0.05127,-0.03006,-0.15533,1.44104,-0.05524,-0.11185,0.07523,-0.02899,-0.00702,-0.00473,0.0116
7.508,-0.01862,-0.03464,-0.01083,-0.01495,-0.08133,-0.04898,-0.02731,-0.18112,1.32767,-0.03296,-0.12802,0.04013,-0.02686,-0.01022,0.06409,0.01984
7.5085,-0.0174,-0.03433,0.03342,-0.01389,-0.08301,-0.04883,-0.01251,-0.19516,1.21872,-0.01343,-0.10284,0.00931,-0.02487,-0.0119,0.14175,0.02457
7.509,-0.01648,-0.0354,0.06363,-0.0145,-0.07828,-0.05142,0.00275,-0.16785,1.10611,-0.00092,-0.04791,-0.00732,-0.02441,-0.01205,0.13199,0.02731
7.5095,-0.01526,-0.03601,0.07965,-0.01358,-0.06897,-0.0528,-0.00366,-0.03052,0.9877,0.00229,-0.00137,-0.01251,-0.02441,-0.01251,0.02411,0.02823
7.51,-0.0145,-0.03723,0.0827,-0.00992,-0.06012,-0.05188,-0.03021,0.21744,0.8696,-0.00793,0.01602,-0.00916,-0.02335,-0.01297,-0.05463,0.02777
7.5105,-0.01312,-0.03784,0.07446,-0.0058,-0.05234,-0.05188,-0.05447,0.40756,0.75378,-0.02304,0.01343,-0.00061,-0.0206,-0.01343,-0.01495,0.0386
7.511,-0.01282,-0.03769,0.05905,-0.00549,-0.04944,-0.05157,-0.05219,0.35965,0.64026,-0.03448,0.00885,0.00854,-0.01923,-0.01328,0.07782,0.06699
7.5115,-0.01389,-0.03784,0.04272,-0.00809,-0.03998,-0.0499,-0.02396,0.12894,0.5275,-0.0351,0.00183,0.01816,-0.02365,-0.01343,0.13062,0.08469
7.512,-0.01419,-0.03845,0.02502,-0.0116,-0.03754,-0.0473,0.00702,-0.05569,0.41824,-0.02533,-0.02579,0.02487,-0.0351,-0.01434,0.14679,0.06119
7.5125,-0.01266,-0.03906,0.00427,-0.01434,-0.03357,-0.04562,0.01709,-0.0766,0.31509,-0.01495,-0.07339,0.02457,-0.05081,-0.01511,0.15305,0.02106
7.513,-0.01083,-0.03906,-0.01709,-0.01648,-0.02487,-0.04501,-0.00504,-0.01724,0.22018,-0.01434,-0.1152,0.01328,-0.06683,-0.01617,0.12054,0.02274
7.5135,-0.00916,-0.03891,-0.03174,-0.01678,-0.02182,-0.04562,-0.05783,0.01526,0.13077,-0.02411,-0.12543,-0.00656,-0.07599,-0.01617,0.0383,0.0766
7.514,-0.00809,-0.03967,-0.03616,-0.01587,-0.01785,-0.04715,-0.12833,0.01282,0.04303,-0.03571,-0.10056,-0.02548,-0.07431,-0.01633,-0.03525,0.1355
7.5145,-0.00778,-0.03922,-0.03265,-0.01434,-0.01526,-0.04852,-0.17334,0.00687,-0.04745,-0.03448,-0.06729,-0.03784,-0.06592,-0.0174,-0.05737,0.16678
7.515,-0.00824,-0.04013,-0.02823,-0.01404,-0.01236,-0.0499,-0.13763,0.00244,-0.13397,-0.02792,-0.04227,-0.03937,-0.05951,-0.01831,-0.05737,0.18631
7.5155,-0.00839,-0.04333,-0.02716,-0.01373,-0.01007,-0.05066,-0.02197,-0.00519,-0.20523,-0.02792,-0.02899,-0.0293,-0.05661,-0.01831,-0.07156,0.19119
7.516,-0.0087,-0.04684,-0.02884,-0.01419,-0.01251,-0.0502,0.08591,-0.00992,-0.26138,-0.05051,-0.02396,-0.01343,-0.05524,-0.01816,-0.0882,0.1329
7.5165,-0.00809,-0.04913,-0.03159,-0.01328,-0.00992,-0.04929,0.09567,-0.00961,-0.31219,-0.09384,-0.02014,-0.00504,-0.05341,-0.01816,-0.08499,-0.00168
7.517,-0.00702,-0.04913,-0.03418,-0.0119,-0.00748,-0.04883,0.01205,-0.01251,-0.36133,-0.1355,-0.01099,-0.01251,-0.0502,-0.02029,-0.06958,-0.13687
7.5175,-0.00748,-0.04822,-0.03647,-0.00946,-0.00839,-0.0499,-0.08682,-0.02747,-0.40771,-0.15762,-0.00046,-0.0206,-0.04776,-0.02258,-0.05234,-0.19531
7.518,-0.00809,-0.04883,-0.04135,-0.00854,-0.01022,-0.05005,-0.12909,-0.05463,-0.44846,-0.15717,0.00244,-0.01434,-0.04547,-0.02457,-0.02747,-0.19882
7.5185,-0.00885,-0.0499,-0.04822,-0.00885,-0.00977,-0.04944,-0.08255,-0.08774,-0.48309,-0.13916,-0.00366,0.00183,-0.04196,-0.02457,-0.01114,-0.21942
7.519,-0.0087,-0.04852,-0.05341,-0.00961,-0.00687,-0.04807,0.02808,-0.12436,-0.51239,-0.10773,-0.01282,0.00198,-0.03952,-0.02228,-0.04211,-0.27374
7.5195,-0.00656,-0.04562,-0.05463,-0.00992,-0.00275,-0.04639,0.12192,-0.15228,-0.53482,-0.06958,-0.01923,-0.0206,-0.03799,-0.01877,-0.10605,-0.31754
7.52,-0.00381,-0.04333,-0.05173,-0.00992,-0.00259,-0.04562,0.12985,-0.13626,-0.54214,-0.03281,-0.02487,-0.04456,-0.03937,-0.01434,-0.12238,-0.32654
7.5205,-0.0029,-0.04303,-0.04837,-0.00885,-0.0058,-0.04547,0.07568,-0.04013,-0.52612,-0.00626,-0.03189,-0.05402,-0.04456,-0.01236,-0.04944,-0.31342
7.521,-0.0032,-0.04456,-0.04471,-0.00763,-0.00961,-0.04425,0.04089,0.09384,-0.4892,0.00732,-0.04105,-0.0531,-0.04959,-0.01205,0.02975,-0.29007
7.5215,-0.00305,-0.04623,-0.04456,-0.00412,-0.01663,-0.04395,0.04974,0.15915,-0.45181,0.01129,-0.05219,-0.03998,-0.05173,-0.01038,0.01785,-0.2562
7.522,-0.0032,-0.04745,-0.04471,-0.00015,-0.01617,-0.0444,0.05417,0.10941,-0.42709,0.00732,-0.06424,0.0,-0.05035,-0.00488,-0.05447,-0.21347
7.5225,-0.0029,-0.04715,-0.04288,0.00122,-0.02228,-0.0444,0.0235,0.01602,-0.39429,0.00031,-0.07523,0.06287,-0.04807,0.00168,-0.07843,-0.16876
7.523,-0.0029,-0.04517,-0.0412,0.00092,-0.02075,-0.04517,-0.0145,-0.03494,-0.30884,-0.00214,-0.07751,0.10483,-0.04608,0.00397,-0.03433,-0.12451
7.5235,-0.00275,-0.04456,-0.04028,0.00015,-0.02167,-0.04593,-0.02579,-0.04456,-0.1384,0.0,-0.0679,0.09064,-0.0444,0.00137,-0.01266,-0.08041
7.524,-0.00214,-0.04471,-0.04105,0.00076,-0.01984,-0.04623,-0.00671,-0.0528,0.17044,-0.00015,-0.04974,0.04349,-0.04013,-0.00183,-0.05493,-0.04654
7.5245,-0.00137,-0.0444,-0.04211,0.00015,-0.01266,-0.04684,0.02319,-0.04944,0.82031,-0.00244,-0.03067,0.01755,-0.03616,-0.00488,-0.08514,-0.04028
7.525,-0.00153,-0.04364,-0.04059,-0.00183,-0.0119,-0.04852,0.03647,-0.0029,2.0932,-0.00244,-0.01587,0.02014,-0.03418,-0.00885,-0.01831,-0.06287
7.5255,-0.00214,-0.04318,-0.03754,-0.00458,-0.01266,-0.05157,0.00946,0.06653,3.77243,0.00031,-0.00977,0.02029,-0.03433,-0.01389,0.11642,-0.09766
7.526,-0.00305,-0.04318,-0.03632,-0.00626,-0.02136,-0.05203,-0.04578,0.09735,4.94156,0.0032,-0.02335,0.01038,-0.03433,-0.01877,0.20081,-0.12451
7.5265,-0.00336,-0.04318,-0.03815,-0.00748,-0.02563,-0.05188,-0.08591,0.06973,4.99985,-0.0032,-0.05997,0.01434,-0.03265,-0.02228,0.16525,-0.13718
7.527,-0.00229,-0.04333,-0.03998,-0.00961,-0.03265,-0.05127,-0.08026,0.01602,4.51859,-0.01297,-0.1033,0.0383,-0.03159,-0.02472,0.06088,-0.13931
7.5275,-0.00137,-0.04272,-0.03967,-0.01221,-0.03571,-0.05096,-0.03799,-0.01785,3.6792,-0.01617,-0.13184,0.0621,-0.03189,-0.02686,-0.0087,-0.13168
7.528,-0.00122,-0.04257,-0.03754,-0.01556,-0.04227,-0.05249,0.01831,-0.01678,2.46475,-0.00427,-0.14252,0.06973,-0.03418,-0.03067,-0.00549,-0.11276
7.5285,0.00015,-0.04288,-0.03494,-0.0177,-0.04547,-0.05386,0.06943,0.00092,0.89401,0.00702,-0.13275,0.0618,-0.03433,-0.03403,0.01633,-0.08591
7.529,0.00076,-0.04211,-0.03418,-0.01831,-0.04959,-0.0531,0.08255,0.00778,-0.33066,0.00641,-0.09445,0.04501,-0.03326,-0.03708,0.00137,-0.06302
7.5295,0.0,-0.04196,-0.03479,-0.01678,-0.05234,-0.05157,0.04211,-0.00427,-0.64651,-0.00671,-0.03708,0.02991,-0.03036,-0.03922,-0.04745,-0.05035
7.53,-0.00061,-0.03998,-0.0351,-0.01389,-0.05066,-0.04898,-0.01877,-0.02106,-0.60913,-0.02609,0.01404,0.0235,-0.02869,-0.04227,-0.09735,-0.04211
7.5305,-0.00061,-0.0383,-0.03326,-0.01144,-0.04395,-0.04852,-0.04501,-0.02426,-1.14609,-0.04501,0.04669,0.02548,-0.02625,-0.04196,-0.13458,-0.03143
7.531,0.00046,-0.03906,-0.03036,-0.00885,-0.03952,-0.04837,-0.02258,-0.01343,-2.22687,-0.05402,0.07477,0.02762,-0.02182,-0.03464,-0.14923,-0.01984
7.5315,0.00137,-0.03937,-0.03082,-0.00626,-0.03387,-0.04822,0.0174,0.0,-2.92618,-0.05478,0.10971,0.02228,-0.01572,-0.02396,-0.11322,-0.00793
7.532,0.00076,-0.03937,-0.03296,-0.0058,-0.02914,-0.0473,0.04074,0.00473,-2.64404,-0.04959,0.13565,0.01068,-0.01251,-0.0177,-0.02182,0.00366
7.5325,0.00015,-0.04044,-0.03448,-0.00748,-0.02792,-0.0444,0.03036,0.00397,-1.82388,-0.04364,0.1326,-0.00259,-0.01221,-0.01694,0.05875,0.01282
7.533,0.0,-0.04257,-0.03387,-0.00885,-0.02823,-0.04196,0.0029,0.00229,-1.30661,-0.03067,0.10864,-0.01846,-0.0145,-0.01938,0.06607,0.0148
7.5335,0.00137,-0.0441,-0.0325,-0.01114,-0.03021,-0.04013,-0.01755,0.00107,-1.30234,-0.01648,0.08224,-0.03632,-0.01633,-0.02197,0.00809,0.00824
7.534,0.00107,-0.0441,-0.0322,-0.0148,-0.0293,-0.03952,-0.02335,-0.00763,-1.38824,-0.00595,0.06439,-0.05295,-0.01678,-0.02396,-0.07568,-0.00107
7.5345,-0.00061,-0.04425,-0.03143,-0.01923,-0.02777,-0.03983,-0.02426,-0.02487,-1.28998,-0.00473,0.05005,-0.06027,-0.01175,-0.02563,-0.16586,-0.00595
7.535,-0.0029,-0.04501,-0.03082,-0.02167,-0.02563,-0.04028,-0.03098,-0.03647,-1.14563,-0.00504,0.03525,-0.05539,0.00015,-0.02625,-0.22797,-0.0029
7.5355,-0.00504,-0.04501,-0.03113,-0.02274,-0.02197,-0.04196,-0.03998,-0.02335,-1.10504,-0.00351,0.01984,-0.04379,0.01221,-0.02396,-0.22583,0.00671
7.536,-0.00671,-0.04639,-0.03098,-0.02472,-0.02045,-0.0441,-0.04517,0.01495,-1.09467,0.00183,0.00076,-0.03281,0.01678,-0.01938,-0.16357,0.01999
7.5365,-0.00748,-0.04684,-0.03174,-0.02563,-0.01938,-0.04547,-0.04242,0.05127,-1.01532,0.01312,-0.0209,-0.02502,0.01434,-0.01389,-0.07385,0.03799
7.537,-0.00702,-0.04654,-0.0325,-0.02548,-0.01755,-0.04669,-0.03952,0.04913,-0.88531,0.0325,-0.04105,-0.02228,0.00854,-0.01022,0.03937,0.06348
7.5375,-0.00549,-0.04593,-0.03174,-0.02472,-0.02228,-0.04852,-0.03525,-0.00259,-0.76431,0.05798,-0.05493,-0.02426,0.00092,-0.0119,0.16296,0.09659
7.538,-0.00366,-0.04471,-0.03113,-0.02228,-0.02686,-0.05142,-0.0293,-0.08469,-0.67596,0.08743,-0.06393,-0.02502,-0.01038,-0.01663,0.23987,0.12817
7.5385,-0.00336,-0.04425,-0.0325,-0.01953,-0.02884,-0.05325,-0.02258,-0.1767,-0.62103,0.11215,-0.06729,-0.01602,-0.02396,-0.02106,0.23453,0.14725
7.539,-0.00458,-0.04501,-0.0325,-0.01312,-0.02808,-0.05386,-0.01877,-0.25818,-0.58411,0.12802,-0.06317,0.0029,-0.03647,-0.02319,0.18448,0.15579
7.5395,-0.0058,-0.04501,-0.03265,-0.00443,-0.02899,-0.05432,-0.01953,-0.26352,-0.54245,0.13748,-0.04593,0.01068,-0.04379,-0.02197,0.14969,0.16693
7.54,-0.00488,-0.04333,-0.03281,0.00275,-0.02823,-0.05539,-0.02136,-0.11978,-0.49286,0.14114,-0.01999,-0.00366,-0.04807,-0.02136,0.1326,0.18951
7.5405,-0.00244,-0.04257,-0.03479,0.00168,-0.03128,-0.05615,-0.01984,0.12451,-0.46295,0.13901,0.0061,-0.02457,-0.05295,-0.02335,0.1123,0.21194
7.541,-0.00031,-0.04333,-0.03616,-0.00732,-0.0325,-0.05508,-0.01938,0.27603,-0.47485,0.1268,0.0264,-0.0264,-0.05798,-0.02579,0.09781,0.20905
7.5415,-0.00168,-0.04333,-0.03479,-0.01633,-0.03311,-0.0528,-0.03128,0.20187,-0.51224,0.10544,0.03494,-0.00854,-0.06073,-0.02731,0.11398,0.1712
7.542,-0.00504,-0.04196,-0.03174,-0.02243,-0.03098,-0.05234,-0.05035,0.00885,-0.54123,0.08011,0.02655,0.00534,-0.06134,-0.0267,0.1442,0.11429
7.5425,-0.009,-0.03967,-0.03128,-0.02518,-0.02945,-0.05142,-0.06287,-0.08011,-0.5545,0.0531,0.00732,-0.00046,-0.05936,-0.02716,0.14542,0.05722
7.543,-0.00992,-0.04028,-0.03448,-0.02777,-0.0325,-0.04974,-0.06302,-0.00259,-0.56198,0.02991,-0.01328,-0.01923,-0.05707,-0.02945,0.11078,0.00061
7.5435,-0.00702,-0.04059,-0.0386,-0.02792,-0.03983,-0.04974,-0.05844,0.09918,-0.56442,0.00916,-0.02686,-0.03357,-0.0563,-0.0325,0.07645,-0.05356
7.544,-0.00198,-0.03891,-0.04089,-0.02289,-0.05005,-0.05112,-0.05173,0.09277,-0.55267,-0.00534,-0.03403,-0.03586,-0.05768,-0.0351,0.06332,-0.08972
7.5445,0.00122,-0.03632,-0.03967,-0.01526,-0.06363,-0.05188,-0.03586,-0.00061,-0.52612,-0.0174,-0.03647,-0.03464,-0.05783,-0.03433,0.05997,-0.09079
7.545,0.00214,-0.03479,-0.03754,-0.01068,-0.07507,-0.05142,-0.00381,-0.09125,-0.49026,-0.02579,-0.0415,-0.03937,-0.05615,-0.03281,0.0499,-0.05951
7.5455,0.00107,-0.03647,-0.03326,-0.00809,-0.07538,-0.04929,0.03372,-0.14435,-0.45517,-0.03357,-0.05646,-0.04456,-0.05386,-0.03021,0.03052,-0.01083
7.546,0.00076,-0.03906,-0.03082,-0.00656,-0.06683,-0.04501,0.0528,-0.16663,-0.43533,-0.04181,-0.09842,-0.04059,-0.05127,-0.02869,0.0116,0.04074
7.5465,0.0029,-0.04028,-0.03021,-0.00443,-0.05554,-0.0412,0.03967,-0.14221,-0.4422,-0.05157,-0.17502,-0.0264,-0.047,-0.0264,0.00137,0.07233
7.547,0.00641,-0.04196,-0.03036,-0.00351,-0.04486,-0.04059,0.01022,-0.04944,-0.46127,-0.06622,-0.25085,-0.00977,-0.04089,-0.02411,-0.00076,0.06226
7.5475,0.00793,-0.04517,-0.0293,-0.00366,-0.03738,-0.04257,-0.00519,0.09598,-0.4599,-0.0882,-0.25558,0.00214,-0.03662,-0.02182,0.00534,0.00702
7.548,0.00565,-0.04791,-0.02808,-0.00244,-0.03036,-0.04471,0.00122,0.22171,-0.43137,-0.10895,-0.17166,0.01022,-0.03433,-0.01953,0.00702,-0.07401
7.5485,0.00122,-0.0473,-0.02838,-0.00183,-0.03128,-0.04608,0.00595,0.2478,-0.40344,-0.11627,-0.05539,0.01297,-0.0325,-0.01953,0.0061,-0.16495
7.549,-0.00031,-0.0444,-0.02975,-0.0029,-0.03265,-0.04791,-0.00916,0.15991,-0.38788,-0.10895,0.02945,0.00885,-0.03036,-0.02258,0.00412,-0.26001
7.5495,0.00137,-0.04272,-0.03082,-0.00839,-0.03937,-0.05234,-0.03067,0.03952,-0.37476,-0.09857,0.07401,0.00046,-0.02518,-0.02487,0.00061,-0.33386
7.55,0.00473,-0.04288,-0.03098,-0.01373,-0.04562,-0.05356,-0.03723,-0.02151,-0.36392,-0.09079,0.10345,-0.00305,-0.01923,-0.02075,-0.0058,-0.35919
7.5505,0.00763,-0.04471,-0.03235,-0.01648,-0.05127,-0.05341,-0.0296,-0.01282,-0.3598,-0.08499,0.1239,0.00107,-0.0145,-0.01495,-0.01556,-0.34515
7.551,0.00793,-0.04684,-0.03571,-0.01556,-0.05249,-0.05173,-0.02426,0.01297,-0.35278,-0.0766,0.12985,0.00824,-0.01404,-0.01068,-0.02319,-0.33768
7.5515,0.0061,-0.04913,-0.03891,-0.01373,-0.05432,-0.05157,-0.02594,0.01923,-0.34012,-0.06424,0.11993,0.01373,-0.01709,-0.01053,-0.02274,-0.34286
7.552,0.00275,-0.0499,-0.03845,-0.01312,-0.05585,-0.05173,-0.02686,0.01404,-0.32288,-0.05096,0.09735,0.01709,-0.0209,-0.01389,-0.01587,-0.29587
7.5525,0.0,-0.04959,-0.03525,-0.01129,-0.05463,-0.05051,-0.01984,0.01358,-0.30319,-0.0351,0.06577,0.02029,-0.02243,-0.01617,-0.01068,-0.15427
7.553,-0.00107,-0.04745,-0.03372,-0.01038,-0.04944,-0.04684,-0.01038,0.01846,-0.28137,-0.01556,0.03204,0.02457,-0.02243,-0.01831,-0.01511,0.02548
7.5535,-0.00229,-0.04486,-0.03372,-0.01083,-0.04395,-0.04349,-0.00732,0.02029,-0.26047,0.00351,0.00687,0.02579,-0.02289,-0.01816,-0.03418,0.15457
7.554,-0.00305,-0.04242,-0.03174,-0.01266,-0.04471,-0.03998,-0.01251,0.01663,-0.24155,0.01572,0.00015,0.02197,-0.02289,-0.01694,-0.07278,0.21866
7.5545,-0.0032,-0.03998,-0.0293,-0.01434,-0.04501,-0.0386,-0.0177,0.01434,-0.21957,0.01617,0.00931,0.01495,-0.02167,-0.01511,-0.13229,0.25681
7.555,-0.00427,-0.03647,-0.02731,-0.01556,-0.04181,-0.03677,-0.01831,0.01404,-0.19104,0.00992,0.02136,0.00793,-0.02014,-0.01236,-0.21591,0.27466
7.5555,-0.00412,-0.0351,-0.02731,-0.0174,-0.03403,-0.03662,-0.0177,0.01129,-0.15793,0.00397,0.02731,0.00214,-0.01801,-0.01129,-0.31937,0.2565
7.556,-0.00351,-0.03265,-0.02823,-0.0177,-0.0238,-0.03754,-0.01633,0.00458,-0.12375,-0.00671,0.0264,0.00092,-0.01663,-0.01266,-0.40009,0.22202
7.5565,-0.00336,-0.03128,-0.02869,-0.01724,-0.01648,-0.03906,-0.01419,-0.00168,-0.08942,-0.02701,0.01816,0.00275,-0.01541,-0.01404,-0.39276,0.19241
7.557,-0.0032,-0.03067,-0.02899,-0.01633,-0.00854,-0.03952,-0.01205,-0.00336,-0.06042,-0.04837,0.00641,0.00687,-0.01297,-0.01282,-0.27451,0.13046
7.5575,-0.00366,-0.03143,-0.02945,-0.01556,0.00427,-0.03906,-0.01434,-0.00366,-0.03937,-0.06195,-0.00519,0.00809,-0.01022,-0.01038,-0.08774,-0.00763
7.558,-0.00458,-0.03296,-0.02792,-0.01465,0.01755,-0.03754,-0.02075,-0.00595,-0.02792,-0.0647,-0.01816,0.00717,-0.00977,-0.01038,0.09445,-0.18097
7.5585,-0.00626,-0.03342,-0.02792,-0.01068,0.02441,-0.03784,-0.02609,-0.01343,-0.01648,-0.06271,-0.03372,0.00717,-0.01175,-0.01343,0.1915,-0.30106
7.559,-0.00732,-0.03479,-0.02869,-0.00687,0.02533,-0.03845,-0.02853,-0.01938,0.00046,-0.06424,-0.05295,0.00671,-0.01633,-0.01678,0.15305,-0.34348
7.5595,-0.00854,-0.03586,-0.02914,-0.0058,0.02075,-0.03983,-0.02731,-0.01984,0.01938,-0.06561,-0.07065,0.00702,-0.02121,-0.01694,0.02274,-0.36499
7.56,-0.00885,-0.03937,-0.02686,-0.01373,0.01648,-0.03998,-0.02167,-0.01587,0.02594,-0.06302,-0.0737,0.00702,-0.02335,-0.01709,-0.06393,-0.40527
7.5605,-0.00961,-0.04089,-0.02487,-0.03052,0.01297,-0.04013,-0.01862,-0.00992,0.01663,-0.05569,-0.05798,0.00763,-0.0238,-0.01801,-0.01999,-0.43671
7.561,-0.01053,-0.04074,-0.02426,-0.05081,0.00931,-0.04089,-0.0174,-0.00885,0.01495,-0.04868,-0.03418,0.00885,-0.02319,-0.01923,0.13565,-0.41061
7.5615,-0.01144,-0.0412,-0.0264,-0.06866,0.00687,-0.04227,-0.01831,-0.01266,0.03006,-0.04425,-0.01663,0.01038,-0.02289,-0.02014,0.3154,-0.32303
7.562,-0.01175,-0.0415,-0.02762,-0.07751,0.00717,-0.04532,-0.01724,-0.01755,0.04288,-0.04044,-0.01511,0.01175,-0.02319,-0.02121,0.40894,-0.21423
7.5625,-0.01205,-0.04089,-0.02869,-0.06134,0.00595,-0.04929,-0.01312,-0.01953,0.04578,-0.0296,-0.02075,0.01099,-0.02396,-0.02213,0.34592,-0.11856
7.563,-0.01282,-0.03891,-0.02899,-0.0116,0.00046,-0.0528,-0.00992,-0.01785,0.04913,-0.01328,-0.02869,0.01205,-0.02197,-0.02258,0.18341,-0.04105
7.5635,-0.01221,-0.0383,-0.02945,0.05127,-0.00946,-0.05524,-0.01373,-0.01419,0.05615,-0.00015,-0.03204,0.01465,-0.01755,-0.02304,0.06744,0.02243
7.564,-0.01068,-0.03769,-0.02914,0.09125,-0.02472,-0.05783,-0.02075,-0.01175,0.06302,0.0,-0.03052,0.01648,-0.01129,-0.02365,0.0621,0.05966
7.5645,-0.00992,-0.03784,-0.03052,0.08682,-0.03998,-0.0618,-0.02319,-0.01038,0.07034,-0.01114,-0.02609,0.01434,-0.00839,-0.02365,0.08194,0.05371
7.565,-0.01038,-0.03891,-0.03128,0.056,-0.05661,-0.06546,-0.01755,-0.00763,0.07843,-0.02274,-0.02075,0.01068,-0.01221,-0.02365,0.02838,0.00214
7.5655,-0.01099,-0.04059,-0.03281,0.02884,-0.07004,-0.06714,-0.01251,-0.00534,0.09247,-0.02747,-0.01877,0.00809,-0.0235,-0.02472,-0.06989,-0.05371
7.566,-0.01129,-0.04242,-0.03387,0.01663,-0.08163,-0.06592,-0.01007,-0.00458,0.11826,-0.02975,-0.02365,0.0087,-0.03723,-0.02609,-0.12268,-0.06546
7.5665,-0.01205,-0.04471,-0.03555,0.00076,-0.08881,-0.065,-0.01114,-0.00854,0.14618,-0.03464,-0.02975,0.00885,-0.04807,-0.02518,-0.10681,-0.0264
7.567,-0.01358,-0.04715,-0.03693,-0.03448,-0.09705,-0.06638,-0.01419,-0.01175,0.16281,-0.04379,-0.02426,0.00656,-0.05386,-0.02274,-0.06012,0.01465
7.5675,-0.0148,-0.04852,-0.03601,-0.07401,-0.10269,-0.0679,-0.01526,-0.01465,0.1712,-0.04974,-0.00244,0.00366,-0.05615,-0.02167,0.01282,0.02502
7.568,-0.01297,-0.04807,-0.03571,-0.09827,-0.11093,-0.06775,-0.0145,-0.01419,0.17776,-0.04181,0.0209,0.0032,-0.05585,-0.02029,0.11902,0.02792
7.5685,-0.01083,-0.04669,-0.03571,-0.11459,-0.11688,-0.06607,-0.01419,-0.01236,0.18341,-0.02701,0.02472,0.00397,-0.05219,-0.0174,0.19608,0.05829
7.569,-0.01038,-0.04456,-0.03586,-0.14618,-0.11688,-0.06241,-0.01297,-0.01053,0.18326,-0.01343,0.00565,0.00504,-0.04639,-0.01556,0.16174,0.11475
7.5695,-0.01114,-0.0412,-0.0351,-0.19669,-0.11505,-0.05844,-0.0116,-0.01007,0.17807,-0.0029,-0.01328,0.00458,-0.04364,-0.01678,0.03693,0.17838
7.57,-0.01099,-0.03906,-0.03448,-0.24734,-0.10956,-0.0531,-0.01099,-0.01205,0.16907,0.00793,-0.02274,0.0029,-0.04242,-0.02014,-0.06516,0.23514
7.5705,-0.01083,-0.03937,-0.03357,-0.26291,-0.10452,-0.04608,-0.01236,-0.01465,0.15411,0.01404,-0.0267,0.00275,-0.0415,-0.02213,-0.10284,0.25421
7.571,-0.01007,-0.04105,-0.03403,-0.19913,-0.10086,-0.04242,-0.01328,-0.01404,0.13565,0.00732,-0.03296,0.00443,-0.04044,-0.01953,-0.16403,0.18661
7.5715,-0.00977,-0.04318,-0.03586,-0.05142,-0.09155,-0.03983,-0.01312,-0.01099,0.11795,-0.01617,-0.04013,0.0058,-0.03769,-0.01221,-0.30807,0.02914
7.572,-0.01068,-0.04303,-0.03693,0.1062,-0.07843,-0.03952,-0.01205,-0.00809,0.10666,-0.03876,-0.04059,0.00458,-0.03357,-0.00595,-0.44693,-0.14557
7.5725,-0.01236,-0.04303,-0.03662,0.18829,-0.06134,-0.03983,-0.01068,-0.00671,0.09995,-0.04395,-0.03143,0.00168,-0.02899,-0.00336,-0.4538,-0.25299
7.573,-0.01373,-0.04395,-0.03555,0.19333,-0.04547,-0.03937,-0.00977,-0.00549,0.09384,-0.03052,-0.01892,0.0,-0.0267,-0.00473,-0.29709,-0.25925
7.5735,-0.0148,-0.04608,-0.03571,0.18356,-0.03815,-0.03922,-0.00854,-0.00275,0.0856,-0.00641,-0.00992,-0.00061,-0.02838,-0.00717,-0.04837,-0.19135
7.574,-0.01572,-0.04608,-0.03616,0.20172,-0.03662,-0.03922,-0.00931,-0.00229,0.07309,0.02075,-0.00504,-0.00198,-0.03174,-0.00854,0.16968,-0.11734
7.5745,-0.01694,-0.04395,-0.03555,0.22644,-0.03296,-0.03815,-0.01205,-0.00595,0.06683,0.04364,-0.00259,-0.0029,-0.03296,-0.01099,0.24048,-0.09872
7.575,-0.01907,-0.04211,-0.0325,0.2005,-0.03021,-0.03525,-0.01434,-0.01099,0.06653,0.05722,-0.00153,-0.00122,-0.03021,-0.01404,0.16876,-0.13214
7.5755,-0.02136,-0.0415,-0.02853,0.10391,-0.02457,-0.03296,-0.01617,-0.01404,0.06134,0.05798,-0.00412,0.00275,-0.02502,-0.01495,0.10651,-0.16251
7.576,-0.02136,-0.04135,-0.02579,-0.00519,-0.01541,-0.03036,-0.01724,-0.01389,0.05463,0.05066,-0.00839,0.00534,-0.02136,-0.01389,0.15808,-0.17303
7.5765,-0.0177,-0.03876,-0.0267,-0.04242,-0.00488,-0.02838,-0.01801,-0.01343,0.06027,0.04105,-0.01099,0.00381,-0.01816,-0.01343,0.22064,-0.20126
7.577,-0.01373,-0.03662,-0.0293,0.00519,0.00168,-0.02563,-0.01801,-0.01282,0.07736,0.03143,-0.01266,0.00092,-0.01389,-0.01373,0.14725,-0.26245
7.5775,-0.01236,-0.03723,-0.03189,0.07004,0.00946,-0.02563,-0.01633,-0.01144,0.10498,0.02243,-0.01282,-0.00061,-0.009,-0.01465,-0.0412,-0.31281
7.578,-0.0145,-0.03952,-0.03357,0.08926,0.01877,-0.02777,-0.01633,-0.01022,0.14069,0.01373,-0.01221,-0.00031,-0.00809,-0.01465,-0.21179,-0.30991
7.5785,-0.01663,-0.0412,-0.03433,0.06577,0.03189,-0.03082,-0.01587,-0.00992,0.17014,0.00488,-0.01038,0.00122,-0.01404,-0.01541,-0.29373,-0.26749
7.579,-0.01526,-0.0415,-0.03342,0.03662,0.04425,-0.03326,-0.01663,-0.01099,0.1796,-0.00839,-0.00916,0.00046,-0.02533,-0.01709,-0.29831,-0.21927
7.5795,-0.01373,-0.04044,-0.03235,0.01633,0.04822,-0.03479,-0.01694,-0.01129,0.17715,-0.02548,-0.01617,-0.00122,-0.03891,-0.01785,-0.2449,-0.16708
7.58,-0.01114,-0.03967,-0.03098,-0.00641,0.05112,-0.03662,-0.01587,-0.01068,0.17471,-0.04364,-0.03983,-0.00366,-0.05127,-0.01953,-0.14221,-0.09598
7.5805,-0.01022,-0.03891,-0.03021,-0.03296,0.05356,-0.03952,-0.0148,-0.00977,0.1741,-0.05783,-0.07004,-0.00595,-0.0592,-0.02319,-0.00092,0.00565
7.581,-0.01175,-0.03754,-0.03021,-0.04181,0.06088,-0.04211,-0.01389,-0.00977,0.17944,-0.06256,-0.09506,-0.00778,-0.06302,-0.02533,0.14755,0.13809
7.5815,-0.01373,-0.03601,-0.03098,-0.0206,0.06882,-0.04578,-0.01343,-0.00977,0.19394,-0.06561,-0.09262,-0.00748,-0.06439,-0.02487,0.21042,0.27878
7.582,-0.0148,-0.03555,-0.03235,0.01068,0.07523,-0.0499,-0.01389,-0.01038,0.20615,-0.07568,-0.06271,-0.00366,-0.06668,-0.0235,0.11642,0.37537
7.5825,-0.01556,-0.03723,-0.03357,0.03098,0.07675,-0.05417,-0.01343,-0.01007,0.20294,-0.09232,-0.02609,0.00092,-0.07156,-0.02167,-0.02335,0.39398
7.583,-0.01587,-0.03876,-0.03448,0.04227,0.07797,-0.05539,-0.01358,-0.00717,0.1828,-0.10422,0.00168,0.00351,-0.07507,-0.02121,-0.00809,0.36606
7.5835,-0.01694,-0.0383,-0.03403,0.04456,0.07675,-0.05661,-0.0119,-0.00336,0.15854,-0.10162,0.02396,0.00198,-0.07645,-0.02182,0.14587,0.34973
7.584,-0.01862,-0.03738,-0.03311,0.02762,0.0708,-0.06042,-0.01114,-0.00092,0.13428,-0.08926,0.04227,0.0,-0.07614,-0.02472,0.22354,0.35049
7.5845,-0.01968,-0.03784,-0.03342,-0.00137,0.0589,-0.06531,-0.01129,0.00031,0.09186,-0.07507,0.04196,0.00183,-0.0766,-0.02792,0.15778,0.31937
7.585,-0.02014,-0.03815,-0.03326,-0.02213,0.04593,-0.07019,-0.0119,0.00092,-0.03082,-0.06439,0.0145,0.0061,-0.07553,-0.02792,0.09811,0.21576
7.5855,-0.01984,-0.0383,-0.03525,-0.02899,0.03433,-0.07004,-0.01205,0.00183,-0.22476,-0.05814,-0.01114,0.00916,-0.07095,-0.02319,0.14389,0.04364
7.586,-0.01938,-0.03815,-0.03525,-0.03159,0.01724,-0.07065,-0.01251,0.00198,-0.22064,-0.06287,-0.009,0.00565,-0.06531,-0.01633,0.22491,-0.14771
7.5865,-0.01938,-0.03769,-0.03464,-0.02853,-0.00992,-0.06943,-0.01251,0.00183,0.16037,-0.07813,0.02335,-0.00168,-0.0621,-0.01312,0.23331,-0.28351
7.587,-0.01816,-0.03754,-0.03311,-0.01846,-0.0386,-0.06851,-0.0116,0.00107,0.52597,-0.09277,0.05127,-0.00854,-0.06134,-0.01526,0.14618,-0.31158
7.5875,-0.01663,-0.03845,-0.03174,-0.02151,-0.06042,-0.06683,-0.01175,0.00046,0.38864,-0.0943,0.05569,-0.00916,-0.05859,-0.01633,0.0322,-0.24445
7.588,-0.01556,-0.03952,-0.03067,-0.05905,-0.07675,-0.06622,-0.01251,-0.00046,-0.06577,-0.07874,0.04715,-0.00687,-0.05295,-0.01038,-0.01938,-0.14969
7.5885,-0.01572,-0.04044,-0.0296,-0.11948,-0.09048,-0.06622,-0.01343,-0.00046,-0.26672,-0.04898,0.04395,-0.0061,-0.04456,0.00198,-0.01801,-0.09598
7.589,-0.01556,-0.04196,-0.03204,-0.16785,-0.1004,-0.06546,-0.01343,0.0,-0.07477,-0.01404,0.04196,-0.00763,-0.03601,0.01312,-0.05005,-0.11307
7.5895,-0.01511,-0.04303,-0.03433,-0.17731,-0.10361,-0.06241,-0.01266,0.00061,0.12756,0.01724,0.03021,-0.00946,-0.03021,0.01648,-0.15335,-0.19272
7.59,-0.01358,-0.04379,-0.03555,-0.14984,-0.10056,-0.05692,-0.01053,0.00275,0.02808,0.04105,0.00641,-0.00931,-0.02731,0.01312,-0.26169,-0.29007
7.5905,-0.01221,-0.04333,-0.0351,-0.12085,-0.09933,-0.05219,-0.00824,0.00443,-0.29892,0.06775,-0.02014,-0.00793,-0.02487,0.009,-0.28641,-0.33249
7.591,-0.01007,-0.04303,-0.03525,-0.12497,-0.10452,-0.05081,-0.00732,0.00732,-0.61798,0.10391,-0.03983,-0.00687,-0.0209,0.0058,-0.19211,-0.29144
7.5915,-0.00824,-0.04257,-0.03647,-0.15701,-0.11841,-0.0531,-0.00854,0.00977,-0.82581,0.1384,-0.04532,-0.00854,-0.01587,0.00168,-0.0116,-0.24124
7.592,-0.00732,-0.04288,-0.03815,-0.17746,-0.13947,-0.05569,-0.01068,0.00916,-0.97061,0.15167,-0.03952,-0.01022,-0.01114,-0.00504,0.159,-0.2858
7.5925,-0.00687,-0.04349,-0.0383,-0.15411,-0.15747,-0.05554,-0.0119,0.0061,-1.10168,0.13474,-0.03418,-0.01038,-0.00854,-0.01419,0.19806,-0.4216
7.593,-0.00748,-0.0441,-0.03799,-0.10223,-0.16479,-0.05142,-0.01175,0.00351,-1.20804,0.09964,-0.0354,-0.01266,-0.00656,-0.02121,0.05966,-0.52887
7.5935,-0.00778,-0.04471,-0.03708,-0.06638,-0.1564,-0.04379,-0.01022,0.00305,-1.27136,0.06241,-0.03769,-0.01633,-0.00443,-0.02609,-0.19806,-0.50537
7.594,-0.00671,-0.04593,-0.03708,-0.07553,-0.13474,-0.03555,-0.00931,0.00458,-1.30569,0.03479,-0.03296,-0.01785,-0.0032,-0.02701,-0.4541,-0.36911
7.5945,-0.00519,-0.04608,-0.03815,-0.11139,-0.1123,-0.03143,-0.01068,0.00488,-1.32446,0.01984,-0.02182,-0.01495,-0.0029,-0.02472,-0.57846,-0.22339
7.595,-0.0029,-0.04501,-0.03922,-0.13092,-0.0972,-0.03204,-0.01144,0.00259,-1.32996,0.01266,-0.01205,-0.00748,-0.00412,-0.02228,-0.50415,-0.14252
7.5955,-0.00183,-0.04318,-0.03906,-0.09659,-0.08942,-0.03571,-0.01404,-0.00214,-1.31668,0.00412,-0.00961,-0.00076,-0.00458,-0.02243,-0.28107,-0.09781
7.596,-0.00046,-0.04303,-0.03845,-0.00275,-0.08255,-0.04059,-0.01602,-0.0061,-1.28555,-0.01022,-0.01312,0.00229,-0.00534,-0.02487,-0.00076,-0.0177
7.5965,0.00092,-0.0444,-0.03845,0.1178,-0.07523,-0.04395,-0.01678,-0.00778,-1.23627,-0.02777,-0.01724,0.00183,-0.00717,-0.02655,0.25574,0.10468
7.597,0.00259,-0.04608,-0.04059,0.22018,-0.06699,-0.04623,-0.01556,-0.00717,-1.1676,-0.04333,-0.01907,0.00092,-0.00977,-0.02701,0.37201,0.2121
7.5975,0.00381,-0.04684,-0.0412,0.27985,-0.05829,-0.04776,-0.01358,-0.00549,-1.08765,-0.05707,-0.01511,0.00168,-0.01266,-0.02777,0.30411,0.28351
7.598,0.00458,-0.04639,-0.04044,0.27435,-0.04898,-0.04776,-0.0116,-0.00427,-1.00769,-0.06989,-0.00809,0.00229,-0.01709,-0.03067,0.21027,0.33401
7.5985,0.00397,-0.04547,-0.03891,0.19058,-0.03586,-0.04639,-0.01129,-0.00229,-0.92865,-0.07919,-0.00809,0.00137,-0.02182,-0.03006,0.24429,0.33875
7.599,0.00351,-0.04501,-0.03815,0.05829,-0.02411,-0.04425,-0.01266,0.00031,-0.83954,-0.08255,-0.01724,0.00031,-0.02548,-0.01923,0.33066,0.25162
7.5995,0.00565,-0.04578,-0.03662,-0.0528,-0.01816,-0.03952,-0.01389,0.00092,-0.73593,-0.07599,-0.02762,0.00183,-0.0293,-0.00488,0.31769,0.10788
7.6,0.00916,-0.047,-0.03632,-0.09583,-0.01968,-0.03403,-0.01465,-0.00046,-0.62119,-0.05722,-0.03006,0.00504,-0.03342,-0.00092,0.21957,0.00534
7.6005,0.0116,-0.04852,-0.03693,-0.0824,-0.02472,-0.03036,-0.01465,-0.00504,-0.48035,-0.03067,-0.02396,0.00687,-0.03662,-0.01373,0.15427,-0.01511
7.601,0.01144,-0.04929,-0.03799,-0.05066,-0.03098,-0.02823,-0.01617,-0.00946,-0.27939,-0.00854,-0.01953,0.0058,-0.0386,-0.03464,0.15335,0.00412
7.6015,0.01038,-0.05051,-0.03845,-0.01236,-0.03845,-0.02777,-0.01801,-0.01053,-0.02426,-0.00458,-0.01938,0.00717,-0.03937,-0.04944,0.16724,0.03296
7.602,0.00961,-0.05295,-0.03937,0.04456,-0.04654,-0.02945,-0.01892,-0.009,0.20691,-0.01541,-0.02167,0.00961,-0.03906,-0.05569,0.18494,0.10803
7.6025,0.01022,-0.05463,-0.04135,0.10559,-0.05417,-0.0325,-0.01846,-0.0058,0.37064,-0.0238,-0.01968,0.01068,-0.03662,-0.05844,0.26764,0.26001
7.603,0.01175,-0.05524,-0.04181,0.11108,-0.05585,-0.03677,-0.01801,-0.00534,0.51788,-0.02228,-0.01877,0.00839,-0.03189,-0.06119,0.41809,0.41275
7.6035,0.01251,-0.05432,-0.04105,0.02411,-0.05386,-0.03998,-0.0174,-0.00656,0.71472,-0.01724,-0.01663,0.0032,-0.02487,-0.06439,0.50873,0.43961
7.604,0.01144,-0.05432,-0.04074,-0.10681,-0.0502,-0.04135,-0.0174,-0.0087,0.98145,-0.01862,-0.01343,-0.00351,-0.01862,-0.06302,0.39474,0.3334
7.6045,0.01007,-0.05539,-0.0412,-0.19485,-0.04501,-0.0412,-0.01892,-0.01068,1.30264,-0.02625,-0.00854,-0.009,-0.01434,-0.05402,0.06012,0.22293
7.605,0.00916,-0.05798,-0.04196,-0.20065,-0.04044,-0.0415,-0.01953,-0.01129,1.6452,-0.03265,-0.00168,-0.00854,-0.0087,-0.04059,-0.39566,0.16937
7.6055,0.00946,-0.0592,-0.04089,-0.15747,-0.03403,-0.04349,-0.01785,-0.01038,1.93634,-0.03815,0.01053,-0.00183,-0.00092,-0.02838,-0.82993,0.10803
7.606,0.01038,-0.05859,-0.04135,-0.12115,-0.02686,-0.04318,-0.0177,-0.00961,2.10846,-0.04623,0.03677,0.0058,0.00458,-0.02213,-1.08322,-0.00931
7.6065,0.01175,-0.05707,-0.04227,-0.10162,-0.02045,-0.04166,-0.0177,-0.00946,2.16125,-0.05661,0.07095,0.00641,0.00427,-0.0235,-1.03134,-0.14954
7.607,0.01144,-0.05661,-0.04272,-0.06195,-0.01724,-0.04196,-0.01831,-0.01083,2.09564,-0.06622,0.08728,-0.00031,-0.00183,-0.03418,-0.66147,-0.24033
7.6075,0.01266,-0.05737,-0.04196,0.03571,-0.01755,-0.0444,-0.01923,-0.01114,1.81381,-0.07614,0.07217,-0.00854,-0.0087,-0.04883,-0.07645,-0.22644
7.608,0.01297,-0.05646,-0.0412,0.16205,-0.01892,-0.04761,-0.01923,-0.00931,1.23871,-0.09537,0.04242,-0.01312,-0.01099,-0.05707,0.52429,-0.11887
7.6085,0.01358,-0.05371,-0.0412,0.22629,-0.02243,-0.0499,-0.01801,-0.0061,0.56808,-0.12619,0.02747,-0.01266,-0.01007,-0.0528,0.87402,-0.02472
7.609,0.01358,-0.05157,-0.04242,0.18707,-0.02457,-0.05051,-0.01541,-0.00351,0.19516,-0.14999,0.0354,-0.00732,-0.00824,-0.03937,0.77118,-0.0592
7.6095,0.01465,-0.04944,-0.04288,0.0975,-0.02487,-0.05051,-0.01282,-0.00214,0.27252,-0.14496,0.05096,-0.00061,-0.00885,-0.02884,0.31219,-0.2121
7.61,0.01511,-0.04761,-0.04074,0.02274,-0.02121,-0.0499,-0.01343,-0.00198,0.5275,-0.10315,0.05219,0.00488,-0.01205,-0.02731,-0.10544,-0.36667
7.6105,0.01526,-0.04593,-0.0383,-0.01984,-0.01602,-0.04868,-0.01572,-0.00244,0.64087,-0.04425,0.03082,0.00809,-0.01816,-0.03113,-0.17258,-0.41962
7.611,0.01419,-0.04532,-0.03662,-0.0296,-0.01022,-0.04807,-0.01678,-0.00351,0.58365,0.00992,-0.00519,0.01068,-0.02716,-0.03403,0.05737,-0.3476
7.6115,0.01419,-0.04486,-0.03616,0.00198,-0.00443,-0.04868,-0.01648,-0.0029,0.50644,0.04196,-0.02396,0.01053,-0.03967,-0.03174,0.35934,-0.18463
7.612,0.0148,-0.0441,-0.03632,0.0589,0.0,-0.0499,-0.0148,-0.00107,0.48309,0.0441,0.00793,0.00824,-0.05219,-0.02335,0.58624,0.00748
7.6125,0.01648,-0.04211,-0.03616,0.10345,0.0029,-0.05005,-0.01419,0.00229,0.4837,0.02533,0.07935,0.00458,-0.06256,-0.00839,0.64606,0.16083
7.613,0.01755,-0.04013,-0.03616,0.12131,0.00488,-0.04898,-0.01221,0.00443,0.48187,0.00336,0.11597,0.00458,-0.07401,0.00397,0.47867,0.20523
7.6135,0.0177,-0.03815,-0.03677,0.11124,0.00473,-0.04807,-0.01038,0.00488,0.4718,-0.01053,0.04379,0.00702,-0.08698,0.00763,0.19836,0.10117
7.614,0.01617,-0.03815,-0.03799,0.06744,0.00336,-0.04913,-0.01068,0.00259,0.43396,-0.01526,-0.14618,0.00885,-0.09933,0.00488,0.0412,-0.09415
7.6145,0.0148,-0.0386,-0.0386,-0.0116,0.00198,-0.05005,-0.01328,-0.00259,0.36469,-0.01114,-0.37659,0.00549,-0.10437,0.00565,0.07568,-0.24368
7.615,0.01328,-0.03876,-0.03906,-0.10056,0.00229,-0.04883,-0.01617,-0.009,0.28381,0.00381,-0.51651,-0.00092,-0.10132,0.01251,0.15396,-0.26581
7.6155,0.01205,-0.03754,-0.03952,-0.16083,0.00412,-0.04715,-0.01801,-0.01389,0.18906,0.02777,-0.48965,-0.00656,-0.0943,0.02106,0.18356,-0.20966
7.616,0.0119,-0.0354,-0.03967,-0.17715,0.00656,-0.04517,-0.01846,-0.01678,0.05264,0.03754,-0.33417,-0.00839,-0.08881,0.02426,0.21576,-0.16327
7.6165,0.01129,-0.03326,-0.0415,-0.16312,0.00885,-0.0444,-0.01907,-0.01633,-0.13351,0.01556,-0.16098,-0.00488,-0.08514,0.02075,0.25391,-0.14618
7.617,0.01099,-0.03143,-0.04272,-0.13809,0.00916,-0.04349,-0.01923,-0.0148,-0.34943,-0.02869,-0.04608,-0.00031,-0.08316,0.01236,0.20813,-0.14038
7.6175,0.01099,-0.03128,-0.04272,-0.11475,0.00824,-0.0444,-0.01907,-0.01129,-0.58502,-0.06317,0.00763,0.00244,-0.08087,0.0,0.07401,-0.13763
7.618,0.01129,-0.03235,-0.04257,-0.09232,0.00793,-0.0444,-0.01755,-0.00931,-0.82489,-0.06256,0.02167,0.00153,-0.07462,-0.01007,-0.03967,-0.13321
7.6185,0.01068,-0.03372,-0.04166,-0.06134,0.00656,-0.04456,-0.01617,-0.00702,-1.05591,-0.03113,0.00931,0.0,-0.06348,-0.01129,-0.08545,-0.1149
7.619,0.00931,-0.03418,-0.04135,-0.01236,0.00427,-0.04562,-0.01587,-0.00473,-1.3298,0.0061,-0.01648,-0.00153,-0.05112,-0.00214,-0.10818,-0.09003
7.6195,0.00809,-0.03387,-0.04166,0.05035,0.00137,-0.04501,-0.0148,-0.00168,-1.73462,0.03204,-0.02167,-0.00443,-0.04089,0.0116,-0.12863,-0.09491
7.62,0.00717,-0.03281,-0.04135,0.1059,-0.00092,-0.04501,-0.01236,0.00153,-2.27097,0.03922,0.01373,-0.00748,-0.03235,0.01968,-0.13351,-0.14343
7.6205,0.00671,-0.03296,-0.04044,0.12527,-0.00519,-0.04501,-0.01129,0.00458,-2.79953,0.03265,0.07111,-0.00793,-0.02243,0.01846,-0.13519,-0.18234
7.621,0.00717,-0.03159,-0.03815,0.09842,-0.01251,-0.04761,-0.01114,0.00504,-3.16498,0.02167,0.10056,-0.00275,-0.01236,0.01129,-0.14175,-0.14297
7.6215,0.00641,-0.03006,-0.0383,0.05051,-0.01892,-0.04929,-0.01205,0.00458,-3.34778,0.01404,0.0853,0.00366,-0.00244,0.00015,-0.13641,-0.0444
7.622,0.00519,-0.02945,-0.04074,0.01877,-0.01953,-0.04929,-0.01282,0.00366,-3.44315,0.00824,0.05188,0.00763,0.00336,-0.01541,-0.16632,0.01556
7.6225,0.00504,-0.02945,-0.04364,0.01053,-0.01678,-0.04807,-0.01297,0.0032,-3.54675,0.00275,0.02869,0.00687,0.00839,-0.03464,-0.29312,-0.00961
7.623,0.00534,-0.02914,-0.04532,0.00763,-0.01236,-0.04684,-0.0119,0.00214,-3.68408,0.00473,0.01495,0.00214,0.0119,-0.0502,-0.43182,-0.06363
7.6235,0.0061,-0.02899,-0.04471,0.00107,-0.00824,-0.04669,-0.00977,0.00076,-3.82385,0.01602,0.00122,-0.00336,0.01282,-0.05554,-0.41443,-0.07584
7.624,0.00519,-0.02884,-0.04379,0.00244,-0.00504,-0.04669,-0.0087,-0.00076,-3.91434,0.02823,-0.00717,-0.00671,0.01465,-0.04913,-0.24506,-0.04486
7.6245,0.00397,-0.02777,-0.0412,0.01801,-0.00473,-0.04654,-0.00854,-0.00137,-3.93387,0.0264,-0.00687,-0.00656,0.01511,-0.03693,-0.12253,-0.01495
7.625,0.00275,-0.02563,-0.0412,0.04074,-0.00397,-0.04501,-0.01022,-0.00076,-3.88657,-0.00168,-0.00504,-0.00443,0.01389,-0.02823,-0.16159,-0.01083
7.6255,0.00229,-0.02411,-0.04257,0.07095,-0.00519,-0.04333,-0.01175,0.0,-3.76328,-0.04059,-0.00641,-0.00244,0.01144,-0.02548,-0.25238,-0.0174
7.626,0.00137,-0.02518,-0.04303,0.11154,-0.00717,-0.04257,-0.01251,0.0,-3.53287,-0.06714,-0.01068,-0.00229,0.00946,-0.02441,-0.23499,-0.01007
7.6265,0.00046,-0.02716,-0.04105,0.13657,-0.01114,-0.04272,-0.01297,-0.00031,-3.21793,-0.06454,-0.00961,-0.00427,0.00854,-0.02197,-0.08499,0.01526
7.627,-0.00015,-0.02914,-0.03983,0.11444,-0.01816,-0.04425,-0.01282,0.00153,-2.89886,-0.03845,-0.00549,-0.00732,0.00824,-0.01724,0.10529,0.04623
7.6275,0.00046,-0.03082,-0.03937,0.05753,-0.02258,-0.04547,-0.01083,0.00412,-2.61978,-0.00778,-0.00046,-0.01083,0.00626,-0.0148,0.23499,0.07187
7.628,0.00015,-0.03159,-0.04059,0.01434,-0.02319,-0.04745,-0.00946,0.0058,-2.34985,0.01373,0.00183,-0.00961,0.00305,-0.01404,0.2565,0.09232
7.6285,0.0,-0.03265,-0.04059,0.00458,-0.02075,-0.04791,-0.00961,0.00443,-2.04987,0.02274,0.00305,-0.00183,-0.00107,-0.01343,0.17136,0.10544
7.629,0.00107,-0.03357,-0.03967,0.00824,-0.01907,-0.04898,-0.01099,0.0029,-1.73996,0.02365,0.00214,0.00839,-0.00488,-0.01053,0.02029,0.10361
7.6295,0.00336,-0.03342,-0.03906,0.00458,-0.01999,-0.04944,-0.01312,0.00275,-1.45126,0.02289,0.00092,0.01328,-0.00671,-0.00763,-0.11551,0.07767
7.63,0.00519,-0.03311,-0.03922,0.0032,-0.02319,-0.05005,-0.01312,0.00381,-1.17615,0.01724,0.00031,0.01099,-0.00916,-0.00549,-0.17761,0.03128
7.6305,0.00565,-0.03403,-0.03906,0.01465,-0.02777,-0.05096,-0.01343,0.0032,-0.896,0.00748,-0.00305,0.0061,-0.01282,-0.00381,-0.19302,-0.00488
7.631,0.00702,-0.03433,-0.04059,0.02426,-0.03098,-0.05157,-0.01434,0.00153,-0.62363,-0.00336,-0.00854,0.00122,-0.01678,-0.00122,-0.2179,0.0209
7.6315,0.01083,-0.03418,-0.04272,0.00793,-0.0354,-0.05295,-0.01419,-0.00092,-0.37201,-0.01114,-0.0119,-0.00214,-0.0206,0.00412,-0.21881,0.12482
7.632,0.01328,-0.03418,-0.04456,-0.03143,-0.04028,-0.05463,-0.01343,-0.00092,-0.12634,-0.01404,-0.00259,-0.00229,-0.02167,0.01617,-0.10803,0.24139
7.6325,0.01221,-0.03632,-0.0441,-0.06638,-0.04669,-0.05569,-0.01175,0.00183,0.13123,-0.01373,0.02975,-0.00137,-0.02121,0.03448,0.08774,0.26901
7.633,0.00839,-0.0412,-0.04105,-0.07751,-0.05203,-0.05615,-0.0119,0.00427,0.41458,-0.01038,0.08926,-0.00183,-0.02121,0.05386,0.20584,0.18814
7.6335,0.00443,-0.0502,-0.0386,-0.06531,-0.05646,-0.05692,-0.0119,0.00473,0.72906,-0.00061,0.14771,-0.00473,-0.02258,0.06348,0.15503,0.07187
7.634,-0.00046,-0.05859,-0.03754,-0.05051,-0.06088,-0.0563,-0.01205,0.00427,1.05469,0.01114,0.16312,-0.0058,-0.02319,0.06256,0.02731,0.00046
7.6345,-0.00671,-0.06149,-0.03967,-0.05142,-0.06348,-0.05585,-0.01221,0.00427,1.34827,0.00885,0.12329,-0.00092,-0.02197,0.05478,-0.02502,-0.00153
7.635,-0.01419,-0.05737,-0.04471,-0.0676,-0.06409,-0.05447,-0.01251,0.00488,1.59073,-0.0174,0.06104,0.00687,-0.02197,0.03891,0.04089,0.04471
7.6355,-0.0177,-0.05051,-0.05127,-0.08789,-0.06241,-0.05386,-0.01312,0.00427,1.79947,-0.05112,0.00916,0.0119,-0.02777,0.01312,0.14862,0.10651
7.636,-0.01816,-0.0415,-0.05829,-0.11093,-0.06119,-0.05295,-0.01389,0.00229,2.00134,-0.07294,-0.02289,0.00992,-0.03464,-0.01831,0.19363,0.13443
7.6365,-0.01877,-0.03357,-0.0621,-0.13474,-0.06012,-0.05234,-0.01419,0.0,2.17865,-0.08453,-0.04105,0.00427,-0.03708,-0.04669,0.15335,0.07736
7.637,-0.02014,-0.02762,-0.06165,-0.15152,-0.0589,-0.05081,-0.01404,-0.00183,2.29553,-0.10056,-0.04761,0.00076,-0.03586,-0.06805,0.10513,-0.06927
7.6375,-0.02106,-0.02487,-0.05417,-0.1535,-0.05493,-0.04959,-0.01404,-0.00427,2.35764,-0.12161,-0.04974,0.00046,-0.03464,-0.08575,0.12955,-0.21866
7.638,-0.01984,-0.02258,-0.04364,-0.13535,-0.0502,-0.04944,-0.01404,-0.00549,2.42111,-0.12924,-0.06714,0.0,-0.0354,-0.10025,0.1825,-0.26718
7.6385,-0.0174,-0.02106,-0.03357,-0.1001,-0.04761,-0.04883,-0.01404,-0.00458,2.52197,-0.12054,-0.10864,-0.00229,-0.03754,-0.11078,0.16006,-0.21271
7.639,-0.01465,-0.01984,-0.02686,-0.056,-0.04639,-0.04715,-0.01419,-0.00137,2.63779,-0.10956,-0.1474,-0.00443,-0.04013,-0.11398,0.05188,-0.1564
7.6395,-0.01221,-0.01923,-0.02151,-0.01419,-0.04501,-0.04517,-0.01389,0.00183,2.72507,-0.11292,-0.14801,-0.00076,-0.04135,-0.10681,-0.04013,-0.14893
7.64,-0.01022,-0.01862,-0.01648,0.02121,-0.04044,-0.04379,-0.01251,0.00397,2.78152,-0.12329,-0.10498,0.00793,-0.04028,-0.09216,-0.04288,-0.14908
7.6405,-0.00793,-0.01877,-0.0119,0.04425,-0.03693,-0.04135,-0.01144,0.00534,2.84348,-0.11383,-0.05096,0.01663,-0.03647,-0.07065,0.0,-0.11353
7.641,-0.00732,-0.01999,-0.00809,0.05051,-0.03387,-0.03967,-0.00961,0.00504,2.92465,-0.07172,-0.01511,0.02075,-0.03326,-0.04486,0.01633,-0.07217
7.6415,-0.00687,-0.02197,-0.00549,0.04181,-0.03235,-0.03922,-0.00946,0.00412,2.99377,-0.01389,0.0032,0.01846,-0.03204,-0.01968,0.02899,-0.06851
7.642,-0.00732,-0.02548,-0.00534,0.02686,-0.03098,-0.04028,-0.0119,0.00214,3.01804,0.02991,0.02167,0.01266,-0.03357,-0.00046,0.08728,-0.0914
7.6425,-0.00778,-0.03082,-0.00687,0.01221,-0.03036,-0.04364,-0.01434,0.00198,2.98874,0.05417,0.04272,0.00732,-0.03433,0.0087,0.13275,-0.09598
7.643,-0.0061,-0.03708,-0.00717,-0.01022,-0.0296,-0.04623,-0.01495,0.00229,2.92511,0.07584,0.05356,0.00259,-0.03326,0.01282,0.07782,-0.06866
7.6435,-0.00275,-0.0441,-0.00916,-0.04532,-0.02838,-0.04608,-0.01556,0.00198,2.86865,0.10376,0.04715,-0.00275,-0.03204,0.01541,-0.04715,-0.03204
7.644,0.00107,-0.04807,-0.01556,-0.07782,-0.02609,-0.04562,-0.01663,0.0,2.83386,0.12756,0.03036,-0.00671,-0.0322,0.0177,-0.13748,-0.01373
7.6445,0.00336,-0.0473,-0.02762,-0.08575,-0.02274,-0.04471,-0.01724,-0.00351,2.77634,0.12909,0.00854,-0.00656,-0.03357,0.01816,-0.14847,-0.01205
7.645,0.00443,-0.04471,-0.04242,-0.07172,-0.01724,-0.04288,-0.01709,-0.00778,2.66495,0.10788,-0.02823,-0.00198,-0.03403,0.02029,-0.10178,-0.00366
7.6455,0.00397,-0.04257,-0.05325,-0.06882,-0.01297,-0.04242,-0.01678,-0.009,2.54105,0.07553,-0.09033,0.00198,-0.03296,0.0264,-0.0238,0.00519
7.646,0.00275,-0.04211,-0.05707,-0.08591,-0.00824,-0.04272,-0.0177,-0.00778,2.45346,0.04089,-0.14984,0.00137,-0.0322,0.03601,0.04898,-0.0293
7.6465,0.00198,-0.04181,-0.05753,-0.09445,-0.00412,-0.04379,-0.01907,-0.00671,2.38846,0.01144,-0.15991,-0.00305,-0.03342,0.04349,0.06989,-0.12894
7.647,0.00015,-0.04272,-0.05859,-0.07202,-0.00122,-0.04501,-0.01801,-0.00671,2.29996,-0.00748,-0.10117,-0.00519,-0.03571,0.04547,0.01923,-0.21713
7.6475,0.0,-0.04395,-0.06409,-0.03677,-0.00168,-0.04578,-0.01709,-0.00702,2.17407,-0.01038,-0.00198,-0.00137,-0.03754,0.04318,-0.0708,-0.19058
7.648,-0.00015,-0.04379,-0.07385,-0.0116,-0.00427,-0.047,-0.01602,-0.00397,2.03629,0.00092,0.09308,0.00412,-0.03876,0.0383,-0.14267,-0.06027
7.6485,-0.00076,-0.04257,-0.08194,0.00824,-0.00916,-0.04745,-0.01495,-0.00168,1.91101,0.01678,0.14542,0.00565,-0.04166,0.03342,-0.14191,0.03815
7.649,-0.00122,-0.04181,-0.08392,0.0293,-0.01282,-0.04654,-0.01404,-0.00214,1.79642,0.02182,0.1387,0.00168,-0.04608,0.0264,-0.0528,0.01602
7.6495,-0.00168,-0.0415,-0.08057,0.04379,-0.01663,-0.04608,-0.01419,-0.00305,1.69052,0.01068,0.09277,-0.00259,-0.05051,0.01648,0.06287,-0.07141
7.65,-0.00092,-0.04166,-0.07416,0.04349,-0.02106,-0.04456,-0.0145,-0.00366,1.61743,-0.01297,0.04669,-0.00259,-0.0531,0.00153,0.10925,-0.11414
7.6505,-0.00153,-0.03998,-0.06378,0.0351,-0.02594,-0.04349,-0.01572,-0.00473,1.59225,-0.04166,0.01831,0.00046,-0.05524,-0.01907,0.04578,-0.09308
7.651,-0.00305,-0.03906,-0.04974,0.0293,-0.02991,-0.04288,-0.01648,-0.00549,1.5918,-0.06912,0.00458,0.0029,-0.05844,-0.04196,-0.07996,-0.06088
7.6515,-0.00412,-0.04028,-0.03403,0.02899,-0.03433,-0.04395,-0.01709,-0.00458,1.5741,-0.08896,-0.00519,0.00137,-0.05981,-0.065,-0.20523,-0.04944
7.652,-0.00443,-0.04272,-0.01968,0.03189,-0.0386,-0.04486,-0.01694,-0.00397,1.52176,-0.09491,-0.01572,-0.00061,-0.06012,-0.08743,-0.29633,-0.04532
7.6525,-0.00565,-0.04379,-0.00488,0.0351,-0.04288,-0.04639,-0.01633,-0.00397,1.45004,-0.08911,-0.02579,-0.00214,-0.05646,-0.10529,-0.31311,-0.03159
7.653,-0.00717,-0.0415,0.00671,0.03525,-0.0473,-0.04868,-0.01633,-0.0061,1.37894,-0.0798,-0.03983,-0.00092,-0.04929,-0.11475,-0.21774,-0.01297
7.6535,-0.00839,-0.03922,0.01373,0.03113,-0.05295,-0.05188,-0.01633,-0.00793,1.3118,-0.07172,-0.05081,0.00076,-0.04059,-0.11703,-0.06058,-0.01358
7.654,-0.00839,-0.0386,0.01709,0.02518,-0.05768,-0.05341,-0.01648,-0.00717,1.23947,-0.06317,-0.0531,0.00214,-0.03464,-0.11719,0.02579,-0.03021
7.6545,-0.00778,-0.03952,0.01724,0.0209,-0.06332,-0.05356,-0.01663,-0.00519,1.15479,-0.04913,-0.0351,0.00488,-0.03143,-0.11505,-0.0412,-0.01526
7.655,-0.00824,-0.04028,0.01541,0.01846,-0.06622,-0.05264,-0.01587,-0.00443,1.06384,-0.03128,0.00687,0.00732,-0.02884,-0.10117,-0.21301,0.0502
7.6555,-0.01038,-0.04105,0.00824,0.01434,-0.06821,-0.05188,-0.01526,-0.00351,0.98206,-0.01419,0.0589,0.0061,-0.02365,-0.07538,-0.35187,0.11139
7.656,-0.01022,-0.04135,-0.00244,0.00977,-0.06622,-0.05127,-0.01572,-0.00397,0.92316,-0.00031,0.08774,0.00122,-0.01846,-0.04898,-0.35309,0.10208
7.6565,-0.00717,-0.04028,-0.01251,0.00549,-0.06149,-0.05051,-0.01587,-0.00488,0.90332,0.00504,0.07401,-0.00122,-0.01785,-0.03662,-0.23331,0.05905
7.657,-0.00504,-0.03922,-0.01816,0.0032,-0.05875,-0.05066,-0.01556,-0.00641,0.93613,0.00046,0.02884,0.00046,-0.02304,-0.04105,-0.08972,0.0325
7.6575,-0.0058,-0.03937,-0.02167,0.00122,-0.05707,-0.05234,-0.0145,-0.00717,1.00052,-0.00809,-0.01572,0.00305,-0.03082,-0.05447,0.01572,-0.01053
7.658,-0.00748,-0.04044,-0.02441,0.00015,-0.05798,-0.05142,-0.0145,-0.00732,1.0437,-0.01266,-0.04211,0.00168,-0.03799,-0.06256,0.11276,-0.10269
7.6585,-0.0087,-0.04013,-0.02823,0.00061,-0.05905,-0.0473,-0.0145,-0.00549,1.03149,-0.01205,-0.05341,-0.00214,-0.04272,-0.06027,0.23346,-0.18311
7.659,-0.00778,-0.03769,-0.03189,0.00061,-0.05936,-0.04257,-0.01465,-0.00549,0.98038,-0.01129,-0.05661,-0.00626,-0.04547,-0.05188,0.33783,-0.17883
7.6595,-0.00702,-0.03479,-0.03342,-0.00244,-0.05905,-0.04089,-0.01434,-0.0061,0.92728,-0.01129,-0.06058,-0.00656,-0.04547,-0.047,0.36041,-0.10635
7.66,-0.00793,-0.03372,-0.03235,-0.00641,-0.05737,-0.04166,-0.01404,-0.00671,0.8783,-0.01373,-0.08194,-0.00305,-0.04272,-0.04578,0.27954,-0.0528
7.6605,-0.00839,-0.03494,-0.03021,-0.00916,-0.05463,-0.04181,-0.01419,-0.00549,0.82153,-0.01648,-0.11719,0.00183,-0.03891,-0.0441,0.13123,-0.06546
7.661,-0.00824,-0.03708,-0.02853,-0.00931,-0.05157,-0.04227,-0.01358,-0.00305,0.75546,-0.01556,-0.12741,0.00397,-0.03586,-0.03891,0.00183,-0.11139
7.6615,-0.00763,-0.03967,-0.02731,-0.00824,-0.047,-0.04349,-0.01129,-0.00244,0.68787,-0.00626,-0.07614,0.00488,-0.03326,-0.0296,-0.0116,-0.13306
7.662,-0.00778,-0.04028,-0.02625,-0.00946,-0.04227,-0.04456,-0.01022,-0.00351,0.62668,0.00946,0.00656,0.0061,-0.03265,-0.01938,0.11017,-0.11368
7.6625,-0.00687,-0.03922,-0.02716,-0.01099,-0.0383,-0.04379,-0.01312,-0.00534,0.5751,0.01785,0.05539,0.00732,-0.03189,-0.00824,0.25223,-0.08377
7.663,-0.0058,-0.03693,-0.03021,-0.01236,-0.03479,-0.04242,-0.0148,-0.0058,0.53696,0.01266,0.04898,0.00793,-0.03098,0.00351,0.26978,-0.06409
7.6635,-0.00626,-0.03433,-0.03357,-0.01266,-0.03235,-0.04318,-0.01465,-0.00549,0.52689,-0.00916,0.02075,0.00778,-0.03082,0.01236,0.13931,-0.05051
7.664,-0.00748,-0.03326,-0.03677,-0.01328,-0.03082,-0.04623,-0.01251,-0.00565,0.60364,-0.02609,0.00259,0.00565,-0.03082,0.01541,-0.02441,-0.03433
7.6645,-0.00824,-0.03448,-0.03754,-0.01404,-0.02731,-0.04929,-0.01221,-0.00626,0.85297,-0.04486,-0.0058,0.00244,-0.0325,0.0116,-0.11032,-0.02426
7.665,-0.01022,-0.03693,-0.03632,-0.01343,-0.02594,-0.05127,-0.01373,-0.00549,1.26587,-0.05798,-0.01144,0.00046,-0.03479,0.00351,-0.0975,-0.03372
7.6655,-0.01251,-0.03876,-0.03448,-0.01373,-0.02533,-0.05127,-0.01312,-0.00366,1.70792,-0.06775,-0.01724,0.00061,-0.03647,-0.00214,-0.00961,-0.04883
7.666,-0.01556,-0.03891,-0.0322,-0.0148,-0.02594,-0.05051,-0.01236,-0.00305,2.02805,-0.06866,-0.02243,0.00198,-0.03738,-0.0029,0.11261,-0.05524
7.6665,-0.01724,-0.03967,-0.03296,-0.01633,-0.02563,-0.05295,-0.01205,-0.0032,2.13928,-0.0618,-0.02808,0.00183,-0.03677,0.00076,0.20584,-0.04944
7.667,-0.01831,-0.04074,-0.03479,-0.01694,-0.02426,-0.05325,-0.01282,-0.00351,2.03644,-0.04913,-0.03098,0.00076,-0.03616,0.00656,0.21072,-0.0412
7.6675,-0.01801,-0.04318,-0.0351,-0.01587,-0.02304,-0.05096,-0.01221,-0.00443,1.80405,-0.03616,-0.0354,0.00198,-0.03571,0.00992,0.13733,-0.0351
7.668,-0.01755,-0.04333,-0.03403,-0.01419,-0.02151,-0.04944,-0.01129,-0.00534,1.5596,-0.02426,-0.04822,0.00443,-0.03494,0.01083,0.04425,-0.03204
7.6685,-0.01816,-0.04257,-0.0325,-0.01328,-0.02045,-0.04776,-0.01068,-0.0058,1.3504,-0.00961,-0.06729,0.00412,-0.03326,0.00992,-0.01419,-0.03021
7.669,-0.01816,-0.04257,-0.03265,-0.01526,-0.02075,-0.0473,-0.01099,-0.00534,1.14899,0.00702,-0.07355,0.00122,-0.03128,0.0116,-0.00854,-0.03342
7.6695,-0.0174,-0.04318,-0.03174,-0.01801,-0.02045,-0.04776,-0.01144,-0.00443,0.93018,0.01907,-0.06012,-0.00122,-0.02869,0.01434,0.05264,-0.0415
7.67,-0.01663,-0.04257,-0.03098,-0.01801,-0.01984,-0.04715,-0.01144,-0.00473,0.70724,0.0238,-0.0383,0.00015,-0.02762,0.01587,0.10422,-0.05325
7.6705,-0.01709,-0.04105,-0.03098,-0.01755,-0.01846,-0.04639,-0.0116,-0.00549,0.49744,0.01755,-0.02472,0.00366,-0.02945,0.01358,0.07584,-0.04623
7.671,-0.01862,-0.03998,-0.03189,-0.01709,-0.01831,-0.04517,-0.01083,-0.00595,0.29709,0.0029,-0.02991,0.00641,-0.03159,0.01068,-0.009,-0.00961
7.6715,-0.01816,-0.04135,-0.03143,-0.01678,-0.01785,-0.04364,-0.01053,-0.0058,0.09598,-0.01312,-0.05219,0.00717,-0.03143,0.01007,-0.06531,0.02792
7.672,-0.01801,-0.04196,-0.03159,-0.01663,-0.0177,-0.04318,-0.01007,-0.0058,-0.10056,-0.02136,-0.07217,0.00397,-0.02884,0.0116,-0.06134,0.01831
7.6725,-0.01694,-0.04074,-0.0322,-0.01678,-0.01663,-0.0444,-0.00946,-0.00488,-0.28534,-0.02228,-0.06836,-0.00076,-0.02686,0.01511,-0.0264,-0.02991
7.673,-0.01587,-0.03967,-0.03296,-0.01541,-0.01572,-0.04486,-0.00992,-0.0032,-0.45746,-0.02274,-0.03464,-0.00656,-0.02869,0.02319,0.02991,-0.07111
7.6735,-0.01358,-0.04013,-0.03265,-0.0145,-0.01434,-0.04501,-0.01007,-0.00214,-0.60913,-0.02701,0.01099,-0.0087,-0.03128,0.03998,0.10117,-0.07172
7.674,-0.01205,-0.04196,-0.03143,-0.0145,-0.01404,-0.04395,-0.0116,-0.00168,-0.73257,-0.03464,0.0351,-0.0061,-0.03372,0.0621,0.13321,-0.05157
7.6745,-0.01068,-0.04196,-0.03204,-0.01541,-0.01404,-0.04318,-0.01221,-0.00259,-0.83405,-0.0415,0.01999,-0.00107,-0.03708,0.07767,0.09186,-0.03021
7.675,-0.01068,-0.04105,-0.03296,-0.01541,-0.01724,-0.04288,-0.01205,-0.00305,-0.93094,-0.04486,-0.00916,0.00153,-0.04272,0.07858,0.02533,-0.01633
7.6755,-0.01236,-0.04074,-0.03296,-0.01404,-0.02197,-0.04532,-0.0119,-0.00198,-1.02692,-0.0502,-0.01068,0.00305,-0.04715,0.06927,0.00137,-0.0058
7.676,-0.01297,-0.04105,-0.03342,-0.0145,-0.02411,-0.047,-0.01175,0.0,-1.11557,-0.05676,0.02808,0.00229,-0.04852,0.06012,0.0119,0.00015
7.6765,-0.01266,-0.04227,-0.03235,-0.01434,-0.02411,-0.04715,-0.0119,0.00198,-1.18073,-0.05524,0.07675,0.00137,-0.04578,0.0528,0.01312,0.0
7.677,-0.01083,-0.04257,-0.03189,-0.0145,-0.02121,-0.04593,-0.01068,0.00275,-1.2236,-0.04242,0.10437,0.00107,-0.04028,0.04135,-0.00275,-0.00305
7.6775,-0.00916,-0.04272,-0.03174,-0.01358,-0.01801,-0.04623,-0.00977,0.00275,-1.25793,-0.02258,0.10712,0.00198,-0.03448,0.01862,-0.01221,0.00061
7.678,-0.00916,-0.04333,-0.0322,-0.01434,-0.01465,-0.04715,-0.00977,0.00168,-1.29578,-0.00854,0.09399,0.00076,-0.03174,-0.01389,-0.01038,0.01221
7.6785,-0.00916,-0.04303,-0.03326,-0.01526,-0.01404,-0.04684,-0.01022,0.0,-1.33453,-0.00687,0.07034,-0.00351,-0.03372,-0.04852,-0.0119,0.00671
7.679,-0.00809,-0.04135,-0.03387,-0.01526,-0.01495,-0.04547,-0.01144,-0.00092,-1.36459,-0.02289,0.04227,-0.00885,-0.03784,-0.08026,-0.02151,-0.03067
7.6795,-0.00671,-0.04013,-0.03387,-0.01328,-0.01877,-0.04471,-0.0116,-0.00046,-1.37878,-0.05234,0.01709,-0.009,-0.04166,-0.11276,-0.03006,-0.08362
7.68,-0.00549,-0.04028,-0.03281,-0.01129,-0.02335,-0.04593,-0.01099,0.00061,-1.37604,-0.08072,-0.00626,-0.00336,-0.04608,-0.14832,-0.03265,-0.11826
7.6805,-0.00534,-0.04089,-0.03113,-0.01038,-0.0293,-0.04669,-0.01053,0.00092,-1.35803,-0.08911,-0.03265,0.00214,-0.04974,-0.17975,-0.03128,-0.12314
7.681,-0.00671,-0.04044,-0.02975,-0.01022,-0.03616,-0.0473,-0.01022,0.00168,-1.32599,-0.08759,-0.06241,0.00504,-0.05249,-0.1947,-0.03159,-0.10742
7.6815,-0.00763,-0.03891,-0.02975,-0.00977,-0.04562,-0.04745,-0.00916,0.00229,-1.28311,-0.08804,-0.08163,0.00427,-0.05249,-0.18448,-0.03143,-0.08789
7.682,-0.00748,-0.03784,-0.03174,-0.00748,-0.0531,-0.04852,-0.009,0.00351,-1.23093,-0.09842,-0.07767,0.00412,-0.05112,-0.14725,-0.02899,-0.07111
7.6825,-0.00687,-0.03845,-0.03387,-0.00687,-0.056,-0.04837,-0.00961,0.0032,-1.16928,-0.10712,-0.05356,0.00534,-0.04791,-0.09613,-0.0264,-0.06271
7.683,-0.00687,-0.03952,-0.03403,-0.00641,-0.05554,-0.04959,-0.01114,0.00061,-1.10825,-0.10513,-0.03311,0.00488,-0.0441,-0.05234,-0.02716,-0.06195
7.6835,-0.00763,-0.0415,-0.03433,-0.0058,-0.05219,-0.05035,-0.01068,-0.00122,-1.07666,-0.08926,-0.0383,0.00092,-0.0412,-0.02914,-0.03021,-0.06119
7.684,-0.00793,-0.04288,-0.03357,-0.00473,-0.04959,-0.05096,-0.01053,-0.00214,-1.08841,-0.07492,-0.05798,-0.00198,-0.03967,-0.02213,-0.03265,-0.05386
7.6845,-0.00778,-0.04517,-0.03418,-0.00458,-0.04852,-0.05203,-0.01007,-0.00244,-1.07224,-0.06516,-0.06241,-0.00122,-0.03876,-0.02335,-0.03418,-0.04395
7.685,-0.00793,-0.04684,-0.03464,-0.00641,-0.04883,-0.05295,-0.01083,-0.00275,-0.85785,-0.04684,-0.03967,0.00244,-0.03891,-0.02686,-0.03342,-0.03937
7.6855,-0.00839,-0.04715,-0.03525,-0.00748,-0.04929,-0.05356,-0.01099,-0.00427,-0.32715,-0.01816,-0.00992,0.0061,-0.03998,-0.03357,-0.0293,-0.03708
7.686,-0.00809,-0.0473,-0.03555,-0.00702,-0.05096,-0.05173,-0.01205,-0.00763,0.38513,-0.00015,-0.00122,0.00763,-0.04242,-0.0415,-0.02365,-0.0325
7.6865,-0.00778,-0.04776,-0.03448,-0.00687,-0.05264,-0.04974,-0.01175,-0.01038,1.00449,-0.01541,-0.02655,0.00641,-0.04333,-0.04272,-0.02045,-0.03174
7.687,-0.00778,-0.04761,-0.03387,-0.00748,-0.05203,-0.04776,-0.01114,-0.01129,1.42456,-0.05585,-0.08438,0.00229,-0.0415,-0.03357,-0.02258,-0.04395
7.6875,-0.00793,-0.04684,-0.03387,-0.00916,-0.04959,-0.04684,-0.01083,-0.00977,1.67511,-0.08743,-0.15076,-0.00183,-0.03632,-0.0148,-0.02762,-0.06332
7.688,-0.00717,-0.04654,-0.03433,-0.00916,-0.0473,-0.04776,-0.01144,-0.00839,1.65787,-0.08926,-0.17807,-0.00366,-0.03128,0.00397,-0.03387,-0.07797
7.6885,-0.00717,-0.04669,-0.0354,-0.00671,-0.04608,-0.04959,-0.01221,-0.00671,1.24176,-0.07202,-0.13962,-0.00229,-0.02686,0.01709,-0.04807,-0.08026
7.689,-0.00717,-0.04715,-0.03448,-0.00549,-0.04395,-0.05112,-0.01266,-0.00504,0.60745,-0.04791,-0.0563,-0.00046,-0.02563,0.02075,-0.07004,-0.07187
7.6895,-0.00641,-0.04639,-0.03265,-0.00473,-0.03922,-0.05096,-0.01236,-0.00351,0.19669,-0.01007,0.02151,0.00061,-0.02548,0.01785,-0.08423,-0.06363
7.69,-0.00458,-0.04547,-0.03113,-0.00458,-0.03448,-0.05127,-0.01099,-0.00168,0.22644,0.04852,0.06363,0.00153,-0.02579,0.01129,-0.0679,-0.06134
7.6905,-0.00351,-0.04349,-0.03174,-0.00412,-0.03296,-0.04974,-0.01129,-0.00275,0.47348,0.11719,0.07156,0.00244,-0.02563,0.00427,-0.01282,-0.06592
7.691,-0.00412,-0.04333,-0.03448,-0.00504,-0.03418,-0.04883,-0.01236,-0.00549,0.59875,0.16541,0.05493,0.0029,-0.02533,-0.00107,0.04761,-0.07065
7.6915,-0.00458,-0.04379,-0.03647,-0.00595,-0.03265,-0.04868,-0.01266,-0.00809,0.50888,0.17349,0.02441,0.0032,-0.0267,-0.00458,0.065,-0.06882
7.692,-0.00427,-0.04333,-0.03799,-0.0061,-0.03082,-0.04837,-0.01251,-0.00931,0.34653,0.14877,-0.00641,0.00549,-0.0293,-0.00732,0.03128,-0.06287
7.6925,-0.0029,-0.04333,-0.0383,-0.00519,-0.02991,-0.04959,-0.01175,-0.00946,0.24796,0.11795,-0.02243,0.00916,-0.03174,-0.01007,-0.00565,-0.05493
7.693,-0.00351,-0.04425,-0.03616,-0.00473,-0.03113,-0.04959,-0.01099,-0.00824,0.21561,0.10239,-0.01892,0.0116,-0.03143,-0.01144,-0.00916,-0.04684
7.6935,-0.00565,-0.04547,-0.03326,-0.00626,-0.03387,-0.04974,-0.01038,-0.00687,0.19714,0.103,-0.00351,0.00961,-0.03082,-0.01343,0.00641,-0.03723
7.694,-0.00687,-0.04578,-0.03159,-0.00732,-0.03555,-0.05005,-0.00977,-0.00732,0.1799,0.10147,0.0238,0.00366,-0.03235,-0.01587,0.00885,-0.02991
7.6945,-0.00717,-0.04623,-0.03113,-0.00702,-0.03494,-0.04837,-0.01068,-0.00961,0.19043,0.09171,0.06851,-0.00122,-0.03342,-0.01678,-0.00061,-0.02518
7.695,-0.00854,-0.04684,-0.03067,-0.00595,-0.03433,-0.04776,-0.01328,-0.01114,0.22659,0.07095,0.1178,-0.0029,-0.03204,-0.01495,-0.00641,-0.02579
7.6955,-0.00977,-0.04745,-0.03128,-0.00427,-0.03372,-0.0473,-0.01495,-0.01083,0.22156,0.04593,0.13443,-0.00076,-0.03021,-0.01221,-0.0029,-0.03067
7.696,-0.00854,-0.04745,-0.03159,-0.00458,-0.03189,-0.04745,-0.01526,-0.01007,0.103,0.02426,0.09048,0.00153,-0.02792,-0.00763,0.00076,-0.03586
7.6965,-0.00641,-0.04684,-0.03189,-0.00519,-0.03036,-0.04669,-0.01541,-0.01068,-0.12054,0.00809,-0.01175,0.00534,-0.0264,-0.00076,0.00107,-0.03738
7.697,-0.00336,-0.04486,-0.03204,-0.00641,-0.02945,-0.04684,-0.01465,-0.01144,-0.37109,-0.01068,-0.1268,0.00977,-0.02411,0.01007,0.00351,-0.03403
7.6975,-0.00153,-0.04211,-0.03311,-0.00687,-0.03036,-0.04883,-0.01358,-0.01083,-0.60501,-0.0354,-0.18784,0.01175,-0.02228,0.0235,0.0116,-0.02808
7.698,0.00015,-0.0415,-0.03372,-0.00687,-0.03052,-0.05051,-0.01297,-0.00916,-0.86411,-0.06241,-0.17227,0.0087,-0.02182,0.0325,0.01953,-0.02762
7.6985,0.00107,-0.04303,-0.03296,-0.00534,-0.02914,-0.05066,-0.01343,-0.00824,-1.20209,-0.08789,-0.11658,0.0029,-0.02411,0.03204,0.02274,-0.03265
7.699,0.00275,-0.04486,-0.03281,-0.00305,-0.02792,-0.04944,-0.01312,-0.0087,-1.59714,-0.10529,-0.06989,-0.00031,-0.02853,0.0235,0.02121,-0.03601
7.6995,0.0032,-0.04349,-0.03189,-0.00092,-0.02808,-0.04837,-0.01373,-0.00885,-1.97769,-0.10361,-0.04196,0.00107,-0.03204,0.01083,0.01907,-0.03235
7.7,0.00381,-0.04166,-0.03143,-0.00076,-0.02808,-0.047,-0.01389,-0.009,-2.29858,-0.07492,-0.0209,0.00427,-0.03174,0.00153,0.01389,-0.02563
7.7005,0.00381,-0.04059,-0.03113,-0.00153,-0.02762,-0.04822,-0.01373,-0.009,-2.53754,-0.02396,-0.00443,0.00748,-0.02747,-0.00137,0.00748,-0.0235
7.701,0.00336,-0.04028,-0.03098,-0.00153,-0.02609,-0.04944,-0.01266,-0.00931,-2.68417,0.02274,0.00168,0.01083,-0.02045,0.00015,0.00031,-0.02594
7.7015,0.00336,-0.04059,-0.03036,-0.00168,-0.02625,-0.05051,-0.01236,-0.00946,-2.74475,0.0473,0.00565,0.0119,-0.01526,-0.00015,-0.00031,-0.02747
7.702,0.00275,-0.04105,-0.03082,-0.00168,-0.02731,-0.05081,-0.01328,-0.00946,-2.74109,0.04135,0.02258,0.00793,-0.01358,-0.00946,0.00656,-0.0296
7.7025,0.00031,-0.04227,-0.03098,-0.00244,-0.02686,-0.05051,-0.01511,-0.00824,-2.67746,0.02518,0.04715,0.00137,-0.01633,-0.02594,0.0148,-0.03693
7.703,-0.0029,-0.04303,-0.03143,-0.00488,-0.02563,-0.05051,-0.01556,-0.00717,-2.54593,0.01694,0.06088,-0.0029,-0.01923,-0.04013,0.01663,-0.04501
7.7035,-0.00443,-0.04318,-0.03159,-0.00641,-0.02319,-0.04929,-0.01495,-0.00565,-2.34863,0.01938,0.05096,-0.0032,-0.02045,-0.04517,0.0116,-0.04578
7.704,-0.0029,-0.04257,-0.03235,-0.00671,-0.02258,-0.04791,-0.0148,-0.00626,-2.09396,0.01511,0.01846,-0.00107,-0.02045,-0.03845,0.00671,-0.04593
7.7045,-0.00061,-0.04272,-0.03296,-0.00656,-0.02441,-0.04807,-0.01434,-0.00641,-1.81412,-0.0058,-0.03845,0.00305,-0.01846,-0.02182,0.00717,-0.04959
7.705,0.0,-0.04272,-0.03372,-0.00809,-0.02625,-0.04745,-0.01419,-0.0061,-1.60797,-0.03738,-0.10712,0.00687,-0.01831,0.00031,0.01205,-0.05341
7.7055,0.00015,-0.04196,-0.03342,-0.00885,-0.02655,-0.04715,-0.01419,-0.00565,-1.54694,-0.06348,-0.1503,0.00854,-0.01923,0.01862,0.01541,-0.05081
7.706,0.00198,-0.04044,-0.03342,-0.00992,-0.02533,-0.04684,-0.01282,-0.00549,-1.55853,-0.07751,-0.13321,0.00656,-0.02304,0.02701,0.01526,-0.04669
7.7065,0.00305,-0.04135,-0.03372,-0.01007,-0.02533,-0.04669,-0.01297,-0.00519,-1.53488,-0.08316,-0.0676,0.00107,-0.03052,0.02792,0.01251,-0.04807
7.707,0.00259,-0.04379,-0.03372,-0.01205,-0.02655,-0.04822,-0.01251,-0.00565,-1.49948,-0.08698,0.00488,-0.00244,-0.03983,0.02426,0.00961,-0.05051
7.7075,0.00061,-0.04471,-0.03326,-0.01434,-0.02731,-0.04745,-0.01373,-0.00687,-1.50497,-0.08499,0.05798,-0.00366,-0.04745,0.01602,0.00748,-0.04822
7.708,-0.00046,-0.04532,-0.03143,-0.01526,-0.02853,-0.04547,-0.01495,-0.00687,-1.51489,-0.08743,0.09811,-0.00351,-0.05432,-0.00031,0.00565,-0.03906
7.7085,-0.00122,-0.04623,-0.02991,-0.0148,-0.0296,-0.04501,-0.01526,-0.00748,-1.57242,-0.09583,0.13367,-0.00458,-0.06058,-0.02396,0.00504,-0.03143
7.709,-0.00076,-0.047,-0.02914,-0.01434,-0.03174,-0.04562,-0.01389,-0.00748,-1.88751,-0.09872,0.15457,-0.00671,-0.06454,-0.04517,0.00549,-0.02777
7.7095,-0.00031,-0.04745,-0.02914,-0.01404,-0.03036,-0.04654,-0.01282,-0.00702,-2.55585,-0.08469,0.1474,-0.00443,-0.06363,-0.05585,0.00687,-0.02335
7.71,-0.00015,-0.04593,-0.02945,-0.01358,-0.02914,-0.047,-0.01328,-0.00366,-3.34503,-0.04791,0.10559,0.00031,-0.06073,-0.05798,0.01053,-0.02243
7.7105,-0.00061,-0.0441,-0.02914,-0.01358,-0.02823,-0.04471,-0.01358,0.0,-3.86658,0.00427,0.0322,0.00351,-0.06012,-0.05646,0.01312,-0.02686
7.711,-0.0029,-0.04364,-0.02808,-0.01328,-0.02914,-0.04471,-0.01312,0.00153,-3.8623,0.06943,-0.06516,0.00183,-0.06165,-0.0502,0.01328,-0.03479
7.7115,-0.00473,-0.04501,-0.02869,-0.01282,-0.02991,-0.04456,-0.01251,0.00092,-3.34091,0.11963,-0.16083,-0.00198,-0.06073,-0.04288,0.01678,-0.03433
7.712,-0.00473,-0.04684,-0.03143,-0.01282,-0.02914,-0.04608,-0.01251,0.0,-2.57599,0.13428,-0.2063,-0.00198,-0.05737,-0.0412,0.02335,-0.02335
7.7125,-0.00381,-0.04807,-0.03342,-0.01373,-0.02975,-0.04639,-0.01205,-0.00015,-1.94778,0.11948,-0.16357,0.00061,-0.05325,-0.04639,0.02396,-0.01312
7.713,-0.00443,-0.04837,-0.03235,-0.01465,-0.02945,-0.0473,-0.0119,0.00015,-1.67847,0.09277,-0.06378,-0.00092,-0.04822,-0.05508,0.01572,-0.01846
7.7135,-0.0058,-0.0473,-0.03036,-0.01633,-0.02853,-0.04608,-0.01205,0.00153,-1.67862,0.07034,0.0238,-0.0058,-0.04105,-0.06363,0.0087,-0.03342
7.714,-0.00702,-0.04715,-0.02914,-0.0174,-0.02853,-0.04639,-0.01358,0.00031,-1.69754,0.04517,0.06668,-0.00977,-0.03143,-0.07462,0.00977,-0.04807
7.7145,-0.00687,-0.04593,-0.0293,-0.01877,-0.02701,-0.04532,-0.0148,-0.00229,-1.59592,0.01068,0.08057,-0.01114,-0.02426,-0.08545,0.01495,-0.05325
7.715,-0.00702,-0.04501,-0.03067,-0.0209,-0.02533,-0.04547,-0.01602,-0.00381,-1.4679,-0.02243,0.08591,-0.0087,-0.02075,-0.08804,0.0174,-0.05066
7.7155,-0.00717,-0.04456,-0.03174,-0.02258,-0.02472,-0.04471,-0.01617,-0.00183,-1.49261,-0.03738,0.08224,-0.00443,-0.02045,-0.0766,0.01587,-0.04883
7.716,-0.00809,-0.04517,-0.03204,-0.02304,-0.02548,-0.04745,-0.01633,-0.00153,-1.68549,-0.03769,0.06973,-0.00153,-0.01953,-0.05798,0.01495,-0.05035
7.7165,-0.00778,-0.04578,-0.03204,-0.02426,-0.02731,-0.04913,-0.01602,-0.00229,-1.90033,-0.03006,0.06516,-0.00366,-0.01923,-0.04364,0.01404,-0.05371
7.717,-0.00641,-0.04517,-0.03174,-0.02502,-0.02853,-0.04974,-0.01572,-0.00351,-2.05215,-0.02518,0.07187,-0.00885,-0.01938,-0.03799,0.01144,-0.05692
7.7175,-0.00595,-0.04501,-0.03235,-0.02533,-0.03006,-0.05112,-0.01526,-0.00259,-2.17651,-0.0209,0.07278,-0.01221,-0.02197,-0.0351,0.00626,-0.05829
7.718,-0.0058,-0.04395,-0.03311,-0.02533,-0.03067,-0.05264,-0.01587,0.00076,-2.25922,-0.02457,0.05157,-0.0116,-0.02502,-0.02945,0.0029,-0.05737
7.7185,-0.00565,-0.04333,-0.03342,-0.02502,-0.03067,-0.05203,-0.01526,0.00305,-2.19696,-0.03418,0.00809,-0.00854,-0.02777,-0.0209,0.00259,-0.05768
7.719,-0.00504,-0.04456,-0.03342,-0.02441,-0.03082,-0.04959,-0.01419,0.00381,-1.95404,-0.04288,-0.04807,-0.00488,-0.02716,-0.01083,0.00549,-0.05585
7.7195,-0.00549,-0.04456,-0.03418,-0.02396,-0.02975,-0.04852,-0.01236,0.00397,-1.63269,-0.04395,-0.0972,0.0,-0.02197,0.00015,0.00793,-0.05463
7.72,-0.00595,-0.04364,-0.03342,-0.02258,-0.03021,-0.04684,-0.0119,0.00519,-1.35422,-0.04074,-0.12161,0.00412,-0.01526,0.01129,0.00946,-0.05127
7.7205,-0.00656,-0.04227,-0.03174,-0.02228,-0.02838,-0.04761,-0.01221,0.00702,-1.13724,-0.03738,-0.12253,0.00656,-0.0119,0.01877,0.01007,-0.04578
7.721,-0.00717,-0.04272,-0.03021,-0.02319,-0.02792,-0.04974,-0.01343,0.00534,-0.93658,-0.03647,-0.1178,0.00702,-0.01465,0.02045,0.00977,-0.03937
7.7215,-0.00671,-0.04456,-0.02991,-0.02411,-0.02853,-0.05157,-0.01434,0.00397,-0.73318,-0.03891,-0.1181,0.00793,-0.01877,0.01648,0.01129,-0.03342
7.722,-0.00626,-0.04532,-0.03128,-0.02441,-0.02991,-0.05096,-0.01465,0.00351,-0.5481,-0.04196,-0.11475,0.00778,-0.02029,0.01144,0.01236,-0.02899
7.7225,-0.00687,-0.04578,-0.03235,-0.02472,-0.02991,-0.0499,-0.01389,0.00336,-0.39398,-0.04044,-0.09735,0.00763,-0.01862,0.00793,0.01297,-0.02899
7.723,-0.00732,-0.04623,-0.03204,-0.02289,-0.02884,-0.04883,-0.01343,0.00366,-0.24414,-0.03098,-0.07492,0.00458,-0.01801,0.00565,0.01297,-0.0322
7.7235,-0.00626,-0.04684,-0.03113,-0.0206,-0.02899,-0.04929,-0.0145,0.00336,-0.07782,-0.01663,-0.06271,0.0,-0.01984,0.00351,0.01221,-0.03815
7.724,-0.00427,-0.04654,-0.03098,-0.01892,-0.02991,-0.04929,-0.01541,0.00397,0.08606,0.00549,-0.065,-0.00473,-0.02014,0.00381,0.01068,-0.04089
7.7245,-0.00397,-0.04364,-0.03113,-0.01907,-0.02975,-0.04883,-0.01511,0.00519,0.22903,0.02747,-0.07355,-0.00534,-0.0174,0.0058,0.00992,-0.04105
7.725,-0.0061,-0.04013,-0.02914,-0.01999,-0.0293,-0.047,-0.01343,0.00519,0.35629,0.04028,-0.08194,-0.00259,-0.01297,0.00687,0.01083,-0.03723
7.7255,-0.00854,-0.03876,-0.02853,-0.02151,-0.02853,-0.04639,-0.01312,0.00473,0.47241,0.04013,-0.09033,0.00305,-0.01129,0.00824,0.01358,-0.03113
7.726,-0.00961,-0.03891,-0.02975,-0.02136,-0.02853,-0.04807,-0.01343,0.00336,0.57785,0.03067,-0.0914,0.00763,-0.01358,0.01129,0.01587,-0.0238
7.7265,-0.0087,-0.03967,-0.03174,-0.02045,-0.02853,-0.04593,-0.01312,0.00229,0.67566,0.02045,-0.06943,0.00809,-0.01907,0.01434,0.01526,-0.02045
7.727,-0.00702,-0.0415,-0.03342,-0.0206,-0.02853,-0.04623,-0.01343,0.0029,0.7637,0.0119,-0.02396,0.00427,-0.02502,0.01251,0.00854,-0.02213
7.7275,-0.00595,-0.04364,-0.03326,-0.02151,-0.02731,-0.04562,-0.01358,0.00183,0.84671,-0.00076,0.0209,0.00031,-0.02991,0.00488,-0.01022,-0.02197
7.728,-0.00565,-0.04364,-0.03204,-0.02197,-0.02655,-0.04425,-0.01266,0.00076,0.94025,-0.01328,0.04364,-0.00092,-0.0325,-0.00107,-0.04242,-0.01923
7.7285,-0.00656,-0.04135,-0.03204,-0.02106,-0.02594,-0.04288,-0.01266,-0.00107,1.03622,-0.03296,0.04929,0.00031,-0.03403,-0.00595,-0.07111,-0.01328
7.729,-0.00839,-0.03891,-0.03189,-0.01862,-0.02655,-0.04044,-0.01343,-0.00076,1.10565,-0.047,0.05463,0.00229,-0.03754,-0.00946,-0.06088,-0.0087
7.7295,-0.00931,-0.03693,-0.03128,-0.01678,-0.0264,-0.04044,-0.01343,0.00107,1.14014,-0.06073,0.06454,0.0029,-0.0412,-0.01434,0.00809,-0.0119
7.73,-0.00977,-0.03708,-0.02945,-0.01526,-0.02655,-0.04135,-0.01282,0.00214,1.16638,-0.06989,0.07446,0.00061,-0.04425,-0.01953,0.09308,-0.01984
7.7305,-0.00946,-0.03754,-0.03006,-0.01526,-0.0267,-0.04471,-0.01328,0.00137,1.20331,-0.0766,0.08163,-0.0032,-0.04532,-0.0235,0.11932,-0.02823
7.731,-0.00854,-0.03632,-0.03159,-0.0148,-0.02625,-0.04517,-0.01419,0.00046,1.24725,-0.07401,0.0856,-0.00473,-0.04456,-0.02731,0.06805,-0.03281
7.7315,-0.00839,-0.0354,-0.0322,-0.01419,-0.02502,-0.04318,-0.01526,0.00107,1.28769,-0.06546,0.08072,-0.00351,-0.04227,-0.03143,0.00916,-0.02579
7.732,-0.00778,-0.03601,-0.03189,-0.01373,-0.0267,-0.0415,-0.01587,0.00168,1.32187,-0.05249,0.06882,-0.00244,-0.03906,-0.03677,-0.00305,-0.02228
7.7325,-0.00656,-0.03754,-0.03235,-0.01328,-0.02884,-0.04242,-0.01465,0.00122,1.35086,-0.03815,0.05402,-0.00443,-0.03555,-0.04318,0.01709,-0.02594
7.733,-0.00519,-0.03876,-0.03311,-0.01236,-0.02975,-0.04379,-0.01312,0.00168,1.37283,-0.02106,0.03098,-0.00854,-0.03342,-0.05051,0.02716,-0.03815
7.7335,-0.00366,-0.03922,-0.03464,-0.01083,-0.02975,-0.04486,-0.01251,0.00092,1.38397,-0.00504,-0.00397,-0.01053,-0.03204,-0.05707,0.02014,-0.04913
7.734,-0.0032,-0.04044,-0.0354,-0.01053,-0.02945,-0.04517,-0.01358,-0.00076,1.38245,0.0029,-0.03784,-0.00854,-0.03189,-0.05722,0.01694,-0.056
7.7345,-0.00259,-0.04074,-0.03525,-0.01007,-0.03021,-0.04593,-0.01389,-0.00214,1.37604,-0.00092,-0.0499,-0.00549,-0.03113,-0.04959,0.0209,-0.05692
7.735,-0.00153,-0.03998,-0.03479,-0.00961,-0.02991,-0.04547,-0.01541,-0.00336,1.36444,-0.01312,-0.03738,-0.00473,-0.02975,-0.0354,0.02197,-0.06378
7.7355,-0.00092,-0.03876,-0.03586,-0.00961,-0.03113,-0.04471,-0.01495,-0.00397,1.33896,-0.02808,-0.01602,-0.00488,-0.0296,-0.02213,0.01495,-0.07675
7.736,-0.00198,-0.03906,-0.03708,-0.00946,-0.03113,-0.04364,-0.0145,-0.00366,1.29959,-0.03586,-0.00137,-0.00351,-0.03036,-0.01465,0.00748,-0.08789
7.7365,-0.00412,-0.04074,-0.03769,-0.01068,-0.0322,-0.04623,-0.01495,-0.00351,1.27274,-0.0441,0.00351,-0.00031,-0.03174,-0.01328,0.0029,-0.0885
7.737,-0.00595,-0.04211,-0.03708,-0.01144,-0.0325,-0.04837,-0.0145,-0.00381,1.27304,-0.06042,-0.00061,0.00031,-0.0325,-0.0148,-0.00595,-0.07446
7.7375,-0.00687,-0.04135,-0.03601,-0.01068,-0.03387,-0.04868,-0.01343,-0.00427,1.27777,-0.08316,-0.01266,-0.00046,-0.03174,-0.01495,-0.03403,-0.06088
7.738,-0.00626,-0.04013,-0.03571,-0.01007,-0.03372,-0.04807,-0.01312,-0.00443,1.2738,-0.09689,-0.02457,0.0,-0.03174,-0.01434,-0.07416,-0.05371
7.7385,-0.00565,-0.04059,-0.03708,-0.00946,-0.0325,-0.04745,-0.01282,-0.00381,1.27335,-0.09384,-0.02884,0.00259,-0.03311,-0.01541,-0.09689,-0.05447
7.739,-0.00443,-0.04257,-0.03693,-0.00854,-0.03265,-0.04807,-0.01404,-0.00366,1.27579,-0.08331,-0.02533,0.00473,-0.03662,-0.01892,-0.07294,-0.05524
7.7395,-0.00458,-0.04272,-0.03632,-0.00702,-0.03265,-0.04807,-0.01328,-0.00381,1.2674,-0.07736,-0.01709,0.01129,-0.04013,-0.02319,0.00549,-0.05173
7.74,-0.00534,-0.04044,-0.03571,-0.00641,-0.03265,-0.04745,-0.01221,-0.00381,1.24527,-0.07614,-0.00946,0.02426,-0.04211,-0.02625,0.09598,-0.0444
7.7405,-0.00534,-0.03922,-0.03632,-0.00626,-0.03281,-0.04684,-0.01312,-0.0032,1.21552,-0.06516,0.00061,0.03952,-0.04364,-0.02289,0.13092,-0.03754
7.741,-0.00473,-0.04013,-0.03601,-0.00671,-0.0325,-0.04547,-0.01389,-0.00031,1.18973,-0.04181,0.00549,0.04715,-0.04364,-0.01022,0.08865,-0.03342
7.7415,-0.00366,-0.0412,-0.0354,-0.00626,-0.03204,-0.0473,-0.01404,0.00107,1.18164,-0.0116,-0.0032,0.04028,-0.04044,0.00946,0.02655,-0.03265
7.742,-0.00336,-0.04181,-0.0351,-0.00641,-0.03296,-0.0473,-0.01343,0.00015,1.1853,0.01678,-0.02686,0.0235,-0.03586,0.02655,0.0032,-0.0354
7.7425,-0.0029,-0.04211,-0.03479,-0.00641,-0.03387,-0.04929,-0.01205,-0.00153,1.17752,0.03265,-0.04852,0.00473,-0.03479,0.03128,0.01282,-0.03555
7.743,-0.00275,-0.04318,-0.03632,-0.00763,-0.03296,-0.04944,-0.01205,-0.00137,1.14899,0.03754,-0.05707,-0.01434,-0.03723,0.02777,0.01968,-0.0351
7.7435,-0.00412,-0.04257,-0.03693,-0.00824,-0.03235,-0.04929,-0.01205,-0.00122,1.11221,0.03754,-0.06424,-0.03571,-0.03845,0.02487,0.01648,-0.03159
7.744,-0.00504,-0.04211,-0.03708,-0.00793,-0.03311,-0.04837,-0.01312,-0.00137,1.08154,0.03815,-0.08804,-0.056,-0.0354,0.02609,0.0145,-0.02914
7.7445,-0.00488,-0.0412,-0.03647,-0.0058,-0.0351,-0.04776,-0.0148,-0.00244,1.05743,0.03937,-0.12299,-0.06439,-0.03143,0.02365,0.02075,-0.02945
7.745,-0.00443,-0.04166,-0.03616,-0.00366,-0.03708,-0.04837,-0.01541,-0.00275,1.03134,0.03647,-0.14343,-0.0618,-0.02884,0.01266,0.02472,-0.03159
7.7455,-0.00381,-0.04364,-0.03647,-0.0029,-0.03677,-0.04898,-0.0148,-0.00183,0.99777,0.01953,-0.13275,-0.05646,-0.02777,-0.00641,0.01999,-0.03586
7.746,-0.0029,-0.04471,-0.03479,-0.00275,-0.03555,-0.0502,-0.01419,-0.00092,0.96176,-0.00977,-0.10788,-0.0499,-0.02502,-0.0296,0.01251,-0.04425
7.7465,-0.00229,-0.04333,-0.03357,-0.00259,-0.03525,-0.0502,-0.0148,-0.00122,0.92896,-0.05096,-0.09293,-0.03738,-0.0235,-0.05737,0.00748,-0.05356
7.747,-0.00168,-0.04166,-0.03342,-0.00336,-0.03555,-0.04929,-0.01633,-0.00107,0.89767,-0.08652,-0.08423,-0.02716,-0.02319,-0.08774,0.00732,-0.05722
7.7475,-0.00259,-0.04105,-0.0351,-0.00351,-0.03571,-0.04578,-0.0174,-0.00168,0.86044,-0.10483,-0.0621,-0.02777,-0.02335,-0.11673,0.01053,-0.04974
7.748,-0.00397,-0.04181,-0.03662,-0.00336,-0.03586,-0.04623,-0.01678,-0.00259,0.81238,-0.10361,-0.0264,-0.02808,-0.02411,-0.13351,0.01221,-0.04181
7.7485,-0.00504,-0.04272,-0.03632,-0.00229,-0.03677,-0.04822,-0.01648,-0.00458,0.75623,-0.09537,0.00931,-0.00641,-0.02594,-0.1265,0.01053,-0.04105
7.749,-0.00549,-0.04181,-0.0351,-0.00244,-0.03769,-0.04837,-0.01617,-0.00519,0.70099,-0.08636,0.04089,0.03067,-0.02884,-0.09628,0.00732,-0.04364
7.7495,-0.00656,-0.04059,-0.03479,-0.00153,-0.03799,-0.04776,-0.01633,-0.00427,0.66422,-0.07614,0.07339,0.05447,-0.02884,-0.05844,0.00534,-0.04257
7.75,-0.00488,-0.04059,-0.03571,-0.00031,-0.0383,-0.04715,-0.01556,-0.00519,0.66635,-0.06668,0.10208,0.05157,-0.02548,-0.03326,0.00504,-0.03967
7.7505,-0.00305,-0.04272,-0.03708,0.00153,-0.0386,-0.047,-0.01556,-0.00565,0.69229,-0.06226,0.10468,0.03784,-0.02182,-0.02396,0.00549,-0.03952
7.751,-0.00198,-0.04501,-0.0386,0.00137,-0.03845,-0.04776,-0.0145,-0.0058,0.69946,-0.0708,0.07156,0.02945,-0.02136,-0.0238,0.00504,-0.04379
7.7515,-0.00198,-0.04425,-0.03784,0.00061,-0.03708,-0.04852,-0.01373,-0.00443,0.67169,-0.07568,0.02899,0.0238,-0.02258,-0.02243,0.00275,-0.04837
7.752,-0.00229,-0.04395,-0.03647,-0.00015,-0.03662,-0.04837,-0.01358,-0.00366,0.62683,-0.06653,0.02258,0.01831,-0.0235,-0.01831,0.00015,-0.05295
7.7525,-0.00107,-0.04471,-0.03464,0.0,-0.03616,-0.04837,-0.01419,-0.00351,0.56915,-0.04181,0.06653,0.0174,-0.02319,-0.01282,-0.00305,-0.05432
7.753,0.0,-0.04562,-0.03494,0.00061,-0.03693,-0.0473,-0.0145,-0.00412,0.49667,-0.01114,0.13351,0.01587,-0.02441,-0.00946,-0.00473,-0.05554
7.7535,0.00137,-0.0441,-0.0351,0.00137,-0.03616,-0.04791,-0.01511,-0.0058,0.43076,0.01816,0.17975,0.00626,-0.02731,-0.00854,-0.00519,-0.05539
7.754,0.00107,-0.04242,-0.03647,0.00092,-0.03662,-0.0499,-0.01465,-0.00748,0.39795,0.04181,0.18936,-0.00656,-0.03098,-0.00946,-0.0032,-0.0531
7.7545,0.00046,-0.04196,-0.03723,0.00137,-0.03723,-0.05173,-0.0145,-0.00748,0.39459,0.05783,0.1651,-0.00885,-0.03296,-0.01175,-0.00092,-0.04974
7.755,-0.00015,-0.04379,-0.03769,0.00076,-0.03479,-0.05127,-0.01419,-0.00595,0.39261,0.06271,0.11749,0.00122,-0.03403,-0.01083,-0.00015,-0.047
7.7555,-0.00168,-0.04562,-0.03647,-0.00015,-0.03494,-0.0502,-0.01495,-0.00473,0.36682,0.05722,0.05585,0.00946,-0.03632,-0.00824,0.00015,-0.04471
7.756,-0.00198,-0.04593,-0.03555,-0.00031,-0.0354,-0.05005,-0.01587,-0.00595,0.31952,0.03967,-0.01022,0.00732,-0.04013,-0.00626,0.00092,-0.04471
7.7565,-0.00198,-0.04501,-0.03616,0.0,-0.03632,-0.04974,-0.0174,-0.00839,0.26749,0.01587,-0.07233,-0.00046,-0.04272,-0.00381,0.00412,-0.04272
7.757,-0.00336,-0.0444,-0.03662,-0.00031,-0.03632,-0.0473,-0.01709,-0.009,0.22064,-0.00549,-0.12497,-0.00671,-0.04349,-0.00397,0.00488,-0.04089
7.7575,-0.0058,-0.04471,-0.03723,-0.00122,-0.03464,-0.04669,-0.01755,-0.00793,0.17715,-0.01999,-0.16861,-0.01053,-0.04272,-0.00458,0.00214,-0.04349
7.758,-0.00702,-0.04318,-0.03601,-0.00214,-0.03143,-0.04593,-0.01541,-0.00519,0.13412,-0.02655,-0.19913,-0.01328,-0.04013,-0.00519,-0.00275,-0.04898
7.7585,-0.00656,-0.04288,-0.03586,-0.0032,-0.03082,-0.04623,-0.01419,-0.00397,0.09537,-0.0351,-0.2153,-0.01404,-0.03723,-0.00168,-0.00687,-0.05386
7.759,-0.00595,-0.04318,-0.03616,-0.00381,-0.03036,-0.0473,-0.01419,-0.00381,0.06424,-0.04349,-0.20981,-0.01144,-0.03448,0.00839,-0.0087,-0.05219
7.7595,-0.00519,-0.04333,-0.03601,-0.00519,-0.02991,-0.047,-0.0145,-0.00366,0.03876,-0.04486,-0.18097,-0.00671,-0.02853,0.0206,-0.0061,-0.04288
7.76,-0.00351,-0.04196,-0.03616,-0.00763,-0.03006,-0.04517,-0.01511,-0.0029,0.01175,-0.03479,-0.13412,-0.00244,-0.02258,0.02716,0.00061,-0.03616
7.7605,-0.00305,-0.04135,-0.03448,-0.0087,-0.03128,-0.04425,-0.01389,-0.00244,-0.02396,-0.01801,-0.0795,0.00076,-0.01785,0.02472,0.00793,-0.03586
7.761,-0.0032,-0.04135,-0.03403,-0.00916,-0.03082,-0.04425,-0.01511,-0.00244,-0.06638,-0.00687,-0.03036,0.00443,-0.01831,0.01785,0.01144,-0.03769
7.7615,-0.00351,-0.04013,-0.03418,-0.00885,-0.0293,-0.04608,-0.01633,-0.00397,-0.10422,-0.00427,0.00259,0.00717,-0.02151,0.01251,0.01175,-0.04135
7.762,-0.00366,-0.03891,-0.03342,-0.00763,-0.02884,-0.04669,-0.01602,-0.00488,-0.12955,-0.00397,0.01022,0.00916,-0.02701,0.0061,0.01053,-0.04501
7.7625,-0.00443,-0.03738,-0.03235,-0.00641,-0.02945,-0.04639,-0.01526,-0.00717,-0.1445,-0.00183,-0.00046,0.00854,-0.03311,-0.00427,0.00977,-0.05035
7.763,-0.00443,-0.03693,-0.03204,-0.00504,-0.02945,-0.04547,-0.01251,-0.00656,-0.16068,0.00336,-0.01419,0.00687,-0.03845,-0.02014,0.0087,-0.0531
7.7635,-0.00351,-0.03586,-0.03265,-0.00427,-0.03036,-0.04471,-0.01266,-0.00458,-0.1767,0.00351,-0.01938,0.00565,-0.04349,-0.03525,0.00641,-0.0528
7.764,-0.00244,-0.03479,-0.03265,-0.00458,-0.03021,-0.04456,-0.01358,-0.00259,-0.19012,-0.00092,-0.01831,0.00565,-0.04791,-0.04456,0.00641,-0.04791
