time,RectFemL,VastusMedL,VastusLatL,TibAntL,HamMedL,HamLatL,GastroMedL,GastroLatL,RectFemR,VastusMedR,VastusLatR,TibAntR,HamMedR,HamLatR,GastroMedR,GastroLatR
3.1,0.00061,-0.04105,-0.03448,-0.01923,-0.03006,-0.0444,-0.01465,-0.0058,-0.0145,-0.01892,-0.01572,0.01404,-0.03052,-0.01755,0.00732,-0.03876
3.1005,0.00351,-0.04105,-0.03372,-0.01511,-0.0293,-0.04471,-0.01251,-0.00504,-0.01251,-0.01862,-0.01511,-0.00427,-0.03174,-0.01785,0.01007,-0.03922
3.101,0.00488,-0.03967,-0.03418,-0.01129,-0.0293,-0.04532,-0.01083,-0.00381,-0.01175,-0.01892,-0.01511,0.00641,-0.03265,-0.01755,0.01266,-0.03998
3.1015,0.00458,-0.03799,-0.03403,-0.01022,-0.03036,-0.04578,-0.01205,-0.00443,-0.0119,-0.01923,-0.01511,0.02716,-0.03082,-0.01709,0.01343,-0.04059
3.102,0.00397,-0.03738,-0.03403,-0.01114,-0.03189,-0.04654,-0.01343,-0.00671,-0.01297,-0.01938,-0.0145,0.03952,-0.02869,-0.0174,0.01266,-0.03906
3.1025,0.00305,-0.0383,-0.0351,-0.01434,-0.03235,-0.04578,-0.01282,-0.00793,-0.01343,-0.02014,-0.01419,0.03937,-0.02823,-0.01816,0.0119,-0.03738
3.103,0.0,-0.0386,-0.03616,-0.01755,-0.03113,-0.04547,-0.0119,-0.0058,-0.01419,-0.01968,-0.0145,0.03113,-0.02869,-0.01831,0.01099,-0.03723
3.1035,-0.0029,-0.03983,-0.03677,-0.01907,-0.02914,-0.04547,-0.01099,-0.00168,-0.01465,-0.01907,-0.0148,0.01923,-0.02914,-0.01846,0.01022,-0.03967
3.104,-0.00443,-0.04105,-0.03723,-0.01953,-0.02884,-0.04654,-0.01068,-0.00031,-0.01526,-0.01801,-0.01373,0.00732,-0.03036,-0.01846,0.00931,-0.04349
3.1045,-0.0032,-0.04303,-0.03616,-0.01938,-0.03128,-0.04807,-0.00992,-0.00153,-0.01556,-0.01785,-0.01114,-0.00031,-0.03159,-0.01801,0.00793,-0.04471
3.105,-0.00229,-0.04379,-0.03464,-0.01999,-0.03372,-0.04837,-0.0087,-0.00275,-0.01556,-0.01984,-0.00931,-0.00046,-0.03235,-0.0174,0.00534,-0.04318
3.1055,-0.00244,-0.0441,-0.03296,-0.02106,-0.03357,-0.0473,-0.00885,-0.00336,-0.01495,-0.02151,-0.01053,0.00565,-0.03281,-0.01663,0.00305,-0.04135
3.106,-0.0032,-0.04333,-0.03326,-0.02533,-0.03098,-0.04807,-0.01038,-0.00366,-0.01404,-0.02182,-0.01343,0.01251,-0.03067,-0.01602,0.00336,-0.04135
3.1065,-0.00351,-0.04272,-0.03387,-0.0351,-0.03036,-0.0502,-0.01419,-0.00427,-0.01465,-0.02045,-0.0148,0.01678,-0.02792,-0.01495,0.00458,-0.04105
3.107,-0.00412,-0.04333,-0.03387,-0.05081,-0.03204,-0.05112,-0.01816,-0.00443,-0.01617,-0.0206,-0.01587,0.01602,-0.0264,-0.01541,0.00641,-0.04196
3.1075,-0.00488,-0.04318,-0.03357,-0.06561,-0.0322,-0.05066,-0.01938,-0.00473,-0.0174,-0.01999,-0.01602,0.01251,-0.02747,-0.01602,0.00763,-0.04242
3.108,-0.00443,-0.04318,-0.03311,-0.07416,-0.03067,-0.04883,-0.01724,-0.0061,-0.01678,-0.01877,-0.0145,0.00565,-0.02991,-0.01633,0.00748,-0.0412
3.1085,-0.00076,-0.04303,-0.0325,-0.08286,-0.02869,-0.04807,-0.01419,-0.00793,-0.01556,-0.01816,-0.01312,-0.00565,-0.0322,-0.0148,0.00656,-0.03876
3.109,0.00717,-0.04395,-0.03296,-0.0972,-0.0296,-0.04669,-0.01266,-0.00961,-0.01511,-0.01938,-0.01175,-0.01816,-0.03326,-0.0148,0.00626,-0.03616
3.1095,0.01556,-0.0444,-0.03433,-0.10864,-0.03189,-0.04578,-0.01236,-0.0087,-0.01511,-0.02014,-0.01175,-0.03006,-0.03311,-0.01663,0.00732,-0.03479
3.11,0.02029,-0.0444,-0.0351,-0.09674,-0.0325,-0.04562,-0.01144,-0.0058,-0.01495,-0.01923,-0.01083,-0.04059,-0.03235,-0.01831,0.00809,-0.03387
3.1105,0.01953,-0.04318,-0.03494,-0.047,-0.03403,-0.04562,-0.01038,-0.00305,-0.01495,-0.01801,-0.01144,-0.05035,-0.03189,-0.01846,0.00839,-0.03525
3.111,0.01617,-0.04272,-0.03448,0.03571,-0.03448,-0.04425,-0.00992,-0.00061,-0.01678,-0.01663,-0.01282,-0.05737,-0.03143,-0.01923,0.00717,-0.03525
3.1115,0.01175,-0.04196,-0.03403,0.11139,-0.03448,-0.04486,-0.00961,0.00076,-0.01831,-0.01709,-0.01358,-0.06439,-0.03006,-0.01999,0.00549,-0.03494
3.112,0.00641,-0.04181,-0.03326,0.12817,-0.03265,-0.04471,-0.01038,0.00137,-0.01968,-0.0177,-0.01251,-0.07202,-0.02808,-0.02014,0.00534,-0.03555
3.1125,0.00198,-0.04257,-0.0325,0.08209,-0.03067,-0.04623,-0.0119,-0.00031,-0.01923,-0.01831,-0.01175,-0.07187,-0.02792,-0.01968,0.00504,-0.03784
3.113,-0.00198,-0.04349,-0.03235,0.02243,-0.03098,-0.04578,-0.01312,-0.00275,-0.01709,-0.0177,-0.0119,-0.05142,-0.0293,-0.01907,0.00565,-0.03967
3.1135,-0.00473,-0.04395,-0.03204,-0.00214,-0.03235,-0.04486,-0.01419,-0.00458,-0.01572,-0.01709,-0.01266,-0.01129,-0.03082,-0.01892,0.00534,-0.03952
3.114,-0.00687,-0.04257,-0.03067,0.00397,-0.03326,-0.04425,-0.01404,-0.00595,-0.01602,-0.01663,-0.01358,0.03128,-0.03159,-0.01907,0.00504,-0.03845
3.1145,-0.00809,-0.0415,-0.03021,0.01129,-0.03281,-0.04425,-0.01404,-0.00519,-0.01648,-0.01724,-0.01358,0.0592,-0.03113,-0.01877,0.00397,-0.03845
3.115,-0.00931,-0.0415,-0.03143,0.00854,-0.03235,-0.04562,-0.01373,-0.00473,-0.01678,-0.01816,-0.01297,0.06531,-0.03174,-0.01892,0.0032,-0.03906
3.1155,-0.01175,-0.04196,-0.03174,0.00504,-0.03448,-0.04715,-0.01205,-0.00443,-0.01617,-0.01831,-0.01282,0.05463,-0.0325,-0.01846,0.00305,-0.04044
3.116,-0.01465,-0.04318,-0.03204,0.00717,-0.03464,-0.047,-0.01129,-0.00336,-0.01572,-0.01831,-0.01419,0.03906,-0.03311,-0.01923,0.00336,-0.04166
3.1165,-0.01724,-0.04303,-0.03296,0.00656,-0.0325,-0.04684,-0.01129,-0.00305,-0.01572,-0.01862,-0.01694,0.02701,-0.0325,-0.02045,0.00397,-0.04288
3.117,-0.01999,-0.04318,-0.03265,-0.01022,-0.0293,-0.04654,-0.01129,-0.00275,-0.01617,-0.01907,-0.01816,0.01892,-0.0322,-0.02182,0.00412,-0.04211
3.1175,-0.02228,-0.04318,-0.03235,-0.04333,-0.02884,-0.04608,-0.01129,-0.0029,-0.01678,-0.01968,-0.01816,0.01129,-0.03159,-0.02136,0.00473,-0.04089
3.118,-0.02243,-0.04211,-0.03052,-0.07553,-0.03052,-0.04684,-0.01129,-0.00336,-0.01602,-0.02106,-0.0177,0.0032,-0.03296,-0.01999,0.00366,-0.03952
3.1185,-0.02029,-0.04044,-0.03021,-0.09171,-0.03265,-0.04745,-0.0119,-0.00366,-0.0145,-0.02304,-0.01663,-0.00336,-0.03464,-0.01892,0.00275,-0.04013
3.119,-0.0148,-0.03876,-0.03082,-0.09186,-0.03174,-0.04654,-0.01236,-0.00473,-0.01343,-0.02533,-0.01602,-0.00732,-0.03555,-0.01984,0.00336,-0.0412
3.1195,-0.00946,-0.03738,-0.03021,-0.08026,-0.02869,-0.04532,-0.01221,-0.00366,-0.01297,-0.02609,-0.01511,-0.0116,-0.03571,-0.02045,0.00427,-0.04181
3.12,-0.00458,-0.03632,-0.03036,-0.05463,-0.02533,-0.04471,-0.01266,-0.00107,-0.01389,-0.02625,-0.01419,-0.01205,-0.03433,-0.01968,0.00671,-0.04166
3.1205,-0.00092,-0.03433,-0.03098,-0.00946,-0.02548,-0.04501,-0.0119,0.00031,-0.01465,-0.02594,-0.01389,-0.00351,-0.03357,-0.01816,0.00748,-0.04074
3.121,0.00259,-0.03296,-0.03143,0.04547,-0.02686,-0.04654,-0.01144,0.00168,-0.01404,-0.02533,-0.01373,0.01572,-0.03342,-0.01785,0.00854,-0.04105
3.1215,0.00443,-0.03296,-0.03189,0.07751,-0.02762,-0.04852,-0.01205,0.00061,-0.01297,-0.02426,-0.01328,0.03494,-0.03479,-0.01755,0.01022,-0.04257
3.122,0.00565,-0.03342,-0.03159,0.06821,-0.02716,-0.0502,-0.01221,-0.00168,-0.01312,-0.02213,-0.01266,0.04013,-0.0354,-0.01617,0.01099,-0.0444
3.1225,0.00549,-0.03494,-0.03159,0.03586,-0.02777,-0.04913,-0.0116,-0.00443,-0.01434,-0.01984,-0.01251,0.03387,-0.03525,-0.01556,0.01221,-0.04456
3.123,0.00549,-0.03571,-0.03174,0.01465,-0.02914,-0.04761,-0.01282,-0.00458,-0.01465,-0.01816,-0.01343,0.03067,-0.03448,-0.01617,0.01297,-0.04272
3.1235,0.00336,-0.03693,-0.03235,0.0116,-0.03021,-0.04791,-0.01312,-0.00305,-0.01389,-0.01755,-0.01404,0.03372,-0.03464,-0.01785,0.01297,-0.0412
3.124,0.00107,-0.0383,-0.03311,0.0119,-0.0296,-0.0499,-0.01404,-0.0029,-0.0145,-0.01678,-0.0148,0.03326,-0.0351,-0.01938,0.01236,-0.04135
3.1245,-0.00137,-0.04044,-0.03326,0.00732,-0.03098,-0.05035,-0.01602,-0.00473,-0.01526,-0.01526,-0.01572,0.02121,-0.03372,-0.0209,0.01114,-0.0412
3.125,-0.00305,-0.04181,-0.03311,0.00885,-0.03113,-0.04959,-0.01831,-0.0058,-0.01511,-0.01312,-0.01663,0.00198,-0.03143,-0.02045,0.01114,-0.04181
3.1255,-0.00351,-0.04227,-0.03281,0.01678,-0.03113,-0.04944,-0.02014,-0.00626,-0.01389,-0.0116,-0.01556,-0.01556,-0.03021,-0.02029,0.01068,-0.04242
3.126,-0.00229,-0.04288,-0.03311,0.01923,-0.03052,-0.0502,-0.01968,-0.00458,-0.01358,-0.01175,-0.01419,-0.03311,-0.03189,-0.02075,0.01007,-0.04349
3.1265,-0.00168,-0.04364,-0.03464,0.00778,-0.02991,-0.05127,-0.01602,-0.00366,-0.01526,-0.01282,-0.01434,-0.0528,-0.03387,-0.02121,0.0087,-0.0441
3.127,-0.00244,-0.04364,-0.0354,-0.00305,-0.0296,-0.05066,-0.01022,-0.00549,-0.0174,-0.01373,-0.0148,-0.07034,-0.03326,-0.02167,0.00854,-0.04501
3.1275,-0.00412,-0.04303,-0.03677,-0.00015,-0.02884,-0.04974,-0.00717,-0.00717,-0.01709,-0.01312,-0.01541,-0.07813,-0.03113,-0.02075,0.00839,-0.04517
3.128,-0.00595,-0.04257,-0.0383,0.01602,-0.02884,-0.05051,-0.01022,-0.00626,-0.01648,-0.01297,-0.01328,-0.07843,-0.02975,-0.01968,0.00717,-0.04425
3.1285,-0.00687,-0.04333,-0.03815,0.03189,-0.02991,-0.05219,-0.01968,-0.00259,-0.01617,-0.01434,-0.0119,-0.07309,-0.03067,-0.01953,0.00778,-0.04562
3.129,-0.00717,-0.04456,-0.03708,0.0412,-0.03128,-0.05234,-0.02792,0.00015,-0.01465,-0.01541,-0.01144,-0.06287,-0.03235,-0.01984,0.00961,-0.04639
3.1295,-0.00824,-0.04471,-0.03632,0.04639,-0.03189,-0.05112,-0.02747,0.00092,-0.01266,-0.01648,-0.0116,-0.04807,-0.03082,-0.01816,0.01129,-0.04501
3.13,-0.00931,-0.04395,-0.03693,0.0473,-0.02975,-0.05035,-0.01846,0.00031,-0.01175,-0.01724,-0.01236,-0.03296,-0.02853,-0.01678,0.01221,-0.04196
3.1305,-0.009,-0.0441,-0.03738,0.02914,-0.02899,-0.0502,-0.00977,-0.00061,-0.01251,-0.01663,-0.01312,-0.02151,-0.0293,-0.01617,0.01053,-0.03967
3.131,-0.00641,-0.0444,-0.03723,-0.01694,-0.02792,-0.05066,-0.00824,-0.00183,-0.01389,-0.01678,-0.01328,-0.01266,-0.0322,-0.01633,0.00946,-0.03952
3.1315,-0.00458,-0.04349,-0.03754,-0.06638,-0.02716,-0.05081,-0.00992,-0.00427,-0.01511,-0.01663,-0.01205,-0.00595,-0.03403,-0.01602,0.00931,-0.04028
3.132,-0.00412,-0.04242,-0.03723,-0.08392,-0.02716,-0.05066,-0.01205,-0.00458,-0.01602,-0.0177,-0.01114,-0.00061,-0.03418,-0.01526,0.01099,-0.04013
3.1325,-0.00458,-0.04288,-0.03799,-0.06592,-0.02777,-0.04868,-0.01282,-0.00351,-0.01511,-0.01892,-0.01022,0.00244,-0.03357,-0.01511,0.0116,-0.0386
3.133,-0.00488,-0.04501,-0.03723,-0.04166,-0.02914,-0.04639,-0.01434,-0.00153,-0.01251,-0.02045,-0.01144,0.0032,-0.03189,-0.01587,0.01129,-0.0383
3.1335,-0.00534,-0.04593,-0.03693,-0.03372,-0.02991,-0.04333,-0.01526,-0.00107,-0.01251,-0.02029,-0.01373,0.00214,-0.03098,-0.01617,0.0116,-0.0386
3.134,-0.00656,-0.04456,-0.03632,-0.03387,-0.02991,-0.04303,-0.01541,-0.00214,-0.01465,-0.01984,-0.01633,0.00107,-0.03113,-0.01724,0.0116,-0.03952
3.1345,-0.00717,-0.04288,-0.03632,-0.03143,-0.03021,-0.04639,-0.01465,-0.00397,-0.01694,-0.01923,-0.01465,0.00031,-0.03204,-0.01816,0.01282,-0.03983
3.135,-0.00763,-0.04333,-0.03601,-0.02975,-0.03021,-0.04852,-0.01465,-0.00488,-0.01816,-0.01953,-0.01236,0.00061,-0.03342,-0.01831,0.01312,-0.03922
3.1355,-0.00824,-0.04456,-0.03677,-0.03418,-0.03098,-0.04868,-0.01495,-0.00504,-0.01846,-0.0209,-0.01266,0.00092,-0.03387,-0.0174,0.01312,-0.04013
3.136,-0.01007,-0.04288,-0.03708,-0.03967,-0.03052,-0.04776,-0.01602,-0.0058,-0.01892,-0.02182,-0.0148,-0.00107,-0.03357,-0.01648,0.01175,-0.04181
3.1365,-0.01022,-0.03983,-0.03769,-0.03799,-0.03143,-0.04761,-0.01526,-0.00504,-0.01785,-0.02167,-0.01541,-0.00793,-0.03204,-0.01678,0.01007,-0.04272
3.137,-0.00824,-0.03815,-0.03738,-0.0293,-0.03326,-0.04684,-0.01389,-0.00305,-0.01755,-0.02182,-0.01511,-0.0177,-0.03235,-0.01724,0.00839,-0.04196
3.1375,-0.00504,-0.0386,-0.0354,-0.02151,-0.03494,-0.04639,-0.01312,-0.00015,-0.01617,-0.02182,-0.01556,-0.02869,-0.03403,-0.01801,0.00824,-0.0412
3.138,-0.00397,-0.03983,-0.03418,-0.02106,-0.0351,-0.04547,-0.01328,0.00122,-0.01541,-0.02182,-0.01511,-0.0386,-0.03418,-0.01709,0.00748,-0.0415
3.1385,-0.00488,-0.04044,-0.03403,-0.02365,-0.03479,-0.0444,-0.01511,0.00031,-0.01526,-0.02182,-0.01389,-0.04547,-0.03342,-0.0174,0.00656,-0.04166
3.139,-0.00549,-0.03952,-0.03448,-0.02502,-0.0351,-0.04364,-0.01678,0.00046,-0.0148,-0.02106,-0.01221,-0.04608,-0.03204,-0.01801,0.00641,-0.04257
3.1395,-0.00549,-0.03769,-0.03494,-0.02396,-0.03586,-0.04471,-0.01938,0.00092,-0.01465,-0.01968,-0.01129,-0.03464,-0.03128,-0.01862,0.00854,-0.04196
3.14,-0.00565,-0.03632,-0.03387,-0.02075,-0.03525,-0.04578,-0.02258,0.00061,-0.01389,-0.01785,-0.01099,-0.00763,-0.03235,-0.01862,0.01144,-0.04013
3.1405,-0.00656,-0.03708,-0.03281,-0.01541,-0.03372,-0.04578,-0.02777,-0.00168,-0.01389,-0.01816,-0.01251,0.02716,-0.03235,-0.01938,0.01068,-0.03876
3.141,-0.00763,-0.0383,-0.03265,-0.0032,-0.03387,-0.04501,-0.03036,-0.00336,-0.0148,-0.01938,-0.01358,0.04944,-0.03159,-0.01938,0.00839,-0.04074
3.1415,-0.00839,-0.0386,-0.03265,0.01465,-0.03372,-0.04425,-0.02899,-0.00366,-0.01602,-0.02045,-0.0148,0.04639,-0.03052,-0.01831,0.0061,-0.04272
3.142,-0.009,-0.03677,-0.0354,0.02792,-0.03387,-0.04517,-0.02426,-0.00336,-0.01724,-0.02075,-0.01572,0.03693,-0.03113,-0.01877,0.00443,-0.04211
3.1425,-0.01007,-0.03662,-0.04013,0.02518,-0.03433,-0.047,-0.01968,-0.00473,-0.01755,-0.02014,-0.01572,0.04547,-0.0325,-0.01938,0.00626,-0.04028
3.143,-0.0116,-0.0383,-0.04456,0.00839,-0.03403,-0.04807,-0.00748,-0.00641,-0.0177,-0.01968,-0.01434,0.0679,-0.03296,-0.01999,0.00916,-0.03845
3.1435,-0.01083,-0.03876,-0.04364,-0.01068,-0.03281,-0.04776,0.0119,-0.0061,-0.01755,-0.01907,-0.01343,0.08514,-0.03357,-0.02014,0.01007,-0.0386
3.144,-0.01038,-0.0386,-0.03555,-0.0264,-0.03098,-0.04715,0.0238,-0.00458,-0.01724,-0.01953,-0.01328,0.09583,-0.03464,-0.02014,0.00763,-0.03967
3.1445,-0.00931,-0.03754,-0.02518,-0.03708,-0.03067,-0.04684,0.01465,-0.00397,-0.01663,-0.01907,-0.01419,0.11108,-0.03586,-0.02029,0.0058,-0.04044
3.145,-0.00793,-0.03876,-0.01831,-0.04517,-0.03128,-0.047,-0.00549,-0.00443,-0.01694,-0.02029,-0.01602,0.11963,-0.03571,-0.01968,0.00519,-0.04059
3.1455,-0.00671,-0.03998,-0.01755,-0.0499,-0.03052,-0.04669,-0.01724,-0.00412,-0.01801,-0.02197,-0.01755,0.10452,-0.03387,-0.01862,0.00595,-0.04135
3.146,-0.00626,-0.04074,-0.02121,-0.05127,-0.0296,-0.047,-0.01572,-0.00198,-0.01923,-0.02075,-0.01678,0.06866,-0.03189,-0.01907,0.00641,-0.04105
3.1465,-0.00641,-0.04028,-0.02762,-0.04959,-0.0296,-0.04807,-0.01175,-0.00061,-0.01923,-0.02045,-0.01511,0.03372,-0.03174,-0.01984,0.00656,-0.04013
3.147,-0.00626,-0.04044,-0.03311,-0.04654,-0.03006,-0.04898,-0.0119,-0.00168,-0.01678,-0.01968,-0.01389,0.01007,-0.03174,-0.01999,0.00519,-0.03998
3.1475,-0.00504,-0.0412,-0.03326,-0.04211,-0.03021,-0.04974,-0.01373,-0.0032,-0.01434,-0.01862,-0.01373,-0.00595,-0.03235,-0.01999,0.00519,-0.04044
3.148,-0.00381,-0.04135,-0.03052,-0.03525,-0.03128,-0.04913,-0.01511,-0.00305,-0.01312,-0.01831,-0.01312,-0.0206,-0.03265,-0.01999,0.00519,-0.04013
3.1485,-0.00366,-0.04166,-0.02747,-0.02762,-0.03265,-0.04807,-0.01541,-0.00244,-0.01404,-0.01724,-0.01251,-0.03403,-0.03204,-0.02075,0.00549,-0.04181
3.149,-0.00305,-0.0415,-0.02792,-0.02106,-0.0325,-0.04684,-0.01587,-0.00366,-0.0145,-0.01556,-0.01266,-0.04227,-0.03082,-0.02182,0.00702,-0.04333
3.1495,-0.00366,-0.04089,-0.02884,-0.01617,-0.03281,-0.04639,-0.01587,-0.00626,-0.01389,-0.0148,-0.01419,-0.04471,-0.03021,-0.02167,0.00702,-0.04333
3.15,-0.00488,-0.03998,-0.0293,-0.01282,-0.03189,-0.04684,-0.01526,-0.0087,-0.01358,-0.01511,-0.01602,-0.0441,-0.03159,-0.02106,0.00717,-0.04135
3.1505,-0.00763,-0.0386,-0.02914,-0.01328,-0.03281,-0.04745,-0.01541,-0.00854,-0.0145,-0.01602,-0.01602,-0.04501,-0.03418,-0.02106,0.0061,-0.03937
3.151,-0.00854,-0.03784,-0.02899,-0.01358,-0.03418,-0.04883,-0.01556,-0.00671,-0.01526,-0.01709,-0.01419,-0.04578,-0.03418,-0.02075,0.00565,-0.03906
3.1515,-0.00931,-0.0386,-0.02975,-0.01144,-0.03464,-0.04822,-0.01556,-0.00488,-0.0145,-0.01678,-0.01236,-0.04425,-0.03281,-0.02014,0.00687,-0.04028
3.152,-0.009,-0.03967,-0.02991,-0.00748,-0.03479,-0.04837,-0.0145,-0.00458,-0.0145,-0.01526,-0.01343,-0.03723,-0.03296,-0.02045,0.0087,-0.04135
3.1525,-0.00839,-0.04074,-0.02792,-0.00397,-0.03448,-0.04807,-0.01373,-0.00504,-0.01495,-0.01556,-0.0148,-0.02716,-0.03387,-0.01968,0.01053,-0.04211
3.153,-0.00748,-0.04105,-0.02396,-0.00336,-0.03387,-0.04761,-0.01373,-0.00305,-0.01602,-0.01556,-0.01556,-0.01801,-0.03342,-0.01724,0.01083,-0.04181
3.1535,-0.00656,-0.04013,-0.02136,-0.00336,-0.03296,-0.04807,-0.0148,-0.00046,-0.01602,-0.01801,-0.01495,-0.01099,-0.03128,-0.01678,0.00946,-0.04257
3.154,-0.00549,-0.03983,-0.02243,-0.00229,-0.03326,-0.0473,-0.01587,0.00107,-0.01465,-0.01816,-0.01434,-0.00534,-0.03021,-0.01801,0.00931,-0.04181
3.1545,-0.00381,-0.04105,-0.02548,-0.00214,-0.03403,-0.04715,-0.01617,0.00092,-0.0145,-0.01831,-0.01328,0.00031,-0.02991,-0.01968,0.00946,-0.04074
3.155,-0.00214,-0.04272,-0.02869,-0.00198,-0.03387,-0.04593,-0.0177,0.00061,-0.01602,-0.01953,-0.01419,0.00549,-0.03113,-0.01999,0.01022,-0.03967
3.1555,-0.00183,-0.04379,-0.03159,-0.00198,-0.03372,-0.04547,-0.01984,0.00015,-0.01633,-0.02075,-0.01404,0.01053,-0.03204,-0.01968,0.01053,-0.03799
3.156,-0.00137,-0.04333,-0.03464,-0.00122,-0.03464,-0.04623,-0.02167,0.0,-0.01572,-0.02029,-0.01541,0.01434,-0.03387,-0.01923,0.00961,-0.03723
3.1565,-0.00107,-0.04227,-0.0386,-0.00214,-0.03586,-0.04761,-0.02075,-0.00076,-0.01495,-0.01755,-0.01785,0.01526,-0.03494,-0.01953,0.00763,-0.0383
3.157,-0.00183,-0.04181,-0.03906,-0.0058,-0.03708,-0.04913,-0.0174,-0.00092,-0.01587,-0.01633,-0.01999,0.01022,-0.03571,-0.02014,0.00656,-0.03906
3.1575,-0.00259,-0.04166,-0.03967,-0.00931,-0.03571,-0.04913,-0.01419,0.0,-0.01694,-0.01648,-0.02106,0.00198,-0.03525,-0.01938,0.00748,-0.03891
3.158,-0.00381,-0.04028,-0.03998,-0.00885,-0.03433,-0.04868,-0.00946,0.00229,-0.01602,-0.0177,-0.0209,-0.00549,-0.03616,-0.01938,0.00946,-0.0383
3.1585,-0.00381,-0.03967,-0.04074,-0.00443,-0.03113,-0.04776,-0.00534,0.00275,-0.01541,-0.01846,-0.0206,-0.00748,-0.03586,-0.01846,0.00977,-0.0383
3.159,-0.00381,-0.03952,-0.04013,0.00153,-0.03006,-0.04745,-0.00534,0.00229,-0.01495,-0.0177,-0.02075,-0.00793,-0.03555,-0.0177,0.009,-0.03891
3.1595,-0.00488,-0.03983,-0.03891,0.00305,-0.03067,-0.04684,-0.00885,0.00137,-0.01556,-0.01648,-0.0174,-0.01205,-0.0351,-0.01617,0.009,-0.04013
3.16,-0.00778,-0.03983,-0.03662,-0.00076,-0.03159,-0.04623,-0.01266,0.00122,-0.01633,-0.01511,-0.0145,-0.01968,-0.03433,-0.01526,0.00992,-0.04211
3.1605,-0.01007,-0.03983,-0.03555,-0.00854,-0.03204,-0.04547,-0.01389,0.00031,-0.01663,-0.01572,-0.01373,-0.02762,-0.03357,-0.01541,0.01129,-0.04288
3.161,-0.00961,-0.03998,-0.03647,-0.01038,-0.0325,-0.04486,-0.01404,-0.00107,-0.01816,-0.01678,-0.01389,-0.02899,-0.03235,-0.01663,0.01022,-0.04242
3.1615,-0.00671,-0.04028,-0.03784,-0.00412,-0.03098,-0.04379,-0.01389,-0.00259,-0.0209,-0.01846,-0.01297,-0.02213,-0.03281,-0.01724,0.00763,-0.04196
3.162,-0.00397,-0.04074,-0.03967,0.00656,-0.02853,-0.0444,-0.01358,-0.00305,-0.02304,-0.01907,-0.01053,-0.01007,-0.03326,-0.01755,0.00687,-0.04166
3.1625,-0.00443,-0.04044,-0.04074,0.01541,-0.02777,-0.04532,-0.01282,-0.00137,-0.02213,-0.01938,-0.01007,0.00198,-0.03342,-0.01801,0.00839,-0.04196
3.163,-0.00534,-0.03906,-0.04135,0.02106,-0.02823,-0.04623,-0.01251,0.00076,-0.01801,-0.02014,-0.01129,0.01175,-0.03235,-0.01816,0.01099,-0.04181
3.1635,-0.00549,-0.03754,-0.04181,0.02426,-0.03082,-0.04715,-0.01175,0.00076,-0.01511,-0.02045,-0.01297,0.01724,-0.03204,-0.01816,0.01282,-0.04211
3.164,-0.00168,-0.03754,-0.04211,0.02411,-0.03189,-0.04761,-0.0116,-0.00031,-0.0148,-0.0209,-0.01221,0.01923,-0.0325,-0.01785,0.01114,-0.04242
3.1645,0.00488,-0.03876,-0.04333,0.01999,-0.03235,-0.04715,-0.0119,-0.00122,-0.01633,-0.02136,-0.01175,0.01953,-0.03281,-0.0177,0.00854,-0.04318
3.165,0.0145,-0.03937,-0.04547,0.00977,-0.03387,-0.04684,-0.01236,-0.00229,-0.01831,-0.02075,-0.01068,0.0174,-0.03235,-0.01724,0.00824,-0.0441
3.1655,0.02228,-0.03937,-0.04593,-0.00977,-0.03311,-0.04486,-0.01221,-0.00198,-0.01877,-0.02121,-0.00961,0.01373,-0.03036,-0.01755,0.00854,-0.04471
3.166,0.02579,-0.03815,-0.04364,-0.03174,-0.03052,-0.04379,-0.01266,-0.00061,-0.01663,-0.02029,-0.00778,0.00732,-0.02975,-0.01801,0.00793,-0.04471
3.1665,0.02258,-0.03784,-0.04013,-0.04257,-0.0293,-0.04333,-0.01434,0.0,-0.01343,-0.0206,-0.00687,-0.00153,-0.03174,-0.01877,0.00687,-0.0444
3.167,0.01572,-0.03708,-0.03616,-0.03601,-0.02899,-0.04349,-0.0148,-0.00122,-0.01297,-0.02151,-0.00732,-0.00687,-0.03494,-0.01923,0.00534,-0.04349
3.1675,0.009,-0.03815,-0.03464,-0.0238,-0.03098,-0.04532,-0.0148,-0.00336,-0.01587,-0.02213,-0.00854,-0.00458,-0.03632,-0.01862,0.00687,-0.04196
3.168,0.00336,-0.04028,-0.03479,-0.01541,-0.03189,-0.04639,-0.01511,-0.00534,-0.01862,-0.02274,-0.00916,0.00198,-0.03601,-0.01831,0.01038,-0.04211
3.1685,-0.00168,-0.04211,-0.03815,-0.0148,-0.03159,-0.047,-0.01465,-0.00595,-0.01953,-0.02335,-0.00961,0.00671,-0.03494,-0.01831,0.01175,-0.04288
3.169,-0.00656,-0.04303,-0.04074,-0.01724,-0.03067,-0.047,-0.01434,-0.00488,-0.01862,-0.02365,-0.01007,0.0061,-0.03494,-0.01984,0.01083,-0.04303
3.1695,-0.01114,-0.04364,-0.04196,-0.01678,-0.03021,-0.04745,-0.0148,-0.00458,-0.01678,-0.0238,-0.01038,0.00336,-0.03494,-0.01999,0.00916,-0.04395
3.17,-0.01404,-0.04303,-0.03891,-0.01312,-0.03113,-0.04684,-0.01419,-0.0058,-0.01511,-0.02289,-0.01099,0.00046,-0.03448,-0.01785,0.009,-0.04303
3.1705,-0.01663,-0.04272,-0.03479,-0.0087,-0.03265,-0.04562,-0.01312,-0.00732,-0.01404,-0.02121,-0.01038,-0.00198,-0.03311,-0.01572,0.01083,-0.04318
3.171,-0.01923,-0.04242,-0.03342,-0.00687,-0.03372,-0.04471,-0.01144,-0.00854,-0.01312,-0.01923,-0.01022,-0.00443,-0.03326,-0.01465,0.0119,-0.04227
3.1715,-0.01877,-0.04257,-0.03403,-0.01114,-0.03403,-0.04471,-0.0119,-0.00793,-0.01236,-0.01953,-0.01053,-0.00473,-0.03418,-0.0145,0.01236,-0.04181
3.172,-0.01404,-0.04318,-0.03601,-0.02594,-0.03403,-0.04608,-0.01343,-0.00702,-0.01312,-0.01892,-0.01221,-0.0029,-0.03464,-0.01526,0.01068,-0.04227
3.1725,-0.00793,-0.04364,-0.03708,-0.04974,-0.03387,-0.0473,-0.01404,-0.0058,-0.0145,-0.01877,-0.01297,0.00031,-0.03403,-0.01541,0.01053,-0.04395
3.173,-0.00366,-0.04288,-0.03708,-0.0705,-0.03296,-0.04745,-0.01297,-0.00443,-0.01511,-0.01816,-0.01541,0.00229,-0.03387,-0.01617,0.01129,-0.04471
3.1735,-0.00229,-0.04303,-0.03815,-0.07706,-0.03159,-0.04715,-0.01221,-0.0029,-0.01526,-0.01877,-0.01678,0.00214,-0.03357,-0.01587,0.0119,-0.04501
3.174,-0.00214,-0.04425,-0.03998,-0.06989,-0.03143,-0.04761,-0.01251,-0.00168,-0.01419,-0.01968,-0.01709,0.00244,-0.0325,-0.01541,0.01312,-0.0441
3.1745,-0.00229,-0.04486,-0.04089,-0.06073,-0.03281,-0.04852,-0.01465,-0.00183,-0.01328,-0.01984,-0.01602,0.00336,-0.03067,-0.01572,0.01328,-0.0444
3.175,-0.00244,-0.04593,-0.04211,-0.05356,-0.03311,-0.04868,-0.01587,-0.0029,-0.01251,-0.01968,-0.01511,0.00336,-0.03098,-0.01541,0.01129,-0.04517
3.1755,-0.00061,-0.04715,-0.04318,-0.03815,-0.03098,-0.04852,-0.01663,-0.00366,-0.0116,-0.02228,-0.01526,0.00244,-0.03265,-0.01602,0.00946,-0.04593
3.176,0.00153,-0.04837,-0.04257,-0.00122,-0.02899,-0.04684,-0.01648,-0.00381,-0.01251,-0.02197,-0.01602,0.00137,-0.0322,-0.01663,0.00854,-0.04745
3.1765,0.00259,-0.04715,-0.03769,0.05692,-0.02853,-0.04608,-0.01572,-0.0029,-0.01282,-0.02243,-0.01602,0.00229,-0.03036,-0.01617,0.00763,-0.04684
3.177,0.00351,-0.04471,-0.02747,0.11002,-0.03052,-0.04532,-0.0148,-0.00275,-0.01312,-0.02426,-0.01556,0.00427,-0.03052,-0.01617,0.00778,-0.04456
3.1775,0.00336,-0.04364,-0.01862,0.12054,-0.03265,-0.04639,-0.01389,-0.00229,-0.0119,-0.02762,-0.01556,0.00519,-0.03143,-0.01724,0.00946,-0.04059
3.178,0.00366,-0.04272,-0.01495,0.08591,-0.03235,-0.04807,-0.01389,-0.00137,-0.01053,-0.03021,-0.0145,0.00565,-0.03174,-0.01907,0.01007,-0.03815
3.1785,0.00275,-0.04196,-0.01846,0.04791,-0.03159,-0.04852,-0.01465,-0.00046,-0.00946,-0.02945,-0.01312,0.00626,-0.03128,-0.01953,0.00931,-0.0383
3.179,0.0032,-0.04059,-0.0238,0.03647,-0.03082,-0.04791,-0.01617,-0.00107,-0.00946,-0.02655,-0.01175,0.00443,-0.03036,-0.02014,0.00931,-0.04059
3.1795,0.00412,-0.04074,-0.02731,0.03754,-0.03113,-0.04807,-0.01785,-0.00259,-0.01007,-0.02258,-0.01205,-0.00458,-0.0296,-0.01938,0.00946,-0.04135
3.18,0.00458,-0.04059,-0.02899,0.02777,-0.03113,-0.04791,-0.01785,-0.00519,-0.0116,-0.01892,-0.0116,-0.02075,-0.0293,-0.01846,0.01053,-0.04166
3.1805,0.00244,-0.04044,-0.03006,0.00671,-0.03036,-0.04822,-0.0174,-0.00687,-0.01251,-0.01755,-0.01068,-0.0415,-0.03128,-0.0177,0.01129,-0.04272
3.181,0.0,-0.03922,-0.03128,-0.00565,-0.02853,-0.04761,-0.01633,-0.00565,-0.01266,-0.01785,-0.00992,-0.06042,-0.03357,-0.01862,0.01053,-0.0444
3.1815,-0.00015,-0.03845,-0.03021,-0.00702,-0.02609,-0.04593,-0.01526,-0.00305,-0.01312,-0.02319,-0.00992,-0.06882,-0.03448,-0.01968,0.01053,-0.0444
3.182,0.00061,-0.03708,-0.02808,-0.00595,-0.02563,-0.04456,-0.01373,-0.00046,-0.01511,-0.03342,-0.01144,-0.06027,-0.0325,-0.02014,0.0116,-0.04303
3.1825,0.00031,-0.03632,-0.02792,-0.00931,-0.02747,-0.04562,-0.01297,-0.00076,-0.01617,-0.04486,-0.01129,-0.03738,-0.03036,-0.01984,0.01297,-0.04196
3.183,-0.00214,-0.03571,-0.02853,-0.01541,-0.02991,-0.04791,-0.01404,-0.00397,-0.01617,-0.05005,-0.01144,-0.00931,-0.0296,-0.01953,0.01251,-0.04227
3.1835,-0.00504,-0.03647,-0.03036,-0.02106,-0.03143,-0.04837,-0.01526,-0.0058,-0.01526,-0.04761,-0.0119,0.0116,-0.03006,-0.01953,0.01144,-0.04425
3.184,-0.00687,-0.03662,-0.03296,-0.02197,-0.03159,-0.04898,-0.01465,-0.00565,-0.01633,-0.0412,-0.01282,0.00977,-0.03143,-0.01938,0.01114,-0.04578
3.1845,-0.00671,-0.03616,-0.03555,-0.0206,-0.0325,-0.04898,-0.01434,-0.00351,-0.01709,-0.03189,-0.01541,-0.02335,-0.03296,-0.01892,0.01007,-0.04669
3.185,-0.00565,-0.03632,-0.03708,-0.01892,-0.03326,-0.04883,-0.01511,-0.00168,-0.01694,-0.01953,-0.01846,-0.07629,-0.03403,-0.01846,0.00717,-0.047
3.1855,-0.00366,-0.0383,-0.03754,-0.01724,-0.03555,-0.04776,-0.01556,-0.00031,-0.0148,-0.00656,-0.02045,-0.12085,-0.03357,-0.01801,0.00656,-0.04669
3.186,-0.00229,-0.03967,-0.03952,-0.01541,-0.03601,-0.04791,-0.01495,0.0,-0.01328,0.00504,-0.02106,-0.13901,-0.03296,-0.01816,0.00824,-0.04562
3.1865,-0.00366,-0.03754,-0.03983,-0.01526,-0.03586,-0.04883,-0.01236,-0.00061,-0.01404,0.01419,-0.01938,-0.13504,-0.03311,-0.01892,0.00931,-0.04456
3.187,-0.00687,-0.03448,-0.03799,-0.01663,-0.03571,-0.05127,-0.01129,-0.00305,-0.01602,0.01846,-0.01816,-0.11169,-0.03281,-0.01968,0.00793,-0.04486
3.1875,-0.009,-0.03357,-0.03632,-0.0177,-0.03647,-0.05142,-0.01129,-0.00534,-0.01694,0.01999,-0.01694,-0.05417,-0.03265,-0.0209,0.00671,-0.04669
3.188,-0.00793,-0.03601,-0.03479,-0.0206,-0.03571,-0.05051,-0.01312,-0.00671,-0.01633,0.01755,-0.01801,0.0296,-0.03372,-0.02167,0.00534,-0.04745
3.1885,-0.00504,-0.0383,-0.03403,-0.02426,-0.0354,-0.04974,-0.01526,-0.00748,-0.01541,0.01343,-0.01755,0.09964,-0.0351,-0.02167,0.00565,-0.04745
3.189,-0.00336,-0.03922,-0.03342,-0.02533,-0.03571,-0.04868,-0.01663,-0.00641,-0.01511,0.00885,-0.01633,0.12482,-0.03448,-0.0209,0.00656,-0.04776
3.1895,-0.00351,-0.03891,-0.03143,-0.02335,-0.03632,-0.04837,-0.01801,-0.00381,-0.01556,0.00412,-0.01541,0.12054,-0.03082,-0.01953,0.0061,-0.04761
3.19,-0.00519,-0.03845,-0.0296,-0.01999,-0.03494,-0.04807,-0.0174,-0.00198,-0.01572,-0.00046,-0.01419,0.12573,-0.02838,-0.01846,0.00458,-0.04654
3.1905,-0.0058,-0.03799,-0.02899,-0.01953,-0.03326,-0.04715,-0.01389,-0.0029,-0.01526,-0.00656,-0.01266,0.14832,-0.0296,-0.01755,0.00229,-0.04517
3.191,-0.00565,-0.03723,-0.02853,-0.02029,-0.03235,-0.04654,-0.01007,-0.00412,-0.0145,-0.01343,-0.00793,0.16098,-0.03128,-0.01694,0.00183,-0.04593
3.1915,-0.00504,-0.03586,-0.03098,-0.02075,-0.03281,-0.04669,-0.00793,-0.0029,-0.01297,-0.01968,0.00015,0.14587,-0.03189,-0.01755,0.00366,-0.04654
3.192,-0.00458,-0.03616,-0.03677,-0.01984,-0.03311,-0.04776,-0.00931,-0.00015,-0.01297,-0.02441,0.00793,0.11581,-0.03067,-0.01831,0.00687,-0.04654
3.1925,-0.00336,-0.03769,-0.047,-0.01709,-0.03235,-0.0499,-0.0116,0.00015,-0.01358,-0.0264,0.01129,0.09445,-0.02884,-0.01923,0.00626,-0.04562
3.193,-0.00275,-0.03708,-0.05707,-0.01404,-0.03098,-0.05081,-0.01144,-0.00198,-0.01373,-0.02808,0.00839,0.08728,-0.02914,-0.01892,0.00488,-0.04456
3.1935,-0.00443,-0.03693,-0.06165,-0.01541,-0.02991,-0.05035,-0.00854,-0.00336,-0.01404,-0.02899,0.00397,0.08408,-0.03021,-0.01892,0.00305,-0.04456
3.194,-0.00778,-0.03784,-0.05737,-0.03418,-0.02991,-0.04929,-0.0058,-0.0029,-0.01465,-0.02975,0.00092,0.07538,-0.03098,-0.01953,0.00229,-0.04471
3.1945,-0.009,-0.04013,-0.04807,-0.07553,-0.02945,-0.04807,-0.00687,-0.00153,-0.01389,-0.02625,-0.00076,0.06287,-0.03067,-0.0206,0.00244,-0.04532
3.195,-0.00824,-0.04059,-0.03723,-0.13092,-0.02991,-0.04715,-0.01175,-0.00198,-0.0119,-0.02258,-0.00031,0.04868,-0.03067,-0.01999,0.00244,-0.04578
3.1955,-0.00717,-0.03952,-0.02762,-0.17944,-0.03067,-0.04807,-0.01678,-0.00229,-0.00916,-0.01831,0.00168,0.03128,-0.03204,-0.01953,0.00259,-0.04623
3.196,-0.00839,-0.03876,-0.0177,-0.20386,-0.02991,-0.04898,-0.01831,-0.00183,-0.00824,-0.01297,0.00473,0.01236,-0.03265,-0.01923,0.00397,-0.04593
3.1965,-0.01022,-0.04074,-0.00778,-0.20477,-0.03098,-0.04944,-0.01785,-0.00046,-0.00916,-0.01038,0.00412,-0.00381,-0.03235,-0.01968,0.00626,-0.04318
3.197,-0.0119,-0.04349,-0.00092,-0.18478,-0.03021,-0.0499,-0.01724,-0.00061,-0.01129,-0.00854,-0.00198,-0.01434,-0.03128,-0.02075,0.00656,-0.04257
3.1975,-0.01266,-0.04593,0.00061,-0.13596,-0.03006,-0.05051,-0.01755,-0.00214,-0.01251,-0.00732,-0.01297,-0.01892,-0.03174,-0.02121,0.00473,-0.04303
3.198,-0.01205,-0.04547,-0.00259,-0.04456,-0.03036,-0.05096,-0.01587,-0.00534,-0.01266,-0.00793,-0.02533,-0.01816,-0.03235,-0.02151,0.00458,-0.04532
3.1985,-0.01144,-0.04196,-0.00946,0.09262,-0.02975,-0.05051,-0.01022,-0.0061,-0.01312,-0.00977,-0.03525,-0.01572,-0.03174,-0.02228,0.00443,-0.04456
3.199,-0.01343,-0.03708,-0.01648,0.24384,-0.02716,-0.04959,-0.0061,-0.00366,-0.01328,-0.01221,-0.04196,-0.01328,-0.03006,-0.0238,0.00504,-0.04288
3.1995,-0.01511,-0.03143,-0.02289,0.33737,-0.02609,-0.04974,-0.00534,0.00031,-0.01358,-0.01343,-0.0473,-0.01068,-0.0293,-0.02274,0.0061,-0.04181
3.2,-0.0148,-0.02808,-0.02579,0.32059,-0.02777,-0.05096,-0.00793,0.00244,-0.01282,-0.01358,-0.05157,-0.00824,-0.03036,-0.02106,0.00641,-0.04074
3.2005,-0.01175,-0.02823,-0.02716,0.21515,-0.0296,-0.05112,-0.01038,0.00153,-0.01389,-0.01572,-0.05386,-0.00732,-0.03128,-0.02075,0.00549,-0.03983
3.201,-0.01099,-0.02869,-0.02609,0.1033,-0.02945,-0.05264,-0.01083,0.00046,-0.01602,-0.01877,-0.05173,-0.0087,-0.03098,-0.02121,0.00656,-0.03891
3.2015,-0.01221,-0.02991,-0.02762,0.04211,-0.02777,-0.0531,-0.01083,-0.00122,-0.01678,-0.02319,-0.04303,-0.01053,-0.03052,-0.0209,0.00961,-0.03906
3.202,-0.01312,-0.03296,-0.03128,0.02594,-0.02701,-0.05203,-0.01251,-0.00336,-0.01556,-0.02762,-0.03326,-0.01266,-0.03082,-0.0206,0.01053,-0.04074
3.2025,-0.01266,-0.03723,-0.03464,0.02487,-0.02945,-0.05173,-0.01648,-0.00671,-0.0148,-0.03036,-0.02594,-0.01602,-0.03052,-0.02029,0.01022,-0.04211
3.203,-0.01099,-0.04242,-0.03479,0.02304,-0.03113,-0.04929,-0.02106,-0.00854,-0.01602,-0.03448,-0.02197,-0.01999,-0.03036,-0.01984,0.00732,-0.04181
3.2035,-0.00824,-0.04715,-0.0325,0.02304,-0.03098,-0.04807,-0.02396,-0.00778,-0.01648,-0.03601,-0.01831,-0.01892,-0.03082,-0.01938,0.00717,-0.04135
3.204,-0.00717,-0.05112,-0.0296,0.02426,-0.02991,-0.0473,-0.02106,-0.00641,-0.01511,-0.03647,-0.01358,-0.00748,-0.0322,-0.01999,0.00778,-0.04089
3.2045,-0.00595,-0.05508,-0.02869,0.01999,-0.02975,-0.04639,-0.01572,-0.00519,-0.01358,-0.03403,-0.00946,0.00977,-0.03418,-0.02014,0.00961,-0.04074
3.205,-0.00519,-0.05859,-0.03021,0.00916,-0.02808,-0.04745,-0.01083,-0.00504,-0.01419,-0.03174,-0.00595,0.01877,-0.03464,-0.02106,0.00809,-0.04059
3.2055,-0.00458,-0.06058,-0.0296,-0.00732,-0.02808,-0.04623,-0.01053,-0.00504,-0.01556,-0.02914,-0.00107,0.01205,-0.03342,-0.02213,0.00641,-0.04028
3.206,-0.00473,-0.06042,-0.02579,-0.02655,-0.02945,-0.04517,-0.0116,-0.00504,-0.01572,-0.02518,0.00412,-0.00244,-0.03311,-0.02258,0.00488,-0.04135
3.2065,-0.00351,-0.0589,-0.01892,-0.04669,-0.03113,-0.0441,-0.01205,-0.00473,-0.01617,-0.0206,0.00748,-0.01801,-0.03448,-0.02197,0.00488,-0.04166
3.207,-0.00137,-0.05737,-0.01404,-0.065,-0.03128,-0.04364,-0.01297,-0.00488,-0.0174,-0.01755,0.00565,-0.03006,-0.0354,-0.02167,0.00626,-0.0412
3.2075,-0.00046,-0.05539,-0.01343,-0.07614,-0.03113,-0.04379,-0.01541,-0.00534,-0.01816,-0.0177,0.00198,-0.0415,-0.03479,-0.02045,0.00778,-0.03906
3.208,-0.00168,-0.05249,-0.0177,-0.07538,-0.03159,-0.0412,-0.01831,-0.0058,-0.01862,-0.01877,-0.00107,-0.04898,-0.03357,-0.02029,0.00961,-0.04013
3.2085,-0.00366,-0.04852,-0.02518,-0.065,-0.03235,-0.03967,-0.01892,-0.00595,-0.01816,-0.01938,-0.0032,-0.05341,-0.03418,-0.02136,0.01083,-0.04089
3.209,-0.00427,-0.04471,-0.03296,-0.04807,-0.03204,-0.03906,-0.01694,-0.00565,-0.01907,-0.01724,-0.00549,-0.05997,-0.03586,-0.02121,0.0116,-0.04135
3.2095,-0.00351,-0.03906,-0.03922,-0.0235,-0.03159,-0.0412,-0.01312,-0.00656,-0.01862,-0.01282,-0.00748,-0.07095,-0.03677,-0.01999,0.01205,-0.0415
3.21,-0.00229,-0.03311,-0.04196,0.00275,-0.03098,-0.04349,-0.01099,-0.00656,-0.01694,-0.00946,-0.00809,-0.08331,-0.03571,-0.01816,0.01007,-0.04105
3.2105,-0.00168,-0.03006,-0.04425,0.01968,-0.03128,-0.04364,-0.01328,-0.00443,-0.01572,-0.00702,-0.00748,-0.09323,-0.03464,-0.0174,0.00839,-0.04074
3.211,-0.00107,-0.03281,-0.04639,0.02106,-0.03189,-0.04181,-0.01892,-0.00214,-0.01465,-0.00793,-0.00748,-0.09705,-0.03387,-0.01678,0.00687,-0.04013
3.2115,-0.00107,-0.03937,-0.04883,0.01419,-0.03113,-0.04028,-0.02289,-0.00031,-0.01404,-0.01038,-0.01007,-0.09445,-0.03311,-0.01724,0.00687,-0.0386
3.212,-0.00168,-0.0441,-0.04852,0.01236,-0.02945,-0.04135,-0.02167,-0.00015,-0.01465,-0.01328,-0.01419,-0.0882,-0.03296,-0.01755,0.00748,-0.03784
3.2125,-0.00153,-0.04532,-0.04135,0.02457,-0.02701,-0.0441,-0.01602,-0.00122,-0.01556,-0.01312,-0.02029,-0.0795,-0.03281,-0.01801,0.0087,-0.03876
3.213,-0.00061,-0.04456,-0.02991,0.04166,-0.0264,-0.04654,-0.01221,-0.00259,-0.01709,-0.01099,-0.02609,-0.06989,-0.03418,-0.01801,0.01022,-0.03845
3.2135,-0.00046,-0.04471,-0.01938,0.04059,-0.02777,-0.04639,-0.01038,-0.0029,-0.01892,-0.00793,-0.0296,-0.0592,-0.03571,-0.01877,0.00977,-0.03922
3.214,-0.00046,-0.04333,-0.01434,0.01251,-0.0296,-0.04501,-0.00916,-0.00351,-0.02029,-0.00473,-0.03082,-0.04074,-0.03571,-0.01953,0.00809,-0.03967
3.2145,-0.00015,-0.04013,-0.0148,-0.01907,-0.03006,-0.04456,-0.00824,-0.00427,-0.01984,-0.00458,-0.0325,-0.01053,-0.03372,-0.01907,0.00732,-0.03998
3.215,0.00031,-0.0383,-0.02075,-0.03143,-0.02975,-0.04562,-0.009,-0.00305,-0.01862,-0.00732,-0.0351,0.02716,-0.03235,-0.01984,0.00839,-0.04013
3.2155,0.00122,-0.03922,-0.03067,-0.03662,-0.03113,-0.0473,-0.0119,-0.00061,-0.01663,-0.01129,-0.03708,0.05417,-0.03204,-0.01999,0.00961,-0.03998
3.216,0.00031,-0.04135,-0.04196,-0.05676,-0.03372,-0.04929,-0.01358,0.00198,-0.0145,-0.01343,-0.03601,0.06012,-0.03082,-0.01999,0.00946,-0.04044
3.2165,-0.00153,-0.04257,-0.05127,-0.08301,-0.03479,-0.0499,-0.01511,0.00183,-0.01358,-0.01434,-0.0322,0.05768,-0.03052,-0.01877,0.0087,-0.04074
3.217,-0.00366,-0.04227,-0.0589,-0.09644,-0.03326,-0.05096,-0.01617,-0.00015,-0.01297,-0.01541,-0.02686,0.0592,-0.03128,-0.01755,0.00885,-0.0412
3.2175,-0.00824,-0.04272,-0.06439,-0.09384,-0.03143,-0.04959,-0.01694,-0.00183,-0.01251,-0.01862,-0.02335,0.05981,-0.03265,-0.01755,0.00809,-0.04105
3.218,-0.01465,-0.04303,-0.0766,-0.08469,-0.03036,-0.04807,-0.01602,-0.00244,-0.01099,-0.02319,-0.02029,0.04684,-0.03342,-0.01846,0.00763,-0.0415
3.2185,-0.02289,-0.04272,-0.10651,-0.08041,-0.03174,-0.0499,-0.01511,-0.00137,-0.00977,-0.02686,-0.01892,0.02731,-0.03357,-0.01877,0.00595,-0.04303
3.219,-0.02884,-0.0412,-0.14816,-0.08087,-0.03235,-0.05219,-0.0148,0.0,-0.01083,-0.0296,-0.01892,0.01572,-0.03387,-0.01923,0.00595,-0.04333
3.2195,-0.02792,-0.04059,-0.17593,-0.08194,-0.03189,-0.05203,-0.0148,0.00015,-0.01404,-0.03143,-0.01785,0.01297,-0.03387,-0.01923,0.00748,-0.04211
3.22,-0.02045,-0.0412,-0.16418,-0.08026,-0.02975,-0.0502,-0.01556,-0.00244,-0.01663,-0.03555,-0.0148,0.01343,-0.03204,-0.01938,0.00885,-0.03998
3.2205,-0.01144,-0.04196,-0.11871,-0.07584,-0.02777,-0.04898,-0.01526,-0.00519,-0.01678,-0.04288,-0.01114,0.0116,-0.03036,-0.01968,0.0087,-0.03845
3.221,-0.00488,-0.04089,-0.06653,-0.0676,-0.02808,-0.04898,-0.01556,-0.00504,-0.01526,-0.05112,-0.00839,0.01007,-0.0293,-0.0209,0.00748,-0.0383
3.2215,-0.00351,-0.03937,-0.02655,-0.05554,-0.02884,-0.04868,-0.01541,-0.0032,-0.01434,-0.05478,-0.0058,0.00809,-0.02869,-0.0206,0.00687,-0.0386
3.222,-0.00336,-0.03906,0.00443,-0.03998,-0.02823,-0.04883,-0.01526,-0.00168,-0.01465,-0.05173,-0.00565,0.00549,-0.03067,-0.01877,0.00763,-0.03876
3.2225,-0.00244,-0.04089,0.03021,-0.02701,-0.02853,-0.04761,-0.01404,-0.00153,-0.01511,-0.04547,-0.00504,0.00275,-0.0325,-0.01724,0.0087,-0.03952
3.223,0.00015,-0.04181,0.04715,-0.01984,-0.02991,-0.0473,-0.01266,-0.00168,-0.01465,-0.03799,-0.00381,0.00168,-0.03494,-0.0177,0.00824,-0.04074
3.2235,0.00244,-0.04257,0.05051,-0.01617,-0.03235,-0.04852,-0.01251,-0.00122,-0.01495,-0.0322,-0.0029,0.00107,-0.0354,-0.01999,0.00839,-0.04135
3.224,0.00198,-0.04364,0.0444,-0.01144,-0.03372,-0.04898,-0.01251,-0.00183,-0.01633,-0.02731,-0.00214,-0.00031,-0.03433,-0.02106,0.00931,-0.04166
3.2245,0.00122,-0.04593,0.03677,-0.00732,-0.03342,-0.04913,-0.01312,-0.00229,-0.01785,-0.02197,-0.00198,-0.00336,-0.03342,-0.0206,0.01007,-0.0412
3.225,0.00061,-0.04776,0.0296,-0.00397,-0.03159,-0.04807,-0.01419,-0.0029,-0.01755,-0.0145,-0.00137,-0.00519,-0.03143,-0.01953,0.00854,-0.04135
3.2255,0.00137,-0.04822,0.02136,-0.00168,-0.03052,-0.04791,-0.01358,-0.00275,-0.01602,-0.00778,-0.00061,-0.00549,-0.03021,-0.01831,0.00687,-0.04257
3.226,0.00061,-0.04807,0.00656,0.00229,-0.0296,-0.04608,-0.01251,-0.00397,-0.0148,-0.00412,-0.00336,-0.00549,-0.03052,-0.01724,0.00549,-0.04318
3.2265,-0.00046,-0.04807,-0.01053,0.00626,-0.02853,-0.0444,-0.01282,-0.00473,-0.01358,-0.00305,-0.01007,-0.00687,-0.03098,-0.01587,0.00504,-0.04318
3.227,-0.00366,-0.04761,-0.02487,0.00687,-0.02808,-0.04456,-0.01328,-0.0061,-0.01297,-0.00305,-0.01556,-0.00702,-0.03174,-0.01617,0.00488,-0.04181
3.2275,-0.00809,-0.04456,-0.03525,0.00305,-0.02792,-0.0473,-0.01297,-0.00671,-0.01358,-0.00214,-0.01877,-0.00412,-0.03204,-0.01678,0.00519,-0.04135
3.228,-0.01236,-0.03754,-0.04166,0.00031,-0.0267,-0.05005,-0.01251,-0.00656,-0.01465,0.00153,-0.01862,-0.00015,-0.03235,-0.01724,0.00565,-0.04227
3.2285,-0.01572,-0.02869,-0.0444,0.00168,-0.02655,-0.04929,-0.01266,-0.00626,-0.01495,0.00381,-0.01984,0.00473,-0.0322,-0.0177,0.00641,-0.0441
3.229,-0.01633,-0.02396,-0.04715,0.00565,-0.02625,-0.04593,-0.01297,-0.00519,-0.01373,0.00366,-0.02167,0.01358,-0.03174,-0.01984,0.00641,-0.04379
3.2295,-0.01221,-0.02548,-0.04974,0.00763,-0.02457,-0.04471,-0.01404,-0.0032,-0.01404,-0.00137,-0.02213,0.02945,-0.02975,-0.02014,0.00854,-0.04242
3.23,-0.00549,-0.03113,-0.0531,0.00732,-0.02243,-0.047,-0.0148,-0.00153,-0.01556,-0.01144,-0.01999,0.04517,-0.02762,-0.01816,0.00992,-0.04181
3.2305,-0.00031,-0.03967,-0.05554,0.00671,-0.02258,-0.05035,-0.01434,-0.00122,-0.01587,-0.0235,-0.01633,0.05051,-0.02747,-0.01602,0.00977,-0.0415
3.231,0.00046,-0.04578,-0.05661,0.00702,-0.02533,-0.05112,-0.01389,-0.00183,-0.01556,-0.03342,-0.01144,0.04608,-0.02884,-0.01587,0.00885,-0.04089
3.2315,-0.00153,-0.04868,-0.05722,0.00732,-0.02762,-0.04898,-0.01343,-0.00214,-0.01495,-0.03754,-0.00717,0.03998,-0.03052,-0.0177,0.00793,-0.04028
3.232,-0.00381,-0.05051,-0.06058,0.00671,-0.02884,-0.04501,-0.01312,-0.00198,-0.01617,-0.03769,-0.00473,0.03662,-0.03098,-0.01846,0.00793,-0.03983
3.2325,-0.0032,-0.05112,-0.06699,0.00641,-0.02991,-0.04257,-0.01328,-0.00214,-0.0177,-0.03616,-0.00366,0.03006,-0.03052,-0.01801,0.00748,-0.03906
3.233,-0.00168,-0.05219,-0.07324,0.00732,-0.03036,-0.04135,-0.01266,-0.00366,-0.01907,-0.03235,-0.00183,0.00992,-0.03159,-0.01694,0.00732,-0.03769
3.2335,-0.0032,-0.0531,-0.07629,0.00702,-0.03021,-0.04013,-0.01175,-0.00473,-0.01938,-0.02457,0.00137,-0.02243,-0.03235,-0.01587,0.00839,-0.03693
3.234,-0.00687,-0.05325,-0.07309,0.00656,-0.03098,-0.04089,-0.01205,-0.00488,-0.01877,-0.01633,0.00275,-0.05615,-0.03235,-0.01602,0.00961,-0.03876
3.2345,-0.01007,-0.05341,-0.06683,0.00534,-0.03159,-0.04272,-0.01236,-0.00366,-0.01755,-0.00793,0.00107,-0.07431,-0.03159,-0.01648,0.01007,-0.0412
3.235,-0.01236,-0.0531,-0.06073,0.00565,-0.03296,-0.04471,-0.01343,-0.00229,-0.01694,-0.00046,0.00244,-0.07584,-0.03098,-0.01587,0.01038,-0.04135
3.2355,-0.01556,-0.05402,-0.05417,0.0058,-0.03357,-0.04517,-0.01404,-0.00168,-0.01556,0.00214,0.00687,-0.06714,-0.03098,-0.01572,0.00946,-0.04181
3.236,-0.01907,-0.05386,-0.04669,0.00641,-0.03372,-0.04501,-0.0148,-0.00168,-0.01312,0.00244,0.01129,-0.06088,-0.03159,-0.01617,0.00809,-0.04166
3.2365,-0.02014,-0.05096,-0.03586,0.00595,-0.03296,-0.04501,-0.01404,-0.00214,-0.01297,0.00061,0.01266,-0.05814,-0.03265,-0.01785,0.00595,-0.04181
3.237,-0.01648,-0.04364,-0.02548,0.00443,-0.03387,-0.04623,-0.01373,-0.00259,-0.01373,-0.00031,0.00916,-0.05615,-0.03479,-0.0174,0.00534,-0.04135
3.2375,-0.01007,-0.02945,-0.01678,0.00168,-0.03448,-0.04684,-0.01389,-0.0032,-0.01419,-0.00259,0.00153,-0.05219,-0.03662,-0.01724,0.00595,-0.04196
3.238,-0.00397,-0.01251,-0.0061,0.00107,-0.03357,-0.04456,-0.01495,-0.00351,-0.01419,-0.00656,-0.0087,-0.04654,-0.03708,-0.01831,0.00626,-0.04349
3.2385,-0.00229,-0.00488,0.00473,0.00366,-0.03281,-0.04105,-0.01678,-0.00336,-0.01434,-0.01404,-0.01892,-0.04028,-0.03571,-0.0206,0.00671,-0.0444
3.239,-0.0032,-0.01663,0.01175,0.00595,-0.03326,-0.04089,-0.01648,-0.00305,-0.01465,-0.02167,-0.02731,-0.02899,-0.03418,-0.0209,0.00626,-0.04456
3.2395,-0.00534,-0.04013,0.01053,0.00595,-0.03372,-0.04364,-0.01572,-0.00198,-0.0145,-0.02823,-0.03082,-0.00656,-0.03342,-0.01984,0.00626,-0.04395
3.24,-0.00687,-0.05936,0.00244,0.00244,-0.03357,-0.04715,-0.01251,-0.0029,-0.0145,-0.03403,-0.03403,0.01755,-0.03296,-0.01831,0.00641,-0.04486
3.2405,-0.00778,-0.0679,-0.00656,-0.00381,-0.03296,-0.05005,-0.01038,-0.0032,-0.0148,-0.04196,-0.03616,0.03021,-0.03372,-0.01801,0.00748,-0.04669
3.241,-0.00793,-0.06943,-0.01434,-0.01114,-0.03311,-0.05096,-0.01022,-0.00229,-0.01419,-0.05417,-0.03479,0.03372,-0.03418,-0.01801,0.00793,-0.04715
3.2415,-0.00565,-0.07004,-0.0177,-0.0145,-0.03448,-0.05005,-0.01038,-0.00168,-0.01175,-0.06805,-0.02945,0.03815,-0.03342,-0.0174,0.00824,-0.04562
3.242,-0.00153,-0.06927,-0.02136,-0.01389,-0.03571,-0.04959,-0.0119,-0.00305,-0.00839,-0.07568,-0.01953,0.04471,-0.03113,-0.0174,0.00687,-0.04364
3.2425,0.00443,-0.06531,-0.02823,-0.01266,-0.03723,-0.0502,-0.01297,-0.00534,-0.00427,-0.0708,-0.00366,0.04913,-0.02899,-0.01785,0.00626,-0.04379
3.243,0.00961,-0.05707,-0.0354,-0.01175,-0.0383,-0.05234,-0.01419,-0.00565,-0.00031,-0.05936,0.01724,0.05173,-0.02884,-0.01755,0.00702,-0.0441
3.2435,0.01053,-0.04822,-0.03967,-0.00671,-0.03937,-0.05325,-0.01389,-0.00443,0.00305,-0.04974,0.03403,0.05356,-0.02838,-0.01678,0.00793,-0.04501
3.244,0.00687,-0.03998,-0.03967,0.00534,-0.03998,-0.05219,-0.01434,-0.00336,0.00488,-0.04898,0.03433,0.05356,-0.02777,-0.01526,0.00839,-0.04517
3.2445,0.00122,-0.03281,-0.03525,0.0177,-0.04013,-0.05127,-0.01465,-0.00305,0.00397,-0.05325,0.01801,0.05081,-0.02747,-0.0148,0.00839,-0.0441
3.245,-0.00336,-0.03036,-0.02853,0.01892,-0.04074,-0.05112,-0.01556,-0.00412,0.00061,-0.05432,-0.00015,0.04654,-0.02884,-0.01526,0.00748,-0.04318
3.2455,-0.009,-0.03403,-0.02136,0.00977,-0.04105,-0.05035,-0.01633,-0.00351,-0.00336,-0.04822,-0.01419,0.03845,-0.03036,-0.01633,0.00702,-0.04257
3.246,-0.01419,-0.03937,-0.01511,0.00183,-0.04059,-0.05112,-0.01556,-0.00229,-0.00702,-0.03769,-0.02579,0.02625,-0.03067,-0.01709,0.00717,-0.0415
3.2465,-0.01801,-0.0441,-0.01236,0.00519,-0.03967,-0.0531,-0.0148,-0.00198,-0.00946,-0.02762,-0.03555,0.01297,-0.02914,-0.01724,0.00809,-0.04105
3.247,-0.0174,-0.04593,-0.01572,0.01511,-0.03937,-0.05493,-0.0148,-0.00381,-0.01129,-0.01617,-0.04395,0.00122,-0.02792,-0.01556,0.00854,-0.04135
3.2475,-0.01297,-0.0473,-0.02441,0.01907,-0.03937,-0.05432,-0.01526,-0.00443,-0.01343,-0.00305,-0.0473,-0.01083,-0.02914,-0.01373,0.0087,-0.0415
3.248,-0.00778,-0.05035,-0.03647,0.01251,-0.0383,-0.05173,-0.0148,-0.00351,-0.01404,0.00931,-0.04669,-0.0209,-0.03128,-0.01236,0.00839,-0.04074
3.2485,-0.00504,-0.05051,-0.04639,-0.00198,-0.03647,-0.04868,-0.01343,-0.0029,-0.01312,0.01663,-0.04333,-0.0235,-0.03326,-0.01343,0.009,-0.03937
3.249,-0.0029,-0.04639,-0.04913,-0.01923,-0.03479,-0.04547,-0.01297,-0.00244,-0.01053,0.01755,-0.03845,-0.01602,-0.03387,-0.01556,0.00992,-0.03784
3.2495,0.00168,-0.03891,-0.04776,-0.04715,-0.03372,-0.04211,-0.01251,-0.00092,-0.00778,0.01434,-0.0325,-0.00671,-0.03296,-0.01816,0.01129,-0.03677
3.25,0.00977,-0.03311,-0.0444,-0.08896,-0.0322,-0.04105,-0.01328,0.00092,-0.00717,0.01038,-0.02609,-0.00381,-0.03143,-0.01862,0.01175,-0.03708
3.2505,0.0174,-0.03113,-0.03845,-0.13,-0.03021,-0.04044,-0.01389,-0.00015,-0.01144,0.00977,-0.02014,-0.0087,-0.03113,-0.01923,0.01038,-0.03967
3.251,0.0209,-0.0325,-0.02747,-0.14633,-0.02823,-0.04105,-0.01389,-0.00336,-0.01907,0.00946,-0.01587,-0.01556,-0.03204,-0.01968,0.00931,-0.0415
3.2515,0.0174,-0.03448,-0.0209,-0.13245,-0.0267,-0.04288,-0.01343,-0.00397,-0.02716,0.00504,-0.01282,-0.01648,-0.03448,-0.0206,0.00992,-0.04272
3.252,0.00763,-0.03448,-0.02625,-0.10468,-0.02625,-0.04486,-0.01282,-0.0032,-0.03189,-0.00519,-0.009,-0.01099,-0.03479,-0.02167,0.009,-0.04303
3.2525,-0.00183,-0.0296,-0.04379,-0.07599,-0.02701,-0.04852,-0.01312,-0.00107,-0.0322,-0.01602,-0.00717,-0.00443,-0.03372,-0.02197,0.009,-0.04211
3.253,-0.009,-0.02136,-0.06073,-0.03845,-0.0293,-0.05157,-0.01328,-0.00061,-0.03174,-0.02365,-0.00793,-0.00031,-0.0325,-0.02136,0.009,-0.04257
3.2535,-0.01343,-0.01511,-0.06714,0.02289,-0.03265,-0.05325,-0.01312,-0.00137,-0.03235,-0.02472,-0.01312,0.00168,-0.03143,-0.02045,0.00763,-0.04379
3.254,-0.01648,-0.01602,-0.06454,0.09598,-0.0354,-0.05341,-0.01328,-0.00122,-0.03418,-0.02228,-0.0177,0.00259,-0.03143,-0.0206,0.00748,-0.04425
3.2545,-0.01556,-0.0209,-0.05325,0.13702,-0.03555,-0.05127,-0.01434,-0.00031,-0.03403,-0.01892,-0.01724,0.0029,-0.03159,-0.02106,0.00809,-0.04303
3.255,-0.01266,-0.02533,-0.03723,0.11734,-0.03418,-0.04715,-0.01389,-0.00015,-0.03159,-0.01587,-0.01389,0.00183,-0.03128,-0.02151,0.00916,-0.04105
3.2555,-0.01068,-0.02777,-0.02121,0.06592,-0.03326,-0.04379,-0.01328,-0.00214,-0.02853,-0.01236,-0.01266,0.00137,-0.02945,-0.0206,0.00992,-0.03952
3.256,-0.01099,-0.03052,-0.01083,0.03189,-0.03296,-0.04257,-0.01266,-0.00412,-0.02411,-0.00687,-0.01022,0.00046,-0.02899,-0.02014,0.00885,-0.03891
3.2565,-0.01038,-0.0325,-0.00824,0.02869,-0.03189,-0.04211,-0.01328,-0.00534,-0.01862,0.00244,-0.00381,0.00031,-0.03021,-0.02075,0.00824,-0.03952
3.257,-0.00824,-0.03098,-0.0116,0.03433,-0.02991,-0.04349,-0.01404,-0.00397,-0.0119,0.01587,0.00305,0.00183,-0.03189,-0.02151,0.00809,-0.03891
3.2575,-0.0061,-0.0267,-0.01999,0.03128,-0.02914,-0.04517,-0.01373,-0.00214,-0.00473,0.02792,0.00961,0.00412,-0.03235,-0.02106,0.00778,-0.03723
3.258,-0.00702,-0.02075,-0.02899,0.02151,-0.03098,-0.04654,-0.01373,-0.00229,0.00122,0.03479,0.01953,0.00702,-0.03036,-0.01846,0.00687,-0.03494
3.2585,-0.00992,-0.01709,-0.03555,0.01038,-0.03174,-0.0473,-0.01312,-0.00412,0.0029,0.03235,0.0325,0.009,-0.0296,-0.01694,0.00458,-0.03357
3.259,-0.01495,-0.01892,-0.0386,0.00183,-0.03159,-0.04745,-0.01129,-0.00488,0.00122,0.01892,0.03632,0.00916,-0.03052,-0.01556,0.00504,-0.03433
3.2595,-0.01999,-0.02594,-0.04044,0.00107,-0.03204,-0.04822,-0.0061,-0.00305,-0.0032,-0.00336,0.02319,0.00854,-0.03128,-0.01587,0.00809,-0.03616
3.26,-0.02563,-0.03448,-0.04898,-0.00519,-0.03296,-0.04898,-0.00549,-0.00015,-0.00778,-0.02716,0.00122,0.00748,-0.03052,-0.01633,0.01068,-0.03708
3.2605,-0.0322,-0.0383,-0.07553,-0.02899,-0.03372,-0.04883,-0.01312,-0.00015,-0.01236,-0.0444,-0.01434,0.00488,-0.02884,-0.01617,0.009,-0.03708
3.261,-0.0386,-0.03906,-0.13153,-0.05219,-0.03113,-0.04745,-0.02502,-0.00153,-0.01526,-0.05081,-0.01602,0.00183,-0.02808,-0.01617,0.00717,-0.03799
3.2615,-0.04105,-0.04059,-0.19897,-0.05051,-0.0293,-0.0444,-0.03326,-0.00214,-0.01587,-0.05173,-0.00626,0.00015,-0.02808,-0.01587,0.00626,-0.0386
3.262,-0.0351,-0.04517,-0.23575,-0.03082,-0.02609,-0.04135,-0.02838,-0.00183,-0.0145,-0.05127,0.01511,-0.00137,-0.02838,-0.01663,0.00626,-0.03998
3.2625,-0.02274,-0.05051,-0.21164,-0.01999,-0.0238,-0.04074,-0.01511,-0.00381,-0.01251,-0.0499,0.0441,-0.00244,-0.02899,-0.01709,0.00671,-0.04166
3.263,-0.0119,-0.05325,-0.13153,-0.03174,-0.02335,-0.04318,-0.00275,-0.00549,-0.01175,-0.04883,0.06775,-0.00214,-0.03021,-0.01785,0.00809,-0.04272
3.2635,-0.0058,-0.056,-0.03174,-0.05585,-0.02533,-0.04501,0.00107,-0.00534,-0.01465,-0.05386,0.06943,0.0,-0.03098,-0.01801,0.00961,-0.04211
3.264,-0.00397,-0.06073,0.04776,-0.07843,-0.02701,-0.04562,-0.00458,-0.00534,-0.02075,-0.0679,0.04562,0.00443,-0.03067,-0.01678,0.0119,-0.0412
3.2645,-0.00046,-0.06516,0.08881,-0.09247,-0.02838,-0.04501,-0.01343,-0.00656,-0.02777,-0.08133,0.00595,0.00687,-0.02899,-0.01587,0.01175,-0.0415
3.265,0.00137,-0.06363,0.09964,-0.09659,-0.02899,-0.04654,-0.01938,-0.00717,-0.03189,-0.08209,-0.03998,0.00473,-0.02869,-0.01541,0.01007,-0.04272
3.2655,-0.00229,-0.05417,0.09964,-0.08698,-0.03036,-0.04944,-0.0206,-0.00656,-0.03265,-0.06927,-0.08621,0.0032,-0.03021,-0.01587,0.00839,-0.04272
3.266,-0.00977,-0.03967,0.10223,-0.05707,-0.0322,-0.05188,-0.01984,-0.00534,-0.0351,-0.05341,-0.12619,0.0029,-0.0325,-0.01816,0.00748,-0.04318
3.2665,-0.01709,-0.02808,0.10712,-0.00565,-0.03113,-0.0531,-0.01785,-0.00565,-0.03845,-0.03799,-0.14862,0.00443,-0.03265,-0.02075,0.00717,-0.04318
3.267,-0.02106,-0.02411,0.10757,0.04974,-0.02899,-0.05234,-0.01511,-0.00778,-0.04135,-0.02136,-0.15182,0.00504,-0.03204,-0.02075,0.00732,-0.04379
3.2675,-0.01968,-0.02914,0.09979,0.07874,-0.02686,-0.05127,-0.01358,-0.0087,-0.04425,-0.00137,-0.14206,0.0032,-0.0322,-0.01755,0.00656,-0.04471
3.268,-0.0145,-0.03784,0.09079,0.05844,-0.02747,-0.0502,-0.01404,-0.00717,-0.04776,0.01968,-0.12619,0.00153,-0.03403,-0.0145,0.00732,-0.04623
3.2685,-0.00839,-0.04227,0.07935,-0.00046,-0.02808,-0.04883,-0.0145,-0.00504,-0.0499,0.03708,-0.10727,0.00076,-0.03479,-0.01389,0.00854,-0.04623
3.269,-0.00305,-0.03723,0.05905,-0.05722,-0.0293,-0.04776,-0.01511,-0.00305,-0.04929,0.04913,-0.08774,0.00076,-0.03433,-0.01434,0.00916,-0.04471
3.2695,0.0032,-0.02838,0.02991,-0.07446,-0.03098,-0.0502,-0.01556,-0.00214,-0.04425,0.05844,-0.06866,-0.00015,-0.03403,-0.01495,0.00977,-0.04211
3.27,0.01205,-0.02457,0.00305,-0.05249,-0.03204,-0.05295,-0.01434,-0.00153,-0.03723,0.06424,-0.05219,-0.0029,-0.03433,-0.01511,0.01099,-0.04105
3.2705,0.01862,-0.0293,-0.01816,-0.02228,-0.03357,-0.05356,-0.01404,-0.0029,-0.02838,0.06638,-0.03479,-0.0058,-0.03525,-0.01617,0.01053,-0.04135
3.271,0.01938,-0.03723,-0.03891,-0.01129,-0.03571,-0.05295,-0.01343,-0.00275,-0.01953,0.06577,-0.01297,-0.00748,-0.0354,-0.01862,0.00931,-0.04303
3.2715,0.01251,-0.04395,-0.07416,-0.02502,-0.03738,-0.05203,-0.01282,-0.00031,-0.0116,0.0647,0.01297,-0.00549,-0.0354,-0.02151,0.00824,-0.04333
3.272,0.00427,-0.04974,-0.13031,-0.04807,-0.03708,-0.05295,-0.0116,0.00259,-0.00717,0.0621,0.03372,-0.00137,-0.03448,-0.02319,0.00885,-0.04349
3.2725,0.00061,-0.05661,-0.19363,-0.0647,-0.03571,-0.05417,-0.01038,0.00244,-0.00595,0.0528,0.04166,0.00153,-0.03357,-0.02274,0.009,-0.04196
3.273,0.00565,-0.06271,-0.22781,-0.07523,-0.03464,-0.05249,-0.00931,0.00107,-0.00641,0.03311,0.03998,0.00275,-0.03265,-0.02029,0.01022,-0.04242
3.2735,0.0145,-0.06592,-0.20798,-0.09003,-0.03403,-0.0499,-0.00916,-0.00061,-0.00763,0.00793,0.03403,0.00168,-0.03204,-0.01984,0.00992,-0.04181
3.274,0.01633,-0.06302,-0.15503,-0.10895,-0.03464,-0.04883,-0.00885,-0.00015,-0.00809,-0.01083,0.02716,-0.00122,-0.03174,-0.0209,0.00946,-0.04028
3.2745,0.00778,-0.04761,-0.1181,-0.11688,-0.03418,-0.04868,-0.00946,0.00107,-0.00702,-0.01617,0.01862,-0.00702,-0.03204,-0.02121,0.00931,-0.03937
3.275,-0.00626,-0.02594,-0.12054,-0.09888,-0.03326,-0.04944,-0.01038,0.00244,-0.00366,-0.01343,0.00793,-0.01373,-0.0322,-0.02045,0.01053,-0.04013
3.2755,-0.01648,-0.0145,-0.13214,-0.06226,-0.0322,-0.05051,-0.0116,0.00275,-0.00046,-0.01129,-0.00244,-0.0209,-0.03418,-0.01892,0.01251,-0.04105
3.276,-0.02151,-0.02655,-0.11017,-0.01297,-0.0322,-0.04974,-0.01343,0.00198,0.00076,-0.01282,-0.01282,-0.02731,-0.0354,-0.01785,0.01373,-0.04044
3.2765,-0.02243,-0.05402,-0.05173,0.06302,-0.03265,-0.04623,-0.01434,0.00122,0.00061,-0.01938,-0.02167,-0.03098,-0.03433,-0.01709,0.01205,-0.04074
3.277,-0.02197,-0.07904,0.00641,0.17914,-0.03311,-0.04166,-0.01358,0.00107,0.00076,-0.03128,-0.02869,-0.02975,-0.03281,-0.01617,0.01038,-0.04242
3.2775,-0.01968,-0.09094,0.03448,0.31067,-0.03265,-0.03876,-0.01373,0.00092,0.0,-0.04791,-0.03311,-0.02518,-0.03296,-0.0174,0.00961,-0.04425
3.278,-0.01877,-0.09308,0.03403,0.39017,-0.03311,-0.03983,-0.01312,0.00015,-0.00626,-0.06317,-0.03769,-0.01709,-0.03387,-0.01907,0.00992,-0.04562
3.2785,-0.02304,-0.08911,0.0174,0.36743,-0.03342,-0.04303,-0.01312,-0.00153,-0.01633,-0.07126,-0.04288,-0.00137,-0.03342,-0.01984,0.00992,-0.04608
3.279,-0.02594,-0.08011,-0.00336,0.25772,-0.03174,-0.04532,-0.01373,-0.00275,-0.02502,-0.0705,-0.04425,0.0267,-0.03296,-0.01968,0.00931,-0.04364
3.2795,-0.01984,-0.06744,-0.02228,0.13092,-0.03036,-0.04486,-0.01419,-0.00183,-0.02823,-0.06256,-0.03357,0.05768,-0.03296,-0.01892,0.00992,-0.04044
3.28,-0.00656,-0.05341,-0.03464,0.04898,-0.03082,-0.0441,-0.01434,-0.00183,-0.02747,-0.04883,-0.01038,0.07019,-0.03113,-0.01892,0.01053,-0.03906
3.2805,0.0032,-0.0441,-0.04227,0.02197,-0.03174,-0.04532,-0.01404,-0.00198,-0.02625,-0.02838,0.00839,0.05264,-0.02975,-0.01968,0.01038,-0.04013
3.281,0.0061,-0.0415,-0.04257,0.0174,-0.03189,-0.0473,-0.01312,-0.00259,-0.02579,-0.00885,0.01495,0.01129,-0.02914,-0.02075,0.00992,-0.04318
3.2815,0.01022,-0.04578,-0.04227,0.0058,-0.03174,-0.04715,-0.0116,-0.00305,-0.02716,0.00183,0.01297,-0.03433,-0.02991,-0.02151,0.00854,-0.04532
3.282,0.01755,-0.04852,-0.04532,-0.01007,-0.03067,-0.04654,-0.01144,-0.00473,-0.03159,0.00015,0.01328,-0.05936,-0.03204,-0.02304,0.00839,-0.04684
3.2825,0.01984,-0.04501,-0.05081,-0.01999,-0.02945,-0.04608,-0.01266,-0.00626,-0.03433,-0.00763,0.0209,-0.05341,-0.03433,-0.02457,0.00824,-0.04745
3.283,0.01038,-0.03616,-0.0563,-0.0296,-0.02884,-0.04776,-0.01511,-0.00824,-0.03052,-0.01343,0.03769,-0.03204,-0.03555,-0.02487,0.00824,-0.04654
3.2835,-0.00839,-0.02441,-0.05676,-0.04822,-0.02853,-0.05112,-0.0177,-0.00977,-0.02167,-0.0148,0.06271,-0.0177,-0.03433,-0.02304,0.00702,-0.04364
3.284,-0.02579,-0.01175,-0.05371,-0.0705,-0.02884,-0.05417,-0.01846,-0.01038,-0.01297,-0.02045,0.08423,-0.02014,-0.0325,-0.02075,0.00641,-0.04166
3.2845,-0.03464,0.00275,-0.04837,-0.08575,-0.02838,-0.05402,-0.01755,-0.00977,-0.01251,-0.03723,0.08972,-0.03143,-0.03281,-0.01892,0.00473,-0.04059
3.285,-0.03403,0.01343,-0.04471,-0.0885,-0.02701,-0.04974,-0.01709,-0.00748,-0.02151,-0.06027,0.08026,-0.03311,-0.03342,-0.01846,0.00443,-0.0415
3.2855,-0.03067,0.0145,-0.04471,-0.08286,-0.02533,-0.04608,-0.01633,-0.00534,-0.03311,-0.07874,0.06973,-0.00854,-0.03418,-0.01923,0.00565,-0.04105
3.286,-0.02884,0.00656,-0.04608,-0.07385,-0.02487,-0.04486,-0.01617,-0.00519,-0.04181,-0.08698,0.0563,0.03708,-0.03403,-0.01953,0.0058,-0.04044
3.2865,-0.03082,-0.00183,-0.04562,-0.06714,-0.02594,-0.04501,-0.01572,-0.00595,-0.04623,-0.09155,0.03006,0.07324,-0.0322,-0.02029,0.00595,-0.04044
3.287,-0.03128,-0.00656,-0.04715,-0.06256,-0.0267,-0.04532,-0.01587,-0.00473,-0.04669,-0.09598,-0.00229,0.07233,-0.03128,-0.02136,0.00565,-0.04242
3.2875,-0.02457,-0.01343,-0.05661,-0.05249,-0.02716,-0.04486,-0.01587,-0.00137,-0.04425,-0.09674,-0.02502,0.04242,-0.03052,-0.02243,0.0058,-0.0444
3.288,-0.01236,-0.0238,-0.07019,-0.03647,-0.02655,-0.04562,-0.01526,0.00107,-0.04227,-0.08514,-0.03738,0.01312,-0.02808,-0.02136,0.00473,-0.04562
3.2885,-0.00168,-0.0325,-0.0824,-0.02731,-0.02686,-0.04501,-0.01389,0.00015,-0.04272,-0.06531,-0.04868,0.00153,-0.02701,-0.01907,0.00488,-0.0444
3.289,0.00397,-0.03372,-0.09308,-0.03967,-0.02914,-0.04486,-0.01297,-0.00229,-0.04303,-0.04196,-0.06073,0.00473,-0.02716,-0.01801,0.00626,-0.04272
3.2895,0.00732,-0.03082,-0.10941,-0.06775,-0.03052,-0.04425,-0.01221,-0.00229,-0.03784,-0.01984,-0.06744,0.01572,-0.02808,-0.01816,0.00793,-0.04211
3.29,0.01068,-0.02869,-0.12207,-0.09659,-0.03052,-0.04395,-0.01144,-0.00015,-0.02625,-0.00351,-0.06927,0.02731,-0.02808,-0.01709,0.00977,-0.04318
3.2905,0.01312,-0.02686,-0.11169,-0.12344,-0.02945,-0.04303,-0.01205,0.00076,-0.01358,0.00259,-0.0737,0.03738,-0.02655,-0.01587,0.00992,-0.0441
3.291,0.01373,-0.0206,-0.07156,-0.14618,-0.03036,-0.04333,-0.01251,-0.00107,-0.00488,-0.00397,-0.07813,0.04288,-0.02625,-0.01511,0.00916,-0.04364
3.2915,0.01465,-0.01266,-0.02014,-0.14954,-0.03159,-0.04456,-0.0119,-0.00381,-0.00137,-0.01633,-0.07584,0.04364,-0.02686,-0.01556,0.00977,-0.04318
3.292,0.01556,-0.01282,0.01938,-0.12283,-0.03296,-0.04318,-0.01038,-0.00443,-0.00153,-0.0235,-0.06699,0.03891,-0.02899,-0.01648,0.01022,-0.04227
3.2925,0.01541,-0.02563,0.03876,-0.08453,-0.03235,-0.03876,-0.01099,-0.00519,-0.00107,-0.02167,-0.06256,0.02991,-0.03189,-0.01831,0.01083,-0.04074
3.293,0.01389,-0.04471,0.04761,-0.05692,-0.03265,-0.03525,-0.01297,-0.00504,0.00168,-0.01419,-0.07019,0.01892,-0.03479,-0.01892,0.01114,-0.03845
3.2935,0.00992,-0.06348,0.0499,-0.03937,-0.03326,-0.03418,-0.01511,-0.00427,0.00549,-0.00687,-0.08514,0.01068,-0.03601,-0.01801,0.01053,-0.03876
3.294,0.00183,-0.07858,0.04623,-0.01602,-0.03281,-0.03403,-0.01648,-0.0032,0.00885,0.00458,-0.09644,0.00626,-0.03479,-0.01633,0.00946,-0.04135
3.2945,-0.00626,-0.08743,0.03754,0.01114,-0.03204,-0.03464,-0.01648,-0.00336,0.01007,0.01999,-0.09918,0.00351,-0.03387,-0.01602,0.00916,-0.04364
3.295,-0.01205,-0.08484,0.0238,0.03387,-0.0325,-0.03586,-0.01526,-0.00381,0.01175,0.03693,-0.09445,0.0,-0.03433,-0.01541,0.00916,-0.04364
3.2955,-0.01694,-0.07645,0.00381,0.04761,-0.03296,-0.03967,-0.01465,-0.00519,0.01465,0.05081,-0.08118,-0.00443,-0.03555,-0.01358,0.00977,-0.04349
3.296,-0.02274,-0.07004,-0.02014,0.05493,-0.0325,-0.04608,-0.0148,-0.00626,0.01877,0.0563,-0.05829,-0.00916,-0.03647,-0.01328,0.00992,-0.04242
3.2965,-0.03036,-0.06958,-0.04089,0.05188,-0.02975,-0.05096,-0.01465,-0.00641,0.02197,0.05737,-0.03265,-0.01022,-0.03571,-0.01572,0.01007,-0.04166
3.297,-0.03601,-0.07187,-0.05463,0.03815,-0.02777,-0.05173,-0.01419,-0.00565,0.02304,0.06058,-0.01282,-0.0116,-0.03586,-0.0177,0.01083,-0.03998
3.2975,-0.0383,-0.07248,-0.06439,0.02151,-0.02579,-0.04761,-0.01282,-0.00458,0.02075,0.06195,-0.00366,-0.02075,-0.03708,-0.01694,0.01129,-0.03891
3.298,-0.03555,-0.06989,-0.07202,0.00687,-0.02548,-0.04471,-0.01175,-0.00259,0.01572,0.05646,-0.00229,-0.04745,-0.03616,-0.01434,0.0116,-0.0383
3.2985,-0.0264,-0.05722,-0.07599,-0.0119,-0.02594,-0.04501,-0.01144,-0.00168,0.00778,0.04333,-0.00061,-0.08224,-0.03433,-0.01251,0.01236,-0.03906
3.299,-0.01572,-0.02655,-0.07858,-0.03845,-0.02686,-0.04761,-0.01205,-0.00198,-0.00397,0.02823,0.00809,-0.10284,-0.03326,-0.01144,0.01236,-0.03876
3.2995,-0.00732,0.01236,-0.07385,-0.06424,-0.02747,-0.04837,-0.01312,-0.00244,-0.01907,0.01724,0.02594,-0.09277,-0.03342,-0.01175,0.01236,-0.03708
3.3,-0.00381,0.03357,-0.05951,-0.08087,-0.02716,-0.04684,-0.01328,-0.00168,-0.0351,0.01007,0.04272,-0.06012,-0.03387,-0.01266,0.01266,-0.03464
3.3005,-0.0029,0.02151,-0.04303,-0.09506,-0.02762,-0.04532,-0.01266,-0.00107,-0.04517,0.00031,0.05096,-0.0206,-0.03433,-0.01434,0.01266,-0.03387
3.301,0.00061,-0.00885,-0.04333,-0.11719,-0.02945,-0.04547,-0.0119,-0.00107,-0.04608,-0.01022,0.05508,0.02563,-0.03601,-0.01587,0.01114,-0.03464
3.3015,0.00626,-0.03159,-0.05951,-0.14954,-0.03006,-0.04837,-0.01236,-0.00168,-0.04486,-0.02289,0.0676,0.07584,-0.03799,-0.01602,0.00732,-0.03616
3.302,0.01038,-0.03769,-0.06668,-0.18524,-0.02808,-0.05325,-0.01404,-0.0029,-0.04913,-0.0386,0.08255,0.11154,-0.03998,-0.01617,0.00641,-0.03693
3.3025,0.01312,-0.0322,-0.04837,-0.21088,-0.02579,-0.05722,-0.01572,-0.0032,-0.05508,-0.05936,0.08163,0.1181,-0.04105,-0.0177,0.00687,-0.03708
3.303,0.01877,-0.02121,-0.01434,-0.20767,-0.02441,-0.05798,-0.01587,-0.00214,-0.05432,-0.08255,0.065,0.112,-0.0412,-0.01984,0.0087,-0.03769
3.3035,0.02777,-0.00351,0.02731,-0.15228,-0.02411,-0.05325,-0.01465,-0.00092,-0.04242,-0.10254,0.06058,0.11856,-0.03952,-0.01938,0.00824,-0.03967
3.304,0.0351,0.01343,0.07629,-0.03784,-0.02563,-0.04929,-0.01373,-0.00076,-0.02365,-0.11276,0.0856,0.13733,-0.0386,-0.01587,0.00778,-0.04364
3.3045,0.03815,0.02426,0.11703,0.1001,-0.02777,-0.0473,-0.01343,-0.00153,-0.0061,-0.11581,0.11978,0.1413,-0.0383,-0.01221,0.00793,-0.04608
3.305,0.03616,0.02533,0.12238,0.18417,-0.0296,-0.04608,-0.01419,-0.00244,0.00626,-0.11673,0.13153,0.11093,-0.03754,-0.01022,0.00977,-0.0441
3.3055,0.03296,0.0177,0.08347,0.16815,-0.03006,-0.04532,-0.01343,-0.00214,0.01572,-0.1178,0.11917,0.05554,-0.03555,-0.00854,0.0119,-0.0412
3.306,0.0293,0.00549,0.02563,0.08896,-0.03082,-0.04456,-0.01389,-0.00214,0.02335,-0.11627,0.1088,-0.00366,-0.03403,-0.00626,0.01251,-0.04196
3.3065,0.02594,-0.00732,-0.02884,0.02533,-0.03296,-0.04532,-0.01434,-0.00443,0.02853,-0.1123,0.11276,-0.05341,-0.03357,-0.00519,0.01129,-0.0444
3.307,0.0235,-0.01846,-0.09064,0.01175,-0.03448,-0.04639,-0.01389,-0.00626,0.02869,-0.112,0.11322,-0.08408,-0.03342,-0.00732,0.009,-0.04654
3.3075,0.01877,-0.02609,-0.17807,0.02029,-0.03464,-0.04745,-0.01312,-0.00656,0.02289,-0.11703,0.08072,-0.0943,-0.03403,-0.01068,0.00687,-0.04807
3.308,0.00778,-0.0296,-0.26123,0.01556,-0.03342,-0.04913,-0.0119,-0.00488,0.01007,-0.12009,0.01465,-0.10422,-0.0325,-0.01343,0.00488,-0.04959
3.3085,-0.00626,-0.03296,-0.27985,-0.00702,-0.03189,-0.05264,-0.01282,-0.00214,-0.00793,-0.11749,-0.05356,-0.14526,-0.03036,-0.01556,0.00443,-0.04944
3.309,-0.02121,-0.04349,-0.20676,-0.02167,-0.03281,-0.05783,-0.01266,-0.00046,-0.02655,-0.11276,-0.09033,-0.21194,-0.02945,-0.01755,0.00534,-0.04684
3.3095,-0.03403,-0.06454,-0.07813,-0.00946,-0.03448,-0.06271,-0.0119,-0.00092,-0.03906,-0.11185,-0.09521,-0.24933,-0.03174,-0.01968,0.00671,-0.04364
3.31,-0.04608,-0.09018,0.04242,0.02243,-0.03647,-0.06424,-0.01114,-0.00137,-0.0441,-0.11475,-0.10025,-0.21423,-0.03479,-0.02167,0.00717,-0.04135
3.3105,-0.05386,-0.11108,0.13168,0.0502,-0.03632,-0.06073,-0.01099,-0.00046,-0.04456,-0.11673,-0.12299,-0.12207,-0.03616,-0.0238,0.00656,-0.04211
3.311,-0.05478,-0.12375,0.20157,0.06378,-0.0351,-0.0531,-0.01114,0.00092,-0.04333,-0.10895,-0.15381,-0.03036,-0.03677,-0.02487,0.00549,-0.04379
3.3115,-0.04807,-0.13046,0.25208,0.07202,-0.03357,-0.04547,-0.01266,0.00092,-0.0412,-0.08896,-0.17624,0.02518,-0.03708,-0.02396,0.00595,-0.04593
3.312,-0.03876,-0.13458,0.26184,0.08514,-0.03403,-0.04196,-0.01465,-0.00137,-0.03967,-0.05615,-0.19028,0.04379,-0.03845,-0.0238,0.00671,-0.0473
3.3125,-0.02884,-0.14023,0.22049,0.09964,-0.03372,-0.04425,-0.01587,-0.00412,-0.04105,-0.02151,-0.20142,0.04166,-0.03922,-0.02518,0.00626,-0.04639
3.313,-0.01968,-0.15045,0.14908,0.10666,-0.03525,-0.04776,-0.01511,-0.00443,-0.0441,0.00748,-0.2037,0.02502,-0.03799,-0.02594,0.00656,-0.04562
3.3135,-0.01495,-0.16296,0.07217,0.10605,-0.03571,-0.047,-0.01404,-0.00336,-0.0412,0.02441,-0.18997,0.00305,-0.03616,-0.02747,0.00671,-0.04532
3.314,-0.01724,-0.16891,0.00153,0.10132,-0.03815,-0.04318,-0.01572,-0.00305,-0.03021,0.0293,-0.17014,-0.00214,-0.03601,-0.02884,0.00656,-0.0444
3.3145,-0.02151,-0.16098,-0.05737,0.08759,-0.03998,-0.03799,-0.01648,-0.00427,-0.01755,0.02075,-0.15991,0.01907,-0.03555,-0.02945,0.00656,-0.04303
3.315,-0.02136,-0.13519,-0.09674,0.06104,-0.0412,-0.03357,-0.01724,-0.00519,-0.01144,0.00092,-0.159,0.05249,-0.03525,-0.02823,0.00763,-0.04135
3.3155,-0.0177,-0.09903,-0.10956,0.02914,-0.04166,-0.02716,-0.01694,-0.00687,-0.01083,-0.02701,-0.15594,0.07385,-0.03464,-0.02533,0.00977,-0.04135
3.316,-0.01389,-0.06302,-0.10498,-0.00519,-0.0412,-0.02121,-0.01541,-0.00793,-0.00946,-0.05661,-0.14023,0.07477,-0.03372,-0.02258,0.01099,-0.04257
3.3165,-0.00992,-0.03952,-0.10086,-0.05524,-0.03906,-0.01846,-0.01419,-0.0087,-0.00687,-0.08392,-0.11368,0.05844,-0.03204,-0.0209,0.01053,-0.04288
3.317,-0.00275,-0.03799,-0.1123,-0.12741,-0.03708,-0.02426,-0.01389,-0.00961,-0.00824,-0.10162,-0.08102,0.03494,-0.03006,-0.02045,0.00961,-0.04303
3.3175,0.00671,-0.06409,-0.13809,-0.20081,-0.03662,-0.03906,-0.0148,-0.01022,-0.01434,-0.10147,-0.04364,0.01572,-0.02792,-0.02029,0.00946,-0.0415
3.318,0.01205,-0.11383,-0.16357,-0.24551,-0.03845,-0.06348,-0.01556,-0.00916,-0.01663,-0.07538,-0.00992,0.00732,-0.02625,-0.01984,0.00946,-0.03693
3.3185,0.01312,-0.16464,-0.16907,-0.25284,-0.04105,-0.09155,-0.01587,-0.00656,-0.01282,-0.02594,0.00717,0.00839,-0.02457,-0.01938,0.01007,-0.03021
3.319,0.01572,-0.18188,-0.14664,-0.23087,-0.0412,-0.11368,-0.01602,-0.00519,-0.00687,0.03738,-0.0029,0.00946,-0.02487,-0.01984,0.00961,-0.02686
3.3195,0.02533,-0.15152,-0.10483,-0.1799,-0.03769,-0.12009,-0.01556,-0.00397,-0.00366,0.1059,-0.0325,0.00717,-0.02579,-0.02136,0.00824,-0.02655
3.32,0.04059,-0.09262,-0.06775,-0.08499,-0.03342,-0.10864,-0.01556,-0.00229,-0.00443,0.17426,-0.06119,0.00275,-0.02701,-0.02136,0.00778,-0.02975
3.3205,0.05661,-0.03876,-0.05371,0.05417,-0.03189,-0.08713,-0.01526,-0.00092,-0.00885,0.23712,-0.06912,-0.00046,-0.02747,-0.02045,0.00809,-0.03387
3.321,0.06653,-0.00473,-0.05814,0.18829,-0.03143,-0.0679,-0.01373,-0.00061,-0.01404,0.28809,-0.05356,-0.00046,-0.02747,-0.01953,0.00763,-0.03662
3.3215,0.06866,0.01511,-0.06287,0.23651,-0.03021,-0.0563,-0.01343,-0.00076,-0.01678,0.31845,-0.02304,0.00031,-0.02792,-0.0206,0.00626,-0.03815
3.322,0.06393,0.02838,-0.05676,0.18082,-0.02899,-0.05081,-0.01343,-0.00153,-0.01266,0.32242,0.00854,0.00031,-0.02747,-0.02014,0.0058,-0.04181
3.3225,0.05539,0.03494,-0.04517,0.09781,-0.02914,-0.04639,-0.01434,-0.00076,-0.0029,0.30258,0.02945,0.00015,-0.02747,-0.01907,0.00626,-0.04837
3.323,0.04471,0.03342,-0.03876,0.06485,-0.03021,-0.04272,-0.01511,0.0,0.01007,0.26703,0.0325,-0.00046,-0.02716,-0.0174,0.00717,-0.05493
3.3235,0.03128,0.03036,-0.0473,0.07233,-0.03235,-0.04105,-0.01617,0.0,0.0209,0.22446,0.01953,-0.00153,-0.0264,-0.0174,0.00717,-0.05844
3.324,0.01587,0.03082,-0.0705,0.06439,-0.03372,-0.04044,-0.01678,0.0,0.02563,0.17868,-0.00229,-0.00412,-0.02716,-0.01907,0.00626,-0.06027
3.3245,0.00046,0.03464,-0.10132,0.02258,-0.03479,-0.04074,-0.01587,-0.00122,0.02457,0.13199,-0.01907,-0.00687,-0.02991,-0.0206,0.00702,-0.06149
3.325,-0.01266,0.03906,-0.12421,-0.02396,-0.03601,-0.04227,-0.01556,-0.00275,0.0209,0.08423,-0.01495,-0.00748,-0.03098,-0.02243,0.00732,-0.06104
3.3255,-0.02533,0.04333,-0.12787,-0.04517,-0.03586,-0.0441,-0.01663,-0.00473,0.01724,0.0415,0.00916,-0.00778,-0.0296,-0.02289,0.00885,-0.05722
3.326,-0.03723,0.04791,-0.11322,-0.03723,-0.03311,-0.04578,-0.01938,-0.00687,0.01099,0.00656,0.04242,-0.00595,-0.0267,-0.02457,0.00885,-0.05173
3.3265,-0.04868,0.05066,-0.08667,-0.01434,-0.03021,-0.047,-0.01999,-0.00687,0.00168,-0.01709,0.0708,-0.00198,-0.02548,-0.0264,0.00916,-0.04868
3.327,-0.05829,0.0502,-0.05386,0.0032,-0.02899,-0.04715,-0.01801,-0.00595,-0.00443,-0.04166,0.0946,0.00198,-0.0264,-0.02731,0.00992,-0.04776
3.3275,-0.06363,0.04456,-0.02045,-0.00534,-0.02991,-0.04684,-0.01556,-0.00443,-0.00183,-0.08011,0.11658,0.00381,-0.02808,-0.02533,0.00961,-0.04639
3.328,-0.06165,0.02914,0.00641,-0.03891,-0.0322,-0.04791,-0.01511,-0.00244,0.0061,-0.12894,0.13489,0.00366,-0.02762,-0.02304,0.00839,-0.04456
3.3285,-0.05203,0.00595,0.02243,-0.06683,-0.03265,-0.0499,-0.01434,-0.00122,0.01297,-0.17242,0.14481,0.00305,-0.02731,-0.02167,0.0061,-0.04364
3.329,-0.03677,-0.01968,0.02579,-0.06516,-0.03159,-0.04868,-0.01404,0.00015,0.0119,-0.19196,0.14603,0.00229,-0.02808,-0.01999,0.00626,-0.04364
3.3295,-0.02182,-0.04395,0.01877,-0.04669,-0.02991,-0.04547,-0.0145,0.00046,0.00397,-0.18646,0.13916,0.00092,-0.02945,-0.0177,0.0087,-0.04211
3.33,-0.01221,-0.06348,0.00427,-0.04196,-0.02945,-0.04303,-0.01419,-0.00061,-0.00824,-0.16998,0.12711,-0.00031,-0.03021,-0.01709,0.01114,-0.04044
3.3305,-0.00961,-0.07538,-0.01007,-0.06042,-0.03113,-0.04211,-0.01312,-0.00214,-0.02289,-0.15121,0.11429,-0.00153,-0.03098,-0.01938,0.01099,-0.0386
3.331,-0.00839,-0.07324,-0.01938,-0.09079,-0.03159,-0.04242,-0.01312,-0.00214,-0.03693,-0.12878,0.11978,-0.00244,-0.03098,-0.02106,0.00931,-0.03723
3.3315,-0.00641,-0.05951,-0.02182,-0.12024,-0.03143,-0.0412,-0.01251,-0.00168,-0.04791,-0.09933,0.16312,-0.00244,-0.03281,-0.02029,0.00854,-0.03647
3.332,-0.00763,-0.04501,-0.01953,-0.13962,-0.03143,-0.04028,-0.0116,-0.00107,-0.05707,-0.06897,0.24704,-0.00259,-0.03555,-0.01938,0.0087,-0.03769
3.3325,-0.01328,-0.03387,-0.01801,-0.13702,-0.03189,-0.03876,-0.00992,-0.00046,-0.06989,-0.04715,0.34256,-0.00259,-0.0383,-0.02121,0.009,-0.03983
3.333,-0.01984,-0.02243,-0.01999,-0.10773,-0.03036,-0.03708,-0.00946,0.00153,-0.08789,-0.03906,0.3981,-0.00305,-0.03891,-0.02335,0.00977,-0.0412
3.3335,-0.02106,-0.01038,-0.02167,-0.0589,-0.02777,-0.03464,-0.00885,0.00427,-0.10788,-0.03967,0.37338,-0.00366,-0.03845,-0.02304,0.01007,-0.04135
3.334,-0.01633,0.00153,-0.02975,-0.00443,-0.02365,-0.03357,-0.00946,0.00549,-0.12131,-0.03525,0.27222,-0.00305,-0.0383,-0.02182,0.00946,-0.03998
3.3345,-0.00961,0.01007,-0.06317,0.05417,-0.02167,-0.03479,-0.01038,0.00519,-0.12253,-0.0177,0.13885,-0.00214,-0.03922,-0.02274,0.00916,-0.03799
3.335,-0.00351,0.02213,-0.12497,0.11337,-0.02426,-0.0386,-0.01175,0.00336,-0.11261,0.00107,0.01816,0.0,-0.03952,-0.02441,0.00992,-0.03662
3.3355,0.00198,0.0386,-0.18356,0.16266,-0.02747,-0.04211,-0.01373,0.00153,-0.10056,0.00549,-0.0737,0.00122,-0.03937,-0.02487,0.00809,-0.03845
3.336,0.00473,0.047,-0.21301,0.18829,-0.02945,-0.04471,-0.01511,-0.00092,-0.09323,-0.00214,-0.13168,0.00214,-0.03952,-0.02319,0.00641,-0.04196
3.3365,0.00198,0.03693,-0.2095,0.18723,-0.03082,-0.04623,-0.01633,-0.00443,-0.08316,-0.00198,-0.13947,0.00275,-0.03922,-0.0209,0.00641,-0.04257
3.337,-0.00443,0.01801,-0.17105,0.1683,-0.03128,-0.0473,-0.01801,-0.00763,-0.06287,0.01556,-0.09216,0.0032,-0.03891,-0.01724,0.00595,-0.04044
3.3375,-0.00748,0.00809,-0.08881,0.13885,-0.0322,-0.04929,-0.01877,-0.01007,-0.03738,0.03906,-0.03021,0.0032,-0.03677,-0.01526,0.00641,-0.03799
3.338,-0.00412,0.00366,0.02136,0.09964,-0.03128,-0.05081,-0.01816,-0.00885,-0.02426,0.05447,-0.01984,0.00305,-0.03403,-0.01556,0.00641,-0.03876
3.3385,-0.00107,-0.0148,0.12054,0.05432,-0.02975,-0.05173,-0.0148,-0.00641,-0.03036,0.05981,-0.08911,0.00366,-0.03174,-0.02029,0.00916,-0.04013
3.339,-0.00168,-0.0473,0.17288,0.00824,-0.02899,-0.0499,-0.01266,-0.00305,-0.04333,0.06058,-0.19714,0.00366,-0.03006,-0.02579,0.01251,-0.04059
3.3395,0.00061,-0.0618,0.15945,-0.03433,-0.02853,-0.04761,-0.01282,-0.00183,-0.04593,0.04944,-0.28427,0.00351,-0.02991,-0.02808,0.01373,-0.04044
3.34,0.00961,-0.03448,0.08545,-0.07141,-0.02731,-0.04501,-0.0148,-0.00336,-0.03799,0.01648,-0.31967,0.0058,-0.02991,-0.02747,0.01068,-0.03967
3.3405,0.01465,0.01648,-0.02075,-0.10132,-0.02777,-0.04349,-0.01633,-0.00671,-0.03555,-0.02991,-0.30533,0.00656,-0.02991,-0.02686,0.00717,-0.04044
3.341,0.0058,0.05203,-0.11169,-0.11993,-0.02884,-0.04333,-0.01663,-0.00885,-0.0473,-0.06439,-0.25406,0.0058,-0.02808,-0.02457,0.00717,-0.04044
3.3415,-0.01434,0.05676,-0.15564,-0.13199,-0.0293,-0.04395,-0.01572,-0.00916,-0.06699,-0.07477,-0.17624,0.00458,-0.02518,-0.0206,0.0087,-0.04074
3.342,-0.03601,0.03937,-0.1535,-0.1442,-0.02762,-0.04593,-0.01572,-0.009,-0.07919,-0.07141,-0.09506,0.00397,-0.02228,-0.01572,0.0087,-0.04074
3.3425,-0.05066,0.00732,-0.12314,-0.14679,-0.0267,-0.04807,-0.01617,-0.00946,-0.07706,-0.06378,-0.04547,0.00488,-0.02121,-0.01129,0.00671,-0.04105
3.343,-0.06042,-0.04028,-0.07675,-0.10925,-0.02594,-0.04929,-0.01526,-0.00809,-0.06485,-0.05219,-0.06104,0.00534,-0.02167,-0.01083,0.00504,-0.04074
3.3435,-0.06912,-0.09506,-0.02411,-0.02853,-0.0267,-0.04959,-0.01389,-0.00519,-0.04425,-0.03784,-0.13138,0.00534,-0.02426,-0.01297,0.0058,-0.03983
3.344,-0.07828,-0.12894,0.02441,0.04013,-0.02792,-0.04868,-0.01358,-0.00259,-0.01297,-0.02396,-0.21347,0.00473,-0.0267,-0.01663,0.00687,-0.04089
3.3445,-0.08591,-0.11948,0.05997,0.04501,-0.02823,-0.047,-0.0145,-0.0032,0.02594,-0.01587,-0.26321,0.00336,-0.02808,-0.01862,0.00824,-0.04257
3.345,-0.08881,-0.08041,0.08057,0.00504,-0.02838,-0.0441,-0.01572,-0.00595,0.06104,-0.0145,-0.26779,0.00305,-0.02792,-0.01617,0.00809,-0.04166
3.3455,-0.08224,-0.04517,0.08453,-0.02563,-0.02808,-0.0383,-0.01572,-0.00717,0.08148,-0.01862,-0.23819,0.00244,-0.02716,-0.01312,0.00687,-0.04013
3.346,-0.07141,-0.02869,0.07462,-0.02884,-0.02792,-0.03418,-0.01495,-0.00595,0.08896,-0.02609,-0.18875,0.00168,-0.0267,-0.01099,0.00565,-0.04044
3.3465,-0.06424,-0.01923,0.05585,-0.0209,-0.02777,-0.03342,-0.0145,-0.00336,0.09155,-0.03357,-0.13489,0.00153,-0.02838,-0.01114,0.00427,-0.04181
3.347,-0.06073,-0.00748,0.03265,-0.01373,-0.02945,-0.03922,-0.0145,-0.00244,0.09399,-0.03937,-0.10147,0.0032,-0.03052,-0.01114,0.00473,-0.04349
3.3475,-0.05219,-0.00275,0.00427,-0.0087,-0.03189,-0.04669,-0.01389,-0.00229,0.09491,-0.04593,-0.10132,0.00626,-0.03128,-0.01129,0.00565,-0.04379
3.348,-0.02991,-0.0148,-0.02808,-0.00229,-0.03311,-0.05188,-0.01312,-0.00198,0.0914,-0.05264,-0.12009,0.00824,-0.03021,-0.01221,0.0058,-0.04425
3.3485,0.0029,-0.03769,-0.05859,0.00473,-0.03174,-0.05325,-0.01251,-0.00092,0.08423,-0.05585,-0.13062,0.0087,-0.02838,-0.01465,0.00565,-0.04593
3.349,0.0354,-0.06027,-0.07935,0.00809,-0.03021,-0.05173,-0.01144,-0.00031,0.07431,-0.0528,-0.11795,0.00961,-0.02869,-0.01663,0.00565,-0.04562
3.3495,0.06165,-0.07874,-0.08911,0.00793,-0.02914,-0.04852,-0.01144,-0.00137,0.06241,-0.0444,-0.08347,0.01144,-0.03082,-0.01755,0.00824,-0.04257
3.35,0.08041,-0.09995,-0.08926,0.01541,-0.02747,-0.0441,-0.0116,-0.00275,0.04791,-0.03815,-0.03891,0.0119,-0.03082,-0.01663,0.00916,-0.03922
3.3505,0.08774,-0.1181,-0.08224,0.04196,-0.02548,-0.04211,-0.0119,-0.00473,0.03052,-0.03555,0.00046,0.01022,-0.02975,-0.01434,0.00916,-0.03708
3.351,0.08453,-0.121,-0.07233,0.07584,-0.02441,-0.04303,-0.01129,-0.00488,0.01358,-0.0354,0.0264,0.00824,-0.02991,-0.01038,0.00717,-0.0386
3.3515,0.07584,-0.10788,-0.06195,0.09827,-0.02594,-0.04578,-0.01114,-0.00244,0.00183,-0.03647,0.03662,0.00809,-0.03174,-0.00687,0.00702,-0.03998
3.352,0.06943,-0.09308,-0.05981,0.10315,-0.0264,-0.04639,-0.0119,0.00015,-0.00259,-0.0412,0.02838,0.00793,-0.03235,-0.00641,0.00778,-0.04028
3.3525,0.06851,-0.09186,-0.07355,0.08682,-0.02701,-0.04272,-0.01221,0.00107,-0.00381,-0.04852,0.00793,0.0061,-0.03281,-0.00931,0.00809,-0.03998
3.353,0.07019,-0.09979,-0.08743,0.02823,-0.02548,-0.0383,-0.01236,0.00015,-0.00351,-0.05661,-0.00931,0.0032,-0.03235,-0.01343,0.00824,-0.04013
3.3535,0.07065,-0.10178,-0.07248,-0.07874,-0.02457,-0.03662,-0.0116,-0.00183,-0.00122,-0.06516,-0.00824,0.00137,-0.03189,-0.01572,0.00809,-0.03937
3.354,0.06454,-0.08881,-0.01984,-0.1918,-0.02548,-0.03693,-0.01282,-0.00427,0.00885,-0.07675,0.02167,0.00046,-0.03204,-0.01587,0.00824,-0.03922
3.3545,0.05127,-0.06561,0.04501,-0.2597,-0.02701,-0.03647,-0.01389,-0.00549,0.02914,-0.09415,0.07217,0.00107,-0.03342,-0.01556,0.00778,-0.04013
3.355,0.03464,-0.04715,0.08759,-0.2742,-0.02899,-0.03555,-0.0148,-0.00412,0.05585,-0.11536,0.11765,0.00107,-0.0351,-0.01511,0.00824,-0.04089
3.3555,0.02121,-0.0383,0.10162,-0.25101,-0.03067,-0.0351,-0.01312,-0.00275,0.07843,-0.13168,0.13306,0.00122,-0.03616,-0.01465,0.009,-0.04196
3.356,0.01556,-0.02731,0.10941,-0.17838,-0.03143,-0.03708,-0.01129,-0.00214,0.08804,-0.13687,0.11719,0.00153,-0.03616,-0.01434,0.01129,-0.04196
3.3565,0.01678,-0.00763,0.13031,-0.04074,-0.0322,-0.0412,-0.01114,-0.00336,0.08148,-0.13229,0.08698,0.00092,-0.03586,-0.01526,0.01205,-0.0415
3.357,0.01938,0.00427,0.15091,0.11688,-0.03143,-0.04593,-0.01343,-0.00412,0.06729,-0.12787,0.05585,0.00015,-0.03494,-0.01831,0.0119,-0.0415
3.3575,0.01648,-0.00839,0.14862,0.20615,-0.03265,-0.04929,-0.01511,-0.00351,0.06027,-0.12833,0.02716,0.00107,-0.03464,-0.02075,0.00916,-0.04211
3.358,0.00626,-0.03647,0.11597,0.18692,-0.03403,-0.05035,-0.01526,-0.00198,0.05966,-0.12894,0.01038,0.00244,-0.03357,-0.02167,0.00824,-0.04272
3.3585,-0.00473,-0.06027,0.07141,0.11185,-0.03387,-0.05188,-0.01541,-0.00244,0.05371,-0.12756,0.01709,0.00366,-0.03159,-0.01953,0.00702,-0.04364
3.359,-0.01083,-0.07065,0.03067,0.06088,-0.03296,-0.05219,-0.01617,-0.00397,0.03143,-0.12177,0.03708,0.00305,-0.03021,-0.01801,0.0058,-0.04456
3.3595,-0.00977,-0.07278,-0.00031,0.05966,-0.03265,-0.05203,-0.01663,-0.00595,0.00153,-0.11505,0.04379,0.00107,-0.03052,-0.0177,0.00565,-0.0444
3.36,-0.00641,-0.07477,-0.03082,0.08362,-0.03464,-0.05096,-0.01511,-0.00717,-0.02167,-0.10956,0.02411,0.00122,-0.03128,-0.01831,0.00595,-0.04364
3.3605,-0.0029,-0.07767,-0.06729,0.10406,-0.03586,-0.0499,-0.01434,-0.00626,-0.03235,-0.10254,-0.00763,0.00168,-0.03357,-0.01923,0.00702,-0.04257
3.361,0.0,-0.08255,-0.1149,0.112,-0.03448,-0.047,-0.01556,-0.0032,-0.04196,-0.08881,-0.03006,0.00259,-0.03433,-0.01999,0.0087,-0.04135
3.3615,0.00275,-0.08728,-0.18539,0.11246,-0.03082,-0.04196,-0.01511,-0.00137,-0.05997,-0.07217,-0.03967,0.00305,-0.03418,-0.02014,0.01007,-0.03891
3.362,0.0061,-0.0885,-0.28091,0.10742,-0.03113,-0.03662,-0.01266,-0.00153,-0.07935,-0.06607,-0.04395,0.00198,-0.03372,-0.01907,0.00916,-0.03754
3.3625,0.00854,-0.0856,-0.36957,0.08591,-0.03189,-0.03525,-0.00992,-0.00168,-0.08774,-0.07477,-0.04532,0.00076,-0.03448,-0.01831,0.00824,-0.03708
3.363,0.00626,-0.08224,-0.42297,0.0412,-0.03189,-0.03677,-0.01083,-0.00198,-0.08087,-0.08743,-0.04257,-0.00031,-0.03464,-0.01831,0.00763,-0.03662
3.3635,-0.00305,-0.08362,-0.44403,-0.01205,-0.03143,-0.03815,-0.01358,-0.00366,-0.06409,-0.09247,-0.03036,-0.00107,-0.03326,-0.0174,0.00793,-0.03738
3.364,-0.01648,-0.08972,-0.42572,-0.047,-0.03174,-0.03891,-0.01526,-0.00534,-0.04654,-0.09094,-0.00595,-0.00198,-0.03174,-0.01633,0.00931,-0.03799
3.3645,-0.02609,-0.09613,-0.33539,-0.05753,-0.03189,-0.03922,-0.01419,-0.00595,-0.03952,-0.08804,0.03189,-0.00107,-0.03174,-0.01526,0.01022,-0.03784
3.365,-0.02838,-0.09857,-0.16754,-0.056,-0.03113,-0.04135,-0.01251,-0.00473,-0.05035,-0.08041,0.0798,-0.00046,-0.03326,-0.01602,0.00977,-0.03632
3.3655,-0.02365,-0.09796,0.01114,-0.04959,-0.03052,-0.04333,-0.0119,-0.00244,-0.07217,-0.06226,0.12527,0.00046,-0.03464,-0.01663,0.00977,-0.03555
3.366,-0.01434,-0.09735,0.13046,-0.03876,-0.03189,-0.04547,-0.01144,-0.00061,-0.08667,-0.03128,0.14481,-0.00153,-0.03403,-0.0177,0.00931,-0.03647
3.3665,-0.00351,-0.09628,0.17807,-0.0351,-0.03571,-0.04868,-0.0119,0.00015,-0.0882,0.00778,0.12695,-0.00412,-0.03311,-0.01678,0.00839,-0.03708
3.367,0.00778,-0.09094,0.1889,-0.05356,-0.03647,-0.05173,-0.01266,-0.00183,-0.08789,0.05142,0.08499,-0.00626,-0.03387,-0.01495,0.00763,-0.03769
3.3675,0.01862,-0.08163,0.18631,-0.0856,-0.03723,-0.05325,-0.01312,-0.00427,-0.09354,0.09415,0.04196,-0.0061,-0.0351,-0.01434,0.00687,-0.03876
3.368,0.02563,-0.07187,0.17441,-0.10452,-0.03723,-0.05524,-0.01373,-0.00519,-0.10193,0.1326,0.01083,-0.00687,-0.03632,-0.0148,0.00656,-0.04089
3.3685,0.0267,-0.0647,0.15442,-0.09491,-0.03906,-0.05798,-0.01343,-0.00595,-0.09933,0.16922,-0.00793,-0.00748,-0.03525,-0.01633,0.00717,-0.04181
3.369,0.02014,-0.06073,0.13138,-0.06958,-0.03983,-0.06042,-0.01419,-0.0061,-0.07599,0.20447,-0.01663,-0.00702,-0.0322,-0.01694,0.0087,-0.0412
3.3695,0.00916,-0.05646,0.11002,-0.05081,-0.04013,-0.05966,-0.01373,-0.00565,-0.03387,0.23773,-0.0206,-0.00443,-0.02869,-0.0148,0.00809,-0.03983
3.37,-0.00107,-0.05249,0.08759,-0.04959,-0.03998,-0.05692,-0.01266,-0.00504,0.01251,0.26596,-0.02777,-0.00031,-0.02533,-0.01312,0.00626,-0.03967
3.3705,-0.00687,-0.05341,0.0589,-0.05798,-0.03891,-0.05371,-0.01175,-0.00397,0.04791,0.28305,-0.04593,0.00183,-0.02548,-0.01175,0.00473,-0.04074
3.371,-0.01053,-0.06027,0.02274,-0.065,-0.03693,-0.04944,-0.01099,-0.00305,0.06805,0.28748,-0.07294,0.0032,-0.02747,-0.01236,0.00397,-0.04211
3.3715,-0.01312,-0.06882,-0.02792,-0.06165,-0.03662,-0.04578,-0.0119,-0.00351,0.07874,0.27481,-0.09399,0.00214,-0.02945,-0.01389,0.0029,-0.04272
3.372,-0.01511,-0.07339,-0.09735,-0.04837,-0.0351,-0.04349,-0.01389,-0.00351,0.0798,0.24658,-0.09445,0.00015,-0.02991,-0.01556,0.00336,-0.04349
3.3725,-0.01465,-0.06943,-0.16083,-0.03418,-0.03464,-0.0415,-0.01587,-0.00473,0.07141,0.20874,-0.06927,-0.00183,-0.03036,-0.01633,0.00458,-0.04532
3.373,-0.01175,-0.05875,-0.17456,-0.03143,-0.03433,-0.04196,-0.0145,-0.00534,0.05417,0.16556,-0.02228,-0.00229,-0.03067,-0.01755,0.00687,-0.04807
3.3735,-0.00839,-0.05188,-0.12939,-0.04333,-0.0354,-0.04333,-0.01266,-0.00641,0.03387,0.11551,0.03082,-0.00046,-0.03326,-0.01801,0.00992,-0.04822
3.374,-0.00809,-0.05371,-0.0676,-0.065,-0.0354,-0.04364,-0.01282,-0.00763,0.01648,0.05585,0.06729,0.00107,-0.03494,-0.0177,0.00946,-0.04608
3.3745,-0.00992,-0.05081,-0.05219,-0.08881,-0.03586,-0.04227,-0.01373,-0.00641,0.00519,-0.00763,0.07187,0.00061,-0.03616,-0.01648,0.00809,-0.04318
3.375,-0.01343,-0.02243,-0.10681,-0.10559,-0.0351,-0.03937,-0.01434,-0.00336,-0.0032,-0.06134,0.05157,-0.00061,-0.03479,-0.01617,0.00687,-0.04288
3.3755,-0.01709,0.03021,-0.17502,-0.1033,-0.0354,-0.03876,-0.01312,-0.00046,-0.00977,-0.09567,0.02502,-0.00153,-0.03372,-0.01556,0.00595,-0.04471
3.376,-0.02289,0.06882,-0.16556,-0.06607,-0.03525,-0.04074,-0.01068,0.00122,-0.00916,-0.11658,0.00565,-0.00061,-0.03296,-0.01541,0.00565,-0.04547
3.3765,-0.03143,0.056,-0.05463,0.01266,-0.03357,-0.04303,-0.01022,0.00061,0.00443,-0.13336,-0.00031,-0.00061,-0.03448,-0.01648,0.00549,-0.04532
3.377,-0.04013,-0.00092,0.08057,0.10513,-0.03143,-0.04379,-0.01099,0.00031,0.0264,-0.14526,-0.00122,-0.00183,-0.03799,-0.01923,0.00504,-0.0441
3.3775,-0.04547,-0.05753,0.14572,0.15076,-0.03113,-0.04425,-0.01404,0.00015,0.03799,-0.13794,-0.00519,-0.00259,-0.04013,-0.02243,0.00641,-0.04196
3.378,-0.04684,-0.09506,0.12329,0.1178,-0.03113,-0.04684,-0.01419,-0.00015,0.02609,-0.10712,-0.01038,-0.00275,-0.04074,-0.0238,0.00824,-0.03983
3.3785,-0.04807,-0.12665,0.07782,0.04532,-0.03174,-0.05035,-0.01328,-0.00046,0.00122,-0.07004,-0.0058,-0.00275,-0.03983,-0.02213,0.00946,-0.03815
3.379,-0.0502,-0.14694,0.06699,-0.0058,-0.03326,-0.05188,-0.01297,-0.00092,-0.01755,-0.04654,0.00793,-0.00229,-0.03952,-0.01907,0.01083,-0.03769
3.3795,-0.05112,-0.12711,0.08865,-0.01953,-0.03357,-0.05051,-0.0145,-0.00107,-0.02106,-0.04013,0.01923,-0.00046,-0.03952,-0.01801,0.01129,-0.03616
3.38,-0.04608,-0.06775,0.10178,-0.02121,-0.03372,-0.04852,-0.01541,-0.00092,-0.02014,-0.04364,0.01312,0.00092,-0.03845,-0.0177,0.01312,-0.0351
3.3805,-0.03754,-0.00565,0.08881,-0.02396,-0.03311,-0.04944,-0.01511,-0.00137,-0.02487,-0.04639,-0.00961,0.00092,-0.03693,-0.0174,0.0145,-0.03586
3.381,-0.02914,0.03418,0.06027,-0.0116,-0.03357,-0.05219,-0.01434,-0.00168,-0.03418,-0.04395,-0.04105,-0.00031,-0.0354,-0.01541,0.01495,-0.03799
3.3815,-0.02258,0.0592,0.02792,0.03006,-0.03555,-0.05493,-0.01343,-0.00305,-0.04059,-0.04028,-0.07187,-0.00229,-0.0351,-0.01526,0.01419,-0.04105
3.382,-0.01892,0.0882,-0.00961,0.09171,-0.03708,-0.05798,-0.01328,-0.0032,-0.04395,-0.03998,-0.09857,-0.00381,-0.03693,-0.01801,0.01175,-0.04257
3.3825,-0.01648,0.12421,-0.06546,0.1503,-0.03799,-0.06317,-0.01266,-0.00214,-0.0473,-0.04471,-0.11353,-0.00443,-0.03967,-0.02213,0.01205,-0.0441
3.383,-0.01755,0.1503,-0.1387,0.17883,-0.03754,-0.06714,-0.0116,-0.00061,-0.05249,-0.04959,-0.10605,-0.0032,-0.04211,-0.02472,0.01328,-0.04486
3.3835,-0.02457,0.14709,-0.20813,0.15808,-0.03601,-0.0679,-0.01099,0.0,-0.05585,-0.05173,-0.0766,-0.00183,-0.04059,-0.02457,0.01373,-0.04364
3.384,-0.03723,0.11368,-0.23849,0.09796,-0.03387,-0.065,-0.01282,-0.00122,-0.05295,-0.05463,-0.0354,-0.00076,-0.03738,-0.02396,0.01114,-0.04349
3.3845,-0.05112,0.0679,-0.22003,0.03311,-0.03128,-0.06165,-0.0148,-0.00168,-0.04395,-0.06119,0.00427,-0.00107,-0.03525,-0.02304,0.009,-0.04486
3.385,-0.05966,0.03082,-0.17319,-0.00977,-0.03098,-0.05753,-0.01587,-0.00137,-0.03311,-0.06332,0.03357,-0.00092,-0.03387,-0.02075,0.00854,-0.04547
3.3855,-0.0618,0.00748,-0.11749,-0.04288,-0.03281,-0.0528,-0.01526,-0.00198,-0.02289,-0.04761,0.05066,-0.00122,-0.03357,-0.01785,0.00946,-0.0444
3.386,-0.05844,-0.00595,-0.05585,-0.08789,-0.03357,-0.04776,-0.0145,-0.0029,-0.01373,-0.01709,0.05844,-0.00351,-0.0325,-0.01633,0.01007,-0.04318
3.3865,-0.04898,-0.01236,0.00519,-0.13245,-0.03235,-0.04639,-0.01495,-0.00397,-0.00992,0.01282,0.06088,-0.00702,-0.03174,-0.01663,0.01114,-0.04364
3.387,-0.03265,-0.01083,0.04288,-0.14313,-0.0296,-0.05127,-0.01602,-0.0029,-0.01343,0.02975,0.06378,-0.00885,-0.03098,-0.0177,0.01144,-0.04532
3.3875,-0.01129,-0.00305,0.03586,-0.11002,-0.02991,-0.05875,-0.01663,-0.00153,-0.0209,0.0354,0.05905,-0.00687,-0.02914,-0.01801,0.0119,-0.04562
3.388,0.009,0.00992,-0.00809,-0.05325,-0.0322,-0.06317,-0.01694,0.00107,-0.02625,0.03677,0.04028,-0.0032,-0.02655,-0.01755,0.01144,-0.04578
3.3885,0.02426,0.02167,-0.05692,0.00397,-0.03342,-0.06424,-0.01724,0.0029,-0.02701,0.03342,0.01297,-0.00137,-0.02502,-0.0177,0.01022,-0.04562
3.389,0.0322,0.02823,-0.08316,0.04562,-0.0322,-0.06149,-0.01862,0.00305,-0.02502,0.02304,-0.00961,-0.00061,-0.02533,-0.01862,0.00992,-0.04425
3.3895,0.03082,0.02884,-0.09048,0.05753,-0.03098,-0.05783,-0.01923,0.00275,-0.02258,0.00977,-0.01785,-0.00046,-0.02533,-0.01755,0.00839,-0.04333
3.39,0.02075,0.0267,-0.09247,0.03922,-0.03021,-0.05463,-0.01862,0.00198,-0.0235,-0.00275,-0.01389,-0.00015,-0.0238,-0.01556,0.00748,-0.04196
3.3905,0.00717,0.02228,-0.09125,0.01175,-0.03067,-0.05173,-0.01633,0.00015,-0.02594,-0.01434,-0.00702,-0.00183,-0.02258,-0.01358,0.00748,-0.04074
3.391,0.00153,0.01297,-0.08087,-0.00519,-0.03098,-0.04898,-0.01343,-0.00473,-0.02686,-0.02777,-0.00336,-0.00351,-0.02365,-0.01373,0.00763,-0.03769
3.3915,0.00549,-0.00259,-0.06958,-0.01602,-0.03036,-0.04639,-0.0116,-0.01068,-0.02701,-0.04272,-0.00107,-0.00412,-0.02747,-0.01465,0.00793,-0.0351
3.392,0.01373,-0.02502,-0.07065,-0.0296,-0.03036,-0.04456,-0.01175,-0.01419,-0.02869,-0.05798,0.00626,-0.00229,-0.03098,-0.0148,0.00732,-0.03448
3.3925,0.01755,-0.05356,-0.07813,-0.04639,-0.02914,-0.04074,-0.01221,-0.01297,-0.03494,-0.07233,0.02045,-0.00076,-0.03189,-0.01465,0.0061,-0.03525
3.393,0.01404,-0.08102,-0.07568,-0.05707,-0.02869,-0.03738,-0.01144,-0.00977,-0.04059,-0.08255,0.03937,0.0,-0.03235,-0.01495,0.00549,-0.03738
3.3935,0.00687,-0.10208,-0.06592,-0.056,-0.02823,-0.03632,-0.00824,-0.00717,-0.04044,-0.09155,0.05859,0.00015,-0.03235,-0.01541,0.00595,-0.04013
3.394,0.0,-0.11627,-0.07629,-0.04913,-0.02991,-0.03799,-0.00381,-0.00259,-0.03265,-0.1033,0.07401,-0.00153,-0.03311,-0.01587,0.00839,-0.04349
3.3945,-0.00519,-0.12283,-0.11963,-0.04257,-0.03235,-0.0412,-0.00153,0.00244,-0.0238,-0.11383,0.08011,-0.00412,-0.03448,-0.01602,0.00916,-0.04379
3.395,-0.00656,-0.12451,-0.16968,-0.03677,-0.03281,-0.04364,-0.00519,0.00687,-0.01953,-0.11505,0.07065,-0.00397,-0.03632,-0.01724,0.00565,-0.04257
3.3955,-0.00305,-0.12299,-0.19257,-0.03174,-0.03052,-0.04333,-0.01343,0.00931,-0.02045,-0.10162,0.05539,-0.00107,-0.03891,-0.01892,0.00458,-0.0412
3.396,0.00412,-0.11642,-0.18234,-0.02655,-0.02823,-0.04044,-0.02197,0.01129,-0.02213,-0.08301,0.056,0.0,-0.04044,-0.01968,0.00732,-0.04303
3.3965,0.01083,-0.10086,-0.15808,-0.02411,-0.02701,-0.04105,-0.02716,0.01068,-0.01968,-0.07126,0.08209,-0.00107,-0.03952,-0.01968,0.01083,-0.04578
3.397,0.01511,-0.0798,-0.13397,-0.0238,-0.02762,-0.04944,-0.02823,0.00626,-0.01419,-0.0676,0.11215,-0.00275,-0.03845,-0.02014,0.01129,-0.04623
3.3975,0.01724,-0.06622,-0.103,-0.0235,-0.03021,-0.0589,-0.02502,0.00092,-0.01221,-0.06241,0.11459,-0.00336,-0.03876,-0.0209,0.00961,-0.04349
3.398,0.01617,-0.07111,-0.05951,-0.02365,-0.03189,-0.06226,-0.01801,-0.00031,-0.01801,-0.05112,0.08438,-0.00244,-0.03967,-0.02167,0.00931,-0.04028
3.3985,0.01297,-0.09094,-0.01007,-0.02441,-0.03159,-0.05905,-0.01053,0.00229,-0.02747,-0.03937,0.03647,0.0,-0.04059,-0.02151,0.01083,-0.03952
3.399,0.01083,-0.11017,0.03464,-0.02365,-0.02975,-0.05569,-0.00305,0.00443,-0.03311,-0.03342,-0.01053,0.00168,-0.03922,-0.01984,0.01144,-0.04074
3.3995,0.01389,-0.11719,0.07004,-0.02106,-0.02777,-0.05569,0.00336,0.00107,-0.03326,-0.0264,-0.05432,0.0029,-0.03723,-0.01694,0.01099,-0.04272
3.4,0.02197,-0.10864,0.08591,-0.01953,-0.02655,-0.05341,0.00565,-0.0058,-0.03189,-0.01099,-0.09003,0.00168,-0.03525,-0.01358,0.00946,-0.0415
3.4005,0.0296,-0.08759,0.07889,-0.02045,-0.02716,-0.04929,-0.00534,-0.01343,-0.03143,0.00732,-0.1123,-0.00031,-0.03418,-0.01251,0.00839,-0.03922
3.401,0.03326,-0.0621,0.06592,-0.02289,-0.02792,-0.04593,-0.0267,-0.01984,-0.02884,0.01923,-0.11765,-0.00275,-0.03403,-0.01297,0.00793,-0.0386
3.4015,0.03281,-0.04196,0.06454,-0.02411,-0.02945,-0.04608,-0.04288,-0.02274,-0.02335,0.01785,-0.11505,-0.00534,-0.03387,-0.01282,0.00992,-0.03967
3.402,0.03174,-0.03204,0.07278,-0.02319,-0.03143,-0.047,-0.04364,-0.02258,-0.01831,0.00458,-0.1062,-0.00656,-0.0325,-0.01068,0.00885,-0.04013
3.4025,0.03189,-0.02991,0.07629,-0.02182,-0.03296,-0.04654,-0.03372,-0.02151,-0.01694,-0.01129,-0.0795,-0.00641,-0.03357,-0.00793,0.00854,-0.03998
3.403,0.0325,-0.0267,0.07629,-0.02213,-0.03342,-0.04456,-0.02441,-0.02411,-0.01526,-0.02151,-0.03235,-0.00412,-0.03387,-0.00626,0.00885,-0.03983
3.4035,0.0325,-0.02014,0.08514,-0.02151,-0.03342,-0.04272,-0.01938,-0.02853,-0.00397,-0.02243,0.00031,-0.00168,-0.03433,-0.00763,0.00977,-0.04166
3.404,0.02823,-0.01984,0.10193,-0.02045,-0.03143,-0.04288,-0.01617,-0.02899,0.01709,-0.01999,-0.01373,0.00031,-0.03433,-0.01053,0.0116,-0.04242
3.4045,0.0206,-0.03464,0.11215,-0.01785,-0.03006,-0.04364,-0.0145,-0.02228,0.03677,-0.01602,-0.06638,-0.00015,-0.03586,-0.01434,0.0119,-0.04196
3.405,0.01114,-0.05905,0.11124,-0.01541,-0.03098,-0.04379,-0.01495,-0.01282,0.03906,-0.01282,-0.11215,-0.00122,-0.03769,-0.01755,0.01144,-0.03998
3.4055,0.00351,-0.07309,0.10284,-0.0145,-0.03296,-0.04349,-0.0177,-0.00595,0.02365,-0.01114,-0.12085,-0.00259,-0.03754,-0.01907,0.01022,-0.04044
3.406,-0.00183,-0.06821,0.07309,-0.01282,-0.0351,-0.04181,-0.01831,-0.0029,0.00122,-0.00961,-0.09811,-0.00381,-0.03616,-0.01953,0.00854,-0.04242
3.4065,-0.00687,-0.05432,0.01053,-0.0119,-0.03479,-0.0412,-0.01556,-0.0029,-0.01602,-0.00656,-0.06073,-0.00366,-0.03555,-0.01923,0.00641,-0.04395
3.407,-0.01099,-0.04486,-0.0618,-0.01083,-0.03372,-0.04013,-0.01312,-0.0032,-0.02228,-0.00137,-0.02029,-0.00214,-0.0354,-0.01968,0.00443,-0.04395
3.4075,-0.01038,-0.04044,-0.10162,-0.01038,-0.03296,-0.03922,-0.01358,-0.00305,-0.02136,0.00397,0.00885,-0.00046,-0.03586,-0.02106,0.00351,-0.04211
3.408,-0.00885,-0.03937,-0.09628,-0.01114,-0.03204,-0.03677,-0.01495,-0.00214,-0.02411,0.00626,0.00732,0.00031,-0.03677,-0.0235,0.00412,-0.04196
3.4085,-0.01434,-0.04501,-0.07568,-0.01129,-0.03189,-0.0354,-0.01556,0.00015,-0.0386,0.00519,-0.02518,-0.00092,-0.03754,-0.0267,0.00458,-0.04242
3.409,-0.02731,-0.05966,-0.06104,-0.01114,-0.03174,-0.03677,-0.01282,0.00412,-0.05859,0.00626,-0.06027,-0.00168,-0.03799,-0.02686,0.00519,-0.04242
3.4095,-0.03662,-0.0856,-0.03891,-0.01068,-0.0325,-0.04028,-0.00992,0.00748,-0.06485,0.01175,-0.06775,-0.00214,-0.03784,-0.02487,0.00687,-0.0415
3.41,-0.03433,-0.12787,0.00381,-0.00992,-0.03281,-0.04318,-0.00824,0.009,-0.04639,0.02029,-0.04105,-0.00275,-0.03616,-0.02167,0.00839,-0.04028
3.4105,-0.02182,-0.18204,0.05707,-0.00824,-0.0322,-0.0412,-0.00946,0.00824,-0.01648,0.02548,0.01328,-0.0032,-0.03387,-0.01846,0.00809,-0.03952
3.411,-0.0087,-0.21713,0.09674,-0.00702,-0.03036,-0.03952,-0.01083,0.00565,0.00473,0.02548,0.07904,-0.00351,-0.03159,-0.01602,0.00595,-0.03922
3.4115,0.00046,-0.20844,0.11383,-0.0061,-0.02899,-0.0412,-0.01083,0.00366,0.01144,0.02472,0.12833,-0.00244,-0.03021,-0.01556,0.00473,-0.03876
3.412,0.00443,-0.16418,0.1149,-0.00717,-0.0293,-0.04547,-0.01022,0.00275,0.01068,0.01862,0.13535,-0.00061,-0.03082,-0.01526,0.00549,-0.03922
3.4125,0.0029,-0.11673,0.10559,-0.00992,-0.03098,-0.05051,-0.01038,0.00183,0.00534,0.00381,0.10086,0.00046,-0.03296,-0.01495,0.00702,-0.04089
3.413,-0.00427,-0.07523,0.08667,-0.01175,-0.03174,-0.05447,-0.01099,0.00153,-0.00259,-0.01724,0.04211,0.00092,-0.03479,-0.01617,0.00854,-0.0415
3.4135,-0.01373,-0.03357,0.06287,-0.01434,-0.0325,-0.05676,-0.01129,0.00168,-0.00961,-0.03174,-0.02472,0.00061,-0.03662,-0.01938,0.00824,-0.04181
3.414,-0.02029,0.01022,0.04013,-0.01617,-0.0325,-0.05966,-0.01129,0.00092,-0.00946,-0.03036,-0.09079,0.00122,-0.03647,-0.02258,0.00671,-0.04135
3.4145,-0.02319,0.04364,0.02106,-0.01892,-0.03311,-0.06073,-0.01099,-0.00046,-0.00412,-0.01785,-0.14511,0.00183,-0.0351,-0.02457,0.00504,-0.04028
3.415,-0.02716,0.05844,0.00259,-0.02151,-0.03128,-0.06042,-0.01038,-0.00137,-0.0029,-0.00427,-0.16937,0.00198,-0.0325,-0.02487,0.00366,-0.03922
3.4155,-0.03494,0.06088,-0.0145,-0.02182,-0.03021,-0.0592,-0.01038,0.00015,-0.01328,0.00595,-0.15915,0.00076,-0.02975,-0.02472,0.00351,-0.03876
3.416,-0.04379,0.06042,-0.02792,-0.01999,-0.03052,-0.0618,-0.01221,0.00122,-0.02762,0.01221,-0.1358,0.00061,-0.0293,-0.02579,0.00458,-0.03922
3.4165,-0.0502,0.0592,-0.04013,-0.01373,-0.03128,-0.06638,-0.01343,0.00122,-0.0264,0.01465,-0.11826,0.00198,-0.0296,-0.02518,0.00473,-0.04211
3.417,-0.05356,0.05005,-0.05127,-0.00122,-0.03082,-0.06912,-0.01511,0.00046,-0.00427,0.01343,-0.1004,0.00366,-0.03067,-0.02136,0.00504,-0.04471
3.4175,-0.05829,0.03204,-0.05859,0.01221,-0.02838,-0.06393,-0.01663,0.00076,0.01938,0.009,-0.06821,0.00427,-0.03021,-0.01633,0.00549,-0.04578
3.418,-0.06363,0.01343,-0.05493,0.01846,-0.02731,-0.05066,-0.01862,0.00168,0.02899,0.00122,-0.02472,0.00397,-0.02823,-0.0119,0.00534,-0.0444
3.4185,-0.06332,0.00259,-0.04318,0.01297,-0.02609,-0.0386,-0.02029,0.00137,0.02945,-0.009,0.0032,0.00397,-0.02579,-0.01175,0.00671,-0.04227
3.419,-0.0528,-0.00183,-0.03571,0.00122,-0.02625,-0.03098,-0.01968,-0.00107,0.03433,-0.02136,-0.009,0.00458,-0.02335,-0.0145,0.00824,-0.0415
3.4195,-0.03494,-0.00717,-0.04166,-0.00809,-0.02472,-0.0264,-0.01511,-0.00366,0.04105,-0.0351,-0.05951,0.0058,-0.02228,-0.01663,0.00992,-0.04028
3.42,-0.01678,-0.01556,-0.06012,-0.00961,-0.02228,-0.02274,-0.00763,-0.00412,0.0412,-0.05356,-0.12115,0.00687,-0.02121,-0.01602,0.01068,-0.03876
3.4205,-0.00259,-0.0235,-0.07965,-0.00778,-0.02106,-0.02426,-0.00015,-0.00381,0.03433,-0.07675,-0.16617,0.00702,-0.02182,-0.01602,0.00946,-0.0386
3.421,0.00854,-0.02914,-0.09537,-0.00626,-0.02167,-0.0293,0.00214,-0.00244,0.02853,-0.09857,-0.18188,0.00626,-0.02289,-0.01724,0.00839,-0.04044
3.4215,0.02304,-0.03464,-0.103,-0.00534,-0.02335,-0.04089,-0.00259,-0.0029,0.02808,-0.11063,-0.17456,0.00504,-0.02487,-0.01816,0.00824,-0.04425
3.422,0.04395,-0.04028,-0.10315,-0.00427,-0.02472,-0.05829,-0.0148,-0.00336,0.03082,-0.11444,-0.15442,0.00397,-0.02441,-0.01572,0.00793,-0.04532
3.4225,0.06531,-0.04303,-0.10208,-0.00443,-0.02686,-0.0769,-0.02792,-0.00305,0.03128,-0.11795,-0.13031,0.00458,-0.02274,-0.01144,0.00854,-0.04379
3.423,0.07828,-0.03891,-0.10162,-0.0058,-0.02762,-0.0882,-0.03113,-0.00168,0.02716,-0.12619,-0.10742,0.00626,-0.02182,-0.009,0.009,-0.04211
3.4235,0.07874,-0.03036,-0.10437,-0.00778,-0.0267,-0.08682,-0.02319,-0.00046,0.02319,-0.13596,-0.08606,0.00763,-0.02319,-0.01083,0.01007,-0.04166
3.424,0.07065,-0.02228,-0.11383,-0.00885,-0.02396,-0.07584,-0.01144,-0.00061,0.02548,-0.13901,-0.06302,0.00809,-0.02716,-0.01404,0.01038,-0.04364
3.4245,0.06042,-0.01526,-0.12878,-0.00839,-0.02335,-0.06317,-0.00336,-0.00122,0.03052,-0.13107,-0.03952,0.00717,-0.02975,-0.01572,0.01022,-0.04318
3.425,0.05173,-0.009,-0.13901,-0.00702,-0.02396,-0.05554,-0.00107,0.00031,0.02975,-0.11932,-0.01892,0.00595,-0.03098,-0.01526,0.00992,-0.04196
3.4255,0.04578,-0.00656,-0.13809,-0.00885,-0.02457,-0.05096,-0.00275,0.00336,0.0206,-0.11017,-0.00107,0.00458,-0.03052,-0.0148,0.0087,-0.04166
3.426,0.04211,-0.01068,-0.13962,-0.01099,-0.02472,-0.0473,-0.00656,0.00351,0.00946,-0.10376,0.02792,0.00397,-0.02899,-0.0145,0.00595,-0.04196
3.4265,0.04242,-0.01877,-0.15305,-0.01099,-0.02563,-0.04456,-0.00931,0.00061,0.00229,-0.1004,0.07767,0.00397,-0.02609,-0.01419,0.00397,-0.04288
3.427,0.04578,-0.02548,-0.16113,-0.00916,-0.02716,-0.04318,-0.01236,-0.00305,-0.0029,-0.09781,0.13718,0.00412,-0.02457,-0.01404,0.00366,-0.04089
3.4275,0.04974,-0.02655,-0.14084,-0.0087,-0.02792,-0.0415,-0.01801,-0.00443,-0.01068,-0.09583,0.16739,0.00458,-0.02533,-0.01572,0.00443,-0.03784
3.428,0.05035,-0.02518,-0.09064,-0.009,-0.02823,-0.03922,-0.02411,-0.0029,-0.02213,-0.0943,0.1442,0.00519,-0.02808,-0.01862,0.0061,-0.03586
3.4285,0.04913,-0.02518,-0.03342,-0.00931,-0.02777,-0.03754,-0.02716,-0.00076,-0.03326,-0.08713,0.08331,0.00565,-0.03036,-0.0209,0.00763,-0.0354
3.429,0.047,-0.02777,0.0116,-0.01053,-0.02914,-0.03769,-0.02365,-0.00015,-0.03952,-0.06805,0.02762,0.00671,-0.03052,-0.02304,0.00763,-0.03616
3.4295,0.0441,-0.0293,0.0412,-0.01129,-0.03082,-0.03738,-0.01572,0.00076,-0.04074,-0.03632,0.01404,0.0061,-0.0296,-0.02411,0.00656,-0.03662
3.43,0.03769,-0.0267,0.05936,-0.01053,-0.03448,-0.0383,-0.00946,0.00168,-0.03799,0.00153,0.05341,0.00443,-0.02899,-0.02411,0.00519,-0.03662
3.4305,0.02426,-0.02151,0.06256,-0.0087,-0.03616,-0.03998,-0.00824,0.00107,-0.02991,0.03738,0.12756,0.00061,-0.03067,-0.02457,0.00259,-0.03708
3.431,0.00702,-0.01801,0.04044,-0.00778,-0.03616,-0.04333,-0.01083,-0.00015,-0.01694,0.07095,0.1857,-0.00198,-0.03281,-0.02609,0.00061,-0.03967
3.4315,-0.00671,-0.0206,-0.03265,-0.00778,-0.03494,-0.04608,-0.0119,-0.00168,-0.00473,0.10162,0.17822,-0.00214,-0.03387,-0.02777,0.0,-0.04318
3.432,-0.01816,-0.02899,-0.16418,-0.00931,-0.03464,-0.04547,-0.01114,-0.00336,-0.00046,0.12527,0.09872,-0.00061,-0.03525,-0.02914,-0.00031,-0.04684
3.4325,-0.03098,-0.03738,-0.30731,-0.00992,-0.0351,-0.04379,-0.00992,-0.00427,-0.00397,0.13031,-0.00977,-0.00031,-0.03723,-0.03067,-0.00153,-0.0499
3.433,-0.04959,-0.03998,-0.3688,-0.00977,-0.03586,-0.04211,-0.00854,-0.00198,-0.01068,0.10956,-0.09964,-0.00031,-0.03876,-0.03082,-0.0029,-0.05142
3.4335,-0.07462,-0.04196,-0.30502,-0.00824,-0.03815,-0.04272,-0.00839,0.00107,-0.01846,0.0679,-0.15106,0.00046,-0.03906,-0.03036,-0.0032,-0.05051
3.434,-0.09811,-0.05066,-0.16495,-0.00763,-0.03876,-0.04654,-0.009,0.00381,-0.02747,0.02808,-0.15991,0.00153,-0.03754,-0.0296,-0.00015,-0.04868
3.4345,-0.11337,-0.06714,-0.0325,-0.00824,-0.03952,-0.04913,-0.00885,0.00305,-0.03906,0.00748,-0.12115,0.00244,-0.03662,-0.02869,0.00275,-0.04654
3.435,-0.11917,-0.08499,0.04623,-0.00839,-0.04089,-0.04776,-0.01022,-0.00076,-0.05035,0.009,-0.03235,0.00198,-0.03662,-0.02808,0.00549,-0.04639
3.4355,-0.11871,-0.09583,0.06485,-0.0087,-0.04105,-0.04303,-0.01511,-0.0032,-0.05814,0.02365,0.07416,0.00031,-0.03586,-0.02701,0.00748,-0.04639
3.436,-0.11292,-0.09827,0.03281,-0.01068,-0.04181,-0.04028,-0.02304,-0.00336,-0.06409,0.04364,0.13824,-0.00153,-0.03387,-0.02731,0.00946,-0.047
3.4365,-0.10071,-0.09796,-0.0145,-0.01434,-0.0412,-0.04074,-0.02869,-0.00366,-0.06729,0.0621,0.1178,-0.00153,-0.03128,-0.02838,0.01007,-0.04791
3.437,-0.08392,-0.10208,-0.0264,-0.01755,-0.04181,-0.04303,-0.02945,-0.00366,-0.06668,0.07324,0.02274,-0.00046,-0.03021,-0.02731,0.00992,-0.04868
3.4375,-0.0708,-0.11353,0.01785,-0.01633,-0.04166,-0.04395,-0.0264,-0.00275,-0.06516,0.07126,-0.08469,-0.00046,-0.03006,-0.02472,0.00824,-0.04944
3.438,-0.06607,-0.12207,0.08133,-0.01221,-0.0412,-0.04196,-0.02319,-0.00153,-0.06714,0.05692,-0.13763,-0.00031,-0.03159,-0.02151,0.00748,-0.04974
3.4385,-0.06668,-0.11932,0.11368,-0.00793,-0.03952,-0.04074,-0.02045,-0.00183,-0.06836,0.03586,-0.11841,-0.00015,-0.03281,-0.01831,0.00885,-0.04852
3.439,-0.06775,-0.10391,0.10025,-0.0032,-0.03662,-0.03967,-0.01801,-0.00214,-0.05951,0.01556,-0.05981,0.00168,-0.03174,-0.01465,0.01114,-0.04486
3.4395,-0.06866,-0.08636,0.07355,0.00351,-0.03479,-0.04211,-0.01617,-0.00275,-0.04059,-0.00031,-0.00778,0.00244,-0.02808,-0.01297,0.01251,-0.03967
3.44,-0.06927,-0.07156,0.06577,0.00977,-0.03494,-0.04547,-0.0145,-0.00168,-0.02304,-0.01328,0.01801,0.00229,-0.02686,-0.01373,0.01129,-0.03708
3.4405,-0.06699,-0.05646,0.08087,0.01068,-0.03708,-0.04807,-0.01343,-0.00198,-0.01541,-0.03159,0.02151,0.00153,-0.02899,-0.01572,0.01053,-0.03891
3.441,-0.0589,-0.03983,0.103,0.00778,-0.03677,-0.04745,-0.01328,-0.00351,-0.01556,-0.06241,0.0116,0.00076,-0.02945,-0.01785,0.0116,-0.04196
3.4415,-0.04944,-0.02518,0.12665,0.00458,-0.0354,-0.04669,-0.01343,-0.00488,-0.02289,-0.10193,-0.00961,-0.00031,-0.02747,-0.02014,0.01205,-0.04486
3.442,-0.04547,-0.01495,0.15121,0.0,-0.03571,-0.04608,-0.0148,-0.00473,-0.03738,-0.14053,-0.03983,0.00092,-0.02563,-0.02213,0.00977,-0.04654
3.4425,-0.04257,-0.01221,0.16724,-0.01297,-0.03525,-0.04593,-0.01617,-0.00534,-0.05585,-0.16953,-0.06927,0.00305,-0.02579,-0.02243,0.00671,-0.04776
3.443,-0.03281,-0.01526,0.15594,-0.03815,-0.03586,-0.04486,-0.01602,-0.0058,-0.06912,-0.18768,-0.08987,0.00565,-0.02762,-0.02243,0.0058,-0.04745
3.4435,-0.01572,-0.01801,0.11963,-0.06592,-0.03525,-0.0444,-0.01511,-0.00565,-0.07141,-0.19562,-0.09933,0.00717,-0.02945,-0.02304,0.00702,-0.04684
3.444,-0.00214,-0.01694,0.07675,-0.07965,-0.03342,-0.04608,-0.01495,-0.00504,-0.06317,-0.18585,-0.09933,0.00687,-0.03006,-0.02411,0.01007,-0.04364
3.4445,-0.00015,-0.01022,0.04288,-0.07553,-0.03113,-0.04639,-0.01465,-0.00443,-0.0502,-0.14954,-0.08926,0.00534,-0.03021,-0.02472,0.01221,-0.04013
3.445,-0.01022,-0.00214,0.01068,-0.07278,-0.02975,-0.04486,-0.01556,-0.00534,-0.03693,-0.08575,-0.06973,0.00336,-0.03067,-0.02472,0.01221,-0.0383
3.4455,-0.02365,0.00717,-0.03906,-0.08987,-0.02823,-0.04272,-0.01587,-0.00671,-0.02823,-0.01389,-0.04211,0.00061,-0.03082,-0.0238,0.0119,-0.03983
3.446,-0.03281,0.01785,-0.11658,-0.11536,-0.02869,-0.03937,-0.01541,-0.00778,-0.02563,0.04089,-0.01144,-0.00092,-0.02975,-0.02335,0.0116,-0.04303
3.4465,-0.03372,0.02686,-0.20416,-0.12482,-0.02762,-0.03586,-0.01373,-0.0061,-0.02655,0.07126,0.01724,0.00031,-0.0293,-0.02182,0.0116,-0.04532
3.447,-0.02716,0.03189,-0.25772,-0.11398,-0.02533,-0.03418,-0.01129,-0.00381,-0.02457,0.08438,0.03845,0.0029,-0.02991,-0.01984,0.01129,-0.04486
3.4475,-0.01953,0.03036,-0.25665,-0.10117,-0.02502,-0.03708,-0.009,-0.0029,-0.01831,0.08575,0.05035,0.00458,-0.03113,-0.01984,0.01282,-0.04318
3.448,-0.0148,0.01694,-0.22202,-0.09232,-0.0267,-0.0412,-0.00885,-0.00381,-0.01678,0.08331,0.0499,0.00412,-0.03067,-0.0209,0.01434,-0.04196
3.4485,-0.01373,-0.01038,-0.17838,-0.06363,-0.02884,-0.04349,-0.00977,-0.00397,-0.02579,0.08469,0.04272,0.00259,-0.02991,-0.02274,0.01526,-0.04074
3.449,-0.01358,-0.04715,-0.12177,0.00626,-0.02975,-0.0441,-0.00977,-0.00458,-0.03937,0.1033,0.04486,0.0029,-0.02991,-0.02441,0.01511,-0.04059
3.4495,-0.00809,-0.08514,-0.0441,0.09918,-0.03052,-0.04288,-0.00931,-0.00488,-0.04852,0.14282,0.06668,0.00366,-0.03067,-0.02518,0.01389,-0.04013
3.45,0.00458,-0.11459,0.03387,0.15991,-0.03036,-0.04074,-0.00824,-0.00473,-0.04623,0.19302,0.09476,0.00443,-0.03021,-0.02487,0.01297,-0.03845
3.4505,0.02197,-0.13046,0.0827,0.16006,-0.02991,-0.03876,-0.00839,-0.00412,-0.03525,0.23743,0.10147,0.00534,-0.02975,-0.02182,0.01282,-0.03418
3.451,0.03845,-0.13,0.09384,0.12924,-0.02808,-0.03784,-0.009,-0.00214,-0.02228,0.26306,0.07416,0.00549,-0.02899,-0.01663,0.01205,-0.03052
3.4515,0.05127,-0.11612,0.0824,0.10376,-0.0267,-0.03815,-0.01083,-0.00092,-0.01617,0.27008,0.02792,0.00458,-0.02884,-0.01404,0.01114,-0.03006
3.452,0.0592,-0.09842,0.06149,0.08865,-0.0264,-0.03906,-0.01129,-0.00046,-0.01907,0.25055,-0.0116,0.00351,-0.02853,-0.01556,0.01114,-0.03479
3.4525,0.06088,-0.08347,0.03677,0.07278,-0.02548,-0.04044,-0.01205,-0.00076,-0.02472,0.20279,-0.03036,0.00305,-0.02792,-0.01755,0.0116,-0.03906
3.453,0.05692,-0.07233,0.01038,0.05844,-0.02365,-0.0415,-0.01114,-0.00153,-0.02457,0.13519,-0.02579,0.00351,-0.02716,-0.01953,0.0119,-0.04089
3.4535,0.05066,-0.06378,-0.01144,0.04761,-0.02228,-0.04166,-0.00977,-0.00259,-0.01663,0.06866,-0.00626,0.00351,-0.02777,-0.02075,0.01205,-0.04257
3.454,0.04517,-0.06165,-0.03265,0.03784,-0.02182,-0.0412,-0.009,-0.00488,-0.00427,0.01999,0.01999,0.0032,-0.02991,-0.02319,0.01144,-0.04318
3.4545,0.04166,-0.06195,-0.05417,0.02823,-0.02243,-0.04166,-0.01038,-0.00748,0.00473,-0.01144,0.04532,0.00076,-0.03159,-0.02411,0.01129,-0.04288
3.455,0.03998,-0.06195,-0.06836,0.01953,-0.02274,-0.04074,-0.01129,-0.00946,0.00534,-0.03937,0.05981,-0.00168,-0.0325,-0.02258,0.01053,-0.04166
3.4555,0.04211,-0.0589,-0.0708,0.01251,-0.02243,-0.0383,-0.01129,-0.00961,-0.00244,-0.07141,0.056,-0.00214,-0.03265,-0.02014,0.01053,-0.04089
3.456,0.04547,-0.056,-0.07248,0.00305,-0.02151,-0.03479,-0.0116,-0.00854,-0.0119,-0.1004,0.03677,-0.00198,-0.03296,-0.01801,0.00992,-0.04257
3.4565,0.0473,-0.05478,-0.08789,-0.00732,-0.02228,-0.03235,-0.01434,-0.00671,-0.0174,-0.11734,0.01129,-0.00198,-0.03311,-0.01755,0.00885,-0.04517
3.457,0.04715,-0.05096,-0.11597,-0.01266,-0.02289,-0.03296,-0.01709,-0.0061,-0.02243,-0.12299,-0.01312,-0.00229,-0.03281,-0.01801,0.00778,-0.04852
3.4575,0.04654,-0.04135,-0.14282,-0.01236,-0.02396,-0.03571,-0.0174,-0.00549,-0.0322,-0.12894,-0.03281,-0.00183,-0.03235,-0.01801,0.00626,-0.04883
3.458,0.0473,-0.03265,-0.1593,-0.01297,-0.02609,-0.04074,-0.01541,-0.00366,-0.04471,-0.13718,-0.04486,-0.00168,-0.0325,-0.01755,0.00504,-0.04669
3.4585,0.04898,-0.03326,-0.16327,-0.01709,-0.02701,-0.04547,-0.01358,0.00046,-0.047,-0.14313,-0.04913,-0.00198,-0.03311,-0.01907,0.00366,-0.04395
3.459,0.05157,-0.03983,-0.15793,-0.01831,-0.02853,-0.04776,-0.01266,0.00626,-0.03494,-0.13992,-0.05081,-0.00336,-0.03265,-0.01999,0.00412,-0.04257
3.4595,0.05508,-0.04196,-0.14603,-0.01129,-0.02991,-0.0473,-0.0116,0.00916,-0.0174,-0.12619,-0.05295,-0.00351,-0.03113,-0.0206,0.00534,-0.0412
3.46,0.05768,-0.03494,-0.13245,-0.00244,-0.03021,-0.04532,-0.0116,0.00839,-0.00748,-0.10727,-0.04868,-0.00244,-0.02899,-0.02121,0.00854,-0.0383
3.4605,0.05798,-0.02197,-0.12009,-0.00443,-0.03006,-0.04456,-0.01373,0.00702,-0.0058,-0.09094,-0.03571,-0.00183,-0.02792,-0.02197,0.01205,-0.03525
3.461,0.05676,-0.00275,-0.10437,-0.01617,-0.02853,-0.04395,-0.01572,0.0058,-0.00351,-0.07797,-0.01724,-0.00153,-0.02853,-0.01999,0.01251,-0.03372
3.4615,0.05386,0.0209,-0.08453,-0.02457,-0.02945,-0.0441,-0.01617,0.00259,0.00595,-0.06897,-0.00244,-0.00305,-0.02853,-0.01587,0.01007,-0.03296
3.462,0.04929,0.03769,-0.06729,-0.02884,-0.03342,-0.04456,-0.01633,-0.00305,0.01785,-0.06226,0.00473,-0.00458,-0.02777,-0.01251,0.00534,-0.03159
3.4625,0.04303,0.03647,-0.07019,-0.04181,-0.03723,-0.04608,-0.01846,-0.00854,0.02533,-0.05783,0.00549,-0.00473,-0.02731,-0.01129,0.00381,-0.03006
3.463,0.03448,0.02136,-0.12314,-0.06378,-0.04028,-0.04654,-0.02136,-0.00931,0.02594,-0.05508,0.00626,-0.00259,-0.02762,-0.0116,0.00641,-0.02792
3.4635,0.02304,0.00671,-0.22858,-0.06546,-0.03983,-0.04807,-0.02213,-0.00671,0.02228,-0.05264,0.01724,-0.00092,-0.02899,-0.01434,0.00916,-0.02823
3.464,0.01068,-0.00229,-0.32043,-0.01755,-0.03708,-0.05127,-0.01999,-0.00366,0.01999,-0.04471,0.04715,-0.00076,-0.03067,-0.01709,0.01022,-0.03204
3.4645,-0.00015,-0.01144,-0.30884,0.06195,-0.03372,-0.0563,-0.01572,-0.00198,0.02136,-0.03189,0.07675,-0.00229,-0.03235,-0.0209,0.00854,-0.03723
3.465,-0.00534,-0.03464,-0.18341,0.11353,-0.03296,-0.0621,-0.01236,-0.00092,0.02716,-0.0148,0.07401,-0.0029,-0.0322,-0.02258,0.00732,-0.0415
3.4655,-0.00381,-0.07645,-0.02304,0.09567,-0.03494,-0.06821,-0.01083,-0.00107,0.03357,0.00122,0.02701,-0.0029,-0.03113,-0.02289,0.00702,-0.04456
3.466,0.00381,-0.1181,0.0975,0.03311,-0.03693,-0.07339,-0.01175,-0.00122,0.03525,0.0119,-0.03845,-0.00229,-0.03174,-0.02228,0.00641,-0.04807
3.4665,0.01343,-0.12924,0.16281,-0.02716,-0.03601,-0.07339,-0.01328,-0.00366,0.02686,0.01404,-0.09674,-0.00198,-0.03342,-0.02106,0.0061,-0.05035
3.467,0.02243,-0.10071,0.17914,-0.07767,-0.03387,-0.07034,-0.01526,-0.00824,0.00977,0.0116,-0.13641,-0.00092,-0.03525,-0.01999,0.00595,-0.05142
3.4675,0.02563,-0.05539,0.1442,-0.12848,-0.03281,-0.06699,-0.01678,-0.01099,-0.00565,0.00824,-0.14984,-0.00107,-0.03448,-0.02045,0.00565,-0.05081
3.468,0.02106,-0.01816,0.07248,-0.1619,-0.03387,-0.06607,-0.01694,-0.0119,-0.01541,0.00443,-0.13382,-0.00061,-0.03281,-0.02075,0.00366,-0.04761
3.4685,0.01312,0.00565,0.00595,-0.1506,-0.03311,-0.06561,-0.01694,-0.01099,-0.02029,-0.00168,-0.09735,-0.00092,-0.03235,-0.02197,0.0032,-0.04562
3.469,0.00687,0.02151,-0.02792,-0.10254,-0.03189,-0.06226,-0.01694,-0.01007,-0.02426,-0.01266,-0.06699,-0.00061,-0.03311,-0.02213,0.00443,-0.0444
3.4695,0.00458,0.03326,-0.0296,-0.04913,-0.03082,-0.05447,-0.0177,-0.00885,-0.03052,-0.0264,-0.05875,-0.00046,-0.03311,-0.02319,0.00824,-0.04456
3.47,0.00046,0.04044,-0.01282,-0.01526,-0.03036,-0.0473,-0.01801,-0.00793,-0.03616,-0.04227,-0.07584,-0.00031,-0.03311,-0.02396,0.01129,-0.04532
3.4705,-0.00748,0.04166,0.01678,-0.0029,-0.03143,-0.04196,-0.01663,-0.00702,-0.03784,-0.05768,-0.10208,0.00031,-0.03296,-0.02441,0.01068,-0.04623
3.471,-0.01755,0.0325,0.05432,-0.00397,-0.03143,-0.03952,-0.01617,-0.00671,-0.03387,-0.0705,-0.11749,0.00137,-0.03342,-0.0235,0.00916,-0.04684
3.4715,-0.02457,0.0087,0.08652,-0.01053,-0.03067,-0.03937,-0.01587,-0.00656,-0.03052,-0.07736,-0.1091,0.00259,-0.03281,-0.02106,0.00824,-0.047
3.472,-0.02899,-0.02197,0.10345,-0.02182,-0.02991,-0.04105,-0.01953,-0.00458,-0.03235,-0.07828,-0.07889,0.00259,-0.03265,-0.01968,0.00824,-0.04578
3.4725,-0.03433,-0.04639,0.10437,-0.03571,-0.03006,-0.04303,-0.02594,-0.00336,-0.03555,-0.07736,-0.03998,0.00214,-0.03311,-0.0206,0.00763,-0.0444
3.473,-0.04028,-0.05615,0.09293,-0.04532,-0.03235,-0.0441,-0.03174,-0.00275,-0.03448,-0.07736,-0.00504,0.00214,-0.03433,-0.02228,0.0061,-0.04318
3.4735,-0.04318,-0.05524,0.06897,-0.04013,-0.03403,-0.04227,-0.03326,-0.00397,-0.03052,-0.07706,0.02258,0.00168,-0.03586,-0.02213,0.00565,-0.04257
3.474,-0.0415,-0.0528,0.03754,-0.02609,-0.0351,-0.03952,-0.03159,-0.0032,-0.02701,-0.07538,0.04807,0.00015,-0.03708,-0.02151,0.00641,-0.04196
3.4745,-0.0354,-0.05112,0.00504,-0.01526,-0.03586,-0.03738,-0.02686,-0.00183,-0.02609,-0.07278,0.0737,0.00031,-0.03784,-0.02182,0.00809,-0.04242
3.475,-0.03113,-0.0473,-0.02396,-0.01343,-0.03616,-0.03723,-0.02121,-0.00122,-0.02792,-0.0708,0.10437,0.00107,-0.04013,-0.02151,0.00931,-0.04318
3.4755,-0.03387,-0.04318,-0.0499,-0.01572,-0.03601,-0.04181,-0.01022,-0.00214,-0.03098,-0.07126,0.14664,0.00092,-0.04303,-0.02151,0.00992,-0.04318
3.476,-0.04135,-0.04257,-0.07217,-0.01678,-0.03387,-0.04639,0.00641,-0.00244,-0.03098,-0.06912,0.19516,0.0,-0.04501,-0.02243,0.01114,-0.04227
3.4765,-0.04669,-0.04807,-0.09033,-0.01694,-0.03265,-0.05066,0.02167,-0.00214,-0.03006,-0.06561,0.21622,-0.00153,-0.04456,-0.0235,0.0119,-0.0415
3.477,-0.04715,-0.05524,-0.10391,-0.01663,-0.03418,-0.05157,0.02243,-0.00244,-0.03082,-0.06317,0.18707,-0.00076,-0.04379,-0.02457,0.01205,-0.0412
3.4775,-0.04532,-0.05966,-0.11337,-0.01617,-0.03738,-0.05554,0.00687,-0.00412,-0.03357,-0.06561,0.12527,-0.00061,-0.04242,-0.02487,0.01083,-0.04196
3.478,-0.0415,-0.06119,-0.11658,-0.01556,-0.03891,-0.06241,-0.01282,-0.00595,-0.03571,-0.07294,0.06561,-0.00092,-0.04166,-0.02426,0.00916,-0.04227
3.4785,-0.03677,-0.06332,-0.11276,-0.01434,-0.03967,-0.06882,-0.02136,-0.00717,-0.03433,-0.0853,0.02029,-0.00153,-0.04028,-0.02289,0.00839,-0.04135
3.479,-0.02945,-0.065,-0.10574,-0.00992,-0.03632,-0.07217,-0.01831,-0.0058,-0.03281,-0.09781,-0.01465,-0.00122,-0.03677,-0.02014,0.009,-0.04135
3.4795,-0.02151,-0.06317,-0.09766,-0.00397,-0.03326,-0.07065,-0.01282,-0.00443,-0.03555,-0.10056,-0.04425,0.00046,-0.03326,-0.01617,0.01068,-0.0412
3.48,-0.0119,-0.05768,-0.09125,-0.00397,-0.03113,-0.06729,-0.00961,-0.0032,-0.04181,-0.08942,-0.06561,0.00198,-0.03113,-0.01419,0.01175,-0.04044
3.4805,-0.00153,-0.05081,-0.08698,-0.01389,-0.03098,-0.0647,-0.00885,-0.00336,-0.04868,-0.0708,-0.07736,0.00214,-0.03098,-0.01511,0.01099,-0.0383
3.481,0.00519,-0.0473,-0.08118,-0.03143,-0.03189,-0.06165,-0.00763,-0.00412,-0.05432,-0.05386,-0.0853,0.00183,-0.03159,-0.01923,0.01099,-0.03708
3.4815,0.00687,-0.04562,-0.07385,-0.04639,-0.03204,-0.05783,-0.00702,-0.00397,-0.05859,-0.04105,-0.09674,0.00122,-0.03174,-0.02228,0.01083,-0.03677
3.482,0.00473,-0.0412,-0.06454,-0.04959,-0.0325,-0.05463,-0.00778,-0.00259,-0.06256,-0.03296,-0.11612,0.00122,-0.03281,-0.02396,0.01144,-0.03723
3.4825,0.00076,-0.0293,-0.05112,-0.0351,-0.03159,-0.0531,-0.009,-0.00183,-0.06592,-0.02991,-0.14069,0.00183,-0.03326,-0.0235,0.01038,-0.03922
3.483,-0.0029,-0.01175,-0.03708,-0.00397,-0.02869,-0.05386,-0.00977,-0.00107,-0.0676,-0.03143,-0.16037,0.00122,-0.03418,-0.02472,0.00793,-0.03952
3.4835,-0.00275,-0.00031,-0.02441,0.02899,-0.02625,-0.05341,-0.00961,0.00015,-0.06546,-0.03189,-0.16357,-0.00015,-0.03357,-0.02655,0.00702,-0.03967
3.484,0.00412,-0.0061,-0.01907,0.03937,-0.02563,-0.05127,-0.00916,0.00198,-0.06058,-0.02579,-0.14313,-0.00061,-0.03082,-0.0267,0.00931,-0.03983
3.4845,0.01373,-0.02594,-0.01816,0.02121,-0.02823,-0.04684,-0.01099,0.00244,-0.05432,-0.01251,-0.09949,0.0,-0.02792,-0.02365,0.01373,-0.03983
3.485,0.01495,-0.04639,-0.01556,-0.0058,-0.03098,-0.0444,-0.01312,0.00107,-0.04913,-0.00107,-0.04257,0.00183,-0.02731,-0.0209,0.01663,-0.04135
3.4855,0.00793,-0.05859,-0.01389,-0.01663,-0.03128,-0.04257,-0.01312,-0.00122,-0.04684,0.00366,0.00275,0.00122,-0.02808,-0.02182,0.01663,-0.04242
3.486,0.00031,-0.06302,-0.02594,-0.01266,-0.03021,-0.04272,-0.01129,-0.00122,-0.04639,0.00443,0.01343,-0.00107,-0.0296,-0.02609,0.01709,-0.04211
3.4865,-0.00061,-0.06378,-0.05829,-0.00931,-0.03006,-0.04318,-0.01007,-0.00061,-0.0444,0.00595,-0.01434,-0.00366,-0.03052,-0.02869,0.01709,-0.04181
3.487,0.00183,-0.06378,-0.09171,-0.0116,-0.03113,-0.04395,-0.01083,-0.00137,-0.03906,0.01114,-0.05798,-0.00458,-0.03021,-0.02853,0.01633,-0.04196
3.4875,0.00061,-0.0647,-0.09491,-0.01221,-0.03265,-0.04486,-0.01221,-0.00198,-0.0325,0.01251,-0.09232,-0.00336,-0.02853,-0.02518,0.01282,-0.04227
3.488,-0.0058,-0.06531,-0.06042,-0.00671,-0.03372,-0.04578,-0.01434,-0.00183,-0.02792,0.00473,-0.10574,-0.00198,-0.02655,-0.02151,0.01022,-0.04135
3.4885,-0.01221,-0.06683,-0.01175,0.00153,-0.03342,-0.04608,-0.01434,-0.00153,-0.0238,-0.00702,-0.09827,-0.00122,-0.02609,-0.01801,0.00977,-0.03983
3.489,-0.01602,-0.07065,0.02396,0.01099,-0.03281,-0.04593,-0.0148,-0.00275,-0.01892,-0.01846,-0.07431,-0.00198,-0.02655,-0.01511,0.00946,-0.03906
3.4895,-0.0174,-0.07339,0.0412,0.01862,-0.03235,-0.04395,-0.01465,-0.00214,-0.01312,-0.02426,-0.04456,-0.00381,-0.02579,-0.01312,0.0061,-0.03922
3.49,-0.01633,-0.06897,0.04562,0.02228,-0.03128,-0.04135,-0.01297,0.00107,-0.00748,-0.02365,-0.01877,-0.00412,-0.02335,-0.0119,0.00122,-0.03967
3.4905,-0.01572,-0.05585,0.04395,0.0209,-0.03098,-0.04028,-0.01099,0.00412,-0.00214,-0.01266,0.00687,-0.00351,-0.02258,-0.01236,-0.00198,-0.0412
3.491,-0.01755,-0.0383,0.0386,0.01572,-0.03082,-0.04135,-0.00854,0.00412,0.00061,0.00946,0.04349,-0.00244,-0.02579,-0.01358,-0.00031,-0.04272
3.4915,-0.02106,-0.02563,0.02991,0.01007,-0.03021,-0.04196,-0.0058,0.00107,0.00015,0.03876,0.07782,-0.00183,-0.02991,-0.01465,0.00519,-0.04303
3.492,-0.02335,-0.02258,0.01953,0.00351,-0.02991,-0.04166,-0.00626,-0.00183,-0.0032,0.07065,0.07904,-0.00229,-0.03143,-0.01633,0.00854,-0.04013
3.4925,-0.02075,-0.02808,0.00595,-0.00412,-0.03113,-0.04227,-0.00916,-0.00519,-0.00626,0.10376,0.03784,-0.00443,-0.03159,-0.01724,0.00946,-0.03677
3.493,-0.01419,-0.03403,-0.00717,-0.01755,-0.03143,-0.04379,-0.01221,-0.00885,-0.00931,0.13153,-0.01419,-0.00458,-0.03159,-0.01633,0.00763,-0.03525
3.4935,-0.00549,-0.0322,-0.02106,-0.04486,-0.03265,-0.04486,-0.01465,-0.01083,-0.01358,0.14191,-0.04349,-0.00458,-0.0325,-0.01434,0.00626,-0.03677
3.494,0.00214,-0.0174,-0.03632,-0.08606,-0.03342,-0.04303,-0.01572,-0.00992,-0.01953,0.13168,-0.04318,-0.00427,-0.03265,-0.01282,0.00641,-0.03952
3.4945,0.00793,0.00412,-0.05432,-0.12238,-0.03265,-0.04028,-0.01617,-0.00732,-0.02258,0.10635,-0.02823,-0.00366,-0.03265,-0.01358,0.00702,-0.04105
3.495,0.01251,0.01221,-0.06912,-0.13275,-0.03098,-0.03693,-0.01419,-0.00443,-0.01923,0.07675,-0.0087,-0.00275,-0.03128,-0.01389,0.00641,-0.04028
3.4955,0.01785,-0.00549,-0.07538,-0.11246,-0.02884,-0.03265,-0.01099,-0.00244,-0.01343,0.05112,0.00885,-0.00275,-0.02975,-0.0145,0.00641,-0.03906
3.496,0.02365,-0.03784,-0.07706,-0.07233,-0.02853,-0.02808,-0.00809,-0.00092,-0.00854,0.03494,0.01083,-0.0032,-0.02869,-0.01434,0.00824,-0.03876
3.4965,0.02777,-0.06317,-0.08957,-0.01465,-0.02869,-0.0235,-0.00778,-0.00046,-0.00671,0.03067,-0.01236,-0.00229,-0.03021,-0.0148,0.01038,-0.04028
3.497,0.03128,-0.08026,-0.12238,0.07446,-0.02838,-0.02121,-0.00931,-0.00076,-0.00458,0.03479,-0.056,-0.00076,-0.03143,-0.01572,0.009,-0.04135
3.4975,0.03418,-0.09857,-0.17227,0.1889,-0.02899,-0.02197,-0.01038,0.00076,-0.00183,0.04089,-0.10529,0.00061,-0.03281,-0.01678,0.00595,-0.03906
3.498,0.03586,-0.1207,-0.21774,0.26138,-0.0293,-0.02487,-0.009,0.00198,-0.00015,0.04639,-0.14175,0.00046,-0.03342,-0.01724,0.00504,-0.03708
3.4985,0.03448,-0.1387,-0.21164,0.21927,-0.0293,-0.02777,-0.00793,0.00214,-0.00198,0.04974,-0.15244,-0.00015,-0.03464,-0.01724,0.00473,-0.03906
3.499,0.03174,-0.14648,-0.12421,0.08789,-0.03006,-0.03052,-0.00824,-0.00015,-0.00778,0.04745,-0.13596,0.00137,-0.03647,-0.01633,0.00351,-0.04471
3.4995,0.0296,-0.14404,0.00381,-0.02411,-0.0296,-0.03235,-0.01068,-0.00153,-0.01633,0.03891,-0.09888,0.00336,-0.03784,-0.01556,0.00183,-0.05096
3.5,0.02716,-0.13412,0.09109,-0.06317,-0.02808,-0.03723,-0.01236,-0.00107,-0.02289,0.02121,-0.056,0.00504,-0.03845,-0.01587,0.00046,-0.05371
3.5005,0.02335,-0.12329,0.10208,-0.07736,-0.02945,-0.04425,-0.01511,-0.00092,-0.02472,-0.00443,-0.02197,0.00412,-0.03876,-0.01678,-0.00031,-0.05447
3.501,0.0206,-0.11581,0.07523,-0.11383,-0.03204,-0.0502,-0.01816,-0.00046,-0.02243,-0.02991,0.0032,0.0032,-0.03738,-0.01755,0.00137,-0.05325
3.5015,0.01846,-0.11017,0.0531,-0.1564,-0.03387,-0.05402,-0.01968,0.00031,-0.01724,-0.04608,0.02426,0.00412,-0.03693,-0.01801,0.00488,-0.04944
3.502,0.01312,-0.10101,0.04654,-0.16281,-0.03479,-0.05768,-0.01999,0.00214,-0.01297,-0.05386,0.04456,0.00656,-0.03799,-0.01892,0.00839,-0.04486
3.5025,0.00305,-0.08698,0.0563,-0.12375,-0.03616,-0.06363,-0.01877,0.00229,-0.00885,-0.05753,0.06378,0.00778,-0.04013,-0.01984,0.0116,-0.04181
3.503,-0.00732,-0.06546,0.08377,-0.05997,-0.03754,-0.06851,-0.01877,0.0,-0.00549,-0.06073,0.08041,0.00748,-0.04166,-0.02029,0.01175,-0.04196
3.5035,-0.01755,-0.03632,0.11292,0.00351,-0.03754,-0.06927,-0.01923,-0.00229,-0.00412,-0.06546,0.09308,0.00519,-0.04272,-0.02136,0.01144,-0.04257
3.504,-0.02777,-0.00244,0.11871,0.04745,-0.03647,-0.07065,-0.01907,-0.00427,-0.00427,-0.07492,0.09506,0.00351,-0.04425,-0.02213,0.00946,-0.04272
3.5045,-0.03815,0.03281,0.09399,0.06302,-0.03525,-0.07507,-0.01831,-0.00488,-0.00504,-0.09033,0.0827,0.0032,-0.04547,-0.02243,0.0087,-0.04211
3.505,-0.04486,0.0621,0.04654,0.05463,-0.0351,-0.08133,-0.01862,-0.0032,-0.00534,-0.11124,0.06149,0.00351,-0.04471,-0.02243,0.00824,-0.04349
3.5055,-0.04105,0.08041,-0.02869,0.04028,-0.03326,-0.08057,-0.01938,-0.00137,-0.00488,-0.12573,0.04089,0.00305,-0.04227,-0.02304,0.0087,-0.04471
3.506,-0.02884,0.08789,-0.14862,0.03174,-0.03067,-0.07339,-0.01984,-0.00122,-0.0058,-0.12878,0.02304,0.00122,-0.0412,-0.02411,0.01038,-0.04379
3.5065,-0.01495,0.09338,-0.29358,0.02701,-0.02899,-0.06516,-0.01984,-0.00443,-0.00626,-0.12405,0.00305,-0.00122,-0.04105,-0.02579,0.01175,-0.04196
3.507,-0.00839,0.11032,-0.39932,0.02426,-0.02975,-0.06027,-0.01938,-0.00748,-0.00565,-0.11902,-0.0174,-0.00214,-0.04242,-0.02579,0.01358,-0.04135
3.5075,-0.01129,0.13367,-0.40649,0.02518,-0.03067,-0.05585,-0.01877,-0.00839,-0.00366,-0.11612,-0.02853,-0.00107,-0.0441,-0.02396,0.01419,-0.0412
3.508,-0.01724,0.13504,-0.30151,0.02777,-0.03189,-0.05081,-0.01724,-0.00687,-0.00214,-0.11047,-0.02823,0.00015,-0.04562,-0.02304,0.01419,-0.0415
3.5085,-0.02121,0.09109,-0.12711,0.02853,-0.03067,-0.04578,-0.01541,-0.00443,-0.00381,-0.10208,-0.02411,0.00076,-0.04517,-0.02319,0.01328,-0.04181
3.509,-0.02289,0.01358,0.04425,0.02243,-0.02991,-0.04425,-0.01495,-0.00305,-0.00702,-0.09247,-0.02518,0.00107,-0.04333,-0.02197,0.01282,-0.04227
3.5095,-0.02213,-0.05814,0.15518,0.00992,-0.0296,-0.04471,-0.01526,-0.00412,-0.00977,-0.08423,-0.02884,0.00229,-0.03906,-0.01938,0.01297,-0.04227
3.51,-0.01785,-0.09674,0.19775,-0.00565,-0.02975,-0.0473,-0.01633,-0.00656,-0.00778,-0.07492,-0.0264,0.0032,-0.03555,-0.01663,0.01389,-0.04013
3.5105,-0.00992,-0.09995,0.1947,-0.01846,-0.03006,-0.05157,-0.01831,-0.00778,-0.00183,-0.06088,-0.0087,0.0029,-0.03296,-0.01587,0.01404,-0.03891
3.511,-0.00351,-0.08163,0.17029,-0.02106,-0.03143,-0.05646,-0.01892,-0.00595,0.00519,-0.04471,0.02625,0.0029,-0.02945,-0.01663,0.01389,-0.03891
3.5115,-0.00153,-0.05829,0.1358,-0.0145,-0.03311,-0.05844,-0.01862,-0.00458,0.00916,-0.03189,0.06241,0.00168,-0.0264,-0.01633,0.01389,-0.03983
3.512,-0.00336,-0.04181,0.09537,-0.00519,-0.03372,-0.05829,-0.0174,-0.00473,0.009,-0.02319,0.07416,0.00122,-0.02563,-0.01541,0.01328,-0.03983
