time,RectFemL,VastusMedL,VastusLatL,TibAntL,HamMedL,HamLatL,GastroMedL,GastroLatL,RectFemR,VastusMedR,VastusLatR,TibAntR,HamMedR,HamLatR,GastroMedR,GastroLatR
3.21,-0.00046,-0.04166,-0.03525,-0.11856,-0.03098,-0.04807,-0.01129,-0.00137,-0.02106,-0.01801,-0.01633,0.00031,-0.03113,-0.01617,0.00977,-0.04242
3.2105,-0.00259,-0.03998,-0.03387,-0.09018,-0.03113,-0.04776,-0.0119,0.00046,-0.02029,-0.0174,-0.01709,0.0,-0.03281,-0.01617,0.00992,-0.04028
3.211,-0.00504,-0.04074,-0.0325,-0.04211,-0.03159,-0.04791,-0.01328,0.00122,-0.01755,-0.01678,-0.01755,0.00046,-0.03418,-0.01678,0.00992,-0.03906
3.2115,-0.00595,-0.04288,-0.03265,0.00427,-0.03189,-0.04883,-0.01465,0.00015,-0.01404,-0.01755,-0.0174,0.00107,-0.03448,-0.0177,0.01007,-0.03891
3.212,-0.00565,-0.04395,-0.03296,0.04639,-0.03235,-0.04822,-0.01404,-0.00092,-0.01297,-0.0177,-0.01785,0.00229,-0.03357,-0.0174,0.00977,-0.04105
3.2125,-0.00519,-0.04318,-0.03281,0.10696,-0.03342,-0.04807,-0.01343,-0.00015,-0.01877,-0.01602,-0.01678,0.00443,-0.03342,-0.01587,0.01053,-0.04318
3.213,-0.00534,-0.0412,-0.0325,0.17853,-0.03342,-0.04898,-0.0119,0.00168,-0.02655,-0.01343,-0.01419,0.00549,-0.03372,-0.01495,0.01007,-0.04227
3.2135,-0.00565,-0.04059,-0.03265,0.2034,-0.03265,-0.04974,-0.01175,0.00259,-0.03006,-0.01053,-0.0116,0.00534,-0.03235,-0.01648,0.00885,-0.0412
3.214,-0.00656,-0.04089,-0.03616,0.14908,-0.03342,-0.04929,-0.0119,0.00259,-0.02518,-0.01144,-0.00946,0.00427,-0.03021,-0.01801,0.00656,-0.04196
3.2145,-0.00534,-0.04013,-0.0412,0.05951,-0.03326,-0.04807,-0.01312,0.00092,-0.01465,-0.01373,-0.00931,0.00275,-0.02914,-0.01831,0.00732,-0.04349
3.215,-0.00183,-0.03967,-0.04425,0.00275,-0.03311,-0.04684,-0.01572,-0.00046,-0.00641,-0.01572,-0.01068,0.00076,-0.02975,-0.01801,0.00778,-0.0441
3.2155,0.00305,-0.04105,-0.04166,-0.00992,-0.03082,-0.04715,-0.01801,-0.00275,-0.0058,-0.01633,-0.01221,0.0,-0.03128,-0.01755,0.00687,-0.04318
3.216,0.00671,-0.04272,-0.03387,-0.01404,-0.03036,-0.04761,-0.01801,-0.00381,-0.00961,-0.01663,-0.01343,-0.00076,-0.03174,-0.01785,0.00443,-0.04166
3.2165,0.00687,-0.04272,-0.02563,-0.03189,-0.03082,-0.04807,-0.01648,-0.00366,-0.0119,-0.0174,-0.01465,-0.00305,-0.03342,-0.01877,0.00168,-0.04044
3.217,0.00198,-0.0415,-0.02121,-0.05386,-0.03159,-0.04822,-0.01465,-0.00351,-0.01175,-0.01923,-0.01541,-0.00824,-0.0351,-0.01999,0.00031,-0.04044
3.2175,-0.00412,-0.03952,-0.02075,-0.0621,-0.03235,-0.04684,-0.01389,-0.00336,-0.00946,-0.02151,-0.01617,-0.0145,-0.03571,-0.02045,0.00214,-0.04181
3.218,-0.00793,-0.03952,-0.02502,-0.05402,-0.03204,-0.04654,-0.01343,-0.00412,-0.00854,-0.02319,-0.01572,-0.01892,-0.03616,-0.02075,0.00519,-0.04379
3.2185,-0.00748,-0.04135,-0.03006,-0.03815,-0.03204,-0.04669,-0.01404,-0.00565,-0.00809,-0.02472,-0.0148,-0.02167,-0.0354,-0.02029,0.00748,-0.04486
3.219,-0.00702,-0.04242,-0.03433,-0.02808,-0.03174,-0.04608,-0.01556,-0.00702,-0.00732,-0.02625,-0.01297,-0.02182,-0.03403,-0.01984,0.00946,-0.0441
3.2195,-0.00732,-0.0415,-0.0354,-0.02747,-0.03159,-0.04562,-0.01694,-0.0087,-0.00534,-0.02701,-0.01205,-0.01831,-0.03311,-0.01892,0.00977,-0.04257
3.22,-0.00824,-0.03891,-0.03433,-0.0293,-0.02991,-0.0444,-0.01663,-0.00885,-0.00534,-0.0264,-0.01221,-0.01205,-0.03204,-0.01862,0.0087,-0.04196
3.2205,-0.00931,-0.03723,-0.03204,-0.02151,-0.02792,-0.04318,-0.01465,-0.00885,-0.01068,-0.02533,-0.01389,-0.00504,-0.03281,-0.01923,0.00748,-0.0441
3.221,-0.00885,-0.03693,-0.02975,-0.00549,-0.02884,-0.04333,-0.01328,-0.00809,-0.01968,-0.02533,-0.01663,0.00061,-0.03357,-0.01953,0.00748,-0.04532
3.2215,-0.00717,-0.03845,-0.02838,0.00168,-0.02914,-0.04456,-0.01358,-0.00656,-0.02548,-0.02686,-0.01907,0.00763,-0.03342,-0.01923,0.00977,-0.04578
3.222,-0.00488,-0.03998,-0.02686,-0.0206,-0.0293,-0.04501,-0.01495,-0.00488,-0.02502,-0.02594,-0.01877,0.01587,-0.0322,-0.01968,0.01129,-0.04562
3.2225,-0.00076,-0.04013,-0.02548,-0.07126,-0.03021,-0.04501,-0.01465,-0.00427,-0.01984,-0.02441,-0.01663,0.02594,-0.03159,-0.02029,0.01144,-0.04562
3.223,0.00443,-0.03922,-0.0264,-0.12573,-0.03082,-0.04578,-0.01373,-0.00305,-0.01648,-0.02304,-0.01205,0.03647,-0.03143,-0.01862,0.01099,-0.04501
3.2235,0.00793,-0.03845,-0.02853,-0.15396,-0.0322,-0.04669,-0.01297,-0.00336,-0.01541,-0.02258,-0.01053,0.04639,-0.03174,-0.01678,0.01144,-0.0441
3.224,0.0061,-0.03998,-0.03067,-0.14816,-0.03281,-0.04715,-0.01343,-0.00412,-0.01495,-0.02304,-0.0119,0.04562,-0.0325,-0.01663,0.01053,-0.04333
3.2245,0.0,-0.04089,-0.03159,-0.11978,-0.0325,-0.04776,-0.01389,-0.00458,-0.01526,-0.02243,-0.01511,0.02914,-0.03296,-0.01816,0.00916,-0.04318
3.225,-0.00626,-0.04059,-0.03387,-0.07477,-0.03174,-0.04776,-0.01389,-0.0058,-0.01602,-0.02121,-0.0174,0.00641,-0.03387,-0.01938,0.00763,-0.04211
3.2255,-0.00977,-0.03983,-0.03616,-0.01083,-0.03159,-0.04822,-0.01312,-0.00641,-0.0174,-0.02045,-0.01785,-0.00961,-0.03326,-0.01877,0.00732,-0.04257
3.226,-0.01221,-0.04044,-0.03754,0.06897,-0.03174,-0.04837,-0.01328,-0.00549,-0.0177,-0.01953,-0.01709,-0.01541,-0.03159,-0.0174,0.00732,-0.04425
3.2265,-0.01373,-0.04257,-0.03693,0.14359,-0.03265,-0.04868,-0.01404,-0.00305,-0.01648,-0.01801,-0.01419,-0.02045,-0.03067,-0.01724,0.00732,-0.04517
3.227,-0.01587,-0.04333,-0.0354,0.1799,-0.03357,-0.04822,-0.01221,0.00076,-0.0145,-0.01633,-0.01221,-0.02838,-0.03189,-0.01892,0.00595,-0.04486
3.2275,-0.0174,-0.04181,-0.03464,0.15564,-0.03372,-0.04852,-0.01083,0.00336,-0.01221,-0.01724,-0.01022,-0.03433,-0.03448,-0.02014,0.00626,-0.04471
3.228,-0.01831,-0.03983,-0.03357,0.07874,-0.03296,-0.04715,-0.00977,0.00275,-0.0087,-0.01801,-0.00992,-0.03311,-0.03601,-0.01984,0.00793,-0.04364
3.2285,-0.01801,-0.03983,-0.03387,-0.00519,-0.03189,-0.047,-0.01007,0.00046,-0.00626,-0.0174,-0.01068,-0.0296,-0.03525,-0.01846,0.009,-0.04288
3.229,-0.01678,-0.04196,-0.03723,-0.047,-0.03128,-0.0473,-0.01083,-0.00153,-0.00595,-0.01587,-0.0116,-0.02762,-0.03433,-0.01785,0.00961,-0.04257
3.2295,-0.01266,-0.04303,-0.03983,-0.04791,-0.03189,-0.04883,-0.01297,-0.0032,-0.00793,-0.01434,-0.01053,-0.02274,-0.03387,-0.01846,0.00961,-0.04242
3.23,-0.00412,-0.04272,-0.04257,-0.04684,-0.03372,-0.04852,-0.0145,-0.0032,-0.01068,-0.01373,-0.009,-0.00824,-0.03418,-0.0177,0.00916,-0.04272
3.2305,0.00641,-0.04196,-0.04242,-0.05966,-0.03464,-0.04837,-0.01526,-0.00305,-0.01114,-0.01343,-0.00763,0.01663,-0.03342,-0.01633,0.00793,-0.04471
3.231,0.01541,-0.04166,-0.04196,-0.06332,-0.0354,-0.04822,-0.01358,-0.0032,-0.0087,-0.01312,-0.00793,0.03601,-0.03204,-0.01587,0.00565,-0.04593
3.2315,0.01862,-0.04196,-0.04028,-0.04074,-0.03372,-0.04791,-0.01053,-0.00229,-0.00717,-0.01297,-0.00916,0.02762,-0.03128,-0.01526,0.00458,-0.04486
3.232,0.0145,-0.04272,-0.03937,-0.01419,-0.03159,-0.04715,-0.01038,-0.00122,-0.00809,-0.01434,-0.009,-0.01297,-0.03006,-0.01678,0.00473,-0.04303
3.2325,0.00763,-0.04333,-0.04059,-0.00748,-0.03174,-0.0473,-0.01175,-0.00107,-0.01022,-0.01678,-0.00931,-0.05936,-0.02975,-0.01831,0.00671,-0.04257
3.233,0.0029,-0.04257,-0.04211,-0.01694,-0.0322,-0.04807,-0.01389,-0.00046,-0.01221,-0.01968,-0.00931,-0.07568,-0.03036,-0.01923,0.00732,-0.04242
3.2335,0.00153,-0.04196,-0.04227,-0.02335,-0.03265,-0.04944,-0.0148,-0.00031,-0.01343,-0.02014,-0.00961,-0.05112,-0.03113,-0.01862,0.00671,-0.04227
3.234,0.00198,-0.04288,-0.04105,-0.02228,-0.0325,-0.04929,-0.01556,-0.00122,-0.01419,-0.02106,-0.01144,-0.00854,-0.03189,-0.01938,0.00717,-0.0415
3.2345,0.00137,-0.04349,-0.03967,-0.01877,-0.03235,-0.04837,-0.01541,-0.00259,-0.01312,-0.02167,-0.01083,0.02747,-0.03113,-0.02075,0.00793,-0.04242
3.235,0.00061,-0.04395,-0.04044,-0.01205,-0.03265,-0.04654,-0.01526,-0.00351,-0.01083,-0.02197,-0.01129,0.05569,-0.02991,-0.02182,0.00977,-0.04379
3.2355,-0.00168,-0.04364,-0.04135,-0.00198,-0.03204,-0.04639,-0.01709,-0.00443,-0.01129,-0.02411,-0.01175,0.08316,-0.02975,-0.02197,0.01022,-0.04379
3.236,-0.00671,-0.04333,-0.04227,0.00748,-0.0325,-0.04745,-0.01938,-0.00458,-0.01358,-0.0296,-0.01282,0.09796,-0.03036,-0.02197,0.00885,-0.0412
3.2365,-0.01694,-0.04303,-0.04059,0.01373,-0.03326,-0.04852,-0.02014,-0.00595,-0.01511,-0.03555,-0.01236,0.08041,-0.03052,-0.02197,0.0087,-0.0383
3.237,-0.02762,-0.04196,-0.03891,0.01923,-0.03311,-0.04913,-0.01709,-0.00626,-0.01511,-0.0383,-0.00824,0.03967,-0.03143,-0.02106,0.01007,-0.03784
3.2375,-0.03357,-0.04211,-0.03693,0.02396,-0.03235,-0.04959,-0.01434,-0.00641,-0.0145,-0.03647,-0.0029,0.01175,-0.03326,-0.02075,0.01114,-0.03906
3.238,-0.02884,-0.04272,-0.0354,0.02274,-0.03265,-0.04913,-0.01419,-0.00641,-0.01465,-0.03235,0.0,0.01938,-0.03403,-0.02075,0.01053,-0.03952
3.2385,-0.01602,-0.04364,-0.03494,0.01434,-0.03403,-0.04822,-0.0177,-0.00687,-0.01587,-0.02792,-0.00046,0.03998,-0.03403,-0.02243,0.00946,-0.03815
3.239,-0.00595,-0.04318,-0.03479,0.00168,-0.03403,-0.04639,-0.02441,-0.00809,-0.01694,-0.02716,-0.00366,0.03693,-0.03387,-0.02258,0.0087,-0.03708
3.2395,-0.0032,-0.0415,-0.03326,-0.01068,-0.03235,-0.04456,-0.02838,-0.00717,-0.0177,-0.03021,-0.00687,0.00656,-0.03372,-0.02182,0.00809,-0.03586
3.24,-0.00534,-0.04059,-0.03036,-0.02136,-0.03067,-0.04364,-0.02777,-0.00534,-0.01785,-0.03494,-0.00839,-0.02716,-0.03387,-0.01938,0.00977,-0.03555
3.2405,-0.00977,-0.03998,-0.02914,-0.02609,-0.02975,-0.04471,-0.0238,-0.00458,-0.01755,-0.0351,-0.00839,-0.04791,-0.03403,-0.01831,0.01068,-0.03586
3.241,-0.0145,-0.04059,-0.02945,-0.02777,-0.02869,-0.04623,-0.01938,-0.00366,-0.0174,-0.03006,-0.00656,-0.05905,-0.03403,-0.01923,0.01083,-0.03571
3.2415,-0.0206,-0.0415,-0.02884,-0.04425,-0.02716,-0.04623,-0.01526,-0.00183,-0.0174,-0.02243,-0.00443,-0.06348,-0.03448,-0.02045,0.01053,-0.03616
3.242,-0.02472,-0.04105,-0.02762,-0.07263,-0.02777,-0.04578,-0.00626,0.00092,-0.01694,-0.01648,-0.00473,-0.05966,-0.03433,-0.0206,0.009,-0.03632
3.2425,-0.02563,-0.04044,-0.02716,-0.08057,-0.0293,-0.04486,0.00824,0.0032,-0.0174,-0.00916,-0.00732,-0.05005,-0.03387,-0.02014,0.00793,-0.0354
3.243,-0.02228,-0.03906,-0.02655,-0.05081,-0.03082,-0.04471,0.01633,0.00229,-0.01755,0.00015,-0.01373,-0.03265,-0.03265,-0.01907,0.00748,-0.03555
3.2435,-0.01785,-0.03815,-0.02655,-0.00946,-0.03143,-0.04562,0.00824,0.00137,-0.0177,0.00916,-0.02304,-0.00397,-0.03204,-0.01938,0.00717,-0.03708
3.244,-0.01328,-0.03845,-0.02762,0.00763,-0.03159,-0.04623,-0.00717,0.00031,-0.01678,0.01236,-0.03433,0.02686,-0.03265,-0.01999,0.00763,-0.03922
3.2445,-0.00793,-0.03876,-0.02899,0.00031,-0.03113,-0.04669,-0.01617,-0.00137,-0.01511,0.0087,-0.04501,0.04272,-0.03357,-0.01999,0.00702,-0.04013
3.245,-0.00366,-0.0383,-0.02914,-0.01099,-0.0322,-0.04776,-0.01541,-0.00366,-0.01328,-0.00153,-0.04959,0.0386,-0.03448,-0.01892,0.00519,-0.04074
3.2455,-0.00305,-0.0354,-0.02823,-0.01297,-0.03311,-0.04913,-0.01312,-0.00519,-0.01221,-0.01251,-0.04929,0.0267,-0.03357,-0.01846,0.00381,-0.04135
3.246,-0.00504,-0.03098,-0.02869,-0.01312,-0.03494,-0.0499,-0.01434,-0.00473,-0.0119,-0.01709,-0.04578,0.01297,-0.03403,-0.01923,0.00275,-0.04303
3.2465,-0.0058,-0.02701,-0.03174,-0.02014,-0.03555,-0.05066,-0.01663,-0.00458,-0.0116,-0.0177,-0.03983,-0.00473,-0.03494,-0.02106,0.00305,-0.04486
3.247,-0.00397,-0.02533,-0.03464,-0.03281,-0.03525,-0.05096,-0.01678,-0.00473,-0.01068,-0.0148,-0.03036,-0.02197,-0.03433,-0.0206,0.00519,-0.04471
3.2475,-0.00198,-0.02731,-0.03586,-0.04181,-0.0351,-0.05081,-0.01572,-0.00702,-0.00778,-0.01251,-0.01862,-0.02655,-0.03357,-0.01984,0.00656,-0.04425
3.248,-0.00076,-0.03021,-0.03448,-0.0415,-0.03555,-0.05051,-0.01511,-0.00824,-0.00275,-0.00748,-0.00763,-0.00931,-0.03326,-0.01892,0.00656,-0.04333
3.2485,-0.00046,-0.03143,-0.03235,-0.04166,-0.03555,-0.0502,-0.01389,-0.00824,0.00092,-0.00137,-0.00046,0.02213,-0.03311,-0.01831,0.00443,-0.04425
3.249,0.0,-0.0322,-0.03006,-0.04868,-0.0351,-0.04959,-0.01282,-0.00778,0.00076,0.00366,0.00244,0.0528,-0.03357,-0.01785,0.00397,-0.04578
3.2495,-0.00137,-0.03296,-0.0293,-0.06012,-0.03372,-0.04852,-0.01251,-0.00641,-0.00275,0.00793,0.00641,0.07141,-0.03265,-0.0174,0.00229,-0.04593
3.25,-0.00305,-0.03464,-0.02762,-0.06638,-0.03204,-0.04715,-0.01175,-0.00534,-0.00687,0.00931,0.0116,0.07401,-0.03113,-0.01663,0.00412,-0.04517
3.2505,-0.00504,-0.0383,-0.0267,-0.06149,-0.03143,-0.04669,-0.009,-0.00458,-0.009,0.00977,0.01511,0.06058,-0.03098,-0.01526,0.0061,-0.0441
3.251,-0.00702,-0.04242,-0.0267,-0.04776,-0.03143,-0.04745,-0.00519,-0.00366,-0.01022,0.00961,0.01587,0.03845,-0.03296,-0.01434,0.00732,-0.04379
3.2515,-0.0087,-0.04517,-0.02869,-0.03128,-0.03052,-0.04791,-0.00397,-0.0029,-0.01328,0.00793,0.01404,0.01465,-0.03448,-0.01419,0.00854,-0.04349
3.252,-0.00809,-0.04807,-0.03143,-0.01419,-0.02945,-0.04669,-0.00992,-0.00214,-0.01617,0.0061,0.01389,-0.00473,-0.03525,-0.01511,0.0087,-0.04257
3.2525,-0.00458,-0.05203,-0.03326,0.00656,-0.03006,-0.04669,-0.02014,-0.00061,-0.01755,0.00336,0.01602,-0.01785,-0.03464,-0.01694,0.01083,-0.04288
3.253,0.00015,-0.0563,-0.03387,0.02792,-0.03174,-0.04761,-0.02747,0.00031,-0.01877,0.00031,0.01801,-0.02518,-0.03311,-0.01801,0.01114,-0.04288
3.2535,0.00275,-0.05783,-0.03296,0.03647,-0.03265,-0.04852,-0.02686,-0.00076,-0.02121,-0.00214,0.01587,-0.02594,-0.0322,-0.01755,0.01083,-0.04318
3.254,0.00229,-0.05844,-0.03387,0.02243,-0.03204,-0.04837,-0.02045,-0.00214,-0.02594,-0.00519,0.00748,-0.02243,-0.03372,-0.01633,0.00961,-0.0441
3.2545,-0.00168,-0.05844,-0.03464,-0.00519,-0.03189,-0.04807,-0.01389,-0.0029,-0.03052,-0.00854,-0.00473,-0.02213,-0.03433,-0.01572,0.0087,-0.04547
3.255,-0.00671,-0.05783,-0.03464,-0.0267,-0.03174,-0.04791,-0.01038,-0.00305,-0.03357,-0.01419,-0.01892,-0.02487,-0.0354,-0.01617,0.00839,-0.04623
3.2555,-0.01099,-0.05493,-0.03464,-0.02869,-0.03128,-0.04715,-0.01038,-0.00427,-0.03616,-0.01968,-0.03403,-0.02487,-0.0354,-0.01724,0.00946,-0.04639
3.256,-0.01221,-0.05142,-0.03601,-0.01343,-0.02945,-0.04578,-0.01343,-0.00641,-0.03494,-0.02426,-0.04852,-0.01999,-0.03525,-0.01877,0.00961,-0.04562
3.2565,-0.01022,-0.04883,-0.03769,0.00854,-0.02792,-0.04608,-0.01663,-0.00626,-0.02823,-0.02731,-0.06104,-0.01831,-0.0351,-0.01938,0.01038,-0.04532
3.257,-0.00809,-0.04807,-0.04013,0.03174,-0.02792,-0.04761,-0.01923,-0.00366,-0.0209,-0.03128,-0.06592,-0.02701,-0.03479,-0.01999,0.01007,-0.04562
3.2575,-0.00519,-0.047,-0.04196,0.05768,-0.02899,-0.04852,-0.01816,0.00015,-0.01678,-0.03494,-0.06287,-0.03647,-0.03433,-0.01999,0.00931,-0.047
3.258,-0.00198,-0.04669,-0.04349,0.08133,-0.02899,-0.04913,-0.01602,0.00153,-0.01862,-0.03799,-0.05463,-0.03159,-0.03387,-0.01907,0.00809,-0.04791
3.2585,0.00076,-0.047,-0.04318,0.07751,-0.02777,-0.04852,-0.01495,-0.00031,-0.02045,-0.0383,-0.04547,-0.0145,-0.03204,-0.01785,0.00732,-0.047
3.259,0.0029,-0.04791,-0.04227,0.0235,-0.02701,-0.04837,-0.0145,-0.00244,-0.01999,-0.03799,-0.03754,-0.00046,-0.02975,-0.01724,0.00839,-0.04623
3.2595,0.00336,-0.04807,-0.0415,-0.06241,-0.02747,-0.04807,-0.01282,-0.0032,-0.01755,-0.03754,-0.03143,-0.0032,-0.02808,-0.01587,0.00961,-0.04547
3.26,0.00397,-0.04761,-0.04074,-0.12665,-0.02869,-0.04807,-0.01175,-0.00153,-0.01541,-0.03708,-0.02701,-0.02975,-0.02869,-0.0148,0.01038,-0.04425
3.2605,0.00397,-0.04501,-0.03845,-0.14069,-0.03052,-0.04822,-0.01144,-0.00046,-0.01541,-0.03601,-0.02396,-0.07324,-0.02945,-0.01312,0.01068,-0.04471
3.261,0.00473,-0.04318,-0.03464,-0.12665,-0.0296,-0.04852,-0.01053,0.00015,-0.01678,-0.03342,-0.02197,-0.10544,-0.02914,-0.01419,0.01022,-0.04486
3.2615,0.00534,-0.04074,-0.03174,-0.12466,-0.02899,-0.04852,-0.01068,0.00061,-0.01801,-0.03098,-0.02289,-0.09857,-0.02914,-0.01724,0.01053,-0.04395
3.262,0.00671,-0.04105,-0.02899,-0.13962,-0.02838,-0.04761,-0.01099,0.00061,-0.01892,-0.02899,-0.02487,-0.05844,-0.0293,-0.02045,0.01022,-0.04196
3.2625,0.00885,-0.04272,-0.02472,-0.14404,-0.02853,-0.04715,-0.0116,0.00153,-0.0209,-0.02853,-0.02716,-0.01144,-0.03067,-0.02228,0.00931,-0.04242
3.263,0.01175,-0.04318,-0.02136,-0.10406,-0.02899,-0.04593,-0.0119,0.00381,-0.02319,-0.02838,-0.02777,0.02548,-0.0322,-0.02136,0.00809,-0.04395
3.2635,0.01404,-0.04211,-0.02136,-0.0145,-0.02975,-0.04715,-0.01312,0.00427,-0.02533,-0.0267,-0.02502,0.05356,-0.0325,-0.02029,0.00946,-0.0444
3.264,0.01205,-0.04028,-0.02457,0.07706,-0.0296,-0.04761,-0.01328,0.00198,-0.02594,-0.02533,-0.01999,0.07004,-0.03113,-0.01907,0.01053,-0.04288
3.2645,0.00595,-0.03937,-0.02838,0.10895,-0.02869,-0.04822,-0.01389,-0.00046,-0.02502,-0.02533,-0.0145,0.06927,-0.0293,-0.01785,0.01144,-0.04059
3.265,-0.00046,-0.03845,-0.02991,0.07263,-0.02869,-0.04761,-0.01511,-0.00046,-0.02365,-0.02579,-0.01022,0.05692,-0.0293,-0.01663,0.01205,-0.03815
3.2655,-0.00366,-0.03784,-0.03281,0.02029,-0.03021,-0.04745,-0.01648,-0.00015,-0.02243,-0.02548,-0.00946,0.04089,-0.03067,-0.01663,0.01282,-0.03677
3.266,-0.00275,-0.03845,-0.03601,0.0,-0.03082,-0.04684,-0.01724,0.00015,-0.02258,-0.02426,-0.01083,0.02243,-0.03052,-0.0177,0.01312,-0.03723
3.2665,-0.00092,-0.0386,-0.0386,0.01389,-0.02853,-0.04623,-0.01877,-0.00122,-0.02289,-0.02457,-0.01236,0.00259,-0.0296,-0.0174,0.01266,-0.03784
3.267,-0.00046,-0.03937,-0.04028,0.03815,-0.02853,-0.04547,-0.01984,-0.00397,-0.02167,-0.02441,-0.01205,-0.00977,-0.02899,-0.01602,0.01205,-0.0383
3.2675,-0.00092,-0.04074,-0.04105,0.04959,-0.0293,-0.04456,-0.02014,-0.00717,-0.0206,-0.02304,-0.00961,-0.00885,-0.02884,-0.01526,0.01053,-0.03845
3.268,-0.00122,-0.04028,-0.04028,0.04059,-0.03052,-0.04562,-0.01694,-0.00793,-0.02167,-0.02014,-0.00595,-0.00092,-0.02899,-0.01541,0.00977,-0.0386
3.2685,-0.00031,-0.04044,-0.04044,0.02274,-0.03098,-0.04684,-0.01343,-0.00702,-0.0235,-0.01953,-0.00336,0.00458,-0.0296,-0.01755,0.009,-0.03952
3.269,0.00076,-0.04074,-0.04074,0.01648,-0.03189,-0.0473,-0.01205,-0.00626,-0.02441,-0.0206,-0.00458,0.00336,-0.02945,-0.02014,0.00702,-0.04013
3.2695,0.00122,-0.04105,-0.03998,0.02533,-0.03235,-0.04715,-0.01343,-0.00641,-0.02197,-0.02136,-0.00885,0.00076,-0.02777,-0.02228,0.00763,-0.03937
3.27,0.00061,-0.03998,-0.03784,0.03235,-0.03204,-0.04593,-0.01343,-0.00656,-0.01907,-0.0209,-0.01251,0.0,-0.02716,-0.02197,0.00977,-0.03891
3.2705,-0.00107,-0.03769,-0.03601,0.02197,-0.03311,-0.0444,-0.01221,-0.00656,-0.01633,-0.01907,-0.01495,0.00244,-0.02731,-0.02014,0.01129,-0.03983
3.271,-0.00168,-0.03632,-0.03464,0.00488,-0.03433,-0.04456,-0.01144,-0.0061,-0.0148,-0.01724,-0.01511,0.00687,-0.02945,-0.01846,0.01053,-0.04135
3.2715,-0.00046,-0.03769,-0.03403,-0.00473,-0.03448,-0.04608,-0.0116,-0.00549,-0.01297,-0.01602,-0.01343,0.00885,-0.03098,-0.0174,0.00946,-0.04257
3.272,0.00229,-0.03906,-0.03479,-0.01221,-0.03464,-0.04776,-0.01236,-0.00412,-0.01221,-0.01709,-0.01129,0.00702,-0.03296,-0.0174,0.00824,-0.04242
3.2725,0.00381,-0.03906,-0.03418,-0.0267,-0.03418,-0.04868,-0.01312,-0.00366,-0.01129,-0.01724,-0.00763,0.0,-0.03387,-0.01862,0.00732,-0.04044
3.273,0.0032,-0.03815,-0.0351,-0.03387,-0.03403,-0.04883,-0.01389,-0.00381,-0.00916,-0.01602,-0.00397,-0.00534,-0.03326,-0.01968,0.00671,-0.03799
3.2735,0.00046,-0.03845,-0.03616,-0.01389,-0.03403,-0.04822,-0.01373,-0.00519,-0.0058,-0.01404,-0.00076,-0.00763,-0.03265,-0.02029,0.00702,-0.03662
3.274,-0.00214,-0.03952,-0.03693,0.02747,-0.03403,-0.04837,-0.01328,-0.00488,-0.00275,-0.01343,0.0,-0.00702,-0.0322,-0.01938,0.00809,-0.03754
3.2745,-0.00259,-0.03937,-0.03815,0.06622,-0.03357,-0.04852,-0.01297,-0.00381,-0.00305,-0.0145,0.00046,-0.00458,-0.03174,-0.01755,0.00763,-0.03983
3.275,-0.00214,-0.03845,-0.03723,0.08972,-0.03342,-0.04852,-0.01404,-0.00305,-0.00458,-0.01862,-0.00031,0.00198,-0.03098,-0.01617,0.00565,-0.04242
3.2755,-0.00336,-0.0386,-0.03525,0.10574,-0.03387,-0.04837,-0.0148,-0.00351,-0.00595,-0.02335,-0.00198,0.01114,-0.03128,-0.01831,0.00427,-0.04395
3.276,-0.00656,-0.04044,-0.03189,0.12115,-0.03464,-0.04745,-0.0148,-0.00397,-0.00763,-0.02762,-0.00381,0.01678,-0.0322,-0.02151,0.0032,-0.04333
3.2765,-0.01114,-0.04105,-0.02991,0.12878,-0.03601,-0.0473,-0.01358,-0.00351,-0.00916,-0.03021,-0.00305,0.01373,-0.03387,-0.02304,0.0032,-0.04211
3.277,-0.01511,-0.0412,-0.0293,0.11429,-0.03571,-0.04684,-0.01358,-0.00244,-0.01083,-0.03189,-0.00137,0.00595,-0.03494,-0.02243,0.00366,-0.04105
3.2775,-0.01694,-0.04074,-0.03021,0.07874,-0.03418,-0.04639,-0.01419,-0.00198,-0.01129,-0.03372,0.00015,0.00031,-0.03418,-0.02121,0.0058,-0.04135
3.278,-0.01785,-0.04013,-0.03357,0.04059,-0.03159,-0.04593,-0.01434,-0.00275,-0.01114,-0.03372,0.00092,0.00015,-0.03189,-0.01984,0.00671,-0.04379
3.2785,-0.01694,-0.03967,-0.04059,0.01465,-0.03128,-0.04608,-0.01358,-0.00153,-0.01221,-0.03326,0.00107,0.00275,-0.03067,-0.01953,0.00671,-0.04486
3.279,-0.01648,-0.03967,-0.05112,0.00153,-0.03387,-0.04791,-0.01312,-0.00137,-0.01373,-0.03113,0.00168,0.00443,-0.03098,-0.01923,0.00656,-0.04364
3.2795,-0.01602,-0.03967,-0.06042,-0.0061,-0.03494,-0.04929,-0.01251,-0.00076,-0.0148,-0.02899,0.00214,0.00565,-0.03098,-0.01923,0.00641,-0.04211
3.28,-0.01541,-0.0386,-0.06393,-0.01099,-0.03387,-0.04868,-0.01221,-0.00046,-0.01511,-0.0267,0.00168,0.00427,-0.03082,-0.01923,0.0087,-0.04242
3.2805,-0.01419,-0.03647,-0.06058,-0.01465,-0.03357,-0.04837,-0.01221,-0.00046,-0.01495,-0.02686,-0.00031,0.00107,-0.03159,-0.02045,0.00916,-0.04379
3.281,-0.01389,-0.0351,-0.05219,-0.01938,-0.03372,-0.04791,-0.01312,-0.00046,-0.01602,-0.02716,-0.0029,-0.00183,-0.03204,-0.02167,0.00793,-0.04456
3.2815,-0.01389,-0.03601,-0.04425,-0.02457,-0.03311,-0.04745,-0.01419,-0.00153,-0.01678,-0.02609,-0.00565,-0.00259,-0.03159,-0.02136,0.0061,-0.0444
3.282,-0.01389,-0.03937,-0.03632,-0.02472,-0.03098,-0.04715,-0.01541,-0.00214,-0.01892,-0.02502,-0.00854,-0.00259,-0.03128,-0.02197,0.00519,-0.04333
3.2825,-0.01297,-0.04288,-0.02884,-0.01862,-0.02823,-0.04761,-0.01602,-0.00198,-0.02167,-0.02411,-0.0116,-0.0029,-0.03098,-0.02304,0.00595,-0.04166
3.283,-0.0116,-0.0441,-0.02243,-0.01389,-0.02808,-0.04807,-0.01694,-0.00183,-0.02319,-0.0235,-0.01572,-0.00244,-0.03082,-0.02258,0.00763,-0.04013
3.2835,-0.01129,-0.04333,-0.01816,-0.02319,-0.02853,-0.04761,-0.01816,-0.00061,-0.02426,-0.02274,-0.0206,-0.00046,-0.03128,-0.02075,0.00702,-0.03952
3.284,-0.01144,-0.04211,-0.01755,-0.05234,-0.02853,-0.0473,-0.01907,-0.00076,-0.02396,-0.02045,-0.02335,0.00153,-0.03174,-0.02029,0.00565,-0.04044
3.2845,-0.00977,-0.04135,-0.01923,-0.08743,-0.02731,-0.047,-0.01831,-0.00122,-0.02289,-0.01801,-0.02441,0.0032,-0.0325,-0.02151,0.00412,-0.0415
3.285,-0.00412,-0.04196,-0.01968,-0.11383,-0.02594,-0.04745,-0.01709,-0.00244,-0.0238,-0.01678,-0.02487,0.00427,-0.0322,-0.02258,0.00458,-0.0412
3.2855,0.00336,-0.04272,-0.01984,-0.12909,-0.02701,-0.0473,-0.01648,-0.00305,-0.02396,-0.01602,-0.02457,0.00626,-0.03113,-0.02213,0.00565,-0.0386
3.286,0.00916,-0.04379,-0.02213,-0.13718,-0.02762,-0.04852,-0.01816,-0.00366,-0.02289,-0.01556,-0.0235,0.00916,-0.03204,-0.02045,0.00397,-0.03769
3.2865,0.00931,-0.04486,-0.02594,-0.12817,-0.02731,-0.04776,-0.02121,-0.00366,-0.01938,-0.01526,-0.02197,0.01251,-0.03281,-0.01923,0.00107,-0.03906
3.287,0.00381,-0.04608,-0.02991,-0.09308,-0.02792,-0.04822,-0.02472,-0.00198,-0.01587,-0.01495,-0.01968,0.01297,-0.03387,-0.01953,0.00153,-0.04044
3.2875,-0.0032,-0.04608,-0.03296,-0.05157,-0.02914,-0.0499,-0.02304,0.00107,-0.01312,-0.01312,-0.0174,0.01144,-0.03479,-0.02029,0.00351,-0.04028
3.288,-0.00748,-0.04654,-0.03464,-0.03983,-0.03098,-0.05112,-0.01572,0.00336,-0.01129,-0.01022,-0.01511,0.0116,-0.03448,-0.02045,0.00443,-0.04028
3.2885,-0.00809,-0.04608,-0.03403,-0.0592,-0.03189,-0.0502,-0.00656,0.00275,-0.00854,-0.00702,-0.01266,0.01205,-0.03342,-0.01984,0.00381,-0.0415
3.289,-0.00793,-0.04578,-0.03494,-0.06287,-0.03265,-0.04898,-0.00015,0.00046,-0.00656,-0.00534,-0.01022,0.01129,-0.03235,-0.01877,0.00381,-0.04242
3.2895,-0.00778,-0.04486,-0.03708,-0.00046,-0.03189,-0.04883,0.00259,-0.00107,-0.00504,-0.00381,-0.00763,0.00885,-0.03128,-0.0177,0.0058,-0.04089
3.29,-0.01007,-0.04395,-0.03799,0.10757,-0.03098,-0.04898,0.0029,-0.00031,-0.00229,-0.00275,-0.00534,0.00565,-0.02991,-0.01602,0.00626,-0.03891
3.2905,-0.01373,-0.04288,-0.03387,0.17639,-0.03067,-0.04944,-0.00031,0.00076,-0.00061,-0.00305,-0.00336,0.0032,-0.02945,-0.01511,0.00534,-0.03738
3.291,-0.01877,-0.04135,-0.02441,0.15732,-0.03067,-0.04852,-0.00519,0.00244,-0.00198,-0.00397,-0.00092,0.00107,-0.02945,-0.01434,0.00595,-0.03723
3.2915,-0.02487,-0.03998,-0.01495,0.09064,-0.03098,-0.047,-0.01114,0.00244,-0.00473,-0.0058,-0.00092,-0.00153,-0.02808,-0.01328,0.00916,-0.03799
3.292,-0.02884,-0.03998,-0.01358,0.04028,-0.03036,-0.04562,-0.0148,0.00061,-0.00687,-0.00809,-0.00351,-0.00565,-0.02747,-0.01312,0.01099,-0.03967
3.2925,-0.0267,-0.03937,-0.01953,0.0177,-0.0293,-0.04547,-0.01633,-0.00351,-0.00763,-0.01053,-0.00565,-0.01221,-0.02777,-0.01389,0.01068,-0.03998
3.293,-0.01907,-0.03784,-0.02914,-0.00366,-0.02991,-0.04501,-0.01602,-0.00656,-0.00763,-0.01144,-0.00656,-0.01755,-0.02914,-0.01511,0.00946,-0.03891
3.2935,-0.01022,-0.03738,-0.03815,-0.03174,-0.03082,-0.04562,-0.01511,-0.00702,-0.00778,-0.0116,-0.00656,-0.02182,-0.02991,-0.01617,0.00946,-0.03784
3.294,-0.00366,-0.03662,-0.04425,-0.05112,-0.03143,-0.04578,-0.01389,-0.00717,-0.00916,-0.01312,-0.00748,-0.02594,-0.03174,-0.01633,0.01038,-0.0383
3.2945,0.00137,-0.03601,-0.04562,-0.05646,-0.02884,-0.04593,-0.01144,-0.00732,-0.01114,-0.0148,-0.00931,-0.03525,-0.03387,-0.01648,0.01053,-0.03922
3.295,0.00946,-0.03525,-0.04166,-0.06638,-0.02609,-0.04547,-0.00885,-0.00793,-0.01404,-0.01724,-0.01144,-0.05066,-0.03555,-0.01755,0.00977,-0.0386
3.2955,0.01755,-0.0354,-0.03082,-0.08774,-0.02625,-0.04639,-0.00763,-0.00793,-0.01694,-0.01831,-0.01251,-0.06119,-0.03601,-0.01877,0.0116,-0.03891
3.296,0.02182,-0.03632,-0.01663,-0.10574,-0.02777,-0.04807,-0.00916,-0.00717,-0.01938,-0.01801,-0.01129,-0.05157,-0.03799,-0.01968,0.01251,-0.03845
3.2965,0.01999,-0.03647,-0.00427,-0.10696,-0.02899,-0.0499,-0.01282,-0.00534,-0.02197,-0.01724,-0.00992,-0.02426,-0.03967,-0.01999,0.01175,-0.0383
3.297,0.01617,-0.03738,0.00229,-0.09705,-0.03021,-0.04883,-0.01633,-0.00259,-0.02472,-0.01709,-0.00931,0.00671,-0.03967,-0.01968,0.00992,-0.03769
3.2975,0.01221,-0.03754,0.00168,-0.08499,-0.0322,-0.04776,-0.01846,0.00015,-0.02625,-0.01953,-0.00961,0.03357,-0.03723,-0.0206,0.00854,-0.03784
3.298,0.00717,-0.03662,-0.00488,-0.07538,-0.03342,-0.04807,-0.01862,0.00183,-0.02792,-0.02167,-0.01022,0.05371,-0.03555,-0.02151,0.00961,-0.03815
3.2985,0.00244,-0.03525,-0.01266,-0.065,-0.03357,-0.04822,-0.01694,0.00107,-0.02945,-0.02304,-0.01053,0.05844,-0.0354,-0.02075,0.01266,-0.03922
3.299,-0.00076,-0.03464,-0.01724,-0.04639,-0.03387,-0.04822,-0.01556,-0.00168,-0.03143,-0.02365,-0.01053,0.03525,-0.03632,-0.01968,0.01266,-0.03891
3.2995,0.00092,-0.03418,-0.01968,-0.02472,-0.03387,-0.04669,-0.01556,-0.00473,-0.03311,-0.02319,-0.01129,-0.00839,-0.03601,-0.01953,0.01236,-0.03952
3.3,0.00412,-0.03235,-0.02365,-0.00946,-0.03326,-0.04562,-0.01648,-0.00748,-0.03296,-0.02396,-0.01068,-0.04593,-0.03448,-0.02075,0.0119,-0.04044
3.3005,0.00519,-0.03052,-0.03098,-0.00534,-0.0325,-0.04654,-0.01633,-0.00793,-0.03281,-0.02426,-0.01007,-0.05417,-0.03494,-0.02151,0.01129,-0.04196
3.301,0.00244,-0.03098,-0.04089,-0.00275,-0.03159,-0.04852,-0.01663,-0.0061,-0.03204,-0.02457,-0.01175,-0.03235,-0.0354,-0.02121,0.00946,-0.04044
3.3015,-0.00504,-0.03204,-0.04974,0.00351,-0.03098,-0.0499,-0.01678,-0.00305,-0.03082,-0.0235,-0.01572,0.00626,-0.03448,-0.01862,0.00885,-0.03693
3.302,-0.01312,-0.03326,-0.05524,0.00839,-0.03067,-0.05066,-0.01678,-0.00198,-0.02838,-0.02151,-0.01968,0.05005,-0.03403,-0.01694,0.01022,-0.03494
3.3025,-0.01724,-0.0351,-0.0589,0.0087,-0.03082,-0.05112,-0.01755,-0.00198,-0.02228,-0.01907,-0.02213,0.08942,-0.03464,-0.01877,0.01129,-0.03433
3.303,-0.01541,-0.03784,-0.06027,0.00748,-0.03143,-0.0499,-0.01785,-0.0032,-0.01358,-0.01755,-0.02167,0.10773,-0.03601,-0.02182,0.01175,-0.03647
3.3035,-0.01251,-0.04089,-0.06165,0.00839,-0.03204,-0.04837,-0.01663,-0.00412,-0.00702,-0.01999,-0.02014,0.09613,-0.03647,-0.02304,0.01038,-0.03952
3.304,-0.01221,-0.04181,-0.06165,0.01129,-0.03265,-0.04883,-0.01312,-0.00641,-0.00488,-0.02777,-0.01511,0.06134,-0.03647,-0.02136,0.00977,-0.04257
3.3045,-0.01633,-0.04028,-0.06042,0.01511,-0.03418,-0.04959,-0.009,-0.00809,-0.00595,-0.03632,-0.00427,0.02594,-0.03479,-0.01892,0.00961,-0.04333
3.305,-0.02075,-0.0383,-0.05997,0.01633,-0.03586,-0.04929,-0.00732,-0.00778,-0.00854,-0.03937,0.0058,0.00916,-0.03357,-0.01831,0.00839,-0.04211
3.3055,-0.02289,-0.03677,-0.06088,0.01495,-0.03586,-0.04913,-0.00977,-0.0058,-0.01297,-0.03387,0.00793,0.01221,-0.03326,-0.01862,0.00671,-0.04105
3.306,-0.0209,-0.03891,-0.06012,0.01221,-0.03387,-0.05035,-0.01328,-0.00458,-0.01648,-0.02579,-0.00305,0.02197,-0.03311,-0.01892,0.00565,-0.04105
3.3065,-0.01816,-0.04318,-0.05325,0.00305,-0.03342,-0.05157,-0.01404,-0.00336,-0.01892,-0.01785,-0.02121,0.03021,-0.03418,-0.01968,0.00549,-0.0412
3.307,-0.01587,-0.04684,-0.04272,-0.01724,-0.03204,-0.05066,-0.01297,-0.00244,-0.02075,-0.00977,-0.03586,0.03708,-0.03571,-0.01907,0.00717,-0.04242
3.3075,-0.01633,-0.047,-0.03204,-0.04807,-0.03204,-0.04959,-0.01282,-0.00198,-0.02243,-0.00061,-0.04211,0.04272,-0.03479,-0.01968,0.00763,-0.04471
3.308,-0.01816,-0.04456,-0.02869,-0.08224,-0.03265,-0.04807,-0.01526,-0.00183,-0.02548,0.00717,-0.04028,0.03891,-0.03326,-0.01999,0.00671,-0.04578
3.3085,-0.02014,-0.04272,-0.03296,-0.1123,-0.03418,-0.04593,-0.01877,-0.00153,-0.02808,0.01175,-0.03342,0.01907,-0.03113,-0.01938,0.00412,-0.04501
3.309,-0.01923,-0.04257,-0.04059,-0.13168,-0.03372,-0.04395,-0.01968,-0.00153,-0.03143,0.01251,-0.02457,-0.01587,-0.03021,-0.01755,0.00336,-0.04333
3.3095,-0.01389,-0.04257,-0.0441,-0.12924,-0.03296,-0.04318,-0.0177,-0.00214,-0.03235,0.00946,-0.01587,-0.05798,-0.03006,-0.01648,0.00351,-0.04349
3.31,-0.00748,-0.04501,-0.04349,-0.09949,-0.03189,-0.04364,-0.01556,-0.00244,-0.02945,0.0061,-0.00778,-0.09811,-0.03021,-0.01617,0.00534,-0.04425
3.3105,-0.00305,-0.04807,-0.0415,-0.04562,-0.03098,-0.04501,-0.0174,-0.00168,-0.02411,0.00153,0.00031,-0.12573,-0.02991,-0.01694,0.00656,-0.04395
3.311,-0.00092,-0.04883,-0.03845,0.02457,-0.03052,-0.04547,-0.02029,-0.00046,-0.01938,-0.00275,0.0058,-0.13168,-0.03052,-0.01694,0.00687,-0.04272
3.3115,0.00336,-0.04807,-0.03311,0.0946,-0.02991,-0.04456,-0.01999,-0.00046,-0.01526,-0.00763,0.00931,-0.11261,-0.03021,-0.01694,0.00717,-0.04196
3.312,0.00885,-0.04669,-0.02701,0.12604,-0.02945,-0.04395,-0.01556,-0.00153,-0.0116,-0.01175,0.00931,-0.08316,-0.02945,-0.01541,0.00839,-0.0412
3.3125,0.01358,-0.04669,-0.01953,0.09842,-0.03052,-0.04333,-0.01114,-0.00244,-0.00946,-0.01572,0.00488,-0.06485,-0.02975,-0.01389,0.00931,-0.04059
3.313,0.01587,-0.04669,-0.01236,0.04425,-0.03082,-0.04364,-0.01022,-0.00137,-0.00885,-0.01907,-0.00214,-0.05463,-0.03021,-0.01389,0.01022,-0.04059
3.3135,0.01877,-0.04623,-0.00427,0.01984,-0.03159,-0.04486,-0.01175,0.0,-0.00885,-0.02243,-0.01175,-0.03052,-0.03036,-0.01556,0.01129,-0.03983
3.314,0.02319,-0.04501,-0.00305,0.03952,-0.03174,-0.04684,-0.01343,0.00076,-0.00916,-0.02457,-0.02106,0.01419,-0.03052,-0.01694,0.01129,-0.03769
3.3145,0.02563,-0.04547,-0.01038,0.07111,-0.03159,-0.04929,-0.01373,0.00092,-0.01068,-0.02747,-0.02487,0.04822,-0.03159,-0.01694,0.01175,-0.03525
3.315,0.02289,-0.04639,-0.02487,0.08331,-0.03143,-0.0499,-0.01389,0.00076,-0.01144,-0.02808,-0.0235,0.03647,-0.03311,-0.01556,0.01266,-0.03677
3.3155,0.01801,-0.04608,-0.03845,0.07507,-0.03159,-0.04898,-0.01495,0.00046,-0.01266,-0.02884,-0.02167,-0.00946,-0.03342,-0.01511,0.01328,-0.03967
3.316,0.01328,-0.04547,-0.0531,0.05325,-0.03326,-0.04822,-0.01495,0.00122,-0.01541,-0.0293,-0.02594,-0.05249,-0.03387,-0.01617,0.01083,-0.04318
3.3165,0.01038,-0.04532,-0.07843,0.02045,-0.03433,-0.04822,-0.01358,0.00046,-0.01846,-0.03159,-0.03433,-0.07629,-0.03403,-0.01877,0.00793,-0.0441
3.317,0.00916,-0.04669,-0.1181,-0.01831,-0.03342,-0.04883,-0.01175,-0.00061,-0.01892,-0.03418,-0.03815,-0.08942,-0.03525,-0.0206,0.0061,-0.04456
3.3175,0.00946,-0.04822,-0.15594,-0.04745,-0.03235,-0.04807,-0.01038,-0.00046,-0.0177,-0.0354,-0.03296,-0.08209,-0.03586,-0.02228,0.00519,-0.04547
3.318,0.00946,-0.04807,-0.1651,-0.05508,-0.02991,-0.04807,-0.01022,-0.00031,-0.01678,-0.03387,-0.02029,-0.03281,-0.03433,-0.02289,0.00458,-0.04669
3.3185,0.00412,-0.04791,-0.13596,-0.0444,-0.02808,-0.04654,-0.01175,-0.00122,-0.01633,-0.02945,-0.00549,0.05341,-0.03342,-0.0235,0.00519,-0.04654
3.319,-0.00626,-0.0473,-0.08743,-0.03067,-0.02853,-0.04593,-0.01312,-0.00305,-0.01358,-0.02533,0.00443,0.1358,-0.03479,-0.02304,0.00641,-0.04501
3.3195,-0.01663,-0.04517,-0.04288,-0.02472,-0.02975,-0.04517,-0.01358,-0.00473,-0.01022,-0.02518,0.01053,0.18005,-0.03586,-0.02045,0.01038,-0.04379
3.32,-0.02274,-0.04181,-0.01312,-0.0322,-0.03082,-0.04486,-0.01373,-0.00595,-0.00916,-0.02808,0.0119,0.18509,-0.03555,-0.01984,0.01175,-0.04257
3.3205,-0.0238,-0.04013,0.0061,-0.0528,-0.03174,-0.04532,-0.01404,-0.00732,-0.01175,-0.03021,0.01251,0.16327,-0.03403,-0.01984,0.01129,-0.04257
3.321,-0.02365,-0.03845,0.0177,-0.07309,-0.0296,-0.04593,-0.01389,-0.009,-0.01282,-0.03052,0.01175,0.12344,-0.03265,-0.02045,0.00992,-0.04181
3.3215,-0.02335,-0.03571,0.0235,-0.08026,-0.0296,-0.04608,-0.01434,-0.00717,-0.0116,-0.02777,0.00687,0.07462,-0.03174,-0.0209,0.00839,-0.04166
3.322,-0.02106,-0.03113,0.0235,-0.0824,-0.02991,-0.047,-0.01404,-0.00427,-0.00946,-0.02625,-0.0032,0.02762,-0.03235,-0.02045,0.00778,-0.04288
3.3225,-0.01495,-0.0264,0.02228,-0.09125,-0.03036,-0.04639,-0.01282,-0.00244,-0.00916,-0.02533,-0.01709,-0.00473,-0.03387,-0.01923,0.00565,-0.04593
3.323,-0.00717,-0.02594,0.0206,-0.09827,-0.03006,-0.04547,-0.01114,-0.00214,-0.01144,-0.02502,-0.02792,-0.0264,-0.0351,-0.01831,0.00412,-0.04776
3.3235,-0.00473,-0.02823,0.01648,-0.08972,-0.03036,-0.0444,-0.01022,-0.00305,-0.01663,-0.02548,-0.03082,-0.047,-0.03494,-0.01801,0.00412,-0.04868
3.324,-0.00977,-0.02808,0.00992,-0.06592,-0.03204,-0.04333,-0.01068,-0.00305,-0.0238,-0.02502,-0.02731,-0.06744,-0.03387,-0.01785,0.00519,-0.04776
3.3245,-0.01648,-0.0238,0.00275,-0.03952,-0.03296,-0.04303,-0.01099,-0.00168,-0.03235,-0.02853,-0.02563,-0.0766,-0.03281,-0.01785,0.00595,-0.04715
3.325,-0.02121,-0.01572,-0.00427,-0.01373,-0.03204,-0.04349,-0.0116,-0.00031,-0.03952,-0.0354,-0.0322,-0.06653,-0.0322,-0.01831,0.00641,-0.04654
3.3255,-0.02167,-0.00793,-0.01236,0.02106,-0.03006,-0.04425,-0.01251,-0.00031,-0.04166,-0.04196,-0.04623,-0.04715,-0.03113,-0.01801,0.00549,-0.04623
3.326,-0.01877,-0.00427,-0.01938,0.06561,-0.0293,-0.04486,-0.01465,-0.00153,-0.03998,-0.04608,-0.05829,-0.03555,-0.02975,-0.0177,0.00443,-0.04486
3.3265,-0.01602,-0.00793,-0.02396,0.09201,-0.03082,-0.04593,-0.01663,-0.00229,-0.03647,-0.04807,-0.06241,-0.04395,-0.02991,-0.01678,0.0032,-0.04364
3.327,-0.01282,-0.01633,-0.0264,0.07187,-0.03265,-0.04547,-0.01633,-0.00244,-0.03204,-0.04959,-0.05966,-0.06226,-0.03052,-0.01587,0.00381,-0.04318
3.3275,-0.00992,-0.0238,-0.0293,0.02106,-0.0322,-0.04562,-0.01465,-0.00198,-0.02823,-0.05692,-0.04868,-0.06882,-0.03036,-0.01541,0.0061,-0.04318
3.328,-0.00687,-0.03067,-0.03769,-0.01968,-0.03082,-0.04608,-0.01282,-0.00275,-0.02457,-0.07111,-0.03189,-0.05005,-0.0293,-0.01617,0.00839,-0.0441
3.3285,-0.0061,-0.03693,-0.04959,-0.03159,-0.03082,-0.0473,-0.01236,-0.00351,-0.01953,-0.08453,-0.01541,-0.01801,-0.02914,-0.01938,0.00946,-0.04562
3.329,-0.00687,-0.04364,-0.05707,-0.01984,-0.03281,-0.04807,-0.01358,-0.00412,-0.01648,-0.08575,-0.0061,0.00626,-0.03036,-0.0209,0.00961,-0.04608
3.3295,-0.00641,-0.04547,-0.05676,0.01129,-0.03281,-0.047,-0.01328,-0.0032,-0.01526,-0.07492,-0.00504,0.01953,-0.03098,-0.0209,0.00946,-0.04562
3.33,-0.00168,-0.03708,-0.05142,0.05371,-0.03113,-0.04608,-0.01175,-0.00107,-0.0145,-0.05783,-0.00916,0.02686,-0.03098,-0.01816,0.00839,-0.0441
3.3305,0.00397,-0.02228,-0.04059,0.09506,-0.02869,-0.04578,-0.01114,0.00122,-0.01328,-0.03998,-0.01236,0.03021,-0.03143,-0.01556,0.00763,-0.04303
3.331,0.00687,-0.01511,-0.02975,0.12253,-0.02716,-0.04715,-0.01221,0.00061,-0.01297,-0.02457,-0.0145,0.02441,-0.03189,-0.01312,0.00702,-0.0415
3.3315,0.00687,-0.0267,-0.01968,0.12421,-0.02792,-0.04593,-0.01373,-0.0029,-0.01144,-0.01083,-0.0206,0.0145,-0.03098,-0.0119,0.00717,-0.04196
3.332,0.00565,-0.04974,-0.01526,0.09308,-0.02914,-0.04425,-0.01556,-0.00641,-0.01007,0.00061,-0.03448,0.01328,-0.02945,-0.01282,0.00793,-0.04257
3.3325,0.00504,-0.06775,-0.01389,0.03952,-0.03021,-0.04333,-0.0174,-0.00702,-0.00824,0.01129,-0.05325,0.02167,-0.02914,-0.0148,0.00763,-0.04288
3.333,0.00458,-0.07446,-0.01282,-0.00336,-0.03098,-0.04532,-0.01938,-0.00488,-0.00595,0.02045,-0.06592,0.03098,-0.0293,-0.01602,0.00763,-0.04349
3.3335,0.00443,-0.07507,-0.01022,-0.01282,-0.03098,-0.04883,-0.02014,-0.00534,-0.00153,0.02777,-0.06638,0.03113,-0.02899,-0.01602,0.00656,-0.0444
3.334,0.00259,-0.07446,-0.00732,0.00229,-0.03098,-0.05173,-0.01877,-0.00748,0.00458,0.03342,-0.05936,0.02243,-0.02869,-0.01617,0.00549,-0.04456
3.3345,0.00137,-0.07202,-0.00504,0.02197,-0.03067,-0.05234,-0.01755,-0.00793,0.00885,0.04044,-0.05157,0.01495,-0.02823,-0.01648,0.0058,-0.04364
3.335,0.00153,-0.06775,-0.00595,0.04364,-0.03143,-0.05096,-0.01678,-0.0061,0.00916,0.04807,-0.0441,0.01266,-0.03067,-0.01709,0.00687,-0.04196
3.3355,0.00259,-0.0621,-0.01419,0.07538,-0.03159,-0.05127,-0.01633,-0.00397,0.0058,0.05524,-0.03571,0.01312,-0.03189,-0.01801,0.00809,-0.04211
3.336,0.00259,-0.05783,-0.02945,0.11459,-0.03281,-0.05157,-0.01526,-0.00229,0.00198,0.05753,-0.02579,0.01129,-0.03204,-0.02045,0.00671,-0.04166
3.3365,-0.00015,-0.05707,-0.04761,0.13763,-0.03357,-0.05203,-0.01434,-0.00015,-0.00229,0.05219,-0.01877,0.00381,-0.0325,-0.02228,0.00519,-0.04196
3.337,-0.00473,-0.05692,-0.05951,0.11703,-0.03357,-0.05188,-0.01328,0.00046,-0.009,0.04333,-0.01617,-0.00671,-0.03296,-0.02228,0.00549,-0.04211
3.3375,-0.00946,-0.05539,-0.05905,0.04944,-0.03357,-0.05264,-0.01266,0.00122,-0.01617,0.03448,-0.01556,-0.01709,-0.0325,-0.02106,0.00763,-0.04135
3.338,-0.01236,-0.05173,-0.05081,-0.0351,-0.03418,-0.05219,-0.01312,0.00076,-0.0238,0.02747,-0.01419,-0.02106,-0.03113,-0.02045,0.00931,-0.04013
3.3385,-0.01297,-0.04593,-0.04227,-0.09033,-0.03571,-0.05249,-0.01389,0.00015,-0.02792,0.02213,-0.00885,-0.01709,-0.03113,-0.01953,0.00946,-0.03876
3.339,-0.01221,-0.03845,-0.03647,-0.09766,-0.0351,-0.05142,-0.01373,-0.00153,-0.02899,0.0174,-0.00259,-0.01083,-0.03113,-0.01877,0.00946,-0.03906
3.3395,-0.00809,-0.03098,-0.03387,-0.08453,-0.03342,-0.05096,-0.01297,-0.00244,-0.02884,0.01572,0.00122,-0.00732,-0.03067,-0.01846,0.01114,-0.04013
3.34,0.00031,-0.02899,-0.03387,-0.08759,-0.03159,-0.0502,-0.0119,-0.00198,-0.02823,0.01663,0.00015,-0.00687,-0.0293,-0.01709,0.01144,-0.0412
3.3405,0.01053,-0.03296,-0.03571,-0.11124,-0.03098,-0.05005,-0.01144,-0.00122,-0.02884,0.02106,-0.00153,-0.00717,-0.02808,-0.01694,0.01022,-0.04227
3.341,0.01938,-0.03586,-0.03784,-0.13016,-0.03021,-0.04913,-0.01236,-0.00229,-0.02945,0.02625,0.00198,-0.00763,-0.02884,-0.01709,0.00824,-0.04089
3.3415,0.02487,-0.03113,-0.0386,-0.13504,-0.02899,-0.04868,-0.01251,-0.00427,-0.02609,0.02579,0.0087,-0.01068,-0.02991,-0.01678,0.00824,-0.03983
3.342,0.0267,-0.02182,-0.03891,-0.14252,-0.02838,-0.04868,-0.01389,-0.00534,-0.02106,0.01724,0.01297,-0.01511,-0.03036,-0.01846,0.00885,-0.04044
3.3425,0.02563,-0.01846,-0.04074,-0.16708,-0.0293,-0.04745,-0.01389,-0.00534,-0.01587,0.00351,0.01602,-0.01541,-0.03006,-0.01907,0.00977,-0.04196
3.343,0.01999,-0.02396,-0.04349,-0.19928,-0.03067,-0.04715,-0.01266,-0.00504,-0.01282,-0.01022,0.02045,-0.01038,-0.02991,-0.01968,0.01022,-0.04318
3.3435,0.01114,-0.03036,-0.04456,-0.22339,-0.03098,-0.047,-0.01038,-0.00366,-0.01221,-0.01953,0.02686,-0.009,-0.02975,-0.01923,0.01053,-0.04425
3.344,0.00198,-0.03174,-0.0412,-0.23376,-0.03098,-0.04715,-0.00687,-0.00275,-0.01144,-0.02716,0.03357,-0.02808,-0.02975,-0.01801,0.01251,-0.04471
3.3445,-0.00519,-0.03036,-0.03571,-0.21942,-0.03052,-0.04852,-0.00534,-0.00381,-0.01099,-0.03448,0.03754,-0.0647,-0.02991,-0.01785,0.01373,-0.04471
3.345,-0.01099,-0.03159,-0.03464,-0.16876,-0.03082,-0.04883,-0.00824,-0.00504,-0.01068,-0.04059,0.03799,-0.08911,-0.03006,-0.01862,0.01343,-0.04379
3.3455,-0.01801,-0.0386,-0.03952,-0.08469,-0.03143,-0.05051,-0.01617,-0.00549,-0.01099,-0.0441,0.03632,-0.07324,-0.03082,-0.01831,0.01175,-0.04257
3.346,-0.0238,-0.04654,-0.04623,0.02441,-0.03159,-0.04761,-0.0264,-0.00549,-0.01068,-0.04532,0.03616,-0.02609,-0.03052,-0.01907,0.00854,-0.04318
3.3465,-0.02243,-0.05615,-0.04669,0.1503,-0.03189,-0.04944,-0.03082,-0.00549,-0.009,-0.04593,0.03845,0.02243,-0.03159,-0.0206,0.00687,-0.04379
3.347,-0.0148,-0.06699,-0.04105,0.25223,-0.03204,-0.05035,-0.02563,-0.0058,-0.00595,-0.04852,0.04044,0.05768,-0.03372,-0.02228,0.00778,-0.04318
3.3475,-0.00534,-0.07843,-0.03494,0.27267,-0.03281,-0.05188,-0.01617,-0.0061,-0.00412,-0.05081,0.03937,0.07477,-0.03525,-0.02213,0.01022,-0.04196
3.348,0.00092,-0.08743,-0.03143,0.2066,-0.03326,-0.05051,-0.00977,-0.00626,-0.00305,-0.05432,0.03479,0.07645,-0.03555,-0.01984,0.01099,-0.04272
3.3485,0.00366,-0.0914,-0.03052,0.11917,-0.03326,-0.04822,-0.00793,-0.00473,-0.00183,-0.06134,0.03128,0.0676,-0.0354,-0.01816,0.01053,-0.04425
3.349,0.0029,-0.0882,-0.03021,0.07095,-0.03311,-0.0441,-0.00977,-0.00366,-0.00015,-0.07294,0.03571,0.05661,-0.03601,-0.01755,0.01053,-0.04517
3.3495,0.00061,-0.08194,-0.03098,0.05447,-0.03143,-0.04089,-0.01175,-0.00366,-0.00275,-0.08392,0.04089,0.04395,-0.03647,-0.01846,0.01114,-0.0444
3.35,-0.0029,-0.07538,-0.03403,0.03296,-0.03021,-0.04013,-0.01099,-0.00305,-0.00763,-0.08682,0.02625,0.02899,-0.03586,-0.01953,0.01129,-0.04272
3.3505,-0.00961,-0.06851,-0.03525,0.00275,-0.03067,-0.04257,-0.00992,-0.00137,-0.01328,-0.07965,-0.01572,0.01358,-0.03464,-0.02106,0.00977,-0.04196
3.351,-0.01648,-0.05981,-0.03601,-0.01877,-0.02991,-0.04562,-0.01175,0.00015,-0.01602,-0.06607,-0.06516,-0.00107,-0.03387,-0.02075,0.00793,-0.04074
3.3515,-0.02197,-0.05127,-0.03403,-0.03479,-0.03067,-0.04684,-0.01511,0.0,-0.01572,-0.056,-0.09415,-0.01846,-0.03281,-0.01999,0.0087,-0.04089
3.352,-0.02243,-0.04471,-0.03265,-0.05173,-0.03082,-0.04501,-0.01709,-0.00122,-0.01312,-0.04715,-0.09109,-0.03418,-0.03143,-0.01877,0.01007,-0.04013
3.3525,-0.01862,-0.04074,-0.03159,-0.05692,-0.03174,-0.04196,-0.01663,-0.00229,-0.01129,-0.03677,-0.06714,-0.03738,-0.0296,-0.01816,0.0087,-0.04059
3.353,-0.01358,-0.03723,-0.03235,-0.04044,-0.03159,-0.03952,-0.01511,-0.00336,-0.01007,-0.02533,-0.03784,-0.02792,-0.02655,-0.01801,0.00687,-0.04028
3.3535,-0.01053,-0.03296,-0.03326,-0.02579,-0.03281,-0.0386,-0.01526,-0.00443,-0.01083,-0.01633,-0.01419,-0.01755,-0.02625,-0.01785,0.0058,-0.04013
3.354,-0.01144,-0.02869,-0.03479,-0.03403,-0.03326,-0.03983,-0.01526,-0.00458,-0.01404,-0.00839,0.00244,-0.01358,-0.02838,-0.0177,0.00595,-0.03922
3.3545,-0.0145,-0.02625,-0.03464,-0.05005,-0.03235,-0.04089,-0.01526,-0.00519,-0.01587,-0.00244,0.00595,-0.01556,-0.03174,-0.01801,0.00824,-0.03998
3.355,-0.01572,-0.02457,-0.03159,-0.04883,-0.03174,-0.04089,-0.01495,-0.00549,-0.01526,0.00015,-0.00778,-0.0235,-0.03311,-0.01907,0.00931,-0.04074
3.3555,-0.01419,-0.01984,-0.02838,-0.03601,-0.03052,-0.04074,-0.01434,-0.00504,-0.01511,-0.00137,-0.03845,-0.03891,-0.03296,-0.01984,0.0087,-0.04135
3.356,-0.01053,-0.01068,-0.02548,-0.02991,-0.03021,-0.04272,-0.01419,-0.00397,-0.01694,-0.00366,-0.07339,-0.05096,-0.03387,-0.02014,0.00809,-0.04196
3.3565,-0.00748,0.00107,-0.02518,-0.03448,-0.03036,-0.04379,-0.01465,-0.00259,-0.01877,-0.0061,-0.09567,-0.04059,-0.03586,-0.01846,0.00763,-0.04211
3.357,-0.00809,0.0116,-0.02609,-0.0383,-0.03143,-0.04578,-0.01541,-0.00214,-0.01877,-0.00946,-0.09659,-0.00107,-0.03723,-0.01755,0.00641,-0.0412
3.3575,-0.01511,0.01251,-0.03113,-0.03387,-0.03311,-0.0473,-0.01541,-0.00244,-0.01846,-0.0174,-0.07294,0.05051,-0.03769,-0.01755,0.0058,-0.04044
3.358,-0.02548,0.00214,-0.04944,-0.02243,-0.03403,-0.05005,-0.01511,-0.00244,-0.01862,-0.02747,-0.03342,0.09323,-0.03723,-0.01663,0.00565,-0.04089
3.3585,-0.03311,-0.01282,-0.08621,-0.01053,-0.03479,-0.05371,-0.01526,-0.00107,-0.01785,-0.03525,0.00397,0.11597,-0.03601,-0.01633,0.00626,-0.0412
3.359,-0.03479,-0.02411,-0.12604,-0.00122,-0.03326,-0.05524,-0.01404,-0.00031,-0.01038,-0.0383,0.01846,0.11627,-0.03448,-0.01678,0.00641,-0.04135
3.3595,-0.03067,-0.03281,-0.13657,0.00336,-0.03189,-0.05402,-0.01144,-0.00168,0.00397,-0.0383,0.00854,0.09338,-0.03296,-0.01633,0.00519,-0.04089
3.36,-0.0264,-0.04135,-0.1091,0.00778,-0.03052,-0.05219,-0.01038,-0.00458,0.01907,-0.03372,-0.01266,0.05951,-0.03433,-0.01556,0.00397,-0.04196
3.3605,-0.02258,-0.05096,-0.06241,0.01038,-0.02975,-0.0502,-0.01083,-0.00656,0.0296,-0.02701,-0.03036,0.03006,-0.03571,-0.01678,0.00473,-0.04211
3.361,-0.01663,-0.05814,-0.0264,0.00778,-0.03036,-0.04944,-0.01282,-0.00595,0.03571,-0.01602,-0.03159,0.01404,-0.03677,-0.01846,0.00687,-0.04166
3.3615,-0.00687,-0.05997,-0.00931,-0.00961,-0.03036,-0.05035,-0.01373,-0.00427,0.03876,-0.00366,-0.00778,0.009,-0.03662,-0.01999,0.00916,-0.03952
3.362,0.00381,-0.05875,-0.00107,-0.05249,-0.0293,-0.05066,-0.01297,-0.00427,0.03983,0.009,0.0412,0.00717,-0.03632,-0.02197,0.00931,-0.03647
3.3625,0.01129,-0.05646,0.00839,-0.12009,-0.0293,-0.05035,-0.01129,-0.00626,0.03738,0.0177,0.09048,0.00473,-0.03616,-0.0235,0.00809,-0.03525
3.363,0.01175,-0.0528,0.01755,-0.18936,-0.03036,-0.05035,-0.00977,-0.00565,0.02914,0.02304,0.1004,0.00259,-0.03571,-0.02487,0.00656,-0.03601
3.3635,0.00748,-0.04791,0.02319,-0.22903,-0.03235,-0.05081,-0.00992,-0.00214,0.01862,0.0238,0.06271,0.00031,-0.03494,-0.02548,0.00687,-0.03876
3.364,0.00092,-0.04333,0.02289,-0.22812,-0.03281,-0.05173,-0.01099,0.00015,0.0116,0.01694,0.01251,-0.00458,-0.0351,-0.02441,0.00732,-0.04211
3.3645,-0.00443,-0.03723,0.00854,-0.20584,-0.03326,-0.05463,-0.01236,-0.00015,0.01083,-0.00153,-0.01526,-0.00839,-0.03647,-0.0235,0.00748,-0.04318
3.365,-0.00931,-0.03098,-0.03235,-0.18631,-0.03418,-0.05585,-0.01129,-0.00153,0.01221,-0.03006,-0.01709,-0.0119,-0.03525,-0.02457,0.00824,-0.04349
3.3655,-0.01358,-0.0267,-0.09583,-0.15915,-0.03387,-0.05539,-0.01083,-0.00183,0.00931,-0.05951,-0.01083,-0.01419,-0.03113,-0.02518,0.00839,-0.04364
3.366,-0.01602,-0.02701,-0.16144,-0.07721,-0.03342,-0.05295,-0.01099,-0.00015,0.00198,-0.07858,-0.00488,-0.01556,-0.02899,-0.02472,0.00824,-0.0441
3.3665,-0.01633,-0.03098,-0.20447,0.09247,-0.03265,-0.05035,-0.01114,0.00122,-0.00397,-0.08514,-0.00488,-0.01526,-0.02991,-0.02274,0.00748,-0.04349
3.367,-0.01495,-0.03647,-0.19928,0.28625,-0.03265,-0.04898,-0.01068,0.0032,-0.00305,-0.08438,-0.01709,-0.01266,-0.03098,-0.02045,0.00809,-0.04272
3.3675,-0.01114,-0.04395,-0.13596,0.37476,-0.03372,-0.04883,-0.01007,0.00473,0.00275,-0.08026,-0.04196,-0.009,-0.03052,-0.0206,0.00885,-0.0415
3.368,-0.00458,-0.05234,-0.03952,0.31662,-0.03281,-0.04883,-0.01053,0.00366,0.00671,-0.07523,-0.06607,-0.00671,-0.02914,-0.02136,0.00931,-0.04059
3.3685,0.00275,-0.05951,0.04135,0.21271,-0.03235,-0.04761,-0.01297,0.00107,0.00259,-0.06973,-0.07675,-0.00565,-0.02808,-0.02228,0.00885,-0.03967
3.369,0.00671,-0.06638,0.08026,0.16327,-0.03189,-0.04684,-0.01465,-0.00183,-0.0087,-0.05981,-0.07248,-0.00504,-0.02853,-0.02151,0.00656,-0.03983
3.3695,0.00778,-0.07141,0.08179,0.15808,-0.03052,-0.04578,-0.0145,-0.00336,-0.02075,-0.04883,-0.06454,-0.00534,-0.02914,-0.02029,0.00458,-0.0412
3.37,0.00946,-0.07339,0.06866,0.13519,-0.0293,-0.0444,-0.01266,-0.00443,-0.0293,-0.03464,-0.06287,-0.00702,-0.03006,-0.0206,0.00381,-0.04181
3.3705,0.01175,-0.06958,0.0502,0.07553,-0.02777,-0.04333,-0.01236,-0.00595,-0.03616,-0.02274,-0.06638,-0.00961,-0.03067,-0.01984,0.00412,-0.04135
3.371,0.01389,-0.06042,0.02975,0.00519,-0.02655,-0.04318,-0.0145,-0.00443,-0.0441,-0.01343,-0.0679,-0.01144,-0.03021,-0.01831,0.00488,-0.0412
3.3715,0.0116,-0.04837,0.01343,-0.05692,-0.02792,-0.04333,-0.01709,-0.00183,-0.05325,-0.00687,-0.0621,-0.01068,-0.02975,-0.01694,0.00641,-0.04089
3.372,0.00443,-0.03998,-0.00076,-0.10666,-0.03006,-0.04318,-0.0174,0.00092,-0.05585,-0.00473,-0.05478,-0.00824,-0.03021,-0.01663,0.00717,-0.04059
3.3725,-0.00198,-0.03845,-0.02884,-0.13855,-0.0296,-0.04364,-0.01678,0.00061,-0.04822,-0.00992,-0.047,-0.0058,-0.02991,-0.01694,0.00687,-0.04028
3.373,-0.00214,-0.0412,-0.07889,-0.14709,-0.03021,-0.04349,-0.01572,-0.00198,-0.03571,-0.01907,-0.03387,-0.01099,-0.0296,-0.01678,0.00671,-0.03967
3.3735,0.00183,-0.04196,-0.12863,-0.13077,-0.02945,-0.04288,-0.01511,-0.00275,-0.02914,-0.02441,-0.01175,-0.02319,-0.02853,-0.01678,0.00534,-0.04074
3.374,0.00443,-0.03998,-0.14191,-0.08942,-0.02975,-0.04211,-0.01495,-0.00198,-0.03113,-0.02777,0.01419,-0.03082,-0.02792,-0.01785,0.00397,-0.04227
3.3745,0.00458,-0.03922,-0.10849,-0.03113,-0.03082,-0.04166,-0.01465,-0.00107,-0.03418,-0.03555,0.03143,-0.02243,-0.02762,-0.02045,0.0032,-0.04395
3.375,0.00412,-0.04242,-0.05692,0.0209,-0.03128,-0.0415,-0.01495,-0.00153,-0.03433,-0.04929,0.03555,-0.00214,-0.02792,-0.02182,0.00259,-0.04333
3.3755,0.00626,-0.04684,-0.01541,0.05005,-0.03296,-0.04303,-0.01556,-0.0029,-0.02777,-0.06592,0.02823,0.01373,-0.02991,-0.02167,0.00412,-0.04166
3.376,0.01343,-0.04395,0.00916,0.0647,-0.03418,-0.04639,-0.01541,-0.00381,-0.01663,-0.07919,0.01831,0.01709,-0.03067,-0.02029,0.00534,-0.04196
3.3765,0.02441,-0.02975,0.02243,0.07767,-0.03387,-0.04807,-0.01434,-0.00366,-0.00702,-0.0853,0.00793,0.01114,-0.03082,-0.01938,0.00626,-0.04395
3.377,0.03448,-0.01312,0.0293,0.08621,-0.03372,-0.04791,-0.01404,-0.00305,-0.00336,-0.08499,-0.00168,0.00458,-0.03174,-0.01938,0.00671,-0.04471
3.3775,0.0383,-0.00992,0.03799,0.08133,-0.03281,-0.04715,-0.01511,-0.0029,-0.00656,-0.07416,-0.01358,0.00015,-0.03342,-0.01923,0.00595,-0.04501
3.378,0.03571,-0.02365,0.0563,0.07523,-0.03372,-0.04807,-0.01587,-0.00397,-0.01038,-0.0473,-0.03098,-0.0029,-0.03586,-0.01678,0.00519,-0.0444
3.3785,0.03296,-0.03876,0.07629,0.08759,-0.03448,-0.04868,-0.01556,-0.00427,-0.01053,-0.00824,-0.05219,-0.0058,-0.03525,-0.01419,0.00504,-0.04425
3.379,0.03281,-0.04135,0.07721,0.11429,-0.03479,-0.05112,-0.01511,-0.00168,-0.00793,0.03189,-0.06912,-0.0061,-0.03342,-0.01099,0.00641,-0.04547
3.3795,0.03372,-0.03677,0.0473,0.12878,-0.0351,-0.05371,-0.0148,0.00168,-0.00885,0.06317,-0.07172,-0.00458,-0.03159,-0.00977,0.00961,-0.04562
3.38,0.03342,-0.0412,-0.00717,0.11627,-0.03571,-0.05569,-0.01465,0.00488,-0.01358,0.08194,-0.06256,-0.00504,-0.03006,-0.01205,0.01114,-0.04333
3.3805,0.02975,-0.05859,-0.06271,0.0972,-0.03555,-0.05508,-0.01389,0.00549,-0.01801,0.08713,-0.05188,-0.009,-0.02991,-0.01587,0.01007,-0.0412
3.381,0.0235,-0.08209,-0.09125,0.08972,-0.03662,-0.05371,-0.01266,0.00534,-0.01816,0.08484,-0.04608,-0.01404,-0.03082,-0.01846,0.00977,-0.04135
3.3815,0.01694,-0.10178,-0.0827,0.06821,-0.03586,-0.05096,-0.01175,0.00473,-0.0174,0.07828,-0.03922,-0.01587,-0.03174,-0.01846,0.01083,-0.04196
3.382,0.01007,-0.11215,-0.05386,0.00397,-0.03418,-0.04883,-0.01007,0.00427,-0.01846,0.06821,-0.02319,-0.01617,-0.03143,-0.01877,0.01205,-0.04211
3.3825,0.00397,-0.1091,-0.02502,-0.0824,-0.03418,-0.04684,-0.01068,0.00244,-0.02182,0.05875,0.00061,-0.0177,-0.02991,-0.01877,0.01007,-0.04013
3.383,-0.00183,-0.09735,-0.0087,-0.14938,-0.03418,-0.04349,-0.01343,0.00015,-0.02655,0.05432,0.01907,-0.01938,-0.02869,-0.02029,0.00809,-0.03967
3.3835,-0.0058,-0.0824,-0.00031,-0.19287,-0.03433,-0.04059,-0.01663,-0.00137,-0.03204,0.05341,0.02914,-0.01709,-0.02899,-0.02197,0.00748,-0.04074
3.384,-0.00687,-0.06729,0.00092,-0.22873,-0.03387,-0.03876,-0.01846,-0.00122,-0.03677,0.05447,0.0351,-0.00809,-0.03159,-0.02335,0.00839,-0.04181
3.3845,-0.00687,-0.0473,-0.01068,-0.24246,-0.03326,-0.0386,-0.01785,-0.00046,-0.03738,0.05249,0.03922,0.00626,-0.03464,-0.02365,0.0087,-0.04288
3.385,-0.00732,-0.02258,-0.04272,-0.22171,-0.03204,-0.03891,-0.01572,-0.00061,-0.03159,0.04608,0.04013,0.01816,-0.03601,-0.02243,0.00793,-0.0441
3.3855,-0.00885,-0.00015,-0.09079,-0.18585,-0.0325,-0.03952,-0.0145,-0.0029,-0.02441,0.03372,0.03784,0.02258,-0.03586,-0.01968,0.0061,-0.0441
3.386,-0.00824,0.01404,-0.12741,-0.15518,-0.03433,-0.04074,-0.01511,-0.00595,-0.02151,0.01419,0.03799,0.01968,-0.03372,-0.01724,0.0058,-0.04349
3.3865,-0.0032,0.01862,-0.12711,-0.11017,-0.03662,-0.04196,-0.01587,-0.00854,-0.02365,-0.01205,0.04303,0.01587,-0.03113,-0.01648,0.0058,-0.04227
3.387,-0.00061,0.01968,-0.09766,-0.02411,-0.03784,-0.04379,-0.01617,-0.01038,-0.02609,-0.04028,0.04471,0.01328,-0.03143,-0.01602,0.00473,-0.04242
3.3875,-0.00839,0.02441,-0.06805,0.06775,-0.03799,-0.04318,-0.01678,-0.0116,-0.02243,-0.06378,0.03769,0.0116,-0.03128,-0.01465,0.00458,-0.04379
3.388,-0.02533,0.0386,-0.05859,0.09232,-0.03616,-0.04089,-0.01648,-0.01099,-0.0116,-0.07584,0.02151,0.00748,-0.03235,-0.01465,0.00458,-0.04578
3.3885,-0.03967,0.05707,-0.06668,0.03586,-0.03342,-0.03906,-0.01556,-0.00946,0.00031,-0.07584,0.00183,0.00244,-0.03235,-0.01556,0.00427,-0.04562
3.389,-0.04486,0.06851,-0.08179,-0.03555,-0.03189,-0.04044,-0.01526,-0.00671,0.00748,-0.06699,-0.01678,-0.00122,-0.0322,-0.01617,0.00412,-0.04471
3.3895,-0.04318,0.06561,-0.09613,-0.06393,-0.03189,-0.0444,-0.01511,-0.00443,0.00824,-0.05386,-0.03159,-0.00214,-0.03159,-0.01373,0.00641,-0.04379
3.39,-0.03952,0.04883,-0.09918,-0.0563,-0.03143,-0.04837,-0.01511,-0.00397,0.00351,-0.03937,-0.03967,-0.00015,-0.03143,-0.01068,0.00961,-0.04242
3.3905,-0.03738,0.02319,-0.08621,-0.05066,-0.03189,-0.05264,-0.01511,-0.00534,-0.00244,-0.02655,-0.04211,0.00092,-0.03189,-0.00916,0.01022,-0.04227
3.391,-0.03662,-0.00656,-0.06058,-0.06363,-0.0325,-0.0589,-0.01495,-0.00778,-0.00229,-0.01373,-0.04257,-0.00031,-0.0325,-0.00961,0.00977,-0.04211
3.3915,-0.03784,-0.03296,-0.03738,-0.07416,-0.03372,-0.06638,-0.01526,-0.00778,0.00641,-0.00015,-0.04135,-0.0032,-0.03159,-0.01129,0.00977,-0.04227
3.392,-0.0415,-0.04944,-0.02716,-0.05707,-0.03479,-0.07141,-0.01572,-0.00458,0.02121,0.0145,-0.03983,-0.00702,-0.03082,-0.01373,0.01099,-0.04349
3.3925,-0.04303,-0.05402,-0.03174,-0.02197,-0.03418,-0.07141,-0.01541,-0.00183,0.03265,0.02747,-0.03677,-0.01038,-0.03036,-0.01511,0.0116,-0.04593
3.393,-0.03769,-0.05142,-0.04242,0.00107,-0.03143,-0.0676,-0.01617,-0.00137,0.03357,0.03479,-0.02853,-0.01175,-0.03128,-0.01617,0.01236,-0.04501
3.3935,-0.02518,-0.04684,-0.04959,0.00992,-0.02869,-0.06134,-0.01633,-0.00305,0.02029,0.03738,-0.01816,-0.01328,-0.03265,-0.0174,0.01236,-0.04211
3.394,-0.0174,-0.0441,-0.05035,0.02899,-0.02762,-0.05432,-0.0174,-0.00412,-0.00519,0.03296,-0.01251,-0.01511,-0.03296,-0.01877,0.0119,-0.04166
3.3945,-0.01862,-0.0473,-0.04074,0.06592,-0.02792,-0.04791,-0.01785,-0.00336,-0.03372,0.02243,-0.01877,-0.01633,-0.03342,-0.01938,0.01053,-0.04272
3.395,-0.02609,-0.05539,-0.02167,0.1001,-0.02869,-0.04456,-0.01648,-0.0029,-0.05341,0.00549,-0.03204,-0.0145,-0.03403,-0.01968,0.00931,-0.0444
3.3955,-0.03128,-0.06104,-0.00198,0.1123,-0.02869,-0.04318,-0.01526,-0.0032,-0.05707,-0.01663,-0.03937,-0.01083,-0.03601,-0.02029,0.009,-0.04562
3.396,-0.03281,-0.06012,0.00595,0.10437,-0.02869,-0.04242,-0.0145,-0.00488,-0.05005,-0.03616,-0.03723,-0.00885,-0.03693,-0.02151,0.00931,-0.04745
3.3965,-0.03433,-0.05539,-0.0029,0.08026,-0.02853,-0.04044,-0.01419,-0.0058,-0.04272,-0.0473,-0.02747,-0.01144,-0.03708,-0.02258,0.009,-0.04944
3.397,-0.0386,-0.05508,-0.01892,0.04013,-0.02762,-0.03693,-0.01419,-0.00626,-0.03922,-0.04898,-0.00259,-0.01465,-0.03662,-0.02319,0.00793,-0.04974
3.3975,-0.04028,-0.06027,-0.03326,-0.0058,-0.02563,-0.03281,-0.01373,-0.00641,-0.03616,-0.04684,0.04425,-0.01511,-0.03494,-0.02136,0.00671,-0.04837
3.398,-0.03464,-0.06607,-0.04486,-0.03876,-0.02411,-0.03021,-0.01343,-0.00549,-0.03281,-0.04532,0.09537,-0.01083,-0.03387,-0.02045,0.00748,-0.04654
3.3985,-0.02365,-0.06638,-0.05325,-0.05569,-0.02518,-0.03189,-0.01221,-0.00366,-0.03006,-0.03952,0.11414,-0.00473,-0.03387,-0.02075,0.00793,-0.04456
3.399,-0.01526,-0.06119,-0.05966,-0.07553,-0.02686,-0.03738,-0.00931,-0.00061,-0.02853,-0.02411,0.07965,0.00168,-0.03418,-0.02106,0.00916,-0.04211
3.3995,-0.0145,-0.05707,-0.06378,-0.10468,-0.02716,-0.04379,-0.00717,0.00198,-0.02716,-0.00168,0.01602,0.00671,-0.03342,-0.01999,0.00946,-0.03876
3.4,-0.01724,-0.05936,-0.06592,-0.1265,-0.02533,-0.04974,-0.00702,0.00336,-0.02106,0.01984,-0.03128,0.00977,-0.03036,-0.01846,0.00854,-0.03616
3.4005,-0.01572,-0.06699,-0.06577,-0.12283,-0.02365,-0.05524,-0.00778,0.00244,-0.00839,0.03525,-0.03128,0.01038,-0.02869,-0.01801,0.00778,-0.03677
3.401,-0.0061,-0.07477,-0.06546,-0.09064,-0.02243,-0.05966,-0.00977,0.00031,0.00809,0.04089,0.0087,0.01007,-0.03036,-0.01862,0.00824,-0.03815
3.4015,0.00717,-0.07584,-0.06454,-0.03723,-0.02274,-0.06256,-0.0116,-0.00137,0.02213,0.03647,0.06195,0.00885,-0.03189,-0.01877,0.00977,-0.03876
3.402,0.01587,-0.06531,-0.06409,0.01205,-0.02518,-0.06287,-0.01358,-0.00244,0.03204,0.02319,0.09903,0.00626,-0.03174,-0.01755,0.01221,-0.03845
3.4025,0.01587,-0.04669,-0.06332,0.03616,-0.02701,-0.06226,-0.01419,-0.00336,0.03738,0.00687,0.10117,0.00427,-0.03174,-0.01617,0.01358,-0.03799
3.403,0.00977,-0.03616,-0.06027,0.04745,-0.02777,-0.06195,-0.01328,-0.00351,0.03601,-0.00793,0.06058,0.00488,-0.03204,-0.01694,0.01373,-0.03799
3.4035,0.00244,-0.0444,-0.05676,0.07263,-0.02747,-0.06149,-0.01312,-0.0029,0.02747,-0.02045,-0.01312,0.00824,-0.03189,-0.01709,0.01221,-0.03815
3.404,-0.00153,-0.06195,-0.05173,0.10025,-0.02655,-0.05753,-0.01495,-0.00183,0.0119,-0.0325,-0.09598,0.01068,-0.03082,-0.01816,0.01114,-0.03769
3.4045,-0.0032,-0.07294,-0.0441,0.08606,-0.02609,-0.05051,-0.01602,-0.00198,-0.00763,-0.04623,-0.16312,0.0116,-0.03052,-0.02045,0.01114,-0.03815
3.405,-0.00427,-0.07263,-0.03494,0.01999,-0.02502,-0.04333,-0.01511,-0.00275,-0.0293,-0.06012,-0.19745,0.0116,-0.03128,-0.0238,0.01129,-0.03952
3.4055,-0.00671,-0.06927,-0.04379,-0.06073,-0.02457,-0.03922,-0.01404,-0.0032,-0.04868,-0.07507,-0.19577,0.01038,-0.03235,-0.02625,0.01053,-0.03983
3.406,-0.00809,-0.06485,-0.07355,-0.12512,-0.02563,-0.0386,-0.01358,-0.00534,-0.06363,-0.09506,-0.16586,0.00885,-0.03296,-0.0267,0.00916,-0.03952
3.4065,-0.00275,-0.06058,-0.08881,-0.17761,-0.02686,-0.03677,-0.01389,-0.00626,-0.07233,-0.11963,-0.12772,0.00854,-0.03265,-0.02533,0.00824,-0.03952
3.407,0.00824,-0.06317,-0.04623,-0.22339,-0.02808,-0.03494,-0.0148,-0.00732,-0.07126,-0.13916,-0.10132,0.00977,-0.03204,-0.02289,0.009,-0.03937
3.4075,0.01968,-0.08148,0.02701,-0.24658,-0.02838,-0.03357,-0.01556,-0.00763,-0.05829,-0.14847,-0.09689,0.01038,-0.03067,-0.02014,0.01083,-0.03799
3.408,0.02563,-0.10681,0.0444,-0.22919,-0.02899,-0.03326,-0.01541,-0.00778,-0.03586,-0.14786,-0.10452,0.00946,-0.02884,-0.01984,0.01053,-0.03555
3.4085,0.02838,-0.11871,-0.03174,-0.17822,-0.02991,-0.03372,-0.01556,-0.00671,-0.01236,-0.1355,-0.10803,0.00641,-0.02701,-0.01938,0.01099,-0.03555
3.409,0.03159,-0.11124,-0.12054,-0.12314,-0.03052,-0.03525,-0.01419,-0.00534,0.00488,-0.11108,-0.09933,0.00275,-0.0264,-0.01831,0.0119,-0.03815
3.4095,0.03708,-0.09811,-0.121,-0.07187,-0.03159,-0.03708,-0.01328,-0.00214,0.01419,-0.07584,-0.08408,-0.00137,-0.02655,-0.01648,0.01297,-0.0412
3.41,0.0415,-0.09048,-0.04105,0.00137,-0.03342,-0.04044,-0.01343,0.00137,0.01923,-0.03906,-0.06317,-0.00397,-0.02701,-0.01602,0.01434,-0.04211
3.4105,0.04303,-0.0827,0.03448,0.11154,-0.03571,-0.04364,-0.01343,0.00244,0.01953,-0.01022,-0.02151,-0.00397,-0.02533,-0.01648,0.01404,-0.04105
3.411,0.03937,-0.06104,0.07019,0.22675,-0.03677,-0.04486,-0.01312,0.00031,0.01724,0.00702,0.06195,-0.0032,-0.02396,-0.01541,0.01358,-0.03967
3.4115,0.03616,-0.02075,0.10422,0.2948,-0.03555,-0.04425,-0.01251,-0.00137,0.01465,0.01205,0.17639,-0.00671,-0.02335,-0.0145,0.01328,-0.04013
3.412,0.03586,0.02014,0.16403,0.30823,-0.03433,-0.04074,-0.0119,-0.00122,0.01129,0.0061,0.27557,-0.01663,-0.02518,-0.01389,0.01221,-0.04242
3.4125,0.0383,0.03601,0.21667,0.30075,-0.03448,-0.03769,-0.01221,-0.00015,0.00473,-0.00687,0.31616,-0.02884,-0.02838,-0.01434,0.01053,-0.04471
3.413,0.03922,0.0148,0.21835,0.28076,-0.03632,-0.03754,-0.01282,0.00031,-0.00763,-0.02258,0.29861,-0.04089,-0.02945,-0.01389,0.009,-0.04562
3.4135,0.03677,-0.02289,0.16296,0.21667,-0.03708,-0.04013,-0.01389,0.00031,-0.02716,-0.0383,0.25131,-0.05203,-0.0296,-0.01434,0.00839,-0.04471
3.414,0.03479,-0.05234,0.065,0.10376,-0.0386,-0.04593,-0.01602,-0.00137,-0.04807,-0.05981,0.19058,-0.05966,-0.02914,-0.01526,0.00885,-0.04364
3.4145,0.03418,-0.0589,-0.06592,-0.00397,-0.0383,-0.05203,-0.01816,-0.00381,-0.06165,-0.08606,0.13412,-0.06256,-0.03098,-0.01587,0.009,-0.04181
3.415,0.02975,-0.04868,-0.2124,-0.05585,-0.03815,-0.05478,-0.01923,-0.0058,-0.06042,-0.10712,0.12039,-0.05783,-0.0325,-0.01465,0.0087,-0.03983
3.4155,0.0145,-0.03677,-0.31998,-0.05859,-0.03784,-0.05356,-0.01892,-0.00763,-0.04715,-0.11566,0.16403,-0.03418,-0.0322,-0.01389,0.00916,-0.03799
3.416,-0.00702,-0.03418,-0.32043,-0.0528,-0.03769,-0.05066,-0.01877,-0.00839,-0.03036,-0.11383,0.20264,0.01434,-0.03128,-0.01404,0.01068,-0.03738
3.4165,-0.02655,-0.0415,-0.20554,-0.0647,-0.0386,-0.04974,-0.0177,-0.00839,-0.02106,-0.10727,0.14816,0.06775,-0.03204,-0.01526,0.01175,-0.03815
3.417,-0.03906,-0.05157,-0.04196,-0.08133,-0.03815,-0.05341,-0.01633,-0.00763,-0.02151,-0.09674,-0.01465,0.09476,-0.03387,-0.01633,0.01114,-0.03845
3.4175,-0.04532,-0.05722,0.08728,-0.08011,-0.03769,-0.05707,-0.01633,-0.00656,-0.02747,-0.08224,-0.20187,0.09827,-0.03464,-0.01648,0.00916,-0.0386
3.418,-0.05127,-0.05981,0.15396,-0.06577,-0.03708,-0.06012,-0.01724,-0.00549,-0.03281,-0.07309,-0.31754,0.1001,-0.03372,-0.0174,0.00732,-0.03937
3.4185,-0.06012,-0.06165,0.17227,-0.06607,-0.03708,-0.0621,-0.01785,-0.00519,-0.03265,-0.07706,-0.32425,0.10147,-0.03357,-0.01938,0.00763,-0.04059
3.419,-0.06866,-0.06073,0.15656,-0.09094,-0.03494,-0.06058,-0.01785,-0.00534,-0.02808,-0.08591,-0.24963,0.08469,-0.03464,-0.02197,0.00732,-0.04196
3.4195,-0.07507,-0.05569,0.10391,-0.11963,-0.03189,-0.0563,-0.0174,-0.00504,-0.02457,-0.08133,-0.159,0.04639,-0.03525,-0.02304,0.00763,-0.04105
3.42,-0.07919,-0.04654,0.01907,-0.1268,-0.03067,-0.05173,-0.01694,-0.00412,-0.02563,-0.05768,-0.10986,0.009,-0.03479,-0.02365,0.00748,-0.03891
3.4205,-0.07889,-0.03677,-0.06485,-0.11002,-0.03082,-0.0499,-0.01678,-0.00488,-0.02594,-0.01968,-0.11551,-0.00381,-0.03372,-0.02289,0.00671,-0.03815
3.421,-0.06805,-0.03021,-0.11108,-0.08957,-0.03189,-0.05096,-0.01602,-0.00702,-0.01877,0.02274,-0.15961,0.00656,-0.03235,-0.02151,0.00412,-0.03967
3.4215,-0.04562,-0.02686,-0.11292,-0.06607,-0.03311,-0.05325,-0.01495,-0.00946,-0.00473,0.06393,-0.2211,0.01785,-0.03174,-0.02014,0.00336,-0.04211
3.422,-0.01907,-0.02975,-0.09567,-0.00427,-0.03357,-0.05325,-0.0148,-0.01114,0.00137,0.09872,-0.27969,0.01633,-0.03159,-0.02045,0.00565,-0.04364
3.4225,0.00381,-0.04303,-0.08347,0.11002,-0.03296,-0.05035,-0.0148,-0.01038,-0.00809,0.12543,-0.31296,0.00275,-0.03326,-0.02213,0.00961,-0.04379
3.423,0.01755,-0.06439,-0.08591,0.21347,-0.03113,-0.04532,-0.01343,-0.00671,-0.02777,0.14587,-0.30716,-0.0145,-0.03403,-0.02319,0.0116,-0.04257
3.4235,0.02136,-0.0827,-0.09903,0.21667,-0.02884,-0.04044,-0.0116,-0.00229,-0.04272,0.16159,-0.2684,-0.02808,-0.03464,-0.02411,0.01007,-0.04227
3.424,0.01999,-0.08545,-0.11444,0.12253,-0.02777,-0.03906,-0.01022,0.00061,-0.04654,0.17044,-0.21301,-0.03113,-0.0351,-0.0235,0.00732,-0.04242
3.4245,0.02151,-0.07324,-0.12314,0.01648,-0.02853,-0.04135,-0.01007,0.00168,-0.04013,0.17303,-0.1535,-0.02197,-0.03555,-0.02151,0.0058,-0.04318
3.425,0.02792,-0.05692,-0.12405,-0.03937,-0.03036,-0.04578,-0.0116,0.00305,-0.03143,0.17426,-0.1004,-0.00824,-0.03494,-0.02075,0.00626,-0.04349
3.4255,0.03525,-0.04105,-0.1239,-0.05753,-0.03189,-0.05005,-0.01373,0.00397,-0.02563,0.17288,-0.0618,0.00122,-0.03326,-0.02014,0.00717,-0.04517
3.426,0.03815,-0.02258,-0.12665,-0.06943,-0.03143,-0.05356,-0.01709,0.0032,-0.02716,0.15823,-0.0441,0.00351,-0.03281,-0.01877,0.00656,-0.04501
3.4265,0.03647,-0.00153,-0.13123,-0.08362,-0.02991,-0.05432,-0.01862,0.00153,-0.03082,0.12711,-0.04471,0.00198,-0.03387,-0.01633,0.00656,-0.04486
3.427,0.03159,0.0148,-0.13397,-0.08972,-0.03006,-0.05432,-0.01816,0.00015,-0.03082,0.08408,-0.05112,-0.0029,-0.03494,-0.01434,0.00702,-0.04379
3.4275,0.02228,0.02213,-0.1297,-0.07736,-0.03021,-0.05432,-0.0148,-0.00031,-0.02548,0.04181,-0.05112,-0.00671,-0.03357,-0.01373,0.0087,-0.04257
3.428,0.00732,0.02396,-0.1178,-0.05432,-0.03098,-0.05493,-0.01114,0.00015,-0.02106,0.00641,-0.04166,-0.009,-0.03189,-0.01495,0.00946,-0.04074
3.4285,-0.01175,0.02975,-0.10574,-0.03845,-0.03021,-0.056,-0.00931,0.00031,-0.02228,-0.02213,-0.02655,-0.0119,-0.0325,-0.01816,0.00916,-0.04028
3.429,-0.02838,0.03906,-0.10727,-0.03799,-0.03204,-0.05463,-0.0087,0.00244,-0.02533,-0.04913,-0.00946,-0.01953,-0.03387,-0.02182,0.00778,-0.04211
3.4295,-0.03464,0.04745,-0.1326,-0.04425,-0.03006,-0.05295,-0.00824,0.00626,-0.02197,-0.0708,0.00916,-0.03052,-0.03479,-0.02411,0.00732,-0.04471
3.43,-0.02884,0.04898,-0.17303,-0.05112,-0.02899,-0.05081,-0.00839,0.00931,-0.00626,-0.0856,0.03098,-0.03845,-0.03326,-0.0238,0.00809,-0.04547
3.4305,-0.01923,0.04318,-0.19653,-0.05844,-0.02914,-0.0528,-0.01022,0.01053,0.01511,-0.09491,0.05569,-0.03662,-0.03265,-0.02304,0.00793,-0.0444
3.431,-0.01175,0.03326,-0.17731,-0.0589,-0.03067,-0.05615,-0.01251,0.00916,0.03281,-0.10071,0.07935,-0.02625,-0.03128,-0.02167,0.00763,-0.04227
3.4315,-0.0087,0.02457,-0.12863,-0.04578,-0.03052,-0.05905,-0.01434,0.00778,0.04028,-0.1033,0.0943,-0.01236,-0.02991,-0.01892,0.00748,-0.04059
3.432,-0.00626,0.01968,-0.08194,-0.01404,-0.02823,-0.0592,-0.01617,0.00732,0.0383,-0.09338,0.09949,-0.0032,-0.02808,-0.01419,0.00732,-0.03983
3.4325,-0.00534,0.01465,-0.04501,0.03143,-0.02609,-0.05676,-0.0177,0.00504,0.03159,-0.06882,0.09827,-0.00031,-0.02945,-0.01038,0.00687,-0.04044
3.433,-0.00671,0.00778,-0.00732,0.07538,-0.02457,-0.05173,-0.01755,0.00076,0.02457,-0.04074,0.09399,-0.00107,-0.03067,-0.00778,0.0058,-0.04196
3.4335,-0.00702,0.00015,0.03616,0.10208,-0.02579,-0.04242,-0.01495,-0.0032,0.01755,-0.02396,0.09201,-0.00107,-0.03036,-0.00702,0.00519,-0.0441
3.434,-0.00748,-0.00778,0.07233,0.11124,-0.02869,-0.03372,-0.01175,-0.00717,0.00793,-0.01221,0.10025,-0.00122,-0.02945,-0.00809,0.00397,-0.04532
3.4345,-0.00946,-0.01633,0.08621,0.11658,-0.03281,-0.02975,-0.01083,-0.00961,-0.00549,0.00443,0.12207,-0.00214,-0.03006,-0.01205,0.00458,-0.04547
3.435,-0.01236,-0.02457,0.0798,0.11642,-0.03586,-0.03021,-0.01129,-0.01068,-0.02106,0.02701,0.14053,-0.00336,-0.0322,-0.01709,0.00626,-0.0441
3.4355,-0.01129,-0.0293,0.05875,0.09521,-0.03616,-0.03265,-0.01099,-0.01007,-0.03357,0.04196,0.13611,0.00122,-0.03326,-0.01984,0.00549,-0.04364
3.436,-0.00412,-0.03113,0.02289,0.04944,-0.03403,-0.03357,-0.00946,-0.00763,-0.0383,0.04745,0.10712,0.01617,-0.03403,-0.02121,0.00427,-0.04364
3.4365,0.00565,-0.03159,-0.02258,-0.00732,-0.0322,-0.03296,-0.00916,-0.00488,-0.03387,0.04547,0.07629,0.03998,-0.03418,-0.02228,0.00336,-0.04364
3.437,0.01602,-0.03555,-0.06088,-0.05127,-0.03357,-0.03357,-0.01099,-0.00259,-0.01923,0.03998,0.06271,0.05875,-0.03494,-0.02365,0.00427,-0.04074
3.4375,0.02655,-0.04166,-0.07019,-0.06134,-0.03464,-0.0351,-0.01266,-0.00336,-0.00046,0.02975,0.06714,0.06119,-0.03479,-0.02396,0.00565,-0.03815
3.438,0.03647,-0.04852,-0.05386,-0.0354,-0.03433,-0.03937,-0.01266,-0.00504,0.0145,0.01343,0.07797,0.05035,-0.03296,-0.02167,0.00626,-0.03632
3.4385,0.04044,-0.05325,-0.03174,-0.00366,-0.0325,-0.04227,-0.01282,-0.0058,0.02289,-0.01129,0.08545,0.03403,-0.03143,-0.01907,0.00595,-0.03693
3.439,0.03723,-0.0589,-0.01877,0.00015,-0.03235,-0.04639,-0.01434,-0.0058,0.0267,-0.04089,0.08942,0.00946,-0.03143,-0.01801,0.0061,-0.03799
3.4395,0.03372,-0.06332,-0.01205,-0.02274,-0.03357,-0.05005,-0.01602,-0.00473,0.03082,-0.07111,0.08865,-0.03113,-0.03189,-0.01755,0.00732,-0.03799
3.44,0.03738,-0.06439,-0.00458,-0.03448,-0.03418,-0.05188,-0.01556,-0.00366,0.0383,-0.09369,0.08041,-0.07828,-0.03052,-0.01694,0.00748,-0.03723
3.4405,0.04395,-0.06454,0.0029,-0.01572,-0.03403,-0.05432,-0.01266,-0.00229,0.04745,-0.10788,0.06607,-0.10406,-0.02991,-0.01587,0.00763,-0.0386
3.441,0.04272,-0.06943,0.00259,0.01053,-0.03265,-0.05585,-0.00946,-0.00031,0.0563,-0.11993,0.05432,-0.0943,-0.02899,-0.01404,0.00671,-0.04013
3.4415,0.02762,-0.08163,-0.0087,0.02029,-0.03189,-0.05463,-0.00931,0.00137,0.05539,-0.13077,0.04913,-0.06454,-0.02899,-0.01328,0.00702,-0.04013
3.442,0.0061,-0.09567,-0.02838,0.02106,-0.03098,-0.05173,-0.01221,0.00092,0.03876,-0.13733,0.04379,-0.04074,-0.0296,-0.01404,0.00778,-0.03891
3.4425,-0.00717,-0.09933,-0.03815,0.02426,-0.03174,-0.04929,-0.01556,-0.00336,0.00931,-0.13306,0.03372,-0.03006,-0.02991,-0.01526,0.00992,-0.0383
3.443,-0.01068,-0.09293,-0.01877,0.0116,-0.03235,-0.04745,-0.01877,-0.009,-0.01968,-0.11429,0.02701,-0.02701,-0.0293,-0.0177,0.00946,-0.03784
3.4435,-0.0087,-0.08423,0.02899,-0.04074,-0.03189,-0.04608,-0.02029,-0.01266,-0.04166,-0.0795,0.03113,-0.02945,-0.02914,-0.01892,0.00717,-0.03876
3.444,-0.00839,-0.08438,0.08713,-0.12756,-0.03235,-0.04578,-0.01968,-0.01236,-0.05585,-0.03387,0.04791,-0.04364,-0.0296,-0.01999,0.00595,-0.04059
3.4445,-0.01083,-0.09445,0.13016,-0.21744,-0.03143,-0.04456,-0.0174,-0.00931,-0.06546,0.01328,0.07309,-0.06912,-0.03082,-0.01999,0.0061,-0.04364
3.445,-0.01617,-0.10391,0.14618,-0.27832,-0.03098,-0.0444,-0.01404,-0.00671,-0.07217,0.05096,0.10025,-0.08652,-0.03052,-0.01968,0.00748,-0.04532
3.4455,-0.0209,-0.10071,0.14175,-0.29984,-0.02975,-0.04501,-0.01175,-0.00595,-0.07904,0.07309,0.12558,-0.07294,-0.03174,-0.01984,0.01022,-0.04471
3.446,-0.02197,-0.08698,0.13977,-0.28625,-0.02899,-0.04639,-0.01068,-0.00488,-0.0885,0.08148,0.14343,-0.03708,-0.03342,-0.01984,0.01205,-0.04257
3.4465,-0.01877,-0.07278,0.15381,-0.2272,-0.02838,-0.04623,-0.01038,-0.00244,-0.09827,0.08621,0.13382,-0.01221,-0.03387,-0.01862,0.01144,-0.04196
3.447,-0.01328,-0.05768,0.17029,-0.09521,-0.02853,-0.04456,-0.01022,0.0,-0.10315,0.08926,0.07385,-0.01404,-0.03265,-0.01862,0.00885,-0.04181
3.4475,-0.00931,-0.04105,0.15961,0.10101,-0.02777,-0.04242,-0.01083,-0.00061,-0.09995,0.08575,-0.02701,-0.02472,-0.03143,-0.01938,0.00671,-0.0412
3.448,-0.00778,-0.02258,0.11948,0.28259,-0.02609,-0.04196,-0.0119,-0.00198,-0.0882,0.0766,-0.12558,-0.0264,-0.03113,-0.02075,0.00748,-0.04013
3.4485,-0.00793,-0.00809,0.06927,0.35797,-0.0264,-0.04166,-0.01404,-0.00229,-0.06393,0.0705,-0.18845,-0.02045,-0.03265,-0.01999,0.00885,-0.03952
3.449,-0.00839,0.00031,0.02396,0.3038,-0.02838,-0.04059,-0.0145,-0.00153,-0.02731,0.06851,-0.22659,-0.00595,-0.0325,-0.01755,0.00916,-0.04105
3.4495,-0.01282,0.01068,-0.01801,0.17868,-0.03006,-0.0383,-0.01343,-0.00183,0.01022,0.06302,-0.26245,0.0296,-0.03174,-0.0148,0.00916,-0.04272
3.45,-0.02151,0.02975,-0.06104,0.06622,-0.02914,-0.03616,-0.01373,-0.00305,0.03189,0.04562,-0.29175,0.08301,-0.03082,-0.01312,0.00916,-0.04364
3.4505,-0.0296,0.04593,-0.09995,0.01251,-0.02792,-0.03693,-0.01434,-0.00397,0.0296,0.01938,-0.29526,0.12482,-0.03296,-0.01328,0.00946,-0.04272
3.451,-0.03189,0.03265,-0.12054,0.00031,-0.02823,-0.0386,-0.01404,-0.0029,0.01297,-0.00671,-0.26947,0.13428,-0.03586,-0.01541,0.01007,-0.04089
3.4515,-0.02747,-0.01587,-0.11551,-0.01129,-0.03021,-0.04227,-0.01297,-0.00137,0.00305,-0.02365,-0.22934,0.12238,-0.03601,-0.0174,0.01114,-0.03952
3.452,-0.02029,-0.06622,-0.09171,-0.0296,-0.03281,-0.04776,-0.01266,-0.00183,0.00946,-0.0325,-0.19241,0.1033,-0.03326,-0.01846,0.01053,-0.04089
3.4525,-0.01007,-0.08331,-0.06851,-0.03372,-0.03418,-0.05264,-0.01434,-0.00534,0.02792,-0.03738,-0.16739,0.07782,-0.0322,-0.01831,0.00977,-0.04349
3.453,0.0174,-0.07294,-0.06012,-0.01923,-0.03448,-0.05325,-0.01678,-0.00854,0.04456,-0.04089,-0.15488,0.04745,-0.03235,-0.01999,0.00931,-0.0444
3.4535,0.06744,-0.06561,-0.06027,-0.00656,-0.03204,-0.05051,-0.0174,-0.00961,0.0502,-0.04501,-0.15091,0.02823,-0.03311,-0.02258,0.01007,-0.04471
3.454,0.1178,-0.06668,-0.05478,-0.00626,-0.02975,-0.04639,-0.01694,-0.00778,0.04684,-0.0499,-0.15381,0.02472,-0.03281,-0.02365,0.01129,-0.04318
3.4545,0.13855,-0.05569,-0.04044,-0.01007,-0.02899,-0.04364,-0.01633,-0.00671,0.04333,-0.056,-0.1622,0.02289,-0.03174,-0.02258,0.01007,-0.04242
3.455,0.12711,-0.0235,-0.02899,-0.0148,-0.03006,-0.0444,-0.01648,-0.0061,0.04456,-0.0621,-0.16708,0.01205,-0.03067,-0.01938,0.00793,-0.04227
3.4555,0.10605,0.01389,-0.03204,-0.03708,-0.03113,-0.04913,-0.01648,-0.00595,0.04929,-0.06775,-0.15488,-0.00153,-0.03052,-0.01694,0.00565,-0.04303
3.456,0.09171,0.03555,-0.04547,-0.08606,-0.03082,-0.05219,-0.01404,-0.00427,0.04929,-0.06897,-0.12222,-0.01068,-0.03082,-0.01495,0.00549,-0.04471
3.4565,0.07889,0.03967,-0.05676,-0.14893,-0.03082,-0.05249,-0.01099,-0.00229,0.04227,-0.06485,-0.07645,-0.01495,-0.03204,-0.01465,0.0058,-0.04517
3.457,0.06058,0.03098,-0.05798,-0.19638,-0.03067,-0.05081,-0.00885,-0.00046,0.02609,-0.05768,-0.02808,-0.01434,-0.03418,-0.01602,0.00504,-0.04501
3.4575,0.04028,0.01099,-0.05875,-0.20752,-0.02914,-0.0502,-0.00748,0.00107,0.00458,-0.05249,0.01709,-0.00229,-0.03555,-0.01724,0.00458,-0.04471
3.458,0.02762,-0.02213,-0.06546,-0.18326,-0.02731,-0.05157,-0.00885,0.00168,-0.02228,-0.05356,0.05692,0.01953,-0.03616,-0.01801,0.0058,-0.04547
3.4585,0.02502,-0.06195,-0.07538,-0.12711,-0.0267,-0.05173,-0.01053,0.00137,-0.05661,-0.06012,0.08698,0.03662,-0.03571,-0.01862,0.00656,-0.04562
3.459,0.02441,-0.0914,-0.07843,-0.02716,-0.02716,-0.05188,-0.01236,-0.00015,-0.09384,-0.06897,0.1062,0.03693,-0.03616,-0.02045,0.00641,-0.04593
3.4595,0.02213,-0.09918,-0.07172,0.10132,-0.02762,-0.04959,-0.01282,-0.00046,-0.12177,-0.07736,0.12054,0.02335,-0.03601,-0.02182,0.0061,-0.04486
3.46,0.01923,-0.08896,-0.06256,0.19226,-0.02655,-0.04593,-0.01343,0.00031,-0.13168,-0.0853,0.13199,0.00931,-0.03418,-0.0206,0.00504,-0.04349
3.4605,0.01785,-0.07401,-0.05798,0.18997,-0.0264,-0.04089,-0.01419,0.00015,-0.12741,-0.09323,0.1384,0.00412,-0.03113,-0.01907,0.00488,-0.04227
3.461,0.01221,-0.06165,-0.05844,0.11444,-0.02731,-0.03632,-0.01389,-0.00061,-0.11978,-0.10025,0.14511,0.00336,-0.02975,-0.0177,0.0061,-0.04044
3.4615,-0.00046,-0.05142,-0.05905,0.03479,-0.02777,-0.03464,-0.01404,-0.00198,-0.11154,-0.10345,0.15854,0.00259,-0.03082,-0.01633,0.00702,-0.03891
3.462,-0.01709,-0.04318,-0.06226,-0.00687,-0.02853,-0.03555,-0.0145,-0.00397,-0.09659,-0.1062,0.17334,-0.00473,-0.0325,-0.01511,0.00809,-0.0383
3.4625,-0.03296,-0.03662,-0.06882,-0.02182,-0.03036,-0.03876,-0.01572,-0.00717,-0.06989,-0.10834,0.17838,-0.01678,-0.03357,-0.01663,0.0087,-0.03876
3.463,-0.04959,-0.03326,-0.07736,-0.03738,-0.03159,-0.04211,-0.01678,-0.00992,-0.03433,-0.11185,0.17456,-0.02808,-0.03418,-0.01877,0.00839,-0.03922
3.4635,-0.0676,-0.03143,-0.08881,-0.04807,-0.03143,-0.0444,-0.01724,-0.00946,-0.00336,-0.11978,0.16678,-0.03204,-0.0354,-0.01999,0.00702,-0.03845
3.464,-0.07889,-0.02914,-0.11353,-0.03052,-0.03189,-0.0473,-0.01755,-0.00793,0.01144,-0.13504,0.14252,-0.02991,-0.03601,-0.01938,0.00565,-0.03769
3.4645,-0.07614,-0.02518,-0.16449,0.01022,-0.03281,-0.04929,-0.01678,-0.0058,0.00824,-0.15854,0.09415,-0.02594,-0.03632,-0.01907,0.0061,-0.0383
3.465,-0.06668,-0.02365,-0.2269,0.03738,-0.03387,-0.04913,-0.01541,-0.00519,-0.00244,-0.18112,0.03922,-0.02228,-0.03494,-0.01892,0.00809,-0.04044
3.4655,-0.06119,-0.02975,-0.26291,0.0296,-0.03479,-0.04791,-0.01495,-0.00565,-0.01282,-0.19333,0.00397,-0.0148,-0.03555,-0.01968,0.00885,-0.04257
3.466,-0.06378,-0.04456,-0.26321,0.00153,-0.03555,-0.04715,-0.01556,-0.00549,-0.02075,-0.19714,-0.01236,-0.00061,-0.03693,-0.02029,0.0087,-0.04181
3.4665,-0.07004,-0.06073,-0.24857,-0.01785,-0.03708,-0.04623,-0.01541,-0.00412,-0.02594,-0.20477,-0.02304,0.01633,-0.03738,-0.02075,0.00824,-0.04196
3.467,-0.07523,-0.07294,-0.22186,-0.01617,-0.03647,-0.04486,-0.01465,-0.00198,-0.02731,-0.21271,-0.03448,0.02655,-0.03632,-0.02151,0.00885,-0.04227
3.4675,-0.08057,-0.0827,-0.15091,-0.00534,-0.03571,-0.04303,-0.01465,-0.00076,-0.02579,-0.20676,-0.04501,0.02441,-0.03632,-0.02197,0.00961,-0.04105
3.468,-0.08713,-0.09293,-0.03052,-0.00061,-0.03571,-0.04303,-0.01404,0.0,-0.03113,-0.17792,-0.05814,0.01038,-0.0386,-0.02304,0.01007,-0.04044
3.4685,-0.09323,-0.10147,0.0824,-0.00656,-0.03586,-0.04501,-0.01358,0.00122,-0.04547,-0.1297,-0.08316,-0.00626,-0.0415,-0.02472,0.00931,-0.03891
3.469,-0.09659,-0.10437,0.12665,-0.01541,-0.03555,-0.04791,-0.01312,0.0032,-0.06332,-0.0708,-0.12436,-0.0148,-0.04257,-0.02686,0.00748,-0.03876
3.4695,-0.09308,-0.10117,0.10208,-0.01862,-0.03571,-0.04929,-0.01251,0.00458,-0.07401,-0.01419,-0.17181,-0.01465,-0.04059,-0.02686,0.00702,-0.04013
3.47,-0.08575,-0.09415,0.05692,-0.01984,-0.03601,-0.04929,-0.01343,0.00397,-0.07416,0.02777,-0.20874,-0.01251,-0.0383,-0.02609,0.00717,-0.04166
3.4705,-0.07858,-0.08163,0.02792,-0.03189,-0.0351,-0.04852,-0.01526,0.0,-0.06882,0.04913,-0.22308,-0.01343,-0.03693,-0.02411,0.00793,-0.04227
3.471,-0.07339,-0.06378,0.01556,-0.06317,-0.03189,-0.04761,-0.01633,-0.00366,-0.05951,0.05707,-0.20905,-0.01404,-0.03571,-0.02182,0.0087,-0.04166
3.4715,-0.06683,-0.04883,0.00839,-0.10315,-0.02884,-0.04715,-0.01465,-0.00565,-0.04776,0.06332,-0.17044,-0.01236,-0.03357,-0.01907,0.00916,-0.04044
3.472,-0.05615,-0.04242,0.00183,-0.13596,-0.02686,-0.04654,-0.01282,-0.0058,-0.03204,0.07202,-0.12619,-0.01144,-0.03143,-0.01648,0.01022,-0.0386
3.4725,-0.04562,-0.04089,-0.00854,-0.14603,-0.02701,-0.0473,-0.0119,-0.00259,-0.01312,0.08118,-0.09567,-0.01297,-0.03113,-0.01511,0.01022,-0.03723
3.473,-0.04013,-0.03601,-0.04196,-0.121,-0.02869,-0.0502,-0.01099,0.00092,0.00717,0.08987,-0.08057,-0.01297,-0.0325,-0.01282,0.01083,-0.03754
3.4735,-0.04074,-0.03098,-0.12344,-0.0592,-0.03052,-0.05386,-0.01007,0.00275,0.0235,0.10361,-0.07111,-0.00946,-0.03326,-0.01099,0.01236,-0.03952
3.474,-0.04288,-0.03326,-0.22598,0.01755,-0.03204,-0.05539,-0.00946,0.00366,0.03342,0.13168,-0.05844,-0.00763,-0.03159,-0.00992,0.0145,-0.03967
3.4745,-0.04227,-0.04456,-0.27679,0.07492,-0.03128,-0.05554,-0.00885,0.00336,0.03845,0.17105,-0.04654,-0.01312,-0.02823,-0.00885,0.01434,-0.0386
3.475,-0.03677,-0.05753,-0.233,0.09644,-0.02899,-0.05432,-0.01007,0.00351,0.04135,0.20752,-0.03876,-0.02182,-0.02441,-0.00717,0.01404,-0.03708
3.4755,-0.03067,-0.06653,-0.12161,0.09827,-0.02792,-0.05234,-0.01282,0.00244,0.04395,0.22034,-0.03387,-0.02411,-0.02289,-0.00504,0.01266,-0.03769
3.476,-0.02686,-0.06897,0.01389,0.0943,-0.02808,-0.04822,-0.01511,-0.00061,0.04105,0.19424,-0.02243,-0.01923,-0.0238,-0.00702,0.00992,-0.03998
3.4765,-0.02655,-0.06866,0.15594,0.07584,-0.02945,-0.04501,-0.01495,-0.0032,0.03143,0.1413,-0.00168,-0.00977,-0.02487,-0.01114,0.01007,-0.04242
3.477,-0.02777,-0.06943,0.2803,0.04288,-0.03174,-0.04517,-0.01328,-0.00488,0.0174,0.09109,0.02304,-0.00153,-0.02579,-0.01343,0.01129,-0.04272
3.4775,-0.02686,-0.06989,0.33295,0.01968,-0.03372,-0.04761,-0.01221,-0.00641,0.0058,0.06897,0.04364,0.00595,-0.02625,-0.01221,0.01251,-0.04318
3.478,-0.02396,-0.06714,0.27634,0.01923,-0.03555,-0.05096,-0.01205,-0.00504,-0.00244,0.07111,0.05905,0.01282,-0.02594,-0.00977,0.01129,-0.0441
3.4785,-0.0209,-0.06638,0.15472,0.02426,-0.03647,-0.05402,-0.0119,-0.00229,-0.00992,0.08301,0.0737,0.01846,-0.02701,-0.01038,0.00916,-0.0444
3.479,-0.01938,-0.08026,0.06531,0.00671,-0.0354,-0.05539,-0.01144,-0.00076,-0.01831,0.09354,0.09933,0.01816,-0.02945,-0.01419,0.00916,-0.04349
3.4795,-0.01801,-0.1123,0.05814,-0.04059,-0.03342,-0.05432,-0.01236,-0.00153,-0.02274,0.09933,0.14572,0.00641,-0.0322,-0.01724,0.00977,-0.04089
3.48,-0.01862,-0.14633,0.09857,-0.09918,-0.03174,-0.05371,-0.01419,-0.00381,-0.02243,0.09903,0.20859,-0.02151,-0.03418,-0.01892,0.01251,-0.03937
3.4805,-0.02335,-0.15717,0.12466,-0.13855,-0.03143,-0.0563,-0.01572,-0.00519,-0.02029,0.08896,0.24933,-0.05646,-0.0354,-0.01953,0.01358,-0.03876
3.481,-0.03143,-0.13687,0.11887,-0.1384,-0.03143,-0.05829,-0.01648,-0.00549,-0.01816,0.07278,0.2301,-0.07202,-0.03586,-0.0206,0.01358,-0.04105
3.4815,-0.04227,-0.10101,0.09125,-0.10498,-0.03082,-0.05936,-0.01572,-0.00534,-0.01434,0.06378,0.1683,-0.05356,-0.0351,-0.02136,0.01297,-0.0412
3.482,-0.05112,-0.06546,0.04044,-0.06058,-0.0293,-0.05829,-0.01495,-0.0058,-0.00717,0.06561,0.12161,-0.01556,-0.03387,-0.02136,0.01175,-0.04135
3.4825,-0.056,-0.03647,-0.04578,-0.0264,-0.02701,-0.05585,-0.01419,-0.00641,-0.00031,0.07462,0.1123,0.01556,-0.03311,-0.02136,0.01099,-0.04089
3.483,-0.05661,-0.01236,-0.15137,-0.00488,-0.02777,-0.05676,-0.01389,-0.00549,0.0029,0.08209,0.10605,0.03082,-0.03387,-0.02151,0.01144,-0.03937
3.4835,-0.05463,0.00534,-0.22705,0.01312,-0.02975,-0.05875,-0.01465,-0.00488,-0.00122,0.08011,0.07248,0.03418,-0.03494,-0.02228,0.01236,-0.0383
3.484,-0.05005,0.0116,-0.23727,0.02594,-0.03143,-0.06104,-0.01511,-0.00427,-0.00961,0.06195,0.02731,0.03311,-0.0354,-0.02441,0.01221,-0.03769
3.4845,-0.0412,0.00885,-0.18921,0.01053,-0.03204,-0.06195,-0.01495,-0.00626,-0.01862,0.02136,-0.00336,0.03052,-0.0354,-0.02716,0.01129,-0.03784
3.485,-0.02792,0.00336,-0.12268,-0.02853,-0.03143,-0.06165,-0.01617,-0.009,-0.02548,-0.03326,-0.02411,0.02289,-0.03464,-0.02914,0.01022,-0.03815
3.4855,-0.00885,0.00092,-0.06897,-0.05661,-0.03128,-0.05951,-0.01907,-0.00854,-0.02975,-0.08179,-0.04517,0.01007,-0.03479,-0.02975,0.01053,-0.03769
3.486,0.01129,0.00107,-0.03967,-0.04974,-0.03204,-0.05722,-0.02182,-0.00702,-0.03052,-0.10925,-0.05096,-0.00244,-0.03525,-0.02808,0.01175,-0.0386
3.4865,0.02975,0.00198,-0.02762,-0.02457,-0.03189,-0.05264,-0.02075,-0.0061,-0.03143,-0.11658,-0.01816,-0.00687,-0.03586,-0.02548,0.01129,-0.04013
3.487,0.0441,-0.00046,-0.02304,-0.00778,-0.02991,-0.04715,-0.01816,-0.00595,-0.03418,-0.11139,0.02762,-0.00381,-0.03601,-0.02335,0.0087,-0.04318
3.4875,0.05524,-0.00397,-0.01968,-0.00809,-0.02884,-0.04181,-0.01556,-0.00488,-0.04044,-0.10422,0.02869,0.00061,-0.03555,-0.02396,0.00717,-0.04333
3.488,0.06302,-0.00687,-0.01541,-0.01434,-0.02899,-0.03723,-0.01404,-0.00305,-0.04471,-0.1004,-0.02777,0.00183,-0.03433,-0.02518,0.00717,-0.04211
3.4885,0.06882,-0.00885,-0.01633,-0.01221,-0.03189,-0.03479,-0.01358,-0.00214,-0.04181,-0.10056,-0.08682,0.00061,-0.03525,-0.0267,0.00839,-0.0412
3.489,0.07294,-0.01022,-0.02747,-0.00198,-0.03403,-0.03479,-0.0119,-0.00061,-0.03159,-0.09995,-0.10269,0.00107,-0.03632,-0.02777,0.00946,-0.04227
3.4895,0.07889,-0.01129,-0.05051,-0.00031,-0.03479,-0.03464,-0.01099,0.00122,-0.02228,-0.09521,-0.08972,0.00412,-0.03632,-0.02823,0.01038,-0.04379
3.49,0.08408,-0.01282,-0.07935,-0.01892,-0.03464,-0.0322,-0.01007,0.00336,-0.02151,-0.08362,-0.0795,0.00824,-0.0351,-0.02853,0.0087,-0.04227
3.4905,0.08438,-0.01373,-0.10178,-0.04898,-0.03387,-0.02991,-0.01114,0.00336,-0.03021,-0.06821,-0.06851,0.00854,-0.0354,-0.02853,0.00763,-0.04059
3.491,0.07843,-0.01053,-0.10437,-0.07263,-0.03372,-0.02884,-0.01251,0.00046,-0.03769,-0.05035,-0.0383,0.00336,-0.03403,-0.02655,0.00641,-0.04044
3.4915,0.06958,0.00336,-0.08347,-0.08835,-0.0322,-0.02914,-0.01343,-0.00244,-0.03571,-0.03372,0.0032,-0.00336,-0.0322,-0.0235,0.00565,-0.0415
3.492,0.05753,0.0325,-0.04868,-0.10361,-0.03235,-0.03067,-0.01404,-0.00336,-0.02502,-0.02197,0.02899,-0.00504,-0.03067,-0.02075,0.0061,-0.04318
3.4925,0.04074,0.0647,-0.01526,-0.11093,-0.03387,-0.03189,-0.01465,-0.00214,-0.01816,-0.01663,0.01923,-0.00153,-0.03098,-0.02106,0.00687,-0.04211
3.493,0.01877,0.08118,0.01144,-0.0885,-0.03479,-0.03159,-0.01358,0.00092,-0.02319,-0.01556,-0.02289,0.00168,-0.0322,-0.02289,0.00763,-0.04089
3.4935,0.00031,0.07324,0.02747,-0.03876,-0.03632,-0.0296,-0.0119,0.0032,-0.03494,-0.01831,-0.07721,0.00122,-0.03265,-0.02258,0.00763,-0.04089
3.494,-0.009,0.05112,0.03128,0.00275,-0.03738,-0.02991,-0.01038,0.00458,-0.0415,-0.02502,-0.11536,-0.00183,-0.0322,-0.01877,0.00641,-0.0415
3.4945,-0.01587,0.02747,0.02731,0.00504,-0.03738,-0.0322,-0.0087,0.00412,-0.03769,-0.03815,-0.12085,-0.00381,-0.03036,-0.01358,0.00641,-0.0415
3.495,-0.02899,0.00305,0.02548,-0.00519,-0.03616,-0.03632,-0.00916,0.00259,-0.0267,-0.05585,-0.09903,-0.00473,-0.02823,-0.01251,0.00549,-0.04059
3.4955,-0.04669,-0.02106,0.03479,0.01434,-0.0351,-0.04166,-0.01099,0.00259,-0.01099,-0.07477,-0.06287,-0.00519,-0.02701,-0.01511,0.00488,-0.03983
3.496,-0.05417,-0.04059,0.05432,0.0444,-0.03464,-0.04868,-0.01282,0.00198,0.0029,-0.08575,-0.0238,-0.00504,-0.02625,-0.01953,0.00519,-0.04135
3.4965,-0.04395,-0.05005,0.0647,0.03464,-0.03494,-0.05936,-0.01389,-0.00015,0.00351,-0.08499,0.01251,-0.00305,-0.02762,-0.02228,0.00626,-0.04501
3.497,-0.03021,-0.04822,0.04929,0.00549,-0.03632,-0.07202,-0.01434,-0.00259,-0.01572,-0.07782,0.02914,-0.00076,-0.03006,-0.0235,0.00626,-0.04623
3.4975,-0.02533,-0.03616,0.01312,0.04135,-0.03571,-0.08255,-0.01419,-0.00168,-0.04578,-0.07294,0.01129,0.00198,-0.03098,-0.02319,0.0061,-0.04471
3.498,-0.03006,-0.01831,-0.02197,0.16556,-0.03433,-0.08698,-0.01419,0.00137,-0.07217,-0.07736,-0.03677,0.00458,-0.03021,-0.02197,0.00702,-0.04364
3.4985,-0.03418,-0.00443,-0.0441,0.28351,-0.03342,-0.08316,-0.01419,0.00259,-0.09064,-0.0853,-0.08759,0.00595,-0.02884,-0.02045,0.00824,-0.04349
3.499,-0.03159,-0.00427,-0.06073,0.2858,-0.03265,-0.07462,-0.01404,0.0,-0.10605,-0.08759,-0.11551,0.00626,-0.02975,-0.01953,0.00824,-0.04364
3.4995,-0.02304,-0.01526,-0.07767,0.18814,-0.0322,-0.06271,-0.01282,-0.0029,-0.11475,-0.08118,-0.11627,0.00702,-0.03174,-0.01984,0.00809,-0.04227
3.5,-0.01083,-0.02975,-0.09003,0.0972,-0.03159,-0.05356,-0.01343,-0.00305,-0.10574,-0.07126,-0.09781,0.00702,-0.03204,-0.02106,0.00748,-0.04105
3.5005,-0.00046,-0.0441,-0.09155,0.06927,-0.02945,-0.04852,-0.0145,-0.00229,-0.07523,-0.06531,-0.06577,0.00595,-0.02899,-0.0206,0.00549,-0.04044
3.501,0.0029,-0.05783,-0.08484,0.06653,-0.02975,-0.04562,-0.01572,-0.00153,-0.03296,-0.06195,-0.03647,0.00519,-0.02563,-0.02014,0.00519,-0.04196
3.5015,-0.00458,-0.06683,-0.07462,0.0383,-0.03052,-0.04456,-0.01587,-0.00336,0.00763,-0.05722,-0.03448,0.00549,-0.02472,-0.01831,0.00549,-0.04364
3.502,-0.01846,-0.06989,-0.06516,-0.00366,-0.03235,-0.04379,-0.01541,-0.0061,0.03281,-0.04791,-0.06546,0.0058,-0.02563,-0.01663,0.00595,-0.04501
3.5025,-0.03067,-0.0676,-0.05569,-0.02045,-0.03296,-0.04684,-0.0145,-0.00671,0.03418,-0.03891,-0.09689,0.00504,-0.02579,-0.01617,0.00671,-0.04608
3.503,-0.0354,-0.06027,-0.04776,-0.00458,-0.03265,-0.05188,-0.0145,-0.0058,0.01923,-0.03433,-0.08331,0.0032,-0.02487,-0.01587,0.0058,-0.04623
3.5035,-0.03113,-0.05066,-0.04089,0.02075,-0.03174,-0.05539,-0.01541,-0.00443,0.0032,-0.03326,-0.01175,0.0029,-0.02487,-0.01633,0.00534,-0.04623
3.504,-0.0235,-0.04807,-0.03784,0.03479,-0.03021,-0.05325,-0.01587,-0.00443,-0.009,-0.03418,0.07751,0.00275,-0.02609,-0.01724,0.0061,-0.04593
3.5045,-0.02045,-0.05646,-0.04364,0.02716,-0.0296,-0.04807,-0.01602,-0.00565,-0.02304,-0.03235,0.12741,0.00229,-0.02747,-0.01907,0.00687,-0.04532
3.505,-0.0235,-0.06958,-0.05508,-0.00061,-0.02914,-0.04333,-0.01572,-0.00763,-0.04532,-0.02625,0.11246,0.00183,-0.02838,-0.01968,0.00763,-0.04471
3.5055,-0.02716,-0.07309,-0.06363,-0.03967,-0.02777,-0.03952,-0.01495,-0.00763,-0.0708,-0.01846,0.05508,0.00275,-0.02884,-0.01831,0.00839,-0.04395
3.506,-0.02502,-0.06805,-0.07492,-0.0853,-0.02701,-0.03616,-0.01343,-0.0061,-0.08408,-0.01465,-0.0061,0.00427,-0.02991,-0.01663,0.00778,-0.04364
3.5065,-0.01755,-0.06317,-0.10025,-0.13535,-0.02731,-0.03448,-0.01205,-0.0032,-0.07568,-0.01312,-0.04669,0.00473,-0.03143,-0.01617,0.00565,-0.04333
3.507,-0.00916,-0.0618,-0.13245,-0.18005,-0.02899,-0.03708,-0.01099,-0.00107,-0.05173,-0.00488,-0.06088,0.0032,-0.03296,-0.01602,0.00443,-0.04242
3.5075,-0.00366,-0.05966,-0.14816,-0.19791,-0.03159,-0.04257,-0.01144,-0.00107,-0.02457,0.01709,-0.05905,0.00198,-0.0325,-0.01556,0.00534,-0.04166
3.508,-0.00076,-0.05569,-0.13107,-0.17029,-0.03128,-0.04974,-0.01312,-0.00183,0.0029,0.04807,-0.0589,0.00244,-0.03174,-0.01434,0.00595,-0.04105
3.5085,0.00519,-0.0502,-0.08911,-0.09476,-0.02991,-0.05402,-0.0148,-0.00229,0.02869,0.07553,-0.06744,0.00275,-0.02991,-0.01312,0.0058,-0.04135
3.509,0.01602,-0.04669,-0.03967,0.00977,-0.03021,-0.05463,-0.01556,-0.00259,0.0473,0.08804,-0.07217,0.0032,-0.02762,-0.01236,0.00458,-0.04211
3.5095,0.02853,-0.04852,0.00381,0.11124,-0.03143,-0.05081,-0.01465,-0.00183,0.0531,0.08011,-0.06561,0.00336,-0.0264,-0.01251,0.00427,-0.04211
3.51,0.03494,-0.05737,0.0351,0.16357,-0.03128,-0.04684,-0.01266,-0.00046,0.0531,0.05096,-0.06332,0.00443,-0.0267,-0.0119,0.00488,-0.0412
3.5105,0.03372,-0.07004,0.05051,0.12695,-0.03006,-0.04639,-0.01068,0.00061,0.05646,0.01343,-0.07767,0.00565,-0.02701,-0.01099,0.00458,-0.04028
3.511,0.02899,-0.08072,0.05203,0.01892,-0.03052,-0.04852,-0.01007,0.00244,0.0618,-0.01831,-0.09369,0.0061,-0.02747,-0.01144,0.00381,-0.03983
3.5115,0.02304,-0.0853,0.04623,-0.07339,-0.03082,-0.05035,-0.00931,0.00397,0.05722,-0.03021,-0.09003,0.00565,-0.02701,-0.01312,0.00412,-0.04059
3.512,0.01419,-0.08453,0.03677,-0.08392,-0.03281,-0.05051,-0.01007,0.0032,0.03555,-0.02747,-0.065,0.00443,-0.02686,-0.01556,0.0058,-0.0415
3.5125,0.00397,-0.08209,0.02274,-0.03662,-0.03494,-0.05066,-0.01099,0.0,0.00458,-0.01968,-0.03525,0.00366,-0.02686,-0.01801,0.00763,-0.0415
3.513,-0.00061,-0.08057,0.0061,0.00076,-0.03723,-0.05127,-0.01282,-0.00366,-0.0238,-0.00854,-0.01511,0.00244,-0.02625,-0.01938,0.0061,-0.04105
3.5135,0.00412,-0.07858,-0.00946,0.01358,-0.0386,-0.05112,-0.01465,-0.00687,-0.04715,0.00443,-0.00961,0.00076,-0.02609,-0.01938,0.00534,-0.04135
3.514,0.01541,-0.06958,-0.02304,0.03571,-0.0383,-0.05096,-0.01694,-0.00702,-0.06882,0.01282,-0.01572,0.00122,-0.0264,-0.01816,0.00504,-0.04242
3.5145,0.02426,-0.05249,-0.03479,0.07507,-0.03677,-0.0502,-0.01831,-0.00732,-0.08102,0.00763,-0.02075,0.00351,-0.02655,-0.01572,0.00504,-0.04318
3.515,0.02777,-0.03784,-0.04532,0.09689,-0.03616,-0.04959,-0.01846,-0.00671,-0.07095,-0.00671,-0.0145,0.00626,-0.02747,-0.01312,0.00458,-0.04257
3.5155,0.02869,-0.03891,-0.05386,0.07874,-0.03616,-0.05066,-0.01663,-0.00626,-0.04196,-0.02014,0.0032,0.00626,-0.02777,-0.01129,0.00473,-0.04105
3.516,0.03006,-0.05341,-0.05737,0.02899,-0.03433,-0.05188,-0.01511,-0.0058,-0.01556,-0.03067,0.02136,0.00214,-0.02945,-0.0119,0.00732,-0.03876
3.5165,0.03357,-0.06744,-0.05615,-0.03128,-0.03265,-0.05127,-0.01541,-0.0058,-0.00748,-0.04379,0.02975,-0.00641,-0.03174,-0.01282,0.00961,-0.03769
3.517,0.03662,-0.06897,-0.05249,-0.09125,-0.03143,-0.04852,-0.01816,-0.0058,-0.0087,-0.06592,0.02792,-0.02106,-0.03235,-0.0119,0.00946,-0.03922
3.5175,0.03876,-0.05676,-0.05127,-0.14603,-0.03006,-0.04608,-0.01968,-0.00534,-0.00412,-0.09659,0.02121,-0.03952,-0.02975,-0.01251,0.00702,-0.04044
3.518,0.0412,-0.04105,-0.05371,-0.18875,-0.02853,-0.04684,-0.01862,-0.00412,0.00885,-0.13046,0.01282,-0.05554,-0.02655,-0.01602,0.00595,-0.04013
3.5185,0.04379,-0.03525,-0.05554,-0.20477,-0.02777,-0.04913,-0.01633,-0.00229,0.02197,-0.15869,0.00549,-0.06027,-0.02609,-0.01968,0.00732,-0.03876
3.519,0.04044,-0.0444,-0.05539,-0.18005,-0.02792,-0.04944,-0.01404,-0.00092,0.03082,-0.17365,0.00214,-0.04807,-0.02823,-0.02228,0.00916,-0.03754
3.5195,0.02899,-0.05905,-0.05219,-0.13031,-0.02869,-0.04745,-0.01312,-0.00168,0.03403,-0.17029,0.01022,-0.0267,-0.03052,-0.02106,0.009,-0.03708
3.52,0.01511,-0.06561,-0.05188,-0.09262,-0.02777,-0.04318,-0.01266,-0.00443,0.03372,-0.14954,0.03632,-0.01389,-0.03082,-0.01999,0.00809,-0.03738
3.5205,0.00549,-0.06226,-0.05646,-0.07507,-0.02594,-0.03937,-0.01434,-0.00717,0.03082,-0.11688,0.07156,-0.02014,-0.03021,-0.02075,0.00641,-0.03845
3.521,0.00183,-0.05447,-0.06577,-0.04898,-0.0238,-0.03647,-0.01495,-0.00839,0.0264,-0.08179,0.09995,-0.03372,-0.02945,-0.02075,0.00626,-0.03922
3.5215,-0.00214,-0.04974,-0.06851,0.01022,-0.02274,-0.03693,-0.0145,-0.00732,0.01953,-0.04807,0.1001,-0.02716,-0.02838,-0.01923,0.00595,-0.03952
3.522,-0.01282,-0.05447,-0.05554,0.08133,-0.02411,-0.03799,-0.0148,-0.00717,0.0087,-0.0119,0.07477,0.00641,-0.02792,-0.01633,0.00595,-0.0383
3.5225,-0.02762,-0.07416,-0.02838,0.11414,-0.0267,-0.0386,-0.0148,-0.00702,-0.00443,0.0293,0.0589,0.04517,-0.02823,-0.01511,0.0058,-0.03738
3.523,-0.04181,-0.10193,0.00275,0.08835,-0.02823,-0.03799,-0.01373,-0.00687,-0.01572,0.07019,0.08698,0.07355,-0.02899,-0.01587,0.0061,-0.03937
3.5235,-0.05035,-0.1152,0.02747,0.03403,-0.02777,-0.03662,-0.01389,-0.00549,-0.0206,0.1001,0.1474,0.09232,-0.02945,-0.01511,0.00565,-0.0415
3.524,-0.04807,-0.09811,0.0412,-0.01328,-0.02716,-0.03632,-0.01389,-0.00229,-0.01877,0.11902,0.18143,0.10254,-0.02991,-0.0148,0.00534,-0.04318
3.5245,-0.03494,-0.06439,0.04532,-0.04471,-0.02777,-0.03571,-0.01434,-0.00122,-0.01007,0.13138,0.1506,0.09552,-0.03021,-0.01495,0.00565,-0.04272
3.525,-0.01678,-0.03113,0.04181,-0.06348,-0.02655,-0.03204,-0.01465,-0.0032,0.00076,0.13794,0.07767,0.0769,-0.03098,-0.01556,0.00793,-0.04135
3.5255,-0.00275,-0.00351,0.03204,-0.08148,-0.02701,-0.02594,-0.01389,-0.00565,0.00519,0.13535,0.01816,0.06668,-0.03143,-0.01678,0.00824,-0.04089
3.526,0.00519,0.02335,0.01724,-0.11749,-0.02548,-0.01877,-0.01312,-0.0061,0.00488,0.11795,-0.00076,0.07339,-0.03418,-0.01892,0.00702,-0.04196
3.5265,0.0116,0.04639,0.0,-0.17532,-0.02472,-0.01358,-0.01144,-0.0058,0.0119,0.08453,-0.00015,0.08286,-0.03708,-0.02243,0.00534,-0.04303
3.527,0.01526,0.05524,-0.01495,-0.22766,-0.02502,-0.01358,-0.00961,-0.00656,0.03067,0.04074,-0.01678,0.08469,-0.03891,-0.02594,0.00473,-0.04379
3.5275,0.0145,0.05325,-0.02548,-0.23788,-0.02792,-0.01968,-0.00931,-0.00778,0.04761,-0.00397,-0.05737,0.08194,-0.03937,-0.02747,0.00427,-0.04486
3.528,0.0061,0.05295,-0.03357,-0.19836,-0.03113,-0.03281,-0.01358,-0.00687,0.05005,-0.04593,-0.0972,0.07935,-0.03952,-0.02625,0.00504,-0.04517
3.5285,-0.00824,0.05936,-0.03876,-0.14145,-0.03448,-0.04883,-0.02121,-0.00427,0.04196,-0.08957,-0.11276,0.0708,-0.04028,-0.02319,0.00671,-0.04593
3.529,-0.02335,0.06546,-0.03967,-0.09201,-0.0351,-0.06165,-0.02777,-0.00259,0.03448,-0.13733,-0.10101,0.04807,-0.04044,-0.0206,0.00885,-0.04623
3.5295,-0.03784,0.05722,-0.04044,-0.03082,-0.03494,-0.07034,-0.0267,-0.0029,0.02899,-0.17975,-0.06729,0.01114,-0.03937,-0.02014,0.01068,-0.04608
3.53,-0.04883,0.01984,-0.047,0.05554,-0.03479,-0.07401,-0.01923,-0.00397,0.01587,-0.19989,-0.02502,-0.03036,-0.03784,-0.01984,0.01038,-0.04547
3.5305,-0.0528,-0.04257,-0.06058,0.12131,-0.03494,-0.0737,-0.01221,-0.00381,-0.00519,-0.18997,0.00412,-0.06378,-0.03693,-0.0177,0.00977,-0.04517
3.531,-0.04745,-0.10498,-0.0737,0.11963,-0.03494,-0.0679,-0.00916,-0.00351,-0.02716,-0.15472,0.00687,-0.08362,-0.03662,-0.01495,0.00961,-0.04486
3.5315,-0.03571,-0.13809,-0.08789,0.0708,-0.03372,-0.0618,-0.00992,-0.00198,-0.04288,-0.10391,-0.01495,-0.09216,-0.03723,-0.01419,0.00854,-0.04486
3.532,-0.02274,-0.13733,-0.12039,0.03128,-0.03296,-0.06027,-0.01083,-0.00137,-0.05066,-0.05264,-0.05493,-0.09247,-0.03784,-0.01511,0.0087,-0.04501
3.5325,-0.01312,-0.11734,-0.17639,0.02258,-0.03418,-0.06104,-0.01251,-0.00168,-0.04868,-0.00824,-0.10391,-0.08591,-0.03693,-0.01709,0.00854,-0.04456
3.533,-0.00641,-0.09216,-0.21927,0.0322,-0.03647,-0.05676,-0.01389,-0.00397,-0.03601,0.02777,-0.14038,-0.07217,-0.03464,-0.01999,0.00763,-0.04318
3.5335,-0.00137,-0.06821,-0.20142,0.04211,-0.03647,-0.04745,-0.01511,-0.00641,-0.01984,0.05737,-0.14206,-0.05524,-0.03372,-0.02228,0.00732,-0.04257
3.534,0.0032,-0.04852,-0.12451,0.04868,-0.03632,-0.0386,-0.0148,-0.00778,-0.01099,0.07172,-0.11093,-0.03998,-0.03647,-0.02472,0.0087,-0.04364
3.5345,0.00565,-0.0351,-0.0296,0.0563,-0.0354,-0.03738,-0.01541,-0.00793,-0.01663,0.06348,-0.07004,-0.03052,-0.03983,-0.02609,0.01053,-0.04593
3.535,0.00381,-0.02625,0.05035,0.06744,-0.03494,-0.04059,-0.01572,-0.00778,-0.03204,0.03174,-0.03952,-0.02594,-0.03998,-0.02533,0.01053,-0.04745
3.5355,-0.00458,-0.01862,0.11169,0.08163,-0.03479,-0.04623,-0.01526,-0.00732,-0.04547,-0.01221,-0.02487,-0.01968,-0.03754,-0.02518,0.00961,-0.04822
3.536,-0.01724,-0.01038,0.15106,0.09247,-0.03479,-0.05203,-0.01511,-0.00626,-0.04807,-0.04883,-0.02548,-0.01266,-0.03693,-0.02518,0.00763,-0.04791
3.5365,-0.02777,-0.00351,0.15503,0.09155,-0.03372,-0.05508,-0.01587,-0.00427,-0.03952,-0.06409,-0.03616,-0.00809,-0.03784,-0.02365,0.00809,-0.04684
3.537,-0.03387,0.00076,0.12024,0.08301,-0.03204,-0.05386,-0.01602,-0.0029,-0.02747,-0.0618,-0.05005,-0.00656,-0.03876,-0.0209,0.00885,-0.04608
3.5375,-0.03372,0.00107,0.0679,0.07751,-0.03082,-0.0502,-0.01556,-0.00244,-0.01801,-0.05203,-0.05478,-0.00565,-0.03876,-0.01984,0.00885,-0.04501
3.538,-0.02945,-0.0029,0.02609,0.07675,-0.0293,-0.04684,-0.01511,-0.00259,-0.00809,-0.04608,-0.04181,-0.00427,-0.0383,-0.02014,0.00885,-0.04456
3.5385,-0.02335,-0.01221,0.00122,0.07187,-0.02899,-0.04593,-0.0148,-0.00122,0.00198,-0.04074,-0.01511,-0.00351,-0.03769,-0.0209,0.00885,-0.04425
3.539,-0.02151,-0.0238,-0.01709,0.05905,-0.0293,-0.04959,-0.01358,0.00061,0.01236,-0.03296,0.00427,-0.00244,-0.03891,-0.01907,0.01114,-0.04318
3.5395,-0.02686,-0.03342,-0.03525,0.04776,-0.0293,-0.05539,-0.01251,0.00183,0.02151,-0.02167,-0.00076,-0.00214,-0.03784,-0.01633,0.01266,-0.04227
3.54,-0.03647,-0.03799,-0.04974,0.04578,-0.02884,-0.06042,-0.01144,0.00259,0.02792,-0.01373,-0.02655,-0.00244,-0.0351,-0.01282,0.01266,-0.0415
3.5405,-0.03998,-0.03632,-0.05585,0.04776,-0.02869,-0.06226,-0.0119,0.00198,0.03036,-0.01556,-0.05295,-0.00427,-0.03235,-0.01129,0.01221,-0.04105
3.541,-0.03555,-0.03143,-0.05569,0.04303,-0.02853,-0.06073,-0.01205,0.00183,0.0293,-0.02029,-0.06912,-0.0061,-0.03082,-0.01236,0.01266,-0.0415
3.5415,-0.02823,-0.02975,-0.05295,0.02914,-0.02762,-0.05585,-0.01251,0.00244,0.02716,-0.01343,-0.07614,-0.00519,-0.03113,-0.01572,0.01297,-0.0412
3.542,-0.02365,-0.03601,-0.04883,0.01297,-0.02609,-0.04669,-0.01236,0.00259,0.02609,0.00168,-0.07492,-0.0032,-0.03265,-0.01785,0.01099,-0.04135
3.5425,-0.02151,-0.04379,-0.0473,0.00534,-0.02457,-0.03479,-0.01297,0.00198,0.0267,0.00992,-0.06485,-0.0032,-0.03342,-0.02045,0.00763,-0.04044
3.543,-0.0206,-0.04181,-0.04715,0.00824,-0.0238,-0.02502,-0.01282,0.00183,0.02716,0.00458,-0.04395,-0.00336,-0.0325,-0.02167,0.00626,-0.03784
3.5435,-0.02213,-0.02899,-0.04349,0.01114,-0.02396,-0.02182,-0.01328,0.00214,0.02411,-0.00366,-0.00519,-0.0029,-0.03098,-0.02319,0.00626,-0.03601
3.544,-0.02823,-0.0177,-0.03357,0.00946,-0.02396,-0.02563,-0.01297,0.00168,0.01678,-0.00778,0.05859,-0.00244,-0.03128,-0.02502,0.00687,-0.03754
3.5445,-0.03723,-0.01755,-0.02014,0.0032,-0.02594,-0.03159,-0.01266,0.00107,0.00778,-0.01511,0.13046,-0.00229,-0.03464,-0.02579,0.00595,-0.03998
3.545,-0.04776,-0.0238,-0.01129,-0.00275,-0.02884,-0.03784,-0.01419,0.00031,0.0,-0.02579,0.16006,-0.00229,-0.03754,-0.02594,0.00534,-0.04028
3.5455,-0.05768,-0.02655,-0.00732,-0.00671,-0.03052,-0.04486,-0.01587,0.00031,-0.00626,-0.02777,0.1236,-0.00153,-0.03891,-0.02686,0.00717,-0.03952
3.546,-0.06302,-0.02426,-0.00671,-0.01038,-0.03143,-0.05066,-0.01648,0.00198,-0.01251,-0.00534,0.05325,-0.00107,-0.03876,-0.0293,0.01083,-0.03876
3.5465,-0.06241,-0.02243,-0.01251,-0.01526,-0.03204,-0.05386,-0.01282,0.00366,-0.01953,0.03937,0.00107,-0.00183,-0.03799,-0.03189,0.01129,-0.03937
3.547,-0.05493,-0.0235,-0.03754,-0.02106,-0.03204,-0.05463,-0.00854,0.00473,-0.02914,0.08972,-0.01816,-0.0029,-0.03754,-0.03342,0.01038,-0.03876
3.5475,-0.04593,-0.02609,-0.08636,-0.02625,-0.03189,-0.056,-0.00702,0.00488,-0.03906,0.12375,-0.01877,-0.00366,-0.03784,-0.03296,0.0087,-0.03738
3.548,-0.03983,-0.02991,-0.13947,-0.03021,-0.03006,-0.05875,-0.00916,0.00473,-0.04517,0.13382,-0.0058,-0.00259,-0.03693,-0.0322,0.00854,-0.03632
3.5485,-0.03876,-0.03662,-0.16174,-0.03311,-0.03021,-0.06088,-0.01343,0.00504,-0.04608,0.12665,0.02975,-0.00198,-0.0354,-0.03098,0.00977,-0.03784
3.549,-0.03815,-0.04547,-0.14145,-0.03387,-0.03326,-0.06073,-0.01755,0.00519,-0.04807,0.11383,0.0798,-0.00092,-0.03342,-0.03052,0.00916,-0.03998
3.5495,-0.0351,-0.05173,-0.09689,-0.03265,-0.03601,-0.05905,-0.02167,0.00305,-0.05173,0.10483,0.10254,0.00137,-0.03342,-0.03113,0.0087,-0.04028
3.55,-0.03082,-0.05386,-0.05249,-0.0293,-0.03601,-0.05615,-0.02609,0.00015,-0.05569,0.1033,0.06516,0.00519,-0.03342,-0.03113,0.00885,-0.03952
3.5505,-0.02441,-0.05127,-0.01862,-0.02762,-0.03403,-0.05554,-0.02884,-0.00214,-0.05615,0.10315,-0.01572,0.00671,-0.03403,-0.03082,0.0087,-0.03784
3.551,-0.0206,-0.04929,0.00458,-0.02792,-0.03403,-0.05478,-0.02716,-0.00412,-0.05157,0.09155,-0.09674,0.0061,-0.03479,-0.0296,0.00809,-0.03754
3.5515,-0.01633,-0.05508,0.009,-0.02838,-0.03448,-0.05676,-0.02151,-0.00671,-0.04333,0.06424,-0.14999,0.00504,-0.03387,-0.02731,0.00854,-0.0383
3.552,-0.00992,-0.0705,-0.01984,-0.02747,-0.03403,-0.05737,-0.01495,-0.00839,-0.03036,0.03113,-0.1741,0.00504,-0.0322,-0.02411,0.0087,-0.03952
3.5525,-0.00031,-0.08316,-0.07492,-0.02625,-0.03326,-0.05539,-0.01007,-0.00793,-0.01831,0.00732,-0.1709,0.00519,-0.03082,-0.02258,0.00778,-0.03922
3.553,0.00946,-0.08179,-0.12192,-0.02426,-0.03204,-0.04791,-0.00443,-0.00534,-0.01022,-0.00565,-0.14145,0.00534,-0.0296,-0.02136,0.0058,-0.03952
3.5535,0.01526,-0.06912,-0.14282,-0.02319,-0.0325,-0.03906,0.00519,-0.00275,0.00092,-0.01511,-0.0975,0.0058,-0.02838,-0.01999,0.00519,-0.03952
3.554,0.01389,-0.056,-0.15701,-0.02228,-0.03372,-0.03372,0.0177,-0.00336,0.02289,-0.02518,-0.05386,0.00534,-0.02686,-0.0174,0.00534,-0.03891
3.5545,0.00626,-0.05203,-0.18631,-0.01846,-0.03174,-0.03326,0.02075,-0.00626,0.04944,-0.03616,-0.01663,0.00458,-0.02533,-0.01465,0.00732,-0.03845
3.555,-0.0029,-0.05569,-0.20798,-0.00778,-0.03189,-0.03754,0.0087,-0.00931,0.06714,-0.04547,0.01343,0.00244,-0.02365,-0.01129,0.01038,-0.03769
3.5555,-0.01053,-0.06088,-0.18021,0.01099,-0.03311,-0.04196,-0.01114,-0.00916,0.06897,-0.05432,0.03571,0.00107,-0.02319,-0.00778,0.00885,-0.03647
3.556,-0.0145,-0.06104,-0.09171,0.02396,-0.03387,-0.04471,-0.02594,-0.00656,0.05829,-0.06073,0.04944,0.00168,-0.02197,-0.00519,0.00717,-0.03433
3.5565,-0.0145,-0.05173,0.02029,0.01144,-0.03174,-0.04471,-0.03021,-0.00473,0.04303,-0.06668,0.05753,0.00183,-0.0209,-0.00458,0.00565,-0.03235
3.557,-0.01129,-0.03418,0.11108,-0.0322,-0.03052,-0.047,-0.03006,-0.00305,0.02853,-0.07019,0.06439,0.00076,-0.01968,-0.00534,0.00473,-0.03418
3.5575,-0.00687,-0.01572,0.16052,-0.08606,-0.03143,-0.04974,-0.02777,-0.00229,0.01633,-0.0676,0.06042,0.00107,-0.01968,-0.00626,0.00412,-0.03876
3.558,-0.00702,-0.00778,0.16525,-0.12482,-0.03235,-0.0528,-0.02274,-0.00168,0.00626,-0.06134,0.03693,0.0032,-0.01999,-0.00702,0.00519,-0.04166
3.5585,-0.01419,-0.00839,0.12863,-0.13702,-0.03418,-0.05692,-0.0177,-0.00076,-0.00519,-0.05463,0.00244,0.00626,-0.0209,-0.00824,0.0058,-0.0415
3.559,-0.02762,-0.00946,0.04196,-0.12527,-0.03494,-0.06058,-0.01312,-0.00076,-0.02243,-0.05402,-0.02625,0.00687,-0.02106,-0.00931,0.00717,-0.04135
3.5595,-0.04196,-0.00366,-0.08209,-0.07416,-0.0351,-0.06256,-0.00702,-0.00015,-0.04913,-0.05676,-0.03677,0.00519,-0.02136,-0.00992,0.00778,-0.04303
3.56,-0.05447,0.00366,-0.19455,0.02167,-0.03372,-0.06149,-0.00076,0.00198,-0.08408,-0.05936,-0.02899,0.00305,-0.02304,-0.00946,0.01007,-0.04364
3.5605,-0.06119,0.0029,-0.22339,0.12695,-0.03281,-0.05783,0.00259,0.00519,-0.11353,-0.06302,-0.009,0.00214,-0.02502,-0.01007,0.01175,-0.04257
3.561,-0.06195,-0.00641,-0.14603,0.16953,-0.03281,-0.05386,-0.00107,0.00854,-0.12482,-0.06989,0.01114,0.00259,-0.02548,-0.01038,0.01205,-0.04074
3.5615,-0.05539,-0.01617,-0.01343,0.12009,-0.03387,-0.05081,-0.01053,0.0087,-0.11368,-0.0853,0.02106,0.00336,-0.02502,-0.00961,0.01083,-0.04074
3.562,-0.03967,-0.02396,0.09323,0.03464,-0.03387,-0.04852,-0.01678,0.0058,-0.08972,-0.11032,0.0174,0.0032,-0.02472,-0.00763,0.00931,-0.04181
3.5625,-0.01556,-0.03113,0.13,-0.01968,-0.03296,-0.04654,-0.01709,0.00122,-0.07141,-0.12772,0.01114,0.00305,-0.02533,-0.00702,0.009,-0.04181
3.563,0.01068,-0.03937,0.10452,-0.03235,-0.03433,-0.04425,-0.0145,-0.00488,-0.06821,-0.12405,0.01358,0.0029,-0.02625,-0.00839,0.00992,-0.04135
3.5635,0.02762,-0.0473,0.05112,-0.03021,-0.03586,-0.04303,-0.01587,-0.00946,-0.06744,-0.10376,0.01984,0.00244,-0.02777,-0.01068,0.01068,-0.04181
3.564,0.03235,-0.05432,-0.00061,-0.02548,-0.03738,-0.04181,-0.01831,-0.01068,-0.05066,-0.08209,0.0174,0.00153,-0.02914,-0.01251,0.00992,-0.04349
3.5645,0.0325,-0.06027,-0.03265,-0.01633,-0.03738,-0.03967,-0.01892,-0.00946,-0.02228,-0.0705,-0.0029,0.0,-0.03006,-0.01343,0.00763,-0.04593
3.565,0.03494,-0.06134,-0.04608,-0.00595,-0.03555,-0.03967,-0.01541,-0.00656,-0.00595,-0.06653,-0.03571,-0.00015,-0.03113,-0.01389,0.00763,-0.04745
3.5655,0.04059,-0.05859,-0.04822,-0.00549,-0.03433,-0.04135,-0.01266,-0.00336,-0.01526,-0.05966,-0.06287,-0.00076,-0.03143,-0.01556,0.00778,-0.04623
3.566,0.04745,-0.05402,-0.04684,-0.02518,-0.03159,-0.04578,-0.01099,-0.00092,-0.03693,-0.03891,-0.06058,-0.00061,-0.03265,-0.01862,0.00717,-0.04608
3.5665,0.05157,-0.05188,-0.04364,-0.06134,-0.02991,-0.0528,-0.0116,0.00046,-0.04929,-0.00229,-0.01923,-0.00275,-0.03326,-0.02075,0.00641,-0.04593
3.567,0.05203,-0.05127,-0.03326,-0.09521,-0.02975,-0.05905,-0.01251,0.00122,-0.04898,0.0383,0.04089,-0.00626,-0.03265,-0.02197,0.00732,-0.04562
3.5675,0.04974,-0.05157,-0.01755,-0.11261,-0.03159,-0.06271,-0.01328,0.0,-0.04456,0.06516,0.08041,-0.00793,-0.0322,-0.02243,0.00977,-0.04501
3.568,0.04791,-0.05386,-0.00458,-0.10666,-0.03265,-0.06058,-0.01358,-0.00183,-0.03983,0.07156,0.07751,-0.00671,-0.03265,-0.02289,0.01205,-0.04349
3.5685,0.04654,-0.05753,-0.01114,-0.08118,-0.03143,-0.05646,-0.01358,-0.0029,-0.03464,0.06638,0.0325,-0.00519,-0.03296,-0.02396,0.01297,-0.0415
3.569,0.04288,-0.05997,-0.04181,-0.04654,-0.03128,-0.05188,-0.01389,-0.00214,-0.03372,0.06012,-0.04608,-0.00443,-0.03479,-0.0238,0.01373,-0.03922
3.5695,0.03738,-0.05875,-0.08636,-0.01709,-0.03128,-0.04898,-0.01343,-0.00046,-0.03494,0.05859,-0.13794,-0.00412,-0.03693,-0.02457,0.01404,-0.03632
3.57,0.03311,-0.05447,-0.11444,-0.00946,-0.03036,-0.04684,-0.01465,-0.00153,-0.03036,0.05386,-0.20676,-0.00122,-0.0383,-0.02487,0.01541,-0.03616
3.5705,0.03159,-0.04944,-0.10651,-0.02228,-0.0293,-0.04654,-0.01633,-0.00443,-0.01816,0.04364,-0.22629,0.00122,-0.03754,-0.02472,0.01602,-0.0386
3.571,0.02655,-0.04547,-0.07019,-0.03723,-0.02869,-0.04578,-0.01709,-0.00702,-0.01038,0.03159,-0.19806,0.00061,-0.03632,-0.02502,0.01495,-0.04135
3.5715,0.01663,-0.04196,-0.0351,-0.04486,-0.02945,-0.0441,-0.01709,-0.00671,-0.01602,0.01984,-0.14023,-0.00244,-0.03632,-0.02563,0.01404,-0.04181
3.572,0.00504,-0.03998,-0.02014,-0.05096,-0.03082,-0.04349,-0.01602,-0.00458,-0.03189,0.00656,-0.0563,-0.00412,-0.03738,-0.02548,0.01251,-0.0412
3.5725,0.0,-0.04028,-0.02853,-0.06241,-0.03143,-0.04562,-0.01465,-0.00229,-0.0531,-0.00732,0.05524,-0.0029,-0.0383,-0.02441,0.01022,-0.04242
3.573,0.00183,-0.04028,-0.04684,-0.07874,-0.0322,-0.04852,-0.01373,-0.00214,-0.07187,-0.02014,0.15976,-0.00031,-0.03662,-0.0206,0.00366,-0.04593
3.5735,0.00519,-0.03815,-0.05676,-0.09033,-0.03281,-0.04929,-0.01373,-0.00305,-0.07858,-0.02594,0.1918,0.00076,-0.03479,-0.01587,-0.00351,-0.04959
3.574,0.00565,-0.03845,-0.05478,-0.09903,-0.03204,-0.04562,-0.01541,-0.00549,-0.06683,-0.02533,0.12756,0.00153,-0.03433,-0.01373,-0.00519,-0.05066
3.5745,0.00198,-0.04822,-0.04166,-0.10727,-0.03067,-0.0383,-0.0174,-0.00717,-0.04486,-0.02304,0.0119,0.00137,-0.03403,-0.01495,-0.00031,-0.04898
3.575,-0.0029,-0.06683,-0.01633,-0.09827,-0.0293,-0.03036,-0.01678,-0.00626,-0.02945,-0.01892,-0.09216,0.00015,-0.03387,-0.0177,0.00626,-0.04654
3.5755,-0.00427,-0.08026,0.01877,-0.0531,-0.02792,-0.02335,-0.01404,-0.00351,-0.02335,-0.00824,-0.14877,-0.00168,-0.03326,-0.02029,0.01007,-0.04654
3.576,0.00015,-0.0798,0.06241,0.01373,-0.02792,-0.01953,-0.01175,-0.00275,-0.01923,0.00885,-0.1503,-0.00305,-0.03372,-0.02151,0.01221,-0.04913
3.5765,0.00519,-0.0705,0.10422,0.06332,-0.02945,-0.02106,-0.0116,-0.00534,-0.01495,0.02075,-0.10315,-0.00229,-0.03418,-0.02106,0.01312,-0.04868
3.577,0.00504,-0.05798,0.13031,0.07065,-0.02991,-0.0267,-0.01251,-0.00793,-0.01373,0.01404,-0.02975,-0.00092,-0.03326,-0.01877,0.01404,-0.04532
3.5775,0.00092,-0.03937,0.13229,0.04929,-0.02853,-0.03281,-0.01175,-0.00671,-0.0174,-0.00732,0.03357,-0.00168,-0.03082,-0.01602,0.01404,-0.03922
3.578,-0.00107,-0.01434,0.10986,0.03387,-0.0267,-0.0354,-0.00946,-0.00427,-0.01953,-0.02731,0.05981,-0.00336,-0.03006,-0.01602,0.01434,-0.03433
3.5785,0.00168,0.00671,0.07263,0.04288,-0.02731,-0.0351,-0.00793,-0.00168,-0.01678,-0.03128,0.04715,-0.00443,-0.03159,-0.01938,0.01389,-0.03494
3.579,0.00778,0.01465,0.0267,0.04517,-0.02914,-0.03464,-0.00916,0.00046,-0.0119,-0.02274,0.00992,-0.00458,-0.03494,-0.02335,0.01175,-0.03922
3.5795,0.01373,0.01709,-0.02045,-0.00122,-0.02975,-0.03448,-0.01083,0.00305,-0.00778,-0.01923,-0.03326,-0.00458,-0.03616,-0.02319,0.00793,-0.04303
3.58,0.01511,0.0293,-0.05814,-0.08698,-0.02792,-0.03418,-0.01114,0.00549,-0.00229,-0.03006,-0.06668,-0.00427,-0.03662,-0.01953,0.00458,-0.04562
3.5805,0.00961,0.05188,-0.07324,-0.16159,-0.02594,-0.03448,-0.01068,0.0058,0.00793,-0.04623,-0.08102,-0.00336,-0.03662,-0.01587,0.0029,-0.04807
3.581,-0.00107,0.07172,-0.06561,-0.19394,-0.02609,-0.03403,-0.01083,0.00519,0.02182,-0.05936,-0.07721,-0.00305,-0.03723,-0.01434,0.00076,-0.04944
3.5815,-0.01205,0.07233,-0.04822,-0.1738,-0.02686,-0.03464,-0.01221,0.00488,0.03571,-0.06683,-0.05814,-0.00168,-0.03738,-0.01297,-0.00061,-0.04929
3.582,-0.01923,0.0444,-0.03738,-0.08057,-0.02792,-0.03418,-0.01373,0.00427,0.04425,-0.07233,-0.02411,-0.00031,-0.03662,-0.0116,-0.00153,-0.04837
3.5825,-0.02197,-0.01114,-0.03799,0.08957,-0.02945,-0.03342,-0.01495,0.00046,0.04257,-0.0708,0.01511,0.00229,-0.0351,-0.01068,-0.00153,-0.04623
3.583,-0.0177,-0.08316,-0.04547,0.26001,-0.03098,-0.03479,-0.01617,-0.00595,0.02853,-0.06058,0.04623,0.00397,-0.03494,-0.01236,0.00229,-0.04364
3.5835,-0.00732,-0.1442,-0.05402,0.31738,-0.03174,-0.03937,-0.01846,-0.0119,0.00702,-0.0528,0.06378,0.00397,-0.03601,-0.01617,0.009,-0.0415
3.584,0.00519,-0.16953,-0.06149,0.24139,-0.03174,-0.0441,-0.02167,-0.01434,-0.01541,-0.05859,0.07828,0.00198,-0.03708,-0.01953,0.01526,-0.04089
3.5845,0.01251,-0.15869,-0.07004,0.1181,-0.03296,-0.04837,-0.02319,-0.01343,-0.03342,-0.07507,0.09476,0.0,-0.03708,-0.02136,0.01617,-0.04166
3.585,0.01282,-0.13275,-0.08163,0.03372,-0.03418,-0.04868,-0.02396,-0.0119,-0.04303,-0.09018,0.1001,-0.00153,-0.03677,-0.02289,0.01358,-0.04181
3.5855,0.0087,-0.10864,-0.09247,0.00687,-0.03403,-0.047,-0.02365,-0.01251,-0.04303,-0.09262,0.07507,-0.00107,-0.03845,-0.02274,0.01205,-0.04105
3.586,0.00916,-0.08942,-0.10071,0.01831,-0.03342,-0.04562,-0.02274,-0.01144,-0.04013,-0.08209,0.01694,-0.00031,-0.03952,-0.02396,0.01404,-0.04105
3.5865,0.01495,-0.07309,-0.10376,0.04532,-0.03006,-0.04547,-0.02151,-0.0087,-0.03769,-0.0592,-0.04623,-0.00061,-0.03967,-0.02426,0.0145,-0.04242
3.587,0.02533,-0.06195,-0.10223,0.06699,-0.02655,-0.04684,-0.01938,-0.00626,-0.03708,-0.03815,-0.08011,-0.00137,-0.03845,-0.02319,0.01221,-0.0444
3.5875,0.0351,-0.05707,-0.09872,0.07904,-0.02502,-0.04944,-0.01892,-0.00778,-0.03616,-0.02426,-0.07919,-0.00168,-0.03784,-0.02029,0.00732,-0.04501
3.588,0.04303,-0.05615,-0.09659,0.08713,-0.02518,-0.05402,-0.01999,-0.0116,-0.03357,-0.0206,-0.06302,-0.00092,-0.03876,-0.01648,0.0029,-0.04333
3.5885,0.04532,-0.05661,-0.0946,0.08438,-0.0264,-0.05905,-0.02045,-0.01297,-0.02792,-0.02045,-0.05142,0.00015,-0.03952,-0.01373,0.00122,-0.04105
3.589,0.04105,-0.05692,-0.09445,0.05646,-0.02731,-0.06271,-0.01923,-0.01083,-0.02289,-0.02274,-0.04807,0.00107,-0.03891,-0.01312,0.00198,-0.04044
3.5895,0.03098,-0.05798,-0.09995,0.01007,-0.02853,-0.06546,-0.01877,-0.00687,-0.02121,-0.0322,-0.04562,0.00137,-0.03799,-0.01404,0.00519,-0.04028
3.59,0.01984,-0.06119,-0.11749,-0.03632,-0.0293,-0.06699,-0.01831,-0.00519,-0.02274,-0.05478,-0.03937,0.00031,-0.03616,-0.01404,0.00946,-0.03967
3.5905,0.00595,-0.06805,-0.14099,-0.08057,-0.02914,-0.06607,-0.01816,-0.0058,-0.02487,-0.09186,-0.02869,-0.00259,-0.03555,-0.01419,0.01297,-0.03952
3.591,-0.00671,-0.07889,-0.15442,-0.12329,-0.02823,-0.06134,-0.01587,-0.00702,-0.02533,-0.1265,-0.01511,-0.00549,-0.03616,-0.0148,0.01328,-0.03998
3.5915,-0.01068,-0.0943,-0.15015,-0.15274,-0.02563,-0.05539,-0.01251,-0.0087,-0.02228,-0.14725,-0.00671,-0.00504,-0.03693,-0.01724,0.01282,-0.04089
3.592,0.0,-0.11169,-0.14084,-0.15518,-0.02502,-0.05096,-0.00916,-0.00824,-0.01816,-0.15244,-0.01297,-0.00198,-0.03632,-0.02014,0.0119,-0.0415
3.5925,0.0209,-0.12283,-0.14114,-0.1387,-0.02625,-0.04913,-0.00824,-0.00732,-0.01236,-0.14587,-0.03159,0.00015,-0.03479,-0.02258,0.01129,-0.04135
3.593,0.0383,-0.11963,-0.1442,-0.10452,-0.02884,-0.04852,-0.00946,-0.00519,-0.00488,-0.12726,-0.04105,0.00168,-0.0322,-0.02167,0.01022,-0.0412
3.5935,0.04227,-0.10376,-0.13596,-0.04471,-0.03021,-0.04715,-0.01129,-0.00305,-0.00107,-0.09781,-0.02396,0.00092,-0.03036,-0.02014,0.00793,-0.04028
3.594,0.03555,-0.08484,-0.11078,0.01892,-0.03067,-0.04501,-0.01221,-0.00183,-0.00183,-0.06073,0.0,0.00092,-0.03006,-0.01938,0.00763,-0.03967
3.5945,0.0293,-0.0676,-0.08072,0.03952,-0.03067,-0.04364,-0.01297,-0.00092,-0.00305,-0.02289,-0.00015,0.00092,-0.03006,-0.01831,0.00839,-0.03983
3.595,0.02869,-0.05173,-0.05554,0.00977,-0.03143,-0.04257,-0.01266,0.00198,-0.00305,0.01099,-0.02426,0.00046,-0.02884,-0.01724,0.00916,-0.03952
3.5955,0.03204,-0.04013,-0.0386,-0.02136,-0.03296,-0.04181,-0.01236,0.00473,-0.00107,0.03845,-0.04211,0.00092,-0.02472,-0.01617,0.01068,-0.0383
3.596,0.03693,-0.03693,-0.02747,-0.02518,-0.03387,-0.04288,-0.01129,0.00458,0.00229,0.05142,-0.03326,0.00153,-0.02197,-0.01556,0.0119,-0.03693
3.5965,0.03723,-0.03784,-0.02014,-0.01633,-0.03403,-0.04486,-0.01236,0.00214,0.0061,0.05203,-0.009,0.00214,-0.02258,-0.01633,0.0119,-0.03738
3.597,0.02899,-0.02914,-0.01419,-0.01556,-0.03387,-0.0444,-0.01404,-0.00168,0.00641,0.04974,0.01312,0.00229,-0.02441,-0.0177,0.01099,-0.03891
3.5975,0.01511,-0.00778,-0.02655,-0.02533,-0.03494,-0.04288,-0.01617,-0.00427,0.00214,0.05539,0.0322,0.00275,-0.02625,-0.01846,0.01114,-0.03906
3.598,0.00183,0.01236,-0.09109,-0.04227,-0.03677,-0.04211,-0.01541,-0.00671,-0.0061,0.06973,0.05707,0.00351,-0.02838,-0.01892,0.01266,-0.03723
3.5985,-0.00427,0.01923,-0.21469,-0.05859,-0.03784,-0.04227,-0.01465,-0.00565,-0.01175,0.08102,0.08224,0.00473,-0.03067,-0.01846,0.01617,-0.03647
3.599,-0.00458,0.01617,-0.32349,-0.06226,-0.03616,-0.04288,-0.01602,-0.0029,-0.01205,0.07813,0.08987,0.00488,-0.03235,-0.01785,0.01785,-0.03769
3.5995,-0.00275,0.01068,-0.31082,-0.05173,-0.03433,-0.04333,-0.01846,-0.00092,-0.01068,0.06302,0.06821,0.00549,-0.03235,-0.01831,0.01663,-0.04166
3.6,-0.00015,0.00824,-0.16098,-0.04196,-0.03342,-0.04333,-0.02045,-0.00153,-0.01221,0.04715,0.02228,0.00626,-0.03204,-0.01801,0.01236,-0.04501
3.6005,0.00198,0.00717,0.03616,-0.04013,-0.03357,-0.04135,-0.02075,-0.00397,-0.01434,0.03845,-0.02991,0.00702,-0.0322,-0.01877,0.00931,-0.04761
3.601,0.00259,0.00595,0.18402,-0.0351,-0.03281,-0.03891,-0.02045,-0.00504,-0.01328,0.03876,-0.06348,0.00702,-0.03403,-0.01999,0.009,-0.04944
3.6015,0.00168,0.00641,0.25864,-0.02167,-0.0322,-0.03571,-0.01953,-0.00443,-0.01022,0.04166,-0.05722,0.0061,-0.03571,-0.02106,0.01022,-0.04883
3.602,0.00031,0.01083,0.27847,-0.00916,-0.03128,-0.0322,-0.01892,-0.00351,-0.00702,0.04089,-0.02274,0.00534,-0.03677,-0.02045,0.01007,-0.047
3.6025,-0.00092,0.01877,0.26199,-0.00366,-0.03021,-0.02991,-0.01785,-0.00183,-0.00397,0.03372,0.00092,0.00534,-0.03754,-0.02029,0.00885,-0.04562
3.603,-0.00336,0.0238,0.21896,-0.00046,-0.02914,-0.03082,-0.01556,-0.00031,-0.00061,0.02335,-0.00839,0.00366,-0.03708,-0.02075,0.00931,-0.0441
3.6035,-0.00778,0.01999,0.16632,0.00977,-0.03128,-0.03601,-0.01419,-0.00046,0.00259,0.01266,-0.03113,0.00122,-0.03662,-0.02213,0.01175,-0.04196
3.604,-0.01114,0.00748,0.11795,0.02396,-0.0351,-0.04349,-0.01419,-0.00046,0.00244,0.00473,-0.0383,0.00046,-0.03555,-0.02243,0.01266,-0.03937
3.6045,-0.01312,-0.00549,0.07736,0.03311,-0.03708,-0.05127,-0.01328,-0.00031,-0.00275,-0.00061,-0.02167,0.00015,-0.03403,-0.02213,0.01266,-0.03784
3.605,-0.01068,-0.01465,0.0386,0.03265,-0.03738,-0.05905,-0.01282,0.00122,-0.01251,-0.00244,0.00351,-0.00015,-0.03433,-0.02197,0.01007,-0.03708
3.6055,-0.00595,-0.02228,0.00504,0.02274,-0.03799,-0.06729,-0.01297,0.00229,-0.02563,-0.00015,0.01938,0.00031,-0.03479,-0.02136,0.00946,-0.03632
3.606,0.00076,-0.03159,-0.01755,0.00961,-0.03937,-0.07401,-0.01297,0.00305,-0.04196,0.00046,0.01846,0.00153,-0.03494,-0.02197,0.00946,-0.03693
3.6065,0.00687,-0.04181,-0.02625,0.00076,-0.03937,-0.07919,-0.01266,0.00351,-0.05951,-0.00748,0.00534,0.00214,-0.0351,-0.02289,0.00824,-0.03922
3.607,0.01022,-0.05035,-0.02487,0.00122,-0.0383,-0.08118,-0.01266,0.00244,-0.07477,-0.02121,-0.00748,0.00275,-0.03525,-0.02304,0.00702,-0.04318
3.6075,0.01053,-0.05539,-0.0267,0.00595,-0.03769,-0.08301,-0.01251,-0.00061,-0.08377,-0.0354,-0.00412,0.0032,-0.03677,-0.0235,0.00687,-0.04471
3.608,0.00992,-0.05646,-0.03281,0.00336,-0.03677,-0.0853,-0.01343,-0.00275,-0.08881,-0.04303,0.0235,0.00473,-0.0386,-0.0238,0.00732,-0.04532
3.6085,0.0061,-0.056,-0.0351,-0.00946,-0.0351,-0.08835,-0.01373,-0.00183,-0.09109,-0.0444,0.06149,0.00641,-0.03922,-0.02335,0.00931,-0.04593
3.609,-0.00092,-0.05875,-0.02808,-0.02365,-0.03311,-0.08942,-0.01282,-0.00183,-0.08636,-0.04349,0.07767,0.00793,-0.03799,-0.02365,0.01053,-0.04715
3.6095,-0.00656,-0.06836,-0.01907,-0.02304,-0.03281,-0.08591,-0.01022,-0.00351,-0.0676,-0.04364,0.05188,0.00778,-0.03555,-0.02243,0.01129,-0.04761
3.61,-0.00977,-0.08011,-0.02151,-0.00671,-0.03311,-0.07935,-0.00763,-0.00519,-0.03738,-0.04456,0.00473,0.00778,-0.03433,-0.0209,0.01099,-0.04593
3.6105,-0.01358,-0.08347,-0.03952,0.01083,-0.03433,-0.07141,-0.00702,-0.00412,-0.00977,-0.04974,-0.01389,0.00824,-0.03342,-0.01862,0.009,-0.04425
3.611,-0.02136,-0.07263,-0.06348,0.01358,-0.03586,-0.06378,-0.00839,-0.00168,0.00549,-0.05249,0.00916,0.00931,-0.03265,-0.01831,0.00793,-0.04288
3.6115,-0.02884,-0.05295,-0.08286,0.00443,-0.03616,-0.0592,-0.01007,-0.00122,0.00778,-0.05127,0.03387,0.00778,-0.03311,-0.0177,0.00687,-0.04059
3.612,-0.02487,-0.03448,-0.0943,-0.00366,-0.03647,-0.05844,-0.0119,-0.00137,0.00488,-0.04913,0.02426,0.00504,-0.03342,-0.01877,0.00763,-0.03998
3.6125,-0.009,-0.02945,-0.10529,-0.00748,-0.0354,-0.06012,-0.01328,-0.00137,0.00153,-0.05264,-0.0116,0.00259,-0.03311,-0.01877,0.00946,-0.04089
3.613,0.01144,-0.03784,-0.12283,-0.01129,-0.03494,-0.05875,-0.01282,-0.00061,0.00046,-0.06134,-0.04684,0.00153,-0.03128,-0.01877,0.01144,-0.04196
3.6135,0.02777,-0.05005,-0.1413,-0.01724,-0.03433,-0.05493,-0.0119,0.00046,0.00229,-0.06882,-0.0705,0.00214,-0.02914,-0.01816,0.01404,-0.0412
3.614,0.03601,-0.05875,-0.14725,-0.02533,-0.03464,-0.05112,-0.01068,0.00076,0.00427,-0.06775,-0.0914,0.00381,-0.02701,-0.0174,0.01389,-0.03937
3.6145,0.04181,-0.06073,-0.13535,-0.03616,-0.03555,-0.04761,-0.01068,0.00076,0.00031,-0.06027,-0.11322,0.00519,-0.02533,-0.01633,0.0119,-0.03891
3.615,0.05005,-0.05859,-0.11459,-0.04333,-0.03647,-0.04333,-0.01099,0.0,-0.01099,-0.05005,-0.13199,0.00549,-0.02502,-0.01587,0.00885,-0.03952
3.6155,0.05646,-0.05447,-0.09354,-0.03876,-0.03723,-0.03677,-0.01175,-0.00137,-0.02106,-0.03998,-0.14847,0.00504,-0.02518,-0.01404,0.00717,-0.03967
3.616,0.05493,-0.04822,-0.07614,-0.01938,-0.0354,-0.03021,-0.0119,-0.00229,-0.02167,-0.03143,-0.16342,0.00412,-0.02502,-0.00992,0.00641,-0.03906
3.6165,0.04608,-0.04211,-0.07217,0.00107,-0.03418,-0.02609,-0.0119,-0.00183,-0.01526,-0.02411,-0.18021,0.00214,-0.02563,-0.00641,0.00519,-0.03983
3.617,0.0322,-0.04028,-0.09674,0.00473,-0.03372,-0.02625,-0.0116,-0.00076,-0.01144,-0.02228,-0.19119,-0.00092,-0.02579,-0.00351,0.00565,-0.04181
3.6175,0.01648,-0.04745,-0.13611,-0.01801,-0.03311,-0.02945,-0.01175,-0.00061,-0.01663,-0.02625,-0.18417,-0.00351,-0.02548,-0.0029,0.00549,-0.04318
3.618,0.00061,-0.05737,-0.15045,-0.06256,-0.03128,-0.03113,-0.01328,-0.00229,-0.02365,-0.03494,-0.15518,-0.00519,-0.02502,-0.00504,0.00504,-0.04196
3.6185,-0.01114,-0.06287,-0.11017,-0.10803,-0.03113,-0.03098,-0.01404,-0.00305,-0.02411,-0.03967,-0.11429,-0.00519,-0.02502,-0.01007,0.00412,-0.04028
3.619,-0.01785,-0.06363,-0.02686,-0.1297,-0.03296,-0.02991,-0.01373,-0.00061,-0.0145,-0.03479,-0.07294,-0.00092,-0.02502,-0.01419,0.00458,-0.03983
3.6195,-0.0206,-0.06088,0.06348,-0.11658,-0.03494,-0.03098,-0.01205,0.00336,-0.00214,-0.02396,-0.03433,0.00565,-0.02518,-0.01587,0.00519,-0.04196
3.62,-0.02075,-0.05371,0.13107,-0.06714,-0.03418,-0.03342,-0.01038,0.00732,0.00687,-0.01434,0.00092,0.01114,-0.02625,-0.01663,0.00397,-0.04303
3.6205,-0.0174,-0.04105,0.16876,0.02747,-0.03204,-0.03433,-0.00854,0.00824,0.00992,-0.01556,0.03006,0.01038,-0.02731,-0.01694,0.00183,-0.04196
3.621,-0.0087,-0.02396,0.18188,0.16464,-0.03067,-0.0325,-0.00793,0.00717,0.01129,-0.03143,0.04883,0.00488,-0.02747,-0.01633,0.00092,-0.04074
3.6215,0.00275,-0.00671,0.17349,0.29221,-0.03052,-0.03067,-0.00931,0.00366,0.01404,-0.05676,0.04959,-0.00198,-0.0296,-0.01648,0.00259,-0.04074
3.622,0.00961,0.00244,0.15091,0.32379,-0.03067,-0.03113,-0.01251,-0.00015,0.01556,-0.07935,0.03174,-0.00885,-0.0322,-0.01724,0.00336,-0.04272
3.6225,0.00626,-0.00488,0.12451,0.23026,-0.03021,-0.03433,-0.01404,-0.00412,0.01236,-0.08652,0.00626,-0.01678,-0.0351,-0.01907,0.00381,-0.0441
