time,RectFemL,VastusMedL,VastusLatL,TibAntL,HamMedL,HamLatL,GastroMedL,GastroLatL,RectFemR,VastusMedR,VastusLatR,TibAntR,HamMedR,HamLatR,GastroMedR,GastroLatR
7.56,-0.01419,0.01328,0.05646,-0.04211,-0.03098,-0.04379,-0.00565,-0.02365,-2.15942,-0.00031,-0.03143,0.00259,-0.03143,-0.02151,-0.01556,-0.06439
7.5605,-0.01587,0.04364,0.07706,-0.03098,-0.02914,-0.03983,-0.01694,-0.0354,-1.88309,0.00137,-0.04242,0.009,-0.03281,-0.02365,-0.01633,-0.07813
7.561,-0.02014,0.05264,0.08911,-0.01556,-0.02609,-0.03662,-0.02304,-0.03464,-1.88858,0.00534,-0.04242,0.01266,-0.03418,-0.02258,0.01068,-0.09689
7.5615,-0.02731,0.04852,0.08713,-0.00793,-0.02625,-0.03738,-0.0293,-0.03281,-1.93253,0.01038,-0.03006,0.01053,-0.0351,-0.02106,0.06042,-0.10941
7.562,-0.03433,0.04959,0.06927,-0.0087,-0.02594,-0.03952,-0.03876,-0.04089,-1.85791,0.01495,-0.01328,0.00595,-0.0354,-0.02136,0.09888,-0.10773
7.5625,-0.04181,0.06439,0.03769,-0.00763,-0.02853,-0.04318,-0.04395,-0.05402,-1.70883,0.01602,-0.00107,0.00336,-0.03525,-0.02274,0.09354,-0.09827
7.563,-0.04501,0.08194,0.00046,-0.0032,-0.02914,-0.04562,-0.04013,-0.06073,-1.56799,0.0148,0.00488,0.00443,-0.0322,-0.02472,0.05676,-0.08728
7.5635,-0.04272,0.08316,-0.03708,0.0,-0.03006,-0.04761,-0.0322,-0.05768,-1.34705,0.01343,0.00839,0.00412,-0.02899,-0.02472,0.03555,-0.08102
7.564,-0.03937,0.06165,-0.06805,0.0,-0.03403,-0.04944,-0.02762,-0.0499,-0.91019,0.0116,0.00961,0.00214,-0.02747,-0.02319,0.03708,-0.07721
7.5645,-0.03998,0.02991,-0.08759,-0.00198,-0.03479,-0.0531,-0.0264,-0.03967,-0.37933,0.00656,0.0061,0.00168,-0.02853,-0.02274,0.03113,-0.07431
7.565,-0.04471,0.00168,-0.09003,-0.00122,-0.03647,-0.05524,-0.02304,-0.0264,-0.06485,-0.00137,0.00076,0.00275,-0.02884,-0.0235,-0.00076,-0.06653
7.5655,-0.04837,-0.02365,-0.07477,0.00107,-0.03693,-0.05402,-0.01938,-0.01251,-0.05676,-0.00931,-0.00504,0.0029,-0.02731,-0.02472,-0.04105,-0.05905
7.566,-0.04822,-0.05569,-0.05096,-0.00092,-0.03494,-0.05234,-0.01465,-0.00153,-0.1416,-0.01434,-0.00961,0.00198,-0.02518,-0.02609,-0.06332,-0.05325
7.5665,-0.04745,-0.09674,-0.02533,-0.00412,-0.03296,-0.05386,-0.00824,0.00443,-0.13626,-0.01663,-0.01114,0.00061,-0.02502,-0.02609,-0.05859,-0.05402
7.567,-0.04807,-0.13153,-0.00229,-0.00595,-0.03418,-0.05676,-0.00275,0.01053,-0.0798,-0.01709,-0.01556,0.00031,-0.02655,-0.02731,-0.02472,-0.05722
7.5675,-0.04944,-0.14679,0.01434,-0.00565,-0.03662,-0.0592,-0.00427,0.0148,-0.0679,-0.01694,-0.01724,-0.00046,-0.03067,-0.02686,0.03357,-0.06149
7.568,-0.05051,-0.1445,0.0174,-0.00397,-0.0412,-0.06119,-0.01266,0.01114,-0.08972,-0.01602,-0.01724,-0.00107,-0.03342,-0.0267,0.09247,-0.06302
7.5685,-0.0499,-0.1384,-0.00397,-0.00168,-0.04013,-0.06241,-0.02029,0.00015,-0.08682,-0.01602,-0.01831,-0.00137,-0.03311,-0.02609,0.1149,-0.06058
7.569,-0.04684,-0.13657,-0.05554,-0.00015,-0.03922,-0.06332,-0.02213,-0.00717,-0.05585,-0.0174,-0.02182,-0.00031,-0.0296,-0.02548,0.08377,-0.0592
7.5695,-0.04196,-0.13962,-0.12085,0.00168,-0.03647,-0.06104,-0.0206,-0.00443,-0.03311,-0.01892,-0.02609,0.00031,-0.02426,-0.02304,0.02304,-0.05508
7.57,-0.03403,-0.14404,-0.16586,0.00824,-0.03494,-0.05508,-0.02243,-0.00015,-0.02838,-0.02151,-0.02563,0.00015,-0.0209,-0.01801,-0.02777,-0.04532
7.5705,-0.01984,-0.14633,-0.18005,0.01678,-0.03342,-0.04578,-0.0264,-0.00122,-0.02258,-0.02472,-0.02136,-0.00061,-0.02045,-0.01053,-0.04517,-0.03769
7.571,0.00153,-0.14648,-0.17685,0.02167,-0.03204,-0.03632,-0.02899,-0.00824,-0.00305,-0.02762,-0.01755,-0.00031,-0.02106,-0.00412,-0.03952,-0.0325
7.5715,0.02594,-0.14572,-0.17075,0.01816,-0.03006,-0.02991,-0.02762,-0.01617,0.02548,-0.0267,-0.0177,0.0,-0.02213,-0.00122,-0.01709,-0.02975
7.572,0.04639,-0.14587,-0.15152,0.00977,-0.0267,-0.03174,-0.02411,-0.02121,0.06332,-0.02457,-0.02121,-0.00015,-0.02426,-0.00061,0.02335,-0.03189
7.5725,0.05875,-0.14359,-0.10605,-0.00519,-0.02808,-0.0383,-0.01923,-0.01938,0.1123,-0.02457,-0.02594,-0.00107,-0.02899,-0.00076,0.05997,-0.03784
7.573,0.065,-0.13321,-0.04776,-0.02823,-0.0293,-0.04486,-0.01617,-0.00977,0.16632,-0.02579,-0.03464,-0.00229,-0.03464,-0.0029,0.05295,-0.04272
7.5735,0.06699,-0.11398,-0.00259,-0.06653,-0.02991,-0.04654,-0.01236,0.00061,0.20813,-0.02472,-0.047,-0.00198,-0.03952,-0.00397,0.0029,-0.04501
7.574,0.06622,-0.09232,0.0209,-0.10986,-0.02991,-0.0444,-0.00793,0.00458,0.22186,-0.0209,-0.05569,0.00015,-0.04196,-0.00565,-0.04486,-0.04181
7.5745,0.06287,-0.07538,0.03342,-0.14282,-0.02975,-0.04242,-0.00473,0.00473,0.21957,-0.01541,-0.0528,0.00137,-0.04166,-0.0061,-0.06363,-0.03662
7.575,0.05646,-0.06638,0.04288,-0.15808,-0.03098,-0.04318,-0.00565,0.00443,0.22659,-0.01266,-0.03967,0.00061,-0.03922,-0.009,-0.06531,-0.0293
7.5755,0.04669,-0.06149,0.04776,-0.15747,-0.02899,-0.04501,-0.00732,0.00839,0.24994,-0.0145,-0.0238,-0.00076,-0.03479,-0.01404,-0.07095,-0.02335
7.576,0.03799,-0.05508,0.04684,-0.1326,-0.03052,-0.04623,-0.01007,0.01175,0.27191,-0.0206,-0.01022,-0.00092,-0.03265,-0.01953,-0.09003,-0.01709
7.5765,0.03128,-0.04562,0.04395,-0.05417,-0.02945,-0.04669,-0.01221,0.01144,0.28122,-0.02594,0.00015,-0.00107,-0.03296,-0.02274,-0.09735,-0.01373
7.577,0.03052,-0.03372,0.04227,0.08423,-0.03052,-0.04547,-0.01434,0.00763,0.28595,-0.03067,0.01083,0.00015,-0.03448,-0.02213,-0.07111,-0.01205
7.5775,0.03189,-0.02136,0.04089,0.2095,-0.02777,-0.04456,-0.01633,0.00504,0.30075,-0.03387,0.01724,0.00076,-0.0351,-0.01785,-0.03174,-0.01205
7.578,0.0325,-0.01099,0.03754,0.21881,-0.02914,-0.04425,-0.01801,0.00473,0.32822,-0.03891,0.01968,0.00031,-0.03265,-0.01678,0.00137,-0.01297
7.5785,0.02945,-0.00244,0.03143,0.11047,-0.02884,-0.04318,-0.0177,0.00519,0.35706,-0.03983,0.01694,-0.00061,-0.03036,-0.01633,0.04944,-0.01373
7.579,0.02289,0.00107,0.02335,0.0,-0.0322,-0.04318,-0.01404,0.00427,0.37369,-0.03967,0.01007,-0.00015,-0.03021,-0.01755,0.12253,-0.0145
7.5795,0.01663,0.00183,0.01358,-0.03067,-0.03357,-0.04364,-0.00992,0.00412,0.37659,-0.03799,0.00305,0.00107,-0.03418,-0.01846,0.18814,-0.01495
7.58,0.01099,0.00229,0.00641,-0.01358,-0.03235,-0.04318,-0.00671,0.00519,0.37766,-0.03387,-0.00458,0.00092,-0.0383,-0.01846,0.19196,-0.01846
7.5805,0.00763,0.00259,0.00153,-0.01022,-0.03082,-0.0444,-0.00519,0.00778,0.38437,-0.02686,-0.00641,-0.00092,-0.04242,-0.01846,0.11063,-0.0238
7.581,0.00473,0.00397,-0.00229,-0.02747,-0.03021,-0.04623,-0.00488,0.00977,0.39261,-0.01785,-0.00763,-0.00183,-0.04532,-0.02106,-0.0148,-0.01968
7.5815,0.00305,0.00214,-0.00519,-0.02792,-0.02914,-0.04807,-0.00458,0.00961,0.39536,-0.00809,-0.00824,-0.00122,-0.047,-0.02228,-0.1059,-0.00412
7.582,0.00198,0.00015,-0.01068,0.00977,-0.0293,-0.04944,-0.0058,0.00916,0.39246,0.00061,-0.0119,0.00061,-0.04868,-0.0209,-0.1123,0.02563
7.5825,0.00244,-0.00061,-0.01877,0.06226,-0.02991,-0.04944,-0.00687,0.00748,0.38895,0.00366,-0.01801,0.00259,-0.04868,-0.01968,-0.03128,0.06012
7.583,0.00305,-0.00168,-0.03021,0.08652,-0.03098,-0.04929,-0.00732,0.00549,0.38757,0.00137,-0.02029,0.00229,-0.04929,-0.01938,0.08194,0.09369
7.5835,0.00305,-0.0029,-0.04578,0.06622,-0.03113,-0.04974,-0.00687,0.00412,0.38773,-0.00153,-0.02182,0.00107,-0.04669,-0.02182,0.1268,0.10681
7.584,0.00061,-0.00534,-0.06516,0.01862,-0.03265,-0.05051,-0.00763,0.00397,0.38864,-0.0029,-0.01953,0.0,-0.04059,-0.02213,0.04257,0.09964
7.5845,-0.00244,-0.00931,-0.08209,-0.02625,-0.03342,-0.05112,-0.00839,0.00488,0.38818,-0.00366,-0.01831,-0.00092,-0.03265,-0.0209,-0.10559,0.065
7.585,-0.00473,-0.01068,-0.09109,-0.0528,-0.0351,-0.05173,-0.00931,0.00259,0.38376,-0.0058,-0.01419,-0.00122,-0.02411,-0.0177,-0.18478,0.009
7.5855,-0.00443,-0.01022,-0.08774,-0.0528,-0.03525,-0.05173,-0.00885,-0.00168,0.3775,-0.00839,-0.00824,0.00031,-0.01831,-0.01587,-0.14084,-0.05051
7.586,-0.00473,-0.00809,-0.07507,-0.01236,-0.03815,-0.05188,-0.00854,-0.00549,0.36942,-0.00977,-0.00412,0.00214,-0.0174,-0.01343,-0.03357,-0.09277
7.5865,-0.00641,-0.00595,-0.0528,0.06058,-0.04044,-0.05264,-0.00961,-0.00687,0.36072,-0.00839,-0.00351,0.00198,-0.01938,-0.0119,0.04547,-0.12161
7.587,-0.009,-0.00626,-0.02457,0.11246,-0.04211,-0.0528,-0.0116,-0.00565,0.35492,-0.00839,-0.00443,0.0,-0.02243,-0.0116,0.06241,-0.14053
7.5875,-0.01022,-0.00748,-0.00565,0.09216,-0.04242,-0.05371,-0.01312,-0.00488,0.35095,-0.01083,-0.00381,-0.00092,-0.02533,-0.01282,0.04715,-0.14282
7.588,-0.01083,-0.00839,-0.0238,0.02029,-0.04364,-0.05478,-0.01419,-0.00458,0.34714,-0.01526,-0.00473,-0.00046,-0.02792,-0.01633,0.0499,-0.12009
7.5885,-0.00931,-0.009,-0.08911,-0.04166,-0.04517,-0.05615,-0.01343,-0.00412,0.34363,-0.01923,-0.00595,0.00076,-0.03204,-0.01801,0.08728,-0.08072
7.589,-0.00641,-0.00946,-0.16464,-0.06332,-0.04669,-0.05768,-0.01312,-0.00412,0.33951,-0.01907,-0.00946,0.00122,-0.03693,-0.01633,0.12222,-0.03448
7.5895,-0.00092,-0.01038,-0.19577,-0.05951,-0.04669,-0.05707,-0.01251,-0.00397,0.33218,-0.01434,-0.01526,0.00015,-0.03952,-0.01236,0.09369,0.00931
7.59,0.00854,-0.01114,-0.16846,-0.05463,-0.04349,-0.05478,-0.0119,-0.0029,0.3212,-0.01175,-0.0209,-0.00046,-0.04059,-0.01114,-0.0148,0.05066
7.5905,0.02228,-0.0116,-0.10742,-0.05051,-0.0412,-0.05203,-0.01175,-0.0029,0.31113,-0.01297,-0.02609,-0.00046,-0.04181,-0.01236,-0.11261,0.09598
7.591,0.03815,-0.02167,-0.02792,-0.03845,-0.03693,-0.04852,-0.01144,-0.00305,0.30487,-0.0174,-0.02838,0.00061,-0.04532,-0.01511,-0.08072,0.13626
7.5915,0.04623,-0.04852,0.07004,-0.02213,-0.03387,-0.04486,-0.01221,-0.0029,0.30151,-0.02243,-0.03128,0.00198,-0.04852,-0.01602,0.05585,0.15945
7.592,0.04089,-0.08575,0.17365,-0.01099,-0.03204,-0.04318,-0.01312,-0.00153,0.29816,-0.02869,-0.03372,0.00198,-0.04898,-0.01251,0.12375,0.1535
7.5925,0.02426,-0.10361,0.24734,-0.00687,-0.03098,-0.04349,-0.01404,-0.00122,0.29373,-0.03769,-0.03296,0.00061,-0.04623,-0.01144,0.02945,0.11612
7.593,0.00412,-0.08575,0.26077,0.00214,-0.02838,-0.04562,-0.01465,-0.00244,0.29068,-0.04181,-0.03021,-0.00031,-0.04135,-0.01434,-0.11353,0.05402
7.5935,-0.01465,-0.04623,0.21469,0.02274,-0.02716,-0.04852,-0.01556,-0.00305,0.28885,-0.03281,-0.02609,0.00122,-0.03632,-0.02045,-0.13214,-0.0322
7.594,-0.0325,-0.01038,0.12924,0.04623,-0.02869,-0.05035,-0.01541,-0.00366,0.28702,-0.01465,-0.01465,0.00381,-0.03311,-0.02335,0.00961,-0.14084
7.5945,-0.04868,0.009,0.03189,0.05081,-0.03143,-0.05096,-0.01419,-0.00305,0.28336,0.00229,0.01358,0.00427,-0.03021,-0.02441,0.18433,-0.25635
7.595,-0.0618,0.01633,-0.05707,0.03235,-0.03479,-0.05157,-0.01297,-0.00183,0.27512,0.01236,0.05081,0.0032,-0.02655,-0.02487,0.25558,-0.34103
7.5955,-0.07126,0.01816,-0.12817,-0.00412,-0.03525,-0.05066,-0.01251,-0.00092,0.26459,0.01907,0.06546,0.0029,-0.02228,-0.02319,0.21713,-0.37445
7.596,-0.07233,0.01831,-0.17365,-0.04547,-0.03632,-0.05005,-0.01328,-0.00092,0.2565,0.02502,0.03952,0.00381,-0.0177,-0.01633,0.14862,-0.37552
7.5965,-0.06546,0.01801,-0.19287,-0.08087,-0.03479,-0.05081,-0.01541,-0.00244,0.2533,0.03021,-0.00366,0.00397,-0.01373,-0.00946,0.09705,-0.36865
7.597,-0.05615,0.01862,-0.18692,-0.09995,-0.03494,-0.0528,-0.0174,-0.00488,0.25116,0.0293,-0.03006,0.00244,-0.01083,-0.00656,0.0679,-0.35309
7.5975,-0.04684,0.01526,-0.16357,-0.10376,-0.03235,-0.05386,-0.01816,-0.00656,0.24734,0.02518,-0.0325,0.00137,-0.01236,-0.00931,0.06256,-0.31708
7.598,-0.03769,0.00763,-0.1268,-0.09888,-0.02899,-0.05371,-0.01709,-0.00641,0.23972,0.02045,-0.02853,0.00183,-0.0177,-0.01495,0.07523,-0.25909
7.5985,-0.02762,-0.00595,-0.08392,-0.09445,-0.02701,-0.05341,-0.01663,-0.0058,0.22919,0.01556,-0.02792,0.00198,-0.0235,-0.02045,0.08728,-0.19531
7.599,-0.01846,-0.02426,-0.05325,-0.10727,-0.02625,-0.05325,-0.01648,-0.00458,0.22263,0.009,-0.02945,0.00137,-0.02579,-0.02777,0.07858,-0.12711
7.5995,-0.01389,-0.04425,-0.05753,-0.15045,-0.02472,-0.05295,-0.01648,-0.00366,0.22339,0.00061,-0.03708,0.00122,-0.02197,-0.0383,0.05524,-0.0589
7.6,-0.01328,-0.06165,-0.09415,-0.20615,-0.02518,-0.05188,-0.01663,-0.00305,0.22751,-0.00565,-0.0528,0.00229,-0.01755,-0.04913,0.0325,-0.00275
7.6005,-0.01053,-0.07141,-0.13184,-0.23743,-0.02502,-0.0499,-0.01587,-0.00244,0.23224,-0.00885,-0.07507,0.00397,-0.01633,-0.06226,0.02197,0.01938
7.601,-0.00275,-0.07538,-0.14313,-0.21637,-0.02502,-0.04868,-0.01572,-0.00244,0.23682,-0.01114,-0.09308,0.00519,-0.01709,-0.06866,0.01724,0.01663
7.6015,0.00549,-0.0766,-0.12833,-0.13474,-0.02441,-0.04745,-0.01572,-0.00092,0.24261,-0.01846,-0.09705,0.00458,-0.02106,-0.07004,0.01038,0.01648
7.602,0.00793,-0.0795,-0.10239,0.00259,-0.0264,-0.04745,-0.01526,0.00061,0.24887,-0.0267,-0.09308,0.00458,-0.02609,-0.06912,0.00153,0.04501
7.6025,0.00778,-0.08713,-0.06821,0.16266,-0.02914,-0.04639,-0.01434,0.00122,0.2536,-0.03204,-0.08408,0.00366,-0.03174,-0.06622,-0.00061,0.08789
7.603,0.01053,-0.09659,-0.02945,0.27115,-0.03036,-0.04379,-0.01373,0.00137,0.25238,-0.03204,-0.06653,0.00198,-0.03784,-0.05722,0.00641,0.09613
7.6035,0.0177,-0.10056,0.00305,0.26093,-0.02716,-0.04059,-0.0145,0.00137,0.24216,-0.0293,-0.03967,0.00183,-0.04227,-0.04593,0.00809,0.0386
7.604,0.02289,-0.09583,0.01801,0.15335,-0.02518,-0.04028,-0.01526,0.00244,0.224,-0.02975,-0.01831,0.00244,-0.04761,-0.03937,-0.00488,-0.05402
7.6045,0.02441,-0.08469,0.02029,0.04303,-0.02319,-0.04318,-0.01526,0.00122,0.20432,-0.04074,-0.01022,0.00381,-0.05112,-0.03937,-0.02884,-0.12573
7.605,0.02426,-0.07156,0.01938,-0.00626,-0.02472,-0.04486,-0.01587,-0.00122,0.19012,-0.06226,-0.00183,0.00504,-0.05295,-0.03967,-0.04608,-0.14908
7.6055,0.02426,-0.05936,0.02045,-0.01404,-0.02304,-0.04547,-0.01709,-0.00458,0.18158,-0.08789,0.01251,0.00519,-0.05356,-0.03189,-0.04196,-0.13062
7.606,0.02258,-0.0441,0.02243,-0.01923,-0.02335,-0.04562,-0.01831,-0.00488,0.17319,-0.10681,0.03128,0.00443,-0.05173,-0.01694,-0.02853,-0.08102
7.6065,0.01923,-0.02167,0.01968,-0.03525,-0.02472,-0.04745,-0.01938,-0.00122,0.16006,-0.11398,0.04227,0.00397,-0.047,-0.00214,-0.0473,-0.01038
7.607,0.01526,0.00168,0.00595,-0.04822,-0.02625,-0.05081,-0.01968,0.00153,0.14023,-0.10941,0.04837,0.0032,-0.0412,0.00534,-0.14084,0.06119
7.6075,0.01068,0.01419,-0.02029,-0.05112,-0.03036,-0.05188,-0.01907,-0.00046,0.11627,-0.09964,0.05005,0.0029,-0.03738,0.00519,-0.29602,0.10559
7.608,0.00656,0.00916,-0.05157,-0.04333,-0.0322,-0.05112,-0.01724,-0.00732,0.0946,-0.09048,0.0502,0.00381,-0.0386,0.00046,-0.44083,0.10818
7.6085,0.00366,-0.01083,-0.07339,-0.02487,-0.03311,-0.04913,-0.01587,-0.01389,0.07721,-0.08148,0.0441,0.00397,-0.04288,-0.00458,-0.48141,0.07492
7.609,0.00244,-0.04028,-0.07614,0.00595,-0.03448,-0.04761,-0.01556,-0.01923,0.06699,-0.07614,0.03067,0.00336,-0.04608,-0.00824,-0.37231,0.01511
7.6095,0.00351,-0.06577,-0.05798,0.03616,-0.03464,-0.047,-0.0145,-0.02487,0.06073,-0.07355,0.00687,0.00092,-0.04562,-0.01068,-0.16296,-0.0589
7.61,0.00305,-0.07111,-0.02304,0.05157,-0.03448,-0.04639,-0.01389,-0.03479,0.05203,-0.07126,-0.0174,-0.00198,-0.0444,-0.01236,0.03998,-0.1329
7.6105,-0.00137,-0.04959,0.01373,0.05432,-0.03418,-0.04654,-0.01328,-0.04562,0.0412,-0.0621,-0.03723,-0.00214,-0.04562,-0.01602,0.16922,-0.17578
7.611,-0.00946,-0.01831,0.02701,0.05508,-0.03479,-0.04547,-0.01526,-0.04318,0.03738,-0.03891,-0.04852,0.00061,-0.05035,-0.02106,0.19363,-0.17197
7.6115,-0.01328,-0.00626,-0.0029,0.05432,-0.03494,-0.04562,-0.0177,-0.01694,0.04791,-0.00137,-0.0502,0.0058,-0.05539,-0.02472,0.11124,-0.13657
7.612,-0.00854,-0.02197,-0.06485,0.04776,-0.03479,-0.047,-0.01923,0.01587,0.06622,0.03754,-0.0383,0.00809,-0.05539,-0.02365,-0.01724,-0.09567
7.6125,0.00305,-0.0502,-0.121,0.03387,-0.03387,-0.04745,-0.01816,0.03067,0.09048,0.05753,-0.01694,0.00824,-0.0502,-0.01495,-0.09537,-0.04974
7.613,0.01251,-0.07309,-0.14069,0.0148,-0.03311,-0.047,-0.01556,0.02121,0.12421,0.05112,-0.00259,0.00763,-0.04089,0.00244,-0.0766,0.00443
7.6135,0.01633,-0.08789,-0.12405,-0.00763,-0.03281,-0.047,-0.01373,0.0058,0.16861,0.03555,-0.00854,0.00641,-0.03098,0.02594,0.00565,0.04791
7.614,0.01816,-0.09811,-0.08545,-0.02548,-0.03281,-0.04761,-0.01373,0.00137,0.21759,0.03052,-0.02991,0.00473,-0.02396,0.05112,0.08881,0.05249
7.6145,0.01801,-0.09995,-0.03235,-0.03082,-0.03372,-0.0473,-0.01312,0.0058,0.26245,0.03494,-0.0499,0.00153,-0.01816,0.06912,0.13031,0.02106
7.615,0.01328,-0.09079,0.03189,-0.0267,-0.03265,-0.04608,-0.01358,0.00946,0.29953,0.03952,-0.06882,0.00031,-0.01114,0.07462,0.12741,-0.0235
7.6155,0.00244,-0.07782,0.09506,-0.01907,-0.03387,-0.04684,-0.01328,0.00809,0.33066,0.04059,-0.10757,0.00076,-0.00488,0.06226,0.12619,-0.05814
7.616,-0.01099,-0.06882,0.14206,-0.00946,-0.03586,-0.04868,-0.01236,0.00519,0.35782,0.04105,-0.16632,0.00076,-0.00015,0.0412,0.16846,-0.07645
7.6165,-0.02029,-0.06866,0.16205,-0.00381,-0.03525,-0.04944,-0.0116,0.00336,0.38254,0.04105,-0.19897,-0.00046,0.00183,0.01846,0.22263,-0.07767
7.617,-0.02014,-0.07233,0.14908,-0.01648,-0.03448,-0.04868,-0.01038,0.00214,0.40558,0.03876,-0.16037,-0.00183,0.00122,-0.00427,0.2179,-0.07324
7.6175,-0.01419,-0.07233,0.09949,-0.04333,-0.03448,-0.04852,-0.01053,0.00031,0.42816,0.03235,-0.07248,-0.00107,-0.00137,-0.02396,0.1358,-0.07874
7.618,-0.0058,-0.05844,0.01633,-0.06439,-0.03204,-0.04913,-0.01129,-0.00229,0.4483,0.02396,0.00824,0.00076,-0.0061,-0.03906,0.03494,-0.08896
7.6185,0.00168,-0.0267,-0.09247,-0.06424,-0.03067,-0.04837,-0.0119,-0.00427,0.46341,0.01328,0.05386,0.00229,-0.01221,-0.0444,-0.03036,-0.08774
7.619,0.00809,0.01175,-0.20187,-0.05035,-0.03036,-0.04684,-0.01221,-0.00641,0.4715,0.00595,0.08148,0.00305,-0.01862,-0.03738,-0.06271,-0.06592
7.6195,0.01144,0.03464,-0.2774,-0.03647,-0.02792,-0.04517,-0.01114,-0.00748,0.47028,0.0029,0.10574,0.00259,-0.02304,-0.02502,-0.08041,-0.04349
7.62,0.00977,0.02258,-0.29007,-0.02029,-0.02548,-0.04532,-0.01068,-0.00656,0.45883,0.00381,0.121,0.00229,-0.02686,-0.02045,-0.0737,-0.03311
7.6205,0.00259,-0.02014,-0.24628,0.00793,-0.0264,-0.04776,-0.01022,-0.00473,0.4393,0.00275,0.11444,0.00153,-0.03326,-0.02625,-0.04074,-0.02838
7.621,-0.00595,-0.07278,-0.1738,0.04852,-0.02808,-0.05127,-0.01068,-0.00381,0.41336,-0.00351,0.08026,0.00168,-0.04044,-0.0383,-0.01953,-0.01785
7.6215,-0.01419,-0.11276,-0.09033,0.08286,-0.02945,-0.0531,-0.01144,-0.00626,0.38483,-0.01694,0.0351,0.0032,-0.04822,-0.05066,-0.03876,-0.00732
7.622,-0.02289,-0.12741,-0.00137,0.08728,-0.0296,-0.05142,-0.01282,-0.00946,0.3569,-0.03754,0.00229,0.00534,-0.05432,-0.06149,-0.05356,-0.00885
7.6225,-0.0293,-0.11765,0.07813,0.05966,-0.0293,-0.04745,-0.01389,-0.00977,0.33035,-0.05646,-0.00595,0.00732,-0.0589,-0.07019,0.00839,-0.01526
7.623,-0.0296,-0.09323,0.11612,0.01999,-0.02853,-0.04303,-0.01251,-0.00702,0.30289,-0.06241,0.00519,0.00763,-0.06134,-0.07187,0.11887,-0.00931
7.6235,-0.02518,-0.06317,0.10391,-0.01053,-0.02777,-0.04181,-0.01251,-0.00534,0.2713,-0.05447,0.0209,0.00488,-0.06165,-0.06302,0.13916,0.01328
7.624,-0.02151,-0.03189,0.07004,-0.02823,-0.02731,-0.04303,-0.01495,-0.00412,0.2243,-0.04623,0.0325,0.00122,-0.06256,-0.04929,-0.03036,0.02808
7.6245,-0.02182,-0.00381,0.04318,-0.03555,-0.02686,-0.04578,-0.01678,-0.00488,0.14938,-0.04898,0.04028,-0.00244,-0.06378,-0.03632,-0.30792,0.01343
7.625,-0.02335,0.01083,0.03128,-0.03494,-0.02762,-0.04669,-0.01633,-0.00504,0.04745,-0.05096,0.04852,-0.00534,-0.06531,-0.02823,-0.4863,-0.01556
7.6255,-0.02518,0.00916,0.03311,-0.03159,-0.02701,-0.04745,-0.01358,-0.00504,-0.0502,-0.03922,0.05402,-0.00732,-0.06256,-0.0235,-0.39581,-0.02686
7.626,-0.03006,-0.00305,0.05386,-0.02899,-0.02594,-0.0473,-0.01312,-0.00412,-0.11093,-0.01297,0.05051,-0.00732,-0.05676,-0.01968,-0.07843,-0.01114
7.6265,-0.03769,-0.0119,0.08881,-0.0296,-0.02563,-0.04562,-0.01343,-0.00214,-0.13626,0.01495,0.03708,-0.00626,-0.05142,-0.01678,0.21606,0.01755
7.627,-0.04242,-0.00763,0.11536,-0.03098,-0.0264,-0.04303,-0.01373,-0.00092,-0.15411,0.02823,0.02243,-0.00458,-0.04868,-0.01587,0.29083,0.04105
7.6275,-0.03876,0.00534,0.11459,-0.03098,-0.02808,-0.04089,-0.01328,-0.00153,-0.17776,0.01907,0.02533,-0.00397,-0.04761,-0.01785,0.19257,0.06607
7.628,-0.03067,0.01587,0.09048,-0.02762,-0.0296,-0.03952,-0.01404,-0.00366,-0.20126,-0.00443,0.05936,-0.00397,-0.047,-0.01938,0.0737,0.10147
7.6285,-0.02609,0.0119,0.06042,-0.02441,-0.03098,-0.04105,-0.01495,-0.00549,-0.21484,-0.02869,0.11688,-0.00366,-0.04318,-0.01785,-0.00443,0.14648
7.629,-0.02701,-0.00778,0.03265,-0.02548,-0.03098,-0.04425,-0.01633,-0.00702,-0.22049,-0.04211,0.1561,-0.00351,-0.03845,-0.01343,-0.0528,0.19196
7.6295,-0.02594,-0.03769,-0.00168,-0.03494,-0.0322,-0.04684,-0.01602,-0.00763,-0.23071,-0.04135,0.14786,-0.00366,-0.03448,-0.00763,-0.0589,0.22568
7.63,-0.01846,-0.07202,-0.0473,-0.04745,-0.03098,-0.04852,-0.0177,-0.00671,-0.25375,-0.0354,0.10071,-0.00504,-0.03296,-0.00214,-0.00031,0.2211
7.6305,-0.00519,-0.10178,-0.09476,-0.05402,-0.0296,-0.04898,-0.01831,-0.0058,-0.28595,-0.03113,0.05035,-0.00732,-0.03189,0.00168,0.08438,0.16769
7.631,0.00931,-0.11765,-0.13596,-0.04333,-0.02747,-0.0473,-0.01709,-0.00504,-0.31418,-0.0264,0.00763,-0.01038,-0.02945,0.00473,0.10513,0.09552
7.6315,0.02319,-0.11719,-0.1651,-0.01358,-0.02777,-0.04349,-0.01541,-0.00366,-0.33249,-0.02289,-0.03632,-0.0119,-0.02487,0.00839,0.02106,0.02777
7.632,0.03311,-0.10895,-0.17853,0.02121,-0.02808,-0.03952,-0.01343,-0.00198,-0.34576,-0.02136,-0.09308,-0.01205,-0.02243,0.01236,-0.08804,-0.05692
7.6325,0.03616,-0.10345,-0.17395,0.04105,-0.02853,-0.03815,-0.01282,-0.00061,-0.35995,-0.02609,-0.15121,-0.01282,-0.02411,0.01617,-0.11108,-0.1712
7.633,0.03387,-0.10223,-0.15701,0.03433,-0.02731,-0.03784,-0.01236,-0.00015,-0.37659,-0.02762,-0.18768,-0.01358,-0.02808,0.02045,-0.0354,-0.27618
7.6335,0.03159,-0.10361,-0.13565,0.00824,-0.02716,-0.03891,-0.01282,-0.00046,-0.39459,-0.02457,-0.18539,-0.01328,-0.03052,0.02319,0.08514,-0.32928
7.634,0.03296,-0.10803,-0.12009,-0.0174,-0.02548,-0.04181,-0.01465,-0.00107,-0.41138,-0.01495,-0.15259,-0.01083,-0.03098,0.01999,0.22888,-0.32883
7.6345,0.03784,-0.11566,-0.10956,-0.03021,-0.02487,-0.04333,-0.01526,-0.00031,-0.42374,-0.00412,-0.11627,-0.00854,-0.03082,0.00931,0.36392,-0.29327
7.635,0.04578,-0.12619,-0.11032,-0.02945,-0.0238,-0.04425,-0.01526,0.00015,-0.42633,-0.0029,-0.09644,-0.00763,-0.03021,-0.00229,0.39825,-0.24078
7.6355,0.05203,-0.13138,-0.13031,-0.02228,-0.02441,-0.04364,-0.0148,0.00046,-0.41748,-0.00748,-0.09384,-0.00778,-0.02594,-0.01053,0.29007,-0.19745
7.636,0.05219,-0.12131,-0.16556,-0.0177,-0.02365,-0.04303,-0.01556,-0.00031,-0.40192,-0.01312,-0.09842,-0.00793,-0.01938,-0.01404,0.13062,-0.18127
7.6365,0.04578,-0.10086,-0.19592,-0.02075,-0.02548,-0.04272,-0.01648,-0.00092,-0.38559,-0.01389,-0.10147,-0.00839,-0.01312,-0.01694,0.04135,-0.1828
7.637,0.03555,-0.08621,-0.20523,-0.03052,-0.02563,-0.04196,-0.01587,-0.00061,-0.37064,-0.01053,-0.09521,-0.00824,-0.00916,-0.02121,0.03128,-0.17792
7.6375,0.02625,-0.07904,-0.20432,-0.04074,-0.02609,-0.04257,-0.01541,-0.00015,-0.35843,0.00046,-0.07843,-0.00839,-0.00824,-0.02579,0.03326,-0.15335
7.638,0.0206,-0.06744,-0.21271,-0.04486,-0.02899,-0.04303,-0.01511,-0.00107,-0.35492,0.00977,-0.05829,-0.00793,-0.00732,-0.02823,0.01022,-0.11978
7.6385,0.01633,-0.0444,-0.22919,-0.0412,-0.03189,-0.0441,-0.01617,-0.00305,-0.36392,0.01511,-0.04257,-0.00702,-0.00671,-0.02777,0.00122,-0.09155
7.639,0.01053,-0.01907,-0.21637,-0.03265,-0.03448,-0.04623,-0.01587,-0.00504,-0.37689,0.01328,-0.03036,-0.00595,-0.00793,-0.02457,0.05737,-0.07721
7.6395,0.00244,-0.00046,-0.14832,-0.02426,-0.03418,-0.04807,-0.01434,-0.00748,-0.38071,0.0087,-0.02029,-0.00687,-0.01038,-0.01816,0.16846,-0.07584
7.64,-0.00641,0.01358,-0.03998,-0.0174,-0.03403,-0.04929,-0.01373,-0.01236,-0.37216,0.0058,-0.0087,-0.00702,-0.01266,-0.01251,0.2388,-0.07446
7.6405,-0.0148,0.02762,0.07172,-0.01282,-0.03403,-0.05005,-0.01373,-0.01785,-0.35767,0.00214,-0.00061,-0.00671,-0.01511,-0.01282,0.19302,-0.06851
7.641,-0.0209,0.03906,0.15945,-0.01007,-0.03571,-0.04929,-0.01404,-0.01785,-0.34058,-0.0029,0.00366,-0.00626,-0.01953,-0.02075,0.07889,-0.05875
7.6415,-0.02609,0.04623,0.22263,-0.00885,-0.03815,-0.04807,-0.01511,-0.0116,-0.32196,-0.01328,0.00732,-0.00656,-0.0238,-0.03174,0.00275,-0.04791
7.642,-0.02838,0.04822,0.26489,-0.00778,-0.03754,-0.04562,-0.0145,-0.00443,-0.30273,-0.02747,0.01373,-0.00824,-0.02594,-0.04166,-0.00687,-0.0354
7.6425,-0.02914,0.04776,0.28275,-0.00732,-0.03677,-0.04456,-0.01328,-0.0029,-0.2829,-0.04227,0.0206,-0.00931,-0.02548,-0.05234,-0.00992,-0.01907
7.643,-0.02838,0.04623,0.27145,-0.00549,-0.03616,-0.04547,-0.01251,-0.00504,-0.26428,-0.05798,0.02213,-0.00946,-0.02426,-0.06256,-0.04028,0.00153
7.6435,-0.02853,0.04288,0.23178,-0.00244,-0.03662,-0.047,-0.01282,-0.00565,-0.24963,-0.07339,0.01648,-0.0087,-0.02426,-0.06805,-0.06302,0.0296
7.644,-0.02792,0.03616,0.17258,0.00092,-0.03708,-0.04852,-0.01434,-0.00381,-0.23926,-0.0827,0.00565,-0.00732,-0.02701,-0.06714,-0.03799,0.05676
7.6445,-0.02457,0.02548,0.10773,0.0029,-0.03769,-0.04974,-0.0148,-0.00214,-0.22781,-0.08606,-0.00565,-0.00732,-0.0293,-0.06271,0.03891,0.07034
7.645,-0.01877,0.01328,0.05051,0.00305,-0.03738,-0.05081,-0.01404,-0.00122,-0.21286,-0.08545,-0.01419,-0.00717,-0.03067,-0.05707,0.12527,0.07355
7.6455,-0.01297,0.00275,0.00763,0.00244,-0.03693,-0.05371,-0.01312,-0.00168,-0.19699,-0.08484,-0.02441,-0.00778,-0.03281,-0.05173,0.15167,0.07721
7.646,-0.01312,-0.00641,-0.02289,0.00168,-0.03647,-0.05707,-0.01343,-0.00763,-0.18829,-0.07904,-0.03738,-0.00854,-0.03632,-0.04532,0.11032,0.08011
7.6465,-0.01587,-0.01312,-0.04562,0.00259,-0.03632,-0.05997,-0.01556,-0.02014,-0.18585,-0.06927,-0.05035,-0.00977,-0.03906,-0.03677,0.07034,0.06744
7.647,-0.01587,-0.0177,-0.06287,0.0032,-0.03571,-0.05936,-0.01648,-0.03403,-0.18127,-0.05661,-0.05768,-0.01053,-0.04059,-0.02914,0.06927,0.03876
7.6475,-0.00916,-0.01877,-0.07416,0.00168,-0.03525,-0.05661,-0.01556,-0.04288,-0.16464,-0.04257,-0.06378,-0.01022,-0.04272,-0.0235,0.04639,0.00397
7.648,-0.00107,-0.01541,-0.0795,0.00015,-0.03342,-0.05417,-0.01465,-0.04211,-0.13809,-0.03784,-0.07629,-0.01007,-0.04486,-0.01892,-0.02701,-0.02594
7.6485,0.0032,-0.00305,-0.07797,-0.00107,-0.03235,-0.05447,-0.01434,-0.0235,-0.11017,-0.04318,-0.08789,-0.01099,-0.04517,-0.0119,-0.06516,-0.04745
7.649,0.00702,0.01358,-0.07233,-0.00153,-0.03281,-0.05463,-0.01373,0.0174,-0.08636,-0.05829,-0.07614,-0.01175,-0.04333,-0.00305,-0.00549,-0.05798
7.6495,0.0148,0.01404,-0.06287,-0.00031,-0.03082,-0.05249,-0.01389,0.06195,-0.06439,-0.06653,-0.05096,-0.01175,-0.03876,0.00397,0.06149,-0.05356
7.65,0.02563,-0.00656,-0.04974,0.00092,-0.03067,-0.04929,-0.01343,0.07477,-0.03998,-0.06485,-0.04364,-0.01038,-0.03204,0.00778,0.02747,-0.0351
7.6505,0.03036,-0.03265,-0.03113,0.00137,-0.0322,-0.04791,-0.01343,0.04639,-0.01236,-0.0528,-0.05234,-0.00885,-0.02762,0.00656,-0.05875,-0.00183
7.651,0.02548,-0.04486,-0.00946,0.00244,-0.03265,-0.04715,-0.01389,0.00793,0.01297,-0.05005,-0.0441,-0.00748,-0.02701,0.00244,-0.06317,0.03067
7.6515,0.0145,-0.04761,0.00656,0.00229,-0.03281,-0.04669,-0.01389,-0.00946,0.03098,-0.05737,-0.00702,-0.00534,-0.03052,-0.00031,0.0351,0.03143
7.652,0.00366,-0.05112,0.01221,0.00076,-0.03372,-0.04623,-0.01373,-0.00732,0.04395,-0.0621,0.04044,-0.00351,-0.03616,-0.00015,0.12146,-0.01038
7.6525,-0.00824,-0.05722,0.00381,-0.00168,-0.03387,-0.04654,-0.01312,-0.00443,0.06088,-0.05814,0.07919,-0.00275,-0.04211,0.0,0.11673,-0.06073
7.653,-0.02258,-0.06104,-0.01373,-0.00366,-0.03448,-0.04791,-0.01236,-0.00504,0.0856,-0.04547,0.10803,-0.00351,-0.04868,-0.00458,0.06256,-0.0824
7.6535,-0.03616,-0.06058,-0.03342,-0.00534,-0.03418,-0.04944,-0.01328,-0.0029,0.10773,-0.0354,0.11841,-0.00381,-0.05203,-0.01434,0.02747,-0.07614
7.654,-0.047,-0.05447,-0.0528,-0.00702,-0.03372,-0.05249,-0.0148,0.00198,0.11612,-0.02533,0.09674,-0.00427,-0.05234,-0.02579,0.01022,-0.06363
7.6545,-0.05478,-0.04471,-0.07385,-0.00839,-0.03311,-0.05508,-0.01572,0.00427,0.11597,-0.01297,0.05096,-0.00259,-0.047,-0.03281,-0.02167,-0.05692
7.655,-0.06012,-0.0351,-0.10193,-0.00916,-0.03448,-0.056,-0.01556,0.00122,0.12009,0.00458,0.00671,-0.00031,-0.04044,-0.0351,-0.06409,-0.05234
7.6555,-0.06363,-0.03296,-0.1326,-0.00931,-0.03616,-0.05371,-0.01556,-0.00397,0.13458,0.02518,-0.02228,0.00122,-0.03555,-0.03586,-0.08575,-0.04196
7.656,-0.0647,-0.03876,-0.15213,-0.00885,-0.03845,-0.0502,-0.01541,-0.00748,0.15656,0.04913,-0.04471,0.00214,-0.03174,-0.0354,-0.0827,-0.02197
7.6565,-0.06714,-0.04486,-0.15335,-0.00946,-0.03952,-0.04761,-0.01587,-0.00748,0.17853,0.06882,-0.05859,0.00229,-0.0267,-0.03235,-0.06958,-0.00015
7.657,-0.07065,-0.04639,-0.14389,-0.00961,-0.03845,-0.04929,-0.01495,-0.00153,0.19318,0.08438,-0.05493,0.00183,-0.02014,-0.02625,-0.04639,0.01038
7.6575,-0.07263,-0.04272,-0.13046,-0.009,-0.03738,-0.05463,-0.01465,0.00824,0.19958,0.09491,-0.03174,0.00229,-0.01465,-0.02167,-0.02426,0.00122
7.658,-0.06561,-0.0386,-0.11292,-0.00793,-0.03708,-0.05905,-0.01373,0.01251,0.19913,0.08896,-0.00717,0.00275,-0.01434,-0.01846,-0.04044,-0.0293
7.6585,-0.04913,-0.03937,-0.09308,-0.00763,-0.03632,-0.06088,-0.01358,-0.00656,0.19211,0.07523,0.00473,0.00183,-0.0209,-0.0148,-0.10422,-0.07187
7.659,-0.03174,-0.04593,-0.07919,-0.00778,-0.03525,-0.06058,-0.01495,-0.05081,0.17792,0.05707,0.00534,0.00183,-0.0296,-0.01175,-0.17151,-0.10529
7.6595,-0.0206,-0.05875,-0.07507,-0.00702,-0.03357,-0.05936,-0.01465,-0.08865,0.10788,0.04578,0.00366,0.00427,-0.03479,-0.01114,-0.18387,-0.1123
7.66,-0.0148,-0.07751,-0.07553,-0.00641,-0.0322,-0.05676,-0.01266,-0.07996,-0.17563,0.04745,-0.00336,0.00656,-0.03372,-0.01297,-0.13275,-0.09369
7.6605,-0.01129,-0.09979,-0.07324,-0.00717,-0.03143,-0.05524,-0.0116,-0.01816,-0.80444,0.04791,-0.02167,0.00763,-0.02762,-0.01495,-0.05432,-0.06561
7.661,-0.01022,-0.11093,-0.06775,-0.00824,-0.03174,-0.05295,-0.0116,0.05447,-1.60355,0.04242,-0.047,0.00748,-0.01907,-0.01541,0.00244,-0.04272
7.6615,-0.0116,-0.10345,-0.0621,-0.00824,-0.03265,-0.05173,-0.01175,0.08194,-2.16965,0.03326,-0.06561,0.00809,-0.0119,-0.01663,0.0058,-0.02625
7.662,-0.00961,-0.08423,-0.05692,-0.0087,-0.03128,-0.0499,-0.01129,0.03479,-2.30896,0.02518,-0.06653,0.01038,-0.00702,-0.02258,-0.02975,-0.00854
7.6625,-0.00305,-0.06561,-0.05814,-0.00885,-0.03052,-0.04745,-0.01114,-0.07278,-2.20825,0.02411,-0.05203,0.01358,-0.00336,-0.02914,-0.06561,0.00992
7.663,0.00229,-0.05249,-0.08163,-0.00916,-0.02991,-0.0444,-0.01144,-0.20691,-2.12936,0.02213,-0.02899,0.01511,-0.00122,-0.03082,-0.08362,0.01495
7.6635,0.00153,-0.04379,-0.13275,-0.00931,-0.0296,-0.04074,-0.0119,-0.31677,-2.12173,0.02029,-0.00626,0.01358,-0.00427,-0.02625,-0.09155,-0.00168
7.664,-0.00198,-0.0386,-0.1825,-0.01007,-0.03067,-0.03891,-0.00946,-0.32364,-2.08252,0.01846,0.01236,0.0116,-0.01297,-0.01953,-0.09293,-0.02487
7.6645,-0.00168,-0.03586,-0.1886,-0.01144,-0.03418,-0.03876,-0.00717,-0.15549,-1.94687,0.00381,0.02335,0.01144,-0.02365,-0.01312,-0.09369,-0.03815
7.665,0.00427,-0.03113,-0.14175,-0.01282,-0.03769,-0.04013,-0.00854,0.13641,-1.74988,-0.03342,0.02823,0.01373,-0.03311,-0.0087,-0.09842,-0.04761
7.6655,0.01144,-0.01526,-0.06805,-0.01465,-0.04074,-0.04135,-0.01633,0.35599,-1.55609,-0.08331,0.02609,0.01587,-0.0386,-0.00366,-0.09247,-0.05814
7.666,0.01389,0.01129,0.0116,-0.01633,-0.04196,-0.04303,-0.02563,0.35538,-1.39481,-0.12619,0.02029,0.01587,-0.04074,-0.00107,-0.05493,-0.04456
7.6665,0.01144,0.03342,0.09567,-0.0174,-0.04074,-0.04303,-0.02869,0.19623,-1.25351,-0.14862,0.01373,0.01434,-0.04135,-0.00443,0.01328,0.00641
7.667,0.00626,0.03433,0.17044,-0.01816,-0.0383,-0.04211,-0.02411,0.056,-1.1087,-0.15671,0.00748,0.01343,-0.04257,-0.01114,0.07996,0.05234
7.6675,0.00183,0.01587,0.21301,-0.01907,-0.03693,-0.0412,-0.01801,0.01297,-0.952,-0.16281,-0.00092,0.01434,-0.04318,-0.01724,0.10437,0.047
7.668,-0.00092,-0.00641,0.20859,-0.02075,-0.03693,-0.04059,-0.01633,0.01678,-0.79086,-0.16769,-0.01389,0.01541,-0.04456,-0.0206,0.07111,0.00168
7.6685,-0.00183,-0.02075,0.16953,-0.02151,-0.03571,-0.03998,-0.01633,0.01099,-0.64011,-0.15976,-0.03113,0.0148,-0.04456,-0.02533,0.01785,-0.04303
7.669,-0.00137,-0.02808,0.1178,-0.02014,-0.03418,-0.04074,-0.01511,0.00076,-0.50415,-0.1358,-0.04807,0.01312,-0.04547,-0.03342,-0.01144,-0.07523
7.6695,-0.00046,-0.03418,0.06912,-0.01801,-0.03174,-0.0415,-0.01312,0.00595,-0.3717,-0.10117,-0.05737,0.01175,-0.04379,-0.04013,-0.01984,-0.1091
7.67,0.00305,-0.04089,0.01526,-0.01587,-0.03098,-0.04425,-0.01099,0.02029,-0.23422,-0.06744,-0.05371,0.01297,-0.04028,-0.04105,-0.0325,-0.1384
7.6705,0.00595,-0.04929,-0.05753,-0.01251,-0.03174,-0.04761,-0.00946,0.02472,-0.10147,-0.04166,-0.04013,0.01419,-0.0383,-0.03677,-0.04379,-0.14496
7.671,0.00565,-0.05783,-0.14191,-0.00946,-0.03342,-0.04852,-0.00916,0.01694,0.01678,-0.02396,-0.02396,0.01434,-0.03662,-0.03159,-0.04028,-0.12192
7.6715,0.0032,-0.06638,-0.20081,-0.00565,-0.03494,-0.04684,-0.00961,0.00778,0.12314,-0.00214,-0.00717,0.01373,-0.03632,-0.02472,-0.03769,-0.0885
7.672,0.00153,-0.07675,-0.20554,-0.00366,-0.03387,-0.04456,-0.01282,0.00885,0.23132,0.02853,0.01572,0.01205,-0.03311,-0.01511,-0.05768,-0.06729
7.6725,0.0029,-0.08438,-0.1622,-0.00504,-0.03189,-0.04547,-0.01556,0.02182,0.34592,0.06119,0.04227,0.01129,-0.02686,-0.00473,-0.08698,-0.06393
7.673,0.00656,-0.08636,-0.09888,-0.00702,-0.03082,-0.0444,-0.01617,0.03555,0.45563,0.08545,0.05463,0.01099,-0.02289,0.00015,-0.10437,-0.07217
7.6735,0.00961,-0.08484,-0.03372,-0.00824,-0.03052,-0.04318,-0.01572,0.03311,0.54901,0.09399,0.04303,0.01099,-0.02228,-0.00122,-0.10849,-0.08133
7.674,0.01053,-0.08545,0.02762,-0.00793,-0.02914,-0.04349,-0.01572,0.01724,0.63004,0.09171,0.01694,0.01068,-0.02487,-0.00595,-0.09415,-0.08575
7.6745,0.01083,-0.08972,0.07721,-0.00916,-0.02899,-0.04745,-0.01648,-0.00031,0.71335,0.08148,-0.00366,0.01038,-0.02869,-0.00946,-0.02335,-0.09186
7.675,0.01144,-0.09201,0.10468,-0.01099,-0.02899,-0.05096,-0.01648,-0.01282,0.8046,0.06546,-0.01175,0.00946,-0.03204,-0.01068,0.10696,-0.10056
7.6755,0.00977,-0.08789,0.10376,-0.01251,-0.02945,-0.05127,-0.01526,-0.02304,0.89722,0.04303,-0.01144,0.00717,-0.03387,-0.01099,0.20538,-0.10437
7.676,0.00519,-0.07675,0.08087,-0.01251,-0.03235,-0.04868,-0.01328,-0.02853,0.97641,0.01831,-0.00992,0.0058,-0.03357,-0.01068,0.19272,-0.0914
7.6765,-0.00168,-0.06348,0.05051,-0.0119,-0.03311,-0.04532,-0.01343,-0.02548,1.04004,-0.00076,-0.00916,0.00549,-0.0325,-0.00854,0.12131,-0.06302
7.677,-0.00854,-0.05096,0.02304,-0.01205,-0.03189,-0.04379,-0.01358,-0.01694,1.08994,-0.01053,-0.009,0.00534,-0.03403,-0.00702,0.08118,-0.03769
7.6775,-0.01053,-0.04211,0.00366,-0.01266,-0.02914,-0.04456,-0.01389,-0.01083,1.13007,-0.01968,-0.01266,0.0058,-0.0412,-0.0087,0.07523,-0.03342
7.678,-0.00717,-0.03616,-0.01022,-0.01465,-0.02731,-0.04608,-0.01419,-0.00931,1.16272,-0.03174,-0.01923,0.00641,-0.04959,-0.0119,0.05493,-0.04715
7.6785,-0.00366,-0.0325,-0.02655,-0.01495,-0.02686,-0.04745,-0.01373,-0.0087,1.18942,-0.04776,-0.02609,0.00687,-0.05539,-0.01678,0.02869,-0.06058
7.679,-0.00366,-0.02899,-0.04318,-0.01328,-0.02716,-0.04822,-0.01328,-0.00366,1.21231,-0.05173,-0.02975,0.00687,-0.05737,-0.0209,0.01984,-0.06332
7.6795,-0.00839,-0.02518,-0.05341,-0.01114,-0.02686,-0.04807,-0.01312,0.00137,1.23703,-0.04898,-0.03082,0.00732,-0.05508,-0.02014,0.02869,-0.05692
7.68,-0.0145,-0.02289,-0.06165,-0.00946,-0.02609,-0.04898,-0.01205,0.00259,1.26984,-0.04593,-0.03113,0.00641,-0.05005,-0.01495,0.03143,-0.04776
7.6805,-0.0209,-0.0235,-0.06638,-0.00793,-0.02487,-0.04898,-0.01144,-0.00198,1.3063,-0.04776,-0.03387,0.00504,-0.04456,-0.00748,0.01343,-0.03998
7.681,-0.02579,-0.02548,-0.0676,-0.00626,-0.0235,-0.0499,-0.0119,-0.0119,1.33453,-0.05325,-0.03845,0.00336,-0.03815,-0.00366,-0.01953,-0.03204
7.6815,-0.02792,-0.02716,-0.06699,-0.00519,-0.02396,-0.04974,-0.01099,-0.02396,1.34598,-0.04608,-0.0412,0.00244,-0.03265,-0.00427,-0.0531,-0.02594
7.682,-0.02548,-0.02869,-0.06668,-0.0058,-0.02548,-0.05051,-0.01038,-0.0322,1.34354,-0.0293,-0.03754,0.00214,-0.02945,-0.00671,-0.07156,-0.02243
7.6825,-0.0206,-0.03128,-0.06622,-0.00793,-0.02899,-0.05295,-0.00916,-0.03418,1.33545,-0.01724,-0.03113,0.00137,-0.02777,-0.00885,-0.06866,-0.02228
7.683,-0.01556,-0.03479,-0.0676,-0.01068,-0.03067,-0.05341,-0.00748,-0.0322,1.32904,-0.01724,-0.02487,0.00107,-0.02747,-0.00839,-0.01877,-0.02319
7.6835,-0.0119,-0.03754,-0.07202,-0.01251,-0.02884,-0.05203,-0.00595,-0.0293,1.32111,-0.02594,-0.01755,0.00122,-0.02594,-0.00748,0.07446,-0.02365
7.684,-0.00931,-0.03906,-0.07416,-0.01343,-0.02533,-0.0499,-0.00656,-0.02609,1.30661,-0.03738,-0.00946,0.00046,-0.02609,-0.00671,0.14114,-0.02319
7.6845,-0.00839,-0.04044,-0.07645,-0.01282,-0.02213,-0.04761,-0.01114,-0.02197,1.28784,-0.04868,0.0029,-0.00061,-0.03082,-0.00839,0.11749,-0.02289
7.685,-0.00824,-0.03922,-0.08316,-0.01251,-0.02014,-0.04745,-0.01724,-0.0174,1.26999,-0.0592,0.02289,-0.00122,-0.03738,-0.01297,0.02838,-0.02426
7.6855,-0.00931,-0.03677,-0.08423,-0.01266,-0.01923,-0.0473,-0.02304,-0.01389,1.24969,-0.06409,0.04837,-0.00046,-0.04257,-0.02106,-0.0296,-0.0264
7.686,-0.00931,-0.03494,-0.08453,-0.01312,-0.01968,-0.0473,-0.0267,-0.00977,1.22208,-0.05524,0.05844,-0.00122,-0.04776,-0.02991,-0.02335,-0.02869
7.6865,-0.00748,-0.03754,-0.07889,-0.01236,-0.01892,-0.04715,-0.02884,-0.00626,1.19324,-0.0412,0.0444,-0.00244,-0.05081,-0.03891,-0.01572,-0.03098
7.687,-0.00366,-0.04089,-0.07019,-0.01114,-0.01816,-0.0473,-0.03143,-0.00183,1.17584,-0.02899,0.01801,-0.00305,-0.05402,-0.04883,-0.03067,-0.03128
7.6875,0.00046,-0.04196,-0.06104,-0.01038,-0.01785,-0.04715,-0.03326,0.00061,1.21826,-0.02441,-0.00519,-0.00244,-0.0589,-0.06027,-0.05035,-0.03098
7.688,0.00275,-0.04013,-0.05173,-0.01099,-0.01801,-0.04639,-0.02853,0.00031,1.42593,-0.0238,-0.03036,-0.00168,-0.06332,-0.07187,-0.03632,-0.02991
7.6885,0.00168,-0.03906,-0.04852,-0.01144,-0.01999,-0.04562,-0.01434,-0.00076,1.84677,-0.02701,-0.06454,-0.00107,-0.06363,-0.07675,-0.01358,-0.02945
7.689,0.00015,-0.03876,-0.04639,-0.01068,-0.02411,-0.04654,0.00641,-0.00015,2.32941,-0.03342,-0.09598,-0.00122,-0.0592,-0.0708,0.00122,-0.0293
7.6895,0.00046,-0.0386,-0.04318,-0.01038,-0.02777,-0.04715,0.0238,0.00092,2.62299,-0.03525,-0.10117,-0.00229,-0.05157,-0.05768,0.01907,-0.02884
7.69,0.00366,-0.03891,-0.04288,-0.00961,-0.03036,-0.04471,0.02121,0.00046,2.64313,-0.03387,-0.07828,-0.0032,-0.04517,-0.04517,0.03006,-0.03021
7.6905,0.00549,-0.03998,-0.0386,-0.00885,-0.03174,-0.04242,-0.00504,-0.00275,2.52045,-0.03143,-0.04562,-0.00412,-0.04089,-0.03998,0.00412,-0.03143
7.691,0.00656,-0.04196,-0.03815,-0.01038,-0.03159,-0.0415,-0.03387,-0.0087,2.38754,-0.0351,-0.02594,-0.00443,-0.03906,-0.04059,-0.03052,-0.03281
7.6915,0.00595,-0.04364,-0.03662,-0.01312,-0.02869,-0.04166,-0.03952,-0.01556,2.24426,-0.0444,-0.02106,-0.0029,-0.03937,-0.04364,-0.03265,-0.03342
7.692,0.00534,-0.04501,-0.03723,-0.01678,-0.02441,-0.0415,-0.02441,-0.02029,2.04712,-0.04791,-0.02182,-0.00183,-0.03906,-0.04166,-0.00046,-0.03448
7.6925,0.00412,-0.0444,-0.03616,-0.01862,-0.02228,-0.03891,-0.01114,-0.02075,1.78238,-0.04883,-0.02136,-0.00214,-0.03815,-0.0351,0.0058,-0.03601
7.693,0.00259,-0.04211,-0.03647,-0.01816,-0.0209,-0.03494,-0.00931,-0.02014,1.4563,-0.04562,-0.02075,-0.00305,-0.03571,-0.02686,-0.03174,-0.03876
7.6935,0.00061,-0.03799,-0.03052,-0.01495,-0.02274,-0.03143,-0.01068,-0.0206,1.0759,-0.03815,-0.01755,-0.00214,-0.03235,-0.02106,-0.09537,-0.04074
7.694,-0.00046,-0.03494,-0.02731,-0.01205,-0.02579,-0.03204,-0.0087,-0.0209,0.68787,-0.02609,-0.01236,-0.00107,-0.02914,-0.02029,-0.13153,-0.04333
7.6945,-0.00153,-0.03555,-0.02487,-0.01007,-0.03067,-0.03464,-0.00504,-0.0209,0.37521,-0.00732,-0.00565,-0.00122,-0.02823,-0.0238,-0.0975,-0.04135
7.695,-0.00244,-0.03693,-0.02655,-0.01007,-0.03601,-0.03601,-0.00565,-0.02121,0.18448,0.01358,0.00137,-0.00183,-0.02914,-0.02792,0.00641,-0.03738
7.6955,-0.00336,-0.03662,-0.02579,-0.00946,-0.04044,-0.03754,-0.01083,-0.02289,0.07248,0.02747,0.01038,-0.00229,-0.02975,-0.02975,0.10406,-0.03265
7.696,-0.00458,-0.03662,-0.02502,-0.00992,-0.0415,-0.04013,-0.01923,-0.02533,-0.03265,0.02838,0.01953,-0.00198,-0.02884,-0.02594,0.11108,-0.03281
7.6965,-0.00473,-0.03586,-0.02396,-0.01038,-0.03937,-0.04257,-0.02396,-0.02686,-0.15076,0.01892,0.02319,-0.00168,-0.02716,-0.01724,0.00961,-0.03571
7.697,-0.00443,-0.03372,-0.02365,-0.01053,-0.03418,-0.0444,-0.02319,-0.02365,-0.2597,0.01083,0.01495,-0.00153,-0.02609,-0.00443,-0.15594,-0.03922
7.6975,-0.00397,-0.03189,-0.02167,-0.00992,-0.02808,-0.04608,-0.01877,-0.0174,-0.35828,0.01572,-0.00656,-0.00061,-0.02548,0.01114,-0.31998,-0.04623
7.698,-0.00397,-0.03159,-0.02518,-0.009,-0.02457,-0.05386,-0.01648,-0.01114,-0.46783,0.02747,-0.0444,0.00183,-0.02121,0.02502,-0.41489,-0.05386
7.6985,-0.00565,-0.03342,-0.02686,-0.00961,-0.02396,-0.06577,-0.01892,-0.00641,-0.57907,0.03922,-0.08255,0.00519,-0.01404,0.0322,-0.41977,-0.05493
7.699,-0.00687,-0.03433,-0.02838,-0.00946,-0.02701,-0.07629,-0.02136,-0.00488,-0.65796,0.04105,-0.09232,0.00748,-0.00793,0.03281,-0.34988,-0.04486
7.6995,-0.00748,-0.0351,-0.0293,-0.00824,-0.0296,-0.07629,-0.01556,-0.00671,-0.69687,0.03494,-0.06119,0.00732,-0.00412,0.02975,-0.2359,-0.03113
7.7,-0.0058,-0.0354,-0.02731,-0.00626,-0.03082,-0.06729,-0.0029,-0.0116,-0.72083,0.02396,-0.01236,0.0029,-0.00229,0.02579,-0.06973,-0.0238
7.7005,-0.00427,-0.03708,-0.0267,-0.00687,-0.03143,-0.05844,0.00458,-0.01923,-0.74997,0.01556,0.03098,-0.00153,-0.00427,0.01724,0.14526,-0.02762
7.701,-0.00412,-0.03906,-0.02487,-0.0087,-0.03189,-0.05432,0.00153,-0.02991,-0.78461,0.01144,0.06134,-0.0032,-0.00854,0.00671,0.35995,-0.03754
7.7015,-0.00534,-0.03891,-0.02502,-0.00946,-0.03174,-0.05478,-0.00519,-0.03662,-0.8049,0.01022,0.07797,0.0,-0.0116,-0.00443,0.41809,-0.04364
7.702,-0.00641,-0.03754,-0.0267,-0.00854,-0.03311,-0.05539,-0.00717,-0.02686,-0.76248,0.00977,0.07858,0.00275,-0.0145,-0.01251,0.24185,-0.04501
7.7025,-0.00656,-0.03494,-0.02716,-0.00702,-0.03403,-0.05402,-0.00809,0.0,-0.55908,0.00732,0.06531,0.00336,-0.01694,-0.01694,-0.04379,-0.04349
7.703,-0.00687,-0.03403,-0.02899,-0.00626,-0.03387,-0.05234,-0.01389,0.02686,-0.14053,0.00366,0.04532,0.00214,-0.01877,-0.02441,-0.19333,-0.04364
7.7035,-0.00687,-0.03525,-0.02777,-0.00595,-0.03281,-0.05127,-0.02274,0.03448,0.34027,-0.00092,0.02228,0.00595,-0.01999,-0.03738,-0.09781,-0.04379
7.704,-0.00702,-0.03891,-0.02914,-0.00671,-0.03128,-0.05234,-0.02457,0.02213,0.62393,-0.00168,0.0029,0.01617,-0.02319,-0.05142,0.12939,-0.04242
7.7045,-0.00656,-0.04303,-0.03021,-0.00748,-0.02853,-0.05432,-0.01587,0.00626,0.65659,-0.00351,-0.00961,0.02426,-0.02838,-0.06165,0.30762,-0.03799
7.705,-0.00687,-0.04822,-0.03342,-0.00793,-0.02762,-0.05615,-0.0058,-0.00168,0.63873,-0.00778,-0.01633,0.02136,-0.03174,-0.06363,0.35431,-0.03159
7.7055,-0.00687,-0.05554,-0.0354,-0.00961,-0.03082,-0.056,-0.00122,-0.00198,0.74005,-0.01236,-0.0209,0.00931,-0.0325,-0.05661,0.29831,-0.02563
7.706,-0.00565,-0.06241,-0.03387,-0.01221,-0.03876,-0.05569,-0.00137,-0.00214,0.91766,-0.01923,-0.02701,0.00397,-0.03204,-0.04074,0.2124,-0.02151
7.7065,-0.00458,-0.06302,-0.03113,-0.01663,-0.04929,-0.05661,-0.00061,-0.00656,1.02066,-0.02045,-0.0351,0.01663,-0.03128,-0.0235,0.15259,-0.01907
7.707,-0.0032,-0.05417,-0.03265,-0.01907,-0.05936,-0.05524,0.00031,-0.01434,0.97717,-0.0206,-0.04486,0.03723,-0.03159,-0.01251,0.12863,-0.01877
7.7075,-0.00305,-0.0415,-0.03326,-0.01999,-0.06577,-0.05066,-0.0032,-0.01984,0.83496,-0.01907,-0.05066,0.0531,-0.0325,-0.009,0.13504,-0.02304
7.708,-0.00488,-0.03342,-0.0325,-0.01877,-0.07019,-0.0444,-0.01495,-0.01678,0.67535,-0.0174,-0.04242,0.05783,-0.03235,-0.00839,0.15442,-0.03143
7.7085,-0.00595,-0.03128,-0.03281,-0.0177,-0.07324,-0.03876,-0.03479,-0.00656,0.52582,-0.01205,-0.01846,0.05066,-0.03189,-0.00763,0.16953,-0.04089
7.709,-0.00443,-0.03204,-0.03128,-0.01678,-0.07401,-0.03952,-0.05661,0.00168,0.32867,-0.00534,0.0087,0.03082,-0.03204,-0.00763,0.16571,-0.04807
7.7095,-0.00214,-0.03372,-0.0325,-0.0145,-0.07065,-0.04333,-0.06744,0.0058,0.01541,-0.00519,0.02274,0.00504,-0.02991,-0.00626,0.14633,-0.04837
7.71,-0.00107,-0.03311,-0.03479,-0.01175,-0.06683,-0.04532,-0.06027,0.00748,-0.36072,-0.00778,0.01373,-0.01831,-0.0264,-0.00458,0.12085,-0.04395
7.7105,-0.00153,-0.03281,-0.03311,-0.01007,-0.06256,-0.04196,-0.04593,0.00946,-0.64117,-0.01678,-0.01617,-0.03922,-0.02319,-0.00259,0.10773,-0.0386
7.711,-0.00214,-0.03281,-0.03098,-0.00961,-0.05814,-0.03845,-0.04303,0.01251,-0.74524,-0.02441,-0.05814,-0.05829,-0.02213,-0.00168,0.1001,-0.03403
7.7115,-0.00198,-0.03372,-0.03098,-0.00961,-0.05463,-0.03662,-0.05524,0.01709,-0.77698,-0.03067,-0.09491,-0.07019,-0.02472,-0.00198,0.08942,-0.03067
7.712,-0.00305,-0.03616,-0.03281,-0.00854,-0.05127,-0.03876,-0.06287,0.02579,-0.8374,-0.03418,-0.10681,-0.07004,-0.02899,-0.00351,0.0769,-0.02731
7.7125,-0.00458,-0.0386,-0.0322,-0.00748,-0.04623,-0.0444,-0.04578,0.03784,-0.77484,-0.03281,-0.08636,-0.06516,-0.03479,-0.0058,0.06287,-0.02518
7.713,-0.00443,-0.03952,-0.03113,-0.00748,-0.04242,-0.05524,-0.01404,0.04425,-0.34012,-0.02716,-0.04562,-0.06165,-0.03998,-0.00793,0.05676,-0.02579
7.7135,-0.00153,-0.0386,-0.03052,-0.00778,-0.04211,-0.07156,0.00641,0.03876,0.2742,-0.01648,-0.00824,-0.05112,-0.03998,-0.00839,0.0444,-0.03006
7.714,0.0,-0.03708,-0.03189,-0.00854,-0.04318,-0.08194,0.00931,0.02609,0.45059,-0.00595,0.00992,-0.02106,-0.0383,-0.00656,0.03464,-0.03418
7.7145,0.0,-0.03616,-0.03159,-0.00854,-0.04471,-0.07675,0.01389,0.01465,0.01984,-0.00671,0.00641,0.00763,-0.03571,-0.00366,0.02365,-0.03616
7.715,-0.00214,-0.03525,-0.03021,-0.00793,-0.04288,-0.05768,0.03189,0.00885,-0.39001,-0.01678,-0.01297,-0.00198,-0.03479,0.00137,0.0174,-0.03754
7.7155,-0.00534,-0.0354,-0.02991,-0.00885,-0.03983,-0.04105,0.0473,0.00793,-0.23346,-0.02792,-0.03677,-0.04578,-0.03479,0.00793,0.01007,-0.03784
7.716,-0.00641,-0.03586,-0.02853,-0.01129,-0.03616,-0.03632,0.03815,0.00748,0.27649,-0.03677,-0.05203,-0.07324,-0.03525,0.0116,0.00488,-0.03754
7.7165,-0.00443,-0.03708,-0.02808,-0.01282,-0.0325,-0.04303,0.01541,0.00214,0.61508,-0.03647,-0.04593,-0.05585,-0.03494,0.01083,-0.00259,-0.03799
7.717,-0.00198,-0.03922,-0.02869,-0.01114,-0.02945,-0.05188,0.0032,-0.01816,0.62103,-0.03555,-0.02441,-0.01755,-0.0354,0.00763,-0.00778,-0.03922
7.7175,-0.00046,-0.04074,-0.03235,-0.00809,-0.02731,-0.05524,-0.0029,-0.06393,0.48019,-0.03693,-0.00351,0.01251,-0.03723,0.00778,-0.01343,-0.04288
7.718,0.00061,-0.0415,-0.03021,-0.00534,-0.02441,-0.05127,-0.01877,-0.12939,0.36072,-0.03998,0.00778,0.0322,-0.03937,0.01404,-0.01617,-0.04379
7.7185,0.00183,-0.04166,-0.03113,-0.00565,-0.02365,-0.04425,-0.03387,-0.19043,0.30457,-0.05203,0.01541,0.04501,-0.03845,0.02228,-0.02106,-0.04532
7.719,0.00137,-0.04257,-0.0351,-0.00809,-0.02289,-0.03891,-0.02945,-0.22247,0.32471,-0.06683,0.02899,0.04868,-0.03662,0.02716,-0.02487,-0.04761
7.7195,0.00107,-0.04379,-0.03525,-0.01099,-0.02167,-0.03601,-0.01709,-0.21378,0.4364,-0.07263,0.04761,0.0473,-0.03555,0.0238,-0.02853,-0.04898
7.72,0.00046,-0.04517,-0.03662,-0.01221,-0.01816,-0.03311,-0.02319,-0.1442,0.63721,-0.06638,0.05951,0.04868,-0.03799,0.01511,-0.03342,-0.04852
7.7205,0.00046,-0.04501,-0.03403,-0.01129,-0.01495,-0.03067,-0.03937,0.00793,0.92773,-0.04852,0.05875,0.04669,-0.04135,0.00854,-0.03616,-0.04608
7.721,0.00061,-0.04425,-0.0322,-0.00885,-0.00946,-0.02884,-0.03418,0.18677,1.22437,-0.02762,0.05203,0.02899,-0.04242,0.0058,-0.03342,-0.0444
7.7215,0.00198,-0.04181,-0.03326,-0.00641,-0.0032,-0.02777,-0.00473,0.26016,1.28555,-0.00732,0.04486,0.00046,-0.04227,0.00305,-0.02975,-0.04318
7.722,0.00259,-0.04135,-0.03204,-0.00687,0.00061,-0.02701,0.02365,0.1651,0.90881,0.00961,0.03769,-0.01602,-0.04318,-0.00504,-0.02869,-0.04257
7.7225,0.00259,-0.04044,-0.03204,-0.01053,0.0032,-0.02533,0.03265,0.0,0.20248,0.01999,0.01633,-0.01556,-0.04501,-0.01694,-0.03433,-0.04364
7.723,0.00259,-0.04044,-0.03357,-0.01434,0.00687,-0.02213,0.02838,-0.08926,-0.49622,0.01907,-0.0238,-0.01465,-0.04791,-0.02975,-0.03876,-0.04471
7.7235,0.00168,-0.0415,-0.03296,-0.01694,0.01175,-0.01953,0.0177,-0.05295,-0.96176,0.00504,-0.05951,-0.02563,-0.05035,-0.04196,-0.04318,-0.04578
7.724,-0.00046,-0.04395,-0.0351,-0.01877,0.01648,-0.01938,-0.00076,0.05173,-1.19095,-0.01236,-0.05875,-0.03647,-0.05173,-0.05264,-0.03799,-0.04593
7.7245,-0.00107,-0.04639,-0.03479,-0.01968,0.02213,-0.02151,-0.02136,0.14618,-1.24802,-0.02441,-0.02258,-0.03464,-0.05051,-0.06317,-0.03494,-0.04486
7.725,0.00046,-0.04562,-0.0322,-0.01785,0.02762,-0.02228,-0.02762,0.17761,-1.17722,-0.03494,0.00961,-0.02655,-0.04791,-0.07538,-0.03494,-0.04364
7.7255,0.0032,-0.04471,-0.03281,-0.01556,0.03204,-0.01923,-0.01144,0.13199,-1.05286,-0.04486,0.00977,-0.02563,-0.047,-0.09155,-0.03647,-0.04364
7.726,0.00381,-0.04272,-0.03128,-0.01434,0.03403,-0.01663,0.01541,0.03601,-0.9697,-0.056,-0.01251,-0.02777,-0.047,-0.10498,-0.03906,-0.0441
7.7265,0.00214,-0.04318,-0.03326,-0.01236,0.03036,-0.01755,0.02945,-0.05829,-0.96146,-0.06439,-0.03204,-0.02548,-0.04684,-0.10773,-0.04059,-0.04562
7.727,0.00015,-0.04501,-0.02914,-0.00854,0.02335,-0.02457,0.01999,-0.11307,-0.98373,-0.06424,-0.03937,-0.02365,-0.04745,-0.09644,-0.03983,-0.04883
7.7275,-0.00092,-0.04623,-0.03052,-0.00488,0.01526,-0.03693,-0.00275,-0.10803,-1.00571,-0.06424,-0.04089,-0.0296,-0.04807,-0.07782,-0.03326,-0.05066
7.728,-0.00092,-0.04669,-0.03281,-0.00214,0.00916,-0.05005,-0.01694,-0.04959,-1.04706,-0.06348,-0.04074,-0.03128,-0.04837,-0.06073,-0.02853,-0.05051
7.7285,-0.00107,-0.04623,-0.03342,-0.00061,0.0,-0.05981,-0.01526,0.01556,-1.09024,-0.06805,-0.04257,-0.01343,-0.04791,-0.04807,-0.02411,-0.04822
7.729,-0.00198,-0.047,-0.03647,0.0,-0.0145,-0.06577,-0.00687,0.0267,-1.07712,-0.06165,-0.04929,0.01968,-0.04791,-0.03967,-0.02228,-0.04715
7.7295,-0.0032,-0.04913,-0.0351,-0.00046,-0.03326,-0.06836,-0.00717,-0.05188,-1.02707,-0.05295,-0.05814,0.04974,-0.04745,-0.03265,-0.02441,-0.04562
7.73,-0.00305,-0.05005,-0.0386,-0.00183,-0.05447,-0.06989,-0.01617,-0.224,-1.03561,-0.04303,-0.06378,0.06622,-0.04547,-0.02579,-0.02121,-0.04639
7.7305,-0.00122,-0.05005,-0.0383,-0.00153,-0.07462,-0.07111,-0.02426,-0.43259,-1.14227,-0.03937,-0.05981,0.07111,-0.04242,-0.01877,-0.02487,-0.04883
7.731,-0.00076,-0.04974,-0.03799,-0.00092,-0.08865,-0.07294,-0.02563,-0.52887,-1.29425,-0.0322,-0.04822,0.0676,-0.0386,-0.00977,-0.02747,-0.05096
7.7315,-0.00244,-0.0502,-0.03952,-0.00076,-0.09247,-0.07431,-0.02335,-0.35797,-1.4325,-0.01617,-0.03387,0.05966,-0.03571,-0.00031,-0.03311,-0.05249
7.732,-0.00473,-0.05112,-0.03937,-0.00168,-0.08453,-0.07446,-0.02777,0.04639,-1.5271,0.00885,-0.02243,0.05035,-0.0325,0.00992,-0.03479,-0.05325
7.7325,-0.00519,-0.05219,-0.0383,-0.00198,-0.07263,-0.07401,-0.04807,0.40619,-1.53976,0.03418,-0.01495,0.03555,-0.02808,0.01999,-0.04669,-0.05249
7.733,-0.00549,-0.05325,-0.03647,-0.00183,-0.06393,-0.07187,-0.07935,0.46936,-1.41846,0.05203,-0.01419,0.00397,-0.02304,0.02853,-0.0502,-0.04944
7.7335,-0.0061,-0.05417,-0.03937,-0.00076,-0.05936,-0.0708,-0.10162,0.29022,-1.17935,0.05707,-0.02289,-0.04669,-0.01923,0.0296,-0.04089,-0.04486
7.734,-0.00565,-0.05371,-0.03815,0.00122,-0.05646,-0.07065,-0.10452,0.12741,-0.95337,0.04776,-0.03387,-0.09979,-0.0177,0.02502,-0.01755,-0.04059
7.7345,-0.00488,-0.05386,-0.04013,0.00275,-0.056,-0.06943,-0.10315,0.09949,-0.87143,0.02945,-0.03586,-0.13062,-0.01709,0.01587,0.00473,-0.04028
7.735,-0.00351,-0.05463,-0.03937,0.00046,-0.06073,-0.0679,-0.11017,0.10849,-0.91171,0.01434,-0.02869,-0.13092,-0.01877,0.00397,0.01785,-0.0415
7.7355,-0.0029,-0.05508,-0.04074,-0.00229,-0.07095,-0.0676,-0.11322,0.07889,-0.9552,0.0029,-0.01999,-0.11276,-0.01999,-0.00717,0.00702,-0.03891
7.736,-0.00305,-0.05386,-0.0412,-0.00443,-0.0766,-0.06927,-0.07156,0.06882,-0.95779,-0.00519,-0.01541,-0.09521,-0.02182,-0.01343,-0.00885,-0.03342
7.7365,-0.0029,-0.05249,-0.04486,-0.00717,-0.07462,-0.07172,0.03159,0.12543,-0.95657,-0.01633,-0.01373,-0.07675,-0.02213,-0.00916,-0.00702,-0.03067
7.737,-0.00198,-0.0531,-0.04608,-0.01022,-0.07187,-0.07294,0.14465,0.18417,-0.95062,-0.03235,-0.01053,-0.04837,-0.02228,0.0,0.01083,-0.03082
7.7375,-0.00137,-0.05386,-0.047,-0.01373,-0.0737,-0.07294,0.17822,0.17242,-0.89462,-0.04593,-0.00443,-0.02609,-0.02396,0.00687,0.0264,-0.03204
7.738,-0.00214,-0.05417,-0.04684,-0.01511,-0.07874,-0.07156,0.11353,0.10345,-0.77866,-0.05447,-0.00061,-0.03021,-0.02777,0.009,0.02686,-0.03296
7.7385,-0.00366,-0.05463,-0.04517,-0.01434,-0.08133,-0.06973,0.02823,0.03067,-0.63873,-0.06195,-0.00473,-0.05249,-0.03021,0.00732,0.01541,-0.03571
7.739,-0.00397,-0.05463,-0.0412,-0.01236,-0.08179,-0.06866,-0.00412,-0.01694,-0.49271,-0.06775,-0.01968,-0.05997,-0.03021,0.00504,0.00748,-0.03799
7.7395,-0.00488,-0.05371,-0.03937,-0.01022,-0.08148,-0.06775,0.00183,-0.04517,-0.31555,-0.07401,-0.03769,-0.03174,-0.02853,0.00153,0.00732,-0.03952
7.74,-0.00519,-0.05051,-0.03845,-0.00946,-0.08118,-0.06454,-0.00336,-0.06287,-0.07095,-0.07477,-0.04471,0.02579,-0.02792,-0.00336,0.00931,-0.03922
7.7405,-0.00458,-0.04822,-0.03708,-0.00916,-0.07904,-0.06226,-0.02823,-0.05783,0.25238,-0.07111,-0.03616,0.08621,-0.02838,-0.00916,0.00122,-0.03983
7.741,-0.00183,-0.04868,-0.03723,-0.00839,-0.07095,-0.05905,-0.0415,0.00092,0.63049,-0.0647,-0.0174,0.12726,-0.02747,-0.01663,0.00198,-0.04196
7.7415,0.00076,-0.04974,-0.03464,-0.00809,-0.05905,-0.05524,-0.02899,0.11948,1.01639,-0.05112,-0.00092,0.1535,-0.02411,-0.02365,-0.00076,-0.04517
7.742,0.00031,-0.04822,-0.03189,-0.00671,-0.04593,-0.05127,-0.00305,0.22766,1.35391,-0.03113,0.00885,0.17548,-0.01984,-0.03098,-0.00275,-0.047
7.7425,-0.00214,-0.04547,-0.03204,-0.00778,-0.03601,-0.04639,0.02045,0.22964,1.59912,-0.01205,0.0148,0.18204,-0.01617,-0.03815,-0.00153,-0.04593
7.743,-0.00336,-0.04349,-0.03326,-0.01022,-0.03113,-0.04227,0.03693,0.11887,1.73996,0.00641,0.01587,0.14847,-0.01404,-0.04578,0.00305,-0.04318
7.7435,-0.00305,-0.04364,-0.03586,-0.01175,-0.02563,-0.03799,0.03876,-0.00931,1.79489,0.0325,0.01282,0.06912,-0.01358,-0.0528,0.00381,-0.04257
7.744,-0.00244,-0.04486,-0.03403,-0.0119,-0.01968,-0.03372,0.01709,-0.07111,1.78757,0.0679,0.00656,-0.02396,-0.01282,-0.05341,0.00259,-0.04562
7.7445,-0.00305,-0.04471,-0.03433,-0.00961,-0.01404,-0.03052,-0.01297,-0.07355,1.73798,0.10727,0.00122,-0.08698,-0.01144,-0.04623,0.00259,-0.05005
7.745,-0.00229,-0.04333,-0.03403,-0.00793,-0.00992,-0.02777,-0.02686,-0.06546,1.66595,0.12177,-0.0032,-0.09979,-0.00946,-0.03708,0.0032,-0.05295
7.7455,-0.00107,-0.04028,-0.03708,-0.00916,-0.00748,-0.02594,-0.01877,-0.06714,1.60172,0.10605,-0.00839,-0.08499,-0.00916,-0.03067,0.0032,-0.05402
7.746,0.00015,-0.03815,-0.03479,-0.01205,-0.00534,-0.02594,-0.00687,-0.06622,1.56342,0.07034,-0.0145,-0.07385,-0.01038,-0.02609,0.00244,-0.05402
7.7465,0.0,-0.03845,-0.0351,-0.01297,-0.00443,-0.02472,-0.00336,-0.05127,1.52084,0.04135,-0.02106,-0.07935,-0.01236,-0.02029,0.00504,-0.05493
7.747,-0.00244,-0.03876,-0.03403,-0.01221,-0.0032,-0.02213,-0.00763,-0.02838,1.43204,0.03479,-0.02319,-0.09506,-0.01419,-0.01297,0.00397,-0.05493
7.7475,-0.00381,-0.03815,-0.0351,-0.01282,-0.00198,-0.02014,-0.01373,-0.01389,1.29929,0.03296,-0.0119,-0.10559,-0.01541,-0.00305,0.00687,-0.05341
7.748,-0.00336,-0.03555,-0.03052,-0.01526,0.0,-0.01923,-0.01984,-0.01801,1.15204,0.0267,0.00824,-0.0946,-0.01587,0.01144,0.00809,-0.05096
7.7485,-0.00198,-0.03387,-0.03098,-0.0177,0.00336,-0.01877,-0.02441,-0.03632,1.00845,0.01465,-0.00839,-0.05432,-0.01541,0.02838,0.00473,-0.04974
7.749,-0.00198,-0.03387,-0.02914,-0.01663,0.00717,-0.01785,-0.02625,-0.05249,0.88211,-0.00763,-0.11063,0.00336,-0.01358,0.04196,0.00488,-0.05035
7.7495,-0.00305,-0.03448,-0.0296,-0.01266,0.01053,-0.0174,-0.02502,-0.05173,0.77927,-0.03937,-0.2626,0.04593,-0.01312,0.04654,0.00961,-0.04974
7.75,-0.00458,-0.0354,-0.03113,-0.01129,0.01129,-0.0174,-0.0235,-0.03494,0.67825,-0.08301,-0.34973,0.04562,-0.01419,0.04227,0.01175,-0.04898
7.7505,-0.00534,-0.03571,-0.0293,-0.01221,0.01236,-0.01907,-0.02075,-0.01724,0.54489,-0.13885,-0.3067,0.01785,-0.01663,0.03479,0.01175,-0.04837
7.751,-0.00534,-0.03525,-0.02777,-0.01328,0.0145,-0.01892,-0.01709,-0.01022,0.37537,-0.17609,-0.18463,0.00931,-0.01953,0.0238,0.01083,-0.04852
7.7515,-0.00534,-0.03555,-0.02563,-0.01343,0.01663,-0.01892,-0.01556,-0.01038,0.19623,-0.1889,-0.06973,0.05005,-0.02243,0.0061,0.00122,-0.04868
7.752,-0.0058,-0.03662,-0.02808,-0.01221,0.01633,-0.01877,-0.01648,-0.01358,0.03357,-0.17441,0.01419,0.12009,-0.0238,-0.02014,-0.01831,-0.04913
7.7525,-0.00687,-0.03754,-0.02808,-0.01053,0.0148,-0.0206,-0.01755,-0.0264,-0.10651,-0.14343,0.08347,0.16586,-0.02441,-0.05005,-0.04562,-0.04776
7.753,-0.00793,-0.03906,-0.02701,-0.00854,0.01511,-0.02533,-0.01892,-0.0499,-0.22217,-0.11307,0.13931,0.15015,-0.02502,-0.07339,-0.04669,-0.04349
7.7535,-0.00839,-0.03998,-0.02808,-0.00763,0.01328,-0.03052,-0.01755,-0.065,-0.3154,-0.0856,0.16891,0.09201,-0.02625,-0.08835,-0.00732,-0.03769
7.754,-0.00946,-0.0415,-0.03052,-0.00717,0.00641,-0.03708,-0.01541,-0.03998,-0.39963,-0.06744,0.16876,0.04898,-0.02777,-0.09766,0.0502,-0.03571
7.7545,-0.01099,-0.04257,-0.0351,-0.00732,-0.0032,-0.0441,-0.01358,0.02106,-0.48706,-0.05203,0.15182,0.04822,-0.03021,-0.10361,0.07599,-0.03723
7.755,-0.0119,-0.04379,-0.0354,-0.00839,-0.01373,-0.05066,-0.01511,0.06439,-0.5838,-0.02884,0.1297,0.05676,-0.03281,-0.10223,0.05524,-0.04013
7.7555,-0.01129,-0.04517,-0.03586,-0.00992,-0.02258,-0.05493,-0.02213,0.0383,-0.68192,0.00977,0.11963,0.03036,-0.03479,-0.09079,0.02533,-0.04105
7.756,-0.01144,-0.04761,-0.03677,-0.0119,-0.02884,-0.05814,-0.03922,-0.04608,-0.76935,0.05753,0.12817,-0.03265,-0.03479,-0.07111,0.01099,-0.0412
7.7565,-0.0116,-0.05096,-0.0383,-0.01221,-0.03403,-0.06149,-0.06531,-0.12161,-0.83755,0.11276,0.13504,-0.09201,-0.0351,-0.04974,0.0177,-0.03998
7.757,-0.01114,-0.05341,-0.03937,-0.01068,-0.03983,-0.06409,-0.09033,-0.12665,-0.88943,0.16678,0.11002,-0.11063,-0.03387,-0.03464,0.02136,-0.03723
7.7575,-0.01022,-0.05447,-0.03998,-0.01114,-0.04471,-0.06607,-0.09628,-0.07263,-0.93613,0.19745,0.05234,-0.08469,-0.03433,-0.02686,0.02029,-0.03647
7.758,-0.00961,-0.05524,-0.0412,-0.01373,-0.04974,-0.06714,-0.0824,-0.02762,-0.98877,0.18875,-0.00244,-0.04242,-0.03448,-0.02197,0.02365,-0.03632
7.7585,-0.01099,-0.05646,-0.04272,-0.01678,-0.05722,-0.06729,-0.06424,-0.04807,-1.04736,0.14603,-0.02365,-0.00961,-0.03403,-0.01495,0.02563,-0.03677
7.759,-0.01205,-0.05844,-0.04822,-0.01892,-0.06271,-0.06668,-0.05737,-0.1207,-1.1026,0.09323,-0.01419,0.01801,-0.03326,-0.00504,0.02563,-0.03708
7.7595,-0.01251,-0.0592,-0.04745,-0.01938,-0.06348,-0.06409,-0.0592,-0.19623,-1.14441,0.04623,0.00412,0.05112,-0.03021,0.00488,0.02701,-0.03616
7.76,-0.01266,-0.05692,-0.04578,-0.01846,-0.06104,-0.06088,-0.05081,-0.23605,-1.17691,0.00351,0.01617,0.07523,-0.02777,0.01053,0.0235,-0.03784
7.7605,-0.01251,-0.05249,-0.04379,-0.01587,-0.05814,-0.05722,-0.00458,-0.20874,-1.20453,-0.0351,0.02228,0.06607,-0.02762,0.01144,0.01541,-0.04272
7.761,-0.01297,-0.05035,-0.04364,-0.01022,-0.05615,-0.05646,0.08102,-0.09705,-1.20392,-0.06271,0.02701,0.02518,-0.02777,0.01175,0.00931,-0.04684
7.7615,-0.01404,-0.05035,-0.04501,-0.0058,-0.05386,-0.05646,0.1445,0.05615,-1.1496,-0.06973,0.02823,-0.02991,-0.02731,0.01801,0.00656,-0.04669
7.762,-0.01617,-0.0499,-0.04578,-0.00305,-0.04929,-0.05539,0.1062,0.15808,-1.05774,-0.06348,0.02289,-0.08118,-0.02487,0.02838,0.00504,-0.04486
7.7625,-0.0174,-0.04822,-0.04608,-0.00183,-0.04486,-0.05295,-0.03113,0.15854,-0.9848,-0.05295,0.01419,-0.10818,-0.02274,0.03738,0.00443,-0.04715
7.763,-0.01862,-0.04593,-0.04593,-0.00153,-0.04028,-0.05157,-0.15106,0.10269,-0.97855,-0.04379,0.0032,-0.08881,-0.02228,0.04059,-0.00015,-0.05112
7.7635,-0.01907,-0.04379,-0.0441,-0.00198,-0.03601,-0.04959,-0.13428,0.06256,-1.03378,-0.03998,-0.00793,-0.03662,-0.02502,0.03906,-0.00153,-0.05249
7.764,-0.01663,-0.04181,-0.04242,-0.00504,-0.03265,-0.04562,-0.00778,0.05646,-1.09604,-0.03632,-0.01877,0.01343,-0.0264,0.03433,0.00183,-0.04913
7.7645,-0.0116,-0.03922,-0.03983,-0.009,-0.03021,-0.04044,0.08499,0.05478,-1.11465,-0.03433,-0.02701,0.03937,-0.0267,0.02533,0.01053,-0.04425
7.765,-0.00381,-0.03662,-0.03952,-0.00977,-0.02716,-0.03616,0.06302,0.0293,-1.09344,-0.0293,-0.03326,0.047,-0.02701,0.0116,0.01389,-0.0412
7.7655,0.00092,-0.0351,-0.03647,-0.00748,-0.02472,-0.03372,-0.01312,-0.00992,-1.07071,-0.01801,-0.03677,0.04135,-0.02823,-0.0029,0.01694,-0.03952
7.766,0.00259,-0.0351,-0.0351,-0.00519,-0.02228,-0.03296,-0.05005,-0.03418,-1.07544,-0.00671,-0.03662,0.02777,-0.02884,-0.01617,0.01556,-0.0383
7.7665,0.00381,-0.03616,-0.03479,-0.00565,-0.02228,-0.03387,-0.03662,-0.03036,-1.10733,0.00153,-0.03601,0.02472,-0.03021,-0.02808,0.01343,-0.03601
7.767,0.00671,-0.03571,-0.03464,-0.01083,-0.02441,-0.03418,-0.01709,-0.01129,-1.15326,0.00732,-0.0354,0.03464,-0.02914,-0.04028,0.01602,-0.0322
7.7675,0.00916,-0.03494,-0.03281,-0.01923,-0.02502,-0.03479,-0.00961,0.00259,-1.20499,0.01587,-0.03525,0.03571,-0.02914,-0.0563,0.01862,-0.02731
7.768,0.00931,-0.03403,-0.03036,-0.03464,-0.02502,-0.03754,-0.0029,0.00443,-1.25977,0.02335,-0.03296,0.01663,-0.02975,-0.07492,0.02106,-0.02213
7.7685,0.00854,-0.03433,-0.02991,-0.0647,-0.02365,-0.0415,0.01007,0.0029,-1.31836,0.0235,-0.03098,-0.00153,-0.03067,-0.09369,0.0177,-0.02106
7.769,0.00656,-0.0354,-0.03098,-0.10803,-0.02289,-0.04501,0.01862,0.00229,-1.37772,0.00656,-0.02975,-0.00122,-0.03235,-0.1033,0.01526,-0.02625
7.7695,0.00107,-0.03601,-0.03113,-0.14923,-0.02289,-0.04623,0.01434,0.0032,-1.4325,-0.01373,-0.02762,0.01068,-0.03479,-0.08987,0.01007,-0.03403
7.77,-0.00397,-0.03433,-0.03174,-0.16632,-0.02304,-0.04761,0.00412,0.00504,-1.47171,-0.02823,-0.02548,0.01709,-0.03677,-0.05112,0.00717,-0.0412
7.7705,-0.00473,-0.03342,-0.03387,-0.15671,-0.02411,-0.04822,-0.00092,0.00732,-1.47675,-0.03662,-0.0238,0.01587,-0.03754,-0.0032,0.00809,-0.04501
7.771,-0.00351,-0.03281,-0.03143,-0.12177,-0.02411,-0.04944,0.00198,0.00916,-1.44241,-0.04272,-0.02472,0.01587,-0.03723,0.03204,0.01144,-0.0473
7.7715,-0.00168,-0.03418,-0.03265,-0.04257,-0.02548,-0.04898,0.00473,0.00931,-1.39114,-0.04822,-0.0267,0.01526,-0.03647,0.04532,0.01038,-0.04959
7.772,-0.00397,-0.03342,-0.03204,0.09995,-0.02731,-0.04745,0.00122,0.00702,-1.35269,-0.0502,-0.02792,0.01648,-0.03769,0.03738,0.00595,-0.05264
7.7725,-0.00824,-0.03159,-0.03326,0.25543,-0.02884,-0.04974,-0.00366,0.00565,-1.31851,-0.05447,-0.03326,0.02197,-0.03906,0.0177,0.00137,-0.05356
7.773,-0.01389,-0.03189,-0.0351,0.32455,-0.0296,-0.05341,-0.00626,0.00595,-1.25717,-0.06027,-0.05554,0.03372,-0.03967,-0.009,-0.00046,-0.0528
7.7735,-0.01953,-0.03357,-0.03479,0.26718,-0.0296,-0.05646,-0.00732,0.00671,-1.16608,-0.06714,-0.10361,0.04257,-0.03723,-0.03525,0.00183,-0.0531
7.774,-0.02411,-0.03433,-0.03525,0.14664,-0.02975,-0.05768,-0.00854,0.00595,-1.07178,-0.07629,-0.15594,0.03708,-0.03448,-0.05188,0.00519,-0.05234
7.7745,-0.02426,-0.03357,-0.03448,0.05371,-0.03113,-0.05753,-0.01022,0.00381,-0.98083,-0.08041,-0.17563,0.02045,-0.0325,-0.05783,0.00671,-0.0499
7.775,-0.02075,-0.03265,-0.03311,0.02472,-0.0325,-0.05737,-0.01221,0.00015,-0.89767,-0.07507,-0.14862,0.00916,-0.02945,-0.0563,0.00671,-0.04486
7.7755,-0.01587,-0.03342,-0.03555,0.02823,-0.03418,-0.05646,-0.01572,-0.00565,-0.8342,-0.06729,-0.09842,0.01373,-0.02533,-0.05646,0.00549,-0.04166
7.776,-0.01175,-0.03571,-0.03601,0.01678,-0.0354,-0.056,-0.0174,-0.01022,-0.78186,-0.06042,-0.05112,0.02686,-0.0235,-0.05966,0.00793,-0.04425
7.7765,-0.01007,-0.03799,-0.0351,-0.01816,-0.03586,-0.05554,-0.01617,-0.00977,-0.71075,-0.05875,-0.01083,0.03006,-0.02441,-0.06714,0.00992,-0.04974
7.777,-0.00885,-0.03754,-0.03571,-0.04623,-0.03448,-0.05707,-0.01526,-0.00793,-0.61081,-0.06317,0.0296,0.01724,-0.02686,-0.08011,0.00519,-0.0563
7.7775,-0.0116,-0.03464,-0.03677,-0.04547,-0.03342,-0.05768,-0.01724,-0.00809,-0.49133,-0.0676,0.05905,0.00015,-0.02975,-0.10101,-0.00137,-0.06058
7.778,-0.01862,-0.03235,-0.03601,-0.03799,-0.03296,-0.05737,-0.01999,-0.01053,-0.37399,-0.0647,0.04807,-0.00717,-0.03143,-0.11795,0.00015,-0.05981
7.7785,-0.02472,-0.03143,-0.0351,-0.04227,-0.03296,-0.05722,-0.01968,-0.01175,-0.27496,-0.05569,-0.01099,-0.0029,-0.03387,-0.11612,0.01419,-0.05676
7.779,-0.02579,-0.03311,-0.03448,-0.04959,-0.03372,-0.05768,-0.01801,-0.00977,-0.19455,-0.04364,-0.07156,0.00427,-0.03357,-0.09018,0.02716,-0.05112
7.7795,-0.0235,-0.03342,-0.03403,-0.03906,-0.03204,-0.05936,-0.01816,-0.00763,-0.11978,-0.03174,-0.07782,0.00885,-0.03128,-0.05524,0.02243,-0.04379
7.78,-0.02228,-0.03281,-0.03189,-0.01236,-0.03113,-0.05844,-0.01862,-0.00824,-0.04349,-0.01984,-0.0322,0.01099,-0.02762,-0.02579,-0.00076,-0.03693
7.7805,-0.02319,-0.03128,-0.03021,0.00809,-0.03235,-0.05753,-0.01877,-0.01099,0.02899,-0.0029,0.0206,0.0177,-0.02716,-0.00778,-0.02533,-0.03494
7.781,-0.02563,-0.03143,-0.02991,0.01038,-0.03296,-0.05615,-0.01968,-0.01251,0.09354,0.01373,0.05554,0.03128,-0.03021,0.00061,-0.03098,-0.03708
7.7815,-0.02747,-0.0325,-0.0296,-0.00763,-0.03311,-0.05478,-0.01999,-0.01114,0.15274,0.02167,0.07065,0.04517,-0.03525,0.00671,-0.02182,-0.04059
7.782,-0.02838,-0.0325,-0.02914,-0.03357,-0.03113,-0.05371,-0.02029,-0.00809,0.21362,0.01526,0.06744,0.04776,-0.03693,0.01144,-0.0087,-0.04105
7.7825,-0.02533,-0.03265,-0.02869,-0.05173,-0.0322,-0.05173,-0.01801,-0.00809,0.27771,-0.00092,0.04227,0.03616,-0.03448,0.01633,0.00565,-0.04028
7.783,-0.01648,-0.03372,-0.02792,-0.05096,-0.03387,-0.05112,-0.01724,-0.00946,0.34088,-0.01862,0.00488,0.01633,-0.03174,0.01831,0.02548,-0.0386
7.7835,-0.00443,-0.03479,-0.02777,-0.0386,-0.03525,-0.04959,-0.01816,-0.01022,0.39429,-0.0322,-0.02548,-0.00183,-0.03189,0.01633,0.04745,-0.03723
7.784,0.00504,-0.03418,-0.02579,-0.02777,-0.03586,-0.04929,-0.01938,-0.01022,0.43152,-0.03876,-0.03479,-0.01495,-0.03448,0.009,0.05371,-0.03357
7.7845,0.01053,-0.03387,-0.02533,-0.02411,-0.03418,-0.04929,-0.01984,-0.00885,0.4567,-0.03693,-0.02457,-0.02777,-0.03662,-0.00366,0.03967,-0.03036
7.785,0.01404,-0.03342,-0.02518,-0.0235,-0.03464,-0.04929,-0.01953,-0.00839,0.47836,-0.02625,-0.00885,-0.04303,-0.03952,-0.0209,0.02518,-0.02899
7.7855,0.01678,-0.03296,-0.02472,-0.02182,-0.03357,-0.05051,-0.01938,-0.00778,0.4985,-0.01053,0.0029,-0.05569,-0.04288,-0.03754,0.02136,-0.02884
7.786,0.01709,-0.03448,-0.02396,-0.01755,-0.0354,-0.05096,-0.01892,-0.00839,0.52612,0.00366,0.01007,-0.05676,-0.04456,-0.04837,0.02731,-0.02975
7.7865,0.01663,-0.0351,-0.02106,-0.01465,-0.03647,-0.0502,-0.01785,-0.0087,0.57053,0.00671,0.01221,-0.04791,-0.04562,-0.05157,0.02823,-0.03006
7.787,0.01831,-0.0354,-0.01999,-0.01236,-0.03571,-0.05051,-0.01678,-0.00748,0.6218,-0.00214,0.01312,-0.03876,-0.047,-0.04745,0.0235,-0.03006
7.7875,0.0235,-0.03494,-0.01999,-0.01053,-0.03448,-0.05066,-0.01678,-0.00427,0.66406,-0.01389,0.00992,-0.03448,-0.04974,-0.03754,0.01907,-0.02945
7.788,0.02838,-0.0354,-0.02151,-0.00992,-0.03464,-0.05356,-0.01617,-0.00092,0.7045,-0.0235,0.00397,-0.03448,-0.05219,-0.02014,0.0177,-0.02975
7.7885,0.02899,-0.03693,-0.0235,-0.009,-0.03632,-0.05463,-0.01587,0.00076,0.74234,-0.03174,-0.00122,-0.03784,-0.05325,-0.00183,0.01801,-0.03036
7.789,0.02655,-0.03723,-0.02548,-0.01022,-0.03815,-0.05371,-0.01633,-0.00015,0.76233,-0.03998,-0.00473,-0.04135,-0.05249,0.01266,0.01831,-0.03281
7.7895,0.02716,-0.03662,-0.02487,-0.01175,-0.0383,-0.05157,-0.01556,-0.00259,0.76599,-0.04654,-0.00595,-0.03983,-0.05188,0.02335,0.01877,-0.03647
7.79,0.02823,-0.03723,-0.02319,-0.01297,-0.03754,-0.04868,-0.0145,-0.00473,0.7608,-0.04913,-0.00381,-0.02701,-0.05234,0.03204,0.01785,-0.0386
7.7905,0.02563,-0.03906,-0.02075,-0.01358,-0.03601,-0.04761,-0.01465,-0.0061,0.74219,-0.047,-0.00061,-0.00824,-0.0528,0.03632,0.0119,-0.04135
7.791,0.01846,-0.04059,-0.02228,-0.01328,-0.03571,-0.04791,-0.01587,-0.00595,0.71274,-0.04807,0.00153,0.00656,-0.05295,0.03555,0.0058,-0.04471
7.7915,0.01007,-0.03998,-0.02167,-0.01556,-0.03754,-0.05005,-0.01709,-0.00626,0.68619,-0.05081,0.00092,0.00961,-0.05096,0.02869,0.00061,-0.047
7.792,0.00122,-0.03967,-0.0206,-0.01877,-0.03967,-0.05234,-0.0177,-0.00793,0.66223,-0.05402,-0.00107,0.00793,-0.04745,0.01968,0.0,-0.04959
7.7925,-0.00687,-0.04105,-0.01968,-0.02014,-0.0415,-0.05356,-0.01678,-0.00839,0.62744,-0.05234,-0.00443,0.00626,-0.04379,0.00732,0.00381,-0.04959
7.793,-0.01343,-0.04333,-0.02167,-0.01923,-0.03998,-0.05371,-0.01587,-0.00595,0.57724,-0.04532,-0.01144,0.0032,-0.04105,-0.01007,0.0061,-0.04822
7.7935,-0.01694,-0.04456,-0.02319,-0.01511,-0.03922,-0.05325,-0.01495,-0.00198,0.51575,-0.04013,-0.02136,-0.00854,-0.03906,-0.03296,0.00305,-0.047
7.794,-0.01968,-0.04471,-0.02518,-0.00824,-0.0386,-0.05417,-0.01587,0.0,0.45013,-0.04135,-0.03006,-0.0264,-0.03555,-0.05707,-0.00443,-0.04608
7.7945,-0.02335,-0.04395,-0.0267,-0.00122,-0.03906,-0.05478,-0.01709,-0.00214,0.39825,-0.04364,-0.0325,-0.03891,-0.03494,-0.07751,-0.01526,-0.047
7.795,-0.02701,-0.04211,-0.02686,0.00137,-0.03983,-0.05402,-0.0177,-0.00504,0.3772,-0.03754,-0.03113,-0.03876,-0.03448,-0.08408,-0.01862,-0.04669
7.7955,-0.0267,-0.0415,-0.02731,-0.00092,-0.04028,-0.05249,-0.01572,-0.00549,0.38635,-0.03067,-0.03815,-0.02686,-0.03265,-0.07111,-0.01755,-0.04654
7.796,-0.02533,-0.04105,-0.02579,-0.00443,-0.04135,-0.05005,-0.01343,-0.00565,0.40909,-0.03296,-0.05539,-0.00885,-0.03372,-0.04623,-0.02319,-0.04425
7.7965,-0.02289,-0.04135,-0.02533,-0.00839,-0.04303,-0.05005,-0.01328,-0.00488,0.42313,-0.04242,-0.06744,0.00732,-0.0354,-0.02441,-0.03967,-0.04379
7.797,-0.02335,-0.04303,-0.02609,-0.0148,-0.04364,-0.05219,-0.0145,-0.00351,0.42709,-0.0441,-0.05676,0.00992,-0.03616,-0.01511,-0.0499,-0.04349
7.7975,-0.02701,-0.04608,-0.0267,-0.02441,-0.04242,-0.05234,-0.01434,-0.00214,0.45349,-0.02945,-0.02914,0.00183,-0.0386,-0.01541,-0.03937,-0.04303
7.798,-0.03052,-0.04608,-0.02853,-0.03586,-0.04059,-0.05142,-0.01343,-0.00046,0.55237,-0.00824,-0.00351,-0.00458,-0.04166,-0.01923,-0.0235,-0.04364
7.7985,-0.02991,-0.0441,-0.0293,-0.04074,-0.03845,-0.04929,-0.01343,0.00031,0.7254,0.0058,0.00687,-0.00076,-0.04395,-0.02365,-0.01251,-0.04257
7.799,-0.02548,-0.04272,-0.03098,-0.03937,-0.03647,-0.04852,-0.01389,0.00046,0.91141,0.00549,0.00595,-0.00015,-0.04517,-0.02823,0.01282,-0.04272
7.7995,-0.01938,-0.04364,-0.0322,-0.03601,-0.03571,-0.04837,-0.01434,0.00092,1.05789,-0.00275,-0.00198,-0.01724,-0.0473,-0.03113,0.07233,-0.04059
7.8,-0.01144,-0.04425,-0.0325,-0.03403,-0.03464,-0.04715,-0.01572,0.00061,1.16226,-0.00793,-0.01297,-0.04349,-0.05096,-0.03174,0.12283,-0.03799
7.8005,-0.00122,-0.04288,-0.03036,-0.03174,-0.03464,-0.04578,-0.01648,-0.00092,1.23322,-0.00305,-0.00809,-0.05188,-0.05341,-0.0296,0.11032,-0.03845
7.801,0.0061,-0.04196,-0.02899,-0.02762,-0.03326,-0.04547,-0.01663,-0.00214,1.24954,0.01328,0.03418,-0.03387,-0.05203,-0.02747,0.04623,-0.03967
7.8015,0.00595,-0.04257,-0.0293,-0.02319,-0.03235,-0.04395,-0.01694,-0.00275,1.17493,0.03052,0.09598,-0.00717,-0.05035,-0.0267,-0.00183,-0.04242
7.802,-0.00046,-0.04425,-0.03128,-0.02274,-0.03159,-0.04288,-0.01648,-0.00351,1.01807,0.03845,0.12573,0.01129,-0.0499,-0.02747,0.00137,-0.04303
7.8025,-0.00641,-0.04486,-0.03189,-0.03082,-0.03098,-0.0415,-0.01602,-0.00427,0.89966,0.03662,0.09705,0.02106,-0.05051,-0.0264,0.0209,-0.04166
7.803,-0.00549,-0.04425,-0.03204,-0.04883,-0.03006,-0.04257,-0.01465,-0.0029,0.95535,0.02975,0.03281,0.02594,-0.04913,-0.0235,0.02472,-0.04349
7.8035,-0.00244,-0.04242,-0.0354,-0.06897,-0.03098,-0.04318,-0.01389,-0.00107,1.16196,0.02304,-0.02731,0.02686,-0.04745,-0.01907,0.0148,-0.0444
7.804,-0.00153,-0.0412,-0.03769,-0.0853,-0.03036,-0.04288,-0.0145,0.00137,1.35483,0.01953,-0.06454,0.02487,-0.04639,-0.01465,0.00946,-0.04822
7.8045,-0.00565,-0.04227,-0.03738,-0.09735,-0.03082,-0.04211,-0.01556,0.00076,1.42395,0.01968,-0.07462,0.02151,-0.04623,-0.01068,0.00824,-0.0531
7.805,-0.01312,-0.04456,-0.0351,-0.10834,-0.03021,-0.04272,-0.01526,-0.00153,1.36887,0.0206,-0.05859,0.01556,-0.04578,-0.009,0.00534,-0.05402
7.8055,-0.01999,-0.04578,-0.03204,-0.10971,-0.03143,-0.04318,-0.01511,-0.00275,1.20087,0.01312,-0.03586,0.00931,-0.04562,-0.00824,0.0032,-0.05081
7.806,-0.02197,-0.04684,-0.03235,-0.07828,-0.0322,-0.04471,-0.01511,-0.00198,0.89996,-0.00504,-0.03372,0.00595,-0.04471,-0.00763,0.00839,-0.04272
7.8065,-0.01816,-0.04807,-0.03571,-0.00076,-0.03143,-0.04562,-0.01663,-0.00107,0.45944,-0.02335,-0.06699,0.00732,-0.04501,-0.00702,0.01801,-0.03738
7.807,-0.01266,-0.04883,-0.03876,0.09033,-0.0296,-0.04532,-0.01755,-0.00153,-0.08301,-0.02899,-0.12009,0.00916,-0.0444,-0.00549,0.02502,-0.03372
7.8075,-0.01022,-0.04929,-0.03983,0.12985,-0.0293,-0.0441,-0.01678,-0.00397,-0.64087,-0.01877,-0.15182,0.00946,-0.04379,-0.0032,0.02563,-0.03342
7.808,-0.0116,-0.04868,-0.03799,0.09338,-0.03159,-0.04349,-0.01587,-0.00626,-1.10764,-0.0058,-0.13107,0.00748,-0.04333,-0.00092,0.0209,-0.03418
7.8085,-0.01282,-0.04791,-0.03601,0.02914,-0.03265,-0.04272,-0.01587,-0.00824,-1.41113,-0.00351,-0.07278,0.00412,-0.04425,-0.00046,0.01678,-0.03922
7.809,-0.01251,-0.04868,-0.03616,-0.00137,-0.03372,-0.04211,-0.01678,-0.00854,-1.56952,-0.00992,-0.01862,0.00183,-0.04501,-0.00092,0.00824,-0.04486
7.8095,-0.01144,-0.04868,-0.03387,0.00992,-0.03311,-0.04135,-0.01846,-0.00641,-1.68106,-0.01511,0.00488,0.0029,-0.04395,-0.00046,-0.00305,-0.04578
7.81,-0.00916,-0.04608,-0.03159,0.02899,-0.03281,-0.03983,-0.01846,-0.00381,-1.78635,-0.01312,0.00214,0.00412,-0.04379,-0.00061,-0.01099,-0.04395
7.8105,-0.00763,-0.04272,-0.0296,0.03143,-0.0322,-0.04028,-0.0177,-0.00259,-1.49918,-0.00732,-0.01083,0.00458,-0.04303,-0.00198,-0.00778,-0.04028
7.811,-0.00946,-0.04257,-0.02899,0.01419,-0.03159,-0.0412,-0.01617,-0.00122,0.01602,-0.00366,-0.02426,0.00305,-0.04135,-0.00366,0.00305,-0.04059
7.8115,-0.01282,-0.04532,-0.02838,-0.01068,-0.03189,-0.0415,-0.01434,-0.00107,2.72934,-0.00687,-0.0322,0.00153,-0.03998,-0.00351,0.00656,-0.04135
7.812,-0.01602,-0.04791,-0.02869,-0.03067,-0.03326,-0.04166,-0.01389,-0.00198,4.94751,-0.01572,-0.03494,0.00015,-0.03815,-0.00168,0.00259,-0.04242
7.8125,-0.01328,-0.04883,-0.02899,-0.03601,-0.03387,-0.04196,-0.0148,-0.00427,4.99985,-0.02655,-0.0354,-0.00214,-0.03647,0.00031,-0.00504,-0.04608
7.813,-0.00565,-0.04822,-0.03098,-0.02777,-0.03387,-0.04349,-0.01572,-0.00519,4.82254,-0.03525,-0.03952,-0.00244,-0.03372,0.0032,-0.0061,-0.04578
7.8135,0.00076,-0.04868,-0.03204,-0.01572,-0.03326,-0.0444,-0.01572,-0.00366,4.54361,-0.03784,-0.05142,-0.00061,-0.03036,0.00839,-0.00351,-0.04257
7.814,0.00504,-0.04608,-0.03143,-0.00534,-0.03296,-0.04578,-0.01495,-0.00092,4.74472,-0.03769,-0.065,-0.00061,-0.02838,0.0145,-0.00229,-0.03983
7.8145,0.00778,-0.04272,-0.03067,0.0032,-0.03281,-0.04684,-0.01465,0.00031,4.84634,-0.03815,-0.06668,-0.00046,-0.02701,0.01846,-0.00214,-0.03525
7.815,0.01312,-0.04089,-0.03098,0.00824,-0.0322,-0.04852,-0.01541,0.0,4.69635,-0.04074,-0.04578,-0.00076,-0.02609,0.01801,0.00076,-0.03387
7.8155,0.01846,-0.03952,-0.03189,0.00641,-0.03174,-0.04883,-0.01587,-0.00183,4.58359,-0.04303,-0.00305,-0.00305,-0.02563,0.01266,0.00885,-0.02853
7.816,0.02045,-0.03891,-0.03326,-0.00092,-0.03113,-0.04761,-0.01587,-0.00259,4.60953,-0.04364,0.04852,-0.0061,-0.0267,0.00595,0.02029,-0.02396
7.8165,0.02075,-0.03677,-0.03311,-0.00717,-0.03021,-0.04608,-0.01633,-0.00122,4.62082,-0.04242,0.08774,-0.00702,-0.02792,0.00031,0.02884,-0.0177
7.817,0.02136,-0.03357,-0.03235,-0.00824,-0.02838,-0.04654,-0.01633,0.00076,4.55734,-0.04059,0.08865,-0.00259,-0.0296,-0.00504,0.02853,-0.01373
7.8175,0.0209,-0.03113,-0.03067,-0.00824,-0.02884,-0.04623,-0.01663,0.00122,4.49036,-0.04196,0.05341,0.00351,-0.03082,-0.00992,0.02014,-0.00946
7.818,0.01968,-0.02945,-0.02899,-0.00977,-0.02914,-0.04761,-0.01526,0.0,4.38751,-0.04959,0.01083,0.00534,-0.03006,-0.01373,0.0145,-0.00839
7.8185,0.01816,-0.02808,-0.0264,-0.01266,-0.02975,-0.04715,-0.01419,-0.00153,4.04037,-0.06119,-0.01511,0.00336,-0.02991,-0.01694,0.01678,-0.01083
7.819,0.01953,-0.02945,-0.02533,-0.01633,-0.02884,-0.04761,-0.01373,-0.00229,3.37097,-0.0705,-0.02472,-0.00015,-0.03052,-0.02045,0.02274,-0.02136
7.8195,0.02579,-0.03098,-0.02579,-0.01923,-0.02884,-0.04807,-0.01373,-0.00229,2.64099,-0.07156,-0.03006,-0.00168,-0.03174,-0.02548,0.02731,-0.03662
7.82,0.03326,-0.03082,-0.02655,-0.02258,-0.02991,-0.04868,-0.01328,-0.00107,2.1048,-0.06775,-0.03555,-0.00198,-0.03174,-0.03098,0.02579,-0.05646
7.8205,0.03906,-0.02899,-0.02853,-0.02701,-0.03113,-0.04898,-0.01266,0.00031,1.70227,-0.06561,-0.03952,-0.00153,-0.03021,-0.03799,0.02014,-0.07401
7.821,0.03891,-0.02777,-0.0296,-0.02991,-0.03189,-0.04807,-0.01266,0.00031,1.2471,-0.06378,-0.04227,-0.00351,-0.02823,-0.04288,0.00702,-0.07996
7.8215,0.0325,-0.0293,-0.03052,-0.0293,-0.03143,-0.04608,-0.01343,-0.00046,0.72647,-0.05905,-0.047,-0.00824,-0.02762,-0.04211,-0.01236,-0.07614
7.822,0.02182,-0.03281,-0.03342,-0.02655,-0.03128,-0.04639,-0.01358,-0.00183,0.25146,-0.04852,-0.05539,-0.01297,-0.02655,-0.03754,-0.02716,-0.06927
7.8225,0.009,-0.03464,-0.03418,-0.02487,-0.03082,-0.04669,-0.01465,-0.00229,-0.121,-0.03525,-0.06622,-0.01266,-0.02548,-0.03311,-0.03036,-0.06363
7.823,-0.00412,-0.03403,-0.03281,-0.02304,-0.02945,-0.047,-0.01465,-0.00168,-0.42313,-0.0209,-0.07568,-0.00641,-0.0235,-0.03052,-0.0238,-0.06042
7.8235,-0.01556,-0.03433,-0.03098,-0.01999,-0.0293,-0.04791,-0.01526,-0.00198,-0.70648,-0.009,-0.07492,-0.00031,-0.02197,-0.02701,-0.01633,-0.05508
7.824,-0.02441,-0.03632,-0.03098,-0.01678,-0.02991,-0.04807,-0.01434,-0.00336,-1.01074,0.00336,-0.06241,0.00076,-0.02045,-0.02075,-0.01251,-0.04929
7.8245,-0.02975,-0.03876,-0.03204,-0.01511,-0.03082,-0.04929,-0.01328,-0.00305,-1.35208,0.0174,-0.04471,-0.00092,-0.01923,-0.01205,-0.01541,-0.04532
7.825,-0.03326,-0.03937,-0.03174,-0.01526,-0.03021,-0.04944,-0.01297,-0.00122,-1.70746,0.03296,-0.03159,-0.00153,-0.0177,-0.00275,-0.02213,-0.04608
7.8255,-0.03632,-0.03738,-0.03082,-0.01602,-0.02945,-0.04974,-0.01297,0.0,-2.03247,0.0412,-0.02487,0.00015,-0.01602,0.00244,-0.02777,-0.04593
7.826,-0.03876,-0.03555,-0.03082,-0.01678,-0.02808,-0.04898,-0.01373,0.00076,-2.30392,0.03448,-0.02319,0.00092,-0.01511,0.00153,-0.03067,-0.04257
7.8265,-0.03708,-0.03525,-0.03082,-0.01663,-0.02731,-0.04868,-0.0145,0.00107,-2.53738,0.01755,-0.02365,0.00046,-0.01663,-0.00229,-0.02609,-0.03708
7.827,-0.03113,-0.03662,-0.0296,-0.01526,-0.02777,-0.04837,-0.01556,0.00183,-2.75696,0.00458,-0.02365,0.00031,-0.01846,-0.00427,-0.0209,-0.03174
7.8275,-0.02441,-0.03769,-0.02991,-0.01312,-0.02838,-0.04807,-0.01556,0.00305,-2.97104,0.00092,-0.02274,-0.00122,-0.02075,-0.0029,-0.00732,-0.0264
7.828,-0.01831,-0.03693,-0.0322,-0.01068,-0.02838,-0.04745,-0.01587,0.00305,-3.16757,0.00229,-0.02136,-0.0032,-0.02136,-0.00137,0.02228,-0.02701
7.8285,-0.01389,-0.03586,-0.03479,-0.01068,-0.02823,-0.04791,-0.01633,0.00137,-3.33191,0.00046,-0.01785,-0.00427,-0.02197,-0.00244,0.06577,-0.02899
7.829,-0.009,-0.03555,-0.03632,-0.01068,-0.02777,-0.04837,-0.01556,-0.00107,-3.46313,-0.00366,-0.01358,-0.00351,-0.02441,-0.0061,0.09445,-0.03235
7.8295,-0.00519,-0.03662,-0.03418,-0.00931,-0.0267,-0.04745,-0.0145,-0.00168,-3.57056,-0.00732,-0.00839,-0.00107,-0.02579,-0.00885,0.08606,-0.03738
7.83,-0.00259,-0.03693,-0.03311,-0.00793,-0.02701,-0.04654,-0.01266,-0.00107,-3.66196,-0.01022,-0.0032,0.0,-0.02747,-0.01053,0.05157,-0.04135
7.8305,-0.00031,-0.0354,-0.03372,-0.00809,-0.02686,-0.04623,-0.01236,-0.00015,-3.73413,-0.01526,0.00061,-0.00183,-0.02884,-0.01144,0.01663,-0.04211
7.831,0.00168,-0.03555,-0.03433,-0.00809,-0.02777,-0.04562,-0.01282,-0.00031,-3.78799,-0.02182,0.00473,-0.00458,-0.02869,-0.01221,-0.00763,-0.05295
7.8315,0.00824,-0.03677,-0.03479,-0.0087,-0.02716,-0.04486,-0.01404,-0.00031,-3.83209,-0.02838,0.00732,-0.00702,-0.02808,-0.01144,-0.02747,-0.06638
7.832,0.01724,-0.03891,-0.03372,-0.00885,-0.02548,-0.0441,-0.01511,0.0,-3.87497,-0.0354,0.00916,-0.00626,-0.0267,-0.00992,-0.04562,-0.07874
7.8325,0.02594,-0.03937,-0.03296,-0.009,-0.02396,-0.04532,-0.0145,0.00061,-3.90411,-0.047,0.0119,-0.00443,-0.02655,-0.00931,-0.06561,-0.07431
7.833,0.03036,-0.03937,-0.03372,-0.0087,-0.02426,-0.04669,-0.01343,0.00015,-3.90274,-0.06241,0.01465,-0.00259,-0.02579,-0.01205,-0.1001,-0.05936
7.8335,0.02853,-0.03998,-0.03632,-0.00763,-0.02533,-0.047,-0.01328,-0.00122,-3.87451,-0.07568,0.01602,-0.00183,-0.0235,-0.01587,-0.13199,-0.04288
7.834,0.02182,-0.04028,-0.03922,-0.00702,-0.02716,-0.04807,-0.01389,-0.00305,-3.84109,-0.07675,0.0145,-0.00198,-0.02151,-0.01862,-0.12375,-0.03235
7.8345,0.01404,-0.03967,-0.04105,-0.00778,-0.02808,-0.04807,-0.01373,-0.00427,-3.81134,-0.06378,0.01175,-0.00153,-0.02197,-0.02121,-0.06836,-0.02396
7.835,0.00931,-0.03815,-0.04013,-0.00809,-0.02945,-0.04776,-0.01404,-0.00473,-3.77304,-0.04639,0.01007,-0.00137,-0.02518,-0.02289,-0.01862,-0.02594
7.8355,0.00885,-0.03693,-0.03815,-0.00778,-0.02899,-0.04791,-0.01434,-0.00397,-3.72345,-0.03311,0.00977,-0.00153,-0.02838,-0.02396,-0.00336,-0.03479
7.836,0.00977,-0.03723,-0.03845,-0.00656,-0.0267,-0.04684,-0.0145,-0.00366,-3.67493,-0.02731,0.00671,-0.00244,-0.03052,-0.02502,0.01556,-0.04807
7.8365,0.00961,-0.03677,-0.04028,-0.00565,-0.02579,-0.04639,-0.01465,-0.00336,-3.62946,-0.02945,0.00076,-0.0032,-0.03174,-0.02502,0.07065,-0.056
7.837,0.00671,-0.03555,-0.04074,-0.0061,-0.02792,-0.04608,-0.01434,-0.00275,-3.57071,-0.03296,0.00305,-0.00229,-0.03235,-0.02396,0.10239,-0.04944
7.8375,0.00168,-0.03281,-0.03937,-0.00732,-0.0296,-0.04578,-0.01373,-0.00229,-3.4845,-0.03448,0.02075,-0.00076,-0.03265,-0.02289,0.04883,-0.03738
7.838,-0.00351,-0.03174,-0.03845,-0.01251,-0.02945,-0.04623,-0.01282,-0.00214,-3.37051,-0.03326,0.04791,0.00015,-0.03143,-0.02289,-0.05157,-0.02808
7.8385,-0.00763,-0.0325,-0.03662,-0.01953,-0.02777,-0.04745,-0.01266,-0.00381,-3.22784,-0.0296,0.07324,0.0,-0.03052,-0.02563,-0.10529,-0.02258
7.839,-0.00916,-0.03296,-0.03769,-0.02579,-0.02838,-0.04715,-0.01373,-0.00412,-3.05344,-0.02487,0.08881,-0.00076,-0.03174,-0.02991,-0.06897,-0.02365
7.8395,-0.00809,-0.03311,-0.0383,-0.0238,-0.02991,-0.04684,-0.01373,-0.00381,-2.8537,-0.01617,0.09476,-0.00122,-0.03387,-0.03174,0.04562,-0.02396
7.84,-0.00732,-0.03372,-0.03784,-0.01633,-0.02991,-0.04593,-0.01297,-0.00198,-2.67548,-0.00229,0.09125,-0.00153,-0.03418,-0.03006,0.18234,-0.02274
7.8405,-0.00778,-0.03418,-0.03784,-0.01099,-0.0296,-0.04608,-0.0116,-0.00183,-2.63489,0.01099,0.08072,-0.00198,-0.03311,-0.02731,0.25208,-0.0322
7.841,-0.01038,-0.03418,-0.0386,-0.01266,-0.02823,-0.04593,-0.01099,-0.00198,-2.88254,0.01297,0.07034,-0.00381,-0.03296,-0.02686,0.20721,-0.05569
7.8415,-0.01144,-0.03494,-0.04059,-0.01663,-0.02731,-0.04608,-0.01114,-0.00137,-3.44009,-0.00107,0.06226,-0.00504,-0.03433,-0.02838,0.12039,-0.07645
7.842,-0.01099,-0.03677,-0.0412,-0.01678,-0.02625,-0.04623,-0.01175,0.0,-4.1246,-0.02258,0.05356,-0.00549,-0.03479,-0.02808,0.09323,-0.08469
7.8425,-0.01007,-0.03937,-0.04288,-0.01419,-0.02563,-0.04623,-0.01297,0.0,-4.61777,-0.03937,0.04288,-0.00504,-0.03372,-0.02548,0.12054,-0.08438
7.843,-0.00992,-0.04059,-0.04227,-0.01877,-0.02487,-0.04654,-0.01297,-0.00137,-4.74335,-0.04547,0.03021,-0.00244,-0.0322,-0.02258,0.11383,-0.08453
7.8435,-0.00916,-0.04074,-0.04227,-0.03815,-0.02533,-0.047,-0.0119,-0.00153,-4.63715,-0.03845,0.01846,0.00076,-0.03082,-0.02151,0.05112,-0.0914
7.844,-0.00854,-0.04028,-0.04196,-0.05859,-0.02655,-0.04715,-0.0119,-0.00107,-4.54605,-0.01785,0.01053,0.00351,-0.03098,-0.02228,-0.00092,-0.0943
7.8445,-0.00793,-0.04089,-0.04288,-0.05524,-0.02762,-0.047,-0.01328,-0.00015,-4.54315,0.01389,0.0116,0.00534,-0.03281,-0.02213,-0.00336,-0.0827
7.845,-0.00595,-0.04242,-0.04517,-0.01587,-0.02884,-0.04669,-0.01465,-0.00092,-4.5401,0.04242,0.02228,0.0061,-0.03357,-0.02106,0.00854,-0.06134
7.8455,-0.0029,-0.04333,-0.04547,0.03952,-0.02991,-0.04532,-0.01404,-0.00305,-4.49432,0.05219,0.03601,0.00641,-0.0322,-0.02075,0.00412,-0.04181
7.846,0.00046,-0.04303,-0.04669,0.07401,-0.03052,-0.04608,-0.01251,-0.0029,-4.44687,0.04547,0.04898,0.00656,-0.03052,-0.02106,0.00214,-0.03418
7.8465,0.00458,-0.04089,-0.04822,0.06882,-0.03098,-0.04669,-0.01221,-0.00092,-4.42184,0.03723,0.06149,0.00595,-0.02991,-0.02014,0.02426,-0.03174
7.847,0.00626,-0.04013,-0.04837,0.04135,-0.03143,-0.04654,-0.01282,0.00046,-4.39972,0.03479,0.07019,0.00427,-0.03067,-0.01892,0.05386,-0.03525
7.8475,0.00671,-0.03876,-0.04913,0.01984,-0.03189,-0.04623,-0.01389,-0.00046,-4.36539,0.03555,0.06927,0.00153,-0.0322,-0.01816,0.06454,-0.03616
7.848,0.00565,-0.03632,-0.04837,0.00778,-0.0325,-0.04669,-0.01404,-0.00381,-4.32983,0.0325,0.05112,-0.00031,-0.03143,-0.01907,0.05783,-0.03876
7.8485,0.00412,-0.03296,-0.04761,-0.01099,-0.03159,-0.04776,-0.01419,-0.00519,-4.30023,0.02441,0.02335,-0.00092,-0.02975,-0.02167,0.04181,-0.0386
7.849,0.00275,-0.03128,-0.04562,-0.04211,-0.03021,-0.0473,-0.01465,-0.00458,-4.27307,0.01495,0.00259,-0.00107,-0.02899,-0.02258,0.01114,-0.03464
7.8495,0.00229,-0.03052,-0.04456,-0.06577,-0.02975,-0.04593,-0.01434,-0.00366,-4.24286,0.00397,-0.00305,-0.00031,-0.02869,-0.02304,-0.02899,-0.0235
7.85,0.00351,-0.03021,-0.04318,-0.05783,-0.02945,-0.04456,-0.01343,-0.00504,-4.21295,-0.00885,-0.00778,0.00153,-0.02838,-0.02274,-0.05341,-0.00381
7.8505,0.00336,-0.03128,-0.04242,-0.00626,-0.02869,-0.0441,-0.01144,-0.00717,-4.18365,-0.01862,-0.03052,0.00381,-0.02716,-0.02243,-0.04898,0.01175
7.851,0.00198,-0.03296,-0.0415,0.07629,-0.02899,-0.04349,-0.01068,-0.00916,-4.15451,-0.01694,-0.0737,0.00504,-0.02563,-0.02258,-0.02655,0.02151
7.8515,0.00137,-0.03464,-0.04105,0.13718,-0.03021,-0.04364,-0.01022,-0.0087,-4.06967,-0.00305,-0.10864,0.00549,-0.02625,-0.02213,-0.00946,0.0296
7.852,0.0029,-0.03403,-0.0412,0.12589,-0.03113,-0.04456,-0.01083,-0.00778,-3.75076,0.01999,-0.10696,0.00443,-0.02747,-0.01801,-0.0087,0.02975
7.8525,0.00397,-0.03265,-0.04074,0.05768,-0.0322,-0.04471,-0.01175,-0.00671,-3.18024,0.04211,-0.07004,0.00198,-0.02975,-0.00809,-0.02548,0.01923
7.853,0.0032,-0.03128,-0.03922,0.00031,-0.03235,-0.04532,-0.01297,-0.00519,-2.86087,0.0502,-0.02457,-0.00015,-0.02869,0.00595,-0.05051,-0.0032
7.8535,0.00198,-0.03174,-0.04044,-0.01266,-0.03159,-0.04562,-0.01389,-0.00412,-3.19244,0.03769,0.00824,0.00015,-0.02884,0.02182,-0.07309,-0.02136
7.854,0.00214,-0.0322,-0.0412,-0.00656,-0.03159,-0.0473,-0.01434,-0.00473,-3.77182,0.0145,0.02914,0.00244,-0.0293,0.03159,-0.08301,-0.03128
7.8545,0.0032,-0.03128,-0.04227,-0.00717,-0.03265,-0.04822,-0.01343,-0.00656,-4.01962,-0.00656,0.04547,0.0029,-0.02945,0.03448,-0.07706,-0.03754
7.855,0.0032,-0.02991,-0.04196,-0.0119,-0.03296,-0.0473,-0.01205,-0.00626,-3.95065,-0.01526,0.05875,0.00229,-0.02792,0.03403,-0.06348,-0.04684
7.8555,0.00168,-0.03036,-0.04044,-0.00778,-0.03159,-0.04608,-0.01129,-0.00488,-3.88535,-0.0148,0.06592,0.00076,-0.02731,0.03113,-0.07172,-0.05829
7.856,0.00046,-0.03174,-0.04013,0.00168,-0.03067,-0.04623,-0.01144,-0.00427,-3.90472,-0.01678,0.06332,0.00076,-0.02747,0.02518,-0.1091,-0.06989
7.8565,-0.00015,-0.03387,-0.03983,0.00717,-0.03021,-0.04532,-0.01251,-0.00534,-3.90091,-0.02426,0.05066,0.00031,-0.02853,0.01236,-0.14725,-0.07919
7.857,-0.00015,-0.03571,-0.03845,0.0061,-0.02991,-0.04562,-0.01297,-0.00732,-3.84857,-0.03448,0.03281,0.00015,-0.02838,-0.00687,-0.14969,-0.08606
7.8575,-0.00046,-0.03571,-0.03708,0.00076,-0.02899,-0.04654,-0.01373,-0.00778,-3.80798,-0.04105,0.01724,0.00076,-0.02762,-0.03128,-0.10086,-0.07309
7.858,-0.00046,-0.03479,-0.03632,-0.00671,-0.02884,-0.0473,-0.01511,-0.00763,-3.75671,-0.04379,0.00687,-0.00137,-0.02747,-0.06149,0.00961,-0.04654
7.8585,-0.00015,-0.03403,-0.03632,-0.01297,-0.03082,-0.04822,-0.01572,-0.00854,-3.47244,-0.04486,0.00031,-0.00473,-0.02869,-0.09018,0.15289,-0.02304
7.859,-0.00015,-0.03235,-0.03723,-0.0148,-0.0322,-0.04761,-0.01495,-0.00839,-2.71774,-0.04608,-0.00076,-0.00534,-0.03113,-0.11658,0.23911,-0.0206
7.8595,-0.00046,-0.0325,-0.0383,-0.01297,-0.03342,-0.04593,-0.01343,-0.00717,-1.54739,-0.04898,0.00549,-0.00244,-0.0322,-0.13016,0.18616,-0.03403
7.86,-0.00092,-0.03189,-0.04089,-0.01053,-0.03372,-0.04471,-0.01251,-0.0061,-0.23315,-0.04974,0.0119,0.00092,-0.03082,-0.12421,0.02274,-0.05005
7.8605,-0.00183,-0.03311,-0.04272,-0.00961,-0.0322,-0.04547,-0.01129,-0.0061,1.04004,-0.04745,0.00565,0.00061,-0.02838,-0.09827,-0.13519,-0.06271
7.861,-0.00275,-0.03387,-0.04471,-0.00992,-0.03052,-0.047,-0.01038,-0.00702,2.23862,-0.04303,-0.0119,-0.00259,-0.02686,-0.06866,-0.20386,-0.07538
7.8615,-0.00397,-0.03342,-0.04517,-0.01007,-0.03006,-0.04715,-0.01038,-0.00671,3.34869,-0.0383,-0.02914,-0.00412,-0.02655,-0.05112,-0.1828,-0.08179
7.862,-0.0058,-0.03403,-0.04532,-0.01175,-0.03052,-0.04669,-0.01099,-0.00519,4.30664,-0.03494,-0.04089,-0.00092,-0.02686,-0.04456,-0.11688,-0.08209
7.8625,-0.00885,-0.0351,-0.04486,-0.01404,-0.03265,-0.04654,-0.01205,-0.00488,4.92538,-0.03235,-0.0473,0.00336,-0.02899,-0.03754,-0.0705,-0.07797
7.863,-0.01129,-0.03708,-0.04379,-0.01694,-0.03311,-0.04761,-0.01282,-0.00549,4.99985,-0.02747,-0.04959,0.00427,-0.03036,-0.0238,-0.06805,-0.08331
7.8635,-0.01099,-0.03937,-0.04089,-0.01877,-0.03372,-0.04868,-0.01251,-0.00687,4.98657,-0.02029,-0.04471,0.00244,-0.03021,-0.0061,-0.05219,-0.09201
7.864,-0.00687,-0.03983,-0.03906,-0.01923,-0.03418,-0.04898,-0.01144,-0.00641,4.91684,-0.01373,-0.03067,0.0,-0.02701,0.00763,0.04074,-0.09796
7.8645,-0.00076,-0.04181,-0.03876,-0.01938,-0.03311,-0.04684,-0.00946,-0.00412,4.9585,-0.01419,-0.01282,-0.00168,-0.02533,0.01617,0.16205,-0.10056
7.865,0.00198,-0.04257,-0.03906,-0.01938,-0.03174,-0.04547,-0.00977,-0.00214,4.99557,-0.01831,0.00015,-0.00275,-0.02335,0.01907,0.2095,-0.10178
7.8655,0.00122,-0.04349,-0.03952,-0.01923,-0.02991,-0.04684,-0.01053,-0.00275,4.97787,-0.02258,0.00046,-0.00336,-0.0238,0.01785,0.16449,-0.09872
7.866,-0.00031,-0.04257,-0.03983,-0.01892,-0.02853,-0.04761,-0.01099,-0.00397,4.95712,-0.02426,-0.01083,-0.00412,-0.02502,0.01144,0.08835,-0.09079
7.8665,-0.00031,-0.04272,-0.04044,-0.01892,-0.02884,-0.04868,-0.01129,-0.00519,4.96567,-0.02319,-0.02335,-0.00458,-0.02731,0.00183,0.03403,-0.07919
7.867,0.00046,-0.04425,-0.04059,-0.01968,-0.03082,-0.04791,-0.01175,-0.00427,4.97742,-0.02335,-0.02777,-0.00549,-0.02792,-0.00732,0.01663,-0.07141
7.8675,0.00092,-0.04791,-0.04333,-0.01984,-0.0322,-0.04684,-0.01343,-0.00397,4.97299,-0.02548,-0.02808,-0.00549,-0.02899,-0.0148,0.0206,-0.06622
7.868,0.00168,-0.0499,-0.047,-0.02014,-0.03296,-0.04761,-0.01358,-0.00381,4.96658,-0.02792,-0.02991,-0.00366,-0.03052,-0.0238,-0.0029,-0.0621
7.8685,0.00336,-0.04913,-0.04974,-0.02014,-0.03403,-0.04807,-0.01343,-0.00443,4.96857,-0.03204,-0.03571,-0.00031,-0.03494,-0.03708,-0.07813,-0.05768
7.869,0.00473,-0.04745,-0.04791,-0.01938,-0.03418,-0.04852,-0.01328,-0.00519,4.97162,-0.03479,-0.04196,0.00305,-0.04059,-0.05524,-0.14847,-0.05157
7.8695,0.00412,-0.04456,-0.04349,-0.01846,-0.03448,-0.04913,-0.01343,-0.00534,4.97147,-0.03769,-0.04929,0.00427,-0.04517,-0.07263,-0.11749,-0.0415
7.87,0.00092,-0.04333,-0.03784,-0.01816,-0.03372,-0.04807,-0.01221,-0.00397,4.96964,-0.04166,-0.05844,0.00351,-0.04593,-0.08423,0.01999,-0.02777
7.8705,0.00031,-0.04349,-0.0351,-0.01846,-0.03296,-0.04791,-0.01068,-0.0029,4.97055,-0.05035,-0.06866,0.00153,-0.04562,-0.08911,0.14328,-0.01709
7.871,0.00168,-0.04395,-0.03387,-0.01831,-0.03326,-0.04868,-0.01068,-0.00259,4.97162,-0.06332,-0.0824,0.00015,-0.0444,-0.08591,0.1503,-0.01221
7.8715,0.00412,-0.0444,-0.03113,-0.01862,-0.03387,-0.04929,-0.01175,-0.00183,4.97177,-0.07797,-0.10559,0.00183,-0.04532,-0.07645,0.0827,-0.01282
7.872,0.00534,-0.04456,-0.0293,-0.01923,-0.03403,-0.04944,-0.01221,-0.0032,4.97086,-0.09186,-0.13611,0.00565,-0.04562,-0.0647,0.07263,-0.01221
7.8725,0.00305,-0.04288,-0.02762,-0.01938,-0.03448,-0.04929,-0.01205,-0.00397,4.9704,-0.10193,-0.16327,0.00931,-0.04486,-0.05768,0.14984,-0.00809
7.873,0.00061,-0.04166,-0.02686,-0.01953,-0.03448,-0.04807,-0.01236,-0.00443,4.97086,-0.10895,-0.17471,0.00961,-0.04196,-0.05295,0.20477,-0.00473
7.8735,-0.00092,-0.04196,-0.02716,-0.01938,-0.03464,-0.04791,-0.01358,-0.00458,4.9704,-0.1062,-0.16434,0.00732,-0.03937,-0.04852,0.16357,-0.0058
7.874,0.00031,-0.04364,-0.02899,-0.02029,-0.03525,-0.04913,-0.01419,-0.00427,4.9707,-0.09262,-0.13901,0.00412,-0.03418,-0.03769,0.09918,-0.01022
7.8745,0.00259,-0.0441,-0.03036,-0.0206,-0.03494,-0.04883,-0.01404,-0.00458,4.97025,-0.07477,-0.11093,0.00244,-0.02579,-0.02167,0.10117,-0.01236
7.875,0.0029,-0.04456,-0.03204,-0.02136,-0.03479,-0.04959,-0.0145,-0.00412,4.9707,-0.06104,-0.09003,0.00275,-0.01587,-0.0029,0.15259,-0.01205
7.8755,0.00092,-0.04501,-0.03159,-0.02182,-0.03479,-0.05005,-0.0145,-0.00412,4.97055,-0.05417,-0.0766,0.00275,-0.00763,0.01648,0.18173,-0.01099
7.876,-0.00015,-0.047,-0.03204,-0.02075,-0.03479,-0.05081,-0.01434,-0.00488,4.96994,-0.04623,-0.06866,0.00153,-0.00259,0.03464,0.16373,-0.01083
7.8765,-0.00076,-0.04761,-0.03296,-0.02045,-0.03342,-0.05142,-0.01328,-0.00534,4.96628,-0.02853,-0.06088,-0.00061,-0.00137,0.04257,0.12848,-0.01175
7.877,-0.00107,-0.04639,-0.03342,-0.02014,-0.03189,-0.04959,-0.01373,-0.00534,4.95239,0.00305,-0.05234,-0.00351,-0.00397,0.04227,0.09964,-0.01419
7.8775,-0.00259,-0.04608,-0.03342,-0.01984,-0.03128,-0.04761,-0.01419,-0.00595,4.9202,0.04822,-0.04517,-0.00488,-0.00854,0.0354,0.06882,-0.01373
7.878,-0.00366,-0.04608,-0.03235,-0.01968,-0.03265,-0.04776,-0.0148,-0.00671,4.879,0.09094,-0.04242,-0.00748,-0.01404,0.02838,0.02502,-0.01511
7.8785,-0.00427,-0.04822,-0.03265,-0.01999,-0.03418,-0.04822,-0.0145,-0.00565,4.84146,0.11124,-0.0412,-0.00916,-0.01877,0.02274,-0.01221,-0.01846
7.879,-0.00504,-0.04883,-0.03433,-0.01999,-0.03418,-0.04898,-0.01404,-0.00305,4.80804,0.09766,-0.03906,-0.00717,-0.02167,0.01709,-0.01785,-0.01953
7.8795,-0.00595,-0.04883,-0.03723,-0.01999,-0.03326,-0.04868,-0.01343,-0.00137,4.77402,0.06485,-0.0351,-0.00046,-0.0235,0.01099,-0.00198,-0.01923
7.88,-0.00702,-0.04852,-0.03876,-0.01923,-0.03357,-0.04807,-0.01312,-0.00168,4.73755,0.03845,-0.03281,0.00717,-0.02563,0.00366,0.01053,-0.02304
7.8805,-0.00748,-0.0502,-0.03952,-0.01709,-0.0354,-0.04791,-0.01312,-0.00244,4.69116,0.03006,-0.03342,0.01007,-0.0264,-0.00137,0.00778,-0.02823
7.881,-0.00793,-0.05157,-0.03937,-0.01465,-0.03601,-0.04852,-0.01328,-0.0029,4.59015,0.03128,-0.03876,0.00732,-0.02563,-0.00763,-0.00259,-0.02869
7.8815,-0.00824,-0.05173,-0.03937,-0.01465,-0.03616,-0.04959,-0.01328,-0.00153,4.38538,0.02396,-0.04883,0.00397,-0.02609,-0.01694,-0.01068,-0.02335
7.882,-0.00793,-0.05142,-0.03723,-0.01663,-0.03403,-0.04944,-0.01282,-0.00061,4.11575,0.00504,-0.06393,0.00671,-0.02747,-0.02579,-0.0174,-0.02045
7.8825,-0.00687,-0.05203,-0.03601,-0.01984,-0.03265,-0.05035,-0.01297,-0.00015,3.88428,-0.01678,-0.07782,0.01587,-0.03082,-0.03571,-0.02197,-0.02335
7.883,-0.00641,-0.05234,-0.03525,-0.02243,-0.0322,-0.05112,-0.01343,-0.00107,3.70697,-0.02838,-0.08194,0.02396,-0.03372,-0.0412,-0.02182,-0.02533
7.8835,-0.00702,-0.05234,-0.0351,-0.0235,-0.03235,-0.05005,-0.01389,-0.0029,3.50998,-0.02075,-0.07126,0.01968,-0.03601,-0.04211,-0.01663,-0.02304
7.884,-0.00839,-0.05157,-0.03448,-0.02274,-0.03326,-0.04929,-0.01373,-0.00336,3.26614,-0.00092,-0.05081,0.00565,-0.03723,-0.03738,-0.01434,-0.02136
7.8845,-0.00824,-0.05051,-0.03326,-0.02167,-0.03326,-0.04929,-0.0148,-0.00183,3.02094,0.01648,-0.03464,-0.00412,-0.03769,-0.02762,-0.01968,-0.02426
7.885,-0.00839,-0.05081,-0.03204,-0.02045,-0.0325,-0.04852,-0.01587,0.00061,2.80655,0.01846,-0.02747,-0.00381,-0.03799,-0.01953,-0.02487,-0.02747
7.8855,-0.00854,-0.05081,-0.03082,-0.01892,-0.0325,-0.04837,-0.01633,0.00137,2.61429,0.00183,-0.02762,0.00015,-0.03952,-0.01205,-0.02579,-0.02701
7.886,-0.00824,-0.05142,-0.03159,-0.01358,-0.03204,-0.04822,-0.01587,0.00092,2.42111,-0.02197,-0.03006,0.00031,-0.0412,-0.00671,-0.02609,-0.02396
7.8865,-0.00839,-0.0499,-0.03113,-0.00259,-0.03189,-0.04868,-0.01511,0.00015,2.21176,-0.03296,-0.03326,-0.00137,-0.04257,-0.00198,-0.02823,-0.02365
7.887,-0.00961,-0.04791,-0.03006,0.00946,-0.03128,-0.04898,-0.01465,0.00076,1.98135,-0.01892,-0.03662,-0.00336,-0.04211,0.00183,-0.03296,-0.02686
7.8875,-0.01114,-0.04654,-0.02777,0.01541,-0.03098,-0.04776,-0.01511,0.00122,1.73798,0.01221,-0.04166,-0.00336,-0.04059,0.00198,-0.03708,-0.02975
7.888,-0.01236,-0.04715,-0.0267,0.01068,-0.03128,-0.04669,-0.01602,0.00076,1.49994,0.0412,-0.04593,-0.00305,-0.04166,-0.00214,-0.03998,-0.03296
7.8885,-0.01236,-0.04837,-0.02762,0.00153,-0.03143,-0.04562,-0.01633,0.00015,1.26938,0.05615,-0.04868,-0.00351,-0.04364,-0.00839,-0.03952,-0.03601
7.889,-0.01205,-0.0499,-0.02899,-0.00443,-0.03281,-0.04593,-0.01602,0.00031,1.0347,0.06393,-0.05051,-0.00198,-0.04456,-0.01328,-0.03708,-0.03708
7.8895,-0.01282,-0.04684,-0.0296,-0.00504,-0.03403,-0.04547,-0.01541,-0.00015,0.78674,0.0676,-0.05112,0.00107,-0.0441,-0.01953,-0.03204,-0.03113
7.89,-0.01343,-0.04349,-0.02777,-0.00458,-0.03494,-0.04471,-0.0145,-0.00046,0.53329,0.06927,-0.06058,0.00351,-0.04318,-0.02365,-0.03006,-0.0235
7.8905,-0.01328,-0.04303,-0.02823,-0.00458,-0.03479,-0.04593,-0.01419,-0.00244,0.29449,0.0679,-0.07935,0.00381,-0.04135,-0.02518,-0.0322,-0.01831
7.891,-0.01343,-0.04517,-0.02792,-0.00443,-0.03387,-0.047,-0.01434,-0.0029,0.09216,0.05859,-0.09628,0.00183,-0.03769,-0.0177,-0.03387,-0.02121
7.8915,-0.01419,-0.04639,-0.02823,-0.00351,-0.03311,-0.04807,-0.01465,-0.0032,-0.06439,0.0383,-0.08911,-0.00092,-0.03326,-0.00412,-0.03128,-0.02823
7.892,-0.01419,-0.04669,-0.02792,-0.00397,-0.03479,-0.04791,-0.01587,-0.00183,-0.19104,0.01007,-0.05188,-0.00366,-0.0296,0.00916,-0.02762,-0.04013
7.8925,-0.0145,-0.04639,-0.02823,-0.00488,-0.03494,-0.04684,-0.01648,-0.00061,-0.31677,-0.0174,-0.00473,-0.00504,-0.0296,0.02289,-0.02655,-0.05371
7.893,-0.0148,-0.04639,-0.02777,-0.00534,-0.03464,-0.04608,-0.01602,-0.00031,-0.46997,-0.03799,0.02518,-0.00565,-0.03113,0.03693,-0.02609,-0.06516
7.8935,-0.01556,-0.04608,-0.02686,-0.00549,-0.03403,-0.04669,-0.01526,-0.00183,-0.66177,-0.04395,0.03281,-0.00504,-0.03281,0.05127,-0.02213,-0.07263
7.894,-0.01495,-0.04547,-0.02609,-0.0058,-0.03433,-0.04715,-0.0148,-0.0029,-0.87463,-0.04364,0.02823,-0.00458,-0.03326,0.06149,-0.01694,-0.07416
7.8945,-0.01358,-0.04471,-0.02441,-0.00763,-0.03387,-0.04807,-0.01511,-0.00214,-1.06293,-0.04547,0.01907,-0.00473,-0.03372,0.065,-0.01266,-0.07156
7.895,-0.01251,-0.04517,-0.02396,-0.0087,-0.03326,-0.04684,-0.01511,-0.00046,-1.20956,-0.05127,0.00839,-0.00534,-0.03586,0.05997,-0.01175,-0.06638
7.8955,-0.01312,-0.04684,-0.02441,-0.00839,-0.03326,-0.04562,-0.01587,0.00061,-1.33255,-0.06027,-0.00214,-0.00626,-0.03922,0.04837,-0.01236,-0.06424
7.896,-0.0148,-0.04868,-0.02502,-0.00778,-0.03342,-0.04578,-0.01495,0.00275,-1.4447,-0.06668,-0.01083,-0.00534,-0.0441,0.02869,-0.01282,-0.06241
7.8965,-0.01572,-0.04913,-0.02609,-0.00793,-0.03433,-0.04761,-0.01434,0.00473,-1.54068,-0.06927,-0.01984,-0.00305,-0.04959,0.0,-0.00992,-0.0589
7.897,-0.01343,-0.04776,-0.02686,-0.00854,-0.03387,-0.04868,-0.01434,0.00671,-1.62247,-0.06653,-0.03387,-0.00137,-0.05356,-0.03281,-0.00732,-0.05112
7.8975,-0.01205,-0.04654,-0.02686,-0.00793,-0.03204,-0.04837,-0.01511,0.00687,-1.6925,-0.06134,-0.0502,-0.00168,-0.05386,-0.06592,-0.01007,-0.0441
7.898,-0.01236,-0.04623,-0.02716,-0.00732,-0.03143,-0.04776,-0.01526,0.0058,-1.75797,-0.05722,-0.06149,-0.00244,-0.04837,-0.09628,-0.02518,-0.04044
7.8985,-0.01373,-0.04684,-0.02777,-0.00687,-0.0325,-0.04898,-0.01602,0.00381,-1.81686,-0.05722,-0.05737,-0.0029,-0.04181,-0.1239,-0.05112,-0.03952
7.899,-0.01495,-0.04822,-0.02899,-0.00778,-0.03357,-0.05081,-0.0145,0.00214,-1.86127,-0.05798,-0.0386,-0.00351,-0.03815,-0.1413,-0.0766,-0.0444
7.8995,-0.01419,-0.04776,-0.02945,-0.00854,-0.03296,-0.0499,-0.01404,0.0,-1.88217,-0.05295,-0.01068,-0.00488,-0.03632,-0.13657,-0.08591,-0.05035
7.9,-0.01312,-0.04639,-0.0293,-0.00824,-0.03143,-0.04791,-0.01373,-0.00183,-1.89529,-0.03464,0.02029,-0.00427,-0.03464,-0.11276,-0.07751,-0.05753
7.9005,-0.01129,-0.04501,-0.0293,-0.00717,-0.03143,-0.04654,-0.01495,-0.00366,-1.91666,-0.00626,0.05127,-0.0032,-0.03067,-0.08148,-0.0499,-0.06271
7.901,-0.01068,-0.0444,-0.02808,-0.00671,-0.03159,-0.04608,-0.01587,-0.00519,-1.93771,0.01831,0.06866,-0.00244,-0.0267,-0.056,-0.00259,-0.06577
7.9015,-0.009,-0.04333,-0.0264,-0.00641,-0.03067,-0.04547,-0.01526,-0.00687,-1.94244,0.02777,0.06088,-0.00198,-0.0235,-0.03845,0.05096,-0.06561
7.902,-0.00732,-0.04242,-0.02686,-0.00671,-0.02899,-0.04547,-0.01465,-0.00687,-1.92978,0.02029,0.03586,-0.00061,-0.0235,-0.0235,0.07065,-0.06393
7.9025,-0.0058,-0.04227,-0.0296,-0.00641,-0.02899,-0.04623,-0.01511,-0.00626,-1.9136,0.00809,0.01205,-0.00031,-0.02716,-0.01358,0.03189,-0.06271
7.903,-0.00626,-0.04364,-0.03098,-0.00656,-0.03098,-0.04745,-0.01587,-0.0029,-1.89835,-0.00046,-0.00092,-0.00031,-0.03174,-0.01312,-0.02808,-0.0621
7.9035,-0.00824,-0.04562,-0.03067,-0.00687,-0.03311,-0.04868,-0.01617,0.00046,-1.8808,-0.00504,-0.00931,-0.00092,-0.03738,-0.02075,-0.05905,-0.06012
7.904,-0.00916,-0.04639,-0.02945,-0.00748,-0.03357,-0.04883,-0.01572,0.00092,-1.85883,-0.00992,-0.01663,-0.00122,-0.04089,-0.02563,-0.05203,-0.05661
7.9045,-0.00854,-0.04593,-0.02777,-0.00916,-0.03281,-0.04791,-0.01404,-0.00122,-1.83395,-0.01709,-0.02243,-0.00168,-0.04349,-0.02228,-0.02701,-0.05508
7.905,-0.0087,-0.04517,-0.0267,-0.00961,-0.03174,-0.04822,-0.01236,-0.00244,-1.81046,-0.02411,-0.02274,-0.00046,-0.04532,-0.01312,0.00656,-0.05493
7.9055,-0.0087,-0.04517,-0.02655,-0.01007,-0.03189,-0.04913,-0.01236,-0.0029,-1.78925,-0.03113,-0.01831,0.00168,-0.04608,-0.00412,0.05325,-0.05188
7.906,-0.00732,-0.04547,-0.02792,-0.00992,-0.03281,-0.04944,-0.01343,-0.00214,-1.77185,-0.03723,-0.01236,0.00183,-0.04791,0.00214,0.0946,-0.04669
7.9065,-0.00473,-0.04562,-0.02914,-0.00961,-0.03265,-0.04929,-0.0148,-0.00061,-1.76025,-0.04181,-0.00748,0.00259,-0.05035,0.00916,0.09949,-0.04166
7.907,-0.00412,-0.047,-0.02945,-0.01083,-0.02884,-0.047,-0.01404,0.00214,-1.75598,-0.0441,-0.00443,0.00473,-0.0528,0.02075,0.06775,-0.04013
7.9075,-0.00443,-0.0473,-0.02914,-0.01129,-0.02304,-0.04578,-0.01297,0.00153,-1.75934,-0.04547,-0.0032,0.01358,-0.05417,0.0325,0.03174,-0.04074
7.908,-0.00473,-0.047,-0.02808,-0.01083,-0.01877,-0.047,-0.01221,-0.00458,-1.76865,-0.04791,-0.00458,0.02625,-0.05539,0.04166,0.01495,-0.04333
7.9085,-0.00549,-0.04593,-0.02853,-0.01022,-0.0177,-0.04837,-0.01236,-0.01511,-1.79337,-0.05173,-0.01022,0.03601,-0.05707,0.04517,0.00671,-0.04395
7.909,-0.00687,-0.0444,-0.03006,-0.00961,-0.02029,-0.04929,-0.01419,-0.02625,-1.82159,-0.05295,-0.01663,0.03601,-0.05844,0.04501,-0.00717,-0.04471
7.9095,-0.00687,-0.04318,-0.03036,-0.009,-0.0238,-0.04837,-0.01556,-0.03494,-1.81824,-0.05157,-0.01892,0.02579,-0.05768,0.03845,-0.01389,-0.04166
7.91,-0.0061,-0.04257,-0.03067,-0.00931,-0.02579,-0.04761,-0.01587,-0.03098,-1.7688,-0.047,-0.01236,0.01358,-0.05356,0.02853,0.00259,-0.03891
7.9105,-0.00504,-0.04257,-0.02991,-0.00961,-0.02838,-0.04837,-0.0145,-0.00092,-1.70273,-0.04349,-0.00122,0.00458,-0.04822,0.01434,0.02686,-0.03876
7.911,-0.00397,-0.04242,-0.02991,-0.00977,-0.03387,-0.04898,-0.01297,0.04135,-1.64764,-0.03998,0.00717,-0.00305,-0.04318,-0.00397,0.03326,-0.0412
7.9115,-0.00412,-0.04196,-0.02991,-0.00854,-0.04288,-0.04807,-0.01251,0.05753,-1.60126,-0.03769,0.01541,-0.01068,-0.04105,-0.03113,0.02533,-0.0415
7.912,-0.00458,-0.0415,-0.02991,-0.00793,-0.05417,-0.04791,-0.01343,0.03021,-1.55991,-0.03601,0.02762,-0.01831,-0.03876,-0.06409,0.02716,-0.03937
7.9125,-0.00519,-0.04257,-0.03006,-0.00732,-0.06058,-0.04715,-0.01404,-0.009,-1.52588,-0.03555,0.04745,-0.02365,-0.03479,-0.08743,0.05081,-0.03647
7.913,-0.00458,-0.04364,-0.03067,-0.00702,-0.05844,-0.04761,-0.01236,-0.02365,-1.49857,-0.03448,0.06241,-0.02914,-0.03021,-0.09476,0.08118,-0.03723
7.9135,-0.00351,-0.0441,-0.03159,-0.00778,-0.04944,-0.04669,-0.01022,-0.01358,-1.47812,-0.03357,0.05676,-0.0351,-0.02762,-0.09186,0.09003,-0.04028
7.914,-0.0029,-0.04166,-0.0322,-0.009,-0.03891,-0.04547,-0.00916,0.00015,-1.47293,-0.03296,0.02945,-0.03082,-0.02716,-0.08881,0.06989,-0.04242
7.9145,-0.00122,-0.03952,-0.0322,-0.00961,-0.03067,-0.04501,-0.01007,0.00824,-1.48499,-0.0322,-0.00107,-0.0116,-0.02655,-0.08759,0.0325,-0.04211
7.915,-0.00046,-0.03967,-0.03113,-0.00931,-0.02899,-0.04623,-0.01114,0.0116,-1.48941,-0.03098,-0.01358,0.01205,-0.02487,-0.07462,-0.00534,-0.04059
7.9155,-0.00046,-0.03952,-0.03067,-0.009,-0.02838,-0.04745,-0.01175,0.0116,-1.4621,-0.03098,-0.00565,0.03098,-0.0238,-0.04776,-0.03586,-0.03998
7.916,-0.00107,-0.03906,-0.03098,-0.01068,-0.02808,-0.0473,-0.01312,0.00809,-1.43677,-0.03296,0.009,0.04288,-0.02609,-0.0238,-0.05341,-0.0415
7.9165,-0.00061,-0.03769,-0.03128,-0.0116,-0.02716,-0.04623,-0.01404,0.00259,-1.50681,-0.03555,0.01999,0.04181,-0.02823,-0.0177,-0.05447,-0.04227
7.917,-0.00122,-0.03571,-0.03159,-0.01038,-0.02838,-0.04623,-0.01465,-0.00336,-1.75095,-0.03769,0.02747,0.01862,-0.02975,-0.03052,-0.04028,-0.04303
7.9175,-0.0029,-0.03464,-0.03281,-0.00931,-0.02975,-0.04578,-0.01495,-0.01266,-2.13959,-0.03937,0.03342,-0.02365,-0.03052,-0.04471,-0.01465,-0.04181
7.918,-0.00412,-0.03616,-0.03311,-0.00992,-0.03052,-0.04593,-0.01495,-0.02594,-2.5235,-0.0412,0.03296,-0.05951,-0.03113,-0.04578,-0.00076,-0.03922
7.9185,-0.00488,-0.03845,-0.03265,-0.01129,-0.0322,-0.04547,-0.01602,-0.03387,-2.77298,-0.04227,0.0209,-0.07019,-0.03098,-0.03082,-0.02563,-0.03586
7.919,-0.00488,-0.03952,-0.03189,-0.01236,-0.03693,-0.04532,-0.01572,-0.0264,-2.95532,-0.0415,-0.00046,-0.06348,-0.02914,-0.01083,-0.07813,-0.03067
7.9195,-0.0029,-0.03937,-0.03128,-0.01144,-0.04013,-0.04395,-0.01495,-0.00305,-3.29681,-0.03983,-0.02289,-0.05905,-0.02716,0.00565,-0.10788,-0.02426
7.92,-0.00153,-0.03952,-0.03265,-0.01083,-0.03845,-0.04288,-0.01328,0.02167,-3.90945,-0.03815,-0.0351,-0.0531,-0.02441,0.01465,-0.09445,-0.02045
7.9205,-0.00153,-0.03906,-0.03342,-0.00885,-0.03235,-0.04333,-0.01221,0.03067,-4.58099,-0.03799,-0.03494,-0.03387,-0.02121,0.01572,-0.06943,-0.02029
7.921,-0.00183,-0.0386,-0.03281,-0.00931,-0.02762,-0.04547,-0.01266,0.02136,-4.92706,-0.04196,-0.03006,-0.00702,-0.01755,0.0116,-0.03891,-0.02228
7.9215,-0.00076,-0.03876,-0.03143,-0.01007,-0.02701,-0.04761,-0.01343,0.00565,-4.88373,-0.04959,-0.02853,0.01099,-0.01541,0.00153,0.03342,-0.02396
7.922,0.00031,-0.04013,-0.03067,-0.01099,-0.02823,-0.04822,-0.01419,-0.0029,-4.73114,-0.05875,-0.02762,0.02228,-0.0148,-0.01053,0.1207,-0.02777
7.9225,-0.00015,-0.04059,-0.02991,-0.01068,-0.02899,-0.0473,-0.01419,-0.00153,-4.69452,-0.06104,-0.0209,0.0325,-0.01556,-0.01984,0.11566,-0.03708
7.923,-0.00305,-0.04059,-0.02975,-0.01007,-0.02914,-0.047,-0.01282,0.00793,-4.71756,-0.05096,-0.00671,0.0325,-0.01572,-0.02151,0.01144,-0.04883
7.9235,-0.00504,-0.03937,-0.03052,-0.01007,-0.02914,-0.04715,-0.01129,0.02182,-4.66644,-0.03357,0.00977,0.01709,-0.01633,-0.01709,-0.03891,-0.05646
7.924,-0.00504,-0.03937,-0.03189,-0.01053,-0.03006,-0.04761,-0.01099,0.0325,-4.44901,-0.01587,0.02213,-0.00366,-0.01755,-0.00931,0.05798,-0.05737
7.9245,-0.00412,-0.04089,-0.03235,-0.01053,-0.02914,-0.04669,-0.01144,0.02884,-3.95554,-0.00534,0.02533,-0.01068,-0.01907,-0.00427,0.17395,-0.0528
7.925,-0.00381,-0.04044,-0.03174,-0.01221,-0.02792,-0.04669,-0.01205,0.00793,-3.19672,-0.00366,0.01053,0.00504,-0.02121,-0.00046,0.15808,-0.05035
7.9255,-0.00366,-0.03952,-0.0325,-0.01221,-0.02808,-0.04776,-0.01236,-0.01755,-2.37854,-0.01312,-0.0351,0.02487,-0.02319,0.00153,0.05341,-0.05081
7.926,-0.00534,-0.03784,-0.0322,-0.01068,-0.02869,-0.04913,-0.01251,-0.0296,-1.6716,-0.03052,-0.10406,0.02182,-0.02457,0.00061,0.00137,-0.05386
7.9265,-0.00687,-0.03891,-0.03387,-0.00885,-0.03113,-0.04913,-0.01389,-0.02808,-1.0672,-0.04654,-0.15289,0.00198,-0.02609,-0.00107,0.0296,-0.05554
7.927,-0.00702,-0.03983,-0.03387,-0.00931,-0.03265,-0.04868,-0.01663,-0.02472,-0.51468,-0.05325,-0.14633,-0.00137,-0.02731,-0.00412,0.05295,-0.05508
7.9275,-0.00641,-0.0383,-0.03555,-0.00946,-0.03204,-0.04868,-0.01785,-0.02472,-0.0296,-0.04517,-0.09506,0.02502,-0.02838,-0.00626,0.02243,-0.05341
7.928,-0.0061,-0.03754,-0.03723,-0.00916,-0.02914,-0.04913,-0.01785,-0.02899,0.38437,-0.0293,-0.03525,0.05554,-0.03006,-0.01129,-0.03067,-0.0528
7.9285,-0.00626,-0.03723,-0.03708,-0.00916,-0.02792,-0.04944,-0.01724,-0.04471,0.75272,-0.01465,0.01083,0.06226,-0.03067,-0.01678,-0.07263,-0.05081
7.929,-0.00473,-0.0383,-0.0351,-0.01099,-0.02579,-0.05005,-0.0177,-0.08606,0.9819,-0.00565,0.04654,0.05035,-0.03174,-0.02213,-0.11536,-0.04868
7.9295,-0.00366,-0.03754,-0.03448,-0.01144,-0.02396,-0.05051,-0.01724,-0.15686,0.90195,0.0,0.07965,0.03937,-0.03342,-0.02396,-0.1857,-0.04715
7.93,-0.00366,-0.03632,-0.03479,-0.0116,-0.02365,-0.05005,-0.01587,-0.23422,0.59662,0.00504,0.10666,0.04105,-0.0354,-0.02426,-0.25681,-0.04623
7.9305,-0.00519,-0.03571,-0.03632,-0.01022,-0.02548,-0.04959,-0.0148,-0.23987,0.41016,0.00977,0.11902,0.04639,-0.03525,-0.02411,-0.24811,-0.04532
7.931,-0.00595,-0.03693,-0.03769,-0.00854,-0.02716,-0.05051,-0.01282,-0.08774,0.42633,0.01022,0.10986,0.04227,-0.03281,-0.02197,-0.09079,-0.04349
7.9315,-0.00488,-0.0383,-0.03845,-0.00763,-0.0267,-0.05142,-0.01068,0.16296,0.25253,0.00687,0.08774,0.02625,-0.02838,-0.0177,0.16556,-0.0386
7.932,-0.00397,-0.03967,-0.03845,-0.00809,-0.02258,-0.05234,-0.01038,0.30243,-0.36545,0.0029,0.07004,0.00961,-0.02396,-0.01114,0.36133,-0.03311
7.9325,-0.00534,-0.04089,-0.0386,-0.01007,-0.01511,-0.05371,-0.01266,0.2182,-1.01852,-0.00122,0.06714,0.00122,-0.01984,0.00061,0.37933,-0.03067
7.933,-0.00854,-0.04105,-0.03647,-0.01236,-0.00656,-0.05371,-0.01526,0.04623,-1.11557,-0.00793,0.07355,-0.00504,-0.01648,0.01648,0.25955,-0.03601
7.9335,-0.01007,-0.03998,-0.0354,-0.01389,0.00153,-0.05325,-0.01511,-0.02731,-0.57236,-0.01724,0.07568,-0.02213,-0.01282,0.03128,0.12909,-0.0502
7.934,-0.00824,-0.03967,-0.03525,-0.01434,0.00519,-0.05264,-0.01389,0.00488,0.29068,-0.02991,0.065,-0.04852,-0.01251,0.04257,0.06042,-0.06271
7.9345,-0.00656,-0.03922,-0.03632,-0.01373,-0.00092,-0.05234,-0.01434,0.03616,1.23138,-0.03906,0.04761,-0.06699,-0.01434,0.04913,0.03586,-0.0647
7.935,-0.00565,-0.03891,-0.03738,-0.01221,-0.01709,-0.0528,-0.01602,0.02655,2.17804,-0.04242,0.03616,-0.06088,-0.01495,0.0531,0.01785,-0.05493
7.9355,-0.00565,-0.0386,-0.03769,-0.01221,-0.03601,-0.05264,-0.01755,0.01358,3.02856,-0.03998,0.03372,-0.03235,-0.01312,0.05615,0.00092,-0.04181
7.936,-0.00504,-0.03876,-0.03693,-0.01282,-0.04669,-0.05264,-0.01694,0.02014,3.66577,-0.03387,0.03204,0.00122,-0.01266,0.05402,-0.00656,-0.0296
7.9365,-0.00488,-0.03906,-0.03662,-0.01266,-0.04761,-0.05112,-0.01602,0.02594,4.08615,-0.0264,0.02213,0.0264,-0.01419,0.04486,-0.00641,-0.0238
7.937,-0.00473,-0.03891,-0.03723,-0.01236,-0.04623,-0.04684,-0.01495,0.0174,4.36859,-0.0145,0.00687,0.03998,-0.01648,0.03311,-0.00092,-0.02289
7.9375,-0.00595,-0.03876,-0.03937,-0.0119,-0.04959,-0.04257,-0.01343,0.00519,4.56894,-0.00229,-0.00641,0.04425,-0.0174,0.0235,0.01038,-0.02686
7.938,-0.00763,-0.03876,-0.04089,-0.01129,-0.06027,-0.03906,-0.01282,0.00214,4.70093,0.00809,-0.01328,0.04089,-0.01938,0.00763,0.02274,-0.02914
7.9385,-0.009,-0.04059,-0.04135,-0.01007,-0.06989,-0.03906,-0.01221,0.00351,4.76944,0.01648,-0.01541,0.03159,-0.02365,-0.02304,0.02792,-0.02563
7.939,-0.00839,-0.04379,-0.04028,-0.01022,-0.0676,-0.04181,-0.01297,0.00198,4.78912,0.02625,-0.0174,0.02167,-0.0267,-0.06622,0.02365,-0.01984
7.9395,-0.00641,-0.04517,-0.03876,-0.01038,-0.05157,-0.04562,-0.01328,-0.00137,4.77066,0.03754,-0.01862,0.01694,-0.02731,-0.10849,0.00977,-0.01938
7.94,-0.00565,-0.04364,-0.03738,-0.01083,-0.02975,-0.04608,-0.01389,-0.00351,4.7197,0.04944,-0.01953,0.01831,-0.02686,-0.13367,-0.00946,-0.02609
7.9405,-0.00656,-0.04318,-0.0354,-0.01099,-0.0148,-0.04486,-0.01358,-0.00366,4.63638,0.05859,-0.02075,0.01846,-0.02838,-0.12711,-0.03113,-0.0354
7.941,-0.00717,-0.04303,-0.03479,-0.00992,-0.01266,-0.04456,-0.01312,-0.00168,4.51904,0.06607,-0.02411,0.00809,-0.03082,-0.09674,-0.04974,-0.04181
7.9415,-0.00763,-0.04517,-0.03571,-0.009,-0.02274,-0.04654,-0.01068,0.00153,4.36462,0.06912,-0.02991,-0.00931,-0.03265,-0.06516,-0.05829,-0.0441
7.942,-0.00656,-0.04547,-0.03769,-0.00946,-0.04074,-0.04898,-0.00793,0.00061,4.17282,0.06546,-0.03906,-0.02701,-0.03265,-0.0502,-0.05936,-0.04425
7.9425,-0.0058,-0.04517,-0.0383,-0.01022,-0.05997,-0.04807,-0.00519,-0.01328,3.95035,0.05417,-0.04852,-0.04822,-0.03143,-0.04578,-0.07278,-0.04349
7.943,-0.0058,-0.04318,-0.03601,-0.01068,-0.06805,-0.0444,-0.0058,-0.03616,3.72589,0.03754,-0.05432,-0.07294,-0.0322,-0.04211,-0.11185,-0.04227
7.9435,-0.00534,-0.04288,-0.03525,-0.00961,-0.06424,-0.04272,-0.01236,-0.04868,3.52707,0.02182,-0.05463,-0.08774,-0.03571,-0.03677,-0.15152,-0.0383
7.944,-0.00443,-0.04333,-0.0351,-0.00916,-0.05371,-0.0444,-0.02548,-0.03021,3.35495,0.009,-0.04974,-0.08072,-0.04028,-0.03326,-0.15762,-0.03067
7.9445,-0.00412,-0.04288,-0.03555,-0.00931,-0.04364,-0.04761,-0.03769,0.01373,3.19275,0.00122,-0.04303,-0.05875,-0.0444,-0.02579,-0.13535,-0.02151
7.945,-0.00381,-0.04196,-0.03571,-0.009,-0.03754,-0.04959,-0.03799,0.03632,3.02734,-0.00336,-0.03586,-0.03189,-0.04578,-0.00931,-0.10544,-0.01144
7.9455,-0.00473,-0.04318,-0.0351,-0.00732,-0.03738,-0.04898,-0.02487,-0.01068,2.84409,-0.00656,-0.0296,-0.0061,-0.04547,0.00916,-0.0473,-0.00565
7.946,-0.00549,-0.04257,-0.03479,-0.0058,-0.0386,-0.05005,-0.01022,-0.10162,2.63123,-0.01099,-0.02304,0.00916,-0.04486,0.01862,0.04715,-0.00336
7.9465,-0.00519,-0.04105,-0.03464,-0.0061,-0.03952,-0.05203,-0.00504,-0.13351,2.39258,-0.01297,-0.01907,0.01114,-0.04395,0.01801,0.13962,-0.00549
7.947,-0.00565,-0.04028,-0.03571,-0.00778,-0.04303,-0.05478,-0.01129,-0.05203,2.15332,-0.01328,-0.01892,0.00336,-0.04181,0.01312,0.19836,-0.01495
7.9475,-0.00534,-0.04166,-0.03723,-0.00946,-0.04715,-0.05554,-0.02121,0.06424,1.92307,-0.01511,-0.02411,-0.01022,-0.03769,0.00763,0.22736,-0.03235
7.948,-0.00549,-0.0441,-0.03754,-0.00977,-0.04517,-0.05264,-0.02823,0.09567,1.6864,-0.01999,-0.0322,-0.01968,-0.03265,-0.00443,0.21271,-0.0528
7.9485,-0.00473,-0.04471,-0.03525,-0.00854,-0.03311,-0.0473,-0.03265,0.04272,1.43646,-0.0235,-0.04135,-0.009,-0.03021,-0.02106,0.14664,-0.06805
7.949,-0.00412,-0.04379,-0.03311,-0.00732,-0.01785,-0.04196,-0.03403,0.00488,1.18835,-0.02411,-0.05112,0.01846,-0.0293,-0.03754,0.06256,-0.07217
7.9495,-0.00366,-0.0412,-0.03326,-0.00702,-0.00778,-0.03891,-0.03311,0.02808,0.9816,-0.02579,-0.06821,0.03494,-0.03067,-0.05035,0.00824,-0.06363
7.95,-0.00351,-0.03998,-0.03403,-0.00885,-0.01007,-0.03799,-0.03601,0.05585,0.9436,-0.0322,-0.0943,0.02625,-0.0322,-0.06424,-0.00534,-0.04517
7.9505,-0.0029,-0.03952,-0.03433,-0.01083,-0.01892,-0.03845,-0.047,0.0383,1.24908,-0.04379,-0.12802,0.01144,-0.03387,-0.0798,-0.00061,-0.01511
7.951,-0.00259,-0.04059,-0.03204,-0.01068,-0.0264,-0.03876,-0.05569,-0.00259,1.7923,-0.05539,-0.16479,0.0087,-0.03494,-0.08438,0.01434,0.02075
7.9515,-0.00244,-0.04181,-0.03113,-0.01038,-0.02869,-0.03891,-0.04684,-0.02472,2.07596,-0.06119,-0.19638,0.01007,-0.03403,-0.07202,0.04181,0.04257
7.952,-0.00305,-0.04089,-0.03174,-0.01144,-0.02914,-0.04044,-0.01724,-0.02335,1.70776,-0.06958,-0.2037,0.00336,-0.03189,-0.05005,0.07401,0.03418
7.9525,-0.00412,-0.03784,-0.03281,-0.01358,-0.03052,-0.0415,0.02197,-0.01907,0.86411,-0.09262,-0.17532,-0.00381,-0.03006,-0.03342,0.08286,-0.00656
7.953,-0.00443,-0.03433,-0.03204,-0.01465,-0.03159,-0.04227,0.05173,-0.02518,-0.0296,-0.12833,-0.1178,0.00458,-0.03082,-0.02151,0.05005,-0.05966
7.9535,-0.00381,-0.03143,-0.03204,-0.01236,-0.02869,-0.04257,0.05859,-0.03738,-0.90485,-0.15778,-0.05051,0.02014,-0.03387,-0.01343,0.00549,-0.09827
7.954,-0.00397,-0.03204,-0.03036,-0.00854,-0.02472,-0.04623,0.04486,-0.04517,-1.88873,-0.15839,0.01495,0.02029,-0.03754,-0.00931,-0.01282,-0.11261
7.9545,-0.00351,-0.03281,-0.02945,-0.00549,-0.02396,-0.0531,0.02136,-0.04089,-2.76657,-0.13535,0.0795,0.00763,-0.03922,-0.00504,-0.01663,-0.11749
7.955,-0.00351,-0.03464,-0.02869,-0.00427,-0.0235,-0.06027,-0.00137,-0.02731,-3.1572,-0.1059,0.14099,0.0,-0.03769,-0.00107,-0.03754,-0.1181
7.9555,-0.00381,-0.03632,-0.0296,-0.00473,-0.0209,-0.0618,-0.01572,-0.01434,-3.1279,-0.0827,0.18768,-0.00793,-0.0351,-0.00488,-0.07019,-0.11475
7.956,-0.00443,-0.03616,-0.03098,-0.00732,-0.01602,-0.05722,-0.01907,-0.009,-3.14362,-0.06073,0.20584,-0.03143,-0.03357,-0.02304,-0.08774,-0.10162
7.9565,-0.0032,-0.03662,-0.03281,-0.009,-0.0116,-0.05051,-0.01465,-0.00183,-3.40256,-0.03723,0.18921,-0.05569,-0.03311,-0.05341,-0.10132,-0.08484
7.957,-0.00092,-0.03632,-0.03403,-0.01038,-0.01099,-0.0473,-0.01022,0.01434,-3.65341,-0.01389,0.14542,-0.05081,-0.03265,-0.08179,-0.13565,-0.0708
7.9575,-0.00046,-0.03616,-0.03281,-0.00977,-0.01282,-0.05081,-0.00885,0.02945,-3.66562,0.00809,0.08987,-0.01785,-0.03006,-0.09216,-0.17868,-0.06577
7.958,-0.00122,-0.0383,-0.03128,-0.009,-0.01297,-0.05386,-0.00443,0.02975,-3.57193,0.02548,0.03494,0.01038,-0.02579,-0.08041,-0.18494,-0.06973
7.9585,-0.00153,-0.04059,-0.03113,-0.00824,-0.01312,-0.05554,0.00534,0.01831,-3.6705,0.03403,-0.01251,0.01801,-0.01999,-0.05356,-0.14099,-0.07919
7.959,-0.00092,-0.04166,-0.0322,-0.00839,-0.01572,-0.05554,0.00275,0.00717,-4.05319,0.03876,-0.04807,0.01907,-0.01419,-0.02823,-0.06958,-0.08682
7.9595,-0.00076,-0.04074,-0.03387,-0.00885,-0.02396,-0.05493,-0.01923,-0.00137,-4.51981,0.04761,-0.06027,0.03082,-0.01205,-0.01129,0.01938,-0.08667
7.96,-0.00122,-0.04135,-0.03418,-0.00839,-0.03754,-0.05264,-0.03677,-0.00854,-4.82971,0.04959,-0.04623,0.04898,-0.01373,0.00015,0.12756,-0.07889
7.9605,-0.00076,-0.04272,-0.03357,-0.00778,-0.04837,-0.05096,-0.02945,-0.01373,-4.95056,0.03403,-0.02319,0.05539,-0.01801,0.01114,0.21332,-0.06439
7.961,0.00061,-0.0441,-0.03342,-0.00656,-0.05325,-0.05051,-0.01297,-0.01587,-4.9678,0.00946,-0.00992,0.03799,-0.02319,0.02121,0.19531,-0.05096
7.9615,0.00198,-0.04547,-0.0354,-0.00641,-0.05157,-0.0502,-0.01282,-0.01862,-4.93942,-0.00656,-0.01068,0.00534,-0.02777,0.02304,0.06638,-0.04562
7.962,0.00153,-0.04654,-0.03738,-0.00839,-0.047,-0.05005,-0.02335,-0.02151,-4.89395,-0.01297,-0.01602,-0.02014,-0.03021,0.01053,-0.07813,-0.04669
7.9625,0.00061,-0.04761,-0.03891,-0.01068,-0.04059,-0.05112,-0.01999,-0.02228,-4.8317,-0.01877,-0.0206,-0.02472,-0.03067,-0.009,-0.13794,-0.0502
7.963,-0.00046,-0.04715,-0.03937,-0.0116,-0.03418,-0.0502,-0.00519,-0.01694,-4.69955,-0.02472,-0.02335,-0.01114,-0.02884,-0.02609,-0.08682,-0.04959
7.9635,0.0,-0.04684,-0.03937,-0.01083,-0.0322,-0.04822,0.00015,-0.00946,-4.49005,-0.02426,-0.02426,0.00671,-0.0264,-0.03235,0.04272,-0.0444
7.964,-0.00046,-0.04578,-0.03662,-0.009,-0.03204,-0.04623,-0.00824,-0.00519,-4.33182,-0.01297,-0.02151,0.01541,-0.02487,-0.03204,0.15793,-0.03601
7.9645,-0.00122,-0.04578,-0.03433,-0.00824,-0.03098,-0.04501,-0.01633,-0.00473,-4.36493,0.00381,-0.01633,0.01404,-0.02411,-0.02731,0.16586,-0.03326
7.965,-0.00198,-0.04593,-0.03357,-0.00793,-0.02991,-0.04562,-0.01465,-0.00549,-4.52545,0.02594,-0.01266,0.00824,-0.02335,-0.01999,0.08057,-0.03647
7.9655,-0.00229,-0.04639,-0.03418,-0.00763,-0.03128,-0.04654,-0.00916,-0.00717,-4.60648,0.04913,-0.01068,0.00977,-0.0209,-0.00916,0.0116,-0.04028
7.966,-0.00229,-0.04883,-0.03632,-0.00854,-0.03403,-0.047,-0.00961,-0.01129,-4.49127,0.07233,-0.01129,0.01663,-0.01938,0.00702,0.01892,-0.03952
7.9665,-0.00229,-0.05203,-0.03845,-0.00977,-0.03601,-0.04593,-0.01419,-0.01633,-4.25079,0.08591,-0.01602,0.0148,-0.02014,0.02457,0.0589,-0.03601
7.967,-0.00336,-0.05417,-0.03754,-0.01007,-0.03433,-0.04456,-0.01923,-0.01907,-4.04343,0.08194,-0.02548,-0.00183,-0.02319,0.03525,0.06058,-0.03555
7.9675,-0.00427,-0.05356,-0.03616,-0.01053,-0.03235,-0.04227,-0.02136,-0.01862,-3.94501,0.06058,-0.03693,-0.01099,-0.02579,0.03738,0.02716,-0.03922
7.968,-0.00412,-0.05112,-0.0351,-0.01068,-0.03296,-0.04135,-0.02319,-0.02121,-3.90869,0.03098,-0.04562,0.0119,-0.02853,0.03616,0.00107,-0.04257
7.9685,-0.00336,-0.04791,-0.03448,-0.00992,-0.03464,-0.04227,-0.02914,-0.03143,-3.83301,0.00549,-0.0473,0.05295,-0.03143,0.04654,0.00916,-0.04227
7.969,-0.00229,-0.04578,-0.03296,-0.009,-0.03464,-0.04333,-0.03708,-0.05325,-3.60336,-0.01221,-0.04227,0.07156,-0.03357,0.0708,0.03113,-0.04089
7.9695,-0.00229,-0.04379,-0.03128,-0.00916,-0.03403,-0.04303,-0.04105,-0.08301,-3.15582,-0.02594,-0.03372,0.04852,-0.03464,0.09796,0.04517,-0.03784
7.97,-0.00168,-0.0412,-0.03082,-0.01022,-0.03204,-0.04379,-0.03845,-0.11063,-2.5325,-0.03723,-0.02426,0.01205,-0.03525,0.11078,0.04501,-0.03098
7.9705,-0.00244,-0.0386,-0.03159,-0.00977,-0.03296,-0.04471,-0.0325,-0.11581,-1.83594,-0.04532,-0.02014,0.00137,-0.03967,0.10544,0.03967,-0.02029
7.971,-0.00229,-0.03571,-0.0325,-0.00687,-0.03311,-0.04486,-0.02518,-0.07889,-1.14609,-0.04745,-0.01938,0.0148,-0.04562,0.08865,0.03632,-0.00946
7.9715,-0.0029,-0.03464,-0.0322,-0.00549,-0.03098,-0.0444,-0.01617,0.00519,-0.5162,-0.04379,-0.02548,0.01495,-0.05051,0.06699,0.03586,-0.0029
7.972,-0.00351,-0.03418,-0.03143,-0.01053,-0.02975,-0.0473,0.00168,0.1033,0.00214,-0.04089,-0.03632,-0.01953,-0.0531,0.04547,0.0383,0.0
7.9725,-0.00443,-0.03204,-0.03098,-0.02106,-0.03128,-0.0528,0.0238,0.1503,0.39352,-0.04272,-0.04868,-0.06943,-0.05341,0.03082,0.03769,0.00198
