time,RectFemL,VastusMedL,VastusLatL,TibAntL,HamMedL,HamLatL,GastroMedL,GastroLatL,RectFemR,VastusMedR,VastusLatR,TibAntR,HamMedR,HamLatR,GastroMedR,GastroLatR
5.65,0.04547,-0.07004,-0.06195,0.03708,-0.02609,-0.05081,-0.11261,0.15503,-0.01846,-0.02121,-0.00854,0.21576,-0.03967,-0.01953,0.01007,-0.03311
5.6505,0.04623,-0.0705,-0.06226,0.03937,-0.0209,-0.05646,-0.07416,0.17166,-0.00961,-0.0264,-0.02258,0.11505,-0.03876,-0.02686,0.00763,-0.03769
5.651,0.04135,-0.06836,-0.06699,0.04791,-0.01694,-0.0441,-0.00656,0.13,-0.00427,-0.03052,-0.02579,-0.02808,-0.03601,-0.03387,0.00534,-0.04395
5.6515,0.0325,-0.0647,-0.07797,0.06134,-0.01419,-0.03723,0.04333,0.05981,-0.00107,-0.02594,-0.02487,-0.11337,-0.03479,-0.04288,0.00549,-0.04776
5.652,0.02243,-0.05981,-0.09155,0.07507,-0.01343,-0.0386,0.03998,0.00168,-0.00092,-0.00656,-0.02411,-0.09979,-0.03525,-0.05463,0.00549,-0.04684
5.6525,0.01205,-0.05707,-0.10254,0.08194,-0.01297,-0.04044,-0.00366,-0.0267,-0.00351,0.01892,-0.0264,-0.03433,-0.03464,-0.06592,0.00473,-0.04547
5.653,0.00183,-0.05951,-0.10651,0.0824,-0.01373,-0.04456,-0.03021,-0.04456,-0.00824,0.04059,-0.0296,-0.00061,-0.03265,-0.07858,0.00275,-0.047
5.6535,-0.01038,-0.06973,-0.10025,0.08209,-0.01495,-0.05707,-0.00824,-0.08942,-0.01099,0.05173,-0.03036,-0.03754,-0.03082,-0.08667,0.00153,-0.05005
5.654,-0.02167,-0.08591,-0.08301,0.08331,-0.01907,-0.07538,0.0264,-0.15839,-0.01099,0.04974,-0.02777,-0.09796,-0.0322,-0.08179,0.00107,-0.05127
5.6545,-0.02716,-0.10178,-0.05493,0.08438,-0.02533,-0.08713,0.02106,-0.19669,-0.00717,0.04257,-0.02197,-0.1062,-0.03662,-0.05753,0.00336,-0.05035
5.655,-0.02869,-0.10849,-0.02182,0.08347,-0.03403,-0.08453,-0.01907,-0.15945,-0.00031,0.0322,-0.01511,-0.05569,-0.04303,-0.02701,0.0061,-0.04974
5.6555,-0.02792,-0.10193,-0.00153,0.08255,-0.04013,-0.07339,-0.04944,-0.08194,0.00595,0.02289,-0.01144,-0.0058,-0.04868,-0.01556,0.00916,-0.047
5.656,-0.02899,-0.08606,-0.02045,0.08331,-0.05051,-0.06668,-0.05432,-0.03311,0.00534,0.0209,-0.0119,0.01083,-0.04913,-0.03387,0.01007,-0.04242
5.6565,-0.0293,-0.0679,-0.07324,0.08545,-0.05783,-0.06271,-0.06561,-0.02518,-0.00076,0.01648,-0.01251,0.02838,-0.04425,-0.06042,0.00946,-0.03632
5.657,-0.02258,-0.05249,-0.12039,0.08881,-0.05676,-0.047,-0.09216,-0.01587,-0.00885,0.01511,-0.00961,0.07965,-0.03754,-0.05875,0.0087,-0.03159
5.6575,-0.00946,-0.0412,-0.13245,0.09171,-0.05264,-0.01465,-0.09232,0.00626,-0.01419,0.00977,-0.00336,0.13321,-0.03555,-0.02365,0.00961,-0.03143
5.658,0.00137,-0.03403,-0.11932,0.09171,-0.04074,0.01617,-0.03387,0.02625,-0.01801,0.00732,0.00381,0.15442,-0.03708,0.00031,0.00961,-0.03494
5.6585,0.00183,-0.03098,-0.10254,0.08591,-0.02869,0.02426,0.05615,0.05081,-0.02258,0.00275,0.00473,0.15717,-0.03784,-0.03769,0.00854,-0.03845
5.659,-0.00504,-0.02716,-0.08911,0.07797,-0.02014,0.02136,0.112,0.08591,-0.03006,0.00015,-0.00641,0.16098,-0.03647,-0.11337,0.00763,-0.03708
5.6595,-0.01053,-0.01907,-0.0824,0.07339,-0.01465,0.03998,0.09109,0.09171,-0.03662,-0.00641,-0.02304,0.14816,-0.03494,-0.1384,0.00931,-0.03296
5.66,-0.01099,-0.01297,-0.08118,0.07217,-0.01251,0.07828,-0.01587,0.02472,-0.03845,-0.01709,-0.02777,0.10193,-0.03616,-0.07294,0.01129,-0.0322
5.6605,-0.00946,-0.0145,-0.07111,0.07294,-0.00793,0.09109,-0.16937,-0.07782,-0.03784,-0.02777,-0.00916,0.0386,-0.04059,0.02914,0.00961,-0.03937
5.661,-0.00992,-0.01999,-0.02655,0.07462,-0.00214,0.04547,-0.28748,-0.11902,-0.03662,-0.03937,0.02457,-0.0061,-0.04517,0.10269,0.00519,-0.05051
5.6615,-0.01175,-0.02228,0.05508,0.07538,0.00092,-0.03952,-0.31036,-0.06989,-0.0351,-0.04196,0.05478,-0.01495,-0.04562,0.14008,0.00275,-0.0589
5.662,-0.01587,-0.02274,0.13672,0.07431,-0.00092,-0.10376,-0.23773,-0.00092,-0.02792,-0.04654,0.07141,-0.00595,-0.0412,0.14618,0.00595,-0.0592
5.6625,-0.02487,-0.02762,0.16693,0.07004,-0.00473,-0.11276,-0.09399,0.01907,-0.01373,-0.04562,0.07828,-0.00153,-0.03647,0.10757,0.00809,-0.05264
5.663,-0.03342,-0.04059,0.13474,0.0621,-0.00763,-0.07706,0.06851,0.00015,-0.00366,-0.04623,0.07843,-0.00702,-0.0354,0.0296,0.00992,-0.04684
5.6635,-0.03693,-0.0589,0.0853,0.05264,-0.00824,-0.0293,0.15854,-0.00824,-0.00839,-0.0444,0.07278,-0.02533,-0.0351,-0.03983,0.0087,-0.04333
5.664,-0.0354,-0.07568,0.06119,0.04562,0.00076,-0.01312,0.11887,0.00504,-0.02563,-0.04669,0.05646,-0.06622,-0.03296,-0.06805,0.00809,-0.04379
5.6645,-0.03311,-0.08621,0.06073,0.04181,0.00671,-0.05936,0.02258,0.0061,-0.04501,-0.05081,0.03082,-0.11841,-0.02899,-0.06546,0.00702,-0.04486
5.665,-0.03128,-0.09109,0.06119,0.04044,0.00595,-0.16022,0.00214,-0.02899,-0.05768,-0.05051,0.00015,-0.13138,-0.02579,-0.05661,0.00702,-0.04562
5.6655,-0.02808,-0.09201,0.05585,0.04105,0.00641,-0.24902,0.08087,-0.06454,-0.06363,-0.05005,-0.02701,-0.05783,-0.0267,-0.04105,0.00641,-0.04456
5.666,-0.02258,-0.09094,0.04929,0.04242,0.00458,-0.25101,0.13397,-0.04456,-0.06561,-0.04471,-0.04272,0.0766,-0.02792,-0.01266,0.00671,-0.04303
5.6665,-0.01419,-0.08652,0.04303,0.04379,0.0,-0.15717,0.06226,0.0116,-0.06241,-0.04425,-0.04929,0.19897,-0.02853,0.01541,0.00732,-0.0412
5.667,-0.00595,-0.08179,0.02975,0.04257,-0.01404,-0.02228,-0.06973,0.00702,-0.05127,-0.04471,-0.05341,0.26581,-0.02914,0.02716,0.00931,-0.04044
5.6675,0.00198,-0.07584,0.00748,0.03769,-0.01877,0.07629,-0.13184,-0.11124,-0.03448,-0.04349,-0.05798,0.28366,-0.0293,0.03357,0.01083,-0.0386
5.668,0.00992,-0.06714,-0.01114,0.03174,-0.01846,0.10254,-0.09247,-0.25436,-0.01465,-0.03525,-0.06317,0.2562,-0.02899,0.04807,0.01373,-0.03479
5.6685,0.01663,-0.05417,-0.01465,0.02869,-0.01709,0.07019,-0.02014,-0.27496,0.00656,-0.02747,-0.07141,0.19485,-0.02899,0.05432,0.01495,-0.03281
5.669,0.01846,-0.03769,-0.00488,0.02808,-0.02197,0.02548,0.01663,-0.13123,0.03021,-0.0296,-0.09033,0.13931,-0.02914,0.0267,0.01511,-0.03372
5.6695,0.01572,-0.01999,-0.00168,0.02777,-0.03937,0.00809,0.00458,0.07477,0.05157,-0.03448,-0.1207,0.0946,-0.02945,-0.01602,0.01587,-0.03479
5.67,0.01144,-0.00473,-0.01511,0.02579,-0.05325,0.01511,-0.02487,0.20828,0.05783,-0.03326,-0.14343,-0.02167,-0.02945,-0.03769,0.01617,-0.0354
5.6705,0.00656,0.00397,-0.03357,0.02228,-0.05646,0.02289,-0.02884,0.22766,0.04639,-0.02914,-0.12863,-0.25696,-0.02899,-0.03723,0.01358,-0.03525
5.671,-0.00031,0.00809,-0.03967,0.01923,-0.06409,0.00748,0.0293,0.17975,0.02914,-0.02426,-0.08087,-0.4628,-0.02777,-0.0351,0.00702,-0.03906
5.6715,-0.00748,0.01068,-0.02945,0.01648,-0.07004,-0.03311,0.12573,0.11002,0.01953,-0.02518,-0.0354,-0.40298,-0.02411,-0.04791,-0.00015,-0.0441
5.672,-0.01114,0.01572,-0.01389,0.01266,-0.07675,-0.08102,0.17609,0.03433,0.01785,-0.03204,-0.01846,-0.07996,-0.01938,-0.06332,-0.00107,-0.04669
5.6725,-0.00732,0.02304,-0.00671,0.00687,-0.08774,-0.11459,0.11978,-0.0148,0.0145,-0.03418,-0.01465,0.20538,-0.01556,-0.06958,0.00458,-0.04532
5.673,0.00137,0.02518,-0.01297,0.00488,-0.08987,-0.11154,0.01053,0.00107,0.00626,-0.02914,0.00824,0.20248,-0.01495,-0.06836,0.01083,-0.04196
5.6735,0.01129,0.01923,-0.03708,0.00702,-0.09674,-0.07919,-0.04303,0.06821,-0.00504,-0.01541,0.05692,-0.03876,-0.01938,-0.06851,0.0116,-0.03906
5.674,0.0177,0.0087,-0.07416,0.01083,-0.09644,-0.06332,-0.02014,0.11841,-0.01434,-0.00137,0.11047,-0.29678,-0.02548,-0.07202,0.00626,-0.04196
5.6745,0.01816,0.00076,-0.10391,0.01144,-0.09079,-0.09293,0.0116,0.11215,-0.01617,0.00961,0.14526,-0.40009,-0.02899,-0.06027,-0.00076,-0.04807
5.675,0.01205,-0.00259,-0.10788,0.00854,-0.0824,-0.12894,0.02701,0.07355,-0.0116,0.01572,0.15213,-0.28763,-0.02914,-0.0029,-0.00412,-0.05539
5.6755,0.00198,-0.00549,-0.08911,0.0058,-0.0766,-0.11765,0.04745,0.03799,-0.00854,0.01648,0.13016,-0.02869,-0.0293,0.09338,-0.00351,-0.05722
5.676,-0.00595,-0.01083,-0.06638,0.00473,-0.06897,-0.0705,0.05814,0.00259,-0.01663,0.01297,0.08591,0.18433,-0.0322,0.15884,-0.00137,-0.05539
5.6765,-0.00931,-0.01785,-0.05173,0.0029,-0.06729,-0.04639,0.03311,-0.05005,-0.03296,-0.00183,0.03403,0.19821,-0.03586,0.12207,0.00168,-0.05157
5.677,-0.00961,-0.0238,-0.0441,-0.00031,-0.07416,-0.07523,0.00641,-0.11139,-0.05051,-0.02289,-0.00809,0.06088,-0.03876,0.01282,0.00488,-0.04745
5.6775,-0.01083,-0.03021,-0.04105,-0.0029,-0.0856,-0.12802,0.01129,-0.15335,-0.06561,-0.04303,-0.03464,-0.06088,-0.03967,-0.06561,0.00961,-0.04227
5.678,-0.01312,-0.03403,-0.04272,-0.00244,-0.08774,-0.15747,0.01892,-0.16312,-0.07919,-0.05203,-0.05539,-0.07904,-0.04105,-0.06912,0.01511,-0.03784
5.6785,-0.01465,-0.03632,-0.04929,-0.00061,-0.08347,-0.13824,-0.00534,-0.14496,-0.0882,-0.04791,-0.07919,-0.03891,-0.0415,-0.0415,0.02014,-0.0351
5.679,-0.01419,-0.03784,-0.05676,0.00137,-0.07355,-0.0885,-0.03464,-0.09125,-0.08774,-0.03937,-0.10895,-0.01648,-0.03952,-0.03067,0.01907,-0.03555
5.6795,-0.01144,-0.04242,-0.06073,0.00214,-0.06042,-0.0322,-0.03647,0.00092,-0.07523,-0.02945,-0.14771,-0.03098,-0.03387,-0.03067,0.0148,-0.03769
5.68,-0.00687,-0.04822,-0.05829,0.0032,-0.04654,0.01068,-0.02136,0.0946,-0.05478,-0.02029,-0.1886,-0.04425,-0.02686,-0.02213,0.01038,-0.04013
5.6805,-0.00275,-0.05356,-0.05508,0.00519,-0.02945,0.04013,-0.0296,0.14847,-0.03479,-0.01923,-0.20813,-0.03586,-0.0235,-0.01511,0.01038,-0.04135
5.681,-0.00137,-0.0563,-0.05417,0.00946,-0.01114,0.05722,-0.07004,0.16769,-0.01755,-0.02319,-0.19165,-0.03815,-0.02243,-0.02792,0.01129,-0.04028
5.6815,0.00046,-0.05524,-0.05997,0.01053,0.00519,0.06088,-0.1181,0.18005,-0.00092,-0.03098,-0.14893,-0.07599,-0.02502,-0.05463,0.00992,-0.03891
5.682,0.00336,-0.05386,-0.06912,0.00854,0.00656,0.06378,-0.13153,0.17807,0.01205,-0.03403,-0.10345,-0.09094,-0.02853,-0.07614,0.00702,-0.04028
5.6825,0.00565,-0.05249,-0.07706,0.0029,0.00092,0.06256,-0.09506,0.12772,0.01877,-0.03098,-0.06485,-0.02136,-0.0322,-0.0827,0.00778,-0.04318
5.683,0.00656,-0.05127,-0.08423,-0.00122,-0.00046,0.02731,-0.03357,0.03632,0.02441,-0.02625,-0.02747,0.05478,-0.03555,-0.07919,0.01007,-0.04471
5.6835,0.00793,-0.04898,-0.09811,-0.00137,-0.009,-0.06714,0.01358,-0.03357,0.03403,-0.02548,0.01053,0.01007,-0.03693,-0.0708,0.01282,-0.04318
5.684,0.01068,-0.05005,-0.12177,0.00015,-0.02792,-0.18265,0.0351,-0.02914,0.04608,-0.02396,0.04517,-0.11124,-0.03723,-0.05234,0.01236,-0.04105
5.6845,0.0119,-0.05692,-0.1445,0.00397,-0.0415,-0.23285,0.04105,0.0322,0.056,-0.02075,0.07187,-0.13748,-0.03677,-0.01328,0.00946,-0.0412
5.685,0.00793,-0.06546,-0.15839,0.00763,-0.0386,-0.17899,0.02991,0.07217,0.05829,-0.01862,0.08911,-0.01419,-0.03586,0.03967,0.00473,-0.04517
5.6855,0.00275,-0.07187,-0.159,0.01068,-0.02319,-0.08835,-0.00763,0.03952,0.04898,-0.01663,0.09781,0.15182,-0.03357,0.07187,0.00076,-0.04761
5.686,-0.00168,-0.0737,-0.14801,0.01175,-0.01297,-0.05005,-0.05676,-0.03159,0.0293,-0.01495,0.09903,0.24124,-0.03143,0.04852,0.00168,-0.04852
5.6865,-0.00473,-0.07294,-0.12558,0.01236,-0.01297,-0.06317,-0.07584,-0.06424,0.00824,-0.01007,0.0882,0.20386,-0.03052,-0.01419,0.00412,-0.04623
5.687,-0.00656,-0.06805,-0.09811,0.01312,-0.01358,-0.06348,-0.05264,-0.04379,-0.00351,-0.00046,0.0647,0.04471,-0.03098,-0.06485,0.00595,-0.04379
5.6875,-0.00946,-0.05951,-0.06897,0.01328,-0.01038,-0.03296,-0.02533,-0.01862,-0.01205,0.01389,0.03998,-0.13306,-0.03265,-0.07736,0.0058,-0.04333
5.688,-0.01877,-0.05127,-0.03555,0.0119,-0.02151,-0.01282,-0.02319,-0.00992,-0.02228,0.0267,0.02808,-0.14923,-0.03418,-0.06165,0.00549,-0.04074
5.6885,-0.03281,-0.0473,-0.00046,0.00748,-0.02747,-0.02884,-0.02609,0.00687,-0.03143,0.03082,0.03448,0.02029,-0.03586,-0.03311,0.00687,-0.03922
5.689,-0.03952,-0.04654,0.02518,0.00336,-0.02609,-0.05173,-0.01328,0.03494,-0.03479,0.01465,0.05112,0.15564,-0.03586,0.0058,0.00763,-0.04013
5.6895,-0.02792,-0.04547,0.03571,-0.00183,-0.02014,-0.04944,-0.00977,0.03922,-0.03326,-0.00793,0.07111,0.09064,-0.03479,0.03571,0.00565,-0.04166
5.69,-0.00565,-0.04272,0.03281,-0.00687,-0.00198,-0.02625,-0.04059,0.00198,-0.03204,-0.03098,0.08926,-0.06546,-0.03265,0.0325,0.00351,-0.0412
5.6905,0.01175,-0.03693,0.02335,-0.00946,0.00656,-0.00336,-0.0882,-0.05356,-0.03128,-0.0412,0.10025,-0.14191,-0.03281,0.00153,0.00381,-0.0415
5.691,0.01556,-0.03174,0.00748,-0.00992,0.02014,0.00534,-0.08606,-0.09705,-0.02884,-0.04639,0.0972,-0.14893,-0.03296,-0.02731,0.00626,-0.03998
5.6915,0.0116,-0.02914,-0.01526,-0.00748,0.02075,0.0029,-0.00732,-0.11093,-0.02533,-0.04593,0.08514,-0.17197,-0.03189,-0.03952,0.00778,-0.04303
5.692,0.00198,-0.0293,-0.02975,-0.00473,0.01389,-0.00336,0.08743,-0.08377,-0.0264,-0.04715,0.07156,-0.1944,-0.03082,-0.04211,0.00626,-0.04669
5.6925,-0.00916,-0.0325,-0.02151,-0.00488,-0.00687,-0.01511,0.10803,-0.0238,-0.0322,-0.04395,0.06134,-0.1358,-0.03311,-0.03204,0.00473,-0.04852
5.693,-0.01907,-0.03647,0.00504,-0.0116,-0.01923,-0.03052,0.03555,0.03433,-0.03769,-0.04135,0.04593,0.03296,-0.03693,0.00061,0.00488,-0.04639
5.6935,-0.02441,-0.03983,0.0148,-0.02411,-0.03601,-0.05447,-0.06546,0.05066,-0.04059,-0.03433,0.02029,0.23911,-0.04013,0.03799,0.00687,-0.04333
5.694,-0.02762,-0.04074,-0.0061,-0.03876,-0.03708,-0.07492,-0.1326,0.02136,-0.03937,-0.02869,-0.01297,0.3418,-0.04028,0.03998,0.00809,-0.04242
5.6945,-0.0325,-0.03906,-0.04044,-0.04959,-0.04059,-0.07629,-0.16342,-0.01678,-0.03632,-0.02579,-0.04349,0.26642,-0.03937,0.00168,0.00916,-0.04257
5.695,-0.03708,-0.03555,-0.04974,-0.05493,-0.04837,-0.06531,-0.18356,-0.03281,-0.03326,-0.02762,-0.06668,0.1004,-0.03799,-0.02686,0.00809,-0.04349
5.6955,-0.03448,-0.02945,-0.02197,-0.06012,-0.0531,-0.06882,-0.19623,-0.03769,-0.0293,-0.03174,-0.0824,0.00198,-0.03571,-0.00259,0.00519,-0.04532
5.696,-0.02502,-0.02045,0.01602,-0.07004,-0.04883,-0.10406,-0.18906,-0.05447,-0.02563,-0.0296,-0.09628,0.02487,-0.03189,0.05905,0.00351,-0.04776
5.6965,-0.0145,-0.01205,0.02945,-0.08194,-0.03525,-0.14557,-0.15259,-0.08362,-0.02182,-0.02777,-0.10666,0.09979,-0.02823,0.11124,0.00244,-0.04684
5.697,-0.00595,-0.00809,0.01038,-0.09293,-0.02884,-0.1561,-0.08728,-0.10193,-0.01923,-0.02045,-0.11459,0.14679,-0.02853,0.1297,0.00458,-0.0444
5.6975,0.00061,-0.00809,-0.01617,-0.09888,-0.02335,-0.11948,-0.03036,-0.09537,-0.01648,-0.01129,-0.12299,0.15488,-0.02991,0.12009,0.00748,-0.04105
5.698,0.00671,-0.01053,-0.02472,-0.10147,-0.01968,-0.06104,-0.0116,-0.065,-0.01053,-0.00519,-0.13611,0.14999,-0.0322,0.09186,0.00824,-0.03998
5.6985,0.01282,-0.01663,-0.01175,-0.10513,-0.01419,-0.01907,0.00916,-0.01373,0.00214,-0.00763,-0.14603,0.12268,-0.03372,0.0386,0.00656,-0.04242
5.699,0.01694,-0.02609,0.00839,-0.11337,-0.00778,-0.00763,0.08377,0.05402,0.01724,-0.01724,-0.13901,0.01541,-0.03525,-0.05035,0.00351,-0.04486
5.6995,0.0238,-0.03632,0.01434,-0.12344,0.00183,-0.0148,0.15274,0.11581,0.02853,-0.02258,-0.11368,-0.17548,-0.03754,-0.15411,0.00366,-0.04532
5.7,0.03021,-0.04517,-0.00137,-0.13138,0.01068,-0.03006,0.12375,0.12878,0.03357,-0.01862,-0.08286,-0.33295,-0.03845,-0.21881,0.00443,-0.04379
5.7005,0.02991,-0.05264,-0.02884,-0.13535,0.01053,-0.05295,0.0351,0.07599,0.03464,-0.0145,-0.05936,-0.32379,-0.0386,-0.21866,0.00641,-0.04074
5.701,0.02106,-0.05569,-0.05005,-0.13504,0.01099,-0.08163,0.00427,0.00015,0.03342,-0.01221,-0.04181,-0.17075,-0.03586,-0.18723,0.00595,-0.03922
5.7015,0.01266,-0.05341,-0.06073,-0.12985,0.01129,-0.09979,0.03937,-0.04379,0.02747,-0.0148,-0.02365,-0.03693,-0.03357,-0.17471,0.00687,-0.03799
5.702,0.01266,-0.04654,-0.06378,-0.11978,0.0,-0.09537,0.03647,-0.04288,0.01709,-0.01755,-0.00656,-0.01007,-0.03265,-0.18478,0.00809,-0.03616
5.7025,0.01999,-0.0415,-0.06424,-0.10757,-0.02228,-0.07492,-0.05875,-0.02319,0.00565,-0.01587,0.00107,0.00107,-0.0354,-0.17609,0.00854,-0.03616
5.703,0.02945,-0.0412,-0.05829,-0.09369,-0.04303,-0.0563,-0.17609,-0.00687,-0.00351,-0.009,-0.00015,0.08987,-0.03906,-0.11292,0.00763,-0.03784
5.7035,0.03555,-0.04272,-0.04623,-0.07813,-0.05707,-0.04959,-0.20676,0.0032,-0.00946,0.00031,-0.00351,0.1738,-0.04074,-0.02396,0.00885,-0.0386
5.704,0.03586,-0.04425,-0.03616,-0.06088,-0.06256,-0.04639,-0.1091,0.01083,-0.0148,0.00473,-0.00793,0.11841,-0.03845,0.02594,0.0119,-0.03693
5.7045,0.02869,-0.04547,-0.02869,-0.04822,-0.05173,-0.03616,0.04745,0.01129,-0.01968,-0.00214,-0.01358,-0.04349,-0.03281,0.01358,0.01511,-0.03387
5.705,0.01663,-0.05096,-0.02441,-0.03937,-0.03967,-0.01862,0.14343,0.00259,-0.02213,-0.00931,-0.01999,-0.13931,-0.02853,-0.01984,0.01602,-0.03235
5.7055,0.00305,-0.06165,-0.01999,-0.02945,-0.03052,0.00458,0.12756,-0.01038,-0.02213,-0.02136,-0.02396,-0.06561,-0.02701,-0.03082,0.01419,-0.03418
5.706,-0.00885,-0.07278,-0.01694,-0.0148,-0.03326,0.03326,0.06577,-0.01953,-0.02197,-0.02304,-0.02441,0.10834,-0.02777,-0.01617,0.01175,-0.03769
5.7065,-0.01862,-0.07538,-0.01724,-0.00137,-0.03433,0.06271,0.05051,-0.02258,-0.02121,-0.02396,-0.02396,0.2211,-0.02731,0.0061,0.00809,-0.04181
5.707,-0.02747,-0.06821,-0.01984,0.0087,-0.05035,0.07065,0.0795,-0.02518,-0.01953,-0.01862,-0.02304,0.1683,-0.02625,0.02655,0.00534,-0.04517
5.7075,-0.03906,-0.05646,-0.02502,0.01434,-0.0592,0.04013,0.08469,-0.03418,-0.01785,-0.01068,-0.02625,0.00488,-0.02625,0.04089,0.00229,-0.04837
5.708,-0.05173,-0.04791,-0.03342,0.02106,-0.06287,-0.01877,0.04181,-0.05478,-0.01678,-0.00702,-0.03708,-0.09399,-0.02777,0.04791,0.00168,-0.0473
5.7085,-0.05737,-0.04318,-0.04303,0.02914,-0.06561,-0.08163,-0.00854,-0.07721,-0.01694,-0.00214,-0.04944,-0.03738,-0.02792,0.05234,0.00259,-0.04379
5.709,-0.05112,-0.0386,-0.05463,0.03632,-0.06454,-0.13382,-0.03067,-0.07919,-0.01724,0.00153,-0.05417,0.03296,-0.02655,0.05905,0.00641,-0.04135
5.7095,-0.03494,-0.03372,-0.0676,0.04059,-0.06393,-0.15549,-0.01678,-0.05127,-0.0174,0.00473,-0.04456,-0.05493,-0.02563,0.06454,0.009,-0.04105
5.71,-0.01755,-0.02899,-0.07645,0.0386,-0.05783,-0.12512,0.02274,-0.0148,-0.01846,-0.00336,-0.03479,-0.20309,-0.02716,0.0563,0.00793,-0.04196
5.7105,-0.00626,-0.02594,-0.07736,0.03006,-0.04639,-0.04623,0.06058,0.00702,-0.02289,-0.00717,-0.04868,-0.16663,-0.0296,0.02136,0.0061,-0.04364
5.711,-0.00381,-0.02792,-0.07172,0.02014,-0.04425,0.0296,0.05661,0.00366,-0.03281,-0.00336,-0.09537,0.0531,-0.03342,-0.03815,0.00351,-0.04517
5.7115,-0.00809,-0.03479,-0.06516,0.01175,-0.04623,0.06134,0.01434,-0.02304,-0.04669,0.00122,-0.15213,0.19272,-0.03815,-0.10208,0.00366,-0.04608
5.712,-0.0119,-0.04013,-0.05859,0.00336,-0.04929,0.05371,-0.01816,-0.05692,-0.05508,-0.00565,-0.18204,0.11093,-0.04623,-0.14572,0.00443,-0.04837
5.7125,-0.00992,-0.04227,-0.05341,-0.00885,-0.04456,0.04883,-0.00259,-0.06973,-0.05081,-0.03006,-0.16281,-0.04562,-0.05432,-0.16129,0.00488,-0.04822
5.713,-0.00641,-0.03952,-0.04898,-0.02457,-0.03616,0.0592,0.04944,-0.04761,-0.03998,-0.06058,-0.10178,-0.09689,-0.05753,-0.15259,0.00519,-0.04547
5.7135,-0.00641,-0.03586,-0.04425,-0.03998,-0.03723,0.06012,0.09125,-0.01099,-0.03418,-0.08011,-0.02243,-0.04059,-0.05157,-0.12299,0.00702,-0.04135
5.714,-0.0116,-0.0354,-0.0383,-0.05402,-0.03815,0.03204,0.08377,0.02029,-0.03555,-0.08011,0.05325,0.02899,-0.04074,-0.07523,0.00992,-0.0386
5.7145,-0.01831,-0.03754,-0.02853,-0.06699,-0.03693,-0.01053,0.03036,0.04196,-0.0322,-0.06683,0.1091,0.07217,-0.03265,-0.02884,0.01083,-0.03891
5.715,-0.02243,-0.04135,-0.02014,-0.07828,-0.03586,-0.047,-0.03128,0.05844,-0.01892,-0.05569,0.13351,0.09491,-0.03128,-0.00473,0.00885,-0.0415
5.7155,-0.02289,-0.04501,-0.01694,-0.0885,-0.03174,-0.09048,-0.06851,0.06516,-0.00534,-0.04318,0.1326,0.09399,-0.03204,-0.0032,0.00473,-0.04456
5.716,-0.02106,-0.04562,-0.01831,-0.09583,-0.02945,-0.15137,-0.07965,0.05829,-0.00229,-0.03387,0.1265,0.0592,-0.03098,-0.00809,0.00229,-0.04578
5.7165,-0.01984,-0.04181,-0.02197,-0.10208,-0.03174,-0.19379,-0.07889,0.04349,-0.00885,-0.02914,0.12573,-0.00183,-0.02838,-0.01007,0.00198,-0.04517
5.717,-0.01999,-0.03555,-0.02441,-0.11032,-0.03265,-0.16983,-0.06897,0.02823,-0.01785,-0.02472,0.12314,-0.06821,-0.02823,-0.01114,0.00275,-0.04486
5.7175,-0.01984,-0.03159,-0.02747,-0.11917,-0.03601,-0.09232,-0.0383,0.01083,-0.03036,-0.01923,0.10971,-0.10727,-0.03311,-0.01419,0.00488,-0.04517
5.718,-0.01801,-0.0322,-0.03357,-0.12482,-0.03418,-0.02014,0.00153,-0.00824,-0.04837,-0.02197,0.08606,-0.09155,-0.04089,-0.01831,0.00565,-0.04471
5.7185,-0.0174,-0.03555,-0.03998,-0.1239,-0.0351,0.01526,0.00412,-0.02304,-0.06943,-0.02762,0.06317,-0.03632,-0.04669,-0.02106,0.00687,-0.04257
5.719,-0.01755,-0.03876,-0.04456,-0.11673,-0.03433,0.03296,-0.05417,-0.02518,-0.08514,-0.04379,0.04669,0.00763,-0.04578,-0.02029,0.00748,-0.04028
5.7195,-0.01617,-0.04166,-0.04684,-0.10513,-0.03799,0.04593,-0.12604,-0.01404,-0.08774,-0.05081,0.03357,0.02502,-0.03967,-0.01236,0.00809,-0.03845
5.72,-0.01068,-0.04425,-0.04822,-0.09079,-0.04532,0.04486,-0.1442,-0.00809,-0.07904,-0.04272,0.01495,0.05951,-0.03326,0.0029,0.00977,-0.03784
5.7205,-0.00381,-0.04761,-0.04898,-0.08316,-0.05463,0.02029,-0.10101,-0.0206,-0.06546,-0.02777,-0.01389,0.12756,-0.02823,0.01785,0.0119,-0.03571
5.721,0.00031,-0.04929,-0.04974,-0.08072,-0.04745,-0.01984,-0.0441,-0.03601,-0.04791,-0.02014,-0.04105,0.16937,-0.02533,0.01709,0.01328,-0.03387
5.7215,-0.00107,-0.0502,-0.05005,-0.07797,-0.04318,-0.06821,-0.00122,-0.02365,-0.02487,-0.02533,-0.04181,0.13062,-0.02228,-0.00381,0.01221,-0.03403
5.722,-0.00717,-0.05295,-0.04791,-0.06866,-0.0296,-0.12192,0.03021,0.01968,0.00061,-0.03036,-0.01495,0.03357,-0.01831,-0.03906,0.01114,-0.03754
5.7225,-0.01114,-0.05798,-0.0441,-0.05356,-0.02396,-0.159,0.04517,0.06027,0.01938,-0.02243,0.01938,-0.05005,-0.01373,-0.07507,0.01022,-0.03967
5.723,-0.01221,-0.06744,-0.03998,-0.03632,-0.02731,-0.14526,0.03189,0.0621,0.02701,-0.00092,0.04272,-0.07919,-0.01022,-0.09918,0.01144,-0.03784
5.7235,-0.01083,-0.07721,-0.03876,-0.01755,-0.03448,-0.07675,-0.0032,0.03052,0.02792,0.02411,0.05341,-0.06241,-0.00961,-0.10071,0.01328,-0.03433
5.724,-0.00809,-0.08224,-0.03464,-0.00443,-0.04318,0.00565,-0.03967,-0.00565,0.02716,0.04074,0.05753,-0.03143,-0.01266,-0.07828,0.01312,-0.03479
5.7245,-0.00519,-0.08026,-0.02594,-0.00351,-0.04639,0.04959,-0.05646,-0.02258,0.02792,0.05234,0.05005,-0.01083,-0.01617,-0.0296,0.01083,-0.03815
5.725,-0.00336,-0.07446,-0.01663,-0.01358,-0.04501,0.0235,-0.05707,-0.02365,0.02991,0.0592,0.03128,-0.00839,-0.01755,0.0415,0.00916,-0.04333
5.7255,-0.00641,-0.06683,-0.01282,-0.02106,-0.04333,-0.07782,-0.06561,-0.02533,0.02838,0.07813,0.01099,-0.02243,-0.01572,0.10925,0.0087,-0.04684
5.726,-0.0119,-0.05966,-0.0174,-0.01556,-0.04791,-0.22858,-0.09521,-0.03708,0.02274,0.08804,0.00076,-0.04211,-0.01556,0.13367,0.00809,-0.04807
5.7265,-0.01892,-0.05463,-0.02121,-0.00275,-0.05142,-0.34592,-0.12985,-0.05859,0.01434,0.08194,-0.00244,-0.05051,-0.01907,0.11124,0.00809,-0.04791
5.727,-0.02014,-0.05188,-0.02396,0.00717,-0.05005,-0.32944,-0.14801,-0.08118,0.00473,0.06836,-0.00916,-0.03998,-0.02396,0.09018,0.00809,-0.04669
5.7275,-0.0145,-0.04822,-0.03128,0.01617,-0.04486,-0.17563,-0.16174,-0.08881,-0.00168,0.047,-0.02167,-0.02075,-0.02762,0.10056,0.00732,-0.04486
5.728,-0.00381,-0.04272,-0.04501,0.03281,-0.04288,-0.00229,-0.18021,-0.06302,-0.00397,0.03082,-0.03113,-0.00931,-0.03235,0.121,0.00656,-0.04242
5.7285,0.00702,-0.03632,-0.05722,0.05875,-0.03891,0.06973,-0.16052,-0.00641,-0.00351,0.0116,-0.03265,-0.00778,-0.03937,0.12054,0.00885,-0.03784
5.729,0.01663,-0.03067,-0.0563,0.07858,-0.03525,0.04257,-0.05417,0.04593,-0.00244,-0.00366,-0.0325,-0.00717,-0.04547,0.09415,0.01343,-0.03296
5.7295,0.02625,-0.02289,-0.04532,0.07126,-0.02838,-0.00153,0.08987,0.05463,-0.00198,-0.0238,-0.03494,-0.00549,-0.04974,0.03662,0.01663,-0.03067
5.73,0.03281,-0.00931,-0.03448,0.02762,-0.02274,-0.00885,0.16006,0.02777,-0.00153,-0.03708,-0.03845,-0.00641,-0.05417,-0.05249,0.01572,-0.03159
5.7305,0.03082,0.00214,-0.02686,-0.03632,-0.01938,0.00717,0.13275,0.00626,-0.00122,-0.05035,-0.03952,-0.00961,-0.06088,-0.14557,0.01129,-0.03464
5.731,0.02075,0.00351,-0.02335,-0.08774,-0.01862,0.01938,0.08911,0.00946,0.00046,-0.0502,-0.03876,-0.01282,-0.06683,-0.19684,0.00916,-0.03952
5.7315,0.01053,-0.0058,-0.02594,-0.09125,-0.01404,0.02365,0.07858,0.01984,0.00443,-0.0502,-0.0412,-0.01389,-0.06577,-0.18372,0.00809,-0.04669
5.732,0.00137,-0.01587,-0.04013,-0.0441,-0.01083,0.03098,0.07187,0.01755,0.00748,-0.05035,-0.05112,-0.01495,-0.0592,-0.11658,0.00671,-0.05615
5.7325,-0.00412,-0.01923,-0.06012,0.00107,-0.00671,0.03433,0.04837,0.0061,0.00702,-0.05569,-0.06882,-0.0177,-0.05066,-0.02182,0.00671,-0.06363
5.733,-0.00671,-0.01862,-0.07416,-0.01175,-0.00366,0.01251,0.04074,-0.00122,0.00336,-0.05646,-0.08408,-0.02106,-0.0441,0.07172,0.00626,-0.06516
5.7335,-0.00381,-0.01907,-0.07721,-0.07996,-0.0061,-0.04776,0.06134,-0.00092,-0.0032,-0.04745,-0.08575,-0.02426,-0.0412,0.13031,0.00687,-0.06348
5.734,-0.00046,-0.02548,-0.07568,-0.14786,-0.009,-0.13596,0.07111,0.00259,-0.01129,-0.03906,-0.07233,-0.02502,-0.03983,0.12024,0.00656,-0.05997
5.7345,-0.00092,-0.03479,-0.08087,-0.17258,-0.01312,-0.20462,0.03494,0.0058,-0.01862,-0.0293,-0.05173,-0.02213,-0.03555,0.05051,0.00671,-0.05753
5.735,-0.00748,-0.04395,-0.09018,-0.15259,-0.01373,-0.19623,-0.02075,0.00671,-0.02289,-0.02167,-0.03555,-0.02243,-0.03006,-0.01846,0.00687,-0.05661
5.7355,-0.01389,-0.0502,-0.08972,-0.11398,-0.00961,-0.10925,-0.04013,0.00519,-0.02563,-0.01526,-0.03143,-0.03082,-0.02731,-0.03403,0.00717,-0.05676
5.736,-0.01877,-0.05295,-0.06668,-0.0972,-0.00183,-0.00168,-0.00488,0.0029,-0.02747,-0.01114,-0.03464,-0.03754,-0.02731,-0.01022,0.00671,-0.05524
5.7365,-0.02243,-0.05219,-0.02838,-0.14236,0.00549,0.05829,0.04303,0.00107,-0.0296,-0.01083,-0.03784,-0.02731,-0.0267,0.00687,0.00854,-0.05035
5.737,-0.02396,-0.047,0.01434,-0.25024,0.00381,0.04974,0.05432,0.0,-0.03464,-0.01221,-0.03647,-0.00305,-0.02396,-0.00061,0.01114,-0.0444
5.7375,-0.02197,-0.04196,0.04898,-0.35751,0.00153,0.00732,0.02304,-0.00061,-0.04044,-0.01694,-0.03098,0.00763,-0.02121,-0.01678,0.0116,-0.04181
5.738,-0.01434,-0.03754,0.06348,-0.40329,0.00458,-0.01801,-0.0145,-0.00229,-0.04456,-0.02365,-0.02472,-0.01068,-0.01892,-0.02106,0.01022,-0.04211
5.7385,-0.00366,-0.03387,0.05722,-0.39154,0.01587,-0.01205,-0.03265,-0.00458,-0.04303,-0.02625,-0.01862,-0.03021,-0.01724,-0.01801,0.00824,-0.04318
5.739,0.00809,-0.02975,0.03708,-0.36041,0.03448,-0.00214,-0.03372,-0.00793,-0.03738,-0.03098,-0.01221,-0.01205,-0.01724,-0.02426,0.00824,-0.04211
5.7395,0.01892,-0.02731,0.01373,-0.32654,0.04593,-0.0032,-0.03601,-0.01007,-0.03311,-0.03098,-0.0029,0.02991,-0.01801,-0.04395,0.00931,-0.04013
5.74,0.02823,-0.02777,-0.00473,-0.27512,0.05035,0.0,-0.04791,-0.00977,-0.03235,-0.03021,0.00717,0.04059,-0.01968,-0.05737,0.01022,-0.0383
5.7405,0.03204,-0.03143,-0.01419,-0.22171,0.03983,0.00778,-0.06897,-0.009,-0.03326,-0.03098,0.0116,0.00519,-0.02243,-0.04929,0.01083,-0.03799
5.741,0.02884,-0.03494,-0.01541,-0.22232,0.02304,-0.00946,-0.09277,-0.00946,-0.03296,-0.02792,0.00793,-0.02838,-0.02777,-0.03601,0.01129,-0.03677
5.7415,0.01968,-0.03555,-0.01373,-0.27069,0.0058,-0.08026,-0.112,-0.01205,-0.03281,-0.02869,0.00046,-0.01755,-0.03342,-0.03784,0.01175,-0.03464
5.742,0.01129,-0.03296,-0.01587,-0.25528,-0.009,-0.17792,-0.11475,-0.0116,-0.0354,-0.03113,-0.00687,0.01999,-0.03662,-0.05417,0.01251,-0.03525
5.7425,0.00839,-0.02914,-0.02411,-0.11017,-0.02182,-0.22736,-0.10025,-0.00732,-0.04059,-0.03204,-0.01083,0.0441,-0.0322,-0.06287,0.01266,-0.03815
5.743,0.01205,-0.02533,-0.03235,0.04395,-0.02579,-0.18265,-0.07736,-0.0032,-0.04669,-0.03586,-0.00916,0.04318,-0.02441,-0.04562,0.01175,-0.04211
5.7435,0.01556,-0.02686,-0.03448,0.05646,-0.02304,-0.08224,-0.03784,0.0,-0.05035,-0.03738,-0.00076,0.0296,-0.01999,-0.01099,0.01083,-0.04578
5.744,0.01572,-0.03479,-0.03174,-0.02747,-0.01465,-0.01068,0.03052,0.00229,-0.05035,-0.03677,0.00885,0.00717,-0.02167,0.01007,0.01038,-0.0473
5.7445,0.01373,-0.0473,-0.02899,-0.06577,-0.00687,-0.0061,0.09628,0.00427,-0.04715,-0.03586,0.00931,-0.02243,-0.02579,-0.00153,0.00961,-0.04684
5.745,0.01175,-0.05737,-0.03067,-0.04883,-0.00443,-0.04288,0.09445,0.00351,-0.03998,-0.03342,-0.00183,-0.0415,-0.0267,-0.03448,0.00946,-0.04593
5.7455,0.01083,-0.06622,-0.03418,-0.05508,-0.01022,-0.07095,0.01938,0.00076,-0.0322,-0.03571,-0.01709,-0.03021,-0.02304,-0.06287,0.00748,-0.04272
5.746,0.00916,-0.07645,-0.0412,-0.04959,-0.02075,-0.07156,-0.05325,-0.00244,-0.02655,-0.03815,-0.02838,0.00122,-0.02106,-0.07263,0.00824,-0.03983
5.7465,0.00732,-0.08362,-0.05051,0.08835,-0.02823,-0.06042,-0.06073,-0.00397,-0.02304,-0.04257,-0.03998,0.02319,-0.02274,-0.06454,0.00946,-0.03586
5.747,0.00458,-0.08453,-0.06073,0.34058,-0.03754,-0.05997,-0.02136,-0.01434,-0.01968,-0.04852,-0.065,0.02441,-0.0235,-0.04883,0.01114,-0.03418
5.7475,0.00229,-0.07904,-0.06897,0.51575,-0.05096,-0.07248,0.00793,-0.04822,-0.01389,-0.04944,-0.10574,0.01923,-0.02289,-0.03662,0.01083,-0.03311
5.748,0.00198,-0.07172,-0.07278,0.49362,-0.06424,-0.07309,0.00336,-0.0975,-0.00519,-0.04166,-0.14343,0.02289,-0.02182,-0.03174,0.01007,-0.03098
5.7485,0.00259,-0.06531,-0.06973,0.37674,-0.06927,-0.04135,-0.01999,-0.1268,0.00397,-0.03036,-0.15167,0.03067,-0.02487,-0.02899,0.0116,-0.02762
5.749,0.00366,-0.0589,-0.06073,0.32867,-0.07416,0.00687,-0.04364,-0.10666,0.01251,-0.02167,-0.1239,0.03571,-0.02838,-0.02502,0.01328,-0.02594
5.7495,0.00168,-0.04852,-0.05081,0.36179,-0.07965,0.03815,-0.05783,-0.04425,0.01923,-0.01724,-0.08011,0.03754,-0.03159,-0.01877,0.0116,-0.02991
5.75,-0.00366,-0.03159,-0.04486,0.38101,-0.08957,0.0351,-0.05661,0.02518,0.02289,-0.01633,-0.04257,0.03738,-0.03479,-0.01251,0.00885,-0.03967
5.7505,-0.00595,-0.01205,-0.04517,0.34439,-0.09766,0.00687,-0.04745,0.0737,0.02075,-0.0174,-0.01724,0.03143,-0.03952,-0.00885,0.00748,-0.0499
5.751,-0.00381,0.00031,-0.04715,0.27664,-0.1059,-0.03632,-0.04623,0.08591,0.01389,-0.01831,-0.00122,0.02029,-0.04013,-0.01038,0.00824,-0.05478
5.7515,0.00244,-0.00122,-0.04578,0.17426,-0.11597,-0.1004,-0.05463,0.06256,0.00565,-0.01877,0.009,0.00916,-0.03662,-0.01419,0.00854,-0.05615
5.752,0.00763,-0.01389,-0.04196,0.02594,-0.12497,-0.18295,-0.0502,0.02441,0.00107,-0.01312,0.01404,0.00015,-0.03128,-0.01678,0.00565,-0.05295
5.7525,0.00916,-0.02472,-0.03738,-0.10452,-0.12329,-0.22812,-0.01938,-0.00214,0.00275,-0.01022,0.0174,-0.00702,-0.02869,-0.01907,0.00366,-0.04898
5.753,0.00809,-0.02792,-0.03479,-0.12817,-0.10773,-0.16449,0.00717,-0.00931,0.00702,-0.00793,0.02075,-0.01373,-0.02747,-0.02365,0.00443,-0.04471
5.7535,0.0061,-0.0267,-0.03555,-0.05722,-0.08041,-0.00427,-0.00946,-0.00671,0.00824,-0.01129,0.02243,-0.01755,-0.02716,-0.03143,0.00702,-0.04166
5.754,0.0032,-0.02808,-0.04257,-0.0116,-0.05295,0.14481,-0.06744,-0.00259,0.00671,-0.01358,0.01862,-0.01663,-0.02899,-0.04257,0.00916,-0.0412
5.7545,-0.00031,-0.03494,-0.05585,-0.06149,-0.02502,0.19852,-0.12283,0.00183,0.0032,-0.01266,0.01068,-0.01373,-0.03006,-0.05829,0.00702,-0.04288
5.755,-0.00214,-0.04074,-0.06851,-0.14908,-0.00122,0.1767,-0.14618,0.00732,-0.00092,-0.01205,0.00626,-0.01495,-0.02808,-0.07523,0.00565,-0.04639
5.7555,-0.00046,-0.04333,-0.07568,-0.18326,0.01999,0.13977,-0.14404,0.00916,-0.00504,-0.01114,0.0061,-0.01633,-0.0235,-0.09094,0.00504,-0.04776
5.756,0.00214,-0.04227,-0.07462,-0.14832,0.03372,0.09979,-0.12024,0.00931,-0.00793,-0.01419,0.00687,-0.01236,-0.02304,-0.10025,0.00427,-0.047
5.7565,0.00168,-0.04135,-0.06943,-0.0972,0.03922,0.02853,-0.04868,0.01022,-0.01038,-0.01785,0.00504,-0.00183,-0.02487,-0.10635,0.00504,-0.04623
5.757,-0.00488,-0.04059,-0.065,-0.08591,0.03113,-0.08789,0.06378,0.01205,-0.01129,-0.01831,0.00153,0.00626,-0.02487,-0.10468,0.0058,-0.0444
5.7575,-0.01801,-0.04166,-0.06073,-0.14618,0.01068,-0.21454,0.1384,0.0119,-0.01022,-0.01968,0.0,0.00687,-0.02136,-0.08591,0.00565,-0.04318
5.758,-0.02808,-0.04501,-0.05661,-0.26169,-0.0148,-0.28564,0.11917,0.00839,-0.00793,-0.02274,0.00031,0.00229,-0.01877,-0.04059,0.00427,-0.04211
5.7585,-0.02808,-0.05081,-0.05157,-0.37796,-0.03433,-0.26306,0.05981,0.00702,-0.00626,-0.02777,0.00076,-0.00015,-0.02487,0.03113,0.00519,-0.04074
5.759,-0.02014,-0.05585,-0.04547,-0.44174,-0.04944,-0.17853,0.04562,0.00961,-0.00854,-0.03281,0.00031,0.00122,-0.03448,0.10361,0.0061,-0.03952
5.7595,-0.01205,-0.05615,-0.03784,-0.44418,-0.06134,-0.10818,0.07324,0.0116,-0.01312,-0.03479,-0.00107,0.00366,-0.03845,0.13504,0.0058,-0.03769
5.76,-0.00717,-0.04929,-0.02716,-0.40176,-0.06927,-0.09903,0.0769,0.00885,-0.01663,-0.03342,-0.0032,0.00259,-0.03326,0.11993,0.00732,-0.03616
5.7605,-0.00031,-0.03998,-0.01282,-0.28046,-0.07248,-0.14404,0.03937,0.00244,-0.01785,-0.03204,-0.00702,-0.00168,-0.02808,0.103,0.00854,-0.03723
5.761,0.00931,-0.03281,0.00519,-0.02991,-0.06927,-0.19531,0.00122,-0.00183,-0.01724,-0.03281,-0.01053,-0.00488,-0.03204,0.11826,0.0087,-0.03845
5.7615,0.01602,-0.02975,0.01862,0.26337,-0.06531,-0.2002,-0.01572,-0.0032,-0.01694,-0.03113,-0.01129,-0.00137,-0.04211,0.13626,0.00595,-0.04013
5.762,0.01755,-0.02975,0.01785,0.38773,-0.06378,-0.14938,-0.02869,-0.00183,-0.01801,-0.02823,-0.01022,0.00916,-0.04669,0.10452,0.00381,-0.04013
5.7625,0.01526,-0.03326,0.0058,0.26352,-0.065,-0.07843,-0.03937,0.0,-0.01923,-0.02121,-0.00916,0.02121,-0.03647,0.03372,0.0032,-0.04028
5.763,0.01343,-0.03738,-0.00443,0.056,-0.06714,-0.03464,-0.03387,-0.00015,-0.02014,-0.01144,-0.00793,0.02914,-0.01938,-0.01984,0.0061,-0.0386
5.7635,0.01328,-0.04105,-0.00366,-0.05234,-0.06866,-0.02029,-0.02121,-0.00244,-0.02029,-0.00412,-0.00778,0.03662,-0.01068,-0.03006,0.00839,-0.03555
5.764,0.0145,-0.04395,0.00137,-0.05341,-0.06622,-0.01022,-0.02594,-0.00793,-0.02014,-0.00504,-0.00839,0.04242,-0.01434,-0.02594,0.01022,-0.03418
5.7645,0.01495,-0.04837,-0.00046,-0.02014,-0.0589,0.00183,-0.047,-0.01404,-0.02182,-0.00793,-0.00916,0.03464,-0.02563,-0.05219,0.009,-0.03693
5.765,0.01495,-0.05249,-0.01129,0.02502,-0.04868,-0.00381,-0.05676,-0.01663,-0.02426,-0.00946,-0.01038,0.00183,-0.03647,-0.09857,0.00793,-0.04288
5.7655,0.01266,-0.05402,-0.02243,0.06775,-0.03677,-0.03159,-0.04272,-0.01678,-0.02655,-0.0029,-0.01282,-0.04684,-0.04272,-0.11612,0.00595,-0.04578
5.766,0.0029,-0.05356,-0.02731,0.065,-0.02151,-0.05829,-0.02777,-0.01404,-0.02609,0.00214,-0.01785,-0.07019,-0.04288,-0.08606,0.00381,-0.04684
5.7665,-0.00977,-0.04929,-0.0293,0.01816,-0.01114,-0.06851,-0.02777,-0.01068,-0.02365,0.00137,-0.02304,-0.04669,-0.0415,-0.04135,0.00458,-0.04761
5.767,-0.0177,-0.04395,-0.03082,-0.01373,-0.00656,-0.06851,-0.01648,-0.00702,-0.02182,-0.01007,-0.02426,-0.00504,-0.04105,-0.01816,0.00458,-0.04807
5.7675,-0.01541,-0.0412,-0.03235,-0.01068,-0.00183,-0.06622,0.0267,-0.00443,-0.0235,-0.03036,-0.02121,0.00839,-0.04303,-0.01495,0.00488,-0.04715
5.768,-0.00839,-0.04349,-0.0325,-0.02838,0.00656,-0.05997,0.06561,-0.00351,-0.02762,-0.04684,-0.02228,-0.00946,-0.04944,-0.01114,0.00763,-0.0444
5.7685,-0.00473,-0.04822,-0.03311,-0.09979,0.01389,-0.04807,0.05066,-0.0058,-0.03281,-0.04929,-0.03571,-0.0206,-0.05493,0.00336,0.01053,-0.04242
5.769,-0.00732,-0.05051,-0.03433,-0.17761,0.02274,-0.03342,-0.00549,-0.00732,-0.03891,-0.04074,-0.05371,0.00244,-0.05539,0.01083,0.01068,-0.04333
5.7695,-0.0116,-0.04837,-0.03387,-0.18845,0.03082,-0.01801,-0.04654,-0.00854,-0.04196,-0.03021,-0.05066,0.04623,-0.04974,-0.01801,0.0087,-0.04532
5.77,-0.01434,-0.0444,-0.03143,-0.11368,0.0322,0.00244,-0.05157,-0.0087,-0.0386,-0.02197,-0.0177,0.07263,-0.04471,-0.07858,0.00656,-0.04547
5.7705,-0.01694,-0.03998,-0.02502,0.00916,0.02853,0.03113,-0.0415,-0.00778,-0.03143,-0.01312,0.02472,0.05783,-0.04257,-0.12512,0.00595,-0.04456
5.771,-0.01999,-0.03616,-0.01541,0.13428,0.02121,0.06332,-0.02747,-0.00549,-0.02609,-0.00854,0.05112,0.01373,-0.03998,-0.1178,0.00732,-0.04272
5.7715,-0.02228,-0.03159,-0.0061,0.25024,0.01221,0.07828,0.0,-0.00259,-0.02274,-0.00305,0.0589,-0.01984,-0.03769,-0.07507,0.0087,-0.04196
5.772,-0.02289,-0.02655,-0.00549,0.36362,0.00229,0.06531,0.03265,-0.00031,-0.02121,0.00107,0.0592,-0.01724,-0.03189,-0.04669,0.00885,-0.0412
5.7725,-0.02304,-0.02197,-0.0148,0.43488,-0.01144,0.03525,0.04486,0.00122,-0.02045,0.00565,0.05524,0.00336,-0.02548,-0.04593,0.01038,-0.04105
5.773,-0.02151,-0.01984,-0.02777,0.38284,-0.02838,0.00732,0.02747,0.00092,-0.0206,0.00824,0.04517,0.00549,-0.01984,-0.04974,0.00916,-0.04181
5.7735,-0.01755,-0.02075,-0.03906,0.18906,-0.04501,-0.01175,0.00153,-0.00183,-0.02045,0.00809,0.02823,-0.02426,-0.01816,-0.04028,0.00641,-0.04242
5.774,-0.01175,-0.02426,-0.05173,-0.0473,-0.05829,-0.02441,-0.01175,-0.00687,-0.01892,0.00732,0.01068,-0.05829,-0.0235,-0.0238,0.00549,-0.04211
5.7745,-0.00656,-0.02808,-0.06805,-0.19638,-0.06638,-0.04211,-0.01205,-0.01221,-0.01663,0.00778,-0.00549,-0.0621,-0.03296,-0.01785,0.00565,-0.03998
5.775,-0.00519,-0.03052,-0.08209,-0.21317,-0.06943,-0.07767,-0.01068,-0.01434,-0.01511,0.0061,-0.01953,-0.03159,-0.03906,-0.03128,0.0058,-0.03876
5.7755,-0.00809,-0.03082,-0.0853,-0.13458,-0.07446,-0.12512,-0.01099,-0.01236,-0.01251,0.00336,-0.03189,0.00412,-0.03906,-0.05402,0.00488,-0.03891
5.776,-0.01389,-0.03204,-0.07996,-0.01862,-0.07645,-0.15198,-0.00946,-0.00885,-0.00992,-0.00259,-0.04105,0.02289,-0.03311,-0.0589,0.00412,-0.0412
5.7765,-0.01999,-0.03922,-0.07568,0.08774,-0.07568,-0.13443,-0.00778,-0.00626,-0.0058,-0.00519,-0.04257,0.03021,-0.02594,-0.03067,0.00412,-0.04181
5.777,-0.0235,-0.05005,-0.07874,0.15564,-0.07126,-0.0914,-0.00763,-0.00778,-0.00229,-0.00809,-0.03784,0.0296,-0.01999,0.0029,0.00412,-0.04257
5.7775,-0.02411,-0.05936,-0.08667,0.16617,-0.06897,-0.05783,-0.01068,-0.01221,0.0,-0.0116,-0.03448,0.01358,-0.01648,0.00702,0.00366,-0.04135
5.778,-0.0238,-0.06531,-0.08255,0.09064,-0.0676,-0.03815,-0.01389,-0.01434,0.00259,-0.01343,-0.03693,-0.01556,-0.01633,-0.01923,0.00534,-0.04166
5.7785,-0.02396,-0.07431,-0.05905,-0.06714,-0.06851,-0.01663,-0.01404,-0.01083,0.00549,-0.01801,-0.04364,-0.0383,-0.01999,-0.03159,0.00793,-0.04211
5.779,-0.02243,-0.08743,-0.02533,-0.21912,-0.06683,0.0119,-0.01236,-0.00473,0.0087,-0.02274,-0.04684,-0.03677,-0.0293,0.00763,0.00961,-0.04227
5.7795,-0.01877,-0.09598,-0.00107,-0.24719,-0.06058,0.03677,-0.00946,-0.00076,0.00946,-0.02502,-0.04227,-0.01755,-0.03815,0.07523,0.01053,-0.04196
5.78,-0.01648,-0.09445,0.00702,-0.14648,-0.05157,0.04669,-0.00732,-0.00015,0.00687,-0.02625,-0.03281,0.00427,-0.0412,0.10056,0.00977,-0.03983
5.7805,-0.02441,-0.08423,0.00183,-0.04318,-0.04486,0.04059,-0.0058,-0.00076,0.00076,-0.02914,-0.02457,0.02197,-0.03601,0.05234,0.01038,-0.03769
5.781,-0.04501,-0.07233,-0.00534,-0.05783,-0.04395,0.02243,-0.00534,-0.00031,-0.00641,-0.0351,-0.01953,0.03494,-0.02899,-0.00992,0.01038,-0.03799
5.7815,-0.06866,-0.06134,-0.00763,-0.17563,-0.04791,0.0087,-0.0061,0.00092,-0.01282,-0.03632,-0.01831,0.03326,-0.02899,-0.01984,0.009,-0.03876
5.782,-0.07813,-0.04883,0.00015,-0.29434,-0.05417,0.01526,-0.00671,0.00214,-0.0174,-0.03601,-0.01892,0.01099,-0.03754,0.00687,0.00519,-0.03983
5.7825,-0.06729,-0.03571,0.01205,-0.34882,-0.05875,0.0354,-0.00473,0.00381,-0.01907,-0.03342,-0.01678,-0.02121,-0.04791,0.00763,0.00107,-0.04044
5.783,-0.04684,-0.02548,0.02136,-0.34241,-0.05524,0.02716,-0.00183,0.00381,-0.01907,-0.03479,-0.0145,-0.04181,-0.05661,-0.03403,0.00137,-0.03891
5.7835,-0.03265,-0.01968,0.01877,-0.29251,-0.04684,-0.03448,-0.0029,0.00198,-0.01724,-0.03555,-0.0145,-0.04135,-0.0592,-0.08331,0.00519,-0.0383
5.784,-0.02792,-0.01678,-0.00397,-0.22293,-0.0354,-0.11948,-0.00793,-0.00244,-0.01511,-0.03464,-0.0148,-0.02441,-0.05829,-0.10925,0.00946,-0.03922
5.7845,-0.02426,-0.01282,-0.04776,-0.20355,-0.02792,-0.16174,-0.01297,-0.00732,-0.01434,-0.03387,-0.01572,-0.00671,-0.0563,-0.11688,0.01205,-0.04166
5.785,-0.01907,-0.00488,-0.10544,-0.30304,-0.02365,-0.14404,-0.01541,-0.01129,-0.01495,-0.03342,-0.01678,0.00305,-0.05295,-0.11581,0.01266,-0.04196
5.7855,-0.01266,0.0058,-0.16815,-0.48691,-0.02258,-0.11261,-0.01602,-0.00885,-0.01663,-0.03204,-0.01755,0.00549,-0.04654,-0.09674,0.01236,-0.04318
5.786,-0.009,0.01648,-0.22278,-0.60867,-0.02228,-0.11154,-0.0145,-0.00168,-0.01816,-0.03235,-0.01694,0.00519,-0.0354,-0.04776,0.01221,-0.04379
5.7865,-0.01236,0.02228,-0.25406,-0.50858,-0.02106,-0.10941,-0.01328,0.00473,-0.01892,-0.03021,-0.01633,0.00519,-0.0235,0.00854,0.01175,-0.04425
5.787,-0.02533,0.01999,-0.24704,-0.1532,-0.02136,-0.06546,-0.01221,0.0058,-0.01801,-0.02899,-0.01602,0.00275,-0.01266,0.03723,0.01328,-0.04562
5.7875,-0.03922,0.01419,-0.2005,0.29495,-0.02487,-0.00488,-0.01221,0.00214,-0.01556,-0.02731,-0.01572,0.0,-0.00259,0.03571,0.01541,-0.04684
5.788,-0.03784,0.00793,-0.12909,0.59189,-0.02991,0.00671,-0.01465,-0.0029,-0.01266,-0.02411,-0.01572,-0.00198,0.00839,0.03448,0.01465,-0.04578
5.7885,-0.01785,0.00412,-0.05356,0.63812,-0.03632,-0.0444,-0.01801,-0.0058,-0.01068,-0.01953,-0.01404,-0.00336,0.01984,0.04074,0.0116,-0.04486
5.789,0.0058,0.00183,-0.00092,0.52383,-0.04456,-0.09918,-0.01938,-0.00534,-0.01144,-0.01602,-0.01266,-0.00473,0.02914,0.03311,0.00763,-0.04211
5.7895,0.01877,-0.00336,0.00809,0.35492,-0.05188,-0.1001,-0.01801,-0.00076,-0.01297,-0.01465,-0.01038,-0.00443,0.03235,-0.00015,0.00473,-0.0383
5.79,0.01892,-0.01755,-0.0177,0.15732,-0.05569,-0.05478,-0.0148,0.00259,-0.01404,-0.01526,-0.00717,-0.00366,0.02502,-0.03723,0.00443,-0.0351
5.7905,0.01282,-0.03738,-0.03983,-0.04684,-0.05478,-0.01678,-0.01266,0.00122,-0.01312,-0.01694,-0.00671,-0.00336,0.00565,-0.05035,0.00488,-0.03555
5.791,0.00595,-0.05463,-0.02731,-0.20706,-0.05066,-0.02014,-0.01404,-0.00412,-0.01266,-0.01923,-0.00793,-0.00381,-0.02213,-0.03937,0.00092,-0.03647
5.7915,0.00198,-0.06409,0.01556,-0.31082,-0.04654,-0.0502,-0.01678,-0.01007,-0.01434,-0.02075,-0.00946,-0.00412,-0.04593,-0.02151,-0.00824,-0.03799
5.792,0.00305,-0.06561,0.0528,-0.37766,-0.04196,-0.07599,-0.0206,-0.01266,-0.01755,-0.02167,-0.01022,-0.00244,-0.05783,-0.00854,-0.01465,-0.03769
5.7925,0.01083,-0.06348,0.06714,-0.3653,-0.03616,-0.08301,-0.02258,-0.01251,-0.02167,-0.02213,-0.00916,0.00153,-0.06332,0.00061,-0.01328,-0.03418
5.793,0.01938,-0.06226,0.07462,-0.19135,-0.02808,-0.07736,-0.0235,-0.01144,-0.02335,-0.02213,-0.00931,0.0087,-0.07126,0.00458,-0.00381,-0.02777
5.7935,0.02213,-0.06088,0.09613,0.09369,-0.02121,-0.06744,-0.02319,-0.01373,-0.02075,-0.02228,-0.00793,0.01602,-0.08179,0.00443,0.00397,-0.02304
5.794,0.01526,-0.05814,0.12848,0.28671,-0.01938,-0.05707,-0.02411,-0.01678,-0.01541,-0.02289,-0.00626,0.01724,-0.08881,0.00137,-0.00015,-0.01877
5.7945,0.00626,-0.05539,0.14587,0.26001,-0.01984,-0.05234,-0.02609,-0.01984,-0.01221,-0.0238,-0.00595,0.0116,-0.09079,-0.00015,-0.01511,-0.01541
5.795,0.00183,-0.05341,0.12833,0.11124,-0.02014,-0.05905,-0.02731,-0.01999,-0.01358,-0.02472,-0.00839,0.00458,-0.09018,-0.00031,-0.02274,-0.01114
5.7955,0.00595,-0.05066,0.07614,0.0177,-0.01938,-0.07172,-0.02472,-0.0177,-0.02228,-0.02411,-0.0119,0.00229,-0.08774,-0.00107,-0.00595,-0.009
5.796,0.01022,-0.04639,0.01297,0.02762,-0.01633,-0.07645,-0.02121,-0.01434,-0.03189,-0.02457,-0.01556,0.00137,-0.07843,-0.00366,0.02106,-0.01022
5.7965,0.00732,-0.0412,-0.0351,0.05463,-0.01236,-0.07111,-0.01862,-0.01099,-0.03708,-0.02487,-0.01572,-0.00275,-0.06348,-0.00595,0.02945,-0.01495
5.797,-0.00015,-0.03922,-0.05875,0.01999,-0.00748,-0.06393,-0.01907,-0.00809,-0.03586,-0.02518,-0.01343,-0.009,-0.047,-0.0087,0.00977,-0.02121
5.7975,-0.00366,-0.04196,-0.06302,-0.0589,-0.00687,-0.06287,-0.01862,-0.00488,-0.03265,-0.02686,-0.01083,-0.01053,-0.03204,-0.01389,-0.0206,-0.02731
5.798,-0.00214,-0.04654,-0.05325,-0.1088,-0.00656,-0.06577,-0.01724,-0.00244,-0.03189,-0.02823,-0.00931,-0.0061,-0.01709,-0.02151,-0.04974,-0.03479
5.7985,0.00061,-0.0499,-0.03326,-0.08865,-0.00656,-0.06622,-0.01709,-0.00137,-0.03143,-0.03326,-0.01144,-0.00244,-0.00549,-0.0296,-0.08026,-0.04593
5.799,-0.00031,-0.05005,-0.00549,-0.01465,-0.00549,-0.06531,-0.01846,-0.00229,-0.02975,-0.04242,-0.01587,-0.00504,-0.00275,-0.0351,-0.09476,-0.0621
5.7995,-0.00488,-0.04822,0.01923,0.0766,-0.00397,-0.06821,-0.02045,-0.00366,-0.02548,-0.04883,-0.01923,-0.01038,-0.00885,-0.03555,-0.07111,-0.07889
5.8,-0.01038,-0.04532,0.03159,0.159,-0.00473,-0.07034,-0.0206,-0.00412,-0.02243,-0.04578,-0.01511,-0.01144,-0.01511,-0.03235,-0.01755,-0.09018
5.8005,-0.0145,-0.04532,0.02777,0.21057,-0.00671,-0.06775,-0.01816,-0.0032,-0.02121,-0.03693,-0.0061,-0.00458,-0.01648,-0.02823,0.03448,-0.09491
5.801,-0.0177,-0.05005,0.0116,0.21439,-0.01068,-0.0589,-0.01556,-0.00259,-0.02121,-0.02823,0.00031,0.00366,-0.01404,-0.02411,0.06912,-0.09277
5.8015,-0.01907,-0.05753,-0.00793,0.18433,-0.01587,-0.04776,-0.01312,-0.00305,-0.01846,-0.02426,-0.00015,0.00854,-0.01175,-0.02213,0.09415,-0.0853
5.802,-0.0206,-0.06165,-0.02502,0.15854,-0.02106,-0.0383,-0.01343,-0.00305,-0.0087,-0.02533,-0.0029,0.00916,-0.00793,-0.02594,0.11063,-0.07492
5.8025,-0.02213,-0.06012,-0.03922,0.15808,-0.02411,-0.03281,-0.01511,-0.00259,0.00687,-0.03082,-0.00488,0.00763,-0.00183,-0.03601,0.11017,-0.06317
5.803,-0.02304,-0.05447,-0.05219,0.1535,-0.03113,-0.03403,-0.01678,-0.00137,0.02151,-0.03479,-0.0061,0.0061,0.00076,-0.05219,0.09689,-0.05341
5.8035,-0.02228,-0.05173,-0.06348,0.12146,-0.03967,-0.03952,-0.0177,0.00092,0.02686,-0.03082,-0.00854,0.00488,-0.00504,-0.0647,0.09018,-0.04547
5.804,-0.01877,-0.05569,-0.07095,0.07843,-0.04883,-0.04364,-0.01846,0.00351,0.02335,-0.0206,-0.01129,0.00809,-0.01709,-0.06851,0.09766,-0.03464
5.8045,-0.01236,-0.06302,-0.0737,0.05264,-0.05219,-0.0441,-0.0206,0.00671,0.0148,-0.01343,-0.01434,0.01389,-0.03006,-0.06638,0.10452,-0.02441
5.805,-0.00412,-0.07111,-0.07355,0.03708,-0.04852,-0.04135,-0.02167,0.0087,0.00565,-0.01556,-0.01694,0.01816,-0.03845,-0.06561,0.10025,-0.01953
5.8055,0.00427,-0.08011,-0.07538,0.00748,-0.04196,-0.04028,-0.02106,0.01114,-0.00244,-0.02731,-0.02121,0.0148,-0.04105,-0.0592,0.08804,-0.02411
5.806,0.00992,-0.09125,-0.08331,-0.04349,-0.03738,-0.04089,-0.01907,0.01282,-0.01083,-0.03769,-0.02686,0.00641,-0.04166,-0.03174,0.0824,-0.03738
5.8065,0.00977,-0.10086,-0.1001,-0.09064,-0.03113,-0.0441,-0.01648,0.01328,-0.02319,-0.0383,-0.03235,-0.00229,-0.04257,0.0177,0.0827,-0.05112
5.807,0.00458,-0.10025,-0.11841,-0.1062,-0.02884,-0.05173,-0.01556,0.01129,-0.03677,-0.02686,-0.0351,-0.00732,-0.04074,0.05783,0.07385,-0.06302
5.8075,-0.00214,-0.08682,-0.11887,-0.09628,-0.02625,-0.06439,-0.01465,0.00793,-0.04715,-0.00931,-0.03403,-0.00671,-0.03754,0.05493,0.04654,-0.07309
5.808,-0.00687,-0.06592,-0.08942,-0.09613,-0.02411,-0.07645,-0.01495,0.00214,-0.04776,0.00565,-0.03143,-0.00397,-0.03632,0.02335,0.00885,-0.08179
5.8085,-0.00885,-0.0444,-0.03738,-0.1152,-0.0264,-0.07797,-0.0177,-0.00763,-0.0386,0.01511,-0.03159,-0.0029,-0.0383,0.01511,-0.02182,-0.08987
5.809,-0.01007,-0.02777,0.01678,-0.11581,-0.03235,-0.07172,-0.02258,-0.01953,-0.0267,0.01953,-0.03204,-0.00488,-0.04059,0.0473,-0.03967,-0.09506
5.8095,-0.01129,-0.01816,0.04959,-0.06393,-0.03906,-0.06622,-0.02609,-0.02747,-0.02121,0.02197,-0.03006,-0.00793,-0.03906,0.06958,-0.04776,-0.09567
5.81,-0.01236,-0.01648,0.04669,0.01419,-0.04486,-0.06195,-0.02609,-0.02838,-0.02731,0.02121,-0.02472,-0.00748,-0.03647,0.04181,-0.05341,-0.09033
5.8105,-0.01312,-0.01663,0.0177,0.05325,-0.04807,-0.04654,-0.02518,-0.02518,-0.04059,0.01968,-0.01907,-0.00626,-0.03647,-0.01175,-0.05936,-0.08118
5.811,-0.01205,-0.01282,-0.01389,0.03204,-0.04974,-0.01007,-0.02625,-0.02029,-0.05295,0.0177,-0.01633,-0.00473,-0.03769,-0.03952,-0.06241,-0.07019
5.8115,-0.00977,-0.00504,-0.03662,-0.02045,-0.05203,0.03006,-0.02853,-0.01648,-0.05981,0.01755,-0.0177,-0.00244,-0.03632,-0.0322,-0.05707,-0.06088
5.812,-0.00732,0.00137,-0.05417,-0.08347,-0.05493,0.04303,-0.03052,-0.01709,-0.06302,0.01694,-0.01999,0.00198,-0.0322,-0.01755,-0.04242,-0.05646
5.8125,-0.00641,-0.00107,-0.07416,-0.17181,-0.05356,0.0209,-0.03067,-0.02014,-0.06363,0.01709,-0.0206,0.00793,-0.02838,-0.01556,-0.02228,-0.05234
5.813,-0.00778,-0.01007,-0.09155,-0.27863,-0.05081,-0.00931,-0.02853,-0.02228,-0.06012,0.01495,-0.01938,0.01282,-0.02472,-0.01968,-0.0058,-0.04303
5.8135,-0.01053,-0.0235,-0.1004,-0.3598,-0.04532,-0.02197,-0.02686,-0.01862,-0.0531,0.01022,-0.0177,0.01511,-0.02289,-0.01862,-0.00076,-0.03128
5.814,-0.0119,-0.03998,-0.10178,-0.38254,-0.04364,-0.01495,-0.02625,-0.01266,-0.04562,0.00565,-0.01587,0.01373,-0.0238,-0.01526,-0.00626,-0.01999
5.8145,-0.01343,-0.05844,-0.10101,-0.33386,-0.04471,-0.00763,-0.02686,-0.00687,-0.03906,0.00076,-0.01556,0.00763,-0.02914,-0.01465,-0.01678,-0.01953
5.815,-0.01801,-0.07416,-0.10101,-0.18494,-0.04547,-0.01236,-0.02716,-0.00183,-0.02975,-0.00046,-0.01434,0.00092,-0.03632,-0.01602,-0.02411,-0.02884
5.8155,-0.0267,-0.0827,-0.0943,0.08118,-0.04288,-0.0322,-0.02625,0.0032,-0.01953,-0.00137,-0.01373,-0.00412,-0.0412,-0.01389,-0.02991,-0.03662
5.816,-0.03189,-0.08255,-0.07324,0.36804,-0.03738,-0.05219,-0.02396,0.00763,-0.01312,-0.00336,-0.01419,-0.00549,-0.04211,-0.00641,-0.03616,-0.04059
5.8165,-0.02792,-0.07935,-0.03387,0.50064,-0.03159,-0.05966,-0.02228,0.00824,-0.0119,-0.00778,-0.01602,-0.00366,-0.03616,-0.00305,-0.03922,-0.0386
5.817,-0.01999,-0.07446,0.01343,0.42816,-0.02747,-0.05325,-0.02197,0.00366,-0.01251,-0.01358,-0.0174,-0.00031,-0.02258,-0.01221,-0.03693,-0.03708
5.8175,-0.01801,-0.06653,0.04807,0.28259,-0.02731,-0.04852,-0.02151,-0.00061,-0.01434,-0.01785,-0.01724,0.00351,-0.00275,-0.0325,-0.03693,-0.03601
5.818,-0.02335,-0.05737,0.05768,0.18723,-0.0296,-0.06256,-0.02106,-0.00244,-0.0148,-0.02075,-0.01724,0.00641,0.01633,-0.04913,-0.04776,-0.03067
5.8185,-0.02731,-0.04852,0.06241,0.11795,-0.0325,-0.09308,-0.02335,-0.00443,-0.01297,-0.02106,-0.01694,0.00763,0.02823,-0.05035,-0.06134,-0.02686
5.819,-0.02197,-0.03906,0.06943,0.01419,-0.03235,-0.11459,-0.02609,-0.00839,-0.01205,-0.0209,-0.01541,0.00702,0.02792,-0.0441,-0.06668,-0.02258
5.8195,-0.01038,-0.03036,0.05295,-0.09521,-0.02899,-0.10239,-0.02533,-0.01221,-0.01068,-0.02136,-0.01053,0.00793,0.01923,-0.04349,-0.06424,-0.02319
5.82,0.0,-0.02182,-0.00183,-0.14633,-0.02319,-0.06454,-0.02258,-0.01328,-0.00854,-0.02136,-0.00702,0.00931,0.01114,-0.05096,-0.06882,-0.02365
5.8205,0.00366,-0.0119,-0.05981,-0.13718,-0.01816,-0.03769,-0.02319,-0.01389,-0.00702,-0.0209,-0.00671,0.00992,0.009,-0.05493,-0.08102,-0.02228
5.821,0.00198,0.00153,-0.07248,-0.10956,-0.01694,-0.03922,-0.02762,-0.01602,-0.00671,-0.02029,-0.00824,0.0087,0.00763,-0.04883,-0.07431,-0.02304
5.8215,-0.00214,0.01602,-0.04333,-0.08926,-0.01785,-0.05249,-0.03174,-0.01892,-0.00748,-0.02075,-0.00916,0.00519,0.00336,-0.03525,-0.0267,-0.02731
5.822,-0.00671,0.02304,-0.01572,-0.07492,-0.01984,-0.05615,-0.03143,-0.0209,-0.00717,-0.01984,-0.00839,0.00275,-0.00275,-0.02335,0.0267,-0.03143
5.8225,-0.01205,0.01862,-0.01678,-0.06653,-0.02274,-0.05325,-0.02762,-0.01801,-0.00702,-0.0174,-0.00931,0.00122,-0.01419,-0.01709,0.0354,-0.0354
5.823,-0.01678,0.00687,-0.03586,-0.06882,-0.02792,-0.06073,-0.02563,-0.0119,-0.00824,-0.01831,-0.01114,0.00046,-0.03326,-0.01877,0.00626,-0.03571
5.8235,-0.02075,-0.00443,-0.04868,-0.08087,-0.03342,-0.07736,-0.02625,-0.00626,-0.0119,-0.02029,-0.01282,-0.00046,-0.05737,-0.02396,-0.01068,-0.03647
5.824,-0.02533,-0.01221,-0.04669,-0.09018,-0.03693,-0.08362,-0.02701,-0.00443,-0.01312,-0.02396,-0.0116,-0.00031,-0.07751,-0.02518,0.00076,-0.03845
5.8245,-0.03052,-0.01877,-0.03632,-0.08743,-0.03845,-0.06454,-0.02472,-0.00351,-0.0116,-0.02487,-0.00961,0.00046,-0.0856,-0.02106,0.01755,-0.04318
5.825,-0.03387,-0.02823,-0.02747,-0.07553,-0.03708,-0.02975,-0.02029,-0.00153,-0.00916,-0.02548,-0.01007,0.00061,-0.08286,-0.01633,0.03128,-0.04196
5.8255,-0.02869,-0.0412,-0.03067,-0.06363,-0.03387,-0.00229,-0.01678,0.00168,-0.00824,-0.02426,-0.01236,0.0,-0.0769,-0.01495,0.05676,-0.03632
5.826,-0.01144,-0.05249,-0.04745,-0.05951,-0.03113,0.00809,-0.01404,0.00351,-0.00916,-0.02518,-0.01373,-0.00214,-0.07721,-0.01678,0.08453,-0.02853
5.8265,0.01114,-0.05646,-0.06378,-0.06332,-0.03021,0.00015,-0.01297,0.00351,-0.01068,-0.02747,-0.01465,-0.00427,-0.0853,-0.01831,0.07141,-0.01907
5.827,0.03189,-0.05661,-0.05661,-0.07034,-0.03021,-0.03128,-0.01175,0.00259,-0.01205,-0.02945,-0.01434,-0.00549,-0.09521,-0.01434,0.00626,-0.01144
5.8275,0.0415,-0.05783,-0.01755,-0.07736,-0.02945,-0.09369,-0.01251,0.00153,-0.01175,-0.03082,-0.01572,-0.00443,-0.10559,-0.00244,-0.05692,-0.00992
5.828,0.04059,-0.06027,0.02457,-0.08347,-0.02655,-0.16998,-0.01633,0.00214,-0.01083,-0.03098,-0.01648,-0.00336,-0.11368,0.01083,-0.06622,-0.0177
5.8285,0.03281,-0.05829,0.03403,-0.08865,-0.02563,-0.20615,-0.02457,0.00412,-0.01022,-0.03113,-0.01617,-0.00366,-0.11642,0.01358,-0.0293,-0.0293
5.829,0.02136,-0.05417,0.00229,-0.09247,-0.03006,-0.16953,-0.03494,0.00473,-0.01022,-0.03174,-0.01541,-0.0061,-0.1123,0.00153,0.01816,-0.04486
5.8295,0.01312,-0.05203,-0.03998,-0.09491,-0.03906,-0.08911,-0.0444,0.00595,-0.00977,-0.03189,-0.01419,-0.00732,-0.09918,-0.01251,0.06836,-0.06317
5.83,0.00992,-0.05493,-0.06256,-0.09766,-0.0473,-0.02121,-0.05249,0.00656,-0.00946,-0.02914,-0.01312,-0.00702,-0.08286,-0.01495,0.11444,-0.07935
5.8305,0.01068,-0.05814,-0.06729,-0.10147,-0.0502,0.00427,-0.06317,0.00778,-0.009,-0.02716,-0.01205,-0.00534,-0.07217,-0.00809,0.13062,-0.09201
5.831,0.01129,-0.05646,-0.07248,-0.10376,-0.04654,0.0058,-0.07416,0.00809,-0.00763,-0.0267,-0.01144,-0.00351,-0.07278,-0.00214,0.11169,-0.10361
5.8315,0.01358,-0.04913,-0.08621,-0.10437,-0.03967,0.00153,-0.07294,0.009,-0.00687,-0.02625,-0.01175,-0.00137,-0.08255,0.00122,0.09674,-0.12436
5.832,0.02075,-0.04044,-0.10315,-0.10345,-0.03571,0.00214,-0.05829,0.01053,-0.00687,-0.02533,-0.01099,0.00168,-0.09811,0.00275,0.11765,-0.15762
5.8325,0.03067,-0.03235,-0.11459,-0.09903,-0.03601,0.00275,-0.04593,0.00946,-0.00854,-0.02457,-0.01144,0.00366,-0.10895,-0.00031,0.14694,-0.20157
5.833,0.03586,-0.02533,-0.11444,-0.09018,-0.03723,0.00259,-0.04456,0.0058,-0.01007,-0.02563,-0.01144,0.00397,-0.10437,-0.01022,0.14023,-0.23819
5.8335,0.02975,-0.02228,-0.09888,-0.0766,-0.0351,-0.00061,-0.03342,0.00214,-0.00977,-0.02747,-0.01129,0.00259,-0.07889,-0.02472,0.11337,-0.2121
5.834,0.01312,-0.02319,-0.07065,-0.06012,-0.03296,-0.01053,0.01022,0.00229,-0.00916,-0.02914,-0.01343,-0.00107,-0.04333,-0.03723,0.10025,-0.0914
5.8345,-0.00885,-0.02686,-0.04166,-0.04166,-0.03235,-0.02869,0.06546,0.00397,-0.00931,-0.03067,-0.01434,-0.00473,-0.01572,-0.04715,0.08118,0.0853
5.835,-0.02853,-0.02838,-0.02686,-0.02289,-0.03265,-0.04852,0.08499,0.00519,-0.01068,-0.03098,-0.01434,-0.0061,-0.00351,-0.05142,0.01923,0.20203
5.8355,-0.03616,-0.02716,-0.02975,-0.00229,-0.0325,-0.05981,0.05676,0.00305,-0.01266,-0.0293,-0.0145,-0.00504,0.00076,-0.04822,-0.05707,0.18417
5.836,-0.02747,-0.02945,-0.04501,0.01785,-0.03159,-0.06134,0.01877,0.00183,-0.01419,-0.02777,-0.0145,-0.00504,0.00336,-0.04227,-0.07721,0.0737
5.8365,-0.01129,-0.03799,-0.05295,0.04059,-0.03433,-0.05829,0.01373,0.0032,-0.01373,-0.0264,-0.01465,-0.00687,0.00244,-0.04242,-0.02258,-0.04211
5.837,0.00061,-0.04807,-0.04089,0.06546,-0.03525,-0.05508,0.04333,0.00946,-0.01358,-0.02625,-0.01389,-0.00961,-0.00381,-0.04745,0.04547,-0.08957
5.8375,0.00519,-0.05417,-0.00885,0.09308,-0.03235,-0.05295,0.07599,0.01968,-0.01297,-0.02441,-0.0148,-0.01144,-0.01801,-0.04608,0.06226,-0.07507
5.838,0.00916,-0.05585,0.0235,0.12314,-0.02563,-0.05035,0.08636,0.02701,-0.01312,-0.02228,-0.01465,-0.01114,-0.03937,-0.03601,0.02747,-0.04608
5.8385,0.01663,-0.05478,0.03677,0.15411,-0.02014,-0.04456,0.07523,0.02655,-0.01312,-0.01968,-0.01434,-0.00931,-0.05356,-0.03021,-0.00488,-0.05966
5.839,0.02502,-0.0528,0.02899,0.18066,-0.01953,-0.03281,0.06393,0.01892,-0.01282,-0.01831,-0.01389,-0.009,-0.04089,-0.03662,0.00671,-0.10422
5.8395,0.03036,-0.04929,0.01343,0.20477,-0.02045,-0.02289,0.06454,0.01007,-0.01251,-0.01556,-0.01297,-0.01022,-0.00595,-0.04501,0.05005,-0.13535
5.84,0.03494,-0.04532,-0.00824,0.22751,-0.02045,-0.02075,0.06027,0.00305,-0.01297,-0.01297,-0.01068,-0.01129,0.02106,-0.04242,0.08072,-0.13016
5.8405,0.03769,-0.04364,-0.04181,0.24582,-0.01785,-0.02808,0.03036,0.0,-0.01511,-0.01099,-0.00916,-0.01144,0.02228,-0.0325,0.06683,-0.10788
5.841,0.03616,-0.0444,-0.07889,0.26047,-0.01968,-0.04074,-0.02228,0.00137,-0.01755,-0.01007,-0.01007,-0.01099,0.01144,-0.02457,0.01663,-0.09842
5.8415,0.03021,-0.04715,-0.10223,0.2742,-0.02563,-0.05173,-0.06485,0.00687,-0.01831,-0.01068,-0.01083,-0.01038,0.01114,-0.02075,-0.047,-0.11765
5.842,0.02502,-0.05005,-0.11002,0.28885,-0.0296,-0.05783,-0.07919,0.01175,-0.01724,-0.01221,-0.01022,-0.00732,0.02518,-0.01892,-0.10056,-0.15381
5.8425,0.02274,-0.04745,-0.11887,0.30212,-0.0293,-0.0563,-0.08041,0.01404,-0.01495,-0.01236,-0.00778,-0.0029,0.03983,-0.02182,-0.11505,-0.1593
5.843,0.0267,-0.03998,-0.13824,0.31631,-0.02151,-0.05539,-0.09155,0.01373,-0.01434,-0.01129,-0.0061,0.00275,0.0412,-0.03555,-0.07507,-0.1152
5.8435,0.03815,-0.03357,-0.15442,0.3363,-0.01511,-0.06256,-0.10651,0.01404,-0.01343,-0.01007,-0.00671,0.00473,0.03189,-0.0563,0.00061,-0.01831
5.844,0.05585,-0.03693,-0.14313,0.35889,-0.01251,-0.06958,-0.10239,0.01358,-0.01343,-0.01099,-0.00778,0.00198,0.02411,-0.06882,0.0708,0.08179
5.8445,0.06561,-0.04684,-0.09735,0.3833,-0.01144,-0.0592,-0.07263,0.01419,-0.01419,-0.01328,-0.00931,-0.00336,0.02472,-0.06149,0.09979,0.14999
5.845,0.05646,-0.05569,-0.04608,0.41199,-0.00763,-0.02899,-0.02472,0.01511,-0.01648,-0.01419,-0.01038,-0.00534,0.03036,-0.04059,0.08438,0.17456
5.8455,0.0351,-0.06012,-0.02518,0.4422,-0.00305,0.00473,0.03799,0.01694,-0.01923,-0.01419,-0.01144,-0.00305,0.02975,-0.02289,0.04501,0.17746
5.846,0.01953,-0.05997,-0.03952,0.46524,-0.00397,0.03265,0.10834,0.01587,-0.0206,-0.01419,-0.01175,0.00061,0.0145,-0.01083,0.01343,0.16357
5.8465,0.01617,-0.05737,-0.05798,0.47516,-0.00992,0.0618,0.16174,0.01114,-0.02014,-0.01617,-0.01282,0.00229,-0.01144,0.00305,-0.00092,0.14023
5.847,0.01907,-0.05417,-0.05249,0.47531,-0.0177,0.08179,0.17273,0.00732,-0.01953,-0.0177,-0.0145,0.00168,-0.03876,0.02304,-0.00793,0.10147
5.8475,0.01892,-0.05035,-0.02838,0.47165,-0.02701,0.0441,0.13382,0.00687,-0.01694,-0.01755,-0.0148,0.00015,-0.06836,0.04761,-0.02655,0.05966
5.848,0.0119,-0.0473,-0.00305,0.46631,-0.03571,-0.07767,0.06165,0.00824,-0.01648,-0.01587,-0.01434,-0.00015,-0.10269,0.07233,-0.04959,0.0267
5.8485,0.00473,-0.04181,0.01541,0.45914,-0.0415,-0.21591,-0.00763,0.01038,-0.01663,-0.01419,-0.01297,-0.00168,-0.13885,0.08972,-0.0618,-0.0029
5.849,0.00183,-0.03342,0.02655,0.45181,-0.03616,-0.26703,-0.0412,0.01617,-0.01801,-0.01419,-0.01328,-0.00412,-0.15869,0.09232,-0.06149,-0.03204
5.8495,0.00092,-0.02319,0.02808,0.44418,-0.02411,-0.20325,-0.03754,0.02731,-0.01709,-0.01495,-0.01495,-0.00565,-0.16022,0.07889,-0.05798,-0.06836
5.85,-0.00336,-0.01587,0.0209,0.43427,-0.01282,-0.08469,-0.00839,0.03738,-0.01419,-0.01465,-0.01511,-0.00443,-0.14465,0.05524,-0.05814,-0.0975
5.8505,-0.01083,-0.01419,0.01266,0.41626,-0.009,0.01877,0.04593,0.04013,-0.01328,-0.01328,-0.01511,-0.00183,-0.10757,0.02899,-0.06119,-0.08072
5.851,-0.01556,-0.01831,0.00931,0.39612,-0.01312,0.08347,0.112,0.03128,-0.01541,-0.01205,-0.01511,0.00031,-0.0473,-0.00198,-0.06683,-0.00168
5.8515,-0.01495,-0.02563,0.00824,0.37689,-0.02426,0.10956,0.16312,0.00519,-0.01953,-0.01266,-0.01633,0.00153,0.01953,-0.04425,-0.07675,0.10605
5.852,-0.01465,-0.03235,-0.00397,0.35583,-0.03784,0.10941,0.17731,-0.04318,-0.02136,-0.01419,-0.0174,0.00046,0.06104,-0.09415,-0.08896,0.16022
5.8525,-0.01587,-0.03616,-0.03296,0.33157,-0.05112,0.10681,0.15762,-0.0975,-0.02029,-0.01465,-0.01785,-0.00397,0.05814,-0.13657,-0.09018,0.1384
5.853,-0.01343,-0.03998,-0.07095,0.30518,-0.06058,0.08667,0.11475,-0.12039,-0.01831,-0.01434,-0.01831,-0.01266,0.01678,-0.15671,-0.06302,0.07187
5.8535,-0.00626,-0.04623,-0.10025,0.28168,-0.06622,-0.02075,0.05295,-0.09064,-0.01633,-0.01526,-0.01862,-0.02106,-0.03464,-0.15457,-0.00824,0.02777
5.854,0.00244,-0.05325,-0.11337,0.25909,-0.07095,-0.24826,-0.01205,-0.0325,-0.01572,-0.01587,-0.01801,-0.01617,-0.0676,-0.14114,0.0473,0.0148
5.8545,0.00717,-0.05676,-0.10788,0.23239,-0.07355,-0.46783,-0.06012,0.00702,-0.01495,-0.01724,-0.01755,0.00839,-0.08133,-0.12985,0.06516,0.01068
5.855,0.00778,-0.05737,-0.09079,0.19363,-0.07172,-0.49896,-0.08789,-0.01511,-0.01526,-0.01831,-0.01709,0.04257,-0.09308,-0.12634,0.03738,-0.00046
5.8555,0.00595,-0.05417,-0.06668,0.14725,-0.06683,-0.32578,-0.11551,-0.10788,-0.01526,-0.01968,-0.01648,0.06363,-0.11871,-0.12177,-0.00885,-0.01999
5.856,0.00397,-0.04852,-0.04074,0.10239,-0.05981,-0.11139,-0.15823,-0.22064,-0.01526,-0.02045,-0.01511,0.05707,-0.15137,-0.10223,-0.03067,-0.03952
5.8565,0.00504,-0.04272,-0.01358,0.06683,-0.05157,0.00931,-0.19562,-0.26321,-0.01465,-0.02075,-0.01297,0.01862,-0.17303,-0.0621,-0.01526,-0.06561
5.857,0.0032,-0.03967,0.01236,0.0383,-0.0412,0.04715,-0.19272,-0.18997,-0.0145,-0.01877,-0.01251,-0.03998,-0.17822,-0.01617,0.00977,-0.10727
5.8575,-0.00443,-0.03601,0.0383,0.00839,-0.03174,0.06393,-0.14679,-0.05112,-0.01465,-0.01846,-0.01526,-0.09048,-0.17227,0.01083,0.01129,-0.16144
5.858,-0.01938,-0.02975,0.05371,-0.02029,-0.02213,0.06821,-0.08667,0.06943,-0.01434,-0.0177,-0.01816,-0.09384,-0.16006,0.01556,-0.00763,-0.20676
5.8585,-0.03891,-0.02274,0.04089,-0.04089,-0.01709,0.04303,-0.04318,0.13626,-0.01312,-0.01755,-0.01724,-0.04059,-0.13474,0.01312,-0.00565,-0.21759
5.859,-0.05585,-0.01831,-0.00061,-0.04517,-0.01572,0.00534,-0.03235,0.16479,-0.01114,-0.01648,-0.01511,0.03479,-0.09277,0.01678,0.03403,-0.19516
5.8595,-0.06454,-0.0174,-0.04364,-0.04074,-0.01389,-0.01068,-0.03952,0.16891,-0.00931,-0.01495,-0.01282,0.08163,-0.05325,0.02396,0.07507,-0.17197
5.86,-0.06363,-0.01831,-0.06287,-0.0441,-0.00687,0.00214,-0.02365,0.15289,-0.00702,-0.01541,-0.01144,0.07019,-0.03723,0.02518,0.07538,-0.1535
5.8605,-0.05615,-0.02167,-0.06821,-0.06805,0.00153,0.02213,0.03998,0.12985,-0.00595,-0.01419,-0.01083,0.01648,-0.04486,0.02594,0.04532,-0.13474
5.861,-0.04349,-0.02899,-0.08224,-0.10406,0.00977,0.02396,0.112,0.11383,-0.00458,-0.01328,-0.01068,-0.02365,-0.05615,0.03662,0.02792,-0.10635
5.8615,-0.02823,-0.03677,-0.10605,-0.13855,0.01495,0.00443,0.13184,0.10208,-0.00427,-0.01373,-0.01022,-0.00412,-0.05203,0.05737,0.03616,-0.07446
5.862,-0.01511,-0.04044,-0.11841,-0.16251,0.01892,-0.0293,0.1004,0.08347,-0.00412,-0.0148,-0.01068,0.0563,-0.02777,0.07507,0.03952,-0.0563
5.8625,-0.01022,-0.04013,-0.10513,-0.18005,0.02289,-0.05615,0.0705,0.05585,-0.00381,-0.01587,-0.01221,0.08575,0.00702,0.08133,0.02243,-0.05081
5.863,-0.01221,-0.03693,-0.07278,-0.19516,0.0235,-0.06653,0.06638,0.02335,-0.00381,-0.01709,-0.0145,0.0499,0.03952,0.07278,0.00092,-0.06119
5.8635,-0.01465,-0.03326,-0.03372,-0.21042,0.01816,-0.06058,0.06546,-0.00336,-0.00412,-0.01724,-0.01602,-0.00473,0.06241,0.05447,-0.00854,-0.06989
5.864,-0.01358,-0.03052,-0.00046,-0.22491,0.009,-0.04456,0.04105,-0.01755,-0.00336,-0.01877,-0.01663,-0.02655,0.07462,0.03403,-0.00183,-0.06683
5.8645,-0.00961,-0.02899,0.02243,-0.23575,-0.00153,-0.02853,-0.00107,-0.02853,-0.00336,-0.02029,-0.01709,-0.0235,0.07813,0.02228,0.01038,-0.03189
5.865,-0.00839,-0.02853,0.03555,-0.24521,-0.00992,-0.02808,-0.03571,-0.05173,-0.00366,-0.02243,-0.01556,-0.03113,0.07462,0.02396,0.02243,0.03067
5.8655,-0.01328,-0.02975,0.0444,-0.25879,-0.0145,-0.06393,-0.0531,-0.07858,-0.0061,-0.0235,-0.0148,-0.04227,0.07233,0.03632,0.03616,0.07843
5.866,-0.01816,-0.03296,0.05539,-0.27466,-0.01633,-0.13519,-0.06104,-0.07614,-0.0087,-0.02411,-0.0145,-0.02975,0.07065,0.04898,0.04852,0.08011
5.8665,-0.01572,-0.03693,0.07156,-0.28778,-0.01434,-0.20691,-0.06989,-0.03464,-0.00824,-0.02563,-0.01511,0.00336,0.0618,0.04959,0.05234,0.03479
5.867,-0.00565,-0.0383,0.0827,-0.29556,-0.01007,-0.22568,-0.07965,0.01572,-0.0058,-0.02884,-0.01526,0.01648,0.04562,0.03128,0.04074,-0.01816
5.8675,0.00229,-0.03555,0.07401,-0.30045,-0.00626,-0.17059,-0.08652,0.03815,-0.00366,-0.03159,-0.01389,-0.01053,0.02884,-0.00473,0.02075,-0.0499
5.868,0.00351,-0.03021,0.04471,-0.3035,-0.01129,-0.07431,-0.07645,0.03113,-0.00488,-0.03174,-0.01358,-0.04578,0.01572,-0.04974,0.0058,-0.05936
5.8685,-0.00183,-0.02808,0.01312,-0.29907,-0.02396,0.00854,-0.04288,0.01526,-0.00534,-0.02869,-0.01556,-0.06027,-0.00122,-0.09766,0.00381,-0.06195
5.869,-0.01389,-0.03082,-0.00488,-0.2858,-0.04349,0.05051,-0.00671,0.00427,-0.00458,-0.02716,-0.01923,-0.07263,-0.02563,-0.13214,0.00824,-0.07172
5.8695,-0.02747,-0.03586,-0.00916,-0.27252,-0.06012,0.05905,-0.00092,-0.00473,-0.00275,-0.02853,-0.01877,-0.09247,-0.04654,-0.13046,0.01099,-0.08377
5.87,-0.03662,-0.0383,-0.01022,-0.271,-0.07233,0.05142,-0.02975,-0.01404,-0.00153,-0.0296,-0.01602,-0.0676,-0.04898,-0.09018,0.00977,-0.10193
5.8705,-0.03708,-0.03937,-0.01328,-0.27573,-0.08255,0.0351,-0.05829,-0.01892,-0.00183,-0.02869,-0.01373,0.03937,-0.02472,-0.04486,0.00839,-0.12054
5.871,-0.03159,-0.03967,-0.01663,-0.27771,-0.09583,0.01266,-0.06393,-0.01801,-0.00137,-0.02701,-0.01343,0.17456,0.01434,-0.02457,0.01068,-0.13458
5.8715,-0.02579,-0.03967,-0.01877,-0.27603,-0.10666,-0.02045,-0.05051,-0.0174,-0.00153,-0.02747,-0.01434,0.25711,0.04181,-0.02167,0.01266,-0.12695
5.872,-0.02365,-0.03983,-0.0209,-0.28015,-0.10605,-0.06485,-0.02945,-0.02441,-0.00183,-0.02853,-0.01526,0.26474,0.04532,-0.01022,0.01266,-0.09033
5.8725,-0.02502,-0.04135,-0.02274,-0.29053,-0.09277,-0.10651,-0.00763,-0.03311,-0.00381,-0.03036,-0.01694,0.2005,0.03571,0.01022,0.00977,-0.04486
5.873,-0.02625,-0.04501,-0.02579,-0.29953,-0.06973,-0.12024,0.00336,-0.03937,-0.00488,-0.03098,-0.01907,0.06485,0.02823,0.01801,0.00473,-0.01434
5.8735,-0.02625,-0.04929,-0.02594,-0.30487,-0.04288,-0.10071,-0.00778,-0.04395,-0.00458,-0.02991,-0.0209,-0.11093,0.01694,-0.00397,0.00122,-0.01434
5.874,-0.02609,-0.05219,-0.02563,-0.30975,-0.01709,-0.07324,-0.03677,-0.05157,-0.00366,-0.02853,-0.02136,-0.25024,-0.01389,-0.047,-0.00137,-0.02319
5.8745,-0.02853,-0.05219,-0.02365,-0.31799,0.00427,-0.05829,-0.06943,-0.06027,-0.00366,-0.02655,-0.01938,-0.28259,-0.06012,-0.09186,-0.00275,-0.02701
5.875,-0.03616,-0.05188,-0.02319,-0.3273,0.01862,-0.03876,-0.09399,-0.06134,-0.00397,-0.02472,-0.01724,-0.20386,-0.10727,-0.12665,-0.00366,-0.02792
5.8755,-0.04608,-0.05356,-0.02319,-0.3299,0.0293,0.00183,-0.09933,-0.05264,-0.0032,-0.02274,-0.01541,-0.08667,-0.13947,-0.13504,-0.00565,-0.03799
5.876,-0.05554,-0.05661,-0.02563,-0.32379,0.03708,0.0412,-0.08026,-0.03754,-0.00214,-0.0209,-0.01465,-0.00153,-0.15289,-0.09964,-0.00931,-0.05005
5.8765,-0.06027,-0.05859,-0.02594,-0.30823,0.04486,0.0383,-0.05173,-0.02151,-0.00214,-0.01968,-0.0145,0.04791,-0.14496,-0.02869,-0.01114,-0.05692
5.877,-0.0589,-0.06088,-0.02579,-0.28503,0.04761,-0.00626,-0.03464,-0.00595,-0.00397,-0.01831,-0.01465,0.09048,-0.11917,0.03387,-0.01038,-0.05508
5.8775,-0.05341,-0.06454,-0.02686,-0.26428,0.04745,-0.06226,-0.02838,0.00717,-0.00412,-0.01663,-0.01434,0.11093,-0.08606,0.04639,-0.00412,-0.0563
5.878,-0.04623,-0.07141,-0.02869,-0.25803,0.03876,-0.10315,-0.01373,0.01511,-0.00305,-0.01526,-0.01419,0.07507,-0.05585,0.01968,0.00015,-0.06042
5.8785,-0.03723,-0.07843,-0.02884,-0.26443,0.0238,-0.11856,0.01328,0.01083,-0.00229,-0.01373,-0.01419,0.00839,-0.03113,-0.00961,0.00214,-0.06317
5.879,-0.02426,-0.08148,-0.02548,-0.27023,0.00076,-0.10391,0.02243,-0.0116,-0.00275,-0.01251,-0.01389,-0.01312,-0.01205,-0.01984,0.00015,-0.06531
5.8795,-0.00778,-0.07843,-0.01953,-0.26062,-0.02182,-0.05737,-0.00656,-0.04272,-0.00214,-0.01068,-0.01373,0.03906,0.00595,-0.01862,-0.00137,-0.06683
5.88,0.00809,-0.07065,-0.01663,-0.24002,-0.03906,0.00031,-0.05234,-0.0621,-0.00031,-0.00931,-0.01282,0.11093,0.02396,-0.01999,0.00076,-0.0676
5.8805,0.01648,-0.06027,-0.01801,-0.22156,-0.05157,0.03326,-0.0769,-0.05951,0.00137,-0.00931,-0.01114,0.13107,0.0383,-0.02502,0.00443,-0.06577
5.881,0.0177,-0.04868,-0.02533,-0.21622,-0.06607,0.02274,-0.07248,-0.04456,0.00076,-0.00885,-0.00961,0.08621,0.04379,-0.02701,0.0061,-0.06454
5.8815,0.01724,-0.03845,-0.03403,-0.21637,-0.08408,-0.00916,-0.05692,-0.02991,0.00015,-0.00717,-0.00763,0.03296,0.03067,-0.01953,0.00504,-0.06454
5.882,0.02136,-0.03067,-0.04074,-0.21973,-0.10101,-0.03708,-0.04105,-0.02106,-0.00031,-0.00702,-0.00656,0.03479,-0.00122,-0.00397,0.00336,-0.06302
5.8825,0.02502,-0.02655,-0.04639,-0.23041,-0.11185,-0.06607,-0.0209,-0.01511,-0.00061,-0.00641,-0.00702,0.08728,-0.03998,0.0148,0.00305,-0.05951
5.883,0.02151,-0.02609,-0.04898,-0.2507,-0.11307,-0.10483,-0.00107,-0.00702,-0.00198,-0.0058,-0.00763,0.12665,-0.06134,0.02792,0.00412,-0.05173
5.8835,0.01022,-0.02625,-0.05005,-0.27359,-0.10773,-0.12772,-0.0029,0.00092,-0.00305,-0.00427,-0.00595,0.11276,-0.0499,0.02289,0.00504,-0.04425
5.884,0.00244,-0.02762,-0.05127,-0.28534,-0.09613,-0.10635,-0.04028,0.00488,-0.00427,-0.00458,-0.0061,0.06927,-0.01724,0.00351,0.00702,-0.03876
5.8845,0.00076,-0.02869,-0.05341,-0.27603,-0.07782,-0.05524,-0.0943,0.00412,-0.0061,-0.0058,-0.009,0.04013,0.0148,-0.01526,0.00961,-0.03448
5.885,0.0,-0.02869,-0.05737,-0.24521,-0.05356,-0.02075,-0.13855,0.00122,-0.00732,-0.00702,-0.01099,0.04425,0.03326,-0.01755,0.00961,-0.03479
5.8855,-0.00427,-0.02747,-0.06241,-0.20096,-0.02991,-0.02625,-0.17212,-0.0032,-0.00854,-0.00687,-0.01038,0.08377,0.04105,-0.00534,0.00671,-0.03769
5.886,-0.00763,-0.02716,-0.07019,-0.15808,-0.01312,-0.05081,-0.21225,-0.00885,-0.01007,-0.00626,-0.009,0.15274,0.04364,0.00854,0.00183,-0.04089
5.8865,-0.00885,-0.02991,-0.07843,-0.13046,-0.00656,-0.06546,-0.25391,-0.01663,-0.01114,-0.00748,-0.00931,0.21088,0.03769,0.01114,0.00122,-0.04395
5.887,-0.01053,-0.03754,-0.08179,-0.11856,-0.01007,-0.06561,-0.27023,-0.02213,-0.01282,-0.00992,-0.01129,0.18402,0.01831,0.00153,0.0029,-0.0444
5.8875,-0.01266,-0.04791,-0.07751,-0.11337,-0.0209,-0.06287,-0.23849,-0.02289,-0.01434,-0.01236,-0.01236,0.03754,-0.00763,-0.01205,0.0032,-0.04654
5.888,-0.01419,-0.05737,-0.06729,-0.10071,-0.03006,-0.06165,-0.16037,-0.01511,-0.01587,-0.01266,-0.01282,-0.16205,-0.02777,-0.02228,0.00015,-0.0499
5.8885,-0.01328,-0.06058,-0.05707,-0.07568,-0.03555,-0.05829,-0.05325,-0.00092,-0.01801,-0.01312,-0.01358,-0.29739,-0.04196,-0.02747,-0.00412,-0.05203
5.889,-0.0116,-0.05737,-0.05417,-0.04822,-0.03815,-0.04395,0.05417,0.0119,-0.02029,-0.01312,-0.01404,-0.31708,-0.05569,-0.02731,-0.00504,-0.05524
5.8895,-0.00946,-0.05066,-0.05768,-0.02899,-0.0412,-0.01511,0.12772,0.01465,-0.02121,-0.01404,-0.01343,-0.25909,-0.06866,-0.02594,0.00031,-0.05676
5.89,-0.00687,-0.0444,-0.05997,-0.01434,-0.04028,0.02167,0.15106,0.00687,-0.02136,-0.01389,-0.01282,-0.17929,-0.08041,-0.02716,0.00977,-0.05646
5.8905,-0.0029,-0.04028,-0.05829,0.00168,-0.03555,0.05096,0.14236,-0.00473,-0.02228,-0.01541,-0.01389,-0.10422,-0.08942,-0.03296,0.01984,-0.05447
5.891,0.00076,-0.03448,-0.0499,0.01724,-0.02472,0.06256,0.12299,-0.01511,-0.02396,-0.01678,-0.01694,-0.04395,-0.08545,-0.0351,0.02548,-0.05264
5.8915,0.00351,-0.02609,-0.03464,0.03189,-0.01282,0.0618,0.09674,-0.02304,-0.02655,-0.01862,-0.01938,-0.00748,-0.06409,-0.02594,0.02487,-0.04929
5.892,0.00519,-0.01755,-0.01526,0.0473,-0.0032,0.0618,0.07339,-0.02487,-0.02563,-0.02029,-0.01862,0.00076,-0.03738,-0.00717,0.01892,-0.04562
5.8925,0.00565,-0.01434,-0.00061,0.06989,0.00183,0.06119,0.08667,-0.01724,-0.02396,-0.0206,-0.01862,-0.01083,-0.02945,0.00839,0.0119,-0.04593
5.893,0.00351,-0.0177,0.00275,0.09323,0.00153,0.05249,0.13855,-0.00504,-0.02365,-0.02029,-0.01785,-0.03235,-0.04517,0.01038,0.00809,-0.04944
5.8935,-0.00015,-0.02228,-0.00458,0.11017,-0.00275,0.03616,0.18097,0.00336,-0.02502,-0.01938,-0.01617,-0.05463,-0.06668,0.00107,0.00641,-0.05157
5.894,-0.00214,-0.02625,-0.01846,0.1181,-0.00778,0.0177,0.1767,0.00381,-0.02625,-0.02167,-0.01434,-0.06088,-0.07172,-0.00931,0.00671,-0.05112
5.8945,0.00153,-0.03235,-0.03296,0.11398,-0.01068,-0.00961,0.13458,-0.00061,-0.02701,-0.02319,-0.0148,-0.03876,-0.0589,-0.01419,0.0087,-0.04715
5.895,0.01083,-0.04181,-0.0444,0.09857,-0.00824,-0.06393,0.08636,-0.0058,-0.02731,-0.02304,-0.01755,-0.00397,-0.04211,-0.01587,0.0116,-0.04196
5.8955,0.01907,-0.04883,-0.04868,0.07996,-0.00717,-0.1384,0.05341,-0.00717,-0.02838,-0.02121,-0.01892,0.0058,-0.03159,-0.01282,0.01404,-0.0412
5.896,0.02228,-0.0528,-0.04761,0.07019,-0.00565,-0.18463,0.04333,-0.00534,-0.03006,-0.02182,-0.01877,-0.01907,-0.02899,-0.00534,0.01312,-0.03937
5.8965,0.01953,-0.05478,-0.04227,0.07507,-0.00381,-0.16235,0.04395,-0.00107,-0.03143,-0.02502,-0.01724,-0.04379,-0.02762,-0.00458,0.01083,-0.04013
5.897,0.01389,-0.05707,-0.03647,0.08682,-0.00244,-0.0943,0.03555,0.00229,-0.03204,-0.0267,-0.01465,-0.03555,-0.02762,-0.0267,0.00809,-0.0412
5.8975,0.00885,-0.06149,-0.03326,0.1033,-0.00565,-0.04044,0.01343,0.00397,-0.03204,-0.02609,-0.01266,-0.01404,-0.02747,-0.06226,0.00748,-0.04272
5.898,0.00549,-0.07111,-0.03235,0.1239,-0.01495,-0.02228,-0.01083,0.00549,-0.03143,-0.02441,-0.01373,-0.0209,-0.0235,-0.08041,0.00748,-0.04547
5.8985,0.00397,-0.0856,-0.03342,0.14206,-0.02792,-0.02243,-0.02274,0.00488,-0.03098,-0.02365,-0.0145,-0.05035,-0.01389,-0.07385,0.00931,-0.0441
5.899,0.00351,-0.09842,-0.03494,0.14908,-0.04044,-0.03479,-0.0264,0.00244,-0.03128,-0.02396,-0.0148,-0.05737,-0.00336,-0.06821,0.00916,-0.04257
5.8995,0.00366,-0.09872,-0.03586,0.14709,-0.05188,-0.08148,-0.02716,0.00031,-0.03418,-0.02548,-0.01312,-0.02792,-0.00229,-0.07492,0.00641,-0.0412
5.9,0.0032,-0.08652,-0.03448,0.14648,-0.06058,-0.15945,-0.02838,0.00198,-0.03662,-0.02563,-0.01251,0.00534,-0.01328,-0.07614,0.00504,-0.04135
5.9005,0.00061,-0.07004,-0.0325,0.14893,-0.06668,-0.21484,-0.02243,0.00687,-0.03891,-0.02548,-0.01266,0.01419,-0.03189,-0.06134,0.00107,-0.04013
5.901,0.0,-0.05585,-0.03113,0.14435,-0.07065,-0.1976,-0.00946,0.01221,-0.04089,-0.02457,-0.01144,0.009,-0.04288,-0.04425,-0.00549,-0.04135
5.9015,0.00168,-0.04288,-0.03143,0.12894,-0.07034,-0.12848,0.00031,0.01526,-0.0412,-0.0238,-0.00977,0.01236,-0.04471,-0.03693,-0.01205,-0.04105
5.902,0.00305,-0.03235,-0.03464,0.11261,-0.06577,-0.07065,-0.00366,0.01587,-0.03754,-0.02274,-0.01083,0.0267,-0.04074,-0.03235,-0.01617,-0.04227
5.9025,0.00183,-0.02502,-0.03723,0.103,-0.05386,-0.05066,-0.01953,0.01434,-0.03235,-0.02197,-0.01389,0.03983,-0.03876,-0.02167,-0.01358,-0.04135
5.903,0.00076,-0.0235,-0.0383,0.09308,-0.0386,-0.04684,-0.03342,0.01297,-0.02747,-0.02106,-0.01572,0.04486,-0.0386,-0.00748,-0.00885,-0.04013
5.9035,0.00092,-0.02274,-0.03586,0.0853,-0.02441,-0.04044,-0.03952,0.01068,-0.02594,-0.02121,-0.0148,0.04135,-0.03723,0.00275,-0.00305,-0.03845
5.904,0.00076,-0.02197,-0.03464,0.07874,-0.01572,-0.04898,-0.04242,0.0087,-0.02792,-0.02075,-0.01297,0.03052,-0.0354,0.00824,0.00168,-0.03937
5.9045,-0.00076,-0.02075,-0.03403,0.07782,-0.01495,-0.08713,-0.0444,0.00824,-0.03174,-0.01984,-0.01175,0.01434,-0.03067,0.01343,0.00412,-0.04013
5.905,-0.0029,-0.01907,-0.03479,0.08179,-0.02182,-0.1207,-0.04486,0.00793,-0.03311,-0.01846,-0.01114,0.00061,-0.02319,0.02182,0.00488,-0.0415
5.9055,-0.00412,-0.01984,-0.03571,0.09262,-0.03357,-0.09247,-0.04242,0.00732,-0.02838,-0.01785,-0.01068,-0.00336,-0.01144,0.03281,0.01526,-0.04135
5.906,-0.00656,-0.02441,-0.03769,0.12222,-0.04807,0.009,-0.04135,0.00717,-0.02014,-0.0174,-0.01205,0.00198,-0.00183,0.04196,0.04166,-0.0383
5.9065,-0.00748,-0.02823,-0.03952,0.16663,-0.06088,0.12054,-0.04013,0.00656,-0.01389,-0.01724,-0.01404,0.00854,0.00107,0.04318,0.06912,-0.03799
5.907,-0.00504,-0.02853,-0.04074,0.2034,-0.07111,0.16739,-0.03708,0.00412,-0.01099,-0.01801,-0.01495,0.00977,-0.00183,0.03159,0.06927,-0.03937
5.9075,-0.00229,-0.02777,-0.04105,0.21011,-0.07538,0.14267,-0.03006,-0.00031,-0.01251,-0.01923,-0.01419,0.00763,-0.00595,0.00534,0.0412,-0.04105
5.908,0.0,-0.03006,-0.04318,0.18967,-0.07446,0.0975,-0.02441,-0.0029,-0.01526,-0.01862,-0.01297,0.00732,-0.00961,-0.03143,0.01236,-0.04135
5.9085,-0.00046,-0.0354,-0.04303,0.16251,-0.06622,0.05234,-0.02441,-0.00137,-0.01709,-0.01556,-0.01282,0.00977,-0.01556,-0.06958,0.00412,-0.03983
5.909,-0.00381,-0.03922,-0.04364,0.14587,-0.05905,-0.03143,-0.03113,0.00168,-0.01938,-0.01266,-0.01282,0.01175,-0.02502,-0.09903,0.00702,-0.03784
5.9095,-0.00687,-0.04089,-0.04395,0.14374,-0.0531,-0.16891,-0.04288,0.00305,-0.02533,-0.0119,-0.0119,0.01068,-0.03159,-0.11032,0.00732,-0.03494
5.91,-0.00992,-0.04166,-0.04547,0.14679,-0.0499,-0.27802,-0.06134,0.00015,-0.0351,-0.01358,-0.01266,0.00793,-0.03418,-0.09918,0.00595,-0.03464
5.9105,-0.01205,-0.04272,-0.0473,0.14847,-0.04471,-0.26276,-0.07889,-0.0058,-0.04929,-0.01541,-0.01434,0.00458,-0.02731,-0.07126,0.0058,-0.03494
5.911,-0.01022,-0.04364,-0.0499,0.1445,-0.03708,-0.14053,-0.08072,-0.01465,-0.06073,-0.01465,-0.01541,0.00427,-0.02197,-0.04486,0.00488,-0.03754
5.9115,-0.00534,-0.04379,-0.05112,0.13977,-0.02777,-0.01907,-0.06775,-0.02777,-0.06226,-0.01434,-0.01526,0.00656,-0.02213,-0.03357,-0.00671,-0.03464
5.912,-0.00183,-0.04288,-0.05066,0.13977,-0.01953,0.02457,-0.05768,-0.03967,-0.05432,-0.0145,-0.01633,0.00778,-0.02991,-0.03067,-0.0206,-0.02747
5.9125,-0.00076,-0.04364,-0.05051,0.1416,-0.01434,0.01114,-0.06439,-0.04105,-0.04074,-0.0145,-0.01877,0.00687,-0.04059,-0.01923,-0.02411,-0.0238
5.913,-0.00137,-0.04578,-0.05127,0.14435,-0.01022,-0.0061,-0.08179,-0.02884,-0.02975,-0.01328,-0.02197,0.00351,-0.04745,0.00229,-0.01251,-0.0209
5.9135,-0.00229,-0.04715,-0.05157,0.14618,-0.01053,-0.00336,-0.09537,-0.01099,-0.02289,-0.01282,-0.02289,0.00137,-0.05096,0.02045,0.00763,-0.02243
5.914,-0.00305,-0.04837,-0.0502,0.14435,-0.01266,0.00198,-0.09033,-0.00031,-0.02319,-0.0148,-0.02228,0.00351,-0.04974,0.02396,0.02182,-0.02274
5.9145,-0.00351,-0.047,-0.04578,0.12314,-0.01785,-0.00916,-0.05798,0.00244,-0.02945,-0.01678,-0.01892,0.00809,-0.04395,0.01465,0.01724,-0.02274
5.915,-0.0032,-0.04547,-0.03632,0.07568,-0.01923,-0.0351,-0.01251,0.00458,-0.03937,-0.01724,-0.0177,0.00946,-0.02945,0.00061,-0.00183,-0.02441
5.9155,-0.00381,-0.0441,-0.01984,0.03082,-0.01709,-0.04379,0.00946,0.00748,-0.04456,-0.01724,-0.01694,0.00595,-0.00946,-0.01907,-0.01419,-0.03052
5.916,-0.00336,-0.04257,-0.00412,0.01938,-0.01144,-0.0174,-0.01022,0.00244,-0.04059,-0.01648,-0.0174,0.00122,0.00977,-0.04013,-0.00076,-0.04181
5.9165,-0.00305,-0.04074,-0.00488,0.03677,-0.00793,0.01358,-0.04593,-0.01022,-0.02731,-0.01831,-0.01755,-0.0029,0.01968,-0.0528,0.03189,-0.05661
5.917,-0.00259,-0.03937,-0.02319,0.05585,-0.00824,-0.01419,-0.05203,-0.0209,-0.01404,-0.02014,-0.01877,-0.00366,0.01846,-0.05447,0.06027,-0.06805
5.9175,-0.00244,-0.04074,-0.04196,0.06729,-0.01083,-0.11612,-0.01617,-0.02136,-0.00778,-0.02106,-0.01984,-0.00107,0.00992,-0.05234,0.07111,-0.06989
5.918,-0.00366,-0.04303,-0.04791,0.07584,-0.0087,-0.20828,0.02518,-0.01404,-0.00885,-0.02197,-0.02136,0.00107,0.00031,-0.04944,0.06302,-0.06287
5.9185,-0.00534,-0.04425,-0.04517,0.08224,-0.0058,-0.20004,0.0267,-0.00671,-0.01038,-0.02243,-0.02136,0.00137,-0.01343,-0.04303,0.04532,-0.05432
5.919,-0.00656,-0.04379,-0.04135,0.08194,-0.00351,-0.12466,-0.00763,-0.0029,-0.01129,-0.0235,-0.02075,0.00122,-0.02975,-0.02808,0.02228,-0.05554
5.9195,-0.00687,-0.04333,-0.04013,0.0827,-0.00565,-0.08835,-0.03342,0.00122,-0.01221,-0.02274,-0.01755,0.00275,-0.0502,-0.00061,0.00198,-0.05737
5.92,-0.0058,-0.04166,-0.03784,0.0882,-0.01251,-0.11032,-0.02899,0.0058,-0.01495,-0.01938,-0.01389,0.00427,-0.0737,0.03601,-0.01129,-0.056
5.9205,-0.00595,-0.04105,-0.03647,0.09766,-0.02121,-0.11261,-0.01984,0.00992,-0.01709,-0.01465,-0.01175,0.00336,-0.09247,0.07111,-0.01984,-0.04898
5.921,-0.00458,-0.04135,-0.03616,0.09644,-0.03067,-0.04822,-0.03113,0.01038,-0.01801,-0.0116,-0.01129,0.00122,-0.09583,0.08865,-0.02792,-0.03983
5.9215,-0.00259,-0.04379,-0.0354,0.0795,-0.04089,0.02075,-0.05035,0.01068,-0.01846,-0.01205,-0.01099,-0.00031,-0.0795,0.07797,-0.03769,-0.03845
5.922,-0.00168,-0.04776,-0.0354,0.05905,-0.05356,0.0235,-0.05127,0.01221,-0.01938,-0.01541,-0.01068,-0.00137,-0.05402,0.04181,-0.04822,-0.0502
5.9225,-0.00198,-0.05096,-0.03479,0.05463,-0.06622,-0.03159,-0.02426,0.01816,-0.02411,-0.01923,-0.01083,-0.00229,-0.0267,-0.0058,-0.0563,-0.08286
5.923,-0.00427,-0.05127,-0.03723,0.06989,-0.07248,-0.09735,0.01572,0.02411,-0.0296,-0.01892,-0.0119,-0.00259,-0.00015,-0.04761,-0.06302,-0.12787
5.9235,-0.00687,-0.04852,-0.03967,0.08072,-0.07431,-0.15915,0.03754,0.0267,-0.03113,-0.01282,-0.01068,-0.00336,0.02045,-0.07629,-0.07172,-0.16891
5.924,-0.00793,-0.04517,-0.04059,0.06409,-0.07431,-0.22812,0.02716,0.02533,-0.0238,-0.00504,-0.00977,-0.00229,0.0238,-0.09003,-0.08041,-0.19485
5.9245,-0.00671,-0.04242,-0.04044,0.01389,-0.07111,-0.28748,0.01129,0.02106,-0.00702,0.00092,-0.00992,-0.00046,0.00961,-0.08957,-0.07645,-0.20233
5.925,-0.00458,-0.04028,-0.03922,-0.06256,-0.06592,-0.289,0.03067,0.01495,0.01358,-0.00046,-0.01083,0.00061,-0.01297,-0.07645,-0.03876,-0.19272
5.9255,-0.00336,-0.03799,-0.03906,-0.14267,-0.06027,-0.22141,0.08072,0.00702,0.03342,-0.00229,-0.0119,0.00275,-0.03738,-0.06012,0.02731,-0.16281
5.926,-0.0061,-0.03128,-0.03906,-0.17776,-0.05417,-0.12817,0.11337,-0.00229,0.04593,-0.00443,-0.01251,0.00458,-0.05905,-0.04959,0.07721,-0.11154
5.9265,-0.009,-0.01877,-0.03891,-0.13458,-0.05203,-0.05676,0.09918,-0.01114,0.04959,-0.00366,-0.01312,0.00626,-0.07599,-0.04227,0.08438,-0.03555
5.927,-0.01236,-0.00671,-0.03784,-0.04486,-0.0502,-0.00671,0.05585,-0.0174,0.04562,-0.00504,-0.01541,0.0087,-0.09033,-0.02853,0.08621,0.06256
5.9275,-0.0148,-0.00244,-0.03754,0.01343,-0.04745,0.04181,0.01495,-0.01907,0.0412,-0.00839,-0.01617,0.01175,-0.10941,-0.0058,0.11536,0.13824
5.928,-0.01526,-0.00748,-0.04028,0.00565,-0.0444,0.07034,-0.00946,-0.01984,0.03632,-0.01495,-0.01678,0.01343,-0.13214,0.01358,0.13992,0.14206
5.9285,-0.01343,-0.01801,-0.04379,-0.03418,-0.04227,0.04166,-0.02319,-0.02274,0.02655,-0.02716,-0.01511,0.01099,-0.15381,0.02121,0.10803,0.09491
5.929,-0.01083,-0.02686,-0.04303,-0.06226,-0.04318,-0.02472,-0.03342,-0.02716,0.00488,-0.04288,-0.01221,0.0058,-0.15686,0.0209,0.03967,0.07248
5.9295,-0.00778,-0.03403,-0.03845,-0.06454,-0.04562,-0.05356,-0.03891,-0.02777,-0.02243,-0.05569,-0.01083,0.00153,-0.13809,0.02274,-0.00031,0.10223
5.93,-0.00458,-0.0386,-0.03448,-0.05051,-0.04242,-0.00565,-0.03845,-0.02045,-0.04898,-0.05707,-0.00946,-0.00076,-0.10712,0.03235,0.00504,0.13443
5.9305,-0.00198,-0.04272,-0.02914,-0.0322,-0.03601,0.06866,-0.03281,-0.00916,-0.06653,-0.04974,-0.00916,-0.00198,-0.07889,0.05203,0.02014,0.11841
5.931,-0.00015,-0.04517,-0.01923,-0.02686,-0.03098,0.10056,-0.02335,0.00015,-0.07736,-0.04181,-0.00824,-0.00504,-0.06042,0.07599,0.02075,0.05798
5.9315,0.00076,-0.04745,-0.00549,-0.0412,-0.03021,0.0827,-0.00946,0.00519,-0.08316,-0.03754,-0.00793,-0.00656,-0.05112,0.08392,0.01572,-0.01678
5.932,0.00305,-0.04868,0.00244,-0.07217,-0.03189,0.05234,0.00092,0.00824,-0.08942,-0.03372,-0.00916,-0.0029,-0.04242,0.05646,0.01389,-0.08377
5.9325,0.0058,-0.05096,-0.00122,-0.11612,-0.02914,0.02289,-0.00549,0.01205,-0.09552,-0.02609,-0.01175,0.00336,-0.03143,0.0061,0.01602,-0.12833
5.933,0.00885,-0.05478,-0.01282,-0.1561,-0.02487,-0.02731,-0.03159,0.01358,-0.10162,-0.01663,-0.01389,0.00763,-0.01923,-0.03128,0.02487,-0.14633
5.9335,0.01129,-0.05722,-0.02625,-0.15732,-0.02319,-0.09125,-0.0592,0.00992,-0.10239,-0.00931,-0.01617,0.00656,-0.0116,-0.03693,0.03983,-0.14709
5.934,0.01266,-0.05646,-0.03357,-0.12222,-0.02441,-0.11337,-0.06607,0.00183,-0.09033,-0.00671,-0.01846,0.0032,-0.00946,-0.0296,0.04684,-0.14954
5.9345,0.01312,-0.05157,-0.04044,-0.11383,-0.02243,-0.07278,-0.04883,-0.00519,-0.06149,-0.00732,-0.02197,0.00153,-0.0116,-0.03143,0.03571,-0.16113
5.935,0.01266,-0.0444,-0.04654,-0.17136,-0.0206,-0.01968,-0.01633,-0.00702,-0.0264,-0.00992,-0.02548,0.00336,-0.01358,-0.04318,0.01602,-0.16663
5.9355,0.00977,-0.03983,-0.05051,-0.22583,-0.01785,0.00549,0.01587,-0.00519,0.00397,-0.01114,-0.02716,0.00687,-0.01358,-0.05096,0.00198,-0.13885
5.936,0.00275,-0.03845,-0.04883,-0.19852,-0.01801,0.02716,0.03601,-0.00473,0.02289,-0.01022,-0.02869,0.0087,-0.01251,-0.04898,-0.00122,-0.06943
5.9365,-0.00626,-0.03922,-0.03799,-0.12772,-0.02045,0.0679,0.03891,-0.00702,0.03174,-0.00916,-0.02914,0.01007,-0.01419,-0.04181,0.0029,0.00992
5.937,-0.01465,-0.04089,-0.02563,-0.10254,-0.02426,0.08423,0.03052,-0.0087,0.03143,-0.009,-0.02838,0.00778,-0.0177,-0.03006,0.00992,0.0647
5.9375,-0.01968,-0.04303,-0.01724,-0.09537,-0.02625,0.03098,0.01923,-0.00824,0.02777,-0.01083,-0.02548,0.0032,-0.02075,-0.01785,0.01038,0.09918
5.938,-0.02319,-0.04517,-0.01953,0.00015,-0.02655,-0.06088,0.00916,-0.00687,0.02365,-0.01495,-0.02304,-0.00275,-0.02045,-0.009,-0.00504,0.13565
5.9385,-0.02808,-0.04547,-0.0322,0.1564,-0.02625,-0.12192,-0.00244,-0.00687,0.01801,-0.01877,-0.02274,-0.00809,-0.01694,-0.00977,-0.02914,0.15915
5.939,-0.03494,-0.047,-0.04669,0.20905,-0.02731,-0.12085,-0.01724,-0.00916,0.00992,-0.02014,-0.0235,-0.00992,-0.01389,-0.01556,-0.047,0.13397
5.9395,-0.03845,-0.05219,-0.05829,0.08179,-0.02594,-0.08514,-0.03098,-0.00961,0.00137,-0.01694,-0.0238,-0.00763,-0.01511,-0.02319,-0.04959,0.06256
5.94,-0.03464,-0.06012,-0.06485,-0.10757,-0.02457,-0.05249,-0.03525,-0.00916,-0.00656,-0.01343,-0.02319,-0.00519,-0.01862,-0.02625,-0.03937,-0.00885
5.9405,-0.02548,-0.06775,-0.06897,-0.20813,-0.02243,-0.04425,-0.03143,-0.00931,-0.01221,-0.01129,-0.02045,-0.00351,-0.02228,-0.02457,-0.03006,-0.04456
5.941,-0.01862,-0.07339,-0.0708,-0.18845,-0.02487,-0.05432,-0.02533,-0.00946,-0.01846,-0.01053,-0.01602,-0.00168,-0.02426,-0.02121,-0.0296,-0.04959
5.9415,-0.01831,-0.07629,-0.06927,-0.1062,-0.03021,-0.05814,-0.0209,-0.00626,-0.02197,-0.01129,-0.01312,0.00275,-0.02838,-0.01846,-0.03632,-0.04669
5.942,-0.02228,-0.07507,-0.06561,-0.02258,-0.03555,-0.03098,-0.01892,0.00122,-0.02563,-0.01205,-0.01282,0.00916,-0.03265,-0.0148,-0.04379,-0.04578
5.9425,-0.02579,-0.06958,-0.06363,0.0386,-0.03967,0.02365,-0.01923,0.00534,-0.02441,-0.01404,-0.01343,0.01205,-0.03693,-0.01038,-0.04303,-0.04654
5.943,-0.02396,-0.06317,-0.06668,0.08194,-0.04639,0.06821,-0.02167,0.00244,-0.02335,-0.0148,-0.01343,0.01068,-0.04089,-0.0061,-0.02563,-0.05524
5.9435,-0.01633,-0.05722,-0.07217,0.09109,-0.05219,0.06134,-0.02548,-0.00534,-0.02213,-0.01572,-0.01328,0.00641,-0.04196,-0.00458,0.00595,-0.08347
5.944,-0.00412,-0.05447,-0.07721,0.02396,-0.05692,0.00748,-0.0293,-0.01312,-0.02045,-0.01572,-0.01343,0.00275,-0.03937,-0.00671,0.02502,-0.12955
5.9445,0.00702,-0.05478,-0.07965,-0.09064,-0.05707,-0.04547,-0.03082,-0.01633,-0.01358,-0.01495,-0.01511,0.00015,-0.03113,-0.00992,0.01129,-0.17105
5.945,0.01236,-0.05432,-0.07278,-0.14709,-0.05859,-0.0766,-0.02838,-0.01511,-0.00305,-0.01419,-0.01541,-0.00015,-0.02075,-0.01404,-0.0238,-0.18784
5.9455,0.01266,-0.04837,-0.04852,-0.08148,-0.05798,-0.12482,-0.02609,-0.01114,0.00259,-0.0148,-0.01511,0.00168,-0.01343,-0.02151,-0.03647,-0.18188
5.946,0.00977,-0.03555,-0.00977,0.0238,-0.056,-0.20798,-0.02472,-0.00793,0.00061,-0.01709,-0.01404,0.00443,-0.01328,-0.0322,-0.00031,-0.16846
5.9465,0.00671,-0.02182,0.02701,0.03952,-0.04959,-0.25879,-0.02533,-0.00946,-0.00732,-0.02121,-0.01526,0.00732,-0.01495,-0.04166,0.0621,-0.14664
5.947,0.00381,-0.01038,0.04425,-0.05997,-0.04013,-0.2037,-0.02655,-0.01495,-0.01526,-0.0235,-0.01801,0.00702,-0.01465,-0.04486,0.09735,-0.10513
5.9475,0.00168,-0.00046,0.04105,-0.21118,-0.03021,-0.07828,-0.02701,-0.01678,-0.0209,-0.02426,-0.02106,0.00443,-0.01175,-0.04272,0.07996,-0.05356
5.948,-0.00092,0.00946,0.02579,-0.37292,-0.02426,0.01282,-0.0264,-0.01358,-0.02319,-0.02502,-0.02197,0.00198,-0.00824,-0.04135,0.03769,-0.01785
5.9485,-0.0029,0.01541,0.00259,-0.54642,-0.02426,0.02625,-0.02502,-0.01007,-0.02731,-0.02701,-0.01999,0.00046,-0.00839,-0.0412,0.01572,0.00229
5.949,-0.00381,0.0145,-0.02411,-0.66498,-0.02777,0.00046,-0.02365,-0.01038,-0.0351,-0.02884,-0.01816,0.00168,-0.00931,-0.03708,0.0209,0.03128
5.9495,-0.00397,0.00778,-0.04868,-0.57327,-0.0354,-0.0296,-0.02365,-0.0116,-0.0444,-0.02899,-0.01633,0.00458,-0.00961,-0.02548,0.03098,0.07385
5.95,-0.00885,-0.00061,-0.05997,-0.2005,-0.05051,-0.07584,-0.02441,-0.01099,-0.04929,-0.02625,-0.01465,0.00488,-0.01114,-0.01251,0.03281,0.09033
5.9505,-0.01755,-0.00748,-0.05508,0.26108,-0.06302,-0.14038,-0.02502,-0.00809,-0.04807,-0.0238,-0.01251,0.00214,-0.0206,-0.00717,0.0267,0.05203
5.951,-0.02319,-0.01266,-0.04028,0.49881,-0.06393,-0.18143,-0.02594,-0.00717,-0.04242,-0.02121,-0.01175,-0.00153,-0.03998,-0.00961,0.01953,-0.00641
5.9515,-0.02029,-0.01755,-0.02411,0.41733,-0.05936,-0.15427,-0.02625,-0.00656,-0.03387,-0.01923,-0.01205,-0.00443,-0.06256,-0.01312,0.0145,-0.02487
5.952,-0.01266,-0.02426,-0.01297,0.20035,-0.04654,-0.06592,-0.02762,-0.00351,-0.02472,-0.01846,-0.01099,-0.00595,-0.07965,-0.01389,0.0116,0.00259
5.9525,-0.0032,-0.03143,-0.00809,0.04669,-0.03189,0.03067,-0.02869,-0.00092,-0.01755,-0.0174,-0.01022,-0.00763,-0.08591,-0.01663,0.00977,0.03601
5.953,0.0029,-0.03601,-0.00427,-0.01923,-0.0177,0.08743,-0.02838,0.00031,-0.01236,-0.0177,-0.009,-0.00946,-0.08331,-0.02731,0.01083,0.05081
5.9535,0.00366,-0.03647,0.00076,-0.05493,-0.00626,0.10345,-0.02457,-0.00153,-0.00885,-0.01938,-0.00931,-0.01022,-0.07523,-0.0415,0.01022,0.05325
5.954,-0.00092,-0.03464,0.00504,-0.07324,-0.00092,0.10696,-0.0209,-0.0061,-0.00778,-0.02274,-0.01083,-0.00931,-0.06516,-0.05188,0.00641,0.04944
5.9545,-0.00824,-0.03403,0.00381,-0.05585,-0.00046,0.10986,-0.01709,-0.00748,-0.0087,-0.02472,-0.01312,-0.00885,-0.05707,-0.05676,0.00168,0.03403
5.955,-0.01358,-0.03448,-0.00809,-0.02289,-0.00351,0.09903,-0.01526,-0.00519,-0.00854,-0.02502,-0.0145,-0.00946,-0.05249,-0.05981,-0.00549,0.00473
5.9555,-0.01663,-0.03616,-0.0235,-0.01511,-0.00717,0.06744,-0.01419,-0.00153,-0.00443,-0.02365,-0.01297,-0.00717,-0.04761,-0.06516,-0.01144,-0.02899
5.956,-0.0206,-0.04028,-0.03601,-0.03998,-0.01129,0.00809,-0.01511,0.00183,0.00153,-0.02274,-0.00961,-0.00015,-0.04181,-0.06744,-0.01114,-0.05859
5.9565,-0.02609,-0.04364,-0.04242,-0.06927,-0.01709,-0.0827,-0.01541,0.00336,0.00671,-0.02228,-0.00931,0.00977,-0.03754,-0.06058,0.00122,-0.08942
5.957,-0.02701,-0.04593,-0.0415,-0.06821,-0.0264,-0.17395,-0.01709,0.00305,0.00702,-0.0209,-0.01022,0.01877,-0.03601,-0.04486,0.01801,-0.12741
5.9575,-0.01495,-0.04303,-0.03021,-0.02151,-0.03784,-0.20096,-0.01648,0.00076,0.00732,-0.01846,-0.01068,0.02151,-0.03677,-0.02762,0.02716,-0.15961
5.958,0.00427,-0.03677,-0.00412,0.04684,-0.04852,-0.13794,-0.0145,-0.00092,0.00732,-0.01816,-0.01007,0.01251,-0.03662,-0.01862,0.02045,-0.14587
5.9585,0.01419,-0.0293,0.03265,0.07538,-0.0531,-0.04471,-0.01328,0.00061,0.00687,-0.01984,-0.01022,-0.00656,-0.03326,-0.01831,0.00931,-0.06943
5.959,0.01236,-0.02411,0.0592,0.02716,-0.05356,-0.01389,-0.01282,0.00427,0.00381,-0.02121,-0.01022,-0.02563,-0.02594,-0.02136,0.00565,0.02655
5.9595,0.01205,-0.02457,0.05493,-0.05371,-0.05173,-0.06378,-0.01343,0.00549,0.00275,-0.02106,-0.01099,-0.03448,-0.01968,-0.0177,0.01129,0.06897
5.96,0.02197,-0.02914,0.02487,-0.09064,-0.04776,-0.12955,-0.01404,0.00092,0.00229,-0.01984,-0.00854,-0.03235,-0.01892,-0.00671,0.01785,0.04593
5.9605,0.03082,-0.03662,-0.00717,-0.06393,-0.04364,-0.14221,-0.01678,-0.00443,0.00046,-0.01877,-0.00656,-0.02426,-0.02533,0.00656,0.0206,0.00549
5.961,0.02548,-0.04318,-0.02365,-0.02487,-0.04166,-0.10284,-0.01785,-0.0061,-0.00168,-0.01785,-0.00656,-0.01404,-0.03372,0.01099,0.01984,-0.01297
5.9615,0.01083,-0.04944,-0.02899,-0.02655,-0.0412,-0.06195,-0.01633,-0.00168,-0.00122,-0.01862,-0.00809,-0.00458,-0.0351,0.00046,0.0174,-0.01831
5.962,0.00168,-0.05447,-0.03738,-0.0705,-0.04074,-0.05493,-0.0148,0.00412,0.0029,-0.01923,-0.009,0.00244,-0.02991,-0.01419,0.00702,-0.02899
5.9625,0.00046,-0.0589,-0.04944,-0.12253,-0.03952,-0.06744,-0.01541,0.00793,0.01038,-0.01785,-0.009,0.00671,-0.02472,-0.02029,-0.01419,-0.04364
5.963,-0.00168,-0.06271,-0.06104,-0.15762,-0.03769,-0.05661,-0.01663,0.00977,0.01541,-0.01678,-0.00946,0.00748,-0.02411,-0.01663,-0.03677,-0.05371
5.9635,-0.0087,-0.06912,-0.07248,-0.17181,-0.03342,-0.00488,-0.01587,0.00732,0.01816,-0.01709,-0.01144,0.00473,-0.02716,-0.01129,-0.03754,-0.06149
5.964,-0.01877,-0.07553,-0.08347,-0.15121,-0.02609,0.05402,-0.01419,0.00183,0.02045,-0.01984,-0.01038,0.00107,-0.02945,-0.00946,-0.01358,-0.07141
5.9645,-0.0238,-0.07904,-0.09277,-0.08499,-0.01831,0.08011,-0.01373,-0.00244,0.02014,-0.01923,-0.00748,0.00046,-0.03189,-0.00702,0.01251,-0.08057
5.965,-0.02213,-0.07858,-0.09415,-0.01724,-0.01358,0.07675,-0.01556,-0.00229,0.01099,-0.01465,-0.00504,0.00458,-0.03555,-0.00397,0.02075,-0.08255
5.9655,-0.01602,-0.07523,-0.08713,-0.02487,-0.01022,0.0708,-0.01801,0.00031,-0.00458,-0.00656,-0.00488,0.00687,-0.03952,-0.00031,0.01343,-0.0769
5.966,-0.00992,-0.06851,-0.07858,-0.10574,-0.00992,0.04761,-0.01572,0.00168,-0.01724,0.00076,-0.00534,0.00412,-0.04395,0.00107,0.00534,-0.06912
5.9665,-0.00473,-0.06149,-0.07431,-0.14862,-0.01511,-0.0238,-0.00519,0.00183,-0.0177,0.00595,-0.00504,-0.00305,-0.04623,-0.0029,0.00214,-0.06577
5.967,-0.00244,-0.05554,-0.07507,-0.06195,-0.02884,-0.11581,0.01328,0.00076,-0.01205,0.0061,-0.00519,-0.00977,-0.04517,-0.01099,0.00183,-0.065
5.9675,-0.00259,-0.05035,-0.07706,0.09369,-0.05066,-0.15961,0.02411,-0.00229,-0.01099,0.00381,-0.00717,-0.01129,-0.04013,-0.0206,-0.00046,-0.06393
5.968,-0.00305,-0.0441,-0.07416,0.15991,-0.07217,-0.16068,0.01404,-0.00778,-0.01495,-0.00015,-0.00931,-0.01205,-0.03296,-0.0264,-0.00061,-0.06348
5.9685,0.00107,-0.03876,-0.06821,0.07904,-0.0856,-0.19333,-0.0087,-0.0116,-0.01968,-0.00565,-0.01022,-0.01526,-0.02731,-0.02823,0.00015,-0.0679
5.969,0.00519,-0.03647,-0.05981,-0.02182,-0.09018,-0.26901,-0.02396,-0.0119,-0.02487,-0.01312,-0.00931,-0.01694,-0.02655,-0.02838,0.00076,-0.07843
5.9695,0.00336,-0.03845,-0.05219,-0.02716,-0.08896,-0.29297,-0.02075,-0.01251,-0.0351,-0.01953,-0.00885,-0.01099,-0.02899,-0.02655,0.00076,-0.08987
5.97,-0.00565,-0.03998,-0.04456,-0.01114,-0.08026,-0.20966,-0.01266,-0.01526,-0.05051,-0.02518,-0.009,-0.00229,-0.03311,-0.02258,0.00183,-0.09628
5.9705,-0.01358,-0.0386,-0.03494,-0.11765,-0.06668,-0.08652,-0.00977,-0.01984,-0.06424,-0.03067,-0.00839,-0.00122,-0.03799,-0.01602,0.00412,-0.09903
5.971,-0.01862,-0.03464,-0.02426,-0.31387,-0.05096,-0.02014,-0.01389,-0.02045,-0.07141,-0.03342,-0.00839,-0.00793,-0.04471,-0.00717,0.00717,-0.10376
5.9715,-0.02518,-0.03098,-0.01297,-0.39093,-0.03876,-0.02777,-0.01556,-0.01648,-0.0769,-0.03342,-0.00885,-0.01541,-0.04822,0.00366,0.00977,-0.12177
5.972,-0.03845,-0.0325,-0.00122,-0.20142,-0.03265,-0.05661,-0.01511,-0.01114,-0.07996,-0.03113,-0.00839,-0.02609,-0.04562,0.00961,0.01114,-0.15762
5.9725,-0.04944,-0.03708,0.00732,0.12711,-0.03128,-0.06516,-0.01389,-0.009,-0.07477,-0.02884,-0.00793,-0.04761,-0.03677,0.00702,0.01251,-0.19348
5.973,-0.04959,-0.04105,0.00443,0.27893,-0.03067,-0.05005,-0.01465,-0.00916,-0.05447,-0.02762,-0.00961,-0.06622,-0.02701,0.0,0.01129,-0.19913
5.9735,-0.03937,-0.04547,-0.00839,0.10071,-0.02731,-0.02243,-0.0148,-0.00748,-0.0267,-0.0267,-0.01205,-0.04257,-0.02045,-0.00687,0.0087,-0.16098
5.974,-0.02853,-0.05035,-0.02151,-0.20966,-0.02472,0.00275,-0.01251,-0.00168,-0.00397,-0.0267,-0.01389,0.02655,-0.0174,-0.01099,0.00412,-0.10361
5.9745,-0.02029,-0.05447,-0.02945,-0.32379,-0.02396,0.01144,-0.00671,0.0061,0.00885,-0.02914,-0.01511,0.08743,-0.02045,-0.01358,0.00229,-0.05524
5.975,-0.01068,-0.05432,-0.03326,-0.11169,-0.02289,-0.00153,-0.00229,0.01251,0.01419,-0.03311,-0.01831,0.09094,-0.02686,-0.01465,0.00351,-0.02045
5.9755,0.00626,-0.04623,-0.03754,0.2475,-0.01938,-0.02838,-0.00076,0.01434,0.01434,-0.03677,-0.02213,0.05447,-0.03265,-0.01648,0.00626,0.01114
5.976,0.02548,-0.03357,-0.04059,0.43594,-0.01495,-0.04715,-0.0029,0.01343,0.00885,-0.03662,-0.02411,0.02594,-0.03098,-0.01968,0.00977,0.0267
5.9765,0.03754,-0.02594,-0.04257,0.30533,-0.01099,-0.04318,-0.009,0.01053,-0.00229,-0.03052,-0.02411,0.01709,-0.02243,-0.02121,0.01083,0.00122
5.977,0.04059,-0.03052,-0.04089,0.02258,-0.01068,-0.01968,-0.01724,0.00305,-0.01678,-0.02304,-0.02441,0.00671,-0.01709,-0.01877,0.01144,-0.0499
5.9775,0.03677,-0.03662,-0.03754,-0.11475,-0.00916,0.00031,-0.02563,-0.01007,-0.03067,-0.01556,-0.02502,-0.01434,-0.02213,-0.01526,0.00946,-0.0766
5.978,0.02701,-0.03647,-0.03433,0.01572,-0.00595,0.00504,-0.02823,-0.02197,-0.0415,-0.0119,-0.02335,-0.02777,-0.03418,-0.0145,0.0087,-0.05737
5.9785,0.01221,-0.03357,-0.03448,0.27664,-0.00305,0.00122,-0.02319,-0.02487,-0.04776,-0.00854,-0.02045,-0.02457,-0.04288,-0.0177,0.00946,-0.0235
5.979,-0.00137,-0.03418,-0.04272,0.45013,-0.00107,-0.00443,-0.0145,-0.01801,-0.04913,-0.00488,-0.01694,-0.02213,-0.0444,-0.02197,0.00885,-0.00961
5.9795,-0.00732,-0.03784,-0.05829,0.44144,-0.00214,-0.01541,-0.00641,-0.00763,-0.04486,0.00198,-0.01404,-0.0325,-0.04013,-0.02487,0.00778,-0.01083
5.98,-0.00748,-0.03815,-0.07614,0.32104,-0.00488,-0.03113,-0.00443,-0.00153,-0.03372,0.00641,-0.01251,-0.04227,-0.03204,-0.02686,0.0061,-0.00305
5.9805,-0.00809,-0.03159,-0.08789,0.20203,-0.00809,-0.03922,-0.01038,-0.00244,-0.0177,0.00504,-0.01297,-0.03616,-0.0206,-0.03036,0.00534,0.01801
5.981,-0.00854,-0.02121,-0.08652,0.11963,-0.01343,-0.02121,-0.01465,-0.00656,-0.00031,0.00046,-0.01495,-0.02075,-0.00626,-0.0354,0.00519,0.02716
5.9815,-0.00412,-0.01175,-0.07584,0.04578,-0.01999,0.01816,-0.01678,-0.01007,0.01541,-0.00305,-0.01541,-0.01236,0.00519,-0.04013,0.0058,0.00854
5.982,0.00076,-0.00793,-0.06592,-0.02701,-0.02686,0.05295,-0.01602,-0.01205,0.02441,-0.00427,-0.01465,-0.01556,0.00748,-0.04257,0.0058,-0.02731
5.9825,-0.00259,-0.01068,-0.06287,-0.07309,-0.03235,0.05585,-0.01526,-0.01083,0.02762,-0.00732,-0.01404,-0.02441,-0.00366,-0.04379,0.00458,-0.05569
5.983,-0.01541,-0.01984,-0.06317,-0.07263,-0.03448,0.02838,-0.01434,-0.00565,0.02914,-0.01343,-0.01358,-0.02762,-0.02594,-0.04456,0.00473,-0.06607
5.9835,-0.02808,-0.03067,-0.0589,-0.02274,-0.03342,-0.0119,-0.01266,-0.00015,0.03113,-0.02045,-0.01404,-0.01938,-0.04562,-0.04425,0.00565,-0.06851
5.984,-0.03525,-0.03952,-0.04929,0.04791,-0.03204,-0.06165,-0.01144,0.00092,0.0296,-0.02502,-0.01465,-0.00259,-0.05188,-0.04074,0.00717,-0.07416
5.9845,-0.03769,-0.04547,-0.03891,0.07401,-0.03281,-0.12833,-0.0119,-0.00275,0.0209,-0.02289,-0.01434,0.0177,-0.04608,-0.03494,0.0087,-0.08575
5.985,-0.03494,-0.05096,-0.03708,0.00381,-0.03632,-0.19455,-0.01266,-0.00671,0.00427,-0.01877,-0.01419,0.03738,-0.03464,-0.03113,0.00916,-0.10056
5.9855,-0.02335,-0.05524,-0.05249,-0.11292,-0.03738,-0.21484,-0.01236,-0.00732,-0.00977,-0.01617,-0.01373,0.04684,-0.02335,-0.02975,0.01068,-0.10986
5.986,-0.00473,-0.05508,-0.08087,-0.15564,-0.03448,-0.16281,-0.01129,-0.00366,-0.01251,-0.01678,-0.01266,0.03723,-0.01495,-0.02975,0.01053,-0.10269
5.9865,0.00885,-0.04852,-0.1123,-0.07004,-0.02716,-0.07126,-0.01007,0.00076,-0.00519,-0.02213,-0.01266,0.01556,-0.01221,-0.0296,0.00916,-0.06638
5.987,0.0087,-0.04181,-0.13641,0.05981,-0.0235,0.00214,-0.01053,0.00214,-0.00122,-0.02899,-0.01404,0.00031,-0.01755,-0.02487,0.00763,0.00137
5.9875,-0.00259,-0.04074,-0.14496,0.11505,-0.0264,0.02655,-0.01312,0.00061,-0.00824,-0.03601,-0.01633,0.00198,-0.0293,-0.01251,0.00839,0.08621
5.988,-0.01358,-0.04242,-0.13763,0.0708,-0.03174,0.0032,-0.01511,-0.00137,-0.02197,-0.04074,-0.01724,0.01297,-0.04379,0.00275,0.01068,0.15137
5.9885,-0.01938,-0.04333,-0.1297,-0.01328,-0.03967,-0.05035,-0.01785,-0.00259,-0.0325,-0.04471,-0.0177,0.02045,-0.05432,0.00916,0.01053,0.15671
5.989,-0.02029,-0.04318,-0.12665,-0.08011,-0.04761,-0.1149,-0.01968,-0.00443,-0.03357,-0.04868,-0.01877,0.02197,-0.05798,0.00122,0.00717,0.09872
5.9895,-0.01663,-0.04303,-0.11139,-0.11276,-0.05463,-0.16083,-0.02121,-0.0058,-0.02731,-0.05341,-0.02167,0.02106,-0.05676,-0.01038,0.00198,0.02167
5.99,-0.00626,-0.04181,-0.06454,-0.12024,-0.06012,-0.15549,-0.02167,-0.00687,-0.01953,-0.05844,-0.02533,0.01434,-0.05142,-0.01648,-0.00061,-0.02945
5.9905,0.00671,-0.03815,0.00443,-0.11978,-0.06638,-0.10315,-0.02121,-0.00595,-0.01419,-0.06104,-0.02609,-0.00519,-0.0444,-0.0145,-0.00107,-0.04608
5.991,0.01541,-0.03525,0.06378,-0.12466,-0.0676,-0.05295,-0.01785,-0.00214,-0.01205,-0.05966,-0.02365,-0.03952,-0.0383,-0.01114,0.00015,-0.04776
5.9915,0.01846,-0.03464,0.09918,-0.13153,-0.0621,-0.03601,-0.01434,0.00443,-0.01038,-0.05676,-0.02045,-0.05875,-0.03571,-0.01007,0.00305,-0.04852
5.992,0.01785,-0.03571,0.12329,-0.13199,-0.05096,-0.02441,-0.0116,0.01022,-0.00839,-0.05295,-0.01846,-0.02335,-0.03479,-0.00946,0.00641,-0.04761
5.9925,0.01602,-0.03525,0.14359,-0.11978,-0.03754,0.00809,-0.01007,0.01099,-0.00778,-0.04974,-0.01907,0.056,-0.03311,-0.00992,0.009,-0.04471
5.993,0.01648,-0.03265,0.14771,-0.09979,-0.02731,0.04318,-0.00946,0.00671,-0.009,-0.04608,-0.01953,0.11322,-0.03067,-0.01053,0.01007,-0.04166
5.9935,0.01801,-0.03174,0.12085,-0.07996,-0.02121,0.04776,-0.00916,0.00381,-0.01038,-0.04166,-0.02029,0.10773,-0.02777,-0.01251,0.00885,-0.04303
5.994,0.01907,-0.03265,0.06866,-0.06607,-0.01801,0.02197,-0.00839,0.00626,-0.01007,-0.03677,-0.02045,0.06531,-0.02533,-0.0148,0.00885,-0.04517
5.9945,0.01617,-0.03586,0.02304,-0.05371,-0.01495,-0.01907,-0.00992,0.01083,-0.00931,-0.03204,-0.02274,0.03403,-0.02396,-0.01587,0.00824,-0.04684
5.995,0.00946,-0.0383,0.01526,-0.03876,-0.0116,-0.06607,-0.01266,0.01053,-0.01266,-0.02869,-0.02563,0.01938,-0.02319,-0.01678,0.00717,-0.04929
5.9955,0.00229,-0.0412,0.04257,-0.0293,-0.009,-0.112,-0.0145,0.00427,-0.02045,-0.02747,-0.0264,0.00168,-0.02502,-0.01724,0.0058,-0.0531
5.996,-0.00046,-0.04333,0.06927,-0.04044,-0.00702,-0.12924,-0.0145,-0.00137,-0.03235,-0.02609,-0.02655,-0.02594,-0.02655,-0.0177,0.00458,-0.0563
5.9965,0.0,-0.04364,0.06302,-0.07782,-0.00458,-0.10559,-0.01297,-0.00397,-0.04288,-0.0235,-0.02609,-0.05402,-0.02686,-0.01694,0.00488,-0.05859
5.997,0.00137,-0.04242,0.02945,-0.12436,-0.00366,-0.06866,-0.01068,-0.00443,-0.05157,-0.01984,-0.02441,-0.07385,-0.02686,-0.01694,0.00504,-0.05753
5.9975,0.00076,-0.03906,0.00031,-0.15244,-0.00565,-0.05157,-0.01053,-0.00565,-0.0589,-0.01602,-0.02151,-0.08453,-0.02869,-0.01831,0.009,-0.05646
5.998,-0.00107,-0.03662,-0.00793,-0.14847,-0.00916,-0.04578,-0.01099,-0.00748,-0.06729,-0.01312,-0.01648,-0.08926,-0.02975,-0.01938,0.01144,-0.05569
5.9985,-0.00488,-0.03525,-0.0061,-0.13168,-0.01129,-0.01587,-0.01175,-0.00854,-0.07629,-0.01205,-0.01144,-0.09033,-0.03006,-0.01877,0.01328,-0.05463
5.999,-0.0087,-0.03677,-0.01129,-0.13809,-0.01266,0.04105,-0.01297,-0.0087,-0.08087,-0.01251,-0.00916,-0.08835,-0.02975,-0.01816,0.01434,-0.05127
5.9995,-0.01175,-0.04135,-0.02625,-0.18509,-0.0119,0.08728,-0.01465,-0.01083,-0.07553,-0.01343,-0.00916,-0.08118,-0.03082,-0.01816,0.01358,-0.04837
6.0,-0.0148,-0.0473,-0.04318,-0.23453,-0.01083,0.09735,-0.01633,-0.01755,-0.05676,-0.0148,-0.00916,-0.06943,-0.03159,-0.01999,0.01297,-0.0473
6.0005,-0.01862,-0.05005,-0.05478,-0.19211,-0.01266,0.09781,-0.01511,-0.02213,-0.02975,-0.01602,-0.00916,-0.05341,-0.03296,-0.0209,0.01175,-0.04822
6.001,-0.01984,-0.04761,-0.06195,0.01297,-0.01526,0.13382,-0.01312,-0.01877,-0.00381,-0.01694,-0.00778,-0.0351,-0.0322,-0.02136,0.01205,-0.04974
6.0015,-0.01724,-0.04074,-0.06729,0.30243,-0.01816,0.19318,-0.0087,-0.00824,0.01373,-0.01709,-0.00595,-0.01663,-0.03159,-0.02167,0.0116,-0.05127
6.002,-0.01282,-0.03601,-0.07248,0.46249,-0.01984,0.20905,-0.00549,-0.00107,0.02029,-0.01785,-0.00427,0.00168,-0.03174,-0.02258,0.01266,-0.05402
6.0025,-0.01389,-0.03601,-0.0769,0.37964,-0.02136,0.15259,-0.00534,-0.00458,0.0174,-0.01709,-0.00412,0.02533,-0.03265,-0.02243,0.01282,-0.05493
6.003,-0.01801,-0.03983,-0.07813,0.17654,-0.02396,0.07553,-0.009,-0.0116,0.00626,-0.01541,-0.00504,0.05219,-0.03311,-0.02167,0.01434,-0.05386
6.0035,-0.0209,-0.0444,-0.07874,0.03159,-0.02609,0.01541,-0.01312,-0.01389,-0.00793,-0.01114,-0.00534,0.07278,-0.03418,-0.02167,0.01495,-0.05188
6.004,-0.0209,-0.047,-0.07568,-0.02655,-0.02869,-0.07156,-0.01434,-0.01175,-0.01587,-0.00824,-0.00351,0.07904,-0.03494,-0.02182,0.01251,-0.05219
6.0045,-0.02518,-0.04822,-0.06882,-0.07156,-0.03159,-0.23392,-0.01465,-0.00961,-0.01099,-0.00656,-0.00168,0.07095,-0.03555,-0.02441,0.00778,-0.05432
6.005,-0.03799,-0.04944,-0.06012,-0.12939,-0.03006,-0.39902,-0.01404,-0.00946,0.00153,-0.00656,-0.00214,0.05905,-0.03571,-0.0264,0.00473,-0.05707
6.0055,-0.05234,-0.05051,-0.05661,-0.16251,-0.02655,-0.42984,-0.01144,-0.00534,0.01221,-0.00351,-0.00412,0.05173,-0.03555,-0.02625,0.00473,-0.05783
6.006,-0.05508,-0.05234,-0.05753,-0.14709,-0.02274,-0.29938,-0.00595,0.00275,0.01892,0.0,-0.00488,0.0383,-0.03555,-0.02548,0.00656,-0.05615
6.0065,-0.04272,-0.05402,-0.05127,-0.09537,-0.01709,-0.13733,-0.00229,0.01068,0.02548,0.00534,-0.00534,-0.00046,-0.03601,-0.02518,0.00839,-0.05234
6.007,-0.02777,-0.05402,-0.02853,0.00244,-0.01144,-0.06378,-0.00153,0.01358,0.03082,0.01251,-0.00778,-0.06271,-0.03647,-0.02502,0.0087,-0.0502
6.0075,-0.02335,-0.05203,-0.00687,0.17181,-0.00778,-0.07263,-0.00397,0.01038,0.03189,0.01831,-0.01266,-0.11063,-0.03632,-0.02502,0.00854,-0.04944
6.008,-0.02228,-0.04745,-0.00458,0.35233,-0.00549,-0.09766,-0.00626,0.00549,0.02548,0.02228,-0.01572,-0.10391,-0.03494,-0.02396,0.009,-0.04868
6.0085,-0.0119,-0.04074,-0.02548,0.37781,-0.00702,-0.10254,-0.00778,0.00275,0.01266,0.02304,-0.01434,-0.03738,-0.03296,-0.02167,0.01022,-0.047
6.009,0.00763,-0.03845,-0.04333,0.18829,-0.00916,-0.08759,-0.01083,0.00107,-0.00061,0.01968,-0.0119,0.03784,-0.03174,-0.02014,0.01251,-0.04532
6.0095,0.02396,-0.04288,-0.04318,-0.05341,-0.01053,-0.0621,-0.01511,-0.0032,-0.00885,0.01221,-0.01007,0.06302,-0.03235,-0.01984,0.01297,-0.04242
6.01,0.02777,-0.0528,-0.03738,-0.16037,-0.01068,-0.04166,-0.01846,-0.00824,-0.01038,0.00366,-0.00961,0.03448,-0.03281,-0.02045,0.01221,-0.0412
6.0105,0.02396,-0.0621,-0.03204,-0.13855,-0.01007,-0.04913,-0.01968,-0.01297,-0.01404,-0.00366,-0.00916,0.00427,-0.03387,-0.02045,0.01114,-0.04288
6.011,0.01801,-0.06683,-0.03662,-0.10666,-0.01251,-0.09338,-0.01984,-0.01572,-0.02594,-0.00977,-0.00839,0.009,-0.03433,-0.01862,0.009,-0.0444
6.0115,0.01175,-0.07004,-0.04272,-0.10468,-0.01755,-0.15778,-0.01877,-0.01678,-0.04425,-0.01526,-0.00809,0.02396,-0.03387,-0.0177,0.00809,-0.04684
6.012,0.00595,-0.07385,-0.04578,-0.07538,-0.02548,-0.2063,-0.01801,-0.01617,-0.06393,-0.02167,-0.00885,0.01572,-0.03281,-0.0174,0.00687,-0.04913
6.0125,0.00473,-0.07584,-0.04913,0.01785,-0.03204,-0.19867,-0.01602,-0.01358,-0.08087,-0.02701,-0.01083,0.00092,-0.03098,-0.0174,0.0058,-0.05173
6.013,0.01007,-0.07278,-0.05585,0.1326,-0.03464,-0.13443,-0.01465,-0.01007,-0.09308,-0.03189,-0.01236,0.01709,-0.02914,-0.01678,0.00473,-0.05005
6.0135,0.0174,-0.06607,-0.05508,0.19745,-0.03326,-0.05981,-0.01389,-0.00748,-0.09613,-0.03616,-0.01297,0.04593,-0.02945,-0.01663,0.00519,-0.04898
6.014,0.01953,-0.06104,-0.05859,0.18433,-0.03296,-0.02167,-0.01373,-0.00702,-0.08896,-0.03998,-0.01114,0.04257,-0.03052,-0.01724,0.00458,-0.04868
6.0145,0.01877,-0.05722,-0.06744,0.13092,-0.0354,-0.0174,-0.01434,-0.00671,-0.07385,-0.04471,-0.00854,0.01572,-0.0322,-0.01801,0.00366,-0.04929
6.015,0.01984,-0.05341,-0.0856,0.10361,-0.0386,-0.00916,-0.0145,-0.00473,-0.05707,-0.04974,-0.00732,0.00595,-0.03265,-0.0174,0.00366,-0.04959
6.0155,0.02304,-0.04639,-0.1001,0.13306,-0.04044,0.02731,-0.01404,-0.00214,-0.04318,-0.05219,-0.00977,0.01877,-0.0325,-0.01663,0.00336,-0.04868
6.016,0.02594,-0.03876,-0.09613,0.17273,-0.04257,0.07523,-0.01038,0.00107,-0.03616,-0.04868,-0.01358,0.01831,-0.03265,-0.01678,0.00381,-0.04684
6.0165,0.02441,-0.03357,-0.07355,0.12894,-0.04623,0.09964,-0.00732,0.00549,-0.03632,-0.04013,-0.01648,-0.01419,-0.03494,-0.01724,0.0061,-0.0441
6.017,0.01694,-0.03296,-0.04196,-0.02396,-0.05234,0.08652,-0.00595,0.0087,-0.0351,-0.03326,-0.0174,-0.05951,-0.03738,-0.01755,0.00778,-0.04074
6.0175,0.00854,-0.03616,-0.02319,-0.17532,-0.05768,0.04913,-0.00824,0.01053,-0.02762,-0.02838,-0.0174,-0.08316,-0.03845,-0.01785,0.00931,-0.03922
6.018,0.00336,-0.04272,-0.01343,-0.19028,-0.05737,0.00931,-0.01205,0.00885,-0.01389,-0.02304,-0.01648,-0.06531,-0.03799,-0.01801,0.00885,-0.03983
6.0185,0.00122,-0.04883,-0.00504,-0.07919,-0.05112,-0.01724,-0.0174,0.00351,-0.00168,-0.01602,-0.01434,-0.01785,-0.03677,-0.01801,0.00793,-0.03876
6.019,-0.00381,-0.05249,0.00366,0.01114,-0.0412,-0.03082,-0.02228,-0.00351,0.00549,-0.01068,-0.01266,0.02213,-0.0351,-0.01709,0.00717,-0.03769
6.0195,-0.01297,-0.05219,0.00351,-0.01343,-0.03235,-0.03952,-0.0235,-0.00916,0.00992,-0.00961,-0.01205,0.0267,-0.03448,-0.01572,0.00687,-0.03693
6.02,-0.01953,-0.05112,-0.00366,-0.09583,-0.02884,-0.05493,-0.02167,-0.01129,0.01312,-0.01144,-0.01175,0.00107,-0.03296,-0.01434,0.00641,-0.03952
6.0205,-0.01831,-0.0499,-0.0119,-0.13168,-0.0296,-0.07797,-0.0206,-0.01175,0.01556,-0.01343,-0.01205,-0.02808,-0.03204,-0.01419,0.00427,-0.04196
6.021,-0.01282,-0.04944,-0.02213,-0.10544,-0.0296,-0.09979,-0.02121,-0.01266,0.01694,-0.01404,-0.01236,-0.03952,-0.03067,-0.01434,0.00397,-0.0441
6.0215,-0.01083,-0.04807,-0.02991,-0.07751,-0.02853,-0.11215,-0.02106,-0.01251,0.01694,-0.01389,-0.01343,-0.03281,-0.03021,-0.0148,0.00534,-0.04593
6.022,-0.01236,-0.04318,-0.03616,-0.08331,-0.0267,-0.11017,-0.01877,-0.01007,0.01816,-0.01312,-0.01465,-0.01419,-0.0296,-0.0145,0.00671,-0.04547
6.0225,-0.01389,-0.03433,-0.047,-0.10208,-0.02563,-0.09796,-0.01617,-0.00549,0.02151,-0.01373,-0.01572,0.00717,-0.03021,-0.01556,0.00412,-0.04562
6.023,-0.00961,-0.02197,-0.05951,-0.1033,-0.02487,-0.09003,-0.0148,-0.00275,0.02563,-0.01556,-0.01755,0.01556,-0.03021,-0.01617,0.00259,-0.04532
6.0235,-0.00168,-0.00931,-0.07553,-0.07248,-0.02457,-0.09277,-0.01511,-0.00214,0.02899,-0.01587,-0.01831,0.00427,-0.03067,-0.01663,0.00336,-0.04349
6.024,0.00565,0.00046,-0.08789,-0.00641,-0.02472,-0.09613,-0.01587,-0.00122,0.03174,-0.01587,-0.01709,-0.01419,-0.03159,-0.01587,0.00626,-0.04135
6.0245,0.01175,0.00488,-0.0827,0.07126,-0.02533,-0.0882,-0.01617,0.00076,0.03387,-0.01694,-0.0145,-0.01953,-0.03235,-0.01511,0.00763,-0.03952
6.025,0.01434,0.00809,-0.06577,0.09705,-0.02518,-0.07187,-0.01434,0.00198,0.03265,-0.01648,-0.0119,-0.00946,-0.0322,-0.01526,0.00702,-0.03967
6.0255,0.01129,0.01511,-0.04944,0.03876,-0.02502,-0.05478,-0.01389,0.00015,0.02686,-0.01526,-0.01129,0.00427,-0.0322,-0.01633,0.00427,-0.04257
6.026,0.00381,0.02609,-0.04669,-0.03159,-0.02594,-0.03296,-0.01434,-0.00183,0.0177,-0.01648,-0.01038,0.01312,-0.03159,-0.01785,0.00443,-0.04379
6.0265,-0.00397,0.03021,-0.05615,-0.00504,-0.02731,0.00626,-0.01663,-0.00214,0.01114,-0.02182,-0.00885,0.01785,-0.0325,-0.01877,0.00275,-0.04364
6.027,-0.01007,0.01907,-0.07294,0.09735,-0.0293,0.056,-0.01785,-0.00168,0.01282,-0.02808,-0.0087,0.01862,-0.03403,-0.01938,0.00381,-0.04227
6.0275,-0.0116,-0.00244,-0.08453,0.13702,-0.0322,0.08255,-0.01801,-0.00259,0.02441,-0.03174,-0.00854,0.01297,-0.03464,-0.01999,0.00412,-0.04196
6.028,-0.01068,-0.02075,-0.09064,0.04059,-0.03357,0.06882,-0.01846,-0.00351,0.03723,-0.0322,-0.009,0.00427,-0.03311,-0.02014,0.00397,-0.04135
6.0285,-0.01007,-0.0322,-0.0946,-0.11566,-0.03342,0.04593,-0.02014,-0.00305,0.04166,-0.02716,-0.00916,-0.0032,-0.03265,-0.02014,0.00381,-0.03983
6.029,-0.01068,-0.04257,-0.09735,-0.19958,-0.03067,0.0473,-0.02075,-0.00031,0.0351,-0.02136,-0.01053,-0.00549,-0.03387,-0.01953,0.00778,-0.03983
6.0295,-0.01282,-0.05859,-0.09216,-0.12772,-0.02716,0.07675,-0.01907,0.00275,0.02274,-0.01801,-0.00992,-0.00443,-0.03448,-0.01999,0.01007,-0.03967
6.03,-0.01312,-0.07477,-0.08316,0.07828,-0.02457,0.0975,-0.01617,0.00671,0.01022,-0.01785,-0.00931,-0.00412,-0.03357,-0.0206,0.01541,-0.03983
6.0305,-0.01022,-0.08484,-0.07339,0.28381,-0.02472,0.0885,-0.01373,0.00824,-0.00656,-0.0174,-0.00992,-0.00702,-0.03281,-0.02014,0.01556,-0.03815
6.031,-0.0058,-0.08469,-0.06577,0.31403,-0.02792,0.0528,-0.01205,0.00793,-0.02304,-0.01663,-0.01236,-0.00793,-0.03326,-0.01892,0.01328,-0.03677
6.0315,-0.00305,-0.0795,-0.05188,0.12802,-0.03204,-0.0061,-0.01221,0.00427,-0.03433,-0.01617,-0.01587,-0.00015,-0.03357,-0.01846,0.00748,-0.03601
6.032,-0.00381,-0.07431,-0.03067,-0.11108,-0.03418,-0.0975,-0.01572,-0.00092,-0.03983,-0.01831,-0.01923,0.01266,-0.03296,-0.0177,0.01053,-0.03662
6.0325,-0.00519,-0.07004,-0.00366,-0.20386,-0.03601,-0.19836,-0.01892,-0.00702,-0.04608,-0.02441,-0.0209,0.01862,-0.03296,-0.01663,0.01099,-0.03708
6.033,-0.00458,-0.06317,0.02701,-0.14221,-0.03677,-0.24246,-0.02014,-0.01129,-0.05615,-0.03113,-0.02167,0.01617,-0.03281,-0.01541,0.01343,-0.03891
6.0335,-0.00107,-0.0531,0.05234,-0.06409,-0.03693,-0.18997,-0.01984,-0.01404,-0.06363,-0.0354,-0.02289,0.01465,-0.03189,-0.01526,0.01053,-0.0386
6.034,0.00183,-0.04105,0.0705,-0.056,-0.03601,-0.08087,-0.0206,-0.01434,-0.0621,-0.03693,-0.02792,0.01358,-0.03189,-0.01801,0.00732,-0.03693
6.0345,0.0061,-0.03082,0.07584,-0.08301,-0.03387,0.00351,-0.02045,-0.01251,-0.05661,-0.03998,-0.03494,-0.00198,-0.03296,-0.0206,0.01007,-0.0354
6.035,0.00778,-0.02472,0.07034,-0.08514,-0.03281,0.01678,-0.01785,-0.01038,-0.05676,-0.04211,-0.03799,-0.04135,-0.0351,-0.02136,0.00946,-0.03601
6.0355,0.00275,-0.02151,0.0621,-0.05478,-0.03281,-0.02335,-0.01297,-0.00885,-0.06088,-0.0412,-0.03555,-0.07401,-0.03647,-0.01984,0.00961,-0.03815
6.036,-0.00763,-0.0209,0.05722,-0.02365,-0.03479,-0.08774,-0.00977,-0.009,-0.06104,-0.03677,-0.02853,-0.05081,-0.03723,-0.01953,0.00656,-0.04059
6.0365,-0.01999,-0.02319,0.05005,-0.00519,-0.03876,-0.15518,-0.00977,-0.00885,-0.05386,-0.03235,-0.02304,0.02594,-0.03799,-0.0206,0.00473,-0.04089
6.037,-0.02808,-0.02869,0.03387,0.01114,-0.03937,-0.18875,-0.01083,-0.00824,-0.04135,-0.0293,-0.02151,0.08881,-0.0383,-0.02121,0.00839,-0.04074
6.0375,-0.03189,-0.0354,0.00748,0.0235,-0.0386,-0.15244,-0.01099,-0.0032,-0.02823,-0.02625,-0.02228,0.08514,-0.03738,-0.02151,0.0087,-0.03952
6.038,-0.03296,-0.04211,-0.01984,0.00885,-0.0354,-0.08209,-0.01053,0.0032,-0.01678,-0.02472,-0.02258,0.03983,-0.03525,-0.02151,0.00778,-0.03876
6.0385,-0.02991,-0.05051,-0.0383,-0.03479,-0.03479,-0.04639,-0.00977,0.00702,-0.0061,-0.02289,-0.02182,0.01038,-0.03555,-0.02243,0.00626,-0.03754
6.039,-0.02045,-0.05936,-0.047,-0.07248,-0.03586,-0.05966,-0.01022,0.00443,0.00412,-0.01984,-0.02167,0.01068,-0.03784,-0.02258,0.00748,-0.03738
6.0395,-0.00732,-0.06729,-0.0499,-0.08209,-0.03479,-0.08316,-0.00992,-0.00381,0.01297,-0.01617,-0.01907,0.01465,-0.03937,-0.02136,0.00687,-0.03922
6.04,0.00366,-0.07019,-0.04486,-0.07904,-0.03159,-0.1033,-0.00977,-0.01099,0.01938,-0.01221,-0.01617,0.00412,-0.03952,-0.01984,0.00793,-0.03967
6.0405,0.00961,-0.06607,-0.04059,-0.08606,-0.02747,-0.14114,-0.01556,-0.01419,0.02655,-0.01068,-0.01236,-0.00992,-0.03845,-0.02045,0.00732,-0.03983
6.041,0.01343,-0.05646,-0.03464,-0.09171,-0.02518,-0.18539,-0.0267,-0.01282,0.03632,-0.01144,-0.01068,-0.01312,-0.03754,-0.02106,0.00763,-0.04013
6.0415,0.01831,-0.04501,-0.03265,-0.07217,-0.02319,-0.18616,-0.03723,-0.00839,0.04349,-0.01282,-0.01129,-0.00458,-0.03662,-0.02243,0.00702,-0.04135
6.042,0.02228,-0.03479,-0.03525,-0.03616,-0.02304,-0.11688,-0.03906,-0.00519,0.03983,-0.01144,-0.01251,0.00488,-0.03693,-0.02335,0.0061,-0.04211
6.0425,0.0206,-0.02686,-0.03952,-0.0174,-0.02457,-0.02762,-0.03128,-0.00473,0.02502,-0.00946,-0.01251,0.01114,-0.03677,-0.02319,0.00366,-0.04181
6.043,0.01434,-0.01968,-0.03906,-0.0267,-0.02808,0.0206,-0.01694,-0.0058,0.009,-0.00946,-0.01297,0.01511,-0.03632,-0.02213,0.00702,-0.03983
6.0435,0.00671,-0.01038,-0.04028,-0.04166,-0.03082,0.02121,-0.00458,-0.00549,-0.00061,-0.00885,-0.01343,0.01785,-0.0351,-0.02167,0.0061,-0.03891
6.044,0.00107,-0.00519,-0.03632,-0.03448,-0.03403,0.01648,-0.00473,-0.00427,-0.00519,-0.00687,-0.01404,0.01999,-0.03387,-0.02029,0.00671,-0.03983
6.0445,-0.00595,-0.00641,-0.03433,-0.00488,-0.03723,0.0267,-0.02136,-0.00366,-0.01114,-0.00381,-0.01389,0.01816,-0.03357,-0.02014,0.00748,-0.0415
6.045,-0.01694,-0.01328,-0.02945,0.02579,-0.03723,0.0296,-0.05219,-0.00198,-0.02075,-0.00244,-0.01236,0.01541,-0.03311,-0.01923,0.00809,-0.04288
6.0455,-0.03311,-0.02243,-0.02838,0.04074,-0.0354,0.00534,-0.07996,0.00092,-0.02899,-0.00336,-0.01053,0.01404,-0.03418,-0.01709,0.00931,-0.04272
6.046,-0.04471,-0.02792,-0.03113,0.03387,-0.0322,-0.02975,-0.08743,0.00504,-0.03052,-0.00397,-0.01007,0.01297,-0.0351,-0.01648,0.01038,-0.04196
6.0465,-0.04608,-0.02792,-0.03845,0.02243,-0.03296,-0.05203,-0.07599,0.00809,-0.02884,-0.00198,-0.01129,0.01251,-0.03525,-0.01694,0.01007,-0.04211
6.047,-0.04013,-0.02838,-0.04883,0.01892,-0.03479,-0.05737,-0.0679,0.00671,-0.02777,0.00031,-0.01312,0.01022,-0.03464,-0.01663,0.00717,-0.04211
6.0475,-0.03494,-0.03479,-0.05524,0.02304,-0.03998,-0.0531,-0.07278,0.00031,-0.02975,0.00137,-0.0145,0.00778,-0.03265,-0.01587,0.00641,-0.04227
6.048,-0.03098,-0.04272,-0.05951,0.02563,-0.04425,-0.04822,-0.07309,-0.00595,-0.02747,0.00076,-0.01389,0.00671,-0.03021,-0.01602,0.00778,-0.04166
6.0485,-0.02151,-0.04929,-0.06104,0.02197,-0.04608,-0.04425,-0.04868,-0.0058,-0.01862,0.00092,-0.01251,0.0058,-0.03021,-0.01846,0.00443,-0.04105
6.049,-0.00366,-0.05219,-0.05905,0.01724,-0.04562,-0.04776,-0.01175,-0.00168,-0.00885,0.00305,-0.01099,0.0032,-0.03342,-0.01953,0.0061,-0.04105
6.0495,0.01358,-0.05615,-0.05325,0.01221,-0.04486,-0.05539,0.01801,0.00229,-0.00534,0.00504,-0.01022,0.00168,-0.03525,-0.01907,0.00519,-0.04257
6.05,0.01907,-0.06332,-0.047,0.0029,-0.04471,-0.05753,0.03159,0.00031,-0.00992,0.00641,-0.00961,0.00305,-0.03311,-0.01724,0.01144,-0.04364
6.0505,0.01343,-0.06943,-0.04639,-0.01328,-0.04501,-0.04089,0.03448,-0.0058,-0.01709,0.0061,-0.00946,0.00427,-0.02991,-0.01587,0.00702,-0.04318
6.051,0.00519,-0.07248,-0.0502,-0.03082,-0.04456,-0.00671,0.03769,-0.01266,-0.02502,0.00427,-0.00946,0.00381,-0.02884,-0.01465,0.00626,-0.04486
6.0515,0.00076,-0.07126,-0.05081,-0.04013,-0.04303,0.02823,0.04349,-0.01556,-0.03357,0.00198,-0.01099,0.00153,-0.02914,-0.01434,0.00824,-0.047
6.052,0.0,-0.07217,-0.05035,-0.03525,-0.03967,0.05814,0.04196,-0.01343,-0.04395,-0.00092,-0.01129,0.00015,-0.0296,-0.01556,0.00809,-0.04883
6.0525,0.00092,-0.0737,-0.04822,-0.02106,-0.03708,0.08942,0.01633,-0.00977,-0.05157,-0.00687,-0.01053,0.00061,-0.03036,-0.01755,0.00748,-0.04883
6.053,0.00092,-0.07202,-0.05081,-0.01114,-0.03708,0.11429,-0.02472,-0.00839,-0.0531,-0.01053,-0.00946,0.00412,-0.03128,-0.01846,0.00366,-0.04776
6.0535,-0.00122,-0.06561,-0.04913,-0.01358,-0.03769,0.09857,-0.05249,-0.01205,-0.04623,-0.01328,-0.00931,0.00778,-0.03159,-0.01816,0.01022,-0.04669
6.054,-0.00366,-0.0563,-0.04364,-0.01694,-0.03876,0.0238,-0.04272,-0.01419,-0.03906,-0.01633,-0.00946,0.00732,-0.03098,-0.0177,0.0058,-0.04654
6.0545,-0.00534,-0.04623,-0.03387,-0.00946,-0.03769,-0.05127,-0.00366,-0.00916,-0.03586,-0.01938,-0.00961,0.00549,-0.03098,-0.0174,0.00732,-0.04379
6.055,-0.00565,-0.03662,-0.03082,0.00717,-0.03571,-0.06729,0.03281,-0.00046,-0.03616,-0.02365,-0.01053,0.00443,-0.03174,-0.01694,0.0058,-0.03845
6.0555,-0.00671,-0.0322,-0.03281,0.0174,-0.03342,-0.04623,0.04501,0.00549,-0.03418,-0.02747,-0.01205,0.00458,-0.03067,-0.01648,0.00671,-0.0325
6.056,-0.00732,-0.03464,-0.03632,0.01236,-0.03235,-0.05142,0.04166,0.00641,-0.02594,-0.02808,-0.0116,0.00488,-0.02869,-0.01694,0.00824,-0.02975
6.0565,-0.00473,-0.03937,-0.03586,0.00229,-0.03296,-0.09995,0.03708,0.00412,-0.01587,-0.02655,-0.00931,0.0061,-0.02853,-0.01831,0.00595,-0.03372
6.057,0.00092,-0.04089,-0.03525,0.00107,-0.03387,-0.15503,0.03357,0.00305,-0.0087,-0.02533,-0.00671,0.00549,-0.03006,-0.01984,0.00427,-0.04059
6.0575,0.0087,-0.0386,-0.0383,0.00443,-0.03693,-0.17914,0.03067,0.00397,-0.0058,-0.0238,-0.00595,0.00336,-0.0325,-0.02014,0.00488,-0.0473
6.058,0.01358,-0.03708,-0.04395,0.00397,-0.03998,-0.1651,0.03296,0.00046,-0.00397,-0.02319,-0.00839,0.00305,-0.03342,-0.01999,0.00473,-0.04791
6.0585,0.01343,-0.04059,-0.04807,-0.00107,-0.04379,-0.12329,0.03708,-0.00916,0.0,-0.02319,-0.01144,0.00519,-0.03433,-0.01923,0.00687,-0.0441
6.059,0.00824,-0.04532,-0.04669,-0.00778,-0.04578,-0.07294,0.02823,-0.02167,0.00427,-0.02426,-0.01068,0.00961,-0.03342,-0.01923,0.00488,-0.04044
6.0595,-0.00107,-0.04669,-0.03632,-0.01465,-0.04776,-0.03967,-0.00748,-0.02869,0.00839,-0.02594,-0.00916,0.01343,-0.03143,-0.01999,0.0061,-0.03815
6.06,-0.01343,-0.04486,-0.0209,-0.01923,-0.04761,-0.0386,-0.05814,-0.02487,0.01205,-0.02563,-0.00748,0.01572,-0.02884,-0.02151,0.00977,-0.03571
6.0605,-0.02441,-0.04211,-0.00534,-0.01938,-0.04608,-0.0531,-0.09537,-0.01389,0.01434,-0.02289,-0.00885,0.01678,-0.02884,-0.02121,0.00549,-0.03433
6.061,-0.03128,-0.04227,-0.00992,-0.01389,-0.04196,-0.05722,-0.09888,-0.00336,0.01602,-0.01999,-0.01022,0.01694,-0.03143,-0.02243,0.00854,-0.03586
6.0615,-0.0386,-0.04242,-0.01846,-0.00519,-0.0386,-0.04822,-0.0827,-0.00031,0.01785,-0.01999,-0.01099,0.01617,-0.03555,-0.02365,0.00641,-0.04227
6.062,-0.04745,-0.03845,-0.02747,-0.00168,-0.03738,-0.0444,-0.0766,-0.00198,0.02045,-0.0209,-0.01099,0.01389,-0.03799,-0.0238,0.0087,-0.05814
6.0625,-0.05234,-0.03036,-0.03159,0.00397,-0.03616,-0.05753,-0.09109,-0.00381,0.02472,-0.0209,-0.01053,0.01114,-0.03677,-0.02243,0.00809,-0.0798
6.063,-0.04868,-0.0235,-0.03281,0.01846,-0.03296,-0.07751,-0.10605,-0.00275,0.02625,-0.02167,-0.00946,0.00717,-0.03464,-0.02213,0.0087,-0.09384
6.0635,-0.03769,-0.02136,-0.03601,0.03616,-0.03021,-0.08987,-0.09415,-0.00153,0.02335,-0.02029,-0.00809,0.00305,-0.03311,-0.02213,0.00839,-0.09491
6.064,-0.02457,-0.02304,-0.04196,0.04395,-0.0293,-0.0882,-0.05447,0.00137,0.01602,-0.0177,-0.00763,-0.00092,-0.03265,-0.02029,0.00916,-0.09415
