time,RectFemL,VastusMedL,VastusLatL,TibAntL,HamMedL,HamLatL,GastroMedL,GastroLatL,RectFemR,VastusMedR,VastusLatR,TibAntR,HamMedR,HamLatR,GastroMedR,GastroLatR
11.3,-0.00916,-0.04486,-0.04776,-0.01572,0.04196,-0.00885,-0.01205,-0.01266,-0.01556,-0.01816,-0.0145,0.00519,-0.0293,-0.0177,-0.00198,-0.01297
11.3005,-0.00778,-0.0441,-0.06302,0.00504,0.03235,-0.10208,-0.01129,-0.00793,-0.01633,-0.01648,-0.01389,-0.00153,-0.02869,-0.01648,-0.0235,0.06607
11.301,-0.0058,-0.04211,-0.07233,0.01312,0.0119,-0.21088,-0.00977,-0.00534,-0.01648,-0.01694,-0.01312,-0.00168,-0.02975,-0.01526,-0.05539,0.13306
11.3015,-0.00214,-0.03998,-0.07294,-0.01282,-0.00488,-0.24582,-0.0087,-0.00519,-0.01526,-0.01816,-0.01251,0.00122,-0.0322,-0.0145,-0.08759,0.15121
11.302,-0.00015,-0.03815,-0.06668,-0.0528,-0.02563,-0.1857,-0.00977,-0.00626,-0.01373,-0.01816,-0.01053,0.00641,-0.03418,-0.01495,-0.112,0.11749
11.3025,0.00015,-0.03693,-0.05753,-0.08347,-0.06668,-0.09369,-0.01175,-0.00763,-0.01373,-0.01862,-0.00931,0.01175,-0.03342,-0.01434,-0.13214,0.06287
11.303,-0.00031,-0.03662,-0.0502,-0.10223,-0.12985,-0.04242,-0.01389,-0.00824,-0.0148,-0.01785,-0.00931,0.01404,-0.0322,-0.01434,-0.14175,0.0209
11.3035,-0.00031,-0.03693,-0.0441,-0.1207,-0.19547,-0.0441,-0.01495,-0.00793,-0.01495,-0.01785,-0.01129,0.0119,-0.03311,-0.01419,-0.12054,0.00381
11.304,0.00153,-0.03799,-0.03983,-0.1442,-0.23529,-0.07187,-0.01511,-0.00732,-0.01495,-0.0174,-0.01419,0.00702,-0.03296,-0.01556,-0.05417,-0.0032
11.3045,0.0029,-0.04013,-0.03571,-0.16388,-0.23407,-0.10178,-0.01541,-0.00763,-0.01465,-0.0174,-0.01541,0.00122,-0.03082,-0.01648,0.03128,-0.01358
11.305,0.0029,-0.0415,-0.03098,-0.16083,-0.19958,-0.11551,-0.01495,-0.01236,-0.0148,-0.0177,-0.01419,-0.0029,-0.02914,-0.01556,0.09293,-0.03067
11.3055,0.00275,-0.04318,-0.02609,-0.10498,-0.15396,-0.09827,-0.01205,-0.02106,-0.01511,-0.01923,-0.01251,-0.0029,-0.02945,-0.01495,0.11261,-0.04959
11.306,0.00183,-0.0412,-0.02243,0.01526,-0.11536,-0.05539,-0.00992,-0.03006,-0.01556,-0.02197,-0.01205,-0.00046,-0.03235,-0.01572,0.1062,-0.06607
11.3065,0.00183,-0.03876,-0.0206,0.15686,-0.09064,-0.01511,-0.00946,-0.03433,-0.01526,-0.02594,-0.01373,0.0032,-0.03464,-0.0174,0.09186,-0.07629
11.307,0.00137,-0.03616,-0.01801,0.23102,-0.07553,-0.00137,-0.00977,-0.03036,-0.01526,-0.02762,-0.01587,0.00427,-0.03571,-0.01999,0.06897,-0.07919
11.3075,0.00061,-0.03586,-0.01526,0.18188,-0.06302,-0.01053,-0.00977,-0.02426,-0.01617,-0.02762,-0.01541,0.00214,-0.0354,-0.02258,0.04089,-0.07935
11.308,-0.00015,-0.03662,-0.01221,0.0528,-0.04395,-0.02716,-0.00992,-0.02472,-0.01663,-0.0267,-0.01358,0.00107,-0.0351,-0.02426,0.01358,-0.08423
11.3085,-0.00122,-0.03876,-0.01221,-0.05264,-0.01801,-0.03922,-0.01251,-0.0325,-0.01617,-0.0235,-0.01328,0.00214,-0.03464,-0.02335,-0.01236,-0.09506
11.309,-0.00259,-0.04211,-0.01633,-0.07965,0.00458,-0.04929,-0.0177,-0.0296,-0.01556,-0.01831,-0.01434,0.00336,-0.03403,-0.02197,-0.02411,-0.10635
11.3095,-0.00214,-0.04593,-0.02197,-0.05554,0.01129,-0.05646,-0.02213,-0.00107,-0.01602,-0.01373,-0.01541,0.00153,-0.0354,-0.01999,0.00214,-0.10818
11.31,0.00061,-0.04852,-0.02609,-0.03433,-0.00671,-0.05737,-0.02426,0.04349,-0.01587,-0.01083,-0.01404,-0.00168,-0.03723,-0.01862,0.06531,-0.09796
11.3105,0.00336,-0.0502,-0.0293,-0.03784,-0.03815,-0.04974,-0.02884,0.07278,-0.01556,-0.01007,-0.01328,-0.00549,-0.03769,-0.01907,0.12466,-0.08011
11.311,0.00443,-0.04929,-0.03265,-0.05402,-0.0589,-0.03815,-0.03876,0.06744,-0.01587,-0.00977,-0.01419,-0.00687,-0.03647,-0.0209,0.14053,-0.06378
11.3115,0.0032,-0.04745,-0.03555,-0.07339,-0.05219,-0.03784,-0.05432,0.03738,-0.01633,-0.00732,-0.01495,-0.00687,-0.03555,-0.02167,0.11993,-0.05692
11.312,0.00214,-0.04471,-0.03632,-0.08804,-0.02457,-0.05844,-0.06927,0.00717,-0.01663,-0.00656,-0.0145,-0.00702,-0.03494,-0.02045,0.08987,-0.06134
11.3125,0.00214,-0.04257,-0.03372,-0.08148,0.00107,-0.08347,-0.07568,-0.00961,-0.01694,-0.00641,-0.0116,-0.00717,-0.03418,-0.01816,0.06073,-0.0737
11.313,0.00153,-0.03967,-0.03326,-0.03632,0.01373,-0.09155,-0.06744,-0.01419,-0.01572,-0.00961,-0.01038,-0.00595,-0.03296,-0.01587,0.02716,-0.08087
11.3135,-0.00153,-0.03967,-0.03632,0.04913,0.01663,-0.0769,-0.05325,-0.01419,-0.01495,-0.01221,-0.01053,-0.00336,-0.03159,-0.01678,-0.0058,-0.07813
11.314,-0.00626,-0.04044,-0.03967,0.14572,0.0209,-0.04471,-0.04898,-0.01175,-0.01465,-0.01343,-0.01328,-0.00107,-0.03159,-0.01831,-0.03036,-0.06882
11.3145,-0.00748,-0.04105,-0.03845,0.19989,0.02792,-0.00702,-0.05386,-0.00458,-0.01434,-0.01358,-0.01404,-0.00076,-0.03036,-0.01831,-0.0415,-0.06393
11.315,-0.00549,-0.04089,-0.03372,0.17212,0.04181,0.02716,-0.05234,0.00977,-0.01511,-0.01373,-0.01343,-0.0061,-0.02945,-0.01709,-0.0444,-0.06454
11.3155,-0.0029,-0.0383,-0.03006,0.08087,0.05768,0.06256,-0.0354,0.02579,-0.01587,-0.01465,-0.01083,-0.01114,-0.02884,-0.01633,-0.04288,-0.06042
11.316,-0.00275,-0.03281,-0.02945,-0.00504,0.06912,0.10345,-0.00778,0.0325,-0.01694,-0.01495,-0.01175,-0.01312,-0.03128,-0.01755,-0.03021,-0.05051
11.3165,-0.00412,-0.03021,-0.02914,-0.03891,0.07217,0.14481,0.01617,0.02502,-0.01602,-0.0145,-0.01404,-0.01099,-0.03265,-0.01846,-0.01297,-0.04395
11.317,-0.00549,-0.03113,-0.02716,-0.02472,0.07034,0.16327,0.02487,0.00443,-0.01465,-0.01343,-0.01526,-0.00778,-0.03113,-0.01831,-0.00031,-0.04761
11.3175,-0.00702,-0.03433,-0.0235,0.00641,0.06531,0.14069,0.02625,-0.02609,-0.01556,-0.0145,-0.01343,-0.00626,-0.02975,-0.01816,0.02014,-0.05844
11.318,-0.00671,-0.03571,-0.01938,0.03525,0.05783,0.08438,0.03281,-0.05524,-0.01709,-0.01495,-0.01175,-0.00641,-0.0296,-0.01923,0.05981,-0.0676
11.3185,-0.00504,-0.0351,-0.01801,0.05402,0.04349,0.01968,0.03311,-0.0676,-0.01862,-0.01572,-0.01297,-0.00519,-0.03113,-0.01968,0.09323,-0.07187
11.319,-0.00259,-0.03235,-0.01709,0.05478,0.0145,-0.03525,0.00381,-0.06317,-0.01801,-0.01511,-0.01419,-0.0029,-0.03082,-0.02029,0.08392,-0.07446
11.3195,-0.00061,-0.03159,-0.01785,0.03586,-0.02823,-0.09216,-0.04669,-0.05035,-0.01648,-0.01511,-0.01328,-0.00153,-0.03128,-0.02014,0.03021,-0.07294
11.32,-0.00061,-0.03433,-0.02502,0.00565,-0.07263,-0.17578,-0.08133,-0.02914,-0.01602,-0.01694,-0.01129,-0.00443,-0.03281,-0.01953,-0.02258,-0.06088
11.3205,-0.00168,-0.04105,-0.03601,-0.01694,-0.10223,-0.28412,-0.0769,0.01175,-0.01724,-0.0174,-0.01099,-0.01129,-0.03403,-0.01923,-0.0444,-0.03403
11.321,-0.00244,-0.04639,-0.04517,-0.01724,-0.11383,-0.36545,-0.04761,0.06958,-0.0177,-0.0177,-0.0119,-0.01556,-0.03342,-0.02014,-0.04135,-0.0029
11.3215,-0.0032,-0.04913,-0.04929,0.01099,-0.11581,-0.35751,-0.01297,0.10513,-0.01709,-0.01755,-0.01328,-0.01404,-0.03311,-0.02167,-0.02625,0.01999
11.322,-0.00412,-0.05051,-0.04837,0.06577,-0.11322,-0.25833,0.02243,0.0798,-0.01617,-0.01816,-0.01358,-0.00748,-0.03326,-0.02167,-0.00015,0.03616
11.3225,-0.00534,-0.05173,-0.04684,0.14099,-0.10391,-0.12909,0.05676,0.00473,-0.01633,-0.01923,-0.01266,0.0,-0.03357,-0.02213,0.03693,0.05417
11.323,-0.00702,-0.05341,-0.04745,0.2243,-0.08148,-0.03647,0.07858,-0.06195,-0.01709,-0.02029,-0.01328,0.00534,-0.0351,-0.0209,0.06485,0.06577
11.3235,-0.00732,-0.05234,-0.047,0.28061,-0.05081,0.00046,0.07919,-0.07965,-0.01663,-0.0206,-0.01495,0.0061,-0.0354,-0.01999,0.05844,0.05066
11.324,-0.0061,-0.04654,-0.04486,0.25177,-0.02396,0.00473,0.0708,-0.05417,-0.01541,-0.01953,-0.01602,0.00534,-0.03372,-0.01984,0.02335,0.00778
11.3245,-0.00305,-0.04044,-0.0412,0.12604,-0.01205,0.00763,0.07324,-0.0209,-0.01633,-0.01801,-0.01785,0.00458,-0.03235,-0.02029,-0.00534,-0.03448
11.325,-0.00153,-0.0354,-0.03632,-0.01251,-0.01923,0.0148,0.08865,0.00015,-0.01953,-0.01862,-0.01999,0.00305,-0.03235,-0.02213,-0.00946,-0.05478
11.3255,-0.00229,-0.03143,-0.0322,-0.06241,-0.03555,0.0174,0.09506,0.01266,-0.02289,-0.02121,-0.02014,-0.00046,-0.03403,-0.02258,-0.00168,-0.06149
11.326,-0.00443,-0.02899,-0.03021,-0.01999,-0.04959,0.00015,0.07126,0.02045,-0.0238,-0.02197,-0.01892,-0.00381,-0.0351,-0.02274,0.00244,-0.07416
11.3265,-0.00763,-0.02869,-0.03235,0.03479,-0.05569,-0.03128,0.02121,0.02045,-0.02045,-0.02151,-0.01755,-0.00366,-0.0351,-0.02243,0.00412,-0.10269
11.327,-0.00992,-0.03128,-0.03387,0.04883,-0.04791,-0.0618,-0.0209,0.01038,-0.01648,-0.01968,-0.02075,-0.00107,-0.03494,-0.02335,0.0087,-0.14206
11.3275,-0.0116,-0.03448,-0.0351,0.03891,-0.02075,-0.08148,-0.02899,0.00305,-0.0148,-0.0177,-0.02655,0.00046,-0.03418,-0.0235,0.00992,-0.17822
11.328,-0.01175,-0.03891,-0.03693,0.03571,0.01862,-0.09399,-0.00015,0.00717,-0.01465,-0.01846,-0.02884,-0.00092,-0.03372,-0.02274,-0.00534,-0.19577
11.3285,-0.00946,-0.04257,-0.03906,0.03998,0.0502,-0.09811,0.04578,0.01694,-0.01526,-0.01831,-0.02396,-0.00107,-0.03448,-0.02136,-0.02899,-0.18097
11.329,-0.00473,-0.04593,-0.04257,0.04303,0.05783,-0.07858,0.08133,0.02197,-0.01648,-0.02045,-0.01602,0.00229,-0.0354,-0.02075,-0.04364,-0.13306
11.3295,-0.00061,-0.04776,-0.04333,0.04456,0.04623,-0.03128,0.07965,0.02075,-0.0174,-0.02106,-0.01022,0.00916,-0.0354,-0.02121,-0.04776,-0.05585
11.33,0.00443,-0.04593,-0.03998,0.04578,0.02731,0.01328,0.03891,0.01892,-0.01846,-0.01953,-0.0087,0.01495,-0.03418,-0.02258,-0.05081,0.04318
11.3305,0.00702,-0.04364,-0.03479,0.03693,0.00336,0.0206,-0.00687,0.0177,-0.01831,-0.01755,-0.00809,0.01755,-0.03387,-0.02228,-0.05707,0.13611
11.331,0.00702,-0.04181,-0.03082,0.01923,-0.02792,-0.00809,-0.02838,0.0145,-0.01862,-0.01511,-0.00656,0.01755,-0.03387,-0.01938,-0.05844,0.17349
11.3315,0.00473,-0.04135,-0.03326,0.00198,-0.06104,-0.04379,-0.02777,0.00626,-0.01846,-0.0145,-0.00351,0.01358,-0.03418,-0.0174,-0.05539,0.13504
11.332,0.00214,-0.04211,-0.03998,-0.00809,-0.08316,-0.06104,-0.0296,-0.00443,-0.01984,-0.01526,-0.00229,0.00748,-0.03525,-0.01831,-0.05676,0.06104
11.3325,0.00183,-0.04242,-0.04227,-0.00504,-0.08865,-0.06943,-0.03693,-0.01678,-0.01892,-0.01831,-0.0029,0.00275,-0.03525,-0.02136,-0.06577,0.0087
11.333,0.00214,-0.04059,-0.03677,0.0145,-0.08987,-0.08682,-0.04074,-0.02945,-0.01709,-0.01984,-0.00534,-0.00061,-0.03586,-0.02319,-0.0769,-0.00702
11.3335,0.00244,-0.03662,-0.02411,0.03967,-0.0972,-0.10681,-0.03922,-0.04059,-0.01511,-0.0209,-0.01099,-0.00305,-0.0351,-0.02213,-0.065,-0.01129
11.334,0.0029,-0.03357,-0.01648,0.04715,-0.10803,-0.10681,-0.04639,-0.04761,-0.01373,-0.0206,-0.01923,-0.00473,-0.03342,-0.02045,-0.00916,-0.02136
11.3345,0.00488,-0.03296,-0.01953,0.03143,-0.11154,-0.08484,-0.06912,-0.04593,-0.01251,-0.02151,-0.02335,-0.00458,-0.0325,-0.01801,0.0705,-0.03052
11.335,0.00748,-0.03326,-0.02884,0.01068,-0.1062,-0.06119,-0.09521,-0.03952,-0.0116,-0.02319,-0.0209,-0.00427,-0.0322,-0.01816,0.11322,-0.03174
11.3355,0.00824,-0.03433,-0.0354,0.00519,-0.09766,-0.0502,-0.10468,-0.03098,-0.01007,-0.02716,-0.01465,-0.00427,-0.03265,-0.01984,0.0827,-0.03098
11.336,0.0058,-0.03754,-0.03723,0.0116,-0.08469,-0.04425,-0.08972,-0.02167,-0.00885,-0.02869,-0.01068,-0.00351,-0.03311,-0.02136,0.01846,-0.03326
11.3365,0.00275,-0.04333,-0.03815,0.01831,-0.0589,-0.03418,-0.05753,-0.0116,-0.00992,-0.02625,-0.01038,-0.00122,-0.03448,-0.0209,-0.00809,-0.03708
11.337,-0.00046,-0.05051,-0.04379,0.01785,-0.02014,-0.02213,-0.02838,-0.00443,-0.01251,-0.02258,-0.0119,0.00076,-0.03448,-0.01907,0.02518,-0.03845
11.3375,-0.00336,-0.0531,-0.04959,0.01755,0.01709,-0.01648,-0.02182,0.00244,-0.0145,-0.01923,-0.01282,0.0,-0.03357,-0.0177,0.07904,-0.03784
11.338,-0.00626,-0.05005,-0.05234,0.0238,0.03204,-0.02502,-0.04196,0.00824,-0.01434,-0.01923,-0.01251,-0.00229,-0.03235,-0.01938,0.09888,-0.03555
11.3385,-0.00809,-0.04654,-0.05096,0.04074,0.0206,-0.04929,-0.06683,0.01358,-0.01297,-0.02029,-0.01266,-0.00351,-0.0325,-0.02014,0.06882,-0.03723
11.339,-0.00946,-0.04608,-0.04913,0.05768,-0.00305,-0.07553,-0.07736,0.01678,-0.01236,-0.01968,-0.01404,-0.00366,-0.03311,-0.01831,0.01816,-0.04105
11.3395,-0.0119,-0.04883,-0.05203,0.0589,-0.01816,-0.08102,-0.07172,0.01236,-0.01251,-0.01968,-0.01312,-0.00443,-0.03296,-0.01648,-0.01266,-0.04135
11.34,-0.01328,-0.05295,-0.05753,0.03937,-0.01373,-0.05798,-0.05325,0.00229,-0.01328,-0.01938,-0.01221,-0.00549,-0.03143,-0.01526,-0.0119,-0.03876
11.3405,-0.01373,-0.05463,-0.06317,0.0174,-0.00015,-0.02975,-0.0238,-0.00793,-0.01465,-0.01907,-0.01343,-0.00565,-0.03067,-0.01389,0.00351,-0.03815
11.341,-0.01373,-0.05356,-0.0679,0.01755,0.00229,-0.02335,0.00534,-0.01099,-0.01495,-0.01678,-0.01724,-0.00656,-0.03143,-0.01358,0.01236,-0.04379
11.3415,-0.0119,-0.04807,-0.06744,0.04303,-0.01312,-0.03799,0.01816,-0.00977,-0.01465,-0.01495,-0.02319,-0.00916,-0.03326,-0.01373,0.00763,-0.05249
11.342,-0.00946,-0.04211,-0.06271,0.06592,-0.0412,-0.04868,0.01114,-0.00702,-0.01587,-0.01648,-0.02838,-0.0116,-0.03448,-0.01587,-0.00244,-0.05936
11.3425,-0.00534,-0.03983,-0.05386,0.06012,-0.06256,-0.04211,-0.00122,-0.00565,-0.01862,-0.0177,-0.0293,-0.01083,-0.03448,-0.01648,-0.00992,-0.06393
11.343,-0.00198,-0.03845,-0.04395,0.03677,-0.06668,-0.02258,-0.00519,-0.00488,-0.02136,-0.01801,-0.02594,-0.00778,-0.03281,-0.01694,-0.00641,-0.06973
11.3435,-0.00031,-0.03769,-0.03616,0.03296,-0.056,-0.00763,-0.0029,-0.00427,-0.02106,-0.01892,-0.01938,-0.00366,-0.03128,-0.01572,0.01099,-0.07614
11.344,0.00015,-0.03525,-0.0322,0.05997,-0.03845,-0.00381,-0.00732,-0.00458,-0.01999,-0.01938,-0.01282,-0.00061,-0.03159,-0.01633,0.02838,-0.07736
11.3445,0.00137,-0.03479,-0.02884,0.08377,-0.02029,-0.00717,-0.01846,-0.00626,-0.01968,-0.02029,-0.00839,0.00397,-0.03296,-0.01755,0.02975,-0.07248
11.345,0.00473,-0.0383,-0.02441,0.07416,-0.00397,-0.01205,-0.03265,-0.00671,-0.01862,-0.02213,-0.0058,0.00748,-0.03281,-0.01785,0.01129,-0.07111
11.3455,0.00931,-0.04471,-0.02045,0.03357,0.00732,-0.02045,-0.04593,-0.0061,-0.01724,-0.02228,-0.00305,0.00763,-0.0322,-0.01755,-0.01205,-0.07355
11.346,0.01221,-0.05066,-0.01862,-0.01358,0.01648,-0.03418,-0.05783,-0.00488,-0.01587,-0.02014,-0.00046,0.00565,-0.03098,-0.0174,-0.02213,-0.07477
11.3465,0.01114,-0.05402,-0.01984,-0.04745,0.02045,-0.05493,-0.06744,-0.00626,-0.01511,-0.01785,0.00122,0.00366,-0.03021,-0.01663,-0.01663,-0.06866
11.347,0.00778,-0.05569,-0.02441,-0.06165,0.01862,-0.07294,-0.07339,-0.00961,-0.01465,-0.01755,-0.00015,0.00427,-0.03113,-0.01541,-0.00458,-0.0592
11.3475,0.00412,-0.05737,-0.03113,-0.06104,0.00763,-0.08133,-0.07675,-0.01266,-0.01312,-0.01877,-0.00504,0.00412,-0.03189,-0.01678,0.0032,-0.05203
11.348,0.00153,-0.05753,-0.03677,-0.05646,-0.00839,-0.07584,-0.08041,-0.01266,-0.00931,-0.02151,-0.01022,0.00473,-0.0325,-0.01953,0.00488,-0.04852
11.3485,-0.00244,-0.0563,-0.03601,-0.05905,-0.02365,-0.0647,-0.0795,-0.01007,-0.00778,-0.02243,-0.01266,0.00763,-0.03235,-0.02136,0.00473,-0.04715
11.349,-0.00885,-0.05341,-0.0296,-0.06714,-0.03662,-0.05524,-0.06332,-0.00809,-0.0087,-0.02075,-0.01358,0.00992,-0.03189,-0.01968,0.00427,-0.04532
11.3495,-0.01617,-0.05157,-0.02426,-0.07309,-0.04593,-0.04684,-0.02411,-0.00732,-0.01083,-0.01846,-0.01404,0.00778,-0.03174,-0.01862,0.00275,-0.04196
11.35,-0.02167,-0.05295,-0.0235,-0.07843,-0.05524,-0.03418,0.02701,-0.00641,-0.01266,-0.01663,-0.01434,0.00259,-0.0325,-0.01801,0.00015,-0.03876
11.3505,-0.0264,-0.0563,-0.02838,-0.08316,-0.06622,-0.01694,0.05707,-0.00381,-0.01312,-0.01617,-0.01358,-0.00153,-0.03281,-0.01831,-0.00397,-0.03693
11.351,-0.03235,-0.05707,-0.03754,-0.0824,-0.07721,-0.00381,0.05096,-0.00229,-0.01266,-0.01602,-0.01251,-0.00412,-0.03311,-0.01755,-0.0061,-0.03784
11.3515,-0.0386,-0.05203,-0.0412,-0.07294,-0.08621,0.00092,0.02899,-0.00015,-0.01221,-0.01541,-0.01205,-0.00336,-0.03357,-0.01709,-0.00305,-0.04089
11.352,-0.03922,-0.04028,-0.03723,-0.06897,-0.08942,0.00076,0.02228,0.00092,-0.0119,-0.01495,-0.01328,-0.00275,-0.03433,-0.01663,0.00351,-0.04562
11.3525,-0.02762,-0.02884,-0.0322,-0.0824,-0.08408,0.00351,0.02686,-0.00137,-0.01205,-0.01495,-0.01526,-0.00214,-0.03448,-0.01633,0.00854,-0.0502
11.353,-0.009,-0.02274,-0.03906,-0.11383,-0.07584,0.00854,0.02167,-0.0058,-0.01236,-0.01541,-0.01755,-0.00229,-0.03418,-0.01678,0.01373,-0.05203
11.3535,0.00458,-0.02213,-0.05905,-0.15533,-0.06989,0.00534,0.0032,-0.00961,-0.01266,-0.01617,-0.01785,-0.00229,-0.03433,-0.01846,0.02258,-0.04898
11.354,0.00839,-0.02457,-0.07599,-0.19073,-0.06866,-0.01236,-0.01099,-0.01053,-0.01282,-0.01633,-0.01587,-0.00137,-0.03418,-0.01953,0.02945,-0.04318
11.3545,0.009,-0.02487,-0.07202,-0.2066,-0.0708,-0.03922,-0.01099,-0.00717,-0.01389,-0.01663,-0.01358,0.0,-0.03296,-0.01984,0.02838,-0.03708
11.355,0.01236,-0.02167,-0.05035,-0.19608,-0.07339,-0.06287,-0.0058,-0.00153,-0.01266,-0.01678,-0.01175,0.00214,-0.03021,-0.01938,0.02075,-0.03403
11.3555,0.01633,-0.01862,-0.02945,-0.17014,-0.07126,-0.07813,-0.00534,0.00305,-0.01144,-0.01602,-0.01266,0.00381,-0.0296,-0.02029,0.01007,-0.0354
11.356,0.01633,-0.01572,-0.0177,-0.14801,-0.0621,-0.08209,-0.00992,0.00336,-0.0119,-0.01419,-0.01648,0.00519,-0.03082,-0.02014,-0.00549,-0.0386
11.3565,0.00961,-0.01343,-0.01205,-0.14664,-0.0502,-0.07828,-0.01465,-0.00031,-0.01373,-0.01511,-0.02441,0.00595,-0.03281,-0.01938,-0.02426,-0.04013
11.357,-0.00092,-0.01099,-0.0061,-0.16785,-0.04242,-0.07126,-0.01816,-0.00565,-0.01511,-0.01694,-0.03738,0.00473,-0.03326,-0.01892,-0.03357,-0.04089
11.3575,-0.00977,-0.01221,-0.00397,-0.19836,-0.03937,-0.06195,-0.02014,-0.01022,-0.01648,-0.01831,-0.04669,0.00214,-0.03387,-0.0209,-0.02228,-0.0415
11.358,-0.01343,-0.01846,-0.00748,-0.2269,-0.03891,-0.05753,-0.01968,-0.0116,-0.0177,-0.01877,-0.0444,-0.00015,-0.03448,-0.02365,-0.00229,-0.04349
11.3585,-0.01083,-0.02792,-0.0145,-0.25452,-0.0383,-0.05997,-0.01984,-0.0119,-0.01953,-0.01907,-0.03067,-0.00092,-0.03555,-0.02289,0.00839,-0.04471
11.359,-0.0058,-0.03601,-0.02182,-0.29297,-0.0354,-0.05859,-0.01968,-0.01083,-0.02075,-0.01938,-0.01404,-0.00092,-0.0354,-0.02106,0.00549,-0.04593
11.3595,0.0,-0.0415,-0.0296,-0.35004,-0.03128,-0.04517,-0.01846,-0.0087,-0.02243,-0.01938,-0.00107,-0.00061,-0.03403,-0.02167,0.00183,-0.04715
11.36,0.00046,-0.04501,-0.03571,-0.41672,-0.02884,-0.02747,-0.01648,-0.00656,-0.02457,-0.01724,0.00687,0.00198,-0.03357,-0.02426,0.00443,-0.04761
11.3605,-0.00473,-0.04639,-0.04028,-0.46799,-0.03067,-0.01831,-0.01236,-0.00351,-0.02777,-0.01343,0.01099,0.00641,-0.03357,-0.02625,0.01114,-0.04776
11.361,-0.01205,-0.04562,-0.0441,-0.45441,-0.03677,-0.02289,-0.00931,-0.00198,-0.02838,-0.0116,0.01205,0.00931,-0.03326,-0.02457,0.01648,-0.047
11.3615,-0.01709,-0.04395,-0.0473,-0.32272,-0.04181,-0.03021,-0.00809,-0.00122,-0.02655,-0.0119,0.00824,0.00916,-0.03296,-0.02167,0.01877,-0.04654
11.362,-0.01434,-0.04272,-0.05249,-0.08606,-0.04242,-0.0293,-0.00839,-0.00351,-0.02472,-0.01572,0.00076,0.00595,-0.03265,-0.01938,0.01923,-0.04654
11.3625,-0.00748,-0.04349,-0.05341,0.12482,-0.03326,-0.02487,-0.01053,-0.00641,-0.02441,-0.01923,-0.00519,0.00458,-0.0325,-0.01877,0.0174,-0.04608
11.363,-0.00183,-0.04395,-0.05051,0.15732,-0.01862,-0.02411,-0.01389,-0.00931,-0.02335,-0.01999,-0.00778,0.00519,-0.03296,-0.01938,0.01175,-0.04715
11.3635,0.00122,-0.04333,-0.04562,0.00137,-0.00336,-0.02991,-0.01617,-0.01022,-0.02029,-0.01953,-0.00916,0.00519,-0.03265,-0.01831,0.00519,-0.04929
11.364,0.0032,-0.04196,-0.04196,-0.19485,0.00351,-0.03586,-0.01526,-0.00839,-0.01495,-0.01541,-0.01129,0.00366,-0.0322,-0.0177,0.00183,-0.05173
11.3645,0.00626,-0.0412,-0.03784,-0.28503,0.0061,-0.04105,-0.01343,-0.00519,-0.009,-0.01556,-0.01389,0.00183,-0.0322,-0.01694,0.00244,-0.05249
11.365,0.00961,-0.04242,-0.03174,-0.24094,0.00885,-0.04807,-0.01068,-0.00427,-0.0058,-0.01816,-0.01602,0.00168,-0.03372,-0.01831,0.00488,-0.05219
11.3655,0.00977,-0.04501,-0.02563,-0.12512,0.01312,-0.06226,-0.00977,-0.00443,-0.00717,-0.02029,-0.01572,0.0029,-0.03464,-0.02029,0.00473,-0.05203
11.366,0.00656,-0.04715,-0.02106,-0.00946,0.0145,-0.08286,-0.01038,-0.00504,-0.00931,-0.01999,-0.01465,0.00366,-0.03357,-0.02106,0.00061,-0.04868
11.3665,0.00168,-0.04807,-0.01648,0.06485,0.00595,-0.10483,-0.01175,-0.0058,-0.01114,-0.01846,-0.01434,0.00427,-0.03387,-0.02136,0.00076,-0.04318
11.367,-0.00443,-0.04761,-0.01022,0.08575,-0.01144,-0.10544,-0.01205,-0.00641,-0.01129,-0.01892,-0.01511,0.00519,-0.03494,-0.02136,0.00427,-0.03891
11.3675,-0.00778,-0.04578,-0.00076,0.06317,-0.03174,-0.065,-0.0116,-0.00595,-0.0119,-0.0209,-0.01526,0.0061,-0.03586,-0.02106,0.0087,-0.03479
11.368,-0.00671,-0.0441,0.01114,0.02167,-0.04623,-0.00031,-0.0116,-0.00137,-0.01404,-0.02441,-0.01297,0.00671,-0.03479,-0.02045,0.0119,-0.03586
11.3685,-0.0032,-0.04227,0.01907,-0.02228,-0.04929,0.04532,-0.01312,0.0,-0.01846,-0.0238,-0.01053,0.00671,-0.03448,-0.02106,0.01297,-0.03891
11.369,-0.00168,-0.04135,0.01785,-0.05905,-0.04272,0.04822,-0.01526,-0.00122,-0.02289,-0.02396,-0.01129,0.00626,-0.03632,-0.02197,0.01373,-0.03922
11.3695,-0.00641,-0.04105,0.00641,-0.08423,-0.03555,0.02686,-0.01678,-0.00427,-0.02426,-0.02655,-0.01312,0.00702,-0.0386,-0.02182,0.01678,-0.03815
11.37,-0.01587,-0.0415,-0.00702,-0.08835,-0.03525,0.00671,-0.01633,-0.00549,-0.02197,-0.03021,-0.01648,0.00778,-0.03906,-0.01999,0.02045,-0.03616
11.3705,-0.02548,-0.04105,-0.01831,-0.06088,-0.04181,-0.01358,-0.01495,-0.00458,-0.01892,-0.03296,-0.02335,0.00793,-0.0386,-0.01831,0.02304,-0.03586
11.371,-0.03082,-0.04059,-0.02487,0.00504,-0.04959,-0.05447,-0.01572,-0.00351,-0.01572,-0.03143,-0.03799,0.00824,-0.03738,-0.01434,0.02167,-0.03555
11.3715,-0.03098,-0.04181,-0.03265,0.1001,-0.05356,-0.12436,-0.0177,-0.00458,-0.01282,-0.02808,-0.05585,0.00717,-0.03693,-0.00931,0.01709,-0.03479
11.372,-0.0267,-0.04517,-0.03952,0.18997,-0.05264,-0.18753,-0.01938,-0.00565,-0.01007,-0.02747,-0.06729,0.0029,-0.0383,-0.00687,0.01328,-0.03403
11.3725,-0.01953,-0.05005,-0.04364,0.2243,-0.04608,-0.1918,-0.01923,-0.00595,-0.00763,-0.02762,-0.065,-0.00092,-0.0383,-0.00778,0.00916,-0.03586
11.373,-0.01419,-0.05157,-0.047,0.18036,-0.03647,-0.13184,-0.01831,-0.00671,-0.00656,-0.02579,-0.0531,-0.00381,-0.03799,-0.01068,0.00565,-0.03891
11.3735,-0.01099,-0.05127,-0.0589,0.09033,-0.02747,-0.06073,-0.0177,-0.00809,-0.00687,-0.01999,-0.04166,-0.00504,-0.03708,-0.01205,0.00015,-0.04089
11.374,-0.00778,-0.05402,-0.08148,0.01373,-0.02441,-0.02838,-0.0177,-0.01038,-0.00885,-0.0148,-0.03387,-0.00549,-0.03769,-0.01175,-0.00443,-0.04089
11.3745,0.00061,-0.06027,-0.1062,-0.01724,-0.0264,-0.03311,-0.0177,-0.01129,-0.0116,-0.01572,-0.02731,-0.00275,-0.03799,-0.01038,-0.00504,-0.04105
11.375,0.01053,-0.06836,-0.11917,-0.01404,-0.02899,-0.04456,-0.0177,-0.00961,-0.01511,-0.01465,-0.01831,0.00214,-0.03708,-0.009,-0.00046,-0.04288
11.3755,0.01282,-0.07263,-0.10895,-0.0029,-0.02762,-0.04623,-0.01678,-0.00702,-0.01678,-0.01053,-0.00458,0.00778,-0.0354,-0.01175,0.0087,-0.04379
11.376,0.00458,-0.07248,-0.08423,0.00717,-0.02411,-0.04272,-0.01556,-0.00412,-0.01785,-0.00305,0.00992,0.01007,-0.03494,-0.01709,0.0177,-0.03815
11.3765,-0.0058,-0.06866,-0.05859,0.01984,-0.02304,-0.0412,-0.01556,-0.0029,-0.01846,0.0,0.02136,0.01144,-0.03662,-0.02792,0.02686,-0.02579
11.377,-0.01068,-0.06393,-0.04303,0.03769,-0.02594,-0.04227,-0.01602,-0.00168,-0.01831,-0.00244,0.02869,0.01282,-0.0383,-0.04395,0.03296,-0.01236
11.3775,-0.01083,-0.05737,-0.03387,0.05493,-0.03036,-0.04395,-0.01419,0.00015,-0.01678,-0.0061,0.03326,0.01282,-0.03891,-0.0589,0.03296,-0.01175
11.378,-0.01053,-0.05035,-0.02792,0.06424,-0.0325,-0.04623,-0.01022,0.00229,-0.01572,-0.00824,0.03571,0.00992,-0.03677,-0.06058,0.02716,-0.02731
11.3785,-0.01114,-0.04257,-0.02426,0.06882,-0.03326,-0.04791,-0.00961,0.00183,-0.01419,-0.01007,0.0325,0.00351,-0.03433,-0.04913,0.01877,-0.0499
11.379,-0.00992,-0.03525,-0.02548,0.07568,-0.03311,-0.05127,-0.01099,-0.00229,-0.01099,-0.01099,0.01755,-0.00305,-0.03464,-0.03494,0.0119,-0.0647
11.3795,-0.00732,-0.0296,-0.0296,0.08423,-0.03204,-0.05554,-0.0116,-0.00809,-0.0087,-0.01205,0.00198,-0.00702,-0.03448,-0.0264,0.01053,-0.06638
11.38,-0.00458,-0.02625,-0.03021,0.0914,-0.03021,-0.06134,-0.00977,-0.01038,-0.00854,-0.01083,-0.00565,-0.00732,-0.03342,-0.02441,0.00977,-0.05997
11.3805,-0.00107,-0.02411,-0.02853,0.09766,-0.02838,-0.06699,-0.00977,-0.0087,-0.01144,-0.01038,-0.00793,-0.00671,-0.03235,-0.02396,0.00916,-0.05508
11.381,0.00275,-0.02274,-0.02502,0.10834,-0.02747,-0.07156,-0.01221,-0.0058,-0.01434,-0.01114,-0.01083,-0.00687,-0.03159,-0.02304,0.00961,-0.05768
11.3815,0.00565,-0.02213,-0.02167,0.1236,-0.02563,-0.07324,-0.0145,-0.00443,-0.01526,-0.01389,-0.01511,-0.00519,-0.03204,-0.02075,0.01358,-0.06531
11.382,0.00381,-0.02319,-0.02136,0.1387,-0.02457,-0.07019,-0.01404,-0.00397,-0.01511,-0.01617,-0.01556,-0.0029,-0.03265,-0.01923,0.01648,-0.07263
11.3825,-0.00366,-0.02197,-0.02335,0.14984,-0.02441,-0.06409,-0.01495,-0.00305,-0.01495,-0.01923,-0.01328,-0.00183,-0.03326,-0.01923,0.01389,-0.07233
11.383,-0.01129,-0.01968,-0.02625,0.15656,-0.02396,-0.056,-0.01602,-0.00443,-0.01495,-0.02182,-0.01205,-0.00351,-0.03387,-0.01938,0.00763,-0.0647
11.3835,-0.01556,-0.01678,-0.03067,0.16983,-0.02014,-0.05173,-0.01648,-0.00534,-0.01556,-0.02533,-0.01328,-0.009,-0.03448,-0.01938,0.00122,-0.05783
11.384,-0.01541,-0.01831,-0.03403,0.19714,-0.01251,-0.04974,-0.01465,-0.00641,-0.01678,-0.0267,-0.01602,-0.01434,-0.03448,-0.01923,-0.00397,-0.05829
11.3845,-0.01556,-0.02258,-0.03494,0.24323,-0.00626,-0.04868,-0.01343,-0.00504,-0.01785,-0.0235,-0.01694,-0.01663,-0.03311,-0.02029,-0.00626,-0.0647
11.385,-0.01587,-0.02747,-0.03281,0.30258,0.00305,-0.04456,-0.01282,-0.00504,-0.01923,-0.01999,-0.01511,-0.01389,-0.03189,-0.02228,-0.00534,-0.06454
11.3855,-0.01617,-0.03204,-0.03006,0.36438,0.01648,-0.03418,-0.01419,-0.00565,-0.01923,-0.02014,-0.01572,-0.00885,-0.03159,-0.02197,-0.00473,-0.05417
11.386,-0.01572,-0.03647,-0.03159,0.42023,0.02899,-0.0235,-0.01434,-0.0058,-0.01877,-0.02457,-0.01831,-0.00641,-0.0325,-0.02014,-0.00412,-0.04013
11.3865,-0.01694,-0.04044,-0.03372,0.46951,0.03189,-0.02594,-0.0145,-0.00443,-0.01877,-0.03098,-0.02243,-0.00793,-0.03372,-0.01831,-0.00519,-0.03036
11.387,-0.01968,-0.04364,-0.03708,0.51315,0.02472,-0.04135,-0.01358,-0.00229,-0.01968,-0.03662,-0.02472,-0.00977,-0.03311,-0.01724,-0.00488,-0.02258
11.3875,-0.02136,-0.04547,-0.04623,0.54642,0.01801,-0.05737,-0.01312,-0.00061,-0.02014,-0.03723,-0.02365,-0.00778,-0.03189,-0.01694,0.00046,-0.01541
11.388,-0.02106,-0.04578,-0.06165,0.56427,0.01633,-0.0592,-0.01266,0.0,-0.01892,-0.03265,-0.01999,-0.00244,-0.03021,-0.01617,0.00992,-0.00946
11.3885,-0.01968,-0.04929,-0.08041,0.57709,0.01328,-0.05173,-0.01236,0.00153,-0.01236,-0.02396,-0.01678,0.00275,-0.02991,-0.01419,0.01556,-0.01221
11.389,-0.01831,-0.05264,-0.09094,0.60181,0.00534,-0.04547,-0.01282,0.00504,-0.00244,-0.01266,-0.0148,0.00336,-0.02899,-0.01343,0.01038,-0.02457
11.3895,-0.01694,-0.05447,-0.08392,0.63675,-0.00778,-0.04425,-0.01434,0.00748,0.00793,-0.00473,-0.01343,0.00092,-0.02777,-0.01221,0.00076,-0.03784
11.39,-0.0145,-0.05417,-0.06622,0.66452,-0.02792,-0.0444,-0.01587,0.00946,0.01266,-0.0061,-0.01526,-0.00107,-0.02533,-0.01205,-0.00351,-0.04166
11.3905,-0.01022,-0.05341,-0.04288,0.66895,-0.06058,-0.04318,-0.01648,0.00916,0.00931,-0.01617,-0.02045,-0.00061,-0.02426,-0.01236,0.00107,-0.03387
11.391,-0.00702,-0.05325,-0.02121,0.65445,-0.09827,-0.04105,-0.01663,0.00656,0.00076,-0.03387,-0.02686,0.00244,-0.02411,-0.01328,0.00977,-0.02747
11.3915,-0.00565,-0.05127,-0.00519,0.64041,-0.11734,-0.03754,-0.01678,0.00473,-0.00809,-0.05264,-0.03082,0.00626,-0.02609,-0.01297,0.01877,-0.0296
11.392,-0.009,-0.04822,0.00534,0.63599,-0.10254,-0.03403,-0.01617,0.00488,-0.01495,-0.06592,-0.02991,0.00809,-0.02792,-0.01251,0.02502,-0.03418
11.3925,-0.01434,-0.04532,0.00992,0.63522,-0.06775,-0.0325,-0.01556,0.00488,-0.01984,-0.06973,-0.02563,0.00916,-0.02884,-0.01328,0.02808,-0.03113
11.393,-0.01801,-0.04349,0.01007,0.63141,-0.03845,-0.03464,-0.01419,0.00214,-0.0235,-0.065,-0.01984,0.00977,-0.02899,-0.01572,0.0293,-0.02258
11.3935,-0.01709,-0.04227,0.00443,0.62881,-0.02731,-0.03952,-0.01343,-0.0029,-0.02731,-0.05478,-0.01236,0.0116,-0.02991,-0.01785,0.03204,-0.02121
11.394,-0.01389,-0.04135,-0.00107,0.63065,-0.02502,-0.04501,-0.01373,-0.00565,-0.03281,-0.04166,-0.00992,0.01434,-0.02945,-0.01816,0.03815,-0.0264
11.3945,-0.01236,-0.04028,-0.00488,0.62241,-0.0235,-0.04929,-0.01419,-0.00366,-0.04013,-0.03006,-0.02121,0.01556,-0.0293,-0.01678,0.0412,-0.03082
11.395,-0.01389,-0.03952,-0.00961,0.57678,-0.02182,-0.05478,-0.01343,0.00153,-0.04486,-0.01968,-0.0528,0.01389,-0.02808,-0.01511,0.03632,-0.02899
11.3955,-0.01755,-0.03967,-0.01434,0.48264,-0.02213,-0.05936,-0.01251,0.00519,-0.04395,-0.00946,-0.09171,0.00824,-0.02838,-0.01389,0.0267,-0.02365
11.396,-0.0209,-0.0386,-0.02274,0.36453,-0.0238,-0.06638,-0.01053,0.00732,-0.04105,0.00793,-0.11322,-0.00092,-0.03052,-0.01389,0.01862,-0.02258
11.3965,-0.02304,-0.03769,-0.02991,0.26566,-0.01907,-0.06927,-0.01007,0.00671,-0.03845,0.02731,-0.10025,-0.00977,-0.03189,-0.01389,0.01343,-0.02884
11.397,-0.02335,-0.03906,-0.03265,0.2095,-0.0145,-0.06912,-0.01221,0.00397,-0.0325,0.03571,-0.06744,-0.01511,-0.0325,-0.01373,0.00458,-0.0441
11.3975,-0.02289,-0.04181,-0.03235,0.18066,-0.02029,-0.06897,-0.01419,0.00107,-0.02258,0.02655,-0.04013,-0.01648,-0.03204,-0.01495,-0.00458,-0.06561
11.398,-0.02228,-0.04471,-0.03204,0.15106,-0.03616,-0.06882,-0.01526,0.00015,-0.0116,0.00565,-0.02899,-0.01617,-0.03174,-0.01617,-0.01343,-0.08499
11.3985,-0.02029,-0.04654,-0.03418,0.1004,-0.05463,-0.06577,-0.01587,0.00259,-0.00443,-0.01266,-0.01999,-0.01633,-0.03067,-0.01572,-0.02014,-0.09232
11.399,-0.01846,-0.04822,-0.03479,0.02106,-0.06989,-0.05997,-0.01892,0.00488,-0.00336,-0.01892,0.00061,-0.01419,-0.03052,-0.01495,-0.0206,-0.08682
11.3995,-0.01724,-0.0499,-0.03479,-0.07629,-0.07492,-0.05356,-0.02014,0.00458,-0.00458,-0.0145,0.02823,-0.01099,-0.03021,-0.0145,-0.0116,-0.07721
11.4,-0.01678,-0.05127,-0.03372,-0.16754,-0.06317,-0.05035,-0.01892,0.00229,-0.00519,-0.00824,0.04913,-0.00732,-0.03128,-0.01328,0.00214,-0.07095
11.4005,-0.01877,-0.05173,-0.03387,-0.22995,-0.03693,-0.0502,-0.01633,-0.00259,-0.00626,-0.00931,0.05844,-0.00473,-0.03311,-0.01419,0.01617,-0.06607
11.401,-0.02396,-0.05203,-0.03006,-0.26505,-0.0148,-0.04929,-0.01526,-0.00793,-0.00885,-0.01999,0.06699,-0.00168,-0.03403,-0.01648,0.02396,-0.05966
11.4015,-0.02945,-0.05539,-0.0267,-0.28961,-0.01389,-0.04684,-0.01633,-0.01038,-0.0116,-0.0351,0.08011,0.00061,-0.03326,-0.0177,0.02457,-0.05661
11.402,-0.02991,-0.06073,-0.02655,-0.31464,-0.03067,-0.04242,-0.01678,-0.00931,-0.01251,-0.04684,0.09125,0.00031,-0.03143,-0.0174,0.01984,-0.06149
11.4025,-0.0235,-0.06592,-0.03265,-0.3392,-0.04578,-0.03769,-0.0177,-0.00473,-0.01205,-0.04669,0.08804,-0.00168,-0.03098,-0.01755,0.01862,-0.06668
11.403,-0.01511,-0.06622,-0.04532,-0.36133,-0.05005,-0.03555,-0.01816,-0.00168,-0.01221,-0.0383,0.0676,-0.0029,-0.03143,-0.0177,0.0264,-0.0618
11.4035,-0.01068,-0.0621,-0.06149,-0.38544,-0.04456,-0.03571,-0.01694,-0.00153,-0.01419,-0.0296,0.03387,-0.00061,-0.03143,-0.01785,0.03922,-0.04379
11.404,-0.00839,-0.05676,-0.0769,-0.41565,-0.03433,-0.03555,-0.01266,-0.00137,-0.01633,-0.02335,-0.00076,0.0029,-0.03128,-0.01801,0.0415,-0.02289
11.4045,-0.00534,-0.05127,-0.07904,-0.44861,-0.02243,-0.03281,-0.0087,0.00107,-0.01801,-0.01617,-0.0264,0.00259,-0.03098,-0.01907,0.02304,-0.01175
11.405,-0.00076,-0.04562,-0.06744,-0.48187,-0.01663,-0.02884,-0.00793,0.00183,-0.01892,-0.00626,-0.03647,-0.00153,-0.03143,-0.01968,-0.01083,-0.00977
11.4055,0.00275,-0.03983,-0.05112,-0.51544,-0.0148,-0.02563,-0.01129,-0.00595,-0.0174,0.00427,-0.03616,-0.00305,-0.03143,-0.01846,-0.0322,-0.01175
11.406,0.00275,-0.03433,-0.03586,-0.55176,-0.01205,-0.02304,-0.01511,-0.02625,-0.01358,0.01053,-0.03174,0.00168,-0.03052,-0.01694,-0.02625,-0.01602
11.4065,-0.00092,-0.03159,-0.0235,-0.58975,-0.00595,-0.02289,-0.01648,-0.04929,-0.00946,0.01297,-0.02792,0.00565,-0.02975,-0.01556,-0.00916,-0.02335
11.407,-0.00534,-0.03052,-0.01328,-0.62241,-0.0032,-0.02579,-0.01678,-0.05966,-0.00931,0.01129,-0.02533,0.00305,-0.03067,-0.01617,-0.0058,-0.03403
11.4075,-0.00717,-0.02975,-0.00687,-0.64255,-0.00687,-0.02777,-0.01465,-0.04807,-0.0119,0.00977,-0.02472,-0.00458,-0.0322,-0.01678,-0.01907,-0.04395
11.408,-0.00793,-0.02747,-0.00488,-0.64713,-0.01587,-0.02792,-0.01099,-0.02472,-0.0148,0.00824,-0.02365,-0.01251,-0.03296,-0.01755,-0.03525,-0.05585
11.4085,-0.00504,-0.02426,-0.00671,-0.63995,-0.02289,-0.02808,-0.00839,-0.00793,-0.01526,0.00641,-0.02121,-0.01724,-0.03296,-0.01785,-0.04562,-0.07568
11.409,0.00015,-0.02289,-0.01175,-0.63095,-0.02045,-0.02869,-0.00946,-0.00381,-0.01434,0.00198,-0.01831,-0.01678,-0.03296,-0.01694,-0.04898,-0.09323
11.4095,0.00168,-0.02441,-0.01846,-0.62759,-0.00275,-0.0296,-0.01251,-0.00351,-0.01404,-0.00397,-0.01572,-0.00977,-0.03311,-0.01648,-0.04166,-0.08789
11.41,-0.00488,-0.02777,-0.02579,-0.63141,0.02075,-0.03159,-0.01556,0.00092,-0.01587,-0.00763,-0.01572,0.00153,-0.03464,-0.01587,-0.0235,-0.05508
11.4105,-0.01404,-0.03128,-0.03311,-0.63446,0.0351,-0.03601,-0.01617,0.01007,-0.01923,-0.00961,-0.01511,0.01236,-0.03387,-0.01633,0.00229,-0.01312
11.411,-0.01785,-0.03189,-0.03876,-0.63522,0.03296,-0.0444,-0.0145,0.01556,-0.02441,-0.01358,-0.01389,0.01602,-0.0322,-0.01663,0.02838,0.00992
11.4115,-0.01419,-0.03113,-0.04181,-0.63522,0.0177,-0.05341,-0.01328,0.01343,-0.02792,-0.01968,-0.01358,0.01389,-0.03174,-0.01694,0.04807,0.0058
11.412,-0.00824,-0.03189,-0.04333,-0.63446,-0.00336,-0.06073,-0.01266,0.00549,-0.02899,-0.02731,-0.01541,0.01221,-0.03235,-0.01801,0.05554,-0.01099
11.4125,-0.00534,-0.03647,-0.04135,-0.62927,-0.02625,-0.06668,-0.01297,-0.01068,-0.0264,-0.0322,-0.01907,0.01465,-0.03403,-0.01923,0.04852,-0.02747
11.413,-0.00473,-0.0441,-0.03479,-0.6163,-0.05081,-0.0705,-0.01251,-0.03723,-0.02289,-0.03448,-0.02151,0.01816,-0.03265,-0.01984,0.03387,-0.0444
11.4135,-0.0032,-0.04807,-0.02792,-0.59769,-0.0795,-0.07202,-0.0119,-0.06165,-0.02075,-0.03403,-0.02075,0.01831,-0.03036,-0.01968,0.01572,-0.06577
11.414,0.00198,-0.04623,-0.02472,-0.58105,-0.10742,-0.07065,-0.01205,-0.06973,-0.01862,-0.03174,-0.01862,0.01389,-0.03006,-0.01877,-0.00275,-0.09048
11.4145,0.00977,-0.04181,-0.02853,-0.57541,-0.12604,-0.06592,-0.01099,-0.05997,-0.01709,-0.02792,-0.01694,0.00916,-0.03143,-0.01724,-0.02426,-0.10742
11.415,0.01862,-0.04074,-0.0383,-0.58395,-0.13031,-0.06104,-0.01053,-0.05249,-0.01633,-0.02319,-0.0174,0.00519,-0.03296,-0.01755,-0.047,-0.10666
11.4155,0.02792,-0.04105,-0.04364,-0.59631,-0.12939,-0.05417,-0.01129,-0.05844,-0.01511,-0.02121,-0.01831,0.00366,-0.03372,-0.01923,-0.05997,-0.08057
11.416,0.03357,-0.03647,-0.04135,-0.59738,-0.12711,-0.05005,-0.01389,-0.06653,-0.01434,-0.01999,-0.01999,0.00061,-0.03387,-0.02075,-0.04303,-0.0351
11.4165,0.03281,-0.03036,-0.03479,-0.57709,-0.12207,-0.047,-0.0174,-0.04974,-0.01434,-0.02182,-0.02487,-0.00366,-0.03448,-0.02045,0.00137,0.00443
11.417,0.02609,-0.02655,-0.03052,-0.54474,-0.11154,-0.04639,-0.01953,0.00565,-0.01221,-0.02365,-0.03281,-0.00656,-0.03616,-0.01984,0.04059,0.01389
11.4175,0.01816,-0.02686,-0.03403,-0.51468,-0.10056,-0.04562,-0.02228,0.07568,-0.00656,-0.02319,-0.03937,-0.00458,-0.03632,-0.02045,0.04715,-0.00214
11.418,0.01236,-0.02625,-0.04074,-0.49164,-0.08179,-0.04456,-0.02365,0.11917,0.0032,-0.0206,-0.04166,0.00046,-0.03464,-0.0209,0.03143,-0.01938
11.4185,0.00809,-0.02335,-0.04562,-0.47455,-0.05356,-0.04211,-0.02182,0.11429,0.01099,-0.01373,-0.03876,0.00443,-0.03265,-0.02121,0.02075,-0.02441
11.419,0.00488,-0.02045,-0.04562,-0.45761,-0.01938,-0.04105,-0.0174,0.08026,0.01129,-0.00412,-0.03403,0.0058,-0.0325,-0.02121,0.02335,-0.02625
11.4195,0.00107,-0.01831,-0.04425,-0.43869,0.00946,-0.04105,-0.01419,0.05432,0.00183,0.00671,-0.03143,0.00534,-0.03265,-0.02213,0.02213,-0.03098
11.42,-0.00443,-0.01694,-0.04288,-0.41077,0.02655,-0.04288,-0.01419,0.04776,-0.01373,0.01282,-0.02777,0.00381,-0.03204,-0.02258,0.00931,-0.03403
11.4205,-0.01587,-0.0145,-0.04227,-0.37476,0.03311,-0.04257,-0.01617,0.04257,-0.02762,0.01007,-0.02518,0.00229,-0.03113,-0.02167,-0.01144,-0.03174
11.421,-0.0325,-0.009,-0.04288,-0.33997,0.03006,-0.04074,-0.01617,0.02487,-0.03296,0.00229,-0.02274,0.00061,-0.03067,-0.02045,-0.02792,-0.02823
11.4215,-0.04623,-0.00381,-0.04135,-0.3183,0.0148,-0.03494,-0.01617,0.00046,-0.03128,-0.00488,-0.02106,-0.00076,-0.03189,-0.02151,-0.03174,-0.03128
11.422,-0.04547,-0.00443,-0.0354,-0.3067,-0.00687,-0.0296,-0.01724,-0.01663,-0.0264,-0.00992,-0.02121,-0.00031,-0.03372,-0.02365,-0.02457,-0.04074
11.4225,-0.02991,-0.01221,-0.02472,-0.29053,-0.02686,-0.03082,-0.01984,-0.0238,-0.02075,-0.01694,-0.02426,0.00076,-0.03433,-0.02167,-0.02533,-0.05569
11.423,-0.01144,-0.0235,-0.01846,-0.26123,-0.04181,-0.03891,-0.01999,-0.03113,-0.01572,-0.0264,-0.0264,0.00443,-0.0351,-0.01968,-0.04486,-0.06866
11.4235,-0.00275,-0.0351,-0.01709,-0.22278,-0.05646,-0.04684,-0.01633,-0.04211,-0.01251,-0.0354,-0.02258,0.00824,-0.03342,-0.01724,-0.06195,-0.07401
11.424,-0.00381,-0.04562,-0.01236,-0.18311,-0.07263,-0.05142,-0.01099,-0.0444,-0.01129,-0.03769,-0.01068,0.00793,-0.03204,-0.01633,-0.03647,-0.07645
11.4245,-0.00534,-0.05356,0.00214,-0.14954,-0.08789,-0.05356,-0.00824,-0.02457,-0.01022,-0.03494,0.00259,0.00198,-0.03098,-0.01694,0.03265,-0.08377
11.425,-0.00259,-0.05768,0.02487,-0.11719,-0.09125,-0.05798,-0.00793,0.01251,-0.00946,-0.03265,0.00687,-0.00519,-0.03098,-0.01892,0.103,-0.09171
11.4255,0.00015,-0.05875,0.03494,-0.07477,-0.08362,-0.06821,-0.00687,0.03906,-0.01053,-0.03647,-0.00107,-0.009,-0.03296,-0.02075,0.14526,-0.08743
11.426,-0.00031,-0.05844,0.02121,-0.02274,-0.07416,-0.08301,-0.00534,0.03403,-0.01297,-0.04456,-0.01419,-0.00732,-0.03448,-0.0209,0.16861,-0.05798
11.4265,-0.0029,-0.05661,-0.0087,0.02289,-0.07294,-0.10254,-0.00504,-0.00458,-0.01541,-0.05188,-0.01999,-0.00412,-0.03555,-0.02136,0.17883,-0.01495
11.427,-0.0061,-0.05585,-0.0354,0.0441,-0.07141,-0.11887,-0.00427,-0.05997,-0.01541,-0.05173,-0.01648,-0.00214,-0.03555,-0.02136,0.15671,0.00778
11.4275,-0.00885,-0.05585,-0.04883,0.04318,-0.06226,-0.11597,-0.00351,-0.10178,-0.01389,-0.04517,-0.01007,-0.0029,-0.03525,-0.02167,0.08835,-0.00061
11.428,-0.01053,-0.05615,-0.05447,0.03906,-0.0444,-0.08774,-0.00107,-0.08713,-0.01312,-0.03433,-0.009,-0.00458,-0.03387,-0.02151,-0.00046,-0.00504
11.4285,-0.01343,-0.05554,-0.06454,0.0415,-0.02319,-0.05157,-0.00015,-0.00168,-0.01358,-0.02792,-0.01022,-0.00412,-0.03372,-0.02228,-0.0705,0.02487
11.429,-0.01678,-0.05341,-0.07904,0.04379,-0.00046,-0.03067,-0.00504,0.10376,-0.01526,-0.02655,-0.01053,-0.0029,-0.03372,-0.02136,-0.0972,0.06958
11.4295,-0.01938,-0.05066,-0.09262,0.03983,0.01648,-0.02991,-0.01434,0.15152,-0.01709,-0.02655,-0.00839,-0.00305,-0.03235,-0.02121,-0.08759,0.09048
11.43,-0.01938,-0.04745,-0.09918,0.03723,0.01816,-0.03662,-0.02304,0.13092,-0.01801,-0.02579,-0.0061,-0.00763,-0.03098,-0.0209,-0.06104,0.0766
11.4305,-0.01663,-0.04333,-0.09384,0.04684,0.00305,-0.04044,-0.02838,0.10483,-0.0177,-0.02365,-0.00641,-0.01389,-0.03021,-0.02045,-0.0415,0.05035
11.431,-0.00992,-0.03983,-0.07965,0.06454,-0.01266,-0.04105,-0.03067,0.10178,-0.0174,-0.02365,-0.00854,-0.02045,-0.03113,-0.02182,-0.05325,0.03326
11.4315,-0.00229,-0.03922,-0.06104,0.08057,-0.00977,-0.04166,-0.03281,0.06683,-0.01755,-0.02365,-0.01236,-0.02243,-0.0325,-0.02167,-0.09644,0.03082
11.432,0.00519,-0.03998,-0.04242,0.09323,0.01053,-0.04364,-0.04074,-0.0351,-0.01862,-0.0238,-0.01572,-0.01694,-0.03189,-0.02213,-0.13931,0.02625
11.4325,0.01251,-0.04135,-0.02258,0.10391,0.02487,-0.04562,-0.05127,-0.1326,-0.01801,-0.02396,-0.01678,-0.00885,-0.03036,-0.02304,-0.14771,0.00351
11.433,0.01877,-0.0412,-0.00122,0.11261,0.02213,-0.04715,-0.05997,-0.13657,-0.0177,-0.0238,-0.0148,-0.00183,-0.03036,-0.02365,-0.1181,-0.03876
11.4335,0.02014,-0.03998,0.01602,0.11551,-0.00275,-0.04913,-0.06531,-0.07019,-0.01694,-0.02487,-0.01251,0.00336,-0.03189,-0.02289,-0.0795,-0.09125
11.434,0.01694,-0.03891,0.02151,0.11154,-0.04715,-0.04974,-0.06424,-0.01984,-0.01648,-0.0264,-0.01175,0.00717,-0.03357,-0.02228,-0.05157,-0.14954
11.4345,0.01358,-0.03998,0.01389,0.10452,-0.09842,-0.04654,-0.05753,-0.00839,-0.01541,-0.02701,-0.01236,0.00916,-0.03326,-0.02136,-0.01633,-0.21149
11.435,0.01099,-0.04578,-0.00626,0.09674,-0.12497,-0.04379,-0.04776,0.01663,-0.01526,-0.02655,-0.01373,0.0058,-0.03204,-0.01984,0.04959,-0.26093
11.4355,0.009,-0.05325,-0.04349,0.0882,-0.11185,-0.04257,-0.03922,0.07675,-0.01511,-0.02502,-0.0148,0.00214,-0.03204,-0.01953,0.13245,-0.28305
11.436,0.00778,-0.05615,-0.09232,0.08102,-0.07492,-0.04456,-0.03708,0.12283,-0.01602,-0.02319,-0.01602,0.00107,-0.03128,-0.02045,0.19562,-0.2774
11.4365,0.00702,-0.05386,-0.12527,0.08087,-0.04425,-0.04578,-0.04547,0.10956,-0.01724,-0.02304,-0.01785,0.00458,-0.02991,-0.02029,0.21957,-0.26825
11.437,0.00763,-0.04944,-0.12711,0.0943,-0.03143,-0.04532,-0.05554,0.05585,-0.01846,-0.02289,-0.01831,0.00687,-0.02884,-0.01968,0.21637,-0.27069
11.4375,0.00778,-0.04303,-0.10361,0.11902,-0.01999,-0.04639,-0.04837,0.01648,-0.01923,-0.02151,-0.01755,0.00656,-0.02869,-0.01923,0.20935,-0.26794
11.438,0.00732,-0.03464,-0.07584,0.14465,-0.0087,-0.0441,-0.01648,0.02853,-0.01923,-0.02197,-0.01465,0.00336,-0.02991,-0.01923,0.2092,-0.22644
11.4385,0.00763,-0.02655,-0.0499,0.16312,-0.00046,-0.04196,0.02701,0.08041,-0.01953,-0.02289,-0.01495,0.00168,-0.03082,-0.02029,0.18509,-0.12222
11.439,0.00992,-0.02182,-0.02457,0.17212,-0.00092,-0.04105,0.05524,0.11688,-0.01892,-0.02396,-0.01465,0.00427,-0.03174,-0.0209,0.11337,0.01907
11.4395,0.01282,-0.02274,0.00137,0.17807,-0.00671,-0.04395,0.0528,0.09216,-0.01846,-0.02304,-0.0145,0.00763,-0.03128,-0.0209,0.03067,0.12405
11.44,0.01419,-0.0235,0.02411,0.18524,-0.01419,-0.04791,0.02121,0.01846,-0.01694,-0.02029,-0.01465,0.00824,-0.03052,-0.02121,-0.0116,0.14099
11.4405,0.0119,-0.02441,0.04105,0.19226,-0.02518,-0.05142,-0.01312,-0.05539,-0.01633,-0.01801,-0.0148,0.00366,-0.03052,-0.02228,-0.00854,0.0975
11.441,0.00809,-0.02701,0.05081,0.19348,-0.03723,-0.05478,-0.02426,-0.09796,-0.01587,-0.0174,-0.01526,-0.00229,-0.03113,-0.02258,0.01068,0.07507
11.4415,0.00443,-0.0322,0.05585,0.19028,-0.04501,-0.05661,-0.00977,-0.1268,-0.01663,-0.01801,-0.01633,-0.00626,-0.0322,-0.02167,0.01907,0.11032
11.442,0.00381,-0.0386,0.05615,0.19272,-0.04608,-0.05539,0.0032,-0.16159,-0.01678,-0.01816,-0.01648,-0.00549,-0.0322,-0.01907,0.00534,0.15945
11.4425,0.00504,-0.04349,0.04974,0.20523,-0.04089,-0.05096,-0.01556,-0.18311,-0.01678,-0.01801,-0.01434,-0.00214,-0.03235,-0.01694,-0.02136,0.16693
11.443,0.00671,-0.04608,0.03021,0.22156,-0.03357,-0.04517,-0.06287,-0.16205,-0.01633,-0.01785,-0.01343,0.00214,-0.03113,-0.01663,-0.04578,0.1268
11.4435,0.00473,-0.04715,0.00061,0.23254,-0.02747,-0.04196,-0.11398,-0.09979,-0.01648,-0.01816,-0.01312,0.00565,-0.03006,-0.0177,-0.05081,0.07889
11.444,0.00015,-0.04929,-0.02563,0.23499,-0.02304,-0.03983,-0.14923,-0.0238,-0.01587,-0.01831,-0.01251,0.00885,-0.0293,-0.01801,-0.0325,0.05035
11.4445,-0.00366,-0.05219,-0.03815,0.23041,-0.02197,-0.03845,-0.15884,0.0386,-0.01617,-0.0177,-0.01236,0.01022,-0.02914,-0.01846,-0.00504,0.03525
11.445,-0.00839,-0.05219,-0.03403,0.2211,-0.02274,-0.03418,-0.13885,0.06927,-0.01694,-0.01724,-0.01205,0.01053,-0.02853,-0.01694,0.01633,0.02197
11.4455,-0.01541,-0.04578,-0.0235,0.20935,-0.02472,-0.02533,-0.0943,0.06134,-0.0174,-0.01724,-0.01144,0.00946,-0.02853,-0.01556,0.02533,0.00931
11.446,-0.02563,-0.03479,-0.01846,0.19699,-0.02533,-0.01221,-0.03769,0.02686,-0.01663,-0.01587,-0.01175,0.00778,-0.02899,-0.01572,0.02823,-0.00107
11.4465,-0.03555,-0.02533,-0.02258,0.18478,-0.02289,0.00809,0.0206,-0.01495,-0.01587,-0.01587,-0.01129,0.0061,-0.02869,-0.01587,0.03082,-0.01663
11.447,-0.03784,-0.02457,-0.03021,0.17197,-0.01846,0.02884,0.06546,-0.05081,-0.01511,-0.01633,-0.0116,0.00412,-0.02838,-0.01663,0.03571,-0.04791
11.4475,-0.02777,-0.03342,-0.03265,0.16205,-0.01312,0.03693,0.09659,-0.07599,-0.01511,-0.01617,-0.01282,0.00137,-0.02975,-0.01617,0.03891,-0.09094
11.448,-0.00626,-0.04715,-0.03113,0.15778,-0.00717,0.03464,0.12787,-0.08484,-0.01556,-0.01648,-0.0145,-0.00046,-0.02945,-0.01511,0.03418,-0.13199
11.4485,0.01816,-0.05951,-0.02914,0.16068,-0.00061,0.0296,0.16251,-0.0798,-0.01495,-0.01556,-0.01587,0.00015,-0.02853,-0.01373,0.01068,-0.16373
11.449,0.03433,-0.06699,-0.02838,0.16479,0.00473,0.03098,0.1712,-0.07446,-0.0145,-0.01709,-0.01617,0.00275,-0.02701,-0.01282,-0.02579,-0.18768
11.4495,0.04044,-0.06912,-0.0264,0.1683,0.00809,0.03036,0.12497,-0.0705,-0.01495,-0.01602,-0.01526,0.00671,-0.02655,-0.01251,-0.0563,-0.20737
11.45,0.04074,-0.06973,-0.02289,0.16785,0.00595,-0.00214,0.04654,-0.05219,-0.0145,-0.01633,-0.01465,0.00839,-0.0267,-0.01175,-0.07263,-0.22308
11.4505,0.03983,-0.07431,-0.02197,0.16098,0.00275,-0.08484,-0.0058,-0.01266,-0.0145,-0.01678,-0.01312,0.00671,-0.02701,-0.01175,-0.08041,-0.22614
11.451,0.03754,-0.08041,-0.02411,0.14511,0.00244,-0.18295,0.00732,0.02838,-0.01389,-0.01678,-0.01282,0.0029,-0.02594,-0.01236,-0.08194,-0.19287
11.4515,0.0325,-0.08316,-0.02716,0.1265,0.00809,-0.21622,0.06348,0.04944,-0.01312,-0.01572,-0.01343,0.0,-0.02411,-0.01266,-0.06561,-0.11124
11.452,0.02655,-0.08087,-0.02823,0.11398,0.01785,-0.1561,0.09232,0.05295,-0.01419,-0.01373,-0.01511,0.0,-0.02319,-0.01038,-0.01938,-0.00839
11.4525,0.01831,-0.07477,-0.02762,0.10895,0.0235,-0.07141,0.0618,0.05005,-0.01389,-0.01343,-0.01556,0.00198,-0.02563,-0.00824,0.03021,0.08163
11.453,0.00656,-0.06653,-0.02701,0.10498,0.02182,-0.04807,0.01633,0.04089,-0.01312,-0.0145,-0.01511,0.00168,-0.02808,-0.00626,0.04318,0.14236
11.4535,-0.009,-0.05646,-0.02762,0.09674,0.01328,-0.09384,0.01328,0.02197,-0.01297,-0.01434,-0.01419,-0.00107,-0.02945,-0.00778,0.01511,0.15198
11.454,-0.02106,-0.04776,-0.03189,0.08606,0.00153,-0.15991,0.03448,0.00427,-0.01358,-0.01373,-0.01266,-0.00397,-0.0296,-0.01007,-0.01297,0.08438
11.4545,-0.02121,-0.04135,-0.04074,0.07507,-0.00778,-0.20721,0.03021,0.00626,-0.01373,-0.01251,-0.01129,-0.0029,-0.02731,-0.01053,-0.00931,-0.03464
11.455,-0.01587,-0.0383,-0.05066,0.06638,-0.01434,-0.20981,0.00198,0.01709,-0.01343,-0.01373,-0.01083,0.00153,-0.02548,-0.01022,0.01053,-0.13657
11.4555,-0.01282,-0.03571,-0.06058,0.05951,-0.01694,-0.1503,-0.00809,0.00839,-0.01358,-0.01663,-0.01251,0.0061,-0.02533,-0.01144,0.01251,-0.18524
11.456,-0.01205,-0.03265,-0.06729,0.05249,-0.01785,-0.0563,-0.00336,-0.02167,-0.01358,-0.01862,-0.01175,0.00763,-0.0264,-0.01312,-0.01221,-0.20172
11.4565,-0.00793,-0.03113,-0.06897,0.04547,-0.02289,0.01282,-0.02106,-0.04364,-0.01358,-0.01968,-0.01022,0.00565,-0.02716,-0.01511,-0.03693,-0.2066
11.457,0.00046,-0.03387,-0.06577,0.03738,-0.03174,0.02945,-0.05142,-0.03525,-0.01297,-0.01953,-0.01022,0.00443,-0.02869,-0.0174,-0.04211,-0.16586
11.4575,0.00687,-0.03998,-0.05997,0.02823,-0.04425,0.01434,-0.05096,-0.01251,-0.01266,-0.01984,-0.01144,0.0058,-0.02884,-0.02121,-0.03098,-0.03326
11.458,0.00809,-0.04623,-0.0589,0.01968,-0.05341,-0.00534,-0.01465,-0.00244,-0.01389,-0.01907,-0.01282,0.00809,-0.02777,-0.02365,-0.01907,0.15167
11.4585,0.01007,-0.04822,-0.06165,0.01419,-0.06073,-0.03525,0.02258,-0.01038,-0.01541,-0.0174,-0.01266,0.00717,-0.02655,-0.02426,-0.0177,0.25772
11.459,0.01724,-0.05051,-0.06531,0.01541,-0.06531,-0.07309,0.04105,-0.01938,-0.01617,-0.01678,-0.01144,0.00473,-0.02655,-0.02365,-0.01724,0.19333
11.4595,0.0238,-0.0531,-0.06546,0.01831,-0.06454,-0.09201,0.05539,-0.02289,-0.01434,-0.01587,-0.01083,0.00473,-0.0267,-0.02228,-0.00732,0.01785
11.46,0.02396,-0.05676,-0.06409,0.01999,-0.05447,-0.0798,0.07431,-0.02213,-0.01221,-0.01343,-0.0116,0.00626,-0.02594,-0.02197,0.00977,-0.12512
11.4605,0.02106,-0.06012,-0.0647,0.02121,-0.03784,-0.05157,0.08118,-0.01862,-0.01129,-0.01297,-0.01175,0.00671,-0.02487,-0.02228,0.02029,-0.17303
11.461,0.02548,-0.0592,-0.07034,0.02762,-0.02151,-0.02777,0.04944,-0.01312,-0.01221,-0.01358,-0.01221,0.00351,-0.02518,-0.02228,0.009,-0.16922
11.4615,0.03555,-0.0502,-0.07599,0.03845,-0.01083,-0.01099,-0.02243,-0.00961,-0.01373,-0.01541,-0.01221,-0.00122,-0.02609,-0.02319,-0.02197,-0.16632
11.462,0.04105,-0.03525,-0.07858,0.04639,-0.00565,0.00412,-0.10666,-0.009,-0.0145,-0.01617,-0.01328,-0.00275,-0.02594,-0.02289,-0.05432,-0.15594
11.4625,0.03372,-0.02274,-0.07584,0.04883,-0.00366,0.02441,-0.16754,-0.01038,-0.0148,-0.0174,-0.01389,-0.00183,-0.02441,-0.02151,-0.065,-0.12222
11.463,0.01953,-0.02121,-0.07217,0.04608,-0.00092,0.04837,-0.19379,-0.01297,-0.01526,-0.0177,-0.01389,-0.00015,-0.02472,-0.02029,-0.03784,-0.08774
11.4635,0.00839,-0.02823,-0.06775,0.03891,0.00244,0.07126,-0.2002,-0.01816,-0.01648,-0.01846,-0.01343,0.00092,-0.02518,-0.02075,0.01434,-0.0795
11.464,0.00565,-0.03769,-0.06363,0.02304,0.00671,0.09735,-0.1976,-0.02472,-0.01678,-0.01831,-0.01266,0.00122,-0.02655,-0.02228,0.04822,-0.07919
11.4645,0.00549,-0.04745,-0.05905,-0.00458,0.01099,0.12451,-0.1741,-0.02609,-0.01633,-0.01678,-0.01358,-0.00061,-0.02869,-0.02365,0.03235,-0.03281
11.465,0.00626,-0.05875,-0.05463,-0.03952,0.00992,0.12878,-0.1001,-0.0206,-0.01556,-0.0174,-0.01587,-0.00214,-0.03189,-0.02319,-0.00763,0.07462
11.4655,0.00839,-0.06821,-0.05066,-0.0676,0.00214,0.08545,0.02655,-0.01373,-0.01617,-0.01709,-0.01862,0.00046,-0.03479,-0.02243,-0.01801,0.19073
11.466,0.01373,-0.0708,-0.04807,-0.08102,-0.01205,0.02441,0.14847,-0.01144,-0.0177,-0.01877,-0.01968,0.00549,-0.0354,-0.02228,0.00839,0.24826
11.4665,0.01953,-0.06561,-0.04349,-0.08514,-0.02365,0.00595,0.18997,-0.01114,-0.01831,-0.01938,-0.01846,0.00854,-0.03342,-0.02335,0.03387,0.22324
11.467,0.02365,-0.05646,-0.03632,-0.08835,-0.03113,0.03326,0.14709,-0.0087,-0.01862,-0.02167,-0.01694,0.00778,-0.0296,-0.02502,0.02487,0.14343
11.4675,0.02594,-0.04913,-0.03113,-0.09064,-0.03555,0.03845,0.09277,-0.00778,-0.01892,-0.02228,-0.01709,0.00626,-0.02365,-0.02731,-0.00839,0.0528
11.468,0.02716,-0.04501,-0.02487,-0.08835,-0.04105,-0.02762,0.07477,-0.00977,-0.02014,-0.02197,-0.0174,0.0058,-0.01953,-0.03036,-0.0412,-0.01205
11.4685,0.02518,-0.04211,-0.0148,-0.08041,-0.04974,-0.13809,0.07065,-0.01404,-0.02045,-0.02029,-0.01892,0.00732,-0.02014,-0.03235,-0.06454,-0.04303
11.469,0.02121,-0.04028,-0.00534,-0.07019,-0.05814,-0.21286,0.04868,-0.01526,-0.02014,-0.01984,-0.01785,0.00931,-0.02533,-0.03311,-0.07706,-0.05341
11.4695,0.01541,-0.04028,-0.00397,-0.05875,-0.06546,-0.1973,0.01709,-0.0119,-0.01831,-0.02075,-0.01633,0.01114,-0.03113,-0.03281,-0.06851,-0.05966
11.47,0.00992,-0.03967,-0.01511,-0.04242,-0.0679,-0.12146,-0.01022,-0.00504,-0.0174,-0.01938,-0.01465,0.01221,-0.03403,-0.03296,-0.03342,-0.06638
11.4705,0.00488,-0.03555,-0.02975,-0.02045,-0.06866,-0.0679,-0.04013,0.00046,-0.01816,-0.01785,-0.01419,0.01068,-0.03708,-0.03479,0.01099,-0.07462
11.471,0.00107,-0.03036,-0.04257,0.00137,-0.06638,-0.06866,-0.07706,0.00397,-0.01953,-0.01938,-0.01587,0.00824,-0.03937,-0.03647,0.05127,-0.0827
11.4715,-0.00107,-0.0296,-0.05447,0.01831,-0.06302,-0.06348,-0.11292,0.00275,-0.02075,-0.02182,-0.01907,0.00717,-0.03998,-0.03632,0.07919,-0.09338
11.472,-0.00534,-0.0386,-0.06622,0.03403,-0.05829,-0.00778,-0.13565,-0.00107,-0.02197,-0.02396,-0.02182,0.00656,-0.04028,-0.03479,0.08209,-0.10727
11.4725,-0.01282,-0.05035,-0.07294,0.05066,-0.05295,0.03693,-0.13702,-0.00443,-0.02304,-0.02213,-0.02151,0.0061,-0.04501,-0.0325,0.04623,-0.12482
11.473,-0.02106,-0.05447,-0.07141,0.06546,-0.04715,-0.02151,-0.10651,-0.00687,-0.02182,-0.02136,-0.02045,0.00473,-0.05569,-0.03021,-0.00809,-0.14435
11.4735,-0.02426,-0.0473,-0.06378,0.07523,-0.04303,-0.17548,-0.05203,-0.00656,-0.02136,-0.02197,-0.01907,0.00351,-0.06897,-0.02655,-0.03922,-0.14236
11.474,-0.02487,-0.03555,-0.05722,0.08316,-0.03922,-0.31052,-0.00809,-0.0058,-0.02075,-0.02289,-0.01984,0.0029,-0.07965,-0.02243,-0.02838,-0.08835
11.4745,-0.03082,-0.02701,-0.05951,0.09109,-0.03372,-0.3273,0.00229,-0.00458,-0.02151,-0.02274,-0.02014,0.00351,-0.08469,-0.01678,0.02136,-0.00336
11.475,-0.04196,-0.02258,-0.07004,0.1001,-0.02701,-0.23499,-0.00443,-0.00473,-0.02228,-0.02228,-0.02121,0.00473,-0.08179,-0.01038,0.08377,0.04257
11.4755,-0.04883,-0.02243,-0.08759,0.10956,-0.02228,-0.12253,0.00336,-0.00595,-0.02289,-0.02289,-0.02121,0.00641,-0.06973,-0.00336,0.1152,0.02335
11.476,-0.04532,-0.02167,-0.09949,0.12177,-0.02228,-0.06348,0.01892,-0.00488,-0.02182,-0.02243,-0.02182,0.00702,-0.05417,0.0058,0.08926,-0.01389
11.4765,-0.03571,-0.01999,-0.10513,0.13397,-0.03006,-0.05295,0.01083,-0.00015,-0.02228,-0.02136,-0.0206,0.00641,-0.04135,0.01312,0.02991,-0.02258
11.477,-0.02502,-0.01724,-0.10132,0.14175,-0.04089,-0.0444,-0.01846,0.00641,-0.02213,-0.01923,-0.01892,0.00595,-0.03738,0.01434,-0.00946,-0.01221
11.4775,-0.01648,-0.01373,-0.08255,0.14481,-0.05402,-0.02136,-0.02579,0.01129,-0.02136,-0.02075,-0.01831,0.00595,-0.03998,0.00641,-0.0087,-0.00732
11.478,-0.00916,-0.00778,-0.05219,0.14282,-0.06516,-0.00656,0.0058,0.00946,-0.01892,-0.0206,-0.01816,0.00671,-0.0473,-0.00519,0.01068,-0.01572
11.4785,-0.00351,-0.00092,-0.01404,0.13779,-0.07401,-0.0264,0.03464,0.0032,-0.0177,-0.02151,-0.01816,0.00671,-0.05737,-0.01221,0.01663,-0.03418
11.479,-0.0032,0.00336,0.01724,0.13199,-0.08347,-0.07858,0.01419,-0.00305,-0.01801,-0.02075,-0.01709,0.00626,-0.06577,-0.01312,0.01297,-0.06561
11.4795,-0.00687,0.0032,0.03372,0.12665,-0.09079,-0.13214,-0.04364,-0.00534,-0.0174,-0.02014,-0.01465,0.00458,-0.06668,-0.01038,0.01358,-0.10056
11.48,-0.01526,0.00183,0.03494,0.12253,-0.08911,-0.15289,-0.08362,-0.00229,-0.01556,-0.01831,-0.01266,0.00412,-0.06073,-0.00839,0.02121,-0.11902
11.4805,-0.02716,-0.00229,0.02869,0.12054,-0.08148,-0.12604,-0.08362,0.0029,-0.01404,-0.01801,-0.01236,0.00427,-0.05142,-0.01007,0.02487,-0.10757
11.481,-0.04044,-0.00778,0.02426,0.12634,-0.07233,-0.0737,-0.0705,0.00748,-0.01343,-0.01648,-0.01312,0.00427,-0.04257,-0.01266,0.01984,-0.07309
11.4815,-0.04669,-0.01389,0.03143,0.14282,-0.06638,-0.0238,-0.07828,0.00778,-0.01373,-0.01678,-0.01389,0.00275,-0.03571,-0.0148,0.01801,-0.03418
11.482,-0.04257,-0.01923,0.03784,0.16464,-0.06149,0.01373,-0.10803,0.00626,-0.01541,-0.01862,-0.01251,0.00244,-0.03052,-0.01755,0.0206,-0.01373
11.4825,-0.03433,-0.02563,0.03891,0.18188,-0.05493,0.03448,-0.13947,0.00504,-0.01602,-0.01938,-0.01083,0.00259,-0.0267,-0.01892,0.02045,-0.02014
11.483,-0.03235,-0.03433,0.02823,0.19211,-0.0473,0.02914,-0.15732,0.00717,-0.01572,-0.01907,-0.00977,0.00427,-0.02213,-0.02167,0.01602,-0.04242
11.4835,-0.03906,-0.04364,0.01419,0.19913,-0.04196,-0.0032,-0.15396,0.00977,-0.01556,-0.01755,-0.00931,0.00443,-0.01633,-0.02457,0.01419,-0.05798
11.484,-0.04593,-0.05493,0.00412,0.20767,-0.03937,-0.04196,-0.12497,0.00931,-0.0148,-0.01602,-0.00992,0.00275,-0.00931,-0.02579,0.01389,-0.05844
11.4845,-0.04395,-0.06729,-0.00534,0.21515,-0.03876,-0.06683,-0.07538,0.00534,-0.01434,-0.01526,-0.01083,0.00137,-0.00641,-0.02319,0.01511,-0.05325
11.485,-0.03403,-0.07828,-0.00534,0.22263,-0.03769,-0.07797,-0.02151,0.00153,-0.0145,-0.01495,-0.0119,0.00122,-0.00961,-0.01999,0.01633,-0.05295
11.4855,-0.02518,-0.08163,0.00198,0.23148,-0.03494,-0.08911,0.01144,-0.0029,-0.01419,-0.01419,-0.0119,0.00214,-0.01526,-0.01938,0.01724,-0.05768
11.486,-0.02319,-0.07492,0.02136,0.23911,-0.03143,-0.11246,0.00854,-0.00412,-0.0148,-0.01465,-0.01144,0.0032,-0.0148,-0.02274,0.01495,-0.06195
11.4865,-0.02441,-0.06073,0.03311,0.23758,-0.02914,-0.13458,-0.02228,-0.00595,-0.0145,-0.01495,-0.01175,0.00397,-0.009,-0.02533,0.01266,-0.06165
11.487,-0.02426,-0.04517,0.03525,0.22446,-0.02884,-0.12512,-0.0415,-0.00854,-0.0148,-0.0148,-0.0119,0.00381,-0.00519,-0.02472,0.009,-0.05966
11.4875,-0.02167,-0.02991,0.02533,0.21103,-0.02945,-0.07217,-0.00809,-0.00854,-0.01434,-0.01312,-0.01007,0.00336,-0.0061,-0.0209,0.01068,-0.05814
11.488,-0.02045,-0.01724,0.01236,0.20996,-0.03143,-0.00687,0.0647,-0.00519,-0.01404,-0.01144,-0.00778,0.00275,-0.01312,-0.01724,0.01358,-0.05661
11.4885,-0.02365,-0.01038,-0.00702,0.22049,-0.03479,0.03342,0.10849,-0.00153,-0.01251,-0.0116,-0.00763,0.0032,-0.02304,-0.01434,0.01373,-0.05432
11.489,-0.03036,-0.00854,-0.02365,0.23346,-0.03662,0.04318,0.06943,-0.00122,-0.01205,-0.01312,-0.00977,0.00381,-0.03311,-0.01373,0.00641,-0.05096
11.4895,-0.03723,-0.00351,-0.03586,0.24139,-0.03586,0.0386,-0.02228,-0.00046,-0.0116,-0.01328,-0.0116,0.00443,-0.04135,-0.0145,0.00092,-0.04852
11.49,-0.0444,0.00717,-0.05127,0.24811,-0.03098,0.02548,-0.09079,0.00473,-0.01221,-0.0116,-0.0119,0.00443,-0.04456,-0.01511,-0.00778,-0.04684
11.4905,-0.05341,0.01984,-0.06714,0.25208,-0.0264,-0.00519,-0.10239,0.01282,-0.01114,-0.01297,-0.01099,0.00626,-0.047,-0.01602,-0.01694,-0.04578
11.491,-0.06546,0.02701,-0.07385,0.24414,-0.0238,-0.04822,-0.08179,0.01633,-0.01099,-0.01358,-0.01022,0.00793,-0.05066,-0.01678,-0.03006,-0.0415
11.4915,-0.08102,0.02533,-0.0856,0.22339,-0.02136,-0.07843,-0.05249,0.01297,-0.01053,-0.01419,-0.00992,0.00824,-0.05478,-0.01648,-0.03387,-0.03372
11.492,-0.09476,0.01236,-0.09354,0.19821,-0.01617,-0.08423,-0.01785,0.0061,-0.01099,-0.0145,-0.01129,0.00595,-0.05707,-0.0174,-0.02457,-0.02777
11.4925,-0.09598,-0.00671,-0.10513,0.18188,-0.00916,-0.08194,0.01999,0.00153,-0.01205,-0.0145,-0.01175,0.00504,-0.05569,-0.01968,-0.01175,-0.0293
11.493,-0.08301,-0.02441,-0.1149,0.17822,-0.00381,-0.08621,0.04562,0.00122,-0.01236,-0.01511,-0.00961,0.00549,-0.04898,-0.0206,-0.00641,-0.03677
11.4935,-0.06317,-0.03372,-0.11826,0.18097,-0.00381,-0.0853,0.04654,0.00305,-0.01328,-0.0148,-0.00687,0.00626,-0.03769,-0.01907,-0.00931,-0.04181
11.494,-0.04471,-0.03616,-0.11551,0.1825,-0.01068,-0.0679,0.02701,0.00473,-0.01328,-0.0145,-0.00748,0.00641,-0.02869,-0.01694,-0.01221,-0.04105
11.4945,-0.02808,-0.03525,-0.1059,0.18219,-0.02197,-0.04593,0.01099,0.00412,-0.01144,-0.01495,-0.01053,0.00656,-0.02914,-0.01724,-0.00992,-0.03799
11.495,-0.00885,-0.03082,-0.0882,0.17609,-0.03387,-0.03433,0.0209,-0.00015,-0.01038,-0.01572,-0.01282,0.0061,-0.03922,-0.01755,0.00153,-0.03891
11.4955,0.00717,-0.02136,-0.06775,0.15823,-0.04257,-0.02167,0.05676,-0.00443,-0.01099,-0.01648,-0.01266,0.00488,-0.05112,-0.0174,0.02884,-0.04654
11.496,0.01114,-0.01038,-0.04791,0.12558,-0.04547,0.00381,0.09094,-0.00488,-0.01389,-0.01755,-0.01068,0.0029,-0.05295,-0.01648,0.0528,-0.05936
11.4965,0.00183,-0.00412,-0.03433,0.08713,-0.04318,0.02731,0.09766,-0.0058,-0.01495,-0.01846,-0.01022,0.00076,-0.04868,-0.0174,0.05432,-0.07782
11.497,-0.01038,-0.00488,-0.02914,0.05524,-0.03754,0.02457,0.07919,-0.009,-0.01434,-0.02045,-0.01144,0.0,-0.04578,-0.01846,0.0322,-0.10483
11.4975,-0.0174,-0.00946,-0.02853,0.03479,-0.03326,-0.00763,0.05859,-0.01328,-0.01358,-0.02228,-0.01404,0.00015,-0.04517,-0.01831,0.0061,-0.12924
11.498,-0.02151,-0.01434,-0.0322,0.02228,-0.03296,-0.03952,0.04929,-0.01389,-0.01404,-0.02289,-0.01511,0.00153,-0.04227,-0.01602,-0.00061,-0.13992
11.4985,-0.02487,-0.01923,-0.04486,0.01358,-0.03647,-0.04837,0.03128,-0.00885,-0.0148,-0.02365,-0.01617,0.00259,-0.03433,-0.01312,0.00351,-0.13535
11.499,-0.02533,-0.02502,-0.05646,0.0061,-0.04044,-0.03708,-0.01556,-0.00305,-0.01373,-0.02243,-0.01648,0.00229,-0.02518,-0.01495,0.00916,-0.13229
11.4995,-0.02243,-0.03128,-0.06332,-0.00061,-0.04318,-0.02686,-0.0737,0.00183,-0.01221,-0.02213,-0.01526,0.00153,-0.01953,-0.02106,0.00809,-0.1387
11.5,-0.01602,-0.03723,-0.0647,-0.00839,-0.04837,-0.02533,-0.10391,0.00854,-0.01221,-0.02121,-0.01343,0.0032,-0.01846,-0.03082,0.0087,-0.13153
11.5005,-0.01007,-0.04303,-0.05905,-0.02075,-0.05783,-0.0264,-0.08911,0.01114,-0.01266,-0.02213,-0.01175,0.00458,-0.01816,-0.04059,0.0116,-0.08286
11.501,-0.00565,-0.04654,-0.05157,-0.04059,-0.06638,-0.01678,-0.04761,0.00732,-0.01373,-0.02258,-0.01144,0.00534,-0.01633,-0.04486,0.01236,-0.01511
11.5015,-0.00336,-0.05005,-0.03769,-0.07095,-0.06592,0.01022,-0.01755,-0.00381,-0.01465,-0.02289,-0.01175,0.00549,-0.01587,-0.04486,0.00931,0.00824
11.502,-0.00122,-0.05493,-0.02625,-0.10498,-0.05783,0.04471,-0.01083,-0.01358,-0.01602,-0.02258,-0.01358,0.00473,-0.01846,-0.04349,0.0061,-0.02182
11.5025,0.00366,-0.05875,-0.01862,-0.13245,-0.04837,0.06622,-0.00687,-0.01266,-0.01755,-0.02365,-0.01648,0.00397,-0.02319,-0.04257,0.00595,-0.0444
11.503,0.00793,-0.06042,-0.01282,-0.14954,-0.04089,0.06256,0.00885,-0.00427,-0.01846,-0.02502,-0.01862,0.00122,-0.02823,-0.04166,0.00443,-0.01709
11.5035,0.00961,-0.06149,-0.0058,-0.16022,-0.03616,0.03601,0.00946,-0.00137,-0.01755,-0.02487,-0.01938,-0.00275,-0.03036,-0.03891,0.00763,0.02609
11.504,0.00534,-0.065,-0.00763,-0.17075,-0.0322,0.0032,-0.03052,-0.00488,-0.01663,-0.02411,-0.01831,-0.00397,-0.03067,-0.03433,0.01083,0.03845
11.5045,-0.00183,-0.06836,-0.01602,-0.18219,-0.02914,-0.01724,-0.08072,-0.00916,-0.01602,-0.02258,-0.01663,-0.0032,-0.03479,-0.02945,0.01266,0.02411
11.505,-0.00824,-0.06805,-0.02899,-0.19669,-0.02792,-0.03189,-0.09399,-0.00916,-0.01755,-0.02289,-0.01526,-0.00229,-0.04684,-0.02655,0.01343,0.00977
11.5055,-0.009,-0.0647,-0.04318,-0.21484,-0.02747,-0.07004,-0.0528,-0.00214,-0.01816,-0.02289,-0.01572,-0.00381,-0.06226,-0.02457,0.00931,0.0029
11.506,-0.00458,-0.06226,-0.06058,-0.23285,-0.02762,-0.13412,0.02899,0.00107,-0.01709,-0.0238,-0.01587,-0.0061,-0.06577,-0.02167,0.00641,-0.00717
11.5065,0.00137,-0.06317,-0.08255,-0.24765,-0.02777,-0.16251,0.1123,-0.00061,-0.01556,-0.02472,-0.01663,-0.00687,-0.05524,-0.01999,0.00397,-0.01846
11.507,0.00443,-0.06332,-0.09735,-0.26276,-0.02533,-0.10254,0.13641,-0.00626,-0.01556,-0.02426,-0.01511,-0.00534,-0.03967,-0.01984,0.0061,-0.02228
11.5075,0.00412,-0.06332,-0.10483,-0.27802,-0.01862,0.00641,0.07736,-0.01572,-0.0177,-0.02365,-0.01419,-0.00351,-0.02945,-0.0206,0.00977,-0.01968
11.508,0.00183,-0.06805,-0.09979,-0.28961,-0.00977,0.0618,-0.00946,-0.02426,-0.01999,-0.02457,-0.01297,-0.0029,-0.02808,-0.02014,0.00946,-0.01907
11.5085,0.0,-0.07538,-0.08743,-0.29526,-0.00717,0.01541,-0.04684,-0.02396,-0.02029,-0.02533,-0.01266,-0.00381,-0.03204,-0.01938,0.00885,-0.02289
11.509,-0.0029,-0.08026,-0.07263,-0.30121,-0.01099,-0.08102,-0.02563,-0.01587,-0.01877,-0.02319,-0.01297,-0.00488,-0.03616,-0.02029,0.00931,-0.02991
11.5095,-0.00763,-0.07919,-0.04822,-0.30807,-0.01923,-0.13809,0.0029,-0.00717,-0.01831,-0.02151,-0.01251,-0.00595,-0.0386,-0.02151,0.00854,-0.03372
11.51,-0.01175,-0.0737,-0.01389,-0.31036,-0.0235,-0.13199,-0.00473,-0.00153,-0.01877,-0.0206,-0.01266,-0.00671,-0.04181,-0.02121,0.00824,-0.03662
11.5105,-0.01205,-0.06912,0.02686,-0.30579,-0.02563,-0.10773,-0.04333,0.0,-0.01877,-0.02075,-0.01556,-0.00641,-0.04532,-0.02121,0.00717,-0.03998
11.511,-0.00977,-0.06393,0.05951,-0.30518,-0.02335,-0.09949,-0.08896,0.00137,-0.01724,-0.02228,-0.01663,-0.00534,-0.04715,-0.02045,0.00671,-0.04303
11.5115,-0.00717,-0.06042,0.07401,-0.3154,-0.01923,-0.10498,-0.12192,-0.00076,-0.01526,-0.02289,-0.01755,-0.00534,-0.04593,-0.01968,0.00931,-0.04623
11.512,-0.0061,-0.0589,0.06592,-0.33218,-0.0145,-0.10147,-0.13901,-0.00305,-0.01465,-0.02426,-0.01434,-0.00656,-0.0412,-0.01694,0.00778,-0.04929
11.5125,-0.00565,-0.06042,0.05371,-0.34317,-0.01175,-0.07965,-0.13718,-0.00137,-0.01495,-0.0235,-0.01373,-0.00702,-0.03418,-0.01343,0.00778,-0.05188
11.513,-0.00229,-0.06302,0.0528,-0.34271,-0.01175,-0.04318,-0.11414,0.00031,-0.01495,-0.02243,-0.0148,-0.00519,-0.03021,-0.01007,0.00717,-0.05234
11.5135,0.00763,-0.06439,0.05936,-0.34103,-0.0148,-0.00229,-0.08041,-0.00381,-0.01358,-0.02136,-0.01602,-0.00351,-0.02914,-0.00977,0.00885,-0.05096
11.514,0.02213,-0.06424,0.05234,-0.34637,-0.02151,0.02502,-0.05203,-0.01419,-0.01266,-0.02045,-0.01587,-0.00336,-0.03082,-0.01129,0.00687,-0.04791
11.5145,0.03281,-0.06317,0.02014,-0.35568,-0.03006,0.01923,-0.02213,-0.02228,-0.01266,-0.01968,-0.01572,-0.00366,-0.03098,-0.0119,0.00656,-0.04471
11.515,0.03204,-0.06195,-0.01923,-0.36102,-0.04196,-0.01526,0.04318,-0.02243,-0.01266,-0.01984,-0.01572,-0.00549,-0.0296,-0.0119,0.00748,-0.04333
11.5155,0.02228,-0.06058,-0.03815,-0.36163,-0.05508,-0.05676,0.1358,-0.01938,-0.01236,-0.01892,-0.01678,-0.00671,-0.02777,-0.01465,0.0061,-0.04364
11.516,0.01328,-0.06042,-0.03769,-0.35904,-0.065,-0.09613,0.18051,-0.01755,-0.01251,-0.01984,-0.01694,-0.00656,-0.02686,-0.01572,0.00702,-0.0444
11.5165,0.01053,-0.0618,-0.03235,-0.34973,-0.06622,-0.13184,0.12482,-0.01801,-0.01419,-0.01923,-0.01663,-0.00748,-0.02487,-0.01511,0.00595,-0.04395
11.517,0.01221,-0.06775,-0.03311,-0.33463,-0.06042,-0.15121,0.01404,-0.01526,-0.01648,-0.01862,-0.01526,-0.00946,-0.0235,-0.01389,0.00488,-0.04318
11.5175,0.01266,-0.07401,-0.03998,-0.31693,-0.0531,-0.1442,-0.06332,-0.01099,-0.01678,-0.01831,-0.01617,-0.01205,-0.02213,-0.01328,0.00473,-0.04272
11.518,0.01114,-0.07538,-0.04822,-0.30121,-0.04807,-0.1152,-0.07599,-0.00763,-0.01511,-0.01892,-0.01678,-0.01221,-0.02319,-0.0145,0.00488,-0.04211
11.5185,0.00809,-0.07248,-0.0618,-0.29343,-0.04578,-0.06897,-0.04562,-0.00656,-0.01419,-0.01953,-0.01694,-0.01266,-0.02487,-0.01602,0.00549,-0.04288
11.519,0.00397,-0.07095,-0.08026,-0.28854,-0.04257,-0.01984,-0.00153,-0.01038,-0.01389,-0.01984,-0.01587,-0.01343,-0.02609,-0.01587,0.0061,-0.0444
11.5195,-0.00015,-0.07401,-0.09857,-0.27512,-0.03754,0.0058,0.02762,-0.01602,-0.01343,-0.02029,-0.01358,-0.01556,-0.02533,-0.01617,0.00641,-0.04684
11.52,-0.00504,-0.08133,-0.10925,-0.2478,-0.03143,-0.01114,0.01526,-0.01816,-0.0119,-0.02045,-0.01282,-0.01801,-0.02365,-0.01511,0.0058,-0.04654
11.5205,-0.00931,-0.08636,-0.11597,-0.22369,-0.02625,-0.05722,-0.02411,-0.01617,-0.01114,-0.01907,-0.01389,-0.01953,-0.02304,-0.01587,0.00687,-0.04456
11.521,-0.01175,-0.0882,-0.11261,-0.22369,-0.01984,-0.09338,-0.04013,-0.01419,-0.01114,-0.01816,-0.01419,-0.01984,-0.02182,-0.01724,0.00732,-0.04349
11.5215,-0.00885,-0.08636,-0.10162,-0.24521,-0.01495,-0.10574,-0.01099,-0.01465,-0.0119,-0.0177,-0.0148,-0.01755,-0.02121,-0.01801,0.00778,-0.04532
11.522,0.00153,-0.08057,-0.0798,-0.26382,-0.01709,-0.11307,0.01495,-0.01648,-0.01266,-0.01862,-0.01373,-0.01465,-0.02136,-0.01831,0.00809,-0.04761
11.5225,0.01633,-0.07446,-0.04883,-0.26718,-0.02487,-0.12985,-0.00748,-0.0116,-0.01328,-0.02029,-0.01205,-0.01297,-0.0209,-0.01862,0.00809,-0.04776
11.523,0.03006,-0.07111,-0.01312,-0.26031,-0.03586,-0.12619,-0.05692,-0.00519,-0.01328,-0.02075,-0.01144,-0.01297,-0.02014,-0.01862,0.00824,-0.04608
11.5235,0.03784,-0.07065,0.02426,-0.24811,-0.04898,-0.06256,-0.07965,-0.00214,-0.01373,-0.01938,-0.01236,-0.01312,-0.01938,-0.01846,0.00656,-0.04471
11.524,0.03952,-0.06882,0.05875,-0.23117,-0.06104,0.05402,-0.06134,-0.00504,-0.0145,-0.01785,-0.01312,-0.01373,-0.02014,-0.01801,0.00427,-0.04379
11.5245,0.03967,-0.06256,0.08636,-0.21393,-0.06607,0.16541,-0.02579,-0.00549,-0.01511,-0.0177,-0.01358,-0.01404,-0.02045,-0.01816,0.00397,-0.04364
11.525,0.03738,-0.05264,0.10376,-0.20813,-0.06088,0.22064,0.00626,-0.00214,-0.01495,-0.01907,-0.01419,-0.01282,-0.02151,-0.01953,0.00519,-0.04425
11.5255,0.02884,-0.04227,0.10605,-0.22095,-0.04883,0.22293,0.0325,0.00122,-0.01434,-0.02014,-0.0145,-0.0119,-0.02258,-0.02136,0.00473,-0.04486
11.526,0.01572,-0.03479,0.09018,-0.24475,-0.03494,0.20081,0.04425,0.00214,-0.01343,-0.01968,-0.01389,-0.01144,-0.02487,-0.02274,0.00412,-0.04517
11.5265,0.00824,-0.03128,0.05371,-0.26077,-0.02518,0.14847,0.03159,0.00275,-0.01328,-0.01816,-0.01312,-0.01022,-0.02716,-0.02136,0.00351,-0.04532
11.527,0.01343,-0.03189,0.00824,-0.26062,-0.01801,0.03845,0.00381,0.00732,-0.01297,-0.01831,-0.01221,-0.00854,-0.02914,-0.01938,0.00397,-0.04547
11.5275,0.02396,-0.03616,-0.02747,-0.25009,-0.01373,-0.09842,-0.01038,0.01266,-0.01236,-0.01862,-0.0116,-0.00748,-0.03281,-0.01831,0.00473,-0.04532
11.528,0.03082,-0.04257,-0.0415,-0.23819,-0.01099,-0.17868,0.00046,0.01755,-0.01389,-0.01892,-0.01068,-0.00687,-0.03799,-0.01907,0.00641,-0.04486
11.5285,0.03311,-0.04745,-0.03983,-0.22308,-0.01053,-0.18341,0.02319,0.01785,-0.01495,-0.01907,-0.01099,-0.00656,-0.04181,-0.02014,0.00824,-0.04364
11.529,0.0325,-0.04807,-0.03586,-0.20004,-0.01114,-0.18753,0.03235,0.01511,-0.01541,-0.01968,-0.01175,-0.0058,-0.03998,-0.01938,0.00916,-0.04364
11.5295,0.0293,-0.04303,-0.03677,-0.17563,-0.01251,-0.23148,0.02136,0.0148,-0.01526,-0.01907,-0.01343,-0.00458,-0.03204,-0.01648,0.009,-0.04486
11.53,0.02182,-0.03601,-0.04196,-0.15869,-0.01419,-0.26138,-0.00076,0.01724,-0.01419,-0.01801,-0.01389,-0.00351,-0.02304,-0.01434,0.00885,-0.04532
11.5305,0.01205,-0.03067,-0.04761,-0.13992,-0.01694,-0.22842,-0.02609,0.02014,-0.01328,-0.01709,-0.01297,-0.00168,-0.01953,-0.01419,0.00824,-0.04486
11.531,0.00412,-0.02533,-0.05676,-0.10452,-0.01907,-0.16434,-0.04578,0.01877,-0.01328,-0.01678,-0.01297,-0.00031,-0.02228,-0.01572,0.00839,-0.04486
11.5315,0.00107,-0.01495,-0.06699,-0.06012,-0.02365,-0.11719,-0.04593,0.01205,-0.01282,-0.01816,-0.01312,0.00015,-0.02609,-0.01587,0.00778,-0.04471
11.532,-0.00046,0.00183,-0.07324,-0.03311,-0.03296,-0.08652,-0.02182,0.00671,-0.01205,-0.01984,-0.01312,-0.00122,-0.02869,-0.0145,0.00671,-0.04395
11.5325,-0.00626,0.01205,-0.07385,-0.03189,-0.04105,-0.05478,0.01343,0.00076,-0.01022,-0.01892,-0.01419,-0.00183,-0.03021,-0.0145,0.00702,-0.04272
11.533,-0.0177,0.0032,-0.07126,-0.03448,-0.04257,-0.02563,0.03052,-0.00198,-0.00702,-0.01724,-0.01282,-0.00092,-0.03113,-0.01678,0.0087,-0.04288
11.5335,-0.03159,-0.02197,-0.07233,-0.0235,-0.03922,-0.00977,0.01602,-0.00473,-0.00473,-0.01602,-0.01175,0.00107,-0.03082,-0.01755,0.00824,-0.04303
11.534,-0.04288,-0.05157,-0.07675,-0.00641,-0.03281,-0.00381,-0.00839,-0.00702,-0.00443,-0.0174,-0.01221,0.00244,-0.02899,-0.0177,0.00687,-0.04303
11.5345,-0.04974,-0.07507,-0.08118,0.00687,-0.02716,0.00244,-0.01266,-0.00732,-0.00504,-0.01877,-0.01251,0.00351,-0.02747,-0.01648,0.0058,-0.04303
11.535,-0.05096,-0.0885,-0.08041,0.02106,-0.02258,0.00519,0.0,-0.00565,-0.00504,-0.01801,-0.01297,0.00427,-0.02869,-0.01587,0.00702,-0.04211
11.5355,-0.04318,-0.0885,-0.07385,0.03906,-0.01923,-0.00549,0.0032,-0.00351,-0.0058,-0.01678,-0.01419,0.00397,-0.03159,-0.01663,0.00702,-0.0412
11.536,-0.02884,-0.07904,-0.05783,0.05829,-0.0145,-0.02823,-0.01022,0.00031,-0.00946,-0.01617,-0.01373,0.0029,-0.03387,-0.01785,0.00748,-0.04227
11.5365,-0.01434,-0.06638,-0.03601,0.0827,-0.01068,-0.0499,-0.02884,0.00626,-0.01373,-0.01724,-0.01282,0.00397,-0.03357,-0.01877,0.00854,-0.04349
11.537,-0.00473,-0.0528,-0.01694,0.11414,-0.00839,-0.06271,-0.03738,0.0145,-0.01648,-0.0174,-0.01266,0.00519,-0.03387,-0.01877,0.00885,-0.0441
11.5375,-0.00031,-0.03998,-0.00977,0.14374,-0.00961,-0.07309,-0.02701,0.02289,-0.01678,-0.01709,-0.01328,0.00717,-0.03525,-0.01923,0.01007,-0.04379
11.538,0.00046,-0.03067,-0.01007,0.15701,-0.01404,-0.08362,-0.00305,0.02899,-0.01678,-0.01648,-0.01266,0.00839,-0.03723,-0.01892,0.00931,-0.04364
11.5385,0.00229,-0.02716,-0.00748,0.15411,-0.01755,-0.0885,0.00992,0.02563,-0.0177,-0.01511,-0.01068,0.00946,-0.03708,-0.01999,0.00793,-0.0444
11.539,0.00702,-0.02747,0.00046,0.14816,-0.01938,-0.07828,-0.00504,0.01144,-0.01877,-0.0148,-0.00992,0.00916,-0.03616,-0.01938,0.00748,-0.04517
11.5395,0.01373,-0.02411,0.00122,0.14786,-0.01938,-0.05768,-0.03128,-0.00504,-0.02014,-0.01572,-0.00885,0.0087,-0.03448,-0.01892,0.00763,-0.04349
11.54,0.01678,-0.01968,-0.01907,0.14938,-0.01816,-0.04974,-0.04211,-0.01373,-0.02258,-0.01694,-0.009,0.00809,-0.03265,-0.01663,0.00854,-0.04257
11.5405,0.01694,-0.0177,-0.05325,0.14999,-0.0177,-0.05783,-0.03799,-0.0145,-0.02747,-0.01755,-0.00793,0.00748,-0.03159,-0.0145,0.009,-0.04227
11.541,0.01984,-0.01968,-0.08087,0.15457,-0.01801,-0.05417,-0.03555,-0.01404,-0.03326,-0.01724,-0.00778,0.00687,-0.03159,-0.01465,0.009,-0.04211
11.5415,0.02548,-0.02411,-0.0885,0.16724,-0.01877,-0.02319,-0.04013,-0.0174,-0.03784,-0.0177,-0.00854,0.00595,-0.03281,-0.01648,0.00809,-0.0412
11.542,0.02762,-0.02869,-0.08224,0.18021,-0.01968,0.01297,-0.04105,-0.02106,-0.03571,-0.01831,-0.01053,0.00595,-0.03403,-0.01907,0.00824,-0.03906
11.5425,0.0235,-0.03433,-0.07568,0.18158,-0.01892,0.02487,-0.03448,-0.02228,-0.02838,-0.01999,-0.01038,0.00458,-0.03601,-0.02075,0.00809,-0.03922
11.543,0.01633,-0.03967,-0.07339,0.17365,-0.01907,0.01648,-0.02487,-0.02274,-0.01999,-0.01907,-0.0116,0.00366,-0.03784,-0.0209,0.00916,-0.04074
11.5435,0.01175,-0.03937,-0.06592,0.16922,-0.02029,0.01068,-0.01831,-0.02426,-0.01663,-0.01724,-0.01312,0.00275,-0.03891,-0.01907,0.01022,-0.04135
11.544,0.00946,-0.03571,-0.04776,0.18021,-0.02258,0.00229,-0.01663,-0.02426,-0.01938,-0.01572,-0.0148,0.00259,-0.03876,-0.01907,0.00992,-0.03952
11.5445,0.00504,-0.03174,-0.02487,0.20859,-0.02365,-0.0325,-0.01801,-0.01785,-0.02304,-0.01495,-0.01709,0.00183,-0.0383,-0.02121,0.01068,-0.03799
11.545,-0.00534,-0.03006,-0.00992,0.24933,-0.02457,-0.08652,-0.02335,-0.00763,-0.02441,-0.01587,-0.01663,-0.00092,-0.03754,-0.02136,0.00931,-0.03922
11.5455,-0.01801,-0.02991,-0.00824,0.29114,-0.02579,-0.12131,-0.03067,0.00244,-0.02365,-0.01678,-0.01511,-0.00412,-0.03662,-0.02182,0.00885,-0.04074
11.546,-0.02365,-0.02808,-0.01541,0.31799,-0.02701,-0.11612,-0.03555,0.00809,-0.02319,-0.01587,-0.01297,-0.0061,-0.03616,-0.02228,0.00885,-0.04105
11.5465,-0.0206,-0.02686,-0.01709,0.31952,-0.02579,-0.09369,-0.03815,0.00885,-0.02502,-0.0145,-0.01282,-0.00595,-0.03616,-0.02335,0.00946,-0.04013
11.547,-0.01495,-0.02625,-0.0058,0.29831,-0.02426,-0.08255,-0.03845,0.00778,-0.02884,-0.01221,-0.0148,-0.00183,-0.03616,-0.0238,0.00946,-0.03998
11.5475,-0.01358,-0.02686,0.01236,0.26154,-0.02396,-0.08087,-0.03937,0.00549,-0.02975,-0.01221,-0.01694,0.0061,-0.03632,-0.02335,0.01099,-0.04059
11.548,-0.01556,-0.03006,0.03159,0.21179,-0.02411,-0.07721,-0.04227,0.00351,-0.02563,-0.01282,-0.0174,0.01511,-0.03632,-0.02213,0.01251,-0.04211
11.5485,-0.01526,-0.03677,0.04227,0.1532,-0.02609,-0.06577,-0.04608,0.00183,-0.01953,-0.01282,-0.01755,0.02121,-0.03571,-0.01968,0.01328,-0.04272
11.549,-0.00916,-0.04562,0.03891,0.1004,-0.02869,-0.04837,-0.04929,0.00153,-0.01587,-0.01373,-0.01831,0.02579,-0.0351,-0.01862,0.01251,-0.04227
11.5495,-0.00137,-0.05173,0.01831,0.06897,-0.02975,-0.0325,-0.04547,0.00198,-0.01343,-0.01251,-0.01907,0.03601,-0.03311,-0.01862,0.01251,-0.04257
11.55,0.00351,-0.05432,-0.0116,0.05203,-0.0296,-0.02563,-0.0325,-0.00137,-0.0116,-0.01083,-0.0177,0.05173,-0.03159,-0.01663,0.01266,-0.04272
11.5505,0.00992,-0.05768,-0.03601,0.03952,-0.02869,-0.03448,-0.01068,-0.00839,-0.00946,-0.01068,-0.01617,0.065,-0.03067,-0.01434,0.01221,-0.03998
11.551,0.0206,-0.06485,-0.04807,0.03693,-0.03052,-0.05417,0.01114,-0.01266,-0.00839,-0.01221,-0.01587,0.07599,-0.03021,-0.0145,0.01175,-0.03693
11.5515,0.03632,-0.07263,-0.05417,0.05539,-0.03403,-0.06302,0.0148,-0.00946,-0.00824,-0.01419,-0.01526,0.08698,-0.02838,-0.01556,0.00885,-0.03708
11.552,0.05066,-0.07462,-0.05981,0.08286,-0.03799,-0.04578,-0.00259,-0.00122,-0.00931,-0.01816,-0.01556,0.08942,-0.02594,-0.01694,0.00854,-0.03967
11.5525,0.05615,-0.0679,-0.06836,0.10498,-0.04211,-0.01709,-0.02594,0.00488,-0.0116,-0.02258,-0.0148,0.06851,-0.02472,-0.01755,0.00961,-0.04349
11.553,0.05051,-0.056,-0.07538,0.12085,-0.04837,-0.01205,-0.03479,0.00473,-0.01617,-0.02533,-0.0145,0.03052,-0.02365,-0.01755,0.01068,-0.04501
11.5535,0.03616,-0.04654,-0.0795,0.1442,-0.056,-0.03525,-0.03143,-0.00061,-0.02045,-0.02609,-0.01373,0.00137,-0.0235,-0.0177,0.01038,-0.0441
11.554,0.01495,-0.0386,-0.08163,0.17792,-0.06073,-0.0621,-0.02853,-0.00839,-0.02014,-0.02487,-0.01404,-0.01343,-0.02319,-0.01755,0.01114,-0.04105
11.5545,-0.00671,-0.03036,-0.08133,0.2182,-0.06134,-0.0676,-0.0293,-0.01434,-0.01526,-0.02289,-0.01511,-0.0325,-0.02304,-0.01709,0.01205,-0.03708
11.555,-0.02426,-0.02441,-0.07843,0.23956,-0.05844,-0.05798,-0.02655,-0.0145,-0.01114,-0.01999,-0.01434,-0.06256,-0.02365,-0.01556,0.01312,-0.03525
11.5555,-0.03342,-0.02319,-0.07355,0.21011,-0.05493,-0.04944,-0.01877,-0.0116,-0.00961,-0.01816,-0.01389,-0.08469,-0.02365,-0.01282,0.0119,-0.03494
11.556,-0.03311,-0.02487,-0.0676,0.13672,-0.05264,-0.03922,-0.01343,-0.00885,-0.01038,-0.01663,-0.01511,-0.0769,-0.02335,-0.01373,0.01083,-0.03708
11.5565,-0.02472,-0.02274,-0.06149,0.07355,-0.05066,-0.01877,-0.01816,-0.00549,-0.01053,-0.01465,-0.01602,-0.04913,-0.02396,-0.01617,0.00961,-0.03922
11.557,-0.0145,-0.01678,-0.05768,0.06485,-0.04547,-0.00183,-0.02869,-0.00229,-0.01007,-0.01434,-0.01663,-0.02319,-0.02579,-0.01846,0.0087,-0.04028
11.5575,-0.00656,-0.01099,-0.056,0.09735,-0.03845,-0.00824,-0.03189,0.00061,-0.01007,-0.01465,-0.01556,-0.0177,-0.02762,-0.01923,0.00992,-0.03937
11.558,-0.00229,-0.01083,-0.05585,0.12817,-0.03021,-0.03601,-0.02121,0.00168,-0.01114,-0.01617,-0.0145,-0.03769,-0.02945,-0.01862,0.01053,-0.03967
11.5585,-0.00183,-0.01511,-0.05142,0.13214,-0.02426,-0.05737,-0.00534,0.00198,-0.01251,-0.01633,-0.01251,-0.07645,-0.03113,-0.01801,0.00946,-0.04105
11.559,-0.00397,-0.01999,-0.04333,0.11307,-0.02319,-0.05081,0.00168,-0.00015,-0.01343,-0.01663,-0.01175,-0.11154,-0.03174,-0.01816,0.00778,-0.04379
11.5595,-0.00748,-0.02106,-0.03357,0.08438,-0.02625,-0.02686,-0.00412,-0.00443,-0.01251,-0.01617,-0.01221,-0.12299,-0.03174,-0.0174,0.0058,-0.04562
11.56,-0.01007,-0.01694,-0.02533,0.05798,-0.03052,-0.01053,-0.02029,-0.00961,-0.01114,-0.01572,-0.01389,-0.09964,-0.03189,-0.01724,0.0061,-0.047
11.5605,-0.00931,-0.01434,-0.02045,0.04272,-0.03143,-0.01541,-0.03754,-0.01419,-0.01129,-0.01556,-0.01465,-0.05676,-0.03265,-0.01862,0.00656,-0.04822
11.561,-0.00534,-0.01465,-0.0177,0.03937,-0.03128,-0.0325,-0.04852,-0.01343,-0.01221,-0.01526,-0.01404,-0.02609,-0.03418,-0.0206,0.00641,-0.04883
11.5615,0.00061,-0.01801,-0.0177,0.04181,-0.03204,-0.04944,-0.04944,-0.00763,-0.01251,-0.01633,-0.01297,-0.0206,-0.03571,-0.02167,0.00397,-0.04913
11.562,0.00626,-0.02014,-0.02213,0.04288,-0.03281,-0.06058,-0.04166,-0.00046,-0.0119,-0.0174,-0.01358,-0.01923,-0.03708,-0.02228,0.00168,-0.04929
11.5625,0.00778,-0.02197,-0.02914,0.04364,-0.03403,-0.06317,-0.02426,0.0032,-0.01297,-0.01831,-0.0148,0.00076,-0.0383,-0.02319,0.00229,-0.04929
11.563,0.00198,-0.02228,-0.03754,0.04593,-0.03311,-0.05447,-0.00458,0.00397,-0.01465,-0.01831,-0.01541,0.02579,-0.03815,-0.02289,0.00443,-0.04837
11.5635,-0.01358,-0.02411,-0.04486,0.04745,-0.03403,-0.03357,0.00916,0.00565,-0.01495,-0.01801,-0.01389,0.01221,-0.03784,-0.02335,0.00687,-0.04745
11.564,-0.03525,-0.03006,-0.0502,0.04303,-0.03662,-0.00626,0.00931,0.01144,-0.0119,-0.01694,-0.01358,-0.05356,-0.03906,-0.02365,0.00717,-0.04578
11.5645,-0.04791,-0.04242,-0.05341,0.02869,-0.03693,0.00687,-0.00259,0.01907,-0.00778,-0.01694,-0.01572,-0.12512,-0.0415,-0.02441,0.00671,-0.04288
11.565,-0.0441,-0.05844,-0.05402,0.00641,-0.03494,-0.00473,-0.02243,0.02136,-0.00595,-0.01862,-0.01801,-0.15686,-0.04364,-0.02426,0.00793,-0.0412
11.5655,-0.02625,-0.0708,-0.05249,-0.01984,-0.03281,-0.02991,-0.04257,0.01526,-0.00793,-0.02106,-0.01862,-0.15854,-0.04303,-0.02243,0.00992,-0.03906
11.566,-0.00839,-0.07629,-0.05173,-0.04608,-0.03067,-0.05417,-0.05386,0.00214,-0.01617,-0.02121,-0.01587,-0.15213,-0.04257,-0.01907,0.0119,-0.03876
11.5665,-0.00229,-0.07462,-0.05157,-0.07065,-0.02853,-0.06622,-0.05386,-0.00946,-0.02655,-0.02213,-0.01495,-0.11429,-0.04288,-0.01678,0.01282,-0.03769
11.567,-0.00519,-0.07202,-0.05371,-0.08926,-0.02747,-0.06866,-0.04562,-0.01251,-0.03662,-0.02075,-0.01465,-0.02136,-0.04257,-0.01816,0.01419,-0.03769
11.5675,-0.00763,-0.07294,-0.05463,-0.09094,-0.02838,-0.06683,-0.04486,-0.00809,-0.04089,-0.02075,-0.01526,0.09491,-0.03922,-0.01831,0.01266,-0.03891
11.568,-0.00656,-0.07599,-0.05249,-0.06882,-0.02975,-0.06332,-0.05844,-0.00381,-0.03769,-0.02014,-0.01465,0.17426,-0.03647,-0.02029,0.01114,-0.03983
11.5685,-0.00351,-0.07477,-0.04944,-0.03159,-0.03052,-0.06134,-0.08347,-0.00656,-0.02777,-0.01846,-0.01389,0.18143,-0.03616,-0.01862,0.01038,-0.0415
11.569,-0.00183,-0.06821,-0.04623,0.00381,-0.03204,-0.06226,-0.11353,-0.01389,-0.0174,-0.01724,-0.01236,0.12726,-0.03693,-0.01892,0.00931,-0.0441
11.5695,-0.00046,-0.05707,-0.04288,0.02396,-0.03235,-0.05554,-0.14267,-0.01968,-0.01129,-0.01602,-0.01007,0.04562,-0.03632,-0.01801,0.00778,-0.04562
11.57,0.00076,-0.04547,-0.03967,0.02609,-0.03189,-0.01709,-0.16663,-0.02274,-0.00931,-0.0145,-0.00839,-0.01678,-0.03586,-0.01709,0.00458,-0.04654
11.5705,-0.00015,-0.03372,-0.03723,0.00885,-0.02945,0.05051,-0.16708,-0.02502,-0.00854,-0.01419,-0.00931,-0.03174,-0.0354,-0.01572,0.00137,-0.04745
11.571,-0.00305,-0.02228,-0.03357,-0.03036,-0.02426,0.10559,-0.10666,-0.0238,-0.00854,-0.01343,-0.01099,-0.00473,-0.03571,-0.01526,0.00015,-0.04791
11.5715,-0.00916,-0.01144,-0.02731,-0.08392,-0.02106,0.11581,0.03647,-0.01755,-0.00977,-0.01434,-0.01129,0.03052,-0.03586,-0.01495,0.00076,-0.04868
11.572,-0.01434,-0.00351,-0.02213,-0.12253,-0.02258,0.09033,0.21179,-0.01114,-0.0116,-0.0148,-0.01053,0.04562,-0.03616,-0.0148,0.0029,-0.047
11.5725,-0.01801,0.00046,-0.02014,-0.10773,-0.02701,0.06287,0.3038,-0.00977,-0.01175,-0.01434,-0.00961,0.05676,-0.03418,-0.01282,0.00504,-0.0444
11.573,-0.0209,0.00244,-0.02136,-0.03876,-0.03036,0.01678,0.26413,-0.00977,-0.00931,-0.01266,-0.00854,0.09613,-0.03143,-0.01175,0.00717,-0.04166
11.5735,-0.02487,0.0029,-0.02487,0.0325,-0.03464,-0.08469,0.16357,-0.00732,-0.00809,-0.01114,-0.01068,0.16434,-0.03036,-0.01236,0.00763,-0.04044
11.574,-0.02762,0.00168,-0.02869,0.05051,-0.03738,-0.21912,0.09293,-0.00397,-0.00793,-0.00992,-0.01251,0.22293,-0.03021,-0.01343,0.0058,-0.0412
11.5745,-0.02472,-0.00092,-0.03357,0.01526,-0.03906,-0.30304,0.05707,-0.0032,-0.00763,-0.01007,-0.01312,0.23987,-0.03098,-0.0148,0.00336,-0.04227
11.575,-0.0148,-0.0058,-0.03998,-0.03006,-0.03723,-0.28961,0.02609,-0.00351,-0.00565,-0.01022,-0.0145,0.21545,-0.03098,-0.0148,0.00275,-0.04257
11.5755,-0.00504,-0.01343,-0.0441,-0.05219,-0.03433,-0.21469,0.00305,-0.00168,-0.00305,-0.01144,-0.01663,0.16098,-0.03082,-0.01495,0.00427,-0.0415
11.576,-0.00137,-0.02396,-0.04227,-0.06012,-0.03204,-0.1445,0.00946,-0.00015,-0.00275,-0.0145,-0.02029,0.09308,-0.03113,-0.01602,0.00549,-0.04257
11.5765,-0.00305,-0.03632,-0.03586,-0.07294,-0.03128,-0.10651,0.0354,-0.00198,-0.00671,-0.0174,-0.02121,0.03662,-0.03281,-0.0177,0.00381,-0.04456
11.577,-0.0061,-0.05096,-0.03143,-0.08362,-0.03113,-0.08652,0.04593,-0.00702,-0.01297,-0.01907,-0.02121,0.00397,-0.03448,-0.01907,0.0,-0.04608
11.5775,-0.00687,-0.06271,-0.03021,-0.07034,-0.03113,-0.0705,0.02441,-0.00992,-0.02045,-0.01923,-0.02289,-0.01709,-0.0351,-0.01999,-0.0032,-0.0473
11.578,-0.00504,-0.06821,-0.02853,-0.03189,-0.03082,-0.05905,-0.00977,-0.00656,-0.02457,-0.01724,-0.02518,-0.03006,-0.03448,-0.02228,-0.00412,-0.04929
11.5785,-0.00198,-0.0708,-0.02777,0.00534,-0.03052,-0.05707,-0.02747,0.00137,-0.02609,-0.01648,-0.02548,-0.02487,-0.03342,-0.02365,-0.0029,-0.05142
11.579,0.00473,-0.07492,-0.02777,0.01984,-0.0296,-0.05981,-0.0116,0.00702,-0.02533,-0.01785,-0.02472,-0.00793,-0.03235,-0.02274,-0.00198,-0.0528
11.5795,0.01587,-0.07996,-0.02518,0.00931,-0.02991,-0.065,0.02014,0.00549,-0.02518,-0.01831,-0.02335,-0.00824,-0.03128,-0.02029,-0.00031,-0.04974
11.58,0.02686,-0.08163,-0.01572,-0.01709,-0.03036,-0.0705,0.04013,-0.00076,-0.02701,-0.01923,-0.02243,-0.02563,-0.02899,-0.01877,0.00183,-0.04517
11.5805,0.02686,-0.07675,-0.00397,-0.04272,-0.03265,-0.07629,0.02945,-0.00519,-0.02991,-0.01953,-0.02136,-0.03052,-0.02686,-0.01801,0.00427,-0.04196
11.581,0.01556,-0.065,-0.00015,-0.05585,-0.03082,-0.07187,0.00229,-0.0058,-0.03067,-0.01953,-0.02029,-0.00931,-0.02686,-0.01831,0.00717,-0.04059
11.5815,0.00259,-0.04959,-0.00626,-0.05737,-0.0296,-0.05066,-0.02365,-0.00412,-0.03143,-0.01785,-0.01846,0.0116,-0.02731,-0.01862,0.00885,-0.04105
11.582,-0.00351,-0.03387,-0.0145,-0.0592,-0.02853,-0.01434,-0.05035,-0.00534,-0.03235,-0.01862,-0.0174,0.01221,-0.02777,-0.01785,0.00885,-0.03998
11.5825,-0.00595,-0.02426,-0.01801,-0.06516,-0.02411,0.01648,-0.08453,-0.01282,-0.03418,-0.0209,-0.0174,0.01328,-0.0267,-0.01816,0.00763,-0.03784
11.583,-0.01312,-0.02121,-0.01755,-0.0647,-0.01877,0.02808,-0.1152,-0.02197,-0.03448,-0.0235,-0.01663,0.03662,-0.0267,-0.01953,0.00946,-0.03403
11.5835,-0.02579,-0.02258,-0.01709,-0.04959,-0.01312,0.03113,-0.12512,-0.02228,-0.03189,-0.02441,-0.01434,0.05951,-0.02686,-0.01968,0.0145,-0.03159
11.584,-0.03586,-0.02335,-0.01755,-0.02274,-0.00839,0.04105,-0.1004,-0.0119,-0.02686,-0.02289,-0.01221,0.03754,-0.02716,-0.01862,0.01862,-0.03113
11.5845,-0.03708,-0.02365,-0.01846,0.00275,-0.00656,0.047,-0.05081,0.0,-0.02289,-0.02045,-0.01175,-0.03647,-0.02686,-0.01831,0.01709,-0.0325
11.585,-0.03418,-0.02472,-0.02045,0.01541,-0.00793,0.01907,0.00992,0.0029,-0.0235,-0.0209,-0.01312,-0.12909,-0.02625,-0.01862,0.01266,-0.03464
11.5855,-0.03601,-0.02914,-0.02228,0.01099,-0.01053,-0.047,0.05692,-0.00687,-0.03098,-0.0238,-0.01404,-0.20355,-0.02686,-0.01907,0.00961,-0.0383
11.586,-0.04318,-0.03525,-0.02365,-0.00488,-0.01282,-0.10696,0.07019,-0.01709,-0.03998,-0.02655,-0.01221,-0.2417,-0.02792,-0.01907,0.00839,-0.04059
11.5865,-0.04807,-0.04227,-0.02609,-0.01846,-0.01465,-0.10941,0.05005,-0.01694,-0.04364,-0.0264,-0.00992,-0.24109,-0.02975,-0.0177,0.00595,-0.04349
11.587,-0.0441,-0.05066,-0.0325,-0.02258,-0.01968,-0.06042,0.02335,-0.00717,-0.03723,-0.0238,-0.01038,-0.21667,-0.03159,-0.01617,0.00275,-0.04669
11.5875,-0.03052,-0.05844,-0.04166,-0.02029,-0.02701,-0.02823,0.00534,0.00137,-0.02487,-0.02182,-0.01144,-0.18646,-0.03067,-0.01572,-0.00229,-0.05051
11.588,-0.01205,-0.06439,-0.05157,-0.02075,-0.03693,-0.0589,-0.00381,0.00153,-0.0177,-0.02182,-0.0116,-0.15381,-0.02899,-0.01633,-0.00443,-0.05356
11.5885,0.00427,-0.06821,-0.0563,-0.0264,-0.04761,-0.12466,-0.01373,-0.00397,-0.01678,-0.02228,-0.0119,-0.10681,-0.03021,-0.01709,-0.00488,-0.05356
11.589,0.01297,-0.06744,-0.05707,-0.03281,-0.06027,-0.15411,-0.02502,-0.00778,-0.01724,-0.02289,-0.01175,-0.04028,-0.03159,-0.01862,-0.00412,-0.05295
11.5895,0.01511,-0.06195,-0.05569,-0.03036,-0.06897,-0.12054,-0.03159,-0.00549,-0.0148,-0.02151,-0.01205,0.03784,-0.0322,-0.01907,-0.00107,-0.05173
11.59,0.01541,-0.05066,-0.05127,-0.01282,-0.07385,-0.06561,-0.03357,-0.00198,-0.01038,-0.02045,-0.01114,0.10651,-0.03235,-0.01663,0.00183,-0.0502
11.5905,0.01678,-0.03693,-0.0444,0.0145,-0.07248,-0.03555,-0.03296,0.00046,-0.009,-0.02106,-0.01068,0.14114,-0.03479,-0.01556,0.00412,-0.04852
11.591,0.0174,-0.02548,-0.03555,0.0325,-0.06577,-0.03342,-0.03204,-0.00031,-0.00931,-0.02151,-0.01038,0.12299,-0.03555,-0.01495,0.00381,-0.04669
11.5915,0.01709,-0.02029,-0.0267,0.03021,-0.05676,-0.03723,-0.03189,-0.00183,-0.00809,-0.02106,-0.01175,0.05447,-0.0351,-0.01495,0.00153,-0.04639
11.592,0.01923,-0.0209,-0.02365,0.0206,-0.04898,-0.03708,-0.03113,-0.00061,-0.00366,-0.01953,-0.01328,-0.02655,-0.03342,-0.01572,0.00061,-0.04715
11.5925,0.02151,-0.02365,-0.02365,0.02106,-0.04288,-0.03723,-0.03052,0.00336,0.00168,-0.01831,-0.0145,-0.07477,-0.03387,-0.01602,0.00275,-0.04761
11.593,0.01816,-0.0264,-0.02411,0.03143,-0.03891,-0.03998,-0.03357,0.00427,0.00275,-0.01816,-0.01602,-0.0914,-0.03433,-0.01419,0.00397,-0.04593
11.5935,0.009,-0.02716,-0.02411,0.03616,-0.03632,-0.04318,-0.0354,0.00122,-0.00107,-0.0174,-0.01831,-0.11444,-0.03403,-0.01282,0.00443,-0.0444
11.594,-0.00168,-0.02609,-0.02304,0.02899,-0.03311,-0.04684,-0.03601,-0.00305,-0.00458,-0.01892,-0.01938,-0.13962,-0.03342,-0.01358,0.00412,-0.04395
11.5945,-0.01099,-0.02502,-0.02167,0.01785,-0.0325,-0.04715,-0.03448,-0.00488,-0.00381,-0.01801,-0.02045,-0.11047,-0.03326,-0.01541,0.00519,-0.04486
11.595,-0.01831,-0.02258,-0.02045,0.01083,-0.03098,-0.04074,-0.03494,-0.00641,0.00168,-0.01755,-0.02014,-0.0058,-0.03601,-0.01694,0.00641,-0.04562
11.5955,-0.02625,-0.02045,-0.02335,0.01038,-0.03021,-0.02487,-0.03571,-0.00977,0.00671,-0.01938,-0.01892,0.10773,-0.03784,-0.01801,0.00595,-0.04486
11.596,-0.03036,-0.02014,-0.02853,0.01068,-0.03113,-0.00427,-0.03113,-0.01526,0.0087,-0.02106,-0.01556,0.14664,-0.03754,-0.01755,0.00565,-0.04395
11.5965,-0.02792,-0.02228,-0.03387,0.00595,-0.0322,0.00977,-0.01602,-0.0174,0.00641,-0.02075,-0.01389,0.10376,-0.03632,-0.01556,0.00488,-0.04333
11.597,-0.02014,-0.02563,-0.03998,-0.00458,-0.03326,0.00885,0.00076,-0.01266,0.00305,-0.01953,-0.01297,0.04639,-0.03464,-0.01434,0.00443,-0.04379
11.5975,-0.01175,-0.02991,-0.04654,-0.01633,-0.03433,-0.00229,0.00656,-0.00519,0.00153,-0.01709,-0.01404,0.04074,-0.03479,-0.01602,0.00412,-0.0441
11.598,-0.00687,-0.03433,-0.0531,-0.02228,-0.03494,-0.02151,-0.00412,-0.00214,-0.00031,-0.01617,-0.01389,0.08347,-0.0351,-0.01755,0.00443,-0.0441
11.5985,-0.00702,-0.03891,-0.05981,-0.02258,-0.03647,-0.05341,-0.02106,-0.00595,-0.00275,-0.01617,-0.01282,0.11642,-0.0354,-0.01801,0.00305,-0.04456
11.599,-0.01144,-0.0412,-0.06683,-0.02426,-0.03845,-0.09888,-0.03128,-0.00946,-0.00473,-0.01694,-0.01129,0.10391,-0.03464,-0.01877,0.00076,-0.04745
11.5995,-0.01328,-0.04303,-0.06958,-0.0296,-0.03922,-0.12924,-0.03555,-0.00946,-0.00717,-0.0174,-0.01205,0.07401,-0.03372,-0.01953,0.0,-0.04898
11.6,-0.01328,-0.047,-0.06699,-0.03067,-0.03784,-0.11124,-0.03632,-0.00854,-0.01007,-0.01877,-0.01236,0.07523,-0.03235,-0.02045,0.00107,-0.04929
11.6005,-0.01236,-0.05447,-0.05981,-0.0206,-0.03616,-0.04974,-0.0354,-0.00824,-0.01373,-0.01862,-0.01236,0.10834,-0.03159,-0.01968,0.00275,-0.04852
11.601,-0.01099,-0.05981,-0.04761,-0.00229,-0.03571,0.01328,-0.02914,-0.00504,-0.01755,-0.01755,-0.01205,0.1387,-0.03113,-0.01923,0.00259,-0.04822
11.6015,-0.00839,-0.05936,-0.03281,0.01205,-0.03525,0.04364,-0.02289,0.00122,-0.02045,-0.01694,-0.01114,0.15182,-0.03067,-0.01877,0.00183,-0.04791
11.602,-0.00687,-0.05188,-0.01907,0.01541,-0.03616,0.04105,-0.02167,0.00458,-0.0238,-0.01724,-0.01099,0.1445,-0.03189,-0.01862,0.00397,-0.04684
11.6025,-0.00961,-0.04395,-0.00732,0.00961,-0.03586,0.01984,-0.02991,0.0032,-0.02777,-0.01801,-0.01175,0.11078,-0.03281,-0.01846,0.00732,-0.04578
11.603,-0.01175,-0.03983,-0.00015,0.00351,-0.03632,-0.00504,-0.03952,0.00153,-0.02914,-0.01831,-0.01297,0.06058,-0.03174,-0.01862,0.00961,-0.04395
11.6035,-0.00839,-0.03815,0.0058,0.00031,-0.03738,-0.02396,-0.0473,0.00366,-0.02625,-0.01816,-0.0145,0.02502,-0.03128,-0.01892,0.0087,-0.04272
11.604,-0.00183,-0.03738,0.00992,-0.00168,-0.03662,-0.04776,-0.05554,0.00626,-0.02167,-0.01785,-0.01419,0.01785,-0.03113,-0.01968,0.00916,-0.0412
11.6045,-0.00015,-0.03799,0.00839,-0.00534,-0.0354,-0.09659,-0.06088,0.00244,-0.02136,-0.01755,-0.01205,0.01785,-0.0322,-0.02014,0.01129,-0.03906
11.605,-0.00412,-0.04074,-0.0058,-0.00763,-0.03387,-0.16373,-0.05646,-0.00763,-0.02441,-0.01678,-0.01053,-0.00275,-0.03326,-0.01999,0.01297,-0.03708
11.6055,-0.00687,-0.04349,-0.03372,-0.00549,-0.03265,-0.20111,-0.03326,-0.01617,-0.02625,-0.01587,-0.01053,-0.05035,-0.03311,-0.02075,0.01373,-0.03601
11.606,-0.00626,-0.0444,-0.0589,0.00275,-0.03067,-0.1767,0.00122,-0.01541,-0.02396,-0.0145,-0.01114,-0.10071,-0.0322,-0.02274,0.01236,-0.03571
11.6065,-0.00717,-0.04333,-0.06287,0.01389,-0.02991,-0.12344,0.02441,-0.00687,-0.01755,-0.01526,-0.0119,-0.12299,-0.03281,-0.0235,0.01175,-0.03586
11.607,-0.01205,-0.04242,-0.04929,0.01816,-0.03052,-0.10086,0.01907,0.00137,-0.01129,-0.01663,-0.01175,-0.10208,-0.03372,-0.02457,0.01312,-0.03479
11.6075,-0.02213,-0.04517,-0.03326,0.01114,-0.0325,-0.09506,-0.00214,0.00336,-0.00824,-0.01602,-0.01083,-0.05585,-0.03372,-0.02365,0.01572,-0.03265
11.608,-0.03433,-0.04913,-0.02121,-0.00427,-0.03281,-0.04684,-0.01205,-0.00046,-0.00702,-0.01556,-0.01038,-0.01617,-0.03403,-0.02304,0.01816,-0.03113
11.6085,-0.04303,-0.0502,-0.00977,-0.02045,-0.03189,0.03525,-0.00595,-0.00458,-0.00534,-0.01526,-0.01053,0.01297,-0.0351,-0.02213,0.01968,-0.03006
11.609,-0.04044,-0.04745,0.00168,-0.0296,-0.03418,0.07614,0.0029,-0.00427,-0.00229,-0.0145,-0.01038,0.04776,-0.03723,-0.02396,0.02151,-0.02914
11.6095,-0.02701,-0.04349,0.00931,-0.03082,-0.03586,0.04654,0.00336,0.00031,-0.00183,-0.01312,-0.00961,0.07645,-0.03922,-0.02533,0.0235,-0.02792
11.61,-0.0145,-0.04044,0.00824,-0.02975,-0.03632,-0.00351,-0.00427,0.00519,-0.00595,-0.01205,-0.01083,0.06027,-0.03891,-0.02472,0.02457,-0.0267
11.6105,-0.01205,-0.03876,-0.00076,-0.0322,-0.03326,-0.02792,-0.01083,0.0058,-0.01266,-0.01205,-0.01236,-0.00565,-0.03677,-0.02167,0.02579,-0.02777
11.611,-0.01541,-0.03677,-0.01373,-0.03845,-0.03052,-0.02899,-0.01343,0.00305,-0.01724,-0.01251,-0.01404,-0.0737,-0.03479,-0.01984,0.0238,-0.03113
11.6115,-0.01801,-0.03448,-0.0267,-0.04456,-0.02914,-0.03098,-0.01007,0.00107,-0.01694,-0.01495,-0.01373,-0.1001,-0.03555,-0.02106,0.01923,-0.03586
11.612,-0.01984,-0.03235,-0.04135,-0.0473,-0.02991,-0.03479,-0.00931,0.00458,-0.0148,-0.01846,-0.01221,-0.09232,-0.03662,-0.0238,0.01465,-0.04089
11.6125,-0.02319,-0.03448,-0.05768,-0.04242,-0.03006,-0.03662,-0.0116,0.00839,-0.01602,-0.02014,-0.01205,-0.07446,-0.03632,-0.02411,0.01022,-0.04456
11.613,-0.02686,-0.03998,-0.07523,-0.03448,-0.03006,-0.04105,-0.01419,0.00702,-0.01999,-0.02213,-0.01282,-0.05127,-0.03494,-0.02258,0.0061,-0.04684
11.6135,-0.02686,-0.04593,-0.09003,-0.0296,-0.03082,-0.05569,-0.01938,0.0,-0.02518,-0.02304,-0.01404,-0.02991,-0.0351,-0.02258,0.00229,-0.04562
11.614,-0.02106,-0.04745,-0.09506,-0.03021,-0.03067,-0.07828,-0.02594,-0.01175,-0.02975,-0.02304,-0.01389,-0.03311,-0.03693,-0.02365,0.00198,-0.04379
11.6145,-0.01068,-0.04318,-0.08698,-0.03403,-0.02838,-0.10132,-0.03876,-0.02045,-0.03235,-0.02335,-0.01434,-0.06226,-0.03693,-0.02457,0.00687,-0.04181
11.615,-0.00076,-0.03632,-0.06577,-0.04028,-0.02502,-0.10956,-0.04791,-0.0209,-0.03357,-0.0264,-0.01495,-0.08484,-0.03662,-0.02533,0.0116,-0.04089
11.6155,0.00443,-0.03067,-0.0412,-0.04761,-0.02289,-0.0975,-0.04898,-0.01572,-0.03433,-0.03082,-0.01511,-0.06241,-0.03738,-0.02579,0.01266,-0.04074
11.616,0.00443,-0.02502,-0.01984,-0.05264,-0.02365,-0.07248,-0.04425,-0.01099,-0.03601,-0.03464,-0.01328,0.01495,-0.03891,-0.02609,0.0116,-0.04105
11.6165,0.00412,-0.02136,-0.00473,-0.0502,-0.02365,-0.04593,-0.04196,-0.00992,-0.03372,-0.03555,-0.01343,0.10681,-0.03967,-0.02655,0.01312,-0.04074
11.617,0.0058,-0.0206,0.00107,-0.03952,-0.0235,-0.01755,-0.03586,-0.01068,-0.02457,-0.03433,-0.01465,0.14877,-0.03922,-0.02579,0.01633,-0.04089
11.6175,0.00961,-0.02365,0.00107,-0.02563,-0.02396,0.01266,-0.01556,-0.00977,-0.01099,-0.03296,-0.01511,0.1207,-0.03799,-0.02502,0.01801,-0.0415
11.618,0.01297,-0.02914,-0.00458,-0.01831,-0.02518,0.03525,0.02106,-0.00778,-0.00046,-0.03128,-0.01556,0.07385,-0.03922,-0.02518,0.01678,-0.04288
11.6185,0.01602,-0.03433,-0.01938,-0.02533,-0.02579,0.03677,0.05173,-0.0061,0.00504,-0.03113,-0.01587,0.04456,-0.04105,-0.02655,0.01389,-0.0444
11.619,0.01694,-0.0354,-0.04074,-0.04868,-0.02594,0.02121,0.05096,-0.00595,0.0087,-0.02991,-0.01633,0.00931,-0.0415,-0.02808,0.01007,-0.04593
11.6195,0.01465,-0.0296,-0.0592,-0.07492,-0.02716,0.0,0.02182,-0.00412,0.01205,-0.02884,-0.01541,-0.05005,-0.04013,-0.02884,0.009,-0.04623
11.62,0.00977,-0.02258,-0.06943,-0.08133,-0.02792,-0.04211,0.0,0.00061,0.01373,-0.02609,-0.01343,-0.09964,-0.03937,-0.02777,0.01053,-0.04562
11.6205,0.0058,-0.01968,-0.07294,-0.06256,-0.02884,-0.11673,-0.00153,0.00458,0.01328,-0.02441,-0.01343,-0.10361,-0.03937,-0.02625,0.01236,-0.04349
11.621,0.00214,-0.02487,-0.07294,-0.03662,-0.03143,-0.18814,0.00366,0.00534,0.009,-0.0235,-0.01556,-0.07965,-0.04059,-0.02426,0.01404,-0.0415
11.6215,-0.00366,-0.03433,-0.07172,-0.02548,-0.03235,-0.19104,0.0,0.00275,0.00076,-0.02258,-0.01602,-0.07294,-0.0412,-0.02243,0.01526,-0.03906
11.622,-0.0148,-0.04272,-0.06973,-0.03006,-0.03036,-0.11429,-0.00824,-0.00015,-0.00946,-0.0206,-0.01511,-0.09583,-0.03998,-0.02182,0.01617,-0.03738
11.6225,-0.0235,-0.04868,-0.0679,-0.0351,-0.0264,-0.0264,-0.00977,-0.00244,-0.01724,-0.01923,-0.01343,-0.10956,-0.03876,-0.02243,0.01816,-0.03601
11.623,-0.02335,-0.05371,-0.06805,-0.03479,-0.02335,0.01175,-0.00626,-0.0029,-0.01816,-0.01938,-0.01221,-0.07355,-0.03922,-0.02411,0.01923,-0.03662
11.6235,-0.01297,-0.0589,-0.07217,-0.03708,-0.0235,0.00259,-0.00336,-0.00168,-0.01465,-0.01877,-0.01251,-0.00381,-0.03967,-0.02441,0.01801,-0.03723
11.624,-0.00046,-0.06317,-0.0737,-0.04715,-0.02579,-0.02411,-0.00275,0.00214,-0.01236,-0.01663,-0.01312,0.03845,-0.04089,-0.02365,0.01602,-0.03799
11.6245,0.00671,-0.06683,-0.06622,-0.05829,-0.02655,-0.04883,-0.00656,0.00443,-0.01205,-0.01343,-0.01205,0.01404,-0.03952,-0.02228,0.01511,-0.03922
11.625,0.01022,-0.06973,-0.04974,-0.06439,-0.0267,-0.06668,-0.00961,0.00366,-0.01404,-0.01068,-0.01038,-0.05112,-0.03677,-0.02075,0.01495,-0.03937
11.6255,0.01129,-0.07065,-0.02914,-0.06409,-0.02655,-0.06149,-0.01373,0.00015,-0.01709,-0.009,-0.01022,-0.10559,-0.03601,-0.01953,0.01648,-0.04044
11.626,0.01129,-0.06653,-0.00763,-0.056,-0.02716,-0.02838,-0.01953,-0.00305,-0.02197,-0.00946,-0.01297,-0.1355,-0.03754,-0.01816,0.0145,-0.04135
11.6265,0.0116,-0.05829,0.01648,-0.0473,-0.02457,0.00732,-0.02197,-0.00534,-0.02731,-0.01053,-0.01389,-0.15045,-0.0386,-0.0174,0.01175,-0.04196
11.627,0.01297,-0.04959,0.03769,-0.04791,-0.02045,0.01236,-0.02411,-0.00778,-0.03067,-0.01175,-0.01389,-0.12573,-0.03723,-0.01709,0.01083,-0.04242
11.6275,0.01526,-0.04578,0.04059,-0.05646,-0.01678,-0.00839,-0.02701,-0.00839,-0.03265,-0.0119,-0.01205,-0.02884,-0.03571,-0.01862,0.01328,-0.04074
11.628,0.01602,-0.04547,0.02701,-0.05737,-0.01816,-0.01968,-0.03418,-0.00854,-0.03586,-0.0119,-0.01083,0.08942,-0.03632,-0.01968,0.01755,-0.03815
11.6285,0.01404,-0.04593,0.01648,-0.04288,-0.02106,-0.00443,-0.04684,-0.00824,-0.03647,-0.01236,-0.01129,0.12085,-0.03723,-0.01923,0.01999,-0.03586
11.629,0.01068,-0.04242,0.01984,-0.02533,-0.02487,0.0206,-0.06073,-0.01022,-0.03265,-0.01373,-0.01328,0.02747,-0.03815,-0.01892,0.02106,-0.03632
11.6295,0.00748,-0.03616,0.02594,-0.01556,-0.0264,0.03555,-0.06439,-0.01266,-0.02686,-0.01236,-0.01556,-0.10315,-0.03708,-0.01846,0.02121,-0.0354
11.63,0.00443,-0.03143,0.01617,-0.01251,-0.02579,0.0325,-0.05585,-0.01343,-0.02213,-0.01114,-0.01617,-0.15564,-0.03555,-0.01709,0.02197,-0.0322
11.6305,0.00351,-0.03052,-0.00732,-0.00641,-0.02518,0.00412,-0.04089,-0.01205,-0.01938,-0.01114,-0.01724,-0.09018,-0.03433,-0.01648,0.02228,-0.02838
11.631,0.00595,-0.03372,-0.02594,0.0029,-0.0267,-0.05737,-0.02884,-0.00824,-0.0177,-0.01221,-0.01709,0.04089,-0.03281,-0.01648,0.02167,-0.02853
11.6315,0.00748,-0.03662,-0.03342,0.00671,-0.02823,-0.13992,-0.0148,-0.00732,-0.0174,-0.01465,-0.01663,0.15747,-0.0322,-0.01633,0.01877,-0.03189
11.632,0.0,-0.03723,-0.0354,0.00259,-0.0296,-0.1973,0.01038,-0.00839,-0.0177,-0.01709,-0.01556,0.20889,-0.03448,-0.01694,0.01495,-0.03647
11.6325,-0.01587,-0.03693,-0.0383,-0.00443,-0.02838,-0.18799,0.04471,-0.00824,-0.01953,-0.01724,-0.01541,0.19409,-0.03708,-0.01709,0.00992,-0.04105
11.633,-0.03006,-0.03662,-0.04211,-0.00916,-0.0264,-0.12329,0.05829,-0.00488,-0.02014,-0.0177,-0.01495,0.14572,-0.03738,-0.01633,0.00687,-0.0444
11.6335,-0.03403,-0.03571,-0.04425,-0.01068,-0.02457,-0.05814,0.03174,-0.00229,-0.01892,-0.01801,-0.01511,0.08835,-0.0354,-0.01633,0.00397,-0.047
11.634,-0.02701,-0.03448,-0.04669,-0.00885,-0.02274,-0.03586,-0.01678,-0.00305,-0.01465,-0.01907,-0.01663,0.02365,-0.03265,-0.01602,0.00427,-0.04669
11.6345,-0.01816,-0.0351,-0.04913,-0.0061,-0.02289,-0.04547,-0.05264,-0.00534,-0.01038,-0.02274,-0.01907,-0.03922,-0.03143,-0.01572,0.0058,-0.04562
11.635,-0.01495,-0.03983,-0.05203,-0.00412,-0.02319,-0.05615,-0.06653,-0.00656,-0.01068,-0.0264,-0.02136,-0.05783,-0.03204,-0.01419,0.00687,-0.04349
11.6355,-0.01862,-0.04364,-0.05402,-0.00626,-0.02548,-0.05432,-0.07736,-0.00626,-0.0145,-0.02991,-0.02121,0.00504,-0.03265,-0.01389,0.0061,-0.04395
11.636,-0.02319,-0.0444,-0.0528,-0.01114,-0.02594,-0.04822,-0.09354,-0.00504,-0.0174,-0.03113,-0.01877,0.12558,-0.03235,-0.01541,0.00351,-0.04562
11.6365,-0.02411,-0.04379,-0.04913,-0.01587,-0.02655,-0.04623,-0.10483,-0.00214,-0.01511,-0.03052,-0.01556,0.22919,-0.03143,-0.01587,0.00351,-0.04547
11.637,-0.0209,-0.04471,-0.04654,-0.0206,-0.02686,-0.04807,-0.09613,0.00183,-0.00946,-0.02853,-0.01434,0.26566,-0.03098,-0.01587,0.00488,-0.04456
11.6375,-0.01434,-0.04562,-0.04608,-0.02365,-0.0293,-0.05066,-0.06088,0.00534,-0.0061,-0.02548,-0.0145,0.242,-0.03021,-0.01633,0.00626,-0.04501
11.638,-0.00397,-0.04578,-0.04669,-0.02197,-0.03448,-0.056,-0.00259,0.00793,-0.00702,-0.02151,-0.0145,0.18402,-0.03067,-0.01678,0.0061,-0.04623
11.6385,0.00641,-0.04517,-0.04608,-0.0177,-0.03845,-0.06363,0.06592,0.00763,-0.0116,-0.01831,-0.01404,0.09567,-0.03113,-0.0174,0.00427,-0.04791
11.639,0.01358,-0.0444,-0.04532,-0.01923,-0.04379,-0.07095,0.11368,0.00397,-0.01572,-0.0174,-0.01465,-0.01617,-0.03174,-0.01907,0.00397,-0.04745
11.6395,0.01587,-0.04669,-0.04791,-0.02289,-0.04639,-0.07492,0.12238,-0.00015,-0.01648,-0.01785,-0.0177,-0.10834,-0.03326,-0.01984,0.00397,-0.04456
11.64,0.01678,-0.0528,-0.0528,-0.01999,-0.04807,-0.07355,0.09735,-0.00031,-0.01511,-0.01678,-0.01678,-0.1265,-0.03296,-0.02106,0.00671,-0.04242
11.6405,0.01694,-0.06088,-0.05753,-0.01678,-0.04684,-0.06638,0.06256,0.00137,-0.01297,-0.01694,-0.01465,-0.0676,-0.03204,-0.02075,0.00763,-0.0412
11.641,0.01404,-0.06714,-0.06088,-0.02502,-0.04196,-0.04807,0.03326,0.00259,-0.01221,-0.01648,-0.01312,0.00778,-0.03189,-0.02014,0.00641,-0.03922
11.6415,0.01266,-0.07004,-0.06149,-0.0412,-0.03647,-0.01953,0.01297,0.00137,-0.01236,-0.01892,-0.01358,0.04822,-0.03372,-0.02075,0.00534,-0.03937
11.642,0.01297,-0.07187,-0.0618,-0.04715,-0.03342,0.00168,-0.00351,0.00031,-0.01144,-0.02075,-0.01541,0.06622,-0.03647,-0.02167,0.0058,-0.03998
11.6425,0.01572,-0.07233,-0.06027,-0.03769,-0.03189,0.00214,-0.01602,-0.00031,-0.01038,-0.02228,-0.01678,0.08743,-0.03723,-0.02136,0.00687,-0.03983
11.643,0.01297,-0.07141,-0.05707,-0.02533,-0.03098,-0.0116,-0.02457,0.00137,-0.00961,-0.02365,-0.0174,0.08759,-0.03662,-0.0209,0.00763,-0.03998
11.6435,0.00443,-0.06897,-0.05432,-0.01862,-0.03082,-0.02319,-0.02518,0.00229,-0.01053,-0.02594,-0.01709,0.03906,-0.0351,-0.02106,0.00793,-0.03998
11.644,-0.00687,-0.06729,-0.0528,-0.01053,-0.03067,-0.03601,-0.02274,0.00107,-0.01236,-0.02594,-0.01633,-0.02991,-0.03372,-0.02213,0.00839,-0.04028
11.6445,-0.01389,-0.06607,-0.05203,0.01236,-0.03067,-0.06058,-0.01404,-0.00214,-0.01343,-0.02487,-0.01556,-0.08041,-0.03387,-0.02213,0.00717,-0.04028
11.645,-0.01434,-0.06409,-0.04791,0.05142,-0.02991,-0.08514,0.00031,-0.00244,-0.01373,-0.02197,-0.0145,-0.12543,-0.03418,-0.02121,0.00641,-0.03952
11.6455,-0.01129,-0.05905,-0.03525,0.0914,-0.02823,-0.08774,0.01099,0.00076,-0.01358,-0.02151,-0.01328,-0.18661,-0.03479,-0.02045,0.00488,-0.03937
11.646,-0.009,-0.04974,-0.01373,0.10223,-0.02518,-0.06516,0.009,0.00153,-0.01343,-0.02182,-0.01419,-0.23636,-0.03479,-0.02106,0.00626,-0.03891
11.6465,-0.00946,-0.03784,0.00595,0.07401,-0.02365,-0.04333,-0.00412,-0.00427,-0.01389,-0.02167,-0.01526,-0.22095,-0.03433,-0.02106,0.0087,-0.03937
11.647,-0.00992,-0.02625,0.01373,0.0264,-0.02625,-0.03845,-0.01602,-0.0119,-0.01434,-0.02167,-0.01419,-0.13412,-0.03372,-0.02197,0.00824,-0.03891
11.6475,-0.01022,-0.01877,0.0029,-0.00488,-0.02975,-0.04074,-0.02167,-0.01419,-0.01419,-0.0206,-0.01266,-0.02777,-0.0322,-0.02075,0.00656,-0.0415
11.648,-0.01053,-0.01617,-0.01556,-0.01404,-0.03159,-0.03204,-0.02274,-0.01022,-0.01389,-0.01846,-0.01175,0.04379,-0.03006,-0.01923,0.00549,-0.0441
11.6485,-0.01129,-0.01694,-0.02838,-0.01541,-0.03098,-0.01602,-0.02441,-0.00488,-0.01297,-0.01801,-0.0116,0.06912,-0.0293,-0.01709,0.00443,-0.0441
11.649,-0.01068,-0.02029,-0.03281,-0.02121,-0.02884,-0.01251,-0.02472,-0.00168,-0.01266,-0.01801,-0.01358,0.07416,-0.03021,-0.01617,0.00275,-0.04288
11.6495,-0.01038,-0.0238,-0.0325,-0.02426,-0.02991,-0.02426,-0.02045,-0.00244,-0.01205,-0.01801,-0.0145,0.08514,-0.0296,-0.01602,0.00076,-0.04532
11.65,-0.01083,-0.02869,-0.03311,-0.01801,-0.02975,-0.03433,-0.01617,-0.00488,-0.0119,-0.0174,-0.01404,0.10529,-0.02838,-0.0174,-0.00198,-0.04776
11.6505,-0.01144,-0.03326,-0.0351,-0.00763,-0.02945,-0.0296,-0.01373,-0.00473,-0.01373,-0.0174,-0.01328,0.11948,-0.02945,-0.01938,-0.00519,-0.0499
11.651,-0.00824,-0.03647,-0.03845,-0.00351,-0.03159,-0.01587,-0.01526,-0.00168,-0.01648,-0.01755,-0.01419,0.11444,-0.03128,-0.02045,-0.00595,-0.04929
11.6515,-0.00168,-0.03845,-0.04074,-0.01038,-0.03357,-0.00778,-0.01785,0.0,-0.0174,-0.01709,-0.01434,0.0856,-0.03235,-0.0209,-0.0032,-0.0473
11.652,0.00305,-0.04013,-0.03952,-0.02686,-0.03403,-0.01068,-0.02411,-0.00153,-0.0177,-0.01587,-0.01358,0.03235,-0.0325,-0.02121,0.00031,-0.04593
11.6525,0.00351,-0.04608,-0.03723,-0.04532,-0.03326,-0.0177,-0.03036,-0.0058,-0.0177,-0.01694,-0.01343,-0.02991,-0.03296,-0.02319,0.00198,-0.04395
11.653,0.00198,-0.0528,-0.03662,-0.05417,-0.03403,-0.02319,-0.03601,-0.01038,-0.01862,-0.01907,-0.01328,-0.06973,-0.03311,-0.02319,0.00336,-0.04166
11.6535,0.00214,-0.05371,-0.04089,-0.04623,-0.03571,-0.02991,-0.03662,-0.01587,-0.01984,-0.02075,-0.01434,-0.06592,-0.03296,-0.02258,0.00519,-0.04089
11.654,0.00076,-0.04807,-0.04379,-0.02808,-0.03662,-0.04456,-0.03738,-0.01984,-0.02075,-0.01892,-0.01343,-0.03998,-0.03235,-0.02243,0.0058,-0.04135
11.6545,-0.00458,-0.03967,-0.04181,-0.0148,-0.03525,-0.07401,-0.03647,-0.01999,-0.02151,-0.01892,-0.01297,-0.02533,-0.03204,-0.02365,0.00473,-0.04272
11.655,-0.01419,-0.03326,-0.0354,-0.0148,-0.03433,-0.11261,-0.03845,-0.01495,-0.02075,-0.01801,-0.01373,-0.01251,-0.03067,-0.0238,0.00397,-0.04425
11.6555,-0.02274,-0.03143,-0.02914,-0.02258,-0.03357,-0.13214,-0.04379,-0.00809,-0.02029,-0.01907,-0.01572,0.02731,-0.02991,-0.02228,0.0032,-0.04608
11.656,-0.02304,-0.0325,-0.02701,-0.03342,-0.03067,-0.1152,-0.04578,-0.00168,-0.02106,-0.01877,-0.01526,0.08179,-0.03082,-0.0206,0.00397,-0.0473
11.6565,-0.01694,-0.03662,-0.02625,-0.0444,-0.02808,-0.07523,-0.04761,0.00015,-0.02228,-0.01938,-0.0145,0.08484,-0.03418,-0.02045,0.00504,-0.04684
11.657,-0.0087,-0.03952,-0.02014,-0.05661,-0.02747,-0.05005,-0.04425,-0.00214,-0.02182,-0.01953,-0.01236,-0.00763,-0.03616,-0.01999,0.0061,-0.04593
11.6575,-0.00427,-0.04303,-0.00977,-0.06317,-0.02716,-0.05417,-0.03769,-0.00671,-0.01968,-0.01907,-0.01205,-0.14801,-0.03464,-0.02014,0.00732,-0.04425
11.658,0.0,-0.04883,0.00015,-0.05295,-0.02762,-0.07385,-0.03143,-0.00961,-0.01862,-0.01755,-0.01068,-0.23361,-0.03159,-0.01999,0.00809,-0.04257
11.6585,0.00519,-0.06195,0.00244,-0.02411,-0.02853,-0.08621,-0.0351,-0.00656,-0.01801,-0.0145,-0.01053,-0.21988,-0.03159,-0.01953,0.00885,-0.04227
11.659,0.00916,-0.07904,-0.00473,0.00534,-0.02838,-0.07629,-0.04105,0.00061,-0.01785,-0.01419,-0.01068,-0.16129,-0.03235,-0.01907,0.00732,-0.04303
11.6595,0.00977,-0.08789,-0.01907,0.02029,-0.02686,-0.04913,-0.03418,0.00687,-0.01678,-0.01495,-0.0119,-0.12253,-0.03189,-0.01877,0.00641,-0.04349
11.66,0.0061,-0.08331,-0.03754,0.01434,-0.02457,-0.02594,-0.01404,0.00916,-0.01572,-0.01648,-0.0116,-0.10483,-0.03235,-0.01877,0.00748,-0.04318
11.6605,0.00046,-0.06897,-0.05371,-0.00366,-0.02441,-0.02228,0.0029,0.00443,-0.01678,-0.01724,-0.01114,-0.06226,-0.03418,-0.0177,0.00885,-0.04181
11.661,-0.00488,-0.05615,-0.06287,-0.02319,-0.02609,-0.03159,0.00381,-0.00412,-0.01892,-0.0174,-0.01144,0.02731,-0.03448,-0.01648,0.0087,-0.04044
11.6615,-0.01053,-0.04684,-0.06226,-0.03967,-0.02945,-0.04196,-0.00443,-0.01038,-0.02014,-0.01816,-0.01297,0.12955,-0.03403,-0.01648,0.00641,-0.04044
11.662,-0.01694,-0.03555,-0.05722,-0.05188,-0.03159,-0.047,-0.00153,-0.01221,-0.01892,-0.01923,-0.01434,0.16174,-0.03479,-0.01755,0.00534,-0.04135
11.6625,-0.02228,-0.02319,-0.04959,-0.05981,-0.03281,-0.04883,0.02762,-0.00946,-0.01541,-0.01968,-0.01572,0.08591,-0.03555,-0.01846,0.00504,-0.04074
11.663,-0.0264,-0.01236,-0.04181,-0.06485,-0.03281,-0.04974,0.06622,-0.00946,-0.01358,-0.01968,-0.01526,-0.03433,-0.0354,-0.01801,0.00519,-0.04074
11.6635,-0.03006,-0.00488,-0.03403,-0.06195,-0.03281,-0.05051,0.07614,-0.01266,-0.01297,-0.01892,-0.01572,-0.08301,-0.03387,-0.01801,0.00473,-0.04074
11.664,-0.03098,-0.00015,-0.03311,-0.05142,-0.0322,-0.05005,0.03891,-0.01617,-0.01343,-0.01984,-0.01556,-0.0209,-0.03235,-0.01755,0.00549,-0.04074
11.6645,-0.03174,0.00076,-0.03632,-0.03586,-0.03326,-0.0473,-0.01923,-0.01602,-0.01266,-0.01984,-0.01419,0.07477,-0.03036,-0.01724,0.00671,-0.04105
11.665,-0.03387,-0.00259,-0.03876,-0.02228,-0.03586,-0.03983,-0.05814,-0.01434,-0.01251,-0.02182,-0.01389,0.12375,-0.03113,-0.01709,0.0061,-0.04303
11.6655,-0.03571,-0.00977,-0.03433,-0.01831,-0.03937,-0.0264,-0.06241,-0.01511,-0.01312,-0.0238,-0.01511,0.12741,-0.03265,-0.01633,0.00473,-0.04471
11.666,-0.03265,-0.01831,-0.02701,-0.02609,-0.04044,-0.01633,-0.03937,-0.01648,-0.01312,-0.02487,-0.01617,0.1239,-0.03326,-0.01617,0.0029,-0.04501
11.6665,-0.01938,-0.02579,-0.02655,-0.03677,-0.04074,-0.02045,-0.00916,-0.01404,-0.0119,-0.02472,-0.01602,0.11734,-0.0354,-0.01694,0.0032,-0.0444
11.667,-0.00076,-0.03128,-0.03464,-0.03815,-0.04074,-0.0296,0.01053,-0.00885,-0.0116,-0.02365,-0.0148,0.08713,-0.03616,-0.01801,0.00244,-0.04623
11.6675,0.01266,-0.03448,-0.0441,-0.02823,-0.03922,-0.03098,0.01328,-0.00488,-0.0116,-0.0235,-0.01404,0.03357,-0.03708,-0.01907,0.00031,-0.04868
11.668,0.01572,-0.03586,-0.04471,-0.01724,-0.03845,-0.01526,0.00992,-0.00443,-0.01221,-0.02396,-0.01236,-0.02991,-0.03693,-0.02014,-0.00153,-0.05096
11.6685,0.01328,-0.03708,-0.03876,-0.01251,-0.03525,0.01251,0.01129,-0.00504,-0.01358,-0.02228,-0.01083,-0.08423,-0.03632,-0.02014,-0.00153,-0.05264
11.669,0.01144,-0.03647,-0.03418,-0.01068,-0.03235,0.04364,0.01389,-0.00168,-0.0145,-0.01938,-0.01251,-0.10406,-0.0354,-0.01968,0.00061,-0.05219
11.6695,0.01511,-0.03159,-0.03403,-0.00809,-0.02762,0.06699,0.00671,0.00427,-0.01602,-0.01892,-0.01373,-0.08667,-0.03403,-0.01846,0.00244,-0.04944
11.67,0.02411,-0.02457,-0.03601,-0.00793,-0.02396,0.06973,-0.00656,0.00793,-0.01709,-0.01724,-0.01373,-0.0705,-0.03296,-0.01648,0.00473,-0.0473
11.6705,0.03525,-0.01892,-0.0354,-0.01221,-0.02502,0.04013,-0.01343,0.00809,-0.01938,-0.01678,-0.01343,-0.08972,-0.03342,-0.01495,0.00671,-0.04776
11.671,0.04471,-0.01816,-0.03601,-0.01678,-0.03036,-0.02441,-0.01099,0.00687,-0.02045,-0.01694,-0.01511,-0.13901,-0.03403,-0.01495,0.00519,-0.04807
11.6715,0.0444,-0.02121,-0.03754,-0.01709,-0.03372,-0.1268,-0.00931,0.00717,-0.02151,-0.01648,-0.01511,-0.19653,-0.03372,-0.01556,0.0029,-0.04883
11.672,0.03494,-0.02472,-0.0383,-0.0148,-0.03647,-0.23972,-0.0116,0.00946,-0.02197,-0.01678,-0.01526,-0.25238,-0.03387,-0.01678,-0.00046,-0.04898
11.6725,0.02213,-0.02655,-0.0351,-0.01572,-0.03906,-0.28641,-0.01648,0.00992,-0.02365,-0.01801,-0.01526,-0.30121,-0.03448,-0.01831,-0.00076,-0.05112
11.673,0.01419,-0.02884,-0.03159,-0.02106,-0.04059,-0.22125,-0.02808,0.00778,-0.02533,-0.01923,-0.01465,-0.31387,-0.03372,-0.01846,0.00092,-0.0531
11.6735,0.01068,-0.03296,-0.03082,-0.02762,-0.03815,-0.09933,-0.05112,0.00549,-0.02625,-0.01953,-0.0145,-0.23193,-0.03265,-0.01801,0.00366,-0.05219
11.674,0.0061,-0.04013,-0.0322,-0.03235,-0.03342,-0.02533,-0.08499,0.00443,-0.02548,-0.01892,-0.01541,-0.03204,-0.03235,-0.01801,0.00717,-0.04761
11.6745,-0.00061,-0.05051,-0.03357,-0.03571,-0.03067,-0.0267,-0.11749,0.00473,-0.02304,-0.01846,-0.01709,0.19867,-0.03113,-0.0177,0.00977,-0.04364
11.675,-0.00519,-0.06088,-0.03464,-0.03799,-0.03006,-0.05402,-0.13611,0.00534,-0.01938,-0.01846,-0.01907,0.31967,-0.03006,-0.01648,0.01053,-0.04135
11.6755,-0.00626,-0.06561,-0.03601,-0.03464,-0.03311,-0.06226,-0.13443,0.00259,-0.01724,-0.01785,-0.01846,0.28763,-0.02945,-0.01602,0.00931,-0.04211
11.676,-0.00671,-0.06363,-0.03693,-0.02518,-0.03357,-0.05722,-0.11597,-0.00504,-0.01663,-0.01694,-0.0177,0.19196,-0.02731,-0.01587,0.00763,-0.04349
11.6765,-0.00641,-0.05783,-0.03754,-0.01648,-0.03433,-0.05569,-0.08484,-0.01572,-0.01724,-0.01709,-0.01709,0.12009,-0.02808,-0.01663,0.00549,-0.04501
11.677,-0.00198,-0.0531,-0.03738,-0.00885,-0.03387,-0.06195,-0.03189,-0.02136,-0.01785,-0.01724,-0.01602,0.07019,-0.02823,-0.01785,0.00565,-0.04791
11.6775,0.00839,-0.05051,-0.03738,0.00351,-0.03494,-0.0679,0.05234,-0.02014,-0.01617,-0.0177,-0.01495,0.01999,-0.02808,-0.01907,0.00427,-0.05035
11.678,0.01892,-0.05219,-0.03784,0.02335,-0.03616,-0.07217,0.13275,-0.01617,-0.0148,-0.01617,-0.01419,-0.00244,-0.02655,-0.0177,0.00244,-0.05066
11.6785,0.02228,-0.05936,-0.03906,0.04135,-0.03952,-0.0705,0.14633,-0.01205,-0.01358,-0.01419,-0.01389,0.03143,-0.02594,-0.01465,0.00046,-0.04929
11.679,0.01694,-0.06683,-0.0383,0.04166,-0.04257,-0.06424,0.08347,-0.00519,-0.01465,-0.01175,-0.01419,0.08209,-0.02533,-0.0148,0.00168,-0.04791
11.6795,0.00839,-0.06897,-0.03754,0.01968,-0.04471,-0.05707,0.00595,0.00183,-0.01556,-0.01251,-0.01465,0.0824,-0.02426,-0.01617,0.00473,-0.04669
11.68,-0.00015,-0.06439,-0.03601,-0.01038,-0.04333,-0.06149,-0.0293,0.00397,-0.01526,-0.01312,-0.01511,0.01984,-0.02365,-0.0177,0.00824,-0.04745
11.6805,-0.00748,-0.05829,-0.03403,-0.02869,-0.04196,-0.07706,-0.02121,-0.00259,-0.01434,-0.01251,-0.01556,-0.06058,-0.02441,-0.01663,0.01022,-0.04837
11.681,-0.01572,-0.05585,-0.03235,-0.03082,-0.0386,-0.08713,0.0032,-0.0116,-0.01343,-0.00992,-0.01495,-0.11353,-0.02518,-0.01556,0.01068,-0.04883
11.6815,-0.02563,-0.05432,-0.02869,-0.02823,-0.03647,-0.0798,0.0238,-0.01266,-0.01343,-0.00946,-0.01465,-0.12726,-0.02594,-0.01511,0.00931,-0.04745
11.682,-0.03632,-0.05264,-0.02472,-0.03159,-0.03525,-0.06149,0.02731,-0.0029,-0.01373,-0.01144,-0.01434,-0.11536,-0.02563,-0.01541,0.009,-0.04532
11.6825,-0.04562,-0.05051,-0.02533,-0.04166,-0.03448,-0.04486,0.01892,0.00519,-0.01297,-0.01297,-0.01343,-0.09903,-0.02426,-0.0148,0.00916,-0.04318
11.683,-0.05264,-0.05035,-0.0325,-0.0563,-0.03342,-0.03754,0.01526,0.00549,-0.01175,-0.01358,-0.01312,-0.08041,-0.02426,-0.0148,0.01129,-0.04211
11.6835,-0.05127,-0.05234,-0.04135,-0.06973,-0.03357,-0.03143,0.02289,0.00183,-0.01144,-0.01419,-0.01434,-0.0473,-0.02762,-0.01617,0.01343,-0.0415
11.684,-0.04105,-0.05417,-0.0473,-0.07736,-0.03326,-0.02045,0.03281,-0.00061,-0.0116,-0.0148,-0.01434,0.00931,-0.0293,-0.0177,0.01343,-0.04196
11.6845,-0.02213,-0.0528,-0.05066,-0.06287,-0.03372,-0.00443,0.0325,-0.00061,-0.01266,-0.01617,-0.01343,0.06516,-0.02853,-0.01694,0.01251,-0.04181
11.685,-0.00259,-0.05081,-0.05234,-0.00549,-0.03159,0.0174,0.0177,0.00076,-0.01389,-0.01648,-0.01251,0.08804,-0.02716,-0.01587,0.01129,-0.0415
11.6855,0.01343,-0.04684,-0.05463,0.08636,-0.02914,0.03036,-0.0061,0.00351,-0.0148,-0.01694,-0.0119,0.08377,-0.02625,-0.01511,0.01053,-0.04211
11.686,0.0235,-0.04395,-0.05325,0.15579,-0.02747,0.01846,-0.03113,0.00763,-0.01587,-0.0174,-0.01144,0.09796,-0.02731,-0.01648,0.00931,-0.04333
11.6865,0.03067,-0.04135,-0.05035,0.14877,-0.02548,-0.01053,-0.04639,0.01205,-0.01556,-0.01755,-0.01282,0.14847,-0.0293,-0.01724,0.00809,-0.04364
11.687,0.03418,-0.04028,-0.04532,0.08011,-0.0264,-0.04257,-0.04745,0.01083,-0.01465,-0.01862,-0.01419,0.18112,-0.02991,-0.01617,0.00854,-0.04242
11.6875,0.02808,-0.04044,-0.03876,0.01144,-0.02838,-0.05722,-0.0351,0.00519,-0.01389,-0.01846,-0.01541,0.13535,-0.02991,-0.01556,0.01053,-0.04074
11.688,0.01221,-0.03937,-0.0325,-0.01801,-0.03021,-0.05829,-0.02533,0.00015,-0.01328,-0.01907,-0.0145,0.02869,-0.02823,-0.01694,0.01114,-0.04028
11.6885,-0.00473,-0.03555,-0.02823,-0.01831,-0.03159,-0.05463,-0.03586,-0.00214,-0.0145,-0.01846,-0.01266,-0.05997,-0.02823,-0.0177,0.0119,-0.04196
11.689,-0.01251,-0.03082,-0.02777,-0.01358,-0.03235,-0.04974,-0.05646,-0.00443,-0.01511,-0.01755,-0.01282,-0.09369,-0.03098,-0.01846,0.01053,-0.04471
11.6895,-0.01312,-0.02701,-0.02991,-0.01389,-0.03387,-0.03891,-0.05402,-0.0119,-0.0148,-0.0177,-0.0148,-0.09842,-0.03204,-0.01801,0.00809,-0.04654
11.69,-0.01389,-0.02731,-0.02899,-0.01633,-0.0354,-0.02457,-0.01831,-0.02167,-0.01312,-0.01846,-0.01572,-0.10056,-0.03143,-0.0174,0.0061,-0.047
11.6905,-0.01678,-0.03128,-0.02548,-0.01419,-0.03464,-0.01633,0.01404,-0.0267,-0.01343,-0.01938,-0.01404,-0.08926,-0.0293,-0.01862,0.00534,-0.04456
11.691,-0.01892,-0.03586,-0.02365,-0.00687,-0.03174,-0.01724,0.00687,-0.02441,-0.01511,-0.01877,-0.01266,-0.05112,-0.02823,-0.02014,0.0058,-0.04272
11.6915,-0.01892,-0.03952,-0.02457,0.00397,-0.03082,-0.02304,-0.02716,-0.01831,-0.01755,-0.01831,-0.01358,-0.0029,-0.02945,-0.02075,0.0061,-0.0415
11.692,-0.01724,-0.03952,-0.02579,0.01068,-0.03036,-0.02792,-0.05096,-0.01205,-0.0177,-0.01816,-0.01495,0.02823,-0.03067,-0.01953,0.00687,-0.04074
11.6925,-0.01282,-0.03754,-0.02777,0.01114,-0.02853,-0.03418,-0.06027,-0.00763,-0.01801,-0.01862,-0.01526,0.03571,-0.03006,-0.01846,0.00809,-0.04013
11.693,-0.00656,-0.03418,-0.03143,0.00641,-0.02823,-0.0412,-0.08255,-0.00671,-0.01755,-0.01831,-0.01495,0.0351,-0.02838,-0.01801,0.00778,-0.0412
11.6935,-0.00229,-0.03204,-0.03372,-0.00092,-0.02777,-0.04562,-0.12222,-0.00809,-0.01678,-0.01846,-0.01572,0.03113,-0.02823,-0.01846,0.00717,-0.04288
11.694,-0.00198,-0.0296,-0.03281,-0.00931,-0.02945,-0.04517,-0.14389,-0.00961,-0.01572,-0.01938,-0.01556,0.00534,-0.03036,-0.02121,0.00534,-0.0444
11.6945,-0.00381,-0.02869,-0.02792,-0.01404,-0.03098,-0.04593,-0.1181,-0.009,-0.01511,-0.01984,-0.01572,-0.05295,-0.03082,-0.02258,0.00351,-0.04349
11.695,-0.00549,-0.02853,-0.02258,-0.01114,-0.03174,-0.04883,-0.05814,-0.00488,-0.01511,-0.01862,-0.01587,-0.11093,-0.03067,-0.02304,0.00275,-0.04211
11.6955,-0.00595,-0.02808,-0.01953,-0.00717,-0.03204,-0.05417,0.00824,-0.00092,-0.01465,-0.01678,-0.01617,-0.11627,-0.02838,-0.02136,0.00427,-0.04105
11.696,-0.00626,-0.03036,-0.01785,-0.00854,-0.03143,-0.05356,0.07019,0.00275,-0.01465,-0.01663,-0.01694,-0.05737,-0.02808,-0.02075,0.00671,-0.04105
11.6965,-0.00916,-0.03479,-0.01968,-0.01099,-0.03036,-0.05569,0.11658,0.0058,-0.0148,-0.01694,-0.0174,0.02045,-0.03021,-0.02243,0.0087,-0.04135
11.697,-0.01297,-0.03845,-0.02167,-0.00488,-0.03082,-0.05356,0.12634,0.0087,-0.01587,-0.01907,-0.01724,0.06882,-0.03021,-0.02335,0.00809,-0.04242
11.6975,-0.01556,-0.0383,-0.02274,0.00916,-0.03098,-0.04517,0.09048,0.00961,-0.01617,-0.01816,-0.01617,0.07919,-0.03113,-0.02365,0.00793,-0.0441
11.698,-0.01587,-0.03555,-0.02548,0.02426,-0.03265,-0.02014,0.03189,0.00931,-0.01526,-0.0177,-0.01587,0.0705,-0.03235,-0.02182,0.00778,-0.04456
11.6985,-0.01465,-0.03448,-0.02853,0.02945,-0.03159,0.02335,-0.0145,0.00824,-0.01495,-0.0177,-0.01633,0.05569,-0.03128,-0.02106,0.00885,-0.04242
11.699,-0.01373,-0.03571,-0.03479,0.02563,-0.03006,0.06363,-0.03677,0.00458,-0.01511,-0.01724,-0.01785,0.04028,-0.03036,-0.02045,0.00961,-0.04028
11.6995,-0.0148,-0.03723,-0.03815,0.01846,-0.02762,0.07019,-0.04196,0.00076,-0.0148,-0.01602,-0.01694,0.03052,-0.03006,-0.01999,0.01007,-0.03937
11.7,-0.01724,-0.03769,-0.03616,0.01099,-0.02563,0.03601,-0.04074,-0.00229,-0.01434,-0.01572,-0.01419,0.0293,-0.03174,-0.01938,0.00961,-0.04059
11.7005,-0.0235,-0.03708,-0.0296,-0.00122,-0.02609,-0.01923,-0.03876,-0.00626,-0.01266,-0.01617,-0.01236,0.03067,-0.03403,-0.01953,0.00748,-0.03952
11.701,-0.03067,-0.0386,-0.0267,-0.02136,-0.02686,-0.08163,-0.0354,-0.01007,-0.01099,-0.01663,-0.01328,0.02777,-0.03403,-0.01984,0.00748,-0.03876
11.7015,-0.0354,-0.0415,-0.02899,-0.04303,-0.0296,-0.14191,-0.03052,-0.01389,-0.00977,-0.01572,-0.0145,0.02258,-0.03174,-0.0206,0.00885,-0.03784
11.702,-0.03571,-0.04333,-0.03204,-0.04776,-0.03128,-0.16678,-0.02167,-0.01617,-0.01144,-0.01617,-0.01633,0.01923,-0.03021,-0.01938,0.01007,-0.0383
11.7025,-0.03448,-0.04379,-0.03418,-0.02777,-0.03113,-0.12695,-0.00412,-0.01556,-0.01251,-0.01663,-0.01816,0.01678,-0.03021,-0.01678,0.01068,-0.03922
11.703,-0.03387,-0.04242,-0.03403,0.00015,-0.03235,-0.06317,0.0235,-0.01221,-0.01312,-0.01633,-0.01862,0.02029,-0.03113,-0.01556,0.00992,-0.03784
11.7035,-0.03128,-0.04211,-0.03494,0.00854,-0.03403,-0.04562,0.04883,-0.00809,-0.01328,-0.01663,-0.0174,0.04227,-0.03128,-0.0177,0.00946,-0.03433
11.704,-0.02411,-0.0412,-0.03708,-0.00641,-0.03265,-0.06592,0.04745,-0.00565,-0.01419,-0.01694,-0.01541,0.08408,-0.03052,-0.02075,0.00946,-0.03128
11.7045,-0.01648,-0.0386,-0.03937,-0.02533,-0.03189,-0.07034,0.01495,-0.00565,-0.01556,-0.0177,-0.01434,0.11398,-0.0296,-0.0209,0.00961,-0.03006
11.705,-0.01175,-0.03616,-0.04242,-0.02869,-0.03098,-0.05188,-0.02197,-0.00702,-0.01572,-0.01862,-0.01419,0.09735,-0.03052,-0.01862,0.00946,-0.03143
11.7055,-0.01038,-0.03632,-0.04425,-0.01709,-0.03204,-0.06424,-0.0354,-0.00793,-0.0148,-0.0206,-0.01434,0.04105,-0.03128,-0.01602,0.00931,-0.03326
11.706,-0.00854,-0.03952,-0.04791,-0.00381,-0.03357,-0.11124,-0.02899,-0.00793,-0.01328,-0.02182,-0.01404,-0.01709,-0.03372,-0.01572,0.00854,-0.0351
11.7065,-0.00351,-0.0415,-0.05142,0.00122,-0.0351,-0.1297,-0.02167,-0.00656,-0.01282,-0.02213,-0.01404,-0.05127,-0.03479,-0.01816,0.00931,-0.03754
11.707,0.00275,-0.04211,-0.05341,-0.00244,-0.0354,-0.09033,-0.02106,-0.00305,-0.01465,-0.02182,-0.01526,-0.06317,-0.03586,-0.01999,0.00885,-0.03922
11.7075,0.0061,-0.04288,-0.05188,-0.00977,-0.03464,-0.04791,-0.02029,0.00259,-0.01648,-0.0209,-0.0174,-0.06241,-0.03601,-0.01968,0.0087,-0.04013
11.708,0.00458,-0.04288,-0.04852,-0.01297,-0.03616,-0.06653,-0.01724,0.0116,-0.01678,-0.02151,-0.01785,-0.05493,-0.03616,-0.01892,0.00977,-0.03998
11.7085,0.00092,-0.04105,-0.04486,-0.01022,-0.03983,-0.13077,-0.0177,0.01846,-0.01617,-0.02228,-0.01724,-0.04959,-0.03601,-0.01785,0.01205,-0.03891
11.709,-0.00412,-0.03754,-0.03952,-0.00824,-0.04166,-0.16861,-0.0238,0.0174,-0.01526,-0.0238,-0.01556,-0.05142,-0.03571,-0.0174,0.01343,-0.03815
