time,RectFemL,VastusMedL,VastusLatL,TibAntL,HamMedL,HamLatL,GastroMedL,GastroLatL,RectFemR,VastusMedR,VastusLatR,TibAntR,HamMedR,HamLatR,GastroMedR,GastroLatR
7.6,-0.02213,-0.03494,-0.03464,-0.01434,-0.02899,-0.04898,0.02563,-0.16464,-0.01953,-0.01022,-0.02625,0.01831,-0.03494,-0.10727,0.00214,-0.04623
7.6005,-0.0238,-0.03235,-0.02029,-0.01312,-0.02945,-0.04852,0.02213,-0.14038,-0.02228,-0.01694,-0.02213,0.05646,-0.03235,-0.0882,-0.00198,-0.05096
7.601,-0.02228,-0.02823,-0.01068,-0.01312,-0.03036,-0.04761,0.00763,-0.10696,-0.02304,-0.01801,-0.01678,0.09689,-0.02975,-0.04852,-0.00458,-0.05676
7.6015,-0.02121,-0.02441,-0.01083,-0.01251,-0.03052,-0.04684,0.0,-0.08896,-0.02167,-0.01266,-0.01221,0.11475,-0.02777,-0.01007,-0.00519,-0.05905
7.602,-0.0206,-0.0209,-0.01907,-0.0116,-0.03098,-0.04684,0.00015,-0.08743,-0.01785,-0.00519,-0.01175,0.10483,-0.02457,0.01205,-0.00122,-0.05936
7.6025,-0.0174,-0.01984,-0.03067,-0.01007,-0.03403,-0.04791,-0.00641,-0.09842,-0.01343,-0.00427,-0.01724,0.08057,-0.02563,0.01923,0.00198,-0.05829
7.603,-0.009,-0.0209,-0.04578,-0.00748,-0.03647,-0.04929,-0.0267,-0.11703,-0.00763,-0.01312,-0.02747,0.05096,-0.02686,0.01938,0.00381,-0.0563
7.6035,0.00107,-0.02319,-0.0589,-0.00381,-0.03632,-0.05112,-0.056,-0.13641,-0.0029,-0.02808,-0.04166,0.0119,-0.02823,0.01556,0.00427,-0.05081
7.604,0.00778,-0.02594,-0.06332,-0.0029,-0.03525,-0.05035,-0.08575,-0.14603,0.00229,-0.03967,-0.04776,-0.03296,-0.02945,0.00397,0.0058,-0.0441
7.6045,0.01053,-0.0293,-0.0589,-0.00397,-0.03418,-0.04852,-0.10254,-0.13138,0.00519,-0.03922,-0.03799,-0.07813,-0.0296,-0.01892,0.00824,-0.04074
7.605,0.0119,-0.03281,-0.04959,-0.00412,-0.03265,-0.04761,-0.10071,-0.0795,0.00366,-0.02747,-0.01648,-0.12054,-0.02792,-0.04578,0.01007,-0.04044
7.6055,0.01343,-0.03647,-0.03143,-0.00168,-0.0322,-0.04776,-0.09125,0.00366,-0.00046,-0.01389,0.00381,-0.15762,-0.02777,-0.06256,0.01038,-0.04135
7.606,0.0145,-0.0386,0.00351,-0.00061,-0.03082,-0.04745,-0.09781,0.09506,-0.00275,-0.00549,0.01511,-0.17853,-0.02625,-0.06851,0.01251,-0.04242
7.6065,0.01648,-0.03952,0.04501,-0.00137,-0.03036,-0.0473,-0.11673,0.16891,-0.00412,-0.00351,0.01862,-0.16449,-0.02716,-0.07172,0.01358,-0.04395
7.607,0.01816,-0.03922,0.0647,-0.00061,-0.02991,-0.0473,-0.12451,0.20142,-0.0087,-0.00351,0.01709,-0.10345,-0.03143,-0.06805,0.01572,-0.04593
7.6075,0.02228,-0.03906,0.04333,0.00031,-0.02975,-0.047,-0.12314,0.18234,-0.0174,-0.00732,0.00671,-0.00656,-0.03693,-0.03983,0.01663,-0.04593
7.608,0.02411,-0.03952,0.00336,0.00031,-0.02838,-0.04593,-0.12939,0.12863,-0.02594,-0.01358,-0.01724,0.09079,-0.03983,0.01801,0.01617,-0.04227
7.6085,0.01877,-0.04028,-0.01907,-0.00137,-0.02701,-0.04547,-0.12527,0.0795,-0.02823,-0.01938,-0.04791,0.15533,-0.03891,0.06912,0.01404,-0.0383
7.609,0.00717,-0.03998,-0.01434,-0.00412,-0.02777,-0.04578,-0.06088,0.0679,-0.02457,-0.02121,-0.06927,0.16083,-0.03448,0.06683,0.0116,-0.03815
7.6095,-0.0029,-0.03983,-0.00793,-0.00671,-0.02823,-0.04684,0.07217,0.08789,-0.01846,-0.02197,-0.07217,0.08362,-0.02991,0.0174,0.00931,-0.04349
7.61,-0.00565,-0.03937,-0.01297,-0.00946,-0.02792,-0.04684,0.20828,0.09857,-0.01343,-0.02411,-0.06149,-0.06866,-0.02655,-0.02625,0.00687,-0.05035
7.6105,-0.00259,-0.04211,-0.02243,-0.01144,-0.02731,-0.04578,0.25879,0.06317,-0.01236,-0.02975,-0.04715,-0.21454,-0.02548,-0.03265,0.00473,-0.05402
7.611,0.00015,-0.04471,-0.02609,-0.01358,-0.02731,-0.04578,0.19424,-0.01877,-0.01175,-0.03616,-0.02792,-0.24902,-0.02533,-0.01678,0.00443,-0.05264
7.6115,0.00076,-0.04623,-0.02625,-0.01511,-0.02686,-0.04623,0.07156,-0.10971,-0.00885,-0.03937,-0.00549,-0.1506,-0.02609,-0.00778,0.00748,-0.04654
7.612,-0.00122,-0.04562,-0.02899,-0.01526,-0.02792,-0.04791,-0.02502,-0.1683,-0.00153,-0.03799,0.01434,-0.01724,-0.02426,-0.00992,0.0087,-0.04059
7.6125,-0.00336,-0.04486,-0.03342,-0.01389,-0.02823,-0.04929,-0.05478,-0.17212,0.00595,-0.03433,0.02777,0.05295,-0.02411,-0.01297,0.00916,-0.0383
7.613,-0.00504,-0.04517,-0.03937,-0.01205,-0.02884,-0.0499,-0.04028,-0.12299,0.00687,-0.03174,0.03616,0.06577,-0.02441,-0.01343,0.00763,-0.04044
7.6135,-0.0061,-0.04593,-0.04456,-0.01022,-0.03143,-0.04837,-0.02304,-0.04517,0.00198,-0.03433,0.04257,0.07126,-0.02304,-0.01144,0.00687,-0.04562
7.614,-0.00717,-0.04578,-0.05157,-0.00748,-0.03189,-0.04639,-0.0174,0.01862,-0.00214,-0.03967,0.04715,0.06653,-0.02151,-0.00458,0.00519,-0.0499
7.6145,-0.00809,-0.04547,-0.06256,-0.00443,-0.03098,-0.04562,-0.00427,0.03723,-0.00336,-0.04105,0.04227,0.0267,-0.02289,0.01007,0.00549,-0.05157
7.615,-0.00854,-0.04669,-0.08163,-0.00198,-0.0293,-0.047,0.03067,0.0238,-0.00351,-0.0386,0.02136,-0.01022,-0.0238,0.02075,0.00793,-0.04929
7.6155,-0.00748,-0.04852,-0.10712,-0.00168,-0.02975,-0.04807,0.06653,0.01999,-0.00595,-0.03662,-0.01236,0.01968,-0.02472,0.01694,0.01083,-0.04349
7.616,-0.0061,-0.05203,-0.1236,-0.0029,-0.03372,-0.04852,0.07004,0.04318,-0.00961,-0.04349,-0.04181,0.11154,-0.02487,0.00122,0.01343,-0.03494
7.6165,-0.00717,-0.05417,-0.1207,-0.00443,-0.03571,-0.04807,0.03571,0.06561,-0.01434,-0.05814,-0.04883,0.16388,-0.02411,-0.0145,0.01648,-0.02853
7.617,-0.01099,-0.05539,-0.10178,-0.00427,-0.03555,-0.04868,-0.01709,0.05463,-0.02045,-0.07126,-0.02914,0.08652,-0.02533,-0.02289,0.01923,-0.02579
7.6175,-0.01312,-0.05386,-0.07767,-0.00458,-0.03326,-0.04898,-0.06989,0.01663,-0.02838,-0.07339,0.00397,-0.05951,-0.02747,-0.02411,0.01816,-0.02899
7.618,-0.00977,-0.05173,-0.05798,-0.00565,-0.03113,-0.04837,-0.10834,-0.01434,-0.03586,-0.06378,0.0325,-0.10391,-0.02731,-0.02228,0.01434,-0.03372
7.6185,-0.00565,-0.05081,-0.04059,-0.00534,-0.03113,-0.04745,-0.11765,-0.01785,-0.03754,-0.04883,0.0502,-0.02167,-0.02747,-0.02747,0.01083,-0.03632
7.619,-0.00443,-0.05066,-0.02457,-0.00336,-0.03281,-0.04623,-0.1001,-0.00336,-0.03494,-0.03418,0.0589,0.02838,-0.02716,-0.04059,0.01038,-0.03647
7.6195,-0.00671,-0.0502,-0.00885,-0.00122,-0.03311,-0.04684,-0.08377,0.00916,-0.03448,-0.02106,0.06149,-0.02411,-0.02655,-0.05096,0.01236,-0.03647
7.62,-0.00977,-0.04883,0.00092,-0.00061,-0.03189,-0.04684,-0.08041,0.01266,-0.03769,-0.00702,0.05707,-0.06607,-0.02701,-0.04593,0.01328,-0.03784
7.6205,-0.0116,-0.04669,0.00626,-0.00153,-0.03082,-0.04852,-0.06134,0.01144,-0.04059,0.00076,0.04517,-0.01862,-0.02899,-0.0322,0.01038,-0.04135
7.621,-0.01328,-0.0444,0.00809,-0.00046,-0.03159,-0.05203,0.00259,0.01129,-0.03891,0.00168,0.02914,0.03967,-0.03113,-0.02502,0.00656,-0.04242
7.6215,-0.01389,-0.04257,0.00778,0.00198,-0.03143,-0.05402,0.08865,0.01358,-0.03235,0.00076,0.01205,0.02151,-0.03235,-0.03021,0.00275,-0.04074
7.622,-0.01404,-0.04303,0.00793,0.00549,-0.03189,-0.05219,0.1413,0.01541,-0.02609,0.00702,-0.00351,-0.03265,-0.0354,-0.03632,0.00259,-0.03891
7.6225,-0.01114,-0.04395,0.00092,0.00824,-0.02991,-0.04105,0.13229,0.01785,-0.02167,0.01846,-0.01999,-0.04364,-0.03662,-0.03662,0.00366,-0.03891
7.623,-0.00824,-0.04318,-0.0116,0.00793,-0.02701,-0.01999,0.07828,0.02136,-0.0174,0.02899,-0.03632,-0.00732,-0.03708,-0.03418,0.00351,-0.04257
7.6235,-0.00595,-0.0415,-0.02319,0.00549,-0.02548,0.00076,0.01358,0.0238,-0.01068,0.02853,-0.0528,0.03555,-0.03601,-0.02792,0.00366,-0.04517
7.624,-0.00473,-0.0415,-0.03006,0.0032,-0.02213,0.01205,-0.03677,0.02075,-0.00046,0.02106,-0.0676,0.06592,-0.03387,-0.01373,0.00443,-0.04501
7.6245,-0.00275,-0.0412,-0.0325,0.00168,-0.02106,0.00977,-0.06195,0.01526,0.00885,0.01663,-0.07629,0.07751,-0.03265,0.00687,0.0061,-0.04333
7.625,-0.00076,-0.04059,-0.03326,0.00183,-0.02151,0.00366,-0.06668,0.01007,0.01251,0.01785,-0.07599,0.06516,-0.03143,0.01984,0.00656,-0.0441
7.6255,-0.00107,-0.03998,-0.0351,0.00046,-0.0235,-0.00412,-0.06821,0.00565,0.01205,0.02304,-0.07263,0.03891,-0.03006,0.01358,0.0058,-0.04623
7.626,-0.00488,-0.03952,-0.03479,-0.00336,-0.02625,-0.00641,-0.07111,0.00061,0.01221,0.0235,-0.08377,0.02136,-0.02945,-0.00534,0.00595,-0.04807
7.6265,-0.00992,-0.04013,-0.03571,-0.00595,-0.02945,-0.0116,-0.06882,-0.0087,0.0145,0.01587,-0.11063,0.02686,-0.02747,-0.02655,0.00748,-0.04791
7.627,-0.00946,-0.0415,-0.0383,-0.00732,-0.03479,-0.03052,-0.06165,-0.02197,0.01587,0.00595,-0.1326,0.06042,-0.02655,-0.0473,0.00809,-0.04623
7.6275,-0.00427,-0.04288,-0.04257,-0.00778,-0.04135,-0.08347,-0.05753,-0.03586,0.01465,0.00092,-0.12009,0.09521,-0.02777,-0.06485,0.01007,-0.04456
7.628,0.00046,-0.04318,-0.04639,-0.00641,-0.04608,-0.16205,-0.05157,-0.04456,0.01205,0.00275,-0.0795,0.08102,-0.0296,-0.07095,0.00931,-0.04349
7.6285,0.00092,-0.04395,-0.0473,-0.00504,-0.04654,-0.21042,-0.03677,-0.0383,0.01373,0.00534,-0.03845,-0.01205,-0.03387,-0.06378,0.00778,-0.04379
7.629,-0.00214,-0.04517,-0.04562,-0.0029,-0.04288,-0.18372,-0.02945,-0.01968,0.02182,0.00412,-0.01266,-0.13,-0.03616,-0.05463,0.0058,-0.04578
7.6295,-0.00534,-0.04608,-0.04196,-0.00244,-0.03693,-0.10818,-0.04303,0.00046,0.03693,-0.00198,0.0032,-0.1767,-0.03571,-0.04929,0.00656,-0.04715
7.63,-0.00793,-0.04517,-0.04044,-0.00244,-0.03235,-0.05295,-0.06485,0.01312,0.047,-0.00748,0.01099,-0.1413,-0.03433,-0.03265,0.00748,-0.04684
7.6305,-0.00946,-0.04486,-0.04135,-0.00076,-0.03143,-0.04486,-0.0676,0.01312,0.04166,-0.00763,-0.00122,-0.10864,-0.03113,0.01083,0.00824,-0.04593
7.631,-0.00839,-0.04532,-0.0444,0.00153,-0.03281,-0.05844,-0.03769,0.00458,0.02029,-0.00687,-0.03036,-0.11383,-0.02884,0.06241,0.00793,-0.04349
7.6315,-0.00458,-0.04669,-0.04669,0.00259,-0.03342,-0.06363,0.0264,-0.00458,-0.00687,-0.01007,-0.04745,-0.08118,-0.0267,0.08224,0.00824,-0.04013
7.632,0.00031,-0.04608,-0.04807,0.0029,-0.03143,-0.05447,0.10696,-0.00977,-0.03036,-0.02151,-0.03433,0.03586,-0.02625,0.05814,0.009,-0.0383
7.6325,0.00168,-0.04425,-0.05005,0.00198,-0.02945,-0.04074,0.1619,-0.01022,-0.04837,-0.04059,-0.00168,0.14343,-0.02441,0.01953,0.0087,-0.03922
7.633,-0.00214,-0.04364,-0.05325,-0.00031,-0.02884,-0.02899,0.159,-0.01526,-0.06317,-0.06195,0.03326,0.10971,-0.02274,-0.00366,0.00885,-0.04074
7.6335,-0.00626,-0.04395,-0.05615,-0.00381,-0.02869,-0.02182,0.10376,-0.03006,-0.07492,-0.08194,0.06683,-0.04791,-0.02274,-0.0116,0.01083,-0.03876
7.634,-0.00717,-0.04425,-0.05478,-0.00504,-0.02792,-0.01907,0.03479,-0.04837,-0.08163,-0.09109,0.09583,-0.16693,-0.02533,-0.01907,0.01236,-0.03693
7.6345,-0.00778,-0.04456,-0.05264,-0.00305,-0.02838,-0.02274,-0.00519,-0.05447,-0.07904,-0.08026,0.10666,-0.13809,-0.02884,-0.02975,0.01312,-0.03784
7.635,-0.01144,-0.04456,-0.05142,-0.00061,-0.03265,-0.02548,-0.00565,-0.04517,-0.07004,-0.05386,0.09644,-0.02609,-0.03098,-0.03967,0.01114,-0.03952
7.6355,-0.01633,-0.0444,-0.05325,-0.00046,-0.0354,-0.02609,0.00168,-0.03387,-0.06134,-0.02655,0.07492,0.03876,-0.03067,-0.05219,0.00916,-0.04089
7.636,-0.0177,-0.04303,-0.05646,-0.00092,-0.03662,-0.02777,-0.01556,-0.03479,-0.05661,-0.00778,0.05234,0.03555,-0.03021,-0.07034,0.00793,-0.04181
7.6365,-0.01663,-0.0412,-0.05707,-0.00031,-0.0354,-0.03204,-0.04883,-0.04166,-0.05295,-0.00412,0.03128,0.03342,-0.03113,-0.08499,0.00961,-0.04227
7.637,-0.01404,-0.04135,-0.05188,-0.00076,-0.0354,-0.03525,-0.06821,-0.04333,-0.04883,-0.01114,0.01251,0.06104,-0.03357,-0.08667,0.00809,-0.04303
7.6375,-0.01099,-0.04242,-0.0412,-0.00275,-0.0351,-0.0444,-0.0798,-0.03876,-0.0415,-0.02319,-0.0032,0.07431,-0.03952,-0.08087,0.00732,-0.04425
7.638,-0.00809,-0.04272,-0.0235,-0.00381,-0.03189,-0.05783,-0.11032,-0.02975,-0.03235,-0.0322,-0.01465,0.04135,-0.04684,-0.07706,0.00671,-0.04562
7.6385,-0.00687,-0.04105,-0.00336,0.00168,-0.02701,-0.0856,-0.14771,-0.0119,-0.02213,-0.03326,-0.02747,-0.00183,-0.05402,-0.07538,0.00687,-0.04593
7.639,-0.00885,-0.03845,0.00946,0.00946,-0.02289,-0.11322,-0.15015,0.01648,-0.01266,-0.03174,-0.04929,-0.0058,-0.05737,-0.0563,0.00763,-0.04501
7.6395,-0.01007,-0.03708,0.00854,0.01236,-0.02182,-0.12177,-0.10864,0.03693,-0.00763,-0.03189,-0.07813,0.02625,-0.05493,0.00336,0.00839,-0.04303
7.64,-0.00961,-0.03525,-0.00381,0.00961,-0.02304,-0.10117,-0.04852,0.0354,-0.00732,-0.03616,-0.10132,0.03967,-0.04944,0.09689,0.0087,-0.04089
7.6405,-0.00793,-0.03296,-0.01816,0.0058,-0.02441,-0.06851,0.0119,0.02304,-0.01129,-0.04318,-0.10757,0.00336,-0.04517,0.16525,0.00748,-0.03983
7.641,-0.00702,-0.03082,-0.02716,0.00519,-0.02426,-0.04318,0.06897,0.02625,-0.01312,-0.04715,-0.09644,-0.03906,-0.04074,0.1532,0.00565,-0.04013
7.6415,-0.00809,-0.02945,-0.03204,0.0058,-0.02426,-0.03815,0.10422,0.04837,-0.01175,-0.04288,-0.07629,-0.02838,-0.0351,0.0798,0.00549,-0.04013
7.642,-0.00961,-0.03021,-0.03403,0.0061,-0.02594,-0.03983,0.08942,0.06516,-0.00824,-0.03525,-0.05615,0.01373,-0.02991,0.0206,0.00656,-0.03983
7.6425,-0.00992,-0.03235,-0.03662,0.00381,-0.02869,-0.03799,0.03006,0.0531,-0.00732,-0.02686,-0.0386,0.02533,-0.02823,0.01053,0.00809,-0.03922
7.643,-0.01022,-0.03387,-0.03754,0.00092,-0.0325,-0.03555,-0.01602,0.02533,-0.01053,-0.0209,-0.02762,0.00778,-0.02838,0.0148,0.00824,-0.04059
7.6435,-0.01022,-0.03433,-0.03647,-0.00015,-0.03754,-0.03876,-0.01205,0.00946,-0.01465,-0.0206,-0.02213,0.01953,-0.0293,-0.01053,0.00671,-0.04196
7.644,-0.00992,-0.03662,-0.03433,-0.00031,-0.04318,-0.03708,0.00717,0.02075,-0.01526,-0.0293,-0.01999,0.06104,-0.02869,-0.05844,0.00671,-0.04196
7.6445,-0.009,-0.03922,-0.03342,0.00046,-0.04669,-0.03448,-0.01678,0.04181,-0.00946,-0.03952,-0.0177,0.07156,-0.02808,-0.09537,0.00885,-0.03906
7.645,-0.00565,-0.04044,-0.03464,0.00092,-0.0502,-0.03418,-0.06775,0.04501,-0.00168,-0.04257,-0.01389,0.02899,-0.02838,-0.10803,0.01053,-0.03494
7.6455,-0.00229,-0.03937,-0.03555,0.00046,-0.0531,-0.04303,-0.07385,0.01678,0.00473,-0.03998,-0.01022,-0.01999,-0.03204,-0.10651,0.01114,-0.03296
7.646,0.00061,-0.03998,-0.03525,-0.00015,-0.05173,-0.05173,-0.02182,-0.02945,0.00641,-0.03265,-0.00641,-0.03036,-0.03433,-0.09811,0.00977,-0.03311
7.6465,0.00259,-0.04379,-0.03494,0.0,-0.04593,-0.04944,0.01633,-0.06882,0.00427,-0.02884,-0.00504,0.00214,-0.03448,-0.08102,0.00778,-0.03479
7.647,0.00198,-0.04761,-0.03525,0.00015,-0.03799,-0.03601,-0.009,-0.07736,0.00183,-0.03311,-0.00748,0.05829,-0.03326,-0.05783,0.00687,-0.03891
7.6475,-0.00137,-0.04761,-0.03525,0.0,-0.03204,-0.02731,-0.05188,-0.04929,0.00061,-0.03876,-0.01114,0.09888,-0.03632,-0.03113,0.00641,-0.04303
7.648,-0.00656,-0.04532,-0.03403,-0.00092,-0.03067,-0.03174,-0.03586,-0.00061,0.00244,-0.04318,-0.01541,0.0882,-0.0383,0.00305,0.00427,-0.04471
7.6485,-0.01038,-0.04379,-0.03372,-0.00137,-0.02853,-0.04669,0.04364,0.04242,0.00656,-0.03845,-0.01831,0.04059,-0.03922,0.03876,0.00229,-0.04486
7.649,-0.00885,-0.0444,-0.0383,-0.00214,-0.02563,-0.06714,0.11612,0.06348,0.00961,-0.03128,-0.01755,0.00107,-0.03815,0.05173,0.00198,-0.04547
7.6495,-0.00443,-0.04639,-0.04196,-0.00275,-0.0235,-0.0798,0.11154,0.06134,0.00977,-0.0206,-0.01358,-0.00977,-0.03662,0.03418,0.00397,-0.047
7.65,-0.00107,-0.04547,-0.03967,-0.00351,-0.02029,-0.06516,0.03937,0.0412,0.01007,-0.01373,-0.01205,-0.01556,-0.03586,0.00397,0.00641,-0.04608
7.6505,-0.00031,-0.0412,-0.03235,-0.00366,-0.01907,-0.03067,-0.0293,0.01297,0.00946,-0.00824,-0.01663,-0.03403,-0.03448,-0.01648,0.00809,-0.04288
7.651,-0.00275,-0.03601,-0.02579,-0.00168,-0.01923,-0.00122,-0.0354,-0.01022,0.00534,-0.00488,-0.02396,-0.05661,-0.03204,-0.02304,0.00931,-0.0386
7.6515,-0.00687,-0.03311,-0.02563,0.00305,-0.02167,0.00687,0.00549,-0.01877,-0.0032,0.00031,-0.02777,-0.06607,-0.03143,-0.02396,0.01083,-0.0383
7.652,-0.01236,-0.03235,-0.02869,0.00656,-0.02151,0.00656,0.04211,-0.02304,-0.01495,0.00702,-0.02655,-0.05005,-0.03281,-0.02426,0.01083,-0.04105
7.6525,-0.01602,-0.03387,-0.03067,0.00595,-0.02075,0.01022,0.04776,-0.03769,-0.02548,0.01526,-0.02151,-0.01205,-0.0354,-0.02457,0.00778,-0.04501
7.653,-0.01785,-0.03494,-0.02838,0.00031,-0.0209,0.00504,0.02594,-0.05722,-0.03342,0.01816,-0.01572,0.03006,-0.03647,-0.02472,0.00595,-0.04745
7.6535,-0.01907,-0.03418,-0.02228,-0.00595,-0.02396,-0.01419,-0.01282,-0.06104,-0.03922,0.01587,-0.01404,0.06912,-0.03586,-0.02365,0.00641,-0.04593
7.654,-0.01877,-0.03342,-0.01709,-0.0087,-0.02884,-0.0441,-0.06088,-0.04211,-0.04578,0.009,-0.01511,0.10315,-0.03601,-0.02213,0.0087,-0.04395
7.6545,-0.01663,-0.03235,-0.01556,-0.01083,-0.03387,-0.07568,-0.09827,-0.02106,-0.05508,0.00336,-0.01434,0.103,-0.03525,-0.02396,0.00992,-0.04257
7.655,-0.01434,-0.0322,-0.01816,-0.01328,-0.03922,-0.10696,-0.10345,-0.02075,-0.06393,0.0029,-0.0087,0.05035,-0.03464,-0.02945,0.00946,-0.04318
7.6555,-0.01038,-0.03235,-0.02472,-0.0174,-0.04333,-0.12573,-0.0856,-0.03326,-0.06836,0.00183,-0.00198,-0.02106,-0.03525,-0.03479,0.00885,-0.04379
7.656,-0.00885,-0.03464,-0.03326,-0.01938,-0.04364,-0.12192,-0.07843,-0.0383,-0.06607,-0.00092,0.00183,-0.06836,-0.03708,-0.03601,0.00763,-0.04272
7.6565,-0.01022,-0.03952,-0.04227,-0.02029,-0.03967,-0.10239,-0.08682,-0.03036,-0.06119,-0.01083,0.0032,-0.09094,-0.03586,-0.03113,0.00793,-0.04028
7.657,-0.0116,-0.04639,-0.05035,-0.02228,-0.03311,-0.08606,-0.07431,-0.02502,-0.06119,-0.0235,0.00183,-0.08331,-0.03311,-0.02609,0.00763,-0.0386
7.6575,-0.0058,-0.05219,-0.05814,-0.02869,-0.02655,-0.07935,-0.02182,-0.02899,-0.06683,-0.03525,-0.0061,-0.0116,-0.03052,-0.0267,0.00702,-0.03906
7.658,0.00443,-0.05554,-0.06561,-0.03799,-0.02029,-0.06149,0.03098,-0.03265,-0.06897,-0.04242,-0.02182,0.10269,-0.03128,-0.03281,0.00473,-0.04166
7.6585,0.01282,-0.05707,-0.06805,-0.0473,-0.01434,-0.03067,0.04395,-0.02502,-0.05875,-0.04868,-0.03616,0.16113,-0.03265,-0.04074,0.00427,-0.04486
7.659,0.01343,-0.05814,-0.06241,-0.05371,-0.01038,-0.00809,0.03494,-0.00687,-0.03876,-0.05737,-0.03983,0.10849,-0.03098,-0.04318,0.00473,-0.04761
7.6595,0.0087,-0.06012,-0.05051,-0.05737,-0.00809,-0.00992,0.0415,0.01236,-0.02014,-0.06607,-0.0354,-0.00519,-0.02777,-0.03922,0.00473,-0.04761
7.66,0.00458,-0.06073,-0.03983,-0.05981,-0.0058,-0.02914,0.05035,0.02579,-0.00809,-0.07477,-0.0293,-0.09857,-0.02686,-0.03159,0.00534,-0.04654
7.6605,-0.00031,-0.06027,-0.0351,-0.0618,-0.00397,-0.04242,0.02518,0.03372,-0.00046,-0.07629,-0.02243,-0.12863,-0.02701,-0.02106,0.00443,-0.04562
7.661,-0.00793,-0.05737,-0.03387,-0.06058,-0.00656,-0.04166,-0.0296,0.0415,0.0058,-0.07202,-0.00992,-0.09384,-0.02869,-0.01038,0.00427,-0.04486
7.6615,-0.01633,-0.05219,-0.03387,-0.05661,-0.01602,-0.03677,-0.07843,0.04379,0.00961,-0.06073,0.00931,-0.03357,-0.02869,-0.00198,0.00687,-0.04257
7.662,-0.02029,-0.04654,-0.03479,-0.05203,-0.02914,-0.03967,-0.08942,0.02731,0.00534,-0.05432,0.0267,-0.00473,-0.02838,0.00565,0.01053,-0.04013
7.6625,-0.01862,-0.04181,-0.03616,-0.04929,-0.04074,-0.05219,-0.05295,-0.01129,-0.0058,-0.04715,0.03113,-0.02014,-0.0293,0.02151,0.01266,-0.03937
7.663,-0.0145,-0.04028,-0.03616,-0.04562,-0.04593,-0.05753,0.01923,-0.04379,-0.02045,-0.03693,0.0206,-0.03342,-0.03006,0.04364,0.01221,-0.04044
7.6635,-0.01221,-0.04028,-0.02792,-0.03815,-0.0499,-0.04807,0.0795,-0.0441,-0.02914,-0.02731,0.00641,-0.00809,-0.03067,0.05081,0.01099,-0.04166
7.664,-0.01144,-0.0383,-0.01221,-0.02853,-0.05173,-0.03082,0.07828,-0.01877,-0.02518,-0.01663,-0.00519,0.02304,-0.03296,0.02426,0.00946,-0.04288
7.6645,-0.01129,-0.03342,0.00092,-0.01923,-0.05341,-0.01907,0.02365,0.00381,-0.01389,-0.00458,-0.01877,0.01587,-0.03571,-0.02411,0.00656,-0.04379
7.665,-0.01175,-0.02991,-0.00732,-0.01099,-0.0531,-0.02762,-0.02914,0.01602,-0.00214,0.00549,-0.03632,-0.01755,-0.03784,-0.05875,0.00412,-0.04471
7.6655,-0.01297,-0.03036,-0.03036,-0.00259,-0.04898,-0.04395,-0.0441,0.02808,0.00076,0.01526,-0.05188,-0.02686,-0.03708,-0.05539,0.0058,-0.04395
7.666,-0.01282,-0.0354,-0.04883,0.00519,-0.04486,-0.047,-0.03098,0.03616,-0.00275,0.02701,-0.05737,-0.00656,-0.03296,-0.02274,0.00748,-0.04379
7.6665,-0.01083,-0.04196,-0.05127,0.01312,-0.03967,-0.03082,-0.01221,0.01862,-0.00641,0.04044,-0.05264,0.00031,-0.02899,0.00916,0.00763,-0.04425
7.667,-0.00534,-0.04623,-0.04639,0.02197,-0.03464,-0.02121,-0.00153,-0.02335,-0.0058,0.05173,-0.04379,-0.01419,-0.02594,0.01907,0.00763,-0.04517
7.6675,0.00198,-0.04684,-0.04395,0.03098,-0.03296,-0.0386,-0.00946,-0.05829,-0.00107,0.05356,-0.03571,0.00259,-0.02609,0.00748,0.0087,-0.04257
7.668,0.00885,-0.04379,-0.04257,0.03952,-0.0325,-0.06531,-0.02914,-0.06256,0.00397,0.0386,-0.02975,0.07278,-0.02945,-0.01205,0.01083,-0.03998
7.6685,0.00992,-0.03754,-0.03784,0.04837,-0.0325,-0.06927,-0.03937,-0.04898,0.00565,0.0119,-0.0235,0.11475,-0.0322,-0.03281,0.01038,-0.03922
7.669,0.00534,-0.02991,-0.03067,0.0589,-0.0325,-0.04883,-0.03601,-0.03616,0.00458,-0.01862,-0.01831,0.05127,-0.03403,-0.05707,0.00885,-0.04272
7.6695,0.00015,-0.02228,-0.02472,0.06958,-0.03204,-0.03235,-0.04364,-0.02441,0.00229,-0.02991,-0.01434,-0.06836,-0.03525,-0.08438,0.00748,-0.04593
7.67,-0.00366,-0.0174,-0.02258,0.07492,-0.03403,-0.03723,-0.07141,0.00046,0.00214,-0.02823,-0.01251,-0.11658,-0.03632,-0.09964,0.0061,-0.0473
7.6705,-0.00793,-0.01862,-0.02335,0.0737,-0.03571,-0.05615,-0.09155,0.04639,0.0029,-0.01633,-0.01297,-0.0589,-0.03815,-0.08499,0.00549,-0.04669
7.671,-0.01175,-0.02472,-0.02502,0.06943,-0.03433,-0.07294,-0.09003,0.10193,0.0032,-0.00397,-0.01572,0.00702,-0.03845,-0.04181,0.00748,-0.04456
7.6715,-0.01556,-0.03235,-0.02701,0.065,-0.03052,-0.07294,-0.08484,0.14404,0.00259,-0.00076,-0.01953,0.0061,-0.0386,0.00076,0.01099,-0.04044
7.672,-0.01816,-0.03922,-0.02777,0.06104,-0.02655,-0.05478,-0.08804,0.14923,0.00122,-0.00076,-0.02335,0.00092,-0.03677,0.01297,0.01312,-0.03662
7.6725,-0.01999,-0.04547,-0.02853,0.05844,-0.0235,-0.03937,-0.08698,0.11795,0.0,-0.00397,-0.02472,0.05463,-0.03342,-0.00793,0.01389,-0.03662
7.673,-0.01801,-0.04807,-0.0322,0.056,-0.02213,-0.03845,-0.08286,0.06561,-0.00122,-0.00626,-0.0206,0.08942,-0.03006,-0.04303,0.01312,-0.04028
7.6735,-0.01266,-0.04623,-0.04227,0.05188,-0.01892,-0.04807,-0.0885,0.01144,-0.00366,-0.00519,-0.01129,0.01678,-0.02579,-0.07462,0.0116,-0.04379
7.674,-0.00458,-0.04166,-0.05447,0.04501,-0.01389,-0.06012,-0.09521,-0.04196,-0.00854,-0.00015,0.00092,-0.10712,-0.01907,-0.09293,0.00916,-0.04684
7.6745,0.00015,-0.03723,-0.06424,0.03632,-0.0087,-0.06378,-0.06973,-0.09506,-0.0145,-0.00336,0.00992,-0.15778,-0.01205,-0.09247,0.00702,-0.04929
7.675,-0.00031,-0.03418,-0.06866,0.03021,-0.00793,-0.06561,-0.00244,-0.13901,-0.02121,-0.0058,0.01114,-0.10941,-0.00748,-0.07874,0.00687,-0.04959
7.6755,-0.00168,-0.03128,-0.06805,0.02914,-0.01328,-0.06729,0.0589,-0.15594,-0.0264,-0.00763,0.00458,-0.0322,-0.00748,-0.06836,0.00641,-0.04715
7.676,0.00015,-0.03082,-0.06378,0.03143,-0.0235,-0.06973,0.07019,-0.13138,-0.03128,-0.01175,-0.00122,0.01007,-0.01465,-0.06744,0.00641,-0.04318
7.6765,0.00626,-0.03098,-0.05859,0.03616,-0.03571,-0.0737,0.04349,-0.06485,-0.0351,-0.01892,-0.00229,0.01862,-0.0296,-0.06042,0.00702,-0.0412
7.677,0.01022,-0.03113,-0.05783,0.03815,-0.04684,-0.07629,0.01984,0.01785,-0.03433,-0.01907,-0.00244,0.02747,-0.04562,-0.02686,0.00656,-0.04227
7.6775,0.00992,-0.03036,-0.06851,0.03983,-0.05692,-0.07477,0.01022,0.06973,-0.03006,-0.0148,-0.00595,0.07904,-0.05356,0.03235,0.00595,-0.04272
7.678,0.00534,-0.02884,-0.08743,0.04303,-0.06638,-0.07233,-0.00458,0.05615,-0.02716,-0.01938,-0.01038,0.17899,-0.05173,0.08209,0.00397,-0.04089
7.6785,0.00046,-0.02563,-0.10239,0.04562,-0.07385,-0.06119,-0.03586,-0.00381,-0.02655,-0.0209,-0.01297,0.26001,-0.04639,0.07965,0.00244,-0.03891
7.679,-0.0032,-0.02441,-0.10345,0.04761,-0.07706,-0.03281,-0.07553,-0.05646,-0.02609,-0.0267,-0.00977,0.22278,-0.04272,0.01785,0.00244,-0.03983
7.6795,-0.00565,-0.02899,-0.08682,0.04959,-0.07431,0.00854,-0.11536,-0.05768,-0.02457,-0.0238,-0.0058,0.0531,-0.04227,-0.06042,0.00443,-0.04288
7.68,-0.00717,-0.04074,-0.05524,0.05173,-0.06699,0.04608,-0.14587,-0.01633,-0.02151,-0.0119,-0.00595,-0.13046,-0.04288,-0.10223,0.00519,-0.04532
7.6805,-0.00931,-0.05585,-0.01862,0.05447,-0.05997,0.047,-0.14725,0.03281,-0.02121,-0.00504,-0.00961,-0.1889,-0.04242,-0.08392,0.00565,-0.04684
7.681,-0.01389,-0.0647,0.01129,0.05936,-0.05356,0.00916,-0.08911,0.06302,-0.02365,-0.00366,-0.01328,-0.10895,-0.04059,-0.00946,0.00778,-0.04807
7.6815,-0.02106,-0.06454,0.03281,0.06454,-0.04715,-0.03265,0.03326,0.06073,-0.02731,-0.00275,-0.01511,0.0061,-0.03906,0.08743,0.0087,-0.04898
7.682,-0.02594,-0.05875,0.05249,0.06088,-0.03769,-0.04639,0.15823,0.02808,-0.03189,-0.00397,-0.01526,0.06012,-0.03799,0.14969,0.01053,-0.04761
7.6825,-0.02472,-0.05356,0.07065,0.04028,-0.02853,-0.04135,0.19089,-0.01816,-0.0383,-0.00763,-0.01724,0.04227,-0.03754,0.12939,0.01083,-0.04517
7.683,-0.0209,-0.04852,0.08163,0.00473,-0.0206,-0.04501,0.11337,-0.0531,-0.04364,-0.01266,-0.02274,-0.00183,-0.03448,0.0444,0.01053,-0.0441
7.6835,-0.01648,-0.04211,0.08148,-0.03113,-0.01785,-0.05646,0.01221,-0.05676,-0.04288,-0.0174,-0.03555,-0.03601,-0.03113,-0.02808,0.00961,-0.04349
7.684,-0.01266,-0.03494,0.07111,-0.05264,-0.02014,-0.06393,-0.03098,-0.03387,-0.03387,-0.02365,-0.06027,-0.05188,-0.03098,-0.04028,0.00931,-0.04288
7.6845,-0.00839,-0.0293,0.04883,-0.05371,-0.02594,-0.05737,-0.02014,-0.00443,-0.02167,-0.0351,-0.08972,-0.05249,-0.03265,-0.01587,0.00977,-0.0412
7.685,-0.00854,-0.02594,0.01038,-0.03571,-0.02823,-0.05692,0.00565,0.01114,-0.01144,-0.04364,-0.10162,-0.03342,-0.03296,-0.00351,0.00992,-0.04166
7.6855,-0.01633,-0.02289,-0.04318,0.00107,-0.02914,-0.07492,0.03571,0.0087,-0.00427,-0.05005,-0.07858,0.00427,-0.0325,-0.01602,0.00839,-0.04318
7.686,-0.02869,-0.01663,-0.10101,0.05737,-0.03296,-0.0943,0.06409,-0.00305,-0.00046,-0.04929,-0.03159,0.03143,-0.03571,-0.02945,0.00717,-0.04532
7.6865,-0.03281,-0.0119,-0.14374,0.12131,-0.03677,-0.09171,0.0676,-0.01236,-0.00046,-0.0444,0.01419,0.01709,-0.04242,-0.02441,0.00565,-0.04608
7.687,-0.02319,-0.0145,-0.15686,0.16449,-0.03311,-0.0528,0.04028,-0.01312,-0.0029,-0.03433,0.03952,-0.02274,-0.04852,-0.00916,0.00519,-0.04547
7.6875,-0.00626,-0.02701,-0.14603,0.16037,-0.02258,0.00504,0.00031,-0.00504,-0.00488,-0.02914,0.04501,-0.03952,-0.05142,-0.00366,0.00702,-0.04471
7.688,0.00458,-0.04532,-0.12466,0.11627,-0.01068,0.05997,-0.03601,0.0029,-0.00381,-0.02502,0.03815,-0.01358,-0.0531,-0.01053,0.009,-0.04227
7.6885,0.00443,-0.0589,-0.09979,0.07034,-0.00244,0.08331,-0.06638,0.00229,-0.00229,-0.01801,0.02686,0.01556,-0.05585,-0.02045,0.00931,-0.03922
7.689,0.00061,-0.06104,-0.0618,0.05386,-0.00031,0.07721,-0.08789,-0.00229,0.0,-0.01724,0.01617,0.01007,-0.05646,-0.02579,0.00885,-0.03799
7.6895,0.00153,-0.05478,-0.01022,0.0592,0.00015,0.05905,-0.1033,0.01114,0.00183,-0.01694,0.009,-0.02365,-0.05219,-0.02579,0.00916,-0.03891
7.69,0.00626,-0.04791,0.04349,0.05493,-0.00168,0.0499,-0.11749,0.04456,0.00275,-0.02182,0.00351,-0.05722,-0.04745,-0.02487,0.01038,-0.03983
7.6905,0.01129,-0.04623,0.0882,0.03159,-0.00641,0.05692,-0.1181,0.07095,-0.00015,-0.02274,-0.00137,-0.06897,-0.04608,-0.02213,0.01068,-0.04059
7.691,0.01266,-0.04257,0.11856,0.01221,-0.01114,0.05951,-0.07874,0.06302,-0.00565,-0.02563,-0.00778,-0.04944,-0.04501,-0.01953,0.00839,-0.04135
7.6915,0.01373,-0.03189,0.13184,0.00885,-0.01587,0.02441,-0.01144,0.02548,-0.01068,-0.02533,-0.01266,-0.00641,-0.03799,-0.0148,0.00763,-0.0412
7.692,0.01846,-0.01617,0.12024,-0.00168,-0.02335,-0.07813,0.02335,-0.01343,-0.01511,-0.02731,-0.01419,0.03815,-0.02655,-0.01022,0.00793,-0.04196
7.6925,0.02869,-0.00412,0.08865,-0.03662,-0.03403,-0.23056,0.00031,-0.03769,-0.02014,-0.02731,-0.01419,0.0679,-0.02197,-0.00748,0.00732,-0.04303
7.693,0.03799,-0.00244,0.0528,-0.06088,-0.04166,-0.33463,-0.03342,-0.04974,-0.02457,-0.03448,-0.01495,0.08179,-0.02731,-0.00626,0.00626,-0.04242
7.6935,0.03967,-0.00992,0.02213,-0.01343,-0.04105,-0.28488,-0.02258,-0.05203,-0.02701,-0.03433,-0.01328,0.0827,-0.03586,-0.00626,0.0058,-0.04181
7.694,0.03098,-0.02045,-0.00427,0.11169,-0.03525,-0.10834,0.01999,-0.03983,-0.02853,-0.02991,-0.00748,0.06088,-0.04044,-0.00656,0.00626,-0.04074
7.6945,0.01678,-0.0293,-0.02594,0.22751,-0.03174,0.02869,0.04883,-0.01404,-0.03036,-0.02182,0.00107,0.00549,-0.03876,-0.00916,0.00671,-0.0412
7.695,0.00656,-0.03281,-0.04028,0.22263,-0.03281,0.0148,0.05783,0.02029,-0.03281,-0.01465,0.00778,-0.06226,-0.03601,-0.01312,0.00687,-0.04196
7.6955,0.00305,-0.03189,-0.04425,0.07431,-0.03448,-0.0885,0.08209,0.05386,-0.03403,-0.00961,0.0116,-0.103,-0.0351,-0.02167,0.00702,-0.04227
7.696,0.00046,-0.0296,-0.04456,-0.11505,-0.03418,-0.15961,0.12024,0.07263,-0.03555,-0.00641,0.01099,-0.09003,-0.03754,-0.03098,0.00702,-0.04196
7.6965,-0.00519,-0.02808,-0.04883,-0.2179,-0.03494,-0.16449,0.12054,0.06653,-0.03693,-0.00305,0.00656,-0.04013,-0.04456,-0.03876,0.00687,-0.04044
7.697,-0.01144,-0.02991,-0.05676,-0.20935,-0.03662,-0.1561,0.07324,0.04059,-0.0386,-0.01495,-0.00076,0.00534,-0.05005,-0.04089,0.00717,-0.04044
7.6975,-0.01495,-0.03662,-0.06561,-0.1593,-0.03906,-0.18021,0.05066,0.01007,-0.03983,-0.03189,-0.01038,0.02945,-0.04959,-0.03937,0.00763,-0.04135
7.698,-0.01694,-0.047,-0.07126,-0.13123,-0.04028,-0.2182,0.09048,-0.01648,-0.03876,-0.04639,-0.01968,0.04425,-0.04364,-0.03662,0.00748,-0.04181
7.6985,-0.02197,-0.05737,-0.07538,-0.12482,-0.03876,-0.2272,0.1265,-0.0499,-0.03601,-0.06134,-0.02075,0.05829,-0.03555,-0.04059,0.00763,-0.04196
7.699,-0.0322,-0.065,-0.07309,-0.10147,-0.03571,-0.19348,0.09613,-0.08743,-0.0322,-0.08118,-0.01129,0.05661,-0.03143,-0.04684,0.00839,-0.04166
7.6995,-0.0441,-0.07004,-0.06409,-0.05493,-0.0322,-0.14557,0.0351,-0.1059,-0.02869,-0.10223,0.00366,0.03296,-0.03128,-0.04868,0.00992,-0.04135
7.7,-0.05112,-0.07446,-0.05356,-0.0441,-0.02563,-0.10864,0.00336,-0.08484,-0.02518,-0.10666,0.01328,0.00397,-0.03189,-0.04166,0.01129,-0.04074
7.7005,-0.04791,-0.0766,-0.05264,-0.13702,-0.02167,-0.07065,-0.01038,-0.03342,-0.02289,-0.09003,0.01389,-0.01129,-0.03296,-0.02731,0.0119,-0.04044
7.701,-0.03616,-0.07278,-0.05951,-0.32013,-0.02014,-0.00183,-0.03906,0.01633,-0.02518,-0.06454,0.01053,-0.01236,-0.03586,-0.00931,0.0119,-0.04089
7.7015,-0.02075,-0.06302,-0.06531,-0.50156,-0.0209,0.08133,-0.0705,0.04074,-0.02945,-0.04166,0.00504,-0.00961,-0.0354,0.00809,0.00992,-0.04211
7.702,-0.01068,-0.0528,-0.06439,-0.60226,-0.02151,0.11719,-0.06882,0.03326,-0.03311,-0.0296,-0.00763,-0.01053,-0.02899,0.02243,0.0087,-0.0441
7.7025,-0.01175,-0.04532,-0.05981,-0.61127,-0.02304,0.08102,-0.04272,0.00717,-0.0351,-0.01602,-0.02655,-0.01755,-0.01755,0.03067,0.00671,-0.04547
7.703,-0.01968,-0.0386,-0.05585,-0.53848,-0.02441,0.02029,-0.03036,-0.01953,-0.03387,0.00214,-0.04501,-0.02457,-0.00748,0.03983,0.00671,-0.04547
7.7035,-0.02518,-0.02884,-0.05249,-0.38696,-0.02762,-0.00687,-0.03311,-0.03616,-0.02838,0.0235,-0.05737,-0.02319,-0.00229,0.05402,0.00809,-0.04486
7.704,-0.01953,-0.01678,-0.04364,-0.19928,-0.02975,0.00458,-0.0264,-0.04349,-0.01785,0.03677,-0.06241,-0.01266,0.00031,0.06378,0.00809,-0.04318
7.7045,-0.00244,-0.0058,-0.02991,-0.08011,-0.0293,0.0206,-0.01282,-0.04593,-0.00763,0.04181,-0.06348,-0.00244,0.00488,0.05264,0.0087,-0.0415
7.705,0.0174,-0.00031,-0.01709,-0.09338,-0.02945,0.02319,-0.02365,-0.05035,-0.00168,0.04791,-0.06256,0.00076,0.00931,0.01923,0.009,-0.03967
7.7055,0.03235,-0.0032,-0.0174,-0.18158,-0.03159,0.01358,-0.06332,-0.0589,-0.00061,0.05051,-0.0592,-0.00305,0.00626,-0.02579,0.01022,-0.03983
7.706,0.04105,-0.01114,-0.02899,-0.24094,-0.03525,-0.00412,-0.10345,-0.07462,-0.00137,0.05142,-0.05463,-0.00549,-0.00488,-0.06836,0.00992,-0.03983
7.7065,0.04547,-0.02304,-0.04562,-0.24628,-0.03799,-0.02487,-0.12375,-0.09399,-0.00122,0.04532,-0.04868,-0.00244,-0.01984,-0.09338,0.00946,-0.04257
7.707,0.04288,-0.03555,-0.05829,-0.24384,-0.03876,-0.04288,-0.1355,-0.09491,0.00015,0.03418,-0.04288,0.00443,-0.03265,-0.10223,0.00839,-0.04425
7.7075,0.03113,-0.04562,-0.06439,-0.26688,-0.03891,-0.04761,-0.15762,-0.0499,0.00137,0.02258,-0.0383,0.00961,-0.04196,-0.1152,0.00778,-0.04333
7.708,0.01266,-0.04913,-0.06439,-0.3067,-0.04211,-0.04425,-0.18021,0.03128,0.0032,0.00824,-0.03601,0.00977,-0.04959,-0.14465,0.00839,-0.04257
7.7085,-0.00397,-0.04898,-0.06271,-0.336,-0.04608,-0.03891,-0.17715,0.09293,0.00473,0.00244,-0.03372,0.00687,-0.05188,-0.16815,0.00824,-0.04349
7.709,-0.01343,-0.05295,-0.06485,-0.33173,-0.0499,-0.03067,-0.14297,0.09308,0.00687,0.00534,-0.03052,0.00366,-0.05112,-0.1535,0.00763,-0.04532
7.7095,-0.01511,-0.06561,-0.07233,-0.28122,-0.04837,-0.01602,-0.1004,0.04822,0.00809,0.00885,-0.02487,0.00229,-0.04959,-0.11017,0.00732,-0.04654
7.71,-0.01205,-0.08316,-0.08484,-0.19638,-0.04349,-0.00259,-0.07172,0.00824,0.0087,0.00687,-0.01862,0.00168,-0.04608,-0.07278,0.00702,-0.0441
7.7105,-0.00916,-0.09293,-0.09628,-0.11063,-0.03876,0.00534,-0.06332,0.00229,0.00641,0.00504,-0.01526,0.00244,-0.03723,-0.05707,0.00839,-0.04166
7.711,-0.01022,-0.08682,-0.10483,-0.05615,-0.03494,0.01877,-0.07095,0.01755,0.00061,-0.00183,-0.02121,0.0032,-0.02457,-0.05157,0.00916,-0.04059
7.7115,-0.01312,-0.07111,-0.10696,-0.0589,-0.03143,0.05081,-0.0769,0.02594,-0.00549,-0.01282,-0.0383,0.00443,-0.01343,-0.02625,0.00977,-0.04074
7.712,-0.01419,-0.05783,-0.10345,-0.14236,-0.02762,0.08804,-0.0444,0.0177,-0.00946,-0.01953,-0.05936,0.00488,-0.01114,0.0351,0.00931,-0.03983
7.7125,-0.01175,-0.05096,-0.0914,-0.28946,-0.02228,0.1001,0.04974,0.0087,-0.01083,-0.02457,-0.06714,0.0032,-0.01938,0.09918,0.00824,-0.0386
7.713,-0.00641,-0.04776,-0.07813,-0.42465,-0.01816,0.07904,0.168,0.00946,-0.01221,-0.02655,-0.05386,0.00214,-0.03418,0.10834,0.00824,-0.03799
7.7135,0.00015,-0.04639,-0.06973,-0.46387,-0.01602,0.04517,0.21759,0.01495,-0.01358,-0.03128,-0.02914,0.00305,-0.04868,0.04593,0.00885,-0.03983
7.714,0.00473,-0.04822,-0.06943,-0.37613,-0.01648,0.01297,0.15549,0.01556,-0.01495,-0.03433,-0.00946,0.00412,-0.05966,-0.03006,0.00931,-0.0415
7.7145,0.00473,-0.05157,-0.0708,-0.18372,-0.01801,-0.02487,0.04135,0.00793,-0.01526,-0.03479,0.00565,0.00381,-0.065,-0.05829,0.00946,-0.04211
7.715,0.00061,-0.05341,-0.06775,0.05722,-0.0206,-0.07599,-0.04669,-0.00229,-0.01526,-0.03387,0.01907,0.00229,-0.06439,-0.04105,0.00931,-0.04333
7.7155,-0.00534,-0.05325,-0.05905,0.26779,-0.02258,-0.1384,-0.08865,-0.00916,-0.01755,-0.03372,0.03281,0.00031,-0.05829,-0.02029,0.00824,-0.04303
7.716,-0.01099,-0.05341,-0.04929,0.35172,-0.02396,-0.20966,-0.09445,-0.01068,-0.0209,-0.03067,0.04318,0.00031,-0.04913,-0.01862,0.00854,-0.04211
7.7165,-0.01282,-0.05569,-0.04074,0.2742,-0.02594,-0.28336,-0.06516,-0.0058,-0.02426,-0.0296,0.04837,0.00259,-0.03967,-0.02396,0.009,-0.04013
7.717,-0.01419,-0.06042,-0.03662,0.1297,-0.02655,-0.32211,-0.00961,0.01083,-0.02502,-0.02533,0.04898,0.00412,-0.03479,-0.02228,0.009,-0.03769
7.7175,-0.01678,-0.06409,-0.03311,0.05615,-0.02518,-0.28137,0.04257,0.0325,-0.0235,-0.02487,0.04364,0.00473,-0.03403,-0.01602,0.00809,-0.03845
7.718,-0.02121,-0.06683,-0.02655,0.08118,-0.02151,-0.1767,0.06561,0.04044,-0.01984,-0.01968,0.03525,0.00427,-0.03677,-0.00717,0.00687,-0.0412
7.7185,-0.02625,-0.06805,-0.01785,0.13214,-0.01663,-0.08545,0.05508,0.0238,-0.01221,-0.01694,0.02319,0.00305,-0.03967,0.00809,0.00549,-0.04181
7.719,-0.02686,-0.06699,-0.00626,0.1593,-0.01572,-0.05417,0.01221,-0.00336,0.00122,-0.01968,0.01343,0.0029,-0.0412,0.02884,0.00519,-0.03952
7.7195,-0.02502,-0.06287,-0.00046,0.16937,-0.0145,-0.06485,-0.02899,-0.0174,0.01419,-0.01694,0.01053,0.00473,-0.0383,0.04654,0.00534,-0.03555
7.72,-0.02518,-0.05783,-0.00763,0.16434,-0.00824,-0.07278,-0.01846,-0.01343,0.01495,-0.01373,0.02151,0.00702,-0.03021,0.05432,0.00763,-0.03296
7.7205,-0.02777,-0.05447,-0.02426,0.13596,-0.00214,-0.06882,0.03632,-0.0061,-0.00183,-0.01144,0.04623,0.00977,-0.02014,0.05417,0.01053,-0.03036
7.721,-0.02945,-0.05234,-0.03738,0.10696,-0.00183,-0.06592,0.0705,-0.00626,-0.02594,-0.00977,0.07538,0.01175,-0.01282,0.04868,0.01144,-0.02808
7.7215,-0.02625,-0.04868,-0.04318,0.11322,-0.00854,-0.0679,0.05005,-0.01129,-0.04349,-0.01205,0.09186,0.01328,-0.01266,0.03265,0.01053,-0.02823
7.722,-0.0177,-0.04379,-0.04486,0.1413,-0.01541,-0.06592,0.0087,-0.01343,-0.0528,-0.009,0.08286,0.01236,-0.01724,0.00259,0.00931,-0.03235
7.7225,-0.00916,-0.03845,-0.04684,0.13077,-0.02106,-0.05951,-0.00473,-0.01205,-0.05875,-0.00381,0.047,0.00809,-0.02426,-0.03143,0.00717,-0.03952
7.723,-0.00122,-0.03281,-0.0473,0.06424,-0.02396,-0.05051,0.01892,-0.0087,-0.06668,-0.00412,-0.0032,-0.00076,-0.03265,-0.05493,0.0058,-0.04745
7.7235,0.00824,-0.02792,-0.04562,-0.01328,-0.02426,-0.04654,0.0502,-0.00626,-0.07263,-0.01617,-0.05295,-0.01114,-0.04242,-0.06454,0.0032,-0.05478
7.724,0.02258,-0.02274,-0.04318,-0.05463,-0.02411,-0.04211,0.05295,-0.00519,-0.07172,-0.03387,-0.09506,-0.01968,-0.05112,-0.0621,0.0029,-0.05905
7.7245,0.03632,-0.01785,-0.03967,-0.05707,-0.02609,-0.04654,0.02304,-0.00168,-0.06546,-0.04898,-0.12527,-0.0209,-0.0528,-0.05325,0.00412,-0.05936
7.725,0.04044,-0.01236,-0.02869,-0.03983,-0.02914,-0.06378,-0.01175,0.00229,-0.05753,-0.05463,-0.12955,-0.01266,-0.04562,-0.04501,0.00443,-0.05463
7.7255,0.02823,-0.00732,-0.00687,-0.0174,-0.03082,-0.08133,-0.02914,0.00443,-0.05219,-0.06165,-0.0975,-0.00473,-0.03555,-0.04456,0.00458,-0.04883
7.726,0.00824,-0.00168,0.0177,-0.00381,-0.02808,-0.08102,-0.03311,0.00366,-0.04456,-0.06653,-0.04379,-0.00183,-0.02884,-0.05219,0.00488,-0.04456
7.7265,-0.00519,0.00488,0.03204,0.00397,-0.01907,-0.05646,-0.0325,0.00153,-0.03387,-0.06927,-0.00092,-0.0029,-0.02243,-0.05936,0.00443,-0.04364
7.727,-0.00992,0.00702,0.03052,0.03906,-0.00854,-0.01938,-0.0325,-0.00137,-0.02335,-0.06485,0.01724,-0.0029,-0.01068,-0.06271,0.00473,-0.04349
7.7275,-0.00916,-0.00122,0.01892,0.12299,-0.00153,0.01389,-0.0325,-0.00565,-0.01968,-0.05432,0.01495,0.00046,0.00549,-0.06271,0.00458,-0.0415
7.728,-0.01053,-0.01862,0.00519,0.22171,-0.00305,0.0264,-0.03662,-0.01251,-0.01831,-0.0499,-0.00107,0.00305,0.01434,-0.05981,0.00519,-0.03662
7.7285,-0.01266,-0.03571,-0.00702,0.27557,-0.00916,0.00931,-0.04532,-0.02258,-0.00458,-0.05051,-0.02411,0.00366,0.00916,-0.05402,0.00641,-0.03311
7.729,-0.01205,-0.04379,-0.01221,0.26642,-0.01526,-0.02548,-0.04761,-0.02991,0.0264,-0.0502,-0.04211,0.0029,-0.00031,-0.04425,0.00778,-0.03372
7.7295,-0.01038,-0.04623,-0.00931,0.22171,-0.01801,-0.04196,-0.03387,-0.0264,0.06027,-0.04807,-0.04913,0.00351,-0.0029,-0.02686,0.00885,-0.03799
7.73,-0.00854,-0.04959,-0.00183,0.17181,-0.02258,-0.01022,-0.01312,-0.0148,0.07416,-0.04364,-0.05402,0.0032,-0.00122,0.0029,0.01099,-0.04089
7.7305,-0.00839,-0.05539,-0.00092,0.13336,-0.03494,0.04807,-0.00717,-0.00458,0.0676,-0.03922,-0.06561,0.00183,-0.00473,0.05188,0.01175,-0.0415
7.731,-0.00992,-0.06042,-0.00839,0.11322,-0.05524,0.07874,-0.02075,-0.00061,0.05646,-0.03311,-0.07767,0.0,-0.01038,0.11261,0.0119,-0.04089
7.7315,-0.01129,-0.06119,-0.02228,0.09995,-0.08133,0.04776,-0.03448,-0.00168,0.05173,-0.02502,-0.08102,0.0,-0.01373,0.15503,0.0116,-0.04013
7.732,-0.01053,-0.05997,-0.03784,0.07706,-0.1091,-0.02197,-0.0351,-0.00076,0.05051,-0.0148,-0.07294,0.00046,-0.02197,0.15182,0.01099,-0.03937
7.7325,-0.00854,-0.05905,-0.05035,0.05386,-0.1355,-0.08148,-0.02838,0.00381,0.04318,-0.00793,-0.06149,-0.00153,-0.04532,0.10712,0.00931,-0.0415
7.733,-0.00732,-0.06073,-0.05768,0.06271,-0.15503,-0.10132,-0.02625,0.0087,0.02747,-0.0029,-0.05661,-0.00214,-0.07919,0.04623,0.00702,-0.04562
7.7335,-0.00854,-0.06271,-0.06027,0.10834,-0.16647,-0.09308,-0.02777,0.00992,0.00946,0.00122,-0.06317,-0.00397,-0.10605,-0.01221,0.00595,-0.04761
7.734,-0.01114,-0.06226,-0.05737,0.14832,-0.16708,-0.08682,-0.02991,0.00702,-0.00336,0.00824,-0.07309,-0.00427,-0.11169,-0.06866,0.00519,-0.0499
7.7345,-0.01297,-0.0592,-0.05112,0.13031,-0.15381,-0.1091,-0.03174,0.00244,-0.00793,0.0116,-0.07233,-0.00549,-0.09796,-0.12375,0.00504,-0.05142
7.735,-0.01312,-0.05417,-0.0441,0.05264,-0.12939,-0.13962,-0.03555,-0.00259,-0.00687,0.01617,-0.05219,-0.00565,-0.0769,-0.15793,0.00549,-0.05188
7.7355,-0.01007,-0.04822,-0.0383,-0.03357,-0.09933,-0.14038,-0.03891,-0.00626,-0.00565,0.0206,-0.02151,-0.00473,-0.05707,-0.13733,0.00595,-0.0499
7.736,-0.00671,-0.04166,-0.03128,-0.05661,-0.07095,-0.10086,-0.03815,-0.00748,-0.0087,0.02426,0.00687,-0.00336,-0.04349,-0.06226,0.00641,-0.0444
7.7365,-0.0058,-0.03723,-0.02197,0.04959,-0.04745,-0.0473,-0.03403,-0.00687,-0.01648,0.02792,0.02731,-0.0029,-0.03601,0.01358,0.00748,-0.03815
7.737,-0.0058,-0.03479,-0.01328,0.28671,-0.03021,-0.00336,-0.03113,-0.00519,-0.02594,0.02792,0.04242,-0.00183,-0.03265,0.04196,0.00931,-0.03433
7.7375,-0.00565,-0.03296,-0.0087,0.52734,-0.01785,0.04761,-0.03098,-0.00534,-0.03525,0.02472,0.05051,-0.00092,-0.02975,0.02945,0.0116,-0.03387
7.738,-0.00275,-0.03159,-0.00961,0.58548,-0.00992,0.10529,-0.03082,-0.00641,-0.04089,0.02335,0.05295,-0.00229,-0.02655,0.0116,0.01144,-0.03571
7.7385,0.00259,-0.03006,-0.01556,0.41794,-0.00519,0.13809,-0.03113,-0.0087,-0.04059,0.02106,0.05051,-0.00397,-0.02594,-0.00122,0.00931,-0.03952
7.739,0.00824,-0.03128,-0.02213,0.18616,-0.00336,0.11047,-0.03174,-0.01205,-0.03647,0.02029,0.04562,-0.00519,-0.02945,-0.01114,0.00687,-0.0441
7.7395,0.01114,-0.03418,-0.02426,0.05951,-0.00427,0.0444,-0.03067,-0.01541,-0.03235,0.01511,0.04288,-0.00412,-0.03204,-0.01099,0.00763,-0.04593
7.74,0.01053,-0.03662,-0.01877,0.04745,-0.00656,0.00183,-0.02884,-0.01801,-0.03052,0.00839,0.03632,-0.00214,-0.03159,-0.00122,0.00916,-0.04623
7.7405,0.00641,-0.03784,-0.00977,0.0705,-0.00839,0.00168,-0.02823,-0.02075,-0.02884,-0.00076,0.02701,-0.00122,-0.0293,0.00473,0.0119,-0.04486
7.741,0.00381,-0.03952,-0.00488,0.08591,-0.01068,0.00183,-0.0296,-0.02396,-0.02365,-0.00824,0.01663,-0.00031,-0.0267,-0.009,0.01266,-0.04257
7.7415,0.00336,-0.04211,-0.00702,0.07889,-0.01297,-0.03113,-0.03159,-0.02701,-0.01648,-0.0145,0.009,0.00275,-0.02563,-0.04623,0.01297,-0.04074
7.742,0.00275,-0.04364,-0.01068,0.02411,-0.01556,-0.08224,-0.03098,-0.02518,-0.01007,-0.01709,0.00458,0.00534,-0.02975,-0.09888,0.01251,-0.04272
7.7425,-0.00229,-0.04486,-0.01205,-0.07675,-0.0209,-0.11414,-0.02716,-0.01877,-0.00732,-0.01526,0.00351,0.00397,-0.03891,-0.1442,0.01205,-0.04898
7.743,-0.01434,-0.04364,-0.01129,-0.16663,-0.02548,-0.10574,-0.02274,-0.01266,-0.00534,-0.01038,0.0029,0.00122,-0.04868,-0.16724,0.0116,-0.05493
7.7435,-0.02914,-0.04257,-0.01892,-0.19562,-0.0267,-0.06577,-0.02151,-0.01144,-0.00214,-0.00748,0.00046,-0.00031,-0.05035,-0.17059,0.00961,-0.05783
7.744,-0.04074,-0.04181,-0.03799,-0.17105,-0.02106,-0.01862,-0.02411,-0.01511,-0.00046,-0.00717,-0.0029,0.00031,-0.04379,-0.15396,0.00671,-0.0589
7.7445,-0.04349,-0.04181,-0.06393,-0.12863,-0.01801,0.00305,-0.02701,-0.01953,-0.00092,-0.01083,-0.00732,0.00092,-0.0354,-0.10895,0.00565,-0.05951
7.745,-0.04044,-0.04105,-0.08179,-0.06912,-0.02228,-0.00793,-0.02899,-0.02151,-0.00473,-0.01465,-0.0116,-0.00061,-0.02747,-0.04318,0.00565,-0.06042
7.7455,-0.03372,-0.04059,-0.07767,0.02838,-0.03113,-0.04242,-0.0264,-0.01923,-0.00977,-0.01831,-0.01282,-0.0032,-0.0209,0.00244,0.00504,-0.05997
7.746,-0.02838,-0.0383,-0.05722,0.14771,-0.03799,-0.08591,-0.01938,-0.01328,-0.01541,-0.02228,-0.01144,-0.00443,-0.01678,0.00732,0.00351,-0.05615
7.7465,-0.02228,-0.03479,-0.03769,0.2121,-0.03799,-0.12894,-0.01038,-0.00702,-0.01999,-0.02747,-0.01038,-0.00198,-0.01541,-0.01053,0.00137,-0.04929
7.747,-0.01511,-0.03143,-0.02594,0.15167,-0.03296,-0.16098,-0.00366,-0.00305,-0.02243,-0.03311,-0.02182,0.00198,-0.01617,-0.0209,-0.00076,-0.04486
7.7475,-0.00885,-0.03082,-0.0238,-0.00229,-0.02472,-0.16754,-0.00381,-0.00443,-0.02304,-0.03372,-0.05569,0.00305,-0.01556,-0.02106,-0.00336,-0.0441
7.748,-0.00626,-0.03174,-0.02853,-0.13763,-0.01755,-0.1387,-0.00946,-0.00793,-0.02289,-0.03311,-0.10056,0.00122,-0.01129,-0.02182,-0.00671,-0.04547
7.7485,-0.00473,-0.03128,-0.0412,-0.18692,-0.01282,-0.08713,-0.01373,-0.01099,-0.02304,-0.03128,-0.12115,0.00046,-0.00336,-0.02487,-0.01022,-0.047
7.749,0.00031,-0.02914,-0.05432,-0.18295,-0.00824,-0.03922,-0.01251,-0.01251,-0.02228,-0.0322,-0.09445,0.00183,0.0032,-0.02548,-0.00977,-0.04745
7.7495,0.00687,-0.02869,-0.05997,-0.18829,-0.00763,-0.02411,-0.00931,-0.01297,-0.01999,-0.0351,-0.03891,0.00381,0.00519,-0.0206,-0.00519,-0.04471
7.75,0.01022,-0.03143,-0.056,-0.21988,-0.00519,-0.04044,-0.00824,-0.01297,-0.0177,-0.03891,0.00412,0.00443,0.00015,-0.009,0.0,-0.0412
7.7505,0.00732,-0.03754,-0.04501,-0.25345,-0.0029,-0.06821,-0.01221,-0.01144,-0.01465,-0.05005,0.01617,0.00519,-0.0087,0.01144,0.00427,-0.03815
7.751,0.00198,-0.04532,-0.03067,-0.26672,0.00168,-0.07965,-0.01602,-0.01007,-0.0116,-0.0647,0.009,0.00885,-0.01358,0.03448,0.00702,-0.0386
7.7515,-0.00168,-0.0528,-0.01572,-0.25894,0.00778,-0.07645,-0.01709,-0.00793,-0.00946,-0.08179,0.00809,0.01053,-0.01419,0.0412,0.00931,-0.0412
7.752,-0.00259,-0.05768,-0.00549,-0.23804,0.01068,-0.07416,-0.01602,-0.00641,-0.009,-0.0946,0.02502,0.01053,-0.0145,0.02731,0.01434,-0.04135
7.7525,0.00046,-0.056,-0.0032,-0.20844,0.0087,-0.07889,-0.01556,-0.00473,-0.0058,-0.09995,0.04929,0.00732,-0.01907,0.00763,0.01709,-0.04028
7.753,0.00397,-0.0499,-0.00198,-0.17334,0.00107,-0.07721,-0.01617,-0.00046,0.0,-0.09186,0.06287,0.0058,-0.02319,-0.00137,0.01999,-0.03693
7.7535,0.00748,-0.04318,-0.00305,-0.15305,-0.00839,-0.06149,-0.01724,0.00229,0.00275,-0.07584,0.05844,0.00458,-0.02579,-0.00198,0.02304,-0.03113
7.754,0.00992,-0.03784,-0.01038,-0.17609,-0.02029,-0.04318,-0.01526,0.00397,-0.00168,-0.06348,0.04379,0.00504,-0.02884,-0.00549,0.02579,-0.02502
7.7545,0.01114,-0.03464,-0.02625,-0.24582,-0.0322,-0.03784,-0.01328,0.00519,-0.01266,-0.06683,0.02945,0.00626,-0.0325,-0.0174,0.02747,-0.02075
7.755,0.01404,-0.03387,-0.04349,-0.31586,-0.04089,-0.04318,-0.01114,0.00595,-0.02594,-0.0795,0.01846,0.00748,-0.03418,-0.03662,0.0264,-0.02029
7.7555,0.0177,-0.03403,-0.05081,-0.31845,-0.04684,-0.0502,-0.00916,0.00763,-0.03891,-0.08438,0.00854,0.00626,-0.03296,-0.05753,0.02014,-0.02289
7.756,0.02029,-0.0354,-0.04807,-0.22949,-0.0502,-0.05157,-0.00931,0.0087,-0.05341,-0.06882,-0.00061,0.00259,-0.03067,-0.07309,0.01373,-0.02396
7.7565,0.01923,-0.03693,-0.04303,-0.09598,-0.05127,-0.0528,-0.01022,0.00946,-0.06744,-0.03815,-0.00824,0.0,-0.02548,-0.08087,0.00656,-0.02274
7.757,0.01495,-0.04028,-0.04013,0.01343,-0.05035,-0.05325,-0.01129,0.01099,-0.0769,-0.0148,-0.01404,-0.00015,-0.0177,-0.08804,0.00214,-0.01877
7.7575,0.00992,-0.04333,-0.03998,0.07355,-0.04593,-0.05615,-0.01022,0.01175,-0.07721,-0.00458,-0.02487,0.00076,-0.01328,-0.09857,0.00015,-0.01526
7.758,0.00534,-0.0441,-0.03876,0.08514,-0.03922,-0.06027,-0.00809,0.01129,-0.06744,-0.01099,-0.047,0.00458,-0.01709,-0.09308,0.00519,-0.01236
7.7585,0.00168,-0.04349,-0.03525,0.04593,-0.0322,-0.06393,-0.00641,0.00809,-0.05127,-0.01831,-0.07645,0.00793,-0.02838,-0.03983,0.00854,-0.01236
7.759,-0.00122,-0.04456,-0.03387,-0.0293,-0.02777,-0.06409,-0.00687,0.00504,-0.03677,-0.02014,-0.1004,0.00717,-0.04089,0.05463,0.00671,-0.01572
7.7595,-0.00305,-0.04837,-0.03311,-0.08606,-0.02533,-0.06195,-0.00778,0.00732,-0.02609,-0.0116,-0.1001,0.00458,-0.0502,0.12253,-0.00107,-0.02625
7.76,-0.00427,-0.05417,-0.03281,-0.08499,-0.02487,-0.06027,-0.00809,0.01282,-0.01877,-0.00229,-0.0766,0.00046,-0.05524,0.10254,-0.00626,-0.03906
7.7605,-0.00488,-0.05844,-0.03326,-0.04593,-0.02716,-0.06622,-0.00854,0.01648,-0.01434,0.00595,-0.04822,-0.00107,-0.05402,0.02869,-0.00259,-0.05157
7.761,-0.0029,-0.05951,-0.03387,-0.01663,-0.0296,-0.08011,-0.00992,0.01663,-0.01282,0.01526,-0.02884,-0.00061,-0.04807,0.00046,0.00732,-0.0621
7.7615,0.00122,-0.056,-0.0351,-0.01587,-0.03204,-0.09827,-0.01221,0.01572,-0.01099,0.03174,-0.02121,0.0,-0.0415,0.05692,0.0238,-0.07141
7.762,0.00565,-0.04898,-0.03662,-0.02731,-0.0351,-0.1091,-0.01404,0.01389,-0.00778,0.05386,-0.01663,-0.00015,-0.0383,0.14023,0.04456,-0.08163
7.7625,0.00671,-0.03952,-0.03708,-0.03555,-0.03586,-0.10361,-0.01419,0.01175,-0.00336,0.07172,-0.00885,-0.00031,-0.03799,0.17807,0.0618,-0.08942
7.763,0.00504,-0.02945,-0.03845,-0.03754,-0.03662,-0.08987,-0.01373,0.00778,-0.00107,0.08041,-0.00061,-0.00153,-0.03601,0.15503,0.06271,-0.09491
7.7635,0.00015,-0.02274,-0.03799,-0.0267,-0.03738,-0.07339,-0.01282,0.00137,-0.00366,0.07767,0.00458,-0.00381,-0.03143,0.10086,0.03738,-0.1001
7.764,-0.0032,-0.01877,-0.03738,0.00122,-0.03967,-0.05585,-0.01144,-0.00443,-0.00778,0.07141,0.00061,-0.00549,-0.0293,0.05112,-0.00443,-0.10269
7.7645,-0.00549,-0.01694,-0.03891,0.02716,-0.04333,-0.04395,-0.00946,-0.0061,-0.01038,0.06058,-0.01221,-0.00549,-0.03159,0.01358,-0.04318,-0.10254
7.765,-0.00778,-0.01892,-0.03952,0.01404,-0.04486,-0.03922,-0.00717,-0.0058,-0.00961,0.04944,-0.02686,-0.00244,-0.03616,-0.02487,-0.06454,-0.09766
7.7655,-0.00809,-0.02441,-0.04181,-0.04532,-0.04181,-0.03387,-0.00595,-0.00366,-0.009,0.04013,-0.03662,-0.00046,-0.04074,-0.07568,-0.06668,-0.08728
7.766,-0.009,-0.03052,-0.0441,-0.11108,-0.03845,-0.01999,-0.00366,-0.00259,-0.01038,0.03036,-0.03967,0.00015,-0.04486,-0.12634,-0.05661,-0.07172
7.7665,-0.01068,-0.03754,-0.04578,-0.13672,-0.03662,-0.00168,-0.00107,-0.00366,-0.01343,0.01419,-0.03769,0.00107,-0.04807,-0.16068,-0.03693,-0.05417
7.767,-0.01572,-0.04883,-0.0473,-0.13046,-0.03723,0.00702,0.00107,-0.00595,-0.01602,-0.009,-0.03159,0.00427,-0.04959,-0.17075,-0.01663,-0.04013
7.7675,-0.02243,-0.06516,-0.04898,-0.14038,-0.03647,-0.00168,0.00015,-0.0116,-0.01617,-0.02823,-0.02472,0.00702,-0.047,-0.14862,-0.00473,-0.03082
7.768,-0.02655,-0.08102,-0.04684,-0.20081,-0.03189,-0.01434,-0.00473,-0.02045,-0.01373,-0.03571,-0.01953,0.01007,-0.04074,-0.09628,-0.00336,-0.02274
7.7685,-0.0238,-0.0882,-0.04089,-0.29602,-0.02579,-0.01999,-0.01114,-0.02884,-0.0116,-0.03036,-0.01755,0.01083,-0.03357,-0.03998,-0.00458,-0.0148
7.769,-0.01404,-0.08545,-0.03326,-0.37933,-0.02151,-0.02243,-0.01602,-0.03281,-0.01083,-0.02335,-0.01816,0.01038,-0.02869,-0.00824,-0.00305,-0.00931
7.7695,-0.00153,-0.0769,-0.0264,-0.39581,-0.02151,-0.02792,-0.01801,-0.03235,-0.00809,-0.01877,-0.01892,0.01068,-0.02457,0.00305,0.00198,-0.00748
7.77,0.00381,-0.06607,-0.02014,-0.29846,-0.02335,-0.03433,-0.01602,-0.02869,-0.00351,-0.0148,-0.01953,0.01053,-0.01923,0.01358,0.0058,-0.00656
7.7705,0.00275,-0.05554,-0.02274,-0.06577,-0.02579,-0.03357,-0.01282,-0.02319,-0.00046,-0.0087,-0.01923,0.00931,-0.01587,0.02548,0.00824,-0.00702
7.771,0.00183,-0.04684,-0.03387,0.22415,-0.02884,-0.02411,-0.01053,-0.0174,-0.00076,-0.00076,-0.01785,0.00778,-0.01877,0.02625,0.00992,-0.00839
7.7715,0.0061,-0.03845,-0.047,0.39413,-0.02975,-0.00565,-0.00854,-0.01312,-0.00259,0.00534,-0.01816,0.00458,-0.02686,0.01694,0.01694,-0.01266
7.772,0.01099,-0.0293,-0.05585,0.34454,-0.02899,0.01373,-0.00702,-0.01022,-0.00443,0.00565,-0.02014,0.0029,-0.03311,0.01022,0.02853,-0.01938
7.7725,0.00702,-0.0206,-0.05966,0.18524,-0.02747,0.02487,-0.00641,-0.00992,-0.00504,0.00488,-0.02304,0.00031,-0.03433,0.01114,0.03784,-0.02731
7.773,-0.00473,-0.01343,-0.06592,0.10544,-0.02762,0.01907,-0.00839,-0.00977,-0.00412,0.00305,-0.02472,-0.00107,-0.03281,0.00977,0.03632,-0.03555
7.7735,-0.01389,-0.00702,-0.0708,0.15778,-0.03052,0.00153,-0.01434,-0.0119,-0.0029,0.00244,-0.02411,-0.00366,-0.03174,0.00031,0.02869,-0.03983
7.774,-0.01175,-0.00015,-0.06943,0.24002,-0.03311,-0.01862,-0.02045,-0.01434,-0.00092,-0.00015,-0.02289,-0.00519,-0.03082,-0.0116,0.0235,-0.04059
7.7745,-0.00717,0.00534,-0.06302,0.24124,-0.03418,-0.03586,-0.02243,-0.01495,0.00137,-0.00397,-0.0209,-0.0061,-0.02945,-0.01801,0.02335,-0.0415
7.775,-0.01251,0.00473,-0.05768,0.16235,-0.03281,-0.05142,-0.02151,-0.0119,0.00092,-0.0116,-0.01755,-0.00748,-0.02716,-0.01831,0.02243,-0.03922
7.7755,-0.02609,-0.00198,-0.0563,0.08484,-0.03204,-0.06287,-0.02121,-0.00916,-0.00183,-0.01984,-0.01312,-0.00687,-0.02502,-0.01785,0.01694,-0.03571
7.776,-0.03357,-0.01129,-0.05569,0.0618,-0.03174,-0.07156,-0.02121,-0.00778,-0.0058,-0.02609,-0.00992,-0.00412,-0.02502,-0.01816,0.01282,-0.03128
7.7765,-0.0264,-0.0177,-0.04822,0.07782,-0.03082,-0.08484,-0.02136,-0.00793,-0.00778,-0.02975,-0.00748,-0.00168,-0.02548,-0.01984,0.01022,-0.02975
7.777,-0.01022,-0.01984,-0.0325,0.08316,-0.02838,-0.10056,-0.02106,-0.00809,-0.00793,-0.03036,-0.00732,0.0,-0.02701,-0.02029,0.00854,-0.03235
7.7775,0.00351,-0.02014,-0.01663,0.05402,-0.02899,-0.09964,-0.01984,-0.00854,-0.00824,-0.03128,-0.00854,0.00015,-0.03052,-0.02167,0.00305,-0.0354
7.778,0.00961,-0.02151,-0.00885,0.00717,-0.03204,-0.06485,-0.01801,-0.01083,-0.00961,-0.03403,-0.01022,-0.00031,-0.03418,-0.02289,-0.0061,-0.03769
7.7785,0.01038,-0.02411,-0.01343,-0.02121,-0.03601,-0.00961,-0.01633,-0.01419,-0.01205,-0.04074,-0.01266,-0.00137,-0.03677,-0.02197,-0.01419,-0.03891
7.779,0.00839,-0.02823,-0.02426,-0.01617,-0.03983,0.02151,-0.01465,-0.01617,-0.01434,-0.04623,-0.01297,-0.00031,-0.03754,-0.01892,-0.01694,-0.04089
7.7795,0.0061,-0.03342,-0.0322,0.00412,-0.04135,0.00427,-0.01312,-0.01526,-0.01602,-0.04898,-0.01099,0.00092,-0.03693,-0.01587,-0.0145,-0.04028
7.78,0.00259,-0.03632,-0.03357,0.01678,-0.04242,-0.04379,-0.01175,-0.0116,-0.01526,-0.04669,-0.00961,0.00458,-0.03693,-0.01312,-0.00824,-0.0383
7.7805,0.00275,-0.03586,-0.02869,0.01572,-0.0412,-0.07462,-0.01068,-0.00549,-0.01419,-0.04257,-0.00854,0.00885,-0.03601,-0.00687,0.00153,-0.03738
7.781,0.00656,-0.03235,-0.02609,0.00931,-0.03967,-0.06805,-0.01144,-0.00092,-0.01312,-0.03983,-0.00809,0.00992,-0.03326,0.00214,0.01343,-0.0383
7.7815,0.01541,-0.03021,-0.02609,0.00473,-0.03708,-0.04852,-0.01251,0.00259,-0.01434,-0.03738,-0.00809,0.00748,-0.02853,0.00656,0.02365,-0.04074
7.782,0.02701,-0.0325,-0.02884,0.00473,-0.03571,-0.04303,-0.01389,0.00641,-0.01602,-0.03937,-0.00839,0.00336,-0.02411,-0.00458,0.02396,-0.04211
7.7825,0.03708,-0.03586,-0.03082,0.01068,-0.0351,-0.05051,-0.01434,0.00946,-0.01617,-0.04028,-0.00702,0.00031,-0.0209,-0.03021,0.01404,-0.04013
7.783,0.03784,-0.03464,-0.03357,0.01816,-0.03525,-0.05585,-0.01282,0.00992,-0.01526,-0.03952,-0.00595,0.0,-0.01999,-0.0621,0.00412,-0.04181
7.7835,0.02365,-0.02869,-0.0383,0.01541,-0.03769,-0.05417,-0.0119,0.00946,-0.01633,-0.03952,-0.00748,0.0,-0.01892,-0.09399,0.00183,-0.04578
7.784,0.00092,-0.02594,-0.04364,0.00031,-0.03799,-0.05173,-0.01053,0.01022,-0.0174,-0.04044,-0.00809,0.0,-0.01862,-0.11597,0.00137,-0.05234
7.7845,-0.01648,-0.03098,-0.04791,-0.01999,-0.03799,-0.05035,-0.01144,0.0119,-0.0177,-0.04166,-0.00656,-0.00183,-0.01648,-0.12085,-0.00183,-0.05569
7.785,-0.02396,-0.03952,-0.05249,-0.03464,-0.03952,-0.05051,-0.01404,0.01175,-0.01755,-0.04105,-0.0058,-0.00229,-0.01358,-0.10941,-0.01007,-0.04944
7.7855,-0.02792,-0.04501,-0.05737,-0.03632,-0.03952,-0.05234,-0.01694,0.00946,-0.01694,-0.0386,-0.00641,-0.00198,-0.01175,-0.0882,-0.01434,-0.03525
7.786,-0.03754,-0.04532,-0.06317,-0.0235,-0.03769,-0.05402,-0.02136,0.00671,-0.0174,-0.03662,-0.00793,-0.00244,-0.01526,-0.06516,-0.00854,-0.01907
7.7865,-0.05264,-0.0444,-0.06821,0.00336,-0.03662,-0.05493,-0.02808,0.00488,-0.01816,-0.0351,-0.00793,-0.00397,-0.02747,-0.04501,0.0058,-0.01068
7.787,-0.06409,-0.04837,-0.07416,0.03174,-0.03662,-0.05447,-0.03311,0.00351,-0.01938,-0.0354,-0.00824,-0.00458,-0.04333,-0.03036,0.02487,-0.02045
7.7875,-0.06134,-0.05753,-0.0827,0.04135,-0.03693,-0.05569,-0.03143,0.00336,-0.01968,-0.03494,-0.00732,-0.00229,-0.056,-0.01907,0.03891,-0.05539
7.788,-0.0441,-0.0676,-0.09308,0.02686,-0.03662,-0.05646,-0.02548,0.00473,-0.02045,-0.03357,-0.00671,0.00366,-0.06134,-0.00961,0.04303,-0.11368
7.7885,-0.0174,-0.07782,-0.10437,0.00305,-0.03479,-0.05661,-0.0177,0.00626,-0.02136,-0.03418,-0.00793,0.00854,-0.06058,-0.00519,0.03815,-0.18112
7.789,0.00763,-0.08652,-0.10788,-0.01114,-0.0351,-0.056,-0.0145,0.00793,-0.02136,-0.0351,-0.009,0.01236,-0.05905,-0.0058,0.02487,-0.23636
7.7895,0.02518,-0.09476,-0.08896,-0.01465,-0.03708,-0.05447,-0.01251,0.01114,-0.02014,-0.03555,-0.00854,0.01282,-0.05569,-0.00778,0.00229,-0.27466
7.79,0.0351,-0.09674,-0.03143,-0.01999,-0.03937,-0.05417,-0.01221,0.01358,-0.01785,-0.03281,-0.0058,0.01205,-0.04852,-0.00854,-0.02213,-0.31754
7.7905,0.04059,-0.09018,0.05569,-0.01694,-0.0383,-0.05447,-0.00961,0.0148,-0.01724,-0.02975,-0.00458,0.01129,-0.03662,-0.009,-0.03326,-0.37643
7.791,0.04593,-0.07584,0.11719,0.01968,-0.03403,-0.05371,-0.00931,0.01297,-0.0177,-0.02731,-0.00565,0.00961,-0.02243,-0.01312,-0.03372,-0.4155
7.7915,0.05264,-0.06058,0.09842,0.08972,-0.03067,-0.05234,-0.0087,0.01038,-0.01953,-0.02518,-0.00656,0.00732,-0.00702,-0.01907,-0.047,-0.39047
7.792,0.05768,-0.04974,0.01068,0.13885,-0.03036,-0.05234,-0.00748,0.01038,-0.01907,-0.0235,-0.00565,0.00671,0.00153,-0.02335,-0.08423,-0.32028
7.7925,0.0531,-0.04486,-0.07004,0.12131,-0.03143,-0.05356,-0.00198,0.01129,-0.01801,-0.02045,-0.0058,0.00641,0.00183,-0.02365,-0.11688,-0.26474
7.793,0.03555,-0.04379,-0.08575,0.056,-0.03082,-0.0528,0.00137,0.01099,-0.01785,-0.01892,-0.00702,0.00626,0.00031,-0.02213,-0.11734,-0.22964
7.7935,0.01541,-0.04578,-0.05295,0.0029,-0.03082,-0.05295,0.00137,0.00809,-0.01923,-0.01877,-0.00916,0.00687,0.0058,-0.02014,-0.09308,-0.16144
7.794,0.00366,-0.05249,-0.0238,-0.00443,-0.02853,-0.0528,-0.00336,0.00488,-0.02029,-0.01877,-0.01007,0.00717,0.01526,-0.0148,-0.0705,-0.04883
7.7945,0.00366,-0.06393,-0.01083,0.0177,-0.03021,-0.05325,-0.00671,0.00427,-0.01999,-0.01801,-0.00946,0.00565,0.01953,-0.00504,-0.06058,0.04181
7.795,0.00565,-0.07492,-0.00351,0.04517,-0.0296,-0.05341,-0.00763,0.00412,-0.01846,-0.01617,-0.00793,0.00275,0.01816,0.00397,-0.03555,0.08743
7.7955,0.0032,-0.07843,0.00671,0.0679,-0.02838,-0.05386,-0.00931,0.00458,-0.01892,-0.0145,-0.00702,0.00122,0.01144,0.00732,0.03006,0.15869
7.796,-0.00549,-0.07553,0.01236,0.08667,-0.02686,-0.05356,-0.01663,0.00412,-0.02014,-0.01434,-0.00916,0.00061,0.00214,0.0029,0.12299,0.31342
7.7965,-0.01755,-0.07019,0.00717,0.10208,-0.02594,-0.05463,-0.02396,0.00412,-0.02182,-0.01694,-0.0119,-0.00046,-0.00977,-0.00778,0.18387,0.50049
7.797,-0.03113,-0.06439,-0.00961,0.11871,-0.02396,-0.05386,-0.02502,0.00336,-0.02319,-0.01984,-0.01175,-0.00427,-0.02121,-0.01968,0.18494,0.59875
7.7975,-0.04471,-0.05829,-0.03403,0.14053,-0.02365,-0.05554,-0.01877,0.00229,-0.02365,-0.02121,-0.01144,-0.00763,-0.0296,-0.02762,0.17029,0.53314
7.798,-0.05386,-0.05219,-0.05951,0.16693,-0.0238,-0.05829,-0.01068,0.00153,-0.02243,-0.02213,-0.01266,-0.0119,-0.04166,-0.03082,0.19577,0.32959
7.7985,-0.05463,-0.04868,-0.07767,0.19394,-0.02548,-0.0618,-0.00793,0.00153,-0.02136,-0.02106,-0.01572,-0.01678,-0.05753,-0.02899,0.24139,0.0943
7.799,-0.05081,-0.04822,-0.08423,0.2182,-0.02716,-0.06638,-0.00717,0.00336,-0.02045,-0.01846,-0.01694,-0.0206,-0.06424,-0.02075,0.23483,-0.06485
7.7995,-0.04623,-0.04654,-0.07843,0.23819,-0.02914,-0.0705,-0.00458,0.00397,-0.01892,-0.01587,-0.0148,-0.02243,-0.05615,-0.00702,0.15106,-0.10681
7.8,-0.04181,-0.04181,-0.0621,0.25421,-0.03159,-0.07172,0.00031,0.0029,-0.01816,-0.01465,-0.01068,-0.02197,-0.0502,0.00641,0.04684,-0.08453
7.8005,-0.03143,-0.03616,-0.03479,0.26947,-0.03159,-0.07187,0.00275,0.00061,-0.0177,-0.01541,-0.01068,-0.01953,-0.06409,0.01663,-0.01495,-0.08942
7.801,-0.0177,-0.0322,-0.0029,0.28229,-0.02731,-0.07492,0.00107,-0.00046,-0.01801,-0.01648,-0.01282,-0.01419,-0.0885,0.02487,-0.03113,-0.13977
7.8015,-0.00641,-0.03113,0.02075,0.28702,-0.02258,-0.0824,-0.00198,0.0,-0.01709,-0.0174,-0.01328,-0.00824,-0.09827,0.03235,-0.03662,-0.1564
7.802,-0.00214,-0.03754,0.02838,0.28702,-0.01831,-0.08911,-0.00412,-0.00046,-0.01526,-0.01816,-0.01312,-0.00366,-0.08377,0.03769,-0.05051,-0.07736
7.8025,-0.00259,-0.05127,0.02457,0.29144,-0.01511,-0.0882,-0.00824,-0.00244,-0.01511,-0.02014,-0.01297,-0.00259,-0.06042,0.03448,-0.0592,0.04333
7.803,-0.00534,-0.06592,0.01602,0.30273,-0.01678,-0.07477,-0.01663,-0.00229,-0.01587,-0.02167,-0.01266,-0.00198,-0.05066,0.01938,-0.0444,0.10208
7.8035,-0.00641,-0.07294,0.00427,0.31387,-0.01541,-0.05386,-0.02838,-0.00275,-0.01709,-0.02304,-0.01236,-0.00076,-0.05539,-0.0058,-0.01312,0.0676
7.804,-0.00351,-0.07126,-0.01266,0.3241,-0.01358,-0.03128,-0.03708,-0.0061,-0.01633,-0.02197,-0.0116,-0.00137,-0.05951,-0.03128,0.00763,-0.00153
7.8045,0.00107,-0.06348,-0.0293,0.33691,-0.01144,-0.01022,-0.03922,-0.01129,-0.01495,-0.02029,-0.01236,-0.00275,-0.04807,-0.04456,-0.00534,-0.03677
7.805,0.00381,-0.0531,-0.03738,0.35004,-0.01343,0.01007,-0.03494,-0.01434,-0.01587,-0.01846,-0.01541,-0.00137,-0.02701,-0.04379,-0.03067,-0.01297
7.8055,0.00153,-0.04105,-0.03693,0.3537,-0.02014,0.02045,-0.03036,-0.01297,-0.01633,-0.01801,-0.01755,0.00778,-0.01312,-0.03891,-0.03052,0.03784
7.806,-0.00168,-0.03098,-0.03586,0.34256,-0.02609,0.00839,-0.02655,-0.01022,-0.01617,-0.02029,-0.01862,0.02213,-0.00992,-0.03448,-0.00504,0.05905
7.8065,-0.00183,-0.02533,-0.03693,0.32074,-0.03479,-0.02075,-0.01846,-0.00931,-0.01602,-0.02472,-0.01831,0.03464,-0.00366,-0.02853,0.00366,0.02487
7.807,0.00229,-0.02289,-0.04044,0.29846,-0.04135,-0.04761,0.00092,-0.01038,-0.01587,-0.02716,-0.0174,0.0354,0.01114,-0.01892,-0.01953,-0.0238
7.8075,0.00397,-0.01907,-0.04089,0.28046,-0.04639,-0.06256,0.02777,-0.01221,-0.01541,-0.0264,-0.01648,0.02045,0.0209,-0.01511,-0.04303,-0.03342
7.808,0.00275,-0.01083,-0.03677,0.26932,-0.05325,-0.07111,0.04669,-0.01221,-0.01556,-0.02563,-0.01602,-0.00351,0.01038,-0.02274,-0.02838,-0.00412
7.8085,0.00107,-0.00061,-0.03067,0.25436,-0.05753,-0.07629,0.04623,-0.01053,-0.01556,-0.02472,-0.01617,-0.02563,-0.01846,-0.04227,0.01877,0.01816
7.809,0.00168,0.00763,-0.02884,0.22476,-0.05569,-0.0737,0.0293,-0.00961,-0.01541,-0.02411,-0.01724,-0.03647,-0.04898,-0.06302,0.05844,0.00458
7.8095,0.00168,0.00961,-0.03403,0.18036,-0.04562,-0.06393,0.00549,-0.01007,-0.01434,-0.02213,-0.01572,-0.03357,-0.06973,-0.07492,0.05432,-0.04044
7.81,0.0,0.00519,-0.04318,0.1297,-0.03555,-0.05264,-0.0174,-0.01129,-0.01312,-0.02167,-0.01389,-0.02258,-0.08514,-0.07385,0.00504,-0.10391
7.8105,-0.00183,-0.00443,-0.04807,0.08209,-0.03082,-0.04776,-0.03006,-0.01175,-0.01312,-0.02121,-0.0119,-0.00977,-0.10483,-0.05798,-0.05661,-0.17395
7.811,-0.00259,-0.01663,-0.05035,0.04105,-0.03311,-0.04791,-0.02762,-0.01022,-0.01389,-0.02045,-0.01099,-0.0032,-0.12619,-0.03052,-0.07782,-0.21805
7.8115,-0.00092,-0.02975,-0.05295,0.00504,-0.03204,-0.04898,-0.01358,-0.00763,-0.01511,-0.01923,-0.01266,-0.00259,-0.1355,0.00015,-0.04044,-0.19394
7.812,0.00107,-0.03952,-0.06027,-0.02533,-0.03433,-0.05295,-0.00458,-0.0058,-0.01526,-0.01877,-0.01511,-0.00366,-0.13123,0.0206,0.00916,-0.09171
7.8125,0.00336,-0.04196,-0.06927,-0.05188,-0.03448,-0.05951,-0.00565,-0.00565,-0.01541,-0.01801,-0.01663,-0.00244,-0.12115,0.02548,0.00595,0.04227
7.813,0.00641,-0.04028,-0.07751,-0.07599,-0.0351,-0.0676,-0.00458,-0.00687,-0.01617,-0.01877,-0.01724,-0.00397,-0.11169,0.01862,-0.05051,0.13367
7.8135,0.00732,-0.03845,-0.08133,-0.09857,-0.03754,-0.07874,0.00839,-0.00656,-0.01831,-0.0206,-0.01877,-0.0061,-0.10056,0.00778,-0.0882,0.14587
7.814,0.00443,-0.03708,-0.08057,-0.1236,-0.04181,-0.0853,0.02563,-0.00488,-0.01907,-0.02106,-0.01984,-0.00946,-0.08148,-0.0061,-0.05402,0.10651
7.8145,-0.00031,-0.03235,-0.07843,-0.14938,-0.04379,-0.07614,0.02625,-0.00351,-0.01831,-0.02106,-0.0206,-0.01083,-0.05539,-0.0238,0.02594,0.06409
7.815,-0.00397,-0.02502,-0.07767,-0.17365,-0.03784,-0.04883,0.00748,-0.00412,-0.01648,-0.0206,-0.01846,-0.01129,-0.0293,-0.04303,0.09369,0.03265
7.8155,-0.00275,-0.01724,-0.07401,-0.19638,-0.03418,-0.01572,-0.01373,-0.00595,-0.01495,-0.02029,-0.01663,-0.00977,-0.00824,-0.05402,0.13031,-0.00046
7.816,0.00381,-0.01205,-0.06332,-0.21439,-0.03052,0.00198,-0.02151,-0.00824,-0.0145,-0.01984,-0.01678,-0.0087,0.00824,-0.05432,0.14526,-0.05112
7.8165,0.0116,-0.01114,-0.0444,-0.22766,-0.02975,-0.00229,-0.01831,-0.00885,-0.01434,-0.01968,-0.01785,-0.00595,0.02075,-0.0444,0.12146,-0.11322
7.817,0.01587,-0.01587,-0.01709,-0.23743,-0.02777,-0.01923,-0.01556,-0.0087,-0.01511,-0.01816,-0.01862,-0.00381,0.02625,-0.0264,0.04929,-0.15503
7.8175,0.0148,-0.02396,0.01083,-0.24582,-0.0264,-0.03494,-0.01724,-0.009,-0.01694,-0.0174,-0.01984,-0.00168,0.02029,-0.00137,-0.01602,-0.14389
7.818,0.01282,-0.03128,0.02319,-0.25284,-0.02701,-0.04272,-0.02045,-0.00793,-0.01984,-0.01663,-0.01999,0.00031,0.00977,0.02441,-0.00656,-0.0769
7.8185,0.01358,-0.03571,0.00549,-0.2562,-0.03021,-0.04532,-0.01907,-0.00717,-0.02167,-0.01678,-0.02167,0.00092,0.0,0.04135,0.06226,0.0116
7.819,0.01404,-0.03983,-0.03036,-0.2597,-0.03113,-0.04944,-0.01602,-0.00595,-0.02045,-0.01755,-0.02258,-0.00092,-0.01465,0.04486,0.11261,0.07675
7.8195,0.00931,-0.04593,-0.05264,-0.27756,-0.03006,-0.05661,-0.0119,-0.00473,-0.01938,-0.01678,-0.02136,-0.00458,-0.04211,0.03815,0.09796,0.09216
7.82,0.00092,-0.05493,-0.04669,-0.31036,-0.02518,-0.06241,-0.009,-0.00214,-0.01785,-0.01358,-0.01846,-0.00854,-0.07294,0.02426,0.03799,0.05234
7.8205,-0.0058,-0.06271,-0.03204,-0.33066,-0.02457,-0.05844,-0.00763,-0.00015,-0.01709,-0.00916,-0.01648,-0.0119,-0.08453,0.0061,-0.0264,-0.02335
7.821,-0.01175,-0.06744,-0.03036,-0.31647,-0.03174,-0.0412,-0.00854,-0.00107,-0.01663,-0.00641,-0.01633,-0.01221,-0.07431,-0.01328,-0.0737,-0.09979
7.8215,-0.01785,-0.06638,-0.03571,-0.28046,-0.04288,-0.01053,-0.01343,-0.00366,-0.01648,-0.00732,-0.01663,-0.01236,-0.06012,-0.02945,-0.10086,-0.13153
7.822,-0.02258,-0.0621,-0.03082,-0.25742,-0.05051,0.02335,-0.0206,-0.00366,-0.01709,-0.00748,-0.01617,-0.0116,-0.05096,-0.03571,-0.10269,-0.10025
7.8225,-0.02426,-0.05859,-0.00748,-0.26215,-0.05035,0.0502,-0.0267,-0.00137,-0.0177,-0.00717,-0.01587,-0.01007,-0.03662,-0.03326,-0.08286,-0.03433
7.823,-0.01938,-0.05692,0.0209,-0.28229,-0.03906,0.06454,-0.03143,0.00229,-0.01862,-0.00732,-0.01572,-0.00854,-0.01144,-0.0296,-0.05997,0.00793
7.8235,-0.01312,-0.05478,0.03571,-0.30518,-0.0238,0.06821,-0.03464,0.0032,-0.01907,-0.0087,-0.01526,-0.01038,0.01678,-0.03448,-0.05508,-0.00717
7.824,-0.01144,-0.05005,0.0322,-0.32913,-0.01389,0.06088,-0.03754,0.00137,-0.02014,-0.01053,-0.01831,-0.01465,0.03967,-0.04852,-0.06699,-0.06256
7.8245,-0.01602,-0.04395,0.01312,-0.35492,-0.00595,0.02808,-0.04135,-0.00046,-0.02151,-0.01328,-0.0209,-0.01877,0.05142,-0.06271,-0.06226,-0.11887
7.825,-0.02182,-0.03891,-0.00885,-0.37445,-0.00153,-0.04456,-0.04242,-0.00153,-0.02197,-0.01541,-0.02029,-0.01953,0.04181,-0.06577,-0.01251,-0.15015
7.8255,-0.0235,-0.03677,-0.0238,-0.38223,0.00137,-0.12833,-0.03693,-0.0032,-0.02228,-0.01663,-0.01877,-0.01694,0.0087,-0.05569,0.07126,-0.16174
7.826,-0.01984,-0.0325,-0.02945,-0.38177,0.00153,-0.16418,-0.02472,-0.00351,-0.02075,-0.01816,-0.0177,-0.01434,-0.03403,-0.04044,0.13763,-0.17807
7.8265,-0.0119,-0.02518,-0.02914,-0.383,-0.00046,-0.12619,-0.01358,-0.00214,-0.01892,-0.01938,-0.01923,-0.01282,-0.06821,-0.02853,0.14877,-0.21591
7.827,-0.00168,-0.01755,-0.02975,-0.38635,-0.00259,-0.06073,-0.00839,-0.00015,-0.01678,-0.01953,-0.01984,-0.0145,-0.09018,-0.0235,0.11124,-0.25864
7.8275,0.00809,-0.0148,-0.02914,-0.38635,-0.00626,-0.02518,-0.00977,-0.00244,-0.0148,-0.01923,-0.01984,-0.01663,-0.10147,-0.01968,0.06485,-0.24994
7.828,0.01129,-0.01755,-0.02686,-0.37628,-0.01129,-0.03525,-0.01434,-0.00946,-0.01389,-0.01984,-0.01923,-0.01587,-0.10254,-0.01373,0.03922,-0.15427
7.8285,0.0058,-0.02167,-0.02472,-0.36362,-0.0238,-0.07568,-0.02258,-0.01587,-0.0145,-0.0209,-0.01877,-0.01343,-0.09628,-0.00763,0.03326,-0.01831
7.829,-0.00229,-0.02609,-0.02899,-0.3537,-0.03067,-0.12619,-0.0351,-0.01587,-0.01648,-0.02136,-0.01953,-0.01236,-0.08759,-0.00336,0.01724,0.06622
7.8295,-0.00473,-0.03372,-0.03952,-0.34515,-0.02991,-0.16266,-0.0502,-0.00946,-0.01694,-0.0206,-0.01938,-0.01328,-0.0737,-0.00092,-0.02502,0.06958
7.83,-0.00107,-0.04639,-0.05035,-0.32516,-0.02808,-0.16541,-0.06485,0.00015,-0.0148,-0.01999,-0.01892,-0.0145,-0.05173,-0.00244,-0.07065,0.03189
7.8305,0.00351,-0.05798,-0.056,-0.28717,-0.02579,-0.13229,-0.07401,0.00854,-0.01434,-0.0206,-0.01816,-0.01434,-0.0293,-0.01419,-0.07706,-0.00961
7.831,0.00473,-0.06348,-0.05447,-0.23712,-0.02441,-0.08972,-0.07309,0.01343,-0.01495,-0.02106,-0.01923,-0.01144,-0.01602,-0.03632,-0.02975,-0.05066
7.8315,0.00122,-0.06256,-0.04852,-0.19806,-0.02213,-0.06363,-0.06775,0.01099,-0.01526,-0.02106,-0.01923,-0.00732,-0.0119,-0.05722,0.0325,-0.09232
7.832,-0.00351,-0.05936,-0.04028,-0.19104,-0.01785,-0.05814,-0.06302,0.00183,-0.01343,-0.0209,-0.01953,-0.00458,-0.01144,-0.06607,0.05569,-0.11337
7.8325,-0.00488,-0.05753,-0.03265,-0.2063,-0.01068,-0.06042,-0.04654,-0.00702,-0.01221,-0.02121,-0.01846,-0.00412,-0.01221,-0.06119,0.02945,-0.10452
7.833,-0.00183,-0.05417,-0.02823,-0.21744,-0.00534,-0.05676,-0.01053,-0.01099,-0.0116,-0.02136,-0.01968,-0.00381,-0.01587,-0.05203,-0.01572,-0.07843
7.8335,0.00153,-0.04791,-0.02792,-0.21408,-0.009,-0.04471,0.01801,-0.01205,-0.01282,-0.02182,-0.01831,-0.00092,-0.02075,-0.04425,-0.04822,-0.05463
7.834,0.00107,-0.0412,-0.03235,-0.21072,-0.01511,-0.02625,0.00092,-0.0148,-0.01328,-0.02075,-0.01648,0.00275,-0.02625,-0.04013,-0.06317,-0.03906
7.8345,-0.00305,-0.0383,-0.03906,-0.21683,-0.02289,-0.00854,-0.06409,-0.01846,-0.01511,-0.01938,-0.01801,0.00626,-0.03174,-0.03632,-0.06668,-0.02686
7.835,-0.00748,-0.04013,-0.04852,-0.22751,-0.03632,-0.00641,-0.14053,-0.02075,-0.0177,-0.01785,-0.01877,0.00732,-0.04364,-0.02991,-0.06317,-0.0235
7.8355,-0.01068,-0.04318,-0.05798,-0.22995,-0.05768,-0.02151,-0.19836,-0.02014,-0.01892,-0.01724,-0.02151,0.00671,-0.05829,-0.02335,-0.05798,-0.03677
7.836,-0.01389,-0.04608,-0.06348,-0.21927,-0.08652,-0.04059,-0.22552,-0.01892,-0.01755,-0.01633,-0.02243,0.00732,-0.06866,-0.01831,-0.04623,-0.06531
7.8365,-0.01602,-0.04517,-0.06042,-0.2002,-0.11383,-0.0499,-0.21759,-0.01709,-0.01526,-0.01755,-0.02457,0.00824,-0.06836,-0.01236,-0.0119,-0.09186
7.837,-0.01526,-0.04013,-0.04944,-0.18036,-0.12787,-0.04944,-0.18005,-0.01282,-0.0148,-0.01923,-0.0238,0.00793,-0.05417,-0.00397,0.04837,-0.10239
7.8375,-0.01266,-0.02792,-0.04578,-0.16602,-0.12054,-0.04639,-0.12878,-0.00702,-0.01617,-0.02029,-0.02014,0.00549,-0.03342,0.00626,0.09979,-0.09979
7.838,-0.01068,-0.0145,-0.05356,-0.15411,-0.10117,-0.04471,-0.06989,-0.00046,-0.01755,-0.01953,-0.01648,0.00183,-0.01434,0.0145,0.10529,-0.10193
7.8385,-0.01144,-0.00549,-0.06561,-0.13672,-0.07736,-0.04044,0.00565,0.00443,-0.01831,-0.01923,-0.01541,-0.00168,-0.00824,0.01907,0.06638,-0.12375
7.839,-0.01373,-0.00214,-0.06989,-0.11475,-0.05447,-0.03571,0.09399,0.00687,-0.01831,-0.01724,-0.01648,-0.00443,-0.02014,0.02136,0.02167,-0.15274
7.8395,-0.01373,-0.0029,-0.06393,-0.09689,-0.03098,-0.03418,0.159,0.00427,-0.01663,-0.01663,-0.01678,-0.00443,-0.04013,0.0238,-0.00153,-0.14725
7.84,-0.01022,-0.00671,-0.05035,-0.08957,-0.00977,-0.03098,0.17303,-0.00092,-0.01526,-0.01465,-0.01572,-0.00137,-0.05096,0.02502,-0.00793,-0.08774
7.8405,-0.0061,-0.01389,-0.03555,-0.08774,0.00748,-0.02106,0.15213,-0.00687,-0.01404,-0.01373,-0.01419,0.0029,-0.04379,0.02075,-0.01236,-0.01022
7.841,-0.00656,-0.02014,-0.02457,-0.08133,0.01862,0.00015,0.13184,-0.01038,-0.01343,-0.0148,-0.01358,0.00656,-0.02975,0.0058,-0.01099,0.02884
7.8415,-0.01053,-0.02396,-0.02686,-0.07385,0.01709,0.02716,0.11932,-0.0119,-0.01312,-0.01724,-0.01358,0.00671,-0.02136,-0.01709,0.00916,0.01282
7.842,-0.01511,-0.02579,-0.04456,-0.07629,0.00137,0.04181,0.10361,-0.01175,-0.01312,-0.0174,-0.01511,0.00366,-0.01984,-0.03784,0.0412,-0.0322
7.8425,-0.02045,-0.0293,-0.06927,-0.0853,-0.02426,0.03799,0.09781,-0.00946,-0.01221,-0.01831,-0.01724,-0.00061,-0.01877,-0.04944,0.06073,-0.06836
7.843,-0.02899,-0.03113,-0.09018,-0.08652,-0.04471,0.02579,0.11795,-0.00641,-0.0116,-0.01831,-0.01831,-0.00305,-0.01404,-0.05203,0.06073,-0.05859
7.8435,-0.0412,-0.03372,-0.10452,-0.0705,-0.05493,0.01099,0.14725,-0.00534,-0.01175,-0.01862,-0.01785,-0.00366,-0.00916,-0.04883,0.06927,0.00977
7.844,-0.05096,-0.03571,-0.11459,-0.0473,-0.05508,-0.01892,0.15015,-0.00931,-0.01038,-0.01816,-0.0174,-0.00519,-0.00778,-0.04196,0.10818,0.09949
7.8445,-0.05264,-0.03738,-0.11902,-0.02792,-0.04959,-0.08591,0.10757,-0.02274,-0.00885,-0.01694,-0.0174,-0.00931,-0.01175,-0.0351,0.1445,0.13947
7.845,-0.04608,-0.03952,-0.11169,-0.01297,-0.03632,-0.16891,0.03448,-0.05356,-0.00702,-0.01663,-0.01663,-0.01343,-0.01801,-0.0296,0.13184,0.09247
7.8455,-0.03693,-0.04272,-0.09216,0.00015,-0.01465,-0.20615,-0.03036,-0.09842,-0.0058,-0.0177,-0.01419,-0.01404,-0.02151,-0.02533,0.08057,-0.00427
7.846,-0.03113,-0.04593,-0.06775,0.00992,0.00992,-0.15594,-0.05478,-0.12772,-0.00336,-0.01846,-0.01083,-0.00977,-0.01968,-0.02014,0.04379,-0.06775
7.8465,-0.03036,-0.04791,-0.04807,0.01831,0.02502,-0.06042,-0.0444,-0.112,-0.00061,-0.01831,-0.01099,-0.00336,-0.01328,-0.01663,0.04242,-0.05386
7.847,-0.03036,-0.04807,-0.03113,0.02426,0.02487,0.00183,-0.0415,-0.06363,0.00015,-0.01755,-0.01312,-0.00031,-0.00854,-0.0177,0.05356,0.00351
7.8475,-0.02823,-0.04791,-0.00961,0.02243,0.01129,0.00381,-0.0708,-0.02136,-0.00046,-0.01602,-0.01434,-0.00244,-0.01007,-0.02365,0.05066,0.04013
7.848,-0.02457,-0.05051,0.01907,0.01129,-0.00076,-0.03159,-0.09811,0.00412,-0.00031,-0.01587,-0.01297,-0.00549,-0.01633,-0.03143,0.02899,0.03601
7.8485,-0.01999,-0.05356,0.04852,-0.00641,-0.01175,-0.0798,-0.07019,0.02731,-0.00168,-0.01617,-0.01114,-0.00595,-0.01923,-0.04059,-0.00092,0.00732
7.849,-0.01572,-0.05295,0.06912,-0.02243,-0.0206,-0.12772,0.00336,0.05173,-0.00336,-0.01678,-0.01053,-0.00397,-0.01923,-0.04791,-0.02243,-0.03784
7.8495,-0.0116,-0.0499,0.06882,-0.02701,-0.0293,-0.15121,0.056,0.06104,-0.00397,-0.01602,-0.01038,-0.00183,-0.0206,-0.05051,-0.02518,-0.09186
7.85,-0.00732,-0.04761,0.04776,-0.01434,-0.03174,-0.13168,0.05981,0.04837,-0.00534,-0.0148,-0.01114,0.0,-0.0238,-0.04745,-0.01892,-0.14069
7.8505,-0.00397,-0.047,0.02472,0.0116,-0.02701,-0.08667,0.04547,0.03632,-0.00916,-0.01358,-0.01083,0.00366,-0.02274,-0.04364,-0.03143,-0.17731
7.851,-0.00122,-0.04654,0.0235,0.04303,-0.01785,-0.05417,0.03342,0.04501,-0.01801,-0.01343,-0.01038,0.01007,-0.01816,-0.04318,-0.07126,-0.21393
7.8515,0.00061,-0.04608,0.04257,0.06668,-0.01343,-0.04578,0.00717,0.06912,-0.02991,-0.01465,-0.01129,0.01678,-0.01999,-0.04654,-0.1059,-0.25757
7.852,0.00229,-0.0473,0.05295,0.06973,-0.01328,-0.04654,-0.03342,0.0885,-0.03998,-0.01617,-0.01205,0.02106,-0.03403,-0.04807,-0.10422,-0.28519
7.8525,0.00366,-0.04913,0.03357,0.04303,-0.01511,-0.04532,-0.06561,0.09415,-0.04791,-0.0177,-0.01266,0.02151,-0.05051,-0.04318,-0.08209,-0.25131
7.853,0.00168,-0.04883,-0.00214,-0.0058,-0.02045,-0.04318,-0.07904,0.09171,-0.05417,-0.01877,-0.01312,0.01831,-0.05646,-0.03021,-0.08224,-0.12909
7.8535,-0.00488,-0.04608,-0.0267,-0.04318,-0.0296,-0.04456,-0.08392,0.08438,-0.05676,-0.01724,-0.01297,0.01495,-0.05402,-0.01465,-0.11078,0.05157
7.854,-0.00977,-0.04196,-0.03113,-0.02533,-0.03769,-0.04456,-0.0737,0.07111,-0.05157,-0.01663,-0.01282,0.01297,-0.05798,-0.00259,-0.12848,0.20767
7.8545,-0.00748,-0.04013,-0.02701,0.0502,-0.04105,-0.0386,-0.03845,0.05737,-0.03906,-0.01556,-0.01373,0.01236,-0.07141,0.00198,-0.11322,0.26062
7.855,-0.00092,-0.04059,-0.02502,0.1268,-0.03677,-0.03372,-0.00061,0.05051,-0.02426,-0.01724,-0.01404,0.01434,-0.08072,0.00305,-0.08392,0.20569
7.8555,0.00168,-0.0415,-0.02563,0.14481,-0.02625,-0.03677,0.00534,0.04868,-0.0119,-0.0206,-0.0145,0.01617,-0.07721,0.0058,-0.05554,0.10757
7.856,-0.00198,-0.04181,-0.0264,0.11475,-0.01434,-0.03708,-0.0177,0.04303,-0.00443,-0.0235,-0.01404,0.01801,-0.0679,0.00916,-0.01648,0.03311
7.8565,-0.00748,-0.04166,-0.02838,0.08545,-0.00473,-0.02182,-0.02762,0.02563,-0.00366,-0.02548,-0.01236,0.01923,-0.06393,0.0119,0.02792,-0.00046
7.857,-0.01007,-0.0415,-0.03036,0.08316,0.00076,0.0029,-0.00397,-0.00107,-0.01297,-0.0267,-0.01205,0.01846,-0.07004,0.0119,0.04196,-0.01328
7.8575,-0.01053,-0.04349,-0.03174,0.09125,0.00183,0.01816,0.03098,-0.03098,-0.02655,-0.02716,-0.01144,0.01709,-0.07874,0.01038,0.02594,-0.00412
7.858,-0.0116,-0.0441,-0.03311,0.09308,-0.00153,0.00687,0.05554,-0.0589,-0.03098,-0.0264,-0.01053,0.01862,-0.07843,0.00961,0.02533,0.03632
7.8585,-0.0116,-0.0444,-0.03387,0.09125,-0.00763,-0.02335,0.07034,-0.0795,-0.0238,-0.02365,-0.01099,0.02106,-0.06439,0.00366,0.05432,0.09735
7.859,-0.01053,-0.04364,-0.03555,0.09445,-0.01907,-0.04349,0.06668,-0.08301,-0.01038,-0.01938,-0.01312,0.02274,-0.04395,-0.00488,0.07309,0.14267
7.8595,-0.00717,-0.04303,-0.0383,0.09995,-0.03494,-0.04181,0.03433,-0.06561,-0.00107,-0.01785,-0.01419,0.0235,-0.02579,-0.00946,0.05463,0.14282
7.86,-0.00488,-0.04227,-0.04135,0.09567,-0.05127,-0.0441,-0.009,-0.03708,0.00183,-0.01877,-0.01129,0.0238,-0.01434,-0.00641,0.02441,0.10681
7.8605,-0.00397,-0.04318,-0.04501,0.08118,-0.06546,-0.08102,-0.03235,-0.01633,0.00534,-0.02289,-0.00519,0.02289,-0.0087,-0.00153,0.01297,0.06302
7.861,-0.00397,-0.04318,-0.04837,0.06714,-0.07034,-0.13168,-0.03082,-0.01343,0.01328,-0.02502,-0.00107,0.02151,-0.00549,-0.00244,0.02121,0.0322
7.8615,-0.00549,-0.04364,-0.0473,0.05997,-0.06943,-0.14404,-0.02655,-0.0238,0.02335,-0.02686,-0.00076,0.01801,-0.00305,-0.01022,0.03189,0.01007
7.862,-0.00626,-0.04318,-0.04501,0.05768,-0.06638,-0.10223,-0.03387,-0.0354,0.03204,-0.02701,-0.00183,0.01465,-0.00076,-0.0148,0.04105,-0.01572
7.8625,-0.0058,-0.04257,-0.04272,0.05737,-0.06607,-0.0531,-0.047,-0.0441,0.03418,-0.02823,-0.00137,0.01236,-0.00061,-0.01465,0.04669,-0.04379
7.863,-0.00458,-0.04211,-0.04028,0.06119,-0.06836,-0.05447,-0.05554,-0.0473,0.02914,-0.02823,-0.00046,0.01266,-0.00488,-0.01236,0.0386,-0.06592
7.8635,-0.00443,-0.04166,-0.03632,0.07263,-0.07019,-0.09262,-0.05707,-0.04578,0.01816,-0.02563,0.00122,0.01404,-0.01205,-0.01541,0.01022,-0.07919
7.864,-0.00565,-0.04227,-0.03296,0.08881,-0.06775,-0.09537,-0.05463,-0.04272,0.00214,-0.02167,0.00137,0.0145,-0.01617,-0.02228,-0.01556,-0.08835
7.8645,-0.00748,-0.04272,-0.03235,0.09995,-0.05859,-0.02151,-0.05066,-0.04044,-0.01907,-0.0177,0.00153,0.01236,-0.01678,-0.03067,-0.01862,-0.09918
7.865,-0.009,-0.04364,-0.03448,0.09918,-0.04608,0.07477,-0.04578,-0.04211,-0.04135,-0.01312,0.00092,0.00961,-0.01801,-0.03723,-0.0058,-0.10986
7.8655,-0.00977,-0.04425,-0.03693,0.08713,-0.03708,0.11108,-0.04303,-0.04562,-0.0531,-0.00931,-0.00076,0.00809,-0.02167,-0.0386,-0.00229,-0.11688
7.866,-0.01129,-0.04379,-0.03708,0.07233,-0.02808,0.07813,-0.04578,-0.04303,-0.05127,-0.00626,-0.00198,0.00885,-0.02502,-0.03326,-0.01038,-0.11795
7.8665,-0.01205,-0.04379,-0.03372,0.06195,-0.02274,0.03876,-0.0531,-0.02838,-0.04074,-0.00504,-0.00336,0.00854,-0.0264,-0.02457,-0.01602,-0.11475
7.867,-0.01297,-0.04395,-0.03067,0.05478,-0.01892,0.02762,-0.05936,-0.00671,-0.03342,-0.00458,-0.00412,0.00656,-0.02411,-0.01923,-0.01434,-0.11154
7.8675,-0.0119,-0.04471,-0.03448,0.04974,-0.0174,0.0,-0.06134,0.01099,-0.02975,-0.00427,-0.00534,0.00229,-0.01938,-0.01953,-0.01297,-0.10956
7.868,-0.00809,-0.04761,-0.04807,0.04608,-0.01846,-0.09857,-0.05997,0.02197,-0.02869,-0.00229,-0.00732,-0.00198,-0.01068,-0.02579,-0.01236,-0.10727
7.8685,-0.00351,-0.05066,-0.06546,0.04425,-0.02258,-0.21973,-0.0531,0.02594,-0.02747,-0.00183,-0.00916,-0.00381,-0.00168,-0.03265,-0.01007,-0.10345
7.869,0.00122,-0.05203,-0.07919,0.04364,-0.02792,-0.23834,-0.04089,0.01892,-0.02365,-0.00397,-0.01175,-0.00336,0.00259,-0.03784,-0.00519,-0.1004
7.8695,0.00961,-0.05157,-0.08423,0.04501,-0.03143,-0.11429,-0.02686,-0.00565,-0.01297,-0.0087,-0.01465,-0.00046,0.00076,-0.04135,-0.00198,-0.10162
7.87,0.02121,-0.0502,-0.0798,0.05325,-0.0325,0.04501,-0.0174,-0.04074,-0.00076,-0.01358,-0.01572,0.00092,-0.00412,-0.04272,-0.00015,-0.10345
7.8705,0.02823,-0.0499,-0.06897,0.0679,-0.03128,0.11017,-0.01373,-0.06836,0.0061,-0.01724,-0.01419,0.00229,-0.00839,-0.04181,0.00778,-0.10651
7.871,0.02518,-0.05096,-0.05341,0.08316,-0.03067,0.06653,-0.01175,-0.07278,0.00854,-0.01938,-0.01038,0.00519,-0.01556,-0.03906,0.02396,-0.11185
7.8715,0.01343,-0.05203,-0.03616,0.09338,-0.02792,-0.0206,-0.01205,-0.05905,0.01129,-0.02014,-0.00671,0.0058,-0.02762,-0.03448,0.03769,-0.11765
7.872,0.00366,-0.05096,-0.02121,0.09354,-0.02472,-0.09613,-0.01434,-0.04181,0.0174,-0.01938,-0.0058,0.00458,-0.0415,-0.02625,0.03876,-0.12085
7.8725,0.00168,-0.04929,-0.01373,0.08865,-0.02228,-0.13474,-0.01724,-0.02823,0.02228,-0.01816,-0.00732,0.00183,-0.05219,-0.0116,0.02792,-0.11887
7.873,0.00488,-0.04852,-0.00916,0.08331,-0.02075,-0.12604,-0.02106,-0.01266,0.0206,-0.01831,-0.00961,-0.00092,-0.05768,0.00839,0.01465,-0.11337
7.8735,0.00626,-0.04929,-0.00671,0.0795,-0.01846,-0.07965,-0.02701,0.01755,0.01099,-0.02045,-0.01358,-0.00122,-0.05951,0.02655,0.00595,-0.10574
7.874,0.00381,-0.04883,-0.0087,0.07355,-0.01465,-0.03891,-0.0351,0.0563,0.0,-0.02335,-0.01541,0.00076,-0.05951,0.03326,0.00259,-0.0946
7.8745,0.00015,-0.05096,-0.01602,0.06287,-0.01205,-0.03433,-0.03815,0.08423,-0.00488,-0.02487,-0.01495,0.00366,-0.05905,0.0264,0.00641,-0.08087
7.875,-0.00229,-0.05646,-0.02518,0.05768,-0.01678,-0.05585,-0.03372,0.08484,0.00168,-0.0264,-0.01602,0.00458,-0.05707,0.01328,0.01175,-0.07004
7.8755,-0.00275,-0.06485,-0.03204,0.06577,-0.02579,-0.07431,-0.02853,0.05768,0.01938,-0.02899,-0.01938,0.0029,-0.05341,0.00137,0.01511,-0.06744
7.876,-0.00092,-0.06897,-0.03632,0.08514,-0.03418,-0.08209,-0.0325,0.02213,0.03632,-0.03296,-0.02502,-0.00107,-0.04745,-0.00717,0.01495,-0.06989
7.8765,0.00214,-0.06912,-0.04044,0.1004,-0.03632,-0.08713,-0.04471,-0.00305,0.04059,-0.03708,-0.02777,-0.00412,-0.04105,-0.01404,0.01343,-0.07416
7.877,0.00565,-0.06561,-0.04318,0.09995,-0.03418,-0.09079,-0.05249,-0.01038,0.03098,-0.03815,-0.02731,-0.00381,-0.03815,-0.0177,0.01053,-0.08347
7.8775,0.00626,-0.06073,-0.04364,0.08469,-0.02563,-0.08652,-0.05081,-0.00488,0.01251,-0.03616,-0.02228,-0.00244,-0.03784,-0.01831,0.00443,-0.10315
7.878,0.00412,-0.05417,-0.04257,0.0676,-0.01572,-0.07248,-0.04227,0.00366,-0.01068,-0.03433,-0.01602,-0.00427,-0.03922,-0.01862,-0.00183,-0.12711
7.8785,0.00137,-0.047,-0.04166,0.06149,-0.00687,-0.0499,-0.02975,0.01114,-0.04074,-0.03159,-0.01236,-0.00732,-0.03998,-0.01892,-0.00397,-0.14053
7.879,0.00183,-0.04074,-0.04059,0.07126,-0.00244,-0.03113,-0.0148,0.01801,-0.07614,-0.02808,-0.00885,-0.00977,-0.04211,-0.02014,-0.01007,-0.14099
7.8795,0.00412,-0.03616,-0.03845,0.09613,-0.00198,-0.02258,0.00168,0.02472,-0.10712,-0.02243,-0.00519,-0.00839,-0.04333,-0.02045,-0.03098,-0.1413
7.88,0.00504,-0.03372,-0.03616,0.13031,-0.00473,-0.02121,0.01007,0.02731,-0.12772,-0.0174,-0.0029,-0.00534,-0.0441,-0.02121,-0.05463,-0.14832
7.8805,0.00488,-0.03113,-0.03525,0.15717,-0.01007,-0.01053,0.00534,0.02548,-0.1358,-0.01617,-0.0029,-0.0058,-0.04425,-0.0235,-0.06165,-0.1387
7.881,0.00412,-0.02701,-0.0354,0.15274,-0.01816,0.00717,-0.00656,0.01907,-0.13123,-0.01572,-0.00153,-0.00778,-0.04501,-0.02487,-0.05112,-0.08331
7.8815,0.00336,-0.02441,-0.03754,0.11688,-0.02792,0.00961,-0.0145,0.01175,-0.11703,-0.01724,-0.00168,-0.00732,-0.04425,-0.02258,-0.04456,0.00397
7.882,0.00153,-0.02579,-0.04059,0.07797,-0.03754,-0.02808,-0.0145,0.00565,-0.09476,-0.01923,-0.0029,-0.00443,-0.04181,-0.01831,-0.04944,0.06805
7.8825,-0.00076,-0.02945,-0.04471,0.06165,-0.04501,-0.1033,-0.01144,0.00443,-0.07172,-0.02167,-0.00656,-0.00061,-0.0383,-0.01572,-0.04547,0.07782
7.883,-0.00259,-0.03235,-0.04547,0.06424,-0.05035,-0.17624,-0.00885,0.00717,-0.05066,-0.0238,-0.00946,0.00153,-0.03296,-0.01785,-0.01358,0.05112
7.8835,-0.00397,-0.0354,-0.04379,0.06271,-0.05127,-0.19485,-0.01083,0.00916,-0.03174,-0.02457,-0.009,0.00366,-0.02548,-0.02335,0.03693,0.01938
7.884,-0.00549,-0.03967,-0.04303,0.04837,-0.05081,-0.13611,-0.01495,0.00381,-0.01343,-0.02396,-0.00977,0.00702,-0.0145,-0.02975,0.08423,-0.00565
7.8845,-0.00748,-0.04608,-0.04395,0.03342,-0.04959,-0.03433,-0.01892,-0.00793,0.00122,-0.02289,-0.01205,0.0087,-0.00412,-0.03281,0.10254,-0.02121
7.885,-0.00839,-0.05341,-0.04456,0.03036,-0.04471,0.04333,-0.02289,-0.01862,0.00641,-0.02243,-0.01221,0.00534,-0.00061,-0.03098,0.08026,-0.02335
7.8855,-0.00519,-0.05966,-0.04395,0.0325,-0.03769,0.06241,-0.02762,-0.02228,0.0032,-0.02243,-0.01007,0.00015,-0.00717,-0.02945,0.03311,-0.01251
7.886,-0.00214,-0.06317,-0.04089,0.02045,-0.03006,0.04471,-0.03403,-0.01846,-0.00427,-0.02274,-0.00702,-0.00381,-0.01617,-0.0296,-0.00046,-0.00351
7.8865,-0.00198,-0.0647,-0.03769,-0.00092,-0.0235,0.02304,-0.03662,-0.01434,-0.0116,-0.0235,-0.00732,-0.00549,-0.02106,-0.03128,0.00336,-0.0174
7.887,-0.00473,-0.06561,-0.03555,-0.00702,-0.02136,0.00397,-0.03098,-0.01175,-0.01953,-0.02731,-0.00717,-0.00595,-0.0267,-0.03174,0.02762,-0.05859
7.8875,-0.00763,-0.06653,-0.03372,0.01205,-0.02197,-0.02029,-0.01862,-0.00824,-0.02686,-0.03159,-0.00854,-0.00732,-0.03998,-0.02853,0.03891,-0.10834
7.888,-0.00717,-0.06683,-0.03281,0.03616,-0.02762,-0.04074,-0.01144,-0.00443,-0.0325,-0.0351,-0.01114,-0.01007,-0.06149,-0.01694,0.03143,-0.14374
7.8885,-0.00351,-0.06561,-0.03265,0.0441,-0.03082,-0.04684,-0.01434,-0.0058,-0.03494,-0.03708,-0.01358,-0.01373,-0.08148,-0.00214,0.02075,-0.15289
7.889,0.00061,-0.06119,-0.03265,0.04028,-0.03418,-0.04837,-0.01999,-0.01251,-0.03525,-0.03662,-0.0145,-0.01495,-0.08713,0.00519,0.01419,-0.13962
7.8895,0.00336,-0.05585,-0.03311,0.03738,-0.04044,-0.06027,-0.01358,-0.01923,-0.03662,-0.03464,-0.01251,-0.01343,-0.07751,0.0,0.01328,-0.11154
7.89,0.00397,-0.05005,-0.03433,0.03357,-0.04822,-0.08011,0.00641,-0.02045,-0.03387,-0.03235,-0.01114,-0.00931,-0.05859,-0.0119,0.02151,-0.07782
7.8905,0.00076,-0.04501,-0.03464,0.02106,-0.05508,-0.08698,0.02365,-0.02045,-0.02472,-0.03067,-0.00854,-0.00443,-0.03937,-0.02167,0.03525,-0.04257
7.891,-0.00397,-0.04028,-0.0351,0.00671,-0.05875,-0.07248,0.02228,-0.02167,-0.01236,-0.02747,-0.0061,0.00198,-0.02655,-0.02441,0.04013,-0.01007
7.8915,-0.00885,-0.03372,-0.03479,0.00702,-0.06119,-0.05173,0.00244,-0.02274,-0.00595,-0.02472,-0.00565,0.00809,-0.0206,-0.02319,0.02472,0.01633
7.892,-0.01343,-0.02686,-0.03494,0.02304,-0.06378,-0.04608,-0.01953,-0.01907,-0.00412,-0.02121,-0.00443,0.0116,-0.01938,-0.02121,-0.00122,0.03693
7.8925,-0.01389,-0.0206,-0.03601,0.03845,-0.06927,-0.05707,-0.03296,-0.01007,-0.00168,-0.01862,-0.00473,0.01266,-0.02121,-0.01862,-0.02136,0.0528
7.893,-0.00732,-0.01389,-0.03738,0.04135,-0.0769,-0.06912,-0.03815,-0.00275,0.00412,-0.01617,-0.00458,0.01282,-0.02335,-0.0174,-0.03067,0.065
7.8935,0.00275,-0.01068,-0.03769,0.03433,-0.08392,-0.06134,-0.03922,-0.00412,0.01144,-0.01419,-0.00397,0.01236,-0.02365,-0.01755,-0.03174,0.0737
7.894,0.01022,-0.01129,-0.03754,0.0264,-0.0853,-0.03128,-0.0386,-0.01068,0.01556,-0.01221,-0.00549,0.01053,-0.02243,-0.01846,-0.02533,0.07858
7.8945,0.01144,-0.01602,-0.03647,0.01678,-0.08392,-0.00656,-0.03128,-0.01419,0.01862,-0.01129,-0.00824,0.00839,-0.02136,-0.01984,-0.0145,0.07431
7.895,0.00809,-0.02197,-0.03448,0.00183,-0.07797,-0.01801,-0.01251,-0.01129,0.02075,-0.01099,-0.00916,0.00549,-0.02197,-0.01984,-0.00534,0.04822
7.8955,0.00229,-0.02686,-0.03448,-0.01175,-0.06775,-0.05219,0.01129,-0.00778,0.01785,-0.00931,-0.01038,0.00198,-0.02365,-0.02106,0.00229,0.00031
7.896,-0.00534,-0.03082,-0.03632,-0.01968,-0.0528,-0.06729,0.02625,-0.01022,0.01556,-0.00793,-0.01236,-0.00092,-0.02563,-0.02274,0.0148,-0.05386
7.8965,-0.01511,-0.03403,-0.03952,-0.03235,-0.0386,-0.05554,0.02426,-0.01465,0.01709,-0.00732,-0.01434,-0.00229,-0.0267,-0.02365,0.0296,-0.09689
7.897,-0.02243,-0.03647,-0.03937,-0.06378,-0.02319,-0.05112,0.01236,-0.01602,0.02121,-0.00748,-0.01556,-0.00366,-0.0267,-0.0235,0.03387,-0.12085
7.8975,-0.0264,-0.0386,-0.03769,-0.09476,-0.01175,-0.0676,0.00351,-0.01175,0.02808,-0.00854,-0.01755,-0.00778,-0.02518,-0.02426,0.01877,-0.12482
7.898,-0.02991,-0.04227,-0.03769,-0.07156,0.00092,-0.08224,0.00031,-0.00366,0.03464,-0.00931,-0.01724,-0.01389,-0.02518,-0.0264,-0.01144,-0.11627
7.8985,-0.03418,-0.04822,-0.03998,0.02823,0.00412,-0.07721,-0.00214,-0.00061,0.04059,-0.01068,-0.01923,-0.01633,-0.02548,-0.02838,-0.0322,-0.10849
7.899,-0.0386,-0.05539,-0.04135,0.13718,-0.00031,-0.05707,-0.00275,-0.00397,0.04196,-0.01053,-0.01938,-0.01221,-0.02716,-0.02609,-0.00885,-0.10056
7.8995,-0.03372,-0.06073,-0.0415,0.16342,-0.00839,-0.03403,-0.0058,-0.0116,0.03647,-0.00931,-0.01801,-0.00595,-0.02762,-0.01816,0.04959,-0.07004
7.9,-0.01617,-0.06241,-0.03922,0.09735,-0.01663,-0.00549,-0.00717,-0.01709,0.0267,-0.0087,-0.01801,-0.00412,-0.02838,-0.00839,0.07904,-0.01572
7.9005,0.00137,-0.06073,-0.03586,0.0238,-0.0264,0.02274,-0.00763,-0.01495,0.01526,-0.01022,-0.01846,-0.00549,-0.03143,-0.00458,0.04913,0.0148
7.901,0.00717,-0.05783,-0.03448,0.00366,-0.0412,0.03052,-0.00595,-0.00626,0.00168,-0.01144,-0.02045,-0.00519,-0.03571,-0.01099,0.00458,-0.01541
7.9015,0.00229,-0.05386,-0.03372,0.02365,-0.06226,0.00916,-0.00427,0.00046,-0.01373,-0.01312,-0.01968,0.00046,-0.04211,-0.02167,0.00076,-0.08774
7.902,-0.00076,-0.04959,-0.03281,0.03983,-0.08209,-0.01526,-0.0058,0.0029,-0.03571,-0.01282,-0.01984,0.00809,-0.05035,-0.02914,0.02777,-0.15198
7.9025,0.00031,-0.04822,-0.0325,0.04135,-0.09506,-0.01938,-0.00626,0.00137,-0.05936,-0.01266,-0.01892,0.0116,-0.05768,-0.02945,0.04227,-0.17517
7.903,0.00137,-0.04974,-0.03189,0.03799,-0.09583,-0.00931,-0.00458,-0.00046,-0.07782,-0.01129,-0.01831,0.01083,-0.0589,-0.02686,0.03082,-0.15945
7.9035,-0.00168,-0.05249,-0.03067,0.02808,-0.09064,-0.00015,-0.00336,-0.00381,-0.08514,-0.00977,-0.01892,0.00824,-0.05478,-0.02396,0.0148,-0.13107
7.904,-0.00458,-0.05478,-0.03113,0.00702,-0.08255,0.00656,-0.00763,-0.00809,-0.07904,-0.00687,-0.01984,0.00748,-0.04944,-0.02319,0.01022,-0.10727
7.9045,-0.00427,-0.05386,-0.03387,-0.0148,-0.07187,0.01328,-0.01862,-0.0119,-0.06622,-0.00519,-0.02136,0.0087,-0.04913,-0.02518,0.01022,-0.07553
7.905,-0.00275,-0.05035,-0.03784,-0.02625,-0.06195,0.0087,-0.03387,-0.01312,-0.05417,-0.00519,-0.02411,0.009,-0.05234,-0.02655,0.00809,-0.02533
7.9055,-0.00153,-0.04501,-0.04028,-0.02945,-0.05188,-0.01404,-0.04501,-0.01129,-0.04868,-0.00549,-0.02502,0.00717,-0.05249,-0.02625,0.00595,0.01984
7.906,-0.00061,-0.03891,-0.04028,-0.03296,-0.0412,-0.04822,-0.047,-0.00732,-0.04593,-0.00488,-0.02335,0.0032,-0.04761,-0.02426,0.00641,0.0441
7.9065,0.00046,-0.03448,-0.03906,-0.03754,-0.03433,-0.0766,-0.04318,-0.00275,-0.03937,-0.0029,-0.0235,0.00092,-0.04105,-0.02274,0.00534,0.07263
7.907,0.00092,-0.03128,-0.04028,-0.03922,-0.03006,-0.08759,-0.0351,0.00031,-0.02472,-0.00214,-0.0264,0.00214,-0.03616,-0.02243,0.00351,0.12405
7.9075,0.00244,-0.02899,-0.04349,-0.03983,-0.02975,-0.08972,-0.01907,0.00366,-0.00916,-0.00473,-0.02716,0.00397,-0.03357,-0.02151,0.00427,0.16968
7.908,0.00519,-0.0264,-0.04379,-0.04333,-0.02731,-0.10361,0.0087,0.00595,0.00122,-0.00671,-0.02838,0.00534,-0.0322,-0.01968,0.00687,0.16968
7.9085,0.00778,-0.02472,-0.03906,-0.0502,-0.02457,-0.1416,0.03143,0.0058,0.0032,-0.00931,-0.02518,0.00443,-0.03021,-0.01846,0.00443,0.12833
7.909,0.00793,-0.02365,-0.03311,-0.05615,-0.02777,-0.18036,0.02838,0.00275,0.00427,-0.01099,-0.02579,0.00336,-0.02823,-0.01755,-0.00443,0.07675
7.9095,0.00595,-0.02335,-0.0293,-0.06134,-0.03342,-0.18021,0.00473,-0.00061,0.01114,-0.01099,-0.02686,0.00534,-0.02533,-0.01633,-0.01495,0.03647
7.91,0.00275,-0.02563,-0.03128,-0.0676,-0.03372,-0.14206,-0.01465,-0.0032,0.02625,-0.01007,-0.02609,0.00854,-0.02151,-0.0148,-0.01663,0.00824
7.9105,-0.00015,-0.02945,-0.03418,-0.06622,-0.02655,-0.10818,-0.01938,-0.00549,0.04013,-0.00961,-0.02579,0.01083,-0.01755,-0.01434,0.00275,-0.0119
7.911,-0.00229,-0.03296,-0.03433,-0.0441,-0.01907,-0.09872,-0.01816,-0.00732,0.04745,-0.00977,-0.02548,0.00992,-0.01541,-0.01526,0.03311,-0.02365
7.9115,-0.00229,-0.03723,-0.02563,-0.00397,-0.01953,-0.09796,-0.02197,-0.00732,0.04257,-0.01144,-0.02563,0.00854,-0.01434,-0.01617,0.04562,-0.02975
7.912,-0.00168,-0.04135,-0.00824,0.03281,-0.02548,-0.08911,-0.02609,-0.00565,0.02686,-0.01282,-0.02884,0.00763,-0.01419,-0.01678,0.02869,-0.03479
7.9125,-0.00351,-0.0444,0.00916,0.04074,-0.02563,-0.08179,-0.02563,-0.00366,0.00183,-0.01373,-0.02853,0.00702,-0.01373,-0.01678,0.00626,-0.04272
7.913,-0.00656,-0.04517,0.00824,0.01999,-0.02029,-0.08408,-0.02151,-0.00153,-0.0238,-0.01175,-0.02472,0.00763,-0.01358,-0.01556,0.0,-0.05203
7.9135,-0.01022,-0.04471,-0.01099,-0.00458,-0.01602,-0.08392,-0.01373,0.00092,-0.04166,-0.01068,-0.02151,0.00656,-0.0145,-0.01434,0.00458,-0.05844
7.914,-0.01373,-0.04333,-0.03082,-0.01053,-0.01221,-0.07324,0.00168,0.00397,-0.04303,-0.01175,-0.01953,0.00488,-0.01526,-0.01495,0.00549,-0.05875
7.9145,-0.01602,-0.04364,-0.03754,-0.00244,-0.01282,-0.05783,0.01984,0.00626,-0.03052,-0.01434,-0.01923,0.00305,-0.01526,-0.01633,0.00153,-0.05447
7.915,-0.01648,-0.04456,-0.0383,0.00381,-0.00778,-0.03418,0.02319,0.00702,-0.01587,-0.01404,-0.02121,0.00046,-0.01389,-0.01724,0.00153,-0.04883
7.9155,-0.0148,-0.04379,-0.03784,-0.00061,-0.00793,0.00031,0.00732,0.00671,-0.0058,-0.01114,-0.01938,-0.00183,-0.01221,-0.01648,0.00748,-0.04379
7.916,-0.01526,-0.04196,-0.03906,-0.01373,-0.01068,0.03586,-0.01129,0.00732,-0.00427,-0.00916,-0.01831,-0.00214,-0.01221,-0.01633,0.01053,-0.03983
7.9165,-0.01923,-0.03906,-0.03891,-0.03082,-0.01511,0.04898,-0.01678,0.00793,-0.01251,-0.01007,-0.01801,-0.0029,-0.01541,-0.01663,0.00656,-0.04074
7.917,-0.02304,-0.03754,-0.03677,-0.04395,-0.01694,0.04364,-0.01236,0.01129,-0.02838,-0.01343,-0.01801,-0.00214,-0.01785,-0.01648,0.00198,-0.04669
7.9175,-0.02228,-0.03601,-0.03571,-0.04547,-0.0235,0.04776,-0.01099,0.01587,-0.04623,-0.01526,-0.01892,0.00153,-0.01907,-0.01678,0.00122,-0.05356
7.918,-0.01816,-0.0354,-0.03601,-0.03342,-0.01862,0.06699,-0.01694,0.01801,-0.06088,-0.01587,-0.02441,0.00946,-0.0177,-0.01694,0.0029,-0.056
7.9185,-0.01556,-0.03296,-0.03571,-0.01495,-0.01465,0.06973,-0.02197,0.01648,-0.06973,-0.0174,-0.0267,0.0174,-0.01617,-0.01755,0.00275,-0.05539
7.919,-0.01404,-0.03143,-0.03632,0.00076,-0.01389,0.02899,-0.02472,0.01221,-0.07446,-0.0206,-0.02823,0.02182,-0.01648,-0.01785,0.00183,-0.05417
7.9195,-0.01266,-0.03113,-0.03571,0.00916,-0.0148,-0.03723,-0.02701,0.00641,-0.0705,-0.02396,-0.02747,0.02472,-0.0177,-0.01709,0.00244,-0.05447
7.92,-0.01068,-0.03036,-0.03281,0.00961,-0.01419,-0.10086,-0.02991,0.00076,-0.06012,-0.0238,-0.02518,0.02579,-0.01999,-0.01617,0.00412,-0.056
7.9205,-0.00839,-0.02808,-0.02762,0.00275,-0.01999,-0.15045,-0.03113,-0.0058,-0.05066,-0.02457,-0.02823,0.02182,-0.0209,-0.01465,0.00366,-0.05829
7.921,-0.00595,-0.02609,-0.02716,-0.0116,-0.02731,-0.17578,-0.03036,-0.01144,-0.04562,-0.02426,-0.03021,0.01404,-0.02182,-0.01358,0.0029,-0.05829
7.9215,-0.00626,-0.02869,-0.03281,-0.02731,-0.0322,-0.16357,-0.02518,-0.01556,-0.04364,-0.02472,-0.03021,0.00565,-0.02319,-0.01373,0.00381,-0.05798
7.922,-0.00778,-0.03403,-0.03754,-0.0351,-0.0412,-0.12146,-0.01587,-0.01694,-0.0412,-0.02411,-0.03021,0.00381,-0.02472,-0.01282,0.00565,-0.05692
7.9225,-0.01038,-0.03738,-0.03723,-0.03998,-0.04883,-0.08041,-0.00748,-0.01816,-0.03571,-0.0238,-0.02533,0.00656,-0.02579,-0.01221,0.00595,-0.05524
7.923,-0.01343,-0.03494,-0.0322,-0.0499,-0.05569,-0.06729,-0.01068,-0.01846,-0.03006,-0.02441,-0.02289,0.00717,-0.02457,-0.01297,0.0061,-0.05341
7.9235,-0.01434,-0.03159,-0.02686,-0.06226,-0.05508,-0.06302,-0.02716,-0.01862,-0.0206,-0.02502,-0.02304,0.00076,-0.02335,-0.01404,0.00519,-0.05142
7.924,-0.01099,-0.03098,-0.02274,-0.06485,-0.06012,-0.04944,-0.04807,-0.01831,-0.00839,-0.02655,-0.02167,-0.01007,-0.02335,-0.01511,0.00565,-0.05081
7.9245,-0.00504,-0.03342,-0.02029,-0.05341,-0.05295,-0.01678,-0.06287,-0.01526,0.00427,-0.02487,-0.02213,-0.02243,-0.02411,-0.01511,0.00671,-0.05173
7.925,-0.00107,-0.03632,-0.01953,-0.03525,-0.04959,0.02213,-0.06912,-0.00946,0.0119,-0.02518,-0.02502,-0.03571,-0.02457,-0.0145,0.00809,-0.05081
7.9255,-0.00031,-0.03784,-0.02106,-0.02121,-0.04349,0.04669,-0.06714,-0.00366,0.00916,-0.02716,-0.02533,-0.04547,-0.02533,-0.01511,0.00809,-0.04944
7.926,0.00061,-0.03784,-0.02396,-0.01236,-0.03555,0.03815,-0.05646,-0.00137,-0.0032,-0.03113,-0.02609,-0.04761,-0.02716,-0.01541,0.00809,-0.05066
7.9265,0.00488,-0.03708,-0.02686,-0.00992,-0.0267,0.00031,-0.03967,-0.00259,-0.02411,-0.03265,-0.02808,-0.04135,-0.02792,-0.01617,0.00824,-0.05356
7.927,0.00671,-0.03738,-0.02792,-0.01846,-0.02029,-0.03052,-0.01907,-0.00397,-0.04684,-0.03052,-0.0267,-0.03006,-0.02869,-0.01587,0.00763,-0.05737
7.9275,0.00107,-0.03891,-0.02853,-0.03998,-0.01587,-0.03067,0.00854,-0.00229,-0.06134,-0.0267,-0.02121,-0.01801,-0.02945,-0.01602,0.00702,-0.06149
7.928,-0.00961,-0.04501,-0.02975,-0.06439,-0.01785,-0.00931,0.04272,-0.00015,-0.06134,-0.02502,-0.01419,-0.01099,-0.03052,-0.01678,0.00732,-0.06729
7.9285,-0.01892,-0.05463,-0.03113,-0.07172,-0.01572,0.01755,0.06668,-0.00076,-0.04669,-0.02426,-0.01083,-0.01144,-0.03204,-0.01877,0.00839,-0.0769
7.929,-0.02487,-0.06409,-0.03082,-0.05081,-0.01251,0.05142,0.06409,-0.00168,-0.02975,-0.02563,-0.01099,-0.01404,-0.0325,-0.01801,0.00854,-0.08621
7.9295,-0.02533,-0.07034,-0.02594,-0.02411,-0.01221,0.08728,0.03937,-0.00198,-0.01846,-0.02487,-0.00961,-0.01236,-0.03204,-0.01617,0.00793,-0.08957
7.93,-0.02106,-0.07263,-0.01984,-0.03876,-0.01053,0.09018,0.01801,-0.00153,-0.01328,-0.0238,-0.01114,-0.00458,-0.03143,-0.01511,0.00793,-0.08392
7.9305,-0.01251,-0.06912,-0.01511,-0.10712,-0.01389,0.02426,0.01083,-0.00458,-0.01175,-0.02014,-0.01221,0.00214,-0.03174,-0.01709,0.00763,-0.07309
7.931,-0.00488,-0.06119,-0.0148,-0.18585,-0.01617,-0.07507,0.01022,-0.00732,-0.00946,-0.01495,-0.01099,0.00244,-0.03174,-0.01999,0.00626,-0.06363
7.9315,0.00122,-0.05264,-0.01862,-0.224,-0.01648,-0.12863,0.00885,-0.0061,-0.00702,-0.009,-0.00931,-0.00061,-0.03174,-0.02075,0.00534,-0.05936
7.932,0.00671,-0.05051,-0.02716,-0.22217,-0.0206,-0.11948,0.00565,0.00031,-0.0061,-0.00458,-0.00839,-0.00137,-0.03159,-0.01923,0.00717,-0.05737
7.9325,0.01389,-0.05402,-0.0383,-0.20294,-0.02258,-0.12482,0.0029,0.00732,-0.00885,-0.00061,-0.0058,0.0032,-0.03113,-0.01907,0.009,-0.05783
7.933,0.01831,-0.05737,-0.05188,-0.16205,-0.02777,-0.18112,0.0,0.0087,-0.01801,0.00168,-0.00381,0.00977,-0.03189,-0.02075,0.00946,-0.05768
7.9335,0.01663,-0.05753,-0.06744,-0.09903,-0.03021,-0.21393,-0.0058,0.00183,-0.0322,0.00397,-0.00549,0.01465,-0.03296,-0.02136,0.00854,-0.05676
7.934,0.00931,-0.05417,-0.08469,-0.05615,-0.03189,-0.1619,-0.01389,-0.0061,-0.0444,0.00351,-0.00595,0.01175,-0.03387,-0.0206,0.0087,-0.05478
7.9345,0.00061,-0.04669,-0.09872,-0.056,-0.03006,-0.08942,-0.02304,-0.00946,-0.05066,0.00153,-0.00656,-0.00153,-0.03418,-0.02045,0.00885,-0.05219
7.935,-0.00565,-0.03815,-0.10422,-0.02853,-0.02563,-0.08621,-0.02731,-0.00778,-0.05096,-0.00122,-0.00809,-0.0148,-0.03464,-0.02121,0.0087,-0.05005
7.9355,-0.00809,-0.03052,-0.10468,0.09979,-0.02747,-0.13382,-0.0238,-0.00687,-0.05264,-0.00244,-0.00717,-0.01389,-0.03433,-0.02075,0.00885,-0.04929
7.936,-0.0087,-0.02579,-0.10162,0.2681,-0.02579,-0.14038,-0.01755,-0.01251,-0.05615,-0.00549,-0.0119,0.00259,-0.03372,-0.01831,0.00854,-0.04852
7.9365,-0.01083,-0.02167,-0.09247,0.3096,-0.02457,-0.08286,-0.01801,-0.02136,-0.06119,-0.00916,-0.01434,0.02213,-0.03464,-0.0177,0.00931,-0.04745
7.937,-0.0148,-0.01694,-0.0766,0.15503,-0.0267,-0.02487,-0.0293,-0.02884,-0.06393,-0.01434,-0.01694,0.03677,-0.0351,-0.01938,0.00931,-0.04608
7.9375,-0.01678,-0.01328,-0.06027,-0.06302,-0.02197,-0.01617,-0.03952,-0.03113,-0.05997,-0.01831,-0.01801,0.04807,-0.03555,-0.02121,0.00824,-0.04578
7.938,-0.01297,-0.01495,-0.05112,-0.15808,-0.02411,-0.04074,-0.03815,-0.02838,-0.04425,-0.02228,-0.01602,0.0563,-0.03708,-0.02136,0.00687,-0.04501
7.9385,-0.00763,-0.02304,-0.0444,-0.09201,-0.03036,-0.05966,-0.02808,-0.01938,-0.02014,-0.02502,-0.01266,0.05951,-0.03967,-0.02243,0.00809,-0.04456
7.939,-0.01068,-0.03189,-0.03098,0.02457,-0.02823,-0.05646,-0.02197,-0.00961,0.00183,-0.02762,-0.00824,0.05753,-0.0415,-0.02426,0.00778,-0.0441
7.9395,-0.02518,-0.03479,-0.00839,0.08347,-0.02869,-0.04349,-0.02106,-0.00214,0.0206,-0.02777,-0.00641,0.04776,-0.04211,-0.02411,0.00778,-0.04303
7.94,-0.04074,-0.03006,0.01007,0.0676,-0.03021,-0.03571,-0.02106,-0.00137,0.0386,-0.02716,-0.00565,0.02762,-0.0412,-0.02274,0.00885,-0.04028
7.9405,-0.0441,-0.02411,0.01236,0.01816,-0.02869,-0.03891,-0.01709,-0.00214,0.05844,-0.02655,-0.00809,-0.00381,-0.04013,-0.02029,0.00961,-0.03738
7.941,-0.03769,-0.02319,0.00427,-0.02258,-0.03067,-0.04745,-0.00977,-0.00076,0.0708,-0.02487,-0.01053,-0.04044,-0.04044,-0.02045,0.00992,-0.03662
7.9415,-0.02975,-0.02747,-0.00153,-0.02853,-0.03113,-0.05371,-0.00534,0.00336,0.0705,-0.02335,-0.0119,-0.07233,-0.04089,-0.02243,0.01007,-0.03769
7.942,-0.02686,-0.03067,0.00473,-0.00046,-0.02899,-0.05722,-0.00793,0.00565,0.06073,-0.02274,-0.01236,-0.08881,-0.04318,-0.02396,0.01053,-0.03586
7.9425,-0.02396,-0.02899,0.01968,0.02747,-0.03403,-0.05615,-0.0148,0.00381,0.0499,-0.0238,-0.01465,-0.08392,-0.04288,-0.02319,0.01251,-0.03479
7.943,-0.01526,-0.02441,0.03052,0.02884,-0.03494,-0.0528,-0.01968,0.00046,0.03662,-0.02579,-0.01175,-0.06912,-0.04105,-0.02213,0.01617,-0.0322
7.9435,-0.00366,-0.01999,0.02701,0.02045,-0.03464,-0.04593,-0.02029,0.00015,0.01801,-0.02945,-0.01221,-0.05997,-0.03922,-0.02075,0.01846,-0.03021
7.944,0.00687,-0.01999,0.01038,0.03357,-0.03159,-0.03738,-0.01862,0.00336,-0.00443,-0.03021,-0.0145,-0.05859,-0.03906,-0.02182,0.01633,-0.03067
7.9445,0.01572,-0.02319,-0.00732,0.05493,-0.03006,-0.03021,-0.0177,0.00565,-0.02655,-0.02899,-0.01434,-0.0563,-0.0383,-0.0238,0.01404,-0.03311
7.945,0.02426,-0.0267,-0.02151,0.03296,-0.0293,-0.02899,-0.01678,0.00412,-0.05173,-0.02487,-0.01465,-0.0531,-0.03693,-0.02335,0.01266,-0.03494
7.9455,0.03189,-0.02914,-0.0325,-0.04745,-0.03006,-0.03357,-0.01633,-0.00076,-0.07751,-0.01984,-0.01617,-0.05829,-0.03601,-0.02182,0.01373,-0.03525
7.946,0.03326,-0.03189,-0.04196,-0.12177,-0.02869,-0.0412,-0.01587,-0.00473,-0.09674,-0.01587,-0.01541,-0.05569,-0.03586,-0.02121,0.01221,-0.03464
7.9465,0.02869,-0.03738,-0.05066,-0.11765,-0.02869,-0.04547,-0.01801,-0.00763,-0.09674,-0.01404,-0.0177,-0.01633,-0.03632,-0.02274,0.00961,-0.0354
7.947,0.02136,-0.04608,-0.05722,-0.05371,-0.03082,-0.04868,-0.01999,-0.00778,-0.07797,-0.01282,-0.01648,0.05478,-0.03677,-0.0235,0.00702,-0.03799
7.9475,0.01419,-0.05157,-0.06149,-0.01312,-0.0293,-0.056,-0.01984,-0.00717,-0.05417,-0.01053,-0.01648,0.1001,-0.0354,-0.02228,0.00534,-0.04044
7.948,0.00717,-0.05249,-0.065,-0.03052,-0.02914,-0.06546,-0.01801,-0.00565,-0.04074,-0.00702,-0.0148,0.07355,-0.0325,-0.01999,0.00473,-0.04181
7.9485,-0.00076,-0.05188,-0.065,-0.05981,-0.02792,-0.06851,-0.01617,-0.00519,-0.03632,-0.00183,-0.01175,-0.00183,-0.03113,-0.01923,0.00443,-0.04257
7.949,-0.00671,-0.05112,-0.05768,-0.05508,-0.03159,-0.06088,-0.01511,-0.00244,-0.03357,0.00046,-0.00992,-0.0592,-0.03082,-0.01846,0.00641,-0.04379
7.9495,-0.01007,-0.04791,-0.0412,-0.02716,-0.02975,-0.04776,-0.01404,0.00092,-0.02823,0.00366,-0.009,-0.0589,-0.0296,-0.01678,0.00778,-0.04288
7.95,-0.01038,-0.04303,-0.01785,-0.00824,-0.02869,-0.03952,-0.01328,0.00381,-0.02365,0.00366,-0.00488,-0.02167,-0.02762,-0.01617,0.00809,-0.0412
7.9505,-0.00931,-0.03815,0.00076,-0.00748,-0.02914,-0.0351,-0.01663,0.00351,-0.0235,0.00366,-0.00458,0.01144,-0.02594,-0.01572,0.0058,-0.03845
7.951,-0.00702,-0.03723,0.00137,-0.01022,-0.0267,-0.03067,-0.02319,0.00259,-0.0293,0.00229,-0.00732,0.02914,-0.0238,-0.01434,0.00565,-0.0383
7.9515,-0.00336,-0.03738,-0.02075,-0.009,-0.02213,-0.03281,-0.02975,0.00137,-0.03555,0.00229,-0.01053,0.05066,-0.02045,-0.01312,0.00671,-0.03906
7.952,-0.00015,-0.03784,-0.04639,-0.00717,-0.02213,-0.04303,-0.03235,0.00092,-0.0351,-0.00061,-0.01144,0.08453,-0.01694,-0.01266,0.00809,-0.04059
7.9525,0.00275,-0.03723,-0.05417,-0.00793,-0.02213,-0.05722,-0.03174,0.0,-0.02579,-0.0029,-0.01007,0.10345,-0.01785,-0.01358,0.00854,-0.04028
7.953,0.0058,-0.03632,-0.03769,-0.01099,-0.02136,-0.06607,-0.03113,-0.00046,-0.01114,-0.00641,-0.01099,0.07187,-0.01999,-0.0145,0.00885,-0.03876
7.9535,0.00671,-0.03601,-0.01053,-0.01785,-0.02258,-0.06683,-0.02808,0.00015,-0.00259,-0.01129,-0.00931,-0.00168,-0.0209,-0.0148,0.00931,-0.03647
7.954,0.00641,-0.03769,0.01099,-0.02655,-0.02563,-0.06409,-0.01617,0.00122,-0.00198,-0.01633,-0.00977,-0.06821,-0.0206,-0.01633,0.01007,-0.03647
7.9545,0.00641,-0.03845,0.0119,-0.03311,-0.02533,-0.05783,0.00336,0.00351,-0.0029,-0.01892,-0.0087,-0.09232,-0.01968,-0.01709,0.00824,-0.03708
7.955,0.00687,-0.03555,-0.00641,-0.03357,-0.02609,-0.04593,0.01648,0.00702,-0.00092,-0.01999,-0.00717,-0.08408,-0.01846,-0.01755,0.00809,-0.0383
7.9555,0.00702,-0.02991,-0.02869,-0.02914,-0.03021,-0.02945,0.00809,0.00931,0.00153,-0.02167,-0.00977,-0.06744,-0.01587,-0.0174,0.00732,-0.03799
7.956,0.00534,-0.02899,-0.03891,-0.02426,-0.03174,-0.01251,-0.01312,0.00763,0.00275,-0.02487,-0.01022,-0.05157,-0.01297,-0.01801,0.00717,-0.03738
7.9565,0.00443,-0.03601,-0.0383,-0.02213,-0.03281,0.00031,-0.02716,0.00305,0.00336,-0.0296,-0.00839,-0.04517,-0.01282,-0.01846,0.00687,-0.03693
7.957,0.00381,-0.04517,-0.03586,-0.02121,-0.03342,0.01236,-0.02258,-0.00153,0.00549,-0.03433,-0.00732,-0.06516,-0.01434,-0.01846,0.00702,-0.03708
7.9575,0.00275,-0.04761,-0.0386,-0.01801,-0.03235,0.01755,-0.009,-0.00351,0.00839,-0.03876,-0.00473,-0.10544,-0.01572,-0.0177,0.00793,-0.03769
7.958,-0.00244,-0.04211,-0.04166,-0.00916,-0.03174,0.01099,0.00214,-0.00046,0.00732,-0.0412,-0.00549,-0.13412,-0.01633,-0.01663,0.00885,-0.03845
7.9585,-0.01144,-0.03616,-0.0415,-0.00183,-0.03433,-0.01221,0.00671,0.00412,-0.00092,-0.03983,-0.00977,-0.11841,-0.01617,-0.0174,0.00809,-0.03967
7.959,-0.02197,-0.03128,-0.03952,0.00015,-0.03693,-0.05051,0.00595,0.00458,-0.01419,-0.0383,-0.01236,-0.06439,-0.01602,-0.01801,0.00595,-0.04059
7.9595,-0.0296,-0.02579,-0.03922,-0.00412,-0.04181,-0.09521,0.00076,0.0,-0.02548,-0.0351,-0.01144,-0.01465,-0.01633,-0.01892,0.00519,-0.04013
7.96,-0.03448,-0.01999,-0.04379,-0.00946,-0.04242,-0.12711,-0.00397,-0.0058,-0.02716,-0.03159,-0.01007,-0.00229,-0.0177,-0.01938,0.0061,-0.03876
7.9605,-0.0386,-0.01816,-0.05386,-0.01175,-0.04227,-0.12711,-0.00885,-0.00824,-0.0177,-0.02792,-0.00702,-0.0061,-0.0177,-0.01892,0.00778,-0.03784
7.961,-0.03952,-0.02151,-0.06592,-0.00931,-0.04303,-0.1004,-0.01419,-0.00366,-0.00412,-0.02518,-0.00656,0.02548,-0.01617,-0.01846,0.00839,-0.03738
7.9615,-0.03754,-0.02655,-0.07751,-0.00046,-0.04456,-0.06927,-0.0177,0.00305,0.00458,-0.02213,-0.0058,0.09735,-0.01358,-0.01709,0.00839,-0.03693
7.962,-0.0351,-0.02991,-0.0885,0.01755,-0.04181,-0.04807,-0.0174,0.00595,0.00671,-0.01801,-0.00671,0.14862,-0.01175,-0.0177,0.00763,-0.0386
7.9625,-0.03296,-0.03204,-0.09155,0.03326,-0.03662,-0.03418,-0.01541,0.00397,0.00397,-0.01404,-0.00778,0.13077,-0.01221,-0.02014,0.00778,-0.04135
7.963,-0.02838,-0.03571,-0.08102,0.03006,-0.03113,-0.02045,-0.01556,-0.00015,0.00244,-0.01236,-0.00854,0.06226,-0.01465,-0.02182,0.00839,-0.04379
7.9635,-0.01953,-0.04257,-0.05875,0.00443,-0.0293,-0.01541,-0.01709,-0.0029,0.00351,-0.01144,-0.009,-0.0032,-0.0174,-0.02182,0.00839,-0.04395
7.964,-0.00931,-0.05188,-0.03693,-0.02319,-0.0235,-0.02274,-0.01831,-0.00137,0.00473,-0.0116,-0.00961,-0.04944,-0.01953,-0.0206,0.00824,-0.04364
7.9645,-0.00488,-0.06119,-0.02274,-0.0296,-0.02228,-0.03586,-0.01877,0.00046,0.00595,-0.00961,-0.01114,-0.08743,-0.02121,-0.01907,0.00702,-0.0444
7.965,-0.00626,-0.0679,-0.01373,-0.01892,-0.02289,-0.04715,-0.01999,-0.00412,0.00671,-0.00854,-0.01083,-0.11292,-0.02228,-0.01831,0.00565,-0.04562
7.9655,-0.0058,-0.07294,-0.00778,-0.0119,-0.02411,-0.05173,-0.0238,-0.01144,0.00671,-0.00626,-0.01129,-0.11017,-0.02289,-0.0177,0.00458,-0.04486
7.966,0.00153,-0.07645,0.00031,-0.01907,-0.02197,-0.04623,-0.02899,-0.01404,0.00687,-0.00336,-0.01221,-0.08392,-0.02411,-0.01862,0.00473,-0.04349
7.9665,0.0145,-0.07675,0.00641,-0.03067,-0.01831,-0.03525,-0.03204,-0.01038,0.0058,-0.00076,-0.01617,-0.05402,-0.02502,-0.01999,0.00595,-0.04425
7.967,0.02899,-0.07278,0.00687,-0.0383,-0.01755,-0.02167,-0.0296,-0.00549,0.00458,0.00031,-0.0177,-0.02472,-0.02686,-0.02167,0.00656,-0.04623
7.9675,0.04227,-0.06439,0.00198,-0.04517,-0.01633,-0.00732,-0.0238,-0.00595,0.0029,-0.00107,-0.01785,0.01282,-0.02777,-0.02167,0.00595,-0.04684
7.968,0.05295,-0.05554,-0.00214,-0.05692,-0.01755,0.01205,-0.01968,-0.01328,0.00488,-0.00656,-0.01892,0.05371,-0.02808,-0.02045,0.0058,-0.04471
7.9685,0.05432,-0.04807,-0.01129,-0.06271,-0.02228,0.01556,-0.02274,-0.02487,0.01053,-0.01282,-0.01846,0.07584,-0.02747,-0.02029,0.00565,-0.04135
7.969,0.04059,-0.04318,-0.02808,-0.0473,-0.02197,-0.02304,-0.02945,-0.03799,0.0206,-0.01892,-0.01877,0.06409,-0.02747,-0.0206,0.00717,-0.03891
7.9695,0.02106,-0.04227,-0.04761,-0.02243,-0.02335,-0.08469,-0.03189,-0.0444,0.03311,-0.02304,-0.0206,0.03311,-0.02823,-0.01999,0.00809,-0.03754
7.97,0.01236,-0.04333,-0.06012,-0.02701,-0.02792,-0.09964,-0.02396,-0.03983,0.04517,-0.0264,-0.01907,0.0238,-0.02884,-0.01938,0.00916,-0.03647
7.9705,0.01785,-0.04379,-0.06012,-0.07828,-0.02823,-0.0444,-0.01022,-0.02625,0.0528,-0.03098,-0.01816,0.05676,-0.03113,-0.01801,0.00977,-0.03677
7.971,0.02533,-0.0412,-0.0499,-0.13763,-0.0325,0.02106,0.00229,-0.01129,0.05554,-0.0383,-0.01694,0.09354,-0.03326,-0.01831,0.00931,-0.03708
7.9715,0.02197,-0.03876,-0.03738,-0.15015,-0.03082,0.03464,0.00595,-0.00198,0.05356,-0.04654,-0.01938,0.08148,-0.03433,-0.01892,0.00916,-0.03632
7.972,0.0087,-0.0386,-0.02792,-0.10025,-0.03143,0.00458,-0.00153,-0.00031,0.04776,-0.05386,-0.02167,0.02869,-0.03342,-0.01892,0.00778,-0.03555
7.9725,-0.00565,-0.04181,-0.02396,-0.01312,-0.02991,-0.02029,-0.0145,0.00061,0.0383,-0.05737,-0.02243,-0.00824,-0.03204,-0.01953,0.00626,-0.03647
7.973,-0.01358,-0.04837,-0.02411,0.08255,-0.03189,-0.02777,-0.02563,0.0058,0.02563,-0.05188,-0.01877,-0.00153,-0.0322,-0.02106,0.00519,-0.03891
7.9735,-0.01846,-0.05676,-0.02518,0.15518,-0.03357,-0.03998,-0.03113,0.01114,0.01312,-0.03967,-0.01328,0.01862,-0.03479,-0.02136,0.0061,-0.04105
7.974,-0.02258,-0.06485,-0.02441,0.15823,-0.03357,-0.08224,-0.03311,0.00778,0.00046,-0.02441,-0.00793,0.0238,-0.03693,-0.0209,0.00809,-0.04105
7.9745,-0.02869,-0.06424,-0.02686,0.08133,-0.03464,-0.14572,-0.02899,-0.00504,-0.01495,-0.01541,-0.00717,0.01617,-0.03723,-0.01968,0.00748,-0.03983
7.975,-0.03586,-0.05661,-0.03235,-0.0174,-0.03769,-0.19272,-0.01831,-0.02029,-0.03174,-0.01266,-0.00717,0.01251,-0.03708,-0.01953,0.00763,-0.03891
7.9755,-0.03952,-0.04547,-0.04196,-0.06485,-0.03967,-0.17944,-0.00641,-0.02899,-0.0499,-0.01328,-0.00671,0.01312,-0.03784,-0.01938,0.00824,-0.04013
7.976,-0.0354,-0.03403,-0.05173,-0.04288,-0.03876,-0.10635,-0.00198,-0.02731,-0.06821,-0.01434,-0.00687,0.00916,-0.03998,-0.02029,0.009,-0.04089
7.9765,-0.02609,-0.02228,-0.05463,0.00381,-0.03571,-0.01175,-0.00366,-0.01953,-0.08408,-0.01434,-0.00961,0.00107,-0.04272,-0.0209,0.009,-0.04059
7.977,-0.01617,-0.009,-0.04959,0.02808,-0.03555,0.05798,-0.00534,-0.0119,-0.09262,-0.01358,-0.01465,-0.00351,-0.04379,-0.02167,0.00824,-0.03952
7.9775,-0.00946,0.00183,-0.04501,0.02304,-0.0354,0.09354,-0.00336,-0.009,-0.09201,-0.01526,-0.01587,-0.00351,-0.04379,-0.02335,0.00809,-0.04044
7.978,-0.00519,0.00961,-0.0499,0.0145,-0.03281,0.10147,0.00168,-0.00793,-0.08713,-0.0209,-0.01648,-0.0029,-0.04318,-0.02426,0.00809,-0.04181
7.9785,-0.00366,0.01266,-0.06424,0.01923,-0.03128,0.0882,0.00336,-0.00641,-0.08057,-0.02838,-0.0177,-0.00366,-0.04349,-0.02365,0.00854,-0.04303
7.979,-0.00305,0.01083,-0.07965,0.03098,-0.02991,0.06042,0.00031,-0.00381,-0.07141,-0.03601,-0.01907,0.0,-0.04333,-0.02258,0.00916,-0.04181
7.9795,-0.00015,0.00412,-0.09018,0.0386,-0.03098,0.02243,-0.00381,-0.00076,-0.05844,-0.04074,-0.02075,0.00946,-0.04181,-0.02106,0.0087,-0.04089
7.98,0.01007,-0.00214,-0.09109,0.04181,-0.0322,-0.04623,-0.00641,0.00061,-0.04501,-0.0415,-0.02014,0.01923,-0.04013,-0.02075,0.01007,-0.04211
7.9805,0.02045,-0.0061,-0.08148,0.04089,-0.03418,-0.16174,-0.00717,0.00107,-0.03174,-0.04089,-0.01984,0.02335,-0.04013,-0.02167,0.0116,-0.04318
7.981,0.02106,-0.00854,-0.06775,0.03113,-0.03815,-0.2858,-0.01068,0.00198,-0.02274,-0.04059,-0.01862,0.02274,-0.04028,-0.02167,0.01297,-0.04242
7.9815,0.0145,-0.01495,-0.06058,0.00824,-0.04227,-0.32852,-0.02045,0.00473,-0.01938,-0.04349,-0.01755,0.02304,-0.04089,-0.02213,0.01053,-0.0386
7.982,0.01038,-0.02274,-0.06012,-0.01556,-0.0412,-0.2449,-0.03281,0.00824,-0.0209,-0.04318,-0.01724,0.0235,-0.04089,-0.02243,0.00763,-0.03555
7.9825,0.01007,-0.02655,-0.0621,-0.01999,-0.03754,-0.1088,-0.04089,0.01022,-0.02365,-0.0383,-0.01556,0.02304,-0.04074,-0.02228,0.00565,-0.03784
7.983,0.00809,-0.02457,-0.05966,0.00061,-0.03906,-0.02777,-0.0441,0.01053,-0.02472,-0.03296,-0.01282,0.0209,-0.04013,-0.02136,0.00641,-0.04593
7.9835,-0.00015,-0.01999,-0.05646,0.03189,-0.03754,-0.02625,-0.04318,0.00809,-0.02228,-0.03036,-0.01389,0.02014,-0.04028,-0.02045,0.01007,-0.05157
7.984,-0.01389,-0.01907,-0.056,0.0499,-0.03891,-0.05035,-0.04456,0.00519,-0.01724,-0.02975,-0.01434,0.01968,-0.04211,-0.02014,0.01114,-0.04913
7.9845,-0.02579,-0.0235,-0.05615,0.04608,-0.03738,-0.05463,-0.04745,0.00214,-0.009,-0.02838,-0.01709,0.02014,-0.04486,-0.01984,0.01221,-0.0415
7.985,-0.03006,-0.03189,-0.05142,0.02304,-0.03525,-0.04364,-0.04547,0.00153,-0.00046,-0.02594,-0.01938,0.01938,-0.04562,-0.01938,0.01129,-0.03372
7.9855,-0.02289,-0.0412,-0.03784,-0.01083,-0.03418,-0.03616,-0.02533,0.0032,0.00519,-0.02075,-0.01862,0.01816,-0.04501,-0.01923,0.00931,-0.02533
7.986,-0.00656,-0.05066,-0.02121,-0.03738,-0.03235,-0.04135,0.01236,0.00473,0.00549,-0.01404,-0.01694,0.01816,-0.04303,-0.01923,0.00793,-0.01587
7.9865,0.0087,-0.05981,-0.00732,-0.04395,-0.03098,-0.04868,0.04715,0.00473,0.00153,-0.00702,-0.01282,0.0174,-0.04211,-0.01999,0.00717,-0.01663
7.987,0.01404,-0.06866,-0.00061,-0.02884,-0.03098,-0.05646,0.05081,0.00229,-0.00122,-0.00397,-0.01343,0.0148,-0.04196,-0.02182,0.00595,-0.03754
7.9875,0.01068,-0.0769,-0.00137,-0.01038,-0.0325,-0.06577,0.02502,-0.00183,-0.00046,-0.00275,-0.01114,0.01297,-0.04257,-0.02136,0.00412,-0.06821
7.988,0.00366,-0.08301,-0.01236,-0.00565,-0.03357,-0.07706,-0.00031,-0.00717,0.00183,-0.00183,-0.01022,0.0119,-0.04288,-0.01999,0.00427,-0.08224
7.9885,0.00031,-0.08408,-0.02625,-0.01144,-0.03372,-0.09537,-0.0032,-0.01114,0.00397,-0.00183,-0.01083,0.01068,-0.04364,-0.01877,0.00595,-0.07141
7.989,-0.00122,-0.08087,-0.03616,-0.01389,-0.03418,-0.11215,0.00732,-0.01038,0.00336,-0.00351,-0.00931,0.00778,-0.04456,-0.01968,0.00839,-0.05295
7.9895,-0.00336,-0.07477,-0.03754,-0.00595,-0.03708,-0.10162,0.01038,-0.00595,0.00061,-0.00809,-0.00839,0.00687,-0.04318,-0.01984,0.00916,-0.04425
7.99,-0.00519,-0.06943,-0.03677,0.00366,-0.03891,-0.07172,0.00046,0.00046,-0.00305,-0.01099,-0.00748,0.00732,-0.0412,-0.01877,0.00961,-0.04425
7.9905,-0.00427,-0.06546,-0.03922,0.01053,-0.03815,-0.03403,-0.01144,0.00351,-0.01038,-0.01297,-0.009,0.00839,-0.03922,-0.0174,0.01007,-0.04196
7.991,-0.00122,-0.06104,-0.0444,0.0119,-0.03525,-0.00824,-0.0145,0.00305,-0.0238,-0.01221,-0.00931,0.00748,-0.03906,-0.01694,0.01038,-0.02762
7.9915,0.00137,-0.05585,-0.0473,0.00916,-0.03204,0.00977,-0.01068,0.00229,-0.03937,-0.01358,-0.01297,0.00671,-0.04013,-0.01694,0.01205,-0.00732
7.992,0.0029,-0.04852,-0.047,0.00397,-0.03082,0.0119,-0.00702,0.00366,-0.05264,-0.01709,-0.01236,0.00687,-0.04074,-0.01663,0.01099,-0.00107
7.9925,0.00137,-0.03983,-0.04425,0.00092,-0.03113,0.00504,-0.00809,0.00626,-0.05692,-0.02121,-0.01648,0.00702,-0.04089,-0.01694,0.00946,-0.02014
7.993,-0.00092,-0.03082,-0.03723,0.00565,-0.03021,0.00916,-0.01297,0.00656,-0.05173,-0.02304,-0.01724,0.00458,-0.04135,-0.01709,0.00626,-0.05295
7.9935,-0.00153,-0.02609,-0.02563,0.01617,-0.02808,0.03281,-0.01663,0.00473,-0.03922,-0.02457,-0.01602,0.00061,-0.04272,-0.01907,0.00458,-0.07233
7.994,0.0032,-0.02563,-0.01129,0.02869,-0.02731,0.05432,-0.01755,0.00015,-0.02533,-0.02701,-0.01541,-0.00122,-0.04517,-0.0209,0.00443,-0.07172
7.9945,0.00885,-0.03021,0.00122,0.04105,-0.0267,0.05341,-0.01663,-0.0061,-0.01312,-0.02945,-0.01602,-0.00092,-0.04578,-0.02243,0.00549,-0.07416
7.995,0.01083,-0.03937,0.00931,0.05173,-0.0264,0.03357,-0.01617,-0.01129,-0.00626,-0.02899,-0.0177,0.0,-0.04456,-0.02182,0.00519,-0.10162
7.9955,0.00793,-0.05188,0.01205,0.05661,-0.02701,0.00275,-0.01587,-0.01205,-0.00488,-0.02762,-0.01862,0.00046,-0.04379,-0.02106,0.00351,-0.13977
7.996,0.00443,-0.06302,0.00961,0.04944,-0.02747,-0.05157,-0.0148,-0.01068,-0.00961,-0.02579,-0.01953,0.00015,-0.04349,-0.0206,0.00504,-0.1503
7.9965,0.00229,-0.07034,0.00732,0.03021,-0.03082,-0.12009,-0.0148,-0.00702,-0.01572,-0.02594,-0.01633,0.00046,-0.04364,-0.01984,0.00626,-0.11963
7.997,0.00015,-0.07172,0.00381,0.00671,-0.03296,-0.16388,-0.01694,-0.00412,-0.02045,-0.02625,-0.01297,0.00061,-0.04349,-0.01923,0.00671,-0.07523
7.9975,-0.00717,-0.07111,-0.00687,-0.01633,-0.03433,-0.14847,-0.02487,-0.00366,-0.02258,-0.02441,-0.01022,-0.00046,-0.04333,-0.01984,0.00473,-0.04883
7.998,-0.01785,-0.06989,-0.02243,-0.04028,-0.03265,-0.08514,-0.03754,-0.00778,-0.02319,-0.02106,-0.00641,-0.00092,-0.04364,-0.02014,0.00351,-0.04028
7.9985,-0.0293,-0.06561,-0.03494,-0.07065,-0.0325,-0.02136,-0.05249,-0.01175,-0.01999,-0.01907,-0.00641,-0.00168,-0.04395,-0.02029,0.00504,-0.02213
7.999,-0.03632,-0.05875,-0.03754,-0.09933,-0.03296,0.009,-0.06317,-0.01175,-0.01266,-0.01556,-0.00732,-0.00137,-0.04395,-0.02014,0.00641,0.01053
7.9995,-0.03708,-0.05081,-0.03387,-0.09827,-0.03204,0.00854,-0.06256,-0.00641,-0.00351,-0.01205,-0.00809,0.0,-0.04257,-0.01923,0.00839,0.02594
8.0,-0.03204,-0.04639,-0.03174,-0.04868,-0.02991,-0.00793,-0.05264,0.00031,0.00412,-0.00717,-0.00916,0.00092,-0.04105,-0.01785,0.01053,0.00473
8.0005,-0.02777,-0.04501,-0.03342,0.02258,-0.03021,-0.04303,-0.03647,0.00412,0.00916,-0.00488,-0.00885,0.00153,-0.04089,-0.01694,0.01022,-0.02808
8.001,-0.02945,-0.04456,-0.03555,0.05768,-0.03174,-0.0853,-0.01129,0.00519,0.00977,-0.00565,-0.00916,0.00107,-0.04196,-0.01663,0.00916,-0.04059
8.0015,-0.03204,-0.04196,-0.03586,0.02853,-0.03235,-0.09933,0.0206,0.00534,0.00748,-0.00885,-0.00977,-0.00046,-0.04379,-0.01785,0.00961,-0.03845
8.002,-0.02747,-0.03845,-0.03098,-0.04013,-0.03174,-0.07553,0.04745,0.00366,0.00214,-0.01205,-0.01114,-0.00092,-0.04456,-0.01907,0.01083,-0.04135
8.0025,-0.01617,-0.03601,-0.01465,-0.10605,-0.02884,-0.06378,0.04623,-0.00259,-0.00458,-0.01511,-0.01038,-0.00168,-0.04486,-0.01923,0.01328,-0.03891
8.003,-0.00534,-0.0351,0.009,-0.15076,-0.02853,-0.10284,0.01907,-0.01175,-0.01328,-0.01724,-0.01129,-0.00168,-0.04456,-0.01938,0.01511,-0.01007
8.0035,-0.00366,-0.03098,0.01984,-0.16586,-0.0296,-0.16312,-0.00885,-0.01816,-0.0235,-0.01923,-0.01068,-0.00137,-0.04501,-0.02045,0.01511,0.02853
8.004,-0.00946,-0.02457,0.00397,-0.12604,-0.0293,-0.16571,-0.01801,-0.01953,-0.03143,-0.02243,-0.01083,-0.00107,-0.04578,-0.0209,0.0148,0.0412
8.0045,-0.01648,-0.01785,-0.0267,-0.01953,-0.0267,-0.08911,-0.01526,-0.01541,-0.03174,-0.02762,-0.01358,-0.00076,-0.04654,-0.02228,0.01251,0.02106
8.005,-0.0209,-0.01617,-0.04883,0.103,-0.02563,0.00702,-0.01602,-0.0087,-0.02243,-0.03525,-0.01816,-0.00122,-0.0473,-0.02228,0.009,0.00076
8.0055,-0.01907,-0.01953,-0.0499,0.15762,-0.02426,0.03937,-0.01984,-0.00107,-0.01114,-0.03998,-0.02136,-0.00214,-0.04608,-0.02197,0.00641,-0.00107
8.006,-0.01038,-0.02411,-0.04089,0.11978,-0.02167,0.01801,-0.02167,0.00473,-0.00336,-0.04349,-0.02319,-0.00336,-0.04578,-0.02167,0.00381,-0.00504
8.0065,0.00076,-0.02686,-0.0354,0.04959,-0.02151,-0.00504,-0.02167,0.00763,-0.00229,-0.04288,-0.02258,-0.00381,-0.04501,-0.01907,0.00259,-0.02625
8.007,0.00519,-0.02792,-0.03448,0.00381,-0.0235,-0.0087,-0.02136,0.00763,-0.00427,-0.04074,-0.02075,-0.00473,-0.04425,-0.01617,0.00397,-0.0528
8.0075,0.00153,-0.0296,-0.03265,-0.01984,-0.02701,-0.00046,-0.02228,0.00565,-0.00626,-0.03571,-0.01694,-0.00549,-0.04257,-0.01373,0.00671,-0.06393
8.008,-0.00595,-0.03433,-0.02884,-0.0444,-0.02991,-0.00626,-0.02182,0.00061,-0.00702,-0.02884,-0.01541,-0.00473,-0.03967,-0.01328,0.00793,-0.06195
8.0085,-0.00977,-0.04135,-0.02533,-0.06592,-0.02945,-0.01328,-0.01953,-0.00519,-0.00854,-0.02609,-0.01343,-0.00305,-0.03845,-0.01251,0.00885,-0.05844
8.009,-0.01083,-0.04822,-0.02808,-0.07217,-0.02884,-0.01816,-0.0174,-0.00885,-0.01114,-0.02426,-0.01434,-0.00107,-0.03937,-0.01068,0.00961,-0.05463
8.0095,-0.01083,-0.0528,-0.0354,-0.06897,-0.02884,-0.01877,-0.01724,-0.0087,-0.01572,-0.02289,-0.01297,0.00015,-0.03891,-0.01007,0.01129,-0.04608
8.01,-0.01038,-0.05676,-0.04303,-0.06805,-0.0293,-0.01266,-0.0206,-0.00458,-0.02167,-0.01831,-0.01038,0.00061,-0.03754,-0.01053,0.01312,-0.03387
8.0105,-0.00519,-0.06241,-0.04791,-0.0618,-0.03067,0.00504,-0.02838,-0.00031,-0.02686,-0.01434,-0.00702,0.0,-0.03677,-0.01251,0.01099,-0.02304
8.011,0.0029,-0.06897,-0.05478,-0.0296,-0.03036,0.02289,-0.03967,-0.00122,-0.02731,-0.01297,-0.00763,-0.00122,-0.03723,-0.01465,0.00671,-0.01923
8.0115,0.00961,-0.07294,-0.06287,0.02197,-0.02747,0.02686,-0.05081,-0.00549,-0.02289,-0.01434,-0.00702,-0.0032,-0.03876,-0.01511,0.00214,-0.01984
8.012,0.01068,-0.0737,-0.06851,0.05585,-0.02701,0.01053,-0.05569,-0.01205,-0.0177,-0.01328,-0.00809,-0.00519,-0.03983,-0.01511,-0.00061,-0.02625
8.0125,0.00763,-0.07126,-0.06638,0.04761,-0.02869,-0.01572,-0.05386,-0.01556,-0.01541,-0.01312,-0.00946,-0.00443,-0.04044,-0.01602,-0.00031,-0.0354
8.013,0.00381,-0.0679,-0.05692,0.01633,-0.03128,-0.0531,-0.04929,-0.01328,-0.0148,-0.01328,-0.01114,-0.00259,-0.04074,-0.01801,0.00137,-0.04333
8.0135,0.00046,-0.06332,-0.04715,0.00015,-0.03311,-0.11215,-0.0473,-0.00702,-0.01511,-0.01373,-0.01511,-0.00153,-0.03998,-0.01923,0.00397,-0.04684
8.014,-0.00275,-0.05676,-0.04257,0.00473,-0.03525,-0.18677,-0.04745,-0.00183,-0.0148,-0.0148,-0.01602,-0.00214,-0.03799,-0.01984,0.00702,-0.04547
