time,RectFemL,VastusMedL,VastusLatL,TibAntL,HamMedL,HamLatL,GastroMedL,GastroLatL,RectFemR,VastusMedR,VastusLatR,TibAntR,HamMedR,HamLatR,GastroMedR,GastroLatR
6.4,-0.00916,-0.02945,-0.09201,-0.01907,-0.03418,-0.04562,-0.01526,-0.00046,-0.04044,0.01404,-0.03616,0.03494,0.00519,-0.01801,0.04456,-0.04044
6.4005,-0.01404,-0.03082,-0.03357,-0.02213,-0.03983,-0.04776,-0.01114,0.00061,-0.02243,0.00778,-0.04044,0.03952,0.00534,-0.02014,0.05035,-0.04196
6.401,-0.01938,-0.03616,0.02106,-0.02579,-0.04257,-0.04379,-0.00793,0.00137,-0.01297,-0.00443,-0.03815,0.02258,-0.00275,-0.01968,0.03586,-0.04333
6.4015,-0.02213,-0.04181,0.05035,-0.02838,-0.04196,-0.03433,-0.009,0.00092,-0.01053,-0.01373,-0.03403,0.00336,-0.01282,-0.01785,0.00244,-0.0412
6.402,-0.01968,-0.04395,0.03891,-0.0296,-0.03876,-0.02609,-0.01434,0.00061,-0.01266,-0.01236,-0.02792,0.00946,-0.02792,-0.01709,-0.0351,-0.03372
6.4025,-0.01602,-0.04211,-0.00992,-0.0296,-0.03311,-0.02258,-0.01816,-0.00122,-0.01465,-0.00336,-0.01999,0.04517,-0.05325,-0.01724,-0.05692,-0.02411
6.403,-0.01343,-0.04105,-0.06485,-0.02884,-0.02701,-0.0264,-0.01999,-0.00275,-0.01526,0.00565,-0.0116,0.0885,-0.07721,-0.01755,-0.05264,-0.01755
6.4035,-0.0119,-0.04181,-0.08636,-0.0267,-0.02304,-0.03586,-0.02167,-0.0029,-0.01465,0.0058,-0.00626,0.10788,-0.08316,-0.01709,-0.03281,-0.01923
6.404,-0.00931,-0.04379,-0.06439,-0.02686,-0.02411,-0.04532,-0.02762,-0.00244,-0.01389,0.0,-0.00565,0.0946,-0.06821,-0.01633,-0.01633,-0.02686
6.4045,-0.00443,-0.04501,-0.02197,-0.03128,-0.02563,-0.05234,-0.03342,-0.00305,-0.01328,-0.00565,-0.009,0.06668,-0.05188,-0.0145,-0.01099,-0.03448
6.405,-0.00015,-0.04486,0.009,-0.0383,-0.0264,-0.06516,-0.03174,-0.00366,-0.01297,-0.009,-0.01022,0.04196,-0.04562,-0.01419,-0.0058,-0.03983
6.4055,0.00305,-0.04486,0.01419,-0.04166,-0.02579,-0.08514,-0.01907,-0.00397,-0.01205,-0.01129,-0.00946,0.01801,-0.04059,-0.01663,0.00717,-0.0444
6.406,0.00656,-0.04456,0.00488,-0.03906,-0.02396,-0.09186,-0.00397,-0.00427,-0.01175,-0.01328,-0.00732,-0.01266,-0.02594,-0.02029,0.02029,-0.04883
6.4065,0.0119,-0.04547,-0.00427,-0.03021,-0.02243,-0.06927,-0.00107,-0.00427,-0.0119,-0.01663,-0.00595,-0.04471,-0.00793,-0.02411,0.01862,-0.05508
6.407,0.01923,-0.04623,-0.00595,-0.02136,-0.02151,-0.02853,-0.01205,-0.00565,-0.01312,-0.02045,-0.00778,-0.0647,0.00168,-0.02747,0.00259,-0.06149
6.4075,0.02518,-0.04562,-0.00046,-0.01587,-0.02136,-0.00046,-0.0235,-0.00748,-0.01465,-0.0238,-0.01083,-0.06638,0.00275,-0.02792,-0.0032,-0.06409
6.408,0.02884,-0.04471,0.00885,-0.01373,-0.02441,0.00076,-0.02304,-0.00763,-0.01495,-0.02304,-0.01266,-0.05936,0.00549,-0.0264,0.01434,-0.06332
6.4085,0.02686,-0.04593,0.0177,-0.01419,-0.02899,-0.01968,-0.0148,-0.00626,-0.0145,-0.01877,-0.01297,-0.0528,0.01175,-0.0238,0.03784,-0.0589
6.409,0.01801,-0.04822,0.01984,-0.01511,-0.03494,-0.04959,-0.01144,-0.00412,-0.0145,-0.01495,-0.01404,-0.05051,0.01038,-0.02258,0.04028,-0.05203
6.4095,0.00534,-0.0502,0.00946,-0.01297,-0.04059,-0.07706,-0.01129,-0.00244,-0.01419,-0.01358,-0.01465,-0.04807,-0.00595,-0.02014,0.0267,-0.04364
6.41,-0.00519,-0.05051,-0.00854,-0.00397,-0.04349,-0.09338,-0.01144,-0.00214,-0.01389,-0.01648,-0.01465,-0.03922,-0.02991,-0.01724,0.0174,-0.04074
6.4105,-0.00748,-0.05112,-0.02502,0.00641,-0.03906,-0.09048,-0.01434,-0.00412,-0.01465,-0.02243,-0.01343,-0.0238,-0.05295,-0.01495,0.01511,-0.04242
6.411,-0.00427,-0.05157,-0.03326,0.00931,-0.0296,-0.06729,-0.02533,-0.00534,-0.01526,-0.02655,-0.01221,-0.00336,-0.07202,-0.01572,0.01389,-0.04608
6.4115,-0.00015,-0.05051,-0.0354,0.00031,-0.01877,-0.0354,-0.03967,-0.00641,-0.01587,-0.02426,-0.01068,0.01266,-0.08881,-0.01801,0.01663,-0.04807
6.412,0.00092,-0.04761,-0.03677,-0.01541,-0.01205,-0.00916,-0.04562,-0.00641,-0.01526,-0.01312,-0.00916,0.02502,-0.09293,-0.01816,0.02426,-0.04974
6.4125,0.00031,-0.04623,-0.03845,-0.03113,-0.01205,0.00031,-0.03906,-0.0058,-0.01404,-0.00122,-0.00519,0.03265,-0.07156,-0.01663,0.02487,-0.05096
6.413,-0.00259,-0.04944,-0.03754,-0.0415,-0.01877,-0.00641,-0.02686,-0.00534,-0.01404,0.00427,-0.0029,0.0325,-0.03616,-0.0148,0.01007,-0.05447
6.4135,-0.00671,-0.05798,-0.03479,-0.0415,-0.03067,-0.0238,-0.01587,-0.00488,-0.01495,0.00153,-0.00534,0.02319,-0.01282,-0.01633,-0.01389,-0.05981
6.414,-0.00931,-0.0676,-0.03143,-0.03372,-0.04486,-0.04135,-0.01053,-0.00458,-0.01709,-0.00412,-0.0119,0.00977,-0.01633,-0.02121,-0.03769,-0.06592
6.4145,-0.00961,-0.07004,-0.03067,-0.02655,-0.05585,-0.05005,-0.01343,-0.0058,-0.01709,-0.00687,-0.01801,-0.00748,-0.03571,-0.02686,-0.05356,-0.06729
6.415,-0.00931,-0.06287,-0.03204,-0.02319,-0.05966,-0.04868,-0.02869,-0.0061,-0.01633,-0.00778,-0.01968,-0.02441,-0.05447,-0.03021,-0.05554,-0.05814
6.4155,-0.00809,-0.04944,-0.03738,-0.02014,-0.05493,-0.04303,-0.04959,-0.00641,-0.0174,-0.00977,-0.01877,-0.02777,-0.06668,-0.03128,-0.03769,-0.03738
6.416,-0.00763,-0.03571,-0.04242,-0.01236,-0.04501,-0.04028,-0.06409,-0.00473,-0.01923,-0.01358,-0.01892,-0.00824,-0.06866,-0.02945,-0.00214,-0.01511
6.4165,-0.00687,-0.02472,-0.04578,-0.00366,-0.03662,-0.04028,-0.06409,-0.00381,-0.0206,-0.01709,-0.02029,0.01968,-0.06363,-0.02472,0.01785,-0.00565
6.417,-0.00778,-0.01831,-0.04745,-0.00046,-0.0322,-0.04181,-0.05112,-0.00443,-0.01907,-0.01984,-0.02045,0.03448,-0.0592,-0.02029,-0.009,-0.01358
6.4175,-0.01083,-0.01648,-0.04837,-0.00122,-0.03189,-0.04181,-0.02884,-0.00641,-0.01663,-0.02289,-0.01999,0.02869,-0.05569,-0.01831,-0.07187,-0.02777
6.418,-0.01419,-0.01831,-0.04944,-0.00259,-0.03281,-0.04181,-0.00214,-0.00702,-0.01678,-0.0267,-0.0238,0.00793,-0.0528,-0.01846,-0.11948,-0.03876
6.4185,-0.0148,-0.02548,-0.05142,-0.00229,-0.03189,-0.04196,0.0238,-0.00595,-0.0177,-0.0322,-0.02899,-0.01404,-0.04913,-0.01831,-0.11047,-0.04272
6.419,-0.0145,-0.03708,-0.0531,-0.00381,-0.03174,-0.04181,0.04822,-0.00458,-0.01785,-0.03448,-0.03204,-0.02686,-0.04639,-0.0174,-0.03815,-0.04303
6.4195,-0.01373,-0.04883,-0.05402,-0.00763,-0.03036,-0.04181,0.06439,-0.00412,-0.0177,-0.03296,-0.03082,-0.02533,-0.0473,-0.01678,0.07385,-0.04333
6.42,-0.01129,-0.05524,-0.05356,-0.00977,-0.0296,-0.04303,0.06134,-0.00412,-0.01892,-0.03052,-0.02792,-0.01877,-0.05005,-0.01648,0.17303,-0.04532
6.4205,-0.00778,-0.05737,-0.05264,-0.00977,-0.02762,-0.04349,0.03891,-0.00504,-0.01938,-0.02914,-0.02304,-0.02167,-0.04868,-0.01663,0.20721,-0.04883
6.421,-0.00443,-0.05859,-0.05066,-0.00839,-0.02823,-0.03723,0.02014,-0.00534,-0.01678,-0.0264,-0.0148,-0.03174,-0.03952,-0.01678,0.17166,-0.04974
6.4215,-0.00519,-0.05783,-0.0499,-0.00763,-0.03021,-0.0145,0.01541,-0.00473,-0.01297,-0.02075,-0.00824,-0.03067,-0.02792,-0.01755,0.10956,-0.04669
6.422,-0.00778,-0.05371,-0.05112,-0.00656,-0.0354,0.01923,0.01633,-0.00366,-0.00931,-0.01663,-0.00717,-0.00656,-0.0177,-0.01831,0.06607,-0.04181
6.4225,-0.01221,-0.04517,-0.05341,-0.00458,-0.03983,0.0415,0.00732,-0.00229,-0.00641,-0.01694,-0.01144,0.02472,-0.00946,-0.01892,0.05585,-0.03937
6.423,-0.01541,-0.03754,-0.05341,-0.00366,-0.04135,0.03876,-0.00824,-0.00107,-0.00336,-0.02136,-0.01709,0.03998,-0.00153,-0.01694,0.06226,-0.04074
6.4235,-0.01755,-0.03448,-0.0502,-0.00519,-0.03815,0.01862,-0.01953,-0.00153,-0.00153,-0.02686,-0.02014,0.03082,0.00305,-0.01526,0.05768,-0.04333
6.424,-0.01709,-0.03418,-0.04486,-0.00885,-0.03372,-0.00702,-0.0206,-0.00214,-0.00214,-0.0322,-0.02243,0.01373,0.00336,-0.01663,0.0354,-0.04547
6.4245,-0.01328,-0.03113,-0.04059,-0.0119,-0.03113,-0.05051,-0.01816,-0.00183,-0.00488,-0.03647,-0.02502,0.00687,-0.00183,-0.02045,0.01282,-0.04761
6.425,-0.00839,-0.02716,-0.03937,-0.01297,-0.03174,-0.13626,-0.01984,-0.00183,-0.00626,-0.03738,-0.02823,0.00854,-0.00824,-0.02365,0.00488,-0.05188
6.4255,-0.00626,-0.02625,-0.03815,-0.01328,-0.03479,-0.23529,-0.02197,-0.00259,-0.00595,-0.03479,-0.02991,0.00595,-0.01495,-0.02365,0.00671,-0.06088
6.426,-0.00626,-0.03067,-0.03616,-0.01236,-0.0351,-0.26352,-0.02167,-0.00488,-0.00473,-0.02945,-0.03036,-0.00031,-0.02045,-0.02151,0.00778,-0.07187
6.4265,-0.00595,-0.03662,-0.03525,-0.01144,-0.03174,-0.18646,-0.01923,-0.00687,-0.00427,-0.02487,-0.03143,0.00732,-0.02625,-0.01984,0.00641,-0.08331
6.427,-0.0061,-0.0415,-0.03571,-0.00748,-0.02914,-0.07645,-0.01755,-0.00671,-0.0061,-0.02335,-0.03494,0.03601,-0.03342,-0.01862,0.00473,-0.09598
6.4275,-0.00595,-0.04257,-0.03754,-0.00198,-0.03036,-0.0238,-0.01862,-0.0058,-0.00977,-0.02472,-0.03815,0.06012,-0.04028,-0.01694,0.00153,-0.112
6.428,-0.00641,-0.0415,-0.0383,0.00214,-0.03433,-0.03754,-0.01984,-0.00427,-0.01312,-0.02838,-0.03342,0.05402,-0.04257,-0.01343,-0.00702,-0.12711
6.4285,-0.00717,-0.04013,-0.03647,-0.00198,-0.03723,-0.06241,-0.02014,-0.00458,-0.01541,-0.02914,-0.01511,0.0264,-0.04074,-0.01022,-0.01984,-0.12054
6.429,-0.00763,-0.04013,-0.0325,-0.01541,-0.03738,-0.0647,-0.01877,-0.0058,-0.0177,-0.02991,0.00916,0.00092,-0.03891,-0.00854,-0.03494,-0.07401
6.4295,-0.00687,-0.04059,-0.03143,-0.02701,-0.03311,-0.05127,-0.01724,-0.0061,-0.02487,-0.02594,0.03036,-0.01328,-0.03815,-0.00946,-0.05203,0.0032
6.43,-0.00626,-0.04089,-0.03357,-0.02991,-0.02701,-0.03479,-0.01617,-0.00534,-0.03326,-0.02258,0.0441,-0.02487,-0.0383,-0.01205,-0.07095,0.07156
6.4305,-0.00687,-0.03998,-0.03616,-0.02579,-0.02228,-0.01938,-0.0148,-0.00412,-0.0386,-0.0209,0.05066,-0.03738,-0.03601,-0.0145,-0.07935,0.09109
6.431,-0.0087,-0.03876,-0.03677,-0.02182,-0.02106,0.0,-0.01297,-0.00473,-0.0386,-0.01938,0.04959,-0.04471,-0.03036,-0.01663,-0.05341,0.06302
6.4315,-0.01068,-0.03906,-0.03677,-0.02106,-0.02258,0.01541,-0.01007,-0.00641,-0.03662,-0.01816,0.0386,-0.04227,-0.02411,-0.01938,0.00702,0.02136
6.432,-0.01114,-0.04074,-0.03677,-0.02045,-0.02365,0.01877,-0.01144,-0.00778,-0.03601,-0.01495,0.02304,-0.02487,-0.02136,-0.02228,0.05661,-0.01144
6.4325,-0.01068,-0.04105,-0.03738,-0.01892,-0.02396,0.00885,-0.01953,-0.00671,-0.03464,-0.0119,0.00854,0.00381,-0.02487,-0.02365,0.05814,-0.0383
6.433,-0.01053,-0.03937,-0.03769,-0.01526,-0.0264,-0.00946,-0.03143,-0.00427,-0.02991,-0.01236,-0.00504,0.03036,-0.03204,-0.02182,0.03204,-0.05157
6.4335,-0.00916,-0.03784,-0.03647,-0.00824,-0.02884,-0.02914,-0.03998,-0.00107,-0.02167,-0.01419,-0.02289,0.0412,-0.03937,-0.01968,0.02533,-0.04013
6.434,-0.00717,-0.0383,-0.03586,-0.00381,-0.0293,-0.0499,-0.0415,0.0,-0.01511,-0.01556,-0.04395,0.03937,-0.04028,-0.01892,0.04089,-0.01114
6.4345,-0.00565,-0.0386,-0.03403,-0.01266,-0.0293,-0.07278,-0.03998,0.00122,-0.00961,-0.01617,-0.06241,0.03662,-0.03387,-0.02075,0.04303,0.00687
6.435,-0.00519,-0.03922,-0.0351,-0.03418,-0.02853,-0.09735,-0.04089,0.00244,-0.00626,-0.01678,-0.06989,0.0354,-0.02304,-0.02213,0.01724,0.00076
6.4355,-0.00443,-0.03891,-0.03738,-0.05051,-0.02808,-0.10773,-0.04395,0.00122,-0.00198,-0.01617,-0.06485,0.0296,-0.01282,-0.0206,-0.01007,-0.0177
6.436,-0.00259,-0.03754,-0.03983,-0.04654,-0.02625,-0.08743,-0.04349,-0.00076,0.00488,-0.01648,-0.05371,0.00961,-0.00656,-0.01785,-0.0174,-0.03281
6.4365,-0.00137,-0.03632,-0.04105,-0.03036,-0.02747,-0.04974,-0.03311,-0.00183,0.01038,-0.01694,-0.04562,-0.03113,-0.00595,-0.01633,-0.01511,-0.04227
6.437,-0.00229,-0.03616,-0.0441,-0.01465,-0.03265,-0.02884,-0.01175,-0.00153,0.0119,-0.01877,-0.04456,-0.07935,-0.01511,-0.01572,-0.0145,-0.04852
6.4375,-0.00412,-0.03708,-0.04822,-0.00534,-0.03342,-0.04013,0.01236,-0.00122,0.01053,-0.02106,-0.04654,-0.10071,-0.03433,-0.01648,-0.01022,-0.05325
6.438,-0.00565,-0.03754,-0.05142,-0.00015,-0.0267,-0.06027,0.01892,-0.0029,0.00793,-0.02121,-0.04318,-0.07202,-0.05035,-0.01694,-0.00153,-0.05081
6.4385,-0.00656,-0.03738,-0.05371,0.00244,-0.01526,-0.06805,-0.00107,-0.00443,0.00397,-0.01984,-0.03326,-0.01434,-0.0473,-0.01572,0.00137,-0.04532
6.439,-0.00595,-0.03876,-0.0528,0.00412,-0.00946,-0.06561,-0.02975,-0.00549,-0.0029,-0.01907,-0.02274,0.01831,-0.02396,-0.01358,-0.0119,-0.04379
6.4395,-0.00427,-0.03998,-0.05096,0.00595,-0.009,-0.06897,-0.04074,-0.00641,-0.00946,-0.01923,-0.0148,0.00458,0.00092,-0.01236,-0.02945,-0.04654
6.44,-0.00412,-0.04105,-0.05493,0.01007,-0.01236,-0.08102,-0.0325,-0.0058,-0.01282,-0.01984,-0.00824,-0.02899,0.00305,-0.01297,-0.03784,-0.04898
6.4405,-0.00504,-0.04135,-0.06622,0.01007,-0.01465,-0.0882,-0.02228,-0.00427,-0.0119,-0.02045,-0.00397,-0.04837,-0.02228,-0.01495,-0.03876,-0.04929
6.441,-0.00687,-0.04211,-0.07797,0.00305,-0.01923,-0.0824,-0.02213,-0.00198,-0.0087,-0.02106,-0.0032,-0.047,-0.05386,-0.01724,-0.03464,-0.04807
6.4415,-0.00717,-0.04456,-0.07538,-0.00687,-0.02701,-0.06638,-0.02274,-0.00168,-0.00778,-0.0235,-0.00778,-0.03845,-0.06683,-0.01831,-0.01556,-0.04654
6.442,-0.00778,-0.04669,-0.05478,-0.01419,-0.03464,-0.0441,-0.01205,-0.00183,-0.00992,-0.02869,-0.01724,-0.03067,-0.05661,-0.01801,0.02975,-0.04486
6.4425,-0.00992,-0.04761,-0.0267,-0.01556,-0.0412,-0.01602,0.0058,-0.0032,-0.01419,-0.03723,-0.02625,-0.02579,-0.03876,-0.01938,0.0795,-0.04089
6.443,-0.01175,-0.04715,-0.00183,-0.01266,-0.05081,0.0116,0.01068,-0.00397,-0.01831,-0.04395,-0.02945,-0.02106,-0.02792,-0.02487,0.09216,-0.03799
6.4435,-0.01099,-0.047,0.01541,-0.00748,-0.06302,0.02106,-0.00854,-0.00351,-0.02335,-0.047,-0.02548,-0.00854,-0.02625,-0.03479,0.05371,-0.03967
6.444,-0.0061,-0.04791,0.02426,-0.00336,-0.07339,0.00778,-0.03433,-0.00229,-0.02914,-0.04425,-0.01724,0.01511,-0.03189,-0.04227,0.00153,-0.04608
6.4445,0.00046,-0.04791,0.02274,-0.00153,-0.07324,-0.01053,-0.04639,-0.00137,-0.03479,-0.03799,-0.01144,0.04379,-0.04181,-0.04105,-0.01724,-0.05035
6.445,0.00595,-0.04532,0.0116,-0.00168,-0.06393,-0.02243,-0.04044,0.0,-0.0386,-0.02762,-0.00961,0.05997,-0.04913,-0.03098,-0.00031,-0.04898
6.4455,0.00946,-0.04242,-0.00153,-0.0029,-0.0502,-0.03525,-0.02518,0.00336,-0.04074,-0.01648,-0.01053,0.05066,-0.0441,-0.01923,0.02274,-0.04578
6.446,0.01068,-0.04074,-0.00961,-0.00351,-0.03769,-0.05402,-0.00671,0.009,-0.04059,-0.0032,-0.01297,0.01694,-0.02823,-0.01282,0.02411,-0.04532
6.4465,0.0087,-0.04181,-0.0116,-0.00153,-0.0293,-0.06424,0.0116,0.01663,-0.03662,0.00793,-0.01678,-0.02182,-0.01602,-0.01129,0.00809,-0.04684
6.447,0.00473,-0.04547,-0.0174,0.00275,-0.02823,-0.05722,0.02228,0.02045,-0.02914,0.01312,-0.01816,-0.04913,-0.01419,-0.01099,0.00351,-0.04929
6.4475,0.00153,-0.0473,-0.02792,0.0029,-0.03143,-0.04196,0.02319,0.01724,-0.02319,0.01099,-0.01511,-0.05615,-0.01602,-0.01007,0.01877,-0.05249
6.448,0.00015,-0.04562,-0.03937,-0.00366,-0.0322,-0.03632,0.02258,0.00977,-0.02274,0.00259,-0.00366,-0.0412,-0.01236,-0.01236,0.03723,-0.05905
6.4485,-0.00183,-0.04242,-0.04944,-0.01007,-0.03098,-0.04211,0.02518,0.00137,-0.02548,-0.00381,0.00488,-0.00671,-0.00534,-0.01785,0.03525,-0.06561
6.449,-0.00549,-0.04196,-0.06073,-0.01175,-0.02991,-0.04822,0.02121,-0.00641,-0.0264,-0.00381,0.00732,0.03143,-0.00092,-0.02106,0.01862,-0.06714
6.4495,-0.00854,-0.04196,-0.07065,-0.0119,-0.03189,-0.05035,0.00671,-0.01266,-0.02243,0.00153,0.00534,0.04868,0.00458,-0.01801,0.00381,-0.06119
6.45,-0.009,-0.03998,-0.07034,-0.01541,-0.03128,-0.0502,-0.01007,-0.01556,-0.01556,0.00549,0.00519,0.03876,0.00977,-0.0116,-0.00031,-0.05264
6.4505,-0.00839,-0.03723,-0.05615,-0.02319,-0.02686,-0.0502,-0.02151,-0.01602,-0.01205,0.00305,0.00519,0.02136,0.009,-0.00824,0.00015,-0.04807
6.451,-0.00809,-0.0351,-0.03601,-0.03265,-0.0206,-0.05081,-0.02655,-0.0174,-0.01389,-0.00412,0.00061,0.0145,-0.00351,-0.00992,-0.00198,-0.0473
6.4515,-0.00961,-0.03647,-0.02045,-0.03983,-0.0145,-0.05081,-0.02853,-0.02121,-0.01755,-0.00931,-0.00504,0.01617,-0.02533,-0.01434,-0.00381,-0.04837
6.452,-0.01205,-0.03876,-0.01129,-0.03708,-0.01144,-0.05127,-0.03036,-0.02457,-0.01907,-0.00824,-0.00961,0.01785,-0.047,-0.01846,-0.00488,-0.04868
6.4525,-0.01175,-0.0383,-0.00778,-0.02487,-0.00885,-0.05234,-0.02747,-0.02319,-0.01862,-0.00183,-0.00931,0.01587,-0.06119,-0.01999,-0.01007,-0.04868
6.453,-0.00946,-0.03601,-0.00732,-0.00916,-0.00854,-0.05463,-0.01831,-0.01816,-0.01663,0.00336,-0.00793,0.01266,-0.0647,-0.01984,-0.02167,-0.04868
6.4535,-0.00534,-0.03464,-0.00916,0.00214,-0.01465,-0.05539,-0.00977,-0.01114,-0.01465,0.00427,-0.00641,0.01266,-0.06409,-0.01617,-0.03403,-0.04715
6.454,-0.00229,-0.03662,-0.01251,0.01068,-0.02777,-0.05478,-0.01404,-0.00778,-0.01144,-0.00046,-0.00519,0.02121,-0.06348,-0.01144,-0.0412,-0.04471
6.4545,-0.00092,-0.0412,-0.01801,0.01541,-0.04349,-0.04852,-0.03143,-0.00748,-0.00824,-0.00839,-0.00504,0.03891,-0.06577,-0.00656,-0.03967,-0.04318
6.455,-0.00076,-0.04517,-0.0267,0.00626,-0.0531,-0.04181,-0.04959,-0.00717,-0.00763,-0.01511,-0.00458,0.05997,-0.07233,-0.00595,-0.02716,-0.04272
6.4555,-0.00061,-0.04547,-0.03403,-0.02472,-0.05219,-0.04105,-0.0621,-0.00626,-0.0119,-0.01831,-0.00473,0.07401,-0.07935,-0.01022,-0.00641,-0.04364
6.456,-0.00107,-0.04303,-0.03876,-0.06302,-0.04669,-0.04578,-0.06958,-0.00565,-0.01678,-0.02014,-0.0032,0.06516,-0.0827,-0.01831,0.01724,-0.04349
6.4565,-0.00092,-0.04196,-0.03967,-0.07889,-0.04227,-0.05051,-0.07004,-0.00519,-0.02045,-0.01984,-0.0032,0.02823,-0.07797,-0.02914,0.04135,-0.04242
6.457,0.00015,-0.0412,-0.03891,-0.05966,-0.03845,-0.05035,-0.04852,-0.00549,-0.0206,-0.02029,-0.00519,-0.02487,-0.06546,-0.04135,0.06104,-0.04272
6.4575,0.00046,-0.0415,-0.03876,-0.01709,-0.03098,-0.04684,0.0058,-0.00488,-0.02029,-0.02029,-0.00824,-0.06973,-0.05005,-0.04974,0.06424,-0.04364
6.458,-0.00198,-0.04028,-0.0383,0.03143,-0.02029,-0.0444,0.07202,-0.00351,-0.01877,-0.02029,-0.01114,-0.08881,-0.03586,-0.04974,0.03784,-0.04379
6.4585,-0.00687,-0.03952,-0.03891,0.07614,-0.01266,-0.0441,0.10864,-0.00305,-0.01678,-0.02014,-0.01221,-0.08789,-0.02228,-0.03906,-0.00793,-0.04166
6.459,-0.00839,-0.0386,-0.03922,0.112,-0.01373,-0.04425,0.08591,-0.00427,-0.01556,-0.01999,-0.01236,-0.08133,-0.00687,-0.02533,-0.04562,-0.03967
6.4595,-0.00549,-0.0386,-0.03845,0.12589,-0.02243,-0.04242,0.02945,-0.0061,-0.01419,-0.02106,-0.01373,-0.07126,0.0061,-0.01709,-0.05463,-0.03906
6.46,-0.00031,-0.0383,-0.03754,0.1059,-0.03235,-0.04166,-0.00916,-0.00671,-0.01404,-0.02319,-0.01633,-0.04089,0.01038,-0.01526,-0.04303,-0.03693
6.4605,0.00214,-0.03906,-0.03799,0.06027,-0.03784,-0.04181,-0.00916,-0.00549,-0.01434,-0.02899,-0.02014,0.009,-0.00061,-0.01617,-0.03052,-0.03525
6.461,0.0,-0.04013,-0.03769,0.01648,-0.04166,-0.04349,0.0087,-0.00366,-0.01389,-0.03632,-0.02319,0.04913,-0.02258,-0.01556,-0.02228,-0.03479
6.4615,-0.00656,-0.04028,-0.03647,-0.00397,-0.04578,-0.04623,0.0206,-0.00305,-0.01266,-0.04044,-0.02258,0.04837,-0.04303,-0.01434,-0.00717,-0.03632
6.462,-0.01633,-0.03952,-0.0351,-0.01083,-0.04593,-0.04852,0.01526,-0.0032,-0.01251,-0.03983,-0.01785,0.01434,-0.05127,-0.01404,0.0267,-0.03662
6.4625,-0.02411,-0.03983,-0.03555,-0.02472,-0.03998,-0.05066,-0.00366,-0.00153,-0.01556,-0.03586,-0.01205,-0.02197,-0.04578,-0.01678,0.06195,-0.03571
6.463,-0.02426,-0.04272,-0.03693,-0.04929,-0.02991,-0.05219,-0.02914,0.00076,-0.01877,-0.03036,-0.00839,-0.04669,-0.03189,-0.02197,0.06393,-0.03494
6.4635,-0.0177,-0.04684,-0.03937,-0.06561,-0.02258,-0.05325,-0.04913,0.00153,-0.01923,-0.02548,-0.00641,-0.05981,-0.02075,-0.02472,0.03296,-0.03616
6.464,-0.01175,-0.04883,-0.04425,-0.0621,-0.01999,-0.05249,-0.05554,0.0,-0.01694,-0.02045,-0.00565,-0.05386,-0.02167,-0.0238,0.01892,-0.03952
6.4645,-0.00854,-0.04761,-0.05417,-0.04837,-0.01968,-0.04715,-0.05096,-0.00137,-0.01434,-0.0145,-0.00519,-0.01404,-0.03967,-0.02258,0.0412,-0.04303
6.465,-0.00809,-0.04654,-0.06851,-0.03937,-0.01923,-0.03723,-0.04501,-0.00046,-0.01389,-0.01083,-0.00458,0.0499,-0.06714,-0.02594,0.06042,-0.04593
6.4655,-0.00778,-0.04547,-0.08072,-0.03677,-0.02029,-0.02258,-0.03906,0.00153,-0.01373,-0.01022,-0.00031,0.10605,-0.08026,-0.03204,0.0473,-0.04761
6.466,-0.00824,-0.04303,-0.07858,-0.03647,-0.02228,-0.00748,-0.02533,0.00275,-0.01328,-0.01038,0.00153,0.12772,-0.06439,-0.03601,0.02655,-0.04822
6.4665,-0.0119,-0.0412,-0.06104,-0.04364,-0.02548,-0.00168,-0.00122,0.00107,-0.0116,-0.01053,-0.00214,0.11307,-0.03204,-0.0351,0.0264,-0.0473
6.467,-0.01801,-0.04059,-0.03922,-0.06638,-0.02792,-0.01205,0.01953,-0.00061,-0.009,-0.01007,-0.00931,0.07538,-0.00977,-0.03021,0.03387,-0.047
6.4675,-0.0238,-0.04059,-0.02365,-0.08926,-0.03189,-0.03296,0.02319,-0.00183,-0.00732,-0.01541,-0.01175,0.03815,-0.00702,-0.02396,0.01541,-0.04562
6.468,-0.02319,-0.04211,-0.01465,-0.07797,-0.03601,-0.056,0.00961,-0.00259,-0.0058,-0.02487,-0.01266,0.01419,-0.01495,-0.01846,-0.02258,-0.04456
6.4685,-0.01617,-0.04181,-0.01038,-0.01709,-0.04089,-0.08072,-0.00885,-0.00305,-0.00381,-0.03098,-0.02106,-0.00412,-0.0235,-0.01358,-0.04807,-0.04364
6.469,-0.00702,-0.03891,-0.00809,0.05188,-0.04303,-0.11292,-0.02411,-0.0032,-0.00259,-0.02792,-0.03555,-0.03296,-0.03128,-0.0116,-0.04089,-0.04242
6.4695,-0.00397,-0.03586,-0.00824,0.07263,-0.04181,-0.13412,-0.03937,-0.00168,-0.00488,-0.01968,-0.04745,-0.06516,-0.03754,-0.0116,-0.01495,-0.03967
6.47,-0.00549,-0.03479,-0.00793,0.03769,-0.03906,-0.12131,-0.05615,0.0,-0.01022,-0.01099,-0.05188,-0.0737,-0.03906,-0.0119,0.00397,-0.03647
6.4705,-0.00885,-0.03632,-0.00732,-0.00534,-0.0351,-0.08179,-0.06592,-0.00031,-0.01617,-0.00717,-0.05127,-0.04944,-0.0351,-0.01083,0.00443,-0.03479
6.471,-0.01022,-0.03708,-0.00916,-0.01984,-0.03174,-0.05463,-0.0589,-0.00137,-0.01846,-0.00534,-0.04898,-0.01129,-0.02716,-0.00824,-0.00717,-0.03708
6.4715,-0.00854,-0.03418,-0.01587,-0.00946,-0.02899,-0.05646,-0.03677,-0.00214,-0.0174,-0.00549,-0.04669,0.01678,-0.02228,-0.00748,-0.02289,-0.04196
6.472,-0.0061,-0.03052,-0.02762,0.00397,-0.02716,-0.06912,-0.01556,-0.00275,-0.01556,-0.00748,-0.04593,0.02106,-0.02304,-0.00793,-0.03769,-0.04471
6.4725,-0.00305,-0.02945,-0.03906,0.01144,-0.0264,-0.07095,-0.00381,-0.00229,-0.01434,-0.00961,-0.04547,-0.00336,-0.03098,-0.009,-0.04074,-0.04349
6.473,0.0,-0.03159,-0.04395,0.01587,-0.02731,-0.06027,0.00854,-0.00153,-0.01373,-0.01129,-0.03967,-0.03632,-0.04761,-0.01022,-0.0322,-0.04196
6.4735,0.00076,-0.0351,-0.03967,0.01953,-0.02975,-0.04593,0.0296,-0.00061,-0.01404,-0.01846,-0.02701,-0.03815,-0.06561,-0.01221,-0.01709,-0.0415
6.474,0.00061,-0.03769,-0.03342,0.01831,-0.03281,-0.03067,0.04501,-0.00137,-0.01526,-0.03113,-0.01251,-0.00153,-0.0708,-0.01038,0.00305,-0.04211
6.4745,-0.00046,-0.03906,-0.0325,0.0119,-0.03387,-0.01663,0.03174,-0.00305,-0.01617,-0.04288,-0.00443,0.0296,-0.056,-0.0032,0.02258,-0.04364
6.475,-0.00076,-0.03891,-0.03799,0.00427,-0.03433,-0.00717,-0.00107,-0.00458,-0.01526,-0.04791,-0.00076,0.02319,-0.03693,0.00214,0.03159,-0.04562
6.4755,-0.00122,-0.03998,-0.04501,0.00046,-0.0322,-0.00168,-0.02655,-0.00473,-0.01343,-0.0499,0.00519,0.0032,-0.03128,0.00122,0.02975,-0.04654
6.476,-0.00076,-0.04288,-0.047,-0.00153,-0.02823,-0.00168,-0.03281,-0.00351,-0.01389,-0.05081,0.01617,0.00259,-0.0412,-0.00534,0.03082,-0.04669
6.4765,-0.00015,-0.04608,-0.04303,-0.0032,-0.02899,-0.0119,-0.03204,-0.00153,-0.01587,-0.05035,0.02487,0.01526,-0.04791,-0.0119,0.04669,-0.04517
6.477,0.00031,-0.04761,-0.0386,-0.00732,-0.03479,-0.03586,-0.03647,-0.00107,-0.01846,-0.047,0.02792,0.01923,-0.0386,-0.01541,0.07034,-0.0444
6.4775,0.00015,-0.04684,-0.03693,-0.01343,-0.04181,-0.05783,-0.04547,-0.00153,-0.02274,-0.04532,0.02716,0.01022,-0.02167,-0.01846,0.08331,-0.04379
6.478,-0.00046,-0.04623,-0.0383,-0.01984,-0.0444,-0.05829,-0.05524,-0.0029,-0.02975,-0.04608,0.02182,0.00092,-0.01022,-0.01984,0.08011,-0.04272
6.4785,-0.00046,-0.04593,-0.0386,-0.02747,-0.04425,-0.03769,-0.05798,-0.00366,-0.03571,-0.04364,0.01389,-0.0032,-0.00336,-0.01999,0.0618,-0.0412
6.479,-0.00122,-0.04578,-0.03922,-0.03662,-0.04547,-0.0235,-0.05096,-0.00397,-0.03418,-0.0351,0.00259,-0.00992,0.00595,-0.01709,0.03448,-0.04059
6.4795,-0.00153,-0.04425,-0.03891,-0.04395,-0.04608,-0.03754,-0.03799,-0.00214,-0.02472,-0.02029,-0.00626,-0.02548,0.0119,-0.01358,0.009,-0.04028
6.48,-0.00168,-0.04303,-0.0383,-0.04745,-0.04379,-0.07492,-0.0351,0.0,-0.01526,-0.0061,-0.01068,-0.04562,-0.00214,-0.01328,-0.00015,-0.04013
6.4805,-0.00183,-0.04272,-0.03693,-0.04654,-0.04105,-0.11154,-0.05493,0.00061,-0.00885,0.00549,-0.01221,-0.05463,-0.0351,-0.0177,0.01068,-0.03952
6.481,-0.00046,-0.04211,-0.03571,-0.04532,-0.03723,-0.12009,-0.08423,-0.00061,-0.00397,0.01434,-0.01266,-0.04486,-0.06622,-0.02151,0.02548,-0.04028
6.4815,0.00092,-0.04211,-0.03464,-0.04227,-0.03525,-0.09506,-0.09048,-0.00229,0.00305,0.02029,-0.0148,-0.0238,-0.08026,-0.02258,0.03082,-0.04044
6.482,0.00061,-0.04181,-0.03342,-0.03128,-0.03342,-0.05722,-0.0592,-0.00183,0.0119,0.02274,-0.0206,-0.00519,-0.08438,-0.01877,0.02747,-0.03876
6.4825,-0.00076,-0.03952,-0.03204,-0.01419,-0.03326,-0.03174,-0.01007,-0.00076,0.01892,0.0174,-0.02975,0.0032,-0.0824,-0.01434,0.0238,-0.03769
6.483,-0.00244,-0.03937,-0.03021,-0.00031,-0.03372,-0.0206,0.01831,-0.00046,0.02213,0.00534,-0.04318,0.00488,-0.06973,-0.01328,0.01221,-0.03632
6.4835,-0.00229,-0.04303,-0.02777,0.00214,-0.03235,-0.00961,0.01663,-0.00061,0.02289,-0.00763,-0.05722,0.00336,-0.04822,-0.01556,-0.0119,-0.03647
6.484,-0.00137,-0.05035,-0.02686,-0.00549,-0.02899,0.00504,0.00839,-0.00031,0.02075,-0.01328,-0.06546,-0.0029,-0.03098,-0.01801,-0.03738,-0.03677
6.4845,-0.00015,-0.05585,-0.02777,-0.01953,-0.02457,0.00977,0.01862,0.00061,0.01236,-0.01175,-0.06134,-0.01358,-0.02686,-0.01831,-0.04211,-0.03845
6.485,-0.00015,-0.05493,-0.03159,-0.03403,-0.02396,-0.0032,0.05035,0.00046,-0.00305,-0.00626,-0.04776,-0.02548,-0.03036,-0.01862,-0.02853,-0.04074
6.4855,-0.00137,-0.04959,-0.03265,-0.04486,-0.02792,-0.02304,0.08652,0.00015,-0.02151,-0.0029,-0.03189,-0.03128,-0.03403,-0.02151,-0.01999,-0.04349
6.486,-0.00305,-0.04456,-0.03235,-0.04333,-0.03387,-0.03769,0.10529,0.00046,-0.03937,-0.0029,-0.02045,-0.02472,-0.03372,-0.02457,-0.02518,-0.04669
6.4865,-0.00519,-0.04166,-0.03021,-0.0238,-0.03799,-0.056,0.09125,-0.00031,-0.05173,-0.00732,-0.01175,-0.00595,-0.03128,-0.02579,-0.0264,-0.04974
6.487,-0.0061,-0.03738,-0.03052,0.00214,-0.03799,-0.09201,0.05432,-0.00397,-0.05859,-0.01358,-0.00397,0.01862,-0.02487,-0.02289,-0.01129,-0.05219
6.4875,-0.00549,-0.03281,-0.03174,0.0119,-0.03387,-0.13397,0.0209,-0.00839,-0.06363,-0.01709,0.00336,0.03311,-0.01694,-0.0206,0.00595,-0.05463
6.488,-0.00336,-0.02853,-0.03204,-0.00702,-0.0293,-0.14496,0.00351,-0.01099,-0.06958,-0.01801,0.01053,0.03174,-0.01282,-0.02106,0.00443,-0.05356
6.4885,-0.00214,-0.02701,-0.03098,-0.04364,-0.02762,-0.1152,-0.00443,-0.01114,-0.06973,-0.01938,0.01587,0.03662,-0.01495,-0.0235,-0.01083,-0.05035
6.489,-0.00244,-0.02792,-0.02747,-0.07629,-0.02762,-0.0708,-0.01266,-0.01022,-0.05753,-0.01938,0.01999,0.06821,-0.01938,-0.02396,-0.01785,-0.04684
6.4895,-0.00427,-0.03113,-0.0296,-0.08224,-0.02686,-0.04639,-0.02106,-0.00778,-0.03845,-0.01816,0.02487,0.10666,-0.02029,-0.02167,-0.00351,-0.0444
6.49,-0.00443,-0.03677,-0.03433,-0.04257,-0.02518,-0.04501,-0.02548,-0.0061,-0.02304,-0.01816,0.02625,0.1059,-0.02029,-0.02014,0.01846,-0.04395
6.4905,-0.0029,-0.04333,-0.03937,0.03799,-0.02441,-0.05051,-0.02731,-0.00534,-0.01572,-0.02274,0.01892,0.0589,-0.02304,-0.02197,0.02274,-0.04532
6.491,-0.00046,-0.04852,-0.0412,0.10803,-0.02289,-0.04593,-0.02914,-0.00488,-0.0119,-0.0296,0.00488,0.00809,-0.02777,-0.0238,0.00565,-0.04822
6.4915,0.00183,-0.05081,-0.0412,0.11032,-0.01968,-0.03555,-0.03128,-0.00412,-0.0087,-0.03265,-0.00549,-0.01495,-0.02899,-0.02396,-0.01572,-0.04837
6.492,0.00168,-0.0502,-0.03983,0.0531,-0.01816,-0.02686,-0.03571,-0.00443,-0.00732,-0.0322,-0.00885,-0.02029,-0.02426,-0.02182,-0.02014,-0.04623
6.4925,-0.00305,-0.04929,-0.03952,-0.00229,-0.02136,-0.02716,-0.0383,-0.00595,-0.00641,-0.02838,-0.01221,-0.02975,-0.01465,-0.02106,-0.0032,-0.04318
6.493,-0.00824,-0.04822,-0.03998,-0.01907,-0.02853,-0.03571,-0.03296,-0.00732,-0.00488,-0.02655,-0.01923,-0.04532,-0.00259,-0.02213,0.02914,-0.0412
6.4935,-0.01236,-0.04684,-0.04135,-0.01038,-0.03143,-0.03952,-0.02151,-0.00717,-0.00549,-0.02747,-0.02716,-0.05646,0.00839,-0.02304,0.05585,-0.04089
6.494,-0.0148,-0.04501,-0.04303,-0.00366,-0.02823,-0.03128,-0.01343,-0.0058,-0.00977,-0.02899,-0.03006,-0.05905,0.01144,-0.02258,0.05722,-0.04135
6.4945,-0.0148,-0.04135,-0.04227,-0.00504,-0.02289,-0.02335,-0.01205,-0.00488,-0.01663,-0.02838,-0.02441,-0.05554,0.00275,-0.0209,0.03342,-0.04166
6.495,-0.01389,-0.03738,-0.04135,-0.00916,-0.02106,-0.03052,-0.01312,-0.00626,-0.02151,-0.02548,-0.01389,-0.04776,-0.01389,-0.0206,0.00778,-0.04242
6.4955,-0.01144,-0.03403,-0.04166,-0.01434,-0.02457,-0.04379,-0.01328,-0.00839,-0.02304,-0.02289,-0.0058,-0.03494,-0.03357,-0.02289,0.00259,-0.04349
6.496,-0.00687,-0.03143,-0.04196,-0.02167,-0.02823,-0.04669,-0.01373,-0.00854,-0.0206,-0.02411,-0.00366,-0.01862,-0.05295,-0.02518,0.0264,-0.04364
6.4965,-0.00214,-0.0293,-0.04364,-0.03021,-0.03067,-0.04059,-0.01907,-0.0061,-0.01663,-0.02869,-0.00778,-0.00534,-0.06653,-0.02487,0.05783,-0.04196
6.497,-0.00046,-0.02716,-0.04211,-0.03448,-0.03448,-0.04013,-0.03036,-0.00244,-0.01251,-0.03601,-0.01465,0.00031,-0.06592,-0.02304,0.06393,-0.04044
6.4975,-0.00229,-0.02701,-0.03693,-0.03418,-0.0415,-0.047,-0.04501,-0.00046,-0.01099,-0.04013,-0.02258,-0.00015,-0.05081,-0.02075,0.03571,-0.04028
6.498,-0.0058,-0.02823,-0.02914,-0.03464,-0.04578,-0.04791,-0.05554,-0.00092,-0.01236,-0.03677,-0.02884,-0.00061,-0.03174,-0.01999,0.00244,-0.04074
6.4985,-0.00809,-0.02884,-0.01968,-0.03754,-0.04242,-0.04318,-0.05524,-0.00214,-0.01541,-0.02945,-0.03082,-0.00183,-0.02029,-0.01862,-0.00839,-0.04013
6.499,-0.00809,-0.0296,-0.01373,-0.04196,-0.0351,-0.04669,-0.04456,-0.0029,-0.01831,-0.02747,-0.03036,-0.00244,-0.01663,-0.01709,-0.00443,-0.03891
6.4995,-0.00763,-0.03174,-0.01282,-0.04272,-0.03098,-0.05692,-0.03098,-0.00107,-0.01801,-0.02945,-0.02869,-0.00244,-0.01297,-0.01587,-0.0087,-0.03891
6.5,-0.00687,-0.03403,-0.01709,-0.03784,-0.03159,-0.06119,-0.01938,0.0,-0.01465,-0.03036,-0.02548,-0.00061,-0.00748,-0.01495,-0.0206,-0.03998
6.5005,-0.00671,-0.03799,-0.02548,-0.03418,-0.03464,-0.05386,-0.01068,0.0,-0.00885,-0.02838,-0.01923,0.00244,-0.00351,-0.01465,-0.02777,-0.04303
6.501,-0.00656,-0.04257,-0.03235,-0.04318,-0.0351,-0.04959,-0.00351,-0.00137,-0.00336,-0.0264,-0.00931,0.00488,-0.00397,-0.01389,-0.02533,-0.04349
6.5015,-0.00443,-0.04501,-0.03693,-0.06119,-0.03326,-0.05463,-0.00015,-0.00473,-0.00076,-0.0264,0.00031,0.00366,-0.00732,-0.01297,-0.01572,-0.04181
6.502,-0.00122,-0.04562,-0.04196,-0.0676,-0.02884,-0.05997,-0.00397,-0.00885,-0.00214,-0.02411,0.00473,-0.0029,-0.01724,-0.01389,-0.00366,-0.03952
6.5025,0.00137,-0.04501,-0.04684,-0.03723,-0.0235,-0.05508,-0.01282,-0.01221,-0.0061,-0.01801,0.00153,-0.00946,-0.03784,-0.01694,0.00458,-0.03952
6.503,-0.00015,-0.04471,-0.04898,0.03098,-0.01785,-0.04135,-0.01968,-0.01282,-0.00916,-0.00916,-0.0058,-0.01236,-0.06195,-0.01938,0.0029,-0.0386
6.5035,-0.00626,-0.04379,-0.04944,0.10132,-0.01587,-0.02563,-0.02289,-0.01129,-0.00977,0.00122,-0.01221,-0.00977,-0.07202,-0.01892,-0.00504,-0.03799
6.504,-0.01129,-0.04364,-0.05035,0.13077,-0.01831,-0.01404,-0.02609,-0.00748,-0.00839,0.0116,-0.01572,-0.00107,-0.06409,-0.01755,-0.01099,-0.03815
6.5045,-0.00839,-0.0441,-0.05325,0.10834,-0.02289,-0.00336,-0.02808,-0.00534,-0.00702,0.01953,-0.01953,0.00992,-0.05325,-0.01663,-0.01587,-0.0386
6.505,0.00076,-0.04578,-0.05722,0.06241,-0.02808,0.00015,-0.02563,-0.00443,-0.0061,0.02335,-0.02686,0.01663,-0.0502,-0.01587,-0.02274,-0.03845
6.5055,0.00931,-0.04761,-0.05997,0.02045,-0.03418,-0.00748,-0.02121,-0.00458,-0.0032,0.02213,-0.03723,0.02487,-0.047,-0.01678,-0.0296,-0.0383
6.506,0.00885,-0.04883,-0.05859,-0.00885,-0.0386,-0.02563,-0.01984,-0.00504,0.00137,0.01053,-0.04837,0.04929,-0.03281,-0.01846,-0.03052,-0.03876
6.5065,0.00214,-0.04837,-0.05157,-0.01968,-0.0412,-0.04715,-0.02686,-0.0058,0.00458,-0.00778,-0.05341,0.08987,-0.01694,-0.02014,-0.01999,-0.03967
6.507,-0.0058,-0.04501,-0.04089,-0.00427,-0.04105,-0.06882,-0.0412,-0.00534,0.00275,-0.02731,-0.0473,0.11673,-0.00992,-0.02106,0.01175,-0.03906
6.5075,-0.01083,-0.03967,-0.03143,0.02686,-0.03815,-0.08926,-0.05539,-0.00412,-0.00259,-0.03723,-0.03448,0.10208,-0.01221,-0.02274,0.06287,-0.03922
6.508,-0.01343,-0.03418,-0.02579,0.04211,-0.03784,-0.09827,-0.06119,-0.0032,-0.00916,-0.03586,-0.02335,0.05203,-0.0119,-0.02716,0.09735,-0.03983
6.5085,-0.01495,-0.0325,-0.02502,0.02258,-0.03845,-0.08408,-0.05753,-0.00381,-0.01556,-0.02945,-0.01968,-0.00381,-0.00244,-0.03159,0.07996,-0.0412
6.509,-0.01511,-0.0351,-0.0264,-0.01373,-0.0386,-0.05096,-0.04929,-0.00702,-0.02228,-0.02426,-0.02136,-0.04242,0.01221,-0.03265,0.02823,-0.04318
6.5095,-0.01236,-0.03952,-0.02808,-0.03403,-0.03922,-0.01251,-0.04013,-0.02304,-0.02686,-0.02808,-0.02075,-0.05585,0.01907,-0.02869,-0.00626,-0.04364
6.51,-0.00809,-0.04272,-0.0296,-0.0264,-0.04211,0.01984,-0.02914,-0.05371,-0.02808,-0.0354,-0.01663,-0.0502,0.00702,-0.02319,-0.00717,-0.0415
6.5105,-0.00366,-0.04532,-0.03036,-0.01175,-0.04562,0.0386,-0.00992,-0.07629,-0.02426,-0.04242,-0.01251,-0.03998,-0.02579,-0.0206,0.00076,-0.04105
6.511,-0.00198,-0.04761,-0.03189,-0.00931,-0.04501,0.03876,0.02304,-0.06149,-0.01877,-0.04395,-0.01328,-0.04059,-0.06958,-0.02151,-0.00595,-0.04089
6.5115,-0.00183,-0.04868,-0.03342,-0.01541,-0.03677,0.02518,0.05508,-0.01129,-0.01404,-0.04257,-0.01663,-0.04471,-0.10468,-0.02487,-0.02182,-0.0412
6.512,-0.00259,-0.04745,-0.03769,-0.01785,-0.0293,0.0032,0.05768,0.03723,-0.01068,-0.0386,-0.01648,-0.02625,-0.11246,-0.02609,-0.02838,-0.03998
6.5125,-0.00366,-0.04669,-0.05081,-0.0119,-0.02808,-0.0325,0.02594,0.05875,-0.00961,-0.03342,-0.01053,0.01663,-0.08667,-0.0238,-0.01785,-0.03845
6.513,-0.00534,-0.04791,-0.08163,-0.0061,-0.0325,-0.0975,-0.00717,0.05798,-0.0116,-0.02548,-0.00214,0.03876,-0.04333,-0.01892,-0.00046,-0.03952
6.5135,-0.00641,-0.04944,-0.1207,-0.0058,-0.03677,-0.18188,-0.01282,0.0473,-0.01617,-0.01801,0.00305,0.00702,-0.01144,-0.01404,0.00748,-0.04196
6.514,-0.00549,-0.04883,-0.1384,-0.01053,-0.03754,-0.22507,-0.00015,0.03067,-0.0206,-0.0119,0.00443,-0.04517,-0.00275,-0.01282,0.00778,-0.04364
6.5145,-0.0029,-0.04639,-0.11581,-0.01465,-0.03281,-0.17868,0.00504,0.00916,-0.02304,-0.00534,0.00305,-0.06454,-0.01144,-0.01526,0.01312,-0.04425
6.515,0.00046,-0.04547,-0.06714,-0.01755,-0.02655,-0.0766,-0.00122,-0.00931,-0.02487,0.00351,-0.00046,-0.04517,-0.02914,-0.01892,0.02014,-0.04333
6.5155,0.00168,-0.04562,-0.02243,-0.01953,-0.02197,-0.00031,-0.00839,-0.01755,-0.02701,0.01175,-0.00229,-0.01862,-0.0531,-0.01999,0.01938,-0.04227
6.516,0.00214,-0.04639,0.0032,-0.02106,-0.02121,0.01083,-0.009,-0.01663,-0.02838,0.01114,0.0,-0.00412,-0.07324,-0.01862,0.01755,-0.04166
6.5165,0.00076,-0.04608,0.01678,-0.01984,-0.02106,-0.01083,-0.00549,-0.00931,-0.02777,-0.00137,0.00473,0.00229,-0.07782,-0.01709,0.03067,-0.0412
6.517,0.00076,-0.04562,0.02228,-0.0145,-0.02106,-0.02792,-0.00458,-0.00031,-0.02487,-0.01831,0.00885,0.00687,-0.06393,-0.01907,0.05157,-0.04059
6.5175,-0.00046,-0.04517,0.02548,-0.009,-0.02335,-0.03464,-0.00595,0.00595,-0.02243,-0.02792,0.01007,0.00839,-0.04654,-0.0238,0.05615,-0.04196
6.518,-0.00473,-0.04456,0.02838,-0.00793,-0.02701,-0.047,-0.00717,0.00793,-0.02106,-0.02747,0.00702,0.00763,-0.04028,-0.02625,0.03571,-0.04364
6.5185,-0.01007,-0.04364,0.03799,-0.01068,-0.02991,-0.06973,-0.00732,0.00534,-0.0209,-0.02304,0.00137,0.00641,-0.04501,-0.02365,0.009,-0.04486
6.519,-0.01297,-0.04486,0.05112,-0.01419,-0.02884,-0.09369,-0.009,0.00183,-0.02075,-0.0209,-0.00595,0.00565,-0.05127,-0.01587,-0.00259,-0.04349
6.5195,-0.01205,-0.04562,0.05417,-0.01541,-0.02686,-0.10239,-0.0145,-0.00092,-0.0209,-0.02014,-0.01297,0.00687,-0.05447,-0.00839,0.00519,-0.04105
6.52,-0.00977,-0.0444,0.03677,-0.01541,-0.0235,-0.08667,-0.02396,-0.00229,-0.01892,-0.01862,-0.01984,0.00732,-0.05676,-0.00671,0.02029,-0.03845
6.5205,-0.01068,-0.04272,0.00443,-0.01526,-0.01923,-0.06088,-0.03723,-0.00412,-0.01526,-0.01892,-0.02747,0.00793,-0.05844,-0.01083,0.03265,-0.03723
6.521,-0.01709,-0.04074,-0.0235,-0.01495,-0.0174,-0.0441,-0.04959,-0.00366,-0.01022,-0.01953,-0.03265,0.00687,-0.05493,-0.01663,0.03143,-0.03876
6.5215,-0.02548,-0.03937,-0.03708,-0.01312,-0.02151,-0.0444,-0.05493,-0.00214,-0.00748,-0.01953,-0.0354,0.00488,-0.04486,-0.01923,0.01602,-0.04074
6.522,-0.02991,-0.0383,-0.04364,-0.01251,-0.03067,-0.05096,-0.05081,-0.00046,-0.00656,-0.02151,-0.03403,0.00366,-0.03525,-0.01968,-0.00824,-0.04395
6.5225,-0.02716,-0.03922,-0.05219,-0.01266,-0.03952,-0.05295,-0.04013,-0.00137,-0.00671,-0.0206,-0.03159,0.00366,-0.03098,-0.02045,-0.03052,-0.04562
6.523,-0.02045,-0.04272,-0.06027,-0.0145,-0.04745,-0.05112,-0.0238,-0.0029,-0.00641,-0.01617,-0.03021,0.0029,-0.03098,-0.02182,-0.03601,-0.04562
6.5235,-0.0145,-0.04929,-0.06149,-0.01663,-0.05203,-0.05051,-0.00549,-0.00351,-0.0087,-0.01205,-0.02914,0.00183,-0.03174,-0.02151,-0.01389,-0.04425
6.524,-0.01068,-0.05356,-0.06088,-0.01648,-0.05127,-0.05035,0.0087,-0.00458,-0.01587,-0.01221,-0.02518,0.00061,-0.03052,-0.01923,0.0206,-0.04242
6.5245,-0.00748,-0.05219,-0.065,-0.01511,-0.04425,-0.04791,0.0116,-0.00687,-0.02579,-0.01526,-0.0177,-0.00092,-0.02792,-0.01617,0.0354,-0.04227
6.525,-0.00397,-0.04501,-0.07675,-0.0145,-0.03769,-0.04196,0.00458,-0.00626,-0.03296,-0.01999,-0.0116,-0.00153,-0.02625,-0.01572,0.01389,-0.04257
6.5255,-0.00015,-0.03632,-0.0882,-0.01389,-0.03555,-0.03357,-0.00351,-0.00443,-0.03128,-0.02151,-0.00992,-0.00259,-0.02426,-0.01755,-0.02151,-0.04288
6.526,0.00397,-0.02975,-0.08942,-0.01266,-0.0351,-0.02731,-0.01251,-0.00473,-0.02457,-0.02045,-0.009,-0.00214,-0.02106,-0.01953,-0.03754,-0.04105
6.5265,0.00717,-0.02853,-0.07797,-0.01022,-0.03235,-0.02548,-0.02228,-0.00732,-0.01968,-0.01923,-0.00641,0.0,-0.01678,-0.02045,-0.02121,-0.03952
6.527,0.00778,-0.03082,-0.05508,-0.00885,-0.02975,-0.02899,-0.03128,-0.00748,-0.01968,-0.01892,-0.00443,0.00244,-0.01343,-0.02228,0.01923,-0.0386
6.5275,0.00702,-0.03128,-0.02792,-0.01022,-0.02884,-0.0322,-0.03326,-0.00519,-0.01907,-0.0174,-0.0058,0.00458,-0.0116,-0.0235,0.05981,-0.03876
6.528,0.0058,-0.02869,-0.00641,-0.01144,-0.02853,-0.0322,-0.02777,-0.00412,-0.01495,-0.01465,-0.00732,0.00427,-0.01343,-0.02106,0.07614,-0.0412
6.5285,0.00763,-0.02502,0.00259,-0.01175,-0.02823,-0.03769,-0.01694,-0.00519,-0.00809,-0.01175,-0.00687,0.00336,-0.02121,-0.01755,0.06454,-0.04349
6.529,0.0119,-0.02502,0.0,-0.0119,-0.02914,-0.05371,-0.00336,-0.00519,-0.0029,-0.01266,-0.00336,0.00275,-0.03204,-0.01587,0.04379,-0.04593
6.5295,0.01465,-0.0293,-0.00488,-0.01144,-0.03342,-0.07141,0.00809,-0.00381,-0.00076,-0.01541,0.00031,0.0032,-0.04196,-0.01495,0.03021,-0.0473
6.53,0.00946,-0.03555,-0.00641,-0.01022,-0.03647,-0.07507,0.01648,-0.00259,-0.0029,-0.01572,0.00107,0.00443,-0.05234,-0.01373,0.01572,-0.04807
6.5305,-0.00137,-0.03891,-0.00656,-0.00916,-0.03555,-0.06012,0.01801,-0.00275,-0.00702,-0.01404,-0.00076,0.00534,-0.06622,-0.00977,-0.01038,-0.05051
6.531,-0.01083,-0.03952,-0.01099,-0.00748,-0.03021,-0.04257,0.01495,-0.00381,-0.00946,-0.01205,-0.00336,0.00565,-0.0766,-0.00656,-0.03204,-0.05295
6.5315,-0.0119,-0.03876,-0.02335,-0.00687,-0.02625,-0.03571,0.00931,-0.00458,-0.00778,-0.01312,-0.00717,0.00473,-0.07278,-0.0061,-0.02869,-0.05234
6.532,-0.00809,-0.03799,-0.03983,-0.0061,-0.02487,-0.04105,0.00122,-0.0061,-0.00549,-0.01678,-0.01251,0.00244,-0.05371,-0.00626,-0.00885,-0.04547
6.5325,-0.00519,-0.03815,-0.05051,-0.00687,-0.02411,-0.04776,-0.01312,-0.00748,-0.00824,-0.02014,-0.01617,0.00031,-0.03128,-0.00702,0.0029,-0.03281
6.533,-0.00366,-0.03937,-0.04944,-0.00793,-0.02548,-0.0499,-0.03296,-0.00809,-0.01907,-0.02197,-0.01266,0.0,-0.01907,-0.00839,0.00183,-0.01999
6.5335,-0.00336,-0.04074,-0.04089,-0.0087,-0.03113,-0.04883,-0.04868,-0.00809,-0.03174,-0.02502,-0.00443,0.00107,-0.01984,-0.01419,-0.00214,-0.01205
6.534,-0.0032,-0.0415,-0.03479,-0.00809,-0.03937,-0.04593,-0.05249,-0.009,-0.04059,-0.03265,0.0032,0.00137,-0.02762,-0.0264,0.00229,-0.01053
6.5345,-0.00412,-0.0412,-0.03418,-0.00717,-0.04379,-0.04318,-0.04578,-0.00961,-0.0412,-0.03937,0.00351,0.00061,-0.03342,-0.04379,0.01053,-0.01419
6.535,-0.00595,-0.04013,-0.03632,-0.00763,-0.03983,-0.04547,-0.03433,-0.009,-0.03769,-0.04044,0.00076,0.0,-0.03143,-0.05386,0.01297,-0.01877
6.5355,-0.00763,-0.04044,-0.03754,-0.01038,-0.02945,-0.05157,-0.02533,-0.00763,-0.03311,-0.03479,-0.00107,0.00153,-0.02289,-0.04913,0.00473,-0.02426
6.536,-0.00732,-0.04211,-0.0386,-0.0145,-0.02045,-0.05539,-0.0174,-0.00534,-0.02991,-0.02686,-0.00381,0.00229,-0.01419,-0.03403,-0.01083,-0.03326
6.5365,-0.00656,-0.04318,-0.03922,-0.01694,-0.02121,-0.05219,-0.0087,-0.0032,-0.02594,-0.01968,-0.00916,0.00229,-0.01022,-0.02228,-0.0238,-0.04669
6.537,-0.00549,-0.04364,-0.03998,-0.01526,-0.02991,-0.04929,-0.00336,-0.00198,-0.02319,-0.01495,-0.01556,0.00107,-0.00839,-0.01587,-0.02472,-0.06302
6.5375,-0.00443,-0.04349,-0.03937,-0.01083,-0.03693,-0.05539,-0.00656,-0.00122,-0.02121,-0.01114,-0.02289,-0.00153,-0.00824,-0.00977,-0.01572,-0.07584
6.538,-0.00397,-0.04211,-0.03723,-0.00763,-0.03647,-0.06775,-0.01877,-0.00305,-0.01923,-0.00443,-0.03052,-0.00244,-0.00961,-0.00427,-0.00595,-0.08041
6.5385,-0.00473,-0.04059,-0.0351,-0.00793,-0.03143,-0.07309,-0.03418,-0.00595,-0.01907,0.00076,-0.03647,-0.00137,-0.01404,-0.00061,-0.00092,-0.07736
6.539,-0.00595,-0.04105,-0.03418,-0.00885,-0.02594,-0.06378,-0.05341,-0.00732,-0.01968,-0.00061,-0.03998,0.00046,-0.02029,0.00183,0.00809,-0.07187
6.5395,-0.00595,-0.04196,-0.03464,-0.00839,-0.02106,-0.04166,-0.07324,-0.00626,-0.01434,-0.01312,-0.04211,0.00153,-0.02548,0.00397,0.02686,-0.06989
6.54,-0.00473,-0.04257,-0.03403,-0.00793,-0.01755,-0.01816,-0.07996,-0.00366,-0.0029,-0.02823,-0.04486,0.00214,-0.02563,0.00702,0.03983,-0.07263
6.5405,-0.00381,-0.04379,-0.03281,-0.00931,-0.01846,-0.00381,-0.06042,-0.00229,0.00931,-0.03815,-0.04608,0.00229,-0.0206,0.00778,0.02594,-0.07309
6.541,-0.00412,-0.0444,-0.0325,-0.01144,-0.02274,-0.00229,-0.02731,-0.00076,0.01633,-0.03937,-0.0444,0.0029,-0.01709,0.00427,-0.00946,-0.06729
6.5415,-0.00549,-0.04303,-0.03296,-0.01083,-0.02563,-0.01114,-0.01022,0.00153,0.01465,-0.03326,-0.04044,0.00336,-0.02106,-0.00565,-0.03754,-0.05402
6.542,-0.0058,-0.03998,-0.03403,-0.00656,-0.02579,-0.02441,-0.02289,0.00305,0.00793,-0.02289,-0.03372,0.00214,-0.02884,-0.02396,-0.04196,-0.03693
6.5425,-0.00504,-0.03799,-0.03372,-0.0032,-0.02625,-0.02869,-0.04044,0.00534,0.00122,-0.00961,-0.02258,0.00137,-0.03159,-0.04669,-0.03311,-0.01877
6.543,-0.00488,-0.03784,-0.03265,-0.00305,-0.02808,-0.02228,-0.03021,0.00549,-0.00244,-0.00031,-0.01175,0.00183,-0.02487,-0.06332,-0.02777,-0.00519
6.5435,-0.0061,-0.03906,-0.03387,-0.00626,-0.02914,-0.01877,0.0116,0.00183,-0.00259,0.00336,-0.01038,0.00183,-0.01526,-0.06622,-0.02457,-0.00397
6.544,-0.00702,-0.04272,-0.0415,-0.00702,-0.02686,-0.03067,0.05936,-0.00549,-0.00061,0.00275,-0.01907,0.00107,-0.0116,-0.0618,-0.01129,-0.01709
6.5445,-0.00748,-0.04364,-0.0563,-0.00519,-0.02411,-0.04852,0.08148,-0.01175,0.00046,-0.00244,-0.02609,-0.00046,-0.01678,-0.05539,0.0238,-0.03586
6.545,-0.00748,-0.04379,-0.06897,-0.00366,-0.02197,-0.05936,0.07019,-0.01709,-0.00107,-0.01068,-0.02594,-0.00122,-0.03021,-0.04669,0.06271,-0.04776
6.5455,-0.00793,-0.04288,-0.06943,-0.00427,-0.01984,-0.06256,0.04456,-0.01907,-0.00458,-0.02411,-0.02243,-0.00031,-0.05325,-0.03082,0.07736,-0.04898
6.546,-0.00778,-0.04364,-0.05737,-0.0058,-0.0177,-0.06531,0.02991,-0.02014,-0.00992,-0.03891,-0.02182,0.00259,-0.07996,-0.01419,0.06607,-0.04623
6.5465,-0.0061,-0.04517,-0.04211,-0.00763,-0.0148,-0.0679,0.02502,-0.02106,-0.01495,-0.04822,-0.02258,0.00412,-0.0946,-0.00534,0.04486,-0.047
6.547,-0.00656,-0.04623,-0.0293,-0.01175,-0.01419,-0.0618,0.01266,-0.0209,-0.01877,-0.04944,-0.02304,0.00381,-0.08224,-0.00748,0.02563,-0.04944
6.5475,-0.00946,-0.04791,-0.01938,-0.01633,-0.01633,-0.04639,-0.00961,-0.01831,-0.01999,-0.04471,-0.02136,0.00107,-0.0531,-0.0116,0.00259,-0.05188
6.548,-0.01205,-0.04852,-0.01343,-0.01694,-0.02625,-0.0293,-0.01938,-0.01389,-0.01938,-0.03723,-0.01724,-0.00122,-0.03143,-0.01297,-0.01617,-0.05295
6.5485,-0.01236,-0.04761,-0.00854,-0.01251,-0.0383,-0.02396,-0.0087,-0.00351,-0.01923,-0.03265,-0.01373,-0.00259,-0.02472,-0.0119,-0.02243,-0.05035
6.549,-0.01053,-0.04501,-0.00732,-0.00824,-0.04974,-0.03113,0.00549,0.01022,-0.02182,-0.02899,-0.01038,-0.00275,-0.02029,-0.01007,-0.0206,-0.04501
6.5495,-0.00839,-0.04089,-0.00839,-0.00748,-0.05753,-0.03815,0.0029,0.01907,-0.02518,-0.02518,-0.01068,-0.00183,-0.00763,-0.01144,-0.02899,-0.03845
6.55,-0.00671,-0.03662,-0.00946,-0.00778,-0.06012,-0.03876,-0.01678,0.01907,-0.02747,-0.0209,-0.01328,0.00061,0.00565,-0.01205,-0.05142,-0.03174
6.5505,-0.00504,-0.03296,-0.01022,-0.0061,-0.05981,-0.03922,-0.0354,0.01282,-0.02975,-0.01511,-0.0148,0.00519,0.00473,-0.0145,-0.05005,-0.02716
6.551,-0.00458,-0.03174,-0.01389,-0.00336,-0.05936,-0.04196,-0.03906,0.00763,-0.03159,-0.00839,-0.01419,0.01007,-0.00687,-0.01984,-0.00107,-0.02548
6.5515,-0.00443,-0.03418,-0.02228,-0.00183,-0.05783,-0.04745,-0.02472,0.00534,-0.03067,-0.00427,-0.01236,0.01099,-0.02426,-0.03113,0.06577,-0.02792
6.552,-0.00443,-0.04028,-0.03036,0.0,-0.05325,-0.05295,-0.00092,0.00443,-0.02701,-0.00214,-0.01221,0.00626,-0.04745,-0.04059,0.09705,-0.03143
6.5525,-0.00275,-0.04547,-0.03265,0.00519,-0.04456,-0.0592,0.02075,0.00305,-0.02411,-0.00351,-0.01999,-0.00259,-0.07401,-0.04089,0.08499,-0.03708
6.553,-0.00244,-0.0473,-0.03021,0.00946,-0.03723,-0.06439,0.02487,0.00305,-0.02289,-0.00809,-0.03372,-0.01022,-0.08469,-0.03265,0.05798,-0.0444
6.5535,-0.00351,-0.04669,-0.02716,0.009,-0.03387,-0.06714,0.01099,0.00259,-0.02289,-0.01617,-0.04242,-0.01282,-0.06653,-0.02182,0.03387,-0.04913
6.554,-0.00534,-0.047,-0.02899,0.00366,-0.03464,-0.06912,-0.009,0.00122,-0.02182,-0.02243,-0.03616,-0.01022,-0.02899,-0.01495,0.01205,-0.04883
6.5545,-0.00626,-0.04883,-0.03403,-0.00061,-0.03632,-0.07462,-0.02121,-0.00092,-0.01968,-0.02533,-0.01877,-0.0058,0.00443,-0.009,-0.009,-0.04501
6.555,-0.0058,-0.05127,-0.04074,0.0,-0.03708,-0.07996,-0.02472,-0.0032,-0.01678,-0.02121,-0.00076,-0.00183,0.02151,-0.00748,-0.02548,-0.04196
6.5555,-0.00473,-0.05157,-0.04501,0.00427,-0.03754,-0.07629,-0.02304,-0.00519,-0.01648,-0.01724,0.00839,-0.00046,0.02747,-0.009,-0.03311,-0.04028
6.556,-0.00381,-0.04913,-0.04761,0.00214,-0.03799,-0.06149,-0.02213,-0.0061,-0.01755,-0.01465,0.01114,0.00031,0.02579,-0.01114,-0.02686,-0.04028
6.5565,-0.00229,-0.04532,-0.04639,-0.01465,-0.03342,-0.04105,-0.02319,-0.00595,-0.01846,-0.01434,0.01144,0.00015,0.01404,-0.01114,-0.00534,-0.04059
6.557,-0.0032,-0.04227,-0.04303,-0.04059,-0.02975,-0.02457,-0.02609,-0.00549,-0.01709,-0.01541,0.01022,-0.00168,-0.01205,-0.01053,0.02045,-0.03937
6.5575,-0.00519,-0.03998,-0.03922,-0.05768,-0.02563,-0.01923,-0.03113,-0.00458,-0.01373,-0.01526,0.0116,-0.00244,-0.04837,-0.01099,0.03876,-0.03708
6.558,-0.00717,-0.04044,-0.03723,-0.05203,-0.02548,-0.02701,-0.03769,-0.00351,-0.00458,-0.01312,0.0145,-0.0029,-0.08194,-0.00946,0.04089,-0.0351
6.5585,-0.00946,-0.04211,-0.03723,-0.03036,-0.03006,-0.04486,-0.04379,-0.00412,0.00992,-0.00977,0.01785,-0.00092,-0.1001,-0.00534,0.02869,-0.03601
6.559,-0.0119,-0.04272,-0.03784,-0.00961,-0.03555,-0.06348,-0.04654,-0.00366,0.02365,-0.01221,0.0209,-0.0029,-0.09995,-0.00153,0.00916,-0.03891
6.5595,-0.01358,-0.0412,-0.03891,0.00214,-0.03433,-0.07324,-0.04578,-0.00397,0.02838,-0.02701,0.02426,-0.00565,-0.0882,-0.00244,-0.00656,-0.04196
6.56,-0.01068,-0.03845,-0.03952,0.00717,-0.02853,-0.07263,-0.04272,-0.0032,0.02411,-0.04852,0.02441,-0.00717,-0.0705,-0.00519,-0.01282,-0.04257
6.5605,-0.0058,-0.03586,-0.03738,0.01236,-0.02441,-0.06897,-0.04074,-0.00336,0.01389,-0.06638,0.01755,-0.00519,-0.05051,-0.00641,-0.00702,-0.0415
6.561,-0.0029,-0.03311,-0.03281,0.01877,-0.02838,-0.06821,-0.04288,-0.00336,0.00046,-0.06683,0.00275,-0.00061,-0.03342,-0.00656,0.00412,-0.03891
6.5615,-0.00305,-0.03204,-0.02808,0.02182,-0.03708,-0.06927,-0.04501,-0.0058,-0.01236,-0.05341,-0.00992,0.00092,-0.02548,-0.00687,0.0119,-0.03647
6.562,-0.00519,-0.03387,-0.02762,0.01709,-0.04044,-0.06973,-0.03601,-0.0058,-0.02365,-0.03586,-0.00992,0.00031,-0.02411,-0.00931,0.01312,-0.03693
6.5625,-0.00656,-0.03815,-0.03479,0.00595,-0.03769,-0.06409,-0.01785,-0.00504,-0.03204,-0.01923,-0.00092,-0.00229,-0.02487,-0.01511,0.01053,-0.03845
6.563,-0.00671,-0.04105,-0.04822,-0.00595,-0.03372,-0.05142,-0.01053,-0.00458,-0.04089,-0.00397,0.00916,-0.00305,-0.02213,-0.02228,0.00793,-0.03967
6.5635,-0.00748,-0.04028,-0.06653,-0.01236,-0.03296,-0.03326,-0.03098,-0.00519,-0.05112,0.00748,0.01297,-0.00244,-0.01541,-0.02594,0.0032,-0.04089
6.564,-0.00885,-0.0386,-0.08316,-0.0148,-0.03418,-0.02121,-0.06256,-0.00549,-0.06058,0.01007,0.01495,-0.00015,-0.0087,-0.02747,-0.00366,-0.04211
6.5645,-0.01038,-0.03845,-0.0885,-0.01572,-0.03311,-0.02106,-0.07263,-0.00656,-0.06699,0.00702,0.01556,0.00183,-0.00732,-0.03098,-0.00946,-0.04395
6.565,-0.01007,-0.04059,-0.07629,-0.01938,-0.02884,-0.03006,-0.04929,-0.00671,-0.07233,0.00458,0.01099,0.00381,-0.01602,-0.03784,-0.01053,-0.04593
6.5655,-0.00778,-0.04349,-0.05646,-0.02335,-0.02365,-0.0383,-0.00793,-0.00656,-0.0705,0.00702,0.00061,0.00397,-0.03586,-0.03845,-0.00778,-0.04654
6.566,-0.00275,-0.04501,-0.0383,-0.02563,-0.01999,-0.03967,0.0354,-0.00504,-0.05768,0.01007,-0.01129,0.00488,-0.06241,-0.0296,-0.00732,-0.04593
6.5665,0.0032,-0.04517,-0.02579,-0.02609,-0.01907,-0.03723,0.07294,-0.0032,-0.0415,0.00717,-0.01846,0.00885,-0.07996,-0.01923,-0.0116,-0.04425
6.567,0.00824,-0.0444,-0.01816,-0.02472,-0.02457,-0.03113,0.0914,-0.00275,-0.03159,-0.00412,-0.02625,0.01312,-0.07202,-0.01373,-0.01633,-0.04395
6.5675,0.01114,-0.04486,-0.01465,-0.02014,-0.03525,-0.02304,0.07416,-0.00443,-0.02838,-0.01831,-0.03571,0.01373,-0.04486,-0.01083,-0.01434,-0.04501
6.568,0.01068,-0.0444,-0.01511,-0.01526,-0.04486,-0.02029,0.03403,-0.00626,-0.02304,-0.02716,-0.04715,0.00809,-0.0206,-0.00793,0.00397,-0.04379
6.5685,0.01144,-0.04303,-0.01633,-0.01114,-0.04623,-0.02823,0.00336,-0.00717,-0.0116,-0.02731,-0.05859,-0.00137,-0.0119,-0.00488,0.04166,-0.0412
6.569,0.01236,-0.04211,-0.01923,-0.01297,-0.04395,-0.04196,-0.00183,-0.0061,0.0,-0.02411,-0.06424,-0.00854,-0.01373,-0.00534,0.07477,-0.03815
6.5695,0.01144,-0.0415,-0.02274,-0.01587,-0.04166,-0.05051,0.00061,-0.00427,0.00565,-0.0206,-0.05875,-0.0087,-0.01907,-0.00961,0.07233,-0.03647
6.57,0.0087,-0.04044,-0.02502,-0.0174,-0.04227,-0.05096,-0.00748,-0.0032,0.00626,-0.02121,-0.04471,-0.00046,-0.02502,-0.01404,0.03464,-0.0386
6.5705,0.00381,-0.04135,-0.0296,-0.01526,-0.03754,-0.04913,-0.02182,-0.0032,0.00458,-0.02136,-0.0351,0.01022,-0.03128,-0.01617,-0.00122,-0.04135
6.571,-0.00107,-0.04456,-0.03448,-0.00916,-0.02762,-0.04837,-0.03098,-0.00351,0.0029,-0.01968,-0.03677,0.01358,-0.03525,-0.01587,-0.01129,-0.04288
6.5715,-0.00427,-0.04974,-0.03784,-0.00336,-0.01953,-0.04913,-0.03387,-0.00351,0.00198,-0.01556,-0.04501,0.01007,-0.03372,-0.01495,-0.00641,-0.0444
6.572,-0.00671,-0.05249,-0.03662,0.00153,-0.01923,-0.04929,-0.0351,-0.00351,0.00229,-0.01068,-0.04944,0.00641,-0.02731,-0.01572,-0.00397,-0.04456
6.5725,-0.0119,-0.05051,-0.03418,0.00305,-0.02365,-0.05051,-0.03601,-0.00443,0.00275,-0.0087,-0.04486,0.01083,-0.02182,-0.01755,-0.00305,-0.0444
6.573,-0.0206,-0.04684,-0.03326,0.00275,-0.02655,-0.05157,-0.03586,-0.00458,0.00107,-0.00946,-0.03479,0.01602,-0.02182,-0.02045,0.00168,-0.04364
6.5735,-0.03128,-0.04379,-0.0351,0.00259,-0.02731,-0.05325,-0.03265,-0.00351,-0.00198,-0.01068,-0.02319,0.01648,-0.02548,-0.02258,0.00549,-0.04166
6.574,-0.04211,-0.04272,-0.03677,0.00046,-0.02777,-0.05386,-0.02533,-0.00305,-0.00534,-0.00839,-0.01389,0.01022,-0.02609,-0.02167,0.00443,-0.04105
6.5745,-0.0473,-0.0412,-0.0383,-0.00244,-0.02975,-0.05295,-0.01236,-0.00351,-0.00793,-0.00488,-0.00534,0.00076,-0.02365,-0.01938,0.00031,-0.04166
6.575,-0.0441,-0.03784,-0.03677,-0.0061,-0.03098,-0.05173,0.00061,-0.00473,-0.00961,-0.00137,0.0032,-0.01068,-0.02335,-0.01846,0.00046,-0.04333
6.5755,-0.03098,-0.03525,-0.03296,-0.01068,-0.02991,-0.05173,0.0032,-0.00488,-0.01328,-0.00366,0.01343,-0.02426,-0.02487,-0.01999,0.00305,-0.04272
6.576,-0.01541,-0.03448,-0.02914,-0.01434,-0.02655,-0.05508,-0.00397,-0.00534,-0.01755,-0.01083,0.02228,-0.03677,-0.02731,-0.02045,0.0032,-0.04028
6.5765,-0.00656,-0.03403,-0.02914,-0.01709,-0.02243,-0.05859,-0.00977,-0.00519,-0.02151,-0.02075,0.02808,-0.04166,-0.02808,-0.02014,-0.00366,-0.03937
6.577,-0.00565,-0.03036,-0.03021,-0.01709,-0.0209,-0.06149,-0.00916,-0.00534,-0.02335,-0.03067,0.03372,-0.03845,-0.02869,-0.01968,-0.01282,-0.04028
6.5775,-0.00824,-0.02396,-0.03403,-0.01953,-0.02319,-0.06027,-0.00702,-0.00458,-0.02228,-0.03815,0.0415,-0.02945,-0.02975,-0.0206,-0.01602,-0.04303
6.578,-0.00839,-0.01877,-0.03662,-0.02487,-0.02747,-0.05875,-0.0087,-0.00397,-0.02182,-0.04196,0.04852,-0.01617,-0.03036,-0.0235,-0.01556,-0.04181
6.5785,-0.00702,-0.02014,-0.03784,-0.03143,-0.02975,-0.05783,-0.01511,-0.00275,-0.02228,-0.04181,0.05173,-0.00473,-0.02991,-0.02518,-0.01617,-0.0386
6.579,-0.00534,-0.02716,-0.03647,-0.03311,-0.03052,-0.05829,-0.02258,-0.00214,-0.02487,-0.03967,0.05005,0.00259,-0.02914,-0.02594,-0.01816,-0.03571
6.5795,-0.0029,-0.03464,-0.03479,-0.0325,-0.03342,-0.05585,-0.02502,-0.00183,-0.02716,-0.03677,0.04105,0.00641,-0.02762,-0.02518,-0.01785,-0.03891
6.58,0.00137,-0.03677,-0.03342,-0.02991,-0.03876,-0.05219,-0.01999,-0.00061,-0.02762,-0.03128,0.02121,0.0119,-0.02304,-0.02411,-0.00656,-0.04654
6.5805,0.00366,-0.03418,-0.03311,-0.02792,-0.04318,-0.04761,-0.01511,-0.00015,-0.02869,-0.02777,-0.00595,0.0174,-0.01709,-0.02396,0.0174,-0.05219
6.581,0.00412,-0.0322,-0.03342,-0.02777,-0.03983,-0.04318,-0.02121,0.0,-0.0293,-0.0238,-0.02914,0.0148,-0.01343,-0.02502,0.04227,-0.05112
6.5815,0.00229,-0.03296,-0.03326,-0.02991,-0.02975,-0.03952,-0.03815,-0.00046,-0.02823,-0.02075,-0.04303,0.0029,-0.01419,-0.02457,0.04669,-0.04532
6.582,0.00168,-0.03586,-0.03601,-0.0293,-0.02045,-0.03998,-0.05508,-0.00153,-0.02411,-0.01648,-0.05081,-0.01099,-0.01877,-0.02106,0.02548,-0.03784
6.5825,0.00183,-0.0386,-0.04608,-0.02289,-0.01816,-0.04745,-0.06378,-0.00244,-0.01724,-0.01099,-0.05768,-0.01892,-0.02502,-0.01572,0.00931,-0.03464
6.583,0.00168,-0.04135,-0.06287,-0.01007,-0.02365,-0.05585,-0.06454,-0.00336,-0.00885,-0.00534,-0.06409,-0.01785,-0.03372,-0.01251,0.01846,-0.03403
6.5835,0.00214,-0.04578,-0.08087,0.00504,-0.03159,-0.0589,-0.06195,-0.00443,0.00076,0.0,-0.06729,-0.0116,-0.04486,-0.01236,0.03616,-0.03616
6.584,0.00305,-0.05142,-0.08728,0.02029,-0.03525,-0.05783,-0.05692,-0.0058,0.00793,0.00122,-0.06241,-0.0058,-0.04959,-0.01373,0.03098,-0.03937
6.5845,0.0032,-0.05661,-0.07019,0.03662,-0.03479,-0.05661,-0.04639,-0.00595,0.00946,-0.00137,-0.05264,-0.00214,-0.03723,-0.01465,0.00351,-0.04532
6.585,0.0029,-0.06027,-0.03433,0.04562,-0.0322,-0.05432,-0.0296,-0.0061,0.0061,-0.00732,-0.04318,0.00122,-0.01709,-0.01434,-0.01373,-0.05051
6.5855,0.00168,-0.05951,0.00183,0.03571,-0.02991,-0.0473,-0.00534,-0.00671,-0.00031,-0.01923,-0.03815,0.0058,-0.00885,-0.01007,-0.00397,-0.05203
6.586,0.00122,-0.05539,0.02213,0.01038,-0.02899,-0.03601,0.02365,-0.00671,-0.00488,-0.03647,-0.03632,0.0116,-0.0177,-0.00427,0.01984,-0.04852
6.5865,0.00031,-0.05066,0.02197,-0.01114,-0.02899,-0.02716,0.04623,-0.00595,-0.00824,-0.05157,-0.0351,0.01617,-0.03265,-0.00458,0.03052,-0.04257
6.587,-0.00122,-0.04776,0.01083,-0.01556,-0.02991,-0.02426,0.04517,-0.00443,-0.00961,-0.05798,-0.03601,0.01526,-0.04379,-0.01129,0.02045,-0.04013
6.5875,-0.00397,-0.04868,0.00107,-0.00992,-0.03098,-0.02655,0.01755,-0.00458,-0.00946,-0.05524,-0.04242,0.01175,-0.05096,-0.01572,0.00458,-0.04059
6.588,-0.00717,-0.05402,-0.00626,-0.0061,-0.03204,-0.03006,-0.01633,-0.00519,-0.00763,-0.0499,-0.05112,0.01099,-0.05173,-0.00992,-0.00977,-0.0412
6.5885,-0.01022,-0.05737,-0.01404,-0.00824,-0.03403,-0.02991,-0.03784,-0.0061,-0.00717,-0.04364,-0.0528,0.01297,-0.03998,-0.00275,-0.02258,-0.04181
6.589,-0.0119,-0.05585,-0.02304,-0.00992,-0.0354,-0.02106,-0.04456,-0.00656,-0.00687,-0.03662,-0.04456,0.01312,-0.02243,-0.00687,-0.0293,-0.04379
6.5895,-0.0119,-0.0499,-0.03189,-0.00885,-0.0354,0.00275,-0.0415,-0.00427,-0.00854,-0.0267,-0.02975,0.01022,-0.01144,-0.01816,-0.01801,-0.04517
6.59,-0.01038,-0.04471,-0.03876,-0.00656,-0.03311,0.03769,-0.02396,-0.00122,-0.01221,-0.01556,-0.01587,0.00671,-0.0119,-0.02274,0.01358,-0.04471
6.5905,-0.00916,-0.04089,-0.04486,-0.00763,-0.02899,0.06439,0.00641,0.00015,-0.01663,-0.00336,-0.00473,0.00519,-0.01968,-0.0209,0.04059,-0.04257
6.591,-0.00931,-0.0354,-0.04776,-0.00931,-0.02167,0.06317,0.0322,0.0,-0.02045,0.01251,0.00076,0.00381,-0.03128,-0.02548,0.04044,-0.04059
6.5915,-0.01053,-0.02838,-0.047,-0.01022,-0.01404,0.02899,0.0322,-0.00122,-0.02274,0.02945,0.00061,0.00198,-0.04623,-0.03754,0.01465,-0.04028
6.592,-0.01053,-0.02563,-0.04532,-0.01007,-0.01083,-0.02716,0.01404,-0.00214,-0.02258,0.03815,-0.00595,0.00122,-0.05569,-0.04593,-0.01175,-0.04135
6.5925,-0.00916,-0.02625,-0.04654,-0.009,-0.01404,-0.08499,0.00153,-0.00137,-0.02014,0.0351,-0.01129,0.00259,-0.05615,-0.04593,-0.01511,-0.04272
6.593,-0.00656,-0.0267,-0.0502,-0.00885,-0.02075,-0.13565,0.00397,0.00198,-0.01694,0.02304,-0.01266,0.00336,-0.05356,-0.04684,0.01389,-0.04456
6.5935,-0.00336,-0.02457,-0.05219,-0.00977,-0.0293,-0.18341,0.0029,0.00931,-0.01373,0.01099,-0.01251,0.00153,-0.05157,-0.05066,0.0647,-0.04807
6.594,0.00122,-0.02151,-0.05096,-0.01221,-0.03922,-0.23193,-0.01205,0.01526,-0.01053,0.00168,-0.01099,-0.00275,-0.04532,-0.04913,0.09796,-0.05112
6.5945,0.00381,-0.02319,-0.04562,-0.01419,-0.04852,-0.25726,-0.02609,0.01633,-0.00839,-0.00427,-0.00763,-0.00397,-0.03403,-0.03738,0.07538,-0.05295
6.595,0.00397,-0.03082,-0.03967,-0.0148,-0.05371,-0.21988,-0.02411,0.01129,-0.00916,-0.00854,-0.00229,-0.00092,-0.0264,-0.02243,0.01129,-0.05234
6.5955,0.00336,-0.03891,-0.03586,-0.01373,-0.05661,-0.12558,-0.01129,0.00412,-0.01236,-0.01251,0.00046,0.0032,-0.02838,-0.01404,-0.04272,-0.04959
6.596,0.00381,-0.04303,-0.03403,-0.01236,-0.06119,-0.03601,-0.00244,-0.0029,-0.01648,-0.01419,-0.00153,0.00595,-0.03372,-0.0119,-0.05707,-0.04517
6.5965,0.00473,-0.04166,-0.03326,-0.01144,-0.06546,0.00153,-0.00107,-0.00992,-0.01831,-0.01389,-0.00702,0.00916,-0.03128,-0.01282,-0.04044,-0.04105
6.597,0.00427,-0.0383,-0.03326,-0.0119,-0.06058,0.00656,-0.00214,-0.01526,-0.01923,-0.01389,-0.01282,0.01419,-0.0235,-0.0145,-0.01953,-0.03769
6.5975,0.00412,-0.03494,-0.03296,-0.01328,-0.047,0.01862,-0.00198,-0.01862,-0.01968,-0.01755,-0.01602,0.01892,-0.02029,-0.01587,-0.00244,-0.03815
6.598,0.00534,-0.0322,-0.03403,-0.0148,-0.0351,0.04288,-0.00092,-0.01968,-0.02075,-0.02274,-0.01572,0.01678,-0.02747,-0.01831,0.01907,-0.04135
6.5985,0.00595,-0.03082,-0.03494,-0.01678,-0.03616,0.0589,-0.00229,-0.02258,-0.02151,-0.02655,-0.01053,0.0116,-0.03967,-0.02258,0.04837,-0.04623
6.599,0.00488,-0.03281,-0.03616,-0.01678,-0.04288,0.05508,-0.00793,-0.02457,-0.02411,-0.0264,-0.00137,0.01144,-0.0499,-0.03006,0.06714,-0.04837
6.5995,0.00107,-0.03769,-0.04227,-0.01602,-0.04395,0.03525,-0.0145,-0.02396,-0.02701,-0.02304,0.00305,0.01724,-0.05341,-0.03616,0.05844,-0.04456
6.6,-0.00153,-0.04288,-0.04883,-0.01419,-0.04059,0.00336,-0.01892,-0.01801,-0.0296,-0.02167,-0.00061,0.01907,-0.05066,-0.03418,0.03555,-0.0386
6.6005,-0.0032,-0.04562,-0.04974,-0.01297,-0.03723,-0.04761,-0.0209,-0.01022,-0.03143,-0.02319,-0.01083,0.00763,-0.04379,-0.02411,0.02289,-0.03448
6.601,-0.0032,-0.04501,-0.03769,-0.01373,-0.03662,-0.11841,-0.02518,-0.00473,-0.03296,-0.02594,-0.01892,-0.01495,-0.03662,-0.01266,0.02136,-0.03311
6.6015,-0.00366,-0.04318,-0.01938,-0.01389,-0.03433,-0.18311,-0.03372,-0.00244,-0.03387,-0.02823,-0.01907,-0.03555,-0.03433,-0.00748,0.01801,-0.03418
6.602,-0.0029,-0.04181,-0.00732,-0.01465,-0.03067,-0.2063,-0.04333,-0.00198,-0.03281,-0.02884,-0.01205,-0.0354,-0.0386,-0.00793,0.01358,-0.03616
6.6025,-0.0029,-0.04227,-0.00702,-0.01526,-0.02747,-0.17029,-0.04684,-0.00336,-0.02991,-0.03052,-0.00351,-0.01068,-0.04272,-0.0087,0.0148,-0.03723
6.603,-0.00473,-0.04318,-0.01358,-0.01526,-0.02625,-0.10056,-0.03967,-0.00549,-0.02594,-0.03006,-0.00061,0.02182,-0.0412,-0.00717,0.01633,-0.03769
6.6035,-0.00916,-0.04456,-0.01984,-0.01434,-0.02518,-0.04608,-0.02625,-0.00626,-0.02335,-0.03006,-0.00656,0.04211,-0.03342,-0.00534,0.00732,-0.03799
6.604,-0.01251,-0.04501,-0.02457,-0.01419,-0.02441,-0.02914,-0.01556,-0.00626,-0.02197,-0.03067,-0.0174,0.04181,-0.02441,-0.00427,-0.00641,-0.03922
6.6045,-0.01404,-0.04501,-0.02914,-0.01434,-0.02319,-0.03036,-0.01205,-0.00549,-0.02106,-0.03036,-0.0296,0.02136,-0.01755,-0.00443,-0.00687,-0.04074
6.605,-0.01617,-0.04318,-0.0354,-0.01312,-0.02029,-0.02426,-0.01205,-0.00641,-0.01846,-0.03143,-0.0412,-0.01022,-0.01602,-0.00443,0.01297,-0.04288
6.6055,-0.02029,-0.04074,-0.03891,-0.01144,-0.01694,-0.00748,-0.01175,-0.00656,-0.01419,-0.0325,-0.05234,-0.03876,-0.01755,-0.00412,0.03113,-0.04669
6.606,-0.02243,-0.03891,-0.03876,-0.00778,-0.01495,0.00595,-0.01282,-0.00641,-0.01007,-0.0351,-0.0592,-0.04807,-0.0209,-0.00412,0.02365,-0.05112
6.6065,-0.01816,-0.03967,-0.03693,-0.00259,-0.0145,0.00732,-0.01541,-0.0058,-0.00793,-0.04028,-0.05859,-0.0325,-0.0267,-0.00748,0.00198,-0.0528
6.607,-0.00916,-0.04028,-0.03662,0.00244,-0.01572,-0.00351,-0.01831,-0.00488,-0.00824,-0.04456,-0.05051,0.00229,-0.03479,-0.01724,-0.00336,-0.0502
6.6075,-0.00244,-0.03998,-0.03967,0.00519,-0.01587,-0.01801,-0.02213,-0.00504,-0.01038,-0.0444,-0.03998,0.04105,-0.04028,-0.03311,0.01221,-0.04501
6.608,-0.00198,-0.03708,-0.04272,0.00443,-0.01602,-0.0322,-0.02762,-0.00595,-0.01175,-0.04059,-0.03036,0.05936,-0.04074,-0.04791,0.02304,-0.04044
6.6085,-0.00534,-0.03281,-0.0444,0.00168,-0.01511,-0.04532,-0.03098,-0.00656,-0.01236,-0.03738,-0.02228,0.05142,-0.03571,-0.04959,0.01602,-0.0383
6.609,-0.00946,-0.02945,-0.04333,-0.00168,-0.01511,-0.06012,-0.02533,-0.00504,-0.01129,-0.03891,-0.01404,0.03708,-0.02975,-0.03677,0.00443,-0.03922
6.6095,-0.01358,-0.02945,-0.04013,-0.00534,-0.01572,-0.07492,-0.01328,-0.00229,-0.00992,-0.04196,-0.009,0.02579,-0.02396,-0.02121,0.00031,-0.04074
6.61,-0.01816,-0.03235,-0.03632,-0.00992,-0.01984,-0.08026,-0.009,-0.00061,-0.00702,-0.04166,-0.0087,-0.00229,-0.01755,-0.0174,-0.00031,-0.04089
6.6105,-0.02289,-0.03723,-0.03372,-0.01389,-0.03098,-0.06317,-0.01831,-0.00244,-0.00641,-0.03799,-0.0087,-0.05051,-0.01343,-0.02182,-0.00458,-0.04044
6.611,-0.02411,-0.0415,-0.03342,-0.01663,-0.04913,-0.03342,-0.02686,-0.01221,-0.00671,-0.03036,-0.00687,-0.0853,-0.01602,-0.02502,-0.00854,-0.03891
6.6115,-0.02213,-0.04318,-0.03464,-0.0177,-0.06439,-0.01587,-0.02289,-0.03616,-0.00961,-0.02167,-0.00259,-0.07935,-0.02396,-0.02548,-0.00702,-0.03952
6.612,-0.01755,-0.04349,-0.03693,-0.01785,-0.06378,-0.02319,-0.00931,-0.06882,-0.01205,-0.01266,0.00198,-0.0589,-0.03311,-0.02319,-0.00427,-0.04166
6.6125,-0.01266,-0.0444,-0.04166,-0.01816,-0.04974,-0.04974,-0.00076,-0.08194,-0.01389,-0.00443,0.00626,-0.06638,-0.04059,-0.02045,-0.0029,-0.04395
6.613,-0.00809,-0.04639,-0.047,-0.0209,-0.03677,-0.07782,-0.00137,-0.05219,-0.01434,-0.00092,0.00839,-0.09155,-0.05112,-0.01678,-0.00854,-0.04547
6.6135,-0.00565,-0.04959,-0.05203,-0.02579,-0.02884,-0.08347,-0.0087,0.00519,-0.01297,0.00092,0.00641,-0.08591,-0.06134,-0.01129,-0.01953,-0.04562
6.614,-0.00275,-0.05081,-0.05478,-0.02975,-0.02502,-0.05341,-0.01694,0.05234,-0.01282,0.00183,0.0029,-0.04074,-0.06241,-0.00641,-0.03067,-0.04456
6.6145,-0.00015,-0.05035,-0.05478,-0.03143,-0.0235,-0.00534,-0.02014,0.07004,-0.0148,0.00351,0.00031,-0.00046,-0.05157,-0.00366,-0.03464,-0.04364
6.615,0.00259,-0.04913,-0.05234,-0.03052,-0.02319,0.02731,-0.01526,0.06546,-0.01678,0.00168,0.00153,-0.00366,-0.03922,-0.0032,-0.0293,-0.04349
6.6155,0.0058,-0.0502,-0.04913,-0.02716,-0.0264,0.03281,-0.00381,0.04837,-0.01801,-0.00351,0.00336,-0.03311,-0.03281,-0.00412,-0.02213,-0.04395
6.616,0.0087,-0.05219,-0.04456,-0.0206,-0.02777,0.02167,0.0061,0.02411,-0.02014,-0.00946,0.00427,-0.0412,-0.03159,-0.00748,-0.02319,-0.0444
6.6165,0.01068,-0.05264,-0.0412,-0.01526,-0.02762,-0.00412,0.01205,0.00031,-0.02304,-0.01144,0.00488,-0.0061,-0.02823,-0.01328,-0.02975,-0.04349
6.617,0.01205,-0.0499,-0.04105,-0.01328,-0.02701,-0.05859,0.01328,-0.01389,-0.02502,-0.01282,0.00916,0.04303,-0.02106,-0.01953,-0.02838,-0.04318
6.6175,0.01389,-0.04562,-0.04288,-0.0148,-0.02762,-0.13763,0.01068,-0.01633,-0.02289,-0.01617,0.01785,0.0621,-0.01221,-0.02106,-0.01389,-0.04288
6.618,0.01419,-0.04196,-0.04333,-0.01724,-0.03021,-0.19577,0.00427,-0.01022,-0.01801,-0.02045,0.0235,0.0441,-0.00732,-0.01862,0.00031,-0.04379
6.6185,0.01129,-0.04166,-0.03952,-0.01907,-0.03418,-0.18433,-0.00305,-0.00046,-0.01205,-0.02136,0.0177,0.0235,-0.00854,-0.01755,0.00076,-0.04349
6.619,0.00656,-0.04364,-0.03342,-0.01999,-0.03769,-0.11948,-0.009,0.0061,-0.00778,-0.0174,0.00259,0.03006,-0.01526,-0.0206,-0.0058,-0.04181
6.6195,0.00214,-0.04456,-0.02762,-0.01907,-0.03891,-0.06012,-0.01511,0.00809,-0.0058,-0.01022,-0.01175,0.05554,-0.02243,-0.02502,-0.00656,-0.04089
6.62,0.00015,-0.04364,-0.0238,-0.01602,-0.03723,-0.03952,-0.02289,0.00549,-0.00565,-0.00793,-0.02106,0.06607,-0.03021,-0.02655,-0.00214,-0.0415
6.6205,-0.00076,-0.04196,-0.02106,-0.01114,-0.0351,-0.0441,-0.03296,0.00198,-0.00916,-0.0145,-0.02716,0.04776,-0.04135,-0.02701,0.00153,-0.04379
6.621,-0.00244,-0.04166,-0.02029,-0.00641,-0.03448,-0.05096,-0.0415,0.00015,-0.01587,-0.02884,-0.03281,0.01892,-0.05157,-0.02869,0.01129,-0.04379
6.6215,-0.00565,-0.04333,-0.02258,-0.00275,-0.03403,-0.05157,-0.04578,0.00076,-0.02319,-0.04089,-0.03632,0.00122,-0.05295,-0.02899,0.04181,-0.04074
6.622,-0.00702,-0.04547,-0.02518,-0.00122,-0.03494,-0.04883,-0.04333,0.00137,-0.0267,-0.04532,-0.03616,-0.00198,-0.04486,-0.0267,0.08606,-0.04013
6.6225,-0.0058,-0.04669,-0.0267,-0.00076,-0.03616,-0.04501,-0.03677,0.0,-0.02563,-0.04242,-0.03326,0.00076,-0.03723,-0.02228,0.11398,-0.04181
6.623,-0.00397,-0.04578,-0.02609,-0.00046,-0.03815,-0.04135,-0.02655,-0.00046,-0.02304,-0.03815,-0.02808,0.00397,-0.03769,-0.01923,0.1033,-0.04288
6.6235,-0.00168,-0.04364,-0.02563,0.00046,-0.04028,-0.0386,-0.01572,0.00031,-0.02136,-0.03586,-0.0209,0.00671,-0.04013,-0.01831,0.05692,-0.03998
6.624,-0.00031,-0.04272,-0.02747,0.00092,-0.04013,-0.03464,-0.01282,0.00244,-0.02014,-0.0354,-0.01526,0.00778,-0.03799,-0.01617,0.00748,-0.03662
6.6245,-0.00046,-0.0441,-0.02899,-0.00046,-0.03418,-0.0264,-0.02151,0.00549,-0.01999,-0.03448,-0.01205,0.00565,-0.03128,-0.01419,-0.01312,-0.03586
6.625,-0.00275,-0.04929,-0.0293,-0.00504,-0.02319,-0.01816,-0.03143,0.00885,-0.01984,-0.03006,-0.00961,0.00076,-0.0267,-0.0145,-0.0029,-0.03769
6.6255,-0.00504,-0.05722,-0.0296,-0.00916,-0.01312,-0.0087,-0.03189,0.01251,-0.01907,-0.02319,-0.00549,-0.00244,-0.02945,-0.01831,0.01953,-0.03998
6.626,-0.0061,-0.06363,-0.03021,-0.01038,-0.00992,0.0029,-0.0235,0.01434,-0.01907,-0.01984,0.00092,-0.00351,-0.03952,-0.02335,0.03052,-0.04166
6.6265,-0.00626,-0.06378,-0.03036,-0.00992,-0.01328,0.01068,-0.01633,0.01404,-0.02014,-0.02045,0.00397,-0.00229,-0.05356,-0.02747,0.02365,-0.04333
6.627,-0.00793,-0.05753,-0.0322,-0.00946,-0.02151,0.00702,-0.01633,0.01007,-0.02182,-0.01999,0.00168,-0.00031,-0.0647,-0.02853,0.00275,-0.04303
6.6275,-0.00824,-0.04898,-0.03555,-0.01251,-0.03036,-0.0058,-0.01938,0.00366,-0.02136,-0.01404,-0.00427,0.00183,-0.06454,-0.02579,-0.02213,-0.04227
6.628,-0.00839,-0.04044,-0.03738,-0.01389,-0.03754,-0.02182,-0.0174,-0.00366,-0.01663,-0.00275,-0.00992,0.00381,-0.04959,-0.02274,-0.04135,-0.04074
6.6285,-0.00839,-0.03342,-0.03876,-0.01221,-0.0412,-0.03983,-0.01068,-0.01022,-0.01129,0.00763,-0.0116,0.00534,-0.0264,-0.02014,-0.04852,-0.03937
6.629,-0.00839,-0.03021,-0.0383,-0.00854,-0.04242,-0.06683,-0.0116,-0.01465,-0.00763,0.01373,-0.01114,0.00977,-0.009,-0.01755,-0.04272,-0.03937
6.6295,-0.00931,-0.03281,-0.03632,-0.00946,-0.04105,-0.1001,-0.0238,-0.01602,-0.00961,0.01541,-0.01038,0.01984,-0.00519,-0.0148,-0.03098,-0.04044
6.63,-0.01022,-0.03952,-0.03189,-0.01556,-0.03723,-0.11795,-0.03876,-0.01587,-0.01541,0.01892,-0.00992,0.03372,-0.01114,-0.01389,-0.02045,-0.04135
6.6305,-0.0116,-0.04349,-0.0296,-0.02411,-0.03372,-0.10559,-0.04074,-0.01633,-0.01968,0.02167,-0.0119,0.03738,-0.01984,-0.01556,-0.01419,-0.04166
6.631,-0.0116,-0.04456,-0.03311,-0.02762,-0.03235,-0.07507,-0.02411,-0.01831,-0.01923,0.0235,-0.01358,0.02274,-0.02808,-0.01678,-0.00565,-0.04181
6.6315,-0.00992,-0.04318,-0.04486,-0.02228,-0.03403,-0.05417,0.00748,-0.02182,-0.01587,0.01923,-0.01434,-0.00366,-0.03769,-0.01663,0.00595,-0.04181
6.632,-0.009,-0.04257,-0.05264,-0.01434,-0.0354,-0.0473,0.04135,-0.02487,-0.01419,0.00931,-0.01617,-0.02579,-0.047,-0.01358,0.01389,-0.04364
6.6325,-0.00946,-0.04013,-0.04669,-0.01282,-0.03296,-0.04135,0.05402,-0.02441,-0.01404,-0.00046,-0.02014,-0.03677,-0.05051,-0.01007,0.01968,-0.04547
6.633,-0.01053,-0.03296,-0.03174,-0.01846,-0.02884,-0.02945,0.03403,-0.01877,-0.01495,-0.00443,-0.02701,-0.04166,-0.04745,-0.01282,0.03571,-0.04532
6.6335,-0.01022,-0.02365,-0.01953,-0.02625,-0.02609,-0.02167,-0.00443,-0.01114,-0.01709,-0.00565,-0.03464,-0.04547,-0.03983,-0.0206,0.06638,-0.04425
6.634,-0.00977,-0.01617,-0.01526,-0.0322,-0.02533,-0.0238,-0.04044,-0.0061,-0.01892,-0.00534,-0.03952,-0.03784,-0.03281,-0.02472,0.09247,-0.04242
6.6345,-0.0116,-0.01266,-0.01709,-0.03616,-0.02548,-0.02808,-0.05829,-0.00412,-0.0209,-0.00626,-0.04349,-0.00717,-0.02686,-0.02243,0.09247,-0.04013
6.635,-0.01389,-0.01389,-0.01831,-0.03098,-0.02563,-0.03006,-0.05234,-0.00412,-0.02228,-0.01038,-0.0473,0.03525,-0.02365,-0.0177,0.0589,-0.03677
6.6355,-0.01495,-0.01892,-0.02106,-0.00824,-0.02533,-0.03555,-0.02304,-0.00412,-0.02396,-0.01633,-0.04944,0.05569,-0.02426,-0.01801,0.01343,-0.03494
6.636,-0.01373,-0.02487,-0.02457,0.02304,-0.02457,-0.04837,0.01541,-0.00458,-0.02533,-0.02411,-0.04715,0.04074,-0.02701,-0.01999,-0.01129,-0.03693
6.6365,-0.01129,-0.02792,-0.02747,0.0412,-0.02686,-0.06332,0.03738,-0.00565,-0.02625,-0.03128,-0.0386,0.01221,-0.02899,-0.02136,-0.00229,-0.04089
6.637,-0.00763,-0.03067,-0.0296,0.03296,-0.03021,-0.0708,0.03082,-0.00656,-0.02563,-0.03571,-0.02777,-0.00351,-0.02701,-0.02106,0.02106,-0.04395
6.6375,-0.0032,-0.03403,-0.03326,0.01007,-0.03128,-0.06821,0.0148,-0.00748,-0.02182,-0.03342,-0.01572,-0.00443,-0.02182,-0.02197,0.02716,-0.04364
6.638,-0.00137,-0.03647,-0.0386,-0.00671,-0.02991,-0.05844,0.01282,-0.00763,-0.0174,-0.02853,-0.00229,-0.00198,-0.01663,-0.02335,0.00809,-0.04303
6.6385,-0.00214,-0.03784,-0.04486,-0.00977,-0.03159,-0.04379,0.02655,-0.00702,-0.01465,-0.0238,0.00839,-0.0029,-0.01343,-0.02335,-0.02045,-0.04272
6.639,-0.00412,-0.03769,-0.04578,-0.0061,-0.03693,-0.02853,0.03815,-0.0058,-0.01617,-0.0235,0.01526,-0.0061,-0.01389,-0.01938,-0.04089,-0.04379
6.6395,-0.00504,-0.03815,-0.03799,-0.00504,-0.04364,-0.02121,0.03036,-0.00381,-0.02106,-0.02441,0.02182,-0.01068,-0.01785,-0.00748,-0.04257,-0.04364
6.64,-0.00351,-0.03906,-0.02808,-0.00839,-0.04562,-0.0267,0.00549,-0.00336,-0.02823,-0.02548,0.0322,-0.01648,-0.02655,0.01099,-0.02884,-0.04181
6.6405,-0.00244,-0.04059,-0.02335,-0.01266,-0.04059,-0.03891,-0.01801,-0.00412,-0.03479,-0.02518,0.04105,-0.0177,-0.03876,0.02426,-0.00793,-0.03891
6.641,-0.00366,-0.04227,-0.0267,-0.01495,-0.03296,-0.04822,-0.02899,-0.00641,-0.03571,-0.02594,0.03922,-0.01495,-0.04974,0.02716,0.00977,-0.03647
6.6415,-0.00519,-0.04395,-0.03098,-0.01511,-0.02792,-0.05035,-0.03159,-0.00671,-0.02914,-0.02686,0.02777,-0.01419,-0.05356,0.02121,0.01633,-0.0354
6.642,-0.00458,-0.04715,-0.03448,-0.01572,-0.02701,-0.05066,-0.03525,-0.00763,-0.01984,-0.03296,0.01755,-0.02167,-0.04517,0.0145,0.01343,-0.03693
6.6425,-0.00214,-0.04974,-0.03494,-0.01709,-0.03006,-0.04852,-0.03952,-0.00778,-0.01114,-0.04425,0.01389,-0.03326,-0.0296,0.0119,0.00854,-0.03952
6.643,-0.00214,-0.05173,-0.03601,-0.01663,-0.03723,-0.03983,-0.03983,-0.00626,-0.00763,-0.05814,0.01358,-0.03342,-0.02075,0.0058,0.00351,-0.04028
6.6435,-0.00336,-0.05432,-0.03769,-0.01373,-0.04471,-0.0264,-0.03525,-0.00458,-0.0061,-0.06729,0.009,-0.01221,-0.0235,-0.01129,-0.00259,-0.04089
6.644,-0.0029,-0.056,-0.04105,-0.01022,-0.04883,-0.01877,-0.02884,-0.00443,-0.00443,-0.06882,-0.00168,0.01755,-0.0293,-0.0325,0.00519,-0.04196
6.6445,-0.00122,-0.05341,-0.04456,-0.00549,-0.04547,-0.02533,-0.02045,-0.00443,-0.00122,-0.06729,-0.01343,0.03052,-0.02747,-0.04684,0.02914,-0.04303
6.645,0.00061,-0.04761,-0.04242,-0.00137,-0.03769,-0.04028,-0.01205,-0.00473,0.0061,-0.06317,-0.02258,0.01907,-0.02167,-0.05524,0.03723,-0.04456
6.6455,0.00259,-0.04425,-0.03281,0.00183,-0.03235,-0.04852,-0.00748,-0.00549,0.01755,-0.05447,-0.02792,-0.00427,-0.01831,-0.06226,0.01404,-0.04562
6.646,0.00305,-0.04517,-0.02106,0.00122,-0.03357,-0.04486,-0.00778,-0.00519,0.02869,-0.03983,-0.03098,-0.01312,-0.01724,-0.06165,-0.00748,-0.047
6.6465,0.00305,-0.04868,-0.02563,-0.00214,-0.03815,-0.03998,-0.01144,-0.0029,0.0354,-0.02213,-0.03159,0.00702,-0.01541,-0.05081,0.00397,-0.04761
6.647,0.0032,-0.05112,-0.05859,-0.00854,-0.04059,-0.04074,-0.01175,0.00031,0.03723,-0.00656,-0.03265,0.04028,-0.0119,-0.03494,0.02884,-0.04684
6.6475,0.00275,-0.05081,-0.11063,-0.01358,-0.0386,-0.04593,-0.00458,0.00244,0.03448,0.00778,-0.03342,0.05127,-0.01129,-0.02457,0.03571,-0.04333
6.648,0.00122,-0.05112,-0.14984,-0.01434,-0.03128,-0.05005,0.00565,0.00259,0.02625,0.01831,-0.03632,0.02975,-0.01755,-0.02365,0.0238,-0.04089
6.6485,-0.00107,-0.05219,-0.14771,-0.01114,-0.02426,-0.05264,0.00977,0.00198,0.00946,0.02518,-0.03891,0.01144,-0.03021,-0.02838,0.0119,-0.0386
6.649,-0.00244,-0.05188,-0.10788,-0.00809,-0.02136,-0.05325,0.00168,0.00153,-0.01266,0.0293,-0.0383,0.02701,-0.04532,-0.0325,0.00641,-0.0383
6.6495,-0.00351,-0.04807,-0.05798,-0.00824,-0.02243,-0.05157,-0.01221,0.00107,-0.03265,0.03174,-0.03555,0.06088,-0.05859,-0.03281,0.00259,-0.03845
6.65,-0.00565,-0.04059,-0.01541,-0.01068,-0.02747,-0.05157,-0.02441,0.00046,-0.0473,0.03159,-0.02914,0.07339,-0.06744,-0.02853,-0.0029,-0.0386
6.6505,-0.00885,-0.03464,0.01358,-0.01205,-0.03235,-0.05157,-0.0325,-0.00107,-0.05646,0.02625,-0.02289,0.04608,-0.0705,-0.02487,-0.01221,-0.03891
6.651,-0.01312,-0.0325,0.0296,-0.01068,-0.03296,-0.05234,-0.03815,-0.00275,-0.06027,0.01694,-0.01846,-0.00519,-0.06821,-0.02228,-0.02151,-0.04074
6.6515,-0.01694,-0.03448,0.0293,-0.00885,-0.03036,-0.0531,-0.04379,-0.00275,-0.05737,0.00473,-0.01633,-0.05768,-0.06119,-0.02045,-0.02563,-0.04318
6.652,-0.02106,-0.03967,0.01343,-0.0119,-0.02975,-0.05386,-0.04852,-0.00168,-0.0528,-0.00626,-0.01404,-0.09216,-0.04852,-0.02075,-0.02487,-0.04517
6.6525,-0.02441,-0.04395,-0.00122,-0.01999,-0.03204,-0.05295,-0.05051,-0.00137,-0.04837,-0.0148,-0.01099,-0.09003,-0.03616,-0.02655,-0.02365,-0.04471
6.653,-0.02441,-0.04486,-0.00626,-0.02655,-0.03464,-0.0502,-0.05219,-0.00183,-0.03952,-0.01755,-0.0087,-0.05127,-0.03036,-0.03571,-0.02258,-0.04318
6.6535,-0.01816,-0.04364,-0.00061,-0.0293,-0.03387,-0.04929,-0.05493,-0.00259,-0.0264,-0.0177,-0.00748,-0.00092,-0.03113,-0.04044,-0.01923,-0.04181
6.654,-0.00824,-0.04242,0.00397,-0.02686,-0.03128,-0.05051,-0.05264,-0.00275,-0.01511,-0.01862,-0.00946,0.02884,-0.03281,-0.03662,-0.01007,-0.04135
6.6545,-0.00122,-0.04379,-0.00092,-0.02319,-0.02655,-0.05356,-0.03372,-0.00366,-0.0116,-0.02136,-0.01663,0.02625,-0.03357,-0.02945,0.00412,-0.04211
6.655,0.00092,-0.04395,-0.01633,-0.01968,-0.02014,-0.05341,-0.00015,-0.00458,-0.01404,-0.02686,-0.02808,0.0,-0.03387,-0.02457,0.01785,-0.04379
6.6555,0.00046,-0.04318,-0.03113,-0.01831,-0.01144,-0.04807,0.02548,-0.00381,-0.01526,-0.03143,-0.03952,-0.02884,-0.03326,-0.02701,0.02563,-0.04562
6.656,0.00076,-0.04028,-0.03555,-0.01877,-0.00046,-0.04074,0.01831,-0.00275,-0.0119,-0.03296,-0.04623,-0.04105,-0.02884,-0.03235,0.02716,-0.04623
6.6565,0.00137,-0.03754,-0.03265,-0.02045,0.00641,-0.04013,-0.01099,-0.00305,-0.0087,-0.02899,-0.04669,-0.03403,-0.02106,-0.03372,0.03036,-0.04395
6.657,0.00198,-0.03601,-0.03708,-0.02213,0.00748,-0.04715,-0.03021,-0.0061,-0.00702,-0.02487,-0.04395,-0.01938,-0.01587,-0.02777,0.03525,-0.04044
6.6575,0.00275,-0.0351,-0.05661,-0.02533,-0.00153,-0.05768,-0.02289,-0.00854,-0.00793,-0.0238,-0.03799,-0.009,-0.01816,-0.02014,0.02792,-0.03922
6.658,0.00412,-0.03296,-0.07965,-0.02914,-0.02243,-0.06516,-0.00427,-0.00763,-0.00992,-0.0264,-0.02884,-0.0061,-0.02914,-0.01633,0.00336,-0.04166
6.6585,0.00473,-0.03159,-0.08469,-0.03174,-0.04562,-0.0676,0.0032,-0.00687,-0.00977,-0.03067,-0.01724,-0.00641,-0.03983,-0.01282,-0.02075,-0.04395
6.659,0.00412,-0.03143,-0.06699,-0.03159,-0.06241,-0.0676,-0.00122,-0.0061,-0.00961,-0.03464,-0.01022,-0.00275,-0.04379,-0.00443,-0.02853,-0.04456
6.6595,0.00198,-0.03189,-0.03891,-0.0293,-0.06653,-0.06866,-0.00793,-0.00671,-0.01022,-0.03922,-0.00656,0.00656,-0.03647,0.00778,-0.0238,-0.04333
6.66,0.00137,-0.03235,-0.01617,-0.02563,-0.06073,-0.06561,-0.01236,-0.0058,-0.01038,-0.04318,-0.00366,0.02609,-0.02136,0.01404,-0.02045,-0.04257
6.6605,0.00076,-0.03418,-0.00458,-0.02151,-0.05463,-0.0531,-0.01556,-0.00427,-0.01022,-0.04807,0.00107,0.04974,-0.01602,0.00885,-0.01892,-0.04196
6.661,0.00031,-0.03632,0.0,-0.01907,-0.04883,-0.03189,-0.01755,-0.00305,-0.00916,-0.05402,0.00397,0.05402,-0.03616,-0.00214,-0.00381,-0.04074
6.6615,-0.00046,-0.03708,0.00183,-0.01999,-0.04196,-0.01465,-0.01831,-0.0029,-0.00732,-0.0589,0.00351,0.01556,-0.07217,-0.00824,0.03036,-0.03952
6.662,-0.00229,-0.03601,0.00153,-0.01984,-0.03525,-0.01404,-0.01724,-0.00229,-0.00305,-0.0589,0.00046,-0.04807,-0.09399,-0.00717,0.06866,-0.03815
6.6625,-0.00458,-0.03555,-0.00046,-0.01343,-0.0354,-0.02838,-0.01678,-0.00198,0.00168,-0.05325,-0.00259,-0.06927,-0.08209,-0.00381,0.08804,-0.03845
6.663,-0.00671,-0.03601,-0.0029,-0.00504,-0.04501,-0.04074,-0.01694,-0.00168,0.00427,-0.0441,-0.00504,-0.00946,-0.04959,-0.00305,0.07538,-0.03937
6.6635,-0.00931,-0.03708,-0.00519,-0.00427,-0.05341,-0.04639,-0.01785,-0.00183,0.00412,-0.03311,-0.00519,0.06073,-0.01419,-0.0061,0.04349,-0.03769
6.664,-0.0116,-0.03784,-0.00946,-0.01678,-0.04761,-0.04807,-0.01877,-0.0029,0.00427,-0.02213,-0.00412,0.03983,0.01892,-0.01038,0.01526,-0.03693
6.6645,-0.01572,-0.03876,-0.01892,-0.03784,-0.03143,-0.05203,-0.01907,-0.00244,0.00549,-0.01419,-0.00549,-0.05447,0.04333,-0.01312,0.00198,-0.03662
6.665,-0.02274,-0.04059,-0.03433,-0.05997,-0.01678,-0.05737,-0.01938,-0.00092,0.00793,-0.00824,-0.01205,-0.09827,0.04517,-0.0148,0.00015,-0.03891
6.6655,-0.02808,-0.04501,-0.04913,-0.07843,-0.01633,-0.05936,-0.02213,0.00092,0.00641,-0.0029,-0.02182,-0.03326,0.01434,-0.01678,0.00351,-0.0415
6.666,-0.0267,-0.04822,-0.05905,-0.08606,-0.02777,-0.05646,-0.0264,0.00137,-0.00046,0.00443,-0.02792,0.05722,-0.03723,-0.01968,0.00748,-0.04227
6.6665,-0.01801,-0.04822,-0.06088,-0.06195,-0.03906,-0.05173,-0.03052,0.00092,-0.0116,0.009,-0.03082,0.07584,-0.08057,-0.02075,0.00793,-0.04089
6.667,-0.00687,-0.04532,-0.05798,0.009,-0.04028,-0.0473,-0.03159,-0.00015,-0.01999,0.00641,-0.03647,0.03281,-0.08789,-0.01907,0.0,-0.04166
6.6675,-0.00107,-0.04425,-0.05463,0.09796,-0.03342,-0.04425,-0.02823,-0.00107,-0.02426,-0.00153,-0.05066,-0.00137,-0.05783,-0.01633,-0.01038,-0.04318
6.668,-0.00137,-0.04456,-0.05325,0.14053,-0.02808,-0.03418,-0.02426,-0.00168,-0.02487,-0.00641,-0.06683,-0.0029,-0.01877,-0.01389,-0.01495,-0.0441
6.6685,-0.00412,-0.04623,-0.05295,0.10651,-0.02777,-0.01343,-0.02243,-0.00229,-0.02594,-0.00504,-0.07278,0.0,-0.0029,-0.01038,-0.01221,-0.04501
6.669,-0.00565,-0.04639,-0.05234,0.03845,-0.02808,0.00778,-0.02289,-0.0032,-0.02914,-0.00183,-0.0647,-0.01038,-0.01221,-0.00641,-0.00641,-0.047
6.6695,-0.00519,-0.04471,-0.04929,-0.00397,-0.02579,0.01389,-0.01938,-0.00336,-0.03082,-0.00229,-0.0499,-0.01968,-0.02777,-0.00397,-0.00259,-0.04837
6.67,-0.00336,-0.04333,-0.04333,-0.00824,-0.02213,0.00336,-0.01083,-0.00336,-0.03128,-0.00534,-0.03906,-0.01526,-0.03937,-0.00839,-0.00015,-0.04822
6.6705,-0.00076,-0.04333,-0.03693,0.00031,-0.01968,-0.01053,-0.0029,-0.00305,-0.0293,-0.00702,-0.03265,-0.00366,-0.04776,-0.0148,-0.00031,-0.0473
6.671,0.00153,-0.04272,-0.03113,0.00519,-0.01877,-0.02243,-0.00565,-0.00305,-0.02777,-0.00381,-0.02533,0.00031,-0.05554,-0.01587,-0.00626,-0.04684
6.6715,0.0029,-0.04211,-0.0264,0.00595,-0.01846,-0.03906,-0.01862,-0.00305,-0.02701,0.00488,-0.01266,-0.00793,-0.06058,-0.01205,-0.01007,-0.04623
6.672,0.00122,-0.0441,-0.02258,0.00763,-0.02289,-0.0679,-0.0264,-0.00305,-0.02563,0.0145,0.00351,-0.01938,-0.06134,-0.00961,0.00961,-0.04456
6.6725,-0.00259,-0.04776,-0.01968,0.00748,-0.03204,-0.1059,-0.01633,-0.00305,-0.0238,0.02045,0.01572,-0.02075,-0.05341,-0.00992,0.04623,-0.04288
6.673,-0.00458,-0.05112,-0.02106,0.00259,-0.04349,-0.14023,0.0058,-0.00153,-0.02106,0.0177,0.01907,-0.00778,-0.03235,-0.00916,0.06088,-0.04364
6.6735,-0.00443,-0.05341,-0.02609,-0.00488,-0.04959,-0.15152,0.02045,0.0,-0.01892,0.00778,0.01785,0.00931,-0.00427,-0.00626,0.0351,-0.04578
6.674,-0.00351,-0.05524,-0.03326,-0.00992,-0.04944,-0.13153,0.01923,-0.00015,-0.01907,-0.00153,0.01938,0.01877,0.0119,-0.00458,0.00122,-0.04593
6.6745,-0.0029,-0.05737,-0.03677,-0.009,-0.04364,-0.09079,0.00763,-0.00198,-0.02014,-0.00641,0.02472,0.01663,0.00381,-0.00687,-0.00656,-0.0441
6.675,-0.00336,-0.0592,-0.03952,-0.00504,-0.03738,-0.05875,-0.0032,-0.0029,-0.02045,-0.00839,0.02899,0.00229,-0.02167,-0.01404,0.00275,-0.04272
6.6755,-0.00351,-0.05829,-0.05325,-0.00427,-0.03586,-0.04974,-0.01007,-0.00305,-0.02029,-0.01129,0.03006,-0.02167,-0.04684,-0.02609,0.00488,-0.04166
6.676,-0.00519,-0.05341,-0.0885,-0.01053,-0.03815,-0.05753,-0.01434,-0.00259,-0.02045,-0.01495,0.02899,-0.04898,-0.06134,-0.03922,-0.00366,-0.04105
6.6765,-0.01038,-0.04776,-0.12878,-0.01846,-0.03845,-0.06592,-0.01877,-0.00305,-0.02319,-0.01755,0.02869,-0.06638,-0.05814,-0.047,-0.01205,-0.04059
6.677,-0.01938,-0.04333,-0.14053,-0.02243,-0.03601,-0.06729,-0.02243,-0.00351,-0.0264,-0.02045,0.02762,-0.06683,-0.03754,-0.04944,-0.01526,-0.04135
6.6775,-0.02533,-0.04105,-0.10788,-0.02029,-0.03311,-0.06424,-0.02228,-0.00259,-0.02853,-0.02304,0.02396,-0.04745,-0.01617,-0.0502,-0.01617,-0.04272
6.678,-0.02426,-0.03998,-0.05142,-0.01602,-0.03098,-0.05798,-0.01877,-0.00214,-0.0296,-0.02502,0.02121,-0.0145,-0.01129,-0.05524,-0.01968,-0.04456
6.6785,-0.01801,-0.03845,-0.00473,-0.01343,-0.03143,-0.04898,-0.01389,-0.00275,-0.0293,-0.02411,0.01816,0.01678,-0.02594,-0.0589,-0.02777,-0.04349
6.679,-0.01511,-0.03723,0.02045,-0.01099,-0.02991,-0.03983,-0.00931,-0.00534,-0.02808,-0.02274,0.01221,0.03448,-0.04929,-0.05585,-0.03586,-0.04135
6.6795,-0.01663,-0.03723,0.02899,-0.00732,-0.02731,-0.0354,-0.00748,-0.00626,-0.02457,-0.02167,0.00305,0.03632,-0.06866,-0.04593,-0.03494,-0.04059
6.68,-0.01709,-0.03815,0.02884,-0.00534,-0.02365,-0.03616,-0.00763,-0.00488,-0.02075,-0.02396,-0.00534,0.02396,-0.07462,-0.03387,-0.0267,-0.04044
6.6805,-0.0119,-0.03983,0.02289,-0.00916,-0.02167,-0.04089,-0.00931,-0.00427,-0.01724,-0.02808,-0.00793,0.00229,-0.07111,-0.02609,-0.01572,-0.04166
6.681,-0.00122,-0.03998,0.01358,-0.01434,-0.02136,-0.04318,-0.00641,-0.00565,-0.01312,-0.03372,-0.00824,-0.00992,-0.06851,-0.02457,0.00565,-0.04272
6.6815,0.00885,-0.0383,0.00778,-0.01755,-0.02213,-0.03937,0.00168,-0.00778,-0.00809,-0.04044,-0.01251,0.00839,-0.0679,-0.02594,0.04578,-0.04242
6.682,0.01358,-0.03525,0.00885,-0.01862,-0.02213,-0.03494,0.00473,-0.00732,-0.00488,-0.04578,-0.02396,0.04562,-0.05814,-0.02289,0.0798,-0.04028
6.6825,0.01221,-0.02991,0.01144,-0.01984,-0.02304,-0.03387,-0.00626,-0.0058,-0.00366,-0.04761,-0.03891,0.06195,-0.03738,-0.01312,0.07874,-0.04044
6.683,0.00793,-0.02747,0.00305,-0.02274,-0.0267,-0.03845,-0.02548,-0.00671,-0.00122,-0.04364,-0.05142,0.04272,-0.02182,-0.00397,0.05508,-0.03983
6.6835,0.00305,-0.02914,-0.01404,-0.02625,-0.03128,-0.04456,-0.03754,-0.00824,0.00305,-0.03876,-0.05966,0.02304,-0.02197,0.00076,0.03845,-0.03952
6.684,-0.00198,-0.03174,-0.03143,-0.0296,-0.03326,-0.04654,-0.03708,-0.01038,0.00732,-0.0386,-0.06332,0.03571,-0.03113,0.00702,0.02533,-0.0383
6.6845,-0.00412,-0.03357,-0.03952,-0.03342,-0.03265,-0.04349,-0.0322,-0.00931,0.01022,-0.04471,-0.06332,0.06546,-0.03723,0.01785,0.00244,-0.03754
6.685,-0.00061,-0.03464,-0.03738,-0.03754,-0.03128,-0.03754,-0.03006,-0.00626,0.01053,-0.04761,-0.06409,0.07278,-0.03525,0.02441,-0.01694,-0.03906
6.6855,0.00381,-0.0354,-0.03387,-0.04166,-0.02869,-0.03036,-0.02731,-0.00351,0.00824,-0.04593,-0.06363,0.05051,-0.02625,0.01801,-0.01312,-0.04227
6.686,0.0032,-0.03632,-0.03433,-0.04547,-0.0264,-0.02975,-0.01709,-0.00198,0.00336,-0.04242,-0.05676,0.01663,-0.01495,0.00381,0.00275,-0.04379
6.6865,-0.00351,-0.03677,-0.03738,-0.05081,-0.02487,-0.04257,0.00443,-0.00183,-0.00015,-0.03845,-0.04181,-0.01572,-0.00488,-0.00229,0.00778,-0.0444
6.687,-0.00992,-0.03677,-0.03967,-0.05508,-0.02747,-0.06485,0.02686,-0.00122,-0.00168,-0.03418,-0.02045,-0.04395,0.00122,0.00381,0.00107,-0.04425
6.6875,-0.0119,-0.03494,-0.03998,-0.04944,-0.03265,-0.08102,0.03296,-0.00061,-0.00214,-0.02792,0.00153,-0.06042,0.00458,0.01633,0.00504,-0.04471
6.688,-0.00931,-0.03159,-0.03891,-0.02365,-0.03525,-0.07599,0.01389,-0.00046,-0.00626,-0.02121,0.0174,-0.0676,0.00717,0.02319,0.02151,-0.04471
6.6885,-0.00565,-0.02914,-0.04028,0.02472,-0.03479,-0.05447,-0.01709,0.00015,-0.01328,-0.01434,0.01984,-0.07614,0.00656,0.0206,0.03082,-0.04211
6.689,-0.00259,-0.03021,-0.04303,0.07156,-0.03204,-0.03479,-0.03845,0.0,-0.02182,-0.01053,0.01129,-0.08682,0.00153,0.01297,0.01938,-0.04013
6.6895,0.00015,-0.03494,-0.04547,0.0766,-0.02945,-0.02853,-0.04761,0.00015,-0.02884,-0.01038,-0.00183,-0.0885,-0.00671,0.00595,0.00687,-0.03906
6.69,0.00107,-0.04059,-0.05371,0.02502,-0.02716,-0.03326,-0.05768,0.00107,-0.03586,-0.01297,-0.0116,-0.07309,-0.01556,-0.00397,0.0209,-0.03952
6.6905,-0.00092,-0.04471,-0.06836,-0.04547,-0.02518,-0.04013,-0.07385,0.00046,-0.04211,-0.01312,-0.01724,-0.0412,-0.02625,-0.02426,0.05173,-0.04181
6.691,-0.00626,-0.04456,-0.08057,-0.0766,-0.02472,-0.04074,-0.08514,-0.00076,-0.04303,-0.00809,-0.01984,0.00763,-0.04181,-0.05051,0.06851,-0.04364
6.6915,-0.01053,-0.04196,-0.07797,-0.05493,-0.02686,-0.03448,-0.08545,-0.0029,-0.03723,-0.00214,-0.0238,0.05798,-0.0621,-0.06744,0.05478,-0.0444
6.692,-0.01144,-0.03876,-0.05966,-0.01801,-0.03174,-0.02716,-0.07889,-0.00427,-0.02975,-0.00076,-0.02838,0.0766,-0.07767,-0.06775,0.0296,-0.0444
6.6925,-0.00931,-0.03555,-0.03632,-0.00153,-0.03754,-0.02258,-0.07019,-0.00412,-0.0235,-0.00336,-0.02991,0.04456,-0.07843,-0.06241,0.01282,-0.04486
6.693,-0.00778,-0.03479,-0.02075,-0.00595,-0.04196,-0.0206,-0.05493,-0.00427,-0.02014,-0.0058,-0.02975,-0.00488,-0.065,-0.06073,0.00748,-0.04654
6.6935,-0.00687,-0.03525,-0.01602,-0.01404,-0.04135,-0.02029,-0.03006,-0.00488,-0.01663,-0.00778,-0.03067,-0.02716,-0.04929,-0.05798,0.00519,-0.0473
6.694,-0.00427,-0.03571,-0.0174,-0.01755,-0.03723,-0.02182,0.00198,-0.00641,-0.01282,-0.00916,-0.03494,-0.0087,-0.03952,-0.0473,0.00443,-0.04822
6.6945,-0.00061,-0.0354,-0.02014,-0.01755,-0.03265,-0.03159,0.03448,-0.00793,-0.00748,-0.01358,-0.04013,0.03281,-0.03433,-0.03311,0.00427,-0.04807
6.695,0.00168,-0.03448,-0.02197,-0.01724,-0.03067,-0.0499,0.05188,-0.00961,-0.00305,-0.01785,-0.04135,0.07095,-0.03082,-0.02121,0.00183,-0.04669
6.6955,0.00183,-0.03235,-0.02411,-0.01572,-0.03159,-0.0679,0.04822,-0.01099,-0.00137,-0.02075,-0.03403,0.0795,-0.02823,-0.01129,-0.00366,-0.04486
6.696,-0.00015,-0.03113,-0.0264,-0.01434,-0.03372,-0.07736,0.04257,-0.01038,-0.00366,-0.0238,-0.02289,0.05447,-0.02823,-0.00778,-0.00824,-0.04349
6.6965,-0.00198,-0.03113,-0.02762,-0.01617,-0.03403,-0.07401,0.05905,-0.00854,-0.01007,-0.02594,-0.01465,0.02502,-0.02838,-0.02106,-0.01099,-0.04333
6.697,-0.00381,-0.03342,-0.03067,-0.02274,-0.03403,-0.06348,0.08759,-0.00427,-0.01602,-0.02655,-0.0119,0.02579,-0.02594,-0.04242,-0.01678,-0.04471
6.6975,-0.0058,-0.03738,-0.03769,-0.03342,-0.03342,-0.05341,0.09186,-0.00198,-0.01923,-0.02594,-0.01175,0.04822,-0.01953,-0.05234,-0.02518,-0.04578
6.698,-0.00702,-0.04059,-0.04654,-0.04425,-0.03311,-0.04684,0.05508,-0.00198,-0.01907,-0.02594,-0.01022,0.05203,-0.01236,-0.04364,-0.02869,-0.04532
6.6985,-0.00671,-0.04211,-0.05173,-0.04883,-0.03265,-0.04532,0.00427,-0.00305,-0.01862,-0.02762,-0.00839,0.02182,-0.00748,-0.0296,-0.0264,-0.04456
6.699,-0.00427,-0.04196,-0.05219,-0.04547,-0.0322,-0.04639,-0.02609,-0.0032,-0.01953,-0.02686,-0.00778,-0.01434,-0.00687,-0.02319,-0.02411,-0.04517
6.6995,-0.00015,-0.04089,-0.05661,-0.03754,-0.03143,-0.04807,-0.03143,-0.00244,-0.01984,-0.0238,-0.00854,-0.02426,-0.01068,-0.02243,-0.02106,-0.04578
6.7,0.00229,-0.03967,-0.06973,-0.02838,-0.02945,-0.04807,-0.02869,-0.00275,-0.01846,-0.01938,-0.009,-0.01038,-0.01953,-0.02335,-0.00763,-0.0444
6.7005,0.00137,-0.03784,-0.08118,-0.02335,-0.02747,-0.04715,-0.02838,-0.00519,-0.01648,-0.01602,-0.01007,0.00443,-0.03082,-0.02365,0.02243,-0.0412
6.701,-0.00275,-0.03632,-0.07767,-0.02396,-0.02472,-0.04715,-0.03174,-0.00839,-0.01587,-0.01282,-0.01251,0.00854,-0.03784,-0.02853,0.04868,-0.03922
6.7015,-0.00626,-0.03403,-0.05722,-0.02716,-0.02197,-0.04807,-0.03998,-0.00977,-0.01617,-0.00748,-0.01297,0.00626,-0.0351,-0.03662,0.04272,-0.04074
6.702,-0.00565,-0.03372,-0.03372,-0.02319,-0.01831,-0.04974,-0.04944,-0.00961,-0.01602,-0.00275,-0.00656,0.0032,-0.02686,-0.04288,0.01129,-0.04333
6.7025,-0.00397,-0.03616,-0.01846,-0.00137,-0.01572,-0.04929,-0.0473,-0.00778,-0.0148,-0.00168,0.00641,0.00046,-0.02182,-0.03967,-0.01022,-0.04379
6.703,-0.0029,-0.03922,-0.0119,0.0354,-0.01328,-0.04929,-0.02106,-0.00549,-0.01419,-0.00519,0.01663,-0.00305,-0.0267,-0.02777,-0.00122,-0.04227
6.7035,-0.00412,-0.04074,-0.01175,0.0708,-0.01129,-0.04929,0.01175,-0.00427,-0.01511,-0.01022,0.01602,-0.0061,-0.04074,-0.01633,0.02106,-0.04166
6.704,-0.0061,-0.0415,-0.0145,0.08438,-0.00946,-0.0499,0.01663,-0.00549,-0.01587,-0.01419,0.00885,-0.00549,-0.05951,-0.01282,0.0296,-0.04272
6.7045,-0.00717,-0.04044,-0.01724,0.07187,-0.01144,-0.05157,-0.01083,-0.00702,-0.01465,-0.01434,0.00824,-0.00427,-0.07568,-0.01587,0.01877,-0.0444
6.705,-0.00687,-0.03967,-0.01892,0.04486,-0.0209,-0.05127,-0.03647,-0.00687,-0.01251,-0.01129,0.01785,-0.00366,-0.07751,-0.01724,0.00275,-0.04456
6.7055,-0.00656,-0.04028,-0.0206,0.02121,-0.03647,-0.05096,-0.02716,-0.0061,-0.01144,-0.01129,0.0264,-0.00488,-0.06439,-0.01266,-0.0087,-0.04364
6.706,-0.00702,-0.04333,-0.02487,0.00839,-0.04715,-0.05096,0.01144,-0.00458,-0.01419,-0.01633,0.02243,-0.0058,-0.04486,-0.00549,-0.01831,-0.04303
6.7065,-0.00916,-0.04639,-0.03174,0.0058,-0.05234,-0.05341,0.04684,-0.00305,-0.01831,-0.02258,0.01205,-0.00595,-0.03006,-0.00397,-0.03143,-0.04349
6.707,-0.01343,-0.04791,-0.04028,0.01221,-0.0563,-0.05554,0.04745,-0.00244,-0.02106,-0.02777,0.01205,-0.00488,-0.02197,-0.00626,-0.03754,-0.04257
6.7075,-0.0174,-0.04852,-0.04883,0.02319,-0.05951,-0.05569,0.0148,-0.00259,-0.02151,-0.03189,0.02167,-0.00412,-0.01801,-0.0061,-0.02304,-0.04242
6.708,-0.01831,-0.04761,-0.05905,0.02701,-0.05814,-0.05219,-0.01862,-0.00336,-0.02243,-0.03723,0.0209,-0.00488,-0.0145,-0.00031,0.01114,-0.04196
6.7085,-0.01266,-0.04761,-0.06943,0.01404,-0.05051,-0.04868,-0.02991,-0.00381,-0.02487,-0.04486,-0.00259,-0.0061,-0.00931,0.00473,0.04883,-0.04211
6.709,-0.00534,-0.04807,-0.07462,-0.00854,-0.04257,-0.04883,-0.03067,-0.00397,-0.0293,-0.04944,-0.04074,-0.00656,-0.00626,0.00168,0.06348,-0.04196
6.7095,-0.00076,-0.0502,-0.06927,-0.02411,-0.03845,-0.05249,-0.0412,-0.00397,-0.03174,-0.05051,-0.07187,-0.00504,-0.00671,-0.00671,0.04288,-0.04074
6.71,-0.00122,-0.05386,-0.05539,-0.02747,-0.0351,-0.05646,-0.06134,-0.00488,-0.0296,-0.04883,-0.08469,-0.00336,-0.01205,-0.01099,0.0061,-0.03906
6.7105,-0.00549,-0.05539,-0.03815,-0.03143,-0.02869,-0.05707,-0.07263,-0.00534,-0.02289,-0.04715,-0.08102,-0.00366,-0.01877,-0.00885,-0.02014,-0.0383
6.711,-0.00992,-0.05432,-0.02365,-0.04562,-0.02228,-0.05417,-0.06729,-0.00412,-0.01724,-0.04456,-0.06912,-0.00641,-0.02472,-0.00702,-0.02411,-0.03983
6.7115,-0.01114,-0.05203,-0.0148,-0.06546,-0.02121,-0.05112,-0.05096,-0.00244,-0.01328,-0.03937,-0.05692,-0.00931,-0.02777,-0.00946,-0.02075,-0.0415
6.712,-0.01007,-0.05051,-0.01495,-0.07263,-0.02411,-0.05005,-0.03113,-0.00168,-0.01007,-0.03189,-0.04974,-0.00854,-0.03174,-0.01495,-0.02701,-0.04135
6.7125,-0.00916,-0.05096,-0.02045,-0.06027,-0.02731,-0.04852,-0.01144,-0.00183,-0.00656,-0.02167,-0.04669,-0.00427,-0.03632,-0.02029,-0.03647,-0.04028
6.713,-0.01007,-0.0528,-0.02335,-0.04135,-0.02884,-0.0444,-0.00092,-0.00168,-0.00473,-0.01083,-0.04166,-0.00122,-0.03922,-0.0238,-0.02823,-0.04013
6.7135,-0.00961,-0.05371,-0.02197,-0.02991,-0.02792,-0.03464,-0.0061,-0.00214,-0.00595,-0.00046,-0.03342,-0.00259,-0.03845,-0.02655,0.00961,-0.04089
6.714,-0.0058,-0.05264,-0.01785,-0.02121,-0.03021,-0.02106,-0.01678,-0.00092,-0.00885,0.00717,-0.02609,-0.00595,-0.03693,-0.03067,0.06226,-0.0415
6.7145,-0.00153,-0.04974,-0.01602,-0.00305,-0.02884,-0.01419,-0.01846,0.00061,-0.00854,0.01038,-0.02151,-0.00595,-0.03784,-0.03433,0.09491,-0.04227
6.715,-0.00076,-0.04745,-0.0174,0.0145,-0.02533,-0.01938,-0.01312,0.00061,-0.0058,0.0119,-0.02029,-0.00336,-0.04242,-0.03525,0.08408,-0.04242
6.7155,-0.00244,-0.04532,-0.02472,0.00946,-0.02335,-0.03342,-0.01373,-0.00046,-0.00336,0.00946,-0.01541,-0.00168,-0.04593,-0.03128,0.04242,-0.04379
6.716,-0.0029,-0.04395,-0.03342,-0.02045,-0.02411,-0.04562,-0.02243,-0.00244,-0.00427,0.00504,-0.00809,-0.00244,-0.04181,-0.02579,0.00778,-0.0441
6.7165,-0.00183,-0.04288,-0.03815,-0.04593,-0.02762,-0.05203,-0.02243,-0.00275,-0.00565,-0.00107,-0.00122,-0.00336,-0.0296,-0.02167,-0.00092,-0.04318
6.717,-0.00092,-0.04272,-0.03693,-0.04547,-0.0322,-0.05402,-0.00656,-0.00214,-0.00565,-0.00809,0.00229,-0.0029,-0.02014,-0.02106,0.00504,-0.04044
6.7175,-0.00153,-0.04456,-0.03204,-0.02563,-0.03876,-0.05432,0.01221,-0.00229,-0.00549,-0.01175,0.00427,-0.00153,-0.02182,-0.02258,0.00793,-0.03769
6.718,-0.00229,-0.04623,-0.02975,-0.00977,-0.0473,-0.05157,0.01358,-0.00305,-0.00916,-0.01282,0.00626,-0.00076,-0.03906,-0.02335,0.00641,-0.03555
6.7185,-0.00259,-0.047,-0.03128,-0.01068,-0.05234,-0.04486,-0.00259,-0.00412,-0.0174,-0.01297,0.00931,-0.00122,-0.06729,-0.02197,0.00381,-0.0354
6.719,-0.0029,-0.04517,-0.03387,-0.02106,-0.04913,-0.03708,-0.01495,-0.00488,-0.02594,-0.01633,0.01022,-0.00229,-0.09109,-0.01755,0.00092,-0.03754
6.7195,-0.00305,-0.0415,-0.03479,-0.02716,-0.03983,-0.03052,-0.00748,-0.00504,-0.03067,-0.0209,0.01007,-0.00259,-0.08957,-0.01221,-0.00153,-0.0412
6.72,-0.00259,-0.03754,-0.03296,-0.02457,-0.03189,-0.02853,0.00839,-0.00427,-0.03082,-0.02243,0.009,-0.00076,-0.05905,-0.01022,-0.00488,-0.04333
6.7205,-0.0032,-0.03494,-0.03265,-0.0209,-0.02823,-0.03082,0.00717,-0.0032,-0.02975,-0.02151,0.00824,0.00336,-0.02411,-0.01404,-0.00641,-0.04379
6.721,-0.00488,-0.0322,-0.03311,-0.02411,-0.02762,-0.03601,-0.0148,-0.0029,-0.03067,-0.02106,0.00824,0.00854,-0.01129,-0.02029,-0.00565,-0.04166
6.7215,-0.00504,-0.03082,-0.03296,-0.03311,-0.02762,-0.04166,-0.04013,-0.0029,-0.03174,-0.02197,0.00946,0.01312,-0.01953,-0.02197,-0.00137,-0.04089
6.722,-0.00412,-0.03159,-0.03326,-0.03784,-0.02808,-0.05096,-0.05524,-0.00259,-0.03265,-0.02533,0.00946,0.01816,-0.03006,-0.01678,0.00443,-0.04166
6.7225,-0.00488,-0.03342,-0.03403,-0.03357,-0.02686,-0.07095,-0.06287,-0.0029,-0.0322,-0.03021,0.00748,0.02777,-0.03326,-0.0116,0.00931,-0.04288
6.723,-0.00565,-0.0354,-0.03403,-0.02747,-0.02441,-0.0972,-0.06683,-0.00198,-0.02884,-0.0325,0.00687,0.03479,-0.03342,-0.01099,0.01297,-0.0441
6.7235,-0.00519,-0.03586,-0.03311,-0.02472,-0.02121,-0.11398,-0.06302,-0.00183,-0.0235,-0.02823,0.00748,0.02518,-0.03632,-0.01511,0.01663,-0.04425
6.724,-0.0032,-0.03647,-0.03311,-0.02304,-0.01846,-0.1033,-0.04089,-0.00244,-0.01862,-0.01862,0.00793,-0.00412,-0.04044,-0.01862,0.01434,-0.04395
6.7245,-0.00259,-0.03769,-0.03235,-0.02151,-0.0174,-0.06699,-0.00244,-0.00229,-0.01511,-0.01068,0.00458,-0.0322,-0.04044,-0.01633,-0.00305,-0.04272
6.725,-0.00412,-0.03983,-0.03296,-0.02075,-0.02151,-0.02792,0.03448,-0.00305,-0.01251,-0.00702,-0.00198,-0.0386,-0.03601,-0.01358,-0.02304,-0.04211
6.7255,-0.00595,-0.04211,-0.03311,-0.01984,-0.03021,-0.00656,0.047,-0.00458,-0.01114,-0.00397,-0.00931,-0.03647,-0.02747,-0.01358,-0.01999,-0.04135
6.726,-0.00931,-0.04333,-0.02975,-0.01877,-0.04166,-0.00244,0.02777,-0.0058,-0.01083,-0.00153,-0.01541,-0.05432,-0.01694,-0.01648,0.00717,-0.04013
6.7265,-0.01266,-0.04288,-0.02411,-0.01465,-0.05035,-0.00366,-0.00381,-0.00549,-0.01099,-0.00565,-0.01938,-0.08286,-0.01038,-0.01816,0.03128,-0.03906
6.727,-0.01511,-0.0412,-0.01785,-0.00961,-0.05325,0.00183,-0.02655,-0.00336,-0.01297,-0.0145,-0.02151,-0.07599,-0.00885,-0.01801,0.03601,-0.03754
6.7275,-0.01663,-0.03876,-0.01511,-0.00519,-0.05188,0.00793,-0.03128,-0.0029,-0.0148,-0.02121,-0.02289,-0.01602,-0.01068,-0.02014,0.02945,-0.03586
6.728,-0.0148,-0.03891,-0.01831,-0.00229,-0.04898,0.00366,-0.02563,-0.0029,-0.01587,-0.02441,-0.02472,0.0531,-0.01541,-0.02411,0.02304,-0.03586
6.7285,-0.01144,-0.04105,-0.02365,0.00214,-0.04425,-0.01923,-0.01923,-0.00397,-0.01587,-0.02579,-0.02609,0.07675,-0.02228,-0.02686,0.0177,-0.03769
6.729,-0.00809,-0.04364,-0.02808,0.01083,-0.04059,-0.04959,-0.01343,-0.00519,-0.01343,-0.02808,-0.02502,0.0499,-0.03098,-0.0264,0.01083,-0.03937
6.7295,-0.00534,-0.04501,-0.03067,0.02136,-0.0354,-0.06912,-0.01053,-0.0058,-0.00992,-0.02991,-0.01801,0.00854,-0.03235,-0.02426,0.00275,-0.04013
6.73,-0.00473,-0.04456,-0.03586,0.02472,-0.03082,-0.07767,-0.00839,-0.00473,-0.00671,-0.0293,-0.00961,-0.01236,-0.02151,-0.02365,-0.00458,-0.03983
6.7305,-0.00443,-0.0444,-0.04257,0.01434,-0.02792,-0.10269,-0.00488,-0.0032,-0.00702,-0.02731,-0.00381,0.00549,-0.00397,-0.02136,-0.01221,-0.04166
6.731,-0.00488,-0.04623,-0.05066,-0.00671,-0.02853,-0.1506,-0.00259,-0.00122,-0.00809,-0.02304,-0.00229,0.05157,0.00427,-0.01068,-0.01862,-0.04333
6.7315,-0.00549,-0.05066,-0.05768,-0.02579,-0.03281,-0.1799,-0.00778,-0.00198,-0.01205,-0.01785,-0.0032,0.08118,-0.00412,0.00931,-0.0235,-0.04349
6.732,-0.00626,-0.05722,-0.06058,-0.03204,-0.03784,-0.15152,-0.02625,-0.00397,-0.01846,-0.01129,-0.00427,0.05569,-0.02106,0.02319,-0.02274,-0.04242
6.7325,-0.00259,-0.06256,-0.05463,-0.02411,-0.04074,-0.08713,-0.04593,-0.00534,-0.02426,-0.00702,-0.00717,-0.00092,-0.03891,0.01556,-0.01175,-0.04135
6.733,0.00443,-0.06195,-0.03998,-0.01938,-0.03967,-0.04105,-0.05798,-0.0061,-0.02563,-0.00504,-0.0116,-0.0354,-0.05478,-0.00565,0.00946,-0.04196
6.7335,0.01083,-0.056,-0.02701,-0.02716,-0.03555,-0.03235,-0.06119,-0.00702,-0.02289,-0.00565,-0.01511,-0.03601,-0.06485,-0.01877,0.03403,-0.04349
6.734,0.01419,-0.04883,-0.02441,-0.04257,-0.03006,-0.04059,-0.06271,-0.00641,-0.01572,-0.00671,-0.01755,-0.03403,-0.05859,-0.01419,0.04807,-0.04532
6.7345,0.01297,-0.04318,-0.03326,-0.05539,-0.02518,-0.04211,-0.05783,-0.00351,-0.00641,-0.01007,-0.01846,-0.04181,-0.03998,-0.00641,0.04623,-0.04623
6.735,0.00763,-0.03738,-0.04181,-0.06195,-0.02365,-0.03922,-0.04013,-0.00076,0.00336,-0.01266,-0.01923,-0.03632,-0.02487,-0.00977,0.03082,-0.04532
6.7355,0.00076,-0.03021,-0.04364,-0.06302,-0.0267,-0.03799,-0.01099,0.00153,0.01083,-0.01434,-0.01999,-0.0087,-0.0238,-0.02121,0.00732,-0.04318
6.736,-0.00473,-0.02396,-0.04135,-0.05142,-0.03204,-0.04013,0.02396,0.00183,0.01343,-0.01404,-0.01907,0.01938,-0.03143,-0.02686,-0.02075,-0.04196
6.7365,-0.00748,-0.02197,-0.04242,-0.02258,-0.03571,-0.04196,0.05722,0.00122,0.01221,-0.01541,-0.0174,0.02792,-0.0383,-0.02487,-0.03876,-0.04272
6.737,-0.0087,-0.02426,-0.04807,0.00748,-0.03281,-0.04242,0.07355,0.0,0.00748,-0.01999,-0.01602,0.02182,-0.04135,-0.02167,-0.03174,-0.04486
6.7375,-0.00854,-0.0293,-0.05325,0.01419,-0.02838,-0.04257,0.06592,-0.00259,-0.00107,-0.0267,-0.01511,0.01541,-0.03906,-0.02335,-0.00381,-0.0444
6.738,-0.0087,-0.03357,-0.05447,0.00046,-0.02609,-0.04074,0.04379,-0.00473,-0.0145,-0.03464,-0.01648,0.01175,-0.02716,-0.0264,0.01572,-0.04303
6.7385,-0.00839,-0.03586,-0.05173,-0.00229,-0.02594,-0.03891,0.02365,-0.00519,-0.02853,-0.04501,-0.02045,0.00717,-0.01083,-0.02747,0.01266,-0.04242
6.739,-0.00702,-0.03708,-0.047,0.03357,-0.02548,-0.03983,0.01007,-0.00397,-0.04028,-0.05219,-0.02563,0.00214,0.0,-0.02625,-0.00046,-0.04349
6.7395,-0.00488,-0.03937,-0.04318,0.08621,-0.02243,-0.04257,-0.00153,-0.00153,-0.04883,-0.05341,-0.02853,-0.00153,0.00076,-0.02289,-0.00381,-0.04272
6.74,-0.00275,-0.0412,-0.04074,0.10788,-0.01877,-0.04471,-0.01297,-0.00076,-0.0528,-0.04898,-0.02731,-0.00626,-0.0058,-0.01633,0.00534,-0.04105
6.7405,-0.0032,-0.04059,-0.04074,0.08163,-0.01831,-0.04623,-0.02655,-0.0029,-0.05157,-0.03906,-0.0264,-0.01266,-0.0206,-0.00992,0.01907,-0.04028
6.741,-0.00397,-0.03616,-0.04318,0.04059,-0.01968,-0.04669,-0.04288,-0.00504,-0.04776,-0.02655,-0.02914,-0.01678,-0.04211,-0.01053,0.02777,-0.04135
6.7415,-0.00336,-0.03082,-0.04486,0.01953,-0.02518,-0.0473,-0.06195,-0.0061,-0.04608,-0.01175,-0.03448,-0.0116,-0.06622,-0.01953,0.03036,-0.04333
6.742,-0.00107,-0.02808,-0.04257,0.01831,-0.03387,-0.04471,-0.08026,-0.00702,-0.04547,0.00183,-0.03784,0.00305,-0.0795,-0.03113,0.02625,-0.0441
6.7425,0.00015,-0.02884,-0.03586,0.01846,-0.0441,-0.03738,-0.09537,-0.00748,-0.03845,0.00885,-0.03738,0.01862,-0.07187,-0.03418,0.0206,-0.04272
6.743,0.00015,-0.03052,-0.03143,0.01144,-0.05173,-0.02853,-0.10101,-0.00732,-0.02365,0.01297,-0.03296,0.02441,-0.04715,-0.02777,0.01221,-0.04028
6.7435,-0.00046,-0.03281,-0.03036,0.0029,-0.05249,-0.02213,-0.09293,-0.00793,-0.01068,0.01663,-0.02625,0.01587,-0.01678,-0.01648,0.0,-0.03998
6.744,0.00015,-0.03433,-0.03189,-0.00153,-0.04608,-0.01785,-0.07507,-0.00717,-0.0058,0.01785,-0.02029,-0.00046,0.00305,-0.00412,-0.01251,-0.04486
6.7445,0.00107,-0.03647,-0.03296,-0.00305,-0.03815,-0.01297,-0.04974,-0.00641,-0.00626,0.01389,-0.0148,-0.01465,0.00259,0.00061,-0.02243,-0.05188
6.745,0.00046,-0.03815,-0.03418,-0.00381,-0.03296,-0.0087,-0.01099,-0.00412,-0.00504,0.00427,-0.01434,-0.02121,-0.01236,-0.00763,-0.03006,-0.05493
6.7455,-0.00061,-0.0386,-0.03448,-0.00366,-0.0293,-0.00778,0.04059,-0.00336,-0.0029,-0.00473,-0.01755,-0.02045,-0.02853,-0.02914,-0.03998,-0.0502
6.746,-0.00214,-0.03769,-0.03448,-0.00397,-0.02686,-0.00641,0.07568,-0.0032,-0.00229,-0.00946,-0.02151,-0.01587,-0.03906,-0.04776,-0.04547,-0.04196
6.7465,-0.00229,-0.03754,-0.03265,-0.00824,-0.02594,-0.00366,0.0621,-0.00397,-0.00473,-0.0119,-0.0235,-0.01083,-0.05035,-0.04791,-0.03632,-0.03632
6.747,-0.00229,-0.03937,-0.03204,-0.01404,-0.02502,-0.00671,0.01312,-0.00473,-0.00931,-0.01312,-0.02258,-0.00656,-0.05997,-0.03128,-0.00198,-0.03204
6.7475,-0.00351,-0.04471,-0.03357,-0.0177,-0.02563,-0.02426,-0.02472,-0.00595,-0.0145,-0.01633,-0.01892,-0.00793,-0.0589,-0.01587,0.05219,-0.0296
6.748,-0.00626,-0.05142,-0.03647,-0.01648,-0.02792,-0.05188,-0.02594,-0.00671,-0.01633,-0.02136,-0.01389,-0.01694,-0.04791,-0.01221,0.09094,-0.03052
6.7485,-0.00931,-0.05554,-0.03693,-0.01602,-0.03067,-0.07767,-0.00381,-0.00565,-0.01358,-0.02975,-0.00702,-0.02396,-0.03952,-0.01755,0.08011,-0.03586
6.749,-0.01465,-0.05447,-0.03616,-0.01892,-0.03189,-0.09003,0.01175,-0.00305,-0.00793,-0.04532,-0.00015,-0.01251,-0.04196,-0.02167,0.03616,-0.04471
6.7495,-0.02304,-0.05142,-0.03296,-0.02335,-0.03052,-0.08453,0.00549,-0.00259,-0.00397,-0.06439,0.00259,0.01785,-0.05157,-0.02045,0.0145,-0.04974
6.75,-0.03067,-0.04883,-0.02853,-0.02304,-0.02945,-0.06271,-0.01801,-0.00336,-0.00351,-0.08011,0.00122,0.04303,-0.05676,-0.01526,0.02686,-0.04761
6.7505,-0.03311,-0.04868,-0.02731,-0.0174,-0.03098,-0.03448,-0.03708,-0.00366,-0.00381,-0.08148,-0.00046,0.03952,-0.05585,-0.01022,0.03067,-0.04257
6.751,-0.02701,-0.04883,-0.0293,-0.0116,-0.02792,-0.01053,-0.03494,-0.00366,-0.00519,-0.0679,-0.00259,0.0174,-0.05081,-0.00748,0.0032,-0.0386
6.7515,-0.01648,-0.0473,-0.03448,-0.00992,-0.02487,0.00031,-0.00931,-0.00244,-0.0061,-0.04898,-0.00732,0.00381,-0.04547,-0.00565,-0.02777,-0.04028
6.752,-0.00946,-0.04349,-0.03708,-0.0119,-0.01907,-0.00671,0.02335,-0.00076,-0.009,-0.03662,-0.01511,0.00671,-0.03952,-0.00595,-0.03586,-0.04288
6.7525,-0.00916,-0.03876,-0.03525,-0.01419,-0.0148,-0.04074,0.04105,0.00198,-0.01511,-0.02975,-0.02304,0.00809,-0.03174,-0.01038,-0.02335,-0.0444
6.753,-0.01129,-0.03677,-0.0296,-0.01648,-0.01724,-0.10529,0.03189,0.00504,-0.0235,-0.02289,-0.02518,-0.00397,-0.0235,-0.02045,-0.00504,-0.04333
6.7535,-0.0116,-0.03632,-0.02533,-0.01984,-0.02792,-0.16891,0.00641,0.00793,-0.0296,-0.01266,-0.02106,-0.01877,-0.01724,-0.03174,0.01846,-0.04196
6.754,-0.01083,-0.03647,-0.02426,-0.0235,-0.04303,-0.18082,-0.01358,0.00885,-0.02869,-0.00183,-0.0145,-0.02258,-0.01923,-0.03922,0.04944,-0.0415
6.7545,-0.00961,-0.03601,-0.02533,-0.02502,-0.05249,-0.13168,-0.01892,0.00687,-0.02457,0.0058,-0.01297,-0.01526,-0.02853,-0.03937,0.06622,-0.0412
6.755,-0.0087,-0.03571,-0.02609,-0.02609,-0.05035,-0.06851,-0.01846,0.00351,-0.02167,0.00961,-0.01373,-0.00702,-0.0383,-0.03693,0.05112,-0.03952
6.7555,-0.00488,-0.03494,-0.0267,-0.02625,-0.04318,-0.03967,-0.02167,0.00153,-0.02151,0.00961,-0.01022,-0.00137,-0.03784,-0.03448,0.01923,-0.03891
6.756,0.00122,-0.03586,-0.02853,-0.0264,-0.03708,-0.04181,-0.02731,0.00244,-0.0235,0.00992,0.00076,0.00534,-0.03036,-0.03189,0.00381,-0.03967
6.7565,0.00626,-0.03647,-0.02991,-0.02548,-0.03159,-0.047,-0.0296,0.0061,-0.02838,0.00946,0.01724,0.01862,-0.02655,-0.02792,0.01175,-0.04166
6.757,0.00778,-0.03647,-0.03159,-0.02335,-0.02808,-0.04456,-0.03113,0.0119,-0.03464,0.00671,0.0351,0.03464,-0.03342,-0.02136,0.02274,-0.04089
6.7575,0.00763,-0.03616,-0.0322,-0.02106,-0.02701,-0.04211,-0.03265,0.01572,-0.04105,-0.00275,0.05005,0.04532,-0.047,-0.01511,0.02167,-0.03616
6.758,0.00656,-0.03586,-0.03296,-0.01892,-0.02747,-0.04837,-0.03128,0.01389,-0.04181,-0.01389,0.05493,0.04318,-0.06363,-0.00961,0.01541,-0.03098
6.7585,0.00626,-0.03616,-0.03555,-0.01694,-0.02762,-0.05524,-0.03036,0.00519,-0.03632,-0.01968,0.04608,0.03036,-0.07294,-0.00824,0.01755,-0.03098
6.759,0.00488,-0.03571,-0.03601,-0.01495,-0.02579,-0.05676,-0.03494,-0.00763,-0.02594,-0.01678,0.02792,0.01511,-0.06531,-0.01038,0.0209,-0.03326
6.7595,0.00229,-0.0354,-0.03555,-0.0116,-0.02258,-0.05066,-0.0383,-0.01862,-0.01556,-0.01007,0.00763,-0.00061,-0.04471,-0.01526,0.01862,-0.03494
6.76,-0.00198,-0.0354,-0.03296,-0.00885,-0.02151,-0.0415,-0.02991,-0.02274,-0.00702,-0.00748,-0.0087,-0.01602,-0.02594,-0.01678,0.01266,-0.03555
6.7605,-0.00549,-0.03479,-0.03281,-0.00732,-0.0235,-0.03357,-0.01312,-0.02243,-0.00031,-0.01083,-0.02228,-0.0296,-0.02029,-0.01602,0.01251,-0.03769
6.761,-0.00626,-0.03586,-0.03387,-0.00885,-0.0296,-0.03021,0.00031,-0.01984,0.00595,-0.0145,-0.0325,-0.0354,-0.0235,-0.01434,0.01602,-0.04318
6.7615,-0.00565,-0.03693,-0.03586,-0.00977,-0.0383,-0.03159,0.00809,-0.01968,0.01083,-0.01373,-0.04135,-0.03479,-0.02548,-0.01419,0.01648,-0.05112
6.762,-0.00412,-0.03937,-0.03586,-0.00992,-0.04654,-0.03479,0.01312,-0.02136,0.01373,-0.01022,-0.04745,-0.0325,-0.02502,-0.01404,0.01282,-0.05661
6.7625,-0.00519,-0.04333,-0.03418,-0.01114,-0.04776,-0.03799,0.01282,-0.02426,0.01221,-0.00839,-0.0502,-0.02747,-0.02594,-0.01572,0.00732,-0.06226
6.763,-0.00824,-0.04669,-0.0325,-0.0145,-0.04013,-0.03708,0.00397,-0.02487,0.00778,-0.00687,-0.04944,-0.02548,-0.02502,-0.01907,0.00122,-0.06622
6.7635,-0.0145,-0.04807,-0.0293,-0.01831,-0.02792,-0.03571,-0.00732,-0.02045,0.00244,-0.00244,-0.04944,-0.03113,-0.02136,-0.02289,-0.00763,-0.06744
6.764,-0.02182,-0.04745,-0.02792,-0.0206,-0.02167,-0.03433,-0.01236,-0.01266,-0.00061,0.00626,-0.05447,-0.02991,-0.01709,-0.01984,-0.01892,-0.06241
6.7645,-0.02701,-0.04761,-0.02625,-0.01999,-0.0264,-0.03601,-0.01038,-0.00748,0.00031,0.01312,-0.06119,0.00076,-0.01511,-0.00565,-0.03006,-0.05493
6.765,-0.02625,-0.04745,-0.02579,-0.01724,-0.0351,-0.03906,-0.00839,-0.00473,0.00641,0.01144,-0.06393,0.04883,-0.01526,0.01236,-0.03571,-0.05051
6.7655,-0.01968,-0.04608,-0.0264,-0.01373,-0.03906,-0.04349,-0.00961,-0.00427,0.01419,0.00137,-0.05737,0.07324,-0.01465,0.02472,-0.03326,-0.04852
6.766,-0.0119,-0.04395,-0.02762,-0.01373,-0.03815,-0.04562,-0.01312,-0.00336,0.0174,-0.01389,-0.04562,0.05844,-0.01129,0.02213,-0.0267,-0.04684
6.7665,-0.00748,-0.04303,-0.03052,-0.01877,-0.03342,-0.04425,-0.01572,-0.00229,0.0116,-0.02655,-0.03311,0.02838,-0.00732,0.01038,-0.01846,-0.04547
6.767,-0.00687,-0.04349,-0.03326,-0.02457,-0.02548,-0.04257,-0.01694,-0.00214,-0.00244,-0.0351,-0.02655,0.00443,-0.00504,-0.00229,-0.00641,-0.04288
6.7675,-0.00687,-0.0444,-0.0351,-0.02655,-0.01541,-0.04318,-0.01801,-0.00229,-0.0174,-0.03693,-0.03204,-0.01129,-0.00427,-0.01312,0.01205,-0.04013
6.768,-0.00778,-0.04654,-0.0351,-0.02396,-0.01083,-0.04715,-0.01984,-0.0032,-0.02731,-0.03464,-0.04272,-0.0264,-0.00443,-0.02457,0.04898,-0.03769
6.7685,-0.00839,-0.04974,-0.02869,-0.01373,-0.01144,-0.05096,-0.02106,-0.00458,-0.03036,-0.02899,-0.0499,-0.04166,-0.00748,-0.03891,0.08224,-0.03693
6.769,-0.00793,-0.05341,-0.01572,0.00534,-0.0145,-0.05112,-0.02274,-0.00473,-0.02914,-0.02365,-0.04639,-0.05356,-0.01221,-0.05829,0.08881,-0.03952
6.7695,-0.00565,-0.05478,-0.00137,0.02838,-0.02045,-0.04761,-0.02106,-0.00351,-0.02472,-0.02029,-0.03601,-0.05585,-0.01923,-0.08057,0.05646,-0.04166
6.77,-0.00229,-0.05295,0.00366,0.03983,-0.03555,-0.04333,-0.01968,-0.00229,-0.01831,-0.02167,-0.02625,-0.03647,-0.02655,-0.0914,0.00748,-0.04089
6.7705,0.0,-0.04837,-0.00168,0.02914,-0.05585,-0.04074,-0.01953,-0.0029,-0.01053,-0.02701,-0.01877,0.01312,-0.0351,-0.08286,-0.02609,-0.0383
6.771,0.0,-0.04715,-0.00854,0.00381,-0.065,-0.03891,-0.02014,-0.0029,-0.00519,-0.03326,-0.01266,0.07065,-0.04501,-0.05966,-0.03143,-0.03632
6.7715,-0.00137,-0.05127,-0.01541,-0.01724,-0.05661,-0.03311,-0.02045,-0.00244,-0.00244,-0.03937,-0.00702,0.10895,-0.05493,-0.03723,-0.02075,-0.03693
6.772,-0.00381,-0.05768,-0.02548,-0.02213,-0.04196,-0.02396,-0.02167,-0.00305,-0.00443,-0.04074,0.00137,0.12146,-0.0589,-0.02625,-0.01099,-0.03815
6.7725,-0.00641,-0.06149,-0.03464,-0.01404,-0.03372,-0.01251,-0.02243,-0.00549,-0.00824,-0.03876,0.01282,0.10941,-0.05447,-0.02258,-0.00488,-0.03906
6.773,-0.00824,-0.0589,-0.03632,-0.00473,-0.03143,-0.0029,-0.02319,-0.00671,-0.01205,-0.03754,0.02335,0.06561,-0.04303,-0.01953,-0.00076,-0.03922
6.7735,-0.00961,-0.05569,-0.0351,-0.00198,-0.02899,-0.00137,-0.02411,-0.00488,-0.01617,-0.03784,0.02701,-0.00198,-0.03082,-0.0145,0.00458,-0.03952
6.774,-0.0087,-0.05295,-0.04028,-0.01282,-0.0267,-0.0032,-0.0264,-0.00351,-0.01953,-0.03922,0.02411,-0.05936,-0.02289,-0.01114,0.00961,-0.03983
6.7745,-0.00748,-0.04807,-0.05264,-0.04211,-0.02563,-0.00565,-0.02838,-0.00458,-0.02106,-0.03876,0.01724,-0.0882,-0.02045,-0.01099,0.01389,-0.04074
6.775,-0.00427,-0.03876,-0.065,-0.08621,-0.02502,-0.01022,-0.03143,-0.00839,-0.02106,-0.0383,0.01144,-0.10254,-0.02243,-0.01144,0.01495,-0.04135
6.7755,-0.00153,-0.02808,-0.07065,-0.12665,-0.02121,-0.02899,-0.03235,-0.01343,-0.02014,-0.0386,0.00519,-0.12054,-0.03021,-0.01114,0.01495,-0.04227
6.776,0.00046,-0.02014,-0.0737,-0.14099,-0.01801,-0.07187,-0.02899,-0.01785,-0.02045,-0.03891,0.00061,-0.12604,-0.04013,-0.00778,0.01282,-0.04318
6.7765,0.00198,-0.01678,-0.07477,-0.12115,-0.0209,-0.12741,-0.02121,-0.02106,-0.01953,-0.03784,-0.00381,-0.09705,-0.04791,-0.00275,0.00412,-0.04303
6.777,0.00229,-0.0177,-0.07248,-0.07599,-0.0296,-0.16434,-0.01877,-0.02182,-0.01785,-0.03632,-0.00824,-0.04456,-0.04929,0.00168,-0.00229,-0.04196
6.7775,-0.00015,-0.02014,-0.06653,-0.01266,-0.03693,-0.15533,-0.02899,-0.02151,-0.01541,-0.03326,-0.0148,-0.00473,-0.04257,0.00427,-0.00198,-0.04028
6.778,-0.00366,-0.02457,-0.05966,0.05569,-0.0386,-0.11139,-0.04532,-0.01938,-0.01389,-0.03021,-0.02045,0.01282,-0.03464,0.00549,0.00046,-0.04013
6.7785,-0.00717,-0.02747,-0.05585,0.08835,-0.03571,-0.06622,-0.05356,-0.01328,-0.01495,-0.02548,-0.02258,0.02151,-0.0293,0.00565,0.00076,-0.03952
6.779,-0.00717,-0.03189,-0.05524,0.05417,-0.03387,-0.04288,-0.0444,-0.00153,-0.01968,-0.02014,-0.02045,0.02823,-0.01968,-0.00229,-0.00031,-0.04013
6.7795,-0.00336,-0.03662,-0.05447,-0.01373,-0.03021,-0.03754,-0.01968,0.01358,-0.0238,-0.01556,-0.01389,0.02594,0.00641,-0.01968,-0.00107,-0.03967
6.78,0.00122,-0.04013,-0.05112,-0.04837,-0.02533,-0.03571,0.00671,0.02518,-0.02548,-0.01328,-0.00824,0.01373,0.04578,-0.03342,0.00153,-0.03967
6.7805,0.00275,-0.04105,-0.04532,-0.02731,-0.02014,-0.03754,0.0235,0.02686,-0.02304,-0.01144,-0.0061,0.00687,0.07019,-0.03265,0.00961,-0.03723
6.781,0.00168,-0.04074,-0.04166,0.01297,-0.01999,-0.04318,0.02701,0.01923,-0.01831,-0.00626,-0.00854,0.01068,0.05356,-0.02289,0.01999,-0.03586
6.7815,0.00092,-0.04059,-0.0415,0.03738,-0.0264,-0.05173,0.02457,0.01007,-0.01602,-0.00275,-0.01083,0.0174,-0.00717,-0.0174,0.02228,-0.0383
6.782,0.00137,-0.04242,-0.04501,0.03922,-0.03754,-0.05844,0.02167,0.00549,-0.0174,-0.00427,-0.01236,0.01907,-0.08881,-0.01953,0.01175,-0.04211
6.7825,0.00244,-0.04395,-0.05005,0.02197,-0.04929,-0.06119,0.01709,0.00626,-0.01999,-0.00885,-0.01266,0.01587,-0.15244,-0.02045,-0.00504,-0.04608
6.783,0.00626,-0.04562,-0.05402,-0.01144,-0.05341,-0.0592,0.00854,0.00702,-0.02151,-0.01358,-0.01221,0.01038,-0.15991,-0.01663,-0.01755,-0.04639
6.7835,0.01297,-0.04593,-0.05203,-0.04822,-0.04776,-0.05264,-0.00229,0.00595,-0.02106,-0.01358,-0.01129,0.00488,-0.10971,-0.01205,-0.02335,-0.04623
6.784,0.0177,-0.04501,-0.04456,-0.05539,-0.03677,-0.04074,-0.00763,0.00381,-0.02075,-0.01221,-0.00702,0.00214,-0.0441,-0.01068,-0.02472,-0.047
6.7845,0.01617,-0.0441,-0.03769,-0.01251,-0.0293,-0.02655,-0.00488,0.00137,-0.02197,-0.01068,0.00229,0.0058,-0.00534,-0.01297,-0.0238,-0.047
6.785,0.00854,-0.04379,-0.03204,0.05432,-0.02869,-0.01251,-0.00046,0.00076,-0.02457,-0.01114,0.01694,0.01511,0.00366,-0.01724,-0.0235,-0.04532
6.7855,0.00031,-0.04425,-0.02792,0.08942,-0.03235,-0.00214,-0.00122,-0.00031,-0.02655,-0.01266,0.03082,0.02914,0.00168,-0.02289,-0.02426,-0.04333
6.786,-0.00381,-0.04318,-0.02502,0.06851,-0.03357,0.00458,-0.00626,-0.00046,-0.02655,-0.0145,0.03677,0.03738,-0.0029,-0.02899,-0.01785,-0.04105
6.7865,-0.00458,-0.04211,-0.02182,0.01984,-0.03082,0.00641,-0.01129,0.0,-0.02502,-0.01602,0.03448,0.03296,-0.01755,-0.03113,0.01251,-0.03937
6.787,-0.00534,-0.04318,-0.02136,-0.0119,-0.02777,0.00061,-0.01465,0.00015,-0.02502,-0.01633,0.02899,0.01801,-0.04272,-0.02625,0.05981,-0.03998
6.7875,-0.00732,-0.04623,-0.01984,-0.01541,-0.02594,-0.01205,-0.01633,-0.00153,-0.02686,-0.01785,0.02228,0.0029,-0.06653,-0.01495,0.08896,-0.04196
6.788,-0.00992,-0.05051,-0.01572,-0.00839,-0.02243,-0.03174,-0.01831,-0.0029,-0.02808,-0.01801,0.00946,-0.00473,-0.08087,-0.00107,0.07339,-0.0444
6.7885,-0.00977,-0.05463,-0.01129,-0.00626,-0.01648,-0.06287,-0.01923,-0.00366,-0.02609,-0.01755,-0.00702,-0.00702,-0.0882,0.00671,0.02945,-0.04456
6.789,-0.00793,-0.05753,-0.01083,-0.00641,-0.01495,-0.10132,-0.0177,-0.00275,-0.02335,-0.01587,-0.02472,-0.00977,-0.08438,0.00488,-0.01236,-0.04227
6.7895,-0.00504,-0.05966,-0.01785,-0.00656,-0.02258,-0.12589,-0.01709,-0.00336,-0.0235,-0.01297,-0.03815,-0.01923,-0.05997,0.00031,-0.03754,-0.03922
6.79,-0.00153,-0.06058,-0.02823,-0.00931,-0.03769,-0.1236,-0.01907,-0.00397,-0.02548,-0.009,-0.04471,-0.03174,-0.02716,-0.00122,-0.04364,-0.03769
6.7905,0.00046,-0.05798,-0.03555,-0.01801,-0.0528,-0.10025,-0.02029,-0.0061,-0.02686,-0.009,-0.04471,-0.03769,-0.00931,0.00168,-0.03098,-0.0386
6.791,0.00076,-0.05173,-0.03662,-0.02518,-0.05951,-0.07538,-0.01984,-0.00763,-0.02594,-0.01099,-0.0444,-0.03372,-0.0145,0.00534,-0.00946,-0.0415
6.7915,-0.00046,-0.04395,-0.03403,-0.02701,-0.0563,-0.06027,-0.01694,-0.009,-0.02365,-0.01602,-0.0473,-0.02365,-0.02243,0.00626,0.0058,-0.04227
6.792,-0.00397,-0.0383,-0.03387,-0.02472,-0.04639,-0.0531,-0.01495,-0.00977,-0.02167,-0.01923,-0.05417,-0.01175,-0.01877,0.00092,0.0116,-0.04089
6.7925,-0.00702,-0.03464,-0.04318,-0.02533,-0.03418,-0.05051,-0.01282,-0.00977,-0.01938,-0.01953,-0.06027,0.00412,-0.01358,-0.01389,0.01663,-0.04044
6.793,-0.0061,-0.03342,-0.06195,-0.03067,-0.02609,-0.04852,-0.01236,-0.0087,-0.01709,-0.01953,-0.06058,0.02487,-0.01785,-0.03189,0.02747,-0.03952
6.7935,-0.00412,-0.03296,-0.08072,-0.0354,-0.02289,-0.04639,-0.01511,-0.00702,-0.01419,-0.02151,-0.05676,0.04791,-0.0293,-0.03967,0.04318,-0.03983
6.794,-0.00366,-0.03036,-0.08636,-0.03494,-0.02289,-0.04303,-0.02121,-0.00549,-0.01251,-0.02472,-0.05188,0.06607,-0.03357,-0.03021,0.0563,-0.03967
6.7945,-0.00656,-0.0267,-0.07813,-0.02792,-0.02426,-0.04074,-0.02853,-0.00443,-0.01114,-0.02472,-0.04654,0.06836,-0.0235,-0.0174,0.05295,-0.03952
6.795,-0.009,-0.02533,-0.06439,-0.01434,-0.02701,-0.04135,-0.03479,-0.00351,-0.01068,-0.02182,-0.03983,0.04944,-0.00702,-0.01587,0.03387,-0.03876
6.7955,-0.00961,-0.02594,-0.04791,0.009,-0.03082,-0.04318,-0.03723,-0.00229,-0.01068,-0.01953,-0.03098,0.00916,0.0087,-0.02625,0.00717,-0.03891
6.796,-0.00885,-0.02457,-0.02853,0.03647,-0.0325,-0.0444,-0.03479,-0.00244,-0.01099,-0.01984,-0.02502,-0.03464,0.01846,-0.03952,-0.0235,-0.0386
6.7965,-0.00916,-0.02029,-0.00961,0.04822,-0.03235,-0.04456,-0.02777,-0.00336,-0.01053,-0.02289,-0.02182,-0.05798,0.02014,-0.047,-0.04471,-0.03754
6.797,-0.01236,-0.01923,0.00305,0.03021,-0.03296,-0.04501,-0.02106,-0.00412,-0.00916,-0.02609,-0.02075,-0.05569,0.01129,-0.04669,-0.03677,-0.03723
6.7975,-0.01617,-0.02319,0.01053,-0.00458,-0.03342,-0.04715,-0.01862,-0.00488,-0.00732,-0.02594,-0.02258,-0.04959,-0.00885,-0.04105,-0.00275,-0.0383
6.798,-0.01923,-0.0296,0.01251,-0.02731,-0.03296,-0.04837,-0.0174,-0.00488,-0.00473,-0.02289,-0.02609,-0.05295,-0.03586,-0.03586,0.02487,-0.03983
6.7985,-0.01877,-0.03326,0.0116,-0.02731,-0.02869,-0.04745,-0.01541,-0.00458,-0.0032,-0.01999,-0.03113,-0.03342,-0.06226,-0.03357,0.02609,-0.0415
6.799,-0.01877,-0.03677,0.00854,-0.01831,-0.02487,-0.047,-0.01617,-0.00397,-0.00473,-0.01724,-0.03281,0.0412,-0.07431,-0.03342,0.01709,-0.04227
6.7995,-0.02045,-0.04196,0.00626,-0.01358,-0.02396,-0.04623,-0.02182,-0.00473,-0.00793,-0.01663,-0.02823,0.12589,-0.0679,-0.03128,0.0238,-0.04135
6.8,-0.02258,-0.04837,0.00122,-0.01282,-0.02441,-0.04501,-0.02609,-0.00504,-0.01144,-0.01785,-0.01648,0.13168,-0.05371,-0.02899,0.04929,-0.04059
6.8005,-0.02106,-0.05402,-0.00748,-0.0116,-0.02487,-0.04623,-0.01587,-0.00366,-0.01251,-0.01862,-0.00793,0.0499,-0.05127,-0.03433,0.06821,-0.04181
6.801,-0.01663,-0.05646,-0.01465,-0.0119,-0.02518,-0.04532,0.00336,-0.00214,-0.01328,-0.01953,-0.00717,-0.03082,-0.06546,-0.04608,0.06226,-0.04349
6.8015,-0.01083,-0.05646,-0.0174,-0.01465,-0.02716,-0.04333,0.01114,-0.00229,-0.01404,-0.02228,-0.0116,-0.04517,-0.08591,-0.05035,0.03677,-0.04318
6.802,-0.00656,-0.05371,-0.01831,-0.01831,-0.02899,-0.04028,-0.0029,-0.0029,-0.01556,-0.02655,-0.01465,-0.01877,-0.10117,-0.03799,0.01328,-0.04166
6.8025,-0.0029,-0.05249,-0.02045,-0.02075,-0.02975,-0.03845,-0.02625,-0.0032,-0.01602,-0.03113,-0.01465,-0.00305,-0.10056,-0.01526,0.0061,-0.04318
6.803,0.0,-0.05356,-0.02502,-0.02151,-0.03006,-0.03815,-0.03845,-0.00122,-0.01556,-0.03159,-0.01312,-0.00809,-0.07965,-0.00015,0.00885,-0.04456
6.8035,0.00015,-0.05646,-0.03021,-0.02136,-0.02914,-0.03983,-0.03647,-0.00076,-0.01511,-0.02716,-0.01144,-0.01282,-0.05051,0.00443,0.0061,-0.04456
6.804,-0.00046,-0.056,-0.03693,-0.01862,-0.02991,-0.04211,-0.03128,-0.00092,-0.01572,-0.01999,-0.00748,-0.0061,-0.02991,0.00549,-0.01358,-0.04227
6.8045,-0.00122,-0.05234,-0.04318,-0.01343,-0.02991,-0.04211,-0.03418,-0.00336,-0.01724,-0.01266,-0.00092,0.0058,-0.02411,0.00763,-0.04715,-0.0412
6.805,-0.0029,-0.04684,-0.04898,-0.0087,-0.02808,-0.04105,-0.04456,-0.00488,-0.01984,-0.00702,0.00565,0.01266,-0.02579,0.00366,-0.06973,-0.04166
6.8055,-0.00458,-0.04272,-0.05051,-0.00565,-0.0264,-0.04196,-0.0499,-0.0058,-0.02335,-0.00458,0.00839,0.009,-0.02762,-0.009,-0.0499,-0.04227
6.806,-0.00366,-0.0383,-0.04776,-0.00488,-0.02335,-0.04486,-0.03418,-0.00595,-0.02579,-0.00595,0.00702,-0.00244,-0.03098,-0.02182,0.00137,-0.04135
6.8065,-0.00244,-0.0322,-0.04349,-0.00565,-0.02151,-0.04898,-0.00458,-0.00565,-0.02472,-0.00824,0.00122,-0.01099,-0.03601,-0.02335,0.03082,-0.04242
6.807,-0.0029,-0.02701,-0.03952,-0.00702,-0.02228,-0.05295,0.01282,-0.00595,-0.02167,-0.00961,-0.00534,-0.01053,-0.03906,-0.01663,0.01877,-0.04532
6.8075,-0.00427,-0.02365,-0.03677,-0.00824,-0.0235,-0.05325,0.01053,-0.00641,-0.02029,-0.01175,-0.00839,-0.00168,-0.0386,-0.01129,0.00717,-0.04837
6.808,-0.00534,-0.02472,-0.03555,-0.00992,-0.02579,-0.05005,0.00916,-0.00519,-0.02182,-0.01862,-0.00671,0.00656,-0.03693,-0.01083,0.02579,-0.04883
6.8085,-0.00458,-0.02899,-0.03662,-0.01038,-0.03006,-0.04761,0.02304,-0.00275,-0.02274,-0.02945,-0.00412,0.00931,-0.03555,-0.01266,0.04135,-0.04684
6.809,-0.00305,-0.0325,-0.03708,-0.00977,-0.03952,-0.04822,0.03891,-0.00092,-0.02151,-0.03723,-0.00351,0.00946,-0.03525,-0.01526,0.0177,-0.04456
6.8095,-0.00336,-0.03265,-0.03616,-0.00977,-0.0473,-0.04852,0.0383,-0.00076,-0.0174,-0.03967,-0.00015,0.01266,-0.03387,-0.02151,-0.01938,-0.04333
6.81,-0.00519,-0.02884,-0.03418,-0.01083,-0.04837,-0.04669,0.02563,-0.00107,-0.01343,-0.03708,0.00488,0.01663,-0.02991,-0.0296,-0.03006,-0.04181
