time,RectFemL,VastusMedL,VastusLatL,TibAntL,HamMedL,HamLatL,GastroMedL,GastroLatL,RectFemR,VastusMedR,VastusLatR,TibAntR,HamMedR,HamLatR,GastroMedR,GastroLatR
7.34,-0.00473,-0.0444,-0.02823,-0.02121,-0.05615,0.04227,-0.01282,-0.00305,-0.01328,-0.01953,-0.02731,-0.00687,-0.03174,-0.01465,-0.01938,-0.02319
7.3405,-0.00565,-0.0412,-0.02884,-0.00641,-0.04105,0.08224,-0.01389,-0.00076,-0.01175,-0.02151,-0.02548,-0.01297,-0.03128,-0.01511,-0.04227,-0.03311
7.341,-0.00656,-0.03998,-0.03159,0.00549,-0.02823,0.10544,-0.01801,0.00229,-0.0116,-0.02563,-0.01846,-0.01587,-0.03235,-0.01892,-0.05295,-0.04074
7.3415,-0.00641,-0.04105,-0.03174,0.01694,-0.01175,0.1152,-0.02609,0.00519,-0.01297,-0.03036,-0.01099,-0.01358,-0.03448,-0.02121,-0.05142,-0.03952
7.342,-0.00595,-0.04135,-0.03098,0.03082,0.00488,0.09613,-0.03845,0.0061,-0.01465,-0.03204,-0.00702,-0.0087,-0.03647,-0.02151,-0.03189,-0.02975
7.3425,-0.00519,-0.04059,-0.03159,0.04181,0.01297,0.0412,-0.05005,0.00595,-0.01633,-0.02945,-0.00763,-0.00565,-0.03647,-0.0209,-0.00198,-0.02167
7.343,-0.00519,-0.03723,-0.03494,0.03799,0.00549,-0.02609,-0.056,0.00565,-0.01526,-0.02563,-0.00977,-0.00504,-0.0354,-0.02075,0.01831,-0.02228
7.3435,-0.00534,-0.0354,-0.03952,0.01907,-0.0119,-0.07813,-0.05554,0.00626,-0.00702,-0.02213,-0.00977,-0.00565,-0.03479,-0.02151,0.01694,-0.03143
7.344,-0.00595,-0.03571,-0.04898,-0.00015,-0.02823,-0.112,-0.05066,0.00671,0.00916,-0.02274,-0.0061,-0.00549,-0.03525,-0.02182,0.0061,-0.04028
7.3445,-0.00595,-0.03662,-0.06165,-0.00504,-0.03494,-0.13962,-0.04318,0.00549,0.02411,-0.02335,-0.00366,-0.00473,-0.03479,-0.02258,-0.00275,-0.04257
7.345,-0.00702,-0.03708,-0.07431,0.00015,-0.03815,-0.15808,-0.03342,0.0032,0.0267,-0.02335,-0.00717,-0.00443,-0.03387,-0.02258,-0.01221,-0.03937
7.3455,-0.00809,-0.03571,-0.07904,0.00504,-0.02731,-0.15366,-0.01999,0.00107,0.0145,-0.02289,-0.01633,-0.00534,-0.03403,-0.02243,-0.02533,-0.03876
7.346,-0.00885,-0.03571,-0.07462,0.00412,-0.00977,-0.12878,-0.00168,-0.00031,-0.00412,-0.02121,-0.02579,-0.00687,-0.03479,-0.02213,-0.03693,-0.04517
7.3465,-0.009,-0.03662,-0.06378,0.00275,0.00198,-0.09232,0.01801,-0.00275,-0.01907,-0.01785,-0.0267,-0.00961,-0.03601,-0.02335,-0.04028,-0.05432
7.347,-0.00778,-0.03769,-0.04807,0.0032,-0.00168,-0.05157,0.03143,-0.00946,-0.0293,-0.01419,-0.01938,-0.0116,-0.03632,-0.02396,-0.04456,-0.06378
7.3475,-0.00748,-0.03723,-0.03128,0.00473,-0.01434,-0.01389,0.03036,-0.01831,-0.03693,-0.00916,-0.01083,-0.01236,-0.03372,-0.02396,-0.06134,-0.06714
7.348,-0.00717,-0.03586,-0.01648,0.00412,-0.02182,-0.00122,0.0174,-0.02319,-0.04135,-0.00885,-0.00824,-0.01205,-0.03174,-0.02167,-0.08972,-0.06332
7.3485,-0.00732,-0.03738,-0.00595,0.00275,-0.02029,-0.03052,0.00504,-0.02075,-0.04303,-0.01144,-0.01022,-0.0116,-0.03189,-0.01953,-0.11734,-0.05096
7.349,-0.00717,-0.04028,-0.00153,0.00198,-0.01083,-0.09323,-0.00153,-0.01328,-0.04257,-0.01282,-0.01175,-0.00961,-0.03387,-0.01862,-0.12375,-0.03433
7.3495,-0.00809,-0.04364,-0.00061,0.00198,0.00671,-0.16388,-0.00336,-0.00549,-0.04211,-0.01099,-0.01236,-0.00519,-0.03403,-0.01938,-0.08514,-0.01709
7.35,-0.00854,-0.0441,-0.00046,0.00046,0.03204,-0.20432,-0.00412,0.0,-0.04196,-0.00687,-0.01022,0.00076,-0.0325,-0.0209,-0.01251,-0.00397
7.3505,-0.00824,-0.04333,-0.00305,0.0,0.05859,-0.19226,-0.00946,0.00183,-0.04089,-0.00626,-0.00931,0.00351,-0.03159,-0.02136,0.04425,0.0
7.351,-0.00534,-0.04227,-0.00641,0.00244,0.06699,-0.13901,-0.01968,0.00519,-0.0386,-0.00854,-0.00961,0.00351,-0.0322,-0.02075,0.05234,-0.00641
7.3515,-0.00366,-0.04303,-0.00961,0.00595,0.04807,-0.08362,-0.02945,0.00992,-0.0322,-0.01328,-0.00992,0.0032,-0.03342,-0.0174,0.05081,-0.01236
7.352,-0.00366,-0.04272,-0.01404,0.0061,0.00748,-0.05157,-0.02716,0.01648,-0.02426,-0.01617,-0.00992,0.00305,-0.03311,-0.01328,0.10117,-0.01038
7.3525,-0.00473,-0.04379,-0.02075,0.00336,-0.04593,-0.03372,-0.00916,0.02029,-0.01923,-0.01724,-0.00854,0.00046,-0.03159,-0.009,0.19455,-0.0058
7.353,-0.00519,-0.04425,-0.03036,0.00183,-0.10132,-0.00565,0.00885,0.01846,-0.01846,-0.01434,-0.00809,-0.00534,-0.03036,-0.00641,0.24368,-0.01114
7.3535,-0.00473,-0.04471,-0.03647,0.00305,-0.13489,0.03372,0.01144,0.01266,-0.01801,-0.01266,-0.01038,-0.01251,-0.02914,-0.00427,0.20264,-0.02792
7.354,-0.00565,-0.04547,-0.03876,0.00397,-0.12466,0.05905,0.0029,0.00427,-0.01556,-0.01434,-0.01465,-0.0174,-0.02884,-0.00305,0.11719,-0.04456
7.3545,-0.00763,-0.047,-0.03952,0.00137,-0.08423,0.05936,-0.00473,-0.00443,-0.01373,-0.0177,-0.01602,-0.01831,-0.03036,-0.00259,0.05737,-0.05096
7.355,-0.00854,-0.04944,-0.0415,-0.00168,-0.04578,0.04883,-0.01343,-0.01099,-0.01373,-0.02029,-0.01389,-0.01511,-0.03403,-0.00336,0.03632,-0.05676
7.3555,-0.00931,-0.05173,-0.04456,-0.00168,-0.04089,0.04684,-0.02777,-0.01465,-0.01541,-0.02258,-0.01251,-0.01022,-0.03601,-0.00549,0.0267,-0.07019
7.356,-0.00916,-0.05173,-0.04364,0.00214,-0.05859,0.04257,-0.04456,-0.01785,-0.01617,-0.02411,-0.01312,-0.0061,-0.03601,-0.00778,0.00931,-0.08621
7.3565,-0.01038,-0.05142,-0.03906,0.00488,-0.07385,0.01312,-0.05768,-0.02121,-0.01587,-0.02319,-0.01709,-0.00275,-0.03601,-0.00916,-0.0148,-0.08896
7.357,-0.01114,-0.05173,-0.03418,0.00412,-0.06622,-0.04669,-0.0679,-0.02457,-0.01678,-0.0235,-0.0206,0.00137,-0.03662,-0.01419,-0.03601,-0.07462
7.3575,-0.01129,-0.05341,-0.03174,0.00259,-0.04181,-0.10773,-0.07782,-0.02701,-0.01709,-0.02502,-0.0206,0.00687,-0.03815,-0.0267,-0.04181,-0.05676
7.358,-0.01007,-0.05417,-0.02884,0.00336,-0.02075,-0.13351,-0.08133,-0.02579,-0.0174,-0.02777,-0.01999,0.01221,-0.03845,-0.04684,-0.02457,-0.04959
7.3585,-0.009,-0.05356,-0.02518,0.00336,-0.02304,-0.11505,-0.07095,-0.02213,-0.01678,-0.0322,-0.01968,0.01709,-0.03723,-0.0618,0.01083,-0.0528
7.359,-0.00839,-0.05203,-0.02457,0.00122,-0.04028,-0.08469,-0.04852,-0.0174,-0.01511,-0.03387,-0.02121,0.02045,-0.0351,-0.05768,0.04333,-0.0563
7.3595,-0.00824,-0.05066,-0.02777,0.0,-0.05295,-0.06607,-0.02182,-0.01129,-0.01221,-0.03235,-0.02457,0.02182,-0.0322,-0.03815,0.04547,-0.05402
7.36,-0.00809,-0.04837,-0.03326,0.0,-0.04456,-0.05432,0.00717,-0.00824,-0.0087,-0.02518,-0.02899,0.02121,-0.0296,-0.01877,0.01984,-0.05157
7.3605,-0.00809,-0.0444,-0.03693,-0.00183,-0.02335,-0.03693,0.03372,-0.00748,-0.0058,-0.01724,-0.03433,0.01831,-0.02899,-0.01282,-0.00336,-0.05539
7.361,-0.0087,-0.04135,-0.03937,-0.00397,-0.00809,-0.01999,0.04791,-0.00793,-0.00671,-0.01419,-0.03647,0.01389,-0.0296,-0.01694,-0.00488,-0.06104
7.3615,-0.00977,-0.03876,-0.03952,-0.00214,-0.01465,-0.01221,0.0415,-0.00763,-0.01038,-0.0145,-0.03677,0.00839,-0.03006,-0.02121,0.00412,-0.05966
7.362,-0.01083,-0.0383,-0.0412,-0.00046,-0.04089,-0.00443,0.01816,-0.00702,-0.01251,-0.01587,-0.03464,0.00229,-0.03067,-0.02106,0.0029,-0.04791
7.3625,-0.01129,-0.03937,-0.04364,-0.00366,-0.06989,0.02151,-0.01038,-0.01083,-0.01266,-0.01846,-0.02975,-0.00443,-0.03082,-0.01785,-0.01266,-0.03403
7.363,-0.01083,-0.03983,-0.04593,-0.00824,-0.08957,0.05722,-0.0322,-0.02472,-0.01266,-0.02029,-0.02319,-0.00839,-0.03174,-0.01602,-0.03021,-0.02975
7.3635,-0.00854,-0.03967,-0.04715,-0.00717,-0.09613,0.07584,-0.03571,-0.04364,-0.01144,-0.01907,-0.01633,-0.00793,-0.03296,-0.01648,-0.04196,-0.03784
7.364,-0.00748,-0.0386,-0.04837,0.00031,-0.09232,0.06424,-0.02045,-0.04929,-0.0116,-0.01541,-0.01144,-0.00488,-0.03372,-0.01816,-0.04364,-0.04715
7.3645,-0.00641,-0.03906,-0.04684,0.00702,-0.07874,0.02792,-0.00549,-0.02609,-0.01129,-0.01068,-0.00519,-0.00198,-0.03342,-0.01923,-0.03235,-0.04578
7.365,-0.00717,-0.03983,-0.04669,0.00565,-0.06897,-0.03433,-0.01083,0.01556,-0.0116,-0.009,0.00366,0.00198,-0.03357,-0.01907,-0.01373,-0.03494
7.3655,-0.00824,-0.03937,-0.0473,0.00092,-0.06592,-0.13046,-0.01968,0.04379,-0.01297,-0.01007,0.01038,0.00671,-0.03433,-0.01831,-0.00046,-0.02853
7.366,-0.00885,-0.0383,-0.04929,-0.00229,-0.07187,-0.24414,-0.00092,0.04776,-0.01556,-0.01343,0.01144,0.01083,-0.03387,-0.01709,-0.0029,-0.03815
7.3665,-0.00732,-0.03723,-0.05142,0.00031,-0.07248,-0.32013,0.05463,0.03616,-0.01938,-0.01495,0.00549,0.01114,-0.03128,-0.01556,-0.01114,-0.05783
7.367,-0.00519,-0.03815,-0.04974,0.00443,-0.0621,-0.32059,0.11993,0.02289,-0.02197,-0.01358,0.00183,0.00763,-0.02975,-0.01404,-0.01129,-0.07004
7.3675,-0.00366,-0.03952,-0.04715,0.00732,-0.04303,-0.25162,0.15289,0.01022,-0.02121,-0.01709,0.00443,0.00305,-0.02823,-0.01373,0.00198,-0.06622
7.368,-0.00366,-0.04105,-0.04654,0.00168,-0.02167,-0.159,0.12939,-0.00519,-0.01694,-0.0235,0.01114,0.00031,-0.02884,-0.01343,0.02075,-0.05157
7.3685,-0.0058,-0.04333,-0.05127,-0.00946,-0.00961,-0.08606,0.06805,-0.01785,-0.0116,-0.0296,0.01221,-0.00168,-0.02975,-0.01419,0.03021,-0.03998
7.369,-0.00793,-0.04486,-0.05463,-0.01801,-0.00732,-0.04959,0.01328,-0.02365,-0.00854,-0.03204,0.0029,-0.0029,-0.03159,-0.01678,0.02045,-0.03738
7.3695,-0.00839,-0.04456,-0.05508,-0.02213,-0.01328,-0.0354,-0.01114,-0.02167,-0.00916,-0.03098,-0.00992,-0.00366,-0.03372,-0.01907,-0.0029,-0.03784
7.37,-0.00671,-0.04196,-0.05234,-0.02121,-0.0148,-0.02365,-0.01526,-0.01801,-0.0116,-0.02914,-0.01602,-0.00366,-0.03372,-0.01892,-0.02304,-0.03677
7.3705,-0.00351,-0.03967,-0.04868,-0.01846,-0.0119,-0.009,-0.01877,-0.02426,-0.01282,-0.02792,-0.01633,-0.00305,-0.03235,-0.01801,-0.02563,-0.03357
7.371,-0.00031,-0.0383,-0.04684,-0.01404,-0.01358,0.0,-0.02792,-0.04227,-0.01038,-0.02548,-0.01358,-0.00168,-0.03113,-0.01678,-0.01022,-0.03159
7.3715,0.00015,-0.0383,-0.04288,-0.01236,-0.01724,-0.00229,-0.03891,-0.0618,-0.00717,-0.02075,-0.01053,-0.00122,-0.03143,-0.01617,0.00961,-0.03296
7.372,-0.00031,-0.03784,-0.03906,-0.01923,-0.02106,-0.01144,-0.05524,-0.06226,-0.00595,-0.01694,-0.009,-0.00229,-0.03265,-0.0174,0.01358,-0.03952
7.3725,-0.00092,-0.03769,-0.03586,-0.03525,-0.02319,-0.02029,-0.07965,-0.03937,-0.0061,-0.01495,-0.00854,-0.0061,-0.03418,-0.01816,-0.01328,-0.04791
7.373,-0.00259,-0.03815,-0.03204,-0.05173,-0.02365,-0.02914,-0.10254,-0.01038,-0.00793,-0.01511,-0.00931,-0.01083,-0.03479,-0.01831,-0.05234,-0.05035
7.3735,-0.00412,-0.04013,-0.02808,-0.05722,-0.02029,-0.0383,-0.11047,0.0087,-0.01068,-0.01434,-0.01007,-0.01282,-0.03311,-0.01801,-0.05829,-0.04608
7.374,-0.00488,-0.04303,-0.02411,-0.05264,-0.01541,-0.05066,-0.09964,0.01572,-0.01328,-0.01389,-0.01144,-0.01328,-0.03128,-0.01709,-0.01755,-0.0415
7.3745,-0.00595,-0.04349,-0.02151,-0.05035,-0.0061,-0.06638,-0.08301,0.01999,-0.01434,-0.01617,-0.0145,-0.01297,-0.03082,-0.01831,0.03021,-0.04562
7.375,-0.00626,-0.04074,-0.01709,-0.05844,-0.00336,-0.07965,-0.07004,0.03189,-0.0145,-0.02213,-0.01724,-0.01068,-0.03128,-0.01984,0.03876,-0.05371
7.3755,-0.00656,-0.03799,-0.01068,-0.0769,-0.01068,-0.08362,-0.04395,0.04715,-0.01511,-0.02808,-0.02014,-0.0061,-0.03128,-0.01999,0.00916,-0.06088
7.376,-0.00793,-0.03845,-0.00488,-0.09537,-0.02457,-0.07614,0.01602,0.05615,-0.01694,-0.03281,-0.02136,-0.00336,-0.03021,-0.01999,-0.02136,-0.05768
7.3765,-0.01144,-0.0415,-0.00381,-0.11185,-0.03799,-0.05936,0.09216,0.04974,-0.01785,-0.03372,-0.01968,-0.00153,-0.03113,-0.02029,-0.02289,-0.04425
7.377,-0.01404,-0.04349,-0.00961,-0.12863,-0.04181,-0.04028,0.12695,0.02991,-0.01724,-0.03616,-0.01633,-0.00061,-0.03281,-0.02075,0.01251,-0.02899
7.3775,-0.0148,-0.04318,-0.02197,-0.14023,-0.03937,-0.02472,0.08789,0.00854,-0.01755,-0.03891,-0.0148,0.00183,-0.03571,-0.02029,0.06729,-0.02106
7.378,-0.01434,-0.04364,-0.03494,-0.11734,-0.03708,-0.01785,0.01465,-0.00351,-0.01892,-0.03799,-0.01434,0.00259,-0.03845,-0.01907,0.10086,-0.0177
7.3785,-0.01434,-0.04379,-0.04089,-0.03738,-0.04684,-0.01984,-0.03021,-0.00519,-0.02167,-0.03403,-0.01404,0.00107,-0.03937,-0.01923,0.08072,-0.02029
7.379,-0.01465,-0.04395,-0.04135,0.07111,-0.0676,-0.02594,-0.03784,-0.00214,-0.02289,-0.02777,-0.01328,-0.00198,-0.0383,-0.01968,0.0296,-0.02411
7.3795,-0.0148,-0.0441,-0.0415,0.13733,-0.08209,-0.03311,-0.03769,0.00061,-0.02136,-0.02319,-0.01511,-0.00443,-0.03677,-0.01923,0.00702,-0.02853
7.38,-0.01297,-0.04318,-0.04227,0.12222,-0.0769,-0.03784,-0.04593,0.00137,-0.01694,-0.01923,-0.01785,-0.00488,-0.03601,-0.0174,0.01801,-0.03525
7.3805,-0.01038,-0.04425,-0.04242,0.05966,-0.05859,-0.03784,-0.05035,0.00015,-0.0145,-0.01343,-0.0209,-0.0058,-0.03647,-0.0174,0.02029,-0.04272
7.381,-0.00595,-0.04501,-0.03677,0.00931,-0.04593,-0.03601,-0.04089,0.0,-0.01389,-0.00763,-0.02167,-0.00504,-0.03723,-0.01755,-0.01144,-0.04807
7.3815,-0.00092,-0.04349,-0.02457,-0.00671,-0.04166,-0.03525,-0.02731,0.00015,-0.01541,-0.0032,-0.02228,-0.00076,-0.03647,-0.01648,-0.04654,-0.04791
7.382,0.00244,-0.03967,-0.01541,-0.00504,-0.03708,-0.03769,-0.02335,0.0,-0.01678,0.00031,-0.02197,0.0029,-0.03525,-0.01587,-0.04807,-0.04227
7.3825,0.00153,-0.03616,-0.01556,-0.00565,-0.02533,-0.03906,-0.03067,-0.00015,-0.01785,0.00443,-0.02197,0.00473,-0.0354,-0.01724,-0.01968,-0.03677
7.383,-0.00351,-0.03525,-0.02441,-0.01053,-0.01328,-0.03906,-0.03937,-0.00137,-0.01709,0.00732,-0.02167,0.00366,-0.03586,-0.02075,0.00931,-0.03098
7.3835,-0.00793,-0.03601,-0.03281,-0.01404,-0.00488,-0.0412,-0.03952,-0.0032,-0.01541,0.00534,-0.02106,0.0029,-0.03494,-0.02167,0.01389,-0.02853
7.384,-0.00793,-0.03738,-0.03662,-0.01343,-0.00229,-0.04471,-0.02899,-0.00565,-0.01419,-0.00198,-0.02197,0.00427,-0.03326,-0.01923,-0.00061,-0.03128
7.3845,-0.00519,-0.03891,-0.0386,-0.01175,-0.00656,-0.04684,-0.00916,-0.00763,-0.01404,-0.00885,-0.02304,0.00595,-0.03418,-0.01617,-0.00763,-0.03815
7.385,-0.00366,-0.03998,-0.04349,-0.01251,-0.01373,-0.04684,0.01266,-0.01022,-0.01434,-0.01129,-0.02243,0.00534,-0.03632,-0.01663,0.01007,-0.04654
7.3855,-0.0032,-0.03983,-0.04776,-0.01556,-0.01602,-0.04532,0.02258,-0.01404,-0.01526,-0.01144,-0.02121,0.00351,-0.03677,-0.01801,0.03845,-0.05264
7.386,-0.0029,-0.03754,-0.05035,-0.02121,-0.01328,-0.0441,0.0116,-0.01572,-0.01617,-0.00946,-0.01953,0.00366,-0.03571,-0.01862,0.05066,-0.05524
7.3865,-0.00397,-0.03616,-0.04944,-0.02472,-0.01343,-0.03967,-0.00748,-0.01343,-0.01663,-0.0087,-0.01694,0.009,-0.0351,-0.01785,0.04593,-0.05508
7.387,-0.0058,-0.03632,-0.0502,-0.02548,-0.01938,-0.03479,-0.01572,-0.00824,-0.01694,-0.01083,-0.01404,0.01541,-0.03494,-0.01862,0.0444,-0.05447
7.3875,-0.00717,-0.03693,-0.05295,-0.02243,-0.02533,-0.03021,-0.01205,-0.00153,-0.01694,-0.01419,-0.01266,0.01648,-0.03448,-0.02014,0.05402,-0.05188
7.388,-0.00778,-0.03845,-0.05569,-0.01678,-0.02716,-0.02838,-0.0116,0.00458,-0.01755,-0.01663,-0.01373,0.01236,-0.03448,-0.02075,0.06027,-0.05173
7.3885,-0.00946,-0.03998,-0.056,-0.01053,-0.02289,-0.02899,-0.0206,0.01297,-0.01755,-0.01648,-0.01556,0.00885,-0.03464,-0.02014,0.05035,-0.05295
7.389,-0.0119,-0.04166,-0.05356,-0.0032,-0.01602,-0.02975,-0.02731,0.02441,-0.01724,-0.01541,-0.01678,0.00687,-0.03387,-0.01999,0.04074,-0.05447
7.3895,-0.01144,-0.04166,-0.05051,0.00443,-0.00885,-0.03006,-0.02487,0.03189,-0.01678,-0.01373,-0.01648,0.00732,-0.03281,-0.01984,0.03632,-0.05188
7.39,-0.00748,-0.03998,-0.04715,0.0119,-0.00885,-0.02991,-0.02258,0.02991,-0.0177,-0.01282,-0.01556,0.00778,-0.03265,-0.01953,0.02197,-0.04501
7.3905,-0.00458,-0.03952,-0.04166,0.01556,-0.01678,-0.03159,-0.03372,0.01587,-0.01694,-0.01404,-0.0148,0.0087,-0.03387,-0.02045,-0.00427,-0.03494
7.391,-0.00504,-0.03937,-0.03403,0.01205,-0.03448,-0.03998,-0.05478,-0.00351,-0.01572,-0.01587,-0.01434,0.00854,-0.03357,-0.0209,-0.01938,-0.02914
7.3915,-0.009,-0.03937,-0.02975,0.00412,-0.05478,-0.05722,-0.07141,-0.01907,-0.01465,-0.0177,-0.01465,0.00732,-0.03189,-0.0206,-0.01236,-0.02975
7.392,-0.01312,-0.04211,-0.03448,-0.0029,-0.06897,-0.07568,-0.0769,-0.02701,-0.01526,-0.01984,-0.01602,0.00534,-0.03098,-0.01968,0.00397,-0.03342
7.3925,-0.01572,-0.04745,-0.0502,-0.00793,-0.07233,-0.08209,-0.07538,-0.0293,-0.01648,-0.01923,-0.01602,0.00366,-0.03143,-0.01877,0.01266,-0.03799
7.393,-0.01587,-0.05417,-0.07202,-0.01572,-0.06714,-0.06821,-0.06821,-0.03006,-0.01755,-0.02014,-0.01541,0.00336,-0.03067,-0.01678,0.01556,-0.04257
7.3935,-0.01373,-0.0563,-0.08911,-0.03296,-0.05814,-0.04608,-0.05341,-0.03342,-0.01694,-0.01984,-0.01404,0.00381,-0.02945,-0.01694,0.01526,-0.04349
7.394,-0.01068,-0.05234,-0.09171,-0.0528,-0.05264,-0.03189,-0.03174,-0.03967,-0.01633,-0.02014,-0.01251,0.00488,-0.0296,-0.01801,0.01175,-0.0383
7.3945,-0.00839,-0.04639,-0.08087,-0.06165,-0.0499,-0.0296,-0.01465,-0.05127,-0.01282,-0.02121,-0.01205,0.00519,-0.03204,-0.01923,0.00504,-0.03311
7.395,-0.00687,-0.04211,-0.06454,-0.0473,-0.0441,-0.03357,-0.00397,-0.06195,-0.01129,-0.02075,-0.01266,0.00305,-0.03342,-0.02029,-0.00031,-0.03342
7.3955,-0.00732,-0.04013,-0.04776,-0.009,-0.03143,-0.03723,0.00626,-0.06271,-0.01297,-0.02106,-0.01266,-0.00046,-0.03281,-0.0209,-0.00076,-0.03906
7.396,-0.00504,-0.03937,-0.03448,0.03815,-0.01404,-0.03342,0.01633,-0.05157,-0.01556,-0.01984,-0.01221,-0.00443,-0.03204,-0.02014,-0.00015,-0.04974
7.3965,0.00046,-0.04028,-0.02182,0.07141,0.00259,-0.01816,0.01831,-0.03845,-0.01709,-0.01968,-0.01266,-0.00748,-0.0322,-0.01892,-0.00381,-0.05966
7.397,0.00641,-0.04196,-0.00854,0.07401,0.01266,0.00275,0.01282,-0.02899,-0.01617,-0.02197,-0.01266,-0.00809,-0.03326,-0.01907,-0.00916,-0.06516
7.3975,0.00885,-0.04181,0.0032,0.04807,0.01785,0.01038,0.00702,-0.01801,-0.01465,-0.02701,-0.01312,-0.00687,-0.03311,-0.01953,-0.01099,-0.06332
7.398,0.00793,-0.03876,0.01236,0.01312,0.01419,-0.00534,0.00137,0.00259,-0.01526,-0.03159,-0.01266,-0.00397,-0.03067,-0.01938,-0.00656,-0.05432
7.3985,0.00458,-0.03662,0.02029,-0.0087,0.00092,-0.04013,-0.01068,0.02304,-0.01587,-0.03387,-0.01205,-0.00122,-0.02838,-0.0174,0.00137,-0.0444
7.399,0.00244,-0.03693,0.02838,-0.00671,-0.01434,-0.07462,-0.03204,0.02777,-0.01572,-0.0325,-0.01297,0.0,-0.02914,-0.01724,0.009,-0.03876
7.3995,0.00229,-0.0383,0.03387,0.01434,-0.03006,-0.09186,-0.04959,0.01099,-0.01465,-0.02869,-0.01389,0.00168,-0.03052,-0.01801,0.01221,-0.03906
7.4,0.00412,-0.03784,0.03174,0.04303,-0.04105,-0.09628,-0.04868,-0.00854,-0.01419,-0.02319,-0.01389,0.00351,-0.03006,-0.01938,0.01083,-0.03983
7.4005,0.00443,-0.03586,0.01846,0.065,-0.05142,-0.0975,-0.03464,-0.0119,-0.01572,-0.02106,-0.01221,0.00504,-0.02914,-0.01984,0.00854,-0.03784
7.401,0.00305,-0.03098,-0.00061,0.07446,-0.06363,-0.09262,-0.02289,-0.00015,-0.01678,-0.0174,-0.01083,0.00626,-0.0293,-0.02014,0.009,-0.03464
7.4015,0.00198,-0.02518,-0.02121,0.07858,-0.0795,-0.07065,-0.01221,0.01434,-0.0174,-0.01663,-0.01205,0.00519,-0.03067,-0.02182,0.01068,-0.03265
7.402,0.00229,-0.0209,-0.03479,0.07965,-0.09003,-0.03723,0.01236,0.02533,-0.01709,-0.01404,-0.01328,0.00351,-0.03052,-0.02243,0.01282,-0.03204
7.4025,0.0032,-0.0206,-0.04272,0.0827,-0.08743,-0.01389,0.047,0.03036,-0.01709,-0.01083,-0.01312,0.00336,-0.03006,-0.02213,0.01297,-0.03067
7.403,0.00443,-0.02167,-0.04593,0.08942,-0.07278,-0.00793,0.06393,0.02823,-0.01755,-0.00763,-0.01205,0.00305,-0.02914,-0.02029,0.01022,-0.03159
7.4035,0.00458,-0.0238,-0.04883,0.09872,-0.06302,-0.01358,0.04745,0.01953,-0.01648,-0.00931,-0.01221,0.00244,-0.03067,-0.01923,0.00504,-0.03418
7.404,0.00687,-0.02762,-0.05219,0.10788,-0.06516,-0.02899,0.01434,0.01099,-0.01678,-0.01343,-0.01312,0.00092,-0.03189,-0.01877,0.0,-0.03799
7.4045,0.01175,-0.03204,-0.05646,0.11261,-0.07584,-0.05386,-0.01038,0.00763,-0.01663,-0.01526,-0.0145,-0.00061,-0.03326,-0.01801,-0.00122,-0.03983
7.405,0.01678,-0.03433,-0.05646,0.11673,-0.08423,-0.07324,-0.02319,0.00549,-0.01678,-0.01526,-0.0145,-0.00122,-0.03418,-0.01846,0.00122,-0.03571
7.4055,0.01862,-0.03433,-0.05524,0.12283,-0.09125,-0.07751,-0.02823,0.00107,-0.01602,-0.01434,-0.0145,-0.00061,-0.03433,-0.01892,0.00687,-0.02975
7.406,0.0174,-0.03372,-0.05341,0.13229,-0.09094,-0.07355,-0.02747,-0.00198,-0.01556,-0.01312,-0.01312,-0.00046,-0.03433,-0.01938,0.01053,-0.02609
7.4065,0.01389,-0.03433,-0.0531,0.14297,-0.08316,-0.06943,-0.01968,-0.00107,-0.01465,-0.01251,-0.01205,-0.00092,-0.03479,-0.01892,0.01221,-0.02563
7.407,0.009,-0.03616,-0.05417,0.15884,-0.06393,-0.06729,-0.00702,0.00076,-0.01419,-0.01266,-0.01251,-0.00107,-0.03479,-0.01801,0.01022,-0.02457
7.4075,0.00351,-0.03723,-0.05096,0.186,-0.0386,-0.06073,0.00259,-0.00549,-0.01389,-0.01358,-0.01328,0.00031,-0.03433,-0.01709,0.00854,-0.02487
7.408,-0.00137,-0.0386,-0.0444,0.22568,-0.0145,-0.05127,0.00275,-0.01434,-0.01465,-0.01465,-0.01297,0.00061,-0.03326,-0.01709,0.00656,-0.02487
7.4085,-0.00534,-0.03922,-0.0351,0.26138,0.00183,-0.04364,-0.00626,-0.01572,-0.01587,-0.01755,-0.01266,0.00061,-0.03235,-0.01678,0.00458,-0.03052
7.409,-0.00748,-0.03952,-0.02609,0.2742,0.00854,-0.04089,-0.01526,-0.00732,-0.01526,-0.01831,-0.01221,-0.00031,-0.03387,-0.01602,0.00031,-0.0383
7.4095,-0.00809,-0.03891,-0.02167,0.25406,0.00854,-0.04013,-0.01755,0.0032,-0.01251,-0.01877,-0.0119,-0.00031,-0.03494,-0.01511,-0.00427,-0.04807
7.41,-0.00961,-0.03967,-0.02121,0.21667,0.00793,-0.03906,-0.0145,0.00916,-0.01175,-0.01892,-0.01038,0.00061,-0.03326,-0.01541,-0.00565,-0.05981
7.4105,-0.0119,-0.04379,-0.02319,0.18463,0.00244,-0.0386,-0.01099,0.00992,-0.01282,-0.02029,-0.00992,0.00153,-0.03189,-0.01755,-0.00381,-0.06638
7.411,-0.01541,-0.05157,-0.02792,0.17242,-0.00992,-0.03967,-0.0116,0.00839,-0.01465,-0.02151,-0.01068,0.00259,-0.03235,-0.01984,0.00061,-0.06836
7.4115,-0.02151,-0.05905,-0.03738,0.17517,-0.02747,-0.04288,-0.01648,0.00519,-0.01526,-0.02304,-0.01282,0.00473,-0.03494,-0.01999,0.00671,-0.06256
7.412,-0.02716,-0.06302,-0.05386,0.17822,-0.04364,-0.04852,-0.02457,0.00244,-0.0145,-0.02213,-0.01389,0.0061,-0.03479,-0.01862,0.01038,-0.05615
7.4125,-0.02762,-0.06287,-0.07492,0.17029,-0.05112,-0.0531,-0.03387,-0.00198,-0.01358,-0.02075,-0.01297,0.00626,-0.03296,-0.01862,0.01175,-0.05127
7.413,-0.02274,-0.06149,-0.0914,0.1474,-0.05051,-0.05722,-0.03952,-0.00793,-0.01434,-0.01938,-0.01205,0.00458,-0.03311,-0.01938,0.01068,-0.0499
7.4135,-0.01404,-0.06317,-0.09659,0.11658,-0.04105,-0.06256,-0.03723,-0.01419,-0.01541,-0.01862,-0.01297,0.00366,-0.03448,-0.02014,0.0087,-0.0502
7.414,-0.00702,-0.06653,-0.09109,0.08484,-0.02502,-0.06851,-0.02914,-0.01801,-0.01663,-0.01923,-0.01495,0.0029,-0.0354,-0.02014,0.00854,-0.0502
7.4145,-0.00305,-0.06744,-0.0798,0.0592,-0.00702,-0.07004,-0.02289,-0.01678,-0.01572,-0.02014,-0.01602,0.00336,-0.0351,-0.0209,0.00671,-0.04578
7.415,-0.00259,-0.06332,-0.06973,0.04318,0.00504,-0.06638,-0.02121,-0.01343,-0.01572,-0.02045,-0.01526,0.00244,-0.03448,-0.02136,-0.00153,-0.04303
7.4155,-0.00534,-0.05936,-0.05585,0.03571,0.00702,-0.0592,-0.02213,-0.01053,-0.01495,-0.0206,-0.01541,0.00092,-0.03418,-0.02274,-0.0116,-0.04074
7.416,-0.00717,-0.05905,-0.04013,0.03174,0.00259,-0.05203,-0.02197,-0.009,-0.01511,-0.01999,-0.01587,-0.00031,-0.03479,-0.02258,-0.0145,-0.04074
7.4165,-0.00854,-0.06271,-0.02518,0.02487,-0.00061,-0.03967,-0.02243,-0.00839,-0.01404,-0.01938,-0.01495,0.00122,-0.03632,-0.02197,-0.00473,-0.04028
7.417,-0.00595,-0.06775,-0.01297,0.00961,-0.00107,-0.01892,-0.02579,-0.0058,-0.01358,-0.01968,-0.01358,0.00381,-0.03799,-0.02213,0.00687,-0.03876
7.4175,-0.00336,-0.06897,-0.00031,-0.01022,0.00305,0.01038,-0.03525,-0.0032,-0.01266,-0.02014,-0.01251,0.00488,-0.03815,-0.02289,0.01297,-0.03586
7.418,-0.0029,-0.06363,0.01663,-0.03128,0.00595,0.03662,-0.05188,-0.0029,-0.01389,-0.02228,-0.01266,0.00427,-0.03601,-0.02472,0.00931,-0.03418
7.4185,-0.00656,-0.05005,0.03647,-0.05157,0.0061,0.0444,-0.06897,-0.00473,-0.01465,-0.0206,-0.01602,0.00168,-0.03281,-0.02579,0.00671,-0.03525
7.419,-0.01114,-0.0322,0.0531,-0.07263,0.00565,0.03357,-0.07278,-0.00793,-0.01511,-0.0209,-0.01862,0.00046,-0.03174,-0.02533,0.00641,-0.03845
7.4195,-0.01358,-0.0174,0.0618,-0.09079,0.00427,0.00916,-0.06012,-0.00885,-0.01465,-0.0209,-0.01846,0.00092,-0.03204,-0.02411,0.00854,-0.04135
7.42,-0.01312,-0.00961,0.05524,-0.10712,0.00244,-0.01862,-0.04517,-0.00839,-0.01404,-0.02106,-0.01617,0.00076,-0.03357,-0.02365,0.00931,-0.04288
7.4205,-0.0119,-0.00641,0.03235,-0.1297,0.00046,-0.04288,-0.04135,-0.009,-0.01404,-0.02228,-0.0145,0.00046,-0.03372,-0.02258,0.00763,-0.04349
7.421,-0.00809,-0.00473,0.00351,-0.16632,-0.00015,-0.05997,-0.04318,-0.01007,-0.01434,-0.02182,-0.0145,0.00046,-0.03189,-0.02045,0.00748,-0.0444
7.4215,-0.00336,-0.00351,-0.01801,-0.20691,-0.00031,-0.07324,-0.03525,-0.00977,-0.01389,-0.02319,-0.01617,-0.00031,-0.03067,-0.01953,0.00839,-0.04471
7.422,0.00107,-0.00153,-0.02853,-0.23392,-0.00092,-0.09415,-0.01389,-0.00702,-0.01434,-0.02228,-0.01633,-0.00122,-0.03021,-0.01923,0.00885,-0.04211
7.4225,0.00351,-0.00198,-0.03296,-0.24567,-0.00519,-0.12299,0.009,-0.00366,-0.01373,-0.02151,-0.01495,-0.00107,-0.03021,-0.01968,0.00778,-0.0415
7.423,0.00641,-0.00305,-0.03815,-0.25146,-0.0087,-0.14465,0.02075,-0.00229,-0.0145,-0.02106,-0.01358,0.00015,-0.03098,-0.01953,0.00656,-0.04288
7.4235,0.01129,-0.0061,-0.04456,-0.25894,-0.01053,-0.13977,0.02258,-0.0029,-0.01572,-0.02213,-0.01495,0.00031,-0.03281,-0.01968,0.00763,-0.04471
7.424,0.0148,-0.01053,-0.05157,-0.26535,-0.01236,-0.10849,0.02075,-0.00381,-0.01587,-0.02258,-0.01648,-0.00046,-0.03403,-0.02106,0.01022,-0.04379
7.4245,0.01266,-0.01862,-0.05905,-0.27283,-0.01312,-0.07324,0.01953,-0.00443,-0.01587,-0.02228,-0.01541,-0.00076,-0.03464,-0.02228,0.01343,-0.04211
7.425,0.00793,-0.02747,-0.0647,-0.2858,-0.01373,-0.05508,0.01587,-0.00595,-0.01602,-0.02121,-0.01373,0.00092,-0.03448,-0.02213,0.01358,-0.04166
7.4255,0.00366,-0.03265,-0.065,-0.30136,-0.0174,-0.04837,0.00595,-0.00793,-0.01617,-0.02075,-0.01328,0.00137,-0.03448,-0.02121,0.01312,-0.0415
7.426,0.00336,-0.03281,-0.0563,-0.31097,-0.02014,-0.03601,-0.00641,-0.0087,-0.01572,-0.01953,-0.0148,0.0,-0.03433,-0.02045,0.00992,-0.04196
7.4265,0.00595,-0.03006,-0.04288,-0.30991,-0.02029,-0.01328,-0.01556,-0.00626,-0.01495,-0.01846,-0.01831,-0.00137,-0.03448,-0.01968,0.00748,-0.03967
7.427,0.00946,-0.02838,-0.03372,-0.3096,-0.01511,0.00092,-0.02029,-0.00107,-0.01465,-0.01801,-0.01877,-0.00137,-0.03464,-0.01907,0.00443,-0.03769
7.4275,0.00854,-0.02823,-0.03372,-0.31693,-0.00458,0.00427,-0.01755,0.00168,-0.0148,-0.01892,-0.01816,-0.00076,-0.03433,-0.01938,0.00259,-0.03632
7.428,0.00244,-0.03128,-0.04379,-0.32852,0.00748,0.01282,-0.00839,0.00229,-0.01526,-0.01892,-0.01602,-0.00122,-0.03342,-0.01831,0.00153,-0.03922
7.4285,-0.00687,-0.03571,-0.056,-0.336,0.01801,0.03128,0.00076,0.00153,-0.01617,-0.01923,-0.0145,-0.00122,-0.03235,-0.01648,0.00275,-0.04181
7.429,-0.0145,-0.04013,-0.07034,-0.33493,0.02228,0.04303,0.00137,0.0,-0.01755,-0.01831,-0.01343,-0.00015,-0.03128,-0.01602,0.00534,-0.04227
7.4295,-0.01938,-0.04364,-0.08804,-0.33081,0.01129,0.03571,-0.00549,-0.00381,-0.01755,-0.01801,-0.0119,0.00137,-0.03098,-0.01587,0.00854,-0.04196
7.43,-0.02319,-0.04486,-0.10529,-0.33234,-0.01846,0.01846,-0.01129,-0.00778,-0.01709,-0.01755,-0.01068,0.00366,-0.03113,-0.01572,0.01053,-0.04257
7.4305,-0.03036,-0.04517,-0.11444,-0.33386,-0.05966,-0.00092,-0.00793,-0.0087,-0.01602,-0.0174,-0.01144,0.00473,-0.03006,-0.01602,0.00977,-0.04303
7.431,-0.04181,-0.0441,-0.10986,-0.32745,-0.08621,-0.02808,-0.00412,-0.00671,-0.01587,-0.01862,-0.01358,0.00488,-0.02838,-0.01694,0.00809,-0.04074
7.4315,-0.04913,-0.04211,-0.09613,-0.31235,-0.08102,-0.08362,-0.0058,-0.00702,-0.01724,-0.01892,-0.01404,0.00458,-0.02792,-0.01587,0.00961,-0.04044
7.432,-0.04425,-0.04044,-0.07813,-0.2948,-0.05417,-0.17029,-0.00519,-0.01236,-0.01785,-0.01892,-0.01343,0.00336,-0.02914,-0.01541,0.0116,-0.04074
7.4325,-0.03189,-0.04074,-0.05829,-0.28046,-0.0322,-0.2446,0.00595,-0.02182,-0.01816,-0.01877,-0.01358,0.00183,-0.02991,-0.0145,0.01343,-0.04089
7.433,-0.02182,-0.04089,-0.03555,-0.26688,-0.02609,-0.23773,0.01648,-0.02945,-0.01785,-0.01923,-0.01236,0.00031,-0.03098,-0.0148,0.01297,-0.04196
7.4335,-0.01907,-0.03815,-0.01694,-0.25345,-0.03036,-0.14145,0.01404,-0.0322,-0.01785,-0.02045,-0.01099,0.00015,-0.03128,-0.01511,0.0116,-0.04135
7.434,-0.01801,-0.03571,-0.0058,-0.24216,-0.03571,-0.03418,0.00412,-0.02777,-0.01709,-0.02045,-0.01038,-0.00015,-0.03204,-0.01511,0.01022,-0.04059
7.4345,-0.01297,-0.03464,-0.00168,-0.23239,-0.0383,0.00443,-0.0029,-0.02106,-0.01556,-0.01862,-0.0119,-0.00214,-0.03342,-0.01358,0.00854,-0.04059
7.435,-0.0061,-0.03372,0.0029,-0.21851,-0.03479,-0.0174,-0.00916,-0.01831,-0.01404,-0.01816,-0.0119,-0.00549,-0.03464,-0.01297,0.00793,-0.03998
7.4355,-0.0029,-0.03265,0.01114,-0.19791,-0.02655,-0.04059,-0.01877,-0.0174,-0.01373,-0.01785,-0.01236,-0.0087,-0.03296,-0.01434,0.00885,-0.03967
7.436,0.00031,-0.03265,0.01999,-0.17334,-0.01755,-0.03662,-0.02487,-0.01602,-0.0145,-0.01907,-0.01312,-0.00992,-0.03052,-0.01663,0.00977,-0.03769
7.4365,0.00427,-0.03082,0.02151,-0.14923,-0.01068,-0.02411,-0.02106,-0.01099,-0.01648,-0.01984,-0.01511,-0.00793,-0.02975,-0.01831,0.00931,-0.03815
7.437,0.00778,-0.02716,0.01419,-0.13245,-0.00534,-0.0264,-0.01282,-0.00671,-0.01663,-0.02045,-0.01511,-0.0058,-0.03189,-0.01877,0.00732,-0.03952
7.4375,0.00656,-0.02441,0.00488,-0.12634,-0.00504,-0.0531,-0.01114,-0.0058,-0.01617,-0.02167,-0.01389,-0.00351,-0.03464,-0.01968,0.00763,-0.04135
7.438,0.00153,-0.02777,-0.00244,-0.12421,-0.01312,-0.09552,-0.0174,-0.00656,-0.01511,-0.02213,-0.0119,-0.00122,-0.03387,-0.01923,0.00916,-0.04166
7.4385,-0.00336,-0.03754,-0.00961,-0.11658,-0.03006,-0.13718,-0.0238,-0.00824,-0.01526,-0.02121,-0.01221,0.00122,-0.03311,-0.01816,0.01129,-0.04288
7.439,-0.00458,-0.047,-0.01938,-0.09796,-0.04547,-0.1532,-0.02594,-0.01266,-0.01556,-0.01984,-0.0145,0.00275,-0.03326,-0.01709,0.01251,-0.04303
7.4395,-0.00198,-0.05203,-0.02853,-0.07065,-0.05234,-0.13565,-0.02609,-0.01862,-0.01617,-0.0177,-0.01312,0.0029,-0.03372,-0.01663,0.0145,-0.04166
7.44,0.00061,-0.05264,-0.03357,-0.04608,-0.05081,-0.1001,-0.0296,-0.02167,-0.01678,-0.0174,-0.01129,0.0029,-0.03311,-0.01755,0.01495,-0.04028
7.4405,0.00092,-0.05219,-0.03723,-0.02609,-0.05051,-0.06165,-0.03525,-0.02029,-0.01709,-0.01709,-0.01205,0.00275,-0.03235,-0.01923,0.01495,-0.03952
7.441,-0.00122,-0.05234,-0.0383,-0.01038,-0.05142,-0.02472,-0.03922,-0.01389,-0.01572,-0.01846,-0.01389,0.00305,-0.03265,-0.02045,0.01434,-0.03754
7.4415,-0.00031,-0.05371,-0.03281,0.00244,-0.05219,0.00656,-0.03784,-0.00809,-0.01389,-0.01953,-0.01434,0.00259,-0.0322,-0.02075,0.01465,-0.0386
7.442,0.00473,-0.05447,-0.01953,0.01251,-0.05203,0.02502,-0.0351,-0.00397,-0.01343,-0.02014,-0.01297,0.00214,-0.03174,-0.01877,0.01236,-0.04074
7.4425,0.0145,-0.05508,-0.00183,0.02029,-0.05188,0.03006,-0.03174,0.00061,-0.0148,-0.01938,-0.01129,0.00305,-0.03174,-0.01572,0.00992,-0.04272
7.443,0.02594,-0.05463,0.00977,0.03128,-0.05188,0.02869,-0.02777,0.00885,-0.01633,-0.01831,-0.00977,0.00427,-0.03387,-0.01389,0.00458,-0.04425
7.4435,0.03662,-0.05112,0.00198,0.04669,-0.04929,0.02472,-0.0235,0.02106,-0.01617,-0.01755,-0.009,0.00275,-0.03494,-0.0145,0.00092,-0.04471
7.444,0.0415,-0.04715,-0.02411,0.0679,-0.04593,0.01511,-0.01953,0.03098,-0.01511,-0.01801,-0.00885,-0.00031,-0.03479,-0.01663,-0.00031,-0.04303
7.4445,0.03387,-0.04562,-0.04745,0.08667,-0.04379,-0.00107,-0.01892,0.03464,-0.01419,-0.01877,-0.01022,-0.00122,-0.03403,-0.01907,0.00275,-0.04227
7.445,0.01694,-0.04547,-0.05142,0.09583,-0.04074,-0.02182,-0.02075,0.03006,-0.01404,-0.01968,-0.01358,-0.00015,-0.03387,-0.02106,0.00839,-0.04257
7.4455,0.00198,-0.04578,-0.04074,0.09583,-0.03799,-0.03708,-0.02136,0.02136,-0.0148,-0.02228,-0.01663,0.00076,-0.03311,-0.02182,0.01175,-0.04395
7.446,-0.00259,-0.04837,-0.03357,0.0914,-0.03632,-0.04654,-0.01923,0.01343,-0.01633,-0.02167,-0.01709,0.00168,-0.0325,-0.02274,0.01068,-0.04654
7.4465,-0.00214,-0.05249,-0.03418,0.09079,-0.03723,-0.05722,-0.01938,0.00763,-0.0177,-0.02167,-0.01526,0.00137,-0.03204,-0.01953,0.0058,-0.04974
7.447,-0.00214,-0.05554,-0.03555,0.09888,-0.04059,-0.07858,-0.02686,0.00244,-0.01862,-0.02014,-0.01343,0.00015,-0.0325,-0.01419,0.00397,-0.05112
7.4475,-0.00534,-0.05508,-0.03067,0.11276,-0.04395,-0.11032,-0.03769,-0.0032,-0.01892,-0.01694,-0.01266,-0.00168,-0.03189,-0.01053,0.00504,-0.04929
7.448,-0.01419,-0.05188,-0.02441,0.12451,-0.04395,-0.13611,-0.04578,-0.00717,-0.01892,-0.01389,-0.01404,-0.00259,-0.03159,-0.01175,0.00687,-0.04486
7.4485,-0.02655,-0.0502,-0.02335,0.12772,-0.04028,-0.13077,-0.05035,-0.00961,-0.0177,-0.01312,-0.01511,-0.00153,-0.03113,-0.01511,0.00793,-0.03906
7.449,-0.03708,-0.05127,-0.02762,0.12375,-0.03387,-0.09109,-0.05478,-0.01099,-0.01724,-0.01511,-0.01495,0.00046,-0.03189,-0.01633,0.00839,-0.03662
7.4495,-0.0386,-0.05341,-0.03403,0.11749,-0.02762,-0.04456,-0.05661,-0.00992,-0.01785,-0.0174,-0.0145,0.00366,-0.03189,-0.01633,0.00992,-0.0386
7.45,-0.02914,-0.05447,-0.04745,0.11353,-0.02274,-0.03098,-0.04944,-0.00366,-0.01678,-0.01816,-0.01419,0.00671,-0.03098,-0.01602,0.01175,-0.04166
7.4505,-0.0174,-0.05356,-0.07538,0.11063,-0.02075,-0.05234,-0.03113,0.00626,-0.01495,-0.01678,-0.01526,0.00839,-0.03174,-0.01724,0.01297,-0.04395
7.451,-0.00931,-0.05081,-0.11063,0.10986,-0.02121,-0.07172,-0.00565,0.01602,-0.01328,-0.01709,-0.01572,0.00839,-0.03387,-0.01892,0.0119,-0.0473
7.4515,-0.00412,-0.04745,-0.13107,0.11429,-0.0238,-0.06119,0.01724,0.0235,-0.01266,-0.01831,-0.01526,0.00778,-0.03555,-0.01999,0.01114,-0.05096
7.452,0.00397,-0.04547,-0.12634,0.12131,-0.03143,-0.03403,0.02945,0.02701,-0.01404,-0.01785,-0.0145,0.00595,-0.03723,-0.02411,0.00946,-0.05447
7.4525,0.01389,-0.04654,-0.10529,0.12375,-0.04242,-0.01572,0.03296,0.02609,-0.0145,-0.01755,-0.01343,0.00427,-0.03632,-0.03357,0.00854,-0.05249
7.453,0.02151,-0.04974,-0.07919,0.11917,-0.05264,-0.00763,0.03098,0.0209,-0.0145,-0.01663,-0.01297,0.0032,-0.03464,-0.04562,0.00809,-0.04471
7.4535,0.02304,-0.05249,-0.05157,0.11276,-0.05783,0.00031,0.02411,0.01099,-0.01465,-0.01587,-0.01373,0.00336,-0.03311,-0.05219,0.009,-0.03723
7.454,0.01938,-0.05371,-0.02716,0.10727,-0.06058,0.00748,0.00977,0.00137,-0.01526,-0.01526,-0.01465,0.00244,-0.03326,-0.04684,0.01129,-0.03464
7.4545,0.01541,-0.05249,-0.00763,0.10239,-0.0592,0.00534,-0.00854,-0.00351,-0.01541,-0.01511,-0.01602,0.00137,-0.03387,-0.03403,0.01007,-0.03708
7.455,0.01663,-0.05157,0.00534,0.09613,-0.05783,-0.00504,-0.02228,-0.00183,-0.0148,-0.01572,-0.01602,0.00015,-0.03326,-0.02258,0.00626,-0.03983
7.4555,0.02121,-0.05096,0.01434,0.09247,-0.05753,-0.01755,-0.02472,0.00214,-0.01358,-0.01602,-0.01724,-0.00061,-0.0322,-0.01633,0.00397,-0.04257
7.456,0.02808,-0.0499,0.02487,0.09277,-0.05768,-0.03433,-0.01694,0.00305,-0.01389,-0.01801,-0.01694,-0.00092,-0.03403,-0.01328,0.00336,-0.04211
7.4565,0.03265,-0.04593,0.03372,0.09552,-0.0563,-0.06561,-0.00458,0.00046,-0.01434,-0.01877,-0.01419,-0.00015,-0.03677,-0.01053,0.00488,-0.04059
7.457,0.03326,-0.04227,0.03723,0.09842,-0.05234,-0.10727,0.00488,0.00061,-0.01465,-0.02151,-0.01175,0.00214,-0.03769,-0.009,0.00488,-0.04044
7.4575,0.02625,-0.03998,0.02991,0.10193,-0.04669,-0.1326,0.0058,0.00305,-0.01602,-0.02686,-0.01389,0.00488,-0.03525,-0.01053,0.00458,-0.04456
7.458,0.01282,-0.03799,0.009,0.10254,-0.04074,-0.1178,-0.00229,0.00488,-0.01923,-0.02914,-0.01816,0.00565,-0.03265,-0.01404,0.00641,-0.0473
7.4585,0.00137,-0.03922,-0.0206,0.09659,-0.03586,-0.07355,-0.01358,0.00015,-0.02411,-0.0264,-0.02304,0.00473,-0.03311,-0.01709,0.00992,-0.04929
7.459,-0.00259,-0.04471,-0.04471,0.08514,-0.03342,-0.0383,-0.02243,-0.00854,-0.02747,-0.02289,-0.02365,0.00473,-0.03433,-0.0177,0.01282,-0.0499
7.4595,-0.00198,-0.05402,-0.05554,0.0769,-0.0322,-0.03204,-0.02396,-0.01526,-0.02731,-0.02014,-0.02075,0.00702,-0.0354,-0.01724,0.01495,-0.04852
7.46,-0.00259,-0.06012,-0.0531,0.07416,-0.0322,-0.04562,-0.01755,-0.01785,-0.02441,-0.02441,-0.01923,0.00885,-0.03464,-0.01617,0.01328,-0.04486
7.4605,-0.00671,-0.05783,-0.04654,0.06744,-0.03052,-0.05722,0.00275,-0.01724,-0.01892,-0.0296,-0.01938,0.00931,-0.03311,-0.01495,0.01022,-0.03845
7.461,-0.01297,-0.05066,-0.04196,0.05402,-0.02945,-0.05951,0.02838,-0.01495,-0.0145,-0.03174,-0.01785,0.00854,-0.0325,-0.01495,0.00946,-0.0322
7.4615,-0.01907,-0.04288,-0.03876,0.04303,-0.02777,-0.06088,0.04318,-0.01083,-0.01221,-0.02914,-0.01144,0.00992,-0.03281,-0.01602,0.01221,-0.02823
7.462,-0.02304,-0.03586,-0.03464,0.04349,-0.02899,-0.06165,0.03799,-0.00397,-0.01251,-0.02441,-0.00336,0.00946,-0.0322,-0.01846,0.01633,-0.02411
7.4625,-0.02502,-0.02747,-0.03082,0.05341,-0.03098,-0.05966,0.02243,-0.00183,-0.0145,-0.0174,0.00229,0.00732,-0.03189,-0.01862,0.0206,-0.02258
7.463,-0.02716,-0.01984,-0.03006,0.06088,-0.03265,-0.05829,0.01038,-0.00412,-0.01831,-0.009,0.00458,0.00534,-0.03082,-0.01801,0.02411,-0.02335
7.4635,-0.03174,-0.01678,-0.03006,0.06378,-0.03342,-0.06195,0.00458,-0.00732,-0.02274,-0.00137,0.00244,0.00397,-0.03098,-0.01678,0.02853,-0.02975
7.464,-0.03891,-0.02396,-0.03021,0.06714,-0.0354,-0.07629,0.00015,-0.00702,-0.02563,0.00046,-0.0029,0.00061,-0.03189,-0.01709,0.02975,-0.03876
7.4645,-0.04593,-0.03952,-0.03082,0.06699,-0.04105,-0.09781,-0.00305,-0.00687,-0.02274,-0.00427,-0.0119,-0.00504,-0.03387,-0.01892,0.0264,-0.05005
7.465,-0.04913,-0.05829,-0.03357,0.05646,-0.04868,-0.1149,-0.00488,-0.0087,-0.01587,-0.01175,-0.02182,-0.00992,-0.03448,-0.01892,0.02151,-0.05356
7.4655,-0.04578,-0.0708,-0.04105,0.03326,-0.05341,-0.11002,-0.00885,-0.01419,-0.01038,-0.01495,-0.02701,-0.01053,-0.03326,-0.01724,0.01755,-0.05203
7.466,-0.03662,-0.0708,-0.04944,0.00504,-0.05173,-0.07523,-0.01251,-0.01846,-0.00885,-0.01495,-0.02609,-0.00839,-0.03265,-0.0148,0.01099,-0.04898
7.4665,-0.02487,-0.06165,-0.05661,-0.01755,-0.04486,-0.0264,-0.01282,-0.01755,-0.00931,-0.01419,-0.02243,-0.00488,-0.03174,-0.01221,0.00122,-0.04547
7.467,-0.01083,-0.04868,-0.06027,-0.02701,-0.03677,0.01694,-0.01083,-0.01114,-0.00854,-0.01678,-0.02075,-0.00229,-0.03159,-0.009,-0.00534,-0.04303
7.4675,0.00229,-0.03494,-0.06332,-0.02258,-0.02762,0.0473,-0.01038,-0.00534,-0.00824,-0.01968,-0.02106,0.00031,-0.03174,-0.0058,-0.00229,-0.04532
7.468,0.00839,-0.0148,-0.06729,-0.01617,-0.01892,0.06897,-0.01663,-0.00717,-0.00885,-0.01877,-0.02228,0.00259,-0.0322,-0.00534,0.00763,-0.0499
7.4685,0.0029,0.0116,-0.07126,-0.0174,-0.01373,0.07645,-0.02396,-0.01373,-0.00824,-0.01556,-0.01755,0.00336,-0.03326,-0.00687,0.01312,-0.05768
7.469,-0.00854,0.03372,-0.07339,-0.02884,-0.01526,0.06119,-0.02686,-0.01816,-0.00763,-0.01724,-0.00854,0.00214,-0.03342,-0.00961,0.01297,-0.06546
7.4695,-0.01755,0.03784,-0.07233,-0.04379,-0.0235,0.03067,-0.02319,-0.01434,-0.00687,-0.0206,-0.0032,0.00137,-0.0322,-0.01144,0.01083,-0.06638
7.47,-0.0148,0.02396,-0.06439,-0.05341,-0.03479,0.00412,-0.01297,-0.00534,-0.00854,-0.02121,-0.00305,0.00259,-0.03113,-0.01221,0.00793,-0.06134
7.4705,-0.00031,0.00687,-0.047,-0.05386,-0.04196,-0.00778,0.00031,0.00046,-0.01114,-0.02029,-0.00763,0.00366,-0.03342,-0.01144,0.00259,-0.05493
7.471,0.01633,-0.00458,-0.02029,-0.04395,-0.04181,-0.01068,0.00656,-0.00061,-0.01266,-0.01862,-0.01266,0.00381,-0.0351,-0.00946,-0.01221,-0.05264
7.4715,0.02151,-0.01587,0.00916,-0.02792,-0.03754,-0.01083,0.00137,-0.00534,-0.01297,-0.01755,-0.01495,0.0029,-0.03494,-0.00793,-0.03326,-0.05814
7.472,0.01022,-0.03387,0.03082,-0.01221,-0.0351,-0.00641,-0.00931,-0.00732,-0.01221,-0.01678,-0.01587,0.00137,-0.03342,-0.01068,-0.04593,-0.06912
7.4725,-0.00427,-0.05264,0.0322,-0.0061,-0.03479,-0.00565,-0.01419,-0.00671,-0.01205,-0.01648,-0.0148,-0.00061,-0.03281,-0.02136,-0.03815,-0.07446
7.473,-0.00534,-0.06271,0.01312,-0.00977,-0.0325,-0.02731,-0.01144,-0.00641,-0.01389,-0.0174,-0.01297,-0.00015,-0.03204,-0.03891,-0.01617,-0.06653
7.4735,0.00763,-0.06531,-0.01404,-0.01404,-0.02975,-0.0647,-0.01007,-0.00717,-0.01587,-0.01968,-0.01221,0.00183,-0.03174,-0.05508,-0.00153,-0.0473
7.474,0.02014,-0.06348,-0.03403,-0.01068,-0.02975,-0.0795,-0.01236,-0.00519,-0.01556,-0.01999,-0.01312,0.00397,-0.03174,-0.05905,-0.00412,-0.0293
7.4745,0.02274,-0.05997,-0.03891,-0.00137,-0.02869,-0.05981,-0.01495,-0.00092,-0.01602,-0.01816,-0.01373,0.00351,-0.03098,-0.04822,-0.01221,-0.02075
7.475,0.01846,-0.05737,-0.03448,0.00656,-0.02731,-0.04822,-0.01511,0.00137,-0.01694,-0.01755,-0.01389,0.0029,-0.03082,-0.03265,-0.01328,-0.02243
7.4755,0.01587,-0.05646,-0.02853,0.00839,-0.02762,-0.09094,-0.01663,-0.00275,-0.01923,-0.0209,-0.01404,0.00458,-0.03128,-0.02411,-0.00412,-0.02579
7.476,0.01648,-0.05768,-0.02579,0.00092,-0.02808,-0.15594,-0.01953,-0.01068,-0.02106,-0.02869,-0.01312,0.00977,-0.03235,-0.02197,0.00931,-0.02594
7.4765,0.01465,-0.05859,-0.02701,-0.01007,-0.02975,-0.16479,-0.02213,-0.01617,-0.02106,-0.03479,-0.01221,0.01389,-0.03265,-0.02182,0.02167,-0.02487
7.477,0.00656,-0.05981,-0.03098,-0.01984,-0.03082,-0.09735,-0.02396,-0.01709,-0.01755,-0.0325,-0.01251,0.01373,-0.03189,-0.02045,0.02914,-0.02518
7.4775,-0.00732,-0.06149,-0.03616,-0.02289,-0.03021,-0.0206,-0.02258,-0.01465,-0.01572,-0.02625,-0.01312,0.00961,-0.03098,-0.01892,0.02899,-0.02975
7.478,-0.02075,-0.06378,-0.03876,-0.02106,-0.02808,0.00214,-0.01923,-0.00992,-0.01633,-0.02289,-0.0148,0.00427,-0.03113,-0.01816,0.02289,-0.03754
7.4785,-0.03021,-0.06577,-0.03815,-0.02029,-0.02747,-0.03143,-0.01724,-0.00473,-0.01877,-0.02075,-0.01541,0.0,-0.03204,-0.01877,0.01755,-0.04608
7.479,-0.03784,-0.0647,-0.03387,-0.02029,-0.02731,-0.08926,-0.01877,0.00031,-0.02014,-0.01709,-0.01633,-0.00244,-0.03082,-0.01907,0.01465,-0.05249
7.4795,-0.04227,-0.0592,-0.02579,-0.02075,-0.02747,-0.14984,-0.01907,0.00305,-0.01892,-0.01083,-0.01892,-0.00336,-0.02975,-0.01999,0.0148,-0.0531
7.48,-0.03876,-0.0528,-0.01541,-0.02151,-0.02457,-0.19455,-0.01801,0.00397,-0.01694,-0.00519,-0.0209,-0.0032,-0.0296,-0.02014,0.01785,-0.04837
7.4805,-0.02762,-0.04929,-0.00931,-0.02563,-0.01877,-0.1973,-0.01556,0.00336,-0.01495,-0.00061,-0.01968,-0.00229,-0.0296,-0.01953,0.01999,-0.0415
7.481,-0.01755,-0.05356,-0.01144,-0.02991,-0.01328,-0.14862,-0.01511,0.00076,-0.01328,0.00275,-0.01617,-0.00153,-0.03021,-0.01816,0.01999,-0.0351
7.4815,-0.01221,-0.06363,-0.02213,-0.03021,-0.00977,-0.08011,-0.01617,-0.00244,-0.01297,0.00549,-0.01434,-0.00153,-0.03006,-0.01633,0.02289,-0.03357
7.482,-0.0116,-0.0737,-0.03571,-0.02716,-0.01236,-0.03525,-0.01663,-0.00198,-0.0119,0.00351,-0.01572,-0.00153,-0.03128,-0.01587,0.02777,-0.03738
7.4825,-0.00824,-0.0766,-0.04608,-0.01938,-0.0206,-0.02563,-0.01465,0.0029,-0.01083,-0.00214,-0.01816,-0.00076,-0.03235,-0.01648,0.02563,-0.04166
7.483,0.0032,-0.07248,-0.04929,-0.00656,-0.03021,-0.02899,-0.01389,0.00824,-0.01129,-0.01129,-0.01877,0.00214,-0.03189,-0.01709,0.01175,-0.0412
7.4835,0.02197,-0.06561,-0.04578,0.00793,-0.03342,-0.03128,-0.01572,0.00778,-0.0145,-0.01968,-0.01602,0.00717,-0.03052,-0.01785,-0.00214,-0.03418
7.484,0.03693,-0.05692,-0.04135,0.01633,-0.02945,-0.03448,-0.02106,0.0,-0.01801,-0.02457,-0.01266,0.01282,-0.02991,-0.01755,-0.00504,-0.02609
7.4845,0.03326,-0.047,-0.03891,0.02029,-0.02106,-0.04288,-0.02609,-0.00671,-0.0209,-0.02563,-0.01022,0.01709,-0.03128,-0.01785,-0.00046,-0.02197
7.485,0.0119,-0.03571,-0.03784,0.02548,-0.01801,-0.04807,-0.02853,-0.00778,-0.02213,-0.02686,-0.009,0.01923,-0.03265,-0.01816,0.00076,-0.02274
7.4855,-0.00809,-0.02563,-0.03738,0.03311,-0.02441,-0.04639,-0.0267,-0.00641,-0.02151,-0.03021,-0.00992,0.01862,-0.03433,-0.0177,-0.00336,-0.02701
7.486,-0.01266,-0.01846,-0.0351,0.03525,-0.03311,-0.04074,-0.02289,-0.00641,-0.01968,-0.03357,-0.01205,0.01755,-0.03479,-0.0174,-0.00641,-0.03632
7.4865,-0.00595,-0.01328,-0.03296,0.02487,-0.03647,-0.03769,-0.02121,-0.00641,-0.01801,-0.03433,-0.01389,0.01648,-0.03418,-0.01633,-0.00443,-0.04684
7.487,-0.00137,-0.01129,-0.03433,0.00443,-0.0351,-0.03525,-0.02182,-0.00717,-0.01846,-0.03357,-0.01511,0.01663,-0.03357,-0.01572,-0.00275,-0.05478
7.4875,-0.00946,-0.01205,-0.03983,-0.0119,-0.03448,-0.02609,-0.02274,-0.009,-0.02014,-0.03128,-0.01389,0.01587,-0.03189,-0.01572,-0.00824,-0.05508
7.488,-0.03403,-0.01312,-0.04684,-0.01358,-0.03586,-0.01068,-0.02121,-0.00992,-0.02136,-0.02808,-0.01099,0.01053,-0.03082,-0.01419,-0.02335,-0.04868
7.4885,-0.06302,-0.01328,-0.04852,-0.00153,-0.03586,0.00214,-0.01923,-0.00626,-0.01831,-0.02304,-0.00793,0.00229,-0.03082,-0.01282,-0.03555,-0.03815
7.489,-0.07935,-0.01419,-0.04837,0.00961,-0.03693,0.0032,-0.01999,0.0029,-0.0145,-0.01816,-0.00565,-0.00397,-0.03098,-0.01328,-0.02838,-0.02747
7.4895,-0.07477,-0.0209,-0.04547,0.01053,-0.03525,-0.00458,-0.0235,0.00732,-0.0119,-0.0145,-0.00687,-0.00702,-0.02975,-0.01358,0.00198,-0.02045
7.49,-0.05722,-0.03326,-0.03754,0.00229,-0.03784,-0.01358,-0.0293,0.00275,-0.01205,-0.01526,-0.01038,-0.00778,-0.02808,-0.01419,0.03632,-0.02243
7.4905,-0.03922,-0.04501,-0.02579,-0.00916,-0.03662,-0.01694,-0.03159,-0.00534,-0.01282,-0.01862,-0.01404,-0.00656,-0.0296,-0.01328,0.04959,-0.03311
7.491,-0.02228,-0.04959,-0.01297,-0.01877,-0.03265,-0.01968,-0.02991,-0.00626,-0.01221,-0.01968,-0.01511,-0.00214,-0.03357,-0.01297,0.03723,-0.04196
7.4915,-0.00244,-0.04837,-0.00397,-0.01923,-0.0267,-0.02457,-0.02747,-0.00168,-0.01022,-0.02075,-0.01434,0.00458,-0.03601,-0.01312,0.0148,-0.04425
7.492,0.01816,-0.04349,-0.00183,-0.00656,-0.02472,-0.03525,-0.02655,0.00015,-0.00885,-0.02014,-0.01358,0.00961,-0.03464,-0.01343,0.00046,-0.04501
7.4925,0.03326,-0.04074,-0.00336,0.01114,-0.02411,-0.06409,-0.0264,-0.00061,-0.00916,-0.02106,-0.01266,0.01038,-0.03296,-0.01465,-0.00366,-0.04639
7.493,0.03845,-0.04013,-0.00916,0.02075,-0.02563,-0.10788,-0.02609,-0.00244,-0.01205,-0.02106,-0.01297,0.00732,-0.0325,-0.01541,-0.00443,-0.0441
7.4935,0.03937,-0.04028,-0.01816,0.0177,-0.02655,-0.13687,-0.02609,-0.00488,-0.01434,-0.02151,-0.01236,0.00458,-0.03418,-0.01648,-0.00427,-0.03922
7.494,0.04044,-0.04059,-0.02853,0.01251,-0.02365,-0.12177,-0.02747,-0.01038,-0.01511,-0.0206,-0.01266,0.00381,-0.03448,-0.01648,-0.00504,-0.03845
7.4945,0.04486,-0.04211,-0.04059,0.01129,-0.02182,-0.07797,-0.02884,-0.01633,-0.01434,-0.01984,-0.01328,0.00153,-0.03403,-0.01724,-0.01419,-0.04715
7.495,0.05112,-0.04517,-0.05264,0.01022,-0.01999,-0.04456,-0.02731,-0.01755,-0.01434,-0.01663,-0.01434,-0.00427,-0.03387,-0.01785,-0.02274,-0.06256
7.4955,0.0563,-0.05127,-0.06241,0.00412,-0.02228,-0.03586,-0.02472,-0.01633,-0.01404,-0.01785,-0.01389,-0.01236,-0.03586,-0.01892,-0.01511,-0.0769
7.496,0.05676,-0.05966,-0.06561,-0.00519,-0.02548,-0.03387,-0.02457,-0.0145,-0.01373,-0.01892,-0.01266,-0.01953,-0.03738,-0.01953,0.009,-0.0882
7.4965,0.05005,-0.06683,-0.06042,-0.01236,-0.02502,-0.02045,-0.02625,-0.01221,-0.01343,-0.01938,-0.0116,-0.02365,-0.03662,-0.01938,0.02762,-0.09125
7.497,0.03296,-0.07004,-0.05432,-0.01587,-0.02365,0.00473,-0.02563,-0.00793,-0.0145,-0.01953,-0.01144,-0.0235,-0.03525,-0.01877,0.02609,-0.08438
7.4975,0.00595,-0.06927,-0.05585,-0.01663,-0.02426,0.02548,-0.02197,-0.00229,-0.01556,-0.02014,-0.01343,-0.02106,-0.0351,-0.01801,0.01801,-0.06958
7.498,-0.02136,-0.06622,-0.06027,-0.01556,-0.02548,0.03006,-0.01724,0.00153,-0.01694,-0.02121,-0.0145,-0.01877,-0.03601,-0.01877,0.0174,-0.05371
7.4985,-0.04211,-0.06042,-0.06012,-0.01465,-0.0267,0.02106,-0.01694,0.00168,-0.01709,-0.02243,-0.0148,-0.01816,-0.03586,-0.0206,0.02029,-0.04135
7.499,-0.05539,-0.05127,-0.05249,-0.01144,-0.02762,0.00748,-0.01862,-0.00229,-0.01556,-0.02335,-0.01434,-0.01831,-0.03525,-0.02151,0.01801,-0.03464
7.4995,-0.06668,-0.04181,-0.04242,-0.00183,-0.02975,-0.00839,-0.02045,-0.00717,-0.01343,-0.02319,-0.0145,-0.01648,-0.03387,-0.02106,0.01617,-0.03052
7.5,-0.07538,-0.03174,-0.03525,0.01282,-0.03464,-0.0473,-0.01984,-0.00961,-0.01251,-0.02136,-0.01465,-0.01297,-0.03387,-0.02075,0.02045,-0.02869
7.5005,-0.07294,-0.02197,-0.02853,0.02426,-0.04028,-0.12497,-0.0177,-0.01205,-0.01266,-0.02045,-0.01328,-0.00748,-0.03387,-0.02106,0.02213,-0.02914
7.501,-0.05768,-0.01495,-0.02319,0.02701,-0.0473,-0.21347,-0.01678,-0.0116,-0.01419,-0.01923,-0.0119,-0.00275,-0.03204,-0.02167,0.00717,-0.03296
7.5015,-0.03525,-0.0119,-0.0206,0.02411,-0.05585,-0.24307,-0.01694,-0.00793,-0.01556,-0.01999,-0.01205,-0.0029,-0.03098,-0.02213,-0.01251,-0.03586
7.502,-0.01312,-0.01343,-0.02167,0.02121,-0.06622,-0.17136,-0.01984,-0.00214,-0.01663,-0.01892,-0.01389,-0.00778,-0.0322,-0.02136,-0.00931,-0.03555
7.5025,0.00793,-0.01602,-0.02487,0.01968,-0.06775,-0.04547,-0.02563,0.0032,-0.0177,-0.01953,-0.01511,-0.01343,-0.03464,-0.0206,0.02975,-0.03159
7.503,0.03067,-0.01831,-0.02869,0.01755,-0.05951,0.04868,-0.03174,0.00458,-0.01816,-0.01999,-0.01465,-0.01572,-0.03494,-0.01953,0.07782,-0.02762
7.5035,0.05569,-0.01709,-0.03082,0.01465,-0.04349,0.07874,-0.03647,0.00504,-0.01999,-0.01984,-0.01495,-0.01266,-0.03357,-0.01968,0.09598,-0.02792
7.504,0.08102,-0.00961,-0.0293,0.01053,-0.02396,0.06805,-0.03769,0.00565,-0.01999,-0.02075,-0.01556,-0.00778,-0.03326,-0.02121,0.07675,-0.03448
7.5045,0.10025,-0.00031,-0.02853,0.00488,-0.01343,0.04379,-0.03448,0.00656,-0.01862,-0.02136,-0.01495,-0.00412,-0.03464,-0.02243,0.04532,-0.0473
7.505,0.10696,0.00366,-0.03632,0.00198,-0.01328,0.00702,-0.02213,0.00717,-0.0174,-0.02106,-0.01465,-0.00336,-0.03479,-0.02197,0.0267,-0.06073
7.5055,0.1001,-0.00137,-0.0499,0.00458,-0.0177,-0.03128,-0.00061,0.00748,-0.01785,-0.02045,-0.01556,-0.00427,-0.03464,-0.0209,0.02563,-0.06378
7.506,0.08469,-0.0145,-0.0592,0.00916,-0.02548,-0.04868,0.02167,0.00488,-0.01709,-0.02182,-0.01678,-0.00488,-0.03479,-0.02075,0.0322,-0.05005
7.5065,0.07172,-0.02808,-0.05646,0.00885,-0.03006,-0.04105,0.03326,-0.00046,-0.01541,-0.02319,-0.01724,-0.00641,-0.0354,-0.0209,0.0322,-0.02747
7.507,0.06241,-0.03632,-0.047,0.00122,-0.03311,-0.0264,0.02823,-0.00839,-0.01526,-0.02274,-0.01617,-0.0087,-0.03586,-0.01953,0.02243,-0.01144
7.5075,0.05096,-0.03723,-0.04059,-0.01266,-0.03265,-0.02426,0.01678,-0.01404,-0.01678,-0.02136,-0.01663,-0.01038,-0.03601,-0.01923,0.00656,-0.01221
7.508,0.03387,-0.03632,-0.03876,-0.02609,-0.03113,-0.03525,0.00931,-0.01572,-0.01862,-0.02213,-0.0174,-0.00916,-0.03616,-0.01892,-0.00626,-0.02411
7.5085,0.01663,-0.03632,-0.03922,-0.0351,-0.02731,-0.05661,0.00717,-0.01495,-0.01846,-0.02167,-0.01953,-0.00534,-0.03586,-0.01938,-0.0145,-0.0354
7.509,0.00656,-0.03906,-0.04013,-0.03922,-0.02731,-0.0795,0.00504,-0.01221,-0.01602,-0.02304,-0.01923,-0.00153,-0.03464,-0.01907,-0.01877,-0.04089
7.5095,0.00153,-0.04166,-0.04318,-0.03937,-0.03082,-0.08972,-0.00046,-0.00992,-0.0145,-0.02197,-0.01755,-0.00076,-0.03326,-0.02014,-0.02853,-0.04364
7.51,-0.00641,-0.0412,-0.04623,-0.03342,-0.03448,-0.07721,-0.00259,-0.00656,-0.01541,-0.02213,-0.01633,-0.00336,-0.0322,-0.02121,-0.04883,-0.04883
7.5105,-0.02228,-0.03891,-0.04425,-0.02106,-0.0383,-0.0473,-0.00137,-0.00168,-0.01755,-0.02365,-0.01724,-0.00687,-0.03326,-0.02106,-0.0676,-0.06058
7.511,-0.03922,-0.03586,-0.03922,-0.00259,-0.0412,-0.01694,-0.00046,0.00031,-0.01831,-0.02426,-0.01724,-0.00732,-0.03448,-0.02075,-0.06561,-0.07355
7.5115,-0.04623,-0.03571,-0.03571,0.01938,-0.0444,-0.00305,-0.0029,-0.00214,-0.0174,-0.02319,-0.01709,-0.00259,-0.03448,-0.02075,-0.04028,-0.08057
7.512,-0.0415,-0.03952,-0.03754,0.04196,-0.04547,-0.01312,-0.0061,-0.00504,-0.01678,-0.02258,-0.0177,0.0029,-0.03357,-0.02045,-0.0145,-0.07568
7.5125,-0.03128,-0.04486,-0.04181,0.05615,-0.04807,-0.03799,-0.00763,-0.00305,-0.01801,-0.0209,-0.01785,0.00656,-0.03235,-0.02014,-0.0061,-0.06439
7.513,-0.02411,-0.0473,-0.04257,0.04761,-0.04883,-0.05966,-0.00763,0.00198,-0.01877,-0.02014,-0.01831,0.00824,-0.03174,-0.01968,-0.01007,-0.05035
7.5135,-0.02029,-0.04623,-0.03754,0.01465,-0.04929,-0.07111,-0.00946,0.00305,-0.01999,-0.01984,-0.01785,0.00916,-0.03204,-0.01968,-0.00641,-0.0351
7.514,-0.02014,-0.04501,-0.02823,-0.02213,-0.05035,-0.07431,-0.01312,-0.00137,-0.01999,-0.01907,-0.01724,0.01038,-0.03311,-0.01953,0.01404,-0.01266
7.5145,-0.02121,-0.04562,-0.02167,-0.03906,-0.05051,-0.07401,-0.01587,-0.00748,-0.01831,-0.01923,-0.01724,0.01144,-0.0325,-0.01785,0.03967,0.01495
7.515,-0.02579,-0.04868,-0.02182,-0.03082,-0.04852,-0.07065,-0.01694,-0.00916,-0.01801,-0.01984,-0.01709,0.01068,-0.0325,-0.01602,0.04761,0.03006
7.5155,-0.03189,-0.05402,-0.02686,-0.00717,-0.04547,-0.06927,-0.01801,-0.00687,-0.01877,-0.02106,-0.0174,0.00839,-0.03235,-0.01617,0.0296,0.02441
7.516,-0.03799,-0.05768,-0.03189,0.0209,-0.04242,-0.07034,-0.01846,-0.00183,-0.02029,-0.02029,-0.01694,0.00488,-0.03342,-0.01663,-0.00046,0.00412
7.5165,-0.04303,-0.05829,-0.03204,0.04089,-0.03952,-0.06897,-0.01694,0.0029,-0.0209,-0.01801,-0.01663,0.00275,-0.03265,-0.0177,-0.01602,-0.01572
7.517,-0.04486,-0.05569,-0.03281,0.04395,-0.0441,-0.06073,-0.01358,0.00351,-0.02029,-0.01831,-0.01633,0.00122,-0.0322,-0.01892,-0.01389,-0.03174
7.5175,-0.0444,-0.05402,-0.03967,0.02945,-0.04929,-0.04257,-0.01251,0.00076,-0.01968,-0.01831,-0.01724,-0.00214,-0.03113,-0.01968,-0.01343,-0.0473
7.518,-0.04105,-0.05402,-0.05386,0.01053,-0.05051,-0.00931,-0.01511,-0.00305,-0.01907,-0.01801,-0.0177,-0.00366,-0.03021,-0.01938,-0.02716,-0.06714
7.5185,-0.03754,-0.05234,-0.07034,-0.00732,-0.04745,0.03357,-0.01862,-0.00549,-0.0206,-0.01846,-0.01709,-0.00366,-0.02914,-0.01862,-0.04547,-0.08377
7.519,-0.03586,-0.04684,-0.08347,-0.02777,-0.04105,0.06668,-0.02075,-0.00519,-0.02197,-0.01984,-0.01678,-0.00259,-0.02945,-0.01892,-0.05524,-0.08392
7.5195,-0.03387,-0.04211,-0.08987,-0.05234,-0.03387,0.06592,-0.01846,-0.00046,-0.02151,-0.01953,-0.01663,-0.00015,-0.03006,-0.01938,-0.04852,-0.06577
7.52,-0.03082,-0.04074,-0.08423,-0.07126,-0.02594,0.03082,-0.0148,0.00763,-0.01953,-0.01846,-0.01511,0.00137,-0.02823,-0.01953,-0.03372,-0.04135
7.5205,-0.02991,-0.04227,-0.06577,-0.07584,-0.02197,-0.01816,-0.01251,0.01419,-0.01694,-0.0174,-0.01328,0.00305,-0.02563,-0.01831,-0.02472,-0.02396
7.521,-0.03159,-0.04639,-0.04135,-0.0676,-0.02151,-0.06699,-0.0116,0.01266,-0.01663,-0.01709,-0.01297,0.00443,-0.02487,-0.01755,-0.02396,-0.01816
7.5215,-0.03464,-0.05173,-0.02213,-0.0589,-0.02457,-0.13077,-0.01221,0.00381,-0.01602,-0.01984,-0.01236,0.00626,-0.02686,-0.01678,-0.00397,-0.01968
7.522,-0.03525,-0.05569,-0.01358,-0.06042,-0.0296,-0.21011,-0.0145,-0.00641,-0.01541,-0.02121,-0.01205,0.00809,-0.0293,-0.01846,0.05554,-0.02167
7.5225,-0.03235,-0.05432,-0.01678,-0.06393,-0.03326,-0.25543,-0.01572,-0.01114,-0.01404,-0.02136,-0.01144,0.00961,-0.0296,-0.01968,0.12192,-0.02411
7.523,-0.02762,-0.05081,-0.02411,-0.0592,-0.03296,-0.21927,-0.01434,-0.00885,-0.01251,-0.01953,-0.01083,0.01038,-0.0296,-0.02029,0.14191,-0.02853
7.5235,-0.02289,-0.05157,-0.03143,-0.04883,-0.02777,-0.12482,-0.01038,-0.00458,-0.01221,-0.01755,-0.01083,0.01068,-0.02975,-0.02014,0.10651,-0.03265
7.524,-0.02167,-0.05951,-0.03738,-0.04669,-0.02106,-0.04333,-0.00641,-0.00229,-0.01221,-0.01663,-0.01129,0.01129,-0.03098,-0.01968,0.05493,-0.03387
7.5245,-0.02457,-0.0676,-0.03555,-0.0528,-0.01724,-0.01022,-0.00473,-0.00076,-0.01266,-0.01678,-0.01251,0.01251,-0.03265,-0.01953,0.02182,-0.03113
7.525,-0.03006,-0.06927,-0.02151,-0.05295,-0.01663,-0.00885,-0.00671,-0.00031,-0.01205,-0.0174,-0.01328,0.01144,-0.03326,-0.02029,0.009,-0.03128
7.5255,-0.03372,-0.06653,0.00015,-0.03876,-0.0116,-0.01068,-0.01083,0.00214,-0.01114,-0.01648,-0.01389,0.01038,-0.0322,-0.02167,0.00107,-0.03525
7.526,-0.03387,-0.0647,0.01312,-0.01678,-0.01282,-0.01266,-0.0145,0.00122,-0.01221,-0.01694,-0.01511,0.01083,-0.03021,-0.02243,-0.01755,-0.04486
7.5265,-0.0325,-0.06561,-0.00244,-0.00198,-0.01312,-0.0238,-0.01892,-0.00122,-0.01389,-0.01587,-0.01572,0.01236,-0.02914,-0.02167,-0.04761,-0.05325
7.527,-0.03281,-0.06531,-0.04303,-0.00519,-0.01572,-0.04089,-0.02533,-0.00275,-0.01526,-0.01663,-0.01541,0.0116,-0.03036,-0.02213,-0.07156,-0.05814
7.5275,-0.03525,-0.06088,-0.08362,-0.03067,-0.01968,-0.06149,-0.03418,-0.0029,-0.01541,-0.01556,-0.01617,0.00793,-0.03342,-0.02167,-0.06882,-0.05569
7.528,-0.03769,-0.05386,-0.10574,-0.07019,-0.02701,-0.08011,-0.04242,-0.00412,-0.01495,-0.01556,-0.0148,0.00488,-0.03693,-0.02228,-0.02792,-0.04501
7.5285,-0.03662,-0.04761,-0.10132,-0.09796,-0.02716,-0.08957,-0.04425,-0.00702,-0.0145,-0.01572,-0.01419,0.00504,-0.03815,-0.02274,0.04501,-0.03525
7.529,-0.0351,-0.0412,-0.07294,-0.09552,-0.02731,-0.09048,-0.04059,-0.00977,-0.0145,-0.01678,-0.01297,0.00458,-0.03769,-0.02243,0.11154,-0.03143
7.5295,-0.03387,-0.03296,-0.03036,-0.07217,-0.02823,-0.09171,-0.03647,-0.0119,-0.01434,-0.01526,-0.01358,0.00244,-0.03632,-0.02136,0.1178,-0.03708
7.53,-0.03128,-0.02289,0.01175,-0.05157,-0.02762,-0.09155,-0.03586,-0.01221,-0.01266,-0.01282,-0.01373,0.00168,-0.03601,-0.01953,0.06546,-0.04684
7.5305,-0.02808,-0.01373,0.03769,-0.0415,-0.02914,-0.07675,-0.03433,-0.01129,-0.01068,-0.01038,-0.01312,0.00381,-0.03723,-0.01877,0.01419,-0.05295
7.531,-0.02686,-0.00702,0.03906,-0.03815,-0.02838,-0.03845,-0.02182,-0.00824,-0.01114,-0.00946,-0.01129,0.0087,-0.03845,-0.01892,0.01251,-0.04745
7.5315,-0.02716,-0.00275,0.02228,-0.03433,-0.02838,0.00946,0.00351,-0.00381,-0.01297,-0.01068,-0.01022,0.0116,-0.0383,-0.01831,0.03891,-0.03433
7.532,-0.02518,-0.00168,0.00305,-0.03479,-0.02899,0.04745,0.03021,0.0,-0.01312,-0.01236,-0.01114,0.00992,-0.03677,-0.01709,0.05371,-0.0267
7.5325,-0.01511,-0.00534,-0.00732,-0.03967,-0.0293,0.06454,0.04196,-0.00031,-0.01175,-0.01282,-0.01236,0.00687,-0.03372,-0.01678,0.04959,-0.03143
7.533,0.00183,-0.01343,-0.01007,-0.0473,-0.02808,0.05753,0.03418,-0.00549,-0.01068,-0.01266,-0.01297,0.0061,-0.03067,-0.01678,0.04349,-0.04959
7.5335,0.0145,-0.02396,-0.01038,-0.05188,-0.02426,0.03082,0.0148,-0.01297,-0.01129,-0.01236,-0.01312,0.00763,-0.02869,-0.01801,0.04333,-0.0705
7.534,0.01236,-0.04013,-0.00809,-0.04791,-0.0267,-0.00183,-0.0058,-0.01709,-0.01358,-0.0119,-0.01312,0.00656,-0.0293,-0.01984,0.04013,-0.08759
7.5345,0.00076,-0.0589,-0.00626,-0.03357,-0.02609,-0.03128,-0.0177,-0.01572,-0.01465,-0.01175,-0.01328,0.00626,-0.0293,-0.0235,0.03281,-0.10345
7.535,-0.00839,-0.07339,-0.01373,-0.01282,-0.02243,-0.06516,-0.01831,-0.01083,-0.01434,-0.01083,-0.01266,0.00702,-0.02975,-0.02716,0.02274,-0.12802
7.5355,-0.01007,-0.07675,-0.03036,0.00046,-0.02426,-0.11017,-0.01526,-0.00763,-0.01343,-0.0119,-0.0119,0.00824,-0.03174,-0.02823,0.0116,-0.15839
7.536,-0.00809,-0.07095,-0.04257,-0.00031,-0.0267,-0.14648,-0.01617,-0.00732,-0.01251,-0.01312,-0.01129,0.00793,-0.03433,-0.02609,0.00137,-0.17593
7.5365,-0.00916,-0.06287,-0.04547,-0.01419,-0.0293,-0.14236,-0.02167,-0.00854,-0.0119,-0.01251,-0.01221,0.00549,-0.03723,-0.02319,-0.00443,-0.16724
7.537,-0.01328,-0.05447,-0.04257,-0.02899,-0.03189,-0.09644,-0.02975,-0.00824,-0.01266,-0.01297,-0.01282,0.00366,-0.0383,-0.02136,-0.00671,-0.13962
7.5375,-0.01724,-0.04684,-0.04196,-0.03922,-0.03067,-0.04608,-0.03448,-0.00687,-0.01373,-0.01526,-0.01114,0.00351,-0.03708,-0.01907,-0.00824,-0.11261
7.538,-0.01617,-0.03906,-0.04791,-0.05081,-0.0351,-0.02274,-0.03403,-0.00565,-0.0148,-0.01755,-0.01038,0.00427,-0.0354,-0.01755,-0.01434,-0.08163
7.5385,-0.01099,-0.03128,-0.05615,-0.07263,-0.03616,-0.03128,-0.02945,-0.00305,-0.01511,-0.01862,-0.01114,0.00504,-0.03601,-0.01587,-0.01984,-0.03311
7.539,-0.00549,-0.0267,-0.06119,-0.10559,-0.0354,-0.05066,-0.02457,0.00031,-0.0145,-0.01862,-0.01343,0.00687,-0.03754,-0.0148,-0.02106,0.0206
7.5395,-0.00641,-0.02304,-0.06104,-0.1358,-0.03464,-0.05646,-0.02045,0.00198,-0.01434,-0.01801,-0.0145,0.00946,-0.03876,-0.01343,-0.01648,0.03906
7.54,-0.01328,-0.01907,-0.05707,-0.15656,-0.03387,-0.05081,-0.01495,0.00153,-0.01373,-0.01755,-0.01328,0.01022,-0.03815,-0.01175,-0.00671,0.00946
7.5405,-0.02182,-0.01434,-0.05493,-0.17029,-0.0293,-0.0499,-0.00565,0.0,-0.01465,-0.01785,-0.01205,0.00916,-0.0351,-0.009,0.00748,-0.04059
7.541,-0.02838,-0.01144,-0.05646,-0.16281,-0.02304,-0.05997,0.00687,-0.00122,-0.01511,-0.01831,-0.0116,0.00748,-0.03006,-0.00641,0.01556,-0.08026
7.5415,-0.03143,-0.01511,-0.06134,-0.11566,-0.02579,-0.06897,0.01862,-0.00229,-0.01495,-0.01984,-0.01129,0.00717,-0.0238,-0.00336,0.00778,-0.10056
7.542,-0.02777,-0.02319,-0.06699,-0.02914,-0.02747,-0.06958,0.01801,-0.00214,-0.0148,-0.0209,-0.01251,0.00793,-0.01755,-0.00061,-0.01221,-0.09705
7.5425,-0.0209,-0.03204,-0.07019,0.05112,-0.03052,-0.06409,0.00397,-0.00061,-0.01495,-0.02045,-0.01328,0.00885,-0.01404,0.00229,-0.02533,-0.06165
7.543,-0.01678,-0.03799,-0.07675,0.07568,-0.02884,-0.05798,-0.01343,-0.00031,-0.01495,-0.01923,-0.01328,0.0087,-0.01404,0.00549,-0.02579,-0.01053
7.5435,-0.02228,-0.04303,-0.09033,0.03906,-0.02594,-0.05096,-0.02365,-0.00183,-0.01465,-0.01923,-0.01175,0.00778,-0.01617,0.00351,-0.02014,0.01404
7.544,-0.03235,-0.04852,-0.10361,-0.01831,-0.0235,-0.04593,-0.02808,-0.00381,-0.0145,-0.01892,-0.01083,0.0058,-0.01678,-0.00336,-0.01282,0.00488
7.5445,-0.03769,-0.05585,-0.10376,-0.05707,-0.02167,-0.04471,-0.0296,-0.0058,-0.01495,-0.01953,-0.01114,0.00458,-0.01495,-0.00961,0.0,-0.00305
7.545,-0.03265,-0.06485,-0.09079,-0.06607,-0.02518,-0.04593,-0.02701,-0.00473,-0.01602,-0.0209,-0.01205,0.0029,-0.01221,-0.01373,0.01312,0.0209
7.5455,-0.02045,-0.07126,-0.07355,-0.05722,-0.0264,-0.04517,-0.02014,-0.00214,-0.01709,-0.02106,-0.01175,0.00092,-0.00992,-0.01648,0.01572,0.056
7.546,-0.00732,-0.0705,-0.05783,-0.04379,-0.02792,-0.04379,-0.01663,0.00092,-0.0174,-0.02136,-0.0116,0.00046,-0.00916,-0.01999,0.01083,0.06821
7.5465,0.00198,-0.06454,-0.03906,-0.02747,-0.03052,-0.04654,-0.0177,0.00427,-0.01587,-0.01907,-0.01236,0.00198,-0.01282,-0.02548,0.00519,0.05783
7.547,0.00809,-0.05829,-0.01297,-0.00992,-0.03372,-0.04852,-0.02106,0.00381,-0.01556,-0.01785,-0.01221,0.00443,-0.02045,-0.02777,-0.00015,0.04074
7.5475,0.01343,-0.05188,0.0119,-0.00351,-0.03418,-0.04501,-0.02121,0.00107,-0.01694,-0.01724,-0.01312,0.0061,-0.02747,-0.02762,-0.00916,0.02197
7.548,0.02151,-0.04364,0.02853,-0.01511,-0.03708,-0.03403,-0.01846,-0.00198,-0.01846,-0.01801,-0.01282,0.00504,-0.03555,-0.0267,-0.02228,-0.0029
7.5485,0.03342,-0.03586,0.03738,-0.03342,-0.03922,-0.02533,-0.01694,-0.00275,-0.01831,-0.01678,-0.01373,0.00427,-0.04456,-0.02625,-0.02365,-0.02975
7.549,0.04562,-0.03067,0.04227,-0.0415,-0.03983,-0.0235,-0.0177,-0.00381,-0.01755,-0.0177,-0.01419,0.0029,-0.05478,-0.0264,-0.00854,-0.04211
7.5495,0.0528,-0.0293,0.04562,-0.03693,-0.03922,-0.0264,-0.01984,-0.00488,-0.01633,-0.01984,-0.01297,0.00183,-0.06638,-0.0267,0.01038,-0.03632
7.55,0.0531,-0.02457,0.04166,-0.0296,-0.0386,-0.0267,-0.01984,-0.00519,-0.01633,-0.02243,-0.01175,0.00183,-0.07492,-0.02457,0.01358,-0.0264
7.5505,0.04776,-0.01465,0.02594,-0.02426,-0.03738,-0.02441,-0.01938,-0.00473,-0.01678,-0.02289,-0.0119,0.00305,-0.07919,-0.02243,0.00656,-0.02472
7.551,0.03937,0.00122,-0.00214,-0.02014,-0.03693,-0.02701,-0.01862,-0.00488,-0.01541,-0.02258,-0.01266,0.00519,-0.07507,-0.02045,0.00793,-0.02899
7.5515,0.03159,0.01404,-0.03281,-0.01633,-0.03784,-0.03662,-0.01831,-0.00595,-0.0145,-0.02182,-0.01419,0.00565,-0.06363,-0.02029,0.02716,-0.03296
7.552,0.02411,0.01236,-0.05478,-0.01144,-0.03754,-0.0441,-0.01846,-0.00702,-0.01495,-0.02029,-0.01511,0.0058,-0.05112,-0.02045,0.04486,-0.03448
7.5525,0.0177,-0.00565,-0.06317,-0.00351,-0.03799,-0.04028,-0.01846,-0.00549,-0.01617,-0.02136,-0.01648,0.0058,-0.04318,-0.01999,0.03906,-0.03571
7.553,0.01221,-0.03021,-0.06119,0.01312,-0.03677,-0.02335,-0.0206,-0.00443,-0.01785,-0.02106,-0.01602,0.00534,-0.03891,-0.01892,0.01434,-0.03708
7.5535,0.00458,-0.05493,-0.05478,0.03418,-0.03479,-0.00534,-0.02365,-0.0061,-0.01755,-0.0206,-0.01419,0.00473,-0.03403,-0.0177,-0.00229,-0.03876
7.554,-0.00565,-0.07675,-0.04913,0.04181,-0.03372,0.00275,-0.0235,-0.01144,-0.01709,-0.01923,-0.01434,0.0029,-0.02762,-0.01663,-0.00031,-0.04044
7.5545,-0.01556,-0.09323,-0.04623,0.0174,-0.0354,-0.00092,-0.02029,-0.01389,-0.01648,-0.01785,-0.01602,0.00122,-0.02213,-0.0145,0.00839,-0.04395
7.555,-0.02243,-0.09766,-0.04562,-0.03403,-0.03525,-0.01022,-0.01785,-0.00977,-0.01694,-0.01663,-0.01663,0.00046,-0.02029,-0.0119,0.009,-0.04852
7.5555,-0.02762,-0.09232,-0.04272,-0.08224,-0.03479,-0.01709,-0.01816,-0.00366,-0.01846,-0.01724,-0.01602,0.00046,-0.02106,-0.01175,0.00458,-0.05402
7.556,-0.03189,-0.08301,-0.04074,-0.10483,-0.03281,-0.02411,-0.01846,-0.00031,-0.01755,-0.01648,-0.01648,0.00153,-0.02182,-0.01282,0.00305,-0.06165
7.5565,-0.03052,-0.07614,-0.03998,-0.10406,-0.03128,-0.03876,-0.0174,-0.00092,-0.01633,-0.01633,-0.01755,0.00153,-0.02289,-0.01541,0.00397,-0.07004
7.557,-0.01846,-0.07172,-0.04166,-0.09125,-0.03159,-0.06973,-0.01556,-0.0032,-0.01526,-0.01755,-0.01694,0.00275,-0.02625,-0.01831,0.00549,-0.07599
7.5575,-0.00397,-0.06546,-0.04074,-0.06683,-0.03296,-0.11566,-0.01938,-0.00931,-0.01465,-0.01724,-0.0148,0.00412,-0.02838,-0.02075,0.0058,-0.07751
7.558,0.00351,-0.05768,-0.03159,-0.02975,-0.03387,-0.15396,-0.0267,-0.01862,-0.0145,-0.01678,-0.01236,0.00427,-0.02686,-0.02258,0.00519,-0.07202
7.5585,0.00168,-0.04944,-0.01297,0.00809,-0.03632,-0.15625,-0.03052,-0.02518,-0.01389,-0.01663,-0.01373,0.0032,-0.02335,-0.02396,0.00519,-0.05661
7.559,0.00076,-0.04181,0.00809,0.0296,-0.03677,-0.11765,-0.02426,-0.02365,-0.01465,-0.01587,-0.01663,0.00275,-0.02411,-0.02426,0.00565,-0.03143
7.5595,0.00778,-0.03601,0.0174,0.03693,-0.03464,-0.06866,-0.01297,-0.0148,-0.01572,-0.01541,-0.01785,0.00275,-0.03174,-0.02457,0.00626,-0.00854
7.56,0.01816,-0.03235,0.01068,0.0473,-0.03204,-0.03998,-0.0061,-0.00717,-0.01678,-0.0148,-0.01587,0.00412,-0.04211,-0.02319,0.00717,-0.00336
7.5605,0.02304,-0.03036,-0.00397,0.06561,-0.03082,-0.03708,-0.00595,-0.00366,-0.01648,-0.01495,-0.01389,0.00473,-0.04791,-0.02121,0.00656,-0.01678
7.561,0.01907,-0.02914,-0.01282,0.07721,-0.03082,-0.04501,-0.00809,-0.0029,-0.01678,-0.01495,-0.01358,0.00412,-0.04639,-0.01877,0.00458,-0.03281
7.5615,0.01053,-0.02594,-0.01404,0.06516,-0.02884,-0.04944,-0.00916,-0.00244,-0.01648,-0.01511,-0.01419,0.00381,-0.03983,-0.01816,0.00366,-0.0386
7.562,0.00137,-0.02182,-0.01648,0.02655,-0.02625,-0.0502,-0.00671,-0.00153,-0.01556,-0.01495,-0.01556,0.00366,-0.0351,-0.01953,0.00366,-0.03784
7.5625,-0.00549,-0.01892,-0.02213,-0.0206,-0.02625,-0.05081,-0.00244,-0.00244,-0.01633,-0.01556,-0.01587,0.00259,-0.0322,-0.02045,0.00381,-0.03723
7.563,-0.00946,-0.01968,-0.02777,-0.05356,-0.02716,-0.05234,-0.00046,-0.00381,-0.01785,-0.01633,-0.01572,0.00244,-0.03113,-0.02167,0.00473,-0.04028
7.5635,-0.00931,-0.02594,-0.03082,-0.05066,-0.02792,-0.05447,-0.00183,-0.00626,-0.01892,-0.01907,-0.01572,0.00229,-0.03082,-0.0235,0.00504,-0.0412
7.564,-0.009,-0.03418,-0.03311,-0.01114,-0.02869,-0.05417,-0.00687,-0.00793,-0.01831,-0.02106,-0.01694,0.00229,-0.03174,-0.02716,0.00534,-0.04074
7.5645,-0.00946,-0.04105,-0.03464,0.03952,-0.02975,-0.05447,-0.0119,-0.00839,-0.01602,-0.02167,-0.01816,0.00183,-0.03387,-0.03021,0.00519,-0.04105
7.565,-0.00839,-0.04425,-0.03586,0.06165,-0.03159,-0.05539,-0.0145,-0.00854,-0.01556,-0.02213,-0.01831,0.00183,-0.03571,-0.02899,0.00504,-0.0441
7.5655,-0.00198,-0.04456,-0.03952,0.0412,-0.03265,-0.05554,-0.01434,-0.00687,-0.01526,-0.02213,-0.01755,0.00153,-0.03754,-0.02518,0.00717,-0.04578
7.566,0.00473,-0.04395,-0.04318,0.00412,-0.03098,-0.05371,-0.0116,-0.00473,-0.01511,-0.02228,-0.01663,0.00076,-0.03876,-0.02228,0.00824,-0.04501
7.5665,0.00931,-0.04242,-0.04517,-0.01831,-0.03021,-0.0531,-0.00854,-0.00183,-0.01602,-0.02151,-0.01709,0.00122,-0.03891,-0.02151,0.00839,-0.04211
7.567,0.0119,-0.04227,-0.04196,-0.02258,-0.03082,-0.05371,-0.00839,-0.00092,-0.01801,-0.02304,-0.01755,0.00107,-0.03845,-0.02289,0.00732,-0.04257
7.5675,0.01511,-0.04227,-0.03342,-0.02151,-0.03128,-0.05066,-0.01083,-0.00168,-0.0174,-0.02396,-0.01678,-0.00046,-0.03738,-0.02518,0.00732,-0.04471
7.568,0.01724,-0.04242,-0.03036,-0.02258,-0.02991,-0.03998,-0.01343,-0.00336,-0.01617,-0.02472,-0.0145,-0.0029,-0.03723,-0.02747,0.00671,-0.04669
7.5685,0.01755,-0.04105,-0.03387,-0.01572,-0.02808,-0.02975,-0.01419,-0.00488,-0.01434,-0.02426,-0.01389,-0.00504,-0.03769,-0.02853,0.00839,-0.05005
7.569,0.01831,-0.04059,-0.0415,0.00824,-0.02838,-0.02777,-0.01297,-0.00443,-0.01373,-0.02304,-0.01602,-0.00443,-0.03799,-0.02762,0.00824,-0.05142
7.5695,0.01831,-0.04196,-0.04578,0.05142,-0.03006,-0.03265,-0.01282,-0.0029,-0.01282,-0.02228,-0.01724,-0.00198,-0.03754,-0.02548,0.009,-0.05325
7.57,0.01663,-0.04364,-0.04608,0.09995,-0.03281,-0.03677,-0.01419,-0.00275,-0.01053,-0.02197,-0.01526,-0.00046,-0.0386,-0.02472,0.00946,-0.05432
7.5705,0.01526,-0.047,-0.0415,0.13321,-0.03296,-0.0383,-0.01404,-0.00336,-0.01068,-0.02289,-0.01297,-0.00061,-0.03952,-0.02472,0.01007,-0.05524
7.571,0.01511,-0.05051,-0.03693,0.14069,-0.03143,-0.04272,-0.01358,-0.00427,-0.01114,-0.02319,-0.01297,-0.00275,-0.03891,-0.02365,0.01022,-0.05356
7.5715,0.01495,-0.05081,-0.03403,0.12421,-0.03006,-0.05554,-0.01236,-0.00443,-0.01221,-0.02304,-0.01251,-0.00366,-0.03647,-0.02213,0.01099,-0.05096
7.572,0.01053,-0.04639,-0.03296,0.09445,-0.0325,-0.07507,-0.01282,-0.0061,-0.01236,-0.02304,-0.01175,-0.00351,-0.03403,-0.02243,0.01282,-0.04929
7.5725,0.00031,-0.04196,-0.03342,0.06439,-0.03647,-0.08759,-0.0148,-0.00748,-0.01251,-0.02228,-0.01144,-0.00305,-0.0351,-0.0238,0.0116,-0.04852
7.573,-0.01007,-0.04211,-0.03601,0.03952,-0.03693,-0.07858,-0.01587,-0.00778,-0.01343,-0.0206,-0.01328,-0.00305,-0.03647,-0.02426,0.01022,-0.04807
7.5735,-0.01343,-0.04654,-0.04166,0.02182,-0.03494,-0.05936,-0.01419,-0.00534,-0.01465,-0.01968,-0.01511,-0.00488,-0.03616,-0.0235,0.01038,-0.04837
7.574,-0.00992,-0.04974,-0.04898,0.00732,-0.0322,-0.04974,-0.01251,-0.0032,-0.01434,-0.01923,-0.01389,-0.00656,-0.03403,-0.02304,0.01114,-0.04898
7.5745,-0.00702,-0.04974,-0.05661,-0.00534,-0.02975,-0.05661,-0.01099,-0.00229,-0.01251,-0.01816,-0.0119,-0.00732,-0.0325,-0.02167,0.01022,-0.05005
7.575,-0.00916,-0.04639,-0.06226,-0.01068,-0.03021,-0.06134,-0.00961,-0.00275,-0.01175,-0.0177,-0.01205,-0.00732,-0.03204,-0.01923,0.00916,-0.05051
7.5755,-0.01312,-0.04364,-0.06592,-0.00702,-0.03036,-0.0563,-0.00854,-0.00214,-0.01266,-0.01724,-0.01328,-0.00778,-0.0322,-0.01801,0.00931,-0.04898
7.576,-0.01541,-0.03983,-0.06393,-0.00046,-0.03128,-0.04623,-0.00931,0.00107,-0.01251,-0.01923,-0.01328,-0.009,-0.0322,-0.01923,0.00946,-0.04623
7.5765,-0.0145,-0.03387,-0.06317,0.00168,-0.03342,-0.0351,-0.01114,0.0029,-0.01114,-0.01984,-0.01297,-0.01007,-0.03143,-0.02151,0.00961,-0.04532
7.577,-0.01205,-0.02594,-0.06104,-0.00122,-0.0351,-0.0148,-0.01556,0.00275,-0.01068,-0.01999,-0.01358,-0.01068,-0.03189,-0.02365,0.00824,-0.04593
7.5775,-0.00931,-0.01938,-0.05814,-0.00946,-0.03479,0.00839,-0.02182,0.00198,-0.01328,-0.01907,-0.01572,-0.01068,-0.03296,-0.0235,0.00885,-0.04776
7.578,-0.00763,-0.01465,-0.05356,-0.01999,-0.0354,0.00549,-0.02853,0.00015,-0.01434,-0.01923,-0.01694,-0.01236,-0.0354,-0.02136,0.00916,-0.04776
7.5785,-0.00931,-0.0116,-0.04547,-0.02716,-0.03616,-0.03143,-0.03189,-0.00153,-0.0116,-0.0209,-0.0174,-0.01434,-0.03494,-0.01801,0.01068,-0.04715
7.579,-0.01373,-0.00977,-0.03723,-0.02396,-0.03662,-0.06943,-0.0296,-0.00259,-0.00854,-0.02335,-0.01617,-0.01419,-0.03052,-0.01526,0.01129,-0.04593
7.5795,-0.0174,-0.00961,-0.02975,-0.01236,-0.03418,-0.07523,-0.02441,-0.00259,-0.00778,-0.0238,-0.01465,-0.01129,-0.02609,-0.01389,0.01236,-0.04349
7.58,-0.01938,-0.01099,-0.02167,-0.00061,-0.0293,-0.0563,-0.02045,-0.00381,-0.00885,-0.02258,-0.01328,-0.00854,-0.02533,-0.01419,0.01236,-0.04196
7.5805,-0.01755,-0.01144,-0.01205,0.00717,-0.02563,-0.04257,-0.02014,-0.00412,-0.01144,-0.0206,-0.01358,-0.00763,-0.02548,-0.01541,0.0116,-0.04272
7.581,-0.01007,-0.00824,-0.00336,0.01465,-0.0267,-0.04425,-0.02502,-0.00427,-0.01221,-0.01755,-0.01465,-0.00916,-0.02533,-0.01541,0.01083,-0.04333
7.5815,-0.00046,-0.00366,0.00076,0.02335,-0.02808,-0.04776,-0.03082,-0.0058,-0.01251,-0.01587,-0.01511,-0.00839,-0.02502,-0.01389,0.01083,-0.04196
7.582,0.00443,-0.00244,-0.00107,0.02441,-0.02899,-0.0473,-0.02563,-0.01068,-0.01389,-0.01617,-0.01511,-0.00763,-0.02701,-0.01495,0.01099,-0.04196
7.5825,0.00229,-0.00687,-0.00778,0.01801,-0.02914,-0.0441,-0.00504,-0.0238,-0.01648,-0.01663,-0.0148,-0.00732,-0.03021,-0.01648,0.00931,-0.04318
7.583,-0.00061,-0.01511,-0.01785,0.02304,-0.0293,-0.04425,0.01648,-0.03754,-0.02045,-0.01572,-0.0145,-0.00732,-0.03403,-0.01678,0.00793,-0.04425
7.5835,-0.00137,-0.02472,-0.02609,0.05508,-0.02853,-0.04227,0.01801,-0.03616,-0.02136,-0.01572,-0.01419,-0.00671,-0.03601,-0.01572,0.00732,-0.04395
7.584,0.00046,-0.03265,-0.02747,0.09918,-0.02869,-0.03479,-0.00244,-0.01343,-0.02243,-0.01587,-0.01419,-0.00595,-0.03418,-0.01572,0.00702,-0.04242
7.5845,0.0032,-0.03738,-0.02457,0.12512,-0.03113,-0.02502,-0.02838,0.01495,-0.02365,-0.01572,-0.01358,-0.00702,-0.02975,-0.01663,0.00748,-0.04135
7.585,0.0032,-0.03845,-0.01938,0.11978,-0.03204,-0.02609,-0.04501,0.03159,-0.02533,-0.01572,-0.01221,-0.00824,-0.02548,-0.01831,0.00748,-0.0415
7.5855,0.00122,-0.0383,-0.02121,0.07782,-0.03189,-0.03769,-0.05661,0.03326,-0.02487,-0.01526,-0.01099,-0.00885,-0.02304,-0.01999,0.00946,-0.04333
7.586,-0.00336,-0.03845,-0.02731,-0.00504,-0.02808,-0.04166,-0.07172,0.0267,-0.02151,-0.01648,-0.01083,-0.00885,-0.02335,-0.01999,0.01083,-0.0444
7.5865,-0.00717,-0.0415,-0.03189,-0.11902,-0.02686,-0.02075,-0.09323,0.01617,-0.01801,-0.01526,-0.01205,-0.00931,-0.02426,-0.01862,0.0119,-0.04456
7.587,-0.00809,-0.047,-0.03448,-0.22659,-0.02625,0.01587,-0.1149,0.00626,-0.01617,-0.01343,-0.01282,-0.01022,-0.02533,-0.01755,0.00992,-0.04486
7.5875,-0.00473,-0.05646,-0.03571,-0.28854,-0.02838,0.04303,-0.12009,0.00061,-0.01572,-0.01266,-0.01312,-0.01266,-0.02594,-0.01801,0.00839,-0.04501
7.588,0.0,-0.06912,-0.0383,-0.28336,-0.02975,0.04623,-0.08621,0.00153,-0.01419,-0.01297,-0.0145,-0.01526,-0.02563,-0.01862,0.00687,-0.04517
7.5885,0.00198,-0.08148,-0.04257,-0.21103,-0.03281,0.03494,-0.00732,0.00458,-0.01389,-0.0148,-0.01343,-0.01801,-0.02563,-0.0174,0.00534,-0.04639
7.589,-0.00153,-0.08713,-0.04761,-0.09949,-0.03601,0.01862,0.08072,0.00397,-0.01511,-0.01617,-0.01373,-0.01984,-0.02548,-0.01541,0.00504,-0.04715
7.5895,-0.01007,-0.08163,-0.04868,-0.01694,-0.03922,-0.01114,0.12802,-0.00061,-0.01816,-0.01678,-0.01343,-0.02151,-0.02594,-0.01556,0.00458,-0.04669
7.59,-0.01892,-0.0705,-0.04395,-0.03967,-0.03906,-0.06119,0.12405,-0.00824,-0.02045,-0.01663,-0.01434,-0.02167,-0.0267,-0.01694,0.00626,-0.04593
7.5905,-0.02472,-0.06317,-0.03952,-0.17471,-0.03738,-0.10635,0.10086,-0.01587,-0.02151,-0.01572,-0.01526,-0.01984,-0.02823,-0.01923,0.00595,-0.0444
7.591,-0.02258,-0.0618,-0.03906,-0.34653,-0.0351,-0.12161,0.07965,-0.02075,-0.01892,-0.01541,-0.01373,-0.01846,-0.02899,-0.02045,0.00519,-0.04471
7.5915,-0.01389,-0.06149,-0.0412,-0.45944,-0.03326,-0.12527,0.05127,-0.02243,-0.01678,-0.01556,-0.01144,-0.0177,-0.02853,-0.01938,0.0061,-0.04501
7.592,-0.00443,-0.05676,-0.04288,-0.44601,-0.03387,-0.1474,0.01358,-0.0174,-0.01602,-0.01663,-0.01144,-0.01831,-0.0293,-0.01831,0.00793,-0.04532
7.5925,0.00015,-0.04852,-0.04181,-0.29541,-0.03601,-0.17044,-0.02029,-0.00717,-0.01755,-0.01602,-0.01312,-0.01953,-0.03143,-0.01816,0.00931,-0.04501
7.593,0.00015,-0.03922,-0.04028,-0.07584,-0.03586,-0.15778,-0.04181,0.00397,-0.01923,-0.01633,-0.0148,-0.01923,-0.03159,-0.01923,0.00992,-0.04578
7.5935,0.00137,-0.03296,-0.03784,0.10696,-0.03403,-0.11383,-0.05722,0.0145,-0.01968,-0.01526,-0.01419,-0.01892,-0.03143,-0.02151,0.00916,-0.04654
7.594,0.00458,-0.03159,-0.03494,0.20782,-0.03189,-0.07843,-0.07065,0.02243,-0.01846,-0.01587,-0.01236,-0.01724,-0.03174,-0.02335,0.00732,-0.04547
7.5945,0.00778,-0.03418,-0.03418,0.2562,-0.03159,-0.06836,-0.07446,0.02014,-0.0148,-0.01633,-0.01129,-0.01495,-0.03342,-0.02304,0.00687,-0.04364
7.595,0.0087,-0.03998,-0.03555,0.28687,-0.03189,-0.06546,-0.065,-0.00153,-0.00916,-0.01572,-0.01205,-0.01373,-0.03403,-0.02121,0.00687,-0.0441
7.5955,0.0087,-0.04288,-0.03754,0.28961,-0.03464,-0.05905,-0.05173,-0.03418,-0.0029,-0.01343,-0.01297,-0.01266,-0.03265,-0.0206,0.00793,-0.04562
7.596,0.00839,-0.04013,-0.03769,0.22919,-0.03326,-0.05066,-0.04944,-0.04791,0.00168,-0.01251,-0.01358,-0.01251,-0.03159,-0.02121,0.00702,-0.04715
7.5965,0.00961,-0.03586,-0.03464,0.10132,-0.03159,-0.04272,-0.05478,-0.02411,0.00458,-0.01175,-0.01389,-0.01236,-0.03265,-0.02167,0.0087,-0.04639
7.597,0.01358,-0.03403,-0.03235,-0.02594,-0.02945,-0.03433,-0.05463,0.01495,0.0061,-0.01251,-0.01282,-0.01068,-0.03357,-0.02136,0.00916,-0.04501
7.5975,0.01953,-0.03769,-0.0322,-0.06927,-0.03067,-0.02441,-0.03876,0.03464,0.00519,-0.01434,-0.01236,-0.00885,-0.03311,-0.02075,0.00992,-0.0441
7.598,0.02502,-0.04379,-0.03296,-0.02151,-0.03143,-0.01724,-0.00931,0.02762,0.00168,-0.01404,-0.01251,-0.00687,-0.03189,-0.02045,0.0087,-0.0441
7.5985,0.02731,-0.05096,-0.0322,0.03891,-0.03174,-0.01953,0.02502,0.00916,-0.00732,-0.0119,-0.01266,-0.00549,-0.03296,-0.0206,0.00671,-0.04425
7.599,0.02487,-0.05753,-0.0325,0.03983,-0.03113,-0.02975,0.04318,-0.00748,-0.0177,-0.01099,-0.01312,-0.00305,-0.03479,-0.01999,0.00534,-0.04333
7.5995,0.01633,-0.06348,-0.03296,-0.01343,-0.0322,-0.03708,0.03113,-0.01877,-0.02609,-0.00961,-0.01358,0.00122,-0.03555,-0.01953,0.00656,-0.04196
7.6,0.00076,-0.0676,-0.03403,-0.05936,-0.03296,-0.03403,-0.00122,-0.02533,-0.02686,-0.00809,-0.01389,0.00488,-0.03479,-0.01755,0.00946,-0.03983
7.6005,-0.02029,-0.06989,-0.03494,-0.06393,-0.03433,-0.03159,-0.01495,-0.02548,-0.02075,-0.00748,-0.01205,0.00656,-0.03479,-0.01724,0.01022,-0.03952
7.601,-0.03983,-0.06882,-0.03433,-0.04303,-0.03525,-0.03769,0.01541,-0.01923,-0.01312,-0.00839,-0.01022,0.00778,-0.03555,-0.01831,0.00839,-0.03983
7.6015,-0.04852,-0.06226,-0.03082,-0.02365,-0.03296,-0.04684,0.06042,-0.01114,-0.01038,-0.00977,-0.00809,0.00992,-0.03708,-0.01953,0.00824,-0.04196
7.602,-0.04715,-0.04944,-0.02731,-0.00366,-0.03052,-0.04745,0.06424,-0.00473,-0.01602,-0.00946,-0.00824,0.01221,-0.03723,-0.01923,0.00992,-0.04257
7.6025,-0.04349,-0.03571,-0.02502,0.03708,-0.03006,-0.04349,0.01709,-0.00168,-0.02472,-0.01038,-0.01114,0.01236,-0.03448,-0.01892,0.01038,-0.04242
7.603,-0.04105,-0.02869,-0.02625,0.10635,-0.03143,-0.04181,-0.03983,-0.00397,-0.02762,-0.01205,-0.01236,0.0119,-0.03189,-0.01877,0.00824,-0.04196
7.6035,-0.03616,-0.02731,-0.02975,0.16785,-0.03433,-0.04532,-0.07278,-0.00916,-0.02335,-0.01511,-0.01389,0.01099,-0.03082,-0.01968,0.00732,-0.03998
7.604,-0.02686,-0.02716,-0.03235,0.16891,-0.03403,-0.04776,-0.08133,-0.01251,-0.01984,-0.01556,-0.01404,0.01007,-0.03098,-0.01984,0.00687,-0.03998
7.6045,-0.01266,-0.02747,-0.03708,0.09949,-0.03311,-0.04608,-0.07599,-0.01083,-0.02472,-0.01526,-0.01389,0.009,-0.03143,-0.02029,0.00763,-0.04013
7.605,0.00183,-0.02853,-0.04105,0.02396,-0.0322,-0.04425,-0.05219,-0.00732,-0.03571,-0.01633,-0.01358,0.00946,-0.03082,-0.01984,0.00626,-0.04059
7.6055,0.0119,-0.0325,-0.0444,0.00885,-0.03052,-0.04242,-0.00427,-0.00381,-0.0444,-0.01816,-0.0145,0.01389,-0.03098,-0.01877,0.00519,-0.04105
7.606,0.01724,-0.03845,-0.04288,0.04501,-0.02884,-0.0415,0.05219,-0.00092,-0.04395,-0.02151,-0.01633,0.02182,-0.0322,-0.01801,0.0058,-0.04074
7.6065,0.01923,-0.04608,-0.04166,0.06226,-0.02808,-0.04227,0.0824,0.00259,-0.03769,-0.02289,-0.01801,0.02853,-0.03433,-0.0174,0.00824,-0.04013
7.607,0.01831,-0.05402,-0.04318,0.03372,-0.02792,-0.04379,0.06821,0.00702,-0.03311,-0.02274,-0.01846,0.02716,-0.03754,-0.0174,0.00992,-0.04044
7.6075,0.01587,-0.05875,-0.04669,-0.00366,-0.02655,-0.0444,0.04028,0.01083,-0.03342,-0.02258,-0.01953,0.01678,-0.03891,-0.01846,0.01022,-0.03983
7.608,0.01297,-0.05814,-0.04959,-0.01923,-0.02487,-0.04349,0.03357,0.01144,-0.03494,-0.02472,-0.02121,0.00259,-0.03799,-0.01984,0.00916,-0.0386
7.6085,0.00916,-0.05508,-0.04868,-0.02609,-0.0238,-0.04364,0.04272,0.00641,-0.03403,-0.02609,-0.02304,-0.00885,-0.03693,-0.0209,0.00717,-0.03738
7.609,0.0058,-0.05142,-0.04623,-0.0322,-0.02441,-0.04562,0.03677,-0.00366,-0.02991,-0.02716,-0.02274,-0.0145,-0.03586,-0.02045,0.00534,-0.03815
7.6095,0.00397,-0.04822,-0.04318,-0.02045,-0.02563,-0.04532,0.00946,-0.01236,-0.0264,-0.02762,-0.02014,-0.01556,-0.0351,-0.01968,0.0061,-0.04059
7.61,0.00137,-0.04761,-0.03967,0.00015,-0.02686,-0.04517,-0.0174,-0.0148,-0.02411,-0.02808,-0.01709,-0.01114,-0.0351,-0.01938,0.00549,-0.04227
7.6105,-0.00443,-0.04868,-0.03372,-0.02243,-0.02899,-0.04547,-0.03098,-0.01038,-0.02472,-0.0296,-0.0177,-0.00015,-0.0354,-0.01984,0.00397,-0.04349
7.611,-0.01221,-0.04822,-0.02548,-0.11642,-0.03372,-0.04517,-0.03571,-0.00656,-0.02701,-0.02991,-0.02014,0.01465,-0.03525,-0.02075,0.00153,-0.04364
7.6115,-0.01938,-0.04684,-0.01892,-0.26047,-0.03799,-0.04471,-0.03632,-0.00595,-0.03128,-0.0293,-0.02182,0.02869,-0.0351,-0.0206,0.00107,-0.04471
7.612,-0.02289,-0.04517,-0.01526,-0.42923,-0.03983,-0.04456,-0.03159,-0.00641,-0.03174,-0.02853,-0.02213,0.03815,-0.03494,-0.01984,0.00122,-0.04486
7.6125,-0.02487,-0.04578,-0.01236,-0.59357,-0.04074,-0.04517,-0.02701,-0.00809,-0.0267,-0.02747,-0.02167,0.04288,-0.03464,-0.01999,0.00229,-0.04364
7.613,-0.02609,-0.04654,-0.00885,-0.65109,-0.04105,-0.04562,-0.02319,-0.00809,-0.01801,-0.02701,-0.02029,0.04074,-0.03372,-0.01907,0.00488,-0.0415
7.6135,-0.02655,-0.04623,-0.00626,-0.46021,-0.04013,-0.047,-0.01343,-0.00732,-0.01068,-0.02869,-0.01785,0.03296,-0.03372,-0.0177,0.00626,-0.03967
7.614,-0.02274,-0.04684,-0.00961,-0.00092,-0.03754,-0.04852,0.00137,-0.00717,-0.00732,-0.03113,-0.01633,0.02029,-0.03326,-0.01678,0.00687,-0.04074
7.6145,-0.01526,-0.04868,-0.01892,0.52185,-0.03372,-0.04929,0.00778,-0.00702,-0.00717,-0.0322,-0.01678,0.00656,-0.03296,-0.01694,0.00702,-0.04227
7.615,-0.00885,-0.0502,-0.02823,0.81665,-0.03479,-0.04807,-0.00473,-0.00702,-0.00793,-0.02991,-0.01663,-0.00275,-0.03342,-0.01678,0.00641,-0.04364
7.6155,-0.00809,-0.05066,-0.03204,0.76584,-0.03494,-0.04684,-0.02563,-0.00656,-0.00763,-0.02533,-0.01434,-0.0032,-0.03479,-0.01663,0.00595,-0.0441
7.616,-0.01266,-0.05035,-0.03326,0.51239,-0.0354,-0.04608,-0.03601,-0.00839,-0.00381,-0.02182,-0.01312,0.0032,-0.03632,-0.01663,0.00504,-0.04379
7.6165,-0.01831,-0.05112,-0.03555,0.27023,-0.03448,-0.04791,-0.03662,-0.01297,0.00076,-0.02136,-0.01297,0.01022,-0.03571,-0.01831,0.00443,-0.0415
7.617,-0.01999,-0.05173,-0.0415,0.12024,-0.03357,-0.0502,-0.03983,-0.01846,0.00351,-0.02075,-0.01419,0.01251,-0.03662,-0.0206,0.00519,-0.03998
7.6175,-0.01511,-0.05005,-0.04868,0.02655,-0.03296,-0.05173,-0.05157,-0.02136,0.0061,-0.01953,-0.01526,0.00992,-0.03769,-0.02136,0.00687,-0.03891
7.618,-0.00351,-0.0444,-0.05188,-0.03754,-0.03174,-0.05173,-0.06073,-0.01892,0.009,-0.0174,-0.01556,0.00519,-0.03738,-0.01907,0.00839,-0.03906
7.6185,0.01068,-0.03601,-0.04944,-0.06592,-0.03098,-0.05051,-0.05981,-0.01373,0.01266,-0.01617,-0.01587,0.00061,-0.03479,-0.01816,0.0087,-0.03845
7.619,0.01755,-0.02808,-0.04517,-0.05447,-0.03006,-0.04944,-0.04898,-0.00778,0.01404,-0.01678,-0.01434,0.00122,-0.03265,-0.01877,0.00885,-0.03891
7.6195,0.01099,-0.02457,-0.04593,-0.01373,-0.02884,-0.04807,-0.03616,-0.00259,0.01068,-0.0174,-0.01236,0.01099,-0.03143,-0.01862,0.00931,-0.03845
7.62,-0.00427,-0.02686,-0.05051,0.05295,-0.0296,-0.04745,-0.02899,0.00107,0.00626,-0.01617,-0.01053,0.03159,-0.0322,-0.01663,0.00992,-0.03998
7.6205,-0.01678,-0.03418,-0.05569,0.12604,-0.03036,-0.04776,-0.0267,0.00366,0.00107,-0.01495,-0.00946,0.05264,-0.03265,-0.01419,0.00885,-0.04196
7.621,-0.02243,-0.03998,-0.05753,0.15915,-0.03098,-0.04929,-0.02731,0.00443,-0.00549,-0.01526,-0.01083,0.06424,-0.03189,-0.01419,0.00732,-0.04333
7.6215,-0.0238,-0.04135,-0.05585,0.13107,-0.03052,-0.05005,-0.02869,0.0029,-0.0145,-0.01572,-0.01099,0.06531,-0.03021,-0.01495,0.00626,-0.04425
7.622,-0.02182,-0.03815,-0.05112,0.07919,-0.03128,-0.0502,-0.02838,0.00122,-0.02213,-0.0148,-0.01068,0.06348,-0.03036,-0.01572,0.0061,-0.0444
7.6225,-0.01633,-0.03555,-0.04761,0.04974,-0.03143,-0.04974,-0.0267,0.00061,-0.02457,-0.01205,-0.01007,0.05127,-0.03113,-0.01617,0.00534,-0.0444
7.623,-0.00763,-0.03326,-0.04562,0.04517,-0.03082,-0.04837,-0.02563,0.0,-0.02457,-0.00931,-0.01007,0.01556,-0.03235,-0.0177,0.00519,-0.04486
7.6235,0.00168,-0.02869,-0.03937,0.03632,-0.02991,-0.04807,-0.02563,0.0,-0.02686,-0.00778,-0.01038,-0.04181,-0.03387,-0.01831,0.00519,-0.04562
7.624,0.00885,-0.02319,-0.02335,0.01099,-0.02991,-0.04959,-0.02441,0.00015,-0.03128,-0.00702,-0.01144,-0.09949,-0.03387,-0.01801,0.00473,-0.0444
7.6245,0.01617,-0.02121,-0.00214,-0.02029,-0.03159,-0.05157,-0.02167,0.00137,-0.03403,-0.00717,-0.01251,-0.13733,-0.0322,-0.01846,0.00565,-0.0444
7.625,0.02518,-0.0267,0.01022,-0.04608,-0.03235,-0.05249,-0.01892,0.00244,-0.03403,-0.00763,-0.01419,-0.15549,-0.03052,-0.01785,0.0061,-0.04318
7.6255,0.03403,-0.03525,0.00641,-0.06516,-0.03098,-0.05249,-0.01923,0.00122,-0.03448,-0.00931,-0.01373,-0.17242,-0.02991,-0.01877,0.00687,-0.04135
7.626,0.04028,-0.03723,-0.01312,-0.07462,-0.02884,-0.05249,-0.02213,-0.00137,-0.03845,-0.01007,-0.01266,-0.1976,-0.03113,-0.01968,0.01022,-0.04013
7.6265,0.04059,-0.03204,-0.03021,-0.06897,-0.02899,-0.05096,-0.02487,-0.00412,-0.0412,-0.01022,-0.01205,-0.20767,-0.0322,-0.01892,0.01297,-0.04074
7.627,0.0325,-0.02777,-0.03876,-0.05249,-0.02914,-0.04959,-0.02472,-0.00443,-0.03876,-0.00992,-0.01266,-0.17273,-0.03326,-0.01755,0.01297,-0.03906
7.6275,0.02151,-0.02762,-0.04211,-0.03754,-0.02975,-0.04852,-0.02136,-0.00305,-0.03113,-0.0119,-0.01434,-0.09247,-0.03357,-0.01633,0.01236,-0.03983
7.628,0.01205,-0.03265,-0.04288,-0.03387,-0.03082,-0.0502,-0.01831,-0.0029,-0.02335,-0.01419,-0.0145,-0.00534,-0.03326,-0.01526,0.00824,-0.04303
7.6285,0.009,-0.04333,-0.04135,-0.03433,-0.03128,-0.05096,-0.01846,-0.00504,-0.01846,-0.01572,-0.01602,0.03571,-0.03235,-0.01633,0.00397,-0.04776
7.629,0.0087,-0.05905,-0.03708,-0.02411,-0.03113,-0.05112,-0.01984,-0.00778,-0.01495,-0.01633,-0.01587,0.02151,-0.03159,-0.01694,0.00031,-0.05096
7.6295,0.00763,-0.07523,-0.03159,-0.00656,-0.03235,-0.05035,-0.01984,-0.01068,-0.01251,-0.01602,-0.01617,-0.00458,-0.02945,-0.01831,0.00092,-0.04959
7.63,0.00259,-0.08408,-0.02914,0.00381,-0.03296,-0.0502,-0.01892,-0.0116,-0.0116,-0.01724,-0.01602,0.009,-0.02747,-0.01923,0.0029,-0.04745
7.6305,-0.00748,-0.08514,-0.02975,-0.00549,-0.03189,-0.05081,-0.01831,-0.00992,-0.01221,-0.01999,-0.01587,0.065,-0.02838,-0.01892,0.00214,-0.04669
7.631,-0.0177,-0.07919,-0.03082,-0.02869,-0.03021,-0.05081,-0.01892,-0.00824,-0.01373,-0.02213,-0.01556,0.12283,-0.03067,-0.01846,0.00122,-0.04623
7.6315,-0.02441,-0.06912,-0.02762,-0.05692,-0.02853,-0.04959,-0.01755,-0.00687,-0.01617,-0.02335,-0.01556,0.1445,-0.0325,-0.01785,0.00198,-0.04395
7.632,-0.02792,-0.05585,-0.02411,-0.0882,-0.02808,-0.04868,-0.01526,-0.00458,-0.01953,-0.02441,-0.01541,0.1358,-0.0322,-0.01785,0.00488,-0.04242
7.6325,-0.03159,-0.04227,-0.02213,-0.11581,-0.03006,-0.04837,-0.01297,-0.00198,-0.01923,-0.02487,-0.01511,0.14374,-0.03052,-0.01755,0.00854,-0.04074
7.633,-0.03525,-0.03113,-0.02304,-0.12634,-0.03021,-0.04929,-0.01266,0.00092,-0.01465,-0.02518,-0.01358,0.19638,-0.02853,-0.01602,0.01022,-0.03937
7.6335,-0.03738,-0.02472,-0.0264,-0.11154,-0.03006,-0.04837,-0.01312,0.00259,-0.00778,-0.02457,-0.01297,0.24353,-0.02914,-0.0148,0.01068,-0.03738
7.634,-0.03616,-0.02075,-0.03036,-0.07706,-0.0296,-0.0473,-0.0145,0.0029,-0.00549,-0.02518,-0.01343,0.21637,-0.03067,-0.01526,0.01083,-0.03632
7.6345,-0.0325,-0.01862,-0.03265,-0.03098,-0.02945,-0.04623,-0.01617,0.00259,-0.00534,-0.02655,-0.01297,0.13214,-0.03052,-0.01709,0.00916,-0.03693
7.635,-0.02762,-0.01709,-0.03326,0.01724,-0.02899,-0.04578,-0.01663,0.00214,-0.00549,-0.02792,-0.01236,0.07462,-0.03021,-0.01816,0.00763,-0.0383
7.6355,-0.02182,-0.01831,-0.0354,0.05798,-0.0293,-0.04623,-0.01587,0.00214,-0.00458,-0.02716,-0.01144,0.06638,-0.02914,-0.01816,0.00473,-0.03937
7.636,-0.01404,-0.02335,-0.04303,0.08102,-0.03159,-0.04623,-0.01434,0.00305,-0.00458,-0.02747,-0.01251,0.05219,-0.02853,-0.01862,0.0029,-0.0412
7.6365,-0.00443,-0.02808,-0.05371,0.08301,-0.0322,-0.04593,-0.01328,0.0029,-0.00443,-0.02838,-0.01312,0.00259,-0.02792,-0.01938,0.00015,-0.04211
7.637,0.00153,-0.03067,-0.0592,0.06973,-0.03265,-0.04578,-0.01221,0.00122,-0.00397,-0.02716,-0.01266,-0.04822,-0.02823,-0.02029,-0.00092,-0.04288
7.6375,0.00259,-0.03036,-0.05844,0.04776,-0.03235,-0.04578,-0.01175,-0.00183,-0.0029,-0.02518,-0.01099,-0.07141,-0.02853,-0.02045,-0.00107,-0.04227
7.638,0.00031,-0.03189,-0.05493,0.02502,-0.03326,-0.04562,-0.01205,-0.00504,-0.00031,-0.02289,-0.01205,-0.07828,-0.02853,-0.02167,0.00275,-0.04211
7.6385,-0.00259,-0.03403,-0.05249,0.00763,-0.03403,-0.04654,-0.0119,-0.0058,0.00214,-0.02274,-0.01312,-0.07675,-0.02777,-0.02289,0.00488,-0.04288
7.639,-0.00504,-0.03571,-0.04913,-0.0029,-0.03464,-0.04623,-0.01175,-0.00549,0.00305,-0.02319,-0.01419,-0.05768,-0.02777,-0.02167,0.00443,-0.04532
7.6395,-0.00793,-0.03494,-0.04395,-0.00931,-0.03342,-0.04593,-0.01251,-0.00458,0.00259,-0.0235,-0.01404,-0.02319,-0.02838,-0.01923,0.00214,-0.047
7.64,-0.00946,-0.03403,-0.03754,-0.01312,-0.0322,-0.04501,-0.01282,-0.0058,0.00076,-0.02319,-0.01266,0.00931,-0.02914,-0.01816,-0.00137,-0.0473
7.6405,-0.00946,-0.0383,-0.03113,-0.01358,-0.03082,-0.04578,-0.01251,-0.0087,0.00031,-0.02045,-0.01175,0.03021,-0.02991,-0.01801,-0.00336,-0.04776
7.641,-0.00595,-0.04501,-0.02762,-0.009,-0.03098,-0.04623,-0.01312,-0.01129,0.00122,-0.01816,-0.01175,0.03754,-0.03082,-0.01907,-0.00412,-0.04776
7.6415,-0.00198,-0.05066,-0.02747,-0.00168,-0.02991,-0.04654,-0.01282,-0.0116,0.00198,-0.01678,-0.01083,0.03113,-0.03128,-0.01968,-0.00092,-0.04684
7.642,0.00244,-0.04959,-0.02792,-0.00305,-0.03067,-0.047,-0.0119,-0.00946,0.00137,-0.01694,-0.00961,0.00732,-0.03082,-0.02014,0.00198,-0.04471
7.6425,0.00366,-0.04364,-0.02869,-0.02197,-0.03265,-0.04852,-0.01251,-0.00641,-0.00122,-0.01709,-0.00961,-0.0322,-0.03082,-0.02151,0.00168,-0.04425
7.643,0.00153,-0.03616,-0.03082,-0.03235,-0.03281,-0.04929,-0.01175,-0.00412,-0.00305,-0.01663,-0.01022,-0.07751,-0.03067,-0.02274,-0.00031,-0.04379
7.6435,-0.00244,-0.02991,-0.03586,0.00351,-0.03113,-0.04929,-0.0119,-0.00381,-0.00427,-0.01678,-0.01129,-0.11093,-0.03189,-0.02243,-0.00244,-0.04242
7.644,-0.00427,-0.02701,-0.04456,0.06485,-0.02899,-0.05005,-0.0119,-0.00397,-0.00732,-0.01678,-0.01205,-0.11597,-0.03265,-0.02213,-0.0029,-0.04242
7.6445,-0.00259,-0.02609,-0.05707,0.06836,-0.03006,-0.05005,-0.0119,-0.00336,-0.01236,-0.01663,-0.01205,-0.09247,-0.03296,-0.02075,-0.0029,-0.04486
7.645,-0.00244,-0.02487,-0.06989,-0.01785,-0.03143,-0.05005,-0.01251,-0.00198,-0.01831,-0.01587,-0.01328,-0.06287,-0.03265,-0.0209,-0.0032,-0.04486
7.6455,-0.00565,-0.02228,-0.08224,-0.11444,-0.03143,-0.04898,-0.01373,-0.00168,-0.02411,-0.01541,-0.01434,-0.05386,-0.03204,-0.02274,-0.00122,-0.04333
7.646,-0.00778,-0.01907,-0.09094,-0.12695,-0.03143,-0.04883,-0.01328,-0.00183,-0.02747,-0.01511,-0.01419,-0.07401,-0.0325,-0.02365,0.0,-0.04623
7.6465,-0.00458,-0.01572,-0.09247,-0.06165,-0.03204,-0.0499,-0.0116,-0.00244,-0.0322,-0.0148,-0.01205,-0.09995,-0.0325,-0.02136,-0.00168,-0.0444
7.647,0.00229,-0.01328,-0.08331,-0.00824,-0.03433,-0.0502,-0.01175,-0.00275,-0.03784,-0.01419,-0.01083,-0.09888,-0.03326,-0.01801,-0.00107,-0.04684
7.6475,0.00793,-0.01495,-0.06363,-0.02823,-0.03525,-0.05005,-0.01328,-0.00412,-0.0415,-0.01526,-0.01236,-0.06256,-0.03357,-0.01755,0.00031,-0.0473
7.648,0.01083,-0.02106,-0.03601,-0.09476,-0.03479,-0.04898,-0.01434,-0.00839,-0.0415,-0.01541,-0.01526,-0.02121,-0.03235,-0.01785,0.00244,-0.04608
7.6485,0.00839,-0.03204,-0.00412,-0.14572,-0.03342,-0.04684,-0.01572,-0.0119,-0.03845,-0.01663,-0.01633,-0.00504,-0.03082,-0.01816,0.00351,-0.04486
7.649,0.00015,-0.0412,0.02701,-0.15656,-0.03265,-0.04639,-0.01617,-0.01495,-0.03387,-0.01389,-0.01648,-0.00488,-0.02914,-0.01801,0.00366,-0.04364
7.6495,-0.01678,-0.0444,0.04395,-0.14877,-0.03326,-0.047,-0.0148,-0.01495,-0.02914,-0.00854,-0.01633,0.00351,-0.02899,-0.01755,0.00443,-0.04379
7.65,-0.03387,-0.04379,0.04059,-0.14114,-0.03265,-0.04776,-0.01266,-0.01175,-0.0235,-0.00473,-0.01617,0.01801,-0.02945,-0.01724,0.00595,-0.04333
7.6505,-0.0412,-0.0441,0.01938,-0.12131,-0.0322,-0.04807,-0.0116,-0.01007,-0.01495,-0.00366,-0.0148,0.02182,-0.02991,-0.01785,0.00946,-0.04166
7.651,-0.03662,-0.04761,-0.00336,-0.07233,-0.0325,-0.04822,-0.01358,-0.00977,-0.00473,-0.0058,-0.01343,0.00916,-0.03082,-0.01816,0.00977,-0.03815
7.6515,-0.02518,-0.05051,-0.01633,-0.00549,-0.03372,-0.04852,-0.01343,-0.00809,0.00229,-0.0087,-0.01389,-0.01648,-0.03098,-0.01801,0.00946,-0.0354
7.652,-0.01648,-0.04929,-0.02136,0.03906,-0.03723,-0.04959,-0.0119,-0.0029,0.00427,-0.01007,-0.01526,-0.05417,-0.0293,-0.01663,0.00885,-0.03479
7.6525,-0.01587,-0.0441,-0.0206,0.03876,-0.03723,-0.05081,-0.00992,0.00488,0.00198,-0.01114,-0.01526,-0.09171,-0.02853,-0.01556,0.00946,-0.03601
7.653,-0.02167,-0.03906,-0.01892,0.01434,-0.03708,-0.05203,-0.00626,0.01144,-0.00092,-0.0119,-0.01419,-0.10193,-0.02823,-0.01633,0.01129,-0.03662
7.6535,-0.02762,-0.03632,-0.01465,0.00183,-0.03616,-0.05402,-0.00656,0.01373,-0.00351,-0.01236,-0.01343,-0.07233,-0.02945,-0.01846,0.01114,-0.03677
7.654,-0.02594,-0.03464,-0.00946,0.00565,-0.03418,-0.05386,-0.0087,0.00946,-0.00534,-0.01404,-0.01404,-0.03769,-0.03098,-0.01938,0.01053,-0.03677
7.6545,-0.01785,-0.03265,-0.01038,0.00397,-0.03143,-0.05188,-0.01312,0.00244,-0.01038,-0.01709,-0.01572,-0.03494,-0.03174,-0.01801,0.01175,-0.03891
7.655,-0.0087,-0.03159,-0.01755,-0.01678,-0.02884,-0.04944,-0.01831,-0.00366,-0.01724,-0.01892,-0.01724,-0.05859,-0.0322,-0.01663,0.01373,-0.04105
7.6555,-0.00473,-0.03189,-0.02548,-0.05264,-0.02808,-0.04791,-0.01968,-0.00748,-0.02411,-0.01968,-0.01648,-0.06821,-0.03342,-0.01648,0.01343,-0.04028
7.656,-0.00336,-0.03555,-0.02487,-0.07919,-0.02899,-0.04715,-0.01938,-0.0087,-0.02975,-0.02213,-0.01465,-0.05112,-0.03418,-0.01587,0.01038,-0.03922
7.6565,-0.00015,-0.04196,-0.02029,-0.06973,-0.02975,-0.047,-0.01877,-0.00931,-0.02899,-0.02533,-0.01312,-0.02762,-0.03342,-0.01465,0.009,-0.04028
7.657,0.00381,-0.05051,-0.0177,-0.03021,-0.03143,-0.04532,-0.01953,-0.00793,-0.02121,-0.02899,-0.01389,-0.01389,-0.03204,-0.01465,0.00992,-0.04181
7.6575,0.00641,-0.0592,-0.02289,-0.00732,-0.03174,-0.04242,-0.01953,-0.00519,-0.01007,-0.03311,-0.01495,0.00671,-0.03174,-0.01617,0.01251,-0.04074
7.658,0.00519,-0.06699,-0.03159,-0.03708,-0.0325,-0.04028,-0.01678,-0.00244,-0.00458,-0.03601,-0.01709,0.06287,-0.03189,-0.01816,0.01617,-0.03967
7.6585,0.00366,-0.07492,-0.04242,-0.09659,-0.03311,-0.03845,-0.0145,0.00076,-0.00824,-0.03708,-0.01907,0.14282,-0.0322,-0.01984,0.01816,-0.03677
7.659,0.00214,-0.08255,-0.05081,-0.13748,-0.03403,-0.03738,-0.0116,0.00381,-0.01724,-0.03403,-0.01907,0.18814,-0.03296,-0.01984,0.01984,-0.03708
7.6595,0.00168,-0.0882,-0.05524,-0.14496,-0.03525,-0.0386,-0.00946,0.00778,-0.02548,-0.03296,-0.01755,0.14694,-0.0325,-0.01816,0.01923,-0.03952
7.66,0.00473,-0.08774,-0.05371,-0.12466,-0.03571,-0.04288,-0.00809,0.01068,-0.03036,-0.03021,-0.01526,0.03922,-0.03464,-0.01785,0.01678,-0.04059
7.6605,0.00793,-0.08072,-0.04868,-0.03677,-0.03586,-0.04654,-0.00885,0.00977,-0.03036,-0.02762,-0.0148,-0.0441,-0.03555,-0.01923,0.0148,-0.04105
7.661,0.01038,-0.06836,-0.0441,0.15366,-0.03387,-0.04715,-0.01175,0.00595,-0.02548,-0.02487,-0.01419,-0.03906,-0.0354,-0.01938,0.01587,-0.04044
7.6615,0.01129,-0.056,-0.04166,0.34927,-0.0325,-0.04578,-0.01465,0.00214,-0.01877,-0.02228,-0.01434,0.03082,-0.03616,-0.01862,0.01678,-0.04013
7.662,0.00931,-0.04547,-0.04059,0.3862,-0.03326,-0.04456,-0.01755,-0.00076,-0.01877,-0.02045,-0.01343,0.09064,-0.03632,-0.01755,0.01434,-0.04196
7.6625,0.00427,-0.03998,-0.04211,0.25558,-0.03372,-0.04501,-0.01999,-0.00458,-0.02472,-0.01801,-0.01205,0.10178,-0.03616,-0.01801,0.01129,-0.04379
7.663,-0.00381,-0.03708,-0.047,0.11871,-0.03387,-0.04669,-0.02106,-0.00748,-0.03098,-0.01511,-0.01221,0.08484,-0.03571,-0.01953,0.01053,-0.04639
7.6635,-0.01511,-0.03662,-0.0528,0.08316,-0.03372,-0.04684,-0.02029,-0.0087,-0.0322,-0.01343,-0.01312,0.07858,-0.03525,-0.02075,0.01251,-0.04761
7.664,-0.0264,-0.03906,-0.056,0.09094,-0.03387,-0.047,-0.01694,-0.00778,-0.02975,-0.01328,-0.01312,0.09232,-0.03571,-0.02014,0.01511,-0.04761
7.6645,-0.03159,-0.04242,-0.05768,0.05798,-0.03357,-0.04791,-0.01175,-0.00641,-0.02426,-0.01511,-0.01266,0.0943,-0.03586,-0.01923,0.01572,-0.04395
7.665,-0.02731,-0.04501,-0.05951,-0.00275,-0.0325,-0.04761,-0.00793,-0.00488,-0.01831,-0.01663,-0.01312,0.04959,-0.0351,-0.01846,0.01541,-0.04196
7.6655,-0.01495,-0.04486,-0.06088,-0.03357,-0.03296,-0.04745,-0.00763,-0.00366,-0.01221,-0.01984,-0.0145,-0.02182,-0.03448,-0.01923,0.01419,-0.04089
7.666,-0.00259,-0.0412,-0.05722,-0.02533,-0.03326,-0.04669,-0.01068,-0.00336,-0.00946,-0.02274,-0.01572,-0.04776,-0.03403,-0.0209,0.01373,-0.0412
7.6665,0.00305,-0.03723,-0.04944,-0.00687,-0.03296,-0.04715,-0.01404,-0.0061,-0.01083,-0.02472,-0.01419,0.01053,-0.03464,-0.02228,0.01312,-0.04333
7.667,0.00427,-0.03433,-0.03891,0.00381,-0.03311,-0.04761,-0.01694,-0.00748,-0.01434,-0.02335,-0.0116,0.10086,-0.03525,-0.02167,0.01221,-0.0441
7.6675,0.00565,-0.03159,-0.03006,0.00565,-0.03143,-0.04913,-0.01587,-0.0058,-0.01801,-0.02014,-0.01068,0.14053,-0.03494,-0.0209,0.01312,-0.0441
7.668,0.00702,-0.02838,-0.02106,-0.00366,-0.03082,-0.0502,-0.0119,-0.00214,-0.01984,-0.01801,-0.01266,0.11169,-0.03571,-0.02106,0.01556,-0.04196
7.6685,0.00687,-0.02686,-0.01343,-0.0206,-0.03036,-0.05081,-0.00809,0.00198,-0.02106,-0.01877,-0.01389,0.0528,-0.03754,-0.01907,0.01556,-0.03937
7.669,0.00443,-0.02838,-0.01694,-0.02808,-0.03052,-0.05112,-0.00763,0.00397,-0.01938,-0.0209,-0.01495,-0.01053,-0.0386,-0.0177,0.01587,-0.03784
7.6695,0.00168,-0.03235,-0.0386,-0.01099,-0.03204,-0.05112,-0.00946,0.00397,-0.01389,-0.02121,-0.01541,-0.06927,-0.03723,-0.01587,0.01526,-0.03784
7.67,-0.00107,-0.03601,-0.06714,0.01205,-0.03265,-0.04974,-0.01083,0.00244,-0.00763,-0.02014,-0.01617,-0.10345,-0.0351,-0.01617,0.01602,-0.03738
7.6705,-0.00351,-0.03601,-0.08881,0.00641,-0.03342,-0.04883,-0.01083,-0.00046,-0.00366,-0.0177,-0.01694,-0.10345,-0.03448,-0.01724,0.01816,-0.03723
7.671,-0.00778,-0.03357,-0.0975,-0.02884,-0.03159,-0.0499,-0.01022,-0.00366,-0.00381,-0.01755,-0.01358,-0.09521,-0.03448,-0.01892,0.01907,-0.03616
7.6715,-0.01297,-0.03342,-0.09872,-0.05646,-0.02869,-0.05051,-0.01053,-0.00656,-0.00473,-0.01862,-0.01144,-0.10193,-0.03555,-0.02045,0.0206,-0.03525
7.672,-0.01694,-0.03784,-0.09445,-0.04486,-0.02838,-0.05035,-0.01266,-0.00809,-0.00488,-0.01907,-0.01114,-0.10162,-0.03647,-0.02106,0.02228,-0.03494
7.6725,-0.01633,-0.04257,-0.08575,-0.00793,-0.03021,-0.05157,-0.01404,-0.01022,-0.0029,-0.01999,-0.0119,-0.05966,-0.03601,-0.02029,0.02396,-0.03479
7.673,-0.00946,-0.04303,-0.07339,0.01938,-0.03189,-0.05005,-0.01389,-0.009,0.00015,-0.01953,-0.01205,0.01877,-0.03632,-0.01999,0.02197,-0.03525
7.6735,0.0,-0.04044,-0.0621,0.01984,-0.03098,-0.04929,-0.01328,-0.00504,0.00473,-0.0177,-0.01175,0.08621,-0.03754,-0.02136,0.01862,-0.03708
7.674,0.00534,-0.04044,-0.05478,0.00473,-0.03113,-0.05035,-0.01343,-0.00153,0.00793,-0.01648,-0.0119,0.09964,-0.03922,-0.02182,0.01617,-0.03952
7.6745,0.00504,-0.04333,-0.04623,-0.01663,-0.02899,-0.05219,-0.01495,-0.00092,0.00931,-0.01495,-0.01205,0.06165,-0.03998,-0.02075,0.01526,-0.04288
7.675,0.00198,-0.04333,-0.03189,-0.04425,-0.02792,-0.05188,-0.01495,-0.00259,0.00854,-0.01602,-0.01343,0.01709,-0.03845,-0.01862,0.01526,-0.04517
7.6755,-0.00244,-0.04059,-0.01083,-0.06866,-0.02869,-0.05005,-0.01297,-0.00183,0.00763,-0.01709,-0.01511,0.00824,-0.03693,-0.0177,0.0148,-0.04486
7.676,-0.00656,-0.03708,0.01648,-0.07141,-0.02884,-0.04684,-0.00916,0.00015,0.00488,-0.02136,-0.01633,0.03937,-0.03723,-0.01831,0.01404,-0.04562
7.6765,-0.00732,-0.0386,0.04868,-0.05142,-0.02823,-0.04639,-0.00412,0.00092,-0.00107,-0.02579,-0.01801,0.07401,-0.03876,-0.01907,0.01465,-0.04547
7.677,-0.00381,-0.04501,0.08072,-0.02502,-0.0293,-0.04654,-0.00229,-0.00443,-0.01053,-0.02991,-0.02075,0.06989,-0.03906,-0.01862,0.0145,-0.04547
7.6775,0.00122,-0.05325,0.09308,-0.00427,-0.02808,-0.04745,-0.00504,-0.01389,-0.01968,-0.03372,-0.02045,0.0119,-0.03815,-0.01862,0.01465,-0.04715
7.678,0.00076,-0.06042,0.07019,0.009,-0.02853,-0.04776,-0.01251,-0.02075,-0.02563,-0.03677,-0.02182,-0.06546,-0.0386,-0.01953,0.01282,-0.04868
7.6785,-0.00397,-0.0621,0.02701,0.01297,-0.03128,-0.04868,-0.01801,-0.02151,-0.02701,-0.03967,-0.02075,-0.10864,-0.04074,-0.02014,0.01053,-0.04929
7.679,-0.00427,-0.06149,-0.00549,-0.00229,-0.03265,-0.0499,-0.01953,-0.01846,-0.02472,-0.03876,-0.02029,-0.10223,-0.04105,-0.02045,0.01038,-0.04837
7.6795,0.00427,-0.06012,-0.01312,-0.03632,-0.03128,-0.04929,-0.01556,-0.01495,-0.0209,-0.0351,-0.01831,-0.07736,-0.03769,-0.01968,0.01312,-0.04761
7.68,0.01404,-0.05615,-0.009,-0.08224,-0.02914,-0.04562,-0.01282,-0.01328,-0.01892,-0.03021,-0.01663,-0.06577,-0.03418,-0.01938,0.01572,-0.04517
7.6805,0.01221,-0.04608,-0.00885,-0.13275,-0.02853,-0.0444,-0.01312,-0.01083,-0.0206,-0.02731,-0.01556,-0.06516,-0.03204,-0.02045,0.01587,-0.0444
7.681,0.0,-0.03021,-0.01282,-0.17807,-0.02899,-0.04517,-0.01572,-0.009,-0.02716,-0.02457,-0.0148,-0.05966,-0.03235,-0.01953,0.01526,-0.04333
7.6815,-0.00992,-0.01526,-0.01602,-0.19745,-0.03021,-0.04593,-0.01709,-0.00885,-0.03586,-0.02151,-0.01434,-0.04868,-0.0322,-0.01892,0.01526,-0.04059
7.682,-0.009,-0.00366,-0.01968,-0.15915,-0.03098,-0.04578,-0.01785,-0.01068,-0.04303,-0.01816,-0.01434,-0.02777,-0.03159,-0.01938,0.01724,-0.03754
7.6825,-0.00198,0.00153,-0.02792,-0.06851,-0.02975,-0.04456,-0.02014,-0.01022,-0.04578,-0.01602,-0.0145,0.02457,-0.0322,-0.02029,0.01907,-0.0354
7.683,0.00107,0.00229,-0.04135,0.00916,-0.02899,-0.04456,-0.02167,-0.00824,-0.04562,-0.01434,-0.01541,0.10559,-0.03372,-0.02106,0.01892,-0.0354
7.6835,-0.00443,-0.00107,-0.05508,0.01328,-0.02777,-0.04547,-0.02121,-0.00763,-0.04318,-0.01312,-0.0145,0.15228,-0.03525,-0.02121,0.02029,-0.03601
7.684,-0.0145,-0.01175,-0.06577,-0.04028,-0.02731,-0.04639,-0.02014,-0.00992,-0.04059,-0.01266,-0.01266,0.10056,-0.03494,-0.02106,0.01892,-0.0383
7.6845,-0.0209,-0.03235,-0.07156,-0.08331,-0.02853,-0.04669,-0.01999,-0.01022,-0.03952,-0.01129,-0.01053,-0.02518,-0.03448,-0.02121,0.01678,-0.04105
7.685,-0.01892,-0.05356,-0.0708,-0.07401,-0.0296,-0.04654,-0.01968,-0.00748,-0.03922,-0.00916,-0.00961,-0.12924,-0.03403,-0.02151,0.0145,-0.04227
7.6855,-0.00854,-0.06607,-0.06409,-0.02686,-0.03113,-0.04776,-0.01938,-0.0032,-0.03708,-0.00519,-0.01007,-0.15961,-0.03372,-0.02167,0.01236,-0.04242
7.686,0.00214,-0.06393,-0.04974,0.02045,-0.0325,-0.04852,-0.01785,-0.00168,-0.0351,-0.00488,-0.01053,-0.1506,-0.03448,-0.02243,0.01144,-0.04288
7.6865,0.00916,-0.05539,-0.03403,0.04959,-0.03403,-0.04883,-0.01633,-0.00015,-0.03296,-0.00656,-0.0119,-0.15549,-0.03632,-0.02213,0.01236,-0.04288
7.687,0.00519,-0.04654,-0.01694,0.06531,-0.03586,-0.04944,-0.01541,0.00092,-0.03006,-0.00824,-0.01312,-0.16327,-0.0383,-0.02335,0.01312,-0.04288
7.6875,-0.00885,-0.03952,-0.00656,0.07156,-0.03265,-0.04913,-0.01526,0.00381,-0.02609,-0.00717,-0.01312,-0.12985,-0.03937,-0.0238,0.01175,-0.04349
7.688,-0.02579,-0.03525,-0.00305,0.06424,-0.03036,-0.04913,-0.01587,0.0029,-0.02243,-0.00595,-0.01266,-0.05173,-0.04028,-0.0238,0.009,-0.04639
7.6885,-0.03403,-0.0322,-0.00626,0.03784,-0.03021,-0.04868,-0.01633,0.0,-0.01862,-0.00778,-0.01389,0.01144,-0.03983,-0.02197,0.00732,-0.04852
7.689,-0.03067,-0.02991,-0.01709,-0.00839,-0.03143,-0.04791,-0.01678,-0.00259,-0.01556,-0.01144,-0.01434,0.00381,-0.03876,-0.01968,0.00717,-0.04852
7.6895,-0.02182,-0.02853,-0.0293,-0.05844,-0.0325,-0.04745,-0.01602,-0.0032,-0.0119,-0.01556,-0.01434,-0.05386,-0.03784,-0.01968,0.00778,-0.04654
7.69,-0.01755,-0.02884,-0.04211,-0.09613,-0.03189,-0.04684,-0.01389,-0.00351,-0.00839,-0.01801,-0.01312,-0.08163,-0.03876,-0.02014,0.00732,-0.04517
7.6905,-0.01755,-0.0322,-0.05157,-0.11429,-0.03128,-0.0473,-0.01373,-0.00549,-0.0058,-0.01968,-0.01495,-0.03265,-0.03891,-0.01923,0.0061,-0.04379
7.691,-0.01602,-0.03464,-0.05615,-0.13092,-0.03098,-0.04761,-0.01556,-0.00885,-0.00351,-0.02121,-0.01892,0.04929,-0.03876,-0.01694,0.00732,-0.04456
7.6915,-0.009,-0.03418,-0.05539,-0.16617,-0.03281,-0.04822,-0.01877,-0.0148,-0.00137,-0.02289,-0.02106,0.09399,-0.0386,-0.01816,0.00671,-0.0441
7.692,-0.00168,-0.03082,-0.05051,-0.22247,-0.03433,-0.04669,-0.02228,-0.01907,0.00031,-0.02365,-0.01984,0.08514,-0.03967,-0.02121,0.00687,-0.04395
7.6925,0.00076,-0.02609,-0.04608,-0.2829,-0.03494,-0.047,-0.02289,-0.01801,0.00244,-0.0238,-0.01709,0.05753,-0.03906,-0.02182,0.00854,-0.04517
7.693,-0.00122,-0.02487,-0.04379,-0.31021,-0.03464,-0.04868,-0.02029,-0.01312,0.0029,-0.02213,-0.01511,0.03677,-0.03799,-0.01923,0.0087,-0.04562
7.6935,-0.00229,-0.02731,-0.04181,-0.24155,-0.03387,-0.04745,-0.01648,-0.00809,0.00122,-0.0209,-0.01389,0.02213,-0.03479,-0.01709,0.00885,-0.04593
7.694,-0.00015,-0.03082,-0.04105,-0.03784,-0.0325,-0.04684,-0.01373,-0.00443,-0.00092,-0.01984,-0.01373,0.00763,-0.03311,-0.01678,0.00793,-0.04501
7.6945,0.00351,-0.03372,-0.04089,0.2153,-0.03387,-0.04562,-0.0116,-0.00107,-0.00397,-0.01831,-0.01389,-0.00549,-0.03357,-0.01785,0.00717,-0.04425
7.695,0.00381,-0.03677,-0.04089,0.33936,-0.0354,-0.0473,-0.01175,0.00107,-0.009,-0.01892,-0.01434,-0.00183,-0.03433,-0.0174,0.00824,-0.04349
7.6955,0.00137,-0.04105,-0.04517,0.2507,-0.03647,-0.04913,-0.01389,0.00183,-0.01602,-0.01953,-0.01389,0.02899,-0.0351,-0.01572,0.01114,-0.04318
7.696,-0.00092,-0.04669,-0.05264,0.06699,-0.03433,-0.04929,-0.01617,0.00122,-0.02213,-0.01923,-0.0145,0.07416,-0.03433,-0.01541,0.0119,-0.04318
7.6965,-0.00076,-0.05112,-0.05325,-0.03922,-0.03128,-0.04776,-0.01785,0.00275,-0.02487,-0.01923,-0.01328,0.10818,-0.03403,-0.01648,0.00931,-0.04456
7.697,0.00198,-0.0528,-0.05524,-0.03448,-0.03052,-0.04715,-0.01648,0.0029,-0.02289,-0.01663,-0.01221,0.12131,-0.03525,-0.0174,0.00565,-0.04623
7.6975,0.00458,-0.05539,-0.05707,-0.00137,-0.03204,-0.0473,-0.01541,0.00458,-0.01877,-0.01495,-0.0116,0.11581,-0.03632,-0.01831,0.00427,-0.04639
7.698,0.00397,-0.06165,-0.05676,-0.00137,-0.03403,-0.04913,-0.01358,0.00534,-0.01465,-0.01419,-0.01068,0.0885,-0.0354,-0.01877,0.00305,-0.04517
7.6985,0.00061,-0.07095,-0.0621,-0.0206,-0.03571,-0.0502,-0.01236,0.00626,-0.0119,-0.01343,-0.01068,0.04196,-0.03403,-0.01923,0.00427,-0.04532
7.699,-0.00534,-0.07507,-0.0647,-0.0267,-0.03555,-0.05005,-0.01144,0.0058,-0.01114,-0.01389,-0.00946,-0.00122,-0.03387,-0.0174,0.00687,-0.04379
7.6995,-0.00977,-0.06882,-0.06485,-0.01938,-0.03326,-0.04974,-0.01022,0.00549,-0.01007,-0.01389,-0.00992,-0.01923,-0.03418,-0.01541,0.00717,-0.04211
7.7,-0.01038,-0.05737,-0.06195,-0.01526,-0.03006,-0.04913,-0.01114,0.00412,-0.00809,-0.01526,-0.01114,-0.00641,-0.03296,-0.01404,0.00687,-0.04059
7.7005,-0.00565,-0.05127,-0.05829,-0.01587,-0.02899,-0.04868,-0.01266,0.00229,-0.00656,-0.01694,-0.01251,0.02106,-0.03189,-0.01526,0.00641,-0.04135
7.701,-0.00015,-0.05112,-0.05554,-0.00427,-0.02975,-0.04883,-0.01312,0.00259,-0.00519,-0.0174,-0.01129,0.04837,-0.03021,-0.01633,0.00626,-0.04333
7.7015,0.00229,-0.05112,-0.05157,0.02792,-0.03174,-0.04745,-0.01251,0.00427,-0.00534,-0.0174,-0.01022,0.07202,-0.03021,-0.01678,0.00565,-0.04486
7.702,0.00244,-0.04837,-0.03998,0.0618,-0.0322,-0.04562,-0.0119,0.00565,-0.00732,-0.01678,-0.01236,0.08972,-0.03036,-0.01785,0.00565,-0.04517
7.7025,0.00061,-0.04562,-0.01892,0.06882,-0.03098,-0.04532,-0.01221,0.00443,-0.00977,-0.01709,-0.0148,0.08698,-0.03036,-0.01831,0.00305,-0.0444
7.703,-0.0029,-0.04349,0.00168,0.0415,-0.03036,-0.0444,-0.01221,0.00198,-0.01129,-0.01678,-0.01434,0.05203,-0.03082,-0.01968,0.00427,-0.04364
7.7035,-0.00839,-0.04105,0.00641,0.00122,-0.03021,-0.04517,-0.01144,0.0,-0.01022,-0.01617,-0.0116,0.00443,-0.03113,-0.02029,0.00687,-0.04272
7.704,-0.01617,-0.03662,-0.00092,-0.02182,-0.03082,-0.04745,-0.01144,-0.00244,-0.00916,-0.01572,-0.01114,-0.01358,-0.03204,-0.02014,0.0087,-0.04028
7.7045,-0.0238,-0.03372,-0.00687,-0.02228,-0.03174,-0.04776,-0.01419,-0.00732,-0.01022,-0.01556,-0.01251,0.01083,-0.03296,-0.01968,0.00977,-0.03906
7.705,-0.02731,-0.03265,-0.00824,-0.01266,-0.0325,-0.0473,-0.01633,-0.01312,-0.01236,-0.01831,-0.0148,0.04227,-0.03403,-0.01953,0.00977,-0.03845
7.7055,-0.02396,-0.03357,-0.00824,-0.00656,-0.03403,-0.047,-0.01602,-0.01419,-0.01205,-0.01907,-0.01602,0.04715,-0.03418,-0.01923,0.009,-0.0383
7.706,-0.01678,-0.0322,-0.01846,-0.0087,-0.03479,-0.047,-0.01511,-0.01038,-0.01251,-0.0174,-0.01526,0.0383,-0.03342,-0.01831,0.00778,-0.03891
7.7065,-0.00992,-0.0296,-0.02945,-0.01541,-0.03372,-0.04745,-0.01312,-0.00351,-0.01343,-0.01572,-0.01389,0.04608,-0.03281,-0.01694,0.00641,-0.0383
7.707,-0.0058,-0.03006,-0.03586,-0.02396,-0.03143,-0.04868,-0.00961,0.00183,-0.01495,-0.01602,-0.01343,0.06058,-0.03311,-0.01648,0.0058,-0.0383
7.7075,-0.0029,-0.03372,-0.03677,-0.03204,-0.03052,-0.0499,-0.00702,0.00397,-0.01724,-0.01587,-0.01373,0.04669,-0.03387,-0.01785,0.00702,-0.0412
7.708,-0.00031,-0.03754,-0.03494,-0.03738,-0.03098,-0.04898,-0.0058,0.00488,-0.01709,-0.01602,-0.01282,0.00244,-0.03464,-0.01953,0.00534,-0.04303
7.7085,0.00183,-0.03845,-0.03433,-0.03693,-0.0325,-0.04822,-0.00778,0.00641,-0.01709,-0.01434,-0.01129,-0.03784,-0.03342,-0.02045,-0.00275,-0.04471
7.709,0.00198,-0.03601,-0.03448,-0.03052,-0.03281,-0.04715,-0.00961,0.00931,-0.0177,-0.01434,-0.0116,-0.05157,-0.03235,-0.02014,-0.00275,-0.04837
7.7095,-0.00031,-0.03159,-0.0351,-0.02197,-0.03204,-0.04639,-0.00946,0.0087,-0.01755,-0.01541,-0.0119,-0.04639,-0.03082,-0.01892,-0.00443,-0.05112
7.71,-0.00305,-0.0296,-0.0354,-0.01785,-0.03189,-0.04639,-0.01007,0.00198,-0.01724,-0.01648,-0.01144,-0.03784,-0.03021,-0.01816,-0.00519,-0.05127
7.7105,-0.00488,-0.03067,-0.03418,-0.02014,-0.03326,-0.04684,-0.01175,-0.00656,-0.01572,-0.01755,-0.01114,-0.02991,-0.03143,-0.01801,-0.00534,-0.04852
7.711,-0.00748,-0.03479,-0.03311,-0.01617,-0.03235,-0.04807,-0.01114,-0.01083,-0.01434,-0.01785,-0.01175,-0.02014,-0.03296,-0.01663,-0.0029,-0.04608
7.7115,-0.01083,-0.03799,-0.03632,-0.00031,-0.03159,-0.04807,-0.0087,-0.00687,-0.01389,-0.01663,-0.01343,-0.01434,-0.03464,-0.01587,-0.00504,-0.0444
7.712,-0.01419,-0.0415,-0.0415,0.01892,-0.03052,-0.04822,-0.00793,-0.00351,-0.01404,-0.01572,-0.01511,-0.01755,-0.03708,-0.01587,-0.0032,-0.04456
7.7125,-0.01602,-0.04501,-0.04837,0.02701,-0.02975,-0.04852,-0.01022,-0.00793,-0.01373,-0.0148,-0.01602,-0.0235,-0.03632,-0.01724,-0.00153,-0.04379
7.713,-0.01633,-0.04974,-0.05432,0.02106,-0.02975,-0.04898,-0.01434,-0.01648,-0.01312,-0.01572,-0.01556,-0.02182,-0.03387,-0.01938,0.00015,-0.04257
7.7135,-0.01663,-0.05432,-0.05798,0.01007,-0.03021,-0.04883,-0.01602,-0.01984,-0.01343,-0.01648,-0.01556,-0.01221,-0.0322,-0.02136,0.00214,-0.0412
7.714,-0.01694,-0.05615,-0.05615,0.00458,-0.03067,-0.04822,-0.01526,-0.01495,-0.01526,-0.01801,-0.01511,-0.00412,-0.03189,-0.02258,0.0029,-0.04089
7.7145,-0.01755,-0.05463,-0.05478,0.00793,-0.0322,-0.04807,-0.01541,-0.00977,-0.01633,-0.01831,-0.01358,0.00015,-0.0322,-0.02289,0.00397,-0.03983
7.715,-0.01724,-0.05234,-0.05585,0.02136,-0.03189,-0.04868,-0.01694,-0.00977,-0.01648,-0.01801,-0.01282,0.00488,-0.03128,-0.02243,0.00488,-0.03708
7.7155,-0.01617,-0.05249,-0.06287,0.03998,-0.02945,-0.04929,-0.01801,-0.01144,-0.01617,-0.01709,-0.01404,0.01266,-0.02914,-0.02258,0.00259,-0.03418
7.716,-0.01297,-0.05096,-0.06241,0.05142,-0.02808,-0.05035,-0.01617,-0.00916,-0.01678,-0.0177,-0.01678,0.02075,-0.02884,-0.02319,0.00214,-0.03448
7.7165,-0.00671,-0.04318,-0.05951,0.04074,-0.02945,-0.04761,-0.0145,-0.00488,-0.01709,-0.01892,-0.0174,0.01984,-0.03006,-0.02258,0.00229,-0.03586
7.717,0.00198,-0.03235,-0.04944,0.01221,-0.03052,-0.04715,-0.0145,-0.00443,-0.01678,-0.02045,-0.01755,0.0,-0.03021,-0.0209,0.00397,-0.03677
7.7175,0.00778,-0.0267,-0.03326,-0.00977,-0.03067,-0.04578,-0.01526,-0.00671,-0.0177,-0.02106,-0.01877,-0.03738,-0.02731,-0.01968,0.00458,-0.03738
7.718,0.00702,-0.02869,-0.01358,-0.00916,-0.03006,-0.04425,-0.0148,-0.00992,-0.01862,-0.02243,-0.02045,-0.06836,-0.02502,-0.01999,0.00366,-0.03738
7.7185,0.00107,-0.0325,0.00244,-0.00122,-0.02975,-0.03601,-0.01358,-0.01114,-0.01938,-0.02197,-0.01938,-0.06348,-0.02594,-0.0206,0.00031,-0.0383
7.719,-0.0029,-0.0351,0.00519,-0.00381,-0.02869,-0.02701,-0.01419,-0.01083,-0.01892,-0.02106,-0.01831,-0.02228,-0.02747,-0.02029,-0.00031,-0.03983
7.7195,-0.00031,-0.03632,-0.00198,-0.01434,-0.02838,-0.01511,-0.01678,-0.00839,-0.01907,-0.01984,-0.01617,0.01694,-0.02792,-0.02014,-0.00153,-0.04135
7.72,0.00458,-0.03891,-0.01602,-0.02136,-0.02838,-0.01053,-0.01816,-0.00412,-0.01816,-0.02151,-0.01434,0.01968,-0.0264,-0.02029,-0.00046,-0.04028
7.7205,0.00748,-0.04227,-0.02548,-0.01907,-0.02884,-0.01144,-0.01755,-0.00107,-0.0174,-0.02075,-0.01236,-0.00946,-0.02457,-0.01877,0.00381,-0.04044
7.721,0.00916,-0.04593,-0.02838,-0.0119,-0.02991,-0.01678,-0.01602,-0.00244,-0.01526,-0.02045,-0.01236,-0.03494,-0.0235,-0.01755,0.00458,-0.04028
7.7215,0.01282,-0.05127,-0.03265,-0.00397,-0.02914,-0.02304,-0.01633,-0.00626,-0.01419,-0.01907,-0.01099,-0.03616,-0.02533,-0.01785,0.00381,-0.04196
7.722,0.01724,-0.05829,-0.03708,-0.00046,-0.03021,-0.0322,-0.01877,-0.00977,-0.01373,-0.01877,-0.01068,-0.02472,-0.02853,-0.01877,0.00122,-0.04379
7.7225,0.01801,-0.06393,-0.04105,-0.00168,-0.03067,-0.04898,-0.02197,-0.01205,-0.01556,-0.01785,-0.01068,-0.02045,-0.03189,-0.02014,-0.00092,-0.0444
7.723,0.01419,-0.06546,-0.04501,-0.00488,-0.03067,-0.08072,-0.0238,-0.01221,-0.0174,-0.01602,-0.01144,-0.02579,-0.03189,-0.01984,-0.00458,-0.04547
7.7235,0.00809,-0.06714,-0.04761,-0.00793,-0.03036,-0.11887,-0.02365,-0.01221,-0.0177,-0.01556,-0.01266,-0.02502,-0.03052,-0.01923,-0.00198,-0.04501
7.724,0.00244,-0.06805,-0.04822,-0.009,-0.03098,-0.14023,-0.02075,-0.01007,-0.01846,-0.01724,-0.01236,-0.00305,-0.02899,-0.01755,0.00122,-0.04288
7.7245,-0.00107,-0.06516,-0.04822,-0.00809,-0.03159,-0.12329,-0.01709,-0.00473,-0.01877,-0.01862,-0.01068,0.03891,-0.0293,-0.01755,0.00351,-0.04044
7.725,-0.0032,-0.05768,-0.04684,-0.00458,-0.03128,-0.08179,-0.01404,0.00229,-0.0177,-0.01816,-0.009,0.08133,-0.03128,-0.01923,0.00443,-0.03952
7.7255,-0.00458,-0.04807,-0.04379,0.00015,-0.03113,-0.05157,-0.0119,0.00763,-0.01694,-0.01648,-0.00824,0.10101,-0.0322,-0.02014,0.00336,-0.04028
7.726,-0.00626,-0.0415,-0.03891,0.00473,-0.03235,-0.04166,-0.01175,0.00793,-0.01694,-0.01556,-0.01144,0.10208,-0.03204,-0.01968,0.00259,-0.03983
7.7265,-0.009,-0.03754,-0.03342,0.00793,-0.03326,-0.04608,-0.01312,0.00473,-0.0177,-0.01801,-0.01663,0.09476,-0.03128,-0.01892,0.00412,-0.03891
7.727,-0.01236,-0.03159,-0.02975,0.00946,-0.03357,-0.04715,-0.01541,0.00107,-0.01785,-0.0209,-0.02014,0.06409,-0.03143,-0.01968,0.00458,-0.03754
7.7275,-0.01526,-0.0235,-0.02625,0.00824,-0.03143,-0.0441,-0.01831,-0.00229,-0.01877,-0.02228,-0.01999,-0.0058,-0.03326,-0.0206,0.00641,-0.03906
7.728,-0.01602,-0.01785,-0.02762,0.00198,-0.02914,-0.04059,-0.02014,-0.00656,-0.01892,-0.02167,-0.01617,-0.07477,-0.03571,-0.01999,0.00366,-0.04166
7.7285,-0.01511,-0.01694,-0.02777,-0.00626,-0.02609,-0.0415,-0.02136,-0.01053,-0.01923,-0.02075,-0.01297,-0.08591,-0.03632,-0.01862,0.0029,-0.04196
7.729,-0.01328,-0.01953,-0.02747,-0.0116,-0.02319,-0.04379,-0.02258,-0.0119,-0.01892,-0.02029,-0.01389,-0.05905,-0.03601,-0.01831,0.00336,-0.04044
7.7295,-0.01144,-0.02441,-0.02777,-0.00748,-0.02213,-0.04913,-0.02563,-0.01053,-0.01724,-0.0206,-0.01572,-0.05859,-0.03555,-0.01801,0.00534,-0.03952
7.73,-0.01282,-0.0296,-0.03098,0.00427,-0.0235,-0.05493,-0.02762,-0.00656,-0.01633,-0.02014,-0.01602,-0.08301,-0.03586,-0.01938,0.00763,-0.03738
7.7305,-0.01663,-0.03326,-0.03357,0.01663,-0.02502,-0.05783,-0.02762,-0.00412,-0.01526,-0.01953,-0.01419,-0.07477,-0.03647,-0.01968,0.009,-0.03769
7.731,-0.01984,-0.03326,-0.03433,0.01999,-0.02655,-0.05142,-0.02899,-0.00137,-0.01465,-0.0177,-0.0119,-0.02289,-0.03586,-0.01953,0.009,-0.03891
7.7315,-0.01846,-0.0322,-0.0351,0.01266,-0.0264,-0.03784,-0.03326,0.00183,-0.01404,-0.01694,-0.01251,0.01617,-0.03555,-0.01999,0.00595,-0.04242
7.732,-0.01373,-0.03525,-0.03967,0.00183,-0.0267,-0.02502,-0.03967,0.00458,-0.01419,-0.01633,-0.01373,0.0061,-0.03601,-0.02075,0.00305,-0.04379
7.7325,-0.00992,-0.04425,-0.04227,-0.00351,-0.02899,-0.02045,-0.05188,0.00427,-0.01572,-0.01541,-0.01526,-0.03036,-0.03693,-0.02167,0.00397,-0.04379
7.733,-0.00854,-0.05173,-0.04395,-0.00336,-0.03235,-0.02365,-0.0708,0.00153,-0.01678,-0.01526,-0.01648,-0.05981,-0.03662,-0.02151,0.00473,-0.04349
7.7335,-0.00885,-0.05295,-0.0441,-0.00153,-0.03525,-0.03067,-0.08514,-0.00061,-0.01694,-0.01678,-0.01724,-0.07889,-0.03448,-0.01999,0.00412,-0.04318
7.734,-0.00916,-0.04974,-0.04364,-0.00031,-0.03784,-0.03983,-0.07797,-0.00229,-0.01587,-0.01907,-0.01755,-0.10483,-0.03204,-0.01877,0.00275,-0.04318
7.7345,-0.00549,-0.04532,-0.03983,0.00076,-0.03922,-0.05173,-0.05096,-0.00244,-0.01495,-0.01999,-0.01678,-0.13321,-0.03098,-0.01785,0.00549,-0.0441
7.735,0.00076,-0.04349,-0.03403,0.00275,-0.04013,-0.07156,-0.0238,-0.00259,-0.01511,-0.01862,-0.01541,-0.13474,-0.02792,-0.01678,0.00671,-0.04486
7.7355,0.00626,-0.04639,-0.02655,0.00412,-0.03891,-0.09247,-0.00702,-0.00336,-0.01511,-0.01556,-0.01465,-0.09689,-0.02487,-0.01678,0.0061,-0.04562
7.736,0.00854,-0.05035,-0.02426,0.00336,-0.03616,-0.10025,0.0,-0.00198,-0.01511,-0.01633,-0.01526,-0.04318,-0.02289,-0.01801,0.00198,-0.04654
7.7365,0.00778,-0.05157,-0.03265,-0.00061,-0.03143,-0.08728,-0.01373,0.0,-0.01495,-0.01755,-0.01465,-0.00031,-0.02426,-0.01892,0.00046,-0.04807
7.737,0.00626,-0.04822,-0.04089,-0.00656,-0.0296,-0.06577,-0.06439,-0.00092,-0.01419,-0.01816,-0.01389,0.03204,-0.02548,-0.01999,-0.00092,-0.04944
7.7375,0.00168,-0.04349,-0.04196,-0.00793,-0.03113,-0.0563,-0.12253,-0.00381,-0.01465,-0.01648,-0.01434,0.0531,-0.0264,-0.01846,0.0,-0.04929
7.738,-0.0061,-0.03815,-0.03891,-0.00259,-0.03387,-0.06607,-0.13184,-0.00534,-0.01602,-0.0148,-0.01572,0.04745,-0.02609,-0.01755,0.00336,-0.04883
7.7385,-0.01495,-0.03387,-0.03403,0.00381,-0.03601,-0.07889,-0.0856,-0.00397,-0.0177,-0.01663,-0.01801,0.01022,-0.02792,-0.0174,0.00565,-0.04791
7.739,-0.02197,-0.03128,-0.0325,0.00854,-0.03464,-0.08499,-0.02411,-0.00122,-0.01678,-0.01678,-0.01755,-0.03799,-0.02991,-0.01816,0.00534,-0.04684
7.7395,-0.02365,-0.03098,-0.03067,0.00961,-0.0325,-0.07217,0.0322,0.00046,-0.0148,-0.01678,-0.01663,-0.07248,-0.03128,-0.01831,0.00595,-0.04639
7.74,-0.02365,-0.03036,-0.02991,0.00717,-0.03204,-0.04532,0.09247,0.00183,-0.01358,-0.01602,-0.01541,-0.08408,-0.03159,-0.01801,0.0058,-0.04608
7.7405,-0.02396,-0.02975,-0.03082,0.00443,-0.0325,-0.0145,0.15274,0.00122,-0.01328,-0.01678,-0.0145,-0.07721,-0.03204,-0.01831,0.0061,-0.04562
7.741,-0.02563,-0.02991,-0.03326,0.00122,-0.03372,-0.0032,0.17975,0.00031,-0.01373,-0.01755,-0.01404,-0.06256,-0.03159,-0.01755,0.00732,-0.04623
7.7415,-0.02655,-0.02899,-0.0351,-0.00015,-0.03464,-0.01663,0.15625,-0.00092,-0.01343,-0.01785,-0.01266,-0.04547,-0.03082,-0.01648,0.00946,-0.04379
7.742,-0.02136,-0.02991,-0.03662,-0.00137,-0.0351,-0.03891,0.09705,-0.00351,-0.01282,-0.01694,-0.01236,-0.02426,-0.03006,-0.01587,0.009,-0.04181
7.7425,-0.00732,-0.03159,-0.04013,-0.00305,-0.03448,-0.04379,0.03067,-0.00595,-0.01282,-0.01648,-0.01343,0.00717,-0.02899,-0.01526,0.00793,-0.04074
7.743,0.0087,-0.03311,-0.04333,-0.00717,-0.03342,-0.02945,-0.02472,-0.00809,-0.01526,-0.01724,-0.01389,0.04349,-0.0293,-0.01556,0.00763,-0.04227
7.7435,0.0174,-0.03387,-0.04547,-0.01129,-0.0325,-0.01266,-0.05814,-0.00763,-0.01724,-0.01663,-0.01312,0.06531,-0.03113,-0.01633,0.00885,-0.04288
7.744,0.01572,-0.0351,-0.04288,-0.01205,-0.02991,-0.00397,-0.065,-0.00336,-0.0177,-0.01648,-0.01236,0.05646,-0.03403,-0.0177,0.01068,-0.04257
7.7445,0.00992,-0.03647,-0.03769,-0.0087,-0.02716,0.00397,-0.05493,0.00183,-0.01572,-0.0177,-0.01205,0.02563,-0.03586,-0.01984,0.01068,-0.0412
7.745,0.00763,-0.03769,-0.03418,-0.00336,-0.02502,0.02396,-0.04257,0.0058,-0.0145,-0.01907,-0.01144,0.01282,-0.03494,-0.02151,0.00839,-0.04105
7.7455,0.01007,-0.03754,-0.03265,0.00031,-0.02487,0.05234,-0.02075,0.00443,-0.01526,-0.01801,-0.01022,0.04471,-0.03235,-0.02106,0.01053,-0.04166
7.746,0.01343,-0.03769,-0.02975,0.00046,-0.02365,0.07629,0.0264,0.00076,-0.01694,-0.01602,-0.00992,0.09369,-0.02899,-0.01938,0.0116,-0.0415
7.7465,0.01358,-0.0383,-0.02518,-0.00092,-0.02411,0.09247,0.08484,-0.00168,-0.0177,-0.01434,-0.01175,0.10498,-0.02365,-0.01785,0.01053,-0.04135
7.747,0.01068,-0.04028,-0.02609,-0.00443,-0.02441,0.08453,0.1088,-0.00092,-0.01755,-0.01434,-0.01221,0.065,-0.01816,-0.01877,0.00916,-0.04105
7.7475,0.00534,-0.04135,-0.02808,-0.00854,-0.02594,0.01373,0.06897,0.00198,-0.01785,-0.01556,-0.01175,0.02533,-0.01358,-0.01968,0.00946,-0.0415
7.748,-0.00107,-0.04364,-0.03021,-0.00992,-0.02838,-0.11078,-0.00595,0.00259,-0.01724,-0.01801,-0.01083,0.03128,-0.01312,-0.02045,0.01114,-0.04044
7.7485,-0.00626,-0.04654,-0.03204,-0.00961,-0.02991,-0.20584,-0.05051,0.00259,-0.01678,-0.01877,-0.01175,0.06882,-0.01755,-0.01984,0.01205,-0.03677
7.749,-0.0061,-0.04898,-0.0322,-0.00824,-0.03159,-0.18906,-0.03128,0.00092,-0.01709,-0.02014,-0.01282,0.09598,-0.02548,-0.01877,0.01373,-0.03479
7.7495,-0.00198,-0.04761,-0.03128,-0.00793,-0.03281,-0.10422,0.02853,-0.00153,-0.01785,-0.0206,-0.01404,0.0882,-0.03204,-0.01862,0.01343,-0.03357
7.75,0.00214,-0.04501,-0.02747,-0.01038,-0.03235,-0.06409,0.07858,-0.00595,-0.0174,-0.02014,-0.0145,0.0415,-0.03555,-0.01892,0.01053,-0.0354
7.7505,0.00244,-0.04395,-0.02899,-0.01205,-0.03159,-0.10818,0.08606,-0.0116,-0.01724,-0.01938,-0.01404,-0.02762,-0.0383,-0.02029,0.00916,-0.03876
