time,RectFemL,VastusMedL,VastusLatL,TibAntL,HamMedL,HamLatL,GastroMedL,GastroLatL,RectFemR,VastusMedR,VastusLatR,TibAntR,HamMedR,HamLatR,GastroMedR,GastroLatR
3.68,0.00992,-0.03021,-0.03357,-0.10941,-0.0293,-0.04852,-0.01144,-0.00427,0.05646,0.07675,0.02808,0.09186,-0.03235,-0.01892,0.00153,-0.04578
3.6805,0.01221,-0.0354,-0.03036,-0.03586,-0.02808,-0.04715,-0.00916,-0.00305,0.08377,0.05951,-0.01129,0.09384,-0.03082,-0.01801,-0.00046,-0.04776
3.681,0.01038,-0.03967,-0.02731,0.06271,-0.02716,-0.04532,-0.00961,-0.00229,0.07675,0.05035,-0.04013,0.0499,-0.03021,-0.01663,-0.00046,-0.04883
3.6815,0.00732,-0.04608,-0.0264,0.12466,-0.02731,-0.04486,-0.01083,-0.00076,0.04593,0.04883,-0.05814,0.00504,-0.03098,-0.0148,0.00153,-0.04578
3.682,0.00427,-0.05798,-0.02441,0.10666,-0.02747,-0.04364,-0.01068,-0.00107,0.01572,0.04593,-0.0676,-0.00153,-0.0322,-0.01404,0.0061,-0.04074
3.6825,-0.00046,-0.06927,-0.01663,0.04028,-0.02731,-0.04288,-0.00961,-0.00275,-0.0029,0.0293,-0.06927,0.02075,-0.03281,-0.01495,0.00885,-0.03754
3.683,-0.00748,-0.06973,-0.0032,-0.00198,-0.02823,-0.04166,-0.009,-0.00381,-0.01175,-0.01175,-0.06317,0.05341,-0.03281,-0.01617,0.00839,-0.0383
3.6835,-0.01511,-0.05295,0.01007,0.00854,-0.03098,-0.04196,-0.00961,-0.00259,-0.01572,-0.06821,-0.05829,0.08926,-0.03174,-0.01648,0.00778,-0.04074
3.684,-0.01999,-0.03143,0.01816,0.04288,-0.03159,-0.04028,-0.01114,-0.00259,-0.01892,-0.11032,-0.06027,0.10712,-0.03098,-0.01511,0.00916,-0.04166
3.6845,-0.02182,-0.01724,0.01694,0.06073,-0.02975,-0.03464,-0.01282,-0.00519,-0.03098,-0.10834,-0.06439,0.06958,-0.02914,-0.01297,0.01129,-0.04059
3.685,-0.01831,-0.01297,0.00778,0.0563,-0.02792,-0.02975,-0.01495,-0.00885,-0.05676,-0.06668,-0.0618,-0.02411,-0.02792,-0.01205,0.00946,-0.03998
3.6855,-0.00931,-0.01343,-0.0029,0.04837,-0.02716,-0.02975,-0.01526,-0.00992,-0.08698,-0.01785,-0.05051,-0.10742,-0.02655,-0.01328,0.00488,-0.04272
3.686,0.00168,-0.01541,-0.01465,0.0444,-0.02716,-0.03586,-0.01373,-0.00839,-0.10437,0.01297,-0.03952,-0.09369,-0.02823,-0.01541,0.00229,-0.04547
3.6865,0.00595,-0.01999,-0.02975,0.03052,-0.02853,-0.04395,-0.01144,-0.00717,-0.09674,0.02579,-0.03693,0.0116,-0.03113,-0.01709,0.00534,-0.04593
3.687,0.0,-0.0296,-0.04562,0.00153,-0.0325,-0.05081,-0.01007,-0.00565,-0.06683,0.03021,-0.04593,0.10071,-0.03418,-0.0174,0.01007,-0.04135
3.6875,-0.01114,-0.04074,-0.05829,-0.02625,-0.03662,-0.05524,-0.00946,-0.00244,-0.02625,0.03479,-0.05859,0.08011,-0.03403,-0.01846,0.01358,-0.03677
3.688,-0.02121,-0.05249,-0.06546,-0.03235,-0.03906,-0.0589,-0.01007,-0.00031,0.00534,0.03555,-0.06653,-0.02014,-0.03265,-0.02045,0.01419,-0.03525
3.6885,-0.02563,-0.06531,-0.06653,-0.02197,-0.03952,-0.06042,-0.0119,0.0,0.02029,0.02945,-0.0737,-0.07233,-0.03143,-0.0209,0.01221,-0.03769
3.689,-0.02731,-0.07477,-0.06287,-0.01038,-0.03876,-0.05905,-0.01404,-0.00122,0.02686,0.01785,-0.08759,-0.00519,-0.03113,-0.02014,0.00946,-0.04089
3.6895,-0.03372,-0.0769,-0.0563,-0.00229,-0.0386,-0.05493,-0.01556,-0.00198,0.0386,0.00656,-0.10162,0.09857,-0.03113,-0.01892,0.0087,-0.04288
3.69,-0.04852,-0.07431,-0.05005,0.00793,-0.03738,-0.05051,-0.01495,-0.00137,0.05096,-0.00153,-0.11093,0.11368,-0.03235,-0.01968,0.00946,-0.04333
3.6905,-0.06653,-0.07248,-0.04562,0.01663,-0.03647,-0.04822,-0.01389,-0.00198,0.05325,-0.00595,-0.12573,0.05341,-0.03494,-0.02243,0.00977,-0.04303
3.691,-0.07462,-0.07278,-0.04074,0.01526,-0.03525,-0.04684,-0.01526,-0.00336,0.04181,-0.00885,-0.15976,0.03937,-0.03937,-0.02472,0.00824,-0.04272
3.6915,-0.06653,-0.07065,-0.02899,0.00107,-0.03357,-0.04715,-0.01785,-0.00443,0.02747,-0.01343,-0.19302,0.09186,-0.04135,-0.02426,0.00397,-0.04272
3.692,-0.05035,-0.06348,-0.01373,-0.01862,-0.03235,-0.04807,-0.01846,-0.00488,0.02151,-0.0206,-0.17929,0.08789,-0.04105,-0.0235,0.00214,-0.0444
3.6925,-0.03464,-0.05371,-0.00488,-0.04272,-0.03143,-0.04913,-0.01617,-0.00443,0.02655,-0.03036,-0.09903,-0.02716,-0.03891,-0.02197,0.00229,-0.04593
3.693,-0.02594,-0.04486,-0.00946,-0.0705,-0.03021,-0.04852,-0.01251,-0.00214,0.03281,-0.04044,0.00961,-0.13443,-0.03769,-0.02075,0.00275,-0.04623
3.6935,-0.0209,-0.03662,-0.02365,-0.09888,-0.02945,-0.04745,-0.00961,0.00107,0.0293,-0.05386,0.09399,-0.11566,-0.03708,-0.01999,0.00534,-0.04593
3.694,-0.0148,-0.02823,-0.03601,-0.12177,-0.02762,-0.04684,-0.00793,0.00397,0.01617,-0.07919,0.13504,-0.01694,-0.03677,-0.01907,0.00366,-0.04623
3.6945,-0.00458,-0.02167,-0.04257,-0.13199,-0.02518,-0.04639,-0.00854,0.00381,0.00458,-0.10529,0.14771,0.03723,-0.03693,-0.01892,0.00351,-0.04669
3.695,0.01373,-0.01923,-0.04318,-0.13062,-0.02548,-0.04456,-0.0119,0.00168,0.0061,-0.11734,0.14404,0.0174,-0.03799,-0.01999,0.00473,-0.04654
3.6955,0.03174,-0.02014,-0.02747,-0.12421,-0.02716,-0.04227,-0.01633,-0.00137,0.0235,-0.11032,0.12314,-0.00732,-0.0386,-0.01999,0.0061,-0.0444
3.696,0.04089,-0.02258,0.01648,-0.11856,-0.02945,-0.04074,-0.02045,-0.00259,0.04761,-0.09659,0.09201,0.00458,-0.03799,-0.01968,0.00916,-0.04166
3.6965,0.03769,-0.02518,0.07019,-0.11673,-0.03082,-0.04135,-0.01999,-0.0029,0.06439,-0.09232,0.06042,0.01633,-0.03754,-0.01816,0.01236,-0.0386
3.697,0.02945,-0.03021,0.08759,-0.09964,-0.03128,-0.04333,-0.01678,-0.00244,0.06577,-0.0946,0.02899,0.00122,-0.03479,-0.01617,0.01709,-0.03525
3.6975,0.02319,-0.04044,0.04913,-0.03601,-0.03174,-0.04501,-0.01587,-0.00381,0.05219,-0.09628,-0.00168,0.00809,-0.03189,-0.0148,0.01862,-0.03281
3.698,0.01709,-0.05127,-0.01373,0.08438,-0.03143,-0.04623,-0.01755,-0.00595,0.03174,-0.10193,-0.01694,0.06668,-0.03082,-0.01419,0.01816,-0.03159
3.6985,0.00702,-0.05905,-0.06012,0.2179,-0.03082,-0.04745,-0.01877,-0.00717,0.00992,-0.11902,-0.01083,0.10101,-0.03159,-0.0145,0.0177,-0.03098
3.699,-0.00717,-0.06439,-0.08102,0.27679,-0.03082,-0.04913,-0.01755,-0.00687,-0.01175,-0.14084,-0.00153,0.0119,-0.0325,-0.01633,0.01785,-0.03174
3.6995,-0.02029,-0.0679,-0.09308,0.20615,-0.03067,-0.04913,-0.01602,-0.00488,-0.03143,-0.15442,-0.0087,-0.15533,-0.03159,-0.0174,0.01633,-0.03403
3.7,-0.02548,-0.06775,-0.10635,0.0499,-0.0296,-0.04959,-0.01465,-0.00229,-0.04868,-0.14679,-0.01678,-0.2005,-0.03021,-0.01709,0.01282,-0.03769
3.7005,-0.02472,-0.06439,-0.11444,-0.08881,-0.03021,-0.05051,-0.01404,-0.00107,-0.06378,-0.11673,0.00183,0.01251,-0.0293,-0.01724,0.00778,-0.04242
3.701,-0.02197,-0.05859,-0.11337,-0.14648,-0.0325,-0.05264,-0.01389,-0.00076,-0.07843,-0.07126,0.04532,0.32654,-0.02914,-0.01801,0.00366,-0.04608
3.7015,-0.01755,-0.05463,-0.10117,-0.13229,-0.03281,-0.05371,-0.0145,-0.00061,-0.08591,-0.02167,0.08255,0.43549,-0.02823,-0.01755,0.00198,-0.04898
3.702,-0.01022,-0.0528,-0.07355,-0.08865,-0.03418,-0.05463,-0.01556,-0.00137,-0.07416,0.02045,0.09247,0.27756,-0.02747,-0.01556,0.00473,-0.04776
3.7025,-0.00214,-0.0528,-0.02365,-0.04868,-0.03525,-0.05493,-0.01816,-0.00305,-0.03967,0.05295,0.08011,0.09674,-0.02701,-0.01419,0.00992,-0.04395
3.703,0.00107,-0.05112,0.02747,-0.0267,-0.03632,-0.05508,-0.01755,-0.00488,-0.00366,0.08102,0.05875,0.08423,-0.02808,-0.01556,0.01404,-0.04013
3.7035,0.00168,-0.047,0.03815,-0.01831,-0.03647,-0.05447,-0.01694,-0.00626,0.0145,0.10635,0.03632,0.14984,-0.02914,-0.01663,0.01282,-0.03876
3.704,0.00351,-0.04211,-0.00366,-0.01205,-0.0354,-0.0528,-0.01511,-0.00687,0.01938,0.12466,0.01663,0.1123,-0.02899,-0.01663,0.00885,-0.0412
3.7045,0.00519,-0.03784,-0.06516,-0.00092,-0.03418,-0.04913,-0.01419,-0.00595,0.03006,0.12894,-0.00427,-0.04974,-0.02792,-0.01572,0.0058,-0.04501
3.705,0.00168,-0.03357,-0.10834,0.02304,-0.03387,-0.04684,-0.01312,-0.00427,0.04364,0.11734,-0.03296,-0.20004,-0.02808,-0.01587,0.00488,-0.04852
3.7055,-0.00824,-0.02853,-0.12619,0.07324,-0.03464,-0.047,-0.01251,-0.00244,0.03799,0.09293,-0.06317,-0.22614,-0.03036,-0.01709,0.0058,-0.05051
3.706,-0.01831,-0.01877,-0.13107,0.13123,-0.03403,-0.04791,-0.01175,-0.00137,0.0061,0.06241,-0.07935,-0.16708,-0.03326,-0.01831,0.00565,-0.04959
3.7065,-0.02304,-0.0061,-0.12787,0.13458,-0.03067,-0.047,-0.01282,-0.00122,-0.0293,0.03082,-0.07294,-0.15808,-0.03525,-0.01846,0.00809,-0.04608
3.707,-0.02213,0.00412,-0.11948,0.04501,-0.02838,-0.04669,-0.0145,-0.00122,-0.04303,-0.00153,-0.05661,-0.24734,-0.03632,-0.01938,0.00748,-0.04395
3.7075,-0.01968,0.00702,-0.10696,-0.09262,-0.02792,-0.04745,-0.01678,-0.00244,-0.03571,-0.03189,-0.04745,-0.31586,-0.03662,-0.02136,0.00534,-0.04349
3.708,-0.01877,0.00153,-0.09598,-0.17929,-0.0293,-0.04791,-0.01831,-0.00473,-0.02563,-0.06119,-0.04852,-0.25635,-0.03433,-0.02213,0.0032,-0.04318
3.7085,-0.01801,-0.00626,-0.08499,-0.15472,-0.03067,-0.04669,-0.01999,-0.00717,-0.03357,-0.08759,-0.05325,-0.13092,-0.03143,-0.02151,0.00351,-0.04318
3.709,-0.01511,-0.01495,-0.07111,-0.04379,-0.03098,-0.0444,-0.02151,-0.00809,-0.06683,-0.10635,-0.05783,-0.07278,-0.02853,-0.01999,0.00565,-0.04349
3.7095,-0.0116,-0.02502,-0.05707,0.06744,-0.02975,-0.04318,-0.02014,-0.00687,-0.11414,-0.11917,-0.06226,-0.08957,-0.02777,-0.01938,0.00763,-0.04425
3.71,-0.0119,-0.03708,-0.047,0.11078,-0.03021,-0.04181,-0.01541,-0.00427,-0.15427,-0.13062,-0.06165,-0.07965,-0.02975,-0.02014,0.00763,-0.04395
3.7105,-0.02075,-0.05112,-0.04364,0.0946,-0.03143,-0.0412,-0.01205,-0.00259,-0.16632,-0.14084,-0.04745,-0.00244,-0.03204,-0.0206,0.00748,-0.04364
3.711,-0.03616,-0.06454,-0.04288,0.06073,-0.03281,-0.04028,-0.01251,-0.00366,-0.1503,-0.14191,-0.01831,0.08606,-0.03296,-0.02136,0.00732,-0.04257
3.7115,-0.04868,-0.07156,-0.04379,0.01846,-0.03372,-0.03998,-0.01541,-0.00534,-0.12512,-0.12604,0.00732,0.13138,-0.03387,-0.02228,0.00671,-0.04196
3.712,-0.04913,-0.06561,-0.0444,-0.04013,-0.03265,-0.04013,-0.01648,-0.00519,-0.10544,-0.09689,0.01434,0.12573,-0.03571,-0.02319,0.0061,-0.04196
3.7125,-0.0322,-0.05112,-0.04089,-0.09186,-0.0325,-0.04074,-0.01465,-0.0032,-0.07843,-0.06714,0.00458,0.07721,-0.03876,-0.0238,0.00458,-0.04349
3.713,-0.0032,-0.0354,-0.03265,-0.0975,-0.03204,-0.04089,-0.01328,-0.00214,-0.02655,-0.04669,-0.0029,0.0116,-0.04028,-0.02304,0.0029,-0.04547
3.7135,0.02853,-0.02808,-0.01923,-0.06454,-0.03235,-0.04074,-0.01373,-0.00336,0.04501,-0.03845,-0.00137,-0.02411,-0.03967,-0.02304,0.00473,-0.04562
3.714,0.05127,-0.03113,-0.00626,-0.02808,-0.0322,-0.04074,-0.01617,-0.00534,0.1062,-0.04211,-0.01923,-0.00793,-0.03998,-0.02396,0.00717,-0.0444
3.7145,0.05692,-0.0383,-0.00504,-0.00656,-0.03128,-0.04288,-0.01709,-0.00626,0.12634,-0.05524,-0.08362,0.03403,-0.04181,-0.02441,0.01022,-0.04272
3.715,0.05188,-0.04211,-0.02625,0.00778,-0.03189,-0.04761,-0.01633,-0.00488,0.10269,-0.06607,-0.16174,0.07278,-0.04364,-0.02426,0.0116,-0.04196
3.7155,0.04349,-0.04074,-0.07233,0.01846,-0.03265,-0.05463,-0.01495,-0.00397,0.06348,-0.06226,-0.1915,0.1088,-0.04471,-0.02457,0.01007,-0.04196
3.716,0.03387,-0.03784,-0.12329,0.01511,-0.03464,-0.06256,-0.02014,-0.00336,0.03326,-0.04242,-0.15045,0.14038,-0.04349,-0.02594,0.00916,-0.04211
3.7165,0.01816,-0.0386,-0.14801,-0.00168,-0.03616,-0.06882,-0.03036,-0.00336,0.01785,-0.01602,-0.07217,0.12344,-0.04227,-0.02594,0.00854,-0.04166
3.717,-0.00076,-0.04578,-0.1329,-0.01907,-0.03799,-0.07233,-0.04181,-0.00366,0.0032,0.01129,0.00397,0.03235,-0.04089,-0.02594,0.01038,-0.04044
3.7175,-0.01572,-0.05341,-0.09094,-0.02655,-0.03769,-0.06989,-0.04898,-0.00549,-0.01938,0.03693,0.06287,-0.07919,-0.03937,-0.02655,0.01099,-0.03937
3.718,-0.02396,-0.05783,-0.04395,-0.02914,-0.03647,-0.06195,-0.05051,-0.00656,-0.05005,0.06042,0.09308,-0.12009,-0.03632,-0.02533,0.01053,-0.03922
3.7185,-0.02502,-0.05814,-0.00168,-0.03204,-0.03555,-0.05356,-0.04547,-0.00763,-0.08636,0.06989,0.08453,-0.05981,-0.03372,-0.02213,0.00763,-0.03998
3.719,-0.01862,-0.05768,0.03555,-0.0296,-0.0354,-0.04852,-0.02914,-0.00671,-0.12436,0.06165,0.05325,0.03891,-0.03128,-0.01892,0.00534,-0.04044
3.7195,-0.00305,-0.05798,0.07324,-0.01648,-0.03571,-0.04623,-0.00122,-0.0058,-0.14709,0.03967,0.03204,0.07828,-0.03052,-0.01953,0.00443,-0.03967
3.72,0.00992,-0.06287,0.11612,-0.00153,-0.03494,-0.0441,0.02411,-0.0058,-0.1358,0.0119,0.03189,0.01114,-0.03067,-0.02136,0.00809,-0.03845
3.7205,0.01175,-0.07278,0.16068,0.00687,-0.03372,-0.04196,0.03357,-0.00626,-0.09064,-0.01816,0.03677,-0.09232,-0.03296,-0.02289,0.01251,-0.03708
3.721,0.00595,-0.08087,0.1889,0.01068,-0.03296,-0.04135,0.02655,-0.00656,-0.03632,-0.04669,0.02396,-0.09811,-0.03555,-0.0235,0.01511,-0.03693
3.7215,0.00107,-0.08102,0.18845,0.00183,-0.03265,-0.04135,0.0145,-0.00702,0.00214,-0.06958,-0.01373,0.02716,-0.03555,-0.02228,0.01434,-0.03815
3.722,0.00061,-0.07324,0.16586,-0.04578,-0.03342,-0.0412,0.00595,-0.00656,0.01617,-0.08133,-0.07706,0.1474,-0.03204,-0.02045,0.0119,-0.0415
3.7225,0.0032,-0.06699,0.1329,-0.12878,-0.03601,-0.0412,0.00046,-0.00473,0.01541,-0.08331,-0.14481,0.12054,-0.02869,-0.0174,0.00809,-0.04547
3.723,0.00641,-0.06332,0.09262,-0.20294,-0.0383,-0.04089,-0.0029,-0.00183,0.00793,-0.08545,-0.18677,-0.01495,-0.0267,-0.01495,0.00641,-0.04639
3.7235,0.01099,-0.06104,0.0444,-0.23743,-0.03922,-0.04059,-0.00381,0.0,0.00015,-0.09369,-0.18356,-0.10559,-0.02701,-0.01297,0.00458,-0.04532
3.724,0.01938,-0.05524,-0.00443,-0.24384,-0.03799,-0.04089,-0.00305,0.00046,-0.00198,-0.10834,-0.12894,-0.09369,-0.02625,-0.01205,0.00397,-0.04486
3.7245,0.03265,-0.04517,-0.04242,-0.22934,-0.03647,-0.04028,-0.00229,0.00107,0.00122,-0.11383,-0.03296,-0.05554,-0.02502,-0.01053,0.00275,-0.04593
3.725,0.0444,-0.0351,-0.06775,-0.17471,-0.03372,-0.04028,-0.00473,0.00076,0.00122,-0.09933,0.06393,-0.0592,-0.02396,-0.00946,0.00153,-0.047
3.7255,0.04562,-0.02792,-0.08499,-0.06821,-0.03113,-0.04272,-0.00824,0.00031,0.00092,-0.07294,0.11795,-0.07065,-0.0238,-0.00977,0.00183,-0.04776
3.726,0.03448,-0.02289,-0.09476,0.08514,-0.0296,-0.04852,-0.0116,0.00076,0.01587,-0.04822,0.12314,-0.02853,-0.02396,-0.01114,0.00458,-0.04517
3.7265,0.01846,-0.01648,-0.09689,0.27512,-0.03052,-0.05341,-0.01266,-0.00015,0.05264,-0.02274,0.11078,0.04959,-0.0235,-0.01312,0.00732,-0.04196
3.727,0.00473,-0.00793,-0.09155,0.42618,-0.03235,-0.05478,-0.01343,-0.00153,0.08896,0.00351,0.10941,0.08087,-0.02258,-0.01358,0.00961,-0.03983
3.7275,-0.00717,-0.00214,-0.08102,0.41458,-0.03433,-0.05127,-0.01511,-0.00397,0.09033,0.02029,0.1207,0.02808,-0.02518,-0.01434,0.00946,-0.03952
3.728,-0.01999,-0.00366,-0.06699,0.22308,-0.03494,-0.04929,-0.01724,-0.00748,0.04883,0.02243,0.11322,-0.03906,-0.02914,-0.01541,0.00732,-0.04044
3.7285,-0.03418,-0.01129,-0.06058,0.00061,-0.03464,-0.05112,-0.01862,-0.00992,-0.00763,0.03006,0.05066,-0.02319,-0.03204,-0.01663,0.00626,-0.04028
3.729,-0.05081,-0.01984,-0.06805,-0.10513,-0.03433,-0.05447,-0.01907,-0.01099,-0.04242,0.06195,-0.05554,0.065,-0.03159,-0.01633,0.00687,-0.0383
3.7295,-0.06866,-0.02655,-0.09003,-0.09293,-0.03387,-0.05447,-0.01816,-0.00916,-0.04562,0.10834,-0.13275,0.11551,-0.03113,-0.01648,0.01068,-0.03601
3.73,-0.08087,-0.03159,-0.11322,-0.04745,-0.03098,-0.04959,-0.01678,-0.00717,-0.04211,0.14542,-0.12146,0.06058,-0.03098,-0.01602,0.01434,-0.03418
3.7305,-0.0795,-0.04013,-0.12985,-0.0145,-0.02975,-0.04349,-0.01465,-0.00565,-0.06271,0.16266,-0.0354,-0.03937,-0.03174,-0.01434,0.01373,-0.0351
3.731,-0.06531,-0.04959,-0.13504,0.01343,-0.02884,-0.03922,-0.01373,-0.0061,-0.10895,0.16617,0.07172,-0.08499,-0.03204,-0.01343,0.0119,-0.03784
3.7315,-0.0444,-0.05432,-0.12985,0.0386,-0.02853,-0.03967,-0.0145,-0.00488,-0.15274,0.16022,0.15823,-0.05692,-0.03113,-0.01373,0.00992,-0.04181
3.732,-0.02258,-0.0502,-0.11414,0.04959,-0.02853,-0.04135,-0.01617,-0.00381,-0.16647,0.14343,0.20615,0.01022,-0.03098,-0.01587,0.009,-0.04562
3.7325,-0.00595,-0.03738,-0.09186,0.06241,-0.02792,-0.04364,-0.0177,-0.00443,-0.14954,0.11108,0.20126,0.08987,-0.03357,-0.01801,0.00946,-0.04669
3.733,0.0,-0.02304,-0.06195,0.0972,-0.02869,-0.05112,-0.01877,-0.00534,-0.11932,0.06531,0.13657,0.14893,-0.03616,-0.02045,0.00824,-0.04593
3.7335,-0.00717,-0.01465,-0.02472,0.12283,-0.0296,-0.06073,-0.01984,-0.00504,-0.08987,0.02472,0.04013,0.1329,-0.03754,-0.02274,0.00763,-0.04501
3.734,-0.01663,-0.01434,0.01801,0.08194,-0.03006,-0.06836,-0.01938,-0.0032,-0.06546,0.01129,-0.03387,0.05371,-0.03769,-0.02411,0.00656,-0.04547
3.7345,-0.01511,-0.01999,0.05554,-0.01907,-0.03036,-0.0676,-0.01648,-0.00137,-0.04044,0.02853,-0.05447,-0.00259,-0.03601,-0.02426,0.00656,-0.0441
3.735,-0.0032,-0.02396,0.09018,-0.09689,-0.02884,-0.0621,-0.01251,-0.00153,-0.01007,0.05737,-0.03494,0.00488,-0.03494,-0.0235,0.00809,-0.04242
3.7355,0.0029,-0.02182,0.12909,-0.09811,-0.02823,-0.05569,-0.00946,-0.00153,0.01938,0.07935,-0.00549,0.02213,-0.03281,-0.02121,0.01038,-0.04044
3.736,0.00061,-0.01389,0.16205,-0.0589,-0.02686,-0.05051,-0.00702,-0.00183,0.0386,0.08804,0.01312,-0.00366,-0.03067,-0.01862,0.00992,-0.0386
3.7365,-0.00198,-0.01007,0.16037,-0.04227,-0.02609,-0.04761,-0.00778,-0.00275,0.04791,0.08484,0.00778,-0.05219,-0.03021,-0.01724,0.00732,-0.03891
3.737,0.00107,-0.01617,0.11169,-0.06165,-0.02502,-0.04776,-0.01114,-0.00488,0.0528,0.07034,-0.02335,-0.0708,-0.03326,-0.01892,0.0061,-0.04028
3.7375,0.00168,-0.0296,0.03845,-0.08041,-0.02289,-0.04684,-0.01862,-0.0061,0.05295,0.04929,-0.06653,-0.04501,-0.03723,-0.02228,0.00549,-0.04303
3.738,-0.00397,-0.04379,-0.02792,-0.07355,-0.02243,-0.04562,-0.02838,-0.00565,0.05005,0.02304,-0.09796,-0.00854,-0.03937,-0.02472,0.0061,-0.04364
3.7385,-0.01068,-0.05112,-0.07813,-0.0563,-0.02365,-0.04471,-0.03342,-0.00488,0.05249,-0.00488,-0.11307,0.0,-0.03769,-0.02441,0.0058,-0.04379
3.739,-0.00778,-0.04425,-0.11765,-0.0499,-0.02625,-0.04532,-0.03067,-0.00504,0.06027,-0.03616,-0.121,-0.02808,-0.03525,-0.0235,0.00488,-0.04456
3.7395,0.00427,-0.02762,-0.14557,-0.05035,-0.02884,-0.04562,-0.02319,-0.00534,0.05997,-0.06683,-0.12558,-0.0531,-0.03326,-0.02228,0.0058,-0.04593
3.74,0.01938,-0.01587,-0.1561,-0.04074,-0.02869,-0.04395,-0.01541,-0.00458,0.04578,-0.08316,-0.12421,0.00122,-0.03281,-0.02136,0.00778,-0.04486
3.7405,0.03082,-0.01755,-0.14923,-0.02426,-0.02731,-0.04257,-0.01007,-0.0029,0.03387,-0.07355,-0.11612,0.14984,-0.03281,-0.02136,0.00931,-0.04318
3.741,0.03265,-0.02747,-0.13214,-0.01663,-0.02594,-0.04059,-0.00809,-0.00198,0.03815,-0.0415,-0.10803,0.27039,-0.03128,-0.02167,0.01083,-0.04242
3.7415,0.02441,-0.03586,-0.11383,-0.02441,-0.0264,-0.04013,-0.00885,-0.00336,0.04547,-0.0058,-0.10513,0.21912,-0.02991,-0.0206,0.0116,-0.04379
3.742,0.01205,-0.03967,-0.09918,-0.03967,-0.02792,-0.0415,-0.01083,-0.00519,0.03311,0.01785,-0.10605,0.00534,-0.0293,-0.01907,0.01129,-0.0441
3.7425,0.0058,-0.0412,-0.09338,-0.05951,-0.03082,-0.04333,-0.01205,-0.00549,-0.0058,0.0238,-0.10483,-0.20996,-0.02991,-0.0174,0.01007,-0.04242
3.743,0.00641,-0.04227,-0.0943,-0.08774,-0.03189,-0.04562,-0.01221,-0.00381,-0.05478,0.01617,-0.09567,-0.28503,-0.03021,-0.01678,0.00992,-0.03998
3.7435,0.00641,-0.04242,-0.09308,-0.11887,-0.03159,-0.04822,-0.01114,-0.00214,-0.0943,0.0029,-0.07904,-0.20386,-0.03204,-0.0174,0.01083,-0.03952
3.744,-0.00015,-0.04105,-0.08331,-0.12833,-0.0296,-0.04822,-0.01022,-0.00198,-0.11841,-0.00763,-0.05417,-0.05615,-0.03448,-0.01938,0.01129,-0.04013
3.7445,-0.01511,-0.04013,-0.06866,-0.0853,-0.02914,-0.04807,-0.01007,-0.00229,-0.12344,-0.0148,-0.02441,0.05753,-0.03601,-0.0206,0.01266,-0.04166
3.745,-0.03189,-0.04013,-0.05585,0.00824,-0.03067,-0.04791,-0.0116,-0.00092,-0.10132,-0.02243,-0.00916,0.0914,-0.03571,-0.02106,0.01144,-0.04135
3.7455,-0.04013,-0.04089,-0.04822,0.10132,-0.03159,-0.04745,-0.01297,0.00061,-0.05981,-0.0351,-0.0383,0.05814,-0.03464,-0.0206,0.01022,-0.04074
3.746,-0.02945,-0.04303,-0.03937,0.11917,-0.03189,-0.04456,-0.01312,0.00092,-0.01511,-0.05157,-0.10208,0.01785,-0.03479,-0.02167,0.00977,-0.04028
3.7465,-0.00565,-0.04333,-0.02808,0.04105,-0.02991,-0.0415,-0.01343,0.00015,0.02563,-0.0705,-0.13748,0.0209,-0.03586,-0.02243,0.00824,-0.04059
3.747,0.00717,-0.04211,-0.01358,-0.05829,-0.02808,-0.03998,-0.01434,-0.00137,0.06714,-0.08728,-0.09476,0.02563,-0.03738,-0.02304,0.00748,-0.0415
3.7475,-0.00244,-0.03952,0.00015,-0.08347,-0.02975,-0.03967,-0.01648,-0.00305,0.09857,-0.1059,-0.00977,-0.0528,-0.03784,-0.02365,0.00443,-0.04211
3.748,-0.02426,-0.03586,0.01205,-0.03052,-0.03189,-0.04074,-0.01846,-0.00534,0.09628,-0.12589,0.03693,-0.18616,-0.03708,-0.02411,0.00061,-0.04105
3.7485,-0.03448,-0.03174,0.02258,0.01495,-0.03311,-0.0415,-0.0209,-0.00656,0.05524,-0.14511,0.02213,-0.24017,-0.03662,-0.02319,-0.00275,-0.04013
3.749,-0.0235,-0.03311,0.02838,0.00061,-0.03326,-0.0441,-0.02136,-0.00671,0.00656,-0.15717,-0.00031,-0.1709,-0.03571,-0.02167,-0.00275,-0.04211
3.7495,-0.00305,-0.04135,0.03693,-0.03815,-0.03372,-0.04715,-0.02045,-0.0058,-0.0061,-0.15793,0.00961,-0.07309,-0.03418,-0.01999,0.00015,-0.04272
3.75,0.01373,-0.05646,0.05173,-0.04562,-0.03418,-0.05081,-0.01816,-0.00412,0.02243,-0.14954,0.03296,-0.02304,-0.0322,-0.01923,0.00443,-0.04303
3.7505,0.02258,-0.07202,0.06546,-0.01175,-0.03464,-0.05234,-0.01648,-0.00214,0.05554,-0.13657,0.03525,0.00717,-0.03067,-0.01816,0.00809,-0.04227
3.751,0.02563,-0.08194,0.06851,0.04761,-0.0351,-0.05356,-0.01633,-0.00061,0.06226,-0.12146,0.02411,0.05844,-0.02884,-0.01556,0.01083,-0.04135
3.7515,0.02426,-0.08362,0.05966,0.11963,-0.03601,-0.05402,-0.01633,-0.00137,0.04425,-0.10513,0.03036,0.10986,-0.02838,-0.01297,0.01038,-0.04257
3.752,0.02289,-0.08102,0.04211,0.18173,-0.03693,-0.05463,-0.01373,-0.00137,0.02167,-0.09048,0.06073,0.13702,-0.02884,-0.01297,0.00824,-0.04456
3.7525,0.02319,-0.07782,0.01633,0.18967,-0.03754,-0.05386,-0.01175,-0.00137,0.00412,-0.07568,0.08865,0.14465,-0.03052,-0.01495,0.00549,-0.04623
3.753,0.02365,-0.0766,-0.01541,0.12024,-0.03815,-0.05173,-0.01099,-0.00076,-0.00916,-0.05981,0.08621,0.12009,-0.03128,-0.0174,0.00229,-0.04639
3.7535,0.01923,-0.07614,-0.04578,0.01328,-0.03738,-0.04745,-0.01099,-0.00168,-0.01541,-0.04196,0.05554,0.04166,-0.03143,-0.01831,0.00198,-0.04562
3.754,0.00488,-0.07446,-0.06439,-0.05737,-0.03479,-0.04166,-0.01129,-0.0029,-0.009,-0.02853,0.01144,-0.05295,-0.03143,-0.01724,0.00366,-0.04562
3.7545,-0.01709,-0.07095,-0.0647,-0.06622,-0.03204,-0.03555,-0.01053,-0.00351,0.00824,-0.02762,-0.02014,-0.09369,-0.03174,-0.01694,0.00381,-0.04715
3.755,-0.03647,-0.06577,-0.05295,-0.0473,-0.03052,-0.02945,-0.01236,-0.00443,0.0264,-0.0354,-0.02411,-0.07309,-0.03265,-0.01801,0.00397,-0.04745
3.7555,-0.0412,-0.06012,-0.04654,-0.05539,-0.03098,-0.02411,-0.01709,-0.00504,0.03586,-0.04425,-0.00412,-0.03113,-0.03326,-0.01999,0.00381,-0.04593
3.756,-0.0293,-0.0528,-0.05997,-0.1033,-0.03326,-0.02304,-0.0209,-0.00488,0.03555,-0.04898,0.01999,0.01282,-0.03281,-0.01984,0.00504,-0.04349
3.7565,-0.00763,-0.04196,-0.08545,-0.14832,-0.03479,-0.03281,-0.0206,-0.00443,0.02884,-0.04822,0.03571,0.05753,-0.03159,-0.01801,0.00717,-0.04242
3.757,0.0148,-0.0322,-0.10498,-0.13397,-0.03632,-0.05112,-0.0177,-0.00504,0.0119,-0.04593,0.0383,0.07202,-0.03036,-0.01694,0.00702,-0.04364
3.7575,0.02747,-0.03189,-0.11292,-0.05814,-0.03662,-0.06973,-0.01572,-0.00626,-0.02075,-0.04745,0.02869,0.03326,-0.03113,-0.01755,0.00717,-0.04471
3.758,0.02777,-0.04379,-0.11292,0.0119,-0.03647,-0.07782,-0.01648,-0.00671,-0.06287,-0.05005,0.00961,-0.02533,-0.0322,-0.01724,0.00763,-0.04364
3.7585,0.02136,-0.05508,-0.10788,0.00992,-0.03708,-0.07385,-0.01709,-0.00626,-0.09506,-0.04898,-0.01022,-0.04578,-0.0322,-0.01633,0.00824,-0.04196
3.759,0.0148,-0.05203,-0.08438,-0.05127,-0.03693,-0.06393,-0.01633,-0.00565,-0.10422,-0.04883,-0.02289,-0.02502,-0.02975,-0.01633,0.009,-0.04181
3.7595,0.00778,-0.03616,-0.03799,-0.09949,-0.03616,-0.05569,-0.01526,-0.00626,-0.08896,-0.05325,-0.03052,-0.01007,-0.02731,-0.01724,0.00839,-0.0412
3.76,-0.00259,-0.02502,0.01129,-0.09109,-0.03571,-0.05127,-0.01373,-0.00534,-0.06241,-0.05524,-0.04745,-0.01892,-0.02686,-0.01755,0.00885,-0.04166
3.7605,-0.01266,-0.0293,0.02975,-0.03799,-0.03616,-0.05127,-0.01312,-0.00458,-0.04868,-0.03769,-0.07187,-0.03235,-0.02762,-0.01648,0.01022,-0.04074
3.761,-0.01144,-0.04395,0.00885,0.03357,-0.03693,-0.05066,-0.01419,-0.00549,-0.05615,0.0,-0.07721,-0.047,-0.02838,-0.01526,0.01129,-0.03967
3.7615,-0.00214,-0.05585,-0.02945,0.11139,-0.03784,-0.05081,-0.01419,-0.00687,-0.06989,0.03967,-0.0386,-0.08514,-0.02853,-0.01526,0.01114,-0.03845
3.762,0.00488,-0.05875,-0.06119,0.16083,-0.03891,-0.05142,-0.01312,-0.00778,-0.06592,0.06424,0.03021,-0.11719,-0.02884,-0.01572,0.01053,-0.03784
3.7625,-0.00031,-0.05615,-0.08102,0.13824,-0.03922,-0.05295,-0.01144,-0.00793,-0.04288,0.07233,0.08896,-0.05219,-0.02869,-0.01785,0.01022,-0.03708
3.763,-0.0119,-0.05493,-0.09216,0.04959,-0.03723,-0.0531,-0.01007,-0.00687,-0.02182,0.06821,0.10742,0.13901,-0.0293,-0.02075,0.00961,-0.03769
3.7635,-0.02396,-0.05417,-0.09323,-0.03342,-0.03342,-0.05127,-0.01114,-0.00519,-0.01831,0.05402,0.09247,0.33035,-0.03067,-0.0235,0.009,-0.03891
3.764,-0.03387,-0.05493,-0.08423,-0.05707,-0.03143,-0.04852,-0.0116,-0.00381,-0.0235,0.03296,0.06287,0.35156,-0.03128,-0.02411,0.00931,-0.04044
3.7645,-0.04395,-0.05569,-0.06927,-0.04684,-0.03082,-0.04883,-0.01114,-0.00366,-0.02075,0.00687,0.0325,0.18997,-0.03143,-0.02258,0.00977,-0.03952
3.765,-0.05707,-0.056,-0.05295,-0.0528,-0.03128,-0.05127,-0.01007,-0.0032,-0.0148,-0.01694,-0.00168,0.0061,-0.03265,-0.02106,0.00992,-0.03708
3.7655,-0.06882,-0.05417,-0.04059,-0.07629,-0.03098,-0.05188,-0.00916,-0.00214,-0.02274,-0.03052,-0.04868,-0.05814,-0.03372,-0.02121,0.00916,-0.03784
3.766,-0.07538,-0.05127,-0.03586,-0.08591,-0.03021,-0.05142,-0.00946,-0.00061,-0.05341,-0.03265,-0.10406,-0.03433,-0.03479,-0.02167,0.00717,-0.0415
3.7665,-0.07324,-0.05127,-0.03723,-0.06424,-0.0293,-0.05127,-0.01129,0.00015,-0.09628,-0.02838,-0.14313,-0.03723,-0.03281,-0.02197,0.00626,-0.04593
3.767,-0.05936,-0.05539,-0.04059,-0.01205,-0.0293,-0.04913,-0.01343,0.0,-0.13794,-0.02975,-0.14954,-0.10284,-0.02975,-0.0209,0.00687,-0.04593
3.7675,-0.0325,-0.05798,-0.04517,0.05875,-0.02899,-0.04883,-0.01404,-0.00092,-0.16769,-0.04364,-0.13184,-0.16098,-0.02838,-0.0206,0.00717,-0.04379
3.768,-0.00153,-0.05524,-0.05249,0.09979,-0.02762,-0.04623,-0.01297,-0.00275,-0.17807,-0.07507,-0.10696,-0.14053,-0.02808,-0.01999,0.00824,-0.04181
3.7685,0.02182,-0.04929,-0.05051,0.06165,-0.02701,-0.04333,-0.01175,-0.00412,-0.17227,-0.11444,-0.07339,-0.05081,-0.0293,-0.01953,0.00839,-0.04181
3.769,0.03479,-0.04318,-0.02197,-0.03723,-0.02808,-0.04211,-0.01266,-0.00351,-0.15961,-0.1387,-0.02289,0.02213,-0.03021,-0.02014,0.00778,-0.04272
3.7695,0.04288,-0.03586,0.0325,-0.11124,-0.02823,-0.04349,-0.01419,-0.00214,-0.14069,-0.13458,0.03845,-0.00381,-0.03067,-0.02075,0.00748,-0.04379
3.77,0.04791,-0.0264,0.07477,-0.09979,-0.02792,-0.0444,-0.01373,-0.00244,-0.11108,-0.11444,0.0827,-0.10681,-0.03098,-0.02014,0.00687,-0.0441
3.7705,0.04471,-0.01999,0.06241,-0.03311,-0.02518,-0.04395,-0.01328,-0.00336,-0.07187,-0.10132,0.10162,-0.16312,-0.03265,-0.01984,0.00443,-0.04425
3.771,0.02914,-0.01862,0.0061,0.01495,-0.02411,-0.04333,-0.01297,-0.00305,-0.03891,-0.10101,0.10468,-0.07263,-0.03479,-0.01999,0.00412,-0.04517
3.7715,0.01038,-0.02289,-0.05173,0.01526,-0.02365,-0.04318,-0.01266,-0.00183,-0.02106,-0.10452,0.10239,0.11047,-0.03693,-0.02121,0.00519,-0.04288
3.772,-0.00504,-0.02502,-0.08316,0.00046,-0.0238,-0.0444,-0.01251,-0.00031,-0.01144,-0.10284,0.08545,0.21606,-0.03601,-0.02289,0.00839,-0.03952
3.7725,-0.01755,-0.02197,-0.09445,0.00595,-0.02487,-0.04486,-0.01205,-0.00046,-0.00473,-0.10071,0.03571,0.13367,-0.03433,-0.02289,0.01297,-0.03708
3.773,-0.03006,-0.01465,-0.09415,0.03082,-0.02625,-0.047,-0.0116,-0.00229,0.0,-0.10437,-0.04517,-0.07233,-0.03281,-0.02167,0.01541,-0.03464
3.7735,-0.04395,-0.00473,-0.08331,0.05402,-0.0293,-0.04929,-0.01129,-0.00244,0.00748,-0.10574,-0.13031,-0.21774,-0.03281,-0.02121,0.01587,-0.03448
3.774,-0.05844,0.00656,-0.06119,0.05798,-0.03204,-0.05142,-0.01114,-0.00061,0.03036,-0.08881,-0.17838,-0.19562,-0.03204,-0.02151,0.01297,-0.03448
3.7745,-0.06561,0.01648,-0.03571,0.03967,-0.03387,-0.05127,-0.01144,0.00015,0.06546,-0.0531,-0.16891,-0.06165,-0.03082,-0.02029,0.0119,-0.03525
3.775,-0.05737,0.01999,-0.01572,0.00778,-0.03418,-0.05035,-0.01236,0.0,0.08545,-0.01465,-0.12482,0.06775,-0.03067,-0.01862,0.00916,-0.03754
3.7755,-0.03616,0.01846,-0.00183,-0.01831,-0.03387,-0.04929,-0.01343,-0.00107,0.07263,0.00961,-0.09109,0.12207,-0.03281,-0.01709,0.00671,-0.0412
3.776,-0.01862,0.01434,0.00809,-0.02441,-0.03265,-0.04807,-0.0145,-0.00229,0.04471,0.02762,-0.09537,0.08438,-0.03418,-0.01709,0.00641,-0.04486
3.7765,-0.01541,0.00839,0.01297,-0.00687,-0.03113,-0.04761,-0.0145,-0.00183,0.0383,0.04822,-0.12024,-0.00626,-0.03296,-0.01694,0.0061,-0.04639
3.777,-0.02197,0.00168,0.00641,0.02548,-0.03036,-0.04776,-0.01495,-0.00061,0.05737,0.06897,-0.11917,-0.05585,-0.03067,-0.01709,0.00504,-0.04684
3.7775,-0.02457,-0.00687,-0.01068,0.05417,-0.03036,-0.047,-0.01511,-0.00046,0.065,0.08057,-0.0705,0.00656,-0.02884,-0.0177,0.00626,-0.04745
3.778,-0.0206,-0.02136,-0.03098,0.06454,-0.03036,-0.04776,-0.01526,-0.0029,0.0293,0.07706,-0.00854,0.14145,-0.02838,-0.01816,0.00793,-0.04517
3.7785,-0.01266,-0.04211,-0.04883,0.05463,-0.03052,-0.04822,-0.0174,-0.00595,-0.03174,0.05615,0.01633,0.23453,-0.02777,-0.01663,0.009,-0.04257
3.779,-0.009,-0.06088,-0.06149,0.03067,-0.03098,-0.04669,-0.02029,-0.00702,-0.06943,0.02594,0.01251,0.2179,-0.02808,-0.01404,0.00702,-0.04166
3.7795,-0.009,-0.06805,-0.06638,-0.00397,-0.03159,-0.04517,-0.02075,-0.0058,-0.05234,0.01297,0.03326,0.13062,-0.02823,-0.0119,0.00519,-0.04379
3.78,-0.00687,-0.06607,-0.06363,-0.03784,-0.03128,-0.04333,-0.01862,-0.0032,-0.00031,0.04166,0.08759,0.04578,-0.02884,-0.01266,0.00427,-0.04654
3.7805,0.00275,-0.06454,-0.06104,-0.05219,-0.03067,-0.04349,-0.01648,-0.00107,0.0412,0.10284,0.12878,-0.02151,-0.03067,-0.01678,0.0058,-0.04654
3.781,0.01801,-0.06851,-0.06287,-0.04639,-0.0322,-0.04288,-0.01602,-0.00061,0.05096,0.16159,0.12894,-0.10544,-0.03357,-0.01846,0.00793,-0.04349
3.7815,0.03387,-0.0737,-0.06683,-0.04471,-0.03189,-0.04181,-0.01648,-0.00137,0.04257,0.19379,0.10971,-0.20279,-0.03494,-0.01953,0.00854,-0.03998
3.782,0.04196,-0.0766,-0.06805,-0.05707,-0.03189,-0.04242,-0.01602,-0.00214,0.03998,0.19836,0.08957,-0.23392,-0.03738,-0.02014,0.00839,-0.0383
3.7825,0.04364,-0.07584,-0.07019,-0.06409,-0.03067,-0.0441,-0.01602,-0.00259,0.0441,0.18921,0.04776,-0.14023,-0.03784,-0.02014,0.00992,-0.04089
3.783,0.04028,-0.07172,-0.07309,-0.05478,-0.0293,-0.04456,-0.01785,-0.0029,0.03983,0.168,-0.02487,0.0061,-0.03784,-0.01968,0.00946,-0.04364
3.7835,0.03708,-0.06393,-0.07202,-0.04288,-0.0293,-0.04242,-0.01953,-0.00412,0.01724,0.14053,-0.09338,0.07126,-0.03723,-0.01877,0.00763,-0.04608
3.784,0.03265,-0.05035,-0.06104,-0.03738,-0.02853,-0.04257,-0.01938,-0.00534,-0.01633,0.11383,-0.12634,0.04807,-0.0354,-0.01846,0.00381,-0.04837
3.7845,0.02594,-0.03754,-0.04364,-0.0293,-0.02838,-0.04395,-0.01877,-0.00565,-0.04898,0.09583,-0.14496,0.03098,-0.03387,-0.01801,0.00275,-0.04868
3.785,0.01724,-0.03448,-0.02472,-0.0145,-0.02823,-0.047,-0.01907,-0.00534,-0.07736,0.07706,-0.16678,0.0415,-0.03372,-0.01831,0.00275,-0.047
3.7855,0.01114,-0.03906,0.00748,0.0032,-0.02853,-0.04837,-0.01816,-0.00427,-0.10269,0.04379,-0.15335,0.0029,-0.03662,-0.01816,0.00412,-0.04395
3.786,0.01129,-0.04227,0.06332,0.01633,-0.03036,-0.04807,-0.01648,-0.00305,-0.11566,-0.00275,-0.06424,-0.09445,-0.03876,-0.0177,0.00397,-0.04135
3.7865,0.01556,-0.0354,0.11581,0.02136,-0.03143,-0.04761,-0.01511,-0.00153,-0.10284,-0.04242,0.06271,-0.1535,-0.03754,-0.0177,0.00366,-0.04059
3.787,0.01709,-0.02228,0.12177,0.01846,-0.03174,-0.04868,-0.0148,-0.00153,-0.05844,-0.06058,0.15564,-0.11322,-0.03571,-0.01587,0.00473,-0.04211
3.7875,0.01236,-0.01083,0.07477,0.00198,-0.03326,-0.0502,-0.01465,-0.00229,0.00259,-0.05951,0.1857,-0.01312,-0.03311,-0.01556,0.00656,-0.04288
3.788,-0.00031,-0.00854,0.01373,-0.04868,-0.03662,-0.05356,-0.01526,-0.00412,0.05524,-0.05188,0.1799,0.08087,-0.03281,-0.01633,0.00809,-0.04288
3.7885,-0.01709,-0.01694,-0.03296,-0.14664,-0.04028,-0.05875,-0.01572,-0.00458,0.0827,-0.04807,0.15945,0.13763,-0.03357,-0.01801,0.00824,-0.04471
3.789,-0.02899,-0.03006,-0.06729,-0.24231,-0.04288,-0.06516,-0.01587,-0.00565,0.09018,-0.05325,0.12497,0.1442,-0.03372,-0.01907,0.00717,-0.047
3.7895,-0.02792,-0.0412,-0.09705,-0.26627,-0.04211,-0.06836,-0.01526,-0.00702,0.08957,-0.06378,0.08759,0.11108,-0.0322,-0.01831,0.00565,-0.047
3.79,-0.01587,-0.047,-0.11673,-0.22537,-0.03952,-0.06424,-0.01434,-0.00763,0.08377,-0.06973,0.06744,0.06424,-0.03174,-0.01724,0.00488,-0.04425
3.7905,-0.00198,-0.04837,-0.11826,-0.19608,-0.03616,-0.056,-0.01373,-0.00793,0.07233,-0.0647,0.06195,0.01144,-0.03311,-0.01678,0.00519,-0.0415
3.791,0.00656,-0.05402,-0.10849,-0.20172,-0.03433,-0.04791,-0.01205,-0.00702,0.06287,-0.04807,0.04578,-0.04288,-0.03494,-0.01785,0.00656,-0.03998
3.7915,0.01083,-0.06516,-0.10071,-0.19394,-0.03357,-0.04486,-0.01099,-0.00504,0.06561,-0.02686,0.01007,-0.06943,-0.03708,-0.01938,0.00717,-0.03922
3.792,0.01343,-0.07294,-0.09811,-0.15259,-0.03174,-0.04608,-0.01175,-0.00366,0.0737,-0.00854,-0.01556,-0.05096,-0.03815,-0.02029,0.00641,-0.03845
3.7925,0.0174,-0.06668,-0.09109,-0.11002,-0.0296,-0.04623,-0.01297,-0.00381,0.06577,0.00122,-0.01526,-0.01907,-0.03998,-0.01999,0.00656,-0.03799
3.793,0.02426,-0.0502,-0.07263,-0.06348,-0.02792,-0.04486,-0.01343,-0.00443,0.02823,0.00458,-0.00198,-0.00992,-0.04089,-0.01938,0.00854,-0.0383
3.7935,0.03006,-0.03616,-0.04623,0.04486,-0.02792,-0.04349,-0.01282,-0.00397,-0.02563,0.00397,-0.00198,-0.0145,-0.03983,-0.01984,0.00946,-0.0383
3.794,0.0235,-0.02823,-0.02441,0.23926,-0.02853,-0.04272,-0.01221,-0.00183,-0.06775,-0.00641,-0.01907,-0.00549,-0.03937,-0.02213,0.00961,-0.0386
3.7945,0.00015,-0.02136,-0.01343,0.44159,-0.02869,-0.04196,-0.01389,0.0,-0.07858,-0.02945,-0.04349,0.02182,-0.04059,-0.02396,0.00824,-0.03937
3.795,-0.0296,-0.01221,-0.01083,0.51682,-0.02792,-0.03815,-0.01587,-0.00015,-0.06638,-0.06454,-0.06622,0.04959,-0.04181,-0.02457,0.00595,-0.0415
3.7955,-0.04837,-0.00305,-0.01373,0.40771,-0.0264,-0.03479,-0.01785,-0.00183,-0.05768,-0.09247,-0.07935,0.06241,-0.04166,-0.02365,0.00473,-0.0444
3.796,-0.05707,-0.00153,-0.02167,0.20996,-0.02609,-0.03281,-0.01892,-0.00488,-0.06073,-0.09537,-0.0795,0.05707,-0.03967,-0.02274,0.00504,-0.04562
3.7965,-0.06577,-0.01144,-0.0351,0.07431,-0.02594,-0.03372,-0.01938,-0.00778,-0.06027,-0.07462,-0.06638,0.03281,-0.03845,-0.02106,0.00595,-0.04395
3.797,-0.08026,-0.03098,-0.04913,0.05051,-0.02808,-0.03571,-0.01877,-0.00702,-0.0473,-0.04318,-0.05081,-0.00702,-0.03708,-0.01785,0.00809,-0.04074
3.7975,-0.09186,-0.0473,-0.05722,0.06546,-0.03067,-0.03769,-0.01755,-0.00626,-0.03342,-0.01862,-0.03952,-0.05478,-0.03525,-0.01587,0.01175,-0.03815
3.798,-0.09232,-0.05066,-0.05478,0.04883,-0.03235,-0.04135,-0.01724,-0.00687,-0.03296,-0.01068,-0.03601,-0.09308,-0.03372,-0.01724,0.0148,-0.03586
3.7985,-0.08011,-0.04761,-0.04303,-0.00336,-0.0325,-0.04807,-0.01877,-0.00702,-0.04379,-0.01831,-0.04578,-0.10178,-0.03387,-0.01999,0.0148,-0.03555
3.799,-0.0592,-0.0531,-0.01785,-0.07141,-0.03174,-0.05798,-0.02106,-0.00626,-0.05249,-0.03494,-0.07614,-0.08301,-0.03647,-0.02258,0.01251,-0.03769
3.7995,-0.03464,-0.07065,0.02869,-0.14587,-0.03189,-0.06805,-0.02213,-0.00351,-0.06104,-0.04745,-0.12238,-0.05783,-0.03845,-0.02319,0.01007,-0.03967
3.8,-0.0116,-0.08835,0.08957,-0.19287,-0.03143,-0.07446,-0.0209,-0.00168,-0.08713,-0.04776,-0.15503,-0.02975,-0.03647,-0.02136,0.01053,-0.04044
3.8005,0.00565,-0.09506,0.13138,-0.16861,-0.0325,-0.07339,-0.01923,-0.00015,-0.13,-0.03769,-0.15976,0.01587,-0.03265,-0.01785,0.01068,-0.04074
3.801,0.02029,-0.09079,0.12268,-0.09094,-0.0322,-0.06607,-0.01877,0.00137,-0.15427,-0.02945,-0.14938,0.06058,-0.03143,-0.01526,0.00961,-0.04105
3.8015,0.03342,-0.08041,0.0705,-0.02884,-0.03052,-0.05722,-0.01678,0.00259,-0.13275,-0.0325,-0.14206,0.05951,-0.03052,-0.01373,0.00626,-0.04242
3.802,0.04257,-0.06699,0.00549,-0.01617,-0.02747,-0.05005,-0.01129,0.00107,-0.07736,-0.04425,-0.12695,0.01297,-0.0293,-0.01465,0.00305,-0.04532
3.8025,0.04349,-0.05264,-0.05066,-0.01968,-0.02731,-0.04791,-0.00122,-0.00168,-0.01953,-0.05157,-0.08957,-0.03159,-0.02762,-0.01526,0.0029,-0.047
3.803,0.03799,-0.03693,-0.09323,-0.00214,-0.0296,-0.047,0.00565,-0.00427,0.01709,-0.0473,-0.0386,-0.0499,-0.02731,-0.01572,0.00458,-0.04669
3.8035,0.03204,-0.02411,-0.11902,0.02899,-0.03143,-0.04639,0.00336,-0.00565,0.01633,-0.03296,-0.0087,-0.05905,-0.02823,-0.01602,0.00671,-0.04471
3.804,0.0293,-0.02075,-0.12756,0.05157,-0.03128,-0.04562,-0.0061,-0.00473,-0.02609,-0.0148,-0.01877,-0.06226,-0.02945,-0.01633,0.00702,-0.04288
3.8045,0.02487,-0.03006,-0.1265,0.05569,-0.02762,-0.04684,-0.01434,-0.00305,-0.07797,0.00198,-0.04913,-0.02411,-0.02914,-0.01648,0.0061,-0.04105
3.805,0.01389,-0.04532,-0.1326,0.04333,-0.02548,-0.04684,-0.01694,-0.00153,-0.08942,0.0145,-0.06485,0.06012,-0.02884,-0.0174,0.00443,-0.04105
3.8055,0.0,-0.05478,-0.1503,0.01953,-0.0264,-0.04608,-0.01587,-0.00168,-0.05371,0.01984,-0.05096,0.12741,-0.02701,-0.01785,0.00595,-0.04257
3.806,-0.00748,-0.05585,-0.16876,-0.01022,-0.0293,-0.04501,-0.01373,-0.00153,-0.01831,0.01709,-0.02213,0.11978,-0.02487,-0.01755,0.00916,-0.04395
3.8065,-0.00549,-0.05249,-0.16861,-0.03983,-0.03021,-0.04318,-0.01266,-0.00122,-0.01816,0.00626,0.00809,0.05814,-0.02213,-0.0177,0.01266,-0.04303
3.807,0.00244,-0.05127,-0.14526,-0.07019,-0.03006,-0.04211,-0.01251,-0.00168,-0.03235,-0.01022,0.04181,0.00824,-0.02197,-0.01831,0.01373,-0.0415
3.8075,0.00961,-0.05203,-0.112,-0.1059,-0.0296,-0.04288,-0.01175,-0.0032,-0.01526,-0.02838,0.07492,-0.01144,-0.02609,-0.01877,0.01099,-0.04074
3.808,0.00916,-0.05249,-0.0795,-0.14221,-0.02899,-0.04486,-0.0119,-0.00305,0.03738,-0.04364,0.09735,-0.02502,-0.02869,-0.01892,0.00778,-0.04196
3.8085,0.00107,-0.0528,-0.04486,-0.16174,-0.02884,-0.04669,-0.01312,-0.00198,0.09033,-0.05569,0.10269,-0.03937,-0.02853,-0.01724,0.00656,-0.04349
3.809,-0.00977,-0.05371,-0.01114,-0.13519,-0.02853,-0.04684,-0.0148,-0.00137,0.11566,-0.06592,0.09872,-0.03036,-0.02625,-0.01678,0.00687,-0.04379
3.8095,-0.01709,-0.05402,0.0119,-0.04822,-0.02899,-0.04684,-0.01617,-0.00168,0.11673,-0.07492,0.08896,0.0119,-0.02655,-0.01694,0.0087,-0.04318
3.81,-0.01755,-0.05417,0.01831,0.06317,-0.02884,-0.047,-0.01358,-0.00168,0.11017,-0.07797,0.07233,0.04883,-0.02884,-0.0174,0.00946,-0.04196
3.8105,-0.00961,-0.05829,0.01984,0.12405,-0.0267,-0.04822,-0.01068,-0.00183,0.10406,-0.07019,0.05142,0.04532,-0.03098,-0.0174,0.00931,-0.04074
3.811,0.00153,-0.06287,0.02228,0.09216,-0.02731,-0.0499,-0.009,-0.00259,0.09506,-0.05692,0.03082,0.02411,-0.03113,-0.01724,0.00885,-0.04044
3.8115,0.01068,-0.0621,0.01846,0.00946,-0.02991,-0.05157,-0.01022,-0.00244,0.08118,-0.04868,0.00595,0.02502,-0.03098,-0.01801,0.00778,-0.04135
3.812,0.01328,-0.05676,-0.00229,-0.04501,-0.03036,-0.05219,-0.01373,-0.00275,0.065,-0.05539,-0.03586,0.04379,-0.03204,-0.01923,0.00565,-0.04196
3.8125,0.01251,-0.05295,-0.03677,-0.04929,-0.02975,-0.05341,-0.01663,-0.0032,0.05325,-0.07935,-0.09552,0.05493,-0.03342,-0.01938,0.00427,-0.04257
3.813,0.01755,-0.05554,-0.06149,-0.03967,-0.02884,-0.05264,-0.01755,-0.00549,0.05661,-0.10956,-0.14893,0.05936,-0.03525,-0.01923,0.00534,-0.04166
3.8135,0.02853,-0.06226,-0.05951,-0.04684,-0.03159,-0.05264,-0.01755,-0.00748,0.07401,-0.12405,-0.16434,0.05905,-0.03586,-0.01968,0.00656,-0.03967
3.814,0.0412,-0.06393,-0.03586,-0.0647,-0.0354,-0.05402,-0.01862,-0.00916,0.08499,-0.10651,-0.14099,0.03036,-0.0351,-0.01999,0.0087,-0.03769
3.8145,0.04944,-0.05493,-0.01373,-0.08377,-0.03891,-0.05371,-0.01968,-0.01099,0.07111,-0.06714,-0.10117,-0.04074,-0.03418,-0.01892,0.01022,-0.03815
3.815,0.05096,-0.03662,-0.00977,-0.10727,-0.03891,-0.05264,-0.01816,-0.01053,0.03708,-0.03281,-0.05966,-0.11063,-0.03296,-0.01709,0.01053,-0.04013
3.8155,0.04486,-0.0145,-0.01663,-0.11368,-0.03769,-0.05096,-0.01526,-0.009,-0.0058,-0.0209,-0.01434,-0.1091,-0.03357,-0.01709,0.00992,-0.04257
3.816,0.03159,0.00351,-0.01877,-0.04532,-0.03876,-0.04669,-0.01419,-0.00671,-0.05692,-0.02853,0.02518,-0.0293,-0.03586,-0.01892,0.00839,-0.0444
3.8165,0.01587,0.01434,-0.01297,0.11475,-0.0386,-0.04211,-0.01572,-0.00534,-0.1091,-0.04257,0.03494,0.05722,-0.03906,-0.02014,0.00854,-0.04623
3.817,0.00107,0.0209,-0.00443,0.26627,-0.03677,-0.03922,-0.01663,-0.00473,-0.14038,-0.04623,0.00946,0.09033,-0.04105,-0.01984,0.00854,-0.04715
3.8175,-0.01114,0.02945,-0.00305,0.26169,-0.0351,-0.03845,-0.01572,-0.00519,-0.13824,-0.03174,-0.02991,0.08072,-0.03891,-0.01816,0.00809,-0.04715
3.818,-0.02502,0.03723,-0.0061,0.09186,-0.03433,-0.03937,-0.01465,-0.00702,-0.11444,-0.01495,-0.05692,0.06805,-0.03586,-0.01694,0.00885,-0.04715
3.8185,-0.04349,0.04013,-0.0119,-0.0943,-0.03418,-0.03952,-0.01511,-0.00809,-0.09033,-0.01923,-0.05585,0.04776,-0.03281,-0.0174,0.00778,-0.04715
3.819,-0.05905,0.03418,-0.01923,-0.159,-0.03418,-0.03922,-0.01648,-0.00626,-0.07141,-0.04425,-0.0322,-0.00549,-0.03296,-0.01923,0.00473,-0.04837
3.8195,-0.0592,0.0235,-0.0264,-0.11154,-0.03296,-0.04074,-0.01541,-0.0032,-0.05219,-0.06042,-0.00961,-0.06439,-0.03311,-0.02029,0.00214,-0.05188
3.82,-0.0386,0.0119,-0.03281,-0.04196,-0.03204,-0.04257,-0.01297,-0.00183,-0.03708,-0.04013,-0.00061,-0.06561,-0.03281,-0.02045,0.0032,-0.05676
3.8205,-0.01282,-0.00015,-0.03433,0.0,-0.03265,-0.04364,-0.01099,-0.00397,-0.03159,0.00656,0.00702,-0.01312,-0.03311,-0.01968,0.00549,-0.05569
3.821,0.00504,-0.01053,-0.03418,0.02686,-0.0325,-0.04456,-0.01236,-0.0058,-0.03082,0.05219,0.03448,0.00381,-0.03418,-0.02045,0.00763,-0.05081
3.8215,0.01175,-0.01663,-0.03433,0.06485,-0.02975,-0.04456,-0.01541,-0.00565,-0.02136,0.08163,0.08102,-0.06516,-0.03616,-0.02182,0.0087,-0.04562
3.822,0.0116,-0.01938,-0.03601,0.11307,-0.02777,-0.04318,-0.02045,-0.00488,-0.0029,0.09811,0.12802,-0.14252,-0.03845,-0.02655,0.00732,-0.04486
3.8225,0.01129,-0.02258,-0.04105,0.13138,-0.02838,-0.04333,-0.02853,-0.00534,0.00748,0.10162,0.16205,-0.12009,-0.03983,-0.03082,0.00458,-0.04715
3.823,0.01465,-0.02823,-0.04929,0.07263,-0.03128,-0.0444,-0.03708,-0.0061,-0.00473,0.08713,0.17136,-0.01282,-0.04028,-0.03143,0.00275,-0.04944
3.8235,0.02243,-0.0354,-0.06073,-0.04654,-0.0322,-0.04578,-0.04257,-0.00626,-0.03616,0.06058,0.14908,0.05737,-0.03983,-0.0293,0.00458,-0.04898
3.824,0.03128,-0.04364,-0.07034,-0.13855,-0.03067,-0.04578,-0.04272,-0.00565,-0.07095,0.0354,0.10757,0.02167,-0.0386,-0.02686,0.00641,-0.04623
3.8245,0.03754,-0.05188,-0.07339,-0.14297,-0.03006,-0.04471,-0.04044,-0.00534,-0.09796,0.02075,0.07706,-0.06607,-0.03662,-0.02579,0.00732,-0.04242
3.825,0.0351,-0.05798,-0.07034,-0.08713,-0.03021,-0.04379,-0.03754,-0.0058,-0.11688,0.01129,0.06882,-0.11887,-0.03479,-0.0238,0.00549,-0.0415
3.8255,0.0209,-0.06271,-0.0618,-0.03342,-0.03128,-0.04471,-0.02716,-0.00626,-0.12848,-0.00046,0.06622,-0.11459,-0.03128,-0.02136,0.00458,-0.04379
3.826,0.00031,-0.07172,-0.05096,-0.0145,-0.03235,-0.04501,-0.00275,-0.00595,-0.13138,-0.01572,0.04822,-0.07904,-0.02853,-0.01953,0.00381,-0.04562
3.8265,-0.01175,-0.08392,-0.03677,-0.01785,-0.03265,-0.04562,0.02548,-0.00519,-0.121,-0.0296,0.01373,-0.0209,-0.02686,-0.01892,0.00534,-0.04593
3.827,-0.00916,-0.08957,-0.02136,-0.02289,-0.03311,-0.04745,0.03433,-0.00488,-0.09079,-0.04074,-0.02472,0.06134,-0.02716,-0.01862,0.00565,-0.04593
3.8275,-0.00259,-0.08041,-0.00717,-0.02213,-0.03342,-0.04868,0.01953,-0.00519,-0.04211,-0.05585,-0.04684,0.12543,-0.02701,-0.0174,0.00488,-0.04593
3.828,-0.00778,-0.06302,0.00092,-0.01999,-0.03357,-0.04822,-0.00275,-0.00473,0.009,-0.07538,-0.04028,0.12115,-0.02563,-0.01526,0.00534,-0.04364
3.8285,-0.02594,-0.05112,-0.00076,-0.02243,-0.03433,-0.04654,-0.01266,-0.00305,0.04135,-0.09109,-0.01709,0.07202,-0.02441,-0.01236,0.00656,-0.03983
3.829,-0.03937,-0.04837,-0.0119,-0.02945,-0.03479,-0.04517,-0.01099,-0.00122,0.06241,-0.09506,0.00122,0.0386,-0.02365,-0.01038,0.00839,-0.03754
3.8295,-0.03326,-0.04929,-0.02579,-0.03403,-0.03403,-0.04486,-0.00748,0.00031,0.09048,-0.09247,-0.00031,0.03021,-0.02319,-0.00931,0.00977,-0.03799
3.83,-0.01541,-0.04837,-0.03647,-0.03098,-0.03113,-0.04471,-0.00595,0.0,0.12558,-0.09796,-0.02121,0.01785,-0.02411,-0.00961,0.01083,-0.03998
3.8305,-0.00946,-0.04791,-0.04196,-0.02304,-0.03067,-0.04364,-0.00549,-0.00183,0.14252,-0.11719,-0.06729,0.00259,-0.02686,-0.01251,0.01099,-0.04013
3.831,-0.02396,-0.05173,-0.04395,-0.01541,-0.03265,-0.04379,-0.00778,-0.0032,0.11917,-0.13794,-0.14816,0.01587,-0.03006,-0.01633,0.01038,-0.03876
3.8315,-0.04395,-0.05844,-0.04196,-0.0116,-0.03342,-0.04456,-0.0116,-0.00214,0.05585,-0.14526,-0.26199,0.05707,-0.03159,-0.01892,0.01068,-0.03693
3.832,-0.04349,-0.06714,-0.03448,-0.00885,-0.03204,-0.04501,-0.01633,-0.00122,-0.02472,-0.14236,-0.3746,0.0676,-0.03143,-0.01923,0.0116,-0.03555
3.8325,-0.02426,-0.0737,-0.02304,-0.00137,-0.03067,-0.04578,-0.01923,-0.00259,-0.08408,-0.13977,-0.42831,-0.00763,-0.03128,-0.01846,0.0119,-0.03616
3.833,-0.01282,-0.07248,-0.01022,0.01099,-0.03082,-0.04715,-0.01877,-0.00443,-0.09491,-0.12939,-0.38727,-0.13977,-0.02975,-0.01678,0.01022,-0.03845
3.8335,-0.02274,-0.06454,0.00275,0.02441,-0.03265,-0.05234,-0.01572,-0.00473,-0.06943,-0.09857,-0.27466,-0.22247,-0.03006,-0.01648,0.00702,-0.04272
3.834,-0.0386,-0.05737,0.01373,0.0267,-0.03372,-0.05737,-0.00885,-0.00351,-0.047,-0.04486,-0.14221,-0.18845,-0.03189,-0.01801,0.00473,-0.04593
3.8345,-0.0412,-0.05402,0.02106,0.01556,-0.03296,-0.06149,-0.00061,-0.00366,-0.05356,0.0174,-0.02548,-0.08331,-0.03525,-0.01999,0.00504,-0.04608
3.835,-0.0354,-0.05417,0.01862,0.00183,-0.03204,-0.0621,0.00473,-0.00412,-0.07172,0.06668,0.07019,0.00015,-0.03693,-0.02167,0.00626,-0.04196
3.8355,-0.03067,-0.05554,0.00748,-0.00488,-0.03143,-0.05981,0.00427,-0.00427,-0.06561,0.09277,0.14404,0.03204,-0.03723,-0.02258,0.0087,-0.03906
3.836,-0.02914,-0.05936,-0.00381,-0.01419,-0.03021,-0.05737,-0.00137,-0.00443,-0.02487,0.1004,0.19241,0.04822,-0.03632,-0.02258,0.0087,-0.03784
3.8365,-0.02304,-0.06363,-0.01083,-0.03922,-0.02914,-0.05569,-0.00931,-0.00473,0.02518,0.09857,0.21027,0.08347,-0.03586,-0.02228,0.00809,-0.0383
3.837,-0.01236,-0.06317,-0.01404,-0.07187,-0.03006,-0.05386,-0.01877,-0.00534,0.05325,0.08789,0.19989,0.12924,-0.03525,-0.02045,0.00671,-0.03754
3.8375,-0.00259,-0.05859,-0.01221,-0.08301,-0.03113,-0.0528,-0.02777,-0.00473,0.04608,0.05981,0.16647,0.13351,-0.03418,-0.0174,0.00717,-0.0351
3.838,-0.00015,-0.05676,-0.00397,-0.04822,-0.03265,-0.0502,-0.03738,-0.00275,0.01419,0.01572,0.12634,0.05783,-0.03403,-0.01556,0.00809,-0.03387
3.8385,-0.0032,-0.06409,0.00641,0.01343,-0.03113,-0.04852,-0.04562,-0.00015,-0.02289,-0.02029,0.0882,-0.04944,-0.03448,-0.0177,0.009,-0.03525
3.839,-0.00565,-0.07904,0.01083,0.04257,-0.0296,-0.04776,-0.0502,0.00076,-0.05112,-0.02289,0.04181,-0.09644,-0.03494,-0.02014,0.00977,-0.0386
3.8395,-0.00519,-0.08972,0.00824,0.00748,-0.02869,-0.047,-0.04807,0.00046,-0.06699,0.00565,-0.01968,-0.06256,-0.03433,-0.02151,0.00977,-0.03937
3.84,-0.00595,-0.08835,0.01053,-0.05005,-0.02869,-0.04639,-0.03555,0.00031,-0.07248,0.03998,-0.0708,-0.02701,-0.03311,-0.02121,0.01022,-0.03754
3.8405,-0.0116,-0.07782,0.01511,-0.07263,-0.02899,-0.04608,-0.01221,0.0,-0.05997,0.05829,-0.07339,-0.03876,-0.03143,-0.01968,0.01083,-0.03647
3.841,-0.02106,-0.06744,0.00168,-0.05005,-0.02991,-0.047,0.01419,-0.00153,-0.02014,0.05936,-0.03235,-0.04578,-0.03098,-0.01877,0.01129,-0.03876
3.8415,-0.02853,-0.06058,-0.03845,-0.01785,-0.03098,-0.04745,0.03082,-0.00336,0.03738,0.05753,0.01114,0.00351,-0.03098,-0.01801,0.01038,-0.04211
3.842,-0.03342,-0.05615,-0.08362,-0.00305,-0.03189,-0.04761,0.02945,-0.00381,0.08331,0.05692,0.03067,0.06897,-0.03021,-0.01877,0.00702,-0.04456
3.8425,-0.03433,-0.05035,-0.11139,-0.00061,-0.03281,-0.04761,0.01953,-0.00168,0.09766,0.05096,0.03418,0.08057,-0.02792,-0.01831,0.00427,-0.04471
3.843,-0.03448,-0.04379,-0.12024,0.00687,-0.03387,-0.04807,0.01083,0.00076,0.08408,0.03891,0.04211,0.03601,-0.02609,-0.01801,0.00336,-0.04456
3.8435,-0.03204,-0.0386,-0.12009,0.02518,-0.03326,-0.04913,0.00412,0.00198,0.0499,0.01923,0.06958,-0.01801,-0.02548,-0.01648,0.00351,-0.04395
3.844,-0.03021,-0.03006,-0.11536,0.03693,-0.03189,-0.04974,-0.00305,0.00031,-0.00046,-0.00443,0.10696,-0.04211,-0.02594,-0.01434,0.00534,-0.04288
3.8445,-0.02792,-0.01358,-0.10452,0.02258,-0.03143,-0.0473,-0.01038,-0.00076,-0.05447,-0.0267,0.11703,-0.0238,-0.02518,-0.01282,0.00702,-0.04166
3.845,-0.02487,0.0058,-0.08698,-0.01541,-0.03281,-0.04135,-0.01465,-0.00244,-0.09506,-0.03784,0.0708,0.02869,-0.02457,-0.01404,0.00732,-0.04089
3.8455,-0.01709,0.01556,-0.06851,-0.0473,-0.03433,-0.03311,-0.01877,-0.00473,-0.1207,-0.02838,-0.00214,0.07248,-0.02579,-0.0174,0.00824,-0.04211
3.846,-0.00214,0.00946,-0.05417,-0.04486,-0.03372,-0.02579,-0.02304,-0.00809,-0.1416,-0.00534,-0.04135,0.07004,-0.02762,-0.01984,0.00763,-0.04379
3.8465,0.01495,-0.00809,-0.04776,-0.01068,-0.03311,-0.02167,-0.02441,-0.00946,-0.16693,0.0174,-0.03235,0.04517,-0.02792,-0.01968,0.0058,-0.04379
3.847,0.02167,-0.0238,-0.04486,0.02274,-0.03372,-0.01923,-0.02274,-0.00702,-0.19089,0.02731,-0.0235,0.04501,-0.02731,-0.0177,0.00488,-0.04272
3.8475,0.01465,-0.02991,-0.04318,0.02686,-0.03464,-0.01862,-0.02014,-0.00534,-0.19897,0.01968,-0.04745,0.05569,-0.02686,-0.01587,0.00656,-0.03922
3.848,0.00336,-0.0267,-0.0383,0.00168,-0.03296,-0.01984,-0.01892,-0.00397,-0.17731,-0.00458,-0.08057,0.02014,-0.02869,-0.01495,0.0087,-0.03662
3.8485,-0.00305,-0.02213,-0.03967,-0.02319,-0.03174,-0.02304,-0.01862,-0.00397,-0.12466,-0.03876,-0.08545,-0.0502,-0.03174,-0.01495,0.01038,-0.0351
3.849,-0.0087,-0.01984,-0.05249,-0.01816,-0.02991,-0.02823,-0.01892,-0.0032,-0.05234,-0.06531,-0.06104,-0.08331,-0.03372,-0.01572,0.01099,-0.03708
3.8495,-0.02182,-0.01877,-0.06912,0.01343,-0.02914,-0.03616,-0.02106,-0.0029,0.01495,-0.06561,-0.0351,-0.05661,-0.03448,-0.01862,0.009,-0.0412
3.85,-0.04074,-0.01709,-0.0795,0.04395,-0.03067,-0.04822,-0.02487,-0.00458,0.05371,-0.0444,-0.02518,-0.02716,-0.03479,-0.0206,0.00748,-0.04562
3.8505,-0.05325,-0.01678,-0.07813,0.04898,-0.0325,-0.0621,-0.02426,-0.00717,0.05737,-0.02289,-0.02655,-0.04181,-0.03448,-0.01923,0.0061,-0.04639
3.851,-0.05035,-0.0206,-0.06927,0.03098,-0.03525,-0.07355,-0.01892,-0.00809,0.04501,-0.01434,-0.02991,-0.08957,-0.03265,-0.01633,0.00626,-0.04425
3.8515,-0.03326,-0.03006,-0.05554,0.00595,-0.0354,-0.07904,-0.01175,-0.00687,0.04318,-0.01709,-0.03693,-0.11246,-0.03143,-0.01495,0.00732,-0.04181
3.852,-0.00824,-0.03799,-0.03998,-0.01358,-0.03555,-0.08148,-0.00854,-0.00504,0.0592,-0.02121,-0.05508,-0.05936,-0.03098,-0.01648,0.00839,-0.04242
3.8525,0.0145,-0.0412,-0.02213,-0.02747,-0.03525,-0.08469,-0.01068,-0.00351,0.07767,-0.0238,-0.08133,0.03799,-0.03235,-0.01907,0.00885,-0.04547
3.853,0.02945,-0.04196,0.00305,-0.03159,-0.03479,-0.08728,-0.01389,-0.00305,0.08026,-0.0267,-0.0975,0.08286,-0.03311,-0.02121,0.00732,-0.04761
3.8535,0.03586,-0.04272,0.03448,-0.02121,-0.03403,-0.08499,-0.01511,-0.00275,0.06409,-0.02975,-0.09857,0.02777,-0.03448,-0.02167,0.00626,-0.04745
3.854,0.03983,-0.04364,0.05707,-0.00336,-0.03403,-0.07278,-0.01404,-0.00168,0.04532,-0.03082,-0.09476,-0.05432,-0.03616,-0.02167,0.00641,-0.04684
3.8545,0.04257,-0.04257,0.05722,0.00702,-0.03403,-0.0563,-0.01373,-0.00168,0.03983,-0.03189,-0.0946,-0.04379,-0.03769,-0.02197,0.0087,-0.04517
3.855,0.04044,-0.03983,0.03174,0.00809,-0.03387,-0.04257,-0.0148,-0.00259,0.0531,-0.03281,-0.10635,0.06058,-0.0383,-0.02258,0.01129,-0.04333
3.8555,0.0325,-0.04135,-0.00504,0.00809,-0.03311,-0.03845,-0.01556,-0.0032,0.07462,-0.03571,-0.13351,0.12573,-0.0386,-0.02335,0.01312,-0.04318
3.856,0.02426,-0.04822,-0.03494,0.00275,-0.03281,-0.04089,-0.01648,-0.00443,0.08377,-0.03708,-0.15869,0.05722,-0.03922,-0.02365,0.01251,-0.04211
3.8565,0.02258,-0.05661,-0.04944,-0.01602,-0.03464,-0.04471,-0.01862,-0.00565,0.07034,-0.0322,-0.14954,-0.06485,-0.0386,-0.02197,0.00931,-0.04196
3.857,0.02243,-0.06256,-0.05295,-0.04288,-0.03479,-0.04623,-0.02014,-0.00626,0.0415,-0.0174,-0.09842,-0.11887,-0.03571,-0.01953,0.0061,-0.04333
3.8575,0.01205,-0.06592,-0.05234,-0.06378,-0.03403,-0.047,-0.02045,-0.00519,0.01266,0.00275,-0.03174,-0.10818,-0.0325,-0.01846,0.00275,-0.04807
3.858,-0.00702,-0.0679,-0.04944,-0.06927,-0.03357,-0.04852,-0.02121,-0.00427,-0.01205,0.01587,0.0174,-0.0856,-0.03296,-0.01938,0.00214,-0.05035
3.8585,-0.02518,-0.06851,-0.04593,-0.05692,-0.03525,-0.05173,-0.02426,-0.00381,-0.04105,0.01938,0.04105,-0.01266,-0.03616,-0.02182,0.00473,-0.04807
3.859,-0.03601,-0.06485,-0.04288,-0.0351,-0.03769,-0.0528,-0.02914,-0.0032,-0.07278,0.01846,0.05508,0.16373,-0.03937,-0.02258,0.00854,-0.04364
3.8595,-0.0441,-0.05493,-0.04242,-0.01846,-0.03693,-0.04868,-0.0322,-0.00305,-0.09552,0.01755,0.07675,0.33813,-0.03845,-0.02121,0.01251,-0.04044
3.86,-0.05005,-0.04333,-0.03998,-0.01205,-0.03113,-0.04272,-0.0293,-0.00351,-0.10239,0.01495,0.10376,0.32959,-0.03738,-0.02014,0.01495,-0.03906
3.8605,-0.05295,-0.03433,-0.03815,-0.00854,-0.02716,-0.04242,-0.01694,-0.00397,-0.0943,0.01114,0.11856,0.11826,-0.03601,-0.0209,0.01541,-0.0383
3.861,-0.04852,-0.02777,-0.03571,-0.00671,-0.02579,-0.04837,0.00015,-0.00351,-0.07828,0.0116,0.11246,-0.1152,-0.03448,-0.02258,0.01541,-0.03586
3.8615,-0.03738,-0.01831,-0.03616,-0.02243,-0.02579,-0.05524,0.01038,-0.00305,-0.06104,0.01144,0.09064,-0.1915,-0.03281,-0.02167,0.01495,-0.03616
3.862,-0.02319,-0.0061,-0.03708,-0.06241,-0.02365,-0.05676,0.00504,-0.00336,-0.0441,0.0058,0.06638,-0.09491,-0.03357,-0.02167,0.01221,-0.03799
3.8625,-0.00977,0.00168,-0.03601,-0.10773,-0.02151,-0.05463,-0.00778,-0.00504,-0.0264,-0.00702,0.04364,0.04501,-0.03555,-0.02243,0.00778,-0.04211
3.863,0.0,0.00122,-0.03204,-0.12222,-0.02151,-0.05249,-0.01617,-0.00671,-0.01083,-0.0235,0.01984,0.09262,-0.03708,-0.02335,0.00458,-0.0441
3.8635,0.00504,-0.00595,-0.02747,-0.09918,-0.02319,-0.04837,-0.01526,-0.00641,-0.00473,-0.04028,0.0,0.02731,-0.03677,-0.02228,0.00259,-0.04272
3.864,0.00534,-0.01175,-0.02289,-0.0563,-0.02487,-0.04318,-0.01175,-0.00534,-0.00992,-0.05997,-0.01053,-0.06302,-0.03616,-0.01999,0.00046,-0.04196
3.8645,0.00595,-0.01282,-0.0087,-0.01892,-0.02655,-0.04074,-0.01022,-0.00381,-0.01434,-0.08881,-0.01663,-0.1001,-0.03494,-0.01953,-0.00229,-0.04318
3.865,0.00961,-0.01312,0.03128,0.00397,-0.02747,-0.03952,-0.01251,-0.00336,-0.00748,-0.12695,-0.03021,-0.06821,-0.03418,-0.02014,-0.00259,-0.04654
3.8655,0.01205,-0.01709,0.10376,0.01434,-0.02701,-0.03937,-0.01434,-0.00412,0.00397,-0.15778,-0.05432,0.00412,-0.03296,-0.02136,-0.00214,-0.0499
3.866,0.00931,-0.02594,0.17349,0.01831,-0.02777,-0.03952,-0.01556,-0.0058,0.00702,-0.15793,-0.07065,0.06973,-0.03357,-0.01938,-0.00046,-0.05081
3.8665,0.00397,-0.03586,0.19028,0.02167,-0.03006,-0.03891,-0.01541,-0.00763,0.00275,-0.12436,-0.06561,0.09155,-0.03387,-0.01709,-0.00015,-0.0502
3.867,0.00122,-0.04395,0.13306,0.02579,-0.03113,-0.03815,-0.01495,-0.0087,0.00153,-0.07156,-0.04593,0.0708,-0.0354,-0.01572,0.00015,-0.04898
3.8675,0.00198,-0.05035,0.03571,0.02518,-0.03326,-0.03677,-0.01572,-0.00885,0.00183,-0.02304,-0.02609,0.0322,-0.03632,-0.01663,0.00305,-0.04822
3.868,0.00259,-0.05524,-0.05402,0.01404,-0.03372,-0.03815,-0.01694,-0.00763,-0.00397,0.00443,-0.02029,-0.0145,-0.03647,-0.01862,0.0058,-0.04578
3.8685,0.00198,-0.05615,-0.1152,0.00214,-0.03448,-0.04395,-0.01663,-0.00626,-0.01419,0.00916,-0.04166,-0.06714,-0.03479,-0.01907,0.00732,-0.04303
3.869,0.00107,-0.05264,-0.15015,0.00198,-0.03693,-0.05173,-0.0148,-0.0058,-0.01404,0.00473,-0.09232,-0.09506,-0.03357,-0.01999,0.00793,-0.04074
3.8695,0.00381,-0.04471,-0.16113,0.01114,-0.03799,-0.06027,-0.01282,-0.00443,0.00671,0.01022,-0.14145,-0.06271,-0.03311,-0.02014,0.009,-0.03891
3.87,0.00687,-0.03601,-0.15778,0.00748,-0.03677,-0.07126,-0.01297,-0.00351,0.0351,0.02945,-0.1474,0.01175,-0.03418,-0.01999,0.01221,-0.03632
3.8705,0.00916,-0.02609,-0.15182,-0.02518,-0.03433,-0.08087,-0.01404,-0.00198,0.05173,0.04974,-0.1059,0.05264,-0.03555,-0.01892,0.0148,-0.03632
3.871,0.00854,-0.01907,-0.14877,-0.07629,-0.03342,-0.07858,-0.0145,-0.00092,0.04822,0.05569,-0.05737,0.01312,-0.03632,-0.01785,0.01434,-0.03708
3.8715,0.00443,-0.01801,-0.14221,-0.10559,-0.03372,-0.06165,-0.01495,-0.00076,0.03174,0.04852,-0.02991,-0.0618,-0.03632,-0.0174,0.01312,-0.0386
3.872,-0.00046,-0.02106,-0.12909,-0.06149,-0.03464,-0.03906,-0.01663,-0.00107,0.00748,0.03983,-0.00839,-0.08224,-0.03479,-0.01831,0.0119,-0.03845
3.8725,-0.00198,-0.02335,-0.112,0.06668,-0.03571,-0.02396,-0.01892,-0.00046,-0.02808,0.0383,0.02655,-0.03403,-0.03387,-0.01953,0.01175,-0.03738
3.873,0.00137,-0.02151,-0.09552,0.19775,-0.03601,-0.01877,-0.0209,-0.00076,-0.07126,0.04166,0.06805,0.01083,-0.03403,-0.02014,0.01221,-0.03677
3.8735,0.0058,-0.02075,-0.07935,0.22186,-0.03616,-0.01892,-0.02228,-0.00153,-0.10513,0.04333,0.09369,0.01328,-0.03372,-0.01938,0.01007,-0.03677
3.874,0.01007,-0.02274,-0.0647,0.12695,-0.03479,-0.02304,-0.02151,-0.00137,-0.11536,0.03952,0.09903,0.01526,-0.03326,-0.01831,0.00732,-0.03632
3.8745,0.01358,-0.02716,-0.05295,0.01266,-0.03433,-0.03326,-0.0206,-0.00198,-0.09659,0.02945,0.09476,0.04654,-0.03082,-0.01785,0.00641,-0.03616
3.875,0.01602,-0.03281,-0.047,-0.03555,-0.03494,-0.04608,-0.02182,-0.00214,-0.05402,0.01724,0.08652,0.06104,-0.0293,-0.01755,0.00671,-0.03754
3.8755,0.01495,-0.04059,-0.04486,-0.02304,-0.0354,-0.056,-0.02121,-0.00366,0.00137,0.01251,0.0737,0.01526,-0.02869,-0.01755,0.00732,-0.04013
3.876,0.01312,-0.05188,-0.04501,-0.00168,-0.03616,-0.05814,-0.01816,-0.00504,0.047,0.01556,0.05066,-0.05646,-0.02853,-0.01678,0.00778,-0.0412
3.8765,0.01587,-0.06897,-0.04623,0.00275,-0.03677,-0.05768,-0.01358,-0.00549,0.06042,0.01846,0.02502,-0.09033,-0.0293,-0.01801,0.0087,-0.04013
3.877,0.02274,-0.08759,-0.04883,-0.00397,-0.03708,-0.05783,-0.00931,-0.00473,0.0386,0.01465,0.01526,-0.07095,-0.02914,-0.01938,0.009,-0.03845
3.8775,0.02594,-0.09995,-0.04944,-0.00946,-0.03769,-0.05905,-0.00732,-0.00336,-0.00717,0.00122,0.03082,-0.03052,-0.02884,-0.01938,0.00763,-0.03937
3.878,0.01923,-0.10193,-0.04837,-0.00824,-0.03922,-0.05936,-0.00809,-0.00412,-0.06012,-0.01541,0.04669,0.00198,-0.02899,-0.01678,0.00595,-0.0412
3.8785,0.00656,-0.09537,-0.04456,-0.00458,-0.03937,-0.05783,-0.01175,-0.00534,-0.09857,-0.02869,0.02075,0.02243,-0.02991,-0.0145,0.00488,-0.04105
3.879,0.00061,-0.08652,-0.03967,-0.00763,-0.03784,-0.05234,-0.01495,-0.0061,-0.10406,-0.0354,-0.06424,0.03281,-0.03204,-0.01526,0.00717,-0.03998
3.8795,0.00504,-0.0769,-0.02975,-0.01709,-0.03342,-0.04318,-0.01556,-0.0058,-0.07553,-0.03891,-0.168,0.02274,-0.03265,-0.01755,0.01068,-0.03998
3.88,0.01343,-0.06653,0.00168,-0.02457,-0.02792,-0.0322,-0.01297,-0.00473,-0.04105,-0.04791,-0.23331,-0.01373,-0.03159,-0.0177,0.01129,-0.0412
3.8805,0.01663,-0.06195,0.06393,-0.02472,-0.0238,-0.02335,-0.01022,-0.00504,-0.03189,-0.06561,-0.2478,-0.05035,-0.03113,-0.01663,0.01007,-0.04257
3.881,0.01068,-0.06653,0.13443,-0.0209,-0.02319,-0.02075,-0.00977,-0.00519,-0.04593,-0.08728,-0.23697,-0.0386,-0.03067,-0.0148,0.00839,-0.0415
3.8815,-0.0058,-0.07233,0.16266,-0.01999,-0.02579,-0.02426,-0.01038,-0.00412,-0.05692,-0.10208,-0.19867,0.04501,-0.0322,-0.0148,0.00992,-0.03784
3.882,-0.02701,-0.06912,0.12939,-0.02411,-0.02945,-0.03174,-0.01175,-0.00366,-0.0473,-0.10727,-0.11383,0.15884,-0.03326,-0.01617,0.01297,-0.03357
3.8825,-0.04715,-0.05676,0.06317,-0.03036,-0.03143,-0.03906,-0.01221,-0.00412,-0.01724,-0.11261,0.00229,0.21637,-0.03311,-0.01587,0.01755,-0.03006
3.883,-0.05905,-0.04578,0.00153,-0.03296,-0.03281,-0.0441,-0.01266,-0.00397,0.02213,-0.11734,0.10422,0.16022,-0.0322,-0.01419,0.02029,-0.02777
3.8835,-0.05905,-0.04028,-0.04486,-0.03098,-0.03189,-0.04639,-0.01373,-0.00214,0.0531,-0.11337,0.15961,0.01266,-0.0322,-0.01312,0.01907,-0.02914
3.884,-0.05188,-0.03754,-0.0827,-0.02945,-0.03021,-0.04715,-0.0145,-0.00275,0.06561,-0.09705,0.17761,-0.13062,-0.03311,-0.01495,0.01266,-0.03448
3.8845,-0.04532,-0.03265,-0.11276,-0.03021,-0.02975,-0.04883,-0.01465,-0.00412,0.06699,-0.07309,0.17944,-0.18845,-0.03357,-0.01724,0.00458,-0.04196
3.885,-0.04395,-0.02731,-0.12955,-0.02975,-0.03052,-0.05005,-0.01175,-0.00519,0.0679,-0.0473,0.17578,-0.17181,-0.03342,-0.01785,0.00031,-0.04868
3.8855,-0.04395,-0.02411,-0.13123,-0.02655,-0.03265,-0.05203,-0.00961,-0.00443,0.06226,-0.02579,0.16357,-0.12421,-0.03357,-0.01755,0.00183,-0.05051
3.886,-0.03937,-0.02502,-0.12543,-0.02533,-0.03448,-0.05249,-0.009,-0.00305,0.03525,-0.00946,0.1387,-0.04608,-0.03494,-0.0177,0.00595,-0.04959
3.8865,-0.03189,-0.0293,-0.11765,-0.0412,-0.03464,-0.05219,-0.00961,-0.00259,-0.00778,-0.00366,0.10117,0.04623,-0.03479,-0.01709,0.00839,-0.04608
3.887,-0.02487,-0.03464,-0.10513,-0.08392,-0.0351,-0.05096,-0.00961,-0.00275,-0.04089,-0.00717,0.05905,0.07492,-0.03082,-0.01572,0.00748,-0.04395
3.8875,-0.01953,-0.03571,-0.07782,-0.12909,-0.03616,-0.0502,-0.0087,-0.00214,-0.04242,-0.01526,0.02121,0.01892,-0.02777,-0.0145,0.00458,-0.04517
3.888,-0.0145,-0.02991,-0.02869,-0.12924,-0.03555,-0.04837,-0.00977,-0.00229,-0.01785,-0.02014,-0.00778,-0.05112,-0.02869,-0.01526,0.00183,-0.04715
3.8885,-0.00961,-0.02319,0.02884,-0.08713,-0.03128,-0.04349,-0.01266,-0.00366,0.00549,-0.02243,-0.02762,-0.09109,-0.03189,-0.01633,-0.00015,-0.04883
3.889,-0.0058,-0.02548,0.06058,-0.08057,-0.02838,-0.0383,-0.01389,-0.00534,0.01495,-0.02625,-0.04059,-0.11719,-0.03189,-0.01694,0.00015,-0.04745
3.8895,-0.00336,-0.03662,0.04776,-0.15656,-0.02777,-0.03662,-0.01343,-0.00565,0.02182,-0.03815,-0.04837,-0.1091,-0.03067,-0.01617,0.00351,-0.04349
3.89,-0.00687,-0.05127,0.00595,-0.24902,-0.02869,-0.04227,-0.01282,-0.00397,0.04074,-0.05447,-0.056,-0.03906,-0.02914,-0.01541,0.00748,-0.0383
3.8905,-0.01892,-0.06317,-0.03815,-0.23666,-0.03036,-0.05173,-0.01282,-0.0032,0.06241,-0.065,-0.0647,0.03983,-0.02823,-0.01495,0.00992,-0.03647
3.891,-0.03342,-0.06958,-0.06989,-0.05234,-0.03296,-0.06256,-0.01404,-0.00381,0.07004,-0.06332,-0.07553,0.06119,-0.02731,-0.01297,0.00916,-0.03922
3.8915,-0.03784,-0.06866,-0.08987,0.24048,-0.03494,-0.07019,-0.01373,-0.00519,0.05707,-0.05798,-0.08575,0.05997,-0.02731,-0.01144,0.00534,-0.04623
3.892,-0.02686,-0.06012,-0.09872,0.44586,-0.03571,-0.0708,-0.01373,-0.00565,0.02747,-0.05905,-0.09415,0.09537,-0.02792,-0.01144,0.00153,-0.05173
3.8925,-0.00931,-0.04501,-0.0972,0.38895,-0.03525,-0.06638,-0.01358,-0.00504,-0.00992,-0.0676,-0.09918,0.12787,-0.02899,-0.01358,0.0,-0.05402
3.893,0.00519,-0.03067,-0.08728,0.12039,-0.03372,-0.06073,-0.01556,-0.00351,-0.04425,-0.07401,-0.10406,0.0856,-0.03021,-0.01587,0.00259,-0.0528
3.8935,0.01373,-0.02457,-0.0737,-0.10956,-0.03235,-0.05569,-0.01709,-0.0032,-0.07156,-0.07584,-0.11169,0.00763,-0.03204,-0.01846,0.00412,-0.04944
3.894,0.01785,-0.02945,-0.06287,-0.12863,-0.03204,-0.05173,-0.01862,-0.00473,-0.09674,-0.07523,-0.11932,-0.01602,-0.03372,-0.01968,0.00488,-0.047
3.8945,0.01938,-0.03967,-0.0621,0.02136,-0.03281,-0.04868,-0.01724,-0.00504,-0.11734,-0.07233,-0.12283,0.00534,-0.0351,-0.02258,0.0061,-0.04578
3.895,0.02151,-0.04761,-0.0676,0.19958,-0.03204,-0.04745,-0.01541,-0.00336,-0.12512,-0.06454,-0.11673,-0.00671,-0.03677,-0.02487,0.00656,-0.04532
3.8955,0.02914,-0.05142,-0.07141,0.29861,-0.03082,-0.04898,-0.01541,-0.00153,-0.1152,-0.0499,-0.09506,-0.05798,-0.03845,-0.0264,0.00626,-0.04608
3.896,0.04364,-0.05585,-0.06943,0.27283,-0.02869,-0.05051,-0.01785,-0.00061,-0.09354,-0.02853,-0.05295,-0.08087,-0.0386,-0.02609,0.00565,-0.04639
3.8965,0.06332,-0.06485,-0.06317,0.15488,-0.02777,-0.05142,-0.01892,-0.00275,-0.06882,-0.00397,-0.0029,-0.04822,-0.03799,-0.02518,0.0058,-0.04654
3.897,0.08331,-0.0737,-0.05951,0.0296,-0.03036,-0.05051,-0.01694,-0.00397,-0.03998,0.01694,0.0264,-0.00107,-0.03708,-0.02548,0.00717,-0.04578
3.8975,0.09842,-0.07385,-0.06088,-0.05371,-0.03128,-0.04837,-0.01495,-0.0029,-0.01404,0.02731,0.01526,0.02014,-0.03693,-0.02686,0.00793,-0.04349
3.898,0.09888,-0.06317,-0.0563,-0.08545,-0.02945,-0.04669,-0.01419,-0.00137,-0.00641,0.02533,-0.01251,0.02136,-0.03586,-0.02625,0.00839,-0.04242
3.8985,0.07965,-0.04761,-0.03952,-0.04684,-0.02686,-0.04639,-0.01419,-0.00183,-0.02441,0.01968,-0.00992,0.02258,-0.03281,-0.02457,0.00702,-0.04333
3.899,0.04623,-0.03387,-0.01511,0.04822,-0.02563,-0.04608,-0.01343,-0.0032,-0.05341,0.02228,0.0351,0.02655,-0.03128,-0.0235,0.00458,-0.04715
3.8995,0.01099,-0.02533,0.00443,0.11032,-0.02716,-0.0441,-0.01266,-0.00351,-0.07324,0.03571,0.08591,0.02777,-0.03265,-0.02426,0.00351,-0.04791
3.9,-0.01663,-0.01984,0.01419,0.06256,-0.02747,-0.04288,-0.01221,-0.00229,-0.07782,0.05066,0.1059,0.02823,-0.03372,-0.02472,0.00473,-0.04425
3.9005,-0.0354,-0.0174,0.02289,-0.05356,-0.02792,-0.04379,-0.01358,-0.00031,-0.07568,0.05722,0.09842,0.02762,-0.03235,-0.02365,0.00671,-0.03967
3.901,-0.04837,-0.02075,0.0354,-0.1326,-0.02884,-0.047,-0.02045,0.0,-0.07156,0.05661,0.08606,0.01755,-0.03036,-0.02151,0.00916,-0.03738
3.9015,-0.05219,-0.0296,0.04242,-0.12238,-0.03098,-0.04791,-0.03082,-0.00137,-0.05966,0.05417,0.07187,-0.00473,-0.02853,-0.01923,0.00824,-0.03799
3.902,-0.04349,-0.04089,0.03326,-0.0592,-0.03189,-0.04593,-0.03784,-0.00153,-0.03876,0.05646,0.05035,-0.03036,-0.02853,-0.0177,0.00717,-0.03922
3.9025,-0.02502,-0.04883,0.01114,-0.00854,-0.0325,-0.0444,-0.03632,-0.00259,-0.01633,0.06302,0.02243,-0.0444,-0.0293,-0.01785,0.00717,-0.04135
3.903,-0.00931,-0.05219,-0.009,-0.00839,-0.03357,-0.0444,-0.02914,-0.00381,0.00122,0.07019,-0.00381,-0.04013,-0.03052,-0.02014,0.00763,-0.04486
3.9035,-0.0029,-0.0531,-0.02136,-0.04639,-0.03479,-0.04715,-0.02197,-0.0058,0.01465,0.07278,-0.02762,-0.02014,-0.03281,-0.02213,0.00916,-0.04654
3.904,-0.00473,-0.0531,-0.03113,-0.08087,-0.03403,-0.05096,-0.01373,-0.00504,0.02472,0.0708,-0.05188,0.00427,-0.03357,-0.02228,0.01022,-0.04578
3.9045,-0.0061,-0.05508,-0.04074,-0.08148,-0.03143,-0.05402,-0.00839,-0.00259,0.03296,0.06821,-0.06592,0.0206,-0.03159,-0.02075,0.01038,-0.04425
3.905,-0.00153,-0.05783,-0.04822,-0.05615,-0.02838,-0.05508,-0.00671,-0.00092,0.04608,0.06607,-0.05844,0.02106,-0.02884,-0.01755,0.0116,-0.04272
3.9055,0.00458,-0.05844,-0.05508,-0.03433,-0.02655,-0.05417,-0.00854,-0.00137,0.06454,0.06363,-0.04089,0.01175,-0.02823,-0.01694,0.01266,-0.04181
3.906,0.00351,-0.05585,-0.06348,-0.03006,-0.02533,-0.05127,-0.009,-0.00305,0.07614,0.05814,-0.0383,0.00946,-0.02762,-0.01617,0.01175,-0.04166
3.9065,-0.00854,-0.04822,-0.07492,-0.03326,-0.02518,-0.04929,-0.00595,-0.00305,0.0621,0.04944,-0.04776,0.01663,-0.02686,-0.01602,0.00931,-0.04379
3.907,-0.02762,-0.03616,-0.08591,-0.03342,-0.0267,-0.04745,-0.0029,-0.00229,0.01801,0.03677,-0.04105,0.01373,-0.02625,-0.01556,0.00595,-0.04593
3.9075,-0.04349,-0.02197,-0.09399,-0.03113,-0.02869,-0.04639,-0.0029,-0.00275,-0.03769,0.02045,-0.00244,-0.01831,-0.0264,-0.0148,0.0058,-0.0473
3.908,-0.04959,-0.00885,-0.09842,-0.03113,-0.02838,-0.04578,-0.00702,-0.00412,-0.08575,0.00092,0.04349,-0.06882,-0.02731,-0.01373,0.00778,-0.04486
3.9085,-0.05005,-0.00153,-0.09735,-0.03235,-0.0264,-0.04684,-0.00977,-0.00519,-0.11169,-0.01984,0.06531,-0.1062,-0.02777,-0.01419,0.00946,-0.04028
3.909,-0.04837,0.00183,-0.09155,-0.03128,-0.02502,-0.04608,-0.0116,-0.00534,-0.11566,-0.04227,0.05798,-0.1236,-0.02823,-0.01556,0.01129,-0.03906
3.9095,-0.04272,0.00214,-0.08209,-0.03036,-0.02502,-0.04166,-0.01266,-0.00351,-0.10803,-0.06348,0.03326,-0.12787,-0.02869,-0.0177,0.01266,-0.03769
3.91,-0.02609,-0.0029,-0.07217,-0.03143,-0.02686,-0.03387,-0.01419,-0.00153,-0.10361,-0.07645,-0.00427,-0.08621,-0.03113,-0.01968,0.01312,-0.03799
3.9105,-0.00137,-0.0119,-0.0647,-0.03357,-0.02762,-0.02701,-0.01633,-0.00092,-0.09628,-0.06897,-0.06058,0.04028,-0.03387,-0.02045,0.0119,-0.03754
3.911,0.01831,-0.02045,-0.056,-0.03342,-0.02777,-0.02518,-0.01862,-0.00046,-0.06195,-0.03952,-0.11475,0.18372,-0.0351,-0.02136,0.00977,-0.03937
3.9115,0.02319,-0.02213,-0.04013,-0.03174,-0.03006,-0.03052,-0.01907,-0.00092,-0.0029,-0.00626,-0.11917,0.19791,-0.03448,-0.02274,0.00854,-0.04135
3.912,0.01587,-0.0174,-0.01755,-0.02838,-0.03128,-0.04318,-0.01816,-0.00214,0.04913,0.01144,-0.05814,0.05524,-0.03372,-0.02274,0.009,-0.04333
3.9125,0.00336,-0.01358,-0.00061,-0.02686,-0.03159,-0.05798,-0.01495,-0.00351,0.07202,0.01358,0.02518,-0.07614,-0.03403,-0.02151,0.00977,-0.04349
3.913,-0.00931,-0.01678,0.0029,-0.02899,-0.03113,-0.06775,-0.01328,-0.0032,0.06912,0.01129,0.07462,-0.05219,-0.03571,-0.02045,0.00961,-0.04257
3.9135,-0.01816,-0.02686,-0.00839,-0.03525,-0.03265,-0.06866,-0.01404,-0.00351,0.05341,0.00916,0.07111,0.0441,-0.03708,-0.02151,0.00931,-0.0415
3.914,-0.01831,-0.03662,-0.02548,-0.0444,-0.03342,-0.0621,-0.01465,-0.00412,0.02716,-0.00061,0.03006,0.04532,-0.03784,-0.02487,0.01068,-0.03967
3.9145,-0.00992,-0.04349,-0.03143,-0.04852,-0.03265,-0.05539,-0.01511,-0.00473,-0.00168,-0.01953,-0.02594,-0.03235,-0.03784,-0.02686,0.01205,-0.03799
3.915,0.00031,-0.0473,-0.0116,-0.04333,-0.03357,-0.05188,-0.01434,-0.00488,-0.01083,-0.04196,-0.07614,-0.03784,-0.03677,-0.02533,0.01312,-0.03601
3.9155,0.00443,-0.05051,0.02182,-0.03128,-0.03418,-0.05112,-0.01251,-0.00305,0.00961,-0.05936,-0.09659,0.06287,-0.03662,-0.0235,0.01236,-0.03448
3.916,0.00107,-0.05234,0.03616,-0.01663,-0.03479,-0.05035,-0.0116,-0.00198,0.03723,-0.07263,-0.0882,0.13031,-0.03708,-0.02213,0.0119,-0.03296
3.9165,-0.00549,-0.05112,0.01923,-0.00244,-0.03387,-0.04944,-0.01251,-0.0029,0.04105,-0.08957,-0.07919,0.06454,-0.03799,-0.02182,0.0119,-0.03281
3.917,-0.01038,-0.04913,-0.00443,0.00885,-0.03448,-0.04929,-0.01343,-0.00443,0.01709,-0.11856,-0.09079,-0.04379,-0.03845,-0.02167,0.01053,-0.03616
3.9175,-0.01068,-0.04791,-0.01175,0.01831,-0.03479,-0.04745,-0.01389,-0.0061,-0.00916,-0.15854,-0.10452,-0.04684,-0.03952,-0.02014,0.00534,-0.0412
3.918,-0.00702,-0.04913,-0.00229,0.02625,-0.03372,-0.04776,-0.01465,-0.00671,-0.01465,-0.19287,-0.09598,0.05127,-0.03922,-0.01984,0.00198,-0.04501
3.9185,-0.00687,-0.05264,0.01602,0.02991,-0.03082,-0.04791,-0.01633,-0.00626,-0.00168,-0.19592,-0.06271,0.11017,-0.03906,-0.01984,0.00275,-0.04471
3.919,-0.01785,-0.0621,0.04211,0.01953,-0.02808,-0.04852,-0.01846,-0.00641,0.00656,-0.15671,-0.02731,0.05554,-0.03723,-0.01938,0.00717,-0.0415
3.9195,-0.03494,-0.0769,0.07828,0.00107,-0.02792,-0.04898,-0.0177,-0.00702,-0.0029,-0.09811,-0.02411,-0.02808,-0.03494,-0.0174,0.01053,-0.03784
3.92,-0.04303,-0.09171,0.11108,-0.01053,-0.02686,-0.04883,-0.01602,-0.00732,-0.01785,-0.05554,-0.0708,-0.03891,-0.0322,-0.01633,0.01236,-0.03769
3.9205,-0.03464,-0.09796,0.11963,-0.00778,-0.0267,-0.04791,-0.01434,-0.00595,-0.01892,-0.04761,-0.13458,0.01312,-0.03235,-0.01755,0.00931,-0.04044
3.921,-0.01862,-0.09552,0.09995,-0.00473,-0.02594,-0.04745,-0.01389,-0.00412,-0.00168,-0.0499,-0.15381,0.05997,-0.03433,-0.01953,0.00458,-0.04471
3.9215,-0.00931,-0.09216,0.06119,-0.01678,-0.02609,-0.04608,-0.01343,-0.00336,0.02396,-0.03586,-0.11368,0.08224,-0.03708,-0.02106,0.00168,-0.04852
3.922,-0.01495,-0.09125,0.01663,-0.04135,-0.02701,-0.04593,-0.0119,-0.00351,0.04211,-0.00107,-0.05661,0.09384,-0.03815,-0.02106,0.00092,-0.04852
3.9225,-0.03082,-0.08987,-0.02823,-0.06073,-0.02823,-0.04639,-0.01129,-0.00397,0.04028,0.03281,-0.02121,0.08453,-0.0386,-0.02106,0.00214,-0.0441
3.923,-0.03998,-0.08041,-0.06683,-0.06363,-0.02899,-0.04684,-0.01053,-0.00519,0.01999,0.05005,0.00122,0.03922,-0.0383,-0.02167,0.00656,-0.03922
3.9235,-0.0293,-0.06485,-0.09567,-0.05035,-0.03113,-0.047,-0.0116,-0.00641,-0.00168,0.05203,0.02792,-0.0119,-0.03723,-0.02258,0.01038,-0.03677
3.924,-0.00443,-0.05295,-0.11551,-0.02701,-0.03448,-0.04868,-0.01312,-0.00778,-0.00183,0.05264,0.05707,-0.03204,-0.03433,-0.02121,0.01007,-0.0386
3.9245,0.0174,-0.04852,-0.1297,-0.00031,-0.03693,-0.05188,-0.01373,-0.00671,0.01648,0.05493,0.07584,-0.02869,-0.03113,-0.01907,0.0087,-0.04257
3.925,0.02762,-0.04501,-0.13794,0.02548,-0.03769,-0.05493,-0.01358,-0.00397,0.02731,0.05371,0.0827,-0.02457,-0.0293,-0.01907,0.00595,-0.04608
3.9255,0.02884,-0.03418,-0.13824,0.04135,-0.03555,-0.05585,-0.01236,-0.00259,0.01358,0.03983,0.08179,-0.01617,-0.02914,-0.02029,0.0061,-0.04745
3.926,0.02548,-0.01648,-0.12878,0.04425,-0.03235,-0.05508,-0.01099,-0.00183,-0.01343,0.01297,0.07355,0.00778,-0.02991,-0.02106,0.00778,-0.04532
3.9265,0.01602,0.00076,-0.11093,0.03937,-0.03159,-0.05295,-0.01099,-0.0029,-0.03281,-0.01785,0.05951,0.01846,-0.02991,-0.0209,0.01007,-0.04318
3.927,0.00015,0.01282,-0.09094,0.02167,-0.03326,-0.05066,-0.01205,-0.00397,-0.0415,-0.04288,0.05829,-0.03159,-0.02884,-0.01846,0.01236,-0.04288
3.9275,-0.0177,0.01709,-0.07355,-0.01617,-0.03448,-0.04791,-0.01266,-0.00397,-0.04684,-0.05356,0.08347,-0.12238,-0.02686,-0.01709,0.01221,-0.04364
3.928,-0.03372,0.01511,-0.06256,-0.07095,-0.03342,-0.04501,-0.01404,-0.00336,-0.05112,-0.05264,0.1207,-0.15137,-0.02625,-0.01785,0.01007,-0.0444
3.9285,-0.04852,0.00946,-0.05676,-0.11765,-0.03159,-0.04318,-0.0174,-0.00259,-0.0531,-0.04669,0.14404,-0.05981,-0.0267,-0.01999,0.00931,-0.04349
3.929,-0.06165,0.00046,-0.0531,-0.12344,-0.03082,-0.0441,-0.0206,-0.00381,-0.0563,-0.03632,0.14511,0.0647,-0.02701,-0.01892,0.01022,-0.0415
3.9295,-0.06317,-0.01068,-0.04715,-0.07843,-0.03128,-0.04623,-0.02182,-0.00504,-0.05829,-0.02426,0.13245,0.07889,-0.0264,-0.01556,0.01099,-0.0415
3.93,-0.04456,-0.01999,-0.03967,-0.009,-0.03159,-0.04745,-0.01953,-0.00381,-0.05417,-0.01862,0.11398,-0.02823,-0.02563,-0.01373,0.00946,-0.04349
3.9305,-0.01755,-0.02472,-0.03403,0.03815,-0.03052,-0.04608,-0.01602,-0.00076,-0.04562,-0.02319,0.08728,-0.10986,-0.02518,-0.01373,0.0058,-0.04395
3.931,-0.0032,-0.02899,-0.03372,0.04959,-0.03082,-0.0415,-0.01343,0.00076,-0.04578,-0.03342,0.04684,-0.05798,-0.02609,-0.0148,0.00336,-0.04166
3.9315,-0.00351,-0.0351,-0.03723,0.05127,-0.03265,-0.03738,-0.01373,-0.00015,-0.06088,-0.04166,-0.00793,0.04669,-0.02747,-0.01358,0.00244,-0.04074
3.932,-0.00717,-0.04181,-0.04349,0.05142,-0.03433,-0.03662,-0.01572,-0.00076,-0.08026,-0.04761,-0.06271,0.06363,-0.02731,-0.01007,0.00168,-0.04318
3.9325,-0.00565,-0.0444,-0.05188,0.01495,-0.03479,-0.03891,-0.01678,-0.00076,-0.08301,-0.0528,-0.09857,-0.01083,-0.02594,-0.00961,0.00015,-0.047
3.933,-0.00198,-0.04181,-0.06012,-0.0647,-0.03403,-0.04272,-0.01648,-0.00214,-0.06241,-0.05417,-0.10788,-0.06439,-0.02655,-0.01266,-0.00046,-0.04807
3.9335,0.00305,-0.03738,-0.06653,-0.13107,-0.03326,-0.04608,-0.01495,-0.00565,-0.03128,-0.0473,-0.09949,-0.04303,-0.02975,-0.01617,0.00015,-0.047
3.934,0.01312,-0.03128,-0.06332,-0.11414,-0.03326,-0.04745,-0.01434,-0.00992,-0.00565,-0.03632,-0.08499,-0.00443,-0.03265,-0.01801,0.0029,-0.04745
3.9345,0.02518,-0.02182,-0.04211,-0.00137,-0.03281,-0.04593,-0.01526,-0.01038,0.00916,-0.03052,-0.0737,-0.00366,-0.03418,-0.01907,0.00381,-0.05051
3.935,0.03265,-0.01236,-0.00534,0.1265,-0.03204,-0.04318,-0.01709,-0.00824,0.01663,-0.03311,-0.07233,-0.02167,-0.03387,-0.02045,0.00397,-0.05203
3.9355,0.0325,-0.00702,0.02884,0.1413,-0.03021,-0.04379,-0.0177,-0.00565,0.01556,-0.03113,-0.08865,-0.01785,-0.03357,-0.02197,0.00443,-0.05188
3.936,0.03174,-0.00961,0.03448,0.00229,-0.03021,-0.04822,-0.01587,-0.00641,0.00137,-0.01862,-0.1123,-0.01434,-0.03342,-0.02136,0.00488,-0.05035
3.9365,0.03616,-0.01617,0.00961,-0.17197,-0.03098,-0.05615,-0.0145,-0.00961,-0.01938,-0.0058,-0.11703,-0.04944,-0.03326,-0.0206,0.00412,-0.04898
3.937,0.04333,-0.02121,-0.02701,-0.22949,-0.03281,-0.06561,-0.01419,-0.01022,-0.03754,-0.00671,-0.08881,-0.09415,-0.03418,-0.02014,0.00366,-0.04807
3.9375,0.05173,-0.02396,-0.05768,-0.15579,-0.03372,-0.07187,-0.01526,-0.0087,-0.05051,-0.01862,-0.0444,-0.08911,-0.03601,-0.02075,0.00549,-0.04684
3.938,0.05646,-0.02594,-0.07416,-0.05234,-0.03464,-0.07111,-0.01663,-0.00656,-0.06378,-0.02625,-0.009,-0.03036,-0.03754,-0.02136,0.00748,-0.0441
3.9385,0.05386,-0.02823,-0.07416,-0.00046,-0.03708,-0.06882,-0.01663,-0.0061,-0.07462,-0.02121,0.01053,0.0238,-0.0383,-0.02274,0.00824,-0.04272
3.939,0.04028,-0.03159,-0.06195,0.00366,-0.03845,-0.06516,-0.01633,-0.0061,-0.06958,-0.01022,0.02045,0.02808,-0.03754,-0.02304,0.00656,-0.04425
3.9395,0.02304,-0.03677,-0.04593,0.00061,-0.03647,-0.06287,-0.01617,-0.00519,-0.04578,-0.00183,0.02228,0.00092,-0.03708,-0.02335,0.0061,-0.04486
3.94,0.00839,-0.04196,-0.03464,0.00519,-0.03418,-0.05997,-0.01724,-0.00427,-0.01587,0.00336,-0.00031,-0.00504,-0.03555,-0.02197,0.00626,-0.04425
3.9405,-0.00107,-0.04639,-0.03067,0.01236,-0.03387,-0.05692,-0.01709,-0.00412,0.00473,0.00641,-0.05829,0.02853,-0.03342,-0.0206,0.00671,-0.04272
3.941,-0.0116,-0.04837,-0.02884,0.01816,-0.03433,-0.0563,-0.01556,-0.00458,0.01099,0.00717,-0.1268,0.06607,-0.03189,-0.01938,0.00687,-0.04181
3.9415,-0.02533,-0.05157,-0.02991,0.02304,-0.03326,-0.05447,-0.01389,-0.00351,0.0087,0.01114,-0.15564,0.06332,-0.0322,-0.01984,0.00778,-0.04089
3.942,-0.03769,-0.05814,-0.03448,0.02502,-0.03143,-0.05112,-0.01312,-0.00015,0.00839,0.01892,-0.11917,0.02274,-0.03235,-0.01999,0.00931,-0.04166
3.9425,-0.04013,-0.06882,-0.04013,0.02487,-0.03067,-0.04837,-0.0119,0.00198,0.02197,0.02792,-0.04913,-0.01526,-0.03342,-0.01923,0.00992,-0.04196
3.943,-0.03098,-0.0766,-0.04532,0.02716,-0.03189,-0.04669,-0.01053,0.00198,0.056,0.03265,0.00839,-0.0238,-0.03357,-0.01801,0.01175,-0.04044
3.9435,-0.01648,-0.07843,-0.04837,0.03067,-0.03448,-0.04501,-0.01083,-0.00076,0.09918,0.03006,0.03876,-0.00687,-0.03342,-0.01816,0.01251,-0.03693
3.944,-0.00198,-0.07629,-0.05188,0.03021,-0.03525,-0.04333,-0.01358,-0.00397,0.12177,0.02472,0.05295,0.02289,-0.03387,-0.01831,0.0119,-0.03326
3.9445,0.01038,-0.07538,-0.05356,0.02411,-0.03418,-0.04257,-0.01541,-0.00488,0.10727,0.02075,0.0589,0.04852,-0.03387,-0.01648,0.01266,-0.03403
3.945,0.02136,-0.07736,-0.05173,0.01694,-0.0325,-0.04395,-0.01511,-0.00473,0.07111,0.01709,0.05386,0.05295,-0.03525,-0.01434,0.01251,-0.03799
3.9455,0.02686,-0.07736,-0.04761,0.01007,-0.03113,-0.04288,-0.01282,-0.00488,0.0444,0.01221,0.0386,0.03128,-0.03677,-0.01541,0.01144,-0.04059
3.946,0.01938,-0.07309,-0.0383,0.00305,-0.02975,-0.0383,-0.01114,-0.00504,0.04074,0.01129,0.02411,0.00717,-0.03693,-0.01755,0.00931,-0.04044
3.9465,-0.00137,-0.06439,-0.02533,-0.00916,-0.02823,-0.03159,-0.01007,-0.00549,0.04333,0.01663,0.01938,-0.00244,-0.03433,-0.01724,0.00809,-0.03967
3.947,-0.02792,-0.05661,-0.00015,-0.02945,-0.02716,-0.02853,-0.00961,-0.00504,0.02472,0.02609,0.02243,-0.00381,-0.03159,-0.01465,0.00854,-0.04074
3.9475,-0.05035,-0.05463,0.03662,-0.05035,-0.02594,-0.02899,-0.00916,-0.00534,-0.0238,0.03143,0.02441,-0.01556,-0.03189,-0.01328,0.00885,-0.04349
3.948,-0.06363,-0.05981,0.06699,-0.05356,-0.02548,-0.03189,-0.01129,-0.00534,-0.07751,0.02914,0.01999,-0.04517,-0.03281,-0.01404,0.00854,-0.04684
3.9485,-0.06973,-0.06516,0.06332,-0.03738,-0.02594,-0.03265,-0.01709,-0.00427,-0.10193,0.0238,0.00961,-0.08133,-0.03296,-0.01511,0.00763,-0.04807
3.949,-0.07141,-0.0676,0.0206,-0.0235,-0.02548,-0.03342,-0.02441,-0.00351,-0.09155,0.0206,-0.00427,-0.09064,-0.03265,-0.01648,0.00763,-0.04654
3.9495,-0.06378,-0.06775,-0.03601,-0.02762,-0.02457,-0.03418,-0.03021,-0.00214,-0.07751,0.01816,-0.01755,-0.04288,-0.03357,-0.01801,0.00778,-0.04227
3.95,-0.0415,-0.0647,-0.07172,-0.03296,-0.02304,-0.03784,-0.03479,-0.00122,-0.08728,0.01297,-0.02808,0.04868,-0.03372,-0.01953,0.00809,-0.03891
3.9505,-0.0145,-0.0563,-0.0853,-0.0177,-0.02411,-0.04364,-0.03952,-0.00061,-0.11307,0.00473,-0.03418,0.11444,-0.0325,-0.01968,0.00732,-0.0383
3.951,-0.00061,-0.04486,-0.08942,0.00763,-0.02884,-0.05142,-0.04288,-0.00046,-0.12039,-0.00427,-0.03571,0.09247,-0.03357,-0.01877,0.0061,-0.04044
3.9515,-0.00305,-0.03433,-0.09308,0.01282,-0.03296,-0.06012,-0.04059,-0.00061,-0.0885,-0.01404,-0.03036,0.01053,-0.03647,-0.01877,0.00549,-0.04288
3.952,-0.00778,-0.03021,-0.09033,-0.0119,-0.03403,-0.06592,-0.02548,-0.00092,-0.03632,-0.02716,-0.01587,-0.04578,-0.0386,-0.02106,0.0058,-0.04486
3.9525,-0.00443,-0.0322,-0.07782,-0.04517,-0.03296,-0.06271,0.00183,-0.00046,-0.00595,-0.04211,0.00092,-0.04044,-0.03845,-0.02335,0.00809,-0.04456
3.953,0.00092,-0.03479,-0.06149,-0.06058,-0.03098,-0.05249,0.02518,0.0,-0.00977,-0.05188,0.00854,-0.02075,-0.0383,-0.02533,0.0116,-0.04303
3.9535,0.00153,-0.03387,-0.04654,-0.05615,-0.03082,-0.04196,0.02823,0.00076,-0.02243,-0.05661,0.00076,-0.02838,-0.03891,-0.02594,0.01373,-0.04074
3.954,-0.00122,-0.0293,-0.03632,-0.04822,-0.03174,-0.03723,0.01175,0.00092,-0.02182,-0.0647,-0.01465,-0.0441,-0.03922,-0.02655,0.0145,-0.0383
3.9545,-0.00549,-0.02518,-0.0296,-0.0499,-0.03204,-0.03937,-0.00565,0.00015,-0.02075,-0.07889,-0.02701,-0.02762,-0.03967,-0.02686,0.01373,-0.03601
3.955,-0.00778,-0.02563,-0.02472,-0.05615,-0.03235,-0.04578,-0.01404,-0.00137,-0.04379,-0.09247,-0.03265,0.0119,-0.04135,-0.02777,0.01266,-0.03494
3.9555,-0.00748,-0.03159,-0.02014,-0.047,-0.03235,-0.05081,-0.01556,-0.0029,-0.08392,-0.10422,-0.0293,0.03998,-0.04333,-0.02777,0.01053,-0.03616
3.956,0.0,-0.04059,-0.01678,-0.00793,-0.03418,-0.05417,-0.01663,-0.00534,-0.11032,-0.11963,-0.02213,0.04669,-0.04272,-0.02792,0.00961,-0.03723
3.9565,0.00977,-0.04425,-0.01511,0.05325,-0.03555,-0.05722,-0.01923,-0.0061,-0.10239,-0.13672,-0.0264,0.05264,-0.04074,-0.02701,0.01083,-0.0354
3.957,0.01511,-0.03784,-0.01389,0.10544,-0.03662,-0.06134,-0.02167,-0.0061,-0.07431,-0.14175,-0.05859,0.07156,-0.03906,-0.02594,0.01312,-0.03174
3.9575,0.01114,-0.02609,-0.01205,0.11795,-0.03479,-0.06653,-0.02151,-0.0058,-0.05585,-0.12726,-0.10666,0.09338,-0.03983,-0.02548,0.01236,-0.03143
3.958,0.00381,-0.01663,-0.00412,0.08652,-0.03342,-0.06973,-0.01678,-0.00473,-0.0592,-0.10681,-0.12878,0.10452,-0.03906,-0.02609,0.0087,-0.03616
3.9585,0.00443,-0.01312,0.01297,0.04288,-0.0322,-0.06393,-0.00977,-0.00534,-0.07111,-0.10162,-0.10849,0.09537,-0.03906,-0.02701,0.00443,-0.04166
3.959,0.01495,-0.01434,0.04181,0.01678,-0.03235,-0.05402,-0.00824,-0.00549,-0.06622,-0.1123,-0.07309,0.05447,-0.03983,-0.0264,0.00259,-0.0444
3.9595,0.02625,-0.0174,0.08194,0.01221,-0.03174,-0.04684,-0.01572,-0.00534,-0.03983,-0.1207,-0.05707,-0.00824,-0.04105,-0.0235,0.00275,-0.04486
3.96,0.02365,-0.01831,0.11932,0.01373,-0.02975,-0.04715,-0.03021,-0.00458,-0.01099,-0.112,-0.05997,-0.04669,-0.04105,-0.01984,0.0029,-0.04395
3.9605,0.00687,-0.01892,0.12344,0.0145,-0.02777,-0.05478,-0.04471,-0.00473,0.00397,-0.08728,-0.06165,-0.02411,-0.03815,-0.01602,0.00397,-0.04471
3.961,-0.00854,-0.01801,0.07355,0.01495,-0.02686,-0.06058,-0.05341,-0.00397,0.009,-0.05524,-0.05966,0.02335,-0.03296,-0.01312,0.00397,-0.04684
3.9615,-0.01221,-0.01511,-0.0145,0.01556,-0.02731,-0.05997,-0.05386,-0.00259,0.0119,-0.02502,-0.05936,0.02213,-0.02747,-0.01129,0.00702,-0.04837
3.962,-0.009,-0.009,-0.10056,0.00854,-0.02914,-0.05142,-0.04654,-0.00031,0.01373,0.0,-0.05173,-0.04501,-0.0235,-0.01129,0.00793,-0.04745
3.9625,-0.01419,-0.00153,-0.15671,-0.01251,-0.02975,-0.0412,-0.03128,0.00031,0.0148,0.0209,-0.0209,-0.1297,-0.02258,-0.01129,0.00977,-0.04257
3.963,-0.03281,0.00565,-0.18646,-0.04318,-0.02899,-0.03525,-0.009,0.00031,0.02258,0.03403,0.02548,-0.16891,-0.02289,-0.01114,0.01221,-0.03632
3.9635,-0.05081,0.00763,-0.2005,-0.06195,-0.02777,-0.03464,0.01556,0.00076,0.04349,0.03922,0.05966,-0.11917,-0.02228,-0.01068,0.01404,-0.03387
3.964,-0.05051,0.00412,-0.20065,-0.05249,-0.02884,-0.03311,0.03128,0.00015,0.0647,0.03891,0.06317,0.01785,-0.02075,-0.01007,0.01282,-0.03571
3.9645,-0.03143,-0.00336,-0.18433,-0.02777,-0.03036,-0.03342,0.03052,-0.00015,0.06516,0.04608,0.04517,0.14923,-0.01923,-0.01007,0.00885,-0.03983
3.965,-0.00885,-0.0116,-0.15503,-0.01953,-0.02975,-0.03311,0.01678,-0.00214,0.03998,0.06134,0.03174,0.14984,-0.01968,-0.01099,0.00519,-0.04257
3.9655,0.00031,-0.02136,-0.12299,-0.03906,-0.03021,-0.03448,0.00092,-0.00366,0.01007,0.07309,0.04074,0.00168,-0.02121,-0.01297,0.00565,-0.04425
3.966,-0.00809,-0.03479,-0.09445,-0.0618,-0.03067,-0.03738,-0.0061,-0.00565,-0.00626,0.06943,0.06332,-0.16357,-0.02274,-0.01572,0.00626,-0.04562
3.9665,-0.02151,-0.05219,-0.07156,-0.04807,-0.03204,-0.04089,0.00214,-0.00626,-0.0058,0.0563,0.07248,-0.21347,-0.02258,-0.0177,0.0058,-0.04776
3.967,-0.02502,-0.07263,-0.05112,0.01129,-0.03235,-0.04547,0.02182,-0.00473,-0.00153,0.04639,0.04028,-0.13763,-0.02182,-0.01709,0.00519,-0.04837
3.9675,-0.01633,-0.08713,-0.03464,0.07706,-0.03342,-0.05188,0.03571,-0.0029,0.0058,0.04242,-0.02533,-0.02777,-0.02197,-0.0174,0.00595,-0.047
3.968,-0.00443,-0.08957,-0.01999,0.08408,-0.03296,-0.05829,0.02579,-0.00259,0.01801,0.03922,-0.07278,0.0415,-0.02441,-0.01694,0.00519,-0.04501
3.9685,0.00488,-0.08194,-0.00687,0.02319,-0.03189,-0.06271,-0.00183,-0.00488,0.03372,0.02853,-0.05966,0.06836,-0.02747,-0.01724,0.0029,-0.04349
3.969,0.00992,-0.07202,0.00229,-0.04181,-0.03143,-0.06256,-0.02518,-0.00793,0.04837,0.00763,0.0,0.08255,-0.02914,-0.0177,0.00229,-0.04349
3.9695,0.00885,-0.06668,0.00626,-0.05234,-0.03311,-0.05661,-0.03143,-0.009,0.05875,-0.02609,0.05707,0.0914,-0.02899,-0.01709,0.00443,-0.04333
3.97,0.00168,-0.06302,0.01083,-0.02426,-0.03601,-0.04929,-0.0293,-0.00748,0.0531,-0.06256,0.08377,0.08194,-0.02869,-0.0174,0.00839,-0.04288
3.9705,-0.00793,-0.05768,0.0177,-0.00763,-0.03708,-0.0441,-0.02792,-0.00534,0.02167,-0.08087,0.08835,0.04333,-0.0296,-0.01694,0.01144,-0.04028
3.971,-0.0116,-0.05234,0.02762,-0.01709,-0.03647,-0.04349,-0.02533,-0.00381,-0.03113,-0.06714,0.08698,-0.01328,-0.03204,-0.01602,0.01266,-0.03708
3.9715,-0.00946,-0.05127,0.03296,-0.03296,-0.03387,-0.04547,-0.01709,-0.0029,-0.08331,-0.03448,0.08484,-0.06058,-0.03342,-0.01526,0.01129,-0.03677
3.972,-0.00381,-0.05737,0.03448,-0.04028,-0.0322,-0.04532,-0.00549,-0.00412,-0.10635,0.00092,0.07477,-0.07584,-0.03235,-0.01419,0.009,-0.03754
3.9725,0.00137,-0.0676,0.02686,-0.04654,-0.03113,-0.04471,-0.00107,-0.00458,-0.09674,0.02045,0.05035,-0.06607,-0.02838,-0.01205,0.00702,-0.04013
3.973,0.00305,-0.07462,0.01282,-0.05768,-0.03174,-0.04333,-0.00916,-0.00519,-0.08057,0.02411,0.01343,-0.04883,-0.02563,-0.01129,0.00824,-0.0415
3.9735,0.00214,-0.07767,-0.00229,-0.06561,-0.0322,-0.04288,-0.02548,-0.00458,-0.08163,0.00641,-0.03036,-0.01648,-0.02518,-0.01221,0.01007,-0.04196
3.974,0.00122,-0.07889,-0.01678,-0.05478,-0.03372,-0.04303,-0.03815,-0.00381,-0.08423,-0.0235,-0.07004,0.047,-0.02716,-0.01404,0.0119,-0.04272
3.9745,0.00458,-0.07782,-0.0325,-0.00732,-0.03418,-0.04379,-0.04532,-0.00366,-0.05783,-0.0412,-0.09644,0.10513,-0.03036,-0.01465,0.01251,-0.04288
3.975,0.0116,-0.0769,-0.04974,0.05829,-0.03555,-0.04608,-0.05066,-0.00443,-0.00381,-0.0235,-0.10818,0.09918,-0.03204,-0.0148,0.0116,-0.04425
3.9755,0.0177,-0.07309,-0.06195,0.09598,-0.03601,-0.04837,-0.04913,-0.00595,0.04395,0.01328,-0.12161,0.04044,-0.03326,-0.01541,0.00839,-0.047
3.976,0.01755,-0.06927,-0.06485,0.07156,-0.03555,-0.04898,-0.03357,-0.00549,0.06042,0.03708,-0.15198,0.0,-0.03342,-0.01663,0.00443,-0.05035
3.9765,0.01282,-0.06607,-0.06119,0.01144,-0.03387,-0.04791,-0.00732,-0.00549,0.05203,0.03754,-0.18356,0.00519,-0.03296,-0.01816,0.00336,-0.05142
3.977,0.00687,-0.0621,-0.05753,-0.02884,-0.0354,-0.047,0.01099,-0.00595,0.03845,0.03204,-0.18814,0.01541,-0.03281,-0.01923,0.00519,-0.04944
3.9775,0.0029,-0.05814,-0.05737,-0.0267,-0.03754,-0.04684,0.01099,-0.0061,0.02823,0.03159,-0.16388,0.00214,-0.03525,-0.02045,0.00809,-0.04608
3.978,0.00168,-0.05295,-0.05539,-0.00732,-0.03952,-0.04807,0.00534,-0.0058,0.02625,0.02747,-0.12222,-0.01297,-0.03662,-0.02014,0.00763,-0.04379
3.9785,0.00275,-0.04913,-0.05127,-0.00076,-0.03967,-0.04929,0.00885,-0.00397,0.02899,0.00519,-0.05402,-0.0087,-0.03693,-0.01877,0.00687,-0.04257
3.979,0.00458,-0.04517,-0.04608,-0.00671,-0.03906,-0.04929,0.01099,-0.00244,0.02502,-0.03632,0.03922,0.00381,-0.03723,-0.02014,0.00488,-0.04227
3.9795,0.00793,-0.03693,-0.04166,-0.01205,-0.03616,-0.04684,-0.00198,-0.00122,0.0029,-0.07507,0.12146,0.00809,-0.03677,-0.02213,0.00275,-0.04135
3.98,0.01053,-0.02411,-0.03479,-0.01236,-0.0322,-0.04486,-0.01923,-0.00031,-0.02853,-0.08621,0.14786,0.00504,-0.03479,-0.02319,0.00305,-0.04074
3.9805,0.00946,-0.01114,-0.02533,-0.01282,-0.02899,-0.04288,-0.01846,0.0,-0.04395,-0.06699,0.11658,0.00427,-0.03357,-0.02319,0.0032,-0.04089
3.981,0.00641,-0.00397,-0.01633,-0.01419,-0.02823,-0.0415,-0.00351,-0.00061,-0.03296,-0.03311,0.06683,0.00687,-0.03418,-0.02228,0.0029,-0.04242
3.9815,0.00717,-0.00366,-0.00351,-0.01495,-0.03067,-0.04013,0.00565,-0.00107,-0.00854,-0.00275,0.03357,0.00778,-0.03418,-0.02121,0.00381,-0.04517
3.982,0.0119,-0.00656,0.02289,-0.01556,-0.03235,-0.04013,-0.00183,-0.00153,0.00717,0.01556,0.02289,0.00595,-0.03571,-0.02121,0.00443,-0.04715
3.9825,0.01785,-0.01053,0.06149,-0.01556,-0.03265,-0.04318,-0.01343,-0.00244,0.00626,0.0206,0.02335,0.00549,-0.03616,-0.02045,0.0061,-0.04669
3.983,0.0209,-0.01419,0.0914,-0.01495,-0.03189,-0.047,-0.01587,-0.00351,-0.00412,0.01541,0.02274,0.00641,-0.03693,-0.02182,0.00595,-0.04456
3.9835,0.02106,-0.01663,0.08835,-0.01343,-0.03098,-0.04852,-0.009,-0.00504,-0.01083,0.00656,0.0058,0.00824,-0.03738,-0.02228,0.00656,-0.04333
3.984,0.01907,-0.01526,0.0502,-0.01129,-0.03052,-0.0473,0.00046,-0.00412,-0.00519,-0.00229,-0.03937,0.00687,-0.03738,-0.02289,0.00763,-0.04364
3.9845,0.01282,-0.01373,-0.00473,-0.01083,-0.03113,-0.04654,0.00595,-0.00076,0.00748,-0.01053,-0.09644,0.00275,-0.03723,-0.02182,0.009,-0.04379
3.985,-0.00137,-0.01495,-0.04715,-0.01236,-0.03204,-0.04791,0.00198,0.00153,0.01709,-0.02213,-0.1178,-0.00092,-0.03708,-0.0209,0.00778,-0.04166
3.9855,-0.02411,-0.02243,-0.05249,-0.01694,-0.0322,-0.04913,-0.01114,0.00107,0.01236,-0.03098,-0.08057,-0.00229,-0.03708,-0.01907,0.00641,-0.04074
3.986,-0.04868,-0.03342,-0.02151,-0.02686,-0.03204,-0.05005,-0.02731,-0.00229,-0.00366,-0.02426,-0.01144,-0.00031,-0.03723,-0.01648,0.00458,-0.04074
3.9865,-0.05814,-0.04044,0.00854,-0.05173,-0.03235,-0.05066,-0.03662,-0.00458,-0.01724,-0.00198,0.04395,0.00259,-0.03632,-0.0145,0.00381,-0.04166
3.987,-0.04745,-0.03891,0.0,-0.08926,-0.0322,-0.05264,-0.03418,-0.00504,-0.01984,0.01953,0.05768,0.00504,-0.03479,-0.01282,0.00366,-0.04333
3.9875,-0.02441,-0.03357,-0.0444,-0.10269,-0.03311,-0.05417,-0.02502,-0.00473,-0.01724,0.02487,0.02762,0.00717,-0.03265,-0.01251,0.00488,-0.04272
3.988,-0.00519,-0.03036,-0.09155,-0.05264,-0.03464,-0.05295,-0.01541,-0.00443,-0.01846,0.01541,-0.02411,0.00977,-0.03113,-0.01373,0.00687,-0.04272
3.9885,0.00214,-0.02975,-0.11795,0.04517,-0.03403,-0.05127,-0.01022,-0.00412,-0.02289,0.00137,-0.05569,0.00763,-0.03128,-0.01602,0.00824,-0.04181
3.989,0.00122,-0.02869,-0.12787,0.1091,-0.03281,-0.05035,-0.01099,-0.0032,-0.02136,-0.01389,-0.03754,0.00534,-0.0322,-0.01984,0.00961,-0.03952
3.9895,-0.00031,-0.02625,-0.12939,0.08118,-0.03021,-0.05051,-0.01587,-0.00412,-0.0116,-0.03113,0.01816,0.00961,-0.03235,-0.02167,0.01053,-0.03571
3.99,0.00168,-0.02335,-0.12421,0.00015,-0.02853,-0.04929,-0.02136,-0.00565,-0.00443,-0.0502,0.07431,0.01633,-0.03082,-0.02106,0.0119,-0.0322
3.9905,0.00519,-0.02289,-0.11108,-0.04868,-0.02762,-0.04852,-0.02304,-0.00687,-0.01022,-0.06668,0.10498,0.00717,-0.03036,-0.02029,0.0116,-0.03189
3.991,0.00687,-0.02457,-0.0946,-0.03983,-0.0267,-0.04898,-0.01907,-0.00763,-0.01968,-0.07309,0.10895,-0.02563,-0.03311,-0.02045,0.00961,-0.03403
3.9915,0.0032,-0.02701,-0.08087,-0.0116,-0.02533,-0.04898,-0.01297,-0.00793,-0.01572,-0.06836,0.09506,-0.05829,-0.03601,-0.02136,0.00778,-0.03647
3.992,-0.00519,-0.02823,-0.0705,-0.00107,-0.02487,-0.04715,-0.00854,-0.00854,0.00092,-0.05356,0.06927,-0.05661,-0.03647,-0.02213,0.00854,-0.03662
3.9925,-0.01144,-0.03006,-0.06241,-0.00519,-0.02411,-0.047,-0.00534,-0.01022,0.00961,-0.03952,0.03693,-0.0174,-0.03586,-0.0235,0.01038,-0.03616
3.993,-0.01068,-0.03281,-0.05478,-0.00854,-0.02533,-0.04761,-0.00473,-0.00977,-0.00946,-0.03174,0.00549,0.02716,-0.03693,-0.02411,0.0119,-0.03357
3.9935,-0.00427,-0.03693,-0.04776,-0.00977,-0.02853,-0.05066,-0.00916,-0.00732,-0.05005,-0.02823,-0.01984,0.04639,-0.03815,-0.02396,0.01251,-0.03265
3.994,-0.00107,-0.04272,-0.03662,-0.01099,-0.03143,-0.05386,-0.0206,-0.00397,-0.08606,-0.02487,-0.03967,0.03738,-0.03738,-0.02365,0.01251,-0.03403
3.9945,-0.00534,-0.04791,-0.01724,-0.01221,-0.03372,-0.05539,-0.0351,-0.0029,-0.0943,-0.02686,-0.05295,0.01846,-0.03494,-0.02213,0.01129,-0.03632
3.995,-0.01389,-0.05157,0.00137,-0.01389,-0.03265,-0.05447,-0.04623,-0.00275,-0.07217,-0.0386,-0.05966,0.00305,-0.03296,-0.02029,0.009,-0.03906
3.9955,-0.02045,-0.0528,0.00443,-0.01602,-0.03128,-0.05356,-0.05081,-0.0029,-0.0354,-0.0502,-0.05997,-0.01282,-0.03235,-0.01923,0.00687,-0.0415
3.996,-0.02014,-0.05325,-0.00778,-0.01846,-0.02945,-0.05188,-0.04974,-0.0032,-0.00412,-0.047,-0.05463,-0.03067,-0.03189,-0.01801,0.00397,-0.04318
3.9965,-0.01221,-0.05463,-0.01099,-0.02014,-0.02731,-0.05051,-0.04593,-0.00305,0.00946,-0.02655,-0.04745,-0.03632,-0.03159,-0.01602,0.0032,-0.04318
3.997,-0.0087,-0.05539,0.01511,-0.02274,-0.02716,-0.04852,-0.04364,-0.00366,0.00717,-0.00534,-0.04196,-0.0177,-0.03372,-0.01511,0.00427,-0.04303
3.9975,-0.01877,-0.05661,0.05646,-0.02487,-0.02838,-0.04715,-0.04196,-0.00443,-0.00641,0.00504,-0.03891,0.00992,-0.03632,-0.01617,0.00595,-0.04303
3.998,-0.03601,-0.05646,0.07233,-0.02365,-0.02884,-0.04639,-0.03571,-0.00565,-0.0293,0.00763,-0.03708,0.02274,-0.03723,-0.01892,0.00809,-0.04456
3.9985,-0.04562,-0.05585,0.04166,-0.01968,-0.02823,-0.04562,-0.01694,-0.00549,-0.05905,0.0087,-0.03586,0.01419,-0.03601,-0.01984,0.00626,-0.04776
3.999,-0.04074,-0.05585,-0.02045,-0.01663,-0.02792,-0.04532,0.01541,-0.00305,-0.08499,0.00687,-0.03693,0.00183,-0.03387,-0.01907,0.00443,-0.0502
3.9995,-0.03006,-0.0589,-0.08255,-0.01617,-0.02731,-0.04456,0.04257,-0.00076,-0.0975,-0.00168,-0.04379,-0.00122,-0.03265,-0.01816,0.00381,-0.0502
4.0,-0.02411,-0.06561,-0.12466,-0.01465,-0.02747,-0.04547,0.04044,-0.00015,-0.09811,-0.01236,-0.05539,0.0032,-0.03357,-0.01892,0.00641,-0.04807
4.0005,-0.02197,-0.07172,-0.14618,-0.01266,-0.02762,-0.04532,0.01297,-0.00107,-0.08682,-0.01999,-0.06516,0.00504,-0.0354,-0.02045,0.00946,-0.04623
4.001,-0.01785,-0.0737,-0.15106,-0.01068,-0.02762,-0.04395,-0.01144,-0.00092,-0.06348,-0.02228,-0.06943,0.00214,-0.0354,-0.02075,0.01099,-0.04562
4.0015,-0.00961,-0.07492,-0.14038,-0.0119,-0.02762,-0.04211,-0.01694,-0.00076,-0.03143,-0.02701,-0.06653,-0.00046,-0.03555,-0.02075,0.01114,-0.04272
4.002,-0.00153,-0.07813,-0.11749,-0.01328,-0.02884,-0.03891,-0.01419,-0.00198,-0.00061,-0.03601,-0.05875,0.00092,-0.03616,-0.0206,0.01038,-0.04013
4.0025,0.00168,-0.08331,-0.08636,-0.01373,-0.03098,-0.03525,-0.01617,-0.00488,0.01831,-0.04898,-0.04745,0.00534,-0.03784,-0.02151,0.00992,-0.03998
4.003,-0.00107,-0.08636,-0.05615,-0.01129,-0.03281,-0.03296,-0.02106,-0.01572,0.02075,-0.05997,-0.04028,0.00854,-0.03937,-0.02182,0.01022,-0.04166
4.0035,-0.01083,-0.08713,-0.03326,-0.009,-0.03281,-0.03235,-0.02563,-0.04211,0.0087,-0.06683,-0.0383,0.00824,-0.03967,-0.02136,0.00916,-0.04471
4.004,-0.02701,-0.08514,-0.01907,-0.00931,-0.03265,-0.03433,-0.03021,-0.08072,-0.00381,-0.06958,-0.03632,0.00397,-0.03967,-0.02213,0.009,-0.04364
4.0045,-0.04349,-0.0798,-0.01022,-0.01068,-0.03372,-0.0386,-0.03265,-0.09964,-0.00702,-0.06653,-0.03189,-0.00015,-0.03708,-0.0235,0.00839,-0.04227
4.005,-0.05081,-0.07172,-0.00626,-0.01099,-0.03662,-0.04425,-0.03296,-0.0708,0.00305,-0.06149,-0.02853,-0.00305,-0.03494,-0.02426,0.00626,-0.04425
4.0055,-0.04349,-0.06332,-0.00504,-0.01236,-0.03784,-0.04852,-0.03098,-0.00656,0.01617,-0.0592,-0.03067,-0.00412,-0.03418,-0.02365,0.00381,-0.04929
4.006,-0.02716,-0.05478,-0.00412,-0.01373,-0.03632,-0.05051,-0.02991,0.05524,0.01984,-0.05951,-0.0386,-0.00427,-0.03433,-0.02121,0.00259,-0.05066
4.0065,-0.01221,-0.04471,-0.00534,-0.01434,-0.0325,-0.05142,-0.02838,0.0885,0.01572,-0.0589,-0.05005,-0.00305,-0.03311,-0.01938,0.00458,-0.04715
4.007,-0.00412,-0.03403,-0.00885,-0.01266,-0.0293,-0.05402,-0.0235,0.0914,0.01663,-0.05661,-0.05783,-0.00229,-0.02991,-0.01831,0.00809,-0.0412
4.0075,-0.00046,-0.02426,-0.00977,-0.01099,-0.02823,-0.0592,-0.01968,0.07172,0.02777,-0.05402,-0.04913,-0.00137,-0.02747,-0.01862,0.0087,-0.04028
4.008,0.00443,-0.01633,-0.00717,-0.01129,-0.02701,-0.06332,-0.01755,0.03983,0.03326,-0.05249,-0.0174,-0.00168,-0.02716,-0.01877,0.00671,-0.0441
4.0085,0.01465,-0.00519,-0.00458,-0.0148,-0.02609,-0.06287,-0.01236,0.01022,0.01877,-0.04944,0.02487,-0.00244,-0.02808,-0.0177,0.00351,-0.04959
4.009,0.02777,0.00992,-0.00916,-0.01801,-0.02441,-0.05768,-0.00122,-0.00732,-0.00977,-0.04105,0.04654,-0.0032,-0.02853,-0.01694,0.00244,-0.05096
4.0095,0.04044,0.02014,-0.01968,-0.01648,-0.02228,-0.04974,0.00748,-0.01114,-0.03021,-0.03052,0.03098,-0.0032,-0.02716,-0.01633,0.00275,-0.04898
4.01,0.04791,0.01587,-0.02686,-0.01236,-0.02029,-0.0415,0.00717,-0.00824,-0.03647,-0.02792,0.00107,-0.00198,-0.0267,-0.01511,0.0032,-0.04562
4.0105,0.05035,0.0,-0.02686,-0.00534,-0.01984,-0.03723,0.00046,-0.00381,-0.03967,-0.03738,-0.00443,0.00046,-0.02686,-0.01511,0.00397,-0.04272
4.011,0.05035,-0.01526,-0.02228,0.00137,-0.0206,-0.03754,-0.0032,0.00107,-0.05051,-0.05127,0.01556,-0.00031,-0.02853,-0.01556,0.00732,-0.04135
4.0115,0.04852,-0.02182,-0.01694,0.00595,-0.02411,-0.03998,-0.00092,0.00397,-0.06042,-0.06165,0.0206,-0.00488,-0.02975,-0.01648,0.01373,-0.04028
4.012,0.04532,-0.02182,-0.01053,0.00443,-0.02762,-0.04242,0.00595,0.00397,-0.0563,-0.06119,-0.01358,-0.00931,-0.02899,-0.01648,0.0177,-0.03952
4.0125,0.0383,-0.02213,-0.00183,-0.00107,-0.0293,-0.04578,0.01266,0.0032,-0.03906,-0.04913,-0.06256,-0.00443,-0.02762,-0.01526,0.01892,-0.03937
4.013,0.02899,-0.02838,0.00839,-0.00443,-0.03128,-0.05112,0.01221,0.00641,-0.02884,-0.03128,-0.08179,0.01328,-0.02594,-0.01495,0.01694,-0.03967
4.0135,0.01633,-0.0415,0.01495,-0.00427,-0.03601,-0.05661,0.00275,0.01205,-0.03677,-0.01404,-0.05539,0.03403,-0.02609,-0.01556,0.01587,-0.04013
4.014,0.00076,-0.05493,0.01465,-0.00458,-0.04318,-0.05753,-0.00854,0.0145,-0.056,0.00397,-0.00092,0.03677,-0.02747,-0.01755,0.01434,-0.03998
4.0145,-0.01511,-0.05966,0.01236,-0.0058,-0.04868,-0.05493,-0.01419,0.01129,-0.06729,0.02777,0.05096,0.00748,-0.03067,-0.01831,0.01221,-0.04059
4.015,-0.02548,-0.05585,0.00809,-0.00793,-0.05035,-0.04852,-0.01434,0.00488,-0.05905,0.05325,0.08148,-0.03937,-0.03296,-0.0177,0.01144,-0.03967
4.0155,-0.0293,-0.04913,0.00626,-0.00977,-0.047,-0.0441,-0.01343,-0.00168,-0.03998,0.07156,0.08942,-0.07141,-0.03403,-0.01663,0.01266,-0.03784
4.016,-0.02808,-0.04517,-0.00015,-0.01099,-0.04333,-0.04227,-0.01495,-0.0061,-0.03082,0.07843,0.08713,-0.06897,-0.03433,-0.01694,0.01343,-0.03677
4.0165,-0.02548,-0.04028,-0.0087,-0.01144,-0.04074,-0.04181,-0.01831,-0.00916,-0.03937,0.07584,0.08194,-0.03998,-0.0351,-0.01816,0.01328,-0.03784
4.017,-0.02197,-0.03311,-0.02014,-0.01129,-0.03769,-0.04135,-0.02121,-0.01144,-0.05112,0.06958,0.07233,-0.00519,-0.03464,-0.01923,0.01007,-0.04074
4.0175,-0.01984,-0.02701,-0.03952,-0.01083,-0.03464,-0.04074,-0.02029,-0.01465,-0.04547,0.06088,0.0528,0.01755,-0.03357,-0.0209,0.00595,-0.04395
4.018,-0.01892,-0.02609,-0.06821,-0.01129,-0.03403,-0.04272,-0.0148,-0.01678,-0.01984,0.04959,0.02777,0.01495,-0.03464,-0.02228,0.00275,-0.04837
4.0185,-0.01755,-0.02853,-0.09262,-0.01083,-0.03571,-0.04608,-0.009,-0.01938,0.01419,0.04181,0.00488,-0.01434,-0.03738,-0.02457,0.00244,-0.0531
4.019,-0.01465,-0.02975,-0.10498,-0.009,-0.03586,-0.04898,-0.01068,-0.01984,0.04807,0.04105,-0.01083,-0.03891,-0.04059,-0.02533,0.00366,-0.05432
4.0195,-0.00763,-0.02853,-0.10345,-0.00732,-0.03571,-0.04944,-0.01984,-0.01877,0.07355,0.04272,-0.02045,-0.02136,-0.03937,-0.02457,0.00519,-0.05203
4.02,0.00397,-0.02808,-0.09308,-0.00824,-0.03464,-0.04929,-0.03036,-0.0148,0.08148,0.03647,-0.02808,0.0174,-0.03479,-0.02289,0.00534,-0.0473
4.0205,0.01434,-0.03357,-0.07568,-0.01205,-0.03342,-0.0499,-0.03876,-0.01129,0.0679,0.01907,-0.03632,0.00885,-0.03128,-0.02243,0.00488,-0.04501
4.021,0.01801,-0.04242,-0.05203,-0.01526,-0.03128,-0.05081,-0.04593,-0.01114,0.04196,-0.00046,-0.04211,-0.05981,-0.03143,-0.02197,0.00366,-0.04349
4.0215,0.0148,-0.04837,-0.02747,-0.01541,-0.02899,-0.05066,-0.05112,-0.0145,0.01526,-0.01038,-0.04623,-0.1059,-0.0322,-0.02136,0.00214,-0.04166
4.022,0.00748,-0.04913,-0.01495,-0.01358,-0.02731,-0.05096,-0.05005,-0.01602,-0.00641,-0.01175,-0.05539,-0.0563,-0.03098,-0.02029,0.00107,-0.03815
4.0225,0.00198,-0.04715,-0.01953,-0.01068,-0.02686,-0.04868,-0.04028,-0.01373,-0.02106,-0.01144,-0.07065,0.04349,-0.02762,-0.01984,0.00153,-0.03586
4.023,0.00031,-0.04593,-0.03265,-0.0087,-0.02869,-0.047,-0.02411,-0.01022,-0.03311,-0.01175,-0.07919,0.09308,-0.02518,-0.01892,0.00397,-0.03677
4.0235,0.00381,-0.04654,-0.04593,-0.00687,-0.03372,-0.04486,-0.00717,-0.00916,-0.04578,-0.01343,-0.06729,0.07706,-0.02502,-0.01831,0.00534,-0.04013
4.024,0.00809,-0.04944,-0.05463,-0.00412,-0.03845,-0.0444,0.00397,-0.01236,-0.05127,-0.02121,-0.04242,0.05783,-0.0267,-0.01694,0.00504,-0.04242
4.0245,0.01007,-0.05615,-0.06073,-0.00229,-0.04318,-0.04471,0.00763,-0.01816,-0.0412,-0.04044,-0.02747,0.06195,-0.02792,-0.01678,0.00259,-0.04349
4.025,0.00687,-0.06134,-0.0647,-0.00183,-0.04486,-0.04639,0.00793,-0.0235,-0.02151,-0.06363,-0.02808,0.05112,-0.02747,-0.01709,0.00046,-0.04486
4.0255,0.00031,-0.06363,-0.07004,-0.00153,-0.04211,-0.0473,0.01022,-0.0264,-0.00916,-0.07614,-0.0267,0.01053,-0.02487,-0.01678,0.00015,-0.04669
4.026,-0.00595,-0.06195,-0.08392,-0.00244,-0.03754,-0.04745,0.01495,-0.02655,-0.01251,-0.06958,-0.01526,-0.02258,-0.02319,-0.01694,0.0,-0.04807
4.0265,-0.01099,-0.05844,-0.10712,-0.0058,-0.03372,-0.04623,0.01282,-0.02258,-0.02808,-0.05157,-0.01038,-0.0177,-0.02426,-0.01709,0.00122,-0.04715
4.027,-0.01541,-0.05478,-0.12589,-0.01083,-0.03265,-0.04517,0.00015,-0.01587,-0.04211,-0.03815,-0.0267,0.00641,-0.0264,-0.01617,0.00412,-0.04639
4.0275,-0.01724,-0.04868,-0.12589,-0.01358,-0.03387,-0.04593,-0.01511,-0.00778,-0.04944,-0.0412,-0.05997,0.01282,-0.02747,-0.01511,0.00916,-0.04547
4.028,-0.0145,-0.04105,-0.10681,-0.01282,-0.03479,-0.04974,-0.02319,-0.00015,-0.05005,-0.05539,-0.09903,-0.00031,-0.02853,-0.01511,0.01358,-0.04379
4.0285,-0.01144,-0.03372,-0.07813,-0.0119,-0.0351,-0.05203,-0.02502,0.00488,-0.047,-0.06912,-0.13336,-0.01266,-0.02914,-0.01633,0.01526,-0.04074
4.029,-0.01572,-0.02914,-0.04669,-0.01114,-0.03342,-0.0502,-0.02319,0.0058,-0.0415,-0.07614,-0.13962,-0.01053,-0.03006,-0.01663,0.01434,-0.03769
4.0295,-0.02472,-0.02853,-0.01633,-0.00839,-0.03143,-0.0444,-0.02045,0.00671,-0.03433,-0.07828,-0.10284,0.00015,-0.03021,-0.01633,0.01236,-0.03525
4.03,-0.03159,-0.0325,0.00214,-0.00595,-0.0293,-0.03967,-0.0177,0.00854,-0.02899,-0.08057,-0.04013,0.0087,-0.03113,-0.01755,0.01221,-0.0325
4.0305,-0.03082,-0.04272,-0.00351,-0.00641,-0.02518,-0.03876,-0.01602,0.00931,-0.02701,-0.08713,0.01343,0.01114,-0.03204,-0.0209,0.01511,-0.02975
4.031,-0.02792,-0.05737,-0.03281,-0.009,-0.02029,-0.0412,-0.01617,0.0087,-0.02609,-0.09674,0.04272,0.01297,-0.03342,-0.02289,0.02045,-0.02762
4.0315,-0.02914,-0.07187,-0.05859,-0.01114,-0.01678,-0.04471,-0.01556,0.00748,-0.02228,-0.10559,0.05463,0.01526,-0.03403,-0.02243,0.0238,-0.02792
4.032,-0.03311,-0.07874,-0.05768,-0.01083,-0.01846,-0.05066,-0.01282,0.00656,-0.01465,-0.1059,0.05737,0.01633,-0.03418,-0.02121,0.0238,-0.02975
4.0325,-0.03281,-0.07858,-0.03021,-0.01068,-0.0264,-0.06012,-0.00992,0.00443,-0.0032,-0.0885,0.05035,0.0116,-0.0351,-0.02213,0.0209,-0.03098
4.033,-0.02457,-0.07813,0.00565,-0.01038,-0.03372,-0.0676,-0.009,0.00122,0.01038,-0.05707,0.03311,0.00275,-0.03525,-0.02213,0.01648,-0.03143
4.0335,-0.01251,-0.08072,0.03845,-0.01053,-0.03555,-0.0679,-0.01129,-0.00366,0.02533,-0.02182,0.00839,-0.00336,-0.0351,-0.01968,0.01328,-0.03128
4.034,-0.00381,-0.0827,0.06454,-0.01175,-0.03372,-0.06058,-0.01404,-0.00717,0.03708,0.00534,-0.01633,-0.0029,-0.03418,-0.01831,0.01251,-0.0322
4.0345,-0.0029,-0.07935,0.0827,-0.01205,-0.03326,-0.05249,-0.01678,-0.00763,0.0412,0.02274,-0.0351,-0.00061,-0.03403,-0.02029,0.01419,-0.03616
4.035,-0.00488,-0.0705,0.08759,-0.01068,-0.03357,-0.04898,-0.01984,-0.00565,0.03647,0.0322,-0.0415,-0.00793,-0.03464,-0.02289,0.01602,-0.0441
4.0355,-0.00565,-0.05737,0.07706,-0.00916,-0.03128,-0.04959,-0.02563,-0.0032,0.02441,0.03891,-0.03952,-0.02563,-0.03555,-0.0235,0.01541,-0.056
4.036,-0.00351,-0.04166,0.05112,-0.0087,-0.02869,-0.0499,-0.03387,-0.00137,0.01129,0.04486,-0.04166,-0.0415,-0.03403,-0.02014,0.0119,-0.06714
4.0365,0.0,-0.02441,0.01984,-0.00992,-0.02731,-0.04944,-0.03952,-0.00076,0.00046,0.04761,-0.05142,-0.04135,-0.03036,-0.0145,0.00473,-0.07538
4.037,0.00214,-0.00809,-0.009,-0.00992,-0.02777,-0.04913,-0.04196,-0.00015,-0.00778,0.04532,-0.05478,-0.02747,-0.02655,-0.01068,-0.00443,-0.07858
4.0375,-0.00046,0.00702,-0.02792,-0.00946,-0.02899,-0.04974,-0.04364,-0.00107,-0.01572,0.03616,-0.0325,-0.02014,-0.02563,-0.01038,-0.01312,-0.07843
4.038,-0.00549,0.02167,-0.03754,-0.00992,-0.02808,-0.05356,-0.04547,-0.01007,-0.02014,0.01968,0.01175,-0.01953,-0.02899,-0.01205,-0.02167,-0.07523
4.0385,-0.00977,0.03464,-0.03815,-0.00946,-0.02701,-0.05905,-0.04135,-0.04395,-0.01724,-0.00534,0.05325,-0.00015,-0.03433,-0.01526,-0.02823,-0.06821
4.039,-0.01114,0.04059,-0.03738,-0.00732,-0.02457,-0.06332,-0.02991,-0.11292,-0.0119,-0.03052,0.07736,0.04715,-0.03876,-0.01755,-0.0293,-0.06104
4.0395,-0.00946,0.03662,-0.03922,-0.00458,-0.0235,-0.06348,-0.01465,-0.18433,-0.01526,-0.03876,0.08469,0.07858,-0.03891,-0.01785,-0.02396,-0.05737
4.04,-0.00717,0.02319,-0.03952,-0.00488,-0.02029,-0.05981,-0.00519,-0.19608,-0.02853,-0.02579,0.0795,0.05035,-0.03754,-0.01602,-0.01129,-0.05585
4.0405,-0.00427,0.00656,-0.03235,-0.00778,-0.01999,-0.05539,-0.0061,-0.12207,-0.04181,-0.00427,0.06058,-0.01907,-0.03418,-0.01328,0.0032,-0.0531
4.041,-0.00412,-0.00381,-0.02167,-0.01007,-0.02075,-0.05295,-0.0148,-0.00671,-0.03952,0.01007,0.03204,-0.07645,-0.0325,-0.01221,0.01251,-0.047
4.0415,-0.00687,-0.00549,-0.01968,-0.01144,-0.02228,-0.05142,-0.02167,0.09384,-0.02243,0.01755,-0.00046,-0.09842,-0.0325,-0.01312,0.01511,-0.04211
4.042,-0.01144,-0.00168,-0.03571,-0.01221,-0.02365,-0.04807,-0.01923,0.15793,0.00259,0.02411,-0.03571,-0.08865,-0.03555,-0.01587,0.0145,-0.03815
4.0425,-0.0145,0.00107,-0.06607,-0.01312,-0.02579,-0.04318,-0.00031,0.18311,0.03296,0.03021,-0.06927,-0.04547,-0.03998,-0.01846,0.01312,-0.0354
4.043,-0.01404,-0.0032,-0.09979,-0.01572,-0.03021,-0.03815,0.02396,0.16312,0.05707,0.03067,-0.08957,0.02731,-0.0415,-0.01862,0.01511,-0.03113
4.0435,-0.00992,-0.01526,-0.1268,-0.01907,-0.03693,-0.03448,0.03128,0.1059,0.05707,0.02518,-0.08667,0.09781,-0.03906,-0.01831,0.01633,-0.0267
4.044,-0.00504,-0.02899,-0.13916,-0.02167,-0.04257,-0.03113,0.01617,0.04318,0.02792,0.01709,-0.06836,0.12817,-0.03464,-0.01923,0.01465,-0.02548
4.0445,-0.00214,-0.03845,-0.13535,-0.02167,-0.04501,-0.02914,0.00214,0.00214,-0.01328,0.00565,-0.04868,0.10635,-0.03235,-0.02136,0.00854,-0.02838
4.045,-0.0029,-0.04379,-0.12039,-0.02136,-0.04471,-0.02899,0.00519,-0.01358,-0.04578,-0.00809,-0.03876,0.05493,-0.03204,-0.02319,0.00214,-0.03372
4.0455,-0.00366,-0.04791,-0.10284,-0.0238,-0.04364,-0.02914,0.00992,-0.01572,-0.06271,-0.02655,-0.04318,0.00977,-0.03265,-0.0235,0.00031,-0.03815
4.046,-0.00229,-0.05081,-0.08575,-0.02899,-0.04105,-0.02853,-0.00076,-0.0119,-0.07172,-0.04913,-0.06119,-0.00793,-0.03357,-0.02289,0.00351,-0.03967
4.0465,0.00259,-0.05142,-0.07019,-0.03235,-0.03967,-0.02884,-0.02029,-0.00336,-0.08118,-0.06912,-0.08377,-0.00259,-0.0322,-0.02243,0.00824,-0.04044
4.047,0.00992,-0.05234,-0.05676,-0.03021,-0.03891,-0.0354,-0.02472,0.00595,-0.08896,-0.07645,-0.0972,0.00061,-0.03235,-0.02319,0.01099,-0.04059
4.0475,0.01785,-0.05432,-0.04623,-0.02258,-0.03677,-0.04822,-0.00763,0.01144,-0.07965,-0.06607,-0.09567,-0.01663,-0.03311,-0.02396,0.01053,-0.03998
4.048,0.02228,-0.05432,-0.03906,-0.01373,-0.03204,-0.06088,0.01251,0.01022,-0.04639,-0.04425,-0.08102,-0.05142,-0.03418,-0.0238,0.01053,-0.03891
4.0485,0.02045,-0.05035,-0.03357,-0.00626,-0.02884,-0.06622,0.01556,0.00488,-0.00488,-0.02121,-0.05692,-0.07324,-0.03387,-0.0238,0.01266,-0.03708
4.049,0.0116,-0.04745,-0.02914,-0.00381,-0.02792,-0.0621,0.00122,0.0,0.02655,-0.00229,-0.02426,-0.04562,-0.03311,-0.02319,0.01526,-0.03372
4.0495,-0.00137,-0.04852,-0.02533,-0.00397,-0.02808,-0.05341,-0.0177,-0.00183,0.04227,0.01297,0.01785,0.02808,-0.0354,-0.02304,0.01572,-0.02975
4.05,-0.01221,-0.05173,-0.02045,-0.00198,-0.02792,-0.04303,-0.03159,-0.00229,0.04349,0.02518,0.06775,0.09583,-0.03876,-0.02197,0.0148,-0.02838
4.0505,-0.01633,-0.05539,-0.01785,0.00412,-0.02594,-0.03616,-0.03967,-0.0029,0.02899,0.03479,0.1149,0.11459,-0.04105,-0.02075,0.01328,-0.03128
4.051,-0.01251,-0.05875,-0.01587,0.01007,-0.02441,-0.0322,-0.0441,-0.00381,0.00595,0.04135,0.14267,0.08469,-0.03952,-0.01968,0.0116,-0.03601
4.0515,-0.00473,-0.06378,-0.01526,0.00916,-0.02518,-0.0322,-0.04562,-0.00549,-0.00595,0.04074,0.14191,0.0206,-0.03815,-0.01862,0.00977,-0.03876
4.052,0.00076,-0.06927,-0.01007,0.00198,-0.02838,-0.03555,-0.04196,-0.00656,-0.00015,0.02579,0.11948,-0.05692,-0.03632,-0.01907,0.009,-0.03738
4.0525,0.00351,-0.07263,0.00519,-0.00656,-0.03082,-0.04044,-0.03128,-0.00824,-0.00046,0.00153,0.09232,-0.11032,-0.03448,-0.01999,0.01068,-0.03677
4.053,0.00381,-0.07172,0.02991,-0.01007,-0.03174,-0.04608,-0.00824,-0.01312,-0.03448,-0.00992,0.06607,-0.11642,-0.03128,-0.01999,0.01236,-0.03769
4.0535,0.0032,-0.06866,0.04395,-0.00961,-0.03098,-0.05219,0.01633,-0.0206,-0.08774,0.00198,0.02151,-0.09857,-0.02914,-0.01801,0.01007,-0.03952
4.054,0.00183,-0.0679,0.03082,-0.01053,-0.03067,-0.06012,0.02777,-0.02884,-0.11871,0.02472,-0.05325,-0.09384,-0.0296,-0.01709,0.00656,-0.04181
4.0545,0.00031,-0.06866,-0.00183,-0.01419,-0.03204,-0.0705,0.0238,-0.03296,-0.10925,0.0351,-0.12665,-0.10101,-0.03265,-0.01801,0.00397,-0.04456
4.055,-0.00061,-0.06897,-0.0322,-0.01801,-0.03342,-0.07706,0.01236,-0.03265,-0.08224,0.02502,-0.14496,-0.08392,-0.03525,-0.01938,0.00427,-0.04761
4.0555,-0.00275,-0.06851,-0.04669,-0.01999,-0.03372,-0.07797,0.00305,-0.02914,-0.06577,0.00046,-0.09384,-0.02457,-0.03677,-0.02045,0.00687,-0.04669
4.056,-0.00626,-0.0679,-0.05081,-0.01984,-0.03265,-0.07172,-0.00458,-0.02502,-0.0679,-0.02838,-0.01526,0.056,-0.03571,-0.02106,0.00809,-0.0441
4.0565,-0.00961,-0.06699,-0.05096,-0.01938,-0.02884,-0.06577,-0.01068,-0.0209,-0.07462,-0.05386,0.04288,0.12665,-0.03571,-0.02167,0.00824,-0.04074
4.057,-0.0119,-0.06531,-0.05112,-0.01938,-0.02731,-0.06088,-0.01373,-0.01434,-0.06714,-0.07004,0.07736,0.1561,-0.03662,-0.02304,0.009,-0.03937
4.0575,-0.01053,-0.06378,-0.04913,-0.01968,-0.02792,-0.056,-0.01465,-0.00183,-0.03494,-0.07782,0.10605,0.11856,-0.03601,-0.02304,0.00992,-0.03922
4.058,-0.00687,-0.06027,-0.0444,-0.0209,-0.02853,-0.05127,-0.01526,0.01617,0.009,-0.08423,0.12589,0.02609,-0.03372,-0.02167,0.01099,-0.03845
4.0585,-0.00336,-0.056,-0.03647,-0.02167,-0.02747,-0.04852,-0.01907,0.02869,0.04013,-0.09598,0.10864,-0.06393,-0.03159,-0.01953,0.0119,-0.03876
4.059,-0.00305,-0.05081,-0.01999,-0.02289,-0.02686,-0.04959,-0.02411,0.02792,0.0441,-0.10605,0.04471,-0.10315,-0.03159,-0.01846,0.0116,-0.03967
4.0595,-0.00549,-0.04486,0.00107,-0.02289,-0.0296,-0.05173,-0.02975,0.01785,0.02747,-0.10132,-0.0325,-0.08881,-0.03204,-0.01785,0.01114,-0.04089
4.06,-0.00778,-0.03845,0.01007,-0.02274,-0.03448,-0.05234,-0.0325,0.00854,0.00107,-0.08301,-0.08896,-0.04257,-0.03204,-0.01801,0.01144,-0.04013
4.0605,-0.00763,-0.03632,-0.00961,-0.02182,-0.03799,-0.05219,-0.03235,0.00504,-0.02625,-0.06042,-0.11627,0.01205,-0.03189,-0.01923,0.01251,-0.03815
4.061,-0.00641,-0.04013,-0.04562,-0.02136,-0.03876,-0.05051,-0.03265,0.00595,-0.04211,-0.04303,-0.1149,0.056,-0.03143,-0.01968,0.01434,-0.03586
4.0615,-0.00412,-0.04776,-0.0676,-0.02182,-0.03769,-0.04776,-0.03647,0.00473,-0.04074,-0.03235,-0.08331,0.08209,-0.03098,-0.01984,0.01526,-0.03403
4.062,-0.00061,-0.05402,-0.06485,-0.02441,-0.03693,-0.04349,-0.03891,0.00076,-0.02869,-0.02777,-0.03433,0.09521,-0.03098,-0.01816,0.01511,-0.03342
4.0625,0.00122,-0.05798,-0.04776,-0.02838,-0.03647,-0.03738,-0.03067,-0.00381,-0.0148,-0.02411,0.00504,0.09476,-0.0296,-0.01663,0.01251,-0.03448
4.063,-0.00046,-0.06027,-0.02426,-0.03204,-0.03525,-0.03128,-0.01038,-0.00534,-0.00046,-0.0174,0.02045,0.06516,-0.02716,-0.01541,0.00809,-0.03616
4.0635,-0.00519,-0.0618,0.01572,-0.03418,-0.03616,-0.0296,0.01114,-0.00488,0.01343,-0.0058,0.01862,-0.0032,-0.0238,-0.01556,0.0029,-0.03998
4.064,-0.00778,-0.06195,0.06729,-0.03418,-0.04059,-0.03265,0.01663,-0.0058,0.02136,0.00259,0.00885,-0.08606,-0.02319,-0.01572,-0.00092,-0.04395
4.0645,-0.00916,-0.05981,0.09857,-0.03265,-0.04562,-0.03647,0.00549,-0.00793,0.0206,0.00397,-0.00549,-0.13107,-0.02319,-0.01572,-0.00214,-0.04517
4.065,-0.01389,-0.05829,0.08286,-0.03128,-0.04776,-0.03876,-0.00824,-0.01114,0.0174,0.00046,-0.0209,-0.11093,-0.02335,-0.01541,-0.00076,-0.0441
4.0655,-0.02258,-0.05478,0.03159,-0.03036,-0.04578,-0.03799,-0.0145,-0.01312,0.02075,-0.00198,-0.03098,-0.05493,-0.0238,-0.01556,0.00168,-0.04181
4.066,-0.02914,-0.04883,-0.01938,-0.02869,-0.04105,-0.03799,-0.01541,-0.01282,0.03906,-0.00458,-0.03265,-0.01465,-0.02487,-0.01694,0.00336,-0.04013
4.0665,-0.02502,-0.04089,-0.05219,-0.02701,-0.03677,-0.04181,-0.01633,-0.01083,0.06638,-0.00885,-0.03464,-0.0061,-0.02731,-0.01892,0.0058,-0.03815
4.067,-0.01266,-0.03113,-0.07202,-0.0238,-0.03342,-0.04852,-0.01709,-0.00961,0.08209,-0.01572,-0.04807,-0.00687,-0.03082,-0.02106,0.00687,-0.03677
4.0675,-0.00397,-0.02213,-0.08728,-0.01831,-0.03082,-0.05478,-0.01587,-0.00946,0.07141,-0.02121,-0.06989,0.00366,-0.03555,-0.02167,0.00748,-0.03693
4.068,-0.00473,-0.01633,-0.09644,-0.01251,-0.02899,-0.05798,-0.01602,-0.01007,0.03723,-0.0264,-0.07965,0.0174,-0.03952,-0.02029,0.00641,-0.03967
4.0685,-0.01022,-0.01373,-0.09949,-0.00961,-0.02792,-0.0589,-0.0209,-0.00916,-0.00381,-0.0296,-0.06134,0.01938,-0.04135,-0.01938,0.00534,-0.04303
4.069,-0.01587,-0.01495,-0.10117,-0.01038,-0.02609,-0.06134,-0.0293,-0.00809,-0.0383,-0.03113,-0.02609,0.01419,-0.03906,-0.01923,0.00427,-0.04547
4.0695,-0.01923,-0.0177,-0.10345,-0.01114,-0.02335,-0.0621,-0.03845,-0.00656,-0.05692,-0.0325,0.00397,0.01907,-0.03693,-0.01831,0.00381,-0.04517
4.07,-0.02075,-0.02136,-0.10361,-0.01038,-0.02182,-0.05722,-0.04684,-0.00473,-0.05783,-0.03906,0.0206,0.03708,-0.03555,-0.01831,0.00443,-0.0441
4.0705,-0.02319,-0.02472,-0.09796,-0.00885,-0.01968,-0.04654,-0.05219,-0.00412,-0.04639,-0.04974,0.02625,0.05234,-0.03586,-0.01785,0.0061,-0.04318
4.071,-0.02579,-0.03052,-0.08392,-0.00717,-0.0177,-0.03296,-0.04913,-0.00534,-0.03204,-0.05341,0.02426,0.04822,-0.0351,-0.01572,0.00824,-0.0441
4.0715,-0.02899,-0.03784,-0.06699,-0.00732,-0.0145,-0.01953,-0.03601,-0.00671,-0.01831,-0.04562,0.0148,0.01907,-0.03357,-0.01358,0.00931,-0.04715
4.072,-0.0322,-0.04471,-0.0499,-0.0087,-0.01266,-0.00839,-0.01572,-0.00641,-0.00443,-0.03143,0.0029,-0.02304,-0.03159,-0.01389,0.00992,-0.05173
4.0725,-0.03235,-0.04807,-0.03845,-0.01099,-0.01129,-0.00336,0.00107,-0.00519,0.00549,-0.0206,-0.00687,-0.05508,-0.03067,-0.01572,0.009,-0.05264
4.073,-0.02899,-0.04745,-0.03296,-0.01175,-0.01114,-0.00824,0.009,-0.00534,-0.0029,-0.02014,-0.01389,-0.05707,-0.03098,-0.01755,0.00824,-0.05112
4.0735,-0.02594,-0.04272,-0.0322,-0.01328,-0.01236,-0.02365,0.00977,-0.009,-0.03281,-0.02838,-0.02197,-0.02701,-0.03311,-0.01663,0.00748,-0.04715
4.074,-0.02701,-0.03876,-0.02884,-0.01541,-0.01602,-0.04272,0.00748,-0.01526,-0.06226,-0.03723,-0.03281,0.00916,-0.03571,-0.01663,0.00839,-0.04257
4.0745,-0.03036,-0.03769,-0.02075,-0.0174,-0.02274,-0.06134,0.00229,-0.02594,-0.06393,-0.03601,-0.03967,0.02594,-0.03723,-0.01678,0.00946,-0.04013
4.075,-0.02869,-0.03922,-0.01205,-0.01709,-0.03036,-0.07675,-0.00839,-0.0386,-0.04227,-0.0235,-0.03326,0.02014,-0.03754,-0.01678,0.00977,-0.03998
4.0755,-0.01862,-0.03952,-0.00671,-0.01541,-0.03754,-0.08347,-0.02213,-0.0473,-0.02335,-0.00702,-0.01602,0.00992,-0.03601,-0.01724,0.00961,-0.0415
4.076,-0.00397,-0.0354,-0.00412,-0.01556,-0.0441,-0.07843,-0.03204,-0.04608,-0.0177,-0.00046,-0.00198,0.00763,-0.03555,-0.01877,0.01099,-0.04425
4.0765,0.00992,-0.02792,0.00015,-0.01816,-0.04852,-0.07065,-0.03479,-0.03677,-0.01892,-0.00793,-0.00168,0.0119,-0.03693,-0.02151,0.01205,-0.04593
4.077,0.01968,-0.02045,0.00381,-0.01953,-0.05264,-0.06851,-0.02899,-0.02609,-0.01877,-0.02365,-0.00931,0.01251,-0.03922,-0.02457,0.01251,-0.04562
4.0775,0.02701,-0.01572,0.00717,-0.01755,-0.05569,-0.0737,-0.0119,-0.01801,-0.01602,-0.03677,-0.01038,0.00931,-0.03952,-0.02579,0.01129,-0.04333
4.078,0.03494,-0.01419,0.00656,-0.01526,-0.05585,-0.07675,0.01053,-0.01343,-0.01144,-0.0415,0.00153,0.00671,-0.03754,-0.02548,0.00809,-0.04028
4.0785,0.04257,-0.01526,0.00031,-0.01602,-0.05325,-0.07309,0.02289,-0.0116,-0.00671,-0.04242,0.0174,0.00793,-0.03448,-0.0238,0.0061,-0.04044
4.079,0.04547,-0.01785,-0.01083,-0.01831,-0.0502,-0.06653,0.01892,-0.00626,-0.00763,-0.04684,0.02457,0.00839,-0.03235,-0.02121,0.00427,-0.0415
4.0795,0.04272,-0.01862,-0.02594,-0.01968,-0.04898,-0.0618,0.00656,0.00595,-0.01343,-0.05661,0.01907,0.0061,-0.0325,-0.01923,0.00427,-0.04166
4.08,0.03647,-0.01877,-0.03723,-0.01816,-0.04715,-0.0589,-0.00259,0.02045,-0.02228,-0.06424,0.0061,0.00168,-0.03372,-0.01938,0.0058,-0.04105
4.0805,0.03021,-0.01816,-0.04547,-0.01129,-0.04349,-0.05432,-0.00549,0.02502,-0.0322,-0.05829,-0.01022,0.00107,-0.03662,-0.02167,0.00656,-0.03906
4.081,0.02472,-0.01892,-0.05035,-0.00046,-0.03998,-0.04883,-0.00916,0.01953,-0.04257,-0.03586,-0.03082,0.00443,-0.0386,-0.02289,0.00671,-0.03723
4.0815,0.01968,-0.02289,-0.05173,0.00687,-0.03708,-0.0444,-0.01495,0.01328,-0.0444,-0.00687,-0.056,0.00824,-0.03937,-0.02213,0.00656,-0.03662
4.082,0.01343,-0.03052,-0.04822,0.00809,-0.03479,-0.04196,-0.02075,0.01297,-0.03586,0.01419,-0.07828,0.00916,-0.03891,-0.02029,0.00732,-0.03876
4.0825,0.00626,-0.03952,-0.04349,0.0029,-0.03036,-0.04242,-0.02411,0.01953,-0.02701,0.02045,-0.08789,0.00763,-0.0383,-0.01892,0.00839,-0.04059
4.083,-0.00137,-0.04517,-0.0412,-0.00275,-0.02365,-0.04242,-0.02472,0.02563,-0.02747,0.01923,-0.09125,0.00961,-0.03632,-0.01816,0.0087,-0.04074
4.0835,-0.00702,-0.04593,-0.04532,-0.00473,-0.01785,-0.04303,-0.02396,0.02838,-0.03098,0.01663,-0.10788,0.01495,-0.03586,-0.01877,0.00778,-0.03983
4.084,-0.00977,-0.04272,-0.05295,-0.00488,-0.01495,-0.04303,-0.02289,0.02457,-0.02258,0.01434,-0.13931,0.01556,-0.03647,-0.01923,0.00687,-0.03906
4.0845,-0.009,-0.0383,-0.0589,-0.00641,-0.01404,-0.04257,-0.0209,0.01633,-0.00076,0.00946,-0.15625,-0.00092,-0.03769,-0.02029,0.00748,-0.03952
4.085,-0.0058,-0.03662,-0.06012,-0.01099,-0.01282,-0.04135,-0.01938,0.00626,0.01541,0.00443,-0.13275,-0.03403,-0.03876,-0.02319,0.01022,-0.03876
4.0855,-0.00412,-0.0383,-0.05661,-0.01602,-0.01328,-0.03998,-0.01907,0.00046,0.01083,0.00092,-0.07294,-0.06577,-0.0383,-0.02533,0.01236,-0.03754
4.086,-0.00458,-0.04303,-0.05219,-0.01938,-0.0148,-0.03952,-0.01938,-0.00031,-0.00824,-0.00046,-0.00214,-0.07706,-0.03723,-0.02487,0.01129,-0.0383
4.0865,-0.00702,-0.047,-0.05051,-0.02106,-0.0206,-0.04074,-0.01968,0.00031,-0.02365,-0.0029,0.05569,-0.05249,-0.03616,-0.02213,0.00824,-0.0412
4.087,-0.01053,-0.04959,-0.05188,-0.02045,-0.03021,-0.04333,-0.01968,0.00031,-0.02411,-0.00946,0.08804,0.00534,-0.03387,-0.02106,0.00595,-0.04623
4.0875,-0.01495,-0.05219,-0.05402,-0.01556,-0.04456,-0.04349,-0.01801,-0.00046,-0.01602,-0.01709,0.09476,0.0708,-0.03235,-0.02167,0.00549,-0.05096
4.088,-0.02014,-0.05844,-0.05234,-0.00549,-0.05798,-0.04364,-0.01709,-0.00183,-0.01007,-0.02136,0.08667,0.11627,-0.03052,-0.02228,0.0058,-0.05234
4.0885,-0.02487,-0.06668,-0.03922,0.00366,-0.06104,-0.04623,-0.01617,-0.00275,-0.00793,-0.02289,0.07355,0.12756,-0.02899,-0.02106,0.00702,-0.05051
4.089,-0.0264,-0.07614,-0.01511,0.00809,-0.0531,-0.05035,-0.01526,-0.00473,-0.00671,-0.02548,0.05997,0.09811,-0.02869,-0.01968,0.00793,-0.04807
4.0895,-0.02304,-0.08072,0.00092,0.00549,-0.04318,-0.05234,-0.01358,-0.00458,-0.00534,-0.02609,0.04776,0.01984,-0.03082,-0.01862,0.00824,-0.04532
4.09,-0.01801,-0.08133,-0.00946,0.00076,-0.03738,-0.05203,-0.01251,-0.00229,-0.00458,-0.02136,0.03845,-0.08575,-0.03357,-0.0177,0.00656,-0.04303
4.0905,-0.01312,-0.08072,-0.04059,-0.00305,-0.03525,-0.04944,-0.01282,-0.00061,-0.00183,-0.0148,0.02899,-0.15274,-0.03448,-0.01724,0.00519,-0.04227
4.091,-0.00839,-0.08224,-0.06409,-0.00473,-0.03342,-0.04669,-0.0148,-0.00137,0.00443,-0.01144,0.01587,-0.12573,-0.03326,-0.01633,0.00473,-0.04242
4.0915,-0.00519,-0.08224,-0.05997,-0.0029,-0.03128,-0.04379,-0.01831,-0.00473,0.01572,-0.00717,-0.00259,-0.03723,-0.03036,-0.01526,0.00504,-0.04364
4.092,-0.00412,-0.07675,-0.03372,0.00015,-0.03036,-0.04135,-0.02243,-0.00671,0.03113,0.00137,-0.0209,0.01999,-0.02991,-0.01572,0.00549,-0.04578
4.0925,-0.00519,-0.06744,-0.00168,0.00244,-0.0296,-0.03906,-0.02335,-0.00702,0.0502,0.01221,-0.03296,0.00687,-0.03159,-0.0174,0.00519,-0.04715
4.093,-0.00641,-0.05753,0.02167,0.00229,-0.02838,-0.0386,-0.02121,-0.0058,0.06531,0.01755,-0.03998,-0.03021,-0.03174,-0.01831,0.00565,-0.04623
4.0935,-0.00809,-0.05081,0.03845,0.00076,-0.02747,-0.03967,-0.0177,-0.00427,0.06775,0.01785,-0.05066,-0.04623,-0.03036,-0.0174,0.00671,-0.0444
