time,RectFemL,VastusMedL,VastusLatL,TibAntL,HamMedL,HamLatL,GastroMedL,GastroLatL,RectFemR,VastusMedR,VastusLatR,TibAntR,HamMedR,HamLatR,GastroMedR,GastroLatR
6.55,0.00366,-0.03143,-0.04196,0.04684,-0.02106,-0.04669,-0.00549,-0.03738,0.06638,-0.00702,-0.01587,-0.02365,-0.03525,-0.01205,0.02625,-0.04196
6.5505,0.00198,-0.0351,-0.04791,0.03983,-0.0087,-0.04883,0.00381,-0.0441,0.07751,-0.00702,-0.00839,-0.01175,-0.03281,-0.01328,0.01328,-0.0412
6.551,0.00198,-0.0351,-0.05203,0.04105,-0.00412,-0.04929,0.00702,-0.03448,0.06622,-0.00977,0.02899,0.00214,-0.02777,-0.01236,0.01495,-0.04196
6.5515,0.0029,-0.03265,-0.05035,0.0354,-0.00412,-0.04807,0.00366,-0.01862,0.03967,-0.00977,0.07904,0.00977,-0.02121,-0.01205,0.04166,-0.04318
6.552,0.00198,-0.03403,-0.04242,0.01312,-0.00397,-0.04532,-0.01114,-0.01663,0.01465,-0.01022,0.08499,0.01038,-0.01266,-0.01572,0.08698,-0.04349
6.5525,-0.00153,-0.03708,-0.03723,-0.01633,0.0,-0.04364,-0.04379,-0.02991,-0.00214,-0.00824,0.02457,0.00854,-0.00931,-0.02151,0.11765,-0.04242
6.553,-0.00412,-0.03723,-0.0386,-0.03372,0.00336,-0.04379,-0.08972,-0.04074,-0.01266,-0.00565,-0.05768,0.00671,-0.01816,-0.02563,0.10223,-0.04272
6.5535,-0.00397,-0.03479,-0.04807,-0.03357,-0.00229,-0.04807,-0.13428,-0.03693,-0.02075,-0.00549,-0.10757,0.00656,-0.03845,-0.0267,0.0531,-0.04303
6.554,-0.00412,-0.03433,-0.06195,-0.02396,-0.02029,-0.05157,-0.15915,-0.02365,-0.0264,-0.01053,-0.11566,0.00809,-0.04868,-0.02487,0.01434,-0.04364
6.5545,-0.009,-0.03799,-0.07584,-0.01617,-0.04517,-0.05249,-0.16068,-0.00656,-0.02838,-0.01785,-0.10788,0.0116,-0.03372,-0.02335,0.00305,-0.04074
6.555,-0.01999,-0.04257,-0.0856,-0.01358,-0.06363,-0.05051,-0.14786,0.01068,-0.02533,-0.02213,-0.10361,0.00977,-0.00519,-0.02396,0.00076,-0.03891
6.5555,-0.03036,-0.047,-0.09033,-0.01282,-0.07645,-0.04807,-0.12787,0.02396,-0.01465,-0.02182,-0.10056,-0.00244,0.01251,-0.02594,-0.00931,-0.03845
6.556,-0.03387,-0.05157,-0.09064,-0.01236,-0.08942,-0.04898,-0.09491,0.02609,0.00671,-0.0174,-0.09186,-0.02014,0.01328,-0.02655,-0.01907,-0.03937
6.5565,-0.03021,-0.0589,-0.08224,-0.02151,-0.09735,-0.05112,-0.04333,0.01709,0.0322,-0.01099,-0.08026,-0.03311,0.0058,-0.02594,-0.02213,-0.04074
6.557,-0.02151,-0.06622,-0.06546,-0.05508,-0.08774,-0.05325,0.01297,0.00229,0.04684,-0.00549,-0.07278,-0.0412,-0.00397,-0.02686,-0.02289,-0.04211
6.5575,-0.01343,-0.06958,-0.04196,-0.11063,-0.06302,-0.0528,0.05219,-0.01007,0.0441,-0.00443,-0.0676,-0.0528,-0.01892,-0.02838,-0.03021,-0.04486
6.558,-0.00839,-0.06653,-0.01923,-0.15579,-0.04059,-0.05142,0.06638,-0.01877,0.03143,-0.00916,-0.05905,-0.07248,-0.03983,-0.02792,-0.03983,-0.04654
6.5585,-0.00336,-0.05951,-0.00397,-0.16052,-0.03006,-0.05219,0.06699,-0.02304,0.02075,-0.01892,-0.04044,-0.09521,-0.06561,-0.02518,-0.04745,-0.04547
6.559,0.00244,-0.05417,0.00443,-0.12024,-0.02655,-0.05493,0.07065,-0.02029,0.01465,-0.02686,-0.01923,-0.10284,-0.09308,-0.02228,-0.04837,-0.04517
6.5595,0.00732,-0.0502,0.00885,-0.0589,-0.02029,-0.05432,0.08301,-0.01373,0.00488,-0.02869,-0.00656,-0.05737,-0.10727,-0.01999,-0.04562,-0.04547
6.56,0.0061,-0.04623,0.00885,0.00397,-0.01266,-0.04898,0.09506,-0.00946,-0.01373,-0.02594,-0.00092,0.06134,-0.09308,-0.01938,-0.03769,-0.04654
6.5605,0.00015,-0.0412,0.00198,0.06546,-0.00336,-0.04303,0.09964,-0.01389,-0.04059,-0.02136,0.00565,0.19165,-0.06042,-0.02121,-0.01938,-0.04562
6.561,-0.00488,-0.03571,-0.00854,0.1181,0.0061,-0.04105,0.09964,-0.01953,-0.06836,-0.02121,0.01617,0.22552,-0.03891,-0.02426,0.00885,-0.04196
6.5615,-0.00534,-0.03113,-0.01831,0.13947,0.01541,-0.04242,0.1004,-0.0235,-0.08621,-0.02258,0.02228,0.13474,-0.04501,-0.0264,0.04501,-0.03693
6.562,-0.00366,-0.0267,-0.02319,0.1178,0.02441,-0.0444,0.10422,-0.02579,-0.08331,-0.02304,0.01923,0.01328,-0.06287,-0.02594,0.08514,-0.03616
6.5625,-0.0032,-0.02274,-0.02579,0.06851,0.03082,-0.0444,0.11063,-0.02762,-0.06424,-0.02258,0.00931,-0.04089,-0.06592,-0.02518,0.12543,-0.0386
6.563,-0.00351,-0.0206,-0.02808,0.02762,0.03036,-0.04288,0.10895,-0.03113,-0.04471,-0.02289,0.00168,-0.02686,-0.047,-0.02502,0.15228,-0.04044
6.5635,-0.00336,-0.02319,-0.03174,0.01205,0.01495,-0.04379,0.08438,-0.03616,-0.03448,-0.02411,-0.00031,-0.00015,-0.0209,-0.02502,0.1445,-0.03891
6.564,-0.0029,-0.03265,-0.03433,0.01556,-0.01068,-0.04684,0.03052,-0.03998,-0.03067,-0.02426,0.00336,0.009,-0.00519,-0.02487,0.10193,-0.03769
6.5645,-0.00381,-0.04547,-0.0351,0.02151,-0.03021,-0.04883,-0.04196,-0.04089,-0.02808,-0.02289,0.00854,0.0087,-0.00351,-0.02533,0.04395,-0.03677
6.565,-0.00443,-0.05234,-0.03632,0.01617,-0.03616,-0.04745,-0.11078,-0.0386,-0.02472,-0.0206,0.01282,0.00702,-0.00778,-0.02563,-0.0061,-0.03555
6.5655,-0.00275,-0.05173,-0.03586,-0.01068,-0.0351,-0.04623,-0.14313,-0.03387,-0.02319,-0.01724,0.01541,0.00488,-0.01236,-0.02365,-0.0322,-0.03586
6.566,-0.00137,-0.04745,-0.03616,-0.05096,-0.03723,-0.04684,-0.11398,-0.03006,-0.02258,-0.01434,0.01862,0.00198,-0.01328,-0.01877,-0.03342,-0.03784
6.5665,-0.00061,-0.04593,-0.03387,-0.07538,-0.03983,-0.04959,-0.0386,-0.02838,-0.02213,-0.01389,0.02625,0.00061,-0.00992,-0.01358,-0.0235,-0.04196
6.567,-0.00229,-0.04776,-0.03143,-0.06744,-0.03479,-0.05096,0.0264,-0.02686,-0.01984,-0.01541,0.04181,-0.00198,-0.00641,-0.00839,-0.01923,-0.0441
6.5675,-0.00381,-0.05127,-0.03128,-0.04395,-0.02838,-0.04852,0.04364,-0.02487,-0.01694,-0.01831,0.06195,-0.00473,-0.00809,-0.00198,-0.02274,-0.04425
6.568,-0.00381,-0.05508,-0.03128,-0.04059,-0.03525,-0.04639,0.02945,-0.02213,-0.0148,-0.02075,0.06927,-0.00549,-0.01312,0.00305,-0.01556,-0.04608
6.5685,-0.00168,-0.05615,-0.03296,-0.06592,-0.05585,-0.04776,0.01587,-0.01953,-0.01526,-0.02792,0.04929,-0.00412,-0.01358,0.00427,0.01984,-0.05127
6.569,0.00046,-0.05402,-0.03525,-0.09003,-0.08026,-0.05127,0.00732,-0.01938,-0.01755,-0.04684,0.00748,-0.00336,-0.01648,0.00229,0.06607,-0.05844
6.5695,0.00198,-0.04776,-0.03632,-0.08698,-0.09689,-0.05447,-0.01511,-0.01999,-0.02075,-0.06989,-0.03159,-0.00443,-0.04089,-0.00015,0.07004,-0.06088
6.57,0.0032,-0.04105,-0.03616,-0.06912,-0.09735,-0.05768,-0.05722,-0.02045,-0.02319,-0.08194,-0.05539,-0.00626,-0.08987,-0.00198,0.00977,-0.05524
6.5705,0.00259,-0.03525,-0.03433,-0.07187,-0.08041,-0.06058,-0.09277,-0.01862,-0.02548,-0.07416,-0.06699,-0.00885,-0.1265,-0.00412,-0.06927,-0.04684
6.571,0.00015,-0.02975,-0.03448,-0.10178,-0.05112,-0.06332,-0.07874,-0.01724,-0.02838,-0.05539,-0.07233,-0.00992,-0.10986,-0.00671,-0.1033,-0.04272
6.5715,-0.00183,-0.02548,-0.04089,-0.12665,-0.0235,-0.06363,-0.01297,-0.01572,-0.02869,-0.03128,-0.07278,-0.00977,-0.04807,-0.01114,-0.08224,-0.04303
6.572,-0.00275,-0.02533,-0.04929,-0.10529,-0.00336,-0.06226,0.04547,-0.01266,-0.02716,-0.00885,-0.06226,-0.00824,0.00504,-0.01663,-0.04837,-0.04379
6.5725,-0.00076,-0.0267,-0.05463,-0.03357,0.00671,-0.06119,0.04639,-0.009,-0.02533,0.01007,-0.0415,-0.00626,0.01099,-0.02396,-0.03235,-0.04288
6.573,0.00336,-0.02762,-0.05463,0.04349,0.01144,-0.0592,0.00885,-0.00671,-0.02243,0.02686,-0.02045,-0.00763,-0.0148,-0.03372,-0.03113,-0.04196
6.5735,0.00595,-0.02945,-0.05234,0.07965,0.01358,-0.05814,-0.0145,-0.00748,-0.01526,0.03891,-0.01114,-0.01144,-0.03693,-0.04456,-0.03204,-0.04288
6.574,0.00397,-0.03265,-0.0531,0.08423,0.01083,-0.05753,-0.01373,-0.00748,-0.00824,0.04257,-0.01389,-0.01343,-0.04623,-0.04913,-0.03357,-0.04501
6.5745,-0.00107,-0.03662,-0.05585,0.09186,0.00076,-0.05676,-0.01511,-0.0061,-0.0061,0.03632,-0.01633,-0.01099,-0.05768,-0.04257,-0.04395,-0.04684
6.575,-0.00504,-0.03983,-0.05539,0.09979,-0.01419,-0.05478,-0.03174,-0.00839,-0.0087,0.02243,-0.00732,-0.00443,-0.07797,-0.0296,-0.06027,-0.04486
6.5755,-0.00595,-0.04196,-0.04852,0.07919,-0.03586,-0.05081,-0.05325,-0.01526,-0.00885,0.00595,0.01083,-0.00092,-0.09094,-0.01968,-0.06439,-0.04044
6.576,-0.00595,-0.04089,-0.03799,0.03601,-0.06516,-0.04761,-0.07034,-0.02594,-0.00168,-0.00702,0.02426,-0.00366,-0.0769,-0.01373,-0.04425,-0.03662
6.5765,-0.00748,-0.03632,-0.02548,0.00854,-0.09811,-0.04532,-0.08362,-0.03632,0.00732,-0.01755,0.02655,-0.01007,-0.03983,-0.01038,-0.01389,-0.0354
6.577,-0.01114,-0.02991,-0.01328,0.01602,-0.1088,-0.04608,-0.09277,-0.04181,0.01205,-0.02518,0.02182,-0.01617,-0.00259,-0.0087,0.00031,-0.03738
6.5775,-0.01617,-0.02777,-0.0032,0.0354,-0.08911,-0.04761,-0.09094,-0.04333,0.01297,-0.03189,0.01648,-0.02243,0.01648,-0.01022,-0.01114,-0.04105
6.578,-0.02045,-0.03281,0.00198,0.0354,-0.05341,-0.04852,-0.07568,-0.04364,0.01068,-0.02945,0.01175,-0.0293,0.01205,-0.01312,-0.02625,-0.04532
6.5785,-0.02289,-0.04059,-0.00046,0.01282,-0.02869,-0.04791,-0.05707,-0.04456,0.00687,-0.02213,0.00534,-0.03448,-0.00946,-0.01587,-0.02625,-0.04639
6.579,-0.02213,-0.04639,-0.01022,-0.01495,-0.02213,-0.04791,-0.05035,-0.04547,0.00336,-0.01633,-0.00061,-0.03372,-0.03204,-0.02075,-0.00366,-0.0444
6.5795,-0.01831,-0.04608,-0.02029,-0.03052,-0.02304,-0.04745,-0.05646,-0.04425,0.00092,-0.01907,0.00137,-0.02548,-0.03372,-0.02975,0.02899,-0.04074
6.58,-0.01251,-0.04242,-0.02609,-0.03403,-0.02289,-0.04669,-0.06317,-0.03983,-0.00305,-0.03067,0.0145,-0.009,-0.01328,-0.03601,0.05432,-0.03845
6.5805,-0.00626,-0.03967,-0.02518,-0.0383,-0.02121,-0.04715,-0.05936,-0.03174,-0.01633,-0.04578,0.03082,0.0145,0.0061,-0.03357,0.0499,-0.03693
6.581,0.00031,-0.04044,-0.02304,-0.05219,-0.02396,-0.04715,-0.04608,-0.02411,-0.04074,-0.05783,0.04059,0.04166,0.00366,-0.02548,0.0235,-0.03723
6.5815,0.00549,-0.04395,-0.02396,-0.07614,-0.03098,-0.04776,-0.03098,-0.01907,-0.07111,-0.05905,0.03906,0.06073,-0.01556,-0.02014,0.00381,-0.03677
6.582,0.00732,-0.04669,-0.03067,-0.10925,-0.04227,-0.04608,-0.01663,-0.01678,-0.0914,-0.05051,0.0296,0.06042,-0.03983,-0.02075,0.00977,-0.0383
6.5825,0.00687,-0.04654,-0.03784,-0.13992,-0.05112,-0.0444,0.00107,-0.01587,-0.09171,-0.03845,0.02075,0.03494,-0.06287,-0.02441,0.02808,-0.0441
6.583,0.0061,-0.04608,-0.04181,-0.14969,-0.04913,-0.04135,0.02136,-0.01526,-0.07675,-0.02884,0.01892,0.00229,-0.07813,-0.02609,0.04608,-0.05081
6.5835,0.00443,-0.04837,-0.04059,-0.13092,-0.03601,-0.03891,0.03876,-0.01419,-0.05707,-0.02121,0.01877,-0.01785,-0.06699,-0.02487,0.07187,-0.05386
6.584,0.00137,-0.05447,-0.0383,-0.09583,-0.02136,-0.03662,0.04089,-0.01236,-0.03769,-0.01099,0.00977,-0.0206,-0.02182,-0.02197,0.10086,-0.0528
6.5845,-0.00427,-0.06042,-0.03784,-0.05325,-0.01389,-0.03586,0.0267,-0.01053,-0.01938,-0.00107,-0.00931,-0.01068,0.03296,-0.01892,0.09872,-0.04974
6.585,-0.0116,-0.06134,-0.03937,-0.00046,-0.01389,-0.03555,0.00565,-0.00809,-0.00397,0.00702,-0.02808,0.00488,0.05981,-0.01709,0.05051,-0.04623
6.5855,-0.01846,-0.05936,-0.03922,0.05432,-0.01709,-0.03555,-0.0087,-0.00427,0.0087,0.01389,-0.03525,0.02487,0.04974,-0.01633,-0.0145,-0.0415
6.586,-0.02518,-0.05859,-0.03677,0.08347,-0.0177,-0.03922,-0.01083,-0.00183,0.02075,0.01907,-0.03128,0.04211,0.02151,-0.01511,-0.06226,-0.03693
6.5865,-0.03036,-0.06012,-0.03265,0.06241,-0.01694,-0.04257,-0.00687,-0.00137,0.03479,0.02106,-0.02808,0.04807,-0.00427,-0.01602,-0.0885,-0.03281
6.587,-0.03357,-0.0621,-0.0293,-0.00168,-0.0148,-0.04318,-0.00641,-0.0029,0.04761,0.01846,-0.03693,0.04303,-0.03235,-0.01877,-0.09171,-0.02991
6.5875,-0.03372,-0.06119,-0.02884,-0.07019,-0.01358,-0.03983,-0.01389,-0.00565,0.05508,0.01236,-0.05203,0.03372,-0.07019,-0.02197,-0.06409,-0.02838
6.588,-0.02792,-0.05737,-0.02869,-0.09644,-0.01266,-0.03647,-0.02258,-0.00732,0.05249,0.00732,-0.06485,0.02167,-0.10406,-0.02304,-0.01312,-0.02945
6.5885,-0.01556,-0.05173,-0.02838,-0.05432,-0.00961,-0.0351,-0.02426,-0.00839,0.03769,-0.00015,-0.06943,0.00275,-0.10345,-0.02396,0.02914,-0.03586
6.589,-0.00275,-0.04593,-0.03021,0.04013,-0.00351,-0.03616,-0.01678,-0.009,0.00763,-0.01068,-0.06653,-0.01953,-0.06638,-0.02747,0.0444,-0.04379
6.5895,0.00473,-0.04517,-0.03311,0.13306,0.00305,-0.03662,-0.00961,-0.00977,-0.03433,-0.02167,-0.0592,-0.03342,-0.0238,-0.03021,0.04395,-0.04883
6.59,0.00748,-0.0499,-0.03815,0.16113,0.00412,-0.03677,-0.00977,-0.01038,-0.07355,-0.02457,-0.04959,-0.0351,-0.00168,-0.02625,0.04242,-0.05157
6.5905,0.00885,-0.05341,-0.04425,0.09094,0.00076,-0.0383,-0.01495,-0.01205,-0.08896,-0.01816,-0.0415,-0.03052,0.00687,-0.01755,0.04639,-0.0531
6.591,0.01007,-0.04807,-0.04684,-0.0502,-0.00534,-0.04196,-0.01694,-0.01099,-0.07462,-0.00977,-0.0354,-0.02625,0.01343,-0.00977,0.05325,-0.05188
6.5915,0.01022,-0.03418,-0.04715,-0.2005,-0.01404,-0.04364,-0.01083,-0.00854,-0.04715,-0.00549,-0.0325,-0.0209,0.0148,-0.00778,0.06165,-0.04791
6.592,0.01022,-0.01984,-0.04684,-0.28625,-0.0267,-0.04227,-0.00198,-0.00412,-0.02808,-0.009,-0.02945,-0.01358,-0.00275,-0.01053,0.06454,-0.04379
6.5925,0.00916,-0.01419,-0.04745,-0.25146,-0.04303,-0.04166,0.00473,0.00153,-0.02304,-0.01709,-0.0267,-0.00168,-0.047,-0.01389,0.04532,-0.04105
6.593,0.00717,-0.01785,-0.04883,-0.09674,-0.05539,-0.04364,0.00793,0.00854,-0.02502,-0.02579,-0.02518,0.01541,-0.10284,-0.01648,-0.00458,-0.03952
6.5935,0.00305,-0.0264,-0.04852,0.08652,-0.05646,-0.04639,0.00717,0.01633,-0.0267,-0.02884,-0.02502,0.03448,-0.13275,-0.01816,-0.06378,-0.04013
6.594,-0.00183,-0.0354,-0.04684,0.17929,-0.04639,-0.04822,-0.00107,0.0209,-0.02792,-0.02716,-0.02655,0.04425,-0.11215,-0.01999,-0.09186,-0.04181
6.5945,-0.00488,-0.04059,-0.04272,0.14648,-0.0354,-0.0502,-0.01984,0.01984,-0.02899,-0.02518,-0.0267,0.03693,-0.06607,-0.01999,-0.06943,-0.04395
6.595,-0.00626,-0.04288,-0.03677,0.05737,-0.03265,-0.05219,-0.03662,0.01282,-0.02609,-0.02487,-0.02487,0.0174,-0.03906,-0.01801,-0.02472,-0.04593
6.5955,-0.00641,-0.04044,-0.02808,-0.00793,-0.03571,-0.05386,-0.03525,0.00229,-0.01526,-0.02426,-0.02121,-0.00504,-0.0351,-0.0148,0.00717,-0.04623
6.596,-0.00671,-0.03433,-0.02121,-0.02655,-0.03937,-0.05508,-0.0177,-0.00778,-0.00122,-0.0235,-0.01617,-0.02106,-0.02533,-0.01511,0.02579,-0.04471
6.5965,-0.0058,-0.02533,-0.02014,-0.01907,-0.04608,-0.05325,-0.0032,-0.01389,0.00702,-0.02823,-0.01114,-0.02289,-0.01205,-0.01663,0.04349,-0.04242
6.597,-0.00366,-0.01617,-0.02487,-0.00717,-0.05188,-0.04929,-0.0029,-0.01694,0.00839,-0.03845,-0.00809,-0.00885,-0.02274,-0.01862,0.0473,-0.04074
6.5975,-0.00137,-0.01205,-0.03021,-0.00732,-0.05524,-0.04501,-0.01038,-0.01892,0.00427,-0.04959,-0.00778,0.00824,-0.05371,-0.01953,0.02197,-0.04242
6.598,0.00046,-0.01556,-0.0325,-0.02167,-0.05219,-0.04288,-0.01709,-0.02167,-0.00031,-0.05432,-0.0119,0.01358,-0.06256,-0.02182,-0.01862,-0.04532
6.5985,0.00198,-0.02609,-0.03021,-0.03967,-0.04364,-0.04257,-0.02319,-0.02197,-0.00732,-0.05783,-0.02136,0.00336,-0.03876,-0.02563,-0.03738,-0.04623
6.599,0.00137,-0.03479,-0.03113,-0.0383,-0.03601,-0.04425,-0.03128,-0.01938,-0.01801,-0.06134,-0.03281,-0.00961,-0.01892,-0.03143,-0.02289,-0.0441
6.5995,-0.00046,-0.03922,-0.03372,-0.01236,-0.03204,-0.04761,-0.03433,-0.01404,-0.02975,-0.06241,-0.03876,-0.01465,-0.02945,-0.0322,0.00809,-0.03983
6.6,-0.0061,-0.04013,-0.03632,0.01968,-0.03235,-0.05081,-0.02625,-0.01221,-0.03616,-0.05585,-0.03494,-0.01328,-0.04898,-0.02792,0.0383,-0.03769
6.6005,-0.01114,-0.04272,-0.03738,0.03525,-0.03326,-0.05478,-0.01266,-0.01419,-0.03311,-0.04547,-0.02716,-0.01495,-0.04608,-0.02182,0.05478,-0.03906
6.601,-0.01373,-0.04501,-0.03616,0.03036,-0.03265,-0.05341,-0.00931,-0.01587,-0.02121,-0.03632,-0.02289,-0.02518,-0.02121,-0.01862,0.05844,-0.0412
6.6015,-0.01236,-0.04562,-0.0354,0.01312,-0.02701,-0.05066,-0.0174,-0.01572,-0.0061,-0.03296,-0.0238,-0.04181,0.00702,-0.01831,0.05402,-0.04105
6.602,-0.00977,-0.04517,-0.03479,-0.01221,-0.01785,-0.04791,-0.02411,-0.01328,0.00366,-0.03143,-0.02304,-0.05905,0.02731,-0.01709,0.04318,-0.03891
6.6025,-0.00946,-0.04669,-0.0351,-0.05157,-0.00778,-0.04837,-0.01938,-0.00824,0.00275,-0.0293,-0.01831,-0.0676,0.03601,-0.01251,0.03067,-0.03662
6.603,-0.01083,-0.04913,-0.03677,-0.10132,0.00092,-0.04929,-0.0116,-0.0032,-0.01114,-0.02304,-0.01083,-0.06409,0.02701,-0.00961,0.01938,-0.03586
6.6035,-0.01083,-0.05112,-0.03815,-0.13885,0.00809,-0.04944,-0.00946,-0.00046,-0.03098,-0.01266,-0.00244,-0.05035,0.00977,-0.01007,0.01328,-0.03494
6.604,-0.00748,-0.05203,-0.03784,-0.13397,0.01434,-0.04715,-0.01328,0.00031,-0.04349,-0.00076,0.01022,-0.02823,-0.00107,-0.01373,0.01373,-0.03586
6.6045,-0.00336,-0.05432,-0.03815,-0.08286,0.01526,-0.04532,-0.01617,0.00061,-0.0415,0.01205,0.03143,0.00198,-0.00305,-0.01663,0.0148,-0.03906
6.605,0.00107,-0.05676,-0.03906,-0.0148,0.01007,-0.04593,-0.01923,0.00168,-0.02792,0.02441,0.05402,0.03464,-0.00732,-0.01892,0.0148,-0.04257
6.6055,0.00244,-0.05493,-0.04272,0.02869,-0.00137,-0.04745,-0.02441,0.00244,-0.01556,0.03296,0.06393,0.06104,-0.01923,-0.01953,0.01068,-0.04471
6.606,0.00031,-0.05005,-0.04562,0.02899,-0.01251,-0.04745,-0.03128,0.00183,-0.01038,0.03525,0.05081,0.0676,-0.02411,-0.01801,0.0058,-0.04379
6.6065,-0.00351,-0.04471,-0.047,-0.00687,-0.02502,-0.04623,-0.03616,-0.00031,-0.01144,0.03311,0.02121,0.04761,-0.01846,-0.01617,0.0032,-0.04318
6.607,-0.00458,-0.04272,-0.04654,-0.05081,-0.04486,-0.04486,-0.03723,0.0,-0.01709,0.03052,-0.00961,0.01022,-0.01755,-0.01602,0.00259,-0.04395
6.6075,-0.00229,-0.04166,-0.04639,-0.07065,-0.07004,-0.04395,-0.03601,0.00153,-0.02487,0.02792,-0.03311,-0.01892,-0.02991,-0.01617,0.00381,-0.04425
6.608,-0.00061,-0.04089,-0.04608,-0.04669,-0.08804,-0.04486,-0.03296,0.00305,-0.03311,0.02335,-0.04974,-0.0148,-0.03906,-0.01343,0.00549,-0.04349
6.6085,-0.0029,-0.04074,-0.04303,0.0061,-0.08987,-0.04593,-0.0293,0.00153,-0.03922,0.01602,-0.06332,0.02701,-0.03983,-0.00961,0.0032,-0.04288
6.609,-0.00748,-0.04196,-0.03769,0.06058,-0.08438,-0.04761,-0.02106,-0.00076,-0.03891,0.00549,-0.07156,0.07721,-0.04913,-0.00916,-0.00793,-0.04257
6.6095,-0.01053,-0.04333,-0.03082,0.10315,-0.08789,-0.04959,-0.00793,-0.00015,-0.03021,-0.00656,-0.07294,0.09171,-0.07263,-0.01221,-0.03265,-0.04364
6.61,-0.01129,-0.04425,-0.02594,0.13794,-0.10071,-0.05142,0.0087,0.00565,-0.01923,-0.01648,-0.065,0.05829,-0.09125,-0.01419,-0.06454,-0.0441
6.6105,-0.01312,-0.04471,-0.02304,0.1561,-0.10864,-0.05341,0.02319,0.0119,-0.01099,-0.02487,-0.05554,0.00992,-0.08682,-0.01419,-0.09064,-0.04608
6.611,-0.01724,-0.04272,-0.02075,0.14282,-0.09689,-0.05722,0.02747,0.01572,-0.00717,-0.0351,-0.05096,-0.01511,-0.06241,-0.01389,-0.10101,-0.04684
6.6115,-0.02121,-0.03784,-0.0177,0.09888,-0.06592,-0.06012,0.0206,0.01648,-0.00381,-0.05325,-0.04776,-0.01266,-0.03952,-0.01709,-0.09949,-0.04547
6.612,-0.02335,-0.03036,-0.01511,0.05508,-0.03311,-0.05875,0.00824,0.01663,0.00092,-0.07355,-0.03387,-0.0029,-0.03128,-0.0206,-0.08926,-0.04395
6.6125,-0.02274,-0.02487,-0.01465,0.03555,-0.01465,-0.05402,0.00015,0.01846,0.00427,-0.08331,-0.0032,0.00381,-0.03555,-0.02167,-0.07645,-0.04227
6.613,-0.01846,-0.02365,-0.01511,0.03265,-0.00854,-0.04913,-0.00778,0.02213,0.00351,-0.07706,0.03586,0.00763,-0.04974,-0.02136,-0.06027,-0.0412
6.6135,-0.01389,-0.02747,-0.01617,0.02518,-0.00824,-0.047,-0.02243,0.02304,-0.00107,-0.0618,0.06699,0.01053,-0.07843,-0.02289,-0.02563,-0.03952
6.614,-0.01114,-0.03555,-0.02014,0.01373,-0.00854,-0.04623,-0.04303,0.0177,-0.01221,-0.04578,0.07263,0.01022,-0.112,-0.02472,0.04684,-0.03815
6.6145,-0.00931,-0.04303,-0.02884,0.01602,-0.01022,-0.04547,-0.05768,0.00717,-0.03174,-0.02884,0.05081,0.00824,-0.12054,-0.02548,0.15625,-0.03815
6.615,-0.00854,-0.04913,-0.03983,0.04471,-0.01526,-0.04593,-0.06104,-0.00244,-0.05264,-0.01205,0.01724,0.00656,-0.08438,-0.0235,0.25009,-0.03998
6.6155,-0.00717,-0.05188,-0.04593,0.09125,-0.02838,-0.04669,-0.06058,-0.00626,-0.06287,0.00275,-0.00717,0.00153,-0.03098,-0.01999,0.26199,-0.04196
6.616,-0.00458,-0.0531,-0.04211,0.12833,-0.04471,-0.04486,-0.06714,-0.00519,-0.05981,0.01007,-0.01389,-0.00702,-0.00473,-0.01587,0.18509,-0.04242
6.6165,-0.00137,-0.05264,-0.03571,0.12787,-0.05402,-0.04196,-0.07813,-0.00168,-0.0499,0.0058,-0.00504,-0.01633,-0.01404,-0.01175,0.08499,-0.04242
6.617,-0.00076,-0.0502,-0.03326,0.09369,-0.04807,-0.04074,-0.08606,0.00153,-0.03845,-0.00427,0.00458,-0.0206,-0.03448,-0.00763,0.0267,-0.0415
6.6175,-0.00351,-0.0473,-0.03387,0.0528,-0.03159,-0.04028,-0.0798,0.00565,-0.02304,-0.01648,0.00336,-0.02029,-0.04547,-0.00595,0.01221,-0.04135
6.618,-0.00916,-0.04623,-0.03326,0.01968,-0.01709,-0.04135,-0.04654,0.00946,-0.00488,-0.02487,-0.00534,-0.01907,-0.04669,-0.00458,0.01175,-0.04272
6.6185,-0.01556,-0.04776,-0.03067,-0.01511,-0.00931,-0.04318,0.01511,0.00778,0.00519,-0.03372,-0.01343,-0.01862,-0.04089,-0.00366,0.009,-0.04547
6.619,-0.02136,-0.05371,-0.02899,-0.05005,-0.00336,-0.04486,0.07843,-0.00336,0.0029,-0.04059,-0.01999,-0.01709,-0.02838,-0.00519,0.00519,-0.04608
6.6195,-0.02579,-0.0589,-0.03174,-0.0618,0.00397,-0.04318,0.10742,-0.02014,-0.00519,-0.0415,-0.02884,-0.01358,-0.01434,-0.00931,0.00168,-0.04333
6.62,-0.0264,-0.06149,-0.03555,-0.03754,0.00946,-0.04013,0.09598,-0.03647,-0.00626,-0.0322,-0.03708,-0.00854,-0.00793,-0.01297,-0.00305,-0.03967
6.6205,-0.0206,-0.06073,-0.03845,0.00534,0.00793,-0.03876,0.07034,-0.04654,0.00381,-0.02121,-0.04059,-0.00519,-0.01511,-0.01419,-0.0087,-0.03815
6.621,-0.00885,-0.05753,-0.03922,0.04318,-0.00397,-0.03998,0.05264,-0.04807,0.02029,-0.0119,-0.03876,-0.00244,-0.03464,-0.01312,-0.01068,-0.03952
6.6215,0.00229,-0.05539,-0.0383,0.06409,-0.02258,-0.0415,0.04532,-0.04059,0.03387,-0.00809,-0.03799,-0.00076,-0.05676,-0.01221,-0.00992,-0.04105
6.622,0.00854,-0.05524,-0.03708,0.06744,-0.04181,-0.04227,0.04089,-0.02747,0.03647,-0.00839,-0.04623,-0.00092,-0.06454,-0.01144,-0.009,-0.04196
6.6225,0.00763,-0.05478,-0.04013,0.05371,-0.05844,-0.04166,0.03906,-0.00992,0.0296,-0.00809,-0.06271,0.00061,-0.05234,-0.01068,-0.0087,-0.04242
6.623,0.00183,-0.0499,-0.04272,0.02182,-0.07324,-0.04196,0.03983,0.00916,0.01999,-0.00519,-0.07828,0.00519,-0.03052,-0.00977,-0.01007,-0.04242
6.6235,-0.00214,-0.04135,-0.0444,-0.02792,-0.08286,-0.0441,0.04303,0.02228,0.01663,0.0,-0.07721,0.01068,-0.01373,-0.01221,-0.01099,-0.04135
6.624,-0.00351,-0.03189,-0.04272,-0.08759,-0.07736,-0.04562,0.04288,0.02411,0.02228,0.00671,-0.04471,0.01328,-0.00366,-0.01892,-0.01099,-0.03983
6.6245,-0.00427,-0.02533,-0.03906,-0.1265,-0.05814,-0.04547,0.03326,0.0174,0.02899,0.01221,0.02441,0.01022,0.00275,-0.02884,-0.00809,-0.03784
6.625,-0.00641,-0.0177,-0.03326,-0.12741,-0.03876,-0.04547,0.00885,0.00824,0.0264,0.01511,0.10895,0.00488,0.00427,-0.03708,-0.0058,-0.03647
6.6255,-0.00885,-0.00671,-0.02823,-0.112,-0.03021,-0.04517,-0.03006,-0.00061,0.01419,0.01434,0.15594,0.00061,-0.00092,-0.03677,-0.00656,-0.03586
6.626,-0.01083,0.0029,-0.02426,-0.12299,-0.0267,-0.04532,-0.0737,-0.00626,-0.00046,0.01129,0.12909,-0.00244,-0.01144,-0.02701,-0.00885,-0.03769
6.6265,-0.01144,0.00687,-0.02274,-0.17105,-0.01923,-0.04639,-0.09811,-0.00671,-0.01236,0.00809,0.05035,-0.00351,-0.02106,-0.01831,-0.00931,-0.04196
6.627,-0.01053,0.00534,-0.0238,-0.21652,-0.01022,-0.04776,-0.08698,-0.00214,-0.02197,0.00488,-0.0235,-0.00229,-0.02518,-0.01984,-0.00839,-0.04761
6.6275,-0.00961,0.00031,-0.02518,-0.22293,-0.00595,-0.04745,-0.05432,0.0029,-0.03159,-0.00031,-0.06409,0.00229,-0.02548,-0.02777,-0.00443,-0.05203
6.628,-0.00793,-0.00381,-0.02716,-0.20676,-0.01022,-0.04761,-0.03311,0.00702,-0.04059,-0.00732,-0.07965,0.00763,-0.02579,-0.03204,-0.00107,-0.05432
6.6285,-0.0032,-0.00534,-0.02762,-0.20508,-0.0174,-0.04929,-0.03174,0.0087,-0.04547,-0.01389,-0.09003,0.01114,-0.02945,-0.0296,-0.00015,-0.05402
6.629,0.00183,-0.01114,-0.02991,-0.21439,-0.01907,-0.05219,-0.02899,0.00961,-0.04639,-0.0177,-0.1001,0.01068,-0.03693,-0.0264,-0.00214,-0.05219
6.6295,0.00504,-0.02365,-0.03128,-0.19241,-0.01312,-0.05356,-0.00641,0.01053,-0.04532,-0.01984,-0.10315,0.00824,-0.04333,-0.0238,-0.00458,-0.04883
6.63,0.00519,-0.03845,-0.03189,-0.11734,-0.0061,-0.05508,0.02441,0.00946,-0.04318,-0.02411,-0.10086,0.00549,-0.04593,-0.02197,-0.00641,-0.04501
6.6305,0.00244,-0.0499,-0.03159,-0.00977,-0.00931,-0.05707,0.03448,0.00732,-0.03647,-0.03281,-0.09933,0.00183,-0.0441,-0.02029,-0.00748,-0.04395
6.631,-0.00214,-0.05493,-0.03448,0.09491,-0.02579,-0.06012,0.01694,0.00549,-0.0238,-0.04318,-0.10117,-0.0029,-0.03723,-0.01892,-0.00641,-0.04318
6.6315,-0.00854,-0.0563,-0.03967,0.16739,-0.04807,-0.0621,-0.01068,0.00427,-0.0087,-0.04868,-0.09369,-0.00748,-0.02304,-0.01816,-0.00519,-0.04272
6.632,-0.01205,-0.05798,-0.04684,0.18997,-0.06622,-0.06363,-0.02823,0.00488,0.00229,-0.05096,-0.07141,-0.01038,-0.00473,-0.0174,-0.00626,-0.04211
6.6325,-0.01282,-0.06088,-0.05249,0.16144,-0.07141,-0.06363,-0.0325,0.00488,0.00595,-0.05295,-0.04257,-0.0145,0.01038,-0.01801,-0.00885,-0.0444
6.633,-0.01373,-0.06409,-0.05325,0.10605,-0.06546,-0.0618,-0.03052,0.00504,0.0032,-0.05692,-0.02228,-0.01953,0.01892,-0.01984,-0.01373,-0.04684
6.6335,-0.01358,-0.06622,-0.05005,0.05402,-0.0528,-0.06012,-0.03204,0.00351,-0.00031,-0.05753,-0.01221,-0.02213,0.02396,-0.02014,-0.01755,-0.04669
6.634,-0.01205,-0.06546,-0.04593,0.0174,-0.04105,-0.0592,-0.04089,0.00275,-0.00122,-0.0528,-0.00641,-0.02411,0.02747,-0.01831,-0.02029,-0.04364
6.6345,-0.00961,-0.06409,-0.04364,-0.00443,-0.03448,-0.05966,-0.05325,0.00336,-0.00031,-0.04425,0.00061,-0.04288,0.01801,-0.01755,-0.02304,-0.03952
6.635,-0.00946,-0.06195,-0.04669,-0.01144,-0.0325,-0.06149,-0.06287,0.00519,0.00031,-0.03876,0.00793,-0.07889,-0.02228,-0.01877,-0.02472,-0.03784
6.6355,-0.01373,-0.05844,-0.05463,-0.0058,-0.03082,-0.06378,-0.06927,0.00671,0.00198,-0.04288,0.01541,-0.08865,-0.08041,-0.02228,-0.02411,-0.03693
6.636,-0.01892,-0.05142,-0.06149,-0.0032,-0.03006,-0.06439,-0.07263,0.00793,0.00595,-0.05356,0.02335,-0.0415,-0.11276,-0.02502,-0.01526,-0.03693
6.6365,-0.02304,-0.04181,-0.06622,-0.01892,-0.02914,-0.06317,-0.06393,0.00885,0.0119,-0.05966,0.03281,0.02274,-0.09323,-0.02655,0.00565,-0.03586
6.637,-0.02502,-0.03479,-0.06851,-0.04044,-0.02731,-0.06012,-0.03815,0.00748,0.01328,-0.05447,0.04288,0.04257,-0.04913,-0.02853,0.03159,-0.03662
6.6375,-0.02335,-0.03723,-0.0679,-0.04333,-0.0264,-0.05753,-0.00366,0.00473,0.00351,-0.04135,0.0473,0.02045,-0.03067,-0.02716,0.05096,-0.03937
6.638,-0.01755,-0.04669,-0.06256,-0.02258,-0.02731,-0.05508,0.02182,0.00244,-0.01389,-0.02609,0.04303,0.00229,-0.04684,-0.0206,0.0502,-0.04105
6.6385,-0.00931,-0.05615,-0.05539,0.0029,-0.02975,-0.05371,0.03769,0.0029,-0.02899,-0.01312,0.03006,0.00656,-0.06378,-0.01205,0.03555,-0.0412
6.639,0.00092,-0.06027,-0.04776,0.01389,-0.02991,-0.05234,0.04959,0.0058,-0.03952,-0.00153,0.01526,0.01389,-0.06226,-0.00778,0.02106,-0.04044
6.6395,0.0145,-0.05936,-0.03891,0.00793,-0.02716,-0.0502,0.05188,0.009,-0.05157,0.00916,0.00366,0.01251,-0.06653,-0.00992,0.01358,-0.03998
6.64,0.03204,-0.05463,-0.03143,-0.01129,-0.0235,-0.04837,0.0351,0.00809,-0.07141,0.01816,0.00122,0.00763,-0.0885,-0.01419,0.00748,-0.04044
6.6405,0.04822,-0.04883,-0.02502,-0.03922,-0.0206,-0.04593,0.00732,0.00504,-0.09903,0.02182,0.00443,0.00549,-0.09613,-0.01633,0.00031,-0.04135
6.641,0.05234,-0.04486,-0.01617,-0.06622,-0.02075,-0.0415,-0.0145,0.0,-0.12024,0.02106,0.00381,0.00351,-0.0679,-0.01633,0.00076,-0.04227
6.6415,0.03693,-0.04318,-0.00336,-0.07553,-0.02243,-0.0383,-0.02563,-0.00504,-0.11902,0.01511,-0.00443,0.00153,-0.02823,-0.01678,0.00687,-0.04135
6.642,0.00854,-0.04028,0.01083,-0.06607,-0.02319,-0.03723,-0.03143,-0.0061,-0.09216,0.00671,-0.01678,0.00122,-0.01129,-0.02014,0.00916,-0.0415
6.6425,-0.01678,-0.03693,0.01907,-0.05463,-0.02319,-0.03922,-0.03464,-0.00168,-0.0528,-0.00168,-0.03235,0.00443,-0.01465,-0.02426,0.00076,-0.04318
6.643,-0.02655,-0.03357,0.01923,-0.04929,-0.02182,-0.03967,-0.03204,0.00351,-0.01953,-0.00839,-0.04501,0.00595,-0.0174,-0.02411,-0.00946,-0.04501
6.6435,-0.02167,-0.03174,0.01282,-0.0444,-0.01755,-0.03983,-0.02487,-0.00198,0.00015,-0.01343,-0.04837,0.00427,-0.01633,-0.01968,-0.00977,-0.04562
6.644,-0.01312,-0.03113,0.00305,-0.03601,-0.0116,-0.0386,-0.01862,-0.01968,0.00565,-0.01846,-0.0386,0.00351,-0.01511,-0.01419,-0.00168,-0.04395
6.6445,-0.00824,-0.03311,-0.00854,-0.03052,-0.00732,-0.03647,-0.01648,-0.03418,0.00137,-0.02151,-0.02182,0.00397,-0.0119,-0.01236,0.00839,-0.04379
6.645,-0.00778,-0.03967,-0.01724,-0.02487,-0.0087,-0.03403,-0.01343,-0.02182,-0.00824,-0.02167,-0.01083,0.00671,-0.00229,-0.01297,0.02075,-0.04349
6.6455,-0.00977,-0.04868,-0.02365,-0.0119,-0.01282,-0.03281,-0.00977,0.0177,-0.01678,-0.02106,-0.00931,0.00885,0.01068,-0.01236,0.03342,-0.04318
6.646,-0.01297,-0.05234,-0.02563,0.0061,-0.01526,-0.03372,-0.01556,0.05203,-0.01663,-0.01984,-0.01099,0.009,0.01785,-0.00885,0.03967,-0.04395
6.6465,-0.01434,-0.04715,-0.0264,0.01389,-0.01617,-0.03479,-0.03555,0.04913,-0.00488,-0.01938,-0.00809,0.00565,0.01419,-0.00504,0.03632,-0.04532
6.647,-0.01297,-0.03662,-0.03067,0.00565,-0.01999,-0.03647,-0.05753,0.01999,0.00946,-0.01999,-0.0032,-0.00259,0.00092,-0.00443,0.02838,-0.04532
6.6475,-0.01114,-0.02747,-0.03998,-0.0058,-0.02899,-0.03876,-0.06454,-0.00259,0.01602,-0.02304,0.00076,-0.01114,-0.02045,-0.00641,0.02426,-0.0441
6.648,-0.00977,-0.01968,-0.05142,-0.00809,-0.03922,-0.04196,-0.05035,-0.00549,0.01175,-0.0267,0.00366,-0.01251,-0.03998,-0.00977,0.02289,-0.04196
6.6485,-0.00793,-0.01038,-0.05722,-0.00565,-0.0386,-0.04517,-0.02167,-0.00107,0.00244,-0.02884,0.01053,-0.00305,-0.0444,-0.01434,0.01984,-0.04044
6.649,-0.00381,-0.00183,-0.05417,-0.00626,-0.02228,-0.04959,0.00641,-0.00381,-0.0058,-0.02975,0.02991,0.01175,-0.02853,-0.02197,0.01007,-0.03967
6.6495,0.00458,-0.00183,-0.04776,-0.00916,0.00183,-0.05402,0.02014,-0.00946,-0.01175,-0.03357,0.05478,0.0235,-0.01419,-0.03311,-0.00366,-0.0386
6.65,0.01602,-0.01328,-0.04166,-0.00702,0.01801,-0.05646,0.01297,-0.01053,-0.01801,-0.0441,0.06256,0.02945,-0.0267,-0.04562,-0.01419,-0.03845
6.6505,0.02457,-0.03159,-0.03632,0.00183,0.02029,-0.05661,-0.00229,-0.00626,-0.02197,-0.06195,0.03799,0.03067,-0.06088,-0.05325,-0.01419,-0.03952
6.651,0.02731,-0.04395,-0.02975,0.01114,0.01251,-0.05493,-0.01328,-0.00122,-0.02014,-0.07614,-0.00549,0.0264,-0.08453,-0.05142,-0.00305,-0.0412
6.6515,0.02502,-0.04654,-0.02655,0.01419,0.01007,-0.05356,-0.01801,0.00168,-0.01251,-0.07584,-0.03937,0.0177,-0.07187,-0.04211,0.00885,-0.04105
6.652,0.02029,-0.04395,-0.02869,0.01221,0.01907,-0.05173,-0.02335,0.00336,-0.00336,-0.065,-0.05127,0.009,-0.04242,-0.03372,0.01251,-0.03983
6.6525,0.0148,-0.04257,-0.03235,0.01236,0.03067,-0.04883,-0.03052,0.00534,0.00549,-0.05157,-0.04852,0.00122,-0.02838,-0.03082,0.00931,-0.03906
6.653,0.01114,-0.04288,-0.03342,0.02731,0.01816,-0.04654,-0.03357,0.00748,0.01358,-0.0383,-0.04303,-0.01419,-0.03784,-0.02808,0.0032,-0.03906
6.6535,0.009,-0.04211,-0.03128,0.05554,-0.02975,-0.0473,-0.02914,0.00839,0.02167,-0.02243,-0.0383,-0.04272,-0.04654,-0.02182,-0.00259,-0.03998
6.654,0.00778,-0.04303,-0.03082,0.07004,-0.09399,-0.05112,-0.02197,0.00732,0.02655,-0.00198,-0.0322,-0.07309,-0.04105,-0.01221,-0.00992,-0.03967
6.6545,0.00824,-0.04562,-0.03342,0.03067,-0.13977,-0.05432,-0.02274,0.0058,0.02731,0.01694,-0.02731,-0.08942,-0.03708,-0.00244,-0.01984,-0.03784
6.655,0.00717,-0.05035,-0.03769,-0.07751,-0.15686,-0.05508,-0.02975,0.00168,0.01968,0.03036,-0.02747,-0.08713,-0.05005,0.00839,-0.03036,-0.03769
6.6555,0.0058,-0.05295,-0.03754,-0.21988,-0.15549,-0.05569,-0.03326,-0.00626,0.00458,0.03952,-0.0325,-0.07446,-0.06256,0.02151,-0.03632,-0.0386
6.656,0.00458,-0.0531,-0.03571,-0.33325,-0.14008,-0.05905,-0.02823,-0.01465,-0.01175,0.04257,-0.03601,-0.05417,-0.05112,0.03265,-0.03372,-0.03967
6.6565,0.00565,-0.05203,-0.03387,-0.37186,-0.11215,-0.0592,-0.02075,-0.01816,-0.02747,0.03983,-0.03418,-0.02472,-0.02487,0.03311,-0.02274,-0.03983
6.657,0.00717,-0.0499,-0.03387,-0.32333,-0.07416,-0.05539,-0.01572,-0.01465,-0.04623,0.02777,-0.02625,0.00931,-0.01083,0.01297,-0.01541,-0.04105
6.6575,0.00565,-0.04944,-0.03525,-0.19241,-0.0412,-0.04883,-0.00641,-0.00854,-0.06805,0.00641,-0.0174,0.0386,-0.01953,-0.02716,-0.02182,-0.04227
6.658,0.00153,-0.05112,-0.0351,0.01862,-0.02701,-0.04532,0.01114,-0.0058,-0.0795,-0.01923,-0.01419,0.06073,-0.03159,-0.0679,-0.03281,-0.04318
6.6585,-0.00366,-0.05539,-0.03403,0.25772,-0.02594,-0.04593,0.02716,-0.00443,-0.06989,-0.04272,-0.01663,0.07538,-0.03494,-0.08545,-0.03021,-0.04196
6.659,-0.00854,-0.05859,-0.03387,0.40451,-0.02808,-0.04593,0.02502,-0.00122,-0.04868,-0.05707,-0.01984,0.07248,-0.03281,-0.07263,-0.01022,-0.03891
6.6595,-0.01236,-0.05981,-0.03342,0.36423,-0.02945,-0.0441,0.009,0.00336,-0.03326,-0.06058,-0.02121,0.0441,-0.03342,-0.04578,0.00992,-0.03799
6.66,-0.01373,-0.05768,-0.03387,0.186,-0.0351,-0.0412,-0.00336,0.00473,-0.02884,-0.05569,-0.02197,0.00214,-0.03418,-0.0267,0.01846,-0.03876
6.6605,-0.01297,-0.05371,-0.03403,0.01129,-0.04593,-0.04105,-0.00366,0.00137,-0.03036,-0.04852,-0.02426,-0.02701,-0.0267,-0.02197,0.02686,-0.04181
6.661,-0.01129,-0.04974,-0.03311,-0.07721,-0.05417,-0.0415,0.00076,-0.00732,-0.02975,-0.04257,-0.0267,-0.03296,-0.01236,-0.02335,0.05203,-0.04318
6.6615,-0.009,-0.04684,-0.03281,-0.10025,-0.04959,-0.04074,0.00137,-0.01938,-0.02808,-0.03738,-0.02747,-0.02304,0.00153,-0.02441,0.0856,-0.04303
6.662,-0.00702,-0.04471,-0.03342,-0.09674,-0.03769,-0.03967,-0.00366,-0.03021,-0.02502,-0.03021,-0.02563,-0.00854,0.00854,-0.02594,0.10056,-0.04181
6.6625,-0.00534,-0.04242,-0.03326,-0.06836,-0.02472,-0.04074,-0.01022,-0.03265,-0.02243,-0.01816,-0.02182,0.00854,0.01144,-0.02808,0.0975,-0.04181
6.663,-0.00488,-0.0415,-0.03311,-0.00351,-0.01633,-0.04013,-0.01572,-0.02487,-0.02258,-0.00381,-0.01999,0.0177,0.01419,-0.03265,0.09827,-0.04333
6.6635,-0.00595,-0.0444,-0.03235,0.0885,-0.0148,-0.03937,-0.01892,-0.01236,-0.02335,0.00946,-0.02258,0.00519,0.00824,-0.03571,0.09583,-0.04349
6.664,-0.00961,-0.04898,-0.03235,0.18265,-0.02304,-0.04028,-0.01785,-0.0032,-0.02197,0.01953,-0.02731,-0.00977,-0.01572,-0.03159,0.05569,-0.04257
6.6645,-0.0116,-0.05249,-0.03342,0.2533,-0.03906,-0.04303,-0.01694,0.00229,-0.01816,0.02792,-0.02945,0.02579,-0.04684,-0.02228,-0.01724,-0.04181
6.665,-0.01007,-0.05035,-0.03372,0.26932,-0.04822,-0.04303,-0.02197,0.01007,-0.01541,0.03754,-0.0264,0.11459,-0.06454,-0.01511,-0.07294,-0.04135
6.6655,-0.00534,-0.04211,-0.03113,0.2005,-0.03998,-0.03952,-0.03235,0.02365,-0.01389,0.04623,-0.02029,0.17792,-0.06989,-0.01297,-0.08057,-0.03998
6.666,-0.00397,-0.03189,-0.02975,0.03738,-0.02167,-0.03708,-0.04013,0.03372,-0.01862,0.0444,-0.0116,0.14801,-0.08347,-0.01526,-0.06622,-0.03906
6.6665,-0.00824,-0.02548,-0.02777,-0.17792,-0.00839,-0.03738,-0.04303,0.03311,-0.03143,0.02914,-0.0029,0.05951,-0.09705,-0.0177,-0.056,-0.03952
6.667,-0.0148,-0.02289,-0.02747,-0.35522,-0.00443,-0.03998,-0.04242,0.02533,-0.04684,0.00854,0.00366,-0.00031,-0.08469,-0.01862,-0.03479,-0.04395
6.6675,-0.02045,-0.02243,-0.02869,-0.39627,-0.00458,-0.04135,-0.03174,0.01999,-0.05219,-0.01099,0.01144,-0.00549,-0.05005,-0.01755,0.01587,-0.04959
6.668,-0.02304,-0.0235,-0.03174,-0.24887,-0.00793,-0.03891,-0.0061,0.0174,-0.04181,-0.02533,0.03235,0.0061,-0.02655,-0.01572,0.07187,-0.0531
6.6685,-0.02426,-0.02991,-0.03677,0.02304,-0.01175,-0.03494,0.02182,0.01175,-0.0206,-0.03052,0.07462,0.00397,-0.02487,-0.01511,0.08896,-0.05295
6.669,-0.0264,-0.03784,-0.0412,0.25421,-0.01526,-0.03357,0.03342,0.00275,0.00244,-0.02945,0.12558,-0.01022,-0.03098,-0.0148,0.06195,-0.04944
6.6695,-0.03174,-0.04379,-0.04089,0.32028,-0.01541,-0.03311,0.0238,-0.00427,0.02075,-0.02747,0.14725,-0.02182,-0.03159,-0.01404,0.02274,-0.04486
6.67,-0.03922,-0.04501,-0.0383,0.242,-0.01877,-0.03494,0.00259,-0.00763,0.03342,-0.03067,0.1149,-0.02747,-0.02945,-0.01373,-0.00305,-0.04364
6.6705,-0.04425,-0.0441,-0.03769,0.12726,-0.03113,-0.03677,-0.0145,-0.00931,0.04044,-0.03616,0.04593,-0.03052,-0.03006,-0.01389,-0.01541,-0.04486
6.671,-0.04593,-0.0444,-0.04395,0.05661,-0.04623,-0.03677,-0.02197,-0.00885,0.04059,-0.03784,-0.01755,-0.03128,-0.03265,-0.01175,-0.01633,-0.04623
6.6715,-0.04318,-0.0473,-0.05661,0.02777,-0.05219,-0.03479,-0.02014,-0.00626,0.03616,-0.03723,-0.05386,-0.03067,-0.03387,-0.00839,0.00671,-0.04608
6.672,-0.03647,-0.05127,-0.07126,0.00626,-0.04517,-0.03479,-0.01617,-0.00381,0.03265,-0.0351,-0.06989,-0.03113,-0.03021,-0.00656,0.0563,-0.04364
6.6725,-0.02457,-0.05249,-0.08179,-0.02151,-0.03281,-0.03647,-0.01572,-0.00305,0.0325,-0.03189,-0.0798,-0.03555,-0.0235,-0.00763,0.10147,-0.04318
6.673,-0.00961,-0.0531,-0.08636,-0.04471,-0.01755,-0.03876,-0.01816,-0.00366,0.02869,-0.02701,-0.08469,-0.04471,-0.01709,-0.01266,0.10437,-0.04318
6.6735,0.0032,-0.05386,-0.08331,-0.05249,-0.00092,-0.04059,-0.02228,-0.00412,0.01221,-0.02304,-0.07965,-0.0563,-0.01465,-0.02014,0.06393,-0.04288
6.674,0.01068,-0.0531,-0.06927,-0.05249,0.0174,-0.04349,-0.02487,-0.00488,-0.01282,-0.01801,-0.06775,-0.06393,-0.01434,-0.02701,0.02228,-0.04272
6.6745,0.01404,-0.04776,-0.04608,-0.05325,0.03372,-0.04547,-0.02838,-0.00778,-0.03143,-0.01511,-0.05615,-0.06516,-0.01389,-0.02792,0.00793,-0.0415
6.675,0.01419,-0.0412,-0.0235,-0.0589,0.04181,-0.04517,-0.0296,-0.0087,-0.03632,-0.01419,-0.04852,-0.06317,-0.01709,-0.02319,0.01099,-0.04059
6.6755,0.01251,-0.0351,-0.00626,-0.06485,0.03998,-0.04349,-0.02701,-0.0061,-0.03525,-0.02029,-0.03616,-0.06332,-0.02945,-0.01724,0.01297,-0.03937
6.676,0.01053,-0.03098,0.00366,-0.06699,0.02029,-0.04395,-0.02106,-0.00076,-0.03723,-0.03296,-0.00656,-0.05783,-0.04364,-0.01511,0.00931,-0.03952
6.6765,0.009,-0.0293,0.00534,-0.06638,-0.02029,-0.04852,-0.01648,0.00244,-0.04562,-0.04059,0.02838,-0.0354,-0.0473,-0.01648,0.00656,-0.04013
6.677,0.00732,-0.0322,0.00122,-0.06439,-0.07339,-0.0531,-0.01526,0.00137,-0.05676,-0.03738,0.03769,0.0087,-0.03906,-0.0174,0.0058,-0.04074
6.6775,0.00458,-0.03799,-0.00595,-0.06042,-0.11185,-0.05341,-0.01816,-0.00122,-0.06165,-0.02472,0.00961,0.05417,-0.03128,-0.01587,0.00473,-0.03952
6.678,-0.00046,-0.04547,-0.01312,-0.05203,-0.12131,-0.05356,-0.02243,-0.00336,-0.05478,-0.01266,-0.03052,0.07889,-0.02914,-0.01587,0.00336,-0.0383
6.6785,-0.00549,-0.05341,-0.02029,-0.03998,-0.1091,-0.05539,-0.02625,-0.00443,-0.03738,-0.00977,-0.05814,0.08087,-0.02823,-0.0177,0.00183,-0.04044
6.679,-0.00854,-0.05966,-0.02625,-0.02335,-0.08942,-0.05692,-0.02533,-0.00458,-0.0209,-0.01328,-0.06805,0.07538,-0.02487,-0.01984,-0.00015,-0.04272
6.6795,-0.00885,-0.0618,-0.0293,-0.00153,-0.06882,-0.05569,-0.02106,-0.00229,-0.01373,-0.02045,-0.07111,0.06744,-0.01862,-0.02106,-0.00061,-0.0444
6.68,-0.00687,-0.05722,-0.03067,0.01984,-0.05081,-0.05188,-0.01587,-0.00046,-0.01526,-0.0264,-0.07217,0.05219,-0.00885,-0.02411,0.00015,-0.04608
6.6805,-0.00473,-0.05051,-0.0325,0.02853,-0.0412,-0.04913,-0.01282,-0.00076,-0.02045,-0.0325,-0.06836,0.0325,0.00687,-0.03036,0.00275,-0.0473
6.681,-0.00305,-0.04654,-0.03265,0.0119,-0.04074,-0.04761,-0.01251,-0.00259,-0.02426,-0.03693,-0.0621,0.0177,0.02396,-0.03845,0.00351,-0.04761
6.6815,-0.00137,-0.04593,-0.03036,-0.02686,-0.03983,-0.04623,-0.01328,-0.00412,-0.02518,-0.03891,-0.05768,0.0058,0.02686,-0.04547,0.00153,-0.04684
6.682,0.00076,-0.04349,-0.02792,-0.06332,-0.03815,-0.04578,-0.01617,-0.00626,-0.02304,-0.0383,-0.05966,-0.00702,-0.00259,-0.047,-0.00244,-0.04425
6.6825,0.00092,-0.03723,-0.02716,-0.06973,-0.03372,-0.04623,-0.0206,-0.00931,-0.01724,-0.03708,-0.06332,-0.01297,-0.05081,-0.04242,-0.00717,-0.04272
6.683,0.0,-0.0322,-0.02716,-0.04791,-0.0293,-0.04639,-0.02411,-0.01038,-0.00977,-0.0351,-0.05981,0.00671,-0.08438,-0.03571,-0.00916,-0.04288
6.6835,-0.00381,-0.03143,-0.02853,-0.02548,-0.02701,-0.04456,-0.02396,-0.00854,-0.00519,-0.03326,-0.04333,0.05188,-0.08636,-0.02975,-0.00809,-0.04318
6.684,-0.00748,-0.03403,-0.02975,-0.02411,-0.02518,-0.04272,-0.02106,-0.00565,-0.01099,-0.03235,-0.02029,0.09247,-0.06943,-0.02548,-0.00458,-0.04196
6.6845,-0.00854,-0.03479,-0.0296,-0.04501,-0.02197,-0.04196,-0.01633,-0.00305,-0.02777,-0.0293,-0.00015,0.0946,-0.0589,-0.01953,-0.00183,-0.03952
6.685,-0.00702,-0.03113,-0.0267,-0.07706,-0.01999,-0.04333,-0.01358,-0.00198,-0.04486,-0.02411,0.01144,0.05386,-0.0621,-0.01282,-0.00229,-0.03723
6.6855,-0.00504,-0.02502,-0.02579,-0.10864,-0.0177,-0.04608,-0.01312,-0.00046,-0.04654,-0.01984,0.01541,0.00061,-0.07141,-0.0058,-0.00519,-0.03708
6.686,-0.00519,-0.02045,-0.02777,-0.12802,-0.01877,-0.04837,-0.01373,0.00076,-0.03265,-0.02045,0.01541,-0.02899,-0.06821,0.00015,-0.00702,-0.0386
6.6865,-0.00717,-0.02014,-0.03082,-0.13245,-0.01984,-0.04929,-0.01404,0.00076,-0.01312,-0.02106,0.01266,-0.0177,-0.04593,0.0058,-0.0087,-0.03983
6.687,-0.00977,-0.02411,-0.03174,-0.121,-0.02106,-0.04868,-0.01343,-0.00061,0.00153,-0.02151,0.01068,0.02243,-0.01053,0.01343,-0.01099,-0.03937
6.6875,-0.01328,-0.03082,-0.03311,-0.07233,-0.01892,-0.04807,-0.01175,-0.00183,0.00992,-0.01907,0.01099,0.05234,0.0238,0.02228,-0.01083,-0.03937
6.688,-0.01617,-0.03754,-0.0351,0.02716,-0.01816,-0.04974,-0.01099,-0.00183,0.01404,-0.01724,0.01389,0.03922,0.04166,0.02869,-0.01068,-0.04089
6.6885,-0.01633,-0.03891,-0.03769,0.1358,-0.02106,-0.05188,-0.00961,-0.0029,0.01495,-0.01678,0.01785,-0.01007,0.02914,0.02625,-0.00717,-0.0444
6.689,-0.01205,-0.03738,-0.03799,0.17639,-0.02441,-0.05493,-0.00916,-0.00488,0.01465,-0.01465,0.02029,-0.06073,-0.00763,0.00626,-0.00107,-0.04654
6.6895,-0.00778,-0.0354,-0.03799,0.12955,-0.02579,-0.05646,-0.00961,-0.00626,0.01526,-0.01221,0.02029,-0.09003,-0.04517,-0.02579,0.00183,-0.04623
6.69,-0.00565,-0.03342,-0.03601,0.05524,-0.02319,-0.05463,-0.0087,-0.00504,0.01633,-0.00992,0.01419,-0.09094,-0.06638,-0.05035,0.00137,-0.04333
6.6905,-0.00534,-0.02975,-0.03601,0.0148,-0.01953,-0.05295,-0.00732,-0.0029,0.01877,-0.00839,0.00366,-0.06195,-0.07874,-0.05203,0.00076,-0.04059
6.691,-0.00702,-0.02213,-0.03571,0.00671,-0.01373,-0.05234,-0.0058,-0.00214,0.01984,-0.00641,-0.00656,-0.01221,-0.08713,-0.03571,0.00244,-0.04105
6.6915,-0.00977,-0.01434,-0.03738,-0.00366,-0.00504,-0.05203,-0.00687,-0.00198,0.01755,-0.00229,-0.01205,0.02869,-0.08224,-0.01999,0.00595,-0.04288
6.692,-0.01297,-0.01129,-0.04257,-0.02914,0.00458,-0.05219,-0.01038,-0.00336,0.00977,0.00015,-0.01328,0.03555,-0.05692,-0.01785,0.00854,-0.04379
6.6925,-0.01389,-0.01724,-0.05035,-0.05539,0.01022,-0.05432,-0.01587,-0.00702,-0.00092,0.00031,-0.01129,0.0116,-0.0293,-0.03128,0.01068,-0.04272
6.693,-0.01022,-0.02914,-0.05585,-0.0705,0.00427,-0.05783,-0.01892,-0.01129,-0.01068,-0.0032,-0.00839,-0.02289,-0.0177,-0.04929,0.01373,-0.04089
6.6935,-0.00214,-0.0415,-0.05646,-0.07355,-0.01022,-0.06119,-0.01831,-0.01404,-0.01999,-0.01175,0.00275,-0.05096,-0.02213,-0.0592,0.01389,-0.04105
6.694,0.00504,-0.04913,-0.05203,-0.0676,-0.02594,-0.06317,-0.01663,-0.01389,-0.02838,-0.02502,0.03754,-0.05981,-0.02869,-0.05203,0.01114,-0.04303
6.6945,0.00839,-0.05157,-0.04684,-0.05707,-0.03662,-0.0647,-0.01602,-0.01312,-0.03738,-0.04196,0.09659,-0.04593,-0.02838,-0.03326,0.00671,-0.04242
6.695,0.00702,-0.05112,-0.04242,-0.04593,-0.04242,-0.06638,-0.01617,-0.0119,-0.04425,-0.05951,0.14069,-0.02396,-0.02258,-0.01785,0.00046,-0.04135
6.6955,0.00366,-0.05173,-0.0383,-0.03693,-0.05615,-0.06454,-0.01556,-0.0119,-0.04532,-0.07523,0.12115,-0.0145,-0.01663,-0.01373,-0.01053,-0.04074
6.696,-0.00107,-0.05356,-0.03464,-0.02899,-0.07629,-0.06027,-0.01556,-0.01175,-0.03922,-0.08469,0.04166,-0.01877,-0.01511,-0.0145,-0.02518,-0.04211
6.6965,-0.0058,-0.05463,-0.03067,-0.02106,-0.09048,-0.05707,-0.01556,-0.01221,-0.03281,-0.08804,-0.0441,-0.02319,-0.01862,-0.01343,-0.0383,-0.0441
6.697,-0.00839,-0.05173,-0.03098,-0.01175,-0.0827,-0.05783,-0.01541,-0.01266,-0.03128,-0.08194,-0.09155,-0.01907,-0.02335,-0.01083,-0.04669,-0.04562
6.6975,-0.00763,-0.04654,-0.03433,-0.00107,-0.05875,-0.0592,-0.01434,-0.01297,-0.03418,-0.07111,-0.10315,-0.00854,-0.02808,-0.01038,-0.05127,-0.04578
6.698,-0.00549,-0.04257,-0.0386,0.01358,-0.03876,-0.05783,-0.01312,-0.0116,-0.03693,-0.05814,-0.10437,-0.00229,-0.03677,-0.01282,-0.05203,-0.04471
6.6985,-0.00641,-0.04028,-0.03967,0.03006,-0.03448,-0.05508,-0.01312,-0.01068,-0.03555,-0.04288,-0.10696,-0.00305,-0.0502,-0.01404,-0.04471,-0.04227
6.699,-0.01083,-0.04013,-0.04303,0.0415,-0.04211,-0.05539,-0.01343,-0.00931,-0.0296,-0.02701,-0.10452,-0.00595,-0.06027,-0.01205,-0.02335,-0.04257
6.6995,-0.01266,-0.03906,-0.04562,0.04059,-0.04547,-0.05829,-0.01495,-0.00839,-0.02197,-0.00977,-0.09232,-0.00687,-0.06012,-0.00961,0.00931,-0.04349
6.7,-0.00793,-0.03937,-0.04593,0.03082,-0.04211,-0.05966,-0.01434,-0.00702,-0.01526,0.00427,-0.07874,-0.0058,-0.05112,-0.00809,0.03876,-0.04349
6.7005,0.00046,-0.04501,-0.04471,0.02258,-0.03647,-0.05753,-0.01175,-0.0061,-0.00793,0.01511,-0.07553,-0.0061,-0.04074,-0.00824,0.05066,-0.04089
6.701,0.00732,-0.05615,-0.05356,0.0206,-0.0325,-0.05463,-0.00717,-0.00519,0.00076,0.01938,-0.08057,-0.00946,-0.0351,-0.00824,0.03708,-0.0386
6.7015,0.01022,-0.06683,-0.09491,0.0206,-0.03021,-0.05447,-0.00366,-0.00275,0.00931,0.01816,-0.08224,-0.0116,-0.03357,-0.00793,0.01099,-0.03967
6.702,0.01083,-0.07004,-0.16968,0.01556,-0.02747,-0.0563,-0.00366,-0.00015,0.01526,0.01648,-0.07278,-0.01144,-0.03052,-0.00732,-0.01678,-0.04242
6.7025,0.00946,-0.06454,-0.25208,0.00671,-0.02686,-0.05676,-0.00534,0.00183,0.01617,0.01892,-0.05234,-0.00778,-0.02502,-0.00656,-0.0444,-0.04379
6.703,0.00717,-0.05493,-0.30441,-0.00168,-0.02747,-0.05463,-0.00732,0.00137,0.01007,0.02335,-0.02838,-0.00534,-0.01923,-0.00793,-0.06424,-0.04227
6.7035,0.00595,-0.04761,-0.3064,-0.01099,-0.02747,-0.05066,-0.00854,0.00015,0.0,0.02228,-0.00977,-0.00397,-0.01846,-0.0116,-0.06424,-0.04166
6.704,0.00275,-0.0473,-0.25314,-0.02686,-0.02625,-0.0473,-0.01007,-0.00061,-0.00977,0.0061,0.0,-0.00366,-0.01999,-0.01572,-0.04532,-0.0415
6.7045,-0.00595,-0.05325,-0.14236,-0.04654,-0.02502,-0.04669,-0.01038,-0.00031,-0.01678,-0.02243,0.01114,-0.00458,-0.01404,-0.01923,-0.01068,-0.04272
6.705,-0.01587,-0.05981,0.00748,-0.06165,-0.02441,-0.04898,-0.00931,0.00046,-0.02106,-0.04852,0.03891,-0.0061,0.00229,-0.01984,0.04654,-0.04272
6.7055,-0.02106,-0.06195,0.15961,-0.06622,-0.02411,-0.05142,-0.009,-0.00092,-0.02609,-0.05722,0.08133,-0.00824,0.01068,-0.01801,0.12238,-0.04211
6.706,-0.0209,-0.06073,0.27145,-0.06226,-0.02487,-0.05066,-0.01129,-0.00244,-0.02899,-0.04593,0.1149,-0.00961,-0.0119,-0.01572,0.17502,-0.04074
6.7065,-0.0206,-0.05981,0.31876,-0.065,-0.02411,-0.04822,-0.01328,-0.00305,-0.0293,-0.02335,0.11887,-0.00702,-0.06104,-0.01602,0.16327,-0.0386
6.707,-0.02335,-0.05493,0.30594,-0.08743,-0.02197,-0.0473,-0.01343,-0.00351,-0.03128,0.00137,0.09537,0.00015,-0.09094,-0.0174,0.10208,-0.0386
6.7075,-0.02609,-0.04318,0.25269,-0.13428,-0.01633,-0.04883,-0.01404,-0.00412,-0.03845,0.02625,0.0589,0.01175,-0.07446,-0.0174,0.04761,-0.0412
6.708,-0.02396,-0.02472,0.18433,-0.19531,-0.00732,-0.05157,-0.01556,-0.00336,-0.0473,0.04578,0.02228,0.02335,-0.0415,-0.01434,0.02701,-0.04501
6.7085,-0.01694,-0.009,0.1181,-0.25604,0.00275,-0.05127,-0.01633,-0.00107,-0.05341,0.05615,-0.01175,0.02869,-0.03464,-0.01053,0.02655,-0.04684
6.709,-0.00687,-0.00458,0.06149,-0.29922,0.0119,-0.04837,-0.0148,0.0,-0.0563,0.05768,-0.0386,0.02396,-0.04913,-0.00809,0.02335,-0.04807
6.7095,0.00259,-0.0116,0.01465,-0.3067,0.01511,-0.04669,-0.01373,-0.00046,-0.05707,0.05508,-0.05554,0.01297,-0.05478,-0.00702,0.01724,-0.04974
6.71,0.00885,-0.02396,-0.02228,-0.28,0.0116,-0.04684,-0.01389,-0.00244,-0.05356,0.05035,-0.06119,0.00214,-0.04105,-0.00656,0.01358,-0.05051
6.7105,0.01236,-0.03326,-0.04654,-0.24384,-0.00351,-0.04852,-0.01389,-0.0032,-0.04333,0.04166,-0.06332,-0.0058,-0.02777,-0.00778,0.01144,-0.04974
6.711,0.01419,-0.03738,-0.05997,-0.21942,-0.02777,-0.05112,-0.01358,-0.00076,-0.02594,0.0293,-0.0676,-0.00717,-0.02518,-0.00885,0.00961,-0.04715
6.7115,0.01434,-0.03708,-0.06577,-0.18143,-0.04837,-0.05356,-0.01297,0.00229,-0.00458,0.01541,-0.07797,0.01556,-0.0264,-0.00916,0.00885,-0.04456
6.712,0.01114,-0.03448,-0.06546,-0.06897,-0.05295,-0.05539,-0.01373,0.00412,0.01724,0.00031,-0.08636,0.07599,-0.02289,-0.01068,0.00885,-0.04272
6.7125,0.00702,-0.03235,-0.06134,0.13351,-0.04593,-0.05676,-0.01434,0.00336,0.03357,-0.01373,-0.08575,0.14786,-0.01358,-0.01526,0.00916,-0.04105
6.713,0.00473,-0.03235,-0.05661,0.345,-0.04196,-0.05783,-0.01419,0.00214,0.04044,-0.02563,-0.07065,0.16312,-0.00076,-0.02106,0.00839,-0.03906
6.7135,0.00641,-0.03647,-0.05539,0.4451,-0.04608,-0.05798,-0.01312,0.00275,0.04105,-0.03571,-0.04807,0.08133,0.0119,-0.0235,0.00763,-0.0383
6.714,0.00931,-0.04196,-0.05707,0.39673,-0.0499,-0.05585,-0.01266,0.0058,0.03754,-0.04822,-0.02701,-0.04501,0.01892,-0.02151,0.00732,-0.03784
6.7145,0.00931,-0.04562,-0.06073,0.27084,-0.04517,-0.05295,-0.01373,0.00809,0.03021,-0.0676,-0.01328,-0.12482,0.01373,-0.02014,0.00702,-0.03708
6.715,0.00427,-0.04639,-0.06134,0.16296,-0.03296,-0.05081,-0.01282,0.00671,0.01831,-0.08713,-0.00839,-0.12787,-0.00488,-0.0209,0.00687,-0.03799
6.7155,-0.00366,-0.04639,-0.06042,0.11475,-0.02396,-0.04944,-0.01221,0.00351,0.00366,-0.10178,-0.00839,-0.10117,-0.03815,-0.02182,0.00595,-0.03922
6.716,-0.01144,-0.04593,-0.05997,0.11597,-0.02243,-0.04761,-0.0119,0.00076,-0.00671,-0.10941,-0.00656,-0.08362,-0.07874,-0.02151,0.00427,-0.0415
6.7165,-0.01801,-0.04501,-0.06226,0.14923,-0.03067,-0.04593,-0.01389,0.00107,-0.01068,-0.10986,-0.00244,-0.07034,-0.1088,-0.0206,0.00214,-0.04257
6.717,-0.01953,-0.0441,-0.06271,0.19562,-0.04425,-0.04501,-0.01511,0.00229,-0.00992,-0.09537,0.00153,-0.04715,-0.10834,-0.02106,0.00076,-0.04196
6.7175,-0.01526,-0.0444,-0.05859,0.21759,-0.05905,-0.04456,-0.01785,0.00015,-0.01022,-0.06683,0.00198,-0.02304,-0.0824,-0.02014,-0.00061,-0.04227
6.718,-0.00687,-0.04578,-0.04929,0.18555,-0.06882,-0.04517,-0.01816,-0.00473,-0.01419,-0.03464,-0.0029,-0.01175,-0.05402,-0.01785,-0.00229,-0.04089
6.7185,0.00122,-0.04883,-0.04227,0.12054,-0.07065,-0.04486,-0.0174,-0.00916,-0.01816,-0.00641,-0.00748,-0.01053,-0.03998,-0.01633,-0.00504,-0.03998
6.719,0.00504,-0.05585,-0.03906,0.07339,-0.06653,-0.04425,-0.01511,-0.01312,-0.02029,0.01358,-0.00748,-0.00778,-0.04059,-0.01938,-0.00748,-0.04028
6.7195,0.00336,-0.06531,-0.03937,0.06531,-0.05844,-0.04211,-0.01343,-0.01556,-0.02289,0.02975,-0.00412,0.00183,-0.05081,-0.02258,-0.00824,-0.04105
6.72,-0.00122,-0.07629,-0.03891,0.07294,-0.05096,-0.04028,-0.01358,-0.0145,-0.02563,0.04379,-0.00107,0.01648,-0.06516,-0.02502,-0.0058,-0.04166
6.7205,-0.00656,-0.08743,-0.03952,0.07126,-0.04364,-0.0415,-0.01282,-0.01068,-0.02609,0.05051,0.00031,0.0322,-0.06973,-0.02396,-0.00168,-0.0415
6.721,-0.01236,-0.09781,-0.04395,0.05402,-0.03693,-0.04425,-0.01083,-0.00687,-0.02304,0.05188,0.00244,0.0412,-0.05249,-0.02701,0.00076,-0.03967
6.7215,-0.01907,-0.1033,-0.0528,0.02258,-0.02991,-0.04639,-0.00931,-0.00626,-0.01846,0.04684,0.00626,0.03922,-0.02197,-0.03479,0.00137,-0.03937
6.722,-0.0264,-0.1001,-0.0592,-0.01678,-0.02716,-0.0444,-0.01129,-0.00702,-0.01282,0.03723,0.00793,0.03387,-0.00229,-0.04105,-0.00198,-0.04089
6.7225,-0.03464,-0.08835,-0.06363,-0.04898,-0.02716,-0.04089,-0.01724,-0.00687,-0.00671,0.02441,0.00641,0.03677,-0.00092,-0.03799,-0.00305,-0.04181
6.723,-0.04303,-0.07065,-0.06393,-0.05936,-0.02945,-0.04089,-0.02289,-0.00504,-0.00412,0.00641,0.0,0.04593,-0.00504,-0.02609,-0.00504,-0.04135
6.7235,-0.04837,-0.05081,-0.06592,-0.05341,-0.03067,-0.04379,-0.02335,-0.00473,-0.01099,-0.01648,-0.00916,0.05005,0.00183,-0.01419,-0.00687,-0.04044
6.724,-0.04776,-0.03326,-0.07324,-0.04639,-0.0296,-0.04639,-0.0177,-0.0061,-0.02731,-0.04089,-0.01831,0.03799,0.01999,-0.01022,-0.00458,-0.04135
6.7245,-0.03647,-0.0174,-0.08087,-0.04242,-0.02975,-0.04654,-0.00931,-0.00702,-0.04807,-0.05875,-0.01923,0.00198,0.03571,-0.01251,0.00107,-0.0412
6.725,-0.01541,-0.00061,-0.08347,-0.03662,-0.02975,-0.04486,-0.00412,-0.00732,-0.07004,-0.06668,-0.01221,-0.05249,0.03967,-0.01404,0.01236,-0.04105
6.7255,0.01205,0.0174,-0.07874,-0.02808,-0.03021,-0.04227,-0.00443,-0.00732,-0.08774,-0.06561,-0.00168,-0.11932,0.02716,-0.01236,0.02411,-0.04013
6.726,0.03952,0.03357,-0.07385,-0.01999,-0.02884,-0.03967,-0.009,-0.00854,-0.09018,-0.06348,0.00076,-0.17517,-0.0029,-0.01007,0.03342,-0.04028
6.7265,0.05737,0.04303,-0.07187,-0.01877,-0.0264,-0.03708,-0.01419,-0.01022,-0.07217,-0.05814,-0.00198,-0.17715,-0.04593,-0.01266,0.03799,-0.04059
6.727,0.05859,0.04501,-0.0676,-0.02441,-0.02594,-0.03342,-0.01602,-0.01038,-0.04227,-0.04791,-0.00656,-0.09109,-0.08789,-0.01709,0.03281,-0.04181
6.7275,0.04593,0.03952,-0.05722,-0.02853,-0.02899,-0.03067,-0.01724,-0.00763,-0.0177,-0.03342,-0.00946,0.05219,-0.11475,-0.01892,0.01144,-0.04227
6.728,0.03128,0.02579,-0.0444,-0.02533,-0.03082,-0.02884,-0.01862,-0.00519,-0.00473,-0.01907,-0.01236,0.14725,-0.11932,-0.01724,-0.02594,-0.04303
6.7285,0.02045,0.00748,-0.03571,-0.02502,-0.02869,-0.03067,-0.01907,-0.00534,0.0032,-0.00992,-0.01633,0.12009,-0.10635,-0.01495,-0.06165,-0.0444
6.729,0.01343,-0.00778,-0.03357,-0.04517,-0.02579,-0.03265,-0.01892,-0.00763,0.01175,-0.00534,-0.02228,0.01343,-0.0827,-0.01099,-0.08331,-0.04471
6.7295,0.00824,-0.01587,-0.03342,-0.07751,-0.02411,-0.0351,-0.01816,-0.00732,0.01801,-0.00397,-0.02548,-0.07126,-0.05142,-0.00488,-0.08865,-0.04272
6.73,0.00443,-0.02106,-0.03311,-0.09399,-0.02472,-0.03601,-0.01663,-0.00473,0.01663,-0.00336,-0.01724,-0.09476,-0.01938,0.00092,-0.08926,-0.04089
6.7305,0.00168,-0.02747,-0.03189,-0.08148,-0.02869,-0.03616,-0.01465,-0.00229,0.00809,-0.00214,0.00626,-0.08545,0.00244,0.00137,-0.08713,-0.04074
6.731,-0.00122,-0.03616,-0.02975,-0.05783,-0.03296,-0.03815,-0.01343,-0.00107,-0.00244,-0.00107,0.03265,-0.06744,0.00916,-0.00381,-0.0647,-0.04135
6.7315,-0.00656,-0.0412,-0.02945,-0.0499,-0.03311,-0.04135,-0.01434,0.00015,-0.00839,-0.00061,0.03815,-0.03586,0.00824,-0.00854,0.0,-0.04135
6.732,-0.01358,-0.04333,-0.03098,-0.0618,-0.02808,-0.04517,-0.01572,0.00092,-0.01068,-0.00366,0.01511,0.01297,0.00839,-0.0087,0.10056,-0.03952
6.7325,-0.01846,-0.04425,-0.03342,-0.07706,-0.02228,-0.04929,-0.01633,0.00076,-0.01251,-0.00946,-0.01694,0.07233,0.01419,-0.00626,0.177,-0.03769
6.733,-0.01984,-0.04608,-0.03571,-0.08026,-0.02289,-0.05173,-0.01602,0.00046,-0.01633,-0.01724,-0.03555,0.12985,0.02014,-0.00458,0.17563,-0.03693
6.7335,-0.01999,-0.0499,-0.03937,-0.07324,-0.0264,-0.05066,-0.01541,0.00015,-0.02228,-0.02121,-0.03677,0.17181,0.00702,-0.00397,0.11383,-0.03845
6.734,-0.01968,-0.0528,-0.04196,-0.06027,-0.02625,-0.04913,-0.01389,0.00092,-0.03021,-0.02396,-0.03159,0.17807,-0.03723,-0.00214,0.05829,-0.04135
6.7345,-0.01694,-0.05203,-0.04349,-0.04013,-0.02304,-0.04883,-0.01129,0.00229,-0.0386,-0.02472,-0.02975,0.14526,-0.08835,0.00061,0.04349,-0.04425
6.735,-0.01328,-0.04776,-0.04105,-0.01312,-0.0174,-0.05127,-0.00961,0.00488,-0.04471,-0.02792,-0.03311,0.0856,-0.10498,0.00229,0.04898,-0.04623
6.7355,-0.009,-0.04349,-0.03601,0.0032,-0.01358,-0.05219,-0.01038,0.00626,-0.04272,-0.03174,-0.03677,0.0174,-0.08224,-0.00504,0.04547,-0.04684
6.736,-0.00381,-0.04135,-0.03113,-0.01389,-0.01266,-0.05081,-0.01373,0.00534,-0.03204,-0.03143,-0.03799,-0.04471,-0.06073,-0.02945,0.02029,-0.04623
6.7365,0.0,-0.04349,-0.02808,-0.06149,-0.01541,-0.04913,-0.01587,0.00229,-0.01526,-0.02823,-0.03647,-0.09079,-0.06104,-0.06943,-0.02167,-0.04395
6.737,-0.00046,-0.04776,-0.0267,-0.10666,-0.01617,-0.04807,-0.01617,0.00198,0.00244,-0.0238,-0.03372,-0.12054,-0.0589,-0.10193,-0.06332,-0.04272
6.7375,-0.00565,-0.05142,-0.0238,-0.12299,-0.00916,-0.0473,-0.01709,0.00275,0.01572,-0.02151,-0.03189,-0.14328,-0.03296,-0.10086,-0.0795,-0.04349
6.738,-0.01053,-0.05341,-0.0238,-0.10651,-0.00015,-0.04852,-0.01938,0.00092,0.02045,-0.02518,-0.03036,-0.14893,0.00061,-0.06927,-0.05814,-0.04364
6.7385,-0.01068,-0.05508,-0.0267,-0.06531,0.00244,-0.05035,-0.02029,-0.00473,0.01465,-0.03387,-0.02487,-0.09735,0.01495,-0.03845,-0.02167,-0.04333
6.739,-0.00702,-0.05722,-0.03128,-0.00092,-0.00717,-0.05005,-0.01785,-0.01144,0.00336,-0.04257,-0.01602,0.03006,0.01251,-0.02899,0.00061,-0.04257
6.7395,-0.00137,-0.05875,-0.03311,0.0766,-0.03372,-0.04807,-0.01541,-0.01556,-0.00656,-0.04303,-0.00946,0.16495,0.00183,-0.03433,0.00565,-0.04227
6.74,0.00336,-0.05936,-0.03113,0.13168,-0.06882,-0.04486,-0.0148,-0.01846,-0.01724,-0.03586,-0.0058,0.20187,-0.0238,-0.03876,0.00534,-0.04318
6.7405,0.00549,-0.05692,-0.02716,0.112,-0.09552,-0.04349,-0.01587,-0.0267,-0.03403,-0.0296,-0.00198,0.12375,-0.06836,-0.03693,0.00885,-0.0444
6.741,0.00443,-0.0531,-0.02457,0.00076,-0.09094,-0.04166,-0.01907,-0.04013,-0.05844,-0.0264,0.01038,0.02151,-0.10727,-0.03357,0.01068,-0.04333
6.7415,0.00046,-0.05081,-0.02472,-0.14938,-0.06088,-0.04105,-0.02823,-0.04745,-0.07767,-0.0235,0.0354,-0.02655,-0.11093,-0.03464,0.01053,-0.04272
6.742,-0.00671,-0.05295,-0.02899,-0.24963,-0.03387,-0.04242,-0.04013,-0.04196,-0.07736,-0.01968,0.06363,-0.02945,-0.07919,-0.0383,0.00854,-0.04303
6.7425,-0.01541,-0.05981,-0.03525,-0.25345,-0.03265,-0.04654,-0.04669,-0.0322,-0.05768,-0.01389,0.07553,-0.03464,-0.04456,-0.0383,0.00717,-0.04471
6.743,-0.02243,-0.06577,-0.04211,-0.17883,-0.05203,-0.04883,-0.04318,-0.02762,-0.0386,-0.01205,0.06195,-0.05371,-0.03082,-0.03403,0.00656,-0.0444
6.7435,-0.0264,-0.06683,-0.04791,-0.06668,-0.06912,-0.0473,-0.03418,-0.0145,-0.03586,-0.01907,0.03235,-0.06424,-0.03265,-0.03113,0.00595,-0.04242
6.744,-0.02655,-0.06241,-0.05112,0.04379,-0.06897,-0.04395,-0.02747,0.02838,-0.04608,-0.02808,0.00198,-0.05661,-0.03387,-0.03281,0.0061,-0.04135
6.7445,-0.02533,-0.05707,-0.04913,0.1123,-0.05615,-0.04349,-0.02319,0.08026,-0.05432,-0.03448,-0.02029,-0.03937,-0.02991,-0.03311,0.00656,-0.04211
6.745,-0.02487,-0.0528,-0.04272,0.12589,-0.04807,-0.0441,-0.01236,0.09552,-0.05569,-0.03387,-0.03479,-0.01541,-0.02182,-0.02579,0.00671,-0.04242
6.7455,-0.02563,-0.04745,-0.03525,0.10178,-0.04761,-0.04654,0.00366,0.06226,-0.05203,-0.02853,-0.04684,0.01785,-0.01312,-0.01343,0.00656,-0.04166
6.746,-0.02457,-0.04059,-0.03067,0.06317,-0.04654,-0.04761,0.01343,0.02304,-0.04669,-0.02319,-0.05783,0.05341,-0.00458,-0.00366,0.00778,-0.04089
6.7465,-0.02075,-0.03326,-0.0267,0.03098,-0.03967,-0.04562,0.00504,0.01144,-0.04089,-0.02029,-0.06927,0.07339,0.00122,-0.00198,0.00839,-0.04227
6.747,-0.01465,-0.02655,-0.02243,0.02472,-0.02975,-0.04181,-0.00931,0.01663,-0.03418,-0.02136,-0.07828,0.07309,0.00381,-0.0029,0.00656,-0.04227
6.7475,-0.009,-0.0209,-0.01694,0.0412,-0.02441,-0.03769,-0.00687,0.01266,-0.0235,-0.02655,-0.08011,0.05508,0.00488,0.0,0.00549,-0.04044
6.748,-0.00595,-0.01953,-0.01328,0.05173,-0.02151,-0.03769,0.01434,-0.00397,-0.00778,-0.03342,-0.07019,0.01938,0.00443,0.00504,0.00626,-0.03845
6.7485,-0.0058,-0.02365,-0.01175,0.04181,-0.01907,-0.04074,0.03067,-0.01526,0.00702,-0.03906,-0.05478,-0.02701,-0.00778,0.00916,0.00793,-0.03891
6.749,-0.00687,-0.03113,-0.01343,0.02411,-0.01801,-0.04471,0.0264,-0.01358,0.01755,-0.04028,-0.04333,-0.05844,-0.03586,0.00931,0.00854,-0.0412
6.7495,-0.00809,-0.03754,-0.01587,0.01495,-0.02228,-0.04745,0.0087,-0.00641,0.0209,-0.03662,-0.03571,-0.05173,-0.05768,0.00626,0.00626,-0.04211
6.75,-0.00854,-0.0412,-0.01678,0.00824,-0.03723,-0.04898,-0.00504,-0.00107,0.01358,-0.02747,-0.0293,-0.02625,-0.04776,0.00046,0.00488,-0.04272
6.7505,-0.00961,-0.04379,-0.01877,-0.00992,-0.06012,-0.04959,-0.01175,0.00275,-0.00427,-0.01816,-0.0235,-0.0293,-0.01068,-0.00732,0.00549,-0.04272
6.751,-0.01022,-0.04456,-0.02258,-0.04242,-0.07278,-0.04868,-0.01755,0.00717,-0.02594,-0.01038,-0.01678,-0.07172,0.02014,-0.01282,0.00671,-0.04105
6.7515,-0.00946,-0.04288,-0.02884,-0.07767,-0.06668,-0.04761,-0.02106,0.0116,-0.04593,-0.00641,-0.00885,-0.10895,0.01923,-0.01511,0.00732,-0.04028
6.752,-0.0119,-0.03998,-0.0351,-0.09094,-0.0499,-0.04715,-0.01968,0.01282,-0.05707,-0.00626,-0.00259,-0.0946,-0.01358,-0.01404,0.00763,-0.04013
6.7525,-0.01526,-0.03708,-0.03845,-0.06866,-0.03799,-0.04684,-0.01495,0.00732,-0.05249,-0.00671,-0.00122,-0.03601,-0.06042,-0.01083,0.00809,-0.04074
6.753,-0.01755,-0.03616,-0.03815,-0.02609,-0.03296,-0.04593,-0.01404,-0.00259,-0.03113,-0.0061,-0.00458,0.02762,-0.08987,-0.00839,0.00748,-0.04135
6.7535,-0.01511,-0.03723,-0.03693,0.00504,-0.02823,-0.04654,-0.01801,-0.01144,-0.00015,-0.00595,-0.00992,0.06866,-0.08453,-0.00717,0.00641,-0.04349
6.754,-0.00854,-0.04074,-0.0383,0.01907,-0.02335,-0.04715,-0.02151,-0.01266,0.03036,-0.00702,-0.01083,0.09262,-0.05814,-0.00595,0.00656,-0.0441
6.7545,-0.00275,-0.04471,-0.04059,0.03082,-0.01862,-0.04608,-0.02182,-0.01022,0.05295,-0.00656,-0.00977,0.11063,-0.0383,-0.0061,0.00763,-0.04333
6.755,0.00214,-0.0473,-0.04333,0.03448,-0.01633,-0.0444,-0.02075,-0.00854,0.06271,-0.00427,-0.01053,0.11749,-0.03204,-0.00961,0.00916,-0.04059
6.7555,0.01053,-0.04883,-0.04471,0.00381,-0.0148,-0.04196,-0.0209,-0.00885,0.06332,0.00061,-0.0116,0.10605,-0.0267,-0.01526,0.01038,-0.03937
6.756,0.02487,-0.05173,-0.0444,-0.07034,-0.01572,-0.0415,-0.02045,-0.00839,0.0589,0.00671,-0.01205,0.08621,-0.0145,-0.02075,0.01068,-0.03906
6.7565,0.03845,-0.05615,-0.04379,-0.16113,-0.01816,-0.04044,-0.01846,-0.00565,0.05569,0.0116,-0.01389,0.07263,-0.00046,-0.0238,0.0116,-0.03952
6.757,0.04135,-0.06027,-0.03967,-0.21896,-0.01923,-0.0383,-0.01572,-0.00275,0.0528,0.00946,-0.02121,0.06577,0.00229,-0.02228,0.01144,-0.04105
6.7575,0.03281,-0.06317,-0.03464,-0.19943,-0.01862,-0.03586,-0.01297,-0.00061,0.04547,0.00275,-0.03113,0.05859,-0.01251,-0.01755,0.01144,-0.04181
6.758,0.02136,-0.06516,-0.03082,-0.10086,-0.01694,-0.03387,-0.00977,0.00031,0.03418,-0.00351,-0.03937,0.04318,-0.04761,-0.01404,0.01129,-0.04333
6.7585,0.01404,-0.06561,-0.03036,0.01404,-0.01724,-0.0351,-0.00702,0.00137,0.02319,-0.00687,-0.04257,0.01862,-0.08438,-0.0145,0.00839,-0.04547
6.759,0.01038,-0.06134,-0.03067,0.07523,-0.01862,-0.03815,-0.00717,0.00168,0.0119,-0.0061,-0.04135,-0.01099,-0.09689,-0.01877,0.00504,-0.04715
6.7595,0.00534,-0.05341,-0.02899,0.07111,-0.02182,-0.04074,-0.01038,0.00153,0.00259,-0.00565,-0.03525,-0.03448,-0.07767,-0.02411,0.00336,-0.04837
6.76,0.00015,-0.04395,-0.02548,0.03754,-0.02747,-0.04089,-0.01251,0.00046,-0.00305,-0.00763,-0.02609,-0.04837,-0.04517,-0.02533,0.00397,-0.04883
6.7605,-0.00229,-0.03403,-0.02289,0.01129,-0.03326,-0.0412,-0.01205,-0.00153,-0.00137,-0.01602,-0.01678,-0.0618,-0.0177,-0.02151,0.00458,-0.04974
6.761,-0.00473,-0.02258,-0.02365,0.00198,-0.03555,-0.04242,-0.00946,-0.00397,0.00443,-0.02823,-0.00977,-0.08026,0.00748,-0.01526,0.0058,-0.04883
6.7615,-0.00885,-0.01236,-0.02426,0.00397,-0.03143,-0.0444,-0.00946,-0.00473,0.00854,-0.03799,-0.0058,-0.09399,0.03632,-0.01129,0.00687,-0.04761
6.762,-0.01511,-0.00824,-0.02228,0.00824,-0.02441,-0.04639,-0.01526,-0.00488,0.00793,-0.03784,-0.00107,-0.08469,0.05569,-0.01221,0.00641,-0.04562
6.7625,-0.02258,-0.01068,-0.01816,0.01129,-0.01801,-0.04745,-0.02197,-0.00427,0.00427,-0.02838,0.00549,-0.04791,0.05524,-0.01648,0.00458,-0.0441
6.763,-0.02914,-0.01587,-0.01755,0.01495,-0.01144,-0.04974,-0.02319,-0.00305,-0.00137,-0.01617,0.0119,0.00229,0.03815,-0.02045,0.00351,-0.04318
6.7635,-0.0351,-0.01724,-0.02335,0.01984,-0.00687,-0.05341,-0.01923,-0.00153,-0.00763,-0.00641,0.0148,0.04517,0.00671,-0.02213,0.00427,-0.04105
6.764,-0.03799,-0.01358,-0.03738,0.02502,-0.00397,-0.05539,-0.01785,-0.00122,-0.01572,0.00153,0.01709,0.06851,-0.03906,-0.02136,0.00595,-0.03891
6.7645,-0.03647,-0.01007,-0.06073,0.02579,-0.00977,-0.05417,-0.0209,0.00015,-0.02411,0.00946,0.02258,0.07034,-0.09674,-0.02167,0.00626,-0.0383
6.765,-0.02884,-0.00916,-0.09018,0.01099,-0.02838,-0.05264,-0.02777,0.00107,-0.03342,0.01648,0.04364,0.05554,-0.14526,-0.0238,0.00732,-0.03891
6.7655,-0.01755,-0.01251,-0.11444,-0.02502,-0.05341,-0.05112,-0.03555,0.00183,-0.03998,0.01648,0.09171,0.03525,-0.15839,-0.02655,0.00778,-0.04028
6.766,-0.00443,-0.01801,-0.12253,-0.07004,-0.06653,-0.04944,-0.03662,0.00137,-0.04379,0.01053,0.14267,0.02167,-0.13519,-0.02838,0.00931,-0.04181
6.7665,0.00488,-0.02563,-0.11292,-0.09476,-0.05814,-0.04669,-0.02655,0.00122,-0.04486,0.0,0.14954,0.01648,-0.10498,-0.02869,0.009,-0.04517
6.767,0.00977,-0.03418,-0.09003,-0.0795,-0.03967,-0.04471,-0.01526,0.00107,-0.04883,-0.009,0.09338,0.01495,-0.08514,-0.0296,0.01038,-0.04868
6.7675,0.00916,-0.0444,-0.05951,-0.02625,-0.02441,-0.04425,-0.01358,0.00198,-0.05829,-0.01465,0.01083,0.01541,-0.065,-0.02838,0.01083,-0.0499
6.768,0.0061,-0.05356,-0.02777,0.04852,-0.01785,-0.04456,-0.02029,0.0,-0.07141,-0.01953,-0.05096,0.01633,-0.03555,-0.02563,0.01038,-0.04837
6.7685,0.0032,-0.05692,-0.00107,0.12573,-0.01266,-0.04562,-0.0238,-0.00351,-0.0795,-0.02441,-0.08011,0.01678,-0.00641,-0.02213,0.01068,-0.04486
6.769,0.00198,-0.05447,0.01328,0.17654,-0.00824,-0.04791,-0.01801,-0.00626,-0.08026,-0.03098,-0.09003,0.01343,0.00809,-0.01892,0.01144,-0.04272
6.7695,0.00107,-0.04944,0.01785,0.17014,-0.00717,-0.04868,-0.00763,-0.00702,-0.07233,-0.03586,-0.09583,0.00809,0.01404,-0.01907,0.01419,-0.04333
6.77,-0.00046,-0.04578,0.01907,0.10605,-0.01099,-0.04837,0.0032,-0.00549,-0.05539,-0.04227,-0.09964,0.0,0.01846,-0.01938,0.01297,-0.04379
6.7705,-0.00412,-0.04669,0.01831,0.02609,-0.01801,-0.047,0.01358,-0.00458,-0.03525,-0.05371,-0.09766,-0.01541,0.01663,-0.01999,0.01007,-0.04349
6.771,-0.00977,-0.0499,0.01648,-0.02289,-0.02365,-0.04684,0.02136,-0.00427,-0.01846,-0.07095,-0.09109,-0.0383,0.00351,-0.01846,0.00824,-0.04303
6.7715,-0.01633,-0.05417,0.01328,-0.03326,-0.02792,-0.04807,0.0235,-0.00473,-0.00641,-0.09232,-0.08392,-0.06287,-0.01801,-0.01495,0.0087,-0.04181
6.772,-0.02121,-0.05844,0.00931,-0.03159,-0.0351,-0.05005,0.02274,-0.00397,0.0029,-0.11124,-0.08011,-0.0856,-0.04364,-0.0119,0.01068,-0.04135
6.7725,-0.0235,-0.06104,0.00153,-0.03876,-0.04578,-0.0502,0.02136,-0.0029,0.01144,-0.11978,-0.07614,-0.10681,-0.06866,-0.00931,0.01144,-0.04059
6.773,-0.02396,-0.06287,-0.00931,-0.05585,-0.05508,-0.0502,0.01953,-0.00153,0.01755,-0.11398,-0.06134,-0.1181,-0.07645,-0.00885,0.00977,-0.03998
6.7735,-0.02319,-0.06393,-0.02167,-0.07385,-0.05432,-0.04944,0.01251,-0.00168,0.01785,-0.09583,-0.03555,-0.08774,-0.04852,-0.009,0.00748,-0.03815
6.774,-0.01877,-0.06363,-0.02609,-0.08102,-0.04395,-0.04898,-0.00214,-0.00336,0.01114,-0.06638,-0.00687,-0.00046,-0.00076,-0.01221,0.00763,-0.03723
6.7745,-0.01114,-0.06348,-0.02365,-0.06317,-0.03021,-0.04807,-0.01892,-0.00534,-0.00137,-0.03189,0.01129,0.09537,0.02869,-0.01923,0.00977,-0.03647
6.775,-0.0029,-0.06226,-0.0206,-0.01602,-0.01877,-0.0473,-0.03204,-0.00717,-0.0177,0.00168,0.01694,0.12146,0.02151,-0.02808,0.01083,-0.03738
6.7755,0.00168,-0.05951,-0.01846,0.05051,-0.01053,-0.04791,-0.04425,-0.00626,-0.03387,0.02747,0.01648,0.06363,-0.00137,-0.03403,0.00946,-0.03845
6.776,0.00229,-0.05478,-0.01968,0.11154,-0.00458,-0.04868,-0.06287,-0.00504,-0.04257,0.0441,0.01373,-0.01465,-0.01617,-0.0351,0.00717,-0.03952
6.7765,0.00046,-0.05066,-0.02274,0.13855,0.00046,-0.04852,-0.08972,-0.00443,-0.04196,0.0499,0.00641,-0.05585,-0.02182,-0.03418,0.00687,-0.03998
6.777,-0.00076,-0.04883,-0.02838,0.11871,0.00198,-0.04852,-0.11536,-0.00549,-0.03662,0.04852,-0.00549,-0.05219,-0.02655,-0.03403,0.00854,-0.03952
6.7775,-0.00092,-0.04913,-0.03403,0.06866,-0.00046,-0.04745,-0.121,-0.00565,-0.03387,0.04578,-0.01694,-0.01846,-0.0351,-0.0354,0.00824,-0.03983
6.778,0.00137,-0.04974,-0.03876,0.02731,-0.00854,-0.04578,-0.09964,-0.00534,-0.03403,0.04425,-0.02533,0.03464,-0.04776,-0.0351,0.00656,-0.03952
6.7785,0.00275,-0.04822,-0.0412,0.01801,-0.0235,-0.04456,-0.05966,-0.00549,-0.0322,0.04105,-0.03006,0.08896,-0.06317,-0.03082,0.00504,-0.03723
6.779,0.00137,-0.04532,-0.04333,0.0296,-0.03708,-0.04364,-0.01938,-0.00641,-0.0238,0.0293,-0.03281,0.10818,-0.07156,-0.02213,0.00626,-0.03433
6.7795,-0.00153,-0.04288,-0.04456,0.0383,-0.0386,-0.04135,0.00473,-0.00626,-0.01175,0.00671,-0.03281,0.07263,-0.06378,-0.01373,0.00977,-0.03189
6.78,-0.00443,-0.04456,-0.04303,0.03677,-0.0325,-0.0415,0.00854,-0.00595,-0.00519,-0.01907,-0.02487,0.00763,-0.04745,-0.00732,0.0119,-0.03265
6.7805,-0.00443,-0.04913,-0.04044,0.02457,-0.02869,-0.04166,0.00183,-0.00519,-0.00946,-0.03815,0.0,-0.04242,-0.03555,-0.00381,0.01251,-0.03616
6.781,-0.00381,-0.05142,-0.0386,-0.00076,-0.02853,-0.04288,-0.00443,-0.00504,-0.01801,-0.04898,0.04868,-0.05356,-0.03265,-0.00153,0.0116,-0.03937
6.7815,-0.00366,-0.04852,-0.03891,-0.04517,-0.01923,-0.04364,-0.01053,-0.00473,-0.02289,-0.06058,0.1004,-0.03845,-0.03159,-0.00031,0.01175,-0.04089
6.782,-0.0029,-0.04425,-0.03937,-0.10696,-0.0029,-0.04654,-0.02472,-0.0029,-0.0206,-0.08041,0.11353,-0.02167,-0.0264,-0.0029,0.009,-0.04211
6.7825,-0.00229,-0.04196,-0.03906,-0.17349,0.00366,-0.04974,-0.05035,-0.00275,-0.01663,-0.09857,0.07156,-0.01312,-0.02045,-0.01373,-0.00015,-0.04379
6.783,-0.00168,-0.04028,-0.03998,-0.22736,-0.01648,-0.05142,-0.07416,-0.00443,-0.0177,-0.09964,0.0032,-0.01175,-0.0206,-0.03174,-0.0087,-0.04456
6.7835,-0.00153,-0.03723,-0.04135,-0.25482,-0.05463,-0.05066,-0.08087,-0.00671,-0.02243,-0.07904,-0.04593,-0.01312,-0.02823,-0.0444,-0.00992,-0.0441
6.784,-0.00183,-0.03342,-0.04349,-0.23117,-0.08255,-0.04761,-0.06073,-0.00839,-0.02853,-0.0473,-0.05951,-0.01404,-0.03632,-0.03937,-0.00259,-0.04166
6.7845,-0.00336,-0.02914,-0.04425,-0.12878,-0.07965,-0.04639,-0.01862,-0.00778,-0.03189,-0.01862,-0.05341,-0.01099,-0.03738,-0.02014,0.00381,-0.04013
6.785,-0.00458,-0.02609,-0.04471,0.03799,-0.06561,-0.04532,0.02762,-0.0087,-0.03082,0.00275,-0.0473,-0.00473,-0.02686,-0.00458,0.00351,-0.04028
6.7855,-0.00595,-0.02533,-0.04608,0.18372,-0.07019,-0.04608,0.05188,-0.01144,-0.02838,0.0206,-0.04471,-0.0032,-0.009,-0.00351,0.00076,-0.04105
6.786,-0.00992,-0.02777,-0.04913,0.22049,-0.10132,-0.0473,0.05569,-0.01465,-0.0293,0.03571,-0.03922,-0.01297,0.00504,-0.01129,0.00137,-0.04166
6.7865,-0.01343,-0.03265,-0.05463,0.14175,-0.12482,-0.04791,0.06531,-0.01511,-0.03326,0.04318,-0.03448,-0.03143,0.01083,-0.01816,0.01007,-0.04196
6.787,-0.01236,-0.03967,-0.05798,0.0177,-0.11353,-0.04807,0.09399,-0.01373,-0.03632,0.03983,-0.03571,-0.05142,0.01587,-0.02014,0.01938,-0.04166
6.7875,-0.00656,-0.04333,-0.05768,-0.08636,-0.07919,-0.04623,0.11887,-0.01419,-0.03311,0.0235,-0.04318,-0.06256,0.0238,-0.02106,0.02396,-0.04272
6.788,-0.00107,-0.03937,-0.05386,-0.14587,-0.05325,-0.04471,0.11139,-0.01602,-0.02335,-0.00061,-0.05112,-0.0592,0.02686,-0.02411,0.02151,-0.04471
6.7885,-0.00015,-0.02945,-0.04898,-0.15808,-0.04562,-0.04486,0.08041,-0.01541,-0.009,-0.02609,-0.05478,-0.04486,0.01373,-0.03067,0.01572,-0.04532
6.789,-0.00168,-0.01892,-0.04501,-0.12695,-0.04547,-0.04456,0.05524,-0.01053,0.00595,-0.04333,-0.0531,-0.02747,-0.01495,-0.03387,0.0116,-0.04562
6.7895,-0.00381,-0.01144,-0.04074,-0.07599,-0.04166,-0.0441,0.0386,-0.00717,0.02029,-0.05096,-0.04852,-0.01465,-0.04608,-0.02777,0.00961,-0.04547
6.79,-0.00748,-0.01144,-0.03677,-0.04105,-0.03708,-0.04562,0.00946,-0.0058,0.03586,-0.04684,-0.04105,-0.01083,-0.06989,-0.01465,0.01266,-0.04684
6.7905,-0.01114,-0.01801,-0.03586,-0.03189,-0.03372,-0.04791,-0.03876,-0.00504,0.05264,-0.03143,-0.03067,-0.0116,-0.08453,-0.00336,0.01541,-0.04837
6.791,-0.01373,-0.02716,-0.03586,-0.03143,-0.03174,-0.04959,-0.07874,-0.00153,0.06409,-0.00687,-0.01907,-0.00916,-0.08209,-0.00015,0.01617,-0.04791
6.7915,-0.01434,-0.03296,-0.03525,-0.01892,-0.0296,-0.04807,-0.08606,0.00153,0.06531,0.01816,-0.01205,0.0,-0.06516,-0.00214,0.0148,-0.04471
6.792,-0.01328,-0.03571,-0.03418,0.0061,-0.02747,-0.04608,-0.06561,0.00214,0.05859,0.03586,-0.01556,0.0119,-0.04974,-0.00549,0.01312,-0.04135
6.7925,-0.01068,-0.03815,-0.03448,0.02884,-0.02396,-0.04684,-0.04105,0.00076,0.04852,0.04395,-0.02762,0.01724,-0.04913,-0.01007,0.01099,-0.03967
6.793,-0.0058,-0.0412,-0.03616,0.04593,-0.02167,-0.04868,-0.03174,-0.00046,0.03235,0.04623,-0.03677,0.00763,-0.05722,-0.01434,0.00992,-0.03937
6.7935,-0.00107,-0.04349,-0.03799,0.06454,-0.01953,-0.05035,-0.0415,-0.00076,0.00504,0.04807,-0.03372,-0.01556,-0.0621,-0.01694,0.00977,-0.03952
6.794,0.00015,-0.04349,-0.03937,0.07523,-0.01846,-0.05264,-0.06027,0.00061,-0.03189,0.04776,-0.02243,-0.03815,-0.05768,-0.01877,0.00549,-0.0415
6.7945,-0.00092,-0.04456,-0.03799,0.0589,-0.01801,-0.05432,-0.06317,0.00275,-0.07294,0.04211,-0.01144,-0.04791,-0.04715,-0.02075,-0.00275,-0.04532
6.795,-0.00229,-0.04471,-0.03555,0.01816,-0.0174,-0.05615,-0.03616,0.00549,-0.11414,0.0325,-0.0058,-0.05142,-0.03662,-0.02335,-0.00717,-0.04929
6.7955,-0.0029,-0.04456,-0.03571,-0.01389,-0.01572,-0.05539,0.00336,0.00641,-0.14557,0.02075,-0.00107,-0.06744,-0.03052,-0.02274,0.00061,-0.04974
6.796,-0.00259,-0.0444,-0.03662,-0.01907,-0.01266,-0.05371,0.02609,0.00595,-0.15182,0.00778,0.0029,-0.10132,-0.02899,-0.01938,0.01663,-0.04852
6.7965,-0.00397,-0.04318,-0.03662,-0.01221,-0.01068,-0.05325,0.01984,0.00687,-0.12741,-0.0058,0.00793,-0.13153,-0.02899,-0.01465,0.02731,-0.04715
6.797,-0.00565,-0.04028,-0.03494,-0.01282,-0.01297,-0.05447,0.00198,0.01022,-0.08698,-0.0206,0.01114,-0.12787,-0.03113,-0.01083,0.02747,-0.04654
6.7975,-0.00854,-0.0354,-0.03464,-0.01694,-0.01907,-0.05783,-0.00702,0.0148,-0.05066,-0.03143,0.01816,-0.07355,-0.03571,-0.01114,0.02151,-0.04684
6.798,-0.009,-0.03036,-0.03647,-0.01617,-0.0238,-0.05997,-0.00885,0.01801,-0.02655,-0.03876,0.03464,0.01923,-0.03906,-0.01221,0.01404,-0.04669
6.7985,-0.00839,-0.02899,-0.04059,-0.01953,-0.02609,-0.05829,-0.01099,0.01862,-0.01358,-0.04547,0.05341,0.10483,-0.03494,-0.01328,0.00626,-0.04532
6.799,-0.00778,-0.0293,-0.04242,-0.03983,-0.0264,-0.05295,-0.01465,0.01663,-0.00595,-0.05325,0.05112,0.14252,-0.02396,-0.01312,-0.00595,-0.04257
6.7995,-0.00671,-0.02762,-0.04196,-0.06927,-0.02808,-0.04959,-0.01663,0.01175,0.00183,-0.05997,0.01953,0.13962,-0.01114,-0.01389,-0.01877,-0.03952
6.8,-0.00412,-0.02151,-0.04044,-0.08392,-0.02945,-0.05051,-0.01648,0.00763,0.01022,-0.06409,-0.02304,0.13611,-0.0029,-0.01511,-0.0238,-0.03723
6.8005,-0.00168,-0.01526,-0.03799,-0.06546,-0.02762,-0.05341,-0.01846,0.00168,0.0174,-0.06592,-0.05371,0.14832,0.0,-0.01694,-0.02213,-0.03845
6.801,-0.00076,-0.01343,-0.03174,-0.0177,-0.02472,-0.056,-0.0206,-0.00381,0.02167,-0.06897,-0.06531,0.15991,0.00641,-0.01816,-0.02502,-0.03845
6.8015,-0.0032,-0.0177,-0.02518,0.03693,-0.02182,-0.05829,-0.0235,-0.00931,0.02365,-0.07278,-0.0647,0.15793,0.0264,-0.01923,-0.03494,-0.03754
6.802,-0.00626,-0.0264,-0.02472,0.07355,-0.02258,-0.06058,-0.02625,-0.01389,0.02487,-0.07446,-0.06073,0.13565,0.05508,-0.02106,-0.04547,-0.03662
6.8025,-0.00732,-0.03403,-0.03143,0.07629,-0.02365,-0.06104,-0.03174,-0.01801,0.02472,-0.07263,-0.05646,0.07721,0.06531,-0.02502,-0.04715,-0.03723
6.803,-0.0061,-0.03998,-0.03937,0.04623,-0.02304,-0.05753,-0.04059,-0.01877,0.02121,-0.06714,-0.05081,-0.02716,0.03174,-0.02823,-0.04196,-0.0386
6.8035,-0.00443,-0.04272,-0.04333,0.00504,-0.02136,-0.05249,-0.04868,-0.01572,0.0145,-0.05951,-0.04395,-0.14374,-0.04333,-0.02686,-0.03464,-0.03906
6.804,-0.00458,-0.04456,-0.04166,-0.0264,-0.01709,-0.04898,-0.047,-0.01114,0.00443,-0.0528,-0.03647,-0.2095,-0.12497,-0.0235,-0.02319,-0.03845
6.8045,-0.00488,-0.04593,-0.0383,-0.04257,-0.01236,-0.04684,-0.0296,-0.00641,-0.00824,-0.04684,-0.02975,-0.18539,-0.1738,-0.02243,-0.00534,-0.03906
6.805,-0.00305,-0.04761,-0.03403,-0.04044,-0.00687,-0.04532,-0.00977,-0.00336,-0.02716,-0.03876,-0.02533,-0.09872,-0.17563,-0.02426,0.0148,-0.04196
6.8055,-0.00015,-0.04929,-0.03159,-0.01389,-0.00153,-0.04379,-0.00244,-0.0032,-0.05081,-0.03342,-0.02243,-0.0145,-0.14084,-0.02716,0.02716,-0.04486
6.806,0.00275,-0.05081,-0.02975,0.02472,-0.00031,-0.04562,-0.01099,-0.00336,-0.06485,-0.03159,-0.01816,0.02548,-0.09415,-0.02914,0.02563,-0.04639
6.8065,0.00351,-0.0528,-0.02945,0.04471,-0.00351,-0.04623,-0.02228,-0.00275,-0.05692,-0.03174,-0.01251,0.02945,-0.05753,-0.0296,0.00351,-0.04654
6.807,0.00076,-0.05661,-0.02945,0.03006,-0.01114,-0.04669,-0.02609,-0.00275,-0.02991,-0.03296,-0.00702,0.02777,-0.04272,-0.03143,-0.03418,-0.04761
6.8075,-0.00168,-0.06058,-0.02884,0.0029,-0.02213,-0.04913,-0.02487,-0.00381,-0.00595,-0.03311,-0.00229,0.03693,-0.04288,-0.0322,-0.06424,-0.0473
6.808,-0.00381,-0.06302,-0.02808,-0.00595,-0.03922,-0.04944,-0.02533,-0.00427,0.00275,-0.03174,0.00443,0.05203,-0.04471,-0.03174,-0.04944,-0.04578
6.8085,-0.0058,-0.06241,-0.02731,0.00473,-0.06393,-0.04761,-0.02747,-0.00244,0.00153,-0.02899,0.01175,0.05478,-0.0415,-0.03052,0.01541,-0.04303
6.809,-0.00702,-0.06088,-0.02625,0.0116,-0.0827,-0.04562,-0.02975,0.00015,0.00259,-0.02838,0.01511,0.02472,-0.03647,-0.02792,0.10162,-0.04089
6.8095,-0.00687,-0.05737,-0.02625,-0.00244,-0.08041,-0.04501,-0.02747,0.00259,0.00702,-0.03067,0.01358,-0.04105,-0.03418,-0.0235,0.16449,-0.03983
6.81,-0.00549,-0.05157,-0.02701,-0.02426,-0.05981,-0.04501,-0.01877,0.0061,0.01022,-0.03128,0.01053,-0.12512,-0.03296,-0.01678,0.16846,-0.03952
6.8105,-0.00473,-0.04578,-0.02945,-0.02609,-0.03784,-0.0441,-0.00656,0.01007,0.01053,-0.02853,0.01175,-0.18356,-0.03113,-0.00549,0.11322,-0.03998
6.811,-0.00504,-0.04456,-0.03128,0.00183,-0.0238,-0.04288,0.00336,0.01328,0.00977,-0.02365,0.02365,-0.1532,-0.02853,0.0116,0.03754,-0.0415
6.8115,-0.0058,-0.04593,-0.03311,0.0322,-0.01648,-0.0441,0.00748,0.01297,0.00885,-0.01984,0.04379,-0.01938,-0.02625,0.0296,-0.01236,-0.04333
6.812,-0.0058,-0.04807,-0.03326,0.0238,-0.01205,-0.04562,0.00443,0.00931,0.00381,-0.01709,0.05814,0.13336,-0.02518,0.03601,-0.02167,-0.04425
6.8125,-0.00488,-0.04669,-0.03433,-0.02747,-0.00946,-0.04684,0.00031,0.00366,-0.00992,-0.01572,0.0502,0.18234,-0.02319,0.02258,-0.00656,-0.04486
6.813,-0.00504,-0.04227,-0.03403,-0.08835,-0.01129,-0.047,-0.00122,-0.00168,-0.0293,-0.01373,0.02029,0.1123,-0.0206,-0.00717,0.01846,-0.04456
6.8135,-0.00549,-0.03754,-0.03418,-0.13153,-0.01801,-0.04883,0.00198,-0.00778,-0.04669,-0.01022,-0.01129,0.02548,-0.01801,-0.03479,0.04761,-0.04471
6.814,-0.00366,-0.03448,-0.03479,-0.15411,-0.02869,-0.04913,0.00565,-0.01282,-0.05722,-0.00809,-0.0296,0.00412,-0.0119,-0.0444,0.07507,-0.04501
6.8145,-0.00168,-0.0322,-0.03494,-0.15793,-0.04044,-0.04608,0.00549,-0.01511,-0.05814,-0.01007,-0.03479,0.03006,0.00015,-0.03662,0.09506,-0.04471
6.815,-0.00107,-0.02808,-0.03601,-0.13855,-0.04364,-0.04288,-0.00153,-0.01602,-0.05234,-0.01846,-0.03571,0.05234,0.01755,-0.02487,0.10239,-0.04318
6.8155,-0.00397,-0.02319,-0.03632,-0.09567,-0.04211,-0.04211,-0.01068,-0.01694,-0.04379,-0.03494,-0.03372,0.05554,0.03403,-0.02121,0.09308,-0.04257
6.816,-0.00793,-0.01953,-0.03708,-0.03448,-0.0502,-0.04517,-0.01678,-0.01694,-0.03296,-0.05234,-0.03021,0.05463,0.0441,-0.0238,0.06943,-0.04364
6.8165,-0.01083,-0.02029,-0.0383,0.03311,-0.06866,-0.04822,-0.01694,-0.01602,-0.02121,-0.06088,-0.02716,0.05676,0.0441,-0.02487,0.02975,-0.04349
6.817,-0.01099,-0.02686,-0.03754,0.08087,-0.0827,-0.04898,-0.01617,-0.01282,-0.01221,-0.05463,-0.0264,0.05707,0.03372,-0.02274,-0.01434,-0.04288
6.8175,-0.00931,-0.03601,-0.03616,0.06622,-0.07156,-0.05081,-0.01923,-0.00809,-0.00885,-0.04105,-0.02899,0.05234,0.00946,-0.02075,-0.04593,-0.04257
6.818,-0.00717,-0.04486,-0.03494,-0.01663,-0.0444,-0.05356,-0.02701,-0.00381,-0.01129,-0.02884,-0.03189,0.04333,-0.03113,-0.02228,-0.05356,-0.04501
6.8185,-0.00656,-0.04929,-0.03448,-0.09918,-0.01831,-0.05585,-0.0354,-0.00031,-0.01511,-0.01846,-0.03708,0.03204,-0.08148,-0.0264,-0.04303,-0.04578
6.819,-0.00793,-0.05402,-0.03204,-0.09155,-0.00305,-0.05661,-0.04059,0.00122,-0.01587,-0.0058,-0.03525,0.02563,-0.11612,-0.02777,-0.03326,-0.04364
6.8195,-0.00977,-0.05936,-0.03021,0.00916,0.00198,-0.05356,-0.04349,-0.00092,-0.01419,0.01373,-0.02563,0.03174,-0.12115,-0.02701,-0.03067,-0.04166
6.82,-0.00977,-0.06454,-0.02945,0.10666,0.00107,-0.05096,-0.04333,-0.00626,-0.01419,0.03754,-0.01343,0.04288,-0.09979,-0.02594,-0.03174,-0.03876
6.8205,-0.0058,-0.06622,-0.03052,0.10117,-0.00519,-0.05051,-0.03998,-0.00992,-0.01831,0.05722,-0.00458,0.04639,-0.0647,-0.02426,-0.0322,-0.03693
6.821,0.0,-0.06668,-0.03326,-0.00092,-0.0177,-0.0502,-0.03128,-0.009,-0.02472,0.06348,0.00046,0.0441,-0.03342,-0.02213,-0.03311,-0.0354
6.8215,0.00443,-0.06638,-0.03403,-0.11917,-0.0322,-0.04974,-0.01526,-0.00549,-0.02914,0.05386,0.00092,0.0383,-0.02213,-0.01801,-0.03128,-0.0322
6.822,0.00778,-0.065,-0.03387,-0.18692,-0.04181,-0.04852,0.00443,-0.00381,-0.02975,0.03616,-0.00519,0.01678,-0.04272,-0.0148,-0.01312,-0.02899
6.8225,0.00916,-0.0621,-0.03143,-0.19028,-0.04425,-0.04593,0.01831,-0.00549,-0.02869,0.02365,-0.0209,-0.02838,-0.07721,-0.01404,0.02655,-0.02747
6.823,0.009,-0.0563,-0.02686,-0.13351,-0.04211,-0.04211,0.01221,-0.00916,-0.0238,0.02396,-0.03983,-0.07004,-0.09094,-0.0174,0.06454,-0.02808
6.8235,0.00839,-0.0502,-0.02365,-0.02747,-0.03174,-0.03922,-0.0174,-0.0116,-0.01526,0.03143,-0.04898,-0.07278,-0.07095,-0.01877,0.06393,-0.03067
6.824,0.00824,-0.04562,-0.0235,0.09827,-0.01175,-0.03677,-0.05371,-0.01328,-0.00717,0.0354,-0.04135,-0.03693,-0.03891,-0.01846,0.0206,-0.03311
6.8245,0.00793,-0.0415,-0.02609,0.20462,0.01175,-0.03525,-0.06897,-0.01617,-0.00183,0.03204,-0.02594,0.00427,-0.02106,-0.0177,-0.02823,-0.0351
6.825,0.00534,-0.03723,-0.03021,0.2565,0.02869,-0.03662,-0.04776,-0.01694,0.00015,0.02533,-0.01038,0.01099,-0.0174,-0.01587,-0.04715,-0.03937
6.8255,0.00076,-0.03311,-0.03143,0.24155,0.03387,-0.04135,-0.00076,-0.01358,0.00214,0.01785,-0.00031,-0.02716,-0.01877,-0.01373,-0.02731,-0.0444
6.826,-0.00244,-0.03113,-0.02975,0.18265,0.0267,-0.04593,0.04379,-0.00824,0.00229,0.01022,0.00412,-0.07736,-0.02197,-0.01282,0.01205,-0.04837
6.8265,-0.00259,-0.03082,-0.02701,0.12024,0.00992,-0.04837,0.06104,-0.00458,-0.00671,0.00168,0.00641,-0.10284,-0.03479,-0.01404,0.04318,-0.05051
6.827,-0.00198,-0.03464,-0.02777,0.08148,-0.01129,-0.04852,0.047,-0.00534,-0.02914,-0.00702,0.00931,-0.10864,-0.05096,-0.01648,0.04532,-0.05386
6.8275,-0.00198,-0.03815,-0.02945,0.06287,-0.03433,-0.04883,0.01572,-0.00717,-0.05463,-0.0148,0.00885,-0.12177,-0.05508,-0.01892,0.02151,-0.05966
6.828,-0.00168,-0.04059,-0.03036,0.04303,-0.05997,-0.05081,-0.0116,-0.0087,-0.06714,-0.02167,0.0032,-0.13702,-0.04333,-0.02014,-0.00259,-0.06485
6.8285,-0.00107,-0.0441,-0.03021,0.00916,-0.0766,-0.05188,-0.02213,-0.00854,-0.06149,-0.02884,-0.00534,-0.13382,-0.02579,-0.02106,-0.01099,-0.0647
6.829,-0.00305,-0.04929,-0.0322,-0.0322,-0.0766,-0.05249,-0.01938,-0.00854,-0.04333,-0.03693,-0.01389,-0.11124,-0.01678,-0.02258,-0.00992,-0.06104
6.8295,-0.00732,-0.05447,-0.03387,-0.06256,-0.07126,-0.05356,-0.01434,-0.00732,-0.02319,-0.04211,-0.01831,-0.08774,-0.01953,-0.02487,-0.00809,-0.05692
6.83,-0.01251,-0.05707,-0.03357,-0.06897,-0.08209,-0.05432,-0.01175,-0.0061,-0.00641,-0.04639,-0.01938,-0.07065,-0.02975,-0.02609,-0.01038,-0.05447
6.8305,-0.01541,-0.05814,-0.03113,-0.05432,-0.10666,-0.05432,-0.00473,-0.00488,0.00366,-0.04593,-0.01755,-0.04776,-0.04135,-0.02426,-0.01343,-0.05203
6.831,-0.01556,-0.05981,-0.02869,-0.02579,-0.12253,-0.05569,0.01038,-0.00427,0.00717,-0.04196,-0.01328,-0.00122,-0.04745,-0.02258,-0.01511,-0.0499
6.8315,-0.01556,-0.06027,-0.02747,0.01175,-0.1088,-0.05554,0.02411,-0.00244,0.00626,-0.03616,-0.00992,0.06134,-0.04364,-0.02121,-0.0145,-0.04852
6.832,-0.01633,-0.0592,-0.02777,0.04303,-0.07492,-0.05478,0.02411,-0.00031,0.0029,-0.03403,-0.00977,0.11063,-0.03311,-0.02121,-0.01038,-0.04654
6.8325,-0.01526,-0.05737,-0.02991,0.0499,-0.04684,-0.05341,0.01236,0.00061,0.00198,-0.03738,-0.01465,0.12009,-0.01846,-0.02014,-0.00244,-0.04517
6.833,-0.01572,-0.05707,-0.03204,0.03235,-0.03479,-0.05188,0.00107,0.00168,0.00778,-0.04242,-0.02518,0.09369,-0.00259,-0.01968,0.00504,-0.04364
6.8335,-0.02121,-0.05768,-0.03296,0.01709,-0.03387,-0.05234,-0.00534,0.00259,0.01999,-0.04623,-0.0415,0.05859,0.01083,-0.01678,0.00641,-0.04272
6.834,-0.02945,-0.0589,-0.03448,0.02075,-0.03967,-0.05402,-0.01556,0.0032,0.02884,-0.05035,-0.05478,0.03922,0.01801,-0.01129,0.00595,-0.04242
6.8345,-0.03418,-0.05905,-0.0386,0.02548,-0.05356,-0.05707,-0.03067,0.00244,0.02899,-0.05814,-0.05493,0.04013,0.01465,-0.00458,0.00626,-0.0415
6.835,-0.03281,-0.0563,-0.04547,0.01343,-0.07309,-0.05859,-0.0415,0.00107,0.02304,-0.08011,-0.03845,0.04639,0.0032,-0.00092,0.00626,-0.03967
6.8355,-0.0267,-0.0499,-0.05203,-0.00473,-0.08163,-0.05676,-0.04028,-0.00183,0.01923,-0.11032,-0.01587,0.0415,-0.00885,-0.00183,0.00397,-0.03967
6.836,-0.01892,-0.04089,-0.05493,-0.02274,-0.06882,-0.05692,-0.03143,-0.00519,0.01678,-0.13504,-0.00015,0.02182,-0.01785,-0.00443,-0.00061,-0.0412
6.8365,-0.01328,-0.0293,-0.05295,-0.0618,-0.0441,-0.05661,-0.02411,-0.00671,0.01099,-0.13824,0.0058,-0.00885,-0.02502,-0.00671,-0.00153,-0.04364
6.837,-0.00961,-0.01938,-0.04883,-0.13733,-0.02151,-0.05646,-0.0238,-0.00778,0.00061,-0.1178,0.00656,-0.03754,-0.03281,-0.00977,0.00122,-0.04471
6.8375,-0.009,-0.01389,-0.04684,-0.22141,-0.00473,-0.05493,-0.02762,-0.00931,-0.00809,-0.08194,0.00809,-0.05325,-0.03967,-0.0145,0.00397,-0.04395
6.838,-0.00931,-0.01328,-0.04608,-0.25803,0.00763,-0.05203,-0.03143,-0.0116,-0.01434,-0.04211,0.01877,-0.04974,-0.04181,-0.01892,0.00488,-0.04349
6.8385,-0.009,-0.01511,-0.04578,-0.2063,0.01617,-0.04715,-0.03204,-0.01221,-0.02106,-0.009,0.05066,-0.0296,-0.04059,-0.02106,0.00641,-0.04395
6.839,-0.00916,-0.0177,-0.04837,-0.07996,0.01175,-0.04395,-0.02686,-0.01083,-0.02945,0.01053,0.10834,0.00626,-0.03769,-0.02319,0.01419,-0.04333
6.8395,-0.01007,-0.02045,-0.05341,0.05081,-0.01053,-0.0415,-0.02075,-0.00732,-0.03799,0.01938,0.15884,0.04898,-0.03357,-0.02686,0.01968,-0.04013
6.84,-0.01205,-0.02335,-0.05981,0.11185,-0.03876,-0.0415,-0.01938,-0.00488,-0.04456,0.02808,0.15671,0.07507,-0.02777,-0.03052,0.01053,-0.03693
6.8405,-0.01312,-0.02548,-0.06348,0.08072,-0.05188,-0.04288,-0.0235,-0.00458,-0.04822,0.04105,0.09689,0.07401,-0.02029,-0.03006,-0.01312,-0.03479
6.841,-0.00946,-0.02365,-0.06439,-0.00824,-0.04059,-0.04288,-0.0264,-0.00534,-0.04852,0.04974,0.01984,0.05966,-0.01663,-0.02396,-0.02975,-0.03433
6.8415,-0.00229,-0.01801,-0.05966,-0.10727,-0.02075,-0.03937,-0.0267,-0.00488,-0.04669,0.04684,-0.03632,0.05081,-0.01755,-0.01801,-0.02518,-0.03571
6.842,0.00504,-0.01129,-0.05035,-0.1799,-0.00519,-0.03738,-0.02563,-0.00397,-0.04456,0.03738,-0.06943,0.04593,-0.02304,-0.01999,-0.00793,-0.03632
6.8425,0.00977,-0.00916,-0.04089,-0.20676,0.00656,-0.04013,-0.02365,-0.00366,-0.04501,0.0296,-0.09003,0.03418,-0.0296,-0.03128,0.00259,-0.03784
6.843,0.00961,-0.01495,-0.03296,-0.17563,0.01968,-0.04776,-0.01755,-0.00427,-0.04364,0.03143,-0.09842,0.01495,-0.03357,-0.04425,0.00153,-0.03769
6.8435,0.00824,-0.02426,-0.0264,-0.0882,0.02777,-0.05569,-0.01251,-0.00565,-0.03616,0.03998,-0.09644,-0.00443,-0.03189,-0.04715,-0.00275,-0.03723
6.844,0.00687,-0.03174,-0.02197,0.02701,0.01755,-0.06165,-0.01511,-0.00809,-0.0238,0.05005,-0.09003,-0.02075,-0.02472,-0.03723,-0.00168,-0.03799
6.8445,0.00641,-0.03555,-0.01755,0.1062,-0.01877,-0.06363,-0.02701,-0.00717,-0.00977,0.05493,-0.08789,-0.03601,-0.01953,-0.02304,0.00198,-0.04028
6.845,0.00443,-0.03784,-0.01297,0.0943,-0.06485,-0.0618,-0.03754,-0.00534,-0.00031,0.0502,-0.09384,-0.05051,-0.02365,-0.01617,0.00504,-0.04227
6.8455,0.00259,-0.04074,-0.00809,0.0058,-0.0943,-0.06073,-0.03372,-0.00168,0.00641,0.03448,-0.10025,-0.05127,-0.03098,-0.01556,0.00534,-0.04242
6.846,-0.00031,-0.04532,-0.00381,-0.08102,-0.09903,-0.06302,-0.01968,-0.00031,0.01312,0.01266,-0.10208,-0.02411,-0.02853,-0.01434,0.00671,-0.04227
6.8465,-0.00458,-0.05112,-0.00076,-0.09949,-0.08667,-0.06531,-0.00687,-0.00046,0.0206,-0.00595,-0.09811,0.02075,-0.0119,-0.01099,0.00931,-0.04059
6.847,-0.01144,-0.05447,0.00076,-0.05157,-0.06699,-0.06454,-0.0032,-0.00061,0.02777,-0.01755,-0.09338,0.04074,0.00519,-0.0087,0.01022,-0.03891
6.8475,-0.01862,-0.05524,-0.00107,0.01373,-0.04684,-0.06104,-0.00488,0.00061,0.02945,-0.02502,-0.08942,0.00946,-0.00015,-0.01129,0.00931,-0.03738
6.848,-0.02304,-0.05371,-0.00839,0.06516,-0.03052,-0.05737,-0.00824,0.00244,0.01953,-0.03326,-0.08194,-0.04333,-0.03769,-0.01785,0.01038,-0.03754
6.8485,-0.02487,-0.05188,-0.01694,0.10193,-0.02274,-0.04959,-0.01129,0.00183,0.00122,-0.04288,-0.06454,-0.07217,-0.09155,-0.02365,0.01495,-0.0383
6.849,-0.02518,-0.05035,-0.02441,0.12817,-0.01984,-0.03494,-0.01328,-0.00092,-0.01434,-0.05219,-0.03616,-0.06073,-0.12207,-0.0267,0.01892,-0.03876
6.8495,-0.02609,-0.04852,-0.02975,0.13336,-0.01038,-0.01831,-0.01266,-0.00671,-0.02045,-0.05981,-0.00885,-0.02838,-0.10529,-0.02533,0.01907,-0.0383
6.85,-0.0267,-0.0473,-0.03693,0.11292,0.00793,-0.01083,-0.01022,-0.01266,-0.02533,-0.07019,0.00732,0.00702,-0.05905,-0.02274,0.01587,-0.03723
6.8505,-0.02701,-0.04913,-0.04333,0.06714,0.02777,-0.01801,-0.00793,-0.01526,-0.03876,-0.08026,0.01297,0.0415,-0.0209,-0.02533,0.01328,-0.03799
6.851,-0.02487,-0.05188,-0.04669,0.0061,0.04196,-0.03342,-0.00854,-0.01495,-0.05814,-0.0853,0.01251,0.06668,-0.00793,-0.03403,0.01053,-0.03891
6.8515,-0.01801,-0.0528,-0.04776,-0.04715,0.04913,-0.04852,-0.0119,-0.01251,-0.07111,-0.08301,0.01068,0.07721,-0.00961,-0.04074,0.00748,-0.03952
6.852,-0.0061,-0.05264,-0.04959,-0.07004,0.05005,-0.06104,-0.01404,-0.01007,-0.06912,-0.07462,0.00748,0.07599,-0.01556,-0.03815,0.00488,-0.03906
6.8525,0.0119,-0.05234,-0.05173,-0.06241,0.04227,-0.07309,-0.01175,-0.00931,-0.056,-0.06241,0.00534,0.07568,-0.02686,-0.02975,0.00488,-0.0386
6.853,0.03372,-0.05264,-0.05157,-0.0473,0.02579,-0.0827,-0.00793,-0.00793,-0.04028,-0.0441,0.00412,0.07462,-0.04456,-0.02319,0.00977,-0.03906
6.8535,0.05417,-0.05356,-0.05035,-0.04318,-0.00031,-0.08423,-0.01144,-0.00656,-0.02686,-0.02167,0.00183,0.0621,-0.06256,-0.02121,0.01495,-0.03906
6.854,0.06851,-0.05524,-0.04913,-0.04929,-0.02731,-0.08072,-0.02228,-0.00504,-0.01923,-0.00092,-0.00092,0.03891,-0.07111,-0.01831,0.0177,-0.04013
6.8545,0.07355,-0.056,-0.04974,-0.05539,-0.04883,-0.07156,-0.02838,-0.00397,-0.01617,0.01297,-0.00107,0.02197,-0.0618,-0.01389,0.01846,-0.04105
6.855,0.06668,-0.05539,-0.04929,-0.05371,-0.06775,-0.06226,-0.02106,-0.00107,-0.01404,0.01953,0.0,0.02243,-0.03555,-0.00793,0.02182,-0.04135
6.8555,0.04883,-0.05737,-0.04532,-0.04501,-0.09125,-0.05371,-0.00885,0.00259,-0.01068,0.01892,0.00015,0.03464,0.00076,-0.00214,0.02655,-0.04028
6.856,0.02472,-0.06378,-0.03952,-0.02457,-0.11627,-0.04883,-0.00458,0.00458,-0.00458,0.01282,-0.0029,0.04257,0.0383,0.00015,0.02884,-0.03967
6.8565,0.00534,-0.07202,-0.0354,0.00443,-0.12436,-0.04547,-0.01099,0.00412,0.00107,0.00443,-0.00946,0.03677,0.06653,-0.00153,0.01907,-0.04105
6.857,-0.00443,-0.07797,-0.0325,0.0293,-0.10864,-0.04135,-0.01831,0.00275,0.00534,-0.00473,-0.01892,0.01831,0.08011,-0.00473,0.0029,-0.04349
6.8575,-0.01144,-0.07904,-0.03189,0.03616,-0.08102,-0.03952,-0.02014,0.00214,0.00671,-0.01465,-0.02701,-0.01038,0.07874,-0.00244,-0.00732,-0.04608
6.858,-0.02151,-0.07523,-0.03082,0.02518,-0.06088,-0.04242,-0.01678,0.00244,0.00488,-0.02609,-0.02991,-0.04807,0.06134,0.00732,-0.00793,-0.04913
6.8585,-0.03357,-0.0676,-0.03098,0.01053,-0.05096,-0.04501,-0.01083,0.00305,0.00031,-0.04089,-0.02975,-0.08713,0.01511,0.01709,-0.00427,-0.05341
6.859,-0.0383,-0.05844,-0.03174,0.00488,-0.04013,-0.0444,-0.00549,0.00137,-0.00687,-0.05432,-0.02701,-0.11154,-0.08194,0.02258,-0.00519,-0.0563
6.8595,-0.03372,-0.04913,-0.03113,0.00687,-0.0238,-0.04059,-0.00351,-0.00671,-0.01129,-0.06088,-0.02243,-0.10727,-0.21576,0.02289,-0.01587,-0.05371
6.86,-0.02457,-0.0415,-0.0293,0.01038,-0.00809,-0.03754,-0.00229,-0.01785,-0.01007,-0.05829,-0.0148,-0.08606,-0.30762,0.01953,-0.02823,-0.04684
6.8605,-0.01862,-0.03418,-0.02792,0.00977,-0.00031,-0.0383,-0.00031,-0.02686,-0.0061,-0.05264,-0.00656,-0.06516,-0.27954,0.00961,-0.02991,-0.04059
6.861,-0.0174,-0.02701,-0.02792,0.00275,0.00076,-0.04089,0.00137,-0.03113,-0.00214,-0.04883,-0.00107,-0.05096,-0.159,-0.0116,-0.00458,-0.0415
6.8615,-0.01984,-0.02121,-0.02853,-0.00854,-0.00107,-0.04364,-0.00031,-0.03143,0.00122,-0.05157,0.00015,-0.04044,-0.05371,-0.0351,0.04272,-0.05356
6.862,-0.02029,-0.01953,-0.03021,-0.0174,-0.00381,-0.04578,-0.00534,-0.02808,0.00565,-0.06149,0.00046,-0.0325,-0.01953,-0.05142,0.08194,-0.07202
6.8625,-0.0177,-0.02258,-0.03387,-0.01709,-0.00626,-0.04837,-0.00946,-0.01923,0.01022,-0.07187,0.00854,-0.02853,-0.0206,-0.06149,0.08575,-0.08438
6.863,-0.01221,-0.02731,-0.03922,-0.01083,-0.009,-0.05066,-0.01251,-0.00198,0.01038,-0.07202,0.03082,-0.02441,-0.01236,-0.06744,0.05798,-0.08469
6.8635,-0.00626,-0.0296,-0.04959,-0.00839,-0.01694,-0.05157,-0.01526,0.02075,0.00504,-0.05646,0.06195,-0.01846,0.00641,-0.06226,0.02426,-0.07813
6.864,0.00031,-0.02884,-0.0705,-0.01312,-0.03632,-0.05157,-0.01801,0.03479,-0.00015,-0.03281,0.07965,-0.01495,0.01648,-0.04196,0.00992,-0.07187
6.8645,0.00381,-0.02777,-0.0975,-0.02258,-0.06622,-0.05112,-0.02106,0.03006,0.00107,-0.01175,0.06378,-0.02365,0.01709,-0.01968,0.0058,-0.06546
6.865,0.00443,-0.03159,-0.11963,-0.03769,-0.0885,-0.05066,-0.02563,0.01266,0.00473,0.00671,0.02258,-0.04044,0.01587,-0.01251,-0.0174,-0.056
6.8655,0.00504,-0.03723,-0.12909,-0.05493,-0.08301,-0.05051,-0.03204,-0.00061,-0.00183,0.02472,-0.01709,-0.04898,0.01419,-0.01953,-0.06714,-0.04211
6.866,0.00793,-0.03876,-0.1268,-0.06317,-0.05524,-0.05127,-0.03784,-0.00229,-0.01892,0.04593,-0.04074,-0.04395,0.01099,-0.02716,-0.10132,-0.02548
6.8665,0.0116,-0.03464,-0.10864,-0.05432,-0.02853,-0.05157,-0.03647,0.00214,-0.03311,0.06653,-0.05112,-0.03082,0.00748,-0.02686,-0.07401,-0.00778
6.867,0.0119,-0.02869,-0.07019,-0.03036,-0.01892,-0.0502,-0.02762,0.00412,-0.0351,0.07996,-0.056,-0.01724,0.00015,-0.02319,0.0087,0.00916
6.8675,0.0058,-0.0264,-0.02045,0.00168,-0.02151,-0.04684,-0.01785,0.00427,-0.03204,0.08286,-0.05524,-0.00778,-0.02502,-0.02243,0.09323,0.0209
6.868,-0.0029,-0.02625,0.02853,0.03372,-0.02518,-0.04227,-0.01389,0.00275,-0.03174,0.07431,-0.04852,-0.00397,-0.07385,-0.02533,0.13763,0.01984
6.8685,-0.00931,-0.02411,0.06454,0.05325,-0.02792,-0.03845,-0.01465,0.00031,-0.03418,0.05798,-0.03845,0.00107,-0.12451,-0.02853,0.13306,0.00229
6.869,-0.01175,-0.02151,0.08408,0.05051,-0.03433,-0.03677,-0.01617,-0.00214,-0.03616,0.04059,-0.02625,0.02106,-0.13702,-0.02975,0.09872,-0.02258
6.8695,-0.0119,-0.02243,0.08499,0.03159,-0.04105,-0.0386,-0.01587,-0.0032,-0.04227,0.02625,-0.01511,0.04379,-0.09827,-0.02914,0.05936,-0.04257
6.87,-0.01114,-0.02838,0.06851,0.01938,-0.04364,-0.04227,-0.01572,-0.00137,-0.06027,0.01465,-0.00946,0.03952,-0.04272,-0.02869,0.03036,-0.05081
6.8705,-0.01022,-0.03571,0.04013,0.01831,-0.0412,-0.04425,-0.01678,-0.00031,-0.08484,0.00229,-0.01236,0.01587,-0.01465,-0.02853,0.01007,-0.05219
6.871,-0.00977,-0.04089,0.01205,0.01709,-0.03525,-0.04456,-0.01801,-0.00046,-0.09644,-0.00885,-0.01953,0.01312,-0.01633,-0.02701,-0.01297,-0.05417
6.8715,-0.01144,-0.04395,-0.00916,0.00214,-0.02975,-0.04807,-0.01801,-0.00076,-0.08469,-0.02075,-0.02167,0.04486,-0.02365,-0.02151,-0.03815,-0.05783
6.872,-0.01328,-0.04425,-0.02228,-0.01663,-0.02548,-0.05478,-0.01663,-0.00122,-0.05997,-0.03342,-0.01404,0.07568,-0.02014,-0.01678,-0.05325,-0.06332
6.8725,-0.01465,-0.04227,-0.02853,-0.02304,-0.0206,-0.06332,-0.01343,-0.00183,-0.04349,-0.04715,-0.00214,0.0676,-0.01266,-0.01648,-0.04822,-0.06989
6.873,-0.01328,-0.03571,-0.03143,-0.01282,-0.01358,-0.06729,-0.01038,-0.00336,-0.04303,-0.05325,0.00671,0.01541,-0.01175,-0.02014,-0.02701,-0.07675
6.8735,-0.01083,-0.02914,-0.0351,0.00061,-0.00259,-0.06592,-0.00778,-0.00275,-0.04425,-0.04944,0.01099,-0.05447,-0.01678,-0.02258,-0.00504,-0.08484
6.874,-0.00931,-0.0264,-0.03845,0.00458,0.009,-0.06027,-0.00854,-0.00137,-0.03403,-0.04318,0.01068,-0.10834,-0.02121,-0.02228,0.00534,-0.08896
6.8745,-0.00854,-0.0296,-0.03967,-0.00153,0.01785,-0.05585,-0.01007,0.0,-0.01495,-0.04166,0.00854,-0.11948,-0.02335,-0.01907,0.00519,-0.0795
6.875,-0.00641,-0.0354,-0.04059,-0.01099,0.01816,-0.0531,-0.01083,-0.00076,-0.00244,-0.04578,0.00641,-0.08606,-0.02258,-0.01526,0.00366,-0.04257
6.8755,-0.00336,-0.04135,-0.04028,-0.0174,0.00626,-0.05035,-0.00992,-0.00198,-0.00137,-0.05188,0.00275,-0.03067,-0.02274,-0.01312,0.00641,0.02029
6.876,-0.00092,-0.04776,-0.04135,-0.02045,-0.00946,-0.04669,-0.01083,-0.00168,-0.00565,-0.05676,-0.00504,0.01877,-0.02274,-0.01083,0.01007,0.07553
6.8765,0.00015,-0.05432,-0.04013,-0.0235,-0.01434,-0.04379,-0.01144,-0.00214,-0.00809,-0.05875,-0.01373,0.04547,-0.02396,-0.0087,0.00977,0.07675
6.877,-0.00046,-0.05859,-0.03647,-0.02914,-0.00961,-0.04364,-0.01175,-0.00473,-0.0061,-0.05737,-0.01846,0.04349,-0.0267,-0.00824,0.00717,0.02853
6.8775,-0.0032,-0.05875,-0.03113,-0.03693,-0.00916,-0.04425,-0.01312,-0.00778,-0.00168,-0.05203,-0.01587,0.01801,-0.02838,-0.01221,0.00488,-0.02029
6.878,-0.00641,-0.05783,-0.02747,-0.05585,-0.02808,-0.04303,-0.01602,-0.00717,0.00046,-0.0444,-0.0087,-0.00717,-0.02579,-0.01587,0.00305,-0.03418
6.8785,-0.01053,-0.05783,-0.02792,-0.09842,-0.05997,-0.03952,-0.01572,-0.00458,-0.00015,-0.03754,-0.00305,0.00946,-0.01419,-0.01755,0.00046,-0.0264
6.879,-0.01541,-0.05905,-0.03052,-0.15106,-0.0856,-0.03372,-0.01205,-0.00244,-0.00168,-0.03525,-0.00244,0.08591,0.00473,-0.01617,-0.00259,-0.02472
6.8795,-0.01846,-0.06073,-0.0322,-0.17136,-0.09384,-0.02869,-0.0061,-0.0029,-0.00168,-0.03479,0.00198,0.18265,0.02197,-0.01419,-0.0029,-0.03265
6.88,-0.01892,-0.06012,-0.03204,-0.12833,-0.0914,-0.02853,-0.00107,-0.00336,-0.00061,-0.03265,0.02472,0.2034,0.03342,-0.01083,0.00031,-0.03891
6.8805,-0.0206,-0.0563,-0.03372,-0.03998,-0.08789,-0.03342,0.00092,-0.00229,-0.00397,-0.02747,0.06714,0.09262,0.03754,-0.00839,0.00305,-0.03952
6.881,-0.02396,-0.05188,-0.03769,0.04166,-0.07874,-0.03998,0.00076,-0.00107,-0.01511,-0.02075,0.0975,-0.08179,0.03113,-0.00839,0.00473,-0.03983
6.8815,-0.02686,-0.04868,-0.04044,0.08102,-0.05951,-0.04425,-0.00061,-0.00061,-0.03662,-0.0148,0.08621,-0.17212,0.00687,-0.01236,0.00443,-0.0412
6.882,-0.02441,-0.04547,-0.04089,0.07431,-0.0415,-0.04501,-0.00107,-0.00153,-0.06149,-0.00824,0.04166,-0.09247,-0.03082,-0.01984,0.00427,-0.04318
6.8825,-0.01709,-0.03922,-0.04105,0.03448,-0.03159,-0.04807,-0.00168,-0.0032,-0.07477,-0.00275,0.00488,0.1001,-0.06104,-0.02701,0.00534,-0.04501
6.883,-0.00763,-0.02975,-0.04166,-0.01221,-0.02884,-0.05508,-0.00336,-0.00412,-0.06836,0.00122,-0.0058,0.23926,-0.06989,-0.03098,0.0061,-0.04623
6.8835,-0.00031,-0.0209,-0.04196,-0.03525,-0.02487,-0.05875,-0.00992,-0.0029,-0.04913,0.00458,-0.00519,0.20203,-0.06699,-0.03006,0.0058,-0.04791
6.884,0.00305,-0.01617,-0.04196,-0.02411,-0.02274,-0.05432,-0.01846,-0.00107,-0.02731,0.00549,-0.01633,0.04791,-0.0708,-0.02609,0.00305,-0.04898
6.8845,0.00412,-0.01266,-0.04089,0.00702,-0.02182,-0.04654,-0.02335,-0.00092,-0.00839,0.00565,-0.04227,-0.05051,-0.08041,-0.02335,-0.00229,-0.0499
6.885,0.00473,-0.00946,-0.03922,0.03998,-0.02075,-0.04242,-0.02258,-0.00275,0.00778,0.00305,-0.07126,-0.02609,-0.07813,-0.02243,-0.01297,-0.04974
6.8855,0.00427,-0.00748,-0.03891,0.06577,-0.01816,-0.04013,-0.01892,-0.00549,0.02106,-0.00214,-0.09171,0.02762,-0.05661,-0.0209,-0.02396,-0.05081
6.886,0.00107,-0.01144,-0.04059,0.08606,-0.01312,-0.04074,-0.01755,-0.00763,0.03006,-0.00717,-0.10086,0.02365,-0.02594,-0.01602,-0.02838,-0.05264
6.8865,-0.00275,-0.02274,-0.04318,0.11307,-0.00916,-0.04227,-0.02014,-0.00732,0.03494,-0.0145,-0.10422,-0.01114,-0.00244,-0.01068,-0.02579,-0.05569
6.887,-0.00534,-0.03662,-0.04623,0.14771,-0.00824,-0.04349,-0.0264,-0.00549,0.0351,-0.02228,-0.10666,-0.0238,0.00793,-0.00717,-0.01877,-0.05692
6.8875,-0.00565,-0.04745,-0.0528,0.1619,-0.01083,-0.04425,-0.03357,-0.00549,0.03326,-0.03006,-0.10666,-0.02548,0.0029,-0.00717,-0.01617,-0.05478
6.888,-0.00504,-0.05234,-0.08286,0.12863,-0.01724,-0.04532,-0.0386,-0.00732,0.03067,-0.04105,-0.09674,-0.04562,-0.01724,-0.01236,-0.01923,-0.05051
6.8885,-0.00519,-0.05188,-0.15228,0.0618,-0.02686,-0.04593,-0.04166,-0.00992,0.02502,-0.05463,-0.07797,-0.06805,-0.04669,-0.02121,-0.02304,-0.04623
6.889,-0.00504,-0.04852,-0.24673,0.00793,-0.03571,-0.04684,-0.05066,-0.01053,0.0087,-0.06516,-0.0589,-0.06317,-0.07584,-0.02991,-0.02335,-0.04501
6.8895,-0.00671,-0.04608,-0.32516,-0.01556,-0.03876,-0.04745,-0.0679,-0.00961,-0.02014,-0.0676,-0.04822,-0.04593,-0.08881,-0.03418,-0.01862,-0.04547
6.89,-0.01007,-0.04532,-0.34882,-0.03235,-0.03632,-0.04776,-0.07935,-0.00839,-0.05173,-0.06302,-0.04318,-0.05539,-0.07645,-0.03159,-0.01709,-0.047
6.8905,-0.01266,-0.04654,-0.29907,-0.06653,-0.03403,-0.0499,-0.07034,-0.009,-0.06561,-0.05707,-0.03586,-0.09064,-0.04349,-0.02487,-0.03494,-0.05066
6.891,-0.0116,-0.04532,-0.18768,-0.10956,-0.0322,-0.05142,-0.04211,-0.009,-0.05219,-0.05112,-0.02655,-0.10437,-0.00656,-0.01953,-0.08286,-0.05417
6.8915,-0.00748,-0.04578,-0.03128,-0.13657,-0.03052,-0.05005,-0.01221,-0.009,-0.02319,-0.04364,-0.02243,-0.07935,0.01968,-0.0174,-0.13794,-0.05325
6.892,-0.00504,-0.04944,0.12894,-0.13138,-0.02563,-0.04822,0.009,-0.00763,-0.0029,-0.03296,-0.02609,-0.05219,0.03052,-0.01892,-0.13458,-0.05051
6.8925,-0.00565,-0.05417,0.24628,-0.09735,-0.01816,-0.04608,0.0238,-0.00473,0.00046,-0.02167,-0.02777,-0.04684,0.0351,-0.01984,-0.03922,-0.04929
6.893,-0.00748,-0.05783,0.29922,-0.056,-0.00946,-0.04242,0.03738,-0.00092,-0.00397,-0.00977,-0.02289,-0.04105,0.03998,-0.01343,0.08514,-0.0528
6.8935,-0.00854,-0.05768,0.29449,-0.03296,-0.00259,-0.03952,0.04761,0.00015,-0.00687,0.0,-0.01617,-0.00778,0.03998,-0.00305,0.13397,-0.05692
6.894,-0.00931,-0.05188,0.25208,-0.03754,-0.00412,-0.03754,0.05081,-0.00046,-0.00671,0.00168,-0.01053,0.03372,0.02136,0.00778,0.09354,-0.05768
6.8945,-0.01038,-0.04288,0.18951,-0.05356,-0.01709,-0.03693,0.04318,-0.00092,-0.00656,-0.00153,-0.00656,0.04791,-0.01266,0.01617,0.04974,-0.05524
6.895,-0.01266,-0.03082,0.12375,-0.06638,-0.03601,-0.0386,0.02716,-0.00046,-0.00916,-0.01236,0.00275,0.02884,-0.03906,0.02151,0.06989,-0.05173
6.8955,-0.01617,-0.02182,0.0676,-0.07507,-0.04608,-0.03906,0.00778,-0.00168,-0.01328,-0.02472,0.02167,0.00427,-0.0444,0.01434,0.1297,-0.05356
6.896,-0.0206,-0.01801,0.02457,-0.08179,-0.04181,-0.03937,-0.0058,-0.00458,-0.01602,-0.03143,0.04211,-0.00793,-0.04074,-0.00946,0.16586,-0.05814
6.8965,-0.02426,-0.02106,-0.009,-0.08026,-0.03494,-0.03906,-0.01129,-0.00717,-0.01587,-0.03784,0.04715,-0.01358,-0.05386,-0.03815,0.16647,-0.06012
6.897,-0.02319,-0.02747,-0.03525,-0.06393,-0.03235,-0.04013,-0.01144,-0.00702,-0.01526,-0.04883,0.03174,-0.02411,-0.09338,-0.0502,0.15671,-0.05966
6.8975,-0.0174,-0.03403,-0.0563,-0.03876,-0.0325,-0.03922,-0.01221,-0.00412,-0.01709,-0.06821,0.0119,-0.03906,-0.13016,-0.04059,0.14053,-0.05905
6.898,-0.00671,-0.03937,-0.06668,-0.01846,-0.03204,-0.03815,-0.01236,-0.00061,-0.02121,-0.08301,0.00107,-0.04868,-0.1181,-0.02655,0.10864,-0.05905
6.8985,0.00366,-0.03967,-0.06363,-0.01251,-0.03128,-0.03708,-0.01282,0.00351,-0.02365,-0.08026,-0.00214,-0.05096,-0.05692,-0.02365,0.07446,-0.05692
6.899,0.01129,-0.03479,-0.05325,-0.01572,-0.0325,-0.03601,-0.0174,0.00732,-0.02396,-0.05905,-0.00656,-0.05569,0.00168,-0.02945,0.05981,-0.05249
6.8995,0.01556,-0.02747,-0.04395,-0.0209,-0.03342,-0.03403,-0.02899,0.00809,-0.0235,-0.02853,-0.01144,-0.06439,0.01419,-0.03296,0.05661,-0.0473
6.9,0.01617,-0.02167,-0.04028,-0.02274,-0.03387,-0.03159,-0.0444,0.00473,-0.02533,0.00153,-0.01221,-0.06927,-0.01556,-0.03082,0.04837,-0.04349
6.9005,0.01053,-0.01877,-0.04227,-0.02228,-0.03387,-0.02792,-0.05707,-0.00259,-0.02686,0.0264,-0.01175,-0.06271,-0.06073,-0.02686,0.03891,-0.04318
6.901,-0.00031,-0.01923,-0.04776,-0.01877,-0.03098,-0.02533,-0.06226,-0.01068,-0.02335,0.04395,-0.01434,-0.0412,-0.10498,-0.02548,0.04196,-0.04868
6.9015,-0.01114,-0.02243,-0.056,-0.01251,-0.02625,-0.02472,-0.0621,-0.01541,-0.01526,0.05524,-0.02365,0.00153,-0.1416,-0.02594,0.04883,-0.0589
6.902,-0.01511,-0.02625,-0.06454,-0.0058,-0.02136,-0.0293,-0.05737,-0.01678,-0.00671,0.05936,-0.03525,0.06531,-0.15503,-0.02655,0.03403,-0.06165
6.9025,-0.01053,-0.02853,-0.06744,0.00031,-0.01999,-0.03342,-0.04562,-0.01617,-0.00092,0.05737,-0.04364,0.11795,-0.12482,-0.02396,-0.00595,-0.04471
6.903,-0.00244,-0.0293,-0.06775,0.00488,-0.02045,-0.03448,-0.02319,-0.01328,0.0032,0.04822,-0.04761,0.11093,-0.06195,-0.01968,-0.04684,-0.0177
6.9035,0.00351,-0.03159,-0.07187,0.00427,-0.02014,-0.03189,0.00336,-0.01205,0.00717,0.03479,-0.04532,0.04059,-0.00809,-0.01633,-0.06393,-0.00839
6.904,0.0061,-0.03632,-0.08011,-0.00046,-0.01602,-0.0296,0.02747,-0.01373,0.01083,0.0145,-0.0383,-0.0412,0.01007,-0.01373,-0.05661,-0.02304
6.9045,0.00671,-0.04242,-0.08865,-0.00458,-0.01007,-0.03021,0.04898,-0.01404,0.01495,-0.00839,-0.03082,-0.08636,0.00488,-0.01053,-0.03784,-0.04364
6.905,0.00687,-0.0499,-0.09109,-0.0032,-0.00397,-0.0325,0.06271,-0.01083,0.01785,-0.02655,-0.02747,-0.09201,0.0,-0.00763,-0.02472,-0.04837
6.9055,0.00839,-0.05508,-0.08789,0.00122,-0.00366,-0.03281,0.05981,-0.00488,0.01724,-0.02777,-0.02609,-0.07996,0.00336,-0.00549,-0.01831,-0.04257
6.906,0.00946,-0.05676,-0.0824,0.00458,-0.01083,-0.03159,0.03387,-0.00168,0.01297,-0.01282,-0.02319,-0.06058,0.00244,-0.00214,-0.01556,-0.04074
6.9065,0.00916,-0.05783,-0.08072,0.00504,-0.03235,-0.02991,0.00229,-0.00351,0.00717,0.00687,-0.0206,-0.02014,-0.01572,0.00458,-0.01144,-0.0441
6.907,0.00854,-0.06058,-0.08011,0.00473,-0.06287,-0.02914,-0.01404,-0.00702,0.00214,0.02045,-0.01663,0.05753,-0.04593,0.009,-0.00351,-0.0441
6.9075,0.00702,-0.0647,-0.07645,0.00366,-0.08743,-0.03067,-0.0148,-0.00763,-0.00015,0.0235,-0.01205,0.16342,-0.06607,-0.00443,0.00763,-0.0386
6.908,0.00687,-0.06805,-0.06897,0.0029,-0.09735,-0.03403,-0.01205,-0.0058,-0.00168,0.02243,-0.00656,0.25558,-0.06027,-0.03891,0.02014,-0.03525
6.9085,0.00717,-0.06775,-0.05875,0.00214,-0.0946,-0.03845,-0.01266,-0.0032,-0.00488,0.02121,-0.0029,0.27786,-0.03754,-0.07172,0.02335,-0.0351
6.909,0.00519,-0.06653,-0.04761,0.00137,-0.08743,-0.04105,-0.01602,-0.00275,-0.00992,0.01999,0.00015,0.21515,-0.01938,-0.07385,0.01175,-0.0351
6.9095,0.00183,-0.06393,-0.03799,0.00107,-0.07523,-0.04181,-0.01846,-0.00336,-0.01785,0.0174,0.01175,0.11963,-0.01846,-0.04471,-0.00397,-0.03418
6.91,-0.00015,-0.05966,-0.03143,-0.00015,-0.05936,-0.04395,-0.01968,-0.00244,-0.0325,0.01343,0.04791,0.05859,-0.03418,-0.01129,-0.01465,-0.03693
6.9105,0.00092,-0.05341,-0.02869,-0.00305,-0.04639,-0.04639,-0.01953,0.00107,-0.05341,0.00854,0.11902,0.04776,-0.05859,0.00793,-0.01755,-0.04456
6.911,0.00275,-0.04761,-0.02731,-0.00565,-0.04227,-0.04807,-0.02075,0.00336,-0.07065,0.00137,0.19379,0.04623,-0.07278,0.01266,-0.02167,-0.05112
6.9115,0.00244,-0.04364,-0.02579,-0.00977,-0.04395,-0.04944,-0.02151,0.00259,-0.07446,-0.00702,0.21225,0.01938,-0.05783,0.00946,-0.02747,-0.05142
6.912,0.00015,-0.04242,-0.02579,-0.01328,-0.04593,-0.05035,-0.02075,0.00137,-0.07309,-0.01663,0.15579,-0.03357,-0.02258,-0.00107,-0.03601,-0.04669
6.9125,-0.00198,-0.04227,-0.02792,-0.01144,-0.04333,-0.05188,-0.01862,0.00397,-0.08041,-0.02441,0.06668,-0.08224,0.00153,-0.0209,-0.04761,-0.04379
6.913,-0.00229,-0.04135,-0.03265,-0.00046,-0.03708,-0.05188,-0.01633,0.00595,-0.09552,-0.03433,0.00015,-0.08957,0.00076,-0.04318,-0.06332,-0.04379
6.9135,-0.00259,-0.0415,-0.03601,0.01251,-0.03006,-0.0499,-0.01572,0.00534,-0.10208,-0.04318,-0.02899,-0.04379,-0.00626,-0.05859,-0.07477,-0.04364
6.914,-0.00427,-0.04318,-0.03693,0.01755,-0.0267,-0.047,-0.01541,0.00275,-0.09247,-0.0502,-0.04044,0.01266,-0.00458,-0.0618,-0.07172,-0.03952
6.9145,-0.00626,-0.04822,-0.03571,0.0145,-0.02563,-0.04333,-0.01389,0.00198,-0.07141,-0.05157,-0.05493,0.02747,-0.00214,-0.05615,-0.04349,-0.03418
6.915,-0.00778,-0.05432,-0.03601,0.01663,-0.02457,-0.04288,-0.01144,0.00397,-0.04654,-0.0499,-0.07858,-0.00595,-0.01129,-0.04852,0.00107,-0.0322
6.9155,-0.00671,-0.05661,-0.03906,0.0293,-0.01892,-0.04486,-0.01068,0.00458,-0.02487,-0.05219,-0.10452,-0.0441,-0.02777,-0.04303,0.03876,-0.03616
6.916,-0.00397,-0.05569,-0.0444,0.04532,-0.00748,-0.04684,-0.01373,0.0029,-0.01068,-0.06042,-0.12375,-0.04517,-0.03601,-0.0386,0.03799,-0.03952
6.9165,-0.00198,-0.05402,-0.04852,0.05295,0.00198,-0.04608,-0.02136,0.00015,0.00031,-0.07324,-0.13245,-0.0061,-0.03403,-0.03326,-0.00122,-0.03937
6.917,-0.00107,-0.05249,-0.04654,0.05096,0.00824,-0.04425,-0.02747,-0.00229,0.01465,-0.08148,-0.13657,0.03738,-0.02914,-0.02731,-0.04379,-0.03708
6.9175,-0.00046,-0.0502,-0.04196,0.03494,0.01251,-0.04318,-0.02884,-0.00336,0.03326,-0.08347,-0.13885,0.04822,-0.02686,-0.02289,-0.0592,-0.03601
6.918,-0.00153,-0.04669,-0.03586,-0.00931,0.0177,-0.04333,-0.02518,-0.00183,0.04959,-0.08453,-0.1355,0.0177,-0.02686,-0.0206,-0.05051,-0.03723
6.9185,-0.00519,-0.04364,-0.03296,-0.09033,0.02457,-0.04486,-0.02151,0.00092,0.05829,-0.08911,-0.11734,-0.0267,-0.02472,-0.01923,-0.04349,-0.03937
6.919,-0.01129,-0.04211,-0.03281,-0.17517,0.02274,-0.04486,-0.02045,0.00336,0.0621,-0.09827,-0.0856,-0.056,-0.01755,-0.01572,-0.04562,-0.04044
6.9195,-0.01617,-0.03677,-0.0325,-0.20447,-0.00397,-0.04364,-0.0209,0.00351,0.06866,-0.10941,-0.05676,-0.06622,-0.00702,-0.00961,-0.04333,-0.04089
6.92,-0.01831,-0.03143,-0.03067,-0.14404,-0.06149,-0.04257,-0.02304,0.00198,0.07492,-0.11383,-0.04333,-0.07416,0.00473,-0.00351,-0.02777,-0.0415
6.9205,-0.01877,-0.02777,-0.03021,-0.01999,-0.12268,-0.04272,-0.02487,0.00046,0.07126,-0.10635,-0.03937,-0.08545,0.01251,0.00168,-0.00549,-0.04181
6.921,-0.01907,-0.02853,-0.03067,0.09659,-0.14435,-0.04333,-0.02853,-0.00046,0.05402,-0.0827,-0.03143,-0.08606,0.01312,0.00336,0.009,-0.04135
6.9215,-0.01678,-0.03113,-0.03052,0.14755,-0.11215,-0.04318,-0.03082,-0.00153,0.02838,-0.05081,-0.01831,-0.06302,0.00565,-0.00397,0.01251,-0.04013
6.922,-0.01465,-0.03265,-0.03189,0.12924,-0.05936,-0.03906,-0.02747,-0.0032,0.0029,-0.01709,-0.009,-0.01892,-0.00931,-0.02319,0.0058,-0.03906
6.9225,-0.01434,-0.03159,-0.03632,0.07889,-0.02518,-0.03433,-0.01678,-0.00549,-0.01678,0.01434,-0.00534,0.02777,-0.03281,-0.04074,-0.00702,-0.03967
6.923,-0.01755,-0.03006,-0.04196,0.02945,-0.01953,-0.03326,-0.00015,-0.00626,-0.03006,0.04547,-0.00381,0.06241,-0.05997,-0.03845,-0.01755,-0.04013
6.9235,-0.02167,-0.02914,-0.04883,-0.00793,-0.02533,-0.03952,0.02167,-0.00458,-0.03723,0.07462,-0.00259,0.07263,-0.07889,-0.01907,-0.00824,-0.03998
6.924,-0.02563,-0.03052,-0.05264,-0.03143,-0.0264,-0.04822,0.04272,-0.00229,-0.04105,0.09415,-0.00595,0.05646,-0.07568,-0.00046,0.02579,-0.03983
6.9245,-0.0264,-0.03174,-0.05219,-0.04044,-0.02411,-0.05356,0.05508,-0.00137,-0.04318,0.09888,-0.01358,0.0264,-0.05081,0.00504,0.05646,-0.04181
6.925,-0.02487,-0.03174,-0.04761,-0.03632,-0.0174,-0.056,0.05142,-0.00092,-0.04517,0.08698,-0.02182,0.0029,-0.02335,0.00183,0.04181,-0.04272
6.9255,-0.02426,-0.02884,-0.04318,-0.02533,-0.00702,-0.05844,0.01862,0.00046,-0.04364,0.06439,-0.02457,-0.00519,-0.00809,-0.00122,-0.01495,-0.04227
6.926,-0.0238,-0.02548,-0.03891,-0.0119,0.00381,-0.06042,-0.05035,0.0,-0.03693,0.04181,-0.01785,-0.0119,-0.00473,-0.00107,-0.05493,-0.03983
6.9265,-0.02243,-0.0238,-0.03387,-0.00244,0.00626,-0.05951,-0.1268,-0.00198,-0.02579,0.02594,-0.00626,-0.02716,-0.01022,0.00122,-0.0267,-0.03662
6.927,-0.01877,-0.02487,-0.0267,-0.00092,0.00031,-0.0563,-0.15228,-0.00549,-0.01556,0.02014,0.00397,-0.03586,-0.02899,0.00656,0.04089,-0.03448
6.9275,-0.01251,-0.02823,-0.01892,-0.00458,-0.00504,-0.05264,-0.10605,-0.00824,-0.01404,0.01831,0.00809,-0.02182,-0.06088,0.01572,0.07813,-0.03387
6.928,-0.00687,-0.03159,-0.01297,-0.0058,-0.00641,-0.04974,-0.03754,-0.00961,-0.02197,0.01297,0.00656,0.00061,-0.08224,0.02411,0.06775,-0.03616
6.9285,-0.00214,-0.0354,-0.01068,-0.00198,-0.00687,-0.04807,-0.00732,-0.00931,-0.0322,0.00305,0.00504,0.009,-0.07187,0.02502,0.05249,-0.03891
6.929,0.00305,-0.03799,-0.01038,0.00275,-0.01556,-0.047,-0.01999,-0.00656,-0.03738,-0.00824,0.00854,0.00473,-0.04608,0.00839,0.0647,-0.04211
6.9295,0.00946,-0.04028,-0.01053,0.00656,-0.03769,-0.04745,-0.03845,-0.00168,-0.03494,-0.01495,0.0177,0.01053,-0.03235,-0.02747,0.08728,-0.0441
6.93,0.01266,-0.04196,-0.01007,0.00793,-0.06195,-0.0473,-0.03922,0.00366,-0.02853,-0.01907,0.03494,0.0354,-0.03448,-0.06516,0.08469,-0.04562
6.9305,0.0087,-0.04379,-0.01129,0.00916,-0.07462,-0.04715,-0.03052,0.00656,-0.02457,-0.02411,0.05661,0.05798,-0.03693,-0.07767,0.04883,-0.04807
6.931,0.00092,-0.04517,-0.01526,0.01251,-0.07324,-0.04532,-0.02518,0.00565,-0.02411,-0.02899,0.06683,0.04501,-0.03281,-0.06256,0.01556,-0.04761
6.9315,-0.00366,-0.04684,-0.01862,0.01709,-0.06149,-0.04166,-0.02518,0.00107,-0.02518,-0.03189,0.05188,-0.00198,-0.02777,-0.03983,0.02014,-0.04501
6.932,-0.00275,-0.05005,-0.02167,0.01953,-0.04318,-0.03784,-0.02289,-0.00671,-0.02823,-0.03113,0.01801,-0.04318,-0.02701,-0.02594,0.05783,-0.04089
6.9325,-0.00046,-0.05386,-0.02243,0.01312,-0.01923,-0.03616,-0.01022,-0.01709,-0.03326,-0.02625,-0.0119,-0.04532,-0.02762,-0.01999,0.09674,-0.03891
6.933,-0.00137,-0.05676,-0.02243,-0.00549,-0.00259,-0.03632,0.01022,-0.02869,-0.03967,-0.02472,-0.02914,-0.01877,-0.02686,-0.01663,0.12253,-0.04013
6.9335,-0.00534,-0.05737,-0.02182,-0.03082,-0.00153,-0.03738,0.02289,-0.03723,-0.04608,-0.02243,-0.03922,0.01007,-0.02701,-0.01633,0.12924,-0.04181
6.934,-0.01038,-0.05646,-0.01907,-0.05157,-0.01373,-0.04166,0.01556,-0.03693,-0.04898,-0.02106,-0.04532,0.02823,-0.02731,-0.01816,0.09979,-0.04105
6.9345,-0.01389,-0.05646,-0.01907,-0.06363,-0.03128,-0.05112,-0.00336,-0.0267,-0.04303,-0.01572,-0.04669,0.03372,-0.02777,-0.01846,0.02945,-0.03876
6.935,-0.01663,-0.05524,-0.02213,-0.06882,-0.05173,-0.06104,-0.0148,-0.01236,-0.03067,-0.00916,-0.04211,0.01999,-0.02792,-0.01617,-0.04608,-0.03723
6.9355,-0.01923,-0.05249,-0.02701,-0.06775,-0.06882,-0.06607,-0.01144,-0.00336,-0.02014,-0.00854,-0.03601,-0.0174,-0.02777,-0.0174,-0.07736,-0.03769
6.936,-0.02502,-0.04761,-0.03448,-0.06607,-0.06943,-0.06592,0.00015,0.00183,-0.01724,-0.01495,-0.03113,-0.06668,-0.02869,-0.02045,-0.04929,-0.04044
6.9365,-0.03311,-0.04318,-0.0415,-0.07965,-0.04929,-0.06439,0.01785,0.00931,-0.01923,-0.02426,-0.02777,-0.09644,-0.03128,-0.0206,0.00092,-0.0441
6.937,-0.04044,-0.04135,-0.04822,-0.11307,-0.02228,-0.06363,0.03326,0.01877,-0.02014,-0.03098,-0.02472,-0.08347,-0.03525,-0.01572,0.02594,-0.05096
6.9375,-0.03952,-0.0412,-0.05234,-0.14114,-0.00717,-0.06393,0.03479,0.02487,-0.01846,-0.0354,-0.02106,-0.03876,-0.03799,-0.01175,0.0116,-0.05905
6.938,-0.0293,-0.0415,-0.05539,-0.13718,-0.00565,-0.06256,0.01251,0.02747,-0.01526,-0.03677,-0.01495,-0.00092,-0.03891,-0.01236,-0.02151,-0.06424
6.9385,-0.01495,-0.04074,-0.05844,-0.10086,-0.00778,-0.05905,-0.03433,0.02808,-0.0116,-0.03479,-0.0058,0.01389,-0.03601,-0.01617,-0.04196,-0.06287
6.939,-0.0032,-0.03952,-0.05997,-0.06012,-0.00809,-0.05569,-0.08896,0.02457,-0.00885,-0.03174,0.00519,0.02426,-0.03082,-0.0174,-0.03571,-0.05386
6.9395,0.00534,-0.03708,-0.05966,-0.0386,-0.01404,-0.05249,-0.12085,0.01892,-0.00626,-0.03174,0.01266,0.05142,-0.02487,-0.01526,-0.01434,-0.04303
6.94,0.01633,-0.03235,-0.05402,-0.04318,-0.03036,-0.04974,-0.10971,0.01328,-0.00519,-0.03433,0.01572,0.08057,-0.01999,-0.01297,0.00076,-0.03586
6.9405,0.03006,-0.02823,-0.04837,-0.06927,-0.05173,-0.0499,-0.07095,0.01175,-0.0061,-0.03693,0.01648,0.07385,-0.01953,-0.01343,0.00198,-0.03296
6.941,0.04364,-0.02457,-0.04501,-0.10468,-0.07095,-0.05325,-0.03754,0.01312,-0.00763,-0.03632,0.01694,0.02167,-0.0264,-0.01724,-0.00366,-0.03357
6.9415,0.04959,-0.02182,-0.04456,-0.13168,-0.08347,-0.05585,-0.0209,0.01526,-0.00793,-0.0354,0.01648,-0.04166,-0.03708,-0.02243,-0.01083,-0.0354
6.942,0.04425,-0.02563,-0.04257,-0.13519,-0.08255,-0.05524,-0.00137,0.01495,-0.00595,-0.03571,0.01373,-0.07492,-0.0441,-0.02533,-0.01846,-0.03876
6.9425,0.03006,-0.03494,-0.03769,-0.10101,-0.06714,-0.05234,0.03876,0.01572,-0.00305,-0.03922,0.0058,-0.07385,-0.04257,-0.02457,-0.02655,-0.04013
6.943,0.01617,-0.04608,-0.03128,-0.01404,-0.04578,-0.04883,0.08667,0.01495,-0.00214,-0.04425,-0.00534,-0.07339,-0.03632,-0.02197,-0.03159,-0.0415
6.9435,0.00809,-0.05295,-0.0264,0.11078,-0.02853,-0.04883,0.1062,0.01328,-0.01022,-0.04959,-0.01572,-0.1033,-0.03311,-0.01862,-0.03418,-0.04257
6.944,0.0058,-0.05341,-0.02258,0.20645,-0.01953,-0.05127,0.07996,0.00992,-0.02731,-0.05173,-0.01953,-0.15228,-0.03448,-0.01633,-0.0351,-0.04395
6.9445,0.00565,-0.04868,-0.02106,0.20645,-0.01312,-0.05402,0.03632,0.00717,-0.03937,-0.04745,-0.0174,-0.18661,-0.03693,-0.01511,-0.0386,-0.04593
6.945,0.0058,-0.04211,-0.02548,0.12726,-0.00656,-0.0531,0.01129,0.00626,-0.03525,-0.04028,-0.01312,-0.1886,-0.03693,-0.01328,-0.03906,-0.04654
6.9455,0.0058,-0.03616,-0.03235,0.0528,0.00168,-0.05066,0.01434,0.0058,-0.0174,-0.03189,-0.00961,-0.17242,-0.0351,-0.01144,-0.03128,-0.0444
6.946,0.00565,-0.03265,-0.03891,0.03403,0.00885,-0.04837,0.02319,0.00473,0.00076,-0.02563,-0.00778,-0.14481,-0.03479,-0.01099,-0.01495,-0.04028
6.9465,0.00366,-0.03189,-0.04333,0.04883,0.01297,-0.04868,0.01938,0.00229,0.01419,-0.01938,-0.00793,-0.09857,-0.03525,-0.0116,0.00351,-0.03769
6.947,-0.00092,-0.03372,-0.04425,0.06622,0.01373,-0.05219,0.00671,-0.00076,0.02548,-0.01785,-0.00778,-0.03021,-0.03586,-0.01129,0.02518,-0.03723
6.9475,-0.00839,-0.03616,-0.04272,0.07843,0.00687,-0.05661,-0.00092,-0.00427,0.03342,-0.01892,-0.00687,0.056,-0.0351,-0.01068,0.05569,-0.03799
6.948,-0.01755,-0.03708,-0.04028,0.0769,-0.00656,-0.05936,-0.00153,-0.0061,0.02975,-0.01968,-0.00656,0.17273,-0.03326,-0.01144,0.07782,-0.03799
6.9485,-0.02502,-0.03403,-0.03708,0.05341,-0.02914,-0.05875,-0.00092,-0.0061,0.01068,-0.01846,-0.0058,0.34164,-0.02991,-0.01373,0.07004,-0.0383
6.949,-0.02991,-0.02762,-0.03387,0.02365,-0.05219,-0.05768,-0.00534,-0.00565,-0.01541,-0.01465,-0.00565,0.52124,-0.02579,-0.01526,0.03952,-0.03891
6.9495,-0.03189,-0.02182,-0.03036,0.01801,-0.06775,-0.056,-0.01755,-0.00687,-0.0386,-0.01007,-0.00992,0.58441,-0.0206,-0.01541,0.01221,-0.03891
6.95,-0.03098,-0.01968,-0.02823,0.04105,-0.07416,-0.05692,-0.03571,-0.00763,-0.05447,-0.00702,-0.01663,0.44418,-0.01617,-0.01572,0.0058,-0.03967
6.9505,-0.0264,-0.02243,-0.02899,0.065,-0.07492,-0.06088,-0.05127,-0.00793,-0.065,-0.00626,-0.02106,0.17822,-0.01419,-0.0174,0.00946,-0.04089
6.951,-0.0206,-0.02747,-0.02991,0.06897,-0.06775,-0.06424,-0.05341,-0.00702,-0.07111,-0.00732,-0.02197,-0.03983,-0.01617,-0.01862,0.01236,-0.04318
6.9515,-0.01709,-0.03204,-0.03082,0.06058,-0.05234,-0.06424,-0.04181,-0.00534,-0.06714,-0.0061,-0.02182,-0.11353,-0.02686,-0.0177,0.01343,-0.04227
6.952,-0.01648,-0.03525,-0.03159,0.05142,-0.03174,-0.06271,-0.0293,-0.00366,-0.05402,-0.00519,-0.02365,-0.08194,-0.04059,-0.01587,0.02029,-0.04013
6.9525,-0.01816,-0.03784,-0.03098,0.03326,-0.0177,-0.06088,-0.02975,-0.00305,-0.0383,-0.00671,-0.0264,-0.03464,-0.05112,-0.01419,0.02884,-0.03983
6.953,-0.01862,-0.03876,-0.03006,-0.00122,-0.0116,-0.05936,-0.04303,-0.00412,-0.02792,-0.00931,-0.0322,-0.01831,-0.05585,-0.01114,0.03296,-0.04196
6.9535,-0.01465,-0.03937,-0.02808,-0.03754,-0.00946,-0.05707,-0.0589,-0.00519,-0.0235,-0.01556,-0.03677,-0.02686,-0.05966,-0.00961,0.03021,-0.04272
6.954,-0.00565,-0.03845,-0.02563,-0.05997,-0.00854,-0.05692,-0.06271,-0.00504,-0.01877,-0.02258,-0.03632,-0.03464,-0.06027,-0.00885,0.0238,-0.04303
6.9545,0.00671,-0.03708,-0.02304,-0.07263,-0.01312,-0.05859,-0.04654,-0.00504,-0.00885,-0.02716,-0.03296,-0.03174,-0.04379,-0.0087,0.01938,-0.04196
6.955,0.01587,-0.03677,-0.02289,-0.07996,-0.03098,-0.0592,-0.02136,-0.00702,0.0087,-0.03021,-0.03113,-0.02411,-0.00854,-0.009,0.01328,-0.04227
6.9555,0.01938,-0.03922,-0.02655,-0.06683,-0.05981,-0.05844,-0.00366,-0.01068,0.02838,-0.03525,-0.03174,-0.02045,0.02518,-0.01007,-0.00137,-0.04364
6.956,0.01831,-0.0441,-0.03204,-0.01968,-0.0824,-0.056,-0.00061,-0.01236,0.03632,-0.04028,-0.03479,-0.02243,0.03006,-0.01373,-0.02869,-0.0441
6.9565,0.01556,-0.04745,-0.03387,0.04074,-0.0827,-0.05112,-0.00534,-0.01221,0.02777,-0.04379,-0.04303,-0.02762,-0.00229,-0.02228,-0.06104,-0.04364
6.957,0.01358,-0.0473,-0.0322,0.06851,-0.06439,-0.04623,-0.00977,-0.01068,0.00916,-0.04745,-0.05722,-0.03128,-0.05203,-0.0383,-0.08224,-0.04364
6.9575,0.01373,-0.04761,-0.02991,0.03754,-0.04425,-0.04364,-0.01129,-0.01083,-0.00824,-0.05478,-0.06699,-0.02594,-0.0827,-0.05554,-0.08286,-0.04227
6.958,0.01755,-0.04944,-0.02914,-0.02975,-0.03128,-0.04349,-0.01297,-0.01389,-0.01953,-0.06149,-0.06226,0.00015,-0.07919,-0.06088,-0.06561,-0.04059
6.9585,0.02502,-0.05417,-0.03235,-0.08606,-0.02258,-0.04517,-0.01694,-0.01709,-0.02594,-0.06317,-0.04333,0.03891,-0.06439,-0.05432,-0.05447,-0.03937
6.959,0.02899,-0.06195,-0.03418,-0.10483,-0.01343,-0.04517,-0.02518,-0.01831,-0.02563,-0.05814,-0.02136,0.05402,-0.06546,-0.04944,-0.06882,-0.04044
6.9595,0.02548,-0.07431,-0.0325,-0.09583,-0.00519,-0.0444,-0.03479,-0.01801,-0.01923,-0.05035,-0.00534,0.00854,-0.07614,-0.0528,-0.09689,-0.04196
6.96,0.0148,-0.08698,-0.02975,-0.07095,-0.00092,-0.04364,-0.03937,-0.01587,-0.01022,-0.04135,0.00519,-0.07935,-0.07599,-0.05249,-0.09064,-0.04349
6.9605,0.00076,-0.09277,-0.0293,-0.03082,-0.00244,-0.04349,-0.03372,-0.01633,-0.00046,-0.03128,0.0116,-0.14954,-0.0621,-0.03983,-0.01678,-0.04425
6.961,-0.01144,-0.08835,-0.03342,0.00671,-0.00916,-0.04532,-0.02182,-0.01801,0.00717,-0.01785,0.01633,-0.159,-0.04776,-0.02213,0.08957,-0.04501
6.9615,-0.02121,-0.07538,-0.03738,0.00519,-0.02029,-0.04639,-0.01419,-0.01923,0.00824,-0.00229,0.01785,-0.11581,-0.03723,-0.01266,0.14694,-0.04425
6.962,-0.02823,-0.06104,-0.03876,-0.03998,-0.03586,-0.04807,-0.01495,-0.01831,0.0,0.0119,0.01602,-0.04303,-0.02335,-0.01007,0.11948,-0.04395
6.9625,-0.0322,-0.04623,-0.03784,-0.08011,-0.04837,-0.05081,-0.01923,-0.01495,-0.01205,0.02197,0.0116,0.03708,-0.00473,-0.00427,0.0563,-0.04486
