time,RectFemL,VastusMedL,VastusLatL,TibAntL,HamMedL,HamLatL,GastroMedL,GastroLatL,RectFemR,VastusMedR,VastusLatR,TibAntR,HamMedR,HamLatR,GastroMedR,GastroLatR
2.7,0.00153,-0.04898,-0.0264,-0.10406,-0.05035,-0.04211,-0.01511,-0.02625,-0.01251,-0.02396,0.01205,-0.03922,-0.0267,-0.01114,0.00595,-0.03723
2.7005,-0.00107,-0.05569,-0.03159,-0.00748,-0.04425,-0.03998,-0.01266,-0.00137,-0.03098,-0.01923,0.0116,-0.05829,-0.02502,-0.00931,0.00519,-0.03616
2.701,-0.00153,-0.06592,-0.0412,0.11047,-0.04211,-0.03769,-0.01312,0.01816,-0.04608,-0.01572,0.01068,-0.05554,-0.02472,-0.00946,0.00397,-0.03845
2.7015,-0.00015,-0.07584,-0.04944,0.22476,-0.03677,-0.03571,-0.01724,0.02823,-0.04684,-0.009,0.01022,-0.03662,-0.02563,-0.01038,0.00153,-0.04028
2.702,-0.00122,-0.08102,-0.05219,0.28015,-0.02747,-0.03403,-0.02136,0.03616,-0.03433,-0.00183,0.00778,-0.01816,-0.02609,-0.01022,-0.00168,-0.04166
2.7025,-0.00656,-0.0798,-0.05005,0.23651,-0.02151,-0.03265,-0.02228,0.04166,-0.01617,0.00397,-0.00153,-0.01419,-0.02609,-0.00977,-0.00366,-0.04257
2.703,-0.01251,-0.07416,-0.047,0.12589,-0.01953,-0.03464,-0.01968,0.03555,-0.0029,0.00717,-0.01602,-0.02472,-0.02777,-0.00824,-0.00565,-0.0415
2.7035,-0.01617,-0.06912,-0.04456,0.03906,-0.0206,-0.03769,-0.01648,0.0174,0.0032,0.00549,-0.02808,-0.03952,-0.02899,-0.00916,-0.00778,-0.04013
2.704,-0.01755,-0.0621,-0.0415,0.02701,-0.02228,-0.04181,-0.01328,0.00107,0.00366,0.00183,-0.02884,-0.04929,-0.02884,-0.01389,-0.01099,-0.03998
2.7045,-0.01709,-0.05219,-0.04074,0.05554,-0.02411,-0.04379,-0.01068,-0.00168,0.00092,-0.00198,-0.02151,-0.04974,-0.0267,-0.02029,-0.01724,-0.04089
2.705,-0.01709,-0.04196,-0.04074,0.06378,-0.0267,-0.04501,-0.00931,0.00259,-0.00305,-0.00305,-0.01572,-0.04196,-0.02502,-0.0267,-0.02625,-0.04211
2.7055,-0.01694,-0.03708,-0.04257,0.03891,-0.02823,-0.04517,-0.01343,0.00534,-0.00839,-0.00214,-0.01617,-0.02258,-0.02533,-0.03235,-0.03296,-0.0415
2.706,-0.01526,-0.03494,-0.04288,0.00778,-0.02731,-0.04761,-0.02533,0.00763,-0.01511,-0.00305,-0.0206,0.00992,-0.02533,-0.0383,-0.0322,-0.04196
2.7065,-0.0119,-0.02991,-0.03876,-0.00687,-0.02533,-0.04929,-0.04257,0.01129,-0.02289,-0.00488,-0.0235,0.03983,-0.02472,-0.03891,-0.01846,-0.04318
2.707,-0.00748,-0.02304,-0.03036,-0.0061,-0.02396,-0.04745,-0.05661,0.00763,-0.02594,-0.0058,-0.02869,0.04456,-0.02151,-0.02945,0.00031,-0.04456
2.7075,-0.00381,-0.01709,-0.02441,-0.00122,-0.02167,-0.04608,-0.05707,-0.01755,-0.02258,-0.00839,-0.03586,0.02258,-0.01953,-0.0148,0.01053,-0.047
2.708,-0.00366,-0.01556,-0.0235,-0.00336,-0.02075,-0.04669,-0.04395,-0.06393,-0.01495,-0.01419,-0.04211,-0.00336,-0.01816,-0.00458,0.00443,-0.04837
2.7085,-0.00549,-0.01755,-0.02777,-0.01297,-0.01999,-0.04929,-0.02823,-0.11093,-0.00717,-0.02197,-0.04135,-0.01144,-0.0177,-0.00305,-0.00778,-0.04562
2.709,-0.00671,-0.02304,-0.02991,-0.01923,-0.01892,-0.05203,-0.01831,-0.12634,-0.00259,-0.02808,-0.03418,-0.00381,-0.01785,-0.00519,-0.00671,-0.04135
2.7095,-0.00458,-0.02945,-0.02945,-0.00534,-0.01801,-0.05142,-0.01328,-0.08484,-0.00092,-0.03036,-0.02716,0.00427,-0.0177,-0.00748,0.01266,-0.03891
2.71,-0.00061,-0.03693,-0.02609,0.02655,-0.01877,-0.04913,-0.00641,-0.00732,-0.00198,-0.0322,-0.02457,0.00626,-0.01785,-0.00961,0.03479,-0.03906
2.7105,0.00107,-0.04272,-0.02029,0.0589,-0.02136,-0.04944,0.00885,0.0502,-0.00473,-0.03296,-0.02365,0.00092,-0.01801,-0.0148,0.04089,-0.04013
2.711,0.00107,-0.04471,-0.01465,0.07538,-0.02441,-0.05157,0.03525,0.06363,-0.00702,-0.03326,-0.02121,-0.00931,-0.01907,-0.02838,0.02701,-0.04013
2.7115,-0.00046,-0.0444,-0.01007,0.07507,-0.02655,-0.05173,0.06897,0.05768,-0.00885,-0.03296,-0.01602,-0.02228,-0.02167,-0.0528,0.01312,-0.04089
2.712,-0.0032,-0.04395,-0.00916,0.06073,-0.02563,-0.05035,0.08911,0.05936,-0.01144,-0.03174,-0.01282,-0.03448,-0.02396,-0.07523,0.00778,-0.04318
2.7125,-0.00641,-0.03967,-0.01068,0.0296,-0.02411,-0.05188,0.07309,0.0592,-0.01587,-0.03143,-0.01251,-0.03784,-0.02533,-0.07813,0.00916,-0.04456
2.713,-0.0061,-0.03098,-0.01572,-0.0206,-0.02121,-0.05371,0.02533,0.04227,-0.02914,-0.02838,-0.01282,-0.03372,-0.02716,-0.05875,0.01129,-0.04257
2.7135,-0.00381,-0.0209,-0.02319,-0.08118,-0.01694,-0.05661,-0.02228,0.01694,-0.05524,-0.02365,-0.0116,-0.03738,-0.02869,-0.03586,0.0119,-0.03998
2.714,-0.00259,-0.01709,-0.0325,-0.1358,-0.0119,-0.05661,-0.04242,0.0,-0.08392,-0.01984,-0.00626,-0.05554,-0.02502,-0.02533,0.0116,-0.03876
2.7145,-0.00473,-0.02045,-0.03922,-0.16968,-0.00656,-0.05432,-0.04044,-0.00076,-0.09537,-0.02045,0.0061,-0.0589,-0.01541,-0.02594,0.0119,-0.04105
2.715,-0.00824,-0.02487,-0.04288,-0.1796,-0.00076,-0.0502,-0.03372,0.00641,-0.08392,-0.0209,0.02045,-0.01526,-0.00412,-0.02502,0.01144,-0.04333
2.7155,-0.01053,-0.02655,-0.04013,-0.16785,0.00275,-0.04669,-0.03174,0.01541,-0.06271,-0.01923,0.02899,0.05096,0.00351,-0.01755,0.01007,-0.04349
2.716,-0.01144,-0.02426,-0.0383,-0.13977,0.00488,-0.04227,-0.03006,0.01923,-0.04364,-0.01556,0.02457,0.0769,0.00916,-0.01068,0.01022,-0.04181
2.7165,-0.01022,-0.02075,-0.03677,-0.1001,0.00366,-0.03937,-0.02335,0.01404,-0.02502,-0.01312,0.01297,0.04547,0.01648,-0.01099,0.00946,-0.04013
2.717,-0.00793,-0.01724,-0.03784,-0.05798,-0.0058,-0.03738,-0.01648,0.00153,-0.00778,-0.01266,0.00061,0.00504,0.01694,-0.01556,0.00763,-0.04028
2.7175,-0.00595,-0.01587,-0.03845,-0.02502,-0.02502,-0.03754,-0.01648,-0.009,0.00504,-0.01419,-0.01389,-0.00549,-0.00565,-0.01984,0.00366,-0.04074
2.718,-0.00397,-0.01801,-0.03815,-0.01144,-0.04898,-0.03922,-0.0235,-0.0116,0.01038,-0.01801,-0.02914,0.00412,-0.05539,-0.0206,0.00076,-0.04333
2.7185,-0.00046,-0.02365,-0.03708,-0.01694,-0.06439,-0.04211,-0.03052,-0.01038,0.01175,-0.02441,-0.04318,0.01053,-0.10284,-0.01968,0.00183,-0.04578
2.719,0.0032,-0.03128,-0.03387,-0.03036,-0.06332,-0.04349,-0.03677,-0.01007,0.01419,-0.0325,-0.05478,0.01068,-0.11414,-0.01968,0.00244,-0.04608
2.7195,0.00626,-0.03677,-0.0322,-0.03372,-0.04623,-0.0415,-0.04929,-0.01022,0.01572,-0.0354,-0.06317,0.0119,-0.08774,-0.02029,0.00397,-0.0444
2.72,0.00641,-0.03983,-0.0322,-0.0145,-0.02411,-0.03647,-0.06638,-0.01022,0.01404,-0.02975,-0.06042,0.01404,-0.05188,-0.02075,0.00336,-0.04349
2.7205,0.00397,-0.04196,-0.03281,0.02151,-0.00626,-0.03372,-0.06897,-0.01389,0.00778,-0.01816,-0.04669,0.01083,-0.02914,-0.01923,0.0032,-0.04333
2.721,0.00244,-0.04349,-0.03235,0.05402,0.00458,-0.03571,-0.04883,-0.02075,0.0029,-0.00854,-0.0293,-0.00061,-0.02151,-0.0174,0.00656,-0.04349
2.7215,0.00214,-0.04364,-0.03281,0.06607,0.00565,-0.03922,-0.02289,-0.02731,0.00183,-0.00519,-0.01831,-0.01724,-0.01846,-0.01602,0.01007,-0.04135
2.722,0.00214,-0.04257,-0.03433,0.0563,-0.00107,-0.04196,-0.00854,-0.02975,0.00336,-0.00702,-0.01404,-0.04318,-0.01572,-0.01694,0.0116,-0.03952
2.7225,0.00122,-0.03998,-0.03769,0.03723,-0.01587,-0.04288,-0.00137,-0.0293,0.00702,-0.01144,-0.01053,-0.07996,-0.01587,-0.01724,0.00961,-0.03845
2.723,-0.00031,-0.04028,-0.03998,0.0235,-0.04059,-0.04593,0.00992,-0.02899,0.01175,-0.01312,-0.00458,-0.11444,-0.0209,-0.01511,0.00793,-0.04013
2.7235,-0.00168,-0.04074,-0.04089,0.01938,-0.07156,-0.05112,0.02075,-0.02747,0.01526,-0.01297,0.00092,-0.10696,-0.03479,-0.01144,0.00809,-0.04303
2.724,-0.0029,-0.04181,-0.04074,0.02014,-0.08881,-0.05676,0.01984,-0.02365,0.01358,-0.00992,0.00183,-0.02228,-0.05341,-0.00854,0.0087,-0.04532
2.7245,-0.00214,-0.04425,-0.04135,0.01877,-0.06989,-0.05676,0.00793,-0.01816,0.00504,-0.00702,-0.00305,0.10742,-0.06393,-0.00809,0.00916,-0.04501
2.725,-0.00214,-0.04913,-0.04089,0.01495,-0.02274,-0.05173,-0.00275,-0.01236,-0.00656,-0.00595,-0.01053,0.18784,-0.05844,-0.01022,0.01022,-0.0441
2.7255,-0.00351,-0.05524,-0.04089,0.01266,0.02289,-0.04593,-0.00809,-0.00702,-0.01709,-0.0058,-0.01648,0.15701,-0.04852,-0.01358,0.01083,-0.0412
2.726,-0.00534,-0.06012,-0.0415,0.01373,0.0412,-0.04486,-0.00961,-0.00198,-0.02228,-0.00427,-0.01999,0.05798,-0.05173,-0.01633,0.01022,-0.0383
2.7265,-0.00397,-0.06104,-0.04227,0.01801,0.02899,-0.04562,-0.01236,0.00137,-0.02457,-0.00076,-0.02075,-0.02365,-0.06561,-0.01694,0.00748,-0.03647
2.727,0.00229,-0.0589,-0.04456,0.02518,-0.00931,-0.04791,-0.01328,0.00183,-0.02655,0.00107,-0.01266,-0.05524,-0.07339,-0.01678,0.00763,-0.0383
2.7275,0.00854,-0.05646,-0.04593,0.03143,-0.07034,-0.05127,-0.0116,0.0032,-0.02762,0.00412,0.01587,-0.06348,-0.06088,-0.01801,0.01144,-0.04028
2.728,0.00931,-0.05585,-0.04501,0.02563,-0.13809,-0.05463,-0.00732,0.00626,-0.02411,0.00504,0.05844,-0.07355,-0.03876,-0.01984,0.01328,-0.04227
2.7285,0.00336,-0.05798,-0.04333,0.00565,-0.17929,-0.05707,-0.00473,0.01007,-0.01633,0.00198,0.08347,-0.08148,-0.02533,-0.01877,0.01343,-0.04333
2.729,-0.00351,-0.06042,-0.03922,-0.01678,-0.16861,-0.05722,-0.00427,0.01251,-0.0087,-0.00458,0.06287,-0.07843,-0.02502,-0.01587,0.01205,-0.04471
2.7295,-0.00748,-0.06165,-0.03448,-0.02548,-0.12085,-0.05585,-0.00473,0.01221,-0.00488,-0.0119,0.00717,-0.06912,-0.02853,-0.0145,0.01144,-0.04456
2.73,-0.00916,-0.06119,-0.03006,-0.02029,-0.0769,-0.05768,-0.00412,0.01022,-0.00626,-0.01816,-0.04745,-0.06027,-0.03021,-0.0177,0.00992,-0.04379
2.7305,-0.01007,-0.05951,-0.02869,-0.01129,-0.0647,-0.05875,-0.00092,0.00626,-0.01083,-0.02594,-0.08011,-0.05447,-0.03067,-0.02106,0.0087,-0.04349
2.731,-0.01068,-0.05676,-0.02838,-0.00534,-0.07416,-0.05524,0.00153,-0.00275,-0.01877,-0.04013,-0.09048,-0.04852,-0.03036,-0.02136,0.0119,-0.04349
2.7315,-0.00931,-0.05325,-0.02991,0.00259,-0.0769,-0.04654,0.00092,-0.01755,-0.02609,-0.05844,-0.09018,-0.03937,-0.02747,-0.02075,0.01816,-0.04257
2.732,-0.00961,-0.04868,-0.0293,0.01343,-0.06332,-0.03952,-0.00214,-0.03891,-0.03265,-0.06805,-0.08606,-0.02258,-0.02411,-0.02167,0.02396,-0.04059
2.7325,-0.01709,-0.04044,-0.02808,0.02136,-0.04791,-0.03891,-0.00885,-0.06287,-0.03799,-0.06516,-0.07996,0.0058,-0.02243,-0.02106,0.02487,-0.03998
2.733,-0.02914,-0.03159,-0.02792,0.01785,-0.04257,-0.04257,-0.01892,-0.07904,-0.04059,-0.05798,-0.07187,0.03937,-0.02335,-0.0174,0.02289,-0.04028
2.7335,-0.0386,-0.02792,-0.03006,0.00153,-0.04181,-0.04425,-0.03342,-0.07813,-0.04028,-0.05569,-0.06195,0.06805,-0.02472,-0.01205,0.0206,-0.04181
2.734,-0.04044,-0.03128,-0.03204,-0.01968,-0.03769,-0.04395,-0.04852,-0.05981,-0.0351,-0.05478,-0.05569,0.08209,-0.02487,-0.0087,0.01526,-0.04135
2.7345,-0.03525,-0.03571,-0.03555,-0.03433,-0.02533,-0.04501,-0.05966,-0.03357,-0.02396,-0.04471,-0.05478,0.08408,-0.0264,-0.00946,0.00412,-0.03967
2.735,-0.02747,-0.03647,-0.04044,-0.03693,-0.01282,-0.04654,-0.05798,-0.00732,-0.00793,-0.02518,-0.05707,0.07721,-0.0296,-0.01236,-0.01419,-0.04044
2.7355,-0.01831,-0.0351,-0.04242,-0.03113,-0.00183,-0.04562,-0.03845,0.02075,0.00946,-0.00305,-0.05447,0.06729,-0.02777,-0.0148,-0.03571,-0.04227
2.736,-0.01053,-0.03571,-0.04211,-0.02411,0.00885,-0.04349,-0.01007,0.04532,0.02487,0.01328,-0.04242,0.05997,-0.01968,-0.01541,-0.06073,-0.04364
2.7365,-0.00641,-0.03937,-0.0383,-0.01663,0.01389,-0.04166,0.00778,0.0473,0.03418,0.02106,-0.02853,0.06058,-0.01144,-0.01572,-0.08484,-0.04349
2.737,-0.00778,-0.04395,-0.03433,-0.00427,0.00351,-0.04333,0.00168,0.01968,0.03204,0.02457,-0.01923,0.06699,-0.01022,-0.01831,-0.10132,-0.0415
2.7375,-0.0116,-0.05066,-0.03311,0.0119,-0.02182,-0.04364,-0.02289,-0.01572,0.01694,0.02304,-0.01404,0.07278,-0.01465,-0.02182,-0.10529,-0.04013
2.738,-0.01419,-0.05768,-0.03525,0.01862,-0.05219,-0.0444,-0.04501,-0.03891,-0.00412,0.01892,-0.00687,0.07095,-0.02609,-0.02411,-0.09598,-0.04105
2.7385,-0.01175,-0.06409,-0.03937,0.0061,-0.0769,-0.04501,-0.04578,-0.06165,-0.01968,0.01343,0.00061,0.05325,-0.04974,-0.02304,-0.07904,-0.04303
2.739,-0.00565,-0.06607,-0.04135,-0.02213,-0.08514,-0.04562,-0.02625,-0.09537,-0.02808,0.00839,0.00458,0.00961,-0.08484,-0.02029,-0.06226,-0.04425
2.7395,-0.00015,-0.06256,-0.04059,-0.04669,-0.07645,-0.04684,-0.00717,-0.10941,-0.03067,0.00427,0.00504,-0.05859,-0.10223,-0.01846,-0.05295,-0.04486
2.74,0.00122,-0.05478,-0.0386,-0.05325,-0.0563,-0.04623,-0.0032,-0.05829,-0.03067,-0.00046,0.00549,-0.12009,-0.08026,-0.01724,-0.03784,-0.0444
2.7405,-0.00015,-0.047,-0.03815,-0.04532,-0.03632,-0.04364,-0.00427,0.05203,-0.02777,-0.00839,0.00626,-0.13,-0.03799,-0.01419,0.01404,-0.04395
2.741,-0.00092,-0.04288,-0.03662,-0.0354,-0.02136,-0.04242,0.00443,0.14847,-0.02457,-0.02045,0.00641,-0.08362,-0.01358,-0.01068,0.09781,-0.04257
2.7415,0.0,-0.04288,-0.03525,-0.02869,-0.00946,-0.04333,0.01907,0.16815,-0.02441,-0.03845,0.00778,-0.02533,-0.02075,-0.01099,0.16876,-0.04196
2.742,0.0,-0.04425,-0.03586,-0.02029,-0.00092,-0.04379,0.02472,0.12558,-0.02838,-0.05707,0.01022,0.0,-0.03906,-0.01556,0.19104,-0.04181
2.7425,-0.00076,-0.04318,-0.0386,-0.0087,0.00534,-0.04288,0.01495,0.08072,-0.03311,-0.0679,0.0119,-0.00809,-0.04776,-0.01724,0.17929,-0.04303
2.743,-0.00061,-0.03799,-0.04303,-0.00046,0.00839,-0.04181,-0.00183,0.06424,-0.03632,-0.06409,0.00916,-0.01907,-0.04868,-0.01465,0.16342,-0.04471
2.7435,0.0,-0.0293,-0.04456,-0.00381,0.0087,-0.0441,-0.01816,0.06104,-0.0386,-0.05051,0.00275,-0.01617,-0.04822,-0.00839,0.14496,-0.04471
2.744,0.00046,-0.01953,-0.04166,-0.01404,0.00946,-0.04745,-0.03342,0.0502,-0.04257,-0.03128,-0.01038,-0.0087,-0.04471,-0.00443,0.11414,-0.04379
2.7445,-0.00061,-0.01129,-0.03494,-0.02045,0.00671,-0.04776,-0.04211,0.03357,-0.04547,-0.01511,-0.03159,-0.00443,-0.03281,-0.00366,0.07782,-0.04303
2.745,-0.00046,-0.009,-0.03021,-0.02518,-0.00336,-0.04623,-0.04196,0.02075,-0.04486,-0.00275,-0.05447,-0.0029,-0.01358,0.00137,0.04486,-0.04303
2.7455,0.00046,-0.01648,-0.03189,-0.03891,-0.01816,-0.04715,-0.03525,0.01068,-0.03708,0.00488,-0.06378,0.00092,0.00824,0.01511,0.0235,-0.04379
2.746,0.00275,-0.03098,-0.03403,-0.06363,-0.02853,-0.05066,-0.02975,0.0,-0.02563,0.01022,-0.05478,0.00641,0.02487,0.02975,0.00946,-0.04456
2.7465,0.00397,-0.04364,-0.03403,-0.08804,-0.03159,-0.05341,-0.02991,-0.01205,-0.01556,0.01526,-0.03555,0.01007,0.02441,0.01953,0.00381,-0.04715
2.747,0.0029,-0.04684,-0.03113,-0.10147,-0.0267,-0.05356,-0.03281,-0.02121,-0.00977,0.01709,-0.01694,0.009,0.00198,-0.02731,0.00397,-0.04868
2.7475,-0.00137,-0.03937,-0.03021,-0.09811,-0.02182,-0.05493,-0.0354,-0.02487,-0.00626,0.01526,0.00092,0.00534,-0.02945,-0.08499,0.00504,-0.04898
2.748,-0.00534,-0.02625,-0.02991,-0.07431,-0.01801,-0.05524,-0.03616,-0.02396,-0.00381,0.01007,0.02029,0.0029,-0.04959,-0.11154,0.00549,-0.04715
2.7485,-0.00656,-0.01602,-0.03113,-0.03891,-0.01511,-0.05692,-0.03571,-0.02121,-0.00351,0.00107,0.04166,0.0029,-0.04944,-0.0943,0.00763,-0.04303
2.749,-0.0058,-0.01389,-0.03326,-0.00854,-0.01358,-0.05737,-0.03159,-0.01831,-0.00671,-0.00656,0.0589,0.00504,-0.04089,-0.06134,0.01266,-0.0415
2.7495,-0.00534,-0.01877,-0.03372,0.01358,-0.01312,-0.056,-0.0235,-0.01617,-0.01434,-0.01389,0.06332,0.00885,-0.03403,-0.04059,0.01862,-0.0415
2.75,-0.00412,-0.02594,-0.03372,0.04532,-0.01266,-0.05432,-0.01434,-0.01511,-0.02411,-0.02228,0.05493,0.01343,-0.03036,-0.03265,0.01755,-0.04196
2.7505,-0.00092,-0.03113,-0.03479,0.09308,-0.01099,-0.05341,-0.01266,-0.01465,-0.03281,-0.02975,0.04089,0.01678,-0.02548,-0.02487,0.00793,-0.04089
2.751,0.00259,-0.03036,-0.03769,0.13,-0.00565,-0.05356,-0.02106,-0.01236,-0.03891,-0.03387,0.02899,0.01801,-0.01877,-0.01755,-0.00412,-0.03952
2.7515,0.00412,-0.02792,-0.04089,0.12619,0.00534,-0.05356,-0.02914,-0.00824,-0.04135,-0.03204,0.02029,0.01862,-0.01282,-0.01465,-0.01053,-0.03937
2.752,0.00351,-0.02731,-0.04089,0.08987,0.02594,-0.05295,-0.02518,-0.00107,-0.03891,-0.02808,0.01312,0.02106,-0.00458,-0.01678,-0.00916,-0.04013
2.7525,0.00198,-0.02762,-0.03693,0.05585,0.05966,-0.05142,-0.00702,0.00549,-0.03357,-0.02716,0.00565,0.02136,0.00473,-0.01984,-0.0058,-0.04227
2.753,0.00076,-0.0293,-0.03204,0.0412,0.10132,-0.0499,0.01251,0.00793,-0.02777,-0.03067,-0.00229,0.01358,0.00732,-0.02197,-0.00748,-0.04486
2.7535,0.00031,-0.03265,-0.02838,0.02991,0.13626,-0.04684,0.0264,0.00488,-0.0235,-0.03525,-0.01099,-0.00092,-0.00061,-0.02274,-0.01694,-0.04669
2.754,-0.00092,-0.03876,-0.02762,0.00717,0.15091,-0.04593,0.03326,-0.00122,-0.02151,-0.03815,-0.01862,-0.01343,-0.01175,-0.02121,-0.03204,-0.04639
2.7545,-0.00443,-0.04349,-0.02747,-0.02151,0.13885,-0.0444,0.03555,-0.00534,-0.0238,-0.03845,-0.02441,-0.0177,-0.01785,-0.01831,-0.04532,-0.0444
2.755,-0.00824,-0.04654,-0.02411,-0.04547,0.10315,-0.04562,0.03098,-0.00717,-0.0322,-0.03708,-0.03311,-0.01907,-0.03387,-0.01633,-0.04608,-0.04318
2.7555,-0.01282,-0.05203,-0.02045,-0.06134,0.0499,-0.0473,0.01556,-0.01038,-0.03784,-0.03632,-0.04349,-0.02625,-0.0705,-0.0145,-0.03464,-0.04257
2.756,-0.0177,-0.05798,-0.01984,-0.06943,-0.01923,-0.04959,-0.01068,-0.01648,-0.02853,-0.03647,-0.05371,-0.03647,-0.10178,-0.01358,-0.01907,-0.04181
2.7565,-0.02121,-0.0592,-0.02502,-0.06699,-0.10712,-0.05035,-0.03189,-0.02151,-0.00183,-0.03952,-0.05585,-0.04089,-0.0853,-0.01328,-0.0116,-0.04074
2.757,-0.01968,-0.05341,-0.03281,-0.05844,-0.20233,-0.05051,-0.03189,-0.02319,0.02762,-0.04745,-0.04471,-0.03342,-0.03265,-0.0116,-0.01419,-0.03937
2.7575,-0.01434,-0.0473,-0.03799,-0.05066,-0.25879,-0.05051,-0.01694,-0.02396,0.04547,-0.05447,-0.02869,-0.01511,0.00061,-0.00671,-0.01953,-0.03922
2.758,-0.00763,-0.04715,-0.0383,-0.04822,-0.24109,-0.05157,-0.00824,-0.02609,0.04852,-0.05554,-0.01633,0.009,-0.01175,0.00031,-0.02151,-0.03922
2.7585,-0.00534,-0.04974,-0.03799,-0.04684,-0.1712,-0.05173,-0.00946,-0.02823,0.04196,-0.04715,-0.01129,0.03571,-0.0441,0.01114,-0.01968,-0.03906
2.759,-0.00748,-0.04807,-0.03571,-0.04288,-0.11444,-0.05081,-0.01312,-0.02655,0.02838,-0.03418,-0.01068,0.06134,-0.06012,0.02563,-0.01511,-0.03769
2.7595,-0.00824,-0.04288,-0.03189,-0.04013,-0.11368,-0.04929,-0.01404,-0.02075,0.00687,-0.02121,-0.01053,0.06546,-0.05829,0.03845,-0.00961,-0.03708
2.76,-0.00626,-0.03983,-0.02899,-0.04074,-0.14511,-0.04745,-0.02014,-0.01495,-0.01923,-0.0116,-0.00717,0.0351,-0.05127,0.03769,-0.00595,-0.03784
2.7605,-0.00397,-0.04395,-0.03006,-0.04211,-0.16205,-0.04578,-0.03174,-0.01343,-0.03845,-0.00717,-0.00397,-0.00839,-0.04303,0.01389,-0.00168,-0.03983
2.761,-0.0029,-0.05371,-0.03632,-0.03799,-0.14404,-0.0444,-0.04013,-0.01541,-0.04242,-0.00412,-0.00107,-0.03571,-0.0325,-0.02487,0.00732,-0.04074
2.7615,-0.00488,-0.06195,-0.04349,-0.02914,-0.11063,-0.0441,-0.0412,-0.01617,-0.03189,-0.00244,0.00183,-0.04349,-0.02899,-0.05905,0.01785,-0.04028
2.762,-0.00763,-0.06409,-0.04578,-0.01892,-0.0827,-0.04578,-0.03708,-0.01495,-0.01801,-0.00183,0.00671,-0.03876,-0.03922,-0.0708,0.02182,-0.03906
2.7625,-0.00946,-0.06134,-0.04333,-0.01099,-0.06287,-0.04745,-0.03265,-0.0148,-0.01083,-0.00137,0.01038,-0.01694,-0.04822,-0.05981,0.01419,-0.03845
2.763,-0.01129,-0.05814,-0.0386,-0.00565,-0.04395,-0.0473,-0.0267,-0.01877,-0.01038,0.0,0.0116,0.0177,-0.04517,-0.03967,0.00168,-0.03906
2.7635,-0.01297,-0.05569,-0.03448,-0.00122,-0.02304,-0.04745,-0.01892,-0.02548,-0.01266,0.00046,0.0087,0.04272,-0.03693,-0.02502,-0.00504,-0.03952
2.764,-0.0148,-0.05371,-0.03265,-0.00351,-0.00885,-0.04898,-0.00824,-0.02899,-0.0145,-0.00214,0.00443,0.04089,-0.03799,-0.02121,-0.0029,-0.03983
2.7645,-0.01663,-0.05188,-0.03204,-0.02441,-0.00549,-0.05295,0.00549,-0.02625,-0.01602,-0.00763,0.00504,0.02518,-0.04532,-0.02136,0.00534,-0.04105
2.765,-0.01755,-0.05157,-0.03342,-0.0679,-0.01251,-0.056,0.02289,-0.01968,-0.01816,-0.01389,0.01358,0.01572,-0.04791,-0.02151,0.01526,-0.04364
2.7655,-0.01602,-0.05402,-0.03693,-0.11337,-0.01999,-0.05753,0.03265,-0.0145,-0.02213,-0.01877,0.02441,0.01236,-0.04578,-0.0209,0.02411,-0.04517
2.766,-0.01297,-0.05783,-0.04257,-0.12985,-0.02258,-0.05676,0.02579,-0.01129,-0.02731,-0.0209,0.02411,0.00488,-0.0444,-0.01892,0.03235,-0.04623
2.7665,-0.01038,-0.06149,-0.04791,-0.10284,-0.02335,-0.05524,0.00488,-0.00793,-0.03296,-0.02243,0.00778,-0.00854,-0.04395,-0.01617,0.0386,-0.04761
2.767,-0.00778,-0.06027,-0.05005,-0.04913,-0.02914,-0.05463,-0.01373,-0.00122,-0.03693,-0.0264,-0.01434,-0.02228,-0.04105,-0.01404,0.0383,-0.04791
2.7675,-0.00458,-0.05127,-0.04959,0.00427,-0.04303,-0.05432,-0.01953,0.00443,-0.04105,-0.03113,-0.03204,-0.02853,-0.03403,-0.01617,0.02365,-0.04745
2.768,-0.00107,-0.03708,-0.04837,0.04303,-0.05173,-0.05173,-0.0177,0.00717,-0.04562,-0.03342,-0.0412,-0.03189,-0.02411,-0.02136,-0.00092,-0.04501
2.7685,0.00015,-0.02365,-0.0444,0.06668,-0.04227,-0.04745,-0.01511,0.00229,-0.05127,-0.0322,-0.04379,-0.03601,-0.01511,-0.02426,-0.01907,-0.0415
2.769,-0.00153,-0.01877,-0.03922,0.06607,-0.02136,-0.04547,-0.01465,-0.00702,-0.05875,-0.02945,-0.04379,-0.0444,-0.00931,-0.02365,-0.01541,-0.04105
2.7695,-0.00366,-0.02075,-0.03128,0.01846,-0.00687,-0.04532,-0.01297,-0.0174,-0.07126,-0.02625,-0.04227,-0.05219,-0.00259,-0.01892,0.00031,-0.04013
2.77,-0.00443,-0.02487,-0.02502,-0.08606,-0.00839,-0.04486,-0.01099,-0.0238,-0.08316,-0.02289,-0.04181,-0.0531,0.00137,-0.01373,0.01129,-0.03876
2.7705,-0.00626,-0.03036,-0.02289,-0.20233,-0.01801,-0.04303,-0.01221,-0.02609,-0.08484,-0.01892,-0.04257,-0.04547,-0.0119,-0.01175,0.00778,-0.03784
2.771,-0.00839,-0.03403,-0.02914,-0.26215,-0.0267,-0.04089,-0.01419,-0.02197,-0.06927,-0.01663,-0.04425,-0.0383,-0.05005,-0.01068,-0.00275,-0.03723
2.7715,-0.01022,-0.03815,-0.03372,-0.22186,-0.03082,-0.04349,-0.0145,-0.009,-0.04333,-0.01877,-0.04913,-0.04349,-0.0914,-0.00916,-0.01221,-0.03876
2.772,-0.009,-0.0412,-0.03571,-0.08652,-0.02625,-0.04669,-0.01236,0.01053,-0.02106,-0.0235,-0.06149,-0.06271,-0.09811,-0.00702,-0.01801,-0.04013
2.7725,-0.00717,-0.04272,-0.0325,0.10574,-0.01465,-0.04715,-0.0119,0.02426,-0.009,-0.02563,-0.07385,-0.07416,-0.06287,-0.00748,-0.01877,-0.0415
2.773,-0.00534,-0.04318,-0.02716,0.29037,-0.00443,-0.04456,-0.01343,0.02213,-0.0087,-0.02518,-0.07797,-0.047,-0.02045,-0.01129,-0.01938,-0.03937
2.7735,-0.00412,-0.04333,-0.02396,0.39459,-0.00092,-0.04089,-0.01648,0.00458,-0.0148,-0.02396,-0.0708,0.03738,0.00015,-0.01663,-0.02258,-0.03922
2.774,-0.00397,-0.04318,-0.02441,0.38132,-0.00534,-0.03952,-0.01938,-0.01526,-0.02014,-0.02045,-0.05859,0.15961,0.00214,-0.0174,-0.03189,-0.04074
2.7745,-0.00473,-0.0412,-0.02747,0.27252,-0.01099,-0.04044,-0.02075,-0.02716,-0.02197,-0.01831,-0.04608,0.25345,0.00214,-0.00824,-0.04379,-0.04135
2.775,-0.00626,-0.03738,-0.02945,0.12299,-0.01373,-0.04349,-0.01984,-0.02716,-0.01892,-0.01709,-0.03174,0.25085,-0.00046,0.00839,-0.04715,-0.03876
2.7755,-0.0061,-0.03387,-0.03021,-0.01236,-0.01587,-0.04562,-0.0174,-0.01663,-0.01144,-0.01663,-0.01923,0.1532,-0.01587,0.01617,-0.02487,-0.0351
2.776,-0.00458,-0.03357,-0.03021,-0.10529,-0.01862,-0.04547,-0.01511,0.00015,0.00183,-0.01923,-0.0087,0.03693,-0.0383,-0.00412,0.03387,-0.03662
2.7765,-0.00092,-0.03555,-0.03128,-0.15289,-0.0209,-0.0441,-0.01465,0.01541,0.02045,-0.02045,-0.00168,-0.02457,-0.05554,-0.04578,0.11139,-0.04456
2.777,0.00305,-0.03677,-0.03128,-0.15686,-0.02289,-0.04349,-0.01541,0.01785,0.0386,-0.01999,0.00443,-0.02411,-0.05859,-0.07431,0.15549,-0.05096
2.7775,0.0058,-0.03571,-0.02884,-0.11276,-0.02213,-0.04257,-0.01572,-0.00839,0.0499,-0.01968,0.01099,-0.00046,-0.04852,-0.06882,0.13428,-0.04929
2.778,0.00946,-0.03265,-0.02518,-0.03403,-0.01953,-0.04288,-0.01434,-0.06378,0.05081,-0.02106,0.01556,0.0174,-0.03082,-0.04593,0.07019,-0.04105
2.7785,0.01617,-0.03036,-0.02289,0.03784,-0.01312,-0.04456,-0.01282,-0.10315,0.04501,-0.02182,0.01907,0.0293,-0.01816,-0.02853,0.02197,-0.03723
2.779,0.02457,-0.02655,-0.02869,0.06622,-0.00534,-0.04578,-0.01175,-0.06882,0.03784,-0.02014,0.02075,0.03738,-0.01755,-0.01816,0.01099,-0.03998
2.7795,0.02762,-0.02121,-0.03265,0.05585,0.0032,-0.04486,-0.01099,0.02884,0.03433,-0.0174,0.01724,0.03876,-0.02884,-0.01068,0.0174,-0.04608
2.78,0.02197,-0.01892,-0.03235,0.04059,0.01099,-0.04242,-0.01053,0.1004,0.03494,-0.01358,0.00931,0.03235,-0.04654,-0.00916,0.01144,-0.05005
2.7805,0.01144,-0.02258,-0.02899,0.04166,0.01724,-0.03922,-0.01007,0.08972,0.03494,-0.01328,0.00427,0.02441,-0.06393,-0.0174,-0.00793,-0.0502
2.781,0.00351,-0.03082,-0.02655,0.04623,0.02014,-0.03891,-0.01053,0.03464,0.02747,-0.01678,0.00397,0.01617,-0.06546,-0.02686,-0.03174,-0.04944
2.7815,0.00214,-0.03845,-0.0267,0.04044,0.01389,-0.04211,-0.01358,0.00031,0.01068,-0.02197,0.00565,0.00702,-0.04303,-0.03113,-0.05585,-0.04684
2.782,0.00214,-0.04257,-0.02594,0.02884,-0.00702,-0.04639,-0.02182,0.00031,-0.00671,-0.02655,0.00351,-0.00534,-0.01572,-0.03387,-0.08316,-0.04349
2.7825,0.00031,-0.04456,-0.02457,0.02075,-0.04242,-0.04852,-0.03448,0.00809,-0.01846,-0.02686,0.00122,-0.02029,-0.0145,-0.03525,-0.1088,-0.04074
2.783,-0.0029,-0.04639,-0.02548,0.01175,-0.07568,-0.0499,-0.04181,0.00641,-0.02609,-0.02319,0.00397,-0.0354,-0.03632,-0.03311,-0.11978,-0.03952
2.7835,-0.00717,-0.04807,-0.03067,-0.00519,-0.08667,-0.04974,-0.03632,0.00137,-0.03418,-0.01862,0.01175,-0.04745,-0.05737,-0.02655,-0.11017,-0.03876
2.784,-0.01038,-0.04883,-0.03571,-0.02289,-0.07004,-0.04883,-0.02441,-0.00046,-0.04395,-0.01526,0.02029,-0.05081,-0.06577,-0.02075,-0.08377,-0.03876
2.7845,-0.0119,-0.04837,-0.03769,-0.0322,-0.04166,-0.04669,-0.01663,-0.00061,-0.04776,-0.0148,0.0267,-0.04105,-0.06927,-0.01831,-0.05417,-0.03937
2.785,-0.01144,-0.04623,-0.03662,-0.03265,-0.01801,-0.04547,-0.01755,-0.00092,-0.04181,-0.01511,0.02899,-0.01724,-0.06561,-0.01587,-0.02579,-0.04044
2.7855,-0.00702,-0.04349,-0.03525,-0.03647,-0.00504,-0.04593,-0.02045,-0.00092,-0.03143,-0.01541,0.02747,0.00885,-0.05341,-0.01099,0.01251,-0.04333
2.786,0.00061,-0.04196,-0.03708,-0.04852,0.00076,-0.04837,-0.02319,-0.00015,-0.02289,-0.01404,0.01862,0.02243,-0.03998,-0.00702,0.07126,-0.04593
2.7865,0.00732,-0.04196,-0.03784,-0.06699,0.00244,-0.05173,-0.0264,0.00046,-0.02136,-0.01495,0.00031,0.0119,-0.03601,-0.00763,0.13718,-0.04654
2.787,0.00992,-0.04318,-0.03967,-0.08926,-0.0032,-0.05203,-0.02762,-0.00153,-0.02426,-0.01724,-0.02365,-0.02106,-0.03937,-0.01251,0.17273,-0.04471
2.7875,0.00732,-0.04333,-0.0412,-0.11703,-0.01892,-0.05173,-0.02594,-0.00427,-0.02762,-0.01907,-0.04608,-0.0618,-0.03677,-0.01785,0.15488,-0.04272
2.788,0.00565,-0.04044,-0.04181,-0.14343,-0.0412,-0.05127,-0.02426,-0.0058,-0.02914,-0.01831,-0.05814,-0.08713,-0.02625,-0.02182,0.10223,-0.0441
2.7885,0.0058,-0.03708,-0.04135,-0.1474,-0.06012,-0.05188,-0.02136,-0.00732,-0.0267,-0.01617,-0.05692,-0.08484,-0.01389,-0.02365,0.05493,-0.04776
2.789,0.00519,-0.03571,-0.0412,-0.11612,-0.06851,-0.0528,-0.01892,-0.00702,-0.02106,-0.0145,-0.04684,-0.06119,-0.00854,-0.02472,0.03464,-0.0502
2.7895,0.00381,-0.04013,-0.04257,-0.05295,-0.07065,-0.05264,-0.0145,-0.00427,-0.01221,-0.01343,-0.03174,-0.03403,-0.00885,-0.02396,0.03052,-0.05035
2.79,0.00092,-0.04929,-0.0441,0.02518,-0.07355,-0.05417,-0.01175,-0.00046,-0.00168,-0.01511,-0.02045,-0.01511,-0.01175,-0.02258,0.02655,-0.04791
2.7905,-0.00229,-0.06042,-0.04242,0.09628,-0.07751,-0.056,-0.0119,-0.00046,0.00763,-0.01526,-0.01938,-0.00015,-0.0145,-0.01968,0.0174,-0.04547
2.791,-0.00595,-0.06744,-0.03738,0.14069,-0.07553,-0.05859,-0.01175,-0.00214,0.0148,-0.01236,-0.02869,0.0235,-0.01541,-0.01587,0.00488,-0.04288
2.7915,-0.00885,-0.06958,-0.03174,0.15015,-0.06165,-0.05646,-0.01053,-0.00214,0.01511,-0.00656,-0.03983,0.05844,-0.01602,-0.01404,-0.00488,-0.04074
2.792,-0.01099,-0.07202,-0.02838,0.12726,-0.04181,-0.05249,-0.01099,-0.00107,0.01205,-0.0029,-0.04608,0.08209,-0.0177,-0.01495,-0.00809,-0.0386
2.7925,-0.01373,-0.07492,-0.02808,0.08347,-0.02884,-0.05035,-0.01465,-0.00061,0.00992,-0.00351,-0.047,0.06989,-0.01999,-0.01633,-0.00763,-0.03555
2.793,-0.01785,-0.07629,-0.02716,0.03387,-0.02548,-0.05173,-0.01709,-0.00092,0.01236,-0.0087,-0.04547,0.0267,-0.01877,-0.01724,-0.0061,-0.03555
2.7935,-0.02823,-0.07782,-0.02579,-0.00397,-0.02457,-0.0563,-0.01724,-0.00198,0.0145,-0.01373,-0.04196,-0.01434,-0.01556,-0.01572,-0.0087,-0.03571
2.794,-0.04303,-0.08148,-0.02579,-0.02579,-0.02151,-0.05814,-0.01709,-0.00412,0.01099,-0.01862,-0.03738,-0.03403,-0.01068,-0.0148,-0.01343,-0.03708
2.7945,-0.05234,-0.08408,-0.02899,-0.0351,-0.01328,-0.05737,-0.01556,-0.00595,0.0032,-0.02289,-0.0325,-0.04044,-0.0058,-0.01541,-0.01831,-0.03952
2.795,-0.04929,-0.08072,-0.03143,-0.04074,0.00015,-0.05615,-0.01404,-0.00763,-0.00305,-0.02502,-0.02884,-0.05219,-0.00198,-0.01801,-0.01022,-0.04257
2.7955,-0.03677,-0.06516,-0.03357,-0.04654,0.01953,-0.05615,-0.01144,-0.00687,-0.00687,-0.02502,-0.02579,-0.08118,0.00168,-0.02014,0.01831,-0.04333
2.796,-0.02548,-0.0412,-0.0354,-0.05783,0.04089,-0.0563,-0.00809,-0.00488,-0.00824,-0.0235,-0.02396,-0.11688,0.0058,-0.02167,0.05356,-0.04318
2.7965,-0.02106,-0.01801,-0.03967,-0.07065,0.05157,-0.05585,-0.0032,-0.00336,-0.00946,-0.02289,-0.02182,-0.12558,0.00626,-0.02182,0.06638,-0.04242
2.797,-0.01678,-0.0032,-0.04944,-0.07309,0.04684,-0.05432,-0.00107,-0.00473,-0.00992,-0.02396,-0.01953,-0.0737,-0.00259,-0.02029,0.04929,-0.04242
2.7975,-0.0087,0.0029,-0.056,-0.05417,0.0322,-0.05142,-0.00229,-0.00626,-0.00961,-0.02548,-0.0177,0.02365,-0.0148,-0.01648,0.02548,-0.04257
2.798,-0.00046,0.00687,-0.05371,-0.0235,0.02274,-0.04715,-0.00687,-0.00595,-0.00778,-0.0264,-0.01465,0.09338,-0.0235,-0.01373,0.01938,-0.04135
2.7985,0.0029,0.00992,-0.04532,-0.00351,0.00946,-0.04486,-0.01068,-0.00427,-0.00671,-0.02579,-0.01343,0.08453,-0.03571,-0.01465,0.02777,-0.04028
2.799,0.00107,0.00732,-0.0383,-0.00397,-0.02884,-0.04517,-0.01099,-0.00244,-0.00671,-0.02289,-0.01373,0.02396,-0.06516,-0.01877,0.03128,-0.03983
2.7995,-0.00092,-0.00122,-0.03555,-0.01923,-0.0914,-0.04578,-0.01022,-0.00137,-0.00885,-0.01846,-0.00702,-0.02441,-0.09995,-0.0209,0.02289,-0.03952
2.8,-0.00015,-0.0116,-0.03632,-0.03723,-0.13916,-0.04623,-0.00977,-0.00031,-0.01343,-0.01312,0.02121,-0.03784,-0.10834,-0.01877,0.01373,-0.03784
2.8005,0.00259,-0.01892,-0.03601,-0.04822,-0.14236,-0.04623,-0.01068,0.0032,-0.01831,-0.01038,0.07278,-0.03372,-0.08148,-0.01556,0.00961,-0.0351
2.801,0.00381,-0.02045,-0.03265,-0.05081,-0.11414,-0.04501,-0.00961,0.01038,-0.02411,-0.0119,0.11612,-0.02548,-0.04761,-0.01328,0.00671,-0.03128
2.8015,0.00458,-0.02182,-0.02869,-0.05112,-0.0856,-0.04288,-0.00916,0.01907,-0.03326,-0.01587,0.11475,-0.01144,-0.03403,-0.01373,-0.00153,-0.02991
2.802,0.0029,-0.02533,-0.02777,-0.05295,-0.07004,-0.04211,-0.01282,0.02396,-0.04623,-0.02045,0.06958,0.00916,-0.03723,-0.01343,-0.01694,-0.03189
2.8025,0.00092,-0.03235,-0.02945,-0.05264,-0.06516,-0.04196,-0.01938,0.01556,-0.06149,-0.02914,0.01511,0.03754,-0.04028,-0.01114,-0.03418,-0.03738
2.803,-0.00046,-0.03845,-0.02899,-0.05127,-0.06317,-0.04272,-0.0235,-0.0087,-0.07263,-0.04333,-0.02289,0.07507,-0.03677,-0.00839,-0.04837,-0.04105
2.8035,-0.00244,-0.04242,-0.0296,-0.05554,-0.05753,-0.04303,-0.02289,-0.03983,-0.07736,-0.05569,-0.04486,0.11688,-0.02747,-0.00717,-0.05554,-0.0441
2.804,-0.00519,-0.04486,-0.03235,-0.06653,-0.04547,-0.04379,-0.02243,-0.04883,-0.07813,-0.05951,-0.06104,0.13351,-0.01007,-0.00656,-0.05615,-0.04761
2.8045,-0.00748,-0.04791,-0.03555,-0.07996,-0.02914,-0.0441,-0.0267,-0.02167,-0.07645,-0.0528,-0.07309,0.09232,0.01541,-0.0061,-0.0528,-0.05035
2.805,-0.00931,-0.05188,-0.03662,-0.0827,-0.0116,-0.04288,-0.03174,0.01816,-0.07538,-0.04105,-0.07965,-0.00626,0.04303,-0.00977,-0.0502,-0.05188
2.8055,-0.01099,-0.05478,-0.03662,-0.06744,-0.00565,-0.0412,-0.03464,0.03082,-0.08255,-0.0293,-0.08041,-0.12299,0.06149,-0.01495,-0.04425,-0.05096
2.806,-0.01099,-0.05432,-0.0354,-0.03983,-0.01648,-0.04272,-0.03067,0.00839,-0.10193,-0.01587,-0.0766,-0.19394,0.06897,-0.01907,-0.03448,-0.04883
2.8065,-0.01007,-0.05341,-0.03738,-0.01266,-0.04105,-0.047,-0.01648,-0.0174,-0.1236,-0.00336,-0.07141,-0.16739,0.06271,-0.0174,-0.02304,-0.04868
2.807,-0.00793,-0.05188,-0.03754,0.00656,-0.06042,-0.05188,0.00748,-0.02197,-0.12436,0.00748,-0.07095,-0.04196,0.03479,-0.01587,-0.00793,-0.05142
2.8075,-0.00702,-0.04669,-0.03479,0.02029,-0.05783,-0.05402,0.03235,-0.0119,-0.09811,0.01297,-0.07477,0.10147,-0.02151,-0.0177,0.01999,-0.0531
2.808,-0.00916,-0.03754,-0.03326,0.03082,-0.03616,-0.05432,0.04074,-0.00336,-0.06409,0.01389,-0.07309,0.15686,-0.08987,-0.01892,0.07034,-0.05051
2.8085,-0.01175,-0.02884,-0.03265,0.03693,-0.01678,-0.05188,0.02884,0.00122,-0.03448,0.01083,-0.05783,0.10284,-0.14221,-0.01816,0.12009,-0.0441
2.809,-0.01221,-0.02594,-0.03448,0.03601,-0.01358,-0.0502,0.01099,0.00488,-0.00153,0.00534,-0.03784,0.02167,-0.16602,-0.01892,0.13,-0.03967
2.8095,-0.00961,-0.02884,-0.0383,0.02701,-0.02548,-0.04837,0.00214,0.00854,0.03952,0.0,-0.02258,-0.00854,-0.16907,-0.02975,0.08911,-0.03738
2.81,-0.00671,-0.03311,-0.0412,0.01373,-0.04181,-0.04837,0.00183,0.00809,0.07339,-0.00412,-0.01465,0.00702,-0.15671,-0.05127,0.03555,-0.0351
2.8105,-0.0058,-0.03616,-0.0415,0.00137,-0.05783,-0.04959,-0.00061,-0.00076,0.08469,-0.00809,-0.01007,0.01938,-0.12924,-0.07446,0.01083,-0.03204
2.811,-0.00702,-0.03845,-0.03998,-0.0061,-0.07538,-0.05112,-0.00824,-0.01907,0.07904,-0.01175,-0.00534,0.01328,-0.09323,-0.07935,0.0174,-0.03006
2.8115,-0.00854,-0.04074,-0.03662,-0.01007,-0.09415,-0.05081,-0.01373,-0.03891,0.07141,-0.01251,0.00015,0.00305,-0.05997,-0.06119,0.0383,-0.03265
2.812,-0.00946,-0.04242,-0.03479,-0.01236,-0.10498,-0.0499,-0.01251,-0.05325,0.06332,-0.01129,0.0032,0.00076,-0.03296,-0.03708,0.06378,-0.03922
2.8125,-0.01144,-0.04395,-0.03586,-0.0119,-0.09995,-0.04913,-0.00946,-0.06195,0.05203,-0.01038,0.0029,0.00275,-0.01465,-0.02228,0.08621,-0.04608
2.813,-0.01678,-0.04608,-0.03677,-0.01038,-0.07919,-0.04868,-0.01007,-0.06912,0.04013,-0.01251,-0.00259,0.00351,-0.00519,-0.0148,0.08133,-0.05081
2.8135,-0.02121,-0.05066,-0.03738,-0.01205,-0.05783,-0.04883,-0.01526,-0.07385,0.03128,-0.01877,-0.01297,0.00366,0.00153,-0.0058,0.02701,-0.05569
2.814,-0.0206,-0.05203,-0.03601,-0.01617,-0.04547,-0.04929,-0.01648,-0.07126,0.02579,-0.02563,-0.02243,0.00259,0.01526,0.0029,-0.05569,-0.0592
2.8145,-0.01495,-0.0528,-0.03326,-0.01663,-0.04105,-0.04791,-0.01053,-0.05432,0.01678,-0.02991,-0.02472,0.00061,0.03464,0.00748,-0.11139,-0.05661
2.815,-0.00885,-0.05569,-0.03067,-0.01343,-0.03754,-0.04608,-0.00092,-0.02533,0.00351,-0.03113,-0.01907,-0.00122,0.04196,0.00793,-0.10864,-0.04929
2.8155,-0.00626,-0.06256,-0.03021,-0.00946,-0.03418,-0.04608,0.00885,-0.00015,-0.0061,-0.03113,-0.01053,-0.00183,0.02716,0.00793,-0.07385,-0.04303
2.816,-0.00656,-0.06897,-0.03296,-0.01022,-0.03143,-0.04761,0.01495,0.00595,-0.00824,-0.0322,-0.00366,-0.00092,-0.00427,0.009,-0.04288,-0.04349
2.8165,-0.00534,-0.06943,-0.03555,-0.01205,-0.03082,-0.04745,0.01434,-0.00381,-0.00702,-0.03235,0.00153,-0.00137,-0.04654,0.00961,-0.0209,-0.04745
2.817,-0.00092,-0.06668,-0.03525,-0.00977,-0.03067,-0.04547,0.00595,-0.01556,-0.00671,-0.02884,0.00412,-0.0029,-0.09689,0.01068,-0.00015,-0.04837
2.8175,0.00259,-0.06256,-0.03494,-0.00641,-0.02502,-0.04272,-0.00519,-0.01465,-0.00885,-0.0235,0.00519,-0.00534,-0.13062,0.01328,0.01068,-0.04547
2.818,0.0029,-0.0592,-0.03586,-0.00412,-0.01877,-0.04028,-0.01328,0.00702,-0.01129,-0.01892,0.00519,-0.00702,-0.11917,0.01999,-0.00198,-0.0412
2.8185,0.0,-0.05539,-0.03723,-0.00092,-0.01434,-0.03876,-0.02304,0.04257,-0.0116,-0.01602,0.0032,-0.00717,-0.06897,0.02945,-0.03159,-0.03891
2.819,-0.00153,-0.05127,-0.03845,0.00275,-0.01175,-0.03998,-0.04379,0.07111,-0.00824,-0.01587,-0.00198,-0.0058,-0.02731,0.03601,-0.05508,-0.03967
2.8195,-0.00046,-0.0499,-0.03845,0.00458,-0.0087,-0.04044,-0.07874,0.0766,-0.00168,-0.01587,-0.01022,-0.0061,-0.02579,0.02365,-0.05859,-0.0415
2.82,0.00183,-0.04883,-0.03555,0.00397,-0.00153,-0.03891,-0.11414,0.06699,0.00488,-0.01572,-0.01831,-0.00839,-0.04562,-0.02213,-0.04868,-0.03998
2.8205,0.00214,-0.04501,-0.03098,0.00107,0.00931,-0.03525,-0.13596,0.0621,0.01129,-0.0174,-0.01923,-0.0116,-0.05508,-0.0882,-0.02029,-0.03677
2.821,0.00168,-0.0351,-0.02701,-0.00107,0.01907,-0.03342,-0.14145,0.06454,0.0145,-0.01724,-0.0119,-0.01266,-0.04776,-0.13351,0.04211,-0.03357
2.8215,0.00076,-0.02258,-0.0238,-0.00153,0.02533,-0.03204,-0.13641,0.05783,0.01083,-0.01602,-0.0029,-0.01068,-0.03815,-0.13031,0.11871,-0.03296
2.822,0.00046,-0.01633,-0.02335,-0.00092,0.0293,-0.03052,-0.1152,0.03479,0.0,-0.01419,0.00366,-0.00885,-0.0351,-0.09384,0.15869,-0.03372
2.8225,0.00061,-0.02136,-0.02151,-0.00214,0.0296,-0.03036,-0.06424,0.01358,-0.01266,-0.01297,0.00793,-0.00824,-0.03586,-0.05539,0.13031,-0.03448
2.823,0.00137,-0.03174,-0.01999,-0.00412,0.02045,-0.03372,-0.00076,0.00977,-0.02457,-0.01266,0.01114,-0.00824,-0.03418,-0.03296,0.06714,-0.0351
2.8235,0.00473,-0.03967,-0.02045,-0.00549,-0.00336,-0.0386,0.03571,0.01663,-0.03357,-0.01266,0.0119,-0.00702,-0.03006,-0.02594,0.02411,-0.03601
2.824,0.00793,-0.04395,-0.02548,-0.00641,-0.03662,-0.04318,0.02914,0.02228,-0.03891,-0.01343,0.01129,-0.00778,-0.02502,-0.0267,0.01511,-0.03571
2.8245,0.00763,-0.04639,-0.03479,-0.00748,-0.06485,-0.04684,0.00824,0.02228,-0.04333,-0.01877,0.00839,-0.009,-0.02243,-0.02991,0.01556,-0.03464
2.825,0.00305,-0.04456,-0.04211,-0.009,-0.07233,-0.05234,-0.00061,0.02182,-0.04883,-0.03128,0.00305,-0.00778,-0.02228,-0.03098,0.01053,-0.03448
2.8255,-0.0029,-0.04059,-0.04547,-0.00992,-0.05417,-0.05676,0.00259,0.02319,-0.05829,-0.05127,-0.00427,-0.00427,-0.0235,-0.03006,0.0029,-0.03708
2.826,-0.00687,-0.03784,-0.04532,-0.00931,-0.02228,-0.05692,0.00519,0.02533,-0.06638,-0.07126,-0.01068,-0.00153,-0.02441,-0.02945,-0.00015,-0.04135
2.8265,-0.00839,-0.04074,-0.04425,-0.00839,-0.00092,-0.05417,0.00229,0.02457,-0.06973,-0.08591,-0.0148,-0.00137,-0.02365,-0.02686,0.00061,-0.04593
2.827,-0.00946,-0.04364,-0.04318,-0.00778,-0.00443,-0.05157,0.00061,0.0209,-0.06607,-0.08514,-0.01709,-0.00397,-0.02289,-0.0209,0.00092,-0.04898
2.8275,-0.01007,-0.04196,-0.04349,-0.00854,-0.02884,-0.05219,0.00412,0.01297,-0.06012,-0.0705,-0.0174,-0.00702,-0.02182,-0.01328,0.00092,-0.04898
2.828,-0.00839,-0.03754,-0.04211,-0.00656,-0.05936,-0.05081,0.01129,-0.00122,-0.0589,-0.04913,-0.01495,-0.01068,-0.01999,-0.00824,0.00214,-0.04532
2.8285,-0.00595,-0.03799,-0.04257,-0.00168,-0.07645,-0.0499,0.01755,-0.01785,-0.05722,-0.0296,-0.01083,-0.01465,-0.01892,-0.00885,0.00244,-0.03952
2.829,-0.0029,-0.04425,-0.04211,0.00305,-0.07294,-0.04868,0.02502,-0.03128,-0.05386,-0.0174,-0.00687,-0.01877,-0.02045,-0.01389,0.00198,-0.03769
2.8295,-0.00015,-0.05127,-0.04242,-0.00397,-0.05432,-0.04807,0.03143,-0.03601,-0.0499,-0.01617,-0.00641,-0.02258,-0.02365,-0.01923,-0.00076,-0.04013
2.83,0.00198,-0.05646,-0.04166,-0.02182,-0.03662,-0.04791,0.03098,-0.0351,-0.04425,-0.02304,-0.00839,-0.02548,-0.02457,-0.02289,-0.00259,-0.04578
2.8305,0.00275,-0.05768,-0.03815,-0.04013,-0.02991,-0.04852,0.02197,-0.02914,-0.03647,-0.02655,-0.01114,-0.02426,-0.02274,-0.02304,-0.00092,-0.05203
2.831,0.00275,-0.05508,-0.03296,-0.0444,-0.03036,-0.05051,0.00824,-0.02014,-0.02518,-0.01648,-0.01358,-0.02258,-0.01984,-0.01755,0.00153,-0.05753
2.8315,0.00198,-0.05173,-0.02914,-0.04242,-0.02884,-0.05386,0.0,-0.01129,-0.01678,0.00046,-0.01511,-0.01968,-0.01801,-0.01144,0.00381,-0.05737
2.832,-0.00061,-0.047,-0.02975,-0.05112,-0.02426,-0.05585,-0.00153,-0.01114,-0.01389,0.01816,-0.01511,-0.00961,-0.01938,-0.00946,0.00031,-0.05219
2.8325,-0.00549,-0.04059,-0.0322,-0.07462,-0.0238,-0.05569,-0.00214,-0.02167,-0.01404,0.03433,-0.01587,0.01617,-0.02197,-0.01266,-0.01144,-0.04623
2.833,-0.01099,-0.03357,-0.03372,-0.09293,-0.03143,-0.05524,-0.00626,-0.03281,-0.0119,0.04547,-0.02136,0.04791,-0.02365,-0.01526,-0.02823,-0.04272
2.8335,-0.01266,-0.02609,-0.03342,-0.0798,-0.04044,-0.05569,-0.00961,-0.03632,-0.00549,0.04837,-0.03464,0.05783,-0.02411,-0.01526,-0.03769,-0.0441
2.834,-0.0119,-0.0206,-0.03555,-0.03098,-0.04425,-0.05585,-0.01144,-0.03296,-0.00031,0.04562,-0.04486,0.03632,-0.02243,-0.01389,-0.03479,-0.04578
2.8345,-0.00839,-0.01526,-0.03906,0.0296,-0.0412,-0.05463,-0.01404,-0.02731,-0.00153,0.04196,-0.03235,0.00351,-0.01785,-0.01556,-0.0235,-0.04532
2.835,-0.00595,-0.01022,-0.04089,0.06699,-0.0351,-0.05203,-0.01633,-0.02136,-0.00885,0.04074,0.01312,-0.01099,-0.01038,-0.01907,-0.01465,-0.04196
2.8355,-0.00565,-0.00488,-0.03937,0.07309,-0.02899,-0.05005,-0.0174,-0.01526,-0.01434,0.04044,0.06821,-0.00031,-0.00305,-0.01892,-0.01221,-0.03922
2.836,-0.00809,0.00046,-0.03525,0.06851,-0.02274,-0.04807,-0.01694,-0.01053,-0.01678,0.03677,0.09293,0.01923,-0.00107,-0.01251,-0.01266,-0.03906
2.8365,-0.00946,0.00412,-0.03281,0.08301,-0.01373,-0.0473,-0.01846,-0.01038,-0.01999,0.02869,0.0737,0.0296,-0.00916,-0.00793,-0.01083,-0.04196
2.837,-0.00992,0.00214,-0.03189,0.112,-0.00061,-0.04639,-0.02151,-0.01343,-0.02502,0.01343,0.03601,0.02579,-0.02289,-0.01022,-0.00092,-0.04333
2.8375,-0.00687,-0.00519,-0.02884,0.12192,0.01175,-0.04318,-0.02319,-0.01587,-0.02899,-0.00656,0.00961,0.01648,-0.03845,-0.01709,0.02274,-0.04166
2.838,-0.0058,-0.01709,-0.02899,0.08942,0.0209,-0.0386,-0.01984,-0.01221,-0.03113,-0.02579,-0.00397,0.00931,-0.05417,-0.01678,0.05081,-0.03922
2.8385,-0.00671,-0.02625,-0.03387,0.03174,0.02411,-0.03723,-0.01526,-0.00427,-0.03448,-0.03799,-0.01541,0.0058,-0.0737,-0.00626,0.06393,-0.03769
2.839,-0.0087,-0.03265,-0.0415,-0.01648,0.02029,-0.03876,-0.01404,0.00153,-0.04044,-0.03906,-0.02899,0.0032,-0.08453,0.01297,0.05524,-0.03708
2.8395,-0.01022,-0.03967,-0.047,-0.04105,0.00641,-0.03952,-0.01495,0.00336,-0.04639,-0.03586,-0.04013,0.00183,-0.07111,0.03372,0.03998,-0.03464
2.84,-0.00961,-0.04578,-0.04959,-0.05005,-0.01877,-0.0383,-0.01282,0.00381,-0.04944,-0.03326,-0.04654,0.00153,-0.0354,0.04364,0.03448,-0.03265
2.8405,-0.00717,-0.0502,-0.05066,-0.05249,-0.04974,-0.03769,-0.00732,0.00778,-0.05234,-0.03235,-0.04868,0.0029,-0.00092,0.03159,0.03326,-0.03296
2.841,-0.00534,-0.05112,-0.05325,-0.04944,-0.07263,-0.03708,-0.00275,0.01419,-0.05646,-0.03143,-0.04974,0.00549,0.01373,-0.00519,0.02594,-0.03525
2.8415,-0.00473,-0.05249,-0.05478,-0.04288,-0.07782,-0.03952,-0.00214,0.01816,-0.05661,-0.03006,-0.05035,0.00732,0.00549,-0.04471,0.01038,-0.03708
2.842,-0.00427,-0.05463,-0.05173,-0.03372,-0.07004,-0.04379,-0.00244,0.01678,-0.04501,-0.02792,-0.05219,0.00656,-0.01358,-0.05997,-0.00839,-0.03799
2.8425,-0.00259,-0.05814,-0.04517,-0.02625,-0.05417,-0.04898,-0.00488,0.01022,-0.01694,-0.0264,-0.056,0.00687,-0.02884,-0.047,-0.02014,-0.03784
2.843,-0.00046,-0.05966,-0.03769,-0.01923,-0.03677,-0.05142,-0.0087,0.00244,0.01785,-0.02487,-0.05905,0.00931,-0.03281,-0.02502,-0.02396,-0.03494
2.8435,0.00122,-0.05981,-0.0322,-0.0145,-0.02029,-0.05112,-0.01572,-0.00519,0.04456,-0.02319,-0.05814,0.01068,-0.03128,-0.01068,-0.02151,-0.03281
2.844,0.00305,-0.05783,-0.02563,-0.01434,-0.00717,-0.04959,-0.02441,-0.01221,0.05859,-0.02197,-0.05295,0.00977,-0.03098,-0.00549,-0.01953,-0.03738
2.8445,0.0032,-0.05295,-0.01984,-0.01511,-0.00168,-0.04791,-0.03342,-0.02197,0.06195,-0.02213,-0.04517,0.00977,-0.03448,-0.00519,-0.01678,-0.04684
2.845,0.00336,-0.04669,-0.01495,-0.01572,-0.00168,-0.04837,-0.03891,-0.03418,0.05997,-0.02411,-0.03525,0.01236,-0.03769,-0.00671,-0.00961,-0.05417
2.8455,0.0029,-0.0412,-0.01282,-0.01541,0.00351,-0.04837,-0.0383,-0.04227,0.05432,-0.0267,-0.02167,0.01541,-0.03876,-0.00992,0.00473,-0.05341
2.846,0.00168,-0.03571,-0.01083,-0.01572,0.02243,-0.04898,-0.03387,-0.0444,0.04639,-0.02777,-0.00229,0.01724,-0.04181,-0.01572,0.02228,-0.047
2.8465,0.00015,-0.03159,-0.01022,-0.01678,0.0412,-0.04837,-0.03143,-0.04288,0.03769,-0.02792,0.01495,0.01648,-0.04608,-0.02289,0.03403,-0.04196
2.847,-0.00168,-0.02991,-0.0116,-0.0174,0.03647,-0.0473,-0.03357,-0.04501,0.02548,-0.02777,0.0206,0.00854,-0.04898,-0.03113,0.03571,-0.04074
2.8475,-0.00351,-0.03357,-0.01434,-0.01511,-0.00046,-0.04715,-0.0386,-0.04944,0.01175,-0.03067,0.01328,-0.00763,-0.0502,-0.03784,0.02731,-0.0412
2.848,-0.00488,-0.0386,-0.02182,-0.01404,-0.05722,-0.04852,-0.04608,-0.05005,0.00061,-0.03708,0.00214,-0.03235,-0.04669,-0.04349,0.01892,-0.04166
2.8485,-0.00504,-0.0444,-0.03143,-0.01328,-0.11871,-0.05188,-0.04776,-0.04333,-0.00946,-0.04135,0.00137,-0.06027,-0.03784,-0.04822,0.01221,-0.04013
2.849,-0.00259,-0.04898,-0.04181,-0.01053,-0.16129,-0.05432,-0.03616,-0.03372,-0.02579,-0.03845,0.01389,-0.0827,-0.02686,-0.05066,-0.00259,-0.03738
2.8495,0.00198,-0.05203,-0.05096,-0.00412,-0.1709,-0.05707,-0.01175,-0.0177,-0.05295,-0.03342,0.03098,-0.09003,-0.01709,-0.04715,-0.04318,-0.03372
2.85,0.00641,-0.05463,-0.05417,0.0029,-0.14465,-0.05661,0.00931,0.00671,-0.09308,-0.02914,0.03571,-0.07538,-0.01312,-0.03647,-0.1123,-0.03159
2.8505,0.00687,-0.05981,-0.05035,0.00656,-0.10422,-0.05325,0.01404,0.03082,-0.13443,-0.02899,0.0174,-0.04639,-0.01312,-0.02274,-0.18951,-0.03113
2.851,0.00259,-0.06454,-0.04089,0.00534,-0.0708,-0.04944,0.00595,0.04318,-0.15945,-0.03143,-0.01389,-0.02396,-0.01617,-0.01175,-0.224,-0.03098
2.8515,-0.00412,-0.06561,-0.03128,0.00259,-0.04486,-0.05005,-0.00351,0.03662,-0.15137,-0.03387,-0.04288,-0.0177,-0.0209,-0.00458,-0.17487,-0.03189
2.852,-0.01007,-0.06393,-0.02457,0.0,-0.02151,-0.05341,-0.01068,0.01938,-0.11505,-0.03647,-0.06104,-0.01022,-0.02686,-0.00031,-0.04486,-0.03448
2.8525,-0.01328,-0.06042,-0.02319,-0.00137,-0.00076,-0.05508,-0.02136,0.00504,-0.06927,-0.03632,-0.06897,0.02838,-0.03387,0.0061,0.10269,-0.03922
2.853,-0.01587,-0.0589,-0.02579,-0.00214,0.01541,-0.0528,-0.03403,-0.00137,-0.03098,-0.03342,-0.07034,0.09064,-0.03632,0.0174,0.18936,-0.04318
2.8535,-0.01816,-0.05768,-0.02914,-0.00443,0.02594,-0.04974,-0.04028,-0.00305,-0.00122,-0.02899,-0.06851,0.12253,-0.02884,0.0325,0.177,-0.04684
2.854,-0.0206,-0.0531,-0.03067,-0.01114,0.03387,-0.0499,-0.03708,-0.00595,0.02289,-0.02487,-0.06332,0.08682,-0.00977,0.03693,0.10117,-0.04913
2.8545,-0.02197,-0.04486,-0.02899,-0.02213,0.0351,-0.04974,-0.03052,-0.00931,0.03906,-0.02304,-0.05539,0.01602,0.0145,0.01785,0.03143,-0.05096
2.855,-0.0209,-0.03601,-0.02365,-0.03464,0.01343,-0.04761,-0.02533,-0.0119,0.04364,-0.02258,-0.04471,-0.02136,0.03113,-0.01755,0.00259,-0.0499
2.8555,-0.01801,-0.03143,-0.01907,-0.04669,-0.03906,-0.04684,-0.02167,-0.0148,0.04181,-0.02167,-0.03342,-0.00137,0.02975,-0.04181,0.00168,-0.04639
2.856,-0.01205,-0.03098,-0.01953,-0.05554,-0.0975,-0.04837,-0.01419,-0.01541,0.03815,-0.02258,-0.02518,0.03998,0.01083,-0.03616,0.00488,-0.04288
2.8565,-0.0029,-0.03036,-0.02304,-0.05905,-0.12299,-0.04974,-0.00031,-0.01328,0.03784,-0.02441,-0.02167,0.05981,-0.02136,-0.01221,0.00946,-0.04227
2.857,0.00732,-0.02762,-0.02869,-0.05646,-0.10239,-0.04837,0.01785,-0.0087,0.04044,-0.02899,-0.0209,0.05478,-0.06302,0.00168,0.02136,-0.0444
2.8575,0.01328,-0.02533,-0.03387,-0.05035,-0.05875,-0.04715,0.0325,-0.00656,0.04318,-0.03311,-0.0206,0.04349,-0.10269,-0.00275,0.03403,-0.04822
2.858,0.01221,-0.02548,-0.03723,-0.04211,-0.0264,-0.04974,0.03372,-0.00763,0.04333,-0.03357,-0.01709,0.03723,-0.11505,-0.01266,0.03494,-0.05051
2.8585,0.00793,-0.02762,-0.03922,-0.03464,-0.01556,-0.05142,0.0209,-0.01022,0.03952,-0.02899,-0.00839,0.02533,-0.09201,-0.01495,0.02808,-0.05005
2.859,0.00519,-0.03098,-0.03922,-0.03479,-0.0145,-0.05066,0.00397,-0.01282,0.03174,-0.02319,-0.00107,-0.00137,-0.05768,-0.01114,0.02579,-0.04868
2.8595,0.0032,-0.0351,-0.03784,-0.05524,-0.0119,-0.04929,-0.00565,-0.01419,0.01862,-0.01694,0.00214,-0.03784,-0.0412,-0.01053,0.03418,-0.0473
2.86,-0.00031,-0.03998,-0.03494,-0.09705,-0.00671,-0.04852,-0.00641,-0.01083,0.00549,-0.01114,-0.00214,-0.06378,-0.04105,-0.02197,0.04227,-0.04562
2.8605,-0.00336,-0.04608,-0.03479,-0.14038,-0.00458,-0.04807,-0.00565,-0.00671,-0.00397,-0.0061,-0.01007,-0.07187,-0.03952,-0.04349,0.04211,-0.04379
2.861,-0.00595,-0.05096,-0.03632,-0.1564,-0.01633,-0.04898,-0.00656,-0.00381,-0.00778,-0.00061,-0.01465,-0.07233,-0.03342,-0.06104,0.0325,-0.04333
2.8615,-0.00671,-0.05188,-0.03845,-0.12878,-0.04166,-0.05142,-0.00809,-0.00351,-0.00702,0.00504,-0.01495,-0.06805,-0.02792,-0.065,0.02151,-0.04288
2.862,-0.00748,-0.04944,-0.03983,-0.07034,-0.06622,-0.0531,-0.00885,-0.00381,-0.00519,0.00748,-0.01419,-0.05051,-0.02502,-0.05966,0.01678,-0.04074
2.8625,-0.01022,-0.04608,-0.04074,-0.00687,-0.06729,-0.05295,-0.01114,-0.00244,-0.00458,0.00473,-0.01297,-0.01678,-0.0238,-0.04807,0.01678,-0.03784
2.863,-0.01358,-0.04379,-0.04181,0.04517,-0.04852,-0.05157,-0.01389,-0.00168,-0.00778,0.00046,-0.01343,0.03113,-0.02716,-0.03189,0.0177,-0.03754
2.8635,-0.0174,-0.04303,-0.04181,0.09094,-0.03418,-0.05142,-0.01572,-0.00275,-0.01465,0.00198,-0.00687,0.08301,-0.03708,-0.01663,0.01694,-0.03784
2.864,-0.02243,-0.04471,-0.03998,0.13702,-0.03906,-0.05219,-0.01633,-0.00549,-0.02228,0.00992,0.02502,0.11108,-0.04868,-0.00992,0.01617,-0.03708
2.8645,-0.02808,-0.04837,-0.03616,0.16098,-0.05585,-0.05249,-0.01801,-0.00763,-0.02792,0.01877,0.08331,0.08469,-0.056,-0.01328,0.0177,-0.0354
2.865,-0.03052,-0.05432,-0.03311,0.12939,-0.06897,-0.04959,-0.02014,-0.0061,-0.02991,0.01984,0.12772,0.0116,-0.0563,-0.01862,0.01724,-0.03479
2.8655,-0.0267,-0.05875,-0.03204,0.05478,-0.06653,-0.04593,-0.02136,-0.00259,-0.03036,0.01312,0.11536,-0.05692,-0.05005,-0.02106,0.01282,-0.03738
2.866,-0.02014,-0.0618,-0.03326,-0.00061,-0.0473,-0.0444,-0.02014,0.00076,-0.03082,0.00153,0.05356,-0.08179,-0.03708,-0.01999,0.00793,-0.03845
2.8665,-0.01556,-0.06119,-0.03204,0.00229,-0.02106,-0.04623,-0.01617,0.00229,-0.03067,-0.00748,-0.00992,-0.07004,-0.0119,-0.01602,0.00519,-0.03815
2.867,-0.01236,-0.05859,-0.03159,0.03448,-0.00259,-0.05005,-0.01068,0.00381,-0.03036,-0.01251,-0.04745,-0.04944,0.02151,-0.01144,0.00504,-0.03784
2.8675,-0.00931,-0.05447,-0.03296,0.04272,0.00671,-0.0531,-0.00961,0.00427,-0.0325,-0.01617,-0.06317,-0.03403,0.04761,-0.01114,0.00259,-0.03967
2.868,-0.00671,-0.04822,-0.03525,0.01221,0.01602,-0.05295,-0.01328,0.00351,-0.03769,-0.02197,-0.07156,-0.02319,0.04959,-0.0145,-0.00153,-0.04227
2.8685,-0.00549,-0.04211,-0.03723,-0.02975,0.03204,-0.04883,-0.01877,0.00092,-0.04303,-0.02777,-0.07599,-0.01251,0.02441,-0.01541,-0.00992,-0.04211
2.869,-0.00488,-0.03799,-0.03693,-0.0563,0.04944,-0.04547,-0.02121,-0.00229,-0.04379,-0.03326,-0.07278,0.00824,-0.01801,-0.01389,-0.01953,-0.04135
2.8695,-0.00305,-0.03601,-0.03342,-0.05142,0.05722,-0.04578,-0.02106,-0.0029,-0.03998,-0.03494,-0.06348,0.03876,-0.06256,-0.01709,-0.02701,-0.0415
2.87,-0.00092,-0.03616,-0.0322,-0.0029,0.05157,-0.04715,-0.0209,-0.00061,-0.03632,-0.03311,-0.05371,0.05508,-0.09705,-0.02823,-0.03082,-0.0444
2.8705,-0.00153,-0.03708,-0.03677,0.08255,0.04288,-0.04715,-0.02106,0.00229,-0.0325,-0.0322,-0.04944,0.03586,-0.11627,-0.04166,-0.02991,-0.04486
2.871,-0.00488,-0.03998,-0.04456,0.16235,0.04364,-0.04486,-0.01923,0.00427,-0.02747,-0.03448,-0.05081,-0.0058,-0.12207,-0.05203,-0.02975,-0.04379
2.8715,-0.00946,-0.04303,-0.04883,0.18753,0.05402,-0.04501,-0.01633,0.00488,-0.02014,-0.04135,-0.05356,-0.03555,-0.1088,-0.05661,-0.03281,-0.04318
2.872,-0.01144,-0.04578,-0.0473,0.14252,0.05661,-0.04959,-0.01556,0.00366,-0.01236,-0.04837,-0.05295,-0.03525,-0.0795,-0.05386,-0.04028,-0.04456
2.8725,-0.00809,-0.04547,-0.04303,0.05112,0.03738,-0.05463,-0.01785,0.00336,-0.00549,-0.05295,-0.04425,-0.02106,-0.05569,-0.04288,-0.03845,-0.04715
2.873,-0.00137,-0.04318,-0.03998,-0.05951,0.00015,-0.0563,-0.02029,0.00412,-0.00107,-0.0528,-0.03281,-0.00549,-0.05173,-0.03067,-0.00443,-0.04791
2.8735,0.00351,-0.04196,-0.03967,-0.16632,-0.04059,-0.05508,-0.02029,0.00626,-0.00214,-0.04913,-0.02319,0.02014,-0.05402,-0.0238,0.07339,-0.04593
2.874,0.0032,-0.04349,-0.03998,-0.24857,-0.07797,-0.05249,-0.01801,0.01022,-0.01007,-0.04364,-0.0148,0.06989,-0.04456,-0.0238,0.1593,-0.04211
2.8745,0.00015,-0.04456,-0.03891,-0.29892,-0.1123,-0.05203,-0.01556,0.01541,-0.01846,-0.03662,-0.00763,0.12283,-0.02731,-0.02502,0.18829,-0.03906
2.875,-0.00168,-0.04593,-0.03571,-0.30304,-0.14481,-0.05096,-0.01495,0.01907,-0.02121,-0.02945,-0.00275,0.13687,-0.01663,-0.0209,0.1297,-0.03922
2.8755,-0.00046,-0.04761,-0.03387,-0.22858,-0.18005,-0.05188,-0.01511,0.01816,-0.01877,-0.0235,-0.00351,0.09354,-0.02365,-0.01129,0.02625,-0.04105
2.876,0.00275,-0.04974,-0.03296,-0.07492,-0.21179,-0.05096,-0.01587,0.01236,-0.01266,-0.01938,-0.00504,0.02533,-0.04944,0.00153,-0.06027,-0.04272
2.8765,0.00702,-0.04898,-0.03235,0.08362,-0.22232,-0.0499,-0.01526,0.00366,-0.00549,-0.01617,-0.00092,-0.01892,-0.08408,0.01297,-0.09857,-0.04471
2.877,0.00809,-0.04364,-0.02991,0.16052,-0.20279,-0.04791,-0.01282,-0.00656,-0.00137,-0.01465,0.01434,-0.02258,-0.09918,0.0209,-0.09689,-0.04517
2.8775,0.00748,-0.03738,-0.02686,0.14221,-0.1564,-0.04684,-0.00992,-0.02106,-0.0058,-0.01495,0.03387,0.00168,-0.07645,0.02411,-0.07217,-0.04486
2.878,0.00488,-0.03082,-0.02518,0.08408,-0.10544,-0.04547,-0.00824,-0.04242,-0.02075,-0.01755,0.04379,0.03525,-0.03372,0.02197,-0.04227,-0.0441
2.8785,0.00229,-0.02502,-0.02579,0.03998,-0.06653,-0.04547,-0.00931,-0.06516,-0.03616,-0.02655,0.03433,0.05936,-0.00244,0.0177,-0.01984,-0.04364
2.879,-0.00168,-0.02121,-0.02594,0.02075,-0.04532,-0.04623,-0.00961,-0.07736,-0.03525,-0.04181,0.01205,0.04868,0.00687,0.0148,0.00061,-0.04196
2.8795,-0.00626,-0.02136,-0.02228,0.0032,-0.03571,-0.04669,-0.009,-0.07523,-0.01434,-0.05325,-0.01053,-0.00443,0.00504,0.01892,0.03845,-0.04013
2.88,-0.01038,-0.02319,-0.0209,-0.0206,-0.02899,-0.04761,-0.01099,-0.06592,0.01053,-0.05432,-0.02563,-0.07538,0.00595,0.03159,0.08835,-0.03784
2.8805,-0.01175,-0.02533,-0.0235,-0.03784,-0.02289,-0.05005,-0.01709,-0.04654,0.01953,-0.04639,-0.03326,-0.12527,0.00702,0.05402,0.10925,-0.03769
2.881,-0.00992,-0.02747,-0.02777,-0.03326,-0.0209,-0.0531,-0.02151,0.0,0.01343,-0.03616,-0.03647,-0.14297,-0.00275,0.07217,0.07294,-0.03952
2.8815,-0.00717,-0.02808,-0.02945,-0.01602,-0.02441,-0.05493,-0.02136,0.065,0.00565,-0.02716,-0.03983,-0.14313,-0.03677,0.05875,0.00687,-0.04105
2.882,-0.00534,-0.02655,-0.02914,-0.00412,-0.0296,-0.05508,-0.02151,0.1062,0.0029,-0.01846,-0.04227,-0.13519,-0.08194,-0.00763,-0.04395,-0.04166
2.8825,-0.0058,-0.02777,-0.0322,-0.00015,-0.02853,-0.05386,-0.02853,0.09491,0.00214,-0.00931,-0.04089,-0.12634,-0.09552,-0.10529,-0.05859,-0.04257
2.883,-0.00763,-0.03235,-0.03922,0.00504,-0.02289,-0.0531,-0.03799,0.05386,-0.00275,-0.00015,-0.03448,-0.12299,-0.06012,-0.16708,-0.05096,-0.04456
2.8835,-0.00885,-0.0383,-0.04852,0.0148,-0.01862,-0.05325,-0.04105,0.02441,-0.01083,0.00687,-0.02625,-0.1149,-0.01175,-0.15182,-0.04211,-0.047
2.884,-0.00717,-0.03983,-0.05478,0.02411,-0.01755,-0.05157,-0.0351,0.02121,-0.01862,0.01068,-0.02228,-0.0769,0.00198,-0.08499,-0.03967,-0.04837
2.8845,-0.00183,-0.0383,-0.056,0.02777,-0.01694,-0.04745,-0.02792,0.02686,-0.02167,0.01144,-0.02136,-0.00076,-0.01434,-0.02563,-0.03326,-0.04684
2.885,0.00259,-0.03723,-0.05157,0.02563,-0.01556,-0.0441,-0.02274,0.02594,-0.02274,0.01083,-0.02319,0.08362,-0.02747,0.0,-0.0029,-0.04639
2.8855,0.00427,-0.03922,-0.04517,0.02319,-0.0148,-0.04532,-0.01907,0.01801,-0.02274,0.0116,-0.02472,0.13214,-0.01678,0.00641,0.05615,-0.04623
2.886,0.00275,-0.04227,-0.04166,0.02243,-0.01419,-0.04837,-0.01541,0.00916,-0.02136,0.01205,-0.02243,0.12482,0.00259,0.00931,0.10773,-0.0441
2.8865,0.00168,-0.04196,-0.04028,0.01984,-0.01312,-0.04669,-0.01373,0.00198,-0.01724,0.01022,-0.01846,0.0798,0.009,0.00259,0.10681,-0.04059
2.887,0.00183,-0.04089,-0.03876,0.00885,-0.01114,-0.04089,-0.01526,0.0,-0.01251,0.00671,-0.01358,0.03296,-0.00763,-0.02426,0.05447,-0.03998
2.8875,0.00107,-0.03876,-0.03616,-0.01831,-0.00992,-0.03647,-0.01709,-0.00046,-0.01205,0.00198,-0.00824,0.00992,-0.04028,-0.06104,-0.00443,-0.04288
2.888,-0.00015,-0.03616,-0.03555,-0.06485,-0.00885,-0.03632,-0.01617,-0.00153,-0.0177,0.00031,-0.00549,0.01083,-0.07492,-0.08636,-0.03311,-0.04639
2.8885,-0.00061,-0.03311,-0.03357,-0.12314,-0.00839,-0.0386,-0.01343,-0.00351,-0.02472,-0.00031,-0.00687,0.01175,-0.09964,-0.08698,-0.03357,-0.04623
2.889,-0.00122,-0.03281,-0.0296,-0.16739,-0.00595,-0.03738,-0.01022,-0.00656,-0.02914,-0.00092,-0.01328,-0.01312,-0.10117,-0.07294,-0.01892,-0.04425
2.8895,-0.00153,-0.03662,-0.02686,-0.17303,-0.00229,-0.03403,-0.00839,-0.00778,-0.03311,-0.00595,-0.01923,-0.06912,-0.07492,-0.05463,0.00397,-0.04318
2.89,-0.00168,-0.04181,-0.02609,-0.14359,0.0029,-0.03387,-0.00641,-0.00793,-0.03662,-0.01495,-0.01755,-0.13321,-0.03616,-0.03296,0.03372,-0.04227
2.8905,-0.00137,-0.04425,-0.02747,-0.10025,0.0058,-0.03738,-0.00641,-0.00671,-0.03693,-0.02121,-0.00671,-0.16174,-0.00992,-0.00229,0.0766,-0.04211
2.891,-0.00244,-0.04486,-0.02899,-0.06042,0.00687,-0.03891,-0.00916,-0.00519,-0.03113,-0.02197,0.0087,-0.12085,-0.00778,0.03128,0.12848,-0.04196
2.8915,-0.0058,-0.04395,-0.02991,-0.02106,0.00809,-0.04013,-0.01495,-0.0029,-0.02151,-0.0174,0.02029,-0.02319,-0.02075,0.05264,0.15961,-0.04013
2.892,-0.01022,-0.04288,-0.03174,0.01999,0.01068,-0.04059,-0.01923,-0.00183,-0.0148,-0.01251,0.02106,0.08209,-0.03189,0.04196,0.13931,-0.03937
2.8925,-0.0148,-0.04181,-0.03342,0.05768,0.01556,-0.04333,-0.01785,-0.00229,-0.01144,-0.01236,0.01312,0.1416,-0.03281,-0.0029,0.08102,-0.03967
2.893,-0.0174,-0.04242,-0.03448,0.07202,0.01907,-0.04562,-0.01205,-0.00244,-0.0119,-0.01541,0.00641,0.12772,-0.02625,-0.05615,0.02853,-0.04242
2.8935,-0.01678,-0.04395,-0.03632,0.03937,0.01709,-0.04684,-0.00687,-0.00244,-0.01678,-0.01846,0.00687,0.05264,-0.01556,-0.08072,0.00488,-0.04379
2.894,-0.01297,-0.04333,-0.03754,-0.04196,0.01053,-0.04593,-0.00458,-0.00168,-0.02365,-0.01877,0.0119,-0.0296,-0.00885,-0.06561,-0.00168,-0.04272
2.8945,-0.009,-0.03998,-0.03815,-0.11551,0.00076,-0.04532,-0.00427,-0.00061,-0.02838,-0.01663,0.01511,-0.06821,-0.00702,-0.03616,-0.00626,-0.03983
2.895,-0.00748,-0.03433,-0.03723,-0.10757,-0.0116,-0.04623,-0.00366,0.00092,-0.02563,-0.01495,0.01236,-0.06058,-0.01251,-0.02319,-0.009,-0.03845
2.8955,-0.00656,-0.03036,-0.0386,-0.0145,-0.02686,-0.04715,-0.00412,0.00046,-0.01587,-0.01602,0.00229,-0.03128,-0.02258,-0.02579,-0.00992,-0.03906
2.896,-0.00504,-0.03082,-0.04135,0.0914,-0.03952,-0.04623,-0.00519,-0.00305,-0.00534,-0.01862,-0.01236,0.00687,-0.03128,-0.02655,-0.01038,-0.04028
2.8965,-0.00336,-0.03342,-0.04303,0.14725,-0.04272,-0.04395,-0.00656,-0.00916,0.00229,-0.02197,-0.02548,0.06149,-0.03204,-0.02167,-0.01251,-0.04135
2.897,-0.00305,-0.03769,-0.04364,0.14938,-0.03342,-0.04196,-0.00809,-0.01328,0.00473,-0.02853,-0.03174,0.1236,-0.02625,-0.01907,-0.01495,-0.04196
2.8975,-0.00381,-0.0415,-0.04303,0.1265,-0.01801,-0.04028,-0.01236,-0.01389,-0.00153,-0.03616,-0.02899,0.16556,-0.02319,-0.02136,-0.01556,-0.04257
2.898,-0.00504,-0.04486,-0.04349,0.09018,-0.00015,-0.03922,-0.01526,-0.01038,-0.01678,-0.04242,-0.02106,0.16159,-0.0238,-0.02457,-0.01587,-0.0444
2.8985,-0.00443,-0.04791,-0.04227,0.04242,0.01266,-0.03906,-0.01678,-0.00214,-0.03433,-0.04303,-0.01648,0.10712,-0.02365,-0.02457,-0.01678,-0.04456
2.899,-0.00305,-0.04868,-0.04181,-0.00488,0.02121,-0.03967,-0.01678,0.00763,-0.04486,-0.03952,-0.01663,0.0293,-0.02243,-0.02243,-0.01801,-0.04288
2.8995,-0.00259,-0.04837,-0.04044,-0.02731,0.02777,-0.04013,-0.01648,0.0087,-0.04639,-0.03571,-0.0177,-0.02304,-0.02304,-0.01755,-0.0177,-0.0383
2.9,-0.00458,-0.04593,-0.03906,-0.02029,0.03052,-0.03815,-0.01434,-0.01099,-0.04623,-0.03296,-0.01633,-0.01633,-0.02686,-0.01114,-0.01511,-0.0351
2.9005,-0.00656,-0.04364,-0.03769,-0.00366,0.03036,-0.03647,-0.01251,-0.05173,-0.04822,-0.03143,-0.01587,0.02792,-0.03143,-0.00717,-0.01389,-0.03479
2.901,-0.00778,-0.04196,-0.03632,0.0032,0.02472,-0.03632,-0.0148,-0.08636,-0.05203,-0.03128,-0.01801,0.05493,-0.03174,-0.00702,-0.01358,-0.03723
2.9015,-0.00702,-0.04242,-0.03555,-0.00046,0.00931,-0.0386,-0.02075,-0.08255,-0.05478,-0.03052,-0.01999,0.04166,-0.02838,-0.00336,-0.01328,-0.03998
2.902,-0.00839,-0.04349,-0.03326,-0.00671,-0.02411,-0.04059,-0.0235,-0.04608,-0.0618,-0.02899,-0.01801,0.01465,-0.0235,0.00992,-0.01328,-0.04257
2.9025,-0.01144,-0.04395,-0.0322,-0.0119,-0.0798,-0.04272,-0.02121,-0.02594,-0.07843,-0.02792,-0.01221,0.00122,-0.01801,0.02975,-0.01312,-0.04532
2.903,-0.01404,-0.04288,-0.02975,-0.01694,-0.13947,-0.04593,-0.01755,-0.05844,-0.10101,-0.03143,-0.00626,-0.00595,-0.01465,0.03998,-0.01404,-0.04761
2.9035,-0.0145,-0.04242,-0.02792,-0.02548,-0.16571,-0.04959,-0.01801,-0.11581,-0.112,-0.04318,-0.00351,-0.02914,-0.01328,0.02563,-0.01328,-0.04654
2.904,-0.01404,-0.04318,-0.02625,-0.03693,-0.14069,-0.05295,-0.02258,-0.13168,-0.10254,-0.06378,-0.00259,-0.06805,-0.01343,-0.01053,-0.01083,-0.04272
2.9045,-0.01495,-0.04349,-0.02609,-0.04852,-0.09567,-0.05432,-0.02686,-0.07248,-0.08179,-0.08423,0.00244,-0.10422,-0.01389,-0.04257,-0.00824,-0.04028
2.905,-0.01831,-0.04272,-0.02853,-0.05661,-0.07324,-0.05539,-0.0264,0.02228,-0.05859,-0.08942,0.01389,-0.11993,-0.01617,-0.04578,-0.00717,-0.0412
2.9055,-0.01923,-0.03998,-0.03357,-0.06027,-0.07721,-0.05478,-0.01373,0.08774,-0.03098,-0.07507,0.0264,-0.11154,-0.02106,-0.02426,-0.00809,-0.04272
2.906,-0.01709,-0.03693,-0.03937,-0.0621,-0.08072,-0.05447,0.00961,0.10132,0.00275,-0.04974,0.03159,-0.08209,-0.02548,-0.00595,-0.00839,-0.04288
2.9065,-0.01389,-0.03677,-0.04242,-0.0647,-0.0708,-0.0531,0.02823,0.08621,0.0325,-0.02441,0.02625,-0.03662,-0.02762,-0.00275,-0.00717,-0.0444
2.907,-0.01083,-0.03906,-0.04196,-0.06363,-0.05569,-0.05386,0.02701,0.0621,0.04929,-0.00336,0.01663,0.01328,-0.02518,-0.009,-0.00641,-0.04471
2.9075,-0.0061,-0.04303,-0.0412,-0.05829,-0.04318,-0.05478,0.00748,0.03189,0.05325,0.01358,0.00732,0.04684,-0.01968,-0.01221,-0.0061,-0.04425
2.908,-0.00076,-0.04715,-0.04166,-0.0499,-0.03204,-0.05524,-0.01266,-0.00107,0.05157,0.02838,-0.00076,0.04623,-0.01556,-0.009,-0.0032,-0.0441
2.9085,0.00122,-0.05142,-0.04288,-0.04196,-0.0177,-0.0531,-0.02533,-0.02579,0.0473,0.03815,-0.009,0.01633,-0.01328,-0.00732,-0.00046,-0.04333
2.909,0.00031,-0.05478,-0.04181,-0.03342,-0.00214,-0.0502,-0.03372,-0.03326,0.04044,0.04059,-0.01526,-0.0174,-0.01221,-0.00977,0.0,-0.04288
2.9095,-0.00015,-0.05478,-0.03616,-0.02304,0.01556,-0.04654,-0.0383,-0.02609,0.03281,0.03708,-0.02136,-0.03464,-0.009,-0.01434,-0.00183,-0.04166
2.91,0.00198,-0.05295,-0.02914,-0.01038,0.04059,-0.0444,-0.03571,-0.01114,0.02762,0.03235,-0.03067,-0.03479,-0.00092,-0.01434,-0.00153,-0.0412
2.9105,0.00458,-0.05051,-0.02579,-0.00305,0.065,-0.04349,-0.02853,0.0058,0.0264,0.02411,-0.04395,-0.02823,0.01022,-0.00992,0.00183,-0.04166
2.911,0.00412,-0.04898,-0.02563,-0.00473,0.07385,-0.04318,-0.02502,0.02945,0.02548,0.01587,-0.056,-0.01801,0.01953,-0.00366,0.00351,-0.04242
2.9115,0.00122,-0.04562,-0.02502,-0.01541,0.06195,-0.0444,-0.02747,0.05981,0.01862,0.00641,-0.06073,-0.00412,0.01572,0.0,-0.00076,-0.04242
2.912,-0.00076,-0.04257,-0.02289,-0.02411,0.04425,-0.04501,-0.03143,0.08224,0.00885,-0.00198,-0.05753,0.0087,-0.01221,0.00015,-0.01114,-0.04242
2.9125,-0.00122,-0.04166,-0.02121,-0.02151,0.03159,-0.04349,-0.0293,0.08179,0.00137,-0.01312,-0.05371,0.01236,-0.05692,0.00229,-0.02136,-0.04349
2.913,-0.00244,-0.0415,-0.01999,-0.00519,0.00717,-0.04257,-0.01816,0.06256,-0.00015,-0.03006,-0.05493,-0.00015,-0.09384,0.00687,-0.02487,-0.04379
2.9135,-0.00778,-0.03952,-0.02167,0.01724,-0.05295,-0.04623,-0.0032,0.04181,0.00076,-0.04837,-0.0589,-0.02853,-0.10742,0.01175,-0.01678,-0.0444
2.914,-0.01694,-0.03586,-0.02411,0.03403,-0.14526,-0.05173,0.00839,0.02792,-0.00656,-0.056,-0.0592,-0.06088,-0.10513,0.01755,-0.00214,-0.04456
2.9145,-0.02396,-0.03342,-0.02899,0.03723,-0.22415,-0.05585,0.01099,0.01175,-0.02411,-0.04898,-0.05432,-0.08698,-0.0972,0.02197,0.0087,-0.04501
2.915,-0.02457,-0.03677,-0.03235,0.02762,-0.23788,-0.0563,0.0061,-0.01572,-0.03891,-0.03494,-0.04639,-0.10376,-0.07889,0.01831,0.01083,-0.0444
2.9155,-0.0206,-0.04364,-0.03571,0.0116,-0.18707,-0.05478,0.00031,-0.05188,-0.03815,-0.02213,-0.03586,-0.11383,-0.05112,-0.00702,0.00778,-0.04333
2.916,-0.01602,-0.04868,-0.03632,-0.00656,-0.11307,-0.0528,-0.00076,-0.07919,-0.02975,-0.01068,-0.0238,-0.10315,-0.02716,-0.05341,0.00595,-0.04166
2.9165,-0.01038,-0.0499,-0.03662,-0.02808,-0.05844,-0.05005,-0.00259,-0.08499,-0.02457,-0.00031,-0.01053,-0.0499,-0.01694,-0.09491,0.0058,-0.04105
2.917,-0.00397,-0.04776,-0.03571,-0.04517,-0.02975,-0.04684,-0.00946,-0.07141,-0.02136,0.00885,-0.00214,0.0444,-0.0119,-0.10269,0.00458,-0.04181
2.9175,0.00137,-0.0444,-0.0354,-0.0528,-0.0119,-0.04333,-0.01556,-0.04929,-0.00839,0.0145,-0.00046,0.13977,-0.00641,-0.07446,-0.00046,-0.04196
2.918,0.00397,-0.0412,-0.03433,-0.04944,0.00534,-0.04089,-0.01678,-0.02487,0.0119,0.01648,-0.00183,0.18875,-0.01114,-0.03235,-0.00839,-0.04059
2.9185,0.00443,-0.04089,-0.03311,-0.03967,0.01785,-0.04105,-0.01297,0.00214,0.02686,0.01465,-0.00076,0.17776,-0.03204,0.00549,-0.01221,-0.03922
2.919,0.00565,-0.04456,-0.03159,-0.02792,0.01938,-0.04425,-0.01328,0.03006,0.02853,0.00977,0.00381,0.11932,-0.05112,0.03616,-0.0119,-0.03922
2.9195,0.00839,-0.05005,-0.03098,-0.01358,0.009,-0.047,-0.02121,0.05203,0.02167,0.00549,0.00839,0.04929,-0.0444,0.06195,-0.00488,-0.03952
2.92,0.01007,-0.0531,-0.03235,-0.00534,-0.01892,-0.04761,-0.03265,0.05936,0.01465,0.00122,0.00793,0.00412,-0.02045,0.07462,0.00534,-0.03876
2.9205,0.01007,-0.05234,-0.03616,-0.02014,-0.0769,-0.04761,-0.04227,0.04913,0.00977,-0.0032,-0.00031,0.00229,-0.01022,0.05402,0.01587,-0.03876
2.921,0.00854,-0.05264,-0.04166,-0.06561,-0.14511,-0.04623,-0.04608,0.03082,0.00916,-0.00824,-0.01205,0.03235,-0.02823,-0.00702,0.0206,-0.03983
2.9215,0.00519,-0.05249,-0.04776,-0.12375,-0.17212,-0.04532,-0.04272,0.01785,0.00961,-0.01419,-0.02014,0.06577,-0.05936,-0.0766,0.02533,-0.04089
2.922,-0.00015,-0.05219,-0.05066,-0.15945,-0.13351,-0.04333,-0.03448,0.01205,0.00824,-0.02045,-0.02075,0.07584,-0.07721,-0.10529,0.04044,-0.04059
2.9225,-0.00534,-0.047,-0.04898,-0.15121,-0.06668,-0.0383,-0.02655,0.00763,0.00046,-0.02594,-0.01923,0.05157,-0.07507,-0.08408,0.05997,-0.03983
2.923,-0.00824,-0.04135,-0.04456,-0.10422,-0.02426,-0.03311,-0.01846,0.00046,-0.01038,-0.02853,-0.01816,0.01373,-0.06927,-0.05203,0.0621,-0.03983
2.9235,-0.00946,-0.03448,-0.04074,-0.03723,-0.01541,-0.03296,-0.00839,-0.00427,-0.01862,-0.0293,-0.01587,-0.00412,-0.07477,-0.04776,0.03555,-0.04181
2.924,-0.00839,-0.02747,-0.03815,0.03784,-0.01755,-0.03891,0.00519,-0.00626,-0.02136,-0.02853,-0.01144,0.00519,-0.08347,-0.06058,0.00076,-0.04486
2.9245,-0.00412,-0.02167,-0.03586,0.1207,-0.01831,-0.04349,0.01953,-0.00885,-0.02106,-0.02808,-0.00656,0.01495,-0.08118,-0.05524,-0.0148,-0.04532
2.925,0.00076,-0.01694,-0.03143,0.19394,-0.0206,-0.0441,0.03494,-0.01175,-0.02167,-0.02884,-0.00443,0.00671,-0.06744,-0.01968,-0.009,-0.04303
2.9255,0.00336,-0.01282,-0.0267,0.21454,-0.0209,-0.04379,0.05096,-0.01373,-0.02045,-0.03067,-0.00793,-0.0061,-0.05402,0.01984,0.00168,-0.04166
2.926,0.0029,-0.00778,-0.02136,0.16312,-0.01373,-0.04684,0.05951,-0.01266,-0.01526,-0.03159,-0.01694,-0.00687,-0.04578,0.02914,0.00412,-0.04333
2.9265,-0.00122,-0.00763,-0.01846,0.08194,-0.00397,-0.05219,0.05707,-0.01114,-0.00824,-0.03067,-0.0267,0.00214,-0.03723,-0.00092,-0.00092,-0.04456
2.927,-0.00534,-0.01434,-0.01709,0.03098,-0.00473,-0.05661,0.04868,-0.01007,-0.00473,-0.02899,-0.02975,0.00351,-0.02792,-0.03967,-0.00839,-0.04456
2.9275,-0.00809,-0.02609,-0.01678,0.02258,-0.01953,-0.05814,0.04257,-0.01129,-0.00626,-0.02716,-0.01953,-0.00214,-0.02411,-0.05157,-0.01251,-0.04349
2.928,-0.009,-0.03616,-0.01602,0.02335,-0.03571,-0.05844,0.03769,-0.02213,-0.00793,-0.02625,-0.00183,-0.00793,-0.02701,-0.04425,-0.0116,-0.04288
2.9285,-0.00916,-0.04272,-0.01633,0.01144,-0.04028,-0.05753,0.0206,-0.04593,-0.01053,-0.02777,0.01495,-0.00549,-0.03113,-0.04776,-0.00214,-0.04288
2.929,-0.0087,-0.04562,-0.01709,-0.00443,-0.03281,-0.05585,-0.01587,-0.06989,-0.0148,-0.02777,0.02304,0.00366,-0.03204,-0.05875,0.01007,-0.04395
2.9295,-0.00671,-0.04776,-0.02014,-0.01083,-0.02258,-0.05554,-0.05814,-0.07843,-0.02274,-0.02609,0.02075,0.01938,-0.02808,-0.05081,0.0209,-0.04395
2.93,-0.00565,-0.05081,-0.02502,-0.01038,-0.01617,-0.05661,-0.07919,-0.06836,-0.03082,-0.02121,0.01434,0.04471,-0.02274,-0.0386,0.02075,-0.04364
2.9305,-0.00534,-0.05447,-0.03204,-0.00992,-0.01099,-0.05692,-0.06805,-0.0499,-0.03784,-0.01678,0.0032,0.07889,-0.01785,-0.06897,0.00626,-0.0415
2.931,-0.00671,-0.05798,-0.03799,-0.01068,-0.00183,-0.05493,-0.04425,-0.02686,-0.04486,-0.01785,-0.00946,0.10803,-0.01465,-0.14145,-0.01328,-0.03906
2.9315,-0.00992,-0.06073,-0.04196,-0.009,0.01053,-0.05295,-0.0386,0.0058,-0.05417,-0.0209,-0.02243,0.112,-0.01282,-0.18646,-0.02701,-0.03784
2.932,-0.01373,-0.06073,-0.04486,-0.00488,0.02518,-0.05203,-0.05829,0.04318,-0.06592,-0.02335,-0.03265,0.07278,-0.00931,-0.15427,-0.02151,-0.0383
2.9325,-0.01709,-0.05981,-0.04791,0.00015,0.03998,-0.05295,-0.08514,0.06287,-0.07462,-0.02487,-0.0383,-0.00702,-0.00275,-0.07721,0.00992,-0.04059
2.933,-0.01694,-0.05798,-0.04929,0.00488,0.05157,-0.05493,-0.10223,0.04745,-0.07187,-0.0238,-0.04181,-0.09781,0.00626,-0.02457,0.04761,-0.04303
2.9335,-0.01617,-0.05432,-0.04776,0.0087,0.05463,-0.05508,-0.10651,0.01175,-0.05875,-0.0238,-0.04532,-0.15198,0.01251,-0.01678,0.06104,-0.04318
2.934,-0.01511,-0.04776,-0.04364,0.00748,0.04303,-0.05142,-0.09644,-0.0119,-0.04562,-0.02563,-0.04608,-0.14908,0.01205,-0.02106,0.03876,-0.04227
2.9345,-0.01404,-0.03815,-0.04074,0.00458,0.01236,-0.04715,-0.06439,-0.01022,-0.03998,-0.02884,-0.04547,-0.12344,0.00839,-0.00961,0.01099,-0.04105
2.935,-0.01328,-0.02838,-0.03922,0.00595,-0.02975,-0.04486,-0.01816,-0.00046,-0.04501,-0.03174,-0.04684,-0.11902,0.00122,0.01343,0.00992,-0.0441
2.9355,-0.01251,-0.02136,-0.03937,0.01389,-0.06485,-0.04425,0.01755,-0.0029,-0.05508,-0.03235,-0.05219,-0.13519,-0.01297,0.03662,0.03448,-0.04868
2.936,-0.01282,-0.01923,-0.03815,0.02167,-0.07904,-0.04318,0.02472,-0.01831,-0.06149,-0.03098,-0.05356,-0.14389,-0.03937,0.05219,0.05508,-0.05081
2.9365,-0.01389,-0.02335,-0.03769,0.01877,-0.07248,-0.04211,0.00595,-0.03143,-0.05585,-0.02808,-0.04395,-0.12955,-0.06577,0.05356,0.05157,-0.04761
2.937,-0.01541,-0.02945,-0.03647,0.00626,-0.04486,-0.04242,-0.01282,-0.03021,-0.03448,-0.02304,-0.02182,-0.09491,-0.07187,0.0322,0.03403,-0.04395
2.9375,-0.01511,-0.03342,-0.03326,-0.00793,0.00168,-0.04349,-0.00961,-0.01617,-0.00946,-0.01602,0.00977,-0.04272,-0.0528,-0.00656,0.02075,-0.04318
2.938,-0.01144,-0.03281,-0.03143,-0.01663,0.05035,-0.04257,0.01373,0.00397,0.00519,-0.01312,0.03815,0.02533,-0.0296,-0.04196,0.01633,-0.04272
2.9385,-0.00595,-0.03113,-0.03067,-0.0238,0.07813,-0.0383,0.0354,0.02319,0.00351,-0.01328,0.04974,0.09171,-0.02441,-0.05936,0.01389,-0.04227
2.939,-0.0032,-0.02899,-0.03113,-0.03113,0.08408,-0.03662,0.03647,0.03021,-0.00549,-0.01724,0.04166,0.12711,-0.03708,-0.05615,0.00839,-0.04089
2.9395,-0.00351,-0.0293,-0.02975,-0.03387,0.06149,-0.04013,0.02151,0.01755,-0.01373,-0.02182,0.02655,0.11673,-0.05142,-0.03937,0.00259,-0.04044
2.94,-0.0061,-0.03296,-0.03174,-0.03159,0.0061,-0.04654,0.00626,-0.00809,-0.01678,-0.02579,0.01678,0.07736,-0.05615,-0.02167,-0.00153,-0.04135
2.9405,-0.00778,-0.03784,-0.03571,-0.03891,-0.07751,-0.05356,-0.00397,-0.03098,-0.0209,-0.02777,0.01404,0.04044,-0.05447,-0.01175,-0.00549,-0.04242
2.941,-0.00748,-0.04242,-0.03845,-0.06775,-0.15411,-0.05585,-0.01205,-0.03891,-0.03006,-0.02747,0.0145,0.01572,-0.04883,-0.00992,-0.01328,-0.0444
2.9415,-0.00641,-0.04608,-0.04105,-0.1033,-0.18921,-0.05447,-0.02029,-0.03784,-0.04105,-0.02792,0.02838,-0.0029,-0.04196,-0.00992,-0.02609,-0.04501
2.942,-0.00427,-0.05173,-0.04013,-0.11856,-0.18158,-0.0528,-0.0296,-0.03708,-0.04501,-0.03006,0.06302,-0.01541,-0.03448,-0.00977,-0.03616,-0.04562
2.9425,-0.00336,-0.05737,-0.03891,-0.11108,-0.14984,-0.05447,-0.03738,-0.03754,-0.0412,-0.03174,0.09903,-0.01678,-0.02792,-0.00916,-0.04395,-0.04486
2.943,-0.0032,-0.05981,-0.03723,-0.09125,-0.1088,-0.05737,-0.04135,-0.03571,-0.03326,-0.03174,0.09827,-0.01465,-0.02182,-0.00717,-0.05081,-0.0441
2.9435,-0.00183,-0.0563,-0.03525,-0.06104,-0.07706,-0.06073,-0.03845,-0.03021,-0.0296,-0.0296,0.05356,-0.01999,-0.01709,0.00183,-0.0531,-0.04349
2.944,0.00015,-0.05066,-0.03143,-0.01572,-0.06973,-0.06104,-0.0325,-0.02487,-0.03021,-0.02625,-0.00473,-0.02777,-0.01602,0.0145,-0.03403,-0.04257
2.9445,0.00076,-0.04608,-0.02838,0.02167,-0.0766,-0.05905,-0.0293,-0.01907,-0.0325,-0.02335,-0.04669,-0.01801,-0.01877,0.02411,0.01251,-0.04211
2.945,0.00061,-0.04318,-0.0267,0.01007,-0.07309,-0.05585,-0.0296,-0.01358,-0.03479,-0.02151,-0.07202,0.01007,-0.02258,0.02563,0.06516,-0.0415
2.9455,-0.00122,-0.04135,-0.02899,-0.05539,-0.05493,-0.05463,-0.02243,-0.00931,-0.03387,-0.01953,-0.08957,0.02777,-0.02365,0.02472,0.09293,-0.04166
2.946,-0.00305,-0.03983,-0.03036,-0.12512,-0.03738,-0.05478,-0.00458,-0.00763,-0.02808,-0.01953,-0.09964,0.01694,-0.02121,0.0264,0.08942,-0.04135
2.9465,-0.00412,-0.04089,-0.03265,-0.14954,-0.03189,-0.05508,0.01129,-0.00626,-0.01663,-0.02014,-0.09995,-0.00183,-0.02121,0.03113,0.07233,-0.0412
2.947,-0.00366,-0.0412,-0.03342,-0.13016,-0.03082,-0.05371,0.01236,-0.00336,-0.00198,-0.01801,-0.09827,0.00076,-0.02548,0.03494,0.05524,-0.04074
2.9475,-0.00183,-0.03967,-0.03448,-0.08926,-0.01984,-0.05142,0.00168,-0.00168,0.01129,-0.01389,-0.10117,0.01938,-0.02991,0.03662,0.04211,-0.0412
2.948,0.00076,-0.03601,-0.0386,-0.03479,0.00626,-0.0502,-0.01099,-0.00214,0.02029,-0.00961,-0.10574,0.02594,-0.02884,0.03616,0.03159,-0.04257
2.9485,0.00153,-0.03372,-0.04303,0.02502,0.03464,-0.04822,-0.02167,-0.00473,0.02472,-0.0061,-0.10361,0.00992,-0.02518,0.03769,0.02716,-0.04333
2.949,0.0,-0.03525,-0.04425,0.07324,0.04257,-0.0473,-0.02899,-0.00641,0.02747,-0.00366,-0.0975,-0.01236,-0.02487,0.04013,0.02762,-0.04135
2.9495,-0.0029,-0.03815,-0.04135,0.10559,0.02213,-0.04807,-0.03204,-0.00427,0.03281,-0.00504,-0.08865,-0.02411,-0.02838,0.03571,0.03052,-0.0386
2.95,-0.00534,-0.04089,-0.03769,0.11948,-0.01297,-0.0502,-0.03067,-0.00031,0.04074,-0.00916,-0.07584,-0.03052,-0.03174,0.00397,0.03113,-0.03662
2.9505,-0.00671,-0.04181,-0.03616,0.09384,-0.03403,-0.05173,-0.02625,0.00229,0.04837,-0.01404,-0.05524,-0.03922,-0.03311,-0.05951,0.02792,-0.03662
2.951,-0.00687,-0.0412,-0.03647,0.01984,-0.02884,-0.0499,-0.02151,0.00305,0.04974,-0.01846,-0.02975,-0.03799,-0.03387,-0.12131,0.0238,-0.03662
2.9515,-0.00595,-0.04074,-0.03723,-0.06317,-0.01923,-0.04669,-0.01801,0.00214,0.04242,-0.02151,-0.01053,-0.00336,-0.03311,-0.13626,0.01831,-0.03601
2.952,-0.00336,-0.04181,-0.04013,-0.09933,-0.0322,-0.04547,-0.01892,0.00229,0.02869,-0.02167,-0.00137,0.05386,-0.02975,-0.10284,0.00153,-0.03677
2.9525,-0.00015,-0.04242,-0.04654,-0.06485,-0.06775,-0.04761,-0.01999,0.00351,0.01541,-0.02029,0.00107,0.08636,-0.01984,-0.0589,-0.0296,-0.0386
2.953,0.00061,-0.04227,-0.05386,0.0351,-0.09338,-0.05051,-0.01862,0.00305,0.00534,-0.01709,0.00427,0.06973,-0.00458,-0.03326,-0.06607,-0.04089
2.9535,-0.00046,-0.04059,-0.05875,0.16708,-0.08469,-0.04959,-0.01526,0.00153,-0.00092,-0.01633,0.01129,0.0264,0.00916,-0.01984,-0.08667,-0.0415
2.954,-0.00198,-0.03922,-0.05829,0.26047,-0.05402,-0.04791,-0.01312,0.00046,-0.00732,-0.01892,0.02197,-0.00336,0.01343,-0.00122,-0.08072,-0.04272
2.9545,-0.00168,-0.0386,-0.05249,0.24734,-0.02747,-0.04791,-0.01068,0.00198,-0.01358,-0.02396,0.03311,-0.0058,0.00198,0.03006,-0.06134,-0.0444
2.955,-0.00031,-0.03754,-0.04532,0.13733,-0.01373,-0.05096,-0.00809,0.00305,-0.0177,-0.02747,0.04044,0.0061,-0.02487,0.06638,-0.04211,-0.04684
2.9555,-0.00122,-0.03571,-0.03601,0.01221,-0.00519,-0.0528,-0.00626,0.00443,-0.01617,-0.02747,0.04196,0.01755,-0.0589,0.09491,-0.01511,-0.04898
2.956,-0.00244,-0.03723,-0.02701,-0.06226,0.00275,-0.05035,-0.00626,0.00702,-0.00916,-0.02335,0.03601,0.02762,-0.08484,0.10666,0.0267,-0.0499
2.9565,-0.00259,-0.0415,-0.01877,-0.08957,0.00458,-0.04471,-0.00671,0.00977,0.00137,-0.01907,0.02335,0.04044,-0.08972,0.0882,0.07828,-0.04944
2.957,-0.00107,-0.04791,-0.01602,-0.10361,-0.00534,-0.04135,-0.00702,0.01022,0.01129,-0.0174,0.00885,0.05341,-0.07675,0.03586,0.13168,-0.04822
2.9575,0.00092,-0.05188,-0.01846,-0.12054,-0.02411,-0.03922,-0.00687,0.01038,0.01587,-0.01862,0.0,0.05966,-0.05951,-0.02777,0.17593,-0.04639
2.958,0.00305,-0.0531,-0.02243,-0.13153,-0.03998,-0.03845,-0.00763,0.00977,0.0145,-0.02213,0.01053,0.05692,-0.04822,-0.06439,0.18845,-0.04333
2.9585,0.00381,-0.05356,-0.02289,-0.12726,-0.04196,-0.03799,-0.00992,0.00839,0.01038,-0.02609,0.05524,0.04898,-0.0412,-0.05997,0.14343,-0.04181
2.959,0.00183,-0.05371,-0.02213,-0.10208,-0.04211,-0.04028,-0.01205,0.00687,0.00641,-0.02945,0.11627,0.03723,-0.03403,-0.04456,0.05173,-0.04303
2.9595,0.00061,-0.05142,-0.0206,-0.0618,-0.05981,-0.0444,-0.01282,0.00702,0.0029,-0.02869,0.14496,0.01968,-0.02304,-0.05463,-0.03723,-0.04623
2.96,-0.00061,-0.04745,-0.02228,-0.01251,-0.08118,-0.047,-0.01419,0.009,-0.00259,-0.02487,0.11505,-0.00732,-0.01312,-0.08636,-0.08881,-0.04761
2.9605,-0.00107,-0.04562,-0.02716,0.0386,-0.08255,-0.04639,-0.01938,0.00839,-0.00992,-0.02197,0.05035,-0.03632,-0.00717,-0.10071,-0.12329,-0.04623
2.961,-0.00168,-0.04654,-0.03143,0.08926,-0.05768,-0.04333,-0.02975,0.00351,-0.01907,-0.01968,-0.00992,-0.05157,-0.0061,-0.07629,-0.16388,-0.0412
2.9615,-0.00259,-0.04623,-0.03357,0.12772,-0.02563,-0.04257,-0.04181,-0.0032,-0.02869,-0.01862,-0.05096,-0.04456,-0.01236,-0.03723,-0.18433,-0.03677
2.962,-0.00305,-0.04501,-0.03403,0.13321,-0.00671,-0.04547,-0.04898,-0.00702,-0.04211,-0.0174,-0.07553,-0.02869,-0.02502,-0.01694,-0.15594,-0.03494
2.9625,-0.00412,-0.04471,-0.03525,0.10132,-0.00122,-0.04837,-0.04822,-0.00854,-0.06058,-0.01587,-0.08835,-0.02655,-0.04059,-0.02136,-0.10193,-0.03555
2.963,-0.00748,-0.04684,-0.03708,0.05341,-0.00015,-0.04807,-0.0415,-0.00961,-0.07828,-0.01602,-0.09079,-0.05096,-0.05249,-0.0293,-0.05783,-0.03723
2.9635,-0.01221,-0.0502,-0.03662,0.01587,-0.00214,-0.04669,-0.03479,-0.01038,-0.09079,-0.01678,-0.08713,-0.09232,-0.05585,-0.0267,-0.02213,-0.0386
2.964,-0.01541,-0.05142,-0.03418,-0.00244,-0.01205,-0.04883,-0.02899,-0.00885,-0.09583,-0.01495,-0.07782,-0.12985,-0.04974,-0.01816,0.02625,-0.03845
2.9645,-0.01419,-0.05066,-0.03189,-0.01236,-0.02975,-0.05615,-0.0206,-0.00641,-0.09613,-0.01266,-0.06256,-0.1535,-0.04089,-0.01633,0.07233,-0.0354
2.965,-0.01022,-0.04761,-0.03235,-0.0264,-0.047,-0.06226,-0.00412,-0.0032,-0.09369,-0.01419,-0.04669,-0.1651,-0.03723,-0.02472,0.07324,-0.03403
2.9655,-0.00656,-0.04196,-0.03494,-0.04669,-0.05493,-0.06287,0.0238,-0.00076,-0.0882,-0.02304,-0.03922,-0.1506,-0.03769,-0.03632,0.01175,-0.03632
2.966,-0.00534,-0.03204,-0.03754,-0.06454,-0.05707,-0.05844,0.05585,0.00122,-0.07629,-0.03433,-0.04227,-0.06531,-0.03571,-0.04547,-0.07248,-0.03769
2.9665,-0.00565,-0.02533,-0.03754,-0.0766,-0.05661,-0.05508,0.07263,0.00336,-0.05569,-0.03799,-0.04791,0.08011,-0.02899,-0.05066,-0.11627,-0.03693
2.967,-0.00626,-0.02518,-0.03815,-0.08484,-0.04974,-0.05417,0.06332,0.00412,-0.0296,-0.0325,-0.04807,0.18265,-0.02075,-0.05096,-0.07111,-0.0351
2.9675,-0.00412,-0.0325,-0.04028,-0.08286,-0.03143,-0.05371,0.03723,0.00305,-0.00504,-0.0235,-0.03799,0.16022,-0.01511,-0.04303,0.05859,-0.04135
2.968,-0.00336,-0.0415,-0.0415,-0.06836,-0.00641,-0.05096,0.01694,0.00015,0.01251,-0.01785,-0.02777,0.06668,-0.01404,-0.03906,0.19226,-0.05386
2.9685,-0.00305,-0.04654,-0.03983,-0.04791,0.0174,-0.04745,0.01022,-0.00244,0.02029,-0.01587,-0.02365,0.02243,-0.01694,-0.05325,0.22781,-0.06271
2.969,-0.00275,-0.04623,-0.03815,-0.03296,0.04059,-0.04715,0.0058,-0.00351,0.01816,-0.01373,-0.02716,0.05325,-0.02243,-0.07477,0.1506,-0.0621
2.9695,-0.00183,-0.04303,-0.03983,-0.0296,0.06516,-0.04852,-0.00488,-0.00336,0.01053,-0.00931,-0.03418,0.08774,-0.0264,-0.07492,0.05478,-0.05478
2.97,0.00046,-0.03906,-0.0412,-0.03311,0.0766,-0.04868,-0.01831,-0.00259,0.0029,-0.0061,-0.03784,0.07248,-0.02869,-0.05127,0.02472,-0.05188
2.9705,0.00061,-0.03403,-0.04135,-0.03967,0.06546,-0.05066,-0.02853,-0.00122,-0.00381,-0.0087,-0.03479,0.02472,-0.03418,-0.02945,0.04684,-0.05219
2.971,-0.00168,-0.02975,-0.03799,-0.04486,0.04181,-0.05661,-0.03418,0.00275,-0.01175,-0.01755,-0.02716,-0.02182,-0.047,-0.0264,0.06561,-0.05219
2.9715,-0.00565,-0.0293,-0.03372,-0.04684,0.02274,-0.06363,-0.03601,0.009,-0.01846,-0.02518,-0.0177,-0.05585,-0.06424,-0.0322,0.06424,-0.05142
2.972,-0.00748,-0.03067,-0.0325,-0.04562,0.01526,-0.06668,-0.0351,0.01114,-0.01892,-0.02762,-0.01373,-0.06683,-0.07721,-0.03464,0.06256,-0.05066
2.9725,-0.00656,-0.03342,-0.03113,-0.04166,-0.00305,-0.06393,-0.03479,0.00519,-0.01251,-0.0264,-0.01663,-0.02945,-0.08011,-0.03357,0.06378,-0.05096
2.973,-0.00534,-0.0351,-0.03098,-0.03738,-0.05249,-0.06073,-0.0386,-0.00671,-0.00198,-0.02365,-0.02197,0.04608,-0.07217,-0.03021,0.04715,-0.04822
2.9735,-0.00443,-0.03723,-0.03174,-0.03296,-0.11444,-0.06195,-0.04532,-0.01831,0.00488,-0.02396,-0.02625,0.08453,-0.05692,-0.02274,0.00275,-0.04486
2.974,-0.00504,-0.04044,-0.03281,-0.02975,-0.14236,-0.0621,-0.04669,-0.02304,0.00732,-0.02853,-0.0296,0.0296,-0.03372,-0.01114,-0.05173,-0.0412
2.9745,-0.00595,-0.04349,-0.03098,-0.02945,-0.11917,-0.05997,-0.03647,-0.02731,0.00641,-0.0383,-0.02945,-0.07202,-0.00626,0.00244,-0.08621,-0.03845
2.975,-0.00717,-0.0441,-0.02808,-0.03189,-0.08224,-0.05554,-0.01999,-0.03769,0.00397,-0.04562,-0.02609,-0.12756,0.01511,0.0209,-0.09262,-0.03708
2.9755,-0.00702,-0.04379,-0.02731,-0.03204,-0.07431,-0.05081,-0.01053,-0.05508,0.00107,-0.04745,-0.02304,-0.11536,0.02243,0.04395,-0.08926,-0.03586
2.976,-0.00427,-0.04501,-0.0296,-0.02747,-0.08865,-0.047,-0.01068,-0.06989,-0.00381,-0.04028,-0.02533,-0.08453,0.01907,0.06287,-0.09537,-0.03616
2.9765,-0.00198,-0.04883,-0.03021,-0.02319,-0.09567,-0.04562,-0.01205,-0.065,-0.00977,-0.02975,-0.03036,-0.06821,0.0087,0.06332,-0.11444,-0.03845
2.977,-0.00366,-0.05142,-0.03128,-0.02228,-0.08484,-0.04593,-0.009,-0.03418,-0.01434,-0.01984,-0.02991,-0.04822,-0.01373,0.03662,-0.13535,-0.04089
2.9775,-0.00885,-0.05142,-0.03082,-0.0238,-0.06546,-0.04623,-0.00473,0.00198,-0.0177,-0.01144,-0.01892,-0.00473,-0.0531,-0.00656,-0.12344,-0.03983
2.978,-0.01236,-0.05203,-0.03189,-0.01923,-0.05173,-0.04593,-0.00717,0.01007,-0.01724,-0.00565,-0.00763,0.05157,-0.09476,-0.0441,-0.04898,-0.03586
2.9785,-0.01175,-0.05173,-0.03479,0.00122,-0.04349,-0.04501,-0.01282,-0.02991,-0.01541,-0.00076,-0.00046,0.09186,-0.10651,-0.06073,0.07858,-0.03387
2.979,-0.0087,-0.05356,-0.03738,0.03815,-0.03784,-0.04272,-0.01556,-0.08835,-0.01389,0.00427,-0.00137,0.09308,-0.07889,-0.05829,0.1947,-0.03708
2.9795,-0.00687,-0.05554,-0.03311,0.06805,-0.03464,-0.03983,-0.01389,-0.09201,-0.01251,0.00992,-0.00717,0.05768,-0.03677,-0.04868,0.2359,-0.04181
2.98,-0.00458,-0.05768,-0.03143,0.06638,-0.04013,-0.03754,-0.01236,-0.00641,-0.009,0.01785,-0.01297,0.01648,-0.01907,-0.03891,0.19302,-0.04242
2.9805,-0.00168,-0.05951,-0.0296,0.04089,-0.05371,-0.03677,-0.01221,0.10178,-0.00549,0.02579,-0.0145,0.00381,-0.04059,-0.02884,0.11581,-0.03693
2.981,-0.00107,-0.05768,-0.02914,0.02182,-0.06638,-0.03784,-0.01221,0.13947,-0.0029,0.03174,-0.01099,0.01312,-0.07751,-0.01617,0.05737,-0.0325
2.9815,-0.00412,-0.05249,-0.0293,0.02167,-0.0676,-0.03815,-0.01205,0.10086,-0.00259,0.03189,-0.00336,0.01663,-0.09323,-0.0029,0.0354,-0.03296
2.982,-0.009,-0.04654,-0.03082,0.0267,-0.05646,-0.03906,-0.0116,0.05386,-0.00336,0.0293,0.00366,0.00443,-0.07492,0.00336,0.02792,-0.03708
2.9825,-0.01328,-0.04166,-0.03204,0.02319,-0.03799,-0.04166,-0.01221,0.04578,-0.00443,0.02548,0.00641,-0.00595,-0.04654,-0.00183,0.01907,-0.03815
2.983,-0.01358,-0.03845,-0.03311,0.00916,-0.02304,-0.04456,-0.01404,0.056,-0.00412,0.02319,0.00504,0.00198,-0.03647,-0.01053,0.01038,-0.03769
2.9835,-0.009,-0.03616,-0.03326,-0.00839,-0.01511,-0.04501,-0.01404,0.05524,-0.00244,0.02075,0.00092,0.02625,-0.04242,-0.01038,0.00504,-0.03815
2.984,-0.00397,-0.03281,-0.03281,-0.02441,-0.01083,-0.0444,-0.01495,0.03906,-0.00397,0.01587,-0.00519,0.05157,-0.04272,0.00671,0.00351,-0.04181
2.9845,-0.00229,-0.03067,-0.02945,-0.0383,-0.00778,-0.04471,-0.01648,0.02274,-0.01343,0.00275,-0.01022,0.06119,-0.03052,0.03616,0.00015,-0.04669
2.985,-0.00473,-0.03265,-0.02686,-0.04791,-0.00153,-0.04974,-0.01968,0.01282,-0.03342,-0.02396,-0.01038,0.04623,-0.01465,0.06805,-0.009,-0.04944
2.9855,-0.00763,-0.03464,-0.0264,-0.05386,0.00473,-0.05295,-0.02304,0.00626,-0.05493,-0.0589,-0.00351,0.01465,-0.00168,0.08728,-0.02838,-0.04868
2.986,-0.009,-0.03265,-0.02869,-0.05753,0.00793,-0.05325,-0.02411,0.00015,-0.07004,-0.08118,0.00793,-0.01343,0.0116,0.08469,-0.05417,-0.04745
2.9865,-0.00961,-0.02747,-0.0322,-0.05829,0.00702,-0.05356,-0.02258,-0.00473,-0.07477,-0.0798,0.01587,-0.02579,0.02869,0.05692,-0.07431,-0.04807
2.987,-0.01266,-0.02213,-0.03616,-0.05539,0.00122,-0.05569,-0.02045,-0.00931,-0.06744,-0.05951,0.01923,-0.02472,0.04395,0.00488,-0.08286,-0.04837
2.9875,-0.01755,-0.01968,-0.04272,-0.05463,-0.00793,-0.05936,-0.02075,-0.01266,-0.05478,-0.03571,0.01617,-0.01907,0.04547,-0.05829,-0.08041,-0.04456
2.988,-0.02151,-0.01846,-0.04852,-0.06012,-0.02335,-0.05997,-0.02228,-0.01343,-0.04135,-0.01938,0.00992,-0.00336,0.03357,-0.1001,-0.07278,-0.03723
2.9885,-0.02182,-0.01587,-0.04913,-0.06851,-0.03647,-0.05875,-0.02167,-0.01221,-0.02686,-0.01068,0.00229,0.02747,0.0174,-0.09476,-0.06516,-0.03143
2.989,-0.02045,-0.01465,-0.04669,-0.06805,-0.04242,-0.05753,-0.01801,-0.01007,-0.00595,-0.00534,-0.00595,0.0592,0.00305,-0.05219,-0.0589,-0.03036
2.9895,-0.01938,-0.01801,-0.04333,-0.05203,-0.0473,-0.05768,-0.01404,-0.00946,0.01541,-0.00198,-0.01236,0.06592,-0.02274,-0.01099,-0.0415,-0.03174
2.99,-0.01862,-0.02625,-0.04196,-0.02792,-0.04807,-0.05661,-0.01099,-0.00854,0.02869,-0.00137,-0.0148,0.04074,-0.06668,0.0061,0.0032,-0.0325
2.9905,-0.01938,-0.03494,-0.04227,-0.0058,-0.03555,-0.0563,-0.01175,-0.0058,0.02975,-0.00519,-0.01495,0.0061,-0.10788,0.00076,0.07477,-0.03235
2.991,-0.02243,-0.04211,-0.04303,0.0119,-0.00641,-0.05661,-0.01572,-0.00259,0.02594,-0.00931,-0.01175,-0.01511,-0.11368,-0.0145,0.13794,-0.03189
2.9915,-0.02792,-0.04517,-0.04211,0.02609,0.01801,-0.05692,-0.02029,-0.00336,0.02213,-0.01434,-0.00504,-0.02228,-0.08972,-0.02823,0.14908,-0.02899
2.992,-0.03159,-0.04456,-0.0415,0.03113,0.01953,-0.05676,-0.02121,-0.01801,0.01801,-0.0238,0.00458,-0.02945,-0.06363,-0.03433,0.10269,-0.0267
2.9925,-0.02884,-0.0441,-0.04028,0.02029,0.00687,-0.05661,-0.01877,-0.05142,0.0119,-0.03632,0.00992,-0.04318,-0.05127,-0.03632,0.03204,-0.02563
2.993,-0.02151,-0.04379,-0.03815,-0.00214,-0.01175,-0.05829,-0.01419,-0.09201,0.00443,-0.04715,0.00534,-0.0589,-0.0441,-0.03693,-0.02106,-0.02594
2.9935,-0.01221,-0.04211,-0.03464,-0.02014,-0.0412,-0.05981,-0.01053,-0.1152,-0.00305,-0.05249,-0.0061,-0.07095,-0.03204,-0.03387,-0.047,-0.02655
2.994,-0.00397,-0.03906,-0.0322,-0.02029,-0.07813,-0.06134,-0.01007,-0.10437,-0.01236,-0.05066,-0.01389,-0.07706,-0.01419,-0.02441,-0.0531,-0.03021
2.9945,0.00076,-0.03571,-0.03189,-0.00885,-0.10208,-0.06302,-0.01038,-0.07446,-0.02182,-0.04364,-0.01633,-0.07538,0.00397,-0.01068,-0.03906,-0.0383
2.995,0.00473,-0.0351,-0.03098,-0.00092,-0.09766,-0.06439,-0.01068,-0.05188,-0.03067,-0.03265,-0.01678,-0.05844,0.01511,-0.00076,-0.00671,-0.04669
2.9955,0.009,-0.03922,-0.02991,-0.0029,-0.07965,-0.06348,-0.01007,-0.04257,-0.03586,-0.02121,-0.01831,-0.01099,0.0148,0.00046,0.02182,-0.05005
2.996,0.01175,-0.04837,-0.0325,-0.00854,-0.06897,-0.06012,-0.00992,-0.02563,-0.03601,-0.01221,-0.01892,0.06439,0.00397,-0.00565,0.02411,-0.05035
2.9965,0.01175,-0.0592,-0.0386,-0.01129,-0.06439,-0.05447,-0.01053,0.01221,-0.03235,-0.00687,-0.01678,0.12634,-0.01526,-0.01678,0.00824,-0.05157
2.997,0.01007,-0.06927,-0.04578,-0.00946,-0.05646,-0.04715,-0.01236,0.05661,-0.02808,-0.00427,-0.01282,0.13138,-0.04272,-0.02594,0.01251,-0.0528
2.9975,0.00931,-0.07645,-0.04913,-0.00824,-0.04959,-0.03998,-0.01465,0.08179,-0.02609,-0.00031,-0.00961,0.08652,-0.07767,-0.02869,0.03876,-0.05142
2.998,0.01129,-0.0824,-0.04868,-0.01434,-0.05371,-0.03738,-0.01755,0.08347,-0.02716,0.00183,-0.00626,0.03906,-0.10391,-0.02274,0.05035,-0.04837
2.9985,0.01297,-0.08484,-0.04578,-0.03555,-0.06546,-0.03983,-0.01816,0.0679,-0.02869,0.00229,-0.00458,0.01999,-0.09766,-0.01907,0.02991,-0.0473
2.999,0.01144,-0.08179,-0.04333,-0.07416,-0.06821,-0.04364,-0.01617,0.03754,-0.02747,-0.00092,-0.00504,0.0174,-0.05783,-0.02045,0.00931,-0.04852
2.9995,0.00626,-0.07339,-0.04105,-0.11658,-0.05478,-0.04486,-0.01434,-0.00336,-0.0238,-0.00412,-0.00443,0.01251,-0.01114,-0.02075,0.00977,-0.04883
3.0,0.00107,-0.06073,-0.03387,-0.13626,-0.03677,-0.04135,-0.01526,-0.03967,-0.02075,-0.00534,-0.00214,0.00565,0.01022,-0.01663,0.0177,-0.04868
3.0005,-0.00305,-0.04639,-0.02884,-0.11627,-0.02365,-0.03693,-0.01816,-0.05615,-0.01907,-0.00717,0.0,0.00305,0.00641,-0.01877,0.01602,-0.047
3.001,-0.00397,-0.03616,-0.0264,-0.06561,-0.01816,-0.0354,-0.01999,-0.04883,-0.01816,-0.01175,0.00275,0.00519,-0.00198,-0.04272,0.01282,-0.0441
3.0015,-0.00534,-0.03098,-0.02502,-0.00595,-0.01663,-0.03586,-0.01984,-0.03464,-0.01923,-0.01526,0.00275,0.00458,-0.00336,-0.08453,0.01343,-0.04303
3.002,-0.009,-0.02899,-0.02365,0.05386,-0.01663,-0.03906,-0.01831,-0.02441,-0.0206,-0.01617,-0.00229,0.0,-0.009,-0.11063,0.01038,-0.04288
3.0025,-0.01389,-0.02594,-0.02228,0.11612,-0.01648,-0.04379,-0.01541,0.00122,-0.02106,-0.01602,-0.01129,-0.00427,-0.03433,-0.09277,0.00565,-0.04288
3.003,-0.01694,-0.01907,-0.02029,0.16434,-0.01572,-0.04639,-0.01389,0.05692,-0.02014,-0.01389,-0.01968,-0.00748,-0.07065,-0.04349,0.00732,-0.03967
3.0035,-0.01724,-0.00946,-0.02213,0.16266,-0.01236,-0.04608,-0.01862,0.11017,-0.01724,-0.01358,-0.02365,-0.00977,-0.08514,-0.00031,0.0174,-0.03815
3.004,-0.01633,-0.00076,-0.02396,0.10117,-0.00824,-0.04425,-0.0296,0.1123,-0.01373,-0.01434,-0.02167,-0.01251,-0.0676,0.01846,0.02457,-0.04196
3.0045,-0.0119,0.00198,-0.02426,0.02625,-0.00305,-0.04349,-0.03754,0.06973,-0.00916,-0.01495,-0.01511,-0.01343,-0.04318,0.01984,0.02075,-0.0499
3.005,-0.00519,-0.00153,-0.02167,-0.01038,0.00214,-0.04272,-0.03616,0.03113,-0.00748,-0.01617,-0.01175,-0.01404,-0.04028,0.01129,0.00992,-0.05386
3.0055,-0.00061,-0.01068,-0.01587,-0.00732,0.00519,-0.04303,-0.02838,0.02029,-0.01541,-0.01999,-0.01144,-0.01434,-0.05325,-0.00168,0.00061,-0.05234
3.006,-0.00137,-0.02106,-0.01022,0.0058,0.0061,-0.04471,-0.01984,0.01663,-0.03204,-0.02151,-0.0116,-0.01648,-0.06424,-0.00626,-0.00153,-0.04623
3.0065,-0.00595,-0.03036,-0.00931,0.00671,0.00534,-0.04837,-0.01007,0.00168,-0.04349,-0.01907,-0.00046,-0.02197,-0.0676,0.00641,-0.00046,-0.04135
3.007,-0.01022,-0.03616,-0.01511,0.00214,0.00183,-0.05157,0.00473,-0.01724,-0.04059,-0.01404,0.03662,-0.03281,-0.0589,0.02472,0.00153,-0.04044
3.0075,-0.01175,-0.04028,-0.02533,0.00122,-0.00763,-0.05402,0.02762,-0.02472,-0.02625,-0.01205,0.09338,-0.04456,-0.03159,0.03052,0.00229,-0.04089
3.008,-0.01022,-0.0441,-0.03586,0.00336,-0.02533,-0.05798,0.04791,-0.02243,-0.0058,-0.01907,0.12802,-0.05142,0.00031,0.01678,0.00046,-0.04074
3.0085,-0.00656,-0.04791,-0.04333,0.00275,-0.04929,-0.06134,0.04868,-0.0209,0.01785,-0.03372,0.10422,-0.05356,0.0087,-0.01022,-0.00153,-0.03677
3.009,-0.00092,-0.05005,-0.0473,0.00015,-0.06302,-0.06012,0.02792,-0.02472,0.0386,-0.05402,0.04089,-0.05417,-0.00778,-0.03708,-0.00061,-0.03265
3.0095,0.00549,-0.04944,-0.04868,-0.00092,-0.05112,-0.05447,0.00259,-0.0293,0.04486,-0.07141,-0.01236,-0.05005,-0.02762,-0.04486,0.0061,-0.03204
3.01,0.009,-0.0473,-0.05035,-0.00153,-0.02243,-0.04929,-0.00946,-0.02869,0.03372,-0.07538,-0.02655,-0.0412,-0.03418,-0.03235,0.00778,-0.03464
3.0105,0.0087,-0.04822,-0.05051,-0.00153,-0.00443,-0.04715,-0.01007,-0.02289,0.01312,-0.06287,-0.01617,-0.03387,-0.03281,-0.02213,0.00259,-0.03693
3.011,0.00549,-0.04974,-0.04807,-0.00122,-0.0119,-0.04776,-0.00961,-0.01587,-0.009,-0.04303,-0.01434,-0.03387,-0.03281,-0.03876,-0.00519,-0.03769
3.0115,0.00275,-0.04944,-0.04608,-0.00137,-0.03494,-0.04929,-0.01175,-0.01175,-0.03113,-0.02625,-0.03204,-0.03113,-0.03235,-0.08087,-0.00732,-0.03647
3.012,0.00244,-0.04715,-0.04654,-0.00214,-0.05783,-0.05096,-0.01282,-0.01221,-0.0502,-0.01419,-0.05844,-0.01114,-0.0267,-0.11581,-0.00473,-0.03616
3.0125,0.00336,-0.04578,-0.04974,-0.00305,-0.06607,-0.05066,-0.01526,-0.0145,-0.06271,-0.00565,-0.08102,0.02914,-0.01663,-0.11368,-0.00076,-0.03601
3.013,0.00473,-0.04578,-0.05249,-0.00122,-0.05844,-0.04623,-0.01938,-0.01495,-0.06958,-0.00107,-0.09644,0.0824,-0.00916,-0.07721,0.00595,-0.0386
3.0135,0.00519,-0.04471,-0.05219,0.00107,-0.04562,-0.04257,-0.02396,-0.01221,-0.07111,-0.00015,-0.10681,0.13611,-0.009,-0.03784,0.0119,-0.04196
3.014,0.00427,-0.04227,-0.04929,0.00549,-0.03647,-0.04272,-0.02533,-0.009,-0.06744,-0.00183,-0.11398,0.1799,-0.01663,-0.02426,0.01282,-0.04517
3.0145,0.00137,-0.04196,-0.04395,0.00916,-0.03143,-0.0441,-0.02319,-0.00687,-0.05737,-0.00473,-0.121,0.20355,-0.0235,-0.0325,0.0061,-0.04501
3.015,-0.00137,-0.04425,-0.04242,0.01312,-0.03128,-0.04364,-0.02075,-0.00641,-0.04181,-0.00565,-0.12711,0.19287,-0.0238,-0.04028,-0.00153,-0.04211
3.0155,-0.00473,-0.04745,-0.04395,0.01297,-0.03433,-0.04227,-0.02197,-0.00839,-0.02472,-0.00549,-0.1239,0.13672,-0.0206,-0.03647,-0.00504,-0.03799
3.016,-0.00626,-0.04883,-0.04669,0.00824,-0.03952,-0.04242,-0.02487,-0.01129,-0.00916,-0.00702,-0.10712,0.05249,-0.02045,-0.02655,-0.00259,-0.03662
3.0165,-0.00549,-0.04791,-0.05081,0.00305,-0.04044,-0.04272,-0.02762,-0.01373,-0.00061,-0.01007,-0.08179,-0.02594,-0.02411,-0.02197,0.00137,-0.03738
3.017,-0.00183,-0.04776,-0.05554,0.00015,-0.03418,-0.04135,-0.03006,-0.0145,-0.00519,-0.01312,-0.06241,-0.0647,-0.02838,-0.02365,0.00153,-0.04074
3.0175,0.00275,-0.04852,-0.05859,0.00366,-0.02213,-0.03616,-0.0322,-0.0145,-0.01495,-0.01541,-0.05585,-0.04944,-0.03021,-0.03036,-0.00015,-0.04349
3.018,0.00488,-0.04944,-0.056,0.01282,-0.0058,-0.03311,-0.03281,-0.01465,-0.01831,-0.01694,-0.0589,-0.00092,-0.02853,-0.03799,0.00275,-0.04333
3.0185,0.00626,-0.04852,-0.05066,0.02533,0.01099,-0.03204,-0.02914,-0.01282,-0.00824,-0.01938,-0.06119,0.03296,-0.02426,-0.03922,0.01282,-0.04257
3.019,0.00595,-0.04669,-0.04349,0.03647,0.02823,-0.0325,-0.02258,-0.01053,0.00687,-0.02365,-0.05478,0.01389,-0.01862,-0.03021,0.0235,-0.04364
3.0195,0.0032,-0.04395,-0.03647,0.04272,0.04532,-0.03418,-0.01785,-0.00885,0.01755,-0.02823,-0.04059,-0.05127,-0.0116,-0.01144,0.02045,-0.04608
3.02,-0.00107,-0.03998,-0.02716,0.04349,0.06302,-0.03677,-0.01648,-0.009,0.02167,-0.02991,-0.02609,-0.11765,-0.0061,0.01328,0.00214,-0.04807
3.0205,-0.00641,-0.03754,-0.01862,0.0383,0.07828,-0.03952,-0.01755,-0.01007,0.02121,-0.02884,-0.01602,-0.14801,-0.00488,0.04211,-0.02213,-0.04883
3.021,-0.01022,-0.03983,-0.01389,0.02243,0.08072,-0.0386,-0.0177,-0.01312,0.01419,-0.02792,-0.00793,-0.12939,-0.00549,0.07339,-0.04166,-0.04974
3.0215,-0.01312,-0.04868,-0.01358,-0.00381,0.06348,-0.03616,-0.01938,-0.01755,0.00214,-0.02869,-0.00183,-0.07996,-0.00793,0.09674,-0.05844,-0.04852
3.022,-0.01526,-0.06104,-0.01648,-0.03799,0.02792,-0.03372,-0.02289,-0.01907,-0.00992,-0.03067,0.00275,-0.03357,-0.01297,0.10452,-0.07874,-0.0473
3.0225,-0.01343,-0.06927,-0.01862,-0.06989,-0.01526,-0.03387,-0.02274,-0.01495,-0.01831,-0.03098,0.00381,-0.01083,-0.0206,0.09796,-0.103,-0.04532
3.023,-0.00809,-0.06989,-0.0174,-0.09247,-0.06805,-0.03403,-0.01663,-0.00839,-0.02792,-0.03189,0.00229,-0.01495,-0.03754,0.08743,-0.11887,-0.04364
3.0235,-0.00305,-0.06592,-0.01633,-0.10132,-0.13077,-0.03433,-0.00916,-0.00519,-0.04181,-0.03342,0.00168,-0.03738,-0.06241,0.0827,-0.11322,-0.04166
3.024,0.0,-0.05966,-0.01801,-0.09766,-0.17792,-0.03372,-0.0058,-0.0058,-0.05188,-0.03586,0.0032,-0.0769,-0.08423,0.07996,-0.08041,-0.03815
3.0245,0.00214,-0.05127,-0.0209,-0.08698,-0.17654,-0.03311,-0.009,-0.00885,-0.04898,-0.0412,0.00336,-0.12512,-0.08759,0.06012,-0.01999,-0.03647
3.025,0.00412,-0.04303,-0.0235,-0.07446,-0.13031,-0.03311,-0.01724,-0.00946,-0.03632,-0.04913,0.00122,-0.1561,-0.07111,0.01556,0.04669,-0.03525
3.0255,0.00412,-0.03754,-0.02731,-0.06195,-0.07233,-0.03464,-0.02609,-0.009,-0.02365,-0.0621,0.00061,-0.14755,-0.04913,-0.02731,0.09399,-0.03586
3.026,0.00244,-0.03571,-0.03067,-0.05203,-0.02411,-0.03662,-0.03159,-0.00717,-0.01617,-0.07874,0.00488,-0.10834,-0.0351,-0.05341,0.11108,-0.03738
3.0265,0.00092,-0.0351,-0.0322,-0.04669,0.00793,-0.03876,-0.0322,-0.00549,-0.00992,-0.08774,0.0148,-0.06897,-0.03265,-0.09079,0.1091,-0.03906
3.027,0.00153,-0.0322,-0.03098,-0.0444,0.01465,-0.04166,-0.02975,-0.00458,-0.00214,-0.08179,0.02411,-0.04333,-0.03464,-0.15656,0.10284,-0.04013
3.0275,0.00107,-0.02243,-0.02945,-0.03998,-0.00946,-0.04776,-0.02823,-0.0032,0.00656,-0.0621,0.02899,-0.02319,-0.0383,-0.20294,0.10559,-0.04074
3.028,0.0,-0.01129,-0.03036,-0.03494,-0.05234,-0.05341,-0.02518,-0.00168,0.01251,-0.04333,0.03418,0.00229,-0.03937,-0.17975,0.1178,-0.04105
3.0285,-0.00275,-0.00671,-0.03113,-0.03403,-0.08163,-0.05646,-0.01694,0.00198,0.0145,-0.03281,0.05325,0.03174,-0.03754,-0.1088,0.11719,-0.04089
3.029,-0.00839,-0.00992,-0.03067,-0.03647,-0.08072,-0.05661,-0.00198,0.00473,0.01068,-0.02869,0.08652,0.05844,-0.03464,-0.05585,0.08972,-0.04135
3.0295,-0.01587,-0.01892,-0.0322,-0.03586,-0.06363,-0.05585,0.01648,0.0029,0.00397,-0.02258,0.10742,0.06805,-0.03326,-0.04303,0.05188,-0.04257
3.03,-0.02289,-0.02777,-0.03464,-0.02838,-0.05646,-0.05524,0.03036,-0.00107,-0.00198,-0.01099,0.09262,0.04211,-0.03418,-0.04547,0.03525,-0.04395
3.0305,-0.02701,-0.03662,-0.03601,-0.01938,-0.06683,-0.05402,0.03143,-0.00336,-0.00626,0.00229,0.04578,-0.00565,-0.03616,-0.04486,0.0322,-0.04471
3.031,-0.02899,-0.04395,-0.03555,-0.01328,-0.07858,-0.05219,0.01999,-0.00137,-0.01389,0.01007,-0.00763,-0.01709,-0.03555,-0.04807,0.00885,-0.04578
3.0315,-0.03036,-0.0499,-0.03265,-0.00916,-0.07553,-0.05417,0.00687,0.00198,-0.03143,0.01068,-0.04517,0.03342,-0.03403,-0.05875,-0.04272,-0.04715
3.032,-0.02731,-0.05539,-0.02914,-0.00717,-0.06241,-0.05692,-0.00336,0.0029,-0.05585,0.00443,-0.06226,0.09201,-0.03296,-0.06577,-0.09827,-0.04807
3.0325,-0.02075,-0.05615,-0.03036,-0.00687,-0.0528,-0.0563,-0.01038,-0.00137,-0.07507,-0.0058,-0.06104,0.0885,-0.03342,-0.06348,-0.13596,-0.04913
3.033,-0.01251,-0.05051,-0.03387,-0.00793,-0.04776,-0.05249,-0.01678,-0.01068,-0.08087,-0.0148,-0.05417,0.03143,-0.03189,-0.05066,-0.15793,-0.04959
3.0335,-0.00641,-0.03937,-0.03601,-0.01114,-0.04257,-0.04944,-0.02228,-0.01724,-0.07324,-0.01877,-0.05249,-0.01526,-0.02823,-0.02975,-0.16586,-0.04883
3.034,-0.0032,-0.02625,-0.03387,-0.01373,-0.03387,-0.04898,-0.02792,-0.01694,-0.05997,-0.01266,-0.05417,-0.01282,-0.02502,-0.00519,-0.13733,-0.04791
3.0345,-0.00381,-0.01831,-0.03098,-0.01404,-0.02396,-0.047,-0.0354,-0.0116,-0.04608,0.0029,-0.05295,0.03006,-0.02472,0.01373,-0.05264,-0.04776
3.035,-0.00778,-0.01907,-0.03082,-0.01022,-0.01648,-0.04395,-0.03983,-0.00839,-0.03479,0.02197,-0.04913,0.0824,-0.02823,0.02426,0.06683,-0.04883
3.0355,-0.01282,-0.02838,-0.03418,-0.00519,-0.01053,-0.03845,-0.03525,-0.01083,-0.02579,0.03616,-0.04623,0.10818,-0.03067,0.03235,0.15533,-0.04852
3.036,-0.01373,-0.04028,-0.03754,-0.00168,-0.00153,-0.03357,-0.02319,-0.01389,-0.0177,0.04242,-0.03952,0.08698,-0.03189,0.04501,0.15915,-0.04761
3.0365,-0.00946,-0.05081,-0.03922,-0.00168,0.01038,-0.03098,-0.01419,-0.01282,-0.01114,0.04227,-0.02686,0.03342,-0.03143,0.0621,0.09842,-0.04654
3.037,-0.00504,-0.05844,-0.03647,-0.00244,0.02594,-0.03036,-0.01312,-0.00885,-0.00824,0.03891,-0.01358,-0.01465,-0.03098,0.07919,0.04333,-0.0444
3.0375,-0.00458,-0.06287,-0.03433,-0.00076,0.03479,-0.02945,-0.01617,-0.0061,-0.01221,0.03372,-0.00824,-0.03494,-0.03143,0.08591,0.03738,-0.04166
3.038,-0.00717,-0.06073,-0.03204,0.00244,0.03082,-0.02884,-0.01801,-0.00412,-0.01938,0.02823,-0.01114,-0.02945,-0.03235,0.06912,0.06332,-0.04013
3.0385,-0.009,-0.05646,-0.03052,0.00046,0.01343,-0.02991,-0.01801,-0.00275,-0.02441,0.02151,-0.01556,-0.00778,-0.03372,0.0235,0.08209,-0.03937
3.039,-0.00977,-0.05173,-0.03021,-0.00946,-0.00595,-0.03326,-0.01694,-0.00275,-0.02457,0.01129,-0.01678,0.02563,-0.03571,-0.03693,0.07751,-0.04089
3.0395,-0.00977,-0.04639,-0.02975,-0.0174,-0.0145,-0.03647,-0.01495,-0.00519,-0.02075,0.00122,-0.01678,0.05371,-0.03616,-0.0856,0.06073,-0.04272
3.04,-0.01053,-0.04105,-0.03189,-0.01129,-0.00824,-0.03784,-0.01312,-0.00839,-0.01541,-0.00641,-0.01678,0.05356,-0.03616,-0.10437,0.04547,-0.04364
3.0405,-0.01358,-0.03693,-0.03845,0.00824,-0.00549,-0.03815,-0.01358,-0.00977,-0.00824,-0.01175,-0.0177,0.01877,-0.03601,-0.09323,0.03418,-0.04318
3.041,-0.01801,-0.03448,-0.04654,0.03082,-0.01801,-0.03693,-0.01541,-0.00885,-0.00015,-0.01556,-0.01785,-0.02899,-0.03632,-0.05829,0.02258,-0.04105
3.0415,-0.02182,-0.03204,-0.05081,0.04395,-0.04211,-0.03448,-0.01678,-0.00641,0.00992,-0.01663,-0.01465,-0.06226,-0.03494,-0.01083,0.01083,-0.0386
3.042,-0.02457,-0.02792,-0.05173,0.04288,-0.06729,-0.03281,-0.01663,-0.00473,0.01785,-0.01526,-0.00565,-0.06989,-0.0322,0.03525,0.00534,-0.03891
3.0425,-0.02625,-0.02335,-0.05157,0.03311,-0.09399,-0.03418,-0.01495,-0.00275,0.02274,-0.01129,0.00519,-0.05859,-0.02914,0.06775,0.00366,-0.04028
3.043,-0.02655,-0.02167,-0.04929,0.02365,-0.12253,-0.03693,-0.01266,-0.00061,0.0238,-0.009,0.00854,-0.04898,-0.02808,0.08347,0.00275,-0.04166
3.0435,-0.02457,-0.02441,-0.04471,0.01602,-0.13687,-0.03937,-0.01007,0.00076,0.02029,-0.00961,0.00092,-0.0708,-0.03021,0.07462,0.00046,-0.04303
3.044,-0.01907,-0.03204,-0.03799,0.00824,-0.11978,-0.03983,-0.00763,0.00076,0.01221,-0.01022,-0.00931,-0.13062,-0.03143,0.02884,-0.00183,-0.0441
3.0445,-0.01312,-0.04181,-0.03189,-0.00305,-0.08057,-0.03784,-0.00854,-0.00122,0.00519,-0.01205,-0.01877,-0.16968,-0.03159,-0.03693,-0.00412,-0.04379
3.045,-0.00885,-0.05249,-0.02899,-0.01465,-0.04807,-0.03586,-0.01236,-0.0029,0.00214,-0.01556,-0.02319,-0.09018,-0.03433,-0.06943,-0.00488,-0.04333
3.0455,-0.00671,-0.0621,-0.03052,-0.02075,-0.03876,-0.03647,-0.01816,-0.00214,0.00015,-0.01938,-0.02396,0.1207,-0.04272,-0.04333,-0.00397,-0.04379
3.046,-0.00275,-0.06546,-0.03204,-0.01938,-0.04059,-0.03784,-0.02304,0.00031,-0.0032,-0.01953,-0.01846,0.32104,-0.05173,0.00397,-0.0029,-0.0441
3.0465,0.00458,-0.06393,-0.03082,-0.01862,-0.03906,-0.03754,-0.02365,0.00229,-0.009,-0.01938,-0.00793,0.34302,-0.05447,0.02487,-0.00168,-0.04425
3.047,0.01251,-0.05875,-0.02625,-0.02609,-0.03006,-0.03571,-0.01968,0.00183,-0.01404,-0.02258,0.00183,0.18463,-0.05081,0.01785,-0.00305,-0.04379
3.0475,0.01709,-0.05447,-0.02274,-0.04257,-0.02274,-0.03632,-0.0148,0.00107,-0.01755,-0.0264,0.00763,-0.00046,-0.0444,0.00519,-0.00549,-0.04349
3.048,0.01633,-0.05371,-0.02365,-0.05539,-0.01663,-0.0412,-0.01129,0.00046,-0.01862,-0.02869,0.01114,-0.09338,-0.03967,-0.00229,-0.00748,-0.04196
3.0485,0.01312,-0.05447,-0.02777,-0.05859,-0.00854,-0.04517,-0.0116,0.0,-0.01938,-0.02945,0.01511,-0.10071,-0.0383,-0.01511,-0.00748,-0.03983
3.049,0.01236,-0.05371,-0.03036,-0.05554,-0.0029,-0.04562,-0.01419,0.00031,-0.02213,-0.02808,0.02274,-0.06836,-0.03769,-0.04425,-0.00595,-0.0383
3.0495,0.01587,-0.04944,-0.03159,-0.05417,-0.00458,-0.04456,-0.0145,0.00198,-0.02609,-0.0296,0.04059,-0.00824,-0.03571,-0.09369,-0.00488,-0.03799
3.05,0.02136,-0.04517,-0.03616,-0.05478,-0.01678,-0.04623,-0.0119,0.0029,-0.0322,-0.02975,0.07111,0.07278,-0.0325,-0.14343,-0.00458,-0.0383
3.0505,0.02274,-0.04364,-0.04379,-0.05554,-0.03616,-0.04929,-0.00854,0.0032,-0.04044,-0.03052,0.09659,0.12787,-0.03052,-0.15732,-0.00473,-0.0386
3.051,0.01892,-0.04013,-0.05081,-0.05112,-0.05005,-0.05127,-0.00885,0.00244,-0.04745,-0.03326,0.09216,0.12207,-0.0293,-0.13397,-0.00412,-0.03876
3.0515,0.01328,-0.03189,-0.05249,-0.04044,-0.05066,-0.05112,-0.01282,0.00183,-0.05173,-0.03922,0.05356,0.07019,-0.02914,-0.12054,-0.00107,-0.04074
3.052,0.00839,-0.02182,-0.04791,-0.02197,-0.03693,-0.04974,-0.01999,0.00198,-0.05463,-0.04532,0.00183,0.00946,-0.0293,-0.14832,-0.00015,-0.04089
3.0525,0.0032,-0.01587,-0.04196,-0.00168,-0.01877,-0.04868,-0.02899,0.00061,-0.05692,-0.04913,-0.03616,-0.04013,-0.03036,-0.17715,-0.00061,-0.0415
3.053,-0.0029,-0.01648,-0.03479,0.02106,-0.01053,-0.04791,-0.03464,-0.00565,-0.06256,-0.04776,-0.05386,-0.06714,-0.03098,-0.14893,-0.00198,-0.04349
3.0535,-0.01038,-0.02075,-0.02991,0.04929,-0.01373,-0.04745,-0.03494,-0.0148,-0.0769,-0.03967,-0.06256,-0.05295,-0.03006,-0.07339,-0.00153,-0.04486
3.054,-0.0177,-0.02853,-0.02884,0.07141,-0.02426,-0.04745,-0.03204,-0.02289,-0.09491,-0.03433,-0.07156,-0.00168,-0.02884,-0.01358,-0.00305,-0.04364
3.0545,-0.02106,-0.03662,-0.02884,0.06516,-0.0296,-0.047,-0.0296,-0.02258,-0.09857,-0.0351,-0.08362,0.04105,-0.02777,0.00107,-0.01022,-0.04211
3.055,-0.01999,-0.04242,-0.02975,0.03296,-0.03006,-0.04593,-0.02914,-0.01099,-0.07858,-0.04471,-0.09476,0.0415,-0.02838,-0.00504,-0.02396,-0.04303
3.0555,-0.01526,-0.04349,-0.02899,0.00412,-0.03433,-0.04639,-0.02396,0.00763,-0.04074,-0.05646,-0.10071,0.01343,-0.03036,-0.0087,-0.03738,-0.04547
3.056,-0.01022,-0.04013,-0.0293,0.00137,-0.04837,-0.04852,-0.0058,0.03128,0.0,-0.06439,-0.09811,-0.01373,-0.03159,-0.01175,-0.0386,-0.04639
3.0565,-0.00732,-0.03738,-0.02853,0.00977,-0.06195,-0.05051,0.02167,0.0502,0.03464,-0.06683,-0.09171,-0.03403,-0.03159,-0.01999,-0.02441,-0.04501
3.057,-0.00793,-0.03891,-0.02533,0.00076,-0.06012,-0.05295,0.04089,0.05234,0.06134,-0.065,-0.08469,-0.04654,-0.02884,-0.02441,0.00076,-0.04349
3.0575,-0.00565,-0.04532,-0.02121,-0.03021,-0.04608,-0.05569,0.03601,0.03464,0.07858,-0.05997,-0.07584,-0.04166,-0.02655,-0.01831,0.01831,-0.04272
3.058,0.00153,-0.05341,-0.0209,-0.06134,-0.03357,-0.05585,0.01282,0.0087,0.08667,-0.04868,-0.0621,-0.02869,-0.02609,-0.00763,0.01617,-0.04196
3.0585,0.01038,-0.05997,-0.02502,-0.07462,-0.02975,-0.05493,-0.00732,-0.00793,0.08636,-0.03464,-0.04349,-0.03464,-0.02655,-0.00351,-0.00275,-0.04181
3.059,0.01389,-0.06332,-0.03174,-0.07446,-0.03159,-0.05356,-0.01114,-0.01236,0.08087,-0.02136,-0.02548,-0.05814,-0.02853,-0.00793,-0.0264,-0.04135
3.0595,0.01114,-0.06409,-0.03586,-0.07202,-0.02975,-0.05264,-0.00519,-0.01144,0.07278,-0.0119,-0.01266,-0.06302,-0.03067,-0.01572,-0.03571,-0.03983
3.06,0.00595,-0.06317,-0.03815,-0.06561,-0.02213,-0.05417,-0.00443,-0.00931,0.06348,-0.00961,-0.00656,-0.03708,-0.03204,-0.02396,-0.01129,-0.03952
3.0605,0.00076,-0.05814,-0.03845,-0.05203,-0.01526,-0.05615,-0.01297,-0.00717,0.05203,-0.01678,-0.00259,-0.00839,-0.03174,-0.03204,0.03357,-0.03937
3.061,-0.00183,-0.05051,-0.0386,-0.03632,-0.01266,-0.0563,-0.02167,-0.00519,0.03998,-0.03204,-0.00076,-0.00763,-0.03006,-0.03708,0.05707,-0.03891
3.0615,-0.00214,-0.04349,-0.03998,-0.03021,-0.01083,-0.05173,-0.02243,-0.00519,0.0293,-0.04517,-0.00366,-0.03479,-0.02792,-0.03006,0.03815,-0.03738
3.062,-0.00259,-0.03677,-0.04135,-0.03036,-0.00763,-0.04883,-0.01633,-0.00732,0.02136,-0.0441,-0.01236,-0.06744,-0.0264,-0.0116,0.00061,-0.03769
3.0625,-0.00153,-0.03326,-0.0415,-0.01953,-0.00412,-0.04807,-0.01022,-0.00824,0.01389,-0.02975,-0.02289,-0.08606,-0.02304,0.00717,-0.02594,-0.03937
3.063,-0.00046,-0.03265,-0.04166,0.01053,-0.00092,-0.04715,-0.00839,-0.00793,0.00427,-0.01053,-0.02487,-0.08743,-0.01846,0.01617,-0.03006,-0.04166
3.0635,-0.00137,-0.0351,-0.04379,0.05234,0.00015,-0.04593,-0.01114,-0.00961,-0.00732,0.00854,-0.01343,-0.08789,-0.01587,0.01617,-0.01312,-0.04211
3.064,-0.00381,-0.03754,-0.04715,0.09354,0.00031,-0.04669,-0.01419,-0.01343,-0.01923,0.02716,0.00351,-0.09079,-0.01907,0.01709,0.02487,-0.03967
3.0645,-0.0061,-0.03967,-0.05341,0.12085,0.00504,-0.0499,-0.01511,-0.01678,-0.02411,0.04395,0.01678,-0.07599,-0.01907,0.02304,0.06958,-0.03952
3.065,-0.00565,-0.04486,-0.06592,0.11749,0.01648,-0.05447,-0.01312,-0.01617,-0.02228,0.05249,0.02045,-0.01999,-0.00809,0.03296,0.08438,-0.04242
3.0655,-0.00427,-0.04898,-0.08026,0.08102,0.03311,-0.0563,-0.01221,-0.01343,-0.01892,0.0528,0.01953,0.05188,0.00824,0.04486,0.05814,-0.04669
3.066,-0.0032,-0.04929,-0.08636,0.02808,0.04318,-0.05417,-0.01251,-0.01007,-0.01892,0.04654,0.01724,0.08041,0.00763,0.056,0.02213,-0.04852
3.0665,-0.00381,-0.04562,-0.08148,-0.02258,0.03098,-0.05341,-0.01358,-0.01007,-0.01938,0.03296,0.01419,0.04471,-0.02274,0.06042,0.01007,-0.04684
3.067,-0.00443,-0.04089,-0.06882,-0.06821,-0.00412,-0.05539,-0.01373,-0.01465,-0.01923,0.0119,0.00946,-0.0061,-0.06302,0.05814,0.01419,-0.04364
3.0675,-0.00488,-0.0354,-0.04929,-0.10925,-0.03769,-0.0563,-0.01175,-0.01862,-0.01846,-0.0119,0.00565,-0.00854,-0.08057,0.05417,0.01877,-0.04196
3.068,-0.00595,-0.02914,-0.02441,-0.13062,-0.0473,-0.05341,-0.01038,-0.01724,-0.02121,-0.03098,0.00626,0.04166,-0.07233,0.04227,0.01663,-0.04196
3.0685,-0.00778,-0.02548,-0.00198,-0.1088,-0.03754,-0.04944,-0.0119,-0.01114,-0.02777,-0.04486,0.01724,0.09827,-0.06653,0.00519,0.0145,-0.04349
3.069,-0.01175,-0.0264,0.01038,-0.04852,-0.03571,-0.04837,-0.01633,-0.00443,-0.03479,-0.05463,0.04852,0.13245,-0.07843,-0.05722,0.01663,-0.04471
3.0695,-0.01434,-0.02884,0.01434,0.01297,-0.05203,-0.04761,-0.01984,-0.00107,-0.04089,-0.05844,0.09384,0.1532,-0.09155,-0.11322,0.02106,-0.04379
3.07,-0.0145,-0.02808,0.01602,0.04379,-0.07538,-0.04745,-0.01846,0.00153,-0.0412,-0.05051,0.11887,0.16739,-0.08606,-0.12589,0.02319,-0.04074
3.0705,-0.01419,-0.02731,0.01389,0.03754,-0.09308,-0.04623,-0.01602,0.0058,-0.03326,-0.03677,0.09689,0.15869,-0.06348,-0.09491,0.02335,-0.03784
3.071,-0.01266,-0.0293,0.00641,0.0116,-0.10056,-0.04593,-0.01434,0.01038,-0.02731,-0.02289,0.03952,0.10818,-0.03845,-0.04623,0.02289,-0.03815
3.0715,-0.01282,-0.03448,-0.00305,-0.01312,-0.09521,-0.04517,-0.01419,0.00839,-0.03357,-0.01083,-0.01816,0.02563,-0.0238,-0.00046,0.0238,-0.03922
3.072,-0.01526,-0.03998,-0.01541,-0.02716,-0.08148,-0.0473,-0.01633,0.00031,-0.05066,-0.00183,-0.05737,-0.05005,-0.01877,0.03235,0.02136,-0.03922
3.0725,-0.01862,-0.04364,-0.0293,-0.0296,-0.07339,-0.04898,-0.02014,-0.00839,-0.06882,0.0058,-0.07523,-0.08698,-0.01968,0.0444,0.01068,-0.03769
3.073,-0.0206,-0.04349,-0.04852,-0.02472,-0.07507,-0.04745,-0.02426,-0.01251,-0.08224,0.01129,-0.07309,-0.09186,-0.01862,0.03677,-0.01205,-0.03784
3.0735,-0.01923,-0.04105,-0.07782,-0.01434,-0.07385,-0.04333,-0.0264,-0.0116,-0.09064,0.01373,-0.05203,-0.0914,-0.0116,0.02441,-0.03372,-0.03922
3.074,-0.01633,-0.03876,-0.11292,-0.00107,-0.06332,-0.03891,-0.02625,-0.01068,-0.0946,0.01389,-0.0267,-0.08469,-0.00092,0.02457,-0.04608,-0.03845
3.0745,-0.01053,-0.03754,-0.13901,0.00885,-0.04807,-0.03632,-0.02426,-0.01129,-0.09338,0.0119,-0.0206,-0.05066,0.00412,0.04044,-0.05295,-0.03693
3.075,-0.00366,-0.03769,-0.14603,0.01236,-0.03754,-0.03403,-0.02182,-0.01266,-0.08759,0.00854,-0.04166,0.00305,-0.00229,0.05936,-0.0592,-0.03738
3.0755,0.00381,-0.03738,-0.13718,0.01114,-0.03448,-0.03479,-0.02136,-0.01236,-0.07736,0.00443,-0.07278,0.03464,-0.02075,0.06577,-0.06134,-0.03998
3.076,0.00946,-0.03662,-0.11398,0.00763,-0.03128,-0.03708,-0.02075,-0.009,-0.06165,0.00183,-0.08759,0.0206,-0.0444,0.05127,-0.0499,-0.04227
3.0765,0.01205,-0.03799,-0.07126,0.00565,-0.0267,-0.03922,-0.01877,-0.00397,-0.0444,0.00137,-0.08347,-0.00931,-0.06775,0.01663,-0.03418,-0.04333
3.077,0.01358,-0.04242,-0.01328,0.00198,-0.02213,-0.03952,-0.01862,-0.00137,-0.02899,-0.00168,-0.07645,-0.01617,-0.08408,-0.02731,-0.01877,-0.04456
3.0775,0.01541,-0.05264,0.04074,-0.01495,-0.02014,-0.0383,-0.01892,-0.00198,-0.01968,-0.00793,-0.07538,0.00229,-0.08957,-0.06149,0.00168,-0.04776
3.078,0.01846,-0.06653,0.07904,-0.05722,-0.01846,-0.03708,-0.01801,-0.00229,-0.01099,-0.01587,-0.07553,0.02319,-0.08316,-0.06317,0.03723,-0.04822
3.0785,0.01938,-0.07523,0.09796,-0.11826,-0.01648,-0.03647,-0.01572,-0.00031,-0.00107,-0.02243,-0.07034,0.03143,-0.06775,-0.03159,0.08209,-0.04562
3.079,0.01465,-0.07385,0.10056,-0.16357,-0.01297,-0.03525,-0.01434,0.00183,0.00916,-0.02701,-0.05951,0.0325,-0.05173,0.0,0.10757,-0.04242
3.0795,0.00763,-0.06577,0.08575,-0.16235,-0.00427,-0.03204,-0.01328,0.00244,0.0145,-0.03067,-0.04837,0.03983,-0.0412,-0.00519,0.08942,-0.04166
3.08,-0.00015,-0.05936,0.05753,-0.11597,0.00549,-0.02945,-0.0119,0.00229,0.0148,-0.03372,-0.03632,0.05646,-0.03571,-0.04501,0.03983,-0.04349
3.0805,-0.00565,-0.05661,0.02518,-0.05112,0.01038,-0.02808,-0.01129,0.00381,0.01389,-0.03555,-0.01358,0.07187,-0.03189,-0.07477,0.00168,-0.04578
3.081,-0.00992,-0.05508,-0.00214,0.01602,0.0087,-0.02808,-0.01312,0.00519,0.01328,-0.03769,0.02823,0.07339,-0.02869,-0.0563,-0.00549,-0.04578
3.0815,-0.01221,-0.05386,-0.02365,0.08636,0.00443,-0.02975,-0.01541,0.00626,0.00778,-0.04227,0.07538,0.06149,-0.02655,-0.01251,0.00504,-0.04517
3.082,-0.01358,-0.05096,-0.03967,0.14313,0.0,-0.03113,-0.01541,0.00854,-0.00183,-0.04883,0.09323,0.05081,-0.02701,0.00641,0.0174,-0.047
3.0825,-0.01587,-0.04639,-0.05066,0.14648,-0.00259,-0.0325,-0.01511,0.0116,-0.01251,-0.06241,0.06897,0.0473,-0.0293,-0.00916,0.02884,-0.04822
3.083,-0.01923,-0.03937,-0.05676,0.08347,-0.00748,-0.03311,-0.01526,0.01022,-0.01968,-0.08224,0.0325,0.04486,-0.03647,-0.02396,0.04105,-0.04562
3.0835,-0.0238,-0.03174,-0.06088,0.00153,-0.01816,-0.03525,-0.01495,0.00214,-0.02304,-0.10101,0.01724,0.03189,-0.04562,-0.02136,0.04288,-0.04044
3.084,-0.02884,-0.02487,-0.06317,-0.04608,-0.03601,-0.03677,-0.01312,-0.00977,-0.02533,-0.10529,0.02823,0.00076,-0.0502,-0.01465,0.03357,-0.03616
3.0845,-0.03281,-0.01724,-0.06195,-0.06439,-0.05692,-0.03601,-0.01266,-0.01724,-0.02899,-0.09064,0.04578,-0.04028,-0.04578,-0.0174,0.0238,-0.03738
3.085,-0.03555,-0.00488,-0.06042,-0.09781,-0.06805,-0.0351,-0.01343,-0.01541,-0.02991,-0.07126,0.05188,-0.0769,-0.03662,-0.02777,0.02106,-0.04074
3.0855,-0.03357,0.00824,-0.06149,-0.15594,-0.06149,-0.03586,-0.01556,-0.00717,-0.02411,-0.05936,0.047,-0.10666,-0.02884,-0.04349,0.02243,-0.04318
3.086,-0.02594,0.01511,-0.06653,-0.20477,-0.04501,-0.04105,-0.01617,-0.00275,-0.01373,-0.05417,0.03815,-0.12909,-0.02457,-0.0708,0.02029,-0.04364
3.0865,-0.01724,0.00961,-0.06805,-0.19745,-0.03433,-0.04395,-0.01602,-0.00504,-0.00854,-0.04562,0.03021,-0.13016,-0.02457,-0.10208,0.0148,-0.04181
3.087,-0.00961,-0.00458,-0.06332,-0.11139,-0.03326,-0.04623,-0.01556,-0.00748,-0.01434,-0.02792,0.02274,-0.11246,-0.02502,-0.11185,0.00946,-0.03983
3.0875,-0.00595,-0.01938,-0.0528,0.02884,-0.03601,-0.04791,-0.01511,-0.00183,-0.02899,-0.00778,0.01251,-0.09857,-0.02472,-0.08575,0.00565,-0.03693
3.088,-0.00366,-0.03281,-0.04242,0.15503,-0.03403,-0.04898,-0.01328,0.00763,-0.04608,0.01053,-0.00275,-0.0943,-0.02151,-0.04364,0.00031,-0.03723
3.0885,-0.00168,-0.0444,-0.03235,0.20554,-0.03052,-0.04883,-0.01205,0.01053,-0.05478,0.02472,-0.02533,-0.08194,-0.0174,-0.01511,-0.009,-0.03922
3.089,-0.00122,-0.05356,-0.02579,0.1886,-0.02731,-0.05081,-0.01343,0.00137,-0.05035,0.03525,-0.05203,-0.05737,-0.01511,-0.00702,-0.02319,-0.04074
3.0895,-0.00336,-0.05981,-0.02258,0.15961,-0.02411,-0.0528,-0.01419,-0.00961,-0.0351,0.03906,-0.07858,-0.0441,-0.01572,-0.00275,-0.03372,-0.04028
3.09,-0.0058,-0.06348,-0.02014,0.14374,-0.01633,-0.05386,-0.01404,-0.01282,-0.01617,0.03555,-0.10101,-0.05798,-0.01572,0.00092,-0.03159,-0.03876
3.0905,-0.00885,-0.06485,-0.01999,0.1178,0.00122,-0.05341,-0.01633,-0.00748,0.00259,0.02563,-0.11765,-0.08636,-0.01236,-0.00916,-0.0206,-0.03845
3.091,-0.01038,-0.06424,-0.01953,0.07156,0.02609,-0.05249,-0.01862,-0.00076,0.02228,0.01343,-0.12817,-0.10452,-0.00916,-0.04089,-0.00809,-0.03983
3.0915,-0.01083,-0.06332,-0.01785,0.02777,0.05508,-0.04944,-0.01907,0.00107,0.04105,0.00412,-0.13138,-0.08881,-0.00732,-0.0798,0.00534,-0.0412
3.092,-0.01266,-0.06454,-0.01587,0.00793,0.08041,-0.04776,-0.01663,0.00351,0.05325,-0.00061,-0.12421,-0.03296,-0.00931,-0.08926,0.02274,-0.04242
3.0925,-0.01465,-0.06653,-0.01389,0.00839,0.09674,-0.04776,-0.01389,0.00763,0.05371,0.00076,-0.10529,0.03113,-0.01205,-0.05081,0.04257,-0.0441
3.093,-0.01617,-0.06882,-0.01419,0.00977,0.103,-0.04959,-0.01251,0.01129,0.04364,0.00671,-0.08209,0.0589,-0.01373,0.0087,0.05386,-0.04456
3.0935,-0.01862,-0.07034,-0.02075,0.00473,0.09766,-0.05295,-0.01266,0.00916,0.02899,0.01266,-0.06134,0.03769,-0.01434,0.04318,0.04791,-0.04562
3.094,-0.01968,-0.06897,-0.03098,-0.00122,0.07599,-0.05508,-0.01221,0.00351,0.01663,0.0148,-0.04578,-0.00092,-0.01526,0.0412,0.03128,-0.04669
3.0945,-0.01801,-0.06165,-0.03952,-0.00641,0.03754,-0.05585,-0.01129,0.00046,0.00443,0.01312,-0.0322,-0.02808,-0.01663,0.02747,0.02014,-0.047
3.095,-0.01373,-0.04974,-0.04364,-0.01907,-0.02243,-0.05814,-0.01114,0.00046,-0.00946,0.00793,-0.02243,-0.03647,-0.01892,0.02167,0.0235,-0.04852
3.0955,-0.00977,-0.03677,-0.047,-0.03784,-0.1091,-0.06119,-0.01068,0.00214,-0.02487,0.00031,-0.01694,-0.0296,-0.0238,0.01938,0.03616,-0.05035
3.096,-0.00656,-0.02533,-0.04822,-0.04898,-0.19867,-0.06226,-0.0119,0.00336,-0.03662,-0.00534,-0.01495,-0.01266,-0.03281,0.00977,0.0473,-0.0502
3.0965,-0.00412,-0.01633,-0.05096,-0.04364,-0.24002,-0.05737,-0.01266,0.00137,-0.03952,-0.01007,-0.01251,0.00076,-0.04181,-0.00275,0.04776,-0.04745
3.097,-0.00153,-0.01175,-0.05051,-0.03281,-0.21576,-0.04913,-0.01495,-0.00427,-0.03174,-0.01511,-0.00839,-0.00351,-0.04715,-0.00854,0.03937,-0.04471
3.0975,0.00031,-0.01343,-0.04715,-0.0386,-0.17242,-0.04333,-0.01648,-0.01068,-0.02167,-0.01755,-0.00549,-0.01114,-0.04456,-0.00641,0.02991,-0.04303
3.098,0.00198,-0.01938,-0.04562,-0.06012,-0.16083,-0.04303,-0.0174,-0.01465,-0.01648,-0.01968,-0.00534,0.00458,-0.03845,-0.00183,0.02106,-0.0415
3.0985,0.00183,-0.02701,-0.047,-0.0798,-0.1683,-0.04547,-0.01663,-0.01587,-0.01694,-0.02106,-0.00687,0.04837,-0.03235,-0.00168,0.00153,-0.03845
3.099,0.00259,-0.03021,-0.04761,-0.08713,-0.1532,-0.0444,-0.01587,-0.01602,-0.01648,-0.02258,-0.00748,0.09186,-0.03052,-0.00732,-0.04303,-0.03601
3.0995,0.00504,-0.0264,-0.04623,-0.09399,-0.11093,-0.04028,-0.01404,-0.01389,-0.01343,-0.02426,-0.00412,0.10712,-0.0293,-0.0209,-0.10727,-0.03494
3.1,0.00748,-0.0206,-0.0441,-0.10788,-0.07309,-0.03723,-0.01129,-0.00259,-0.01083,-0.02441,0.0032,0.0885,-0.02838,-0.04349,-0.15823,-0.03647
3.1005,0.00763,-0.01785,-0.04105,-0.10956,-0.05524,-0.03693,-0.01068,0.01434,-0.00854,-0.02136,0.01053,0.05447,-0.02716,-0.07034,-0.16861,-0.03937
3.101,0.0058,-0.02029,-0.03891,-0.07263,-0.04196,-0.04044,-0.01251,0.02716,-0.0032,-0.01953,0.01648,0.02594,-0.02563,-0.0882,-0.14008,-0.04059
3.1015,0.00458,-0.02594,-0.03769,-0.00153,-0.02151,-0.04349,-0.01434,0.02304,0.00443,-0.01831,0.02777,0.00778,-0.02335,-0.08286,-0.10605,-0.04074
3.102,0.00565,-0.03159,-0.03677,0.06668,0.00183,-0.04471,-0.01373,0.00656,0.0087,-0.01709,0.05142,-0.00534,-0.02197,-0.05768,-0.09338,-0.04288
3.1025,0.00534,-0.0383,-0.03677,0.08148,0.01999,-0.04425,-0.01221,-0.00702,0.00839,-0.01541,0.08148,-0.01221,-0.02411,-0.03143,-0.09079,-0.04745
3.103,0.00153,-0.04562,-0.03586,0.01923,0.02899,-0.04501,-0.0119,-0.00748,0.00824,-0.01343,0.09445,0.00015,-0.03036,-0.01877,-0.06744,-0.0531
3.1035,-0.00275,-0.04974,-0.03662,-0.08118,0.0322,-0.04486,-0.01221,-0.00229,0.01038,-0.01266,0.07462,0.03403,-0.03769,-0.01617,-0.00351,-0.05432
3.104,-0.00198,-0.04761,-0.03662,-0.14343,0.0325,-0.04501,-0.01266,-0.00183,0.01175,-0.01266,0.03891,0.07263,-0.04333,-0.0148,0.08591,-0.05081
3.1045,0.00305,-0.04257,-0.03448,-0.12924,0.02365,-0.04517,-0.01236,-0.00671,0.0087,-0.01297,0.00854,0.08942,-0.04669,-0.01266,0.14816,-0.04562
3.105,0.0061,-0.03723,-0.03357,-0.06622,-0.00443,-0.04791,-0.01221,-0.01266,-0.00015,-0.01419,-0.00626,0.07034,-0.047,-0.01221,0.14496,-0.04318
3.1055,0.00229,-0.0354,-0.03403,-0.00046,-0.0589,-0.05157,-0.01358,-0.01526,-0.01465,-0.01694,-0.01404,0.02426,-0.04486,-0.01495,0.10513,-0.04333
3.106,-0.00336,-0.03693,-0.03525,0.04181,-0.12268,-0.05569,-0.01541,-0.0148,-0.02838,-0.01938,-0.02121,-0.02289,-0.04196,-0.01831,0.0856,-0.04578
3.1065,-0.0061,-0.03799,-0.03632,0.05478,-0.15244,-0.05737,-0.01801,-0.01297,-0.03738,-0.01984,-0.0267,-0.0473,-0.04013,-0.01862,0.09827,-0.04791
3.107,-0.00534,-0.04013,-0.03616,0.0383,-0.12497,-0.05722,-0.01831,-0.01068,-0.04074,-0.01877,-0.02808,-0.04623,-0.03876,-0.01633,0.10422,-0.047
3.1075,-0.00565,-0.04288,-0.03586,0.00916,-0.0679,-0.05798,-0.01709,-0.00931,-0.04364,-0.01984,-0.02869,-0.03189,-0.03601,-0.01022,0.08026,-0.04257
3.108,-0.00687,-0.04517,-0.03586,-0.01144,-0.02792,-0.06088,-0.01511,-0.00839,-0.04929,-0.02411,-0.03174,-0.01465,-0.03128,-0.00168,0.04868,-0.03586
3.1085,-0.00443,-0.04547,-0.03571,-0.01404,-0.01801,-0.06561,-0.01404,-0.00656,-0.05737,-0.02945,-0.03967,0.01434,-0.02975,0.00549,0.03906,-0.03281
3.109,0.00122,-0.04333,-0.03616,-0.00656,-0.01938,-0.06729,-0.0148,-0.00275,-0.06561,-0.03464,-0.05112,0.06973,-0.0322,0.00717,0.04852,-0.03616
3.1095,0.00565,-0.04074,-0.0351,0.0029,-0.01495,-0.06592,-0.01633,0.00275,-0.07141,-0.03677,-0.06042,0.13885,-0.03632,0.00153,0.05341,-0.04074
3.11,0.00671,-0.03738,-0.03464,0.01328,-0.01022,-0.06378,-0.0174,0.00763,-0.07492,-0.03769,-0.05905,0.17853,-0.03876,-0.00854,0.03876,-0.04364
3.1105,0.00443,-0.03448,-0.03433,0.02609,-0.0145,-0.065,-0.0174,0.01266,-0.07294,-0.03677,-0.05005,0.16083,-0.03922,-0.01907,0.01495,-0.04471
3.111,0.00137,-0.03387,-0.0354,0.04028,-0.02274,-0.06592,-0.01694,0.0148,-0.065,-0.03403,-0.04074,0.10498,-0.03937,-0.0238,0.00092,-0.04807
3.1115,-0.00076,-0.03586,-0.03723,0.05173,-0.02563,-0.06592,-0.01785,0.0145,-0.047,-0.03281,-0.03464,0.04486,-0.03983,-0.01892,0.0,-0.05173
3.112,-0.00381,-0.03723,-0.03769,0.05585,-0.02563,-0.06393,-0.01953,0.01205,-0.01572,-0.03281,-0.02731,-0.00671,-0.03983,-0.00549,0.0032,-0.05203
3.1125,-0.00778,-0.03738,-0.03387,0.05035,-0.02716,-0.06195,-0.02274,0.0029,0.02991,-0.03189,-0.0148,-0.06027,-0.03632,0.00504,-0.00015,-0.04822
