time,RectFemL,VastusMedL,VastusLatL,TibAntL,HamMedL,HamLatL,GastroMedL,GastroLatL,RectFemR,VastusMedR,VastusLatR,TibAntR,HamMedR,HamLatR,GastroMedR,GastroLatR
6.93,-0.009,-0.02899,-0.01755,-0.08865,-0.08041,-0.02151,-0.01282,0.00717,0.0,-0.02365,-0.01556,-0.02121,-0.03082,-0.01541,0.03403,-0.04608
6.9305,-0.00931,-0.0293,-0.01831,-0.06561,-0.08438,-0.02136,-0.01175,0.00748,0.00137,-0.02029,-0.01175,-0.00793,-0.0325,-0.01678,0.05463,-0.03693
6.931,-0.00977,-0.03052,-0.01984,-0.02228,-0.07721,-0.02335,-0.01205,0.00854,0.00076,-0.01694,-0.009,0.0032,-0.03525,-0.01587,0.09384,-0.03525
6.9315,-0.00946,-0.03189,-0.02197,0.01602,-0.06348,-0.02762,-0.01358,0.01053,-0.00122,-0.01602,-0.01038,0.00763,-0.03632,-0.0148,0.10529,-0.00519
6.932,-0.00809,-0.03418,-0.02411,0.03418,-0.05127,-0.03098,-0.01434,0.01129,-0.00351,-0.01892,-0.01221,0.00473,-0.03632,-0.0145,0.07919,0.06134
6.9325,-0.00717,-0.0351,-0.02518,0.03937,-0.0412,-0.03311,-0.01343,0.01099,-0.00504,-0.0238,-0.00748,0.00214,-0.03662,-0.01495,0.04013,0.12711
6.933,-0.00732,-0.03555,-0.02655,0.0322,-0.03143,-0.03403,-0.01144,0.01007,-0.00549,-0.0322,0.00397,0.00381,-0.03693,-0.01602,0.00916,0.14816
6.9335,-0.00809,-0.03418,-0.02655,0.00641,-0.02197,-0.03586,-0.01099,0.00961,-0.00595,-0.04211,0.01129,0.0058,-0.03677,-0.01694,-0.02579,0.121
6.934,-0.00824,-0.03235,-0.02762,-0.03799,-0.01709,-0.03983,-0.01175,0.00824,-0.00595,-0.04791,0.00412,0.00443,-0.03647,-0.0174,-0.07706,0.06973
6.9345,-0.00702,-0.0325,-0.02792,-0.07858,-0.01862,-0.0444,-0.01358,0.00702,-0.0061,-0.04684,-0.01144,0.00122,-0.0354,-0.01907,-0.12344,0.01663
6.935,-0.00626,-0.03357,-0.02792,-0.09964,-0.02457,-0.04913,-0.01404,0.00412,-0.00793,-0.04242,-0.02289,0.00076,-0.03357,-0.02274,-0.12817,-0.03067
6.9355,-0.00656,-0.03403,-0.02975,-0.09399,-0.03052,-0.05295,-0.01572,0.00092,-0.01312,-0.03555,-0.02991,0.00107,-0.03281,-0.02609,-0.09552,-0.06622
6.936,-0.00839,-0.03418,-0.03204,-0.05341,-0.02991,-0.05646,-0.01709,-0.00107,-0.02045,-0.02899,-0.04745,-0.00092,-0.03403,-0.02533,-0.05707,-0.08591
6.9365,-0.01007,-0.0354,-0.03357,0.01678,-0.01495,-0.06104,-0.01785,0.00061,-0.02594,-0.02289,-0.07751,-0.00549,-0.03494,-0.02197,-0.01068,-0.09155
6.937,-0.00885,-0.0386,-0.03189,0.07629,0.00473,-0.06699,-0.01617,0.00183,-0.03036,-0.0148,-0.09766,-0.00549,-0.03601,-0.01801,0.08682,-0.09476
6.9375,-0.00473,-0.04211,-0.03082,0.0882,0.01526,-0.07446,-0.01465,0.00061,-0.03708,-0.00656,-0.08606,-0.00076,-0.03418,-0.01694,0.21683,-0.103
6.938,-0.00351,-0.04303,-0.03174,0.0708,0.01038,-0.08408,-0.01556,-0.00397,-0.04562,0.00031,-0.05066,0.00427,-0.03235,-0.01694,0.28168,-0.11551
6.9385,-0.00732,-0.04272,-0.03296,0.065,0.0029,-0.09476,-0.01633,-0.009,-0.04913,0.00336,-0.01678,0.00717,-0.03204,-0.01877,0.22659,-0.12695
6.939,-0.01312,-0.04349,-0.03296,0.07492,0.0,-0.103,-0.01602,-0.01007,-0.04379,0.00534,0.00198,0.0061,-0.03265,-0.02029,0.10559,-0.12466
6.9395,-0.01541,-0.04395,-0.03281,0.06958,-0.01083,-0.10757,-0.01526,-0.0087,-0.02991,0.00885,0.01038,0.00305,-0.0325,-0.01999,0.01114,-0.09369
6.94,-0.01205,-0.04456,-0.03632,0.04089,-0.04791,-0.112,-0.01755,-0.00717,-0.01526,0.01495,0.0148,-0.00031,-0.03036,-0.01724,-0.0264,-0.03403
6.9405,-0.00565,-0.04639,-0.04105,0.02335,-0.11154,-0.11932,-0.01907,-0.00687,-0.01053,0.01923,0.01495,-0.0032,-0.02838,-0.01419,-0.03601,0.03372
6.941,-0.00214,-0.04944,-0.04593,0.0354,-0.17654,-0.12909,-0.01877,-0.00687,-0.01938,0.01846,0.01144,-0.00443,-0.02838,-0.01129,-0.05035,0.07645
6.9415,-0.00351,-0.05341,-0.04852,0.05798,-0.21408,-0.1387,-0.01846,-0.00366,-0.03342,0.01175,0.00549,-0.00427,-0.02975,-0.00793,-0.07721,0.06897
6.942,-0.00595,-0.05844,-0.04852,0.06241,-0.21469,-0.14404,-0.01816,-0.00198,-0.03967,-0.00015,-0.00061,-0.00397,-0.03052,-0.0058,-0.09766,0.01251
6.9425,-0.00595,-0.06607,-0.04776,0.04623,-0.18539,-0.14465,-0.01648,-0.00336,-0.03464,-0.0116,-0.00748,-0.00473,-0.03204,-0.00534,-0.08469,-0.05554
6.943,-0.00443,-0.07065,-0.04578,0.0238,-0.13885,-0.14313,-0.0148,-0.00534,-0.02426,-0.0174,-0.01068,-0.00336,-0.03235,-0.00839,-0.02731,-0.09216
6.9435,-0.00305,-0.06866,-0.04578,0.00519,-0.09277,-0.1416,-0.0145,-0.00534,-0.01572,-0.02121,-0.01129,-0.00046,-0.03296,-0.01205,0.03784,-0.08789
6.944,-0.00198,-0.06134,-0.04776,-0.00717,-0.05981,-0.14343,-0.01495,-0.00183,-0.009,-0.02243,-0.01328,0.00198,-0.03296,-0.01633,0.0528,-0.0705
6.9445,-0.00031,-0.05463,-0.047,-0.0116,-0.04318,-0.14618,-0.01602,0.00137,-0.00366,-0.02243,-0.01999,0.00031,-0.03326,-0.02029,0.0058,-0.0705
6.945,-0.00061,-0.05081,-0.04318,-0.01297,-0.03632,-0.14999,-0.01572,0.00198,0.0,-0.0209,-0.02853,-0.00336,-0.03326,-0.02609,-0.04684,-0.08606
6.9455,-0.00198,-0.04776,-0.03708,-0.01663,-0.03128,-0.15442,-0.01434,0.00061,0.00046,-0.01923,-0.03128,-0.0061,-0.03174,-0.03128,-0.04929,-0.10223
6.946,-0.0032,-0.04395,-0.03235,-0.02502,-0.0264,-0.16022,-0.01389,-0.00061,0.00107,-0.01968,-0.02716,-0.00534,-0.03098,-0.03296,-0.01541,-0.10956
6.9465,-0.00259,-0.0415,-0.02914,-0.03265,-0.02258,-0.16602,-0.01373,-0.00122,0.00153,-0.02029,-0.01801,-0.00259,-0.03113,-0.03021,0.01099,-0.10696
6.947,-0.00046,-0.04059,-0.02853,-0.0354,-0.02075,-0.17029,-0.01282,-0.00061,0.00336,-0.02106,-0.00839,-0.00046,-0.03174,-0.02426,0.00992,-0.09811
6.9475,0.00031,-0.03906,-0.03067,-0.03174,-0.02029,-0.17105,-0.01053,0.00046,0.00458,-0.02029,-0.00107,0.00183,-0.03403,-0.02136,-0.00946,-0.07858
6.948,-0.00229,-0.03662,-0.03296,-0.02502,-0.02045,-0.16953,-0.01038,0.00137,0.00214,-0.0177,0.00275,0.00076,-0.03571,-0.02197,-0.03098,-0.04715
6.9485,-0.00793,-0.03433,-0.03555,-0.0119,-0.02121,-0.17029,-0.01266,0.0,-0.00168,-0.0145,0.00549,-0.00061,-0.03601,-0.02319,-0.03311,-0.00916
6.949,-0.01312,-0.03342,-0.03769,0.01129,-0.02487,-0.17334,-0.01495,-0.00061,-0.00519,-0.01434,0.00992,0.0,-0.03494,-0.02151,0.00732,0.01862
6.9495,-0.0145,-0.03296,-0.03799,0.03571,-0.03021,-0.17548,-0.01495,-0.00168,-0.00793,-0.01587,0.01389,0.00275,-0.03296,-0.01953,0.08423,0.02197
6.95,-0.01358,-0.03265,-0.03571,0.04379,-0.03265,-0.17548,-0.01358,-0.00244,-0.01175,-0.01648,0.01297,0.00504,-0.03143,-0.0177,0.13824,0.00519
6.9505,-0.01205,-0.03387,-0.03235,0.03128,-0.02884,-0.1741,-0.01343,-0.00366,-0.01755,-0.01724,0.00656,0.00381,-0.03098,-0.01816,0.10956,-0.01923
6.951,-0.00961,-0.03647,-0.03143,0.00488,-0.02197,-0.17273,-0.01511,-0.00595,-0.02121,-0.01999,-0.00687,0.00076,-0.03143,-0.01831,0.01389,-0.0415
6.9515,-0.00504,-0.03693,-0.03189,-0.03174,-0.01816,-0.17136,-0.01663,-0.00671,-0.02014,-0.02304,-0.02274,-0.00244,-0.03174,-0.01846,-0.06561,-0.06454
6.952,0.00015,-0.03418,-0.03174,-0.08331,-0.01831,-0.1712,-0.0177,-0.00717,-0.0177,-0.0267,-0.03357,-0.00275,-0.03204,-0.01877,-0.07507,-0.08301
6.9525,0.0029,-0.02701,-0.03006,-0.14572,-0.01846,-0.17303,-0.01816,-0.00641,-0.01892,-0.02808,-0.0354,-0.00137,-0.03296,-0.01862,-0.04456,-0.08621
6.953,0.00122,-0.01923,-0.02838,-0.2037,-0.0177,-0.17563,-0.01755,-0.00626,-0.02457,-0.02716,-0.03113,-0.00153,-0.03479,-0.01846,-0.0238,-0.07431
6.9535,-0.00168,-0.01587,-0.02655,-0.23102,-0.0177,-0.17624,-0.01572,-0.00687,-0.03067,-0.02777,-0.02228,-0.00305,-0.03555,-0.01831,-0.0293,-0.06317
6.954,-0.00412,-0.02075,-0.03067,-0.19943,-0.01648,-0.17441,-0.01434,-0.00626,-0.03311,-0.03006,-0.00931,-0.00412,-0.0351,-0.0177,-0.04013,-0.06256
6.9545,-0.00443,-0.03525,-0.04089,-0.10971,-0.01144,-0.16754,-0.01389,-0.00412,-0.03235,-0.03052,0.00168,-0.00397,-0.03494,-0.01511,-0.03967,-0.06638
6.955,-0.00565,-0.05096,-0.05341,-0.01068,-0.00229,-0.16174,-0.01251,-0.00305,-0.02914,-0.02899,0.00824,-0.00061,-0.03418,-0.01373,-0.02457,-0.06058
6.9555,-0.00748,-0.05875,-0.06409,0.04028,0.00839,-0.15762,-0.01175,-0.00519,-0.02762,-0.02731,0.01022,0.00198,-0.03281,-0.01251,0.01358,-0.047
6.956,-0.00626,-0.05676,-0.07263,0.03143,0.01709,-0.15427,-0.01312,-0.00977,-0.02838,-0.02701,0.00793,0.00229,-0.0322,-0.01175,0.0705,-0.0351
6.9565,-0.00595,-0.05264,-0.07538,0.0087,0.01907,-0.15045,-0.01465,-0.01251,-0.02579,-0.02747,0.00183,0.00153,-0.03204,-0.01251,0.11765,-0.02548
6.957,-0.00809,-0.0502,-0.06882,0.01236,0.01617,-0.14877,-0.01556,-0.01221,-0.01648,-0.02884,-0.01007,0.00107,-0.03326,-0.01511,0.11703,-0.01221
6.9575,-0.0119,-0.05066,-0.05035,0.04211,0.01007,-0.14755,-0.01434,-0.01266,-0.00473,-0.03036,-0.02304,0.00275,-0.03387,-0.01907,0.06714,0.00259
6.958,-0.01572,-0.05066,-0.02594,0.07248,0.00259,-0.14542,-0.0145,-0.01389,0.00046,-0.03052,-0.03052,0.00488,-0.03342,-0.02182,-0.00549,0.00839
6.9585,-0.01663,-0.05066,-0.00336,0.10025,-0.00595,-0.14236,-0.01526,-0.01617,-0.00244,-0.0293,-0.02975,0.00732,-0.0325,-0.02502,-0.06012,0.00076
6.959,-0.01633,-0.05173,0.01404,0.14053,-0.01923,-0.13702,-0.01434,-0.01862,-0.01083,-0.02502,-0.02335,0.01022,-0.03174,-0.02579,-0.07782,-0.01556
6.9595,-0.01404,-0.05264,0.02533,0.1857,-0.03647,-0.13107,-0.01251,-0.02045,-0.01892,-0.01801,-0.01602,0.00992,-0.03159,-0.02426,-0.05524,-0.03632
6.96,-0.00885,-0.04822,0.02808,0.19394,-0.05463,-0.1236,-0.01343,-0.01984,-0.02365,-0.01221,-0.01114,0.00885,-0.03036,-0.02029,-0.00565,-0.05951
6.9605,-0.00122,-0.03983,0.02213,0.14801,-0.065,-0.11505,-0.01617,-0.01816,-0.02365,-0.01144,-0.00916,0.00763,-0.02884,-0.01801,0.05646,-0.07858
6.961,0.00763,-0.03372,0.00977,0.07858,-0.06165,-0.10818,-0.01709,-0.01572,-0.01999,-0.01465,-0.00977,0.00961,-0.02808,-0.02136,0.10513,-0.08163
6.9615,0.01389,-0.03555,-0.00351,0.02396,-0.04745,-0.10101,-0.01328,-0.01419,-0.01434,-0.01938,-0.0116,0.01221,-0.02853,-0.02533,0.11475,-0.0676
6.962,0.01816,-0.03952,-0.01541,-0.01022,-0.03235,-0.09277,-0.00961,-0.01297,-0.01221,-0.02304,-0.01236,0.00961,-0.03021,-0.02396,0.07538,-0.04593
6.9625,0.0174,-0.03815,-0.02594,-0.04105,-0.02502,-0.08118,-0.01053,-0.01328,-0.01602,-0.02502,-0.01434,0.00305,-0.03281,-0.01968,0.01511,-0.02716
6.963,0.01251,-0.03342,-0.0354,-0.07721,-0.02365,-0.06897,-0.01373,-0.01266,-0.02106,-0.0235,-0.01801,-0.00381,-0.03433,-0.01816,-0.02213,-0.01328
6.9635,0.00488,-0.03174,-0.0412,-0.11078,-0.02396,-0.05829,-0.01419,-0.01251,-0.02258,-0.02182,-0.02151,-0.00717,-0.03387,-0.02075,-0.02625,-0.00687
6.964,-0.00214,-0.03387,-0.04227,-0.14236,-0.02426,-0.05096,-0.01282,-0.01266,-0.01892,-0.01968,-0.02167,-0.01038,-0.03326,-0.02289,-0.02029,-0.00656
6.9645,-0.00381,-0.03677,-0.04181,-0.1799,-0.02502,-0.04303,-0.01022,-0.01343,-0.01495,-0.01938,-0.02045,-0.01465,-0.0325,-0.02045,-0.01877,-0.0148
6.965,-0.00305,-0.03876,-0.04257,-0.21591,-0.02594,-0.03601,-0.00809,-0.01617,-0.01236,-0.02014,-0.02197,-0.01862,-0.03143,-0.0177,-0.01816,-0.02945
6.9655,-0.00366,-0.04105,-0.0444,-0.22018,-0.02502,-0.03052,-0.00717,-0.02258,-0.01038,-0.02243,-0.02411,-0.01923,-0.02945,-0.01816,-0.01144,-0.04379
6.966,-0.00641,-0.04486,-0.04456,-0.16571,-0.0264,-0.02579,-0.00793,-0.03052,-0.00961,-0.02319,-0.0267,-0.01785,-0.02899,-0.01953,0.00397,-0.05066
6.9665,-0.00946,-0.04745,-0.04364,-0.06577,-0.02792,-0.01907,-0.0087,-0.0354,-0.00793,-0.02151,-0.02594,-0.01495,-0.0296,-0.02014,0.02823,-0.04395
6.967,-0.01175,-0.04761,-0.04318,0.02792,-0.02594,-0.01068,-0.00931,-0.03311,-0.00793,-0.01755,-0.0238,-0.01068,-0.03052,-0.01923,0.06042,-0.03311
6.9675,-0.01236,-0.04578,-0.04333,0.08057,-0.01389,-0.00229,-0.01099,-0.02731,-0.00885,-0.01434,-0.02014,-0.00473,-0.0322,-0.01877,0.09064,-0.02823
6.968,-0.01053,-0.04608,-0.04425,0.10712,0.00443,0.00381,-0.01358,-0.02319,-0.00992,-0.0148,-0.01648,0.00015,-0.03372,-0.01923,0.10681,-0.03418
6.9685,-0.00854,-0.04868,-0.04562,0.13992,0.02197,0.00839,-0.01572,-0.01923,-0.01038,-0.0174,-0.01297,0.00153,-0.03433,-0.01801,0.10025,-0.04822
6.969,-0.009,-0.05005,-0.04684,0.17014,0.02975,0.01266,-0.01617,-0.01358,-0.01068,-0.01907,-0.00916,0.00076,-0.03448,-0.01709,0.06927,-0.06317
6.9695,-0.01282,-0.04944,-0.04837,0.16434,0.03174,0.01678,-0.01602,-0.0058,-0.01129,-0.01816,-0.00717,0.00244,-0.03357,-0.01801,0.0148,-0.07233
6.97,-0.01495,-0.04639,-0.04791,0.11612,0.03082,0.01984,-0.01465,0.0029,-0.01053,-0.01495,-0.009,0.00748,-0.0325,-0.02045,-0.05402,-0.07797
6.9705,-0.01297,-0.04211,-0.04425,0.05478,0.02487,0.02304,-0.01328,0.00992,-0.01129,-0.01266,-0.01312,0.00916,-0.03113,-0.02151,-0.1062,-0.07965
6.971,-0.00931,-0.03815,-0.03784,0.00839,0.009,0.02686,-0.01236,0.01373,-0.01129,-0.01297,-0.01556,0.00763,-0.03036,-0.02014,-0.11734,-0.07614
6.9715,-0.00687,-0.03708,-0.03189,-0.0119,-0.01358,0.03189,-0.01175,0.00977,-0.00992,-0.01434,-0.01404,0.00595,-0.03067,-0.01831,-0.09354,-0.065
6.972,-0.00778,-0.03708,-0.02853,-0.00275,-0.03693,0.03616,-0.01343,0.00031,-0.00641,-0.01724,-0.00946,0.00565,-0.03311,-0.0177,-0.06378,-0.05447
6.9725,-0.01083,-0.03738,-0.02579,0.02731,-0.06241,0.04028,-0.0148,-0.00793,-0.00351,-0.02075,-0.00275,0.00549,-0.03571,-0.02045,-0.05356,-0.05264
6.973,-0.01205,-0.03586,-0.02518,0.05554,-0.09094,0.04318,-0.01511,-0.01007,-0.00275,-0.02274,0.00931,0.00427,-0.03479,-0.02243,-0.0592,-0.06226
6.9735,-0.01328,-0.03265,-0.02518,0.06424,-0.11276,0.04456,-0.01434,-0.00793,-0.00397,-0.02289,0.01831,0.00366,-0.0325,-0.0235,-0.06149,-0.07385
6.974,-0.01373,-0.03036,-0.0264,0.0621,-0.11124,0.04562,-0.01266,-0.00626,-0.00854,-0.02075,0.01465,0.00305,-0.03143,-0.02396,-0.04532,-0.08057
6.9745,-0.0119,-0.02747,-0.02823,0.06912,-0.09018,0.04929,-0.01312,-0.00778,-0.01373,-0.01846,-0.00229,-0.00107,-0.03296,-0.02274,-0.01602,-0.0827
6.975,-0.00961,-0.02319,-0.02777,0.08377,-0.0647,0.05219,-0.01343,-0.01038,-0.01968,-0.01846,-0.0238,-0.0061,-0.0351,-0.01999,0.01587,-0.08026
6.9755,-0.00931,-0.02289,-0.02762,0.07172,-0.047,0.05386,-0.01511,-0.01266,-0.02502,-0.01877,-0.03784,-0.00732,-0.03555,-0.01724,0.04135,-0.07294
6.976,-0.00946,-0.02716,-0.03036,0.00458,-0.0296,0.05661,-0.01602,-0.0119,-0.02975,-0.01801,-0.04257,-0.00534,-0.03296,-0.01572,0.04715,-0.05951
6.9765,-0.00961,-0.03479,-0.03418,-0.09903,-0.00641,0.06302,-0.01587,-0.00931,-0.0354,-0.01587,-0.04303,-0.00229,-0.03006,-0.01526,0.03464,-0.04562
6.977,-0.00977,-0.03815,-0.03632,-0.18631,0.01617,0.06989,-0.01511,-0.00641,-0.04395,-0.0145,-0.04364,0.00076,-0.03006,-0.01495,0.01862,-0.04166
6.9775,-0.00992,-0.03571,-0.0383,-0.22598,0.0293,0.07385,-0.01389,-0.00366,-0.05234,-0.0148,-0.04593,0.00565,-0.03189,-0.01526,0.01938,-0.04379
6.978,-0.0087,-0.03265,-0.04196,-0.21332,0.02594,0.07462,-0.01419,-0.00366,-0.05615,-0.01755,-0.04822,0.01221,-0.03403,-0.01663,0.03647,-0.04517
6.9785,-0.00549,-0.03052,-0.04761,-0.15884,0.01068,0.07431,-0.0148,-0.00473,-0.05005,-0.02121,-0.04913,0.01526,-0.03357,-0.01816,0.05081,-0.0441
6.979,-0.00168,-0.03082,-0.05417,-0.09033,-0.00244,0.07172,-0.01556,-0.00412,-0.03311,-0.02441,-0.04456,0.01343,-0.03204,-0.01892,0.04364,-0.04395
6.9795,0.00061,-0.03143,-0.05692,-0.05081,-0.00854,0.07019,-0.01465,-0.00259,-0.00443,-0.02625,-0.03494,0.0087,-0.03204,-0.0174,0.01404,-0.04349
6.98,0.0,-0.03143,-0.05753,-0.05997,-0.01022,0.06912,-0.01328,-0.00153,0.02731,-0.02548,-0.02594,0.00519,-0.0322,-0.01617,-0.0322,-0.04318
6.9805,-0.00198,-0.03174,-0.05569,-0.09155,-0.01038,0.06927,-0.01434,-0.00092,0.04639,-0.02213,-0.02075,0.00122,-0.03204,-0.01556,-0.07675,-0.04868
6.981,-0.00198,-0.03296,-0.05051,-0.1152,-0.00824,0.06805,-0.01755,0.0,0.03983,-0.01846,-0.0174,-0.00351,-0.03235,-0.01572,-0.09247,-0.06699
6.9815,-0.00046,-0.03799,-0.04593,-0.12543,-0.01404,0.06577,-0.01938,0.00214,0.01663,-0.01617,-0.01282,-0.00519,-0.03296,-0.01572,-0.06561,-0.08499
6.982,0.00137,-0.04471,-0.04196,-0.13214,-0.03967,0.06134,-0.01923,0.00305,-0.00366,-0.01495,-0.0087,0.00031,-0.03326,-0.01709,-0.02167,-0.08179
6.9825,0.00229,-0.05035,-0.04089,-0.13107,-0.07614,0.05844,-0.0177,0.00198,-0.01129,-0.01602,-0.00687,0.00946,-0.03189,-0.01801,-0.00076,-0.05783
6.983,0.00336,-0.05341,-0.04044,-0.10986,-0.09506,0.05829,-0.01724,0.00015,-0.01099,-0.01602,-0.00778,0.01541,-0.03052,-0.01877,-0.00519,-0.04837
6.9835,0.00259,-0.056,-0.03784,-0.07095,-0.08942,0.05966,-0.01694,0.00137,-0.01114,-0.01648,-0.00839,0.00977,-0.03067,-0.01938,0.00687,-0.07263
6.984,0.00031,-0.05753,-0.0351,-0.02853,-0.08377,0.06195,-0.01541,0.00183,-0.01221,-0.01724,-0.00824,-0.00656,-0.03159,-0.0177,0.06836,-0.10315
6.9845,-0.00275,-0.05615,-0.03189,0.00687,-0.08743,0.06393,-0.01404,0.00305,-0.01312,-0.01694,-0.00961,-0.02121,-0.03189,-0.01663,0.13672,-0.10025
6.985,-0.00641,-0.05463,-0.0322,0.03723,-0.09277,0.06729,-0.01236,0.0032,-0.01328,-0.01709,-0.00961,-0.02319,-0.03143,-0.01694,0.13321,-0.06271
6.9855,-0.00732,-0.05463,-0.03479,0.0592,-0.08759,0.06989,-0.01099,0.00488,-0.01526,-0.01709,-0.00885,-0.01007,-0.03113,-0.01785,0.05432,-0.02609
6.986,-0.00763,-0.05783,-0.03738,0.05371,-0.07385,0.07248,-0.01144,0.00702,-0.01617,-0.01678,-0.00809,0.00412,-0.03143,-0.01923,-0.02396,-0.01633
6.9865,-0.00824,-0.06134,-0.03799,0.01358,-0.06149,0.07446,-0.01007,0.00732,-0.01678,-0.01755,-0.00839,0.009,-0.03204,-0.01984,-0.04364,-0.02945
6.987,-0.01007,-0.06119,-0.03693,-0.03418,-0.04974,0.07401,-0.00961,0.00595,-0.01694,-0.01709,-0.00946,0.00671,-0.03189,-0.0206,-0.0354,-0.04059
6.9875,-0.01068,-0.0589,-0.03662,-0.06027,-0.03021,0.07156,-0.00931,0.00473,-0.01709,-0.0174,-0.00854,0.00534,-0.03174,-0.02197,-0.0528,-0.03937
6.988,-0.01144,-0.05814,-0.03632,-0.07736,-0.00183,0.07355,-0.01144,0.00443,-0.0177,-0.01678,-0.00687,0.00427,-0.03067,-0.02258,-0.0885,-0.03052
6.9885,-0.01236,-0.06027,-0.03662,-0.11246,0.02853,0.07584,-0.01404,0.00336,-0.01816,-0.01511,-0.00687,0.00229,-0.0293,-0.02136,-0.08682,-0.02655
6.989,-0.01343,-0.0618,-0.03586,-0.1561,0.05554,0.07584,-0.01556,0.00183,-0.01846,-0.01556,-0.00839,0.00214,-0.02975,-0.01907,-0.02106,-0.03311
6.9895,-0.01053,-0.05997,-0.03479,-0.17258,0.08179,0.07202,-0.01648,0.00122,-0.01862,-0.01724,-0.00763,0.00641,-0.03128,-0.01816,0.06989,-0.05234
6.99,-0.00122,-0.05569,-0.03235,-0.14648,0.10452,0.06622,-0.01694,0.00198,-0.01862,-0.01877,-0.00443,0.01236,-0.03082,-0.01923,0.12146,-0.08194
6.9905,0.02396,-0.04974,-0.03143,-0.09094,0.10361,0.06226,-0.01694,0.00153,-0.01862,-0.01831,-0.00214,0.01602,-0.0296,-0.02106,0.11276,-0.11124
6.991,0.06454,-0.04623,-0.03189,-0.03845,0.06393,0.0589,-0.01633,0.00031,-0.01892,-0.01709,-0.00412,0.01617,-0.02991,-0.01938,0.07095,-0.12131
6.9915,0.09476,-0.04623,-0.03448,-0.03052,0.0,0.05356,-0.01587,0.0,-0.01923,-0.01663,-0.00854,0.01221,-0.03098,-0.01724,0.03098,-0.10391
6.992,0.08286,-0.04944,-0.03799,-0.08087,-0.04608,0.04852,-0.0145,0.0029,-0.01877,-0.01694,-0.01251,0.00656,-0.03189,-0.01511,0.00244,-0.05707
6.9925,0.02945,-0.05157,-0.04044,-0.14618,-0.05753,0.04623,-0.01236,0.00824,-0.01877,-0.01709,-0.01404,0.00275,-0.0322,-0.01617,-0.00778,0.01236
6.993,-0.02762,-0.05188,-0.04105,-0.17807,-0.06195,0.0499,-0.01205,0.01236,-0.01999,-0.01587,-0.01236,0.00137,-0.03159,-0.01923,0.00824,0.08362
6.9935,-0.05615,-0.05005,-0.03922,-0.17609,-0.0824,0.05844,-0.01511,0.01022,-0.02197,-0.0145,-0.01068,0.0,-0.03174,-0.02136,0.04181,0.11078
6.994,-0.05569,-0.04623,-0.03769,-0.16403,-0.1001,0.06882,-0.01923,0.00275,-0.02213,-0.01495,-0.00977,-0.00549,-0.03174,-0.02121,0.07904,0.07141
6.9945,-0.04486,-0.04166,-0.03494,-0.12375,-0.09552,0.07736,-0.02014,-0.00488,-0.02029,-0.01694,-0.00839,-0.01648,-0.03204,-0.01938,0.11002,0.00427
6.995,-0.03616,-0.03784,-0.03326,-0.00595,-0.07813,0.08163,-0.01617,-0.00824,-0.01892,-0.01724,-0.00961,-0.02899,-0.03159,-0.01862,0.13763,-0.03357
6.9955,-0.03174,-0.03769,-0.03159,0.19302,-0.06866,0.08194,-0.01175,-0.00992,-0.01816,-0.01678,-0.01068,-0.03708,-0.0322,-0.01694,0.14343,-0.03052
6.996,-0.02853,-0.03845,-0.02899,0.39902,-0.06088,0.08072,-0.01083,-0.01068,-0.01801,-0.01724,-0.01144,-0.0351,-0.03128,-0.01617,0.1123,-0.01801
6.9965,-0.02502,-0.03906,-0.02151,0.52063,-0.03494,0.07538,-0.01312,-0.00671,-0.01846,-0.01846,-0.01007,-0.02411,-0.03189,-0.01801,0.04852,-0.01709
6.997,-0.01984,-0.03708,-0.01282,0.52841,0.00061,0.06454,-0.01602,0.00458,-0.01953,-0.01862,-0.00885,-0.00992,-0.03387,-0.01938,-0.01251,-0.01053
6.9975,-0.0148,-0.03387,-0.01007,0.46738,0.02487,0.04852,-0.01724,0.01907,-0.0206,-0.01724,-0.01007,-0.00061,-0.03403,-0.01923,-0.05203,0.01907
6.998,-0.01114,-0.03387,-0.01465,0.38651,0.02869,0.03143,-0.0148,0.02411,-0.02121,-0.01709,-0.01083,0.00092,-0.03281,-0.01862,-0.07156,0.06332
6.9985,-0.00839,-0.0354,-0.02289,0.29617,0.0206,0.01358,-0.01038,0.01572,-0.02075,-0.01678,-0.01114,-0.00061,-0.0325,-0.01862,-0.08667,0.08682
6.999,-0.00671,-0.03815,-0.0322,0.17715,0.00946,-0.00381,-0.00793,0.00198,-0.02045,-0.01678,-0.01038,-0.00214,-0.03357,-0.01907,-0.09979,0.06271
6.9995,-0.00534,-0.04105,-0.03998,0.02441,-0.00336,-0.01816,-0.00839,-0.0058,-0.02014,-0.0174,-0.00885,-0.00229,-0.03342,-0.01877,-0.09949,0.00183
7.0,-0.00259,-0.04501,-0.04593,-0.14114,-0.01877,-0.02869,-0.00946,-0.00595,-0.01953,-0.01923,-0.009,-0.00198,-0.03159,-0.01831,-0.08392,-0.056
7.0005,-0.00092,-0.04623,-0.04578,-0.27008,-0.03601,-0.03677,-0.00824,-0.00046,-0.01968,-0.02075,-0.01083,0.0,-0.03082,-0.01907,-0.06989,-0.07324
7.001,-0.00305,-0.04303,-0.03906,-0.3093,-0.05844,-0.04303,-0.00854,0.0058,-0.01953,-0.02258,-0.01221,0.00244,-0.03174,-0.01907,-0.06516,-0.04868
7.0015,-0.0087,-0.03937,-0.02289,-0.233,-0.08667,-0.04456,-0.01221,0.00763,-0.01968,-0.02197,-0.01251,0.00427,-0.03281,-0.01877,-0.07309,-0.01968
7.002,-0.01404,-0.03708,-0.00153,-0.05829,-0.10712,-0.03815,-0.01953,0.00427,-0.01999,-0.02106,-0.01251,0.0058,-0.0325,-0.01907,-0.06287,-0.02029
7.0025,-0.01678,-0.03647,0.01526,0.14709,-0.10056,-0.02563,-0.02365,0.00137,-0.01877,-0.02014,-0.01328,0.00656,-0.03082,-0.01846,-0.01709,-0.04807
7.003,-0.01678,-0.03723,0.01694,0.27161,-0.06363,-0.00839,-0.0209,0.00153,-0.01785,-0.02106,-0.01465,0.00641,-0.03036,-0.01755,0.04288,-0.07294
7.0035,-0.01724,-0.03876,0.00443,0.25543,-0.01678,0.00595,-0.01648,0.00336,-0.01816,-0.0209,-0.0148,0.00427,-0.03021,-0.01678,0.07751,-0.07446
7.004,-0.01755,-0.0383,-0.00931,0.15808,0.01404,0.01053,-0.01633,0.00259,-0.01953,-0.02136,-0.01419,0.00259,-0.02899,-0.01831,0.0708,-0.05829
7.0045,-0.01617,-0.03693,-0.01892,0.08316,0.01846,0.00412,-0.01892,0.00076,-0.02045,-0.02045,-0.01404,0.00381,-0.02823,-0.02075,0.03998,-0.04211
7.005,-0.01343,-0.03586,-0.02777,0.06516,0.0032,-0.00565,-0.02029,0.00153,-0.01968,-0.0206,-0.01389,0.00381,-0.02899,-0.02151,0.00717,-0.03799
7.0055,-0.01266,-0.03616,-0.04059,0.06012,-0.01068,-0.01526,-0.01923,0.00534,-0.01801,-0.02167,-0.01389,0.00305,-0.03113,-0.01938,-0.0206,-0.04333
7.006,-0.01404,-0.03555,-0.05554,0.03265,-0.01175,-0.02243,-0.01694,0.00885,-0.01678,-0.02167,-0.01358,0.00229,-0.0322,-0.01755,-0.0383,-0.04822
7.0065,-0.01495,-0.03525,-0.06424,-0.02136,-0.01785,-0.02792,-0.01419,0.00793,-0.01816,-0.02121,-0.01434,0.00259,-0.03311,-0.01678,-0.02884,-0.04028
7.007,-0.01221,-0.0354,-0.0705,-0.08835,-0.05173,-0.03052,-0.01221,0.00336,-0.01907,-0.02106,-0.01541,0.00275,-0.03494,-0.0177,0.01892,-0.01434
7.0075,-0.00626,-0.03586,-0.07431,-0.14938,-0.10925,-0.02853,-0.00961,0.0,-0.01801,-0.02258,-0.01572,0.00153,-0.03662,-0.01877,0.07858,0.02258
7.008,-0.00015,-0.03235,-0.07721,-0.1767,-0.16144,-0.02258,-0.00931,-0.00107,-0.01648,-0.02258,-0.01434,0.00015,-0.03754,-0.01892,0.10574,0.04791
7.0085,0.00534,-0.02594,-0.07782,-0.15228,-0.18723,-0.01419,-0.009,-0.00122,-0.01648,-0.02289,-0.01358,0.00046,-0.03464,-0.01953,0.08377,0.03983
7.009,0.01022,-0.02075,-0.07538,-0.09323,-0.18204,-0.0029,-0.00961,-0.00122,-0.0174,-0.02197,-0.01511,0.00214,-0.03326,-0.01984,0.04211,0.0029
7.0095,0.01419,-0.01999,-0.06973,-0.02502,-0.14984,0.009,-0.01038,-0.00397,-0.0177,-0.02182,-0.01587,0.00275,-0.03403,-0.01968,0.00488,-0.03708
7.01,0.01648,-0.02136,-0.06271,0.05981,-0.10452,0.01709,-0.01144,-0.00824,-0.01785,-0.02075,-0.01526,0.00488,-0.03479,-0.01984,-0.02502,-0.06348
7.0105,0.01541,-0.02182,-0.05615,0.16785,-0.06378,0.01709,-0.01434,-0.01358,-0.01724,-0.01938,-0.01724,0.00626,-0.03433,-0.01892,-0.05798,-0.07935
7.011,0.01373,-0.01877,-0.0499,0.23819,-0.03876,0.01144,-0.01877,-0.01633,-0.01617,-0.01907,-0.02075,0.0061,-0.03235,-0.0177,-0.0914,-0.09277
7.0115,0.01251,-0.01328,-0.0441,0.1918,-0.02472,0.00275,-0.02197,-0.01678,-0.01587,-0.01923,-0.02274,0.00488,-0.03052,-0.01755,-0.11581,-0.10559
7.012,0.01175,-0.00946,-0.03601,0.04364,-0.00916,-0.00854,-0.02075,-0.01556,-0.01556,-0.01923,-0.02106,0.00458,-0.03052,-0.01831,-0.13336,-0.10437
7.0125,0.01114,-0.01038,-0.03021,-0.10666,0.01251,-0.02182,-0.0174,-0.01389,-0.01572,-0.01907,-0.01831,0.00565,-0.03326,-0.01968,-0.13824,-0.08423
7.013,0.00961,-0.01556,-0.02518,-0.19562,0.03586,-0.03448,-0.01419,-0.01282,-0.01617,-0.01831,-0.01999,0.00641,-0.03494,-0.02106,-0.11658,-0.06165
7.0135,0.00931,-0.02289,-0.02411,-0.24277,0.05508,-0.04211,-0.01404,-0.01266,-0.01678,-0.01831,-0.02274,0.00412,-0.0354,-0.02045,-0.05768,-0.05188
7.014,0.00687,-0.02914,-0.02335,-0.27985,0.06195,-0.04593,-0.01511,-0.01282,-0.01709,-0.01938,-0.0238,0.00107,-0.03403,-0.01968,0.00732,-0.04868
7.0145,0.00244,-0.03357,-0.02106,-0.29144,0.03723,-0.04715,-0.01678,-0.01251,-0.01724,-0.0206,-0.02304,-0.00198,-0.03281,-0.01877,0.02335,-0.03281
7.015,-0.00137,-0.0383,-0.01984,-0.24353,-0.02884,-0.04471,-0.01678,-0.01022,-0.01709,-0.01907,-0.02075,-0.00412,-0.03143,-0.0177,-0.01068,-0.00595
7.0155,-0.00397,-0.04364,-0.02045,-0.12909,-0.11246,-0.0386,-0.01648,-0.00809,-0.01724,-0.01801,-0.01877,-0.00565,-0.03052,-0.0174,-0.03296,0.009
7.016,-0.00229,-0.05371,-0.02396,0.01709,-0.16312,-0.0325,-0.01602,-0.00763,-0.0174,-0.01709,-0.01602,-0.00488,-0.03036,-0.01678,0.00259,0.00244
7.0165,-0.00061,-0.06546,-0.02838,0.13092,-0.15076,-0.02625,-0.01572,-0.00793,-0.01785,-0.01816,-0.0148,-0.00183,-0.03082,-0.01633,0.06302,-0.01862
7.017,0.00015,-0.07278,-0.02838,0.16022,-0.09995,-0.02106,-0.01511,-0.00763,-0.01755,-0.01938,-0.01389,-0.00122,-0.03189,-0.0174,0.07675,-0.04089
7.0175,-0.00031,-0.07568,-0.02548,0.10742,-0.05798,-0.01633,-0.01328,-0.00504,-0.01816,-0.01877,-0.01343,-0.0032,-0.0325,-0.01831,0.0174,-0.05676
7.018,-0.00092,-0.07675,-0.02579,0.02701,-0.04288,-0.00992,-0.0116,-0.0029,-0.01816,-0.01801,-0.0116,-0.00656,-0.03265,-0.01846,-0.06302,-0.06042
7.0185,0.00076,-0.07599,-0.03433,-0.02686,-0.04059,-0.0029,-0.00931,-0.00183,-0.01892,-0.01724,-0.01007,-0.009,-0.03281,-0.0177,-0.08087,-0.05951
7.019,0.00336,-0.07309,-0.04761,-0.03632,-0.03387,0.00183,-0.0087,-0.00214,-0.01846,-0.01724,-0.00641,-0.00885,-0.03494,-0.01755,0.00534,-0.06302
7.0195,0.00519,-0.06729,-0.05981,-0.01511,-0.0209,0.00519,-0.01068,-0.0029,-0.0177,-0.01694,-0.00229,-0.00473,-0.03479,-0.01801,0.15671,-0.07385
7.02,0.00366,-0.06134,-0.06393,0.00595,-0.00519,0.00931,-0.01068,-0.00351,-0.01663,-0.01648,-0.00076,-0.00107,-0.03464,-0.01846,0.2829,-0.08499
7.0205,-0.00153,-0.0563,-0.06042,0.00458,0.01144,0.01221,-0.01038,-0.00259,-0.01556,-0.01785,-0.00259,-0.00229,-0.03464,-0.01709,0.33386,-0.08926
7.021,-0.00687,-0.05219,-0.05432,-0.01877,0.02701,0.01114,-0.00931,-0.00046,-0.01404,-0.01816,-0.00519,-0.0058,-0.03525,-0.01587,0.32288,-0.09247
7.0215,-0.01099,-0.04761,-0.04852,-0.06378,0.03128,0.00565,-0.00854,0.00412,-0.01282,-0.01877,-0.00687,-0.00534,-0.03586,-0.01617,0.27039,-0.10727
7.022,-0.01266,-0.04318,-0.03784,-0.13504,0.01587,0.0,-0.00885,0.00717,-0.01282,-0.01923,-0.00778,-0.00168,-0.03647,-0.0177,0.1799,-0.12222
7.0225,-0.01389,-0.03876,-0.02884,-0.22095,-0.01205,-0.00519,-0.00931,0.00687,-0.01419,-0.01816,-0.00916,0.00046,-0.03708,-0.01785,0.07584,-0.10178
7.023,-0.01343,-0.03601,-0.0209,-0.28656,-0.03433,-0.00916,-0.01038,0.00381,-0.01556,-0.0177,-0.01022,0.00031,-0.03632,-0.01801,0.0174,-0.03525
7.0235,-0.01419,-0.03952,-0.01465,-0.30746,-0.03586,-0.01389,-0.01312,0.00122,-0.01587,-0.01633,-0.01099,0.00076,-0.03464,-0.01617,0.02625,0.02991
7.024,-0.01511,-0.04822,-0.01221,-0.29343,-0.02396,-0.01831,-0.01663,0.00183,-0.01541,-0.01846,-0.01144,0.00336,-0.03311,-0.0177,0.05035,0.03174
7.0245,-0.01678,-0.05615,-0.0116,-0.25925,-0.01541,-0.01801,-0.01999,0.00473,-0.01526,-0.01785,-0.01236,0.0058,-0.03342,-0.01816,0.03571,-0.03036
7.025,-0.01419,-0.05325,-0.01266,-0.18677,-0.01404,-0.0145,-0.0206,0.00793,-0.01556,-0.01678,-0.01373,0.00595,-0.03479,-0.01816,-0.00977,-0.09567
7.0255,-0.00824,-0.04028,-0.01358,-0.05829,-0.01114,-0.00946,-0.01892,0.00809,-0.01617,-0.01587,-0.01465,0.00488,-0.03342,-0.01801,-0.04501,-0.11566
7.026,-0.00198,-0.02731,-0.01343,0.10162,0.00092,-0.00336,-0.01663,0.00641,-0.01709,-0.01663,-0.01541,0.00381,-0.03296,-0.01907,-0.04684,-0.0975
7.0265,0.00015,-0.02228,-0.01511,0.215,0.01648,0.00336,-0.01633,0.00824,-0.01633,-0.01648,-0.01633,0.00351,-0.0322,-0.02014,-0.03387,-0.07446
7.027,-0.00214,-0.02441,-0.01556,0.21683,0.02686,0.00946,-0.01801,0.01526,-0.01526,-0.01617,-0.01556,0.00381,-0.03342,-0.02014,-0.03189,-0.05829
7.0275,-0.00458,-0.02579,-0.01648,0.11551,0.02457,0.01068,-0.01999,0.02228,-0.01434,-0.01663,-0.0145,0.0029,-0.03448,-0.02029,-0.04333,-0.04501
7.028,-0.00351,-0.02396,-0.01816,-0.01068,0.00443,0.00366,-0.0209,0.0174,-0.01511,-0.01785,-0.01389,0.00122,-0.03571,-0.02014,-0.05157,-0.03601
7.0285,-0.00031,-0.02289,-0.02228,-0.09109,-0.02533,-0.00595,-0.01801,-0.0032,-0.01526,-0.01831,-0.0148,-0.00031,-0.03571,-0.02029,-0.04944,-0.0441
7.029,0.00183,-0.02487,-0.02853,-0.10712,-0.0528,-0.01389,-0.01175,-0.03448,-0.01511,-0.01816,-0.01572,-0.00061,-0.03464,-0.02045,-0.04288,-0.06302
7.0295,0.00046,-0.02869,-0.03403,-0.07767,-0.06744,-0.01831,-0.00534,-0.05798,-0.01404,-0.0174,-0.01633,0.00092,-0.03311,-0.02075,-0.04028,-0.07401
7.03,-0.0029,-0.03006,-0.03662,-0.0238,-0.07294,-0.02441,-0.00015,-0.05325,-0.01358,-0.01617,-0.01694,0.00351,-0.03159,-0.01877,-0.04181,-0.07141
7.0305,-0.00778,-0.02762,-0.03555,0.04211,-0.07629,-0.03296,0.00076,-0.02594,-0.01358,-0.01465,-0.0174,0.00488,-0.03174,-0.01709,-0.04623,-0.07385
7.031,-0.01068,-0.02197,-0.03281,0.112,-0.07767,-0.04028,-0.00305,-0.01297,-0.01343,-0.01251,-0.01862,0.0032,-0.03326,-0.01465,-0.04913,-0.09567
7.0315,-0.01083,-0.01633,-0.03082,0.17319,-0.06363,-0.04196,-0.01068,-0.03754,-0.0145,-0.01236,-0.01892,-0.00015,-0.03418,-0.01495,-0.0473,-0.12314
7.032,-0.01144,-0.01328,-0.02975,0.19562,-0.03372,-0.04013,-0.01465,-0.07782,-0.01617,-0.01572,-0.01831,-0.00153,-0.03464,-0.01678,-0.03998,-0.11993
7.0325,-0.01282,-0.01373,-0.02945,0.14618,-0.00473,-0.03708,-0.01144,-0.09506,-0.01663,-0.01724,-0.01648,0.00046,-0.03418,-0.01846,-0.02899,-0.06943
7.033,-0.01663,-0.01785,-0.03006,0.02823,0.01221,-0.03616,-0.00702,-0.08148,-0.01526,-0.01694,-0.01816,0.00244,-0.03418,-0.01877,-0.01343,-0.00061
7.0335,-0.02258,-0.0238,-0.03159,-0.10895,0.02487,-0.03555,-0.00946,-0.04944,-0.01556,-0.01633,-0.01953,0.00137,-0.03448,-0.01816,0.01495,0.03784
7.034,-0.02457,-0.02914,-0.03281,-0.20172,0.04593,-0.03677,-0.01572,-0.00198,-0.01678,-0.01724,-0.01999,-0.00061,-0.03403,-0.01694,0.05112,0.02319
7.0345,-0.02243,-0.03159,-0.03235,-0.21591,0.0798,-0.03998,-0.01648,0.04745,-0.01663,-0.0174,-0.01999,-0.00153,-0.03494,-0.01587,0.0705,-0.02045
7.035,-0.01663,-0.03387,-0.03159,-0.15762,0.11185,-0.04456,-0.01236,0.06119,-0.01602,-0.01724,-0.01907,-0.00107,-0.03586,-0.01556,0.05615,-0.05051
7.0355,-0.01114,-0.03815,-0.03189,-0.04929,0.11871,-0.05066,-0.00931,0.03036,-0.01633,-0.01678,-0.01907,-0.00458,-0.03616,-0.01541,0.0264,-0.05432
7.036,-0.00656,-0.04517,-0.03403,0.07645,0.08621,-0.05814,-0.01312,-0.01297,-0.01678,-0.01663,-0.01801,-0.00793,-0.03571,-0.01556,0.01617,-0.05371
7.0365,-0.00275,-0.05356,-0.03922,0.16937,0.02762,-0.06561,-0.01831,-0.03143,-0.01709,-0.01556,-0.0174,-0.00687,-0.03525,-0.01663,0.04471,-0.05936
7.037,-0.00168,-0.06119,-0.04364,0.17395,-0.03799,-0.0705,-0.02167,-0.02472,-0.01709,-0.0177,-0.01785,-0.00168,-0.03433,-0.0177,0.09583,-0.05646
7.0375,-0.00107,-0.06516,-0.04425,0.07401,-0.09201,-0.07462,-0.02182,-0.00671,-0.01801,-0.01801,-0.01801,0.00183,-0.03479,-0.01801,0.12787,-0.02579
7.038,-0.00015,-0.06607,-0.04227,-0.0824,-0.12314,-0.07767,-0.02014,0.01755,-0.01877,-0.01877,-0.01709,0.00015,-0.03342,-0.0177,0.11093,0.01785
7.0385,0.00259,-0.06439,-0.03937,-0.22919,-0.12222,-0.08133,-0.01984,0.04242,-0.01892,-0.01617,-0.01541,-0.00122,-0.03296,-0.01816,0.06866,0.04211
7.039,0.00412,-0.06134,-0.03738,-0.33081,-0.08972,-0.0856,-0.02014,0.05219,-0.01785,-0.01373,-0.01434,-0.00046,-0.03326,-0.01877,0.02396,0.03571
7.0395,0.0032,-0.05737,-0.03342,-0.37201,-0.04059,-0.08957,-0.02014,0.04272,-0.01526,-0.01343,-0.01312,0.00351,-0.03342,-0.01892,-0.0206,0.0119
7.04,-0.00061,-0.05432,-0.02991,-0.32623,0.00763,-0.09079,-0.01923,0.02731,-0.0145,-0.01526,-0.01251,0.00671,-0.0325,-0.01892,-0.07202,-0.01495
7.0405,-0.00397,-0.05356,-0.03403,-0.21225,0.04684,-0.0943,-0.01831,0.0177,-0.01495,-0.01907,-0.01328,0.0058,-0.03174,-0.01862,-0.11139,-0.03906
7.041,-0.00656,-0.05402,-0.04913,-0.12192,0.06821,-0.10345,-0.01877,0.01099,-0.01495,-0.01923,-0.01404,0.00122,-0.03128,-0.01801,-0.11215,-0.05829
7.0415,-0.0087,-0.05447,-0.07294,-0.1181,0.05997,-0.11551,-0.01968,0.00259,-0.01358,-0.01816,-0.0145,-0.00153,-0.03128,-0.01602,-0.08408,-0.0766
7.042,-0.01053,-0.05127,-0.09445,-0.14374,0.01938,-0.12604,-0.02106,-0.00366,-0.01236,-0.01694,-0.01495,-0.00092,-0.03189,-0.0148,-0.06119,-0.09247
7.0425,-0.01038,-0.04456,-0.10345,-0.11017,-0.02533,-0.13657,-0.02151,-0.00458,-0.01251,-0.01755,-0.01511,0.00183,-0.0322,-0.01465,-0.06073,-0.10132
7.043,-0.00961,-0.03571,-0.10132,0.00366,-0.04074,-0.14679,-0.01984,-0.00549,-0.01434,-0.01785,-0.01358,-0.00015,-0.03281,-0.0177,-0.07034,-0.09796
7.0435,-0.01022,-0.02792,-0.09064,0.17838,-0.02579,-0.1564,-0.01617,-0.00916,-0.01526,-0.02014,-0.01282,-0.00687,-0.0322,-0.02045,-0.07126,-0.08881
7.044,-0.01358,-0.02365,-0.07065,0.38162,-0.00748,-0.16479,-0.01495,-0.01297,-0.01434,-0.02014,-0.01221,-0.01511,-0.03296,-0.02075,-0.05569,-0.08881
7.0445,-0.01816,-0.0238,-0.04089,0.5246,-0.0119,-0.17181,-0.0145,-0.0148,-0.01343,-0.01999,-0.01419,-0.01999,-0.03479,-0.01923,-0.02853,-0.10361
7.045,-0.01801,-0.02762,-0.00671,0.50873,-0.03922,-0.177,-0.0148,-0.01678,-0.01434,-0.01785,-0.01465,-0.02014,-0.03571,-0.01785,0.0029,-0.11826
7.0455,-0.01297,-0.0322,0.02258,0.36285,-0.07065,-0.18234,-0.0145,-0.02197,-0.01572,-0.01755,-0.01282,-0.01465,-0.03632,-0.01907,0.03418,-0.10727
7.046,-0.00443,-0.03784,0.04044,0.22446,-0.09903,-0.18799,-0.01572,-0.02808,-0.01648,-0.01755,-0.01282,-0.0061,-0.03677,-0.0206,0.06058,-0.05905
7.0465,0.00244,-0.04501,0.04684,0.16754,-0.12024,-0.19272,-0.01831,-0.03174,-0.01633,-0.01938,-0.01343,0.00107,-0.03708,-0.02151,0.06638,0.00259
7.047,0.00702,-0.05096,0.04288,0.13947,-0.13184,-0.19379,-0.0206,-0.03448,-0.01602,-0.0209,-0.01709,0.0032,-0.03601,-0.01968,0.04379,0.04608
7.0475,0.01129,-0.05554,0.03571,0.07446,-0.12253,-0.1947,-0.02167,-0.03784,-0.01541,-0.01999,-0.01968,0.0,-0.03403,-0.01755,0.00992,0.06256
7.048,0.01495,-0.05783,0.0238,-0.01221,-0.09186,-0.1976,-0.02167,-0.03845,-0.01556,-0.0206,-0.02106,-0.0032,-0.03204,-0.01801,-0.01129,0.06134
7.0485,0.01648,-0.05722,0.00946,-0.07492,-0.05157,-0.20065,-0.02167,-0.03464,-0.01465,-0.02136,-0.02075,-0.00137,-0.03159,-0.01877,-0.01816,0.04578
7.049,0.0174,-0.05524,-0.00229,-0.1033,-0.01663,-0.20416,-0.01907,-0.02884,-0.01389,-0.0206,-0.01968,0.00397,-0.03159,-0.02045,-0.02045,0.01511
7.0495,0.01938,-0.05417,-0.01175,-0.09735,-0.00092,-0.20721,-0.01495,-0.02396,-0.01282,-0.02045,-0.01877,0.00992,-0.0322,-0.02045,-0.01068,-0.01633
7.05,0.02014,-0.05402,-0.02655,-0.03479,-0.00336,-0.21164,-0.01114,-0.02167,-0.0119,-0.02075,-0.01816,0.01312,-0.03281,-0.01968,0.00946,-0.03403
7.0505,0.01724,-0.05295,-0.05615,0.07599,-0.0177,-0.21683,-0.00778,-0.02075,-0.01144,-0.02136,-0.01816,0.01404,-0.03296,-0.01862,0.02731,-0.0296
7.051,0.01068,-0.04898,-0.10895,0.1532,-0.03479,-0.22141,-0.00534,-0.01938,-0.01144,-0.0206,-0.01816,0.0116,-0.03235,-0.01923,0.02106,-0.01511
7.0515,0.00336,-0.04501,-0.17914,0.1091,-0.05661,-0.22522,-0.00519,-0.01694,-0.01236,-0.01923,-0.01755,0.00732,-0.03311,-0.01953,-0.00046,-0.00977
7.052,-0.00168,-0.04715,-0.24612,-0.06302,-0.08865,-0.23087,-0.00809,-0.01282,-0.01251,-0.01831,-0.01541,0.00214,-0.03433,-0.01923,-0.01602,-0.02579
7.0525,-0.00549,-0.05478,-0.28427,-0.27954,-0.13458,-0.2359,-0.0116,-0.00656,-0.01343,-0.02029,-0.01511,-0.00183,-0.03418,-0.01923,-0.0177,-0.04837
7.053,-0.01205,-0.06226,-0.28488,-0.41595,-0.18555,-0.23972,-0.01251,0.00031,-0.0145,-0.02182,-0.01617,-0.00168,-0.03387,-0.01968,-0.01312,-0.05997
7.0535,-0.02121,-0.06485,-0.24048,-0.37201,-0.22018,-0.23911,-0.01053,0.00412,-0.01526,-0.02151,-0.01572,0.00198,-0.0322,-0.01968,-0.01282,-0.06256
7.054,-0.02823,-0.06149,-0.14954,-0.16617,-0.21378,-0.23682,-0.00854,-0.00229,-0.01495,-0.0206,-0.01358,0.00412,-0.03021,-0.01907,-0.01328,-0.06729
7.0545,-0.02762,-0.05707,-0.02441,0.06332,-0.16861,-0.23239,-0.00977,-0.01648,-0.0145,-0.02167,-0.01251,0.00198,-0.02975,-0.01846,-0.009,-0.06638
7.055,-0.01251,-0.05524,0.10452,0.19348,-0.11047,-0.22797,-0.01297,-0.03036,-0.0148,-0.0206,-0.0119,-0.00397,-0.03021,-0.01938,0.00122,-0.04913
7.0555,0.02365,-0.05386,0.20142,0.20798,-0.0676,-0.22385,-0.01862,-0.03845,-0.01495,-0.02014,-0.0116,-0.00793,-0.03082,-0.0206,0.00916,-0.02777
7.056,0.06714,-0.05127,0.24948,0.15656,-0.04364,-0.21805,-0.02243,-0.04105,-0.01526,-0.0206,-0.01144,-0.00534,-0.03098,-0.01999,0.01175,-0.02838
7.0565,0.07858,-0.04593,0.24979,0.09644,-0.0293,-0.20874,-0.02319,-0.04089,-0.01526,-0.02136,-0.01175,0.00076,-0.03082,-0.01938,0.00305,-0.04852
7.057,0.03525,-0.0412,0.21225,0.0766,-0.01541,-0.19989,-0.02182,-0.03693,-0.01587,-0.02243,-0.01266,0.00595,-0.0296,-0.01984,-0.01175,-0.06287
7.0575,-0.03403,-0.0415,0.15564,0.10834,-0.00229,-0.1918,-0.02182,-0.02991,-0.0177,-0.02335,-0.01297,0.0087,-0.0296,-0.0209,-0.02167,-0.06058
7.058,-0.08041,-0.047,0.09781,0.13962,0.00534,-0.1857,-0.02441,-0.02396,-0.01846,-0.02289,-0.01297,0.0119,-0.03113,-0.02014,-0.01862,-0.05142
7.0585,-0.08667,-0.05264,0.05127,0.11307,0.00336,-0.17975,-0.02716,-0.02411,-0.01877,-0.02167,-0.0119,0.01434,-0.03204,-0.01953,-0.00977,-0.04837
7.059,-0.07004,-0.05402,0.01526,0.0325,-0.01312,-0.17151,-0.02731,-0.02899,-0.01801,-0.02029,-0.0119,0.01465,-0.03265,-0.01999,-0.00641,-0.05203
7.0595,-0.0528,-0.05051,-0.0145,-0.05005,-0.03967,-0.16418,-0.02487,-0.03708,-0.01694,-0.01968,-0.0116,0.01251,-0.0325,-0.0206,-0.00549,-0.05264
7.06,-0.04105,-0.04395,-0.03784,-0.09354,-0.04837,-0.15976,-0.02274,-0.04868,-0.01617,-0.01831,-0.01343,0.00809,-0.03403,-0.01892,-0.00214,-0.05096
7.0605,-0.0325,-0.03479,-0.05478,-0.09506,-0.0209,-0.15488,-0.02182,-0.05981,-0.01648,-0.01648,-0.0145,0.00305,-0.03342,-0.01694,0.00366,-0.04944
7.061,-0.02441,-0.02411,-0.06195,-0.0679,0.03204,-0.14648,-0.02228,-0.0647,-0.01648,-0.01495,-0.01312,-0.00214,-0.03204,-0.01678,0.00824,-0.04883
7.0615,-0.01587,-0.01389,-0.065,-0.02579,0.0705,-0.13855,-0.02243,-0.05966,-0.01587,-0.01434,-0.01266,-0.00626,-0.03326,-0.01755,0.01114,-0.04715
7.062,-0.00565,-0.00809,-0.07233,0.01709,0.07172,-0.1355,-0.02243,-0.047,-0.01495,-0.01648,-0.01266,-0.00534,-0.03357,-0.01907,0.01572,-0.04608
7.0625,0.00381,-0.00778,-0.08163,0.03876,0.04333,-0.13657,-0.02258,-0.03326,-0.01434,-0.01724,-0.0119,-0.00336,-0.03418,-0.01953,0.0209,-0.05005
7.063,0.00885,-0.01007,-0.08652,0.0322,-0.00168,-0.13474,-0.02182,-0.02335,-0.01526,-0.01907,-0.01175,-0.00504,-0.03342,-0.01816,0.02243,-0.06088
7.0635,0.00656,-0.01129,-0.08362,0.01205,-0.047,-0.12772,-0.02151,-0.01785,-0.01633,-0.01968,-0.01221,-0.01007,-0.03189,-0.01709,0.02075,-0.07202
7.064,0.0032,-0.01068,-0.0798,-0.00107,-0.06821,-0.11353,-0.02289,-0.01328,-0.01678,-0.01938,-0.01312,-0.01068,-0.03189,-0.01816,0.01633,-0.07874
7.0645,0.00305,-0.00977,-0.07629,-0.00992,-0.05005,-0.09338,-0.02151,-0.00595,-0.01663,-0.01801,-0.01236,-0.00397,-0.03403,-0.01846,0.00931,-0.08011
7.065,0.0058,-0.01038,-0.07523,-0.01999,-0.00763,-0.07141,-0.01877,0.00137,-0.01648,-0.0174,-0.01114,0.00351,-0.03418,-0.01846,0.00031,-0.08011
7.0655,0.00854,-0.01389,-0.0705,-0.02701,0.02762,-0.05844,-0.01511,0.00961,-0.01648,-0.01953,-0.01099,0.00717,-0.03372,-0.01755,-0.01144,-0.08041
7.066,0.01099,-0.01846,-0.06393,-0.0267,0.03616,-0.05417,-0.01404,0.01862,-0.01556,-0.02106,-0.01175,0.00732,-0.03387,-0.01678,-0.02213,-0.07889
7.0665,0.01297,-0.02121,-0.05859,-0.02594,0.02029,-0.0528,-0.01556,0.02518,-0.01541,-0.02136,-0.01328,0.00443,-0.03342,-0.0174,-0.02747,-0.07935
7.067,0.01175,-0.02121,-0.05997,-0.03036,0.00305,-0.04852,-0.01587,0.02975,-0.01694,-0.02029,-0.01495,0.00107,-0.03372,-0.01862,-0.0264,-0.08331
7.0675,0.00671,-0.02197,-0.06653,-0.03403,-0.00916,-0.04089,-0.01373,0.03403,-0.01816,-0.02014,-0.01556,-0.00076,-0.03311,-0.01724,-0.02289,-0.08835
7.068,0.00122,-0.02625,-0.07431,-0.03311,-0.01328,-0.03372,-0.01205,0.03952,-0.01862,-0.02121,-0.0148,0.00137,-0.03113,-0.01648,-0.01724,-0.09247
7.0685,-0.00031,-0.03311,-0.07904,-0.03281,-0.02304,-0.03052,-0.01389,0.0441,-0.01709,-0.02045,-0.01465,0.00458,-0.0296,-0.01785,-0.0145,-0.09933
7.069,0.00076,-0.03906,-0.08362,-0.03769,-0.04593,-0.02655,-0.01892,0.04547,-0.01556,-0.01846,-0.01434,0.00488,-0.03021,-0.01968,-0.01465,-0.11002
7.0695,0.00092,-0.04242,-0.09125,-0.04364,-0.06714,-0.0209,-0.02289,0.04608,-0.0145,-0.01587,-0.0148,0.00381,-0.03128,-0.01877,-0.01801,-0.10971
7.07,-0.00153,-0.04303,-0.09476,-0.04501,-0.06027,-0.01526,-0.02289,0.0499,-0.01343,-0.01541,-0.0145,0.00412,-0.02945,-0.01785,-0.01175,-0.08469
7.0705,-0.00214,-0.04425,-0.08514,-0.0415,-0.02563,-0.01205,-0.02014,0.05463,-0.01404,-0.01663,-0.01343,0.00519,-0.02838,-0.01678,0.01572,-0.04028
7.071,0.0,-0.04761,-0.05997,-0.03632,0.0116,-0.01007,-0.0148,0.05463,-0.0145,-0.01846,-0.01251,0.00397,-0.0296,-0.01831,0.07385,-0.00519
7.0715,0.00381,-0.04898,-0.03174,-0.02594,0.03189,-0.00748,-0.01175,0.04868,-0.01511,-0.01846,-0.01221,-0.00046,-0.03128,-0.01892,0.13992,-0.00259
7.072,0.00534,-0.04807,-0.01312,-0.01007,0.0293,-0.00443,-0.01038,0.04135,-0.01617,-0.01724,-0.01358,-0.00397,-0.03235,-0.01785,0.17029,-0.02319
7.0725,0.00336,-0.04608,-0.0058,0.00259,-0.00137,-0.00092,-0.00916,0.03876,-0.01663,-0.0174,-0.01511,-0.00443,-0.03326,-0.01648,0.14725,-0.02991
7.073,-0.00092,-0.04593,-0.01007,0.00305,-0.056,-0.00076,-0.00809,0.03876,-0.01526,-0.01724,-0.01602,-0.00488,-0.0322,-0.01724,0.09216,0.01038
7.0735,-0.00366,-0.05341,-0.01816,-0.00519,-0.10468,0.00092,-0.00595,0.04044,-0.01495,-0.01846,-0.01556,-0.00595,-0.03143,-0.01923,0.03723,0.08545
7.074,-0.0029,-0.07004,-0.02533,-0.009,-0.10986,0.00732,-0.00275,0.04501,-0.01587,-0.01801,-0.01633,-0.00244,-0.03204,-0.01984,-0.00046,0.13855
7.0745,0.00137,-0.08743,-0.02686,-0.00397,-0.08057,0.01724,0.00092,0.0502,-0.01709,-0.01663,-0.01587,0.00381,-0.0322,-0.01892,-0.01328,0.1326
7.075,0.00595,-0.09216,-0.0235,0.00137,-0.05753,0.02716,0.00092,0.05249,-0.01724,-0.01755,-0.01602,0.00946,-0.03265,-0.01801,-0.00702,0.08987
7.0755,0.00763,-0.07828,-0.02518,-0.00259,-0.06516,0.0325,-0.00259,0.05157,-0.01678,-0.01846,-0.01434,0.00885,-0.03128,-0.0177,0.00534,0.05096
7.076,0.00748,-0.05463,-0.04501,-0.01541,-0.08087,0.0354,-0.00549,0.04868,-0.01633,-0.01923,-0.01389,0.00076,-0.03098,-0.01755,0.01266,0.02655
7.0765,0.00839,-0.03616,-0.09354,-0.02548,-0.07477,0.03876,-0.00565,0.04593,-0.01617,-0.01907,-0.01251,-0.00809,-0.03159,-0.01694,0.01007,0.00854
7.077,0.00916,-0.02869,-0.16083,-0.02487,-0.04196,0.0444,-0.00397,0.04471,-0.01602,-0.01801,-0.0116,-0.01236,-0.03403,-0.01694,0.00687,-0.00839
7.0775,0.00839,-0.0264,-0.21698,-0.01526,-0.00412,0.04959,-0.00122,0.04425,-0.01709,-0.01831,-0.01038,-0.00885,-0.03433,-0.0177,0.00839,-0.01984
7.078,0.00519,-0.02319,-0.24582,-0.00336,0.01083,0.05203,0.00168,0.04395,-0.0174,-0.01984,-0.01175,-0.00214,-0.03403,-0.0177,0.01343,-0.02914
7.0785,0.00122,-0.02274,-0.25208,0.00443,-0.00641,0.0531,0.0029,0.04379,-0.01648,-0.02121,-0.01328,0.0029,-0.03204,-0.01923,0.01221,-0.03769
7.079,-0.00336,-0.02747,-0.23438,0.00732,-0.0386,0.05417,0.0032,0.04654,-0.01602,-0.02167,-0.01434,0.00397,-0.02991,-0.02136,0.00381,-0.04593
7.0795,-0.00717,-0.03601,-0.17746,0.00946,-0.05646,0.05859,0.00351,0.0502,-0.01648,-0.02014,-0.0145,0.00549,-0.0293,-0.02335,-0.00519,-0.05112
7.08,-0.01053,-0.04486,-0.07401,0.01022,-0.04578,0.06454,0.00305,0.05112,-0.01709,-0.01877,-0.01495,0.00748,-0.02975,-0.02319,-0.00931,-0.05234
7.0805,-0.01114,-0.04974,0.05081,0.00931,-0.02396,0.07019,0.00168,0.04654,-0.01724,-0.01923,-0.0148,0.00793,-0.03204,-0.02136,-0.00687,-0.05081
7.081,-0.01114,-0.05188,0.16342,0.00732,-0.01984,0.07156,0.00229,0.04105,-0.01709,-0.01984,-0.01511,0.0061,-0.03357,-0.02029,-0.00061,-0.05112
7.0815,-0.0119,-0.0502,0.24124,0.00305,-0.03876,0.07111,0.00641,0.03616,-0.01678,-0.01984,-0.01572,0.00305,-0.03387,-0.01999,0.00534,-0.05783
7.082,-0.01785,-0.04562,0.27512,-0.0058,-0.06683,0.06973,0.00992,0.0296,-0.01663,-0.01907,-0.01663,0.00244,-0.03281,-0.01892,0.00641,-0.06744
7.0825,-0.02838,-0.0415,0.26474,-0.02213,-0.0885,0.06973,0.00809,0.02106,-0.01709,-0.01892,-0.01511,0.00305,-0.03265,-0.02014,0.00519,-0.06897
7.083,-0.04074,-0.0415,0.22232,-0.04105,-0.09232,0.07233,0.00336,0.01389,-0.01755,-0.01862,-0.01251,0.00275,-0.03342,-0.02136,0.00443,-0.06088
7.0835,-0.05112,-0.04364,0.16891,-0.0531,-0.07309,0.07751,-0.00076,0.00885,-0.01709,-0.01709,-0.01022,0.00076,-0.03372,-0.02243,0.00809,-0.05341
7.084,-0.05417,-0.0444,0.11566,-0.0589,-0.04059,0.08194,-0.00183,-0.00107,-0.01648,-0.01541,-0.00946,0.0,-0.03448,-0.0209,0.01236,-0.05341
7.0845,-0.04959,-0.04761,0.06287,-0.06042,-0.01846,0.08286,-0.00336,-0.01984,-0.01633,-0.0148,-0.01068,0.0,-0.03448,-0.01862,0.01419,-0.05829
7.085,-0.04013,-0.05417,0.01572,-0.06042,-0.01846,0.08194,-0.0058,-0.03998,-0.01648,-0.01526,-0.01312,0.00092,-0.03326,-0.01678,0.01266,-0.05905
7.0855,-0.03021,-0.06195,-0.02106,-0.05463,-0.02319,0.08209,-0.00687,-0.04883,-0.01602,-0.01617,-0.0148,0.00092,-0.03189,-0.01633,0.009,-0.05463
7.086,-0.02258,-0.06256,-0.05264,-0.04532,-0.0116,0.08255,-0.00702,-0.04623,-0.01511,-0.01785,-0.0145,-0.00092,-0.03128,-0.01678,0.00656,-0.05219
7.0865,-0.01724,-0.05646,-0.08499,-0.03967,0.00931,0.08255,-0.00946,-0.04089,-0.0145,-0.01938,-0.01465,-0.00366,-0.03433,-0.01831,0.00671,-0.05402
7.087,-0.01434,-0.04852,-0.11688,-0.04181,0.01785,0.08041,-0.01282,-0.04013,-0.0145,-0.01923,-0.01556,-0.00458,-0.03677,-0.0206,0.00687,-0.05783
7.0875,-0.01083,-0.04364,-0.13718,-0.0473,0.00519,0.07721,-0.01587,-0.04303,-0.01511,-0.01877,-0.01633,-0.00336,-0.03708,-0.02014,0.00687,-0.05951
7.088,-0.00763,-0.03967,-0.14313,-0.05035,-0.01923,0.07156,-0.01816,-0.04501,-0.01526,-0.01907,-0.0148,-0.00275,-0.03555,-0.01877,0.00702,-0.05829
7.0885,-0.00458,-0.03433,-0.13855,-0.04654,-0.04517,0.06546,-0.0206,-0.04532,-0.01511,-0.01877,-0.01266,-0.00229,-0.03494,-0.01801,0.00671,-0.05493
7.089,-0.00397,-0.02975,-0.12756,-0.03784,-0.06149,0.06012,-0.02136,-0.04593,-0.01556,-0.01846,-0.01129,-0.00031,-0.03479,-0.01938,0.00717,-0.05493
7.0895,-0.00641,-0.02975,-0.10788,-0.02518,-0.06561,0.05875,-0.0206,-0.0473,-0.01587,-0.01862,-0.01099,0.00122,-0.03555,-0.02014,0.00839,-0.06073
7.09,-0.01434,-0.03342,-0.08011,-0.01266,-0.06073,0.05981,-0.01877,-0.04974,-0.01633,-0.01953,-0.01221,0.00092,-0.03571,-0.01923,0.00885,-0.06882
7.0905,-0.02487,-0.03998,-0.04623,-0.00412,-0.04898,0.06073,-0.01907,-0.05264,-0.01617,-0.01953,-0.01419,-0.00153,-0.03418,-0.01816,0.01007,-0.07553
7.091,-0.0325,-0.05157,-0.01373,0.00198,-0.02579,0.05844,-0.02014,-0.05325,-0.01663,-0.01816,-0.01511,-0.0032,-0.03265,-0.01846,0.01114,-0.08041
7.0915,-0.03662,-0.07141,0.0061,0.00732,-0.00549,0.05157,-0.02106,-0.047,-0.01648,-0.01511,-0.01419,-0.00107,-0.03113,-0.01877,0.01205,-0.08438
7.092,-0.04028,-0.09079,0.00946,0.00824,-0.00946,0.04196,-0.02121,-0.04074,-0.01648,-0.01419,-0.01099,0.00381,-0.03143,-0.01816,0.01312,-0.08438
7.0925,-0.04288,-0.0972,0.00153,0.00092,-0.03906,0.03189,-0.02136,-0.03845,-0.01678,-0.01511,-0.00992,0.00702,-0.03067,-0.01755,0.01312,-0.08026
7.093,-0.04257,-0.08667,-0.00717,-0.01114,-0.06546,0.02518,-0.02258,-0.04135,-0.01572,-0.01617,-0.01083,0.00366,-0.03052,-0.01846,0.01297,-0.07507
7.0935,-0.03738,-0.06836,-0.01663,-0.01968,-0.06958,0.02197,-0.0238,-0.04425,-0.01526,-0.01831,-0.01328,-0.00137,-0.03052,-0.02045,0.01282,-0.06866
7.094,-0.03082,-0.05325,-0.02686,-0.02335,-0.05997,0.02228,-0.02533,-0.04791,-0.01541,-0.01892,-0.01312,-0.00397,-0.03281,-0.02197,0.01633,-0.05966
7.0945,-0.0209,-0.0415,-0.04059,-0.0267,-0.04791,0.02167,-0.02548,-0.05005,-0.01617,-0.01816,-0.01312,-0.00229,-0.03555,-0.02304,0.02579,-0.04486
7.095,-0.00977,-0.0325,-0.05066,-0.03098,-0.0264,0.01587,-0.02502,-0.04822,-0.01663,-0.01923,-0.01404,0.00092,-0.03632,-0.02304,0.03448,-0.02884
7.0955,0.00137,-0.0238,-0.05524,-0.03632,0.00488,0.00702,-0.02472,-0.04059,-0.01556,-0.02075,-0.01724,0.0032,-0.03418,-0.02228,0.03693,-0.0209
7.096,0.01419,-0.01785,-0.05493,-0.04272,0.02335,0.0,-0.02289,-0.03204,-0.01465,-0.02029,-0.01953,0.00366,-0.03357,-0.01968,0.03159,-0.0264
7.0965,0.02716,-0.01678,-0.0528,-0.04761,0.01022,-0.00412,-0.02029,-0.02747,-0.01465,-0.0174,-0.01801,0.00092,-0.03448,-0.0177,0.02457,-0.04288
7.097,0.03983,-0.0206,-0.0502,-0.04654,-0.02396,-0.00824,-0.01877,-0.02716,-0.01556,-0.01617,-0.01602,-0.00275,-0.0351,-0.01755,0.01724,-0.05844
7.0975,0.04654,-0.02411,-0.047,-0.03693,-0.04791,-0.01129,-0.01862,-0.02487,-0.01617,-0.01572,-0.0148,-0.00519,-0.03326,-0.01846,0.00961,-0.06592
7.098,0.04349,-0.02441,-0.04547,-0.02121,-0.03952,-0.01404,-0.01907,-0.01938,-0.01648,-0.01587,-0.01526,-0.00427,-0.03204,-0.01923,0.00015,-0.0679
7.0985,0.03326,-0.02411,-0.04745,-0.00488,-0.00824,-0.01694,-0.02014,-0.01297,-0.01617,-0.01572,-0.01709,-0.00214,-0.03464,-0.01968,-0.00854,-0.0737
7.099,0.02274,-0.02365,-0.05157,0.00977,0.02121,-0.01953,-0.01923,-0.00534,-0.01617,-0.01602,-0.01709,-0.00031,-0.03784,-0.02045,-0.01526,-0.08118
7.0995,0.01663,-0.01801,-0.05432,0.02258,0.03815,-0.02213,-0.01709,0.00092,-0.01495,-0.01663,-0.01465,-0.00107,-0.03876,-0.01862,-0.01495,-0.07629
7.1,0.01541,-0.00488,-0.05234,0.03128,0.04776,-0.02518,-0.01511,0.00351,-0.01617,-0.01633,-0.01282,-0.00244,-0.03738,-0.01755,-0.01282,-0.04898
7.1005,0.01419,0.00931,-0.05066,0.0296,0.04379,-0.03006,-0.01389,0.00153,-0.01617,-0.01633,-0.01358,-0.00214,-0.03555,-0.01801,-0.01175,-0.01053
7.101,0.01099,0.01465,-0.05524,0.0148,0.0145,-0.0351,-0.01328,-0.00198,-0.01526,-0.01678,-0.01541,-0.00168,-0.03433,-0.01785,-0.00641,0.01282
7.1015,0.00702,0.01099,-0.06317,-0.0058,-0.03555,-0.0412,-0.01068,-0.00336,-0.01434,-0.0177,-0.01602,-0.00366,-0.03357,-0.01709,-0.00519,0.00366
7.102,0.00305,0.00458,-0.06958,-0.02365,-0.08713,-0.04959,-0.00656,-0.0029,-0.01419,-0.01755,-0.01633,-0.01114,-0.03387,-0.0177,-0.00839,-0.02319
7.1025,0.00107,0.00015,-0.07477,-0.03296,-0.13062,-0.05615,-0.00412,-0.00031,-0.01511,-0.01801,-0.01617,-0.0174,-0.03387,-0.01923,-0.00977,-0.03281
7.103,0.00015,-0.00412,-0.07568,-0.03464,-0.15137,-0.06027,-0.00565,0.00626,-0.01526,-0.01923,-0.01709,-0.01633,-0.03403,-0.01907,-0.00259,-0.01526
7.1035,-0.00046,-0.01068,-0.07736,-0.03403,-0.13702,-0.06302,-0.01022,0.02228,-0.01434,-0.01907,-0.01801,-0.01099,-0.03326,-0.01877,0.01221,0.00122
7.104,-0.00214,-0.01541,-0.07294,-0.03296,-0.09583,-0.06516,-0.01663,0.03998,-0.01495,-0.01938,-0.01755,-0.0087,-0.0325,-0.01907,0.01694,-0.00748
7.1045,-0.00229,-0.01465,-0.06134,-0.03036,-0.05402,-0.0679,-0.02197,0.04684,-0.01678,-0.01953,-0.01816,-0.01022,-0.0322,-0.01938,0.00916,-0.03235
7.105,0.00137,-0.00946,-0.04883,-0.02899,-0.0322,-0.0705,-0.02563,0.03876,-0.01846,-0.02029,-0.01923,-0.00778,-0.0322,-0.01877,0.00351,-0.04395
7.1055,0.00931,-0.00977,-0.03754,-0.02991,-0.02579,-0.07156,-0.02869,0.02319,-0.01846,-0.02029,-0.01877,0.00092,-0.03357,-0.01831,0.00687,-0.03555
7.106,0.01663,-0.01724,-0.03296,-0.02975,-0.01984,-0.07233,-0.03098,0.01495,-0.01801,-0.01999,-0.01709,0.00717,-0.03479,-0.01984,0.01938,-0.02487
7.1065,0.0177,-0.02777,-0.02777,-0.02502,-0.01663,-0.07278,-0.02991,0.01877,-0.0174,-0.02014,-0.01648,0.00168,-0.03525,-0.02136,0.02563,-0.0264
7.107,0.01846,-0.03311,-0.0238,-0.01541,-0.02838,-0.07324,-0.02457,0.02594,-0.01678,-0.01923,-0.01816,-0.01053,-0.03479,-0.02151,0.01419,-0.03494
7.1075,0.0264,-0.03723,-0.01633,-0.0058,-0.05005,-0.07355,-0.01785,0.02777,-0.01648,-0.01846,-0.01846,-0.0177,-0.03265,-0.02014,-0.01328,-0.04227
7.108,0.04288,-0.04456,-0.00961,0.00076,-0.05676,-0.07462,-0.01495,0.02365,-0.01678,-0.01755,-0.01572,-0.01373,-0.03189,-0.01907,-0.04227,-0.04379
7.1085,0.05493,-0.05554,-0.00412,0.00198,-0.04562,-0.07751,-0.01587,0.01892,-0.01785,-0.01862,-0.01236,-0.00458,-0.03021,-0.01907,-0.05951,-0.04318
7.109,0.05417,-0.06317,-0.00168,0.00031,-0.03586,-0.08026,-0.01678,0.0174,-0.01724,-0.02045,-0.01389,0.00198,-0.02869,-0.01846,-0.06821,-0.04471
7.1095,0.04715,-0.06607,-0.00122,-0.00015,-0.03662,-0.0795,-0.0174,0.0177,-0.01663,-0.02136,-0.0174,0.00336,-0.02823,-0.01801,-0.07462,-0.05051
7.11,0.04211,-0.06729,-0.00549,0.00076,-0.03906,-0.07568,-0.01678,0.0177,-0.01587,-0.01907,-0.01831,0.0029,-0.02655,-0.0174,-0.06622,-0.05875
7.1105,0.0415,-0.06638,-0.01251,0.00214,-0.03571,-0.07324,-0.01633,0.01633,-0.01572,-0.01892,-0.01587,0.00565,-0.02472,-0.01678,-0.02533,-0.06744
7.111,0.04227,-0.06287,-0.02335,0.00397,-0.03479,-0.07248,-0.0148,0.01465,-0.01587,-0.01999,-0.01297,0.01205,-0.0238,-0.01541,0.03281,-0.07401
7.1115,0.04028,-0.05646,-0.03479,0.00504,-0.03586,-0.07339,-0.01526,0.01389,-0.01526,-0.01968,-0.01343,0.01846,-0.02441,-0.01511,0.06592,-0.07767
7.112,0.03113,-0.04974,-0.04196,0.0061,-0.02731,-0.07492,-0.01587,0.01266,-0.01389,-0.01923,-0.01389,0.01968,-0.02731,-0.01434,0.05661,-0.07584
7.1125,0.01465,-0.04211,-0.05173,0.00671,-0.00961,-0.07797,-0.01724,0.00992,-0.01404,-0.01801,-0.01373,0.01755,-0.02914,-0.0148,0.0322,-0.06958
7.113,-0.0061,-0.03677,-0.07065,0.00748,0.0,-0.08423,-0.01602,0.00534,-0.01465,-0.01801,-0.01343,0.01282,-0.03098,-0.01602,0.02289,-0.06271
7.1135,-0.02533,-0.03632,-0.11444,0.00839,-0.00397,-0.09277,-0.0145,0.00031,-0.01663,-0.01801,-0.01465,0.00778,-0.03311,-0.01724,0.02609,-0.06088
7.114,-0.03983,-0.04013,-0.17075,0.00992,-0.00656,-0.09903,-0.01541,-0.00488,-0.01709,-0.01892,-0.01526,0.00381,-0.03448,-0.01801,0.02731,-0.0621
7.1145,-0.05905,-0.04272,-0.21332,0.01083,0.00244,-0.1033,-0.01633,-0.00839,-0.01556,-0.01923,-0.0148,0.00275,-0.03464,-0.01831,0.02411,-0.06073
7.115,-0.09857,-0.04211,-0.23163,0.01083,0.00595,-0.1062,-0.01526,-0.01083,-0.01404,-0.02014,-0.01328,0.00397,-0.03479,-0.01877,0.02441,-0.05447
7.1155,-0.15396,-0.04181,-0.23834,0.01007,-0.0119,-0.11002,-0.01297,-0.01221,-0.01282,-0.02014,-0.01343,0.0061,-0.03555,-0.01816,0.02487,-0.04791
7.116,-0.20218,-0.05005,-0.23209,0.0061,-0.04044,-0.11826,-0.01205,-0.01221,-0.01373,-0.01968,-0.01312,0.00565,-0.03525,-0.0174,0.02457,-0.04532
7.1165,-0.22293,-0.06958,-0.19394,-0.00015,-0.05157,-0.12741,-0.0119,-0.01022,-0.01572,-0.01968,-0.01434,0.0032,-0.03372,-0.01663,0.02167,-0.04486
7.117,-0.21362,-0.09247,-0.11703,-0.00641,-0.03494,-0.13474,-0.0119,-0.00656,-0.01495,-0.0177,-0.01465,-0.00046,-0.03281,-0.01617,0.02075,-0.04425
7.1175,-0.18066,-0.10651,-0.01083,-0.01343,-0.00504,-0.14053,-0.01221,-0.00214,-0.01312,-0.01678,-0.01328,-0.00305,-0.03387,-0.01617,0.02258,-0.04166
7.118,-0.12878,-0.10513,0.09842,-0.01984,0.01419,-0.14374,-0.01297,-0.00015,-0.01282,-0.01694,-0.01083,-0.0029,-0.03525,-0.01694,0.02106,-0.03876
7.1185,-0.06195,-0.09354,0.18585,-0.02472,0.01923,-0.14343,-0.0145,-0.00366,-0.01404,-0.01831,-0.00946,-0.00107,-0.0351,-0.01831,0.01709,-0.0386
7.119,0.00778,-0.0798,0.22537,-0.02747,0.0177,-0.14084,-0.01495,-0.01495,-0.0148,-0.01862,-0.01144,-0.00092,-0.03311,-0.01877,0.0145,-0.03891
7.1195,0.06149,-0.06699,0.19852,-0.02853,0.00458,-0.13748,-0.01526,-0.02869,-0.01358,-0.01968,-0.01358,-0.00183,-0.03036,-0.0177,0.01419,-0.03922
7.12,0.08636,-0.0528,0.11795,-0.02823,-0.0351,-0.13641,-0.01709,-0.03906,-0.01266,-0.01938,-0.01251,-0.00107,-0.03052,-0.01678,0.01541,-0.03799
7.1205,0.08835,-0.04059,0.03036,-0.02441,-0.0943,-0.13718,-0.0206,-0.04211,-0.01358,-0.01862,-0.01068,0.00198,-0.0322,-0.01709,0.01633,-0.03494
7.121,0.08102,-0.0325,-0.02518,-0.01709,-0.12726,-0.13626,-0.02289,-0.04059,-0.01511,-0.01892,-0.01083,0.00412,-0.03357,-0.01801,0.01526,-0.03311
7.1215,0.07294,-0.03021,-0.04211,-0.00961,-0.10086,-0.13428,-0.02136,-0.03799,-0.01602,-0.01846,-0.01328,0.00259,-0.03281,-0.0177,0.01251,-0.03418
7.122,0.06485,-0.02975,-0.02228,-0.00504,-0.03403,-0.1326,-0.02029,-0.03738,-0.01572,-0.01785,-0.01526,-0.00015,-0.03082,-0.01633,0.01038,-0.03586
7.1225,0.05615,-0.02747,0.02686,-0.00427,0.02701,-0.13138,-0.0209,-0.03998,-0.01434,-0.01877,-0.01556,-0.00198,-0.02945,-0.01526,0.00977,-0.03464
7.123,0.04608,-0.02609,0.08743,-0.00565,0.05753,-0.12772,-0.02075,-0.0415,-0.0145,-0.01831,-0.01572,-0.00107,-0.02991,-0.01556,0.01099,-0.03235
7.1235,0.03403,-0.02686,0.13641,-0.0061,0.06592,-0.12314,-0.01984,-0.04303,-0.01526,-0.01892,-0.01648,-0.00122,-0.03082,-0.01648,0.01251,-0.03342
7.124,0.01846,-0.02884,0.15167,-0.0061,0.06836,-0.12253,-0.01785,-0.04471,-0.01709,-0.01923,-0.01724,-0.00275,-0.03036,-0.01877,0.01282,-0.03616
7.1245,0.00153,-0.03296,0.11841,-0.00458,0.06989,-0.12482,-0.01633,-0.0444,-0.01801,-0.02075,-0.01633,-0.00458,-0.02991,-0.02075,0.0148,-0.03815
7.125,-0.01144,-0.04044,0.03738,-0.00107,0.06622,-0.12878,-0.01511,-0.04074,-0.0174,-0.02014,-0.01526,-0.00473,-0.03021,-0.0209,0.01831,-0.03952
7.1255,-0.01801,-0.04929,-0.06317,0.00137,0.05402,-0.13184,-0.01434,-0.03494,-0.0174,-0.01816,-0.01526,-0.00488,-0.02914,-0.01953,0.02182,-0.04379
7.126,-0.01755,-0.05386,-0.14725,0.0029,0.03433,-0.13321,-0.01343,-0.03021,-0.01694,-0.0174,-0.01572,-0.0061,-0.02777,-0.01816,0.01984,-0.05234
7.1265,-0.01511,-0.05142,-0.19119,0.00336,0.00595,-0.13412,-0.01205,-0.02701,-0.01694,-0.0174,-0.01556,-0.00916,-0.02808,-0.01831,0.0148,-0.05966
7.127,-0.01358,-0.04456,-0.18997,0.00214,-0.02914,-0.13489,-0.01114,-0.02502,-0.01602,-0.01846,-0.01495,-0.01114,-0.03082,-0.01999,0.01083,-0.056
7.1275,-0.01419,-0.04059,-0.13748,0.00107,-0.06851,-0.1355,-0.00946,-0.01999,-0.01694,-0.01816,-0.01343,-0.00961,-0.03433,-0.01953,0.00687,-0.04028
7.128,-0.01358,-0.04044,-0.0444,-0.00046,-0.09598,-0.13489,-0.00992,-0.01358,-0.01801,-0.0174,-0.0145,-0.00702,-0.03632,-0.01984,0.00504,-0.02533
7.1285,-0.00992,-0.04166,0.06256,-0.00107,-0.09003,-0.1326,-0.00961,-0.00671,-0.0174,-0.01602,-0.01724,-0.00427,-0.03662,-0.01984,0.0029,-0.02563
7.129,-0.00427,-0.04166,0.14816,-0.00137,-0.05646,-0.12817,-0.01007,-0.00305,-0.01663,-0.01541,-0.01877,-0.00305,-0.03601,-0.0209,-0.00092,-0.04196
7.1295,-0.00198,-0.04227,0.19165,-0.00473,-0.03403,-0.12238,-0.01038,-0.00153,-0.01617,-0.01617,-0.01694,-0.00061,-0.03555,-0.02151,-0.00244,-0.05768
7.13,-0.00458,-0.04593,0.19241,-0.01007,-0.05814,-0.11856,-0.01144,-0.00046,-0.01633,-0.01617,-0.01221,0.00381,-0.0351,-0.02182,0.00107,-0.06012
7.1305,-0.00839,-0.05219,0.16205,-0.01633,-0.13092,-0.12054,-0.01266,0.00214,-0.01709,-0.01648,-0.00977,0.00671,-0.03754,-0.02258,0.00748,-0.05127
7.131,-0.00641,-0.05859,0.11414,-0.01923,-0.21378,-0.12543,-0.01511,0.0061,-0.01648,-0.0174,-0.01129,0.00671,-0.04166,-0.02304,0.01205,-0.03891
7.1315,0.00473,-0.06119,0.06241,-0.0174,-0.24673,-0.12436,-0.01694,0.01083,-0.01663,-0.01846,-0.0145,0.00519,-0.04303,-0.02213,0.01404,-0.02823
7.132,0.02884,-0.05966,0.01633,-0.01465,-0.20386,-0.11627,-0.01617,0.01465,-0.0174,-0.02014,-0.01663,0.00427,-0.03998,-0.02045,0.01236,-0.01663
7.1325,0.05463,-0.05478,-0.02151,-0.01343,-0.11826,-0.10483,-0.01251,0.01541,-0.01709,-0.0206,-0.01556,0.00427,-0.03464,-0.0174,0.00977,-0.00549
7.133,0.06439,-0.04807,-0.05188,-0.01434,-0.05127,-0.09323,-0.00931,0.01312,-0.01663,-0.0209,-0.01465,0.00351,-0.03174,-0.01633,0.00641,0.00168
7.1335,0.05112,-0.04013,-0.0798,-0.01205,-0.0322,-0.0853,-0.00854,0.01053,-0.01694,-0.02121,-0.01495,0.00214,-0.03174,-0.01755,0.00565,-0.00092
7.134,0.02548,-0.03235,-0.10498,-0.00534,-0.04791,-0.0798,-0.00809,0.01083,-0.0174,-0.02182,-0.0174,0.00122,-0.03387,-0.01862,0.00641,-0.01175
7.1345,0.00397,-0.02625,-0.12817,0.00183,-0.0618,-0.07614,-0.00641,0.01328,-0.01816,-0.02274,-0.01785,0.00198,-0.03448,-0.01938,0.00595,-0.02167
7.135,-0.00671,-0.02304,-0.14816,0.00366,-0.05386,-0.07324,-0.00305,0.01678,-0.01785,-0.02274,-0.01755,0.00153,-0.03342,-0.01877,0.00763,-0.02472
7.1355,-0.0119,-0.02274,-0.15671,0.00046,-0.0267,-0.06775,-0.00183,0.01846,-0.01648,-0.02197,-0.01572,-0.00031,-0.03235,-0.01785,0.00885,-0.0235
7.136,-0.01617,-0.02472,-0.15198,-0.00275,0.00443,-0.06165,-0.00504,0.02045,-0.01511,-0.02151,-0.01419,-0.00122,-0.03296,-0.01801,0.01099,-0.0235
7.1365,-0.02213,-0.02869,-0.13672,-0.00351,0.03204,-0.05829,-0.01175,0.02457,-0.01495,-0.02167,-0.01221,-0.00015,-0.03311,-0.0177,0.00916,-0.02502
7.137,-0.02686,-0.03891,-0.1178,-0.00427,0.05829,-0.05646,-0.01785,0.02914,-0.01602,-0.02258,-0.01114,0.00122,-0.0322,-0.01862,0.00702,-0.02792
7.1375,-0.02945,-0.05707,-0.10071,-0.0058,0.07996,-0.05707,-0.01968,0.03052,-0.01709,-0.02258,-0.0119,0.00061,-0.03143,-0.01968,0.00519,-0.03052
7.138,-0.02975,-0.08041,-0.08194,-0.00717,0.08804,-0.05707,-0.01541,0.02747,-0.01678,-0.02121,-0.01389,-0.00214,-0.03159,-0.01968,0.00595,-0.03403
7.1385,-0.02884,-0.0972,-0.05844,-0.00839,0.08743,-0.05478,-0.01007,0.01541,-0.01511,-0.01938,-0.01526,-0.00336,-0.0322,-0.01907,0.00809,-0.03677
7.139,-0.02823,-0.09888,-0.03525,-0.0119,0.08713,-0.05325,-0.00793,-0.00214,-0.01495,-0.01678,-0.01434,-0.00168,-0.03113,-0.01785,0.009,-0.03769
7.1395,-0.03235,-0.08942,-0.02121,-0.01633,0.08545,-0.05264,-0.00885,-0.01343,-0.01602,-0.01785,-0.01389,0.00015,-0.02823,-0.01694,0.01114,-0.0383
7.14,-0.04089,-0.07858,-0.01419,-0.01862,0.05966,-0.05249,-0.00885,-0.00198,-0.0177,-0.01862,-0.01404,0.00076,-0.0264,-0.01694,0.01175,-0.03937
7.1405,-0.0502,-0.07599,-0.01114,-0.0177,-0.0174,-0.05356,-0.00916,0.02869,-0.01785,-0.01923,-0.01495,0.00031,-0.0267,-0.01755,0.01236,-0.04059
7.141,-0.05798,-0.08011,-0.00778,-0.0148,-0.12436,-0.05432,-0.01297,0.04883,-0.01678,-0.01892,-0.01389,0.00061,-0.02686,-0.01816,0.01221,-0.04059
7.1415,-0.06134,-0.08514,-0.00732,-0.01297,-0.19547,-0.05325,-0.02274,0.03937,-0.0148,-0.01907,-0.01266,0.00107,-0.0264,-0.01755,0.01175,-0.04059
7.142,-0.06226,-0.08377,-0.0087,-0.01282,-0.18265,-0.04654,-0.0325,0.01587,-0.01404,-0.01846,-0.01205,0.00214,-0.02487,-0.01648,0.01251,-0.04105
7.1425,-0.06058,-0.07629,-0.01236,-0.01236,-0.10956,-0.03601,-0.0354,0.00641,-0.01434,-0.01877,-0.01221,0.00229,-0.02594,-0.01541,0.01038,-0.04288
7.143,-0.05722,-0.06912,-0.01953,-0.01221,-0.05325,-0.02579,-0.0296,0.01251,-0.01556,-0.01968,-0.01419,0.00137,-0.02808,-0.01663,0.00748,-0.04807
7.1435,-0.05463,-0.06897,-0.03372,-0.01328,-0.05539,-0.01953,-0.02197,0.0206,-0.01617,-0.02106,-0.01541,0.00107,-0.02899,-0.01831,0.00458,-0.0563
7.144,-0.05341,-0.07324,-0.05127,-0.01465,-0.09079,-0.01648,-0.01709,0.01968,-0.0174,-0.02045,-0.01663,0.00214,-0.02838,-0.01892,0.0061,-0.06348
7.1445,-0.05112,-0.07263,-0.06897,-0.01541,-0.11078,-0.01282,-0.01648,0.01434,-0.01816,-0.01923,-0.01648,0.00412,-0.0267,-0.01801,0.01083,-0.05447
7.145,-0.04044,-0.06226,-0.08194,-0.01633,-0.09857,-0.00778,-0.0174,0.01068,-0.01785,-0.01877,-0.01663,0.00305,-0.02777,-0.01831,0.01251,-0.02747
7.1455,-0.02014,-0.04471,-0.08881,-0.01663,-0.07706,-0.00214,-0.01755,0.009,-0.01724,-0.01953,-0.01587,0.00031,-0.03052,-0.02106,0.01083,-0.00473
7.146,0.00397,-0.02472,-0.09201,-0.01572,-0.05951,0.0032,-0.0145,0.00748,-0.01678,-0.02045,-0.01556,-0.00046,-0.03265,-0.02304,0.009,-0.00916
7.1465,0.0264,-0.00351,-0.09094,-0.01404,-0.04623,0.00778,-0.00992,0.00458,-0.01694,-0.01999,-0.0145,0.00031,-0.03342,-0.0235,0.00824,-0.03098
7.147,0.04517,0.01694,-0.08606,-0.01526,-0.03113,0.01297,-0.00687,0.0029,-0.01587,-0.01892,-0.01328,0.00107,-0.03296,-0.02197,0.00839,-0.04532
7.1475,0.06104,0.03113,-0.07858,-0.01801,-0.01724,0.01633,-0.00778,0.00061,-0.01526,-0.01831,-0.01083,-0.00046,-0.03387,-0.01892,0.00778,-0.04425
7.148,0.07553,0.03754,-0.07141,-0.02014,-0.01114,0.01907,-0.01068,-0.00122,-0.0148,-0.01801,-0.01068,-0.0029,-0.03571,-0.01801,0.00778,-0.03876
7.1485,0.08606,0.03754,-0.06958,-0.02106,-0.01663,0.01846,-0.01312,-0.00244,-0.01541,-0.01663,-0.01297,-0.00229,-0.03738,-0.01892,0.00916,-0.03906
7.149,0.08499,0.03662,-0.06805,-0.02151,-0.02808,0.01587,-0.01328,-0.00275,-0.01617,-0.01633,-0.01617,-0.00046,-0.0383,-0.02029,0.01175,-0.04196
7.1495,0.06516,0.03571,-0.06531,-0.02426,-0.03128,0.01297,-0.01221,-0.00153,-0.01526,-0.01617,-0.0174,0.00092,-0.04059,-0.0206,0.01114,-0.04105
7.15,0.02975,0.0325,-0.06027,-0.02747,-0.00687,0.01495,-0.01175,0.00061,-0.0148,-0.01816,-0.0145,0.00031,-0.04166,-0.01968,0.0087,-0.03525
7.1505,-0.01236,0.02594,-0.0528,-0.02609,0.04013,0.02014,-0.01205,0.00046,-0.01343,-0.01984,-0.01236,-0.00107,-0.0412,-0.01846,0.00671,-0.0267
7.151,-0.05417,0.01617,-0.047,-0.0148,0.08575,0.02243,-0.01221,-0.00229,-0.01434,-0.02014,-0.0119,-0.00046,-0.03967,-0.01938,0.009,-0.01511
7.1515,-0.08835,0.00824,-0.047,-0.00168,0.1123,0.02151,-0.01129,-0.00748,-0.01633,-0.01984,-0.01251,0.00305,-0.03906,-0.02121,0.0116,-0.00656
7.152,-0.11108,0.00397,-0.05875,-0.00031,0.11795,0.02014,-0.00885,-0.0148,-0.01801,-0.01984,-0.01297,0.00412,-0.03845,-0.02274,0.0119,-0.00839
7.1525,-0.12115,0.00351,-0.08026,-0.01373,0.09933,0.01984,-0.00839,-0.02625,-0.01694,-0.02182,-0.01358,0.00443,-0.03632,-0.02228,0.0116,-0.01923
7.153,-0.12009,0.00122,-0.1033,-0.03677,0.05737,0.02396,-0.00946,-0.03738,-0.01587,-0.0235,-0.0145,0.00259,-0.03418,-0.02029,0.00885,-0.02945
7.1535,-0.10635,-0.00854,-0.11658,-0.06439,-0.00519,0.02594,-0.00977,-0.04135,-0.01572,-0.02274,-0.01572,0.00214,-0.03311,-0.01953,0.00641,-0.03204
7.154,-0.07736,-0.02045,-0.12024,-0.1001,-0.0798,0.02533,-0.01114,-0.03616,-0.01602,-0.02167,-0.01663,0.00183,-0.03281,-0.01923,0.0058,-0.03021
7.1545,-0.03693,-0.03082,-0.11902,-0.13428,-0.15381,0.01938,-0.00992,-0.02686,-0.01678,-0.02045,-0.01617,0.00244,-0.03052,-0.01816,0.00504,-0.0293
7.155,0.00549,-0.0386,-0.12054,-0.14526,-0.19943,0.01541,-0.00687,-0.0206,-0.01724,-0.02075,-0.01694,0.00153,-0.02808,-0.01816,0.00504,-0.03098
7.1555,0.04395,-0.04471,-0.1207,-0.11887,-0.18631,0.01663,-0.00046,-0.01801,-0.0177,-0.02014,-0.01678,0.00031,-0.02655,-0.01816,0.00671,-0.0322
7.156,0.07462,-0.04868,-0.11215,-0.06485,-0.12268,0.01785,0.00305,-0.01678,-0.01816,-0.01999,-0.01587,0.00015,-0.02655,-0.01984,0.00854,-0.03235
7.1565,0.09644,-0.04944,-0.09109,0.00397,-0.05432,0.01434,0.00381,-0.01495,-0.01709,-0.01953,-0.01511,0.00015,-0.02701,-0.02075,0.00778,-0.03311
7.157,0.11032,-0.04745,-0.0618,0.07675,-0.01846,0.00793,0.00412,-0.01694,-0.01526,-0.02014,-0.01373,0.00046,-0.0267,-0.0209,0.00717,-0.03403
7.1575,0.1178,-0.04425,-0.03235,0.1297,-0.01053,0.00504,0.00626,-0.02838,-0.01404,-0.02029,-0.01434,0.00183,-0.02731,-0.02045,0.0061,-0.03433
7.158,0.11963,-0.04059,-0.00549,0.13458,-0.00946,0.00519,0.00778,-0.05173,-0.01434,-0.01938,-0.01572,0.00244,-0.02838,-0.0206,0.00809,-0.03296
7.1585,0.11414,-0.03677,0.01984,0.09689,-0.00504,0.00534,0.00687,-0.08057,-0.01541,-0.0177,-0.01617,0.0032,-0.02884,-0.02136,0.00885,-0.03479
7.159,0.10376,-0.03113,0.04135,0.05798,-0.0116,0.00397,0.0029,-0.10406,-0.01526,-0.01724,-0.01572,0.00275,-0.0293,-0.02075,0.00946,-0.03723
7.1595,0.09583,-0.02228,0.05127,0.04501,-0.03494,0.00107,-0.00244,-0.11566,-0.01465,-0.01846,-0.0148,0.0029,-0.02975,-0.01984,0.00793,-0.03891
7.16,0.09277,-0.01633,0.0499,0.04059,-0.06088,-0.00046,-0.0058,-0.12619,-0.01389,-0.01892,-0.0145,0.00259,-0.03174,-0.01877,0.0061,-0.03723
7.1605,0.08957,-0.01831,0.04852,0.01755,-0.07095,-0.0029,-0.0119,-0.14786,-0.01373,-0.01907,-0.01602,0.0032,-0.03433,-0.0177,0.00656,-0.03616
7.161,0.07813,-0.02808,0.05157,-0.02518,-0.06134,-0.00229,-0.02182,-0.16937,-0.01343,-0.01907,-0.01678,0.00259,-0.03586,-0.01724,0.00626,-0.03677
7.1615,0.05661,-0.03891,0.05692,-0.06424,-0.04272,-0.00137,-0.03128,-0.14832,-0.01465,-0.01938,-0.01602,0.00153,-0.03525,-0.01678,0.00595,-0.03876
7.162,0.0296,-0.04654,0.05966,-0.0824,-0.0235,-0.00183,-0.03296,-0.05188,-0.01572,-0.01999,-0.01358,0.00076,-0.03372,-0.0174,0.0058,-0.03876
7.1625,0.00458,-0.04929,0.05585,-0.08041,-0.00259,-0.00824,-0.02655,0.08621,-0.01572,-0.01907,-0.01221,-0.00046,-0.03448,-0.01831,0.00534,-0.03754
7.163,-0.01328,-0.0499,0.04684,-0.0647,0.01968,-0.01709,-0.01938,0.17532,-0.0148,-0.02014,-0.01205,-0.00046,-0.03693,-0.0177,0.00595,-0.03784
7.1635,-0.02075,-0.05066,0.03113,-0.03799,0.0415,-0.02274,-0.02014,0.16602,-0.01419,-0.02151,-0.01205,-0.00244,-0.03693,-0.0174,0.00656,-0.03906
7.164,-0.02151,-0.05554,0.01297,-0.01038,0.0563,-0.02472,-0.02411,0.11978,-0.01541,-0.02045,-0.01099,-0.00061,-0.03525,-0.01877,0.00458,-0.04028
7.1645,-0.01999,-0.06332,-0.00351,-0.00015,0.06104,-0.02777,-0.02487,0.10788,-0.01663,-0.0209,-0.0116,0.00015,-0.0351,-0.01846,0.00275,-0.0415
7.165,-0.01755,-0.0676,-0.01465,-0.01083,0.05173,-0.02975,-0.02182,0.11414,-0.0174,-0.02014,-0.01328,0.0,-0.03693,-0.02029,0.00107,-0.0415
7.1655,-0.01404,-0.0679,-0.02121,-0.02563,0.03464,-0.03174,-0.01984,0.08026,-0.0174,-0.02136,-0.01541,0.00153,-0.03784,-0.02045,0.00214,-0.04074
7.166,-0.01099,-0.06485,-0.02716,-0.02747,0.01816,-0.0351,-0.02243,0.00061,-0.01648,-0.02136,-0.01511,0.00259,-0.0351,-0.01923,0.00229,-0.04135
7.1665,-0.01083,-0.06348,-0.0325,-0.01877,0.0029,-0.0383,-0.02869,-0.07706,-0.01648,-0.02182,-0.01251,0.00275,-0.03387,-0.01801,0.00351,-0.04181
7.167,-0.01099,-0.0647,-0.03372,-0.01221,-0.01892,-0.03754,-0.03326,-0.10223,-0.01587,-0.02228,-0.0119,0.00214,-0.0322,-0.01923,0.00427,-0.04272
7.1675,-0.00916,-0.06561,-0.03204,-0.01099,-0.05783,-0.0386,-0.03479,-0.05493,-0.01465,-0.02121,-0.0119,0.00305,-0.03204,-0.01968,0.00702,-0.04272
7.168,-0.00305,-0.06516,-0.03067,-0.01099,-0.09613,-0.03891,-0.03357,0.03784,-0.01434,-0.02167,-0.01297,0.00229,-0.0325,-0.01892,0.00809,-0.04318
7.1685,0.0029,-0.06439,-0.03098,-0.0087,-0.09949,-0.0415,-0.03189,0.10696,-0.01526,-0.02197,-0.01236,0.00046,-0.03418,-0.01968,0.00702,-0.0441
7.169,0.00397,-0.06226,-0.03357,-0.00778,-0.0589,-0.04257,-0.03189,0.10757,-0.01678,-0.02335,-0.01205,0.00031,-0.03571,-0.01984,0.00443,-0.04654
7.1695,-0.00137,-0.05966,-0.03647,-0.00778,-0.01022,-0.04318,-0.03204,0.06683,-0.01709,-0.02411,-0.01251,-0.00122,-0.03555,-0.01892,0.00092,-0.05005
7.17,-0.00778,-0.05646,-0.03799,-0.00885,0.00168,-0.04471,-0.03082,0.03601,-0.01556,-0.02411,-0.01221,-0.00061,-0.03387,-0.01663,0.00076,-0.04944
7.1705,-0.01144,-0.0528,-0.03891,-0.00992,-0.03571,-0.04593,-0.02838,0.02762,-0.01526,-0.02304,-0.01068,-0.00061,-0.03403,-0.01633,0.00137,-0.04791
7.171,-0.01328,-0.04852,-0.03967,-0.00946,-0.09171,-0.04379,-0.02609,0.02426,-0.01556,-0.0235,-0.01053,-0.00122,-0.03403,-0.01846,0.00244,-0.0444
7.1715,-0.01434,-0.04181,-0.04059,-0.0058,-0.1181,-0.04425,-0.02426,0.01617,-0.01617,-0.02319,-0.01236,0.00046,-0.03357,-0.01846,0.00259,-0.04181
7.172,-0.01663,-0.03326,-0.04181,-0.00061,-0.09827,-0.04776,-0.0238,0.00977,-0.01648,-0.02213,-0.01419,0.00046,-0.03159,-0.01877,0.00183,-0.04044
7.1725,-0.02029,-0.02808,-0.04349,0.00443,-0.06516,-0.05478,-0.02502,0.00793,-0.01724,-0.02075,-0.01404,0.00198,-0.03159,-0.01816,0.00275,-0.04181
7.173,-0.02487,-0.03174,-0.04547,0.00641,-0.06485,-0.06271,-0.02487,0.00671,-0.0174,-0.02029,-0.01343,0.00198,-0.03265,-0.01862,0.00305,-0.0444
7.1735,-0.02884,-0.03998,-0.04562,0.00427,-0.1091,-0.06836,-0.02151,0.0061,-0.01755,-0.02075,-0.01328,0.00076,-0.03357,-0.01755,0.00366,-0.04623
7.174,-0.02945,-0.04822,-0.0473,0.00122,-0.15747,-0.07141,-0.01694,0.00626,-0.0174,-0.02121,-0.01358,0.00122,-0.0322,-0.01587,0.00198,-0.04562
7.1745,-0.02808,-0.05356,-0.04791,-0.00015,-0.17075,-0.07538,-0.01312,0.00336,-0.01724,-0.0209,-0.01251,0.00198,-0.03128,-0.01526,0.00076,-0.04608
7.175,-0.02563,-0.05875,-0.0499,-0.00137,-0.13916,-0.08041,-0.0116,-0.00229,-0.01694,-0.02045,-0.01343,0.00244,-0.03159,-0.01602,0.00015,-0.04822
7.1755,-0.02472,-0.06348,-0.05173,-0.00443,-0.09384,-0.08621,-0.01205,-0.00656,-0.01724,-0.02075,-0.0148,0.00351,-0.03204,-0.0174,0.00183,-0.05142
7.176,-0.02563,-0.06592,-0.0502,-0.00961,-0.06409,-0.08957,-0.01282,-0.00885,-0.01785,-0.02075,-0.01572,0.00381,-0.03082,-0.01831,0.00153,-0.05142
7.1765,-0.03113,-0.06699,-0.04715,-0.01511,-0.05341,-0.09369,-0.01434,-0.01083,-0.01892,-0.0209,-0.01373,0.00473,-0.02991,-0.01846,0.00061,-0.04959
7.177,-0.04105,-0.0679,-0.04669,-0.01801,-0.04837,-0.0972,-0.01434,-0.01114,-0.01999,-0.02106,-0.01312,0.00427,-0.02991,-0.01862,0.00076,-0.04745
7.1775,-0.04929,-0.0679,-0.04944,-0.01801,-0.03922,-0.10086,-0.01251,-0.00916,-0.01984,-0.02121,-0.01511,0.00229,-0.0293,-0.01968,0.00198,-0.04883
7.178,-0.05157,-0.06638,-0.05142,-0.01816,-0.0296,-0.10315,-0.01007,-0.00641,-0.01892,-0.02151,-0.01846,0.00244,-0.02808,-0.01923,0.00336,-0.05051
7.1785,-0.0473,-0.06149,-0.05051,-0.01831,-0.02213,-0.103,-0.00702,-0.00671,-0.01816,-0.02136,-0.01892,0.00366,-0.02777,-0.02029,0.00259,-0.05005
7.179,-0.03967,-0.05447,-0.04837,-0.01907,-0.01831,-0.10056,-0.00458,-0.01419,-0.01785,-0.0206,-0.01617,0.00519,-0.02884,-0.02045,0.00137,-0.04944
7.1795,-0.0325,-0.05051,-0.0441,-0.01755,-0.01465,-0.09659,-0.0058,-0.02548,-0.01831,-0.01953,-0.01328,0.00366,-0.02975,-0.02045,0.00137,-0.0502
7.18,-0.02701,-0.04807,-0.04166,-0.01541,-0.01175,-0.09445,-0.009,-0.03387,-0.01953,-0.01862,-0.01282,0.00107,-0.02808,-0.01968,0.00366,-0.05188
7.1805,-0.02304,-0.047,-0.03998,-0.01373,-0.01129,-0.09399,-0.01404,-0.03632,-0.01984,-0.01709,-0.01343,0.00076,-0.02731,-0.0177,0.00595,-0.05203
7.181,-0.02289,-0.0441,-0.03967,-0.01251,-0.0119,-0.09445,-0.01801,-0.03296,-0.02029,-0.01465,-0.01328,0.00244,-0.02808,-0.0174,0.00397,-0.0499
7.1815,-0.02533,-0.03906,-0.03845,-0.01312,-0.01007,-0.0943,-0.01785,-0.02472,-0.01907,-0.01541,-0.01373,0.00275,-0.02975,-0.0177,0.00107,-0.04776
7.182,-0.02579,-0.03738,-0.03387,-0.0148,-0.00504,-0.09354,-0.01526,-0.01175,-0.01846,-0.01648,-0.01343,0.00076,-0.03128,-0.01801,0.00076,-0.04684
7.1825,-0.02197,-0.03937,-0.02808,-0.01541,0.00214,-0.09491,-0.0145,-0.00031,-0.01999,-0.01923,-0.01358,-0.00015,-0.0325,-0.0177,0.00046,-0.04715
7.183,-0.0145,-0.04059,-0.02686,-0.01175,0.00778,-0.0972,-0.01755,0.00565,-0.0209,-0.02045,-0.01434,0.00031,-0.03403,-0.01831,0.00153,-0.04822
7.1835,-0.00916,-0.03891,-0.02991,-0.00702,0.01007,-0.09995,-0.02167,0.00412,-0.01999,-0.01953,-0.0145,0.00183,-0.03571,-0.01816,0.00076,-0.05005
7.184,-0.00809,-0.03677,-0.0351,-0.00488,0.00992,-0.09964,-0.02106,-0.00122,-0.01923,-0.01877,-0.01526,0.00061,-0.03632,-0.01892,0.00275,-0.05081
7.1845,-0.00961,-0.03571,-0.03906,-0.00351,0.00732,-0.09949,-0.01572,-0.00443,-0.01938,-0.01694,-0.01648,-0.00107,-0.03586,-0.01984,0.00458,-0.04959
7.185,-0.01205,-0.0351,-0.04181,0.00244,0.00259,-0.09888,-0.01068,-0.00214,-0.02029,-0.01602,-0.0174,-0.00168,-0.03479,-0.01892,0.00336,-0.04791
7.1855,-0.01511,-0.03357,-0.04318,0.01312,-0.00259,-0.10025,-0.00977,-0.00031,-0.02151,-0.01541,-0.01648,-0.00183,-0.0354,-0.01846,0.00153,-0.04807
7.186,-0.01755,-0.03372,-0.04272,0.01846,-0.00687,-0.10147,-0.0145,-0.00275,-0.02045,-0.01541,-0.01556,0.0,-0.03647,-0.01755,-0.00092,-0.04868
7.1865,-0.01907,-0.03464,-0.03891,0.01266,-0.00961,-0.10162,-0.01907,-0.00885,-0.01953,-0.01709,-0.0148,-0.00122,-0.03677,-0.01816,0.00061,-0.04944
7.187,-0.02014,-0.03693,-0.03448,0.00137,-0.01068,-0.10086,-0.01877,-0.01205,-0.01801,-0.01907,-0.01633,-0.00244,-0.03525,-0.01907,0.00214,-0.04868
7.1875,-0.02228,-0.03998,-0.0325,-0.00641,-0.00992,-0.09979,-0.01404,-0.00809,-0.01846,-0.02045,-0.01907,-0.00336,-0.03342,-0.02106,0.00336,-0.04807
7.188,-0.0264,-0.04333,-0.03525,-0.00626,-0.0087,-0.09995,-0.00626,0.0058,-0.01968,-0.01999,-0.01801,-0.00366,-0.03174,-0.02304,0.00458,-0.04761
7.1885,-0.03159,-0.04623,-0.04196,-0.0032,-0.00946,-0.09918,0.00336,0.02426,-0.02121,-0.01953,-0.01678,-0.00198,-0.03021,-0.02441,0.00519,-0.04715
7.189,-0.03708,-0.047,-0.04898,-0.00183,-0.0116,-0.09918,0.01343,0.03418,-0.02213,-0.01907,-0.0145,0.00107,-0.0296,-0.02274,0.00519,-0.04913
7.1895,-0.03662,-0.04379,-0.05356,-0.00397,-0.01129,-0.09811,0.01694,0.0235,-0.02045,-0.0177,-0.01312,0.00351,-0.02884,-0.01938,0.00549,-0.05219
7.19,-0.03067,-0.04028,-0.05692,-0.00534,-0.01205,-0.09888,0.00916,-0.00168,-0.01816,-0.01801,-0.01312,0.00519,-0.02838,-0.0177,0.0058,-0.0528
7.1905,-0.0209,-0.0386,-0.0618,-0.00412,-0.01755,-0.09918,-0.00122,-0.02579,-0.01801,-0.0174,-0.0148,0.00427,-0.02975,-0.0177,0.0058,-0.05112
7.191,-0.01053,-0.03723,-0.06134,-0.00107,-0.0293,-0.1004,-0.00381,-0.03754,-0.01877,-0.01678,-0.01511,0.00381,-0.03143,-0.0174,0.0061,-0.04898
7.1915,-0.00214,-0.03632,-0.05493,0.0,-0.03494,-0.103,0.00031,-0.0444,-0.01816,-0.01663,-0.01312,0.00427,-0.0325,-0.01846,0.00732,-0.04868
7.192,0.00504,-0.03647,-0.04272,-0.00168,-0.01923,-0.1033,-0.00061,-0.05051,-0.0174,-0.01801,-0.0116,0.0032,-0.03281,-0.01938,0.00748,-0.04929
7.1925,0.01022,-0.03845,-0.03265,-0.00534,0.01328,-0.10269,-0.00824,-0.05203,-0.0174,-0.01801,-0.0119,0.00244,-0.03204,-0.02182,0.00595,-0.04883
7.193,0.01389,-0.04135,-0.02457,-0.00565,0.04059,-0.09903,-0.01358,-0.0444,-0.01755,-0.01877,-0.01343,0.00046,-0.03265,-0.02167,0.00458,-0.04684
7.1935,0.0145,-0.04227,-0.01892,-0.00015,0.04669,-0.09628,-0.01526,-0.0325,-0.01709,-0.01907,-0.01221,0.00076,-0.03281,-0.01968,0.00366,-0.04593
7.194,0.01511,-0.04257,-0.01465,0.00626,0.0351,-0.0943,-0.01373,-0.02441,-0.01648,-0.01846,-0.01099,0.00183,-0.03281,-0.01801,0.00488,-0.04654
7.1945,0.01343,-0.04303,-0.01312,0.00809,0.01801,-0.09201,-0.01236,-0.02365,-0.01587,-0.0177,-0.01236,0.0032,-0.03342,-0.01953,0.00626,-0.04608
7.195,0.00717,-0.04227,-0.01007,0.00381,-0.00092,-0.08942,-0.01053,-0.02533,-0.01709,-0.01877,-0.01511,0.00366,-0.03494,-0.02213,0.00748,-0.04684
7.1955,-0.00244,-0.04105,-0.00641,-0.00336,-0.01923,-0.08789,-0.00992,-0.02487,-0.0174,-0.02075,-0.01587,0.00427,-0.03616,-0.02228,0.00488,-0.04837
7.196,-0.00977,-0.03998,-0.00443,-0.00931,-0.03128,-0.08713,-0.01083,-0.01923,-0.01694,-0.02182,-0.01343,0.00519,-0.03632,-0.01999,0.00427,-0.04959
7.1965,-0.0119,-0.04059,-0.00839,-0.01129,-0.03815,-0.08591,-0.0145,-0.0116,-0.01495,-0.02106,-0.01358,0.00549,-0.03616,-0.01801,0.00443,-0.0473
7.197,-0.01221,-0.04181,-0.01678,-0.00778,-0.03815,-0.08545,-0.01694,-0.00626,-0.01328,-0.02075,-0.01556,0.0032,-0.03586,-0.01755,0.00641,-0.04456
7.1975,-0.01419,-0.04059,-0.02487,-0.00336,-0.02502,-0.08545,-0.01755,-0.0029,-0.01312,-0.02228,-0.01648,0.00046,-0.03448,-0.01923,0.00549,-0.04349
7.198,-0.01831,-0.0386,-0.02899,-0.00092,-0.00031,-0.08591,-0.01785,-0.00061,-0.01343,-0.0235,-0.0148,-0.00122,-0.03464,-0.02182,0.00534,-0.04517
7.1985,-0.02121,-0.03723,-0.02991,-0.00168,0.01068,-0.08545,-0.01755,-0.00122,-0.01343,-0.02167,-0.01389,0.00015,-0.0351,-0.02258,0.00656,-0.04608
7.199,-0.02365,-0.03738,-0.02869,-0.00214,-0.01205,-0.08606,-0.0177,-0.00443,-0.01358,-0.01953,-0.01404,0.00137,-0.03662,-0.02182,0.0087,-0.04517
7.1995,-0.02777,-0.03693,-0.02686,-0.00031,-0.05753,-0.08804,-0.01663,-0.00916,-0.01297,-0.01907,-0.0145,0.00244,-0.03799,-0.01999,0.00961,-0.04395
7.2,-0.02884,-0.03479,-0.02731,0.00443,-0.09552,-0.09048,-0.01404,-0.01114,-0.01205,-0.02014,-0.01419,0.00336,-0.03891,-0.01892,0.00992,-0.04272
7.2005,-0.02411,-0.03281,-0.02899,0.01083,-0.11658,-0.08835,-0.01022,-0.00854,-0.0119,-0.0209,-0.01404,0.0061,-0.03876,-0.01877,0.00961,-0.04257
7.201,-0.01389,-0.03235,-0.03128,0.01129,-0.12268,-0.08072,-0.00748,-0.00565,-0.01205,-0.0206,-0.01587,0.00763,-0.03876,-0.01816,0.00809,-0.04303
7.2015,-0.00351,-0.03174,-0.03296,0.00214,-0.09918,-0.07233,-0.00885,-0.00687,-0.01205,-0.01968,-0.01648,0.00641,-0.03738,-0.01846,0.00565,-0.04333
7.202,0.00198,-0.03265,-0.0354,-0.01389,-0.04059,-0.0679,-0.01205,-0.00854,-0.01068,-0.01801,-0.01663,0.00275,-0.0351,-0.01846,0.00549,-0.0444
7.2025,0.0029,-0.03555,-0.03891,-0.02716,0.0174,-0.06943,-0.01663,-0.01038,-0.00961,-0.0177,-0.01556,0.00031,-0.03433,-0.01877,0.00549,-0.04562
7.203,0.00336,-0.03876,-0.0415,-0.03479,0.03845,-0.07401,-0.02075,-0.01511,-0.00916,-0.01678,-0.01404,-0.00015,-0.03265,-0.01907,0.00626,-0.04471
7.2035,0.00534,-0.03876,-0.03967,-0.0415,0.0264,-0.07813,-0.02258,-0.02426,-0.00931,-0.01572,-0.01343,-0.00092,-0.03113,-0.01846,0.00595,-0.04379
7.204,0.00763,-0.03601,-0.03448,-0.05219,0.00809,-0.07858,-0.02121,-0.0322,-0.01022,-0.01419,-0.01266,-0.00336,-0.03082,-0.01877,0.0058,-0.04456
7.2045,0.00977,-0.03296,-0.02945,-0.06226,-0.01053,-0.07736,-0.01831,-0.0325,-0.01068,-0.0148,-0.01328,-0.00748,-0.03296,-0.01862,0.00595,-0.04654
7.205,0.00809,-0.03143,-0.02792,-0.06348,-0.05081,-0.07507,-0.01648,-0.02411,-0.01129,-0.01633,-0.01556,-0.00809,-0.03357,-0.01907,0.00748,-0.04578
7.2055,-0.00168,-0.0296,-0.02884,-0.0563,-0.11932,-0.07309,-0.01587,-0.01465,-0.0119,-0.01785,-0.01663,-0.00488,-0.03006,-0.02045,0.01068,-0.04272
7.206,-0.02167,-0.02747,-0.0322,-0.04761,-0.18585,-0.06821,-0.01465,-0.00595,-0.01144,-0.01663,-0.01633,-0.00122,-0.02594,-0.02106,0.0119,-0.03983
7.2065,-0.04715,-0.02747,-0.04105,-0.04242,-0.21057,-0.05936,-0.01144,-0.00061,-0.01144,-0.01526,-0.01694,0.00015,-0.02365,-0.0209,0.00992,-0.03876
7.207,-0.06714,-0.03036,-0.05356,-0.04044,-0.17776,-0.05157,-0.00977,-0.00137,-0.01022,-0.01617,-0.01724,-0.00259,-0.02182,-0.01968,0.00671,-0.04028
7.2075,-0.07843,-0.03662,-0.06729,-0.0412,-0.12161,-0.04898,-0.01083,-0.00412,-0.009,-0.01709,-0.01572,-0.00534,-0.01984,-0.01724,0.00626,-0.04272
7.208,-0.08713,-0.04547,-0.08255,-0.04211,-0.07599,-0.05219,-0.01419,-0.00137,-0.00793,-0.01678,-0.01297,-0.00778,-0.01892,-0.01678,0.00824,-0.04257
7.2085,-0.09308,-0.05402,-0.10101,-0.04013,-0.05157,-0.05569,-0.01694,0.00931,-0.0087,-0.01572,-0.0119,-0.00977,-0.02106,-0.01678,0.00977,-0.04074
7.209,-0.08667,-0.05676,-0.11658,-0.03372,-0.03693,-0.05417,-0.0177,0.02228,-0.01083,-0.01465,-0.01343,-0.01404,-0.02411,-0.01801,0.00839,-0.04028
7.2095,-0.05539,-0.05219,-0.12009,-0.02518,-0.02487,-0.0499,-0.01617,0.0296,-0.01266,-0.01419,-0.01373,-0.01617,-0.02472,-0.01785,0.00671,-0.04196
7.21,-0.00275,-0.04349,-0.10391,-0.01862,-0.01694,-0.04684,-0.01572,0.02731,-0.01358,-0.0145,-0.01495,-0.0145,-0.02319,-0.01785,0.00519,-0.04242
7.2105,0.05341,-0.03571,-0.06882,-0.01846,-0.01236,-0.04242,-0.01816,0.01862,-0.01419,-0.01419,-0.01617,-0.01053,-0.02151,-0.01816,0.00488,-0.04303
7.211,0.09369,-0.03235,-0.01999,-0.02213,-0.00839,-0.0386,-0.02228,0.01114,-0.01419,-0.01404,-0.01938,-0.00595,-0.02151,-0.01846,0.00595,-0.04349
7.2115,0.1062,-0.03265,0.03159,-0.02869,-0.0145,-0.03647,-0.02396,0.01099,-0.01419,-0.01328,-0.0209,-0.0029,-0.02426,-0.01923,0.00824,-0.0444
7.212,0.0914,-0.03128,0.07141,-0.03525,-0.04242,-0.03693,-0.0206,0.01389,-0.01343,-0.01328,-0.01999,0.0,-0.02777,-0.01923,0.00809,-0.04425
7.2125,0.06256,-0.02823,0.09293,-0.04028,-0.07965,-0.03983,-0.01633,0.01312,-0.01404,-0.01297,-0.0177,0.00275,-0.0293,-0.01678,0.00595,-0.0444
7.213,0.03113,-0.02487,0.09445,-0.03967,-0.09445,-0.0383,-0.01373,0.00763,-0.01434,-0.01358,-0.01602,0.00412,-0.02777,-0.0145,0.00534,-0.04517
7.2135,0.00214,-0.02563,0.07996,-0.03113,-0.07675,-0.03448,-0.01312,0.00244,-0.01434,-0.01312,-0.01495,0.00305,-0.02686,-0.0148,0.00504,-0.04608
7.214,-0.02258,-0.02914,0.05325,-0.01389,-0.04837,-0.03036,-0.01358,0.00137,-0.01434,-0.01221,-0.01587,0.00153,-0.0267,-0.01678,0.00748,-0.04593
7.2145,-0.03677,-0.03372,0.02243,0.00885,-0.03799,-0.0296,-0.0145,0.00351,-0.01465,-0.01236,-0.01648,-0.00015,-0.0293,-0.01877,0.00961,-0.04486
7.215,-0.03296,-0.03632,-0.00473,0.03601,-0.04639,-0.02884,-0.01511,0.00687,-0.01526,-0.01343,-0.01572,-0.00198,-0.03052,-0.01892,0.00977,-0.04517
7.2155,-0.009,-0.03723,-0.02258,0.05951,-0.05524,-0.02487,-0.0148,0.00946,-0.01495,-0.01389,-0.01419,-0.00214,-0.03052,-0.01907,0.0087,-0.04471
7.216,0.0322,-0.03799,-0.03296,0.07065,-0.0499,-0.0177,-0.0145,0.00946,-0.01434,-0.01205,-0.01404,0.00031,-0.03098,-0.01877,0.00763,-0.0444
7.2165,0.07858,-0.04013,-0.04013,0.06775,-0.03387,-0.01099,-0.01328,0.00763,-0.01389,-0.01114,-0.01526,0.00397,-0.03128,-0.01938,0.00793,-0.04425
7.217,0.1152,-0.04425,-0.0473,0.05737,-0.01923,-0.0058,-0.01266,0.00427,-0.01312,-0.01129,-0.01587,0.00626,-0.0325,-0.01953,0.00763,-0.04364
7.2175,0.13382,-0.04807,-0.05508,0.04303,-0.01083,-0.00198,-0.01282,0.0032,-0.01205,-0.0119,-0.01495,0.00687,-0.03265,-0.01907,0.00839,-0.04379
7.218,0.13306,-0.04974,-0.06012,0.02792,-0.00809,0.00031,-0.01389,0.00488,-0.01083,-0.01312,-0.01312,0.0087,-0.03189,-0.01846,0.01038,-0.04257
7.2185,0.11856,-0.05081,-0.05951,0.01495,-0.00763,0.00076,-0.01434,0.00763,-0.0116,-0.01312,-0.0119,0.0116,-0.03036,-0.01862,0.01129,-0.04059
7.219,0.09918,-0.05112,-0.05585,0.00763,-0.00549,0.00076,-0.01389,0.00732,-0.01282,-0.01236,-0.01144,0.01419,-0.02899,-0.01877,0.01053,-0.03937
7.2195,0.07828,-0.05096,-0.05402,0.0061,-0.00046,0.00336,-0.01434,0.00244,-0.01404,-0.01053,-0.01129,0.01389,-0.02853,-0.01755,0.00931,-0.03952
7.22,0.05814,-0.04944,-0.05432,0.00122,0.00381,0.00641,-0.01755,-0.00793,-0.0145,-0.01007,-0.01099,0.0119,-0.02777,-0.01572,0.01053,-0.0412
7.2205,0.03632,-0.04852,-0.05432,-0.00885,0.00198,0.00778,-0.02136,-0.01938,-0.01465,-0.01068,-0.01099,0.00961,-0.02823,-0.01678,0.01282,-0.04196
7.221,0.01434,-0.04745,-0.05188,-0.01846,-0.00229,0.00824,-0.02167,-0.0238,-0.0148,-0.01007,-0.01312,0.00778,-0.02914,-0.01938,0.01389,-0.04211
7.2215,-0.00626,-0.0473,-0.05051,-0.02213,-0.00381,0.00854,-0.01816,-0.01892,-0.01389,-0.00885,-0.01465,0.00809,-0.03006,-0.01999,0.01236,-0.04257
7.222,-0.01953,-0.04608,-0.05203,-0.02304,-0.00717,0.0087,-0.01602,-0.00977,-0.01297,-0.00885,-0.01541,0.009,-0.02975,-0.01785,0.01068,-0.04257
7.2225,-0.02594,-0.04349,-0.05524,-0.02609,-0.01389,0.00946,-0.01556,-0.0029,-0.01236,-0.01038,-0.01526,0.00885,-0.02899,-0.01633,0.00977,-0.04196
7.223,-0.02731,-0.04364,-0.05493,-0.03189,-0.01541,0.01282,-0.01434,-0.00076,-0.01205,-0.01205,-0.01495,0.00641,-0.02808,-0.0174,0.00916,-0.03998
7.2235,-0.02808,-0.04623,-0.05463,-0.03998,0.00153,0.01602,-0.0119,-0.00031,-0.01129,-0.01328,-0.01404,0.00229,-0.02777,-0.01892,0.00839,-0.03845
7.224,-0.02945,-0.04761,-0.05707,-0.05249,0.02777,0.01907,-0.01053,-0.00168,-0.01282,-0.01282,-0.0148,-0.00275,-0.02762,-0.01877,0.00671,-0.03937
7.2245,-0.03021,-0.04715,-0.06256,-0.06271,0.04318,0.01953,-0.0119,-0.00412,-0.01556,-0.01312,-0.01526,-0.00626,-0.02625,-0.01801,0.00656,-0.04211
7.225,-0.03235,-0.04639,-0.06561,-0.05997,0.03937,0.02197,-0.01266,-0.0061,-0.01724,-0.0116,-0.01556,-0.01007,-0.02731,-0.01877,0.00717,-0.04486
7.2255,-0.03555,-0.04715,-0.06546,-0.04303,0.02655,0.02289,-0.01236,-0.00763,-0.01816,-0.01099,-0.01663,-0.01389,-0.02899,-0.02045,0.00565,-0.04578
7.226,-0.03815,-0.04913,-0.06287,-0.02777,0.01785,0.02426,-0.01373,-0.00961,-0.01755,-0.0119,-0.0177,-0.01694,-0.03113,-0.01907,0.00504,-0.04486
7.2265,-0.03769,-0.05096,-0.05707,-0.01892,0.01297,0.02365,-0.0174,-0.01007,-0.01602,-0.01251,-0.01831,-0.01648,-0.03174,-0.0174,0.00519,-0.04486
7.227,-0.03403,-0.05249,-0.05005,-0.00824,-0.00519,0.02289,-0.02197,-0.00885,-0.01495,-0.0145,-0.01755,-0.01465,-0.0322,-0.01831,0.00824,-0.0444
7.2275,-0.02869,-0.05219,-0.04272,0.01175,-0.03448,0.0209,-0.02457,-0.00473,-0.0145,-0.01602,-0.01602,-0.01343,-0.03311,-0.02121,0.00946,-0.04364
7.228,-0.02365,-0.05234,-0.03601,0.03418,-0.05569,0.02106,-0.02304,0.0,-0.0148,-0.01633,-0.01633,-0.01617,-0.03494,-0.02304,0.00809,-0.04349
7.2285,-0.02045,-0.05249,-0.02914,0.04501,-0.06638,0.02151,-0.01907,0.00244,-0.01495,-0.01617,-0.01801,-0.01877,-0.03738,-0.02075,0.00565,-0.04395
7.229,-0.01907,-0.05066,-0.02289,0.04242,-0.0882,0.02136,-0.01495,0.0,-0.01465,-0.01724,-0.01892,-0.0177,-0.03891,-0.01831,0.00549,-0.04456
7.2295,-0.01968,-0.04532,-0.01785,0.03143,-0.12695,0.01968,-0.01282,-0.00214,-0.01587,-0.01633,-0.01678,-0.01389,-0.03708,-0.0174,0.00778,-0.04395
7.23,-0.02121,-0.03937,-0.01434,0.02106,-0.15213,0.01862,-0.01007,-0.00031,-0.0174,-0.01617,-0.01389,-0.01053,-0.03418,-0.01877,0.00992,-0.04333
7.2305,-0.02197,-0.03647,-0.01266,0.01129,-0.1416,0.01907,-0.00977,0.00198,-0.01907,-0.01511,-0.01251,-0.00946,-0.03403,-0.01923,0.00931,-0.04471
7.231,-0.02121,-0.03769,-0.01465,0.0029,-0.10452,0.02304,-0.01068,0.0,-0.02014,-0.01404,-0.01389,-0.0061,-0.03571,-0.01953,0.00763,-0.04578
7.2315,-0.02167,-0.03983,-0.01709,-0.0061,-0.0647,0.02701,-0.01312,-0.00504,-0.0206,-0.01297,-0.01495,-0.00153,-0.0351,-0.01862,0.00656,-0.04517
7.232,-0.02411,-0.04166,-0.01907,-0.01419,-0.03571,0.02762,-0.01373,-0.00702,-0.01984,-0.01205,-0.01465,0.00214,-0.03296,-0.0177,0.00778,-0.04395
7.2325,-0.02884,-0.04654,-0.02213,-0.0177,-0.00946,0.02441,-0.01419,-0.0061,-0.01923,-0.0119,-0.01419,0.00198,-0.03143,-0.01633,0.00992,-0.04349
7.233,-0.03265,-0.05173,-0.0264,-0.01572,0.01892,0.02121,-0.01328,-0.00427,-0.01923,-0.0119,-0.01328,-0.0029,-0.0325,-0.01694,0.01022,-0.04349
7.2335,-0.03326,-0.056,-0.0322,-0.01236,0.04593,0.02136,-0.0119,-0.0032,-0.01953,-0.01114,-0.01236,-0.01694,-0.03281,-0.0174,0.01053,-0.04303
7.234,-0.03052,-0.05463,-0.03708,-0.01022,0.06149,0.02182,-0.00946,-0.00336,-0.0177,-0.01099,-0.01022,-0.04074,-0.03189,-0.01923,0.01022,-0.04364
7.2345,-0.0267,-0.04959,-0.03967,-0.01099,0.05615,0.0206,-0.00931,-0.00778,-0.01648,-0.0119,-0.00977,-0.06256,-0.03082,-0.02014,0.00946,-0.04639
7.235,-0.02319,-0.04303,-0.04074,-0.01511,0.03708,0.01663,-0.01175,-0.01312,-0.0174,-0.01389,-0.01068,-0.07126,-0.03189,-0.02014,0.009,-0.04883
7.2355,-0.0209,-0.03601,-0.04074,-0.02121,0.01831,0.01236,-0.01389,-0.0148,-0.01877,-0.01419,-0.01358,-0.06836,-0.03403,-0.01877,0.00946,-0.04852
7.236,-0.01877,-0.02838,-0.04181,-0.02869,0.01068,0.00992,-0.01526,-0.01328,-0.01831,-0.0148,-0.01556,-0.06454,-0.03464,-0.0177,0.0087,-0.04517
7.2365,-0.01572,-0.02106,-0.04456,-0.03723,0.00275,0.00824,-0.01602,-0.01129,-0.01694,-0.01587,-0.01541,-0.06683,-0.03387,-0.01785,0.0087,-0.04257
7.237,-0.01175,-0.01572,-0.0473,-0.04944,-0.03311,0.00504,-0.01541,-0.01099,-0.01572,-0.01724,-0.01419,-0.06592,-0.03464,-0.01724,0.00824,-0.04089
7.2375,-0.00778,-0.01373,-0.04959,-0.06149,-0.09705,0.0,-0.0145,-0.01175,-0.01572,-0.01724,-0.01328,-0.03754,-0.03632,-0.01633,0.00977,-0.04044
7.238,-0.00565,-0.01389,-0.05173,-0.06256,-0.15121,-0.0029,-0.0119,-0.01129,-0.01648,-0.01663,-0.01404,0.04013,-0.03799,-0.01541,0.00992,-0.03906
7.2385,-0.00595,-0.01587,-0.05356,-0.05234,-0.15854,-0.00198,-0.00824,-0.00946,-0.01709,-0.01495,-0.01434,0.1506,-0.03815,-0.01678,0.00839,-0.03784
7.239,-0.00763,-0.02121,-0.05295,-0.04044,-0.11932,0.00122,-0.00671,-0.00732,-0.01648,-0.01434,-0.01343,0.22049,-0.03738,-0.01801,0.00732,-0.03677
7.2395,-0.01007,-0.02991,-0.04807,-0.03326,-0.06989,0.00473,-0.00992,-0.00763,-0.01495,-0.01389,-0.01389,0.18372,-0.03616,-0.01785,0.00702,-0.03555
7.24,-0.01312,-0.03906,-0.03967,-0.02701,-0.03998,0.00626,-0.0148,-0.00885,-0.01404,-0.01389,-0.0148,0.06958,-0.03494,-0.01648,0.00885,-0.03693
7.2405,-0.01785,-0.0441,-0.02899,-0.01617,-0.0354,0.00519,-0.01755,-0.00839,-0.01282,-0.01648,-0.01541,-0.02441,-0.03418,-0.01724,0.00916,-0.03937
7.241,-0.02441,-0.04517,-0.01801,-0.00366,-0.03616,0.00397,-0.01709,-0.00641,-0.01266,-0.01862,-0.01465,-0.047,-0.03357,-0.0177,0.00824,-0.04257
7.2415,-0.03265,-0.04761,-0.00977,0.00122,-0.02106,0.00046,-0.0148,-0.00534,-0.01389,-0.01984,-0.01373,-0.02777,-0.03296,-0.01846,0.00702,-0.04501
7.242,-0.04166,-0.05142,-0.00519,-0.00732,0.01465,-0.00015,-0.01572,-0.00687,-0.01526,-0.01923,-0.01144,-0.01358,-0.03326,-0.01785,0.00641,-0.04623
7.2425,-0.05081,-0.0531,-0.00366,-0.02136,0.04669,-0.00076,-0.01633,-0.00946,-0.01602,-0.01663,-0.01129,-0.00961,-0.03265,-0.01678,0.00488,-0.04669
7.243,-0.05676,-0.05325,-0.00885,-0.02533,0.05768,-0.00336,-0.01495,-0.01419,-0.01572,-0.01511,-0.0116,-0.00122,-0.03067,-0.01694,0.00351,-0.04745
7.2435,-0.05844,-0.05371,-0.02762,-0.01663,0.04028,-0.00946,-0.01297,-0.02197,-0.0145,-0.0174,-0.01282,0.00732,-0.02945,-0.01755,0.00259,-0.04639
7.244,-0.05524,-0.056,-0.06302,-0.00763,-0.00595,-0.01572,-0.01221,-0.03098,-0.01495,-0.01846,-0.01419,-0.00061,-0.02991,-0.01877,0.0029,-0.04486
7.2445,-0.04776,-0.05905,-0.11551,-0.01678,-0.0679,-0.0174,-0.01434,-0.03479,-0.01526,-0.01877,-0.01495,-0.01755,-0.03235,-0.01785,0.00458,-0.04196
7.245,-0.03525,-0.06042,-0.17059,-0.04013,-0.1178,-0.01465,-0.0174,-0.03052,-0.01465,-0.01678,-0.01434,-0.01511,-0.03372,-0.01617,0.00504,-0.04028
7.2455,-0.01511,-0.05966,-0.21957,-0.05661,-0.13885,-0.01434,-0.01877,-0.02304,-0.01389,-0.01556,-0.01495,0.00748,-0.03311,-0.01511,0.0058,-0.03967
7.246,0.00977,-0.05646,-0.242,-0.04715,-0.13397,-0.01862,-0.01678,-0.01709,-0.0148,-0.01648,-0.01373,0.0174,-0.03204,-0.01556,0.00793,-0.04074
7.2465,0.03098,-0.04791,-0.21774,-0.01511,-0.1091,-0.0209,-0.01389,-0.01328,-0.01541,-0.01617,-0.01282,-0.00458,-0.03357,-0.01648,0.00854,-0.04166
7.247,0.03616,-0.03571,-0.14099,0.02457,-0.06744,-0.02029,-0.01282,-0.00809,-0.01633,-0.01511,-0.01053,-0.04517,-0.03494,-0.0174,0.00885,-0.04181
7.2475,0.0238,-0.02289,-0.0293,0.05585,-0.02838,-0.01968,-0.01312,0.00214,-0.01663,-0.0145,-0.01083,-0.08301,-0.03326,-0.01663,0.00809,-0.04318
7.248,0.00519,-0.01343,0.08682,0.07156,-0.01816,-0.01968,-0.01312,0.01938,-0.01602,-0.01495,-0.01343,-0.11032,-0.03128,-0.01633,0.00656,-0.0441
7.2485,-0.0058,-0.01038,0.17471,0.07401,-0.03738,-0.0209,-0.01282,0.03494,-0.01495,-0.01602,-0.01541,-0.12024,-0.03143,-0.01831,0.00473,-0.04349
7.249,-0.00473,-0.01129,0.21408,0.06729,-0.056,-0.02396,-0.01495,0.03433,-0.01404,-0.01633,-0.01495,-0.11032,-0.03281,-0.02045,0.00443,-0.04196
7.2495,0.00153,-0.01389,0.20844,0.05585,-0.05234,-0.02914,-0.01831,0.01648,-0.01358,-0.0174,-0.01266,-0.08865,-0.03174,-0.02106,0.00549,-0.04028
7.25,0.00809,-0.01633,0.17578,0.0386,-0.03479,-0.03387,-0.01923,-0.00092,-0.01404,-0.01862,-0.01083,-0.07202,-0.0293,-0.02045,0.00702,-0.03876
7.2505,0.01511,-0.01724,0.13351,0.01801,-0.02014,-0.03616,-0.0177,-0.00549,-0.01419,-0.02014,-0.01175,-0.05554,-0.02914,-0.01907,0.00778,-0.0383
7.251,0.02136,-0.0174,0.09171,-0.00107,-0.01602,-0.03693,-0.01511,-0.00198,-0.01404,-0.02075,-0.0145,-0.01694,-0.03052,-0.01892,0.00946,-0.03845
7.2515,0.02686,-0.01785,0.05295,-0.00946,-0.01678,-0.03784,-0.01373,-0.00122,-0.01526,-0.0206,-0.01709,0.03693,-0.03098,-0.01862,0.00977,-0.03967
7.252,0.03433,-0.02228,0.01678,-0.00107,-0.01526,-0.04135,-0.01358,-0.00488,-0.01678,-0.01938,-0.01694,0.06973,-0.03021,-0.01907,0.009,-0.03998
7.2525,0.04166,-0.03143,-0.01648,0.0174,-0.0119,-0.04745,-0.01465,-0.00824,-0.01755,-0.01923,-0.01617,0.07248,-0.03082,-0.01877,0.00885,-0.03769
7.253,0.04456,-0.04211,-0.04135,0.03372,-0.00854,-0.05234,-0.01495,-0.01053,-0.01724,-0.02045,-0.01495,0.08865,-0.03326,-0.01923,0.0087,-0.03586
7.2535,0.03326,-0.04898,-0.05524,0.03769,-0.00748,-0.05417,-0.0145,-0.0119,-0.01526,-0.02213,-0.01465,0.14923,-0.03586,-0.01999,0.00854,-0.03647
7.254,0.0119,-0.05066,-0.06302,0.02533,-0.00626,-0.05737,-0.01328,-0.01068,-0.01495,-0.0235,-0.01572,0.2182,-0.03647,-0.01984,0.00809,-0.04013
7.2545,-0.01053,-0.04959,-0.0647,0.00092,-0.00443,-0.06042,-0.01328,-0.00748,-0.01678,-0.02274,-0.01495,0.23026,-0.03738,-0.01968,0.00793,-0.04318
7.255,-0.02533,-0.0502,-0.06165,-0.02731,-0.00046,-0.06332,-0.01465,-0.00366,-0.01831,-0.0235,-0.0148,0.16891,-0.03754,-0.01968,0.00839,-0.04364
7.2555,-0.03601,-0.05325,-0.05753,-0.05417,0.00351,-0.06409,-0.0148,-0.0032,-0.01816,-0.02487,-0.01511,0.08331,-0.03754,-0.02121,0.00824,-0.04303
7.256,-0.04807,-0.05585,-0.05646,-0.07202,0.00534,-0.06332,-0.01419,-0.00336,-0.01633,-0.02579,-0.01602,0.03113,-0.03693,-0.02365,0.0058,-0.0444
7.2565,-0.06165,-0.0592,-0.06134,-0.07446,-0.00397,-0.06561,-0.01251,-0.00259,-0.01526,-0.02548,-0.01663,0.02609,-0.03632,-0.02426,0.00381,-0.04608
7.257,-0.07004,-0.06027,-0.0708,-0.06516,-0.02853,-0.0705,-0.01297,-0.00244,-0.01617,-0.02319,-0.0174,0.04471,-0.03433,-0.02228,0.00275,-0.04623
7.2575,-0.06958,-0.05905,-0.07904,-0.05173,-0.04929,-0.07507,-0.01434,-0.00381,-0.0174,-0.02335,-0.01556,0.06882,-0.03296,-0.01907,0.0029,-0.0441
7.258,-0.05615,-0.05447,-0.08011,-0.02731,-0.04959,-0.07462,-0.01465,-0.00824,-0.01724,-0.02533,-0.01694,0.0946,-0.03403,-0.01678,0.00336,-0.0415
7.2585,-0.03143,-0.04822,-0.07416,0.01251,-0.03281,-0.06805,-0.01389,-0.01053,-0.01801,-0.0264,-0.01587,0.09827,-0.03647,-0.01678,0.00305,-0.03922
7.259,0.00259,-0.0412,-0.06577,0.04776,-0.0206,-0.06104,-0.01221,-0.01007,-0.01831,-0.02655,-0.01572,0.04349,-0.03571,-0.01801,0.00198,-0.0383
7.2595,0.04181,-0.03296,-0.05753,0.0386,-0.02411,-0.05737,-0.01068,-0.00549,-0.01846,-0.02457,-0.01556,-0.05783,-0.03357,-0.0177,0.00244,-0.03738
7.26,0.07446,-0.02457,-0.05615,-0.02258,-0.03036,-0.06088,-0.009,-0.00122,-0.01724,-0.02533,-0.01633,-0.13641,-0.02991,-0.01617,0.00473,-0.03677
7.2605,0.0856,-0.01953,-0.05753,-0.08377,-0.02808,-0.06927,-0.00641,-0.00046,-0.01526,-0.02548,-0.01587,-0.15274,-0.02731,-0.01465,0.00656,-0.03754
7.261,0.06973,-0.01923,-0.05783,-0.09842,-0.02228,-0.07431,-0.00519,-0.00198,-0.01465,-0.02396,-0.0148,-0.13504,-0.02853,-0.01404,0.0058,-0.04013
7.2615,0.03998,-0.02151,-0.05768,-0.07401,-0.01892,-0.07492,-0.00397,-0.00259,-0.01511,-0.02289,-0.01556,-0.12543,-0.02945,-0.01266,0.00427,-0.04242
7.262,0.01923,-0.02609,-0.05569,-0.04288,-0.01801,-0.07568,-0.00488,-0.00183,-0.01617,-0.02274,-0.01572,-0.12482,-0.02991,-0.01251,0.00198,-0.04303
7.2625,0.01251,-0.03204,-0.05783,-0.01282,-0.01968,-0.07965,-0.00641,-0.00107,-0.01663,-0.02151,-0.01572,-0.11429,-0.02914,-0.01434,0.0,-0.04333
7.263,0.01236,-0.03632,-0.0621,0.03098,-0.02121,-0.0827,-0.01022,-0.00076,-0.01572,-0.01984,-0.0145,-0.09506,-0.02777,-0.01648,-0.00214,-0.04501
7.2635,0.01007,-0.03799,-0.06638,0.08804,-0.02075,-0.08194,-0.01297,-0.00015,-0.01434,-0.01877,-0.01297,-0.08133,-0.02655,-0.01602,-0.00244,-0.047
7.264,0.00519,-0.03891,-0.06744,0.13153,-0.01801,-0.08011,-0.01434,0.00031,-0.01419,-0.01816,-0.01282,-0.0705,-0.02625,-0.01495,-0.00244,-0.04868
7.2645,0.00351,-0.0415,-0.06699,0.12238,-0.01419,-0.08072,-0.01419,0.00031,-0.01404,-0.01984,-0.01389,-0.04913,-0.0264,-0.01511,-0.00122,-0.04868
7.265,0.00397,-0.0444,-0.06424,0.05035,-0.01282,-0.08194,-0.01724,0.00031,-0.01389,-0.02106,-0.01373,-0.02502,-0.0264,-0.01678,0.00061,-0.04715
7.2655,0.00381,-0.0473,-0.06027,-0.04257,-0.01556,-0.08286,-0.02426,-0.00076,-0.0145,-0.02167,-0.01373,-0.01678,-0.0267,-0.0177,0.00046,-0.04684
7.266,0.00198,-0.04791,-0.05524,-0.10117,-0.02014,-0.08408,-0.03265,-0.00214,-0.01678,-0.02243,-0.01312,-0.02701,-0.02747,-0.01709,-0.00031,-0.04684
7.2665,-0.00031,-0.047,-0.04929,-0.0914,-0.02258,-0.08835,-0.03784,-0.00412,-0.01801,-0.02289,-0.01541,-0.03525,-0.02777,-0.01602,0.00107,-0.0473
7.267,-0.00229,-0.04486,-0.0444,-0.02914,-0.02106,-0.09323,-0.03464,-0.00488,-0.01724,-0.02167,-0.01511,-0.02548,-0.0264,-0.01633,0.00336,-0.04501
7.2675,-0.00351,-0.04425,-0.03723,0.03906,-0.01572,-0.09598,-0.02655,-0.00488,-0.0148,-0.02243,-0.01328,-0.00351,-0.0264,-0.0177,0.00504,-0.04456
7.268,-0.00656,-0.04532,-0.02808,0.06424,-0.01678,-0.09644,-0.01938,-0.00381,-0.01511,-0.02213,-0.01221,0.0119,-0.02777,-0.01862,0.00366,-0.0444
7.2685,-0.01114,-0.04822,-0.0177,0.0354,-0.02823,-0.09506,-0.01419,-0.00153,-0.01495,-0.02213,-0.01404,0.00107,-0.0293,-0.01801,0.00336,-0.04456
7.269,-0.0148,-0.05203,-0.00885,-0.0145,-0.04776,-0.09552,-0.00961,-0.00107,-0.01602,-0.02197,-0.01511,-0.04227,-0.03006,-0.01663,0.00565,-0.04303
7.2695,-0.0148,-0.05508,-0.00458,-0.04135,-0.05264,-0.09415,-0.00839,-0.00458,-0.01633,-0.02182,-0.01419,-0.09521,-0.02899,-0.01617,0.00778,-0.04242
7.27,-0.01266,-0.05569,-0.00412,-0.03555,-0.0386,-0.09018,-0.01205,-0.01221,-0.01587,-0.02289,-0.01266,-0.11993,-0.02869,-0.01694,0.00961,-0.04318
7.2705,-0.01022,-0.05478,-0.0058,-0.01938,-0.02121,-0.08453,-0.01862,-0.02274,-0.01511,-0.02502,-0.01404,-0.10086,-0.0267,-0.01831,0.009,-0.0444
7.271,-0.00946,-0.05234,-0.0087,-0.01175,-0.01465,-0.08087,-0.01785,-0.03082,-0.0148,-0.02609,-0.01556,-0.0563,-0.02686,-0.01831,0.00916,-0.04486
7.2715,-0.00656,-0.05035,-0.01343,-0.01083,-0.01709,-0.07874,-0.00748,-0.03983,-0.01541,-0.02518,-0.01526,-0.01831,-0.02777,-0.01877,0.0087,-0.04364
7.272,-0.00458,-0.04883,-0.02136,-0.00702,-0.01801,-0.07889,-0.00122,-0.05676,-0.01724,-0.0238,-0.01434,-0.00671,-0.02731,-0.01892,0.0087,-0.04333
7.2725,-0.00473,-0.0473,-0.02853,-0.00168,-0.01541,-0.08194,-0.0061,-0.0885,-0.01816,-0.02304,-0.01434,-0.02197,-0.02502,-0.01846,0.009,-0.04272
7.273,-0.00366,-0.04608,-0.03296,-0.00153,-0.01709,-0.08575,-0.01617,-0.1207,-0.01556,-0.02319,-0.01541,-0.0351,-0.0235,-0.01907,0.00839,-0.04196
7.2735,0.00153,-0.04349,-0.03342,-0.00702,-0.03143,-0.08987,-0.02121,-0.10849,-0.01419,-0.02289,-0.01617,-0.00122,-0.02548,-0.01968,0.00977,-0.0415
7.274,0.009,-0.04227,-0.02975,-0.01343,-0.05219,-0.09201,-0.02182,-0.01816,-0.01511,-0.02075,-0.01678,0.08591,-0.02716,-0.01984,0.01129,-0.04089
7.2745,0.01266,-0.04288,-0.0267,-0.01648,-0.06378,-0.09094,-0.02563,0.10712,-0.01816,-0.0206,-0.01617,0.16296,-0.02808,-0.01953,0.01205,-0.04074
7.275,0.01221,-0.04303,-0.02441,-0.01617,-0.05875,-0.08759,-0.02487,0.17365,-0.01923,-0.02121,-0.01541,0.16876,-0.02869,-0.01953,0.0116,-0.04089
7.2755,0.00763,-0.04318,-0.02441,-0.01541,-0.04776,-0.08392,-0.01251,0.14359,-0.0177,-0.02304,-0.01633,0.12512,-0.0296,-0.02136,0.0116,-0.04013
7.276,0.00122,-0.04379,-0.02777,-0.01755,-0.04272,-0.08331,0.0087,0.07355,-0.01633,-0.02335,-0.01633,0.08835,-0.0296,-0.02182,0.01251,-0.0383
7.2765,-0.00595,-0.04486,-0.03296,-0.02014,-0.04501,-0.08499,0.02274,0.03189,-0.01617,-0.02335,-0.01602,0.06454,-0.02914,-0.0209,0.01221,-0.03754
7.277,-0.01328,-0.04608,-0.03601,-0.02075,-0.04532,-0.08591,0.01923,0.02792,-0.01617,-0.02197,-0.01572,0.0235,-0.02869,-0.02029,0.01205,-0.03906
7.2775,-0.01755,-0.04608,-0.03601,-0.01617,-0.04074,-0.0853,-0.00183,0.03479,-0.01572,-0.0206,-0.0148,-0.02777,-0.03006,-0.0206,0.01236,-0.03983
7.278,-0.01907,-0.04562,-0.03555,-0.01205,-0.03616,-0.08453,-0.0383,0.03494,-0.01587,-0.01999,-0.01495,-0.05173,-0.03235,-0.02045,0.01434,-0.03891
7.2785,-0.01907,-0.04562,-0.03494,-0.01694,-0.03387,-0.08514,-0.07187,0.02701,-0.01526,-0.01984,-0.01556,-0.03723,-0.03326,-0.01831,0.01663,-0.03677
7.279,-0.01892,-0.04807,-0.03296,-0.03601,-0.0351,-0.08728,-0.07141,0.01434,-0.01526,-0.02045,-0.01572,-0.01846,-0.03357,-0.01617,0.01785,-0.03632
7.2795,-0.0209,-0.05219,-0.03113,-0.05844,-0.03448,-0.08575,-0.02518,0.00244,-0.01511,-0.01999,-0.01602,-0.02289,-0.03189,-0.01633,0.01877,-0.03494
7.28,-0.02579,-0.05783,-0.03204,-0.06943,-0.03235,-0.08224,0.02701,-0.00412,-0.01495,-0.01968,-0.01419,-0.03754,-0.03052,-0.01907,0.01877,-0.03372
7.2805,-0.03006,-0.06287,-0.03799,-0.05905,-0.03174,-0.07645,0.03922,-0.00488,-0.01556,-0.0206,-0.01312,-0.0383,-0.03235,-0.02029,0.01831,-0.03296
7.281,-0.0296,-0.06546,-0.04379,-0.03311,-0.03265,-0.07233,0.01434,-0.00381,-0.01633,-0.02243,-0.01389,-0.02289,-0.03586,-0.01892,0.01801,-0.03357
7.2815,-0.0235,-0.06348,-0.04501,-0.00275,-0.03326,-0.06927,-0.00793,-0.0032,-0.01709,-0.02426,-0.01419,-0.00946,-0.03891,-0.01648,0.01755,-0.03525
7.282,-0.01694,-0.05707,-0.04196,0.0264,-0.03372,-0.06668,-0.00885,-0.00153,-0.0174,-0.02472,-0.01297,-0.00214,-0.03876,-0.01678,0.01846,-0.03586
7.2825,-0.01328,-0.0473,-0.03845,0.0528,-0.03372,-0.06363,-0.00519,-0.00107,-0.01694,-0.02304,-0.01144,0.01328,-0.03891,-0.01892,0.01831,-0.03601
7.283,-0.01236,-0.03571,-0.03876,0.06882,-0.0351,-0.05951,-0.01358,-0.00031,-0.01587,-0.02243,-0.01205,0.03433,-0.04059,-0.0206,0.01709,-0.03616
7.2835,-0.01297,-0.02731,-0.03967,0.06927,-0.03632,-0.05737,-0.02777,0.00076,-0.01633,-0.02213,-0.01297,0.03845,-0.0441,-0.02029,0.01617,-0.03723
7.284,-0.01419,-0.02548,-0.03906,0.06042,-0.03677,-0.05814,-0.03296,0.00031,-0.01648,-0.02426,-0.01419,0.01465,-0.04639,-0.01938,0.01678,-0.03693
7.2845,-0.01633,-0.02686,-0.03967,0.04944,-0.0354,-0.05844,-0.0293,-0.00381,-0.01602,-0.02731,-0.01297,-0.0177,-0.04639,-0.02121,0.02045,-0.03571
7.285,-0.01862,-0.02899,-0.04272,0.03235,-0.03632,-0.05905,-0.02411,-0.009,-0.01495,-0.02655,-0.01083,-0.03616,-0.04486,-0.02304,0.02151,-0.03525
7.2855,-0.02029,-0.02991,-0.0473,-0.00061,-0.03784,-0.05737,-0.02182,-0.01083,-0.01434,-0.02457,-0.01053,-0.03937,-0.04242,-0.02228,0.01938,-0.03555
7.286,-0.02106,-0.02869,-0.05005,-0.0441,-0.03876,-0.05569,-0.01663,-0.01114,-0.01373,-0.02197,-0.01083,-0.03311,-0.04227,-0.02045,0.0177,-0.03464
7.2865,-0.02045,-0.0267,-0.05127,-0.07767,-0.03738,-0.05264,-0.01328,-0.01099,-0.01358,-0.02151,-0.01221,-0.01877,-0.04288,-0.01831,0.01709,-0.03372
7.287,-0.01968,-0.02609,-0.0502,-0.0885,-0.03571,-0.05066,-0.01266,-0.0119,-0.01266,-0.02319,-0.01419,-0.0029,-0.04379,-0.01816,0.0177,-0.03174
7.2875,-0.01953,-0.0267,-0.047,-0.08652,-0.03372,-0.04913,-0.01724,-0.01221,-0.01236,-0.0235,-0.01282,0.00076,-0.04303,-0.02014,0.01984,-0.03036
7.288,-0.01785,-0.02792,-0.0444,-0.09827,-0.03403,-0.04974,-0.02808,-0.01328,-0.01144,-0.02304,-0.01175,-0.00061,-0.04059,-0.02106,0.0206,-0.03006
7.2885,-0.01526,-0.03082,-0.04135,-0.13397,-0.03494,-0.05035,-0.03937,-0.01678,-0.01282,-0.02197,-0.01129,0.02563,-0.03845,-0.02243,0.02121,-0.03128
7.289,-0.01266,-0.03464,-0.03937,-0.17715,-0.03632,-0.05066,-0.04303,-0.02243,-0.01312,-0.02289,-0.01328,0.08972,-0.03769,-0.02304,0.02106,-0.03326
7.2895,-0.01221,-0.03632,-0.03601,-0.20004,-0.0351,-0.04974,-0.03967,-0.02731,-0.01404,-0.0235,-0.0119,0.14801,-0.03693,-0.02274,0.01968,-0.0351
7.29,-0.01373,-0.03937,-0.03143,-0.1857,-0.03281,-0.0473,-0.03342,-0.02899,-0.0145,-0.02365,-0.009,0.14252,-0.0354,-0.02151,0.02014,-0.03693
7.2905,-0.01328,-0.0441,-0.02899,-0.12527,-0.03189,-0.04562,-0.02823,-0.02594,-0.01602,-0.02426,-0.00763,0.07462,-0.03311,-0.01968,0.01846,-0.03799
7.291,-0.01007,-0.04868,-0.02853,-0.02106,-0.0322,-0.04471,-0.02411,-0.01801,-0.01633,-0.02441,-0.00778,0.00229,-0.03159,-0.01907,0.0174,-0.03876
7.2915,-0.00519,-0.05035,-0.02823,0.09155,-0.03174,-0.04395,-0.01816,-0.00626,-0.0148,-0.0235,-0.00778,-0.02731,-0.03098,-0.01938,0.01602,-0.03922
7.292,-0.00137,-0.04959,-0.0267,0.15106,-0.03036,-0.0412,-0.01221,0.00076,-0.01358,-0.02319,-0.00671,-0.01999,-0.03113,-0.0209,0.01511,-0.03998
7.2925,0.00183,-0.047,-0.02411,0.12665,-0.02823,-0.03845,-0.00549,-0.00244,-0.0148,-0.02396,-0.00702,-0.00397,-0.03098,-0.02243,0.01373,-0.03983
7.293,0.00427,-0.04425,-0.02274,0.06165,-0.02747,-0.03662,0.00366,-0.01144,-0.01663,-0.02472,-0.00946,0.00595,-0.03128,-0.02243,0.01282,-0.03922
7.2935,0.00549,-0.04135,-0.02365,0.01526,-0.02716,-0.0383,0.01678,-0.0174,-0.0174,-0.02441,-0.01038,0.01251,-0.03296,-0.02136,0.0148,-0.03998
7.294,0.00519,-0.04089,-0.02472,0.00626,-0.03006,-0.0383,0.02853,-0.01587,-0.01755,-0.02319,-0.00977,0.01831,-0.03265,-0.02182,0.01556,-0.04105
7.2945,0.00565,-0.04196,-0.0264,0.01358,-0.03204,-0.03418,0.02808,-0.01389,-0.0174,-0.02289,-0.01007,0.02762,-0.03021,-0.02319,0.01434,-0.04303
7.295,0.00732,-0.04272,-0.02655,0.01694,-0.03174,-0.03006,0.01144,-0.01801,-0.01877,-0.02304,-0.01114,0.03845,-0.02777,-0.02365,0.01358,-0.0444
7.2955,0.0087,-0.04318,-0.02747,0.01175,-0.02975,-0.02914,-0.01297,-0.02792,-0.01999,-0.02274,-0.01282,0.03754,-0.02716,-0.02258,0.01266,-0.04456
7.296,0.00961,-0.04272,-0.02853,0.0029,-0.02792,-0.03082,-0.03372,-0.03494,-0.02045,-0.0235,-0.01297,0.00443,-0.0293,-0.02136,0.01358,-0.04242
7.2965,0.00839,-0.04242,-0.03082,-0.00305,-0.03006,-0.03006,-0.04532,-0.03281,-0.02045,-0.02487,-0.01266,-0.05524,-0.03159,-0.02136,0.01556,-0.04105
7.297,0.0058,-0.0412,-0.03143,-0.00153,-0.03433,-0.02869,-0.05112,-0.02335,-0.02136,-0.02747,-0.01251,-0.10605,-0.03235,-0.02365,0.01511,-0.03967
7.2975,0.00198,-0.03937,-0.03235,0.0029,-0.03815,-0.03036,-0.05356,-0.01434,-0.02029,-0.02762,-0.01389,-0.11475,-0.03128,-0.02426,0.01465,-0.04089
7.298,-0.00061,-0.03723,-0.03204,0.00305,-0.03937,-0.0351,-0.05295,-0.00977,-0.01999,-0.02777,-0.01511,-0.0856,-0.03021,-0.02304,0.0145,-0.0444
7.2985,-0.00061,-0.03616,-0.0322,-0.0032,-0.0383,-0.03769,-0.04379,-0.00809,-0.01953,-0.02853,-0.01434,-0.04227,-0.03006,-0.02075,0.0148,-0.04684
7.299,0.00015,-0.03616,-0.03098,-0.01312,-0.03754,-0.03632,-0.02853,-0.00336,-0.01831,-0.03067,-0.01297,0.00412,-0.03128,-0.0206,0.01526,-0.04745
7.2995,-0.00092,-0.03693,-0.03235,-0.02304,-0.03708,-0.03387,-0.0119,0.00885,-0.01602,-0.03143,-0.01068,0.0473,-0.0325,-0.02182,0.0145,-0.04776
7.3,-0.00534,-0.03845,-0.03326,-0.0296,-0.03708,-0.03189,0.00137,0.02716,-0.01511,-0.0296,-0.01038,0.07202,-0.03189,-0.02274,0.01373,-0.04837
7.3005,-0.00931,-0.03983,-0.03571,-0.03098,-0.03815,-0.03174,0.01541,0.04181,-0.01602,-0.02899,-0.00946,0.06256,-0.03342,-0.0238,0.01251,-0.0499
7.301,-0.009,-0.03891,-0.03845,-0.02869,-0.03967,-0.03281,0.03586,0.04227,-0.01801,-0.03006,-0.01038,0.02884,-0.03555,-0.02319,0.01251,-0.05096
7.3015,-0.00519,-0.03662,-0.03983,-0.02487,-0.04013,-0.03372,0.05798,0.02899,-0.01877,-0.0293,-0.01328,-0.00351,-0.03586,-0.02228,0.01343,-0.05051
7.302,0.00046,-0.03677,-0.03891,-0.02258,-0.03952,-0.0322,0.06516,0.01251,-0.01846,-0.02869,-0.01419,-0.01831,-0.03418,-0.01953,0.01419,-0.0502
7.3025,0.00488,-0.03952,-0.04013,-0.02411,-0.03708,-0.03082,0.05035,0.00031,-0.01755,-0.02731,-0.01266,-0.02045,-0.03311,-0.01892,0.01648,-0.04913
7.303,0.00702,-0.04608,-0.04608,-0.03006,-0.03525,-0.02914,0.03021,-0.00687,-0.01602,-0.02686,-0.0119,-0.01343,-0.03342,-0.01984,0.01678,-0.04623
7.3035,0.00809,-0.05096,-0.05432,-0.03632,-0.03403,-0.02991,0.0264,-0.01099,-0.0148,-0.02731,-0.01282,0.00092,-0.03403,-0.02151,0.01587,-0.04425
7.304,0.00854,-0.05219,-0.05783,-0.03601,-0.03616,-0.03189,0.0415,-0.01144,-0.01328,-0.02792,-0.01312,0.01923,-0.0354,-0.02228,0.01358,-0.0444
7.3045,0.00687,-0.0502,-0.05432,-0.02792,-0.03845,-0.03525,0.05722,-0.00565,-0.01328,-0.02762,-0.01328,0.03448,-0.03738,-0.02029,0.0116,-0.04623
7.305,0.00381,-0.04913,-0.04761,-0.01846,-0.04013,-0.03784,0.05676,0.00198,-0.01404,-0.02762,-0.01266,0.04059,-0.03815,-0.01831,0.0116,-0.04929
7.3055,-0.00046,-0.04791,-0.04257,-0.01251,-0.03845,-0.0383,0.03571,0.00595,-0.0145,-0.02716,-0.01175,0.03906,-0.03601,-0.01801,0.01144,-0.05005
7.306,-0.00565,-0.04852,-0.03876,-0.01022,-0.03571,-0.03586,-0.00168,0.0032,-0.01465,-0.02808,-0.01068,0.03143,-0.03387,-0.01999,0.01175,-0.0502
7.3065,-0.00977,-0.0502,-0.03372,-0.00809,-0.03555,-0.03662,-0.05722,-0.00732,-0.01556,-0.02777,-0.01022,0.0235,-0.03418,-0.02136,0.01099,-0.05066
7.307,-0.01236,-0.05157,-0.02808,-0.00427,-0.03815,-0.04044,-0.11566,-0.02106,-0.01648,-0.02579,-0.01007,0.02167,-0.03494,-0.0206,0.01083,-0.05066
7.3075,-0.01328,-0.05432,-0.02365,-0.00168,-0.0386,-0.04501,-0.13748,-0.03021,-0.01694,-0.02228,-0.01068,0.02731,-0.03479,-0.01938,0.0116,-0.04959
7.308,-0.01266,-0.05615,-0.01938,-0.00412,-0.03525,-0.04791,-0.09857,-0.03357,-0.01633,-0.02151,-0.00961,0.03036,-0.03494,-0.01938,0.01129,-0.04837
7.3085,-0.01083,-0.0589,-0.01617,-0.00961,-0.03113,-0.05005,-0.03891,-0.03204,-0.01465,-0.02121,-0.00931,0.02518,-0.0351,-0.0209,0.01053,-0.0499
7.309,-0.00717,-0.05936,-0.01434,-0.01282,-0.02899,-0.05127,-0.0238,-0.02335,-0.01389,-0.02182,-0.00977,0.01511,-0.03448,-0.02228,0.00946,-0.05173
7.3095,-0.00458,-0.05417,-0.01434,-0.01099,-0.02899,-0.05066,-0.05051,-0.00565,-0.01251,-0.02197,-0.01053,0.00763,-0.03204,-0.02243,0.00839,-0.05188
7.31,-0.0058,-0.04318,-0.01831,-0.00702,-0.0293,-0.05005,-0.06226,0.01465,-0.01205,-0.02121,-0.01099,0.00366,-0.03082,-0.02243,0.00839,-0.05173
7.3105,-0.01007,-0.03189,-0.02975,-0.00473,-0.02853,-0.05127,-0.03845,0.02991,-0.01175,-0.0206,-0.01175,0.00153,-0.03082,-0.02243,0.00839,-0.05295
7.311,-0.01312,-0.02686,-0.05203,-0.00458,-0.02792,-0.05386,-0.01205,0.03403,-0.01251,-0.02029,-0.01373,0.00015,-0.03159,-0.02014,0.00763,-0.05325
7.3115,-0.01312,-0.02686,-0.0795,-0.00534,-0.02747,-0.05341,-0.01266,0.02731,-0.01312,-0.02014,-0.01266,0.00198,-0.03342,-0.01984,0.00763,-0.05142
7.312,-0.0119,-0.0296,-0.10284,-0.00626,-0.02945,-0.05188,-0.02945,0.01083,-0.01404,-0.02014,-0.01114,0.00153,-0.03372,-0.02075,0.00885,-0.04898
7.3125,-0.01266,-0.03342,-0.1123,-0.00671,-0.03067,-0.05219,-0.03815,-0.009,-0.0145,-0.0206,-0.00931,-0.00534,-0.03464,-0.02228,0.00854,-0.04807
7.313,-0.01633,-0.03708,-0.11139,-0.00626,-0.03189,-0.05417,-0.03418,-0.02396,-0.01434,-0.02029,-0.00961,-0.01328,-0.03647,-0.02258,0.00702,-0.04974
7.3135,-0.02213,-0.03983,-0.10986,-0.00427,-0.0296,-0.05478,-0.02655,-0.02762,-0.01358,-0.02075,-0.01144,-0.01678,-0.03586,-0.02106,0.00504,-0.05219
7.314,-0.02777,-0.04105,-0.10803,-0.00366,-0.02838,-0.05142,-0.01907,-0.02014,-0.01434,-0.02243,-0.01251,-0.01556,-0.03448,-0.01968,0.00336,-0.05341
7.3145,-0.02991,-0.04272,-0.10086,-0.00519,-0.03052,-0.04974,-0.01312,-0.01007,-0.01526,-0.02182,-0.01297,-0.01328,-0.03479,-0.01923,0.0029,-0.0531
7.315,-0.02777,-0.04395,-0.07889,-0.00687,-0.03433,-0.05325,-0.01007,-0.00336,-0.01587,-0.02106,-0.01343,-0.01282,-0.03662,-0.0209,0.00397,-0.0528
7.3155,-0.02335,-0.0444,-0.03876,-0.00641,-0.03723,-0.05707,-0.01099,-0.00198,-0.01572,-0.01801,-0.01389,-0.01022,-0.03754,-0.02182,0.00488,-0.05249
7.316,-0.01938,-0.04456,0.01419,-0.00305,-0.03662,-0.05981,-0.01587,-0.00305,-0.01434,-0.01724,-0.0148,-0.00458,-0.03693,-0.0209,0.00534,-0.05234
7.3165,-0.01694,-0.04639,0.0647,-0.00168,-0.03647,-0.06042,-0.02197,-0.00397,-0.01373,-0.01938,-0.01358,-0.00092,-0.03632,-0.01999,0.00504,-0.05371
7.317,-0.0148,-0.05035,0.10147,-0.00198,-0.03632,-0.05997,-0.02991,-0.00366,-0.01511,-0.01923,-0.01328,-0.00137,-0.03754,-0.01984,0.00336,-0.056
7.3175,-0.009,-0.05142,0.11688,-0.00275,-0.03448,-0.05997,-0.0325,-0.0029,-0.01602,-0.01877,-0.01312,-0.00366,-0.03769,-0.02045,0.00214,-0.05676
7.318,-0.0029,-0.04791,0.112,-0.0029,-0.03281,-0.06012,-0.02899,-0.00427,-0.01648,-0.01572,-0.01328,-0.00412,-0.03616,-0.02075,0.00183,-0.05478
7.3185,0.00198,-0.03952,0.09277,-0.00427,-0.03143,-0.06058,-0.02365,-0.00793,-0.01587,-0.0148,-0.01205,-0.00366,-0.03632,-0.02106,0.00214,-0.05219
7.319,0.00458,-0.02975,0.0647,-0.00717,-0.03143,-0.05783,-0.02121,-0.01404,-0.01572,-0.01358,-0.0119,-0.00076,-0.03845,-0.0209,0.00259,-0.04974
7.3195,0.00549,-0.01953,0.03281,-0.00946,-0.03067,-0.05356,-0.02029,-0.01724,-0.01556,-0.0145,-0.01297,0.00732,-0.04074,-0.01984,0.0032,-0.04852
7.32,0.00534,-0.01083,0.00458,-0.0087,-0.02991,-0.05142,-0.0177,-0.01572,-0.01587,-0.01633,-0.01572,0.02075,-0.04242,-0.01724,0.00381,-0.04837
7.3205,0.00168,-0.00793,-0.01724,-0.00549,-0.02945,-0.05219,-0.01221,-0.01129,-0.01587,-0.01801,-0.01724,0.03296,-0.04364,-0.01511,0.00351,-0.04883
7.321,-0.0029,-0.00946,-0.03021,-0.0029,-0.02792,-0.05447,-0.00824,-0.00916,-0.01495,-0.01846,-0.01556,0.03555,-0.0444,-0.01419,0.00229,-0.04913
7.3215,-0.0058,-0.01175,-0.03754,-0.00504,-0.02655,-0.05646,-0.00916,-0.01114,-0.01358,-0.0174,-0.01373,0.02625,-0.0444,-0.0145,0.00275,-0.04929
7.322,-0.0061,-0.01205,-0.04028,-0.01053,-0.02655,-0.05676,-0.01266,-0.01205,-0.01312,-0.01541,-0.01434,0.00305,-0.04349,-0.01633,0.00275,-0.04959
7.3225,-0.00488,-0.01251,-0.04456,-0.01556,-0.02747,-0.0563,-0.01587,-0.00992,-0.01389,-0.01465,-0.01587,-0.03052,-0.04364,-0.0177,0.00214,-0.0499
7.323,-0.00366,-0.0148,-0.05066,-0.01724,-0.02869,-0.05569,-0.01495,-0.00534,-0.01556,-0.01465,-0.01617,-0.07248,-0.04364,-0.0174,-0.00122,-0.04959
7.3235,-0.00107,-0.01907,-0.05737,-0.01663,-0.02792,-0.05264,-0.01129,0.0,-0.01755,-0.01495,-0.01633,-0.11673,-0.04242,-0.01724,-0.00122,-0.04883
7.324,0.00336,-0.02304,-0.06027,-0.01556,-0.02655,-0.05005,-0.00702,0.00565,-0.01892,-0.01663,-0.0174,-0.14252,-0.0412,-0.01801,-0.00122,-0.04898
7.3245,0.00687,-0.02411,-0.0589,-0.01221,-0.02579,-0.0473,-0.0058,0.01419,-0.01877,-0.01617,-0.0174,-0.10941,-0.0412,-0.01968,-0.00031,-0.04837
7.325,0.00763,-0.02518,-0.05859,-0.00305,-0.0267,-0.04684,-0.0061,0.0235,-0.01816,-0.01755,-0.0177,-0.00473,-0.04257,-0.0209,0.00015,-0.0473
7.3255,0.00626,-0.02914,-0.06195,0.00763,-0.02884,-0.04715,-0.00977,0.02945,-0.01709,-0.01694,-0.01755,0.11932,-0.04395,-0.02106,0.00076,-0.04639
7.326,0.00381,-0.03601,-0.06714,0.01007,-0.03113,-0.04745,-0.01389,0.0296,-0.0174,-0.01511,-0.01785,0.17426,-0.04242,-0.01923,0.0,-0.04501
7.3265,0.00244,-0.04272,-0.07019,0.00305,-0.03296,-0.04776,-0.01724,0.02487,-0.0177,-0.01419,-0.01617,0.12482,-0.03998,-0.01801,-0.00015,-0.04379
7.327,0.00244,-0.04684,-0.06668,-0.00443,-0.03433,-0.04837,-0.01633,0.0177,-0.01816,-0.01373,-0.01465,0.03128,-0.03967,-0.01755,0.00015,-0.04333
7.3275,0.00244,-0.04883,-0.05676,-0.00549,-0.03571,-0.04822,-0.01221,0.00931,-0.01846,-0.01358,-0.01419,-0.02457,-0.03952,-0.01724,-0.00076,-0.04318
7.328,0.00092,-0.04883,-0.04379,-0.00443,-0.03494,-0.04776,-0.00702,0.0,-0.01846,-0.01358,-0.01572,-0.02716,-0.03784,-0.01587,-0.00046,-0.04333
7.3285,-0.00092,-0.04868,-0.03281,-0.00519,-0.03113,-0.04608,-0.00153,-0.01328,-0.01862,-0.01236,-0.01678,-0.01373,-0.03571,-0.01434,-0.00092,-0.04547
7.329,-0.00214,-0.04868,-0.02441,-0.00748,-0.02319,-0.04501,0.00229,-0.0296,-0.01862,-0.01297,-0.01633,-0.01022,-0.03464,-0.0145,0.0,-0.0473
7.3295,-0.00153,-0.05005,-0.01907,-0.0087,-0.01617,-0.04684,0.00366,-0.04425,-0.01785,-0.01129,-0.01541,-0.01282,-0.03372,-0.01511,-0.00031,-0.04944
7.33,0.00046,-0.04898,-0.01694,-0.01083,-0.01251,-0.04913,0.00076,-0.05157,-0.0174,-0.01083,-0.01434,-0.01114,-0.03387,-0.01511,-0.00183,-0.04837
7.3305,0.00122,-0.04807,-0.01663,-0.01389,-0.01053,-0.04791,-0.00397,-0.05417,-0.0174,-0.01038,-0.01511,-0.00977,-0.03494,-0.01617,-0.00183,-0.04608
7.331,-0.00061,-0.04837,-0.01694,-0.01526,-0.00763,-0.04379,-0.00854,-0.05814,-0.01663,-0.00961,-0.01678,-0.009,-0.03647,-0.01709,-0.00122,-0.04547
7.3315,-0.00656,-0.05051,-0.01816,-0.0145,-0.00702,-0.04028,-0.00885,-0.05646,-0.01495,-0.01053,-0.01801,-0.00839,-0.03754,-0.01709,0.00015,-0.047
7.332,-0.01373,-0.05249,-0.02121,-0.01282,-0.01801,-0.04166,-0.00427,-0.02869,-0.01495,-0.01129,-0.01892,-0.00427,-0.03754,-0.01785,0.00046,-0.04684
7.3325,-0.01678,-0.05173,-0.02625,-0.01419,-0.03891,-0.04684,-0.00214,0.02533,-0.01755,-0.01236,-0.01892,0.0,-0.03754,-0.01862,0.00076,-0.0444
7.333,-0.01465,-0.0502,-0.03296,-0.01709,-0.06134,-0.05127,-0.00504,0.06882,-0.01862,-0.01175,-0.01907,0.00107,-0.03922,-0.01923,0.00229,-0.04257
7.3335,-0.01007,-0.04913,-0.03769,-0.01846,-0.07202,-0.05478,-0.01038,0.06409,-0.01801,-0.01022,-0.01892,0.00076,-0.04135,-0.01968,0.00427,-0.04227
7.334,-0.00809,-0.04974,-0.04242,-0.01556,-0.06653,-0.05554,-0.01144,0.02563,-0.0174,-0.00839,-0.01923,-0.00183,-0.04028,-0.02045,0.00534,-0.04272
7.3345,-0.009,-0.05127,-0.04639,-0.0116,-0.05371,-0.05554,-0.0061,-0.00366,-0.01892,-0.00885,-0.01938,-0.00961,-0.03754,-0.0206,0.00275,-0.04211
7.335,-0.01175,-0.05295,-0.04883,-0.01022,-0.0412,-0.05646,-0.00137,-0.00488,-0.01953,-0.00916,-0.01892,-0.02686,-0.03571,-0.01923,-0.00183,-0.04257
7.3355,-0.01114,-0.05371,-0.0499,-0.01266,-0.03494,-0.05997,-0.00107,0.00214,-0.01862,-0.00885,-0.01816,-0.04822,-0.03693,-0.01816,-0.00473,-0.04242
7.336,-0.00931,-0.05417,-0.04883,-0.01465,-0.03479,-0.06454,-0.00244,-0.00351,-0.01846,-0.009,-0.01617,-0.05859,-0.03891,-0.01785,-0.00397,-0.04379
7.3365,-0.00748,-0.05295,-0.04745,-0.01434,-0.03525,-0.06744,-0.00473,-0.02014,-0.01999,-0.00854,-0.01541,-0.05142,-0.03967,-0.01816,-0.00198,-0.04532
7.337,-0.00595,-0.0502,-0.0473,-0.01328,-0.03479,-0.06744,-0.00534,-0.02945,-0.02045,-0.01129,-0.01572,-0.0322,-0.03952,-0.01831,-0.00015,-0.04669
7.3375,-0.00305,-0.0473,-0.04623,-0.01495,-0.03342,-0.06607,-0.00854,-0.02167,-0.01892,-0.01373,-0.01724,-0.00839,-0.03845,-0.01785,0.0,-0.04654
7.338,0.00015,-0.04547,-0.04425,-0.01892,-0.03204,-0.06317,-0.01633,0.00305,-0.01801,-0.01205,-0.01724,0.01968,-0.03754,-0.0174,-0.00153,-0.04532
7.3385,0.00076,-0.04425,-0.04211,-0.02289,-0.02975,-0.06149,-0.02457,0.02502,-0.0177,-0.01144,-0.01724,0.05371,-0.03647,-0.01678,-0.00259,-0.0415
7.339,-0.00198,-0.04425,-0.04059,-0.02457,-0.02823,-0.06104,-0.0293,0.02457,-0.01678,-0.00946,-0.01678,0.08911,-0.03586,-0.01694,-0.00122,-0.03952
7.3395,-0.00488,-0.04517,-0.04044,-0.02075,-0.02731,-0.06042,-0.02975,0.00305,-0.01678,-0.00916,-0.01694,0.11368,-0.03387,-0.01785,-0.00031,-0.0383
7.34,-0.0029,-0.04593,-0.03952,-0.00885,-0.02701,-0.06012,-0.03174,-0.01297,-0.01694,-0.01007,-0.01633,0.11002,-0.03387,-0.01785,0.00076,-0.03769
7.3405,0.00107,-0.04593,-0.03891,0.00824,-0.02777,-0.05814,-0.03433,-0.00977,-0.0177,-0.01038,-0.01511,0.07889,-0.03525,-0.01694,0.00137,-0.03738
7.341,0.00473,-0.04593,-0.03738,0.02029,-0.02991,-0.05447,-0.03769,0.00061,-0.01633,-0.01068,-0.01495,0.04028,-0.03662,-0.01556,0.00122,-0.03708
