time,RectFemL,VastusMedL,VastusLatL,TibAntL,HamMedL,HamLatL,GastroMedL,GastroLatL,RectFemR,VastusMedR,VastusLatR,TibAntR,HamMedR,HamLatR,GastroMedR,GastroLatR
8.08,0.0029,-0.04517,-0.03677,-0.08224,-0.01328,-0.16312,-0.01419,0.00031,-0.01999,-0.01984,-0.01663,-0.0293,-0.03326,-0.01526,-0.10254,-0.08148
8.0805,-0.00107,-0.04272,-0.03464,-0.09262,-0.01968,-0.15533,-0.01434,-0.00076,-0.01419,-0.0177,-0.01465,-0.02747,-0.03326,-0.01495,-0.0531,-0.07935
8.081,-0.00717,-0.04242,-0.03555,-0.08331,-0.02975,-0.15244,-0.01404,0.0,-0.00992,-0.01694,-0.01526,-0.02167,-0.03342,-0.01556,-0.03326,-0.0705
8.0815,-0.00977,-0.0444,-0.03845,-0.04608,-0.03784,-0.1535,-0.01236,0.00198,-0.01022,-0.01877,-0.01373,-0.0145,-0.03326,-0.0177,-0.02609,-0.06165
8.082,-0.00687,-0.04715,-0.04211,0.00336,-0.03555,-0.15244,-0.0116,0.0032,-0.01266,-0.01907,-0.01114,-0.00961,-0.0322,-0.01846,0.00961,-0.05508
8.0825,-0.00259,-0.05051,-0.04578,0.04196,-0.00992,-0.14908,-0.01282,0.00336,-0.01389,-0.01846,-0.00961,-0.01068,-0.03036,-0.01755,0.0824,-0.05371
8.083,-0.0029,-0.0531,-0.04791,0.07721,0.03754,-0.14648,-0.0145,0.00275,-0.0145,-0.01678,-0.009,-0.0174,-0.03067,-0.01724,0.1506,-0.05661
8.0835,-0.00595,-0.05112,-0.04852,0.12177,0.07858,-0.14374,-0.01511,0.00183,-0.01434,-0.01495,-0.01038,-0.02472,-0.03235,-0.0177,0.18143,-0.05905
8.084,-0.00519,-0.04379,-0.04761,0.15015,0.09094,-0.13931,-0.0148,0.00229,-0.01404,-0.01495,-0.01083,-0.02594,-0.03204,-0.01785,0.18143,-0.05203
8.0845,-0.00092,-0.03662,-0.04395,0.11002,0.07904,-0.13275,-0.01495,0.00198,-0.01526,-0.01434,-0.01038,-0.0206,-0.03006,-0.01831,0.17395,-0.03235
8.085,0.00168,-0.03326,-0.03998,-0.01312,0.07095,-0.12573,-0.01434,0.00229,-0.01633,-0.01617,-0.01068,-0.0145,-0.02838,-0.01831,0.15533,-0.01022
8.0855,-0.00031,-0.03342,-0.03738,-0.16373,0.07813,-0.11993,-0.01312,0.00275,-0.01755,-0.01678,-0.01099,-0.01465,-0.0293,-0.01892,0.12009,-0.00427
8.086,-0.00473,-0.0322,-0.03693,-0.27359,0.09552,-0.11398,-0.01175,0.00153,-0.0174,-0.0177,-0.01129,-0.01831,-0.03143,-0.01923,0.07751,-0.01801
8.0865,-0.00595,-0.02808,-0.03571,-0.32104,0.10315,-0.10788,-0.01068,-0.00107,-0.01663,-0.0174,-0.0119,-0.01831,-0.03189,-0.01846,0.03815,-0.03693
8.087,-0.00443,-0.02457,-0.0351,-0.30914,0.08804,-0.10284,-0.01129,-0.00168,-0.01541,-0.01755,-0.01144,-0.01328,-0.0322,-0.01907,0.0,-0.04593
8.0875,-0.00366,-0.0235,-0.03464,-0.22049,0.03983,-0.10178,-0.01465,-0.00031,-0.01434,-0.01785,-0.00931,-0.00763,-0.03204,-0.01968,-0.03754,-0.04623
8.088,-0.00504,-0.02487,-0.03235,-0.04944,-0.03235,-0.10406,-0.01816,0.00015,-0.01358,-0.01678,-0.00916,-0.0058,-0.0322,-0.02029,-0.05051,-0.04639
8.0885,-0.00534,-0.02579,-0.03128,0.14999,-0.0972,-0.10635,-0.01877,-0.00229,-0.01404,-0.0174,-0.00992,-0.00504,-0.03281,-0.02213,-0.01923,-0.04837
8.089,-0.00107,-0.02686,-0.03174,0.29999,-0.12878,-0.10529,-0.01709,-0.00458,-0.01495,-0.0177,-0.01251,-0.00153,-0.03311,-0.02213,0.03098,-0.04868
8.0895,0.01984,-0.02747,-0.03418,0.36377,-0.12756,-0.09933,-0.0145,-0.00473,-0.01541,-0.01923,-0.01266,0.00336,-0.03189,-0.01953,0.0528,-0.04562
8.09,0.05814,-0.03036,-0.04059,0.36118,-0.1207,-0.09171,-0.01297,-0.00214,-0.01587,-0.01801,-0.01144,0.0058,-0.03036,-0.01587,0.02808,-0.04242
8.0905,0.08911,-0.03296,-0.04959,0.3299,-0.1326,-0.08148,-0.01251,0.0,-0.01587,-0.01678,-0.01343,0.00107,-0.03067,-0.01678,-0.00595,-0.04166
8.091,0.07919,-0.03418,-0.05524,0.2887,-0.15717,-0.07126,-0.01144,0.00061,-0.01709,-0.01633,-0.01938,-0.01129,-0.03204,-0.01923,-0.01328,-0.0444
8.0915,0.02502,-0.0322,-0.05951,0.22858,-0.17029,-0.065,-0.0116,0.00015,-0.01663,-0.01602,-0.02579,-0.02289,-0.03372,-0.0206,-0.00198,-0.04379
8.092,-0.03525,-0.02838,-0.06058,0.14145,-0.15732,-0.06348,-0.01129,0.00015,-0.01602,-0.01587,-0.02563,-0.0267,-0.03433,-0.02014,-0.00122,-0.03754
8.0925,-0.06668,-0.02731,-0.05798,0.03952,-0.11887,-0.06073,-0.01221,0.00153,-0.01328,-0.01495,-0.02014,-0.02136,-0.03357,-0.01923,-0.02213,-0.02731
8.093,-0.06516,-0.02975,-0.04501,-0.04501,-0.06485,-0.05341,-0.01465,0.00458,-0.01053,-0.01587,-0.01511,-0.01312,-0.03174,-0.01785,-0.04532,-0.02228
8.0935,-0.05173,-0.03357,-0.02487,-0.08438,-0.01785,-0.0412,-0.01694,0.00671,-0.01053,-0.01709,-0.01205,-0.00809,-0.03189,-0.01724,-0.05554,-0.02472
8.094,-0.04196,-0.0351,-0.00519,-0.08026,0.00305,-0.02838,-0.01694,0.00473,-0.01175,-0.01877,-0.00854,-0.0058,-0.03174,-0.01572,-0.0592,-0.02563
8.0945,-0.03754,-0.0354,0.00854,-0.05478,-0.01007,-0.01801,-0.0145,0.00305,-0.01328,-0.01877,-0.00595,-0.00366,-0.03113,-0.01663,-0.0592,-0.01999
8.095,-0.03708,-0.03632,0.01556,-0.0238,-0.04776,-0.01099,-0.01266,0.00351,-0.01343,-0.01907,-0.00549,-0.00214,-0.03098,-0.01968,-0.05157,-0.01511
8.0955,-0.03754,-0.03799,0.01831,0.01511,-0.08377,-0.00381,-0.01099,0.00595,-0.0116,-0.01923,-0.00549,-0.00168,-0.02991,-0.02151,-0.03479,-0.0177
8.096,-0.0383,-0.0383,0.01572,0.06866,-0.09506,0.00336,-0.00778,0.00839,-0.01099,-0.0209,-0.00412,-0.00336,-0.03189,-0.02029,-0.02121,-0.02213
8.0965,-0.03845,-0.03922,0.00519,0.1236,-0.08148,0.01221,-0.00565,0.00809,-0.01205,-0.02106,-0.00366,-0.00534,-0.03418,-0.01709,-0.02731,-0.02151
8.097,-0.03891,-0.04257,-0.00702,0.14526,-0.06348,0.02335,-0.00626,0.0058,-0.01541,-0.02228,-0.00336,-0.00397,-0.03464,-0.01724,-0.04684,-0.01495
8.0975,-0.03723,-0.04807,-0.01923,0.09598,-0.056,0.03571,-0.01129,0.00336,-0.0174,-0.02396,-0.00534,0.00183,-0.03296,-0.01984,-0.05966,-0.0119
8.098,-0.03052,-0.05341,-0.02945,-0.02396,-0.05325,0.04593,-0.01663,0.00153,-0.01709,-0.02457,-0.00671,0.00641,-0.03235,-0.02136,-0.05737,-0.01785
8.0985,-0.02029,-0.05753,-0.03708,-0.1709,-0.05249,0.05371,-0.02075,0.00214,-0.0148,-0.02441,-0.00504,0.00397,-0.03281,-0.01923,-0.0441,-0.03143
8.099,-0.00992,-0.05829,-0.0415,-0.27985,-0.06042,0.06058,-0.02457,0.00259,-0.0119,-0.02258,-0.00534,-0.00519,-0.03448,-0.01755,-0.03143,-0.04654
8.0995,-0.00229,-0.05341,-0.04333,-0.30045,-0.07446,0.0676,-0.0267,0.0032,-0.0116,-0.01907,-0.00671,-0.01297,-0.03586,-0.01862,-0.00946,-0.05203
8.1,0.00183,-0.04364,-0.0444,-0.22827,-0.07874,0.07507,-0.02533,0.00458,-0.01404,-0.01587,-0.00839,-0.01236,-0.03571,-0.01984,0.02701,-0.04761
8.1005,0.00351,-0.03326,-0.04333,-0.11902,-0.06073,0.08301,-0.01953,0.00671,-0.01785,-0.01755,-0.01175,-0.00778,-0.03357,-0.01938,0.06622,-0.04196
8.101,0.00153,-0.02426,-0.03906,-0.05676,-0.02426,0.09537,-0.01328,0.00702,-0.02197,-0.01999,-0.00992,-0.00488,-0.03128,-0.01755,0.09415,-0.0444
8.1015,-0.00336,-0.01953,-0.0322,-0.08301,0.01205,0.11017,-0.01114,0.00519,-0.02655,-0.01938,-0.00702,-0.00702,-0.03021,-0.01694,0.10605,-0.0502
8.102,-0.00641,-0.01923,-0.02716,-0.16434,0.03342,0.12589,-0.01358,0.00168,-0.03052,-0.01999,-0.0058,-0.01007,-0.03006,-0.0174,0.10422,-0.05249
8.1025,-0.00641,-0.02319,-0.02777,-0.22278,0.03403,0.13962,-0.01709,-0.00153,-0.0325,-0.01892,-0.00717,-0.01297,-0.03052,-0.01831,0.07996,-0.04898
8.103,-0.00381,-0.03159,-0.03464,-0.20859,0.01556,0.14923,-0.02029,-0.00351,-0.0296,-0.01862,-0.01068,-0.01587,-0.03281,-0.01907,0.03113,-0.04761
8.1035,0.00076,-0.04333,-0.0412,-0.13947,-0.01434,0.1561,-0.02075,-0.00305,-0.02335,-0.01984,-0.01114,-0.0174,-0.03448,-0.01816,-0.0267,-0.04974
8.104,0.00748,-0.05524,-0.04608,-0.07385,-0.04562,0.16312,-0.02075,-0.00107,-0.01587,-0.02121,-0.01251,-0.01328,-0.03601,-0.01785,-0.06775,-0.05005
8.1045,0.01541,-0.06195,-0.04913,-0.05112,-0.0708,0.17059,-0.01846,0.00122,-0.01068,-0.02335,-0.01526,-0.00534,-0.03693,-0.01892,-0.08499,-0.04745
8.105,0.02365,-0.06363,-0.0499,-0.06058,-0.08545,0.17822,-0.01602,0.00244,-0.0087,-0.02319,-0.02213,0.00153,-0.03876,-0.02014,-0.08759,-0.04608
8.1055,0.02975,-0.06027,-0.04776,-0.0766,-0.09354,0.18356,-0.01312,0.00015,-0.00778,-0.01968,-0.03067,0.00397,-0.03952,-0.02029,-0.07828,-0.04593
8.106,0.03235,-0.05493,-0.04562,-0.09918,-0.09003,0.18631,-0.01266,-0.00275,-0.00763,-0.01923,-0.03586,0.0032,-0.03632,-0.01953,-0.05936,-0.0444
8.1065,0.02945,-0.04883,-0.0473,-0.14664,-0.07172,0.18738,-0.01389,-0.00504,-0.00931,-0.02075,-0.03494,0.00229,-0.03357,-0.0177,-0.03342,-0.04028
8.107,0.02457,-0.04395,-0.05203,-0.224,-0.04547,0.18463,-0.01556,-0.00275,-0.01144,-0.02319,-0.02884,0.00198,-0.03326,-0.0177,-0.01785,-0.03708
8.1075,0.0174,-0.0444,-0.05661,-0.30487,-0.02502,0.17563,-0.01541,0.00366,-0.01389,-0.02426,-0.02701,0.00153,-0.03479,-0.01724,-0.00336,-0.03708
8.108,0.00809,-0.047,-0.05814,-0.32669,-0.01602,0.1683,-0.01526,0.00961,-0.01511,-0.02441,-0.0235,0.00275,-0.03418,-0.01678,0.0351,-0.0412
8.1085,-0.00244,-0.05142,-0.05341,-0.21179,-0.01511,0.16708,-0.0145,0.01297,-0.01526,-0.02106,-0.0174,0.00351,-0.03235,-0.01648,0.09186,-0.04486
8.109,-0.01068,-0.05539,-0.04593,0.06165,-0.01511,0.17395,-0.01389,0.0145,-0.01694,-0.01678,-0.0119,-0.00015,-0.03036,-0.01831,0.12955,-0.04898
8.1095,-0.01129,-0.05814,-0.03937,0.37872,-0.00916,0.18631,-0.0116,0.0174,-0.02014,-0.01465,-0.00717,-0.00519,-0.02914,-0.02029,0.11063,-0.0531
8.11,-0.00488,-0.05814,-0.03601,0.55008,0.00641,0.19669,-0.00748,0.01907,-0.0238,-0.0116,-0.00504,-0.00763,-0.02792,-0.02167,0.06256,-0.05692
8.1105,0.00092,-0.05661,-0.03418,0.48874,0.02716,0.20447,-0.00595,0.01968,-0.02762,-0.00854,-0.00259,-0.00626,-0.02899,-0.02274,0.03326,-0.05646
8.111,0.00397,-0.05188,-0.03281,0.29953,0.04364,0.20859,-0.00717,0.01984,-0.03052,-0.0058,0.00153,-0.00595,-0.03113,-0.02304,0.03464,-0.05005
8.1115,0.00488,-0.04395,-0.02899,0.14557,0.04745,0.20874,-0.01022,0.01648,-0.03189,-0.00763,-0.00046,-0.00824,-0.03235,-0.02151,0.04364,-0.04379
8.112,0.00397,-0.03586,-0.02502,0.07309,0.03967,0.20523,-0.01083,0.01205,-0.03204,-0.01053,-0.00916,-0.01282,-0.03098,-0.01968,0.04303,-0.04761
8.1125,0.0029,-0.03067,-0.02655,0.02029,0.02441,0.20035,-0.01114,0.00626,-0.03235,-0.01526,-0.01816,-0.01617,-0.02899,-0.01938,0.03189,-0.06073
8.113,0.00305,-0.03128,-0.03265,-0.05524,0.00854,0.19577,-0.01282,-0.00076,-0.03281,-0.02197,-0.02289,-0.01617,-0.02884,-0.02045,0.02106,-0.07401
8.1135,0.0029,-0.03387,-0.04135,-0.13397,-0.00458,0.19424,-0.01801,-0.00885,-0.03082,-0.02502,-0.02396,-0.01328,-0.02899,-0.02045,0.00977,-0.07675
8.114,0.00153,-0.03525,-0.04608,-0.18295,-0.01755,0.1947,-0.02197,-0.01678,-0.02701,-0.02777,-0.02182,-0.00885,-0.02792,-0.01846,0.00031,-0.07141
8.1145,-0.00015,-0.03418,-0.04501,-0.18234,-0.02487,0.20065,-0.02426,-0.02243,-0.02167,-0.02747,-0.01831,-0.00702,-0.02594,-0.01678,-0.00412,-0.06256
8.115,-0.00168,-0.03189,-0.04089,-0.121,-0.01984,0.21255,-0.02457,-0.02411,-0.01556,-0.02762,-0.0148,-0.00839,-0.02762,-0.01617,-0.00336,-0.05417
8.1155,0.00092,-0.03189,-0.03815,-0.01572,-0.00198,0.2243,-0.02457,-0.0238,-0.00748,-0.02579,-0.01144,-0.00961,-0.02975,-0.01648,-0.0032,-0.04578
8.116,0.00381,-0.03448,-0.03815,0.07294,0.0087,0.22583,-0.02258,-0.02213,0.00031,-0.02548,-0.00839,-0.00854,-0.03128,-0.01755,-0.00336,-0.03983
8.1165,0.00565,-0.03723,-0.03799,0.08881,0.00229,0.21469,-0.02075,-0.02014,0.00534,-0.02563,-0.00961,-0.0029,-0.03113,-0.01511,-0.00656,-0.03342
8.117,0.0032,-0.03906,-0.03403,0.03876,-0.01266,0.19562,-0.01968,-0.01724,0.0061,-0.02762,-0.01266,0.00397,-0.03052,-0.01144,-0.01007,-0.02457
8.1175,0.00137,-0.03876,-0.02518,-0.01495,-0.01694,0.17487,-0.01831,-0.01373,0.00397,-0.02747,-0.01541,0.00702,-0.03067,-0.00702,-0.01556,-0.01907
8.118,0.00198,-0.03677,-0.01404,-0.02045,0.00061,0.15533,-0.01556,-0.00977,0.00046,-0.02563,-0.01846,0.00549,-0.03235,-0.00656,-0.01892,-0.02106
8.1185,0.00381,-0.03632,-0.00778,0.0296,0.03311,0.1355,-0.0119,-0.00687,-0.00168,-0.02213,-0.01938,0.0029,-0.03403,-0.00824,-0.0235,-0.03006
8.119,0.00381,-0.03433,-0.00778,0.09399,0.05951,0.11902,-0.00839,-0.00671,-0.00534,-0.0209,-0.01678,0.00214,-0.03418,-0.0116,-0.02502,-0.03998
8.1195,0.0,-0.0322,-0.01022,0.1181,0.06134,0.10635,-0.00595,-0.00671,-0.00931,-0.01907,-0.01389,0.00214,-0.03403,-0.01587,-0.0238,-0.04562
8.12,-0.00504,-0.03235,-0.01404,0.0856,0.03326,0.10178,-0.00473,-0.00305,-0.01282,-0.01755,-0.01221,0.00137,-0.03342,-0.01999,-0.02487,-0.04379
8.1205,-0.00671,-0.03479,-0.01923,0.03616,-0.01343,0.10269,-0.00534,0.00381,-0.01434,-0.01663,-0.01328,-0.00031,-0.03387,-0.02274,-0.03006,-0.03357
8.121,-0.00305,-0.03723,-0.02716,0.01434,-0.06195,0.10635,-0.00534,0.01205,-0.01465,-0.01648,-0.01358,-0.00107,-0.03387,-0.0267,-0.03372,-0.02014
8.1215,-0.00107,-0.03754,-0.03479,0.01953,-0.10574,0.10727,-0.00504,0.01831,-0.01358,-0.01755,-0.01297,0.00107,-0.03403,-0.03418,-0.02945,-0.01587
8.122,-0.00549,-0.03647,-0.04074,0.02533,-0.13702,0.10239,-0.00473,0.02258,-0.01404,-0.01907,-0.01373,0.00427,-0.03281,-0.0386,-0.01648,-0.02151
8.1225,-0.01663,-0.03632,-0.04303,0.02716,-0.15244,0.09659,-0.00626,0.02457,-0.01678,-0.01846,-0.01556,0.00732,-0.03143,-0.03586,-0.00031,-0.03128
8.123,-0.02686,-0.0386,-0.04379,0.03845,-0.15442,0.09583,-0.00809,0.02502,-0.0209,-0.01709,-0.01816,0.00641,-0.03128,-0.02808,0.00992,-0.03723
8.1235,-0.03128,-0.04333,-0.04272,0.07263,-0.1532,0.10147,-0.00778,0.02274,-0.0264,-0.01556,-0.01923,0.00366,-0.03159,-0.02106,0.01129,-0.04196
8.124,-0.03204,-0.0499,-0.03555,0.11658,-0.14893,0.11017,-0.00687,0.01297,-0.03067,-0.01434,-0.02625,0.00229,-0.03204,-0.01862,0.00748,-0.05051
8.1245,-0.0293,-0.05768,-0.0174,0.12573,-0.13519,0.11154,-0.00671,-0.00519,-0.03067,-0.01434,-0.04837,0.00473,-0.03281,-0.01877,0.00565,-0.0618
8.125,-0.02487,-0.0647,0.00214,0.06622,-0.11429,0.09705,-0.00931,-0.02258,-0.02609,-0.01373,-0.08804,0.00961,-0.0322,-0.01907,0.00259,-0.06912
8.1255,-0.01831,-0.06729,0.00885,-0.01312,-0.09796,0.07126,-0.01465,-0.03586,-0.02167,-0.01511,-0.12238,0.01617,-0.03189,-0.01907,-0.00137,-0.06836
8.126,-0.01022,-0.06348,0.00061,-0.01755,-0.08743,0.05127,-0.01907,-0.0473,-0.01953,-0.01602,-0.1207,0.01984,-0.03159,-0.01831,-0.00351,-0.0647
8.1265,-0.00473,-0.05875,-0.01404,0.07477,-0.07385,0.04776,-0.02075,-0.06073,-0.01846,-0.01541,-0.08469,0.01709,-0.03235,-0.0177,0.0,-0.06638
8.127,-0.0032,-0.05325,-0.02823,0.18463,-0.04761,0.05646,-0.01999,-0.07294,-0.01617,-0.01602,-0.04028,0.00778,-0.0322,-0.01709,0.00427,-0.07248
8.1275,-0.00351,-0.04822,-0.03952,0.23209,-0.01053,0.06607,-0.0206,-0.07996,-0.01328,-0.0174,-0.01984,-0.00427,-0.03159,-0.01694,0.00443,-0.07645
8.128,-0.0032,-0.03952,-0.04959,0.20538,0.02914,0.07034,-0.02258,-0.08713,-0.01038,-0.01694,-0.01419,-0.0116,-0.03036,-0.01633,0.0061,-0.07202
8.1285,-0.00061,-0.0293,-0.06195,0.13657,0.0589,0.06897,-0.02319,-0.09674,-0.00687,-0.01541,-0.00839,-0.01114,-0.02991,-0.01419,0.00809,-0.06104
8.129,0.00259,-0.01877,-0.08621,0.06531,0.06744,0.06378,-0.02121,-0.09583,-0.0029,-0.01343,0.01038,-0.00381,-0.03189,-0.01373,0.01434,-0.04959
8.1295,0.00641,-0.01083,-0.13901,0.00702,0.0531,0.05554,-0.01709,-0.06485,-0.00305,-0.01343,0.0322,0.00381,-0.03357,-0.01663,0.02197,-0.0412
8.13,0.00885,-0.01068,-0.21027,-0.05447,0.02792,0.0444,-0.01404,-0.00793,-0.009,-0.0177,0.04669,0.00687,-0.03525,-0.01968,0.02655,-0.03769
8.1305,0.00854,-0.01648,-0.26733,-0.13428,0.0029,0.03036,-0.01312,0.04532,-0.02014,-0.02579,0.05234,0.00519,-0.03418,-0.02213,0.02274,-0.03983
8.131,0.00504,-0.02472,-0.27588,-0.20706,-0.01022,0.01556,-0.01282,0.0705,-0.03174,-0.03571,0.06485,0.0058,-0.03326,-0.02213,0.01328,-0.04593
8.1315,-0.00168,-0.03311,-0.23224,-0.23697,-0.0061,-0.00092,-0.01312,0.06866,-0.04211,-0.04044,0.0769,0.00931,-0.03433,-0.02243,0.00656,-0.05081
8.132,-0.01068,-0.03784,-0.14267,-0.23178,0.0087,-0.01266,-0.01404,0.05402,-0.04791,-0.0415,0.08087,0.01266,-0.03464,-0.0235,0.01038,-0.04471
8.1325,-0.01846,-0.03632,-0.02396,-0.23743,0.01541,-0.01282,-0.01495,0.03876,-0.05005,-0.04013,0.0708,0.01312,-0.03311,-0.02502,0.02106,-0.03036
8.133,-0.02319,-0.03006,0.09171,-0.27832,0.00229,-0.00031,-0.01434,0.03021,-0.04593,-0.03708,0.05081,0.00916,-0.03052,-0.02563,0.02838,-0.02045
8.1335,-0.02457,-0.02396,0.17349,-0.3392,-0.01587,0.01602,-0.01236,0.0322,-0.03891,-0.03235,0.02762,0.00153,-0.02975,-0.0238,0.01938,-0.02335
8.134,-0.02396,-0.02167,0.20721,-0.39108,-0.01526,0.02426,-0.01221,0.03815,-0.02777,-0.02747,0.0029,-0.00854,-0.03098,-0.02029,0.00168,-0.03235
8.1345,-0.02197,-0.02686,0.20233,-0.4187,0.00443,0.02548,-0.01419,0.04089,-0.01266,-0.02243,-0.01877,-0.01678,-0.03281,-0.0174,-0.01099,-0.03342
8.135,-0.02014,-0.03632,0.17273,-0.41321,0.02151,0.01877,-0.01785,0.04059,0.0058,-0.02136,-0.02426,-0.0206,-0.03311,-0.01633,-0.00977,-0.02411
8.1355,-0.02014,-0.04776,0.12985,-0.35294,0.02106,0.00839,-0.02075,0.03876,0.0235,-0.02045,-0.00931,-0.01999,-0.03235,-0.01617,0.00259,-0.01801
8.136,-0.02228,-0.05661,0.08347,-0.21851,0.00931,-0.00412,-0.02197,0.0325,0.03464,-0.02411,0.01648,-0.01465,-0.03189,-0.01633,0.0145,-0.01816
8.1365,-0.0238,-0.05981,0.04562,-0.04517,-0.00641,-0.01678,-0.02274,0.01999,0.03769,-0.02747,0.03357,-0.00839,-0.02991,-0.0145,0.02151,-0.02579
8.137,-0.0235,-0.05814,0.02319,0.08118,-0.02121,-0.03189,-0.02274,0.01083,0.0322,-0.02548,0.0322,-0.00366,-0.02808,-0.01282,0.02136,-0.03876
8.1375,-0.02319,-0.05402,0.00793,0.11673,-0.02457,-0.04944,-0.01999,0.00931,0.02136,-0.01938,0.01465,-0.00229,-0.02731,-0.01251,0.0209,-0.05539
8.138,-0.02274,-0.05188,-0.01221,0.1004,-0.01022,-0.06668,-0.01526,0.01129,0.00961,-0.01419,-0.01434,-0.00366,-0.02838,-0.0148,0.02365,-0.07111
8.1385,-0.02014,-0.05524,-0.0354,0.08133,-0.00259,-0.08118,-0.0119,0.00854,0.00153,-0.01022,-0.04929,-0.00473,-0.02869,-0.01709,0.02838,-0.0795
8.139,-0.01587,-0.06332,-0.05569,0.06027,-0.03799,-0.09552,-0.01129,-0.00107,-0.00397,-0.00595,-0.08118,-0.0029,-0.02838,-0.01724,0.02701,-0.07874
8.1395,-0.0119,-0.06897,-0.06836,0.01938,-0.12497,-0.11139,-0.01205,-0.01328,-0.01175,0.00229,-0.10513,-0.00076,-0.02869,-0.01312,0.01785,-0.07126
8.14,-0.00916,-0.06989,-0.07751,-0.02686,-0.2179,-0.12466,-0.01251,-0.0209,-0.02426,0.00961,-0.11368,-0.00183,-0.02945,-0.00961,0.01007,-0.06424
8.1405,-0.0061,-0.06638,-0.08255,-0.0563,-0.25726,-0.13062,-0.01129,-0.02213,-0.04089,0.00946,-0.10254,-0.00488,-0.03006,-0.01114,0.01312,-0.06058
8.141,-0.00107,-0.06287,-0.08224,-0.06653,-0.21561,-0.12848,-0.00885,-0.02075,-0.0563,0.00275,-0.06912,-0.00717,-0.02975,-0.01663,0.02762,-0.05737
8.1415,0.00275,-0.0589,-0.07385,-0.06683,-0.12543,-0.1207,-0.00702,-0.02258,-0.06516,-0.00534,-0.02945,-0.00534,-0.02991,-0.02167,0.03571,-0.05035
8.142,0.00366,-0.05386,-0.0592,-0.05386,-0.05157,-0.112,-0.00702,-0.02853,-0.06409,-0.00656,-0.00137,0.00015,-0.03143,-0.02213,0.01328,-0.04288
8.1425,0.00076,-0.04913,-0.04349,-0.01984,-0.02884,-0.10468,-0.00961,-0.02609,-0.05249,-0.00732,0.01373,0.0032,-0.03342,-0.02029,-0.03906,-0.04471
8.143,-0.00381,-0.04684,-0.03555,0.02258,-0.03586,-0.10284,-0.01373,-0.00351,-0.02914,-0.00778,0.01999,0.0,-0.03479,-0.0174,-0.08377,-0.06195
8.1435,-0.00626,-0.04868,-0.03784,0.05264,-0.03586,-0.10681,-0.01663,0.03159,0.00046,-0.00778,0.0235,-0.00549,-0.03494,-0.01724,-0.08377,-0.07843
8.144,-0.00809,-0.05157,-0.04654,0.07294,-0.01572,-0.11078,-0.01633,0.05371,0.02304,-0.00473,0.02029,-0.00778,-0.03403,-0.0177,-0.03983,-0.06195
8.1445,-0.00931,-0.05173,-0.05508,0.08667,0.00595,-0.11444,-0.01434,0.03235,0.02609,-0.00153,0.01389,-0.00427,-0.03326,-0.01831,0.00443,-0.00473
8.145,-0.00839,-0.04929,-0.06042,0.0705,0.01709,-0.11719,-0.01389,-0.03006,0.01007,-0.00092,0.00809,-0.00122,-0.03357,-0.01816,0.01663,0.05127
8.1455,-0.0058,-0.04456,-0.06165,0.01694,0.01907,-0.12375,-0.01343,-0.08286,-0.00977,-0.0058,0.00504,-0.00015,-0.03448,-0.01724,0.00504,0.05493
8.146,-0.00351,-0.04044,-0.05905,-0.02625,0.01678,-0.13245,-0.01205,-0.06638,-0.02228,-0.01129,-0.00153,0.00076,-0.03418,-0.01663,-0.00366,0.00839
8.1465,-0.00458,-0.03571,-0.05615,-0.02792,0.00519,-0.14114,-0.0119,0.01556,-0.02548,-0.01389,-0.00961,0.00275,-0.03296,-0.01648,0.00031,-0.03937
8.147,-0.00763,-0.03128,-0.05356,-0.03937,-0.02289,-0.14618,-0.01663,0.08621,-0.02197,-0.01053,-0.01938,0.00656,-0.03143,-0.0177,0.00778,-0.05417
8.1475,-0.01053,-0.02884,-0.05203,-0.12512,-0.06134,-0.14938,-0.02121,0.08606,-0.01404,-0.00793,-0.0264,0.01022,-0.0322,-0.01877,0.01221,-0.0502
8.148,-0.01236,-0.02701,-0.05142,-0.27512,-0.09491,-0.15121,-0.0206,0.03693,-0.00336,-0.01129,-0.02975,0.0119,-0.03326,-0.01877,0.0119,-0.05295
8.1485,-0.01282,-0.02716,-0.04974,-0.40695,-0.1088,-0.15335,-0.01389,-0.00137,0.00504,-0.01678,-0.02747,0.00916,-0.03448,-0.01831,0.01251,-0.06882
8.149,-0.00946,-0.02808,-0.0499,-0.4306,-0.09628,-0.1564,-0.01099,-0.00748,0.00534,-0.01968,-0.02167,0.00427,-0.03464,-0.01877,0.01663,-0.08316
8.1495,-0.0029,-0.02853,-0.04593,-0.30197,-0.06149,-0.15656,-0.01465,-0.00275,-0.00397,-0.01968,-0.01694,-0.00122,-0.03448,-0.01938,0.02472,-0.08453
8.15,0.00809,-0.02975,-0.04303,-0.05264,-0.01709,-0.15244,-0.01953,-0.00351,-0.01801,-0.02075,-0.0148,-0.0029,-0.03387,-0.01923,0.03189,-0.07217
8.1505,0.03052,-0.03159,-0.04105,0.20508,0.02258,-0.14755,-0.0206,-0.00793,-0.03052,-0.02365,-0.01617,0.00031,-0.03326,-0.01862,0.03372,-0.05692
8.151,0.07645,-0.03052,-0.04135,0.35919,0.04868,-0.14374,-0.01923,-0.01343,-0.03769,-0.02731,-0.01984,0.00397,-0.03326,-0.01846,0.02594,-0.04959
8.1515,0.12589,-0.02869,-0.03998,0.38132,0.05661,-0.14481,-0.01953,-0.01892,-0.04059,-0.02853,-0.02396,0.00458,-0.03281,-0.02029,0.0145,-0.05112
8.152,0.12909,-0.02655,-0.04074,0.31982,0.04333,-0.1474,-0.01923,-0.02274,-0.04257,-0.03052,-0.02914,0.00198,-0.03311,-0.02121,0.00778,-0.0499
8.1525,0.06943,-0.02472,-0.0415,0.23148,0.00946,-0.15106,-0.01801,-0.02716,-0.0415,-0.03143,-0.03342,0.00107,-0.03418,-0.02045,0.00626,-0.03708
8.153,-0.01236,-0.02289,-0.04517,0.16205,-0.02975,-0.15244,-0.0177,-0.03525,-0.03815,-0.03372,-0.03418,0.00275,-0.03494,-0.01907,0.00961,-0.00336
8.1535,-0.06821,-0.01999,-0.04761,0.14496,-0.05219,-0.15457,-0.01968,-0.047,-0.03098,-0.03372,-0.03143,0.00687,-0.0351,-0.02014,0.01419,0.04837
8.154,-0.08591,-0.01877,-0.05112,0.18036,-0.04898,-0.1564,-0.02213,-0.05905,-0.02426,-0.03174,-0.02777,0.00824,-0.0351,-0.02075,0.0235,0.08865
8.1545,-0.08331,-0.02121,-0.05173,0.22186,-0.03281,-0.15732,-0.02335,-0.07217,-0.02029,-0.03006,-0.02441,0.00183,-0.03525,-0.02045,0.02884,0.07294
8.155,-0.07553,-0.02502,-0.05066,0.2179,-0.0209,-0.15823,-0.02319,-0.08575,-0.01862,-0.0293,-0.02411,-0.01068,-0.03403,-0.01907,0.02609,0.00656
8.1555,-0.06851,-0.02869,-0.04532,0.16602,-0.02594,-0.15839,-0.02243,-0.0882,-0.01633,-0.02823,-0.02533,-0.01846,-0.03326,-0.01816,0.01801,-0.05157
8.156,-0.06317,-0.03204,-0.03906,0.09293,-0.04898,-0.16068,-0.01862,-0.06317,-0.01022,-0.02594,-0.02304,-0.01541,-0.03204,-0.01907,0.01678,-0.05951
8.1565,-0.05859,-0.03372,-0.03357,0.00732,-0.07401,-0.16266,-0.01389,-0.01495,-0.00061,-0.02396,-0.02075,-0.0116,-0.03189,-0.02045,0.02304,-0.04608
8.157,-0.05188,-0.03555,-0.03021,-0.10071,-0.08102,-0.16235,-0.00946,0.0238,0.00671,-0.02014,-0.0177,-0.01541,-0.03235,-0.01923,0.02609,-0.05859
8.1575,-0.04562,-0.03769,-0.02731,-0.21057,-0.06744,-0.16159,-0.00595,0.02701,0.00732,-0.0174,-0.01556,-0.02167,-0.03204,-0.01831,0.02167,-0.08667
8.158,-0.04532,-0.04166,-0.02594,-0.24963,-0.04501,-0.16006,-0.00427,0.00473,0.00153,-0.01816,-0.01556,-0.01938,-0.03265,-0.0177,0.00778,-0.08774
8.1585,-0.04745,-0.04868,-0.02731,-0.17105,-0.02319,-0.15945,-0.00473,-0.01663,-0.0058,-0.01862,-0.01556,-0.00687,-0.03372,-0.01938,-0.00793,-0.0563
8.159,-0.04303,-0.06165,-0.02869,-0.02151,-0.00076,-0.15991,-0.00839,-0.0267,-0.009,-0.02167,-0.01999,0.00412,-0.03479,-0.02121,-0.01877,-0.02808
8.1595,-0.02762,-0.07813,-0.02808,0.10117,0.02426,-0.16098,-0.01297,-0.03006,-0.00916,-0.02045,-0.02274,0.00702,-0.03403,-0.02045,-0.02167,-0.02167
8.16,-0.00961,-0.09033,-0.02823,0.14236,0.0473,-0.16129,-0.01892,-0.03143,-0.0087,-0.02045,-0.02426,0.00229,-0.03265,-0.01846,-0.01862,-0.02029
8.1605,0.00076,-0.09003,-0.02853,0.10757,0.06393,-0.16403,-0.02533,-0.03098,-0.00946,-0.0206,-0.02243,-0.00351,-0.03296,-0.0174,-0.01404,-0.02029
8.161,0.0029,-0.07629,-0.02792,0.03555,0.08194,-0.16647,-0.0296,-0.02945,-0.01175,-0.02045,-0.01831,-0.00519,-0.03281,-0.01755,-0.00717,-0.03845
8.1615,0.00397,-0.05753,-0.02502,-0.02579,0.1091,-0.16357,-0.02747,-0.03067,-0.01343,-0.01907,-0.01587,-0.00137,-0.03159,-0.01785,0.00381,-0.07538
8.162,0.00809,-0.04318,-0.02029,-0.0415,0.13428,-0.15793,-0.02274,-0.03479,-0.01328,-0.01663,-0.01251,0.00122,-0.03021,-0.01755,0.0148,-0.10605
8.1625,0.01419,-0.03464,-0.01862,-0.02075,0.13565,-0.15244,-0.02029,-0.03799,-0.01343,-0.0174,-0.01282,-0.00015,-0.03052,-0.01648,0.01785,-0.1088
8.163,0.01923,-0.02777,-0.01877,0.01236,0.10956,-0.14862,-0.01984,-0.03571,-0.01389,-0.01938,-0.01221,-0.00092,-0.03052,-0.01602,0.01419,-0.09506
8.1635,0.02396,-0.0206,-0.02136,0.05219,0.07629,-0.14694,-0.01999,-0.02853,-0.01526,-0.02228,-0.0148,0.00183,-0.03067,-0.01648,0.01022,-0.08835
8.164,0.02625,-0.01617,-0.02533,0.1091,0.04074,-0.14709,-0.0177,-0.02258,-0.01648,-0.02289,-0.0177,0.00626,-0.03006,-0.0177,0.01144,-0.0975
8.1645,0.02563,-0.01434,-0.02869,0.18997,-0.01663,-0.14969,-0.01343,-0.02075,-0.01678,-0.02335,-0.01785,0.00824,-0.03098,-0.01678,0.01328,-0.10605
8.165,0.02167,-0.01465,-0.03281,0.2919,-0.08438,-0.15366,-0.009,-0.02426,-0.01709,-0.02289,-0.01678,0.00702,-0.03235,-0.01587,0.00931,-0.09933
8.1655,0.0174,-0.01343,-0.0354,0.36743,-0.13107,-0.1561,-0.00656,-0.03372,-0.01617,-0.0206,-0.01495,0.00565,-0.03403,-0.01663,0.00549,-0.07217
8.166,0.01297,-0.01358,-0.03906,0.34119,-0.15015,-0.15564,-0.00656,-0.04684,-0.01694,-0.01953,-0.01556,0.00565,-0.0322,-0.01923,0.00275,-0.03418
8.1665,0.00809,-0.01221,-0.05432,0.19562,-0.17059,-0.15259,-0.01038,-0.056,-0.01816,-0.01923,-0.01938,0.00916,-0.02991,-0.01999,-0.00198,-0.01175
8.167,0.00351,-0.00854,-0.08072,0.01465,-0.20386,-0.14847,-0.01678,-0.05737,-0.01785,-0.01984,-0.02975,0.01221,-0.0293,-0.01984,-0.00595,-0.02411
8.1675,0.00137,-0.00488,-0.11383,-0.10651,-0.22476,-0.14374,-0.02182,-0.05798,-0.0174,-0.02014,-0.0502,0.01205,-0.03021,-0.0177,-0.00412,-0.05035
8.168,0.0029,-0.0061,-0.13748,-0.14496,-0.21255,-0.13931,-0.02335,-0.06302,-0.01617,-0.02228,-0.07248,0.00687,-0.03113,-0.01846,0.00397,-0.05081
8.1685,0.00748,-0.01511,-0.14008,-0.12756,-0.17792,-0.1358,-0.0238,-0.06912,-0.01709,-0.02167,-0.08163,-0.00031,-0.03098,-0.01938,0.00885,-0.01526
8.169,0.01007,-0.02808,-0.12192,-0.07599,-0.13718,-0.12939,-0.02518,-0.06912,-0.01862,-0.02151,-0.0676,-0.00412,-0.03098,-0.01831,0.0119,0.02319
8.1695,0.00519,-0.03937,-0.08606,-0.00626,-0.09186,-0.11978,-0.02579,-0.06165,-0.01923,-0.02029,-0.0386,-0.00259,-0.03082,-0.01678,0.01495,0.03418
8.17,-0.00778,-0.05051,-0.04028,0.05661,-0.04608,-0.10757,-0.0235,-0.05127,-0.01862,-0.01755,-0.009,0.0,-0.03159,-0.01709,0.01984,0.01862
8.1705,-0.02228,-0.06119,0.00885,0.08209,-0.01282,-0.10178,-0.0209,-0.04089,-0.01785,-0.01587,0.0145,0.00137,-0.03235,-0.01953,0.02289,0.00153
8.171,-0.03143,-0.0679,0.0563,0.05875,0.00214,-0.10208,-0.01877,-0.0322,-0.01846,-0.01541,0.03357,0.00061,-0.03113,-0.02121,0.02487,-0.00397
8.1715,-0.03494,-0.06943,0.09644,-0.00031,0.00412,-0.10193,-0.01938,-0.02563,-0.01953,-0.01236,0.04593,-0.00031,-0.02838,-0.01923,0.02594,-0.00748
8.172,-0.03357,-0.06927,0.12024,-0.06226,-0.00137,-0.09842,-0.02106,-0.02121,-0.02014,-0.01297,0.05035,-0.00214,-0.02625,-0.01694,0.02808,-0.01617
8.1725,-0.03067,-0.07324,0.11978,-0.09232,-0.00946,-0.09445,-0.02106,-0.01816,-0.01923,-0.01434,0.04654,-0.00305,-0.0264,-0.01724,0.0264,-0.02808
8.173,-0.02609,-0.08057,0.09033,-0.07553,-0.01663,-0.09155,-0.01999,-0.01251,-0.01923,-0.0145,0.03647,-0.00305,-0.02884,-0.02029,0.02335,-0.03571
8.1735,-0.01923,-0.08575,0.04013,-0.03464,-0.02106,-0.08804,-0.02045,-0.00336,-0.01862,-0.01389,0.02472,-0.00305,-0.03067,-0.02151,0.01953,-0.03525
8.174,-0.01205,-0.08438,-0.01373,-0.00992,-0.0322,-0.08347,-0.0209,0.00687,-0.01831,-0.01419,0.01404,-0.00381,-0.03204,-0.02136,0.01755,-0.03296
8.1745,-0.00748,-0.08087,-0.05386,-0.01587,-0.04242,-0.07523,-0.01816,0.01495,-0.01694,-0.01648,0.00717,-0.00534,-0.03311,-0.02121,0.01495,-0.03647
8.175,-0.00427,-0.0769,-0.07187,-0.03479,-0.03662,-0.06561,-0.01328,0.02075,-0.01617,-0.01862,0.00351,-0.00519,-0.03433,-0.02182,0.01495,-0.0444
8.1755,-0.00229,-0.06775,-0.0705,-0.04593,-0.01221,-0.05951,-0.01053,0.02716,-0.01526,-0.02045,0.00046,-0.00381,-0.03586,-0.02258,0.0148,-0.05142
8.176,-0.00061,-0.05295,-0.06287,-0.04303,0.009,-0.05569,-0.01022,0.03387,-0.01633,-0.01968,-0.00244,-0.00305,-0.03662,-0.02258,0.0145,-0.05325
8.1765,0.0,-0.03952,-0.0592,-0.03067,0.0145,-0.05341,-0.00992,0.03815,-0.01816,-0.01968,-0.00824,-0.0029,-0.03738,-0.02121,0.01434,-0.04898
8.177,0.00061,-0.03189,-0.06805,-0.01617,0.00931,-0.0499,-0.00809,0.03738,-0.01953,-0.02335,-0.01389,-0.00366,-0.03723,-0.02014,0.01373,-0.04379
8.1775,-0.00046,-0.02747,-0.08347,-0.01022,0.00702,-0.04669,-0.00702,0.03647,-0.01968,-0.02411,-0.02014,-0.00397,-0.03799,-0.01999,0.01236,-0.0444
8.178,-0.0032,-0.02426,-0.09567,-0.0177,0.00961,-0.04547,-0.00793,0.03738,-0.01923,-0.02502,-0.02151,-0.00366,-0.03952,-0.0206,0.01068,-0.05249
8.1785,-0.00687,-0.02197,-0.09705,-0.02899,0.00351,-0.04623,-0.00885,0.03998,-0.01816,-0.02304,-0.02121,-0.00381,-0.03983,-0.02167,0.00839,-0.06149
8.179,-0.00793,-0.02106,-0.08636,-0.03113,-0.01923,-0.04959,-0.00916,0.04318,-0.01755,-0.0206,-0.01938,-0.00458,-0.03983,-0.02167,0.00885,-0.06195
8.1795,-0.00351,-0.0209,-0.06836,-0.02029,-0.04135,-0.05066,-0.00793,0.04593,-0.01541,-0.01923,-0.01663,-0.00473,-0.03922,-0.01999,0.00885,-0.05508
8.18,0.00519,-0.0174,-0.05096,-0.00519,-0.03494,-0.04776,-0.00412,0.04837,-0.01251,-0.01892,-0.01495,-0.00519,-0.03754,-0.01801,0.00931,-0.04669
8.1805,0.01022,-0.01358,-0.0383,0.00198,-0.00473,-0.0412,0.0,0.04715,-0.01007,-0.02121,-0.01404,-0.00443,-0.03616,-0.01755,0.00946,-0.04196
8.181,0.00961,-0.01129,-0.0322,-0.00595,0.00565,-0.03448,0.00183,0.04181,-0.009,-0.02106,-0.01495,-0.00351,-0.03387,-0.01785,0.00946,-0.0415
8.1815,0.00427,-0.01221,-0.02579,-0.02579,-0.02762,-0.03143,0.00076,0.03448,-0.00946,-0.01846,-0.01526,-0.00183,-0.03204,-0.01816,0.00977,-0.04471
8.182,-0.00015,-0.0177,-0.01709,-0.05432,-0.07584,-0.02991,0.00046,0.02533,-0.01068,-0.01663,-0.01511,-0.00153,-0.0322,-0.01755,0.00946,-0.04715
8.1825,-0.00229,-0.02747,-0.01068,-0.08453,-0.09766,-0.02823,0.00015,0.01465,-0.01129,-0.0174,-0.01511,-0.00336,-0.03479,-0.01694,0.00961,-0.05081
8.183,-0.00351,-0.03662,-0.00885,-0.11215,-0.09918,-0.02182,0.00107,-0.00046,-0.01251,-0.0174,-0.01541,-0.00412,-0.03677,-0.01724,0.0087,-0.05402
8.1835,-0.00275,-0.04242,-0.01495,-0.12848,-0.10117,-0.01266,0.00107,-0.0174,-0.01587,-0.01938,-0.01511,-0.00137,-0.0354,-0.01831,0.00763,-0.05539
8.184,-0.00061,-0.04562,-0.02457,-0.11993,-0.10468,-0.00259,0.00122,-0.02197,-0.01862,-0.01801,-0.01541,0.00137,-0.03174,-0.01907,0.00809,-0.05264
8.1845,0.00092,-0.04929,-0.03036,-0.07782,-0.09537,0.00473,0.00076,0.00549,-0.01984,-0.01694,-0.01465,0.00275,-0.02975,-0.01984,0.0087,-0.0473
8.185,0.00198,-0.05508,-0.03357,-0.01236,-0.07477,0.01114,0.00107,0.06668,-0.01907,-0.01663,-0.01556,0.00031,-0.03113,-0.01999,0.00854,-0.04425
8.1855,0.0032,-0.05844,-0.0351,0.06165,-0.05341,0.01602,0.00229,0.12985,-0.01984,-0.01678,-0.01648,-0.00214,-0.03311,-0.01984,0.0087,-0.04364
8.186,0.00366,-0.05539,-0.03708,0.13031,-0.03143,0.01785,0.00443,0.14862,-0.02075,-0.01587,-0.01831,-0.00214,-0.03357,-0.01816,0.00809,-0.04425
8.1865,0.00427,-0.0502,-0.03952,0.16266,-0.00732,0.01816,0.00595,0.11368,-0.02243,-0.01587,-0.02014,-0.00168,-0.03387,-0.01785,0.00748,-0.04532
8.187,0.00381,-0.04837,-0.04074,0.11169,0.01099,0.01877,0.00549,0.0618,-0.02472,-0.01465,-0.02121,-0.00214,-0.0351,-0.01999,0.00687,-0.04593
8.1875,0.00519,-0.05051,-0.03967,-0.02853,0.00549,0.02106,0.00351,0.03525,-0.02655,-0.01404,-0.02213,-0.00214,-0.03525,-0.02136,0.00702,-0.04807
8.188,0.01129,-0.05386,-0.04105,-0.19333,-0.02289,0.02182,-0.00015,0.03479,-0.02518,-0.01511,-0.02274,-0.00229,-0.03265,-0.02106,0.00519,-0.05142
8.1885,0.01938,-0.05585,-0.04318,-0.29556,-0.04837,0.02274,-0.00229,0.03891,-0.02182,-0.0148,-0.02289,-0.00183,-0.03174,-0.02106,0.00366,-0.05325
8.189,0.02563,-0.056,-0.04501,-0.29419,-0.04181,0.02625,-0.00443,0.03464,-0.01846,-0.01129,-0.02319,-0.00137,-0.03204,-0.02151,0.0032,-0.05096
8.1895,0.02792,-0.05341,-0.0412,-0.21225,-0.0058,0.03296,-0.00473,0.02594,-0.01556,-0.01068,-0.01984,-0.00092,-0.03204,-0.01999,0.0058,-0.04639
8.19,0.03021,-0.04929,-0.03387,-0.11597,0.01358,0.04074,-0.00336,0.01877,-0.01389,-0.01038,-0.0148,-0.00107,-0.03143,-0.0177,0.00809,-0.04227
8.1905,0.03418,-0.04364,-0.02945,-0.06378,-0.02182,0.04425,-0.00214,0.01465,-0.01328,-0.01205,-0.01007,-0.00153,-0.03143,-0.01602,0.00702,-0.04547
8.191,0.03815,-0.03952,-0.03235,-0.05173,-0.09064,0.04272,-0.00168,0.01038,-0.01328,-0.0145,-0.00961,-0.00122,-0.03342,-0.01602,0.00458,-0.05386
8.1915,0.03677,-0.03281,-0.04074,-0.03891,-0.13077,0.04059,-0.00229,0.00565,-0.01328,-0.01633,-0.01328,-0.00031,-0.03448,-0.01785,0.00443,-0.05981
8.192,0.0296,-0.02243,-0.05066,-0.01556,-0.10742,0.03952,-0.00351,0.00031,-0.01389,-0.01801,-0.01709,0.00214,-0.03479,-0.01877,0.0061,-0.05768
8.1925,0.0177,-0.01648,-0.06393,-0.00748,-0.05569,0.03983,-0.00458,-0.00351,-0.01434,-0.01755,-0.01831,0.00305,-0.03479,-0.01938,0.00732,-0.05142
8.193,0.00595,-0.02533,-0.07721,-0.02075,-0.02914,0.04074,-0.00595,-0.00732,-0.01633,-0.01633,-0.01678,0.00305,-0.03555,-0.01968,0.00656,-0.04669
8.1935,0.00122,-0.04807,-0.0824,-0.03265,-0.04425,0.04227,-0.00778,-0.01022,-0.01923,-0.01465,-0.01526,0.00214,-0.03632,-0.01999,0.00488,-0.04349
8.194,0.00244,-0.06653,-0.07584,-0.0293,-0.07431,0.04349,-0.00778,-0.01068,-0.01923,-0.01663,-0.01572,0.00214,-0.03586,-0.01984,0.00366,-0.03998
8.1945,0.00534,-0.0679,-0.06439,-0.01984,-0.09628,0.04593,-0.00717,-0.00992,-0.0177,-0.01907,-0.01694,0.00381,-0.03632,-0.01862,0.00488,-0.03845
8.195,0.00504,-0.05814,-0.05707,-0.01312,-0.10574,0.0473,-0.00916,-0.009,-0.01602,-0.02213,-0.01511,0.00259,-0.03693,-0.01785,0.00458,-0.03967
8.1955,-0.00015,-0.05051,-0.05203,-0.00931,-0.11429,0.04776,-0.01221,-0.00931,-0.01617,-0.01968,-0.01297,-0.00076,-0.03754,-0.01785,0.00275,-0.04196
8.196,-0.00793,-0.04791,-0.04227,-0.00244,-0.11444,0.04761,-0.01556,-0.01266,-0.0177,-0.01999,-0.01312,-0.00351,-0.03586,-0.01801,0.00076,-0.04318
8.1965,-0.01236,-0.04395,-0.02777,0.00397,-0.09323,0.04913,-0.01785,-0.01709,-0.01923,-0.02228,-0.01495,-0.00275,-0.03418,-0.01877,-0.00214,-0.04486
8.197,-0.01236,-0.03799,-0.01755,0.01068,-0.0528,0.04974,-0.01617,-0.01999,-0.01938,-0.02502,-0.01785,-0.00107,-0.03357,-0.01862,-0.0029,-0.04547
8.1975,-0.01236,-0.03387,-0.01282,0.01617,-0.01526,0.04593,-0.0119,-0.02136,-0.01907,-0.02579,-0.01816,-0.00107,-0.03433,-0.01831,-0.00229,-0.04654
8.198,-0.01404,-0.03281,-0.00961,0.01678,0.00214,0.03876,-0.01022,-0.02258,-0.01816,-0.02579,-0.01648,-0.00122,-0.03387,-0.01877,0.00153,-0.04517
8.1985,-0.00412,-0.03143,-0.00443,0.00244,0.00473,0.03204,-0.01175,-0.02777,-0.01572,-0.02487,-0.01541,-0.00107,-0.03265,-0.01831,0.00458,-0.04379
8.199,0.03738,-0.02853,0.00046,-0.02808,0.00031,0.03021,-0.01709,-0.03769,-0.01511,-0.0238,-0.01602,-0.00031,-0.03296,-0.01862,0.00534,-0.04364
8.1995,0.10178,-0.02533,0.00443,-0.06165,-0.00076,0.0322,-0.02167,-0.04959,-0.01556,-0.02365,-0.01633,-0.00137,-0.03357,-0.01846,0.00656,-0.04211
8.2,0.13382,-0.02289,0.00931,-0.08179,-0.00244,0.03387,-0.02304,-0.05814,-0.0177,-0.02213,-0.01556,-0.00275,-0.03555,-0.01862,0.00961,-0.04028
8.2005,0.08987,-0.02197,0.01236,-0.07996,-0.00595,0.03036,-0.02151,-0.06271,-0.01892,-0.01938,-0.0145,-0.0029,-0.03616,-0.01846,0.01434,-0.04425
8.201,0.00153,-0.02731,0.00671,-0.06271,-0.01007,0.02258,-0.01999,-0.0621,-0.01785,-0.01602,-0.0148,-0.00198,-0.03372,-0.01709,0.01511,-0.056
8.2015,-0.06531,-0.04532,-0.00778,-0.04364,-0.01526,0.01495,-0.01877,-0.05905,-0.01556,-0.01709,-0.01633,0.00046,-0.03128,-0.01541,0.01343,-0.06546
8.202,-0.0827,-0.06622,-0.03143,-0.03204,-0.01602,0.0087,-0.01816,-0.05417,-0.01389,-0.01663,-0.01633,0.00229,-0.02945,-0.01419,0.009,-0.06317
8.2025,-0.07294,-0.07416,-0.07858,-0.02884,-0.00717,0.00122,-0.01816,-0.04868,-0.01312,-0.01434,-0.0145,0.0029,-0.03052,-0.01495,0.0061,-0.05447
8.203,-0.06134,-0.06287,-0.17365,-0.02609,0.00854,-0.00549,-0.01831,-0.04028,-0.01282,-0.01221,-0.01129,0.00198,-0.03036,-0.01709,0.00534,-0.0473
8.2035,-0.06104,-0.04471,-0.31067,-0.01633,0.01953,-0.01144,-0.01953,-0.03311,-0.0119,-0.01251,-0.01022,-0.00122,-0.0296,-0.01709,0.00488,-0.04486
8.204,-0.08408,-0.03113,-0.43564,0.00137,0.01755,-0.01602,-0.02182,-0.02853,-0.01099,-0.0148,-0.01282,-0.00366,-0.02838,-0.01556,0.00504,-0.04135
8.2045,-0.12543,-0.02182,-0.48325,0.02487,0.00534,-0.02045,-0.02457,-0.02518,-0.01114,-0.01724,-0.01495,-0.00366,-0.02792,-0.01511,0.00793,-0.03601
8.205,-0.15717,-0.01373,-0.42709,0.05829,-0.0058,-0.02426,-0.02579,-0.02136,-0.01266,-0.02029,-0.01511,-0.00168,-0.02777,-0.01617,0.01068,-0.02869
8.2055,-0.15457,-0.00656,-0.28488,0.08942,-0.01648,-0.02899,-0.02548,-0.0177,-0.01358,-0.02106,-0.01373,-0.00046,-0.03006,-0.01831,0.0148,-0.02441
8.206,-0.12085,-0.00153,-0.09247,0.08591,-0.02823,-0.03448,-0.02472,-0.0148,-0.01343,-0.0206,-0.01389,-0.00046,-0.03204,-0.01938,0.01556,-0.02563
8.2065,-0.07401,0.00122,0.11032,0.03204,-0.04135,-0.03998,-0.02457,-0.01144,-0.01358,-0.01907,-0.01785,-0.00107,-0.03311,-0.01877,0.01526,-0.03387
8.207,-0.0267,0.00153,0.28519,-0.03143,-0.04349,-0.04456,-0.02457,-0.00778,-0.01328,-0.01877,-0.02121,-0.00107,-0.03433,-0.01831,0.01465,-0.04135
8.2075,0.01282,-0.00153,0.39673,-0.05051,-0.03021,-0.04944,-0.02426,-0.00366,-0.01312,-0.02014,-0.0206,-0.00092,-0.03494,-0.01663,0.01526,-0.03601
8.208,0.03784,-0.00839,0.43091,-0.02121,-0.01251,-0.05829,-0.02487,-0.00061,-0.01434,-0.02136,-0.01801,-0.00015,-0.0354,-0.01648,0.01831,-0.01816
8.2085,0.04303,-0.0177,0.40222,0.02365,0.0,-0.06729,-0.02686,0.00137,-0.01648,-0.02304,-0.01755,0.00153,-0.03448,-0.01694,0.02045,-0.00092
8.209,0.0386,-0.02548,0.33752,0.06912,0.00473,-0.07187,-0.02823,0.00366,-0.02014,-0.02563,-0.01877,0.0029,-0.0325,-0.01877,0.01938,0.00534
8.2095,0.04333,-0.02625,0.26154,0.11017,0.00778,-0.07294,-0.02747,0.00702,-0.02151,-0.02792,-0.01877,0.00275,-0.03265,-0.01785,0.01404,0.00046
8.21,0.06012,-0.02426,0.18616,0.12161,0.01068,-0.07141,-0.02609,0.00946,-0.01999,-0.02823,-0.01602,0.00076,-0.03525,-0.01541,0.01144,-0.00641
8.2105,0.07568,-0.02289,0.10956,0.08011,0.01297,-0.07233,-0.02319,0.00946,-0.01785,-0.02563,-0.01236,-0.00183,-0.03708,-0.01465,0.01083,-0.00824
8.211,0.0769,-0.0235,0.02899,0.00504,0.01236,-0.07751,-0.02045,0.00809,-0.01633,-0.02289,-0.01068,-0.00504,-0.03586,-0.01556,0.01053,-0.00748
8.2115,0.06454,-0.02258,-0.04959,-0.05875,0.00839,-0.08636,-0.01816,0.00763,-0.01526,-0.01953,-0.01144,-0.00748,-0.03418,-0.0174,0.00778,-0.00839
8.212,0.05142,-0.02274,-0.12497,-0.07828,0.00122,-0.09613,-0.01648,0.00854,-0.0148,-0.01923,-0.01389,-0.00671,-0.03342,-0.01816,0.00656,-0.01328
8.2125,0.05157,-0.03082,-0.2095,-0.0441,-0.00504,-0.10101,-0.01663,0.009,-0.01495,-0.01862,-0.01358,-0.00244,-0.03372,-0.01923,0.0061,-0.02136
8.213,0.06363,-0.04333,-0.30609,0.01343,-0.00732,-0.10452,-0.01877,0.00839,-0.01419,-0.01923,-0.01144,0.00381,-0.03265,-0.01923,0.0029,-0.03357
8.2135,0.07446,-0.05341,-0.38284,0.03418,-0.00641,-0.10986,-0.02167,0.00885,-0.01434,-0.01694,-0.00961,0.00839,-0.03281,-0.01785,-0.00519,-0.05081
8.214,0.07675,-0.05692,-0.40314,-0.01312,-0.00381,-0.11795,-0.02274,0.00977,-0.01511,-0.01678,-0.0116,0.00916,-0.03387,-0.01648,-0.0119,-0.0679
8.2145,0.08194,-0.05783,-0.36133,-0.06836,0.00107,-0.12421,-0.02136,0.01068,-0.01541,-0.01755,-0.01526,0.00671,-0.03418,-0.01648,-0.01511,-0.07751
8.215,0.1033,-0.05966,-0.27054,-0.02899,0.00671,-0.12939,-0.01984,0.01053,-0.01526,-0.01877,-0.0148,0.00153,-0.03311,-0.0177,-0.01282,-0.07904
8.2155,0.13138,-0.06012,-0.14023,0.10513,0.01129,-0.13565,-0.01984,0.00824,-0.0145,-0.01968,-0.01144,-0.00198,-0.0322,-0.01953,-0.0058,-0.07629
8.216,0.12756,-0.05478,0.01038,0.21133,0.0116,-0.14603,-0.02121,0.00595,-0.0148,-0.02106,-0.00946,-0.00092,-0.03281,-0.0209,0.00549,-0.07156
8.2165,0.06958,-0.04883,0.14786,0.19318,0.00961,-0.15808,-0.02319,0.00443,-0.01572,-0.01953,-0.01068,0.00366,-0.03357,-0.02075,0.01526,-0.0708
8.217,-0.01785,-0.04349,0.24094,0.08987,0.00443,-0.168,-0.0235,0.00336,-0.01633,-0.01831,-0.01297,0.00854,-0.03296,-0.01999,0.01251,-0.08347
8.2175,-0.09232,-0.04211,0.28152,0.00412,-0.00122,-0.17456,-0.02304,0.00183,-0.01678,-0.0177,-0.01465,0.01068,-0.0325,-0.01831,0.00244,-0.10361
8.218,-0.13168,-0.04547,0.28076,-0.01907,-0.00824,-0.17975,-0.02274,0.00092,-0.0177,-0.01816,-0.01526,0.00931,-0.03174,-0.01862,-0.00626,-0.10849
8.2185,-0.14404,-0.0473,0.2507,-0.00732,-0.01801,-0.18524,-0.02274,0.00076,-0.01831,-0.01877,-0.01495,0.00717,-0.03113,-0.01953,-0.0087,-0.08362
8.219,-0.14587,-0.04272,0.20584,-0.00366,-0.0386,-0.18982,-0.0238,0.00107,-0.0177,-0.01755,-0.01404,0.00778,-0.03082,-0.0206,-0.00381,-0.04547
8.2195,-0.14496,-0.0322,0.15625,-0.04059,-0.06638,-0.19547,-0.0235,0.00244,-0.01556,-0.0174,-0.01297,0.01099,-0.03036,-0.02136,0.00671,-0.02731
8.22,-0.14481,-0.02121,0.10971,-0.1416,-0.0827,-0.19836,-0.02151,0.00443,-0.01328,-0.01877,-0.0119,0.01068,-0.03036,-0.02106,0.02228,-0.04333
8.2205,-0.14313,-0.02045,0.065,-0.29449,-0.07538,-0.19974,-0.01923,0.00427,-0.01282,-0.02029,-0.0116,0.00366,-0.03082,-0.02014,0.03845,-0.0737
8.221,-0.14023,-0.0322,0.02533,-0.4335,-0.05585,-0.20065,-0.0174,0.00244,-0.0148,-0.0206,-0.01404,-0.00534,-0.03174,-0.01846,0.05035,-0.08881
8.2215,-0.13443,-0.04761,-0.00488,-0.4744,-0.04944,-0.20462,-0.01755,0.00015,-0.01495,-0.01968,-0.01587,-0.01038,-0.03159,-0.0177,0.05417,-0.08713
8.222,-0.12939,-0.06012,-0.02777,-0.39536,-0.0589,-0.21332,-0.01831,-0.00015,-0.01587,-0.02045,-0.0148,-0.009,-0.03159,-0.01816,0.05112,-0.08698
8.2225,-0.12497,-0.06851,-0.04562,-0.25391,-0.0647,-0.22293,-0.01999,0.00107,-0.01602,-0.01968,-0.01343,-0.00626,-0.03174,-0.01907,0.04333,-0.10071
8.223,-0.12146,-0.0795,-0.065,-0.1091,-0.04684,-0.22827,-0.0206,0.00015,-0.01602,-0.0206,-0.01221,-0.00381,-0.03174,-0.01862,0.03525,-0.11627
8.2235,-0.12695,-0.0946,-0.08423,0.02655,-0.01419,-0.22812,-0.02045,-0.00168,-0.01541,-0.02182,-0.01175,-0.00214,-0.03296,-0.01831,0.02731,-0.11902
8.224,-0.15045,-0.10529,-0.09674,0.13687,0.01007,-0.2272,-0.02106,-0.00366,-0.01511,-0.02136,-0.01282,0.0,-0.03433,-0.01938,0.01678,-0.11597
8.2245,-0.18143,-0.10391,-0.10101,0.18433,0.00809,-0.22751,-0.02121,-0.00443,-0.01541,-0.01984,-0.01328,0.00443,-0.03342,-0.02167,0.00351,-0.12253
8.225,-0.19196,-0.09491,-0.10361,0.1651,-0.0238,-0.22781,-0.02106,-0.00534,-0.01617,-0.01724,-0.01465,0.01083,-0.03143,-0.02213,-0.01923,-0.12543
8.2255,-0.16647,-0.08438,-0.10956,0.14175,-0.07401,-0.22476,-0.02151,-0.00717,-0.01633,-0.0174,-0.01526,0.01495,-0.02991,-0.01953,-0.04303,-0.08591
8.226,-0.11459,-0.07202,-0.1123,0.16434,-0.11597,-0.22018,-0.02228,-0.00916,-0.01526,-0.01892,-0.01419,0.01328,-0.03082,-0.01694,-0.0621,-0.00565
8.2265,-0.05264,-0.05753,-0.10864,0.21072,-0.13611,-0.21423,-0.02121,-0.00885,-0.01526,-0.02106,-0.01221,0.00687,-0.03128,-0.01709,-0.0679,0.05875
8.227,0.00595,-0.04501,-0.10162,0.21179,-0.1445,-0.20721,-0.01907,-0.00763,-0.01617,-0.02045,-0.01221,0.00153,-0.03128,-0.01862,-0.05859,0.06744
8.2275,0.05539,-0.04028,-0.09735,0.12512,-0.14893,-0.19913,-0.01709,-0.00671,-0.01801,-0.01923,-0.01358,-0.00107,-0.03006,-0.01968,-0.04181,0.04761
8.228,0.08987,-0.04318,-0.09613,-0.01297,-0.13885,-0.19272,-0.01617,-0.00641,-0.01724,-0.01663,-0.01404,0.00046,-0.03006,-0.0209,-0.0238,0.04822
8.2285,0.10986,-0.05066,-0.09247,-0.1265,-0.10132,-0.186,-0.01587,-0.00565,-0.01694,-0.01541,-0.0145,0.00397,-0.03189,-0.01984,-0.01083,0.07172
8.229,0.11749,-0.06165,-0.08545,-0.18707,-0.05234,-0.18036,-0.01419,-0.00504,-0.01724,-0.01633,-0.01404,0.00656,-0.03403,-0.01923,-0.00214,0.0853
8.2295,0.11566,-0.08148,-0.07187,-0.24796,-0.01953,-0.17517,-0.01175,-0.00336,-0.01785,-0.01648,-0.01328,0.00641,-0.03433,-0.01801,0.00397,0.06744
8.23,0.10925,-0.10254,-0.05478,-0.36682,-0.00992,-0.1709,-0.01038,-0.00092,-0.01602,-0.01617,-0.01175,0.0058,-0.03326,-0.01678,0.01007,0.02457
8.2305,0.10345,-0.11154,-0.04074,-0.52933,-0.01205,-0.16388,-0.01038,0.00092,-0.01419,-0.01572,-0.01068,0.00656,-0.03235,-0.01572,0.0209,-0.02029
8.231,0.10117,-0.10223,-0.03815,-0.63141,-0.0148,-0.15503,-0.00961,0.00259,-0.01434,-0.01511,-0.01038,0.00732,-0.03189,-0.0145,0.03082,-0.04456
8.2315,0.0975,-0.08331,-0.04532,-0.56427,-0.01877,-0.14496,-0.00656,0.0029,-0.0148,-0.01541,-0.01328,0.0032,-0.02991,-0.01526,0.03601,-0.03448
8.232,0.08636,-0.06607,-0.05768,-0.31555,-0.02808,-0.13718,-0.00244,0.00259,-0.01541,-0.01617,-0.01617,-0.00488,-0.02869,-0.01694,0.03571,-0.00168
8.2325,0.07233,-0.0528,-0.06622,-0.0058,-0.05173,-0.13,-0.00153,0.00275,-0.0148,-0.01724,-0.01709,-0.01038,-0.02991,-0.01907,0.02808,0.02441
8.233,0.06012,-0.03845,-0.07034,0.21713,-0.08469,-0.12146,-0.00168,0.00214,-0.01495,-0.01862,-0.01556,-0.00778,-0.03204,-0.02075,0.01831,0.02686
8.2335,0.05264,-0.0235,-0.07248,0.29877,-0.10986,-0.11063,-0.0032,0.00122,-0.01556,-0.01785,-0.01465,-0.00076,-0.03372,-0.02121,0.01236,0.00916
8.234,0.047,-0.01251,-0.08072,0.27435,-0.10895,-0.10254,-0.00565,-0.00092,-0.01617,-0.01862,-0.01511,0.00458,-0.03387,-0.02075,0.01099,-0.01144
8.2345,0.03983,-0.00671,-0.09811,0.20874,-0.08392,-0.09476,-0.00824,-0.00351,-0.01633,-0.01923,-0.01694,0.00397,-0.03342,-0.01801,0.00671,-0.02899
8.235,0.02884,-0.00198,-0.11459,0.17105,-0.05066,-0.08484,-0.00977,-0.0061,-0.01572,-0.01968,-0.01709,0.00107,-0.03387,-0.0148,-0.0061,-0.04105
8.2355,0.01282,0.00824,-0.11917,0.2095,-0.01877,-0.07233,-0.00992,-0.00809,-0.01526,-0.01801,-0.01633,0.00015,-0.03464,-0.01266,-0.01999,-0.04089
8.236,-0.00641,0.01648,-0.10803,0.31021,0.00488,-0.05951,-0.00854,-0.00931,-0.01633,-0.01648,-0.01617,0.00183,-0.03357,-0.01404,-0.02213,-0.02151
8.2365,-0.02228,0.00427,-0.08865,0.40604,0.01419,-0.04913,-0.00809,-0.01038,-0.01724,-0.01617,-0.0148,0.00275,-0.03204,-0.0174,-0.00641,0.00885
8.237,-0.03143,-0.03174,-0.07172,0.43701,0.00473,-0.04211,-0.01038,-0.0116,-0.01755,-0.01663,-0.01495,0.00229,-0.03082,-0.02045,0.01221,0.02762
8.2375,-0.03403,-0.06821,-0.05951,0.37949,-0.01083,-0.03708,-0.01404,-0.01251,-0.01785,-0.01938,-0.01389,0.00076,-0.03067,-0.02045,0.02213,0.02243
8.238,-0.03372,-0.07751,-0.05035,0.24673,-0.0209,-0.03159,-0.01648,-0.01129,-0.01785,-0.0209,-0.01511,-0.00092,-0.03006,-0.01923,0.02029,0.00046
8.2385,-0.03204,-0.06042,-0.03906,0.08881,-0.03265,-0.02579,-0.01633,-0.0087,-0.01755,-0.02029,-0.01663,-0.00366,-0.0296,-0.01694,0.01556,-0.01892
8.239,-0.03052,-0.03571,-0.02594,-0.02457,-0.06012,-0.01907,-0.01282,-0.00626,-0.01602,-0.0177,-0.01678,-0.00458,-0.0293,-0.01694,0.01328,-0.02625
8.2395,-0.02945,-0.01709,-0.01511,-0.07263,-0.09979,-0.01114,-0.00931,-0.00473,-0.0148,-0.01694,-0.01495,-0.00015,-0.02914,-0.01648,0.01129,-0.03296
8.24,-0.02975,-0.00183,-0.00748,-0.1062,-0.11841,-0.00183,-0.00809,-0.00366,-0.01602,-0.01663,-0.01221,0.00519,-0.02975,-0.01572,0.00809,-0.05112
8.2405,-0.03052,0.00885,-0.00641,-0.18051,-0.09689,0.00778,-0.00854,-0.00137,-0.01709,-0.0174,-0.01282,0.00443,-0.03082,-0.01587,0.00473,-0.07919
8.241,-0.03006,0.01541,-0.01038,-0.28168,-0.05875,0.01801,-0.009,0.00031,-0.01785,-0.01755,-0.01419,-0.00031,-0.03204,-0.01633,0.00473,-0.09644
8.2415,-0.02701,0.01694,-0.01755,-0.33325,-0.0354,0.02472,-0.00824,0.00137,-0.01755,-0.01602,-0.01404,-0.00412,-0.03189,-0.01678,0.00961,-0.09277
8.242,-0.01846,0.01709,-0.02518,-0.27435,-0.02975,0.02945,-0.00748,0.00153,-0.01678,-0.01663,-0.01389,-0.00412,-0.03082,-0.01648,0.01663,-0.07706
8.2425,-0.00549,0.01251,-0.02853,-0.12375,-0.01938,0.03616,-0.00641,0.00305,-0.01678,-0.01877,-0.01556,-0.00534,-0.03036,-0.01694,0.02136,-0.06699
8.243,0.00977,0.00259,-0.03464,0.05188,0.00046,0.04654,-0.00656,0.00488,-0.01678,-0.01953,-0.01724,-0.00763,-0.03036,-0.01831,0.02411,-0.06287
8.2435,0.03143,-0.00748,-0.04501,0.21774,0.01694,0.05646,-0.00702,0.0061,-0.0177,-0.02151,-0.01709,-0.00885,-0.03067,-0.01892,0.0238,-0.05356
8.244,0.05966,-0.00916,-0.0589,0.37033,0.01785,0.06683,-0.00748,0.00519,-0.01953,-0.01785,-0.01617,-0.00916,-0.03128,-0.01816,0.01923,-0.03799
8.2445,0.08484,-0.00351,-0.07431,0.46249,0.00992,0.07751,-0.00717,0.0032,-0.02045,-0.01923,-0.01434,-0.00656,-0.03204,-0.01938,0.01434,-0.02731
8.245,0.09689,-0.00153,-0.08514,0.41809,0.00137,0.08591,-0.00824,-0.00015,-0.01923,-0.02014,-0.01419,-0.00092,-0.03357,-0.02182,0.01389,-0.03052
8.2455,0.09567,-0.01007,-0.08499,0.24658,-0.00198,0.09079,-0.01038,-0.00214,-0.01785,-0.02121,-0.01495,0.00458,-0.03494,-0.0238,0.01511,-0.03525
8.246,0.08698,-0.02579,-0.06668,0.06897,-0.00854,0.09232,-0.01221,-0.00366,-0.0174,-0.0209,-0.01602,0.00702,-0.03693,-0.02289,0.01846,-0.02686
8.2465,0.07385,-0.03983,-0.03983,-0.00519,-0.01617,0.09293,-0.01297,-0.00427,-0.01801,-0.0206,-0.01755,0.00671,-0.03799,-0.02014,0.01831,-0.01099
8.247,0.05524,-0.04852,-0.02182,0.02045,-0.02655,0.09354,-0.01282,-0.00412,-0.01846,-0.02121,-0.01724,0.00549,-0.03922,-0.01831,0.01617,-0.00595
8.2475,0.03525,-0.04929,-0.01419,0.06088,-0.03723,0.09399,-0.01236,-0.00412,-0.01862,-0.02243,-0.01694,0.00244,-0.03845,-0.01907,0.01007,-0.01892
8.248,0.01755,-0.04562,-0.00916,0.04349,-0.04181,0.09552,-0.01373,-0.00366,-0.01831,-0.02426,-0.0177,0.00137,-0.03677,-0.02106,0.00412,-0.03738
8.2485,0.00198,-0.04166,-0.00244,-0.04333,-0.03311,0.09674,-0.01663,-0.00549,-0.01755,-0.02457,-0.01602,0.00076,-0.03479,-0.02167,0.00259,-0.04791
8.249,-0.01389,-0.04013,0.00565,-0.15335,-0.0119,0.09674,-0.01984,-0.01038,-0.01587,-0.02441,-0.0145,0.00305,-0.03387,-0.02121,0.00977,-0.04898
8.2495,-0.01633,-0.04196,0.01617,-0.21851,0.01205,0.09384,-0.02136,-0.01511,-0.01587,-0.02243,-0.01236,0.00565,-0.03372,-0.0209,0.02151,-0.04517
8.25,0.00153,-0.04517,0.02563,-0.20889,0.02228,0.09125,-0.02182,-0.0174,-0.01678,-0.02121,-0.01282,0.00641,-0.03265,-0.02106,0.02731,-0.04379
8.2505,0.01953,-0.05463,0.02625,-0.15945,0.00748,0.09125,-0.02197,-0.01709,-0.0177,-0.02075,-0.01282,0.00397,-0.03174,-0.02151,0.02457,-0.04715
8.251,0.00916,-0.0708,0.01053,-0.11566,-0.02777,0.09109,-0.01938,-0.01389,-0.01724,-0.02167,-0.01373,0.00214,-0.02975,-0.02213,0.01907,-0.05341
8.2515,-0.02106,-0.08865,-0.01663,-0.08209,-0.06439,0.08957,-0.01556,-0.01099,-0.01572,-0.02243,-0.01205,0.00198,-0.02945,-0.02167,0.01663,-0.05722
8.252,-0.0383,-0.09888,-0.04211,-0.04242,-0.07782,0.08667,-0.01221,-0.00717,-0.01602,-0.02228,-0.01312,0.00122,-0.03113,-0.02106,0.01465,-0.05646
8.2525,-0.02701,-0.10147,-0.05905,-0.00015,-0.06088,0.08606,-0.01175,-0.0058,-0.01694,-0.0209,-0.01526,0.00076,-0.03265,-0.02014,0.01312,-0.05356
8.253,-0.00183,-0.09521,-0.06439,0.03128,-0.02991,0.08743,-0.01282,-0.00519,-0.01724,-0.0209,-0.01602,0.00092,-0.03235,-0.01892,0.01328,-0.05325
8.2535,0.01465,-0.0853,-0.06104,0.03754,0.00214,0.08774,-0.01434,-0.0032,-0.01648,-0.02182,-0.01572,0.0032,-0.03036,-0.01816,0.01755,-0.05661
8.254,0.01602,-0.0766,-0.04913,0.00671,0.02472,0.08499,-0.01526,0.0,-0.01602,-0.02304,-0.01328,0.00488,-0.02991,-0.01785,0.02213,-0.0592
8.2545,0.00732,-0.06973,-0.03433,-0.06287,0.0351,0.08102,-0.01541,0.00214,-0.01633,-0.02319,-0.01358,0.00305,-0.0325,-0.0177,0.02182,-0.06104
8.255,-0.00626,-0.06317,-0.01755,-0.14694,0.03922,0.07721,-0.01373,0.00122,-0.01709,-0.02228,-0.01343,0.00122,-0.03448,-0.01877,0.01862,-0.05981
8.2555,-0.02319,-0.05707,-0.00229,-0.20111,0.03601,0.07492,-0.01022,0.00031,-0.01602,-0.02335,-0.01511,-0.00031,-0.03418,-0.01877,0.01633,-0.05539
8.256,-0.03967,-0.0528,0.00778,-0.18356,0.0174,0.07187,-0.00565,0.00183,-0.0145,-0.02396,-0.01556,-0.00061,-0.0325,-0.01785,0.01541,-0.04974
8.2565,-0.05753,-0.05112,0.01328,-0.09872,-0.01755,0.06607,-0.00366,0.00366,-0.01434,-0.02487,-0.01465,0.00061,-0.03113,-0.01694,0.01572,-0.04517
8.257,-0.08301,-0.05005,0.01251,-0.00854,-0.04837,0.05676,-0.00458,0.00351,-0.01587,-0.02411,-0.01434,0.00275,-0.0322,-0.01816,0.0148,-0.04181
8.2575,-0.12238,-0.04623,0.00809,0.03174,-0.06012,0.04745,-0.00824,0.00137,-0.01663,-0.02228,-0.01526,0.00397,-0.03235,-0.02014,0.01129,-0.03906
8.258,-0.16388,-0.03571,-0.00015,0.03357,-0.05402,0.04059,-0.01389,-0.00198,-0.01617,-0.01984,-0.01617,0.0032,-0.03235,-0.01968,0.00885,-0.03708
8.2585,-0.18234,-0.02365,-0.01038,0.03021,-0.04166,0.03769,-0.01907,-0.00427,-0.01602,-0.01907,-0.01419,0.00031,-0.03189,-0.01755,0.0061,-0.03571
8.259,-0.16006,-0.01556,-0.02213,0.00809,-0.02975,0.03693,-0.02121,-0.00336,-0.01617,-0.02029,-0.01068,-0.00122,-0.0322,-0.0177,0.00443,-0.03616
8.2595,-0.10757,-0.01389,-0.03342,-0.065,-0.02228,0.0351,-0.0177,-0.00046,-0.01602,-0.02075,-0.01144,-0.00092,-0.03189,-0.01923,0.00427,-0.03769
8.26,-0.03876,-0.01694,-0.04166,-0.17639,-0.01999,0.03174,-0.01007,0.00183,-0.01617,-0.0206,-0.01297,0.00092,-0.03128,-0.01984,0.00519,-0.03967
8.2605,0.03525,-0.02075,-0.04257,-0.26459,-0.02365,0.02838,-0.00259,0.00122,-0.01495,-0.02029,-0.01328,0.00412,-0.03021,-0.01953,0.00671,-0.04089
8.261,0.09659,-0.02213,-0.03937,-0.2713,-0.03036,0.0264,0.00137,-0.00198,-0.01358,-0.02029,-0.01251,0.00641,-0.0293,-0.01755,0.00839,-0.04135
8.2615,0.11505,-0.02243,-0.02853,-0.1889,-0.03281,0.02457,0.00092,-0.00397,-0.01343,-0.02197,-0.00992,0.00717,-0.02899,-0.01465,0.00839,-0.04135
8.262,0.08591,-0.02396,-0.01572,-0.0769,-0.02213,0.02289,-0.00198,-0.00488,-0.01404,-0.02167,-0.01068,0.00565,-0.02853,-0.01465,0.00885,-0.04211
8.2625,0.03677,-0.02487,-0.01678,-0.01434,-0.00244,0.02106,-0.00488,-0.0058,-0.0148,-0.02014,-0.01129,0.00458,-0.02777,-0.01602,0.00839,-0.04395
8.263,0.00366,-0.02335,-0.05127,-0.02151,0.02472,0.01923,-0.00732,-0.00687,-0.01602,-0.01755,-0.01144,0.00504,-0.02594,-0.0177,0.0061,-0.04684
8.2635,-0.00183,-0.02167,-0.12833,-0.05417,0.05203,0.01617,-0.01205,-0.00824,-0.01587,-0.01877,-0.0119,0.0058,-0.02533,-0.01846,0.00443,-0.04974
8.264,0.01221,-0.02457,-0.22446,-0.05081,0.07462,0.01312,-0.01663,-0.01068,-0.01526,-0.01984,-0.01068,0.00732,-0.02777,-0.01785,0.00198,-0.05188
8.2645,0.03403,-0.03342,-0.29541,0.03311,0.08759,0.0087,-0.01923,-0.01312,-0.01511,-0.02075,-0.00961,0.00931,-0.03113,-0.01709,-0.00229,-0.05249
8.265,0.05463,-0.04364,-0.3096,0.18036,0.07874,0.00107,-0.0177,-0.01465,-0.01602,-0.02151,-0.01144,0.01129,-0.03387,-0.01663,-0.00214,-0.05493
8.2655,0.06683,-0.05112,-0.26413,0.29694,0.04211,-0.00854,-0.01526,-0.01343,-0.0177,-0.01999,-0.01221,0.01236,-0.03433,-0.01831,0.00305,-0.05875
8.266,0.06622,-0.05615,-0.16983,0.2951,-0.00793,-0.01587,-0.0148,-0.01099,-0.01862,-0.01862,-0.01389,0.01282,-0.03448,-0.01938,0.01053,-0.06195
8.2665,0.05005,-0.05875,-0.047,0.19135,-0.05203,-0.01999,-0.01404,-0.00916,-0.01785,-0.01816,-0.01465,0.01358,-0.03433,-0.02029,0.01343,-0.06119
8.267,0.02197,-0.05615,0.07767,0.07828,-0.09506,-0.02243,-0.01221,-0.00961,-0.01663,-0.01801,-0.01434,0.01434,-0.03418,-0.01968,0.0119,-0.05569
8.2675,-0.01175,-0.04898,0.16647,0.01541,-0.14572,-0.02487,-0.01129,-0.0116,-0.01465,-0.01801,-0.01587,0.01236,-0.03418,-0.01785,0.00854,-0.04791
8.268,-0.04501,-0.03998,0.18738,-0.01068,-0.18021,-0.02899,-0.01251,-0.01587,-0.01419,-0.01816,-0.01572,0.01068,-0.03479,-0.01846,0.00946,-0.04211
8.2685,-0.06943,-0.03235,0.12817,-0.03677,-0.16647,-0.03281,-0.01526,-0.01877,-0.0148,-0.01831,-0.01633,0.00961,-0.03387,-0.02014,0.01068,-0.0386
8.269,-0.07339,-0.02991,0.01923,-0.06592,-0.11368,-0.03662,-0.0174,-0.02029,-0.01541,-0.01801,-0.01648,0.00946,-0.03235,-0.0206,0.01007,-0.03723
8.2695,-0.05417,-0.03708,-0.08224,-0.07919,-0.06668,-0.03784,-0.01633,-0.01877,-0.01602,-0.0177,-0.0148,0.00931,-0.03128,-0.01862,0.00854,-0.03586
8.27,-0.02609,-0.05707,-0.14694,-0.07828,-0.04822,-0.03906,-0.01373,-0.01541,-0.01587,-0.01617,-0.01251,0.00961,-0.03265,-0.0177,0.009,-0.03494
8.2705,-0.00351,-0.0798,-0.16357,-0.08118,-0.04486,-0.04105,-0.01221,-0.01251,-0.01572,-0.01709,-0.01205,0.00931,-0.03525,-0.01923,0.00916,-0.03647
8.271,0.00946,-0.09506,-0.13107,-0.08789,-0.03937,-0.0412,-0.01175,-0.01328,-0.01572,-0.01724,-0.01221,0.00854,-0.03723,-0.02014,0.00916,-0.04044
8.2715,0.01724,-0.09766,-0.04517,-0.08057,-0.03067,-0.03891,-0.0116,-0.01389,-0.01602,-0.01755,-0.0116,0.00885,-0.0351,-0.02075,0.00854,-0.04501
8.272,0.02579,-0.09003,0.06454,-0.0528,-0.02228,-0.03708,-0.01083,-0.01144,-0.01709,-0.01755,-0.01175,0.009,-0.03265,-0.02029,0.00702,-0.04837
8.2725,0.03265,-0.0769,0.15778,-0.02151,-0.01511,-0.03891,-0.01099,-0.00702,-0.0174,-0.02014,-0.01205,0.01007,-0.03052,-0.01953,0.00458,-0.0502
8.273,0.0293,-0.06332,0.20767,-0.0032,-0.00732,-0.04211,-0.0145,-0.00427,-0.0174,-0.02151,-0.0119,0.00977,-0.03036,-0.02014,0.00397,-0.0531
8.2735,0.01389,-0.05417,0.21225,0.00137,0.00107,-0.04562,-0.01572,-0.00412,-0.01648,-0.02289,-0.01068,0.00854,-0.03143,-0.02075,0.00473,-0.06073
8.274,-0.00336,-0.04822,0.18539,0.00092,0.0087,-0.04837,-0.01419,-0.00534,-0.01602,-0.02243,-0.01083,0.00671,-0.03189,-0.02182,0.00458,-0.06699
8.2745,-0.01068,-0.0444,0.14496,-0.00153,0.01205,-0.05051,-0.0119,-0.00534,-0.01526,-0.02258,-0.01205,0.0058,-0.03342,-0.02106,0.00275,-0.06241
8.275,-0.00732,-0.04272,0.10361,-0.00488,0.0087,-0.05417,-0.01205,-0.00473,-0.01511,-0.02228,-0.0148,0.00519,-0.03464,-0.02075,0.00244,-0.05127
8.2755,0.00488,-0.04349,0.065,-0.00671,0.00122,-0.05997,-0.01602,-0.00488,-0.0145,-0.02258,-0.01526,0.00504,-0.03555,-0.0206,0.00244,-0.0441
8.276,0.02747,-0.04395,0.03143,-0.00366,-0.00748,-0.06744,-0.01892,-0.00656,-0.0145,-0.02304,-0.01572,0.00565,-0.03357,-0.02106,0.00107,-0.04349
8.2765,0.05829,-0.04227,0.00534,-0.00168,-0.01526,-0.0737,-0.01801,-0.00763,-0.01541,-0.02396,-0.01602,0.00717,-0.03296,-0.02075,-0.00153,-0.04257
8.277,0.08774,-0.03998,-0.0087,-0.01907,-0.02487,-0.07614,-0.01541,-0.00687,-0.01678,-0.02563,-0.0177,0.00824,-0.03281,-0.02014,-0.00366,-0.03891
8.2775,0.09705,-0.04059,-0.01465,-0.07172,-0.04242,-0.07721,-0.01495,-0.00443,-0.01724,-0.02594,-0.01999,0.009,-0.03372,-0.01984,-0.00259,-0.03494
8.278,0.08011,-0.0444,-0.02243,-0.14465,-0.06607,-0.08072,-0.01297,-0.00259,-0.01755,-0.02548,-0.02106,0.00717,-0.0354,-0.01999,0.00092,-0.0325
8.2785,0.04623,-0.04715,-0.03586,-0.20554,-0.07919,-0.08713,-0.01099,-0.00275,-0.01724,-0.02502,-0.01816,0.00626,-0.03891,-0.02045,0.00259,-0.0322
8.279,0.00473,-0.04456,-0.0531,-0.22858,-0.07141,-0.09293,-0.00961,-0.00305,-0.01633,-0.02411,-0.01724,0.0058,-0.04181,-0.01999,0.00107,-0.03189
8.2795,-0.04074,-0.03952,-0.06851,-0.21103,-0.04745,-0.09613,-0.01099,-0.0058,-0.0148,-0.02274,-0.01755,0.00671,-0.04181,-0.01862,0.00031,-0.03128
8.28,-0.07919,-0.03525,-0.07904,-0.15808,-0.03052,-0.0975,-0.01266,-0.00916,-0.0145,-0.02106,-0.01785,0.00656,-0.03937,-0.01663,0.0,-0.03052
8.2805,-0.09308,-0.03311,-0.08957,-0.06897,-0.02838,-0.10208,-0.01297,-0.01083,-0.01556,-0.02045,-0.01678,0.00504,-0.03647,-0.01541,0.00076,-0.03128
8.281,-0.07965,-0.03265,-0.1059,0.05234,-0.03342,-0.10727,-0.01282,-0.009,-0.01678,-0.02106,-0.01373,0.00259,-0.03494,-0.01526,0.00214,-0.03403
8.2815,-0.05402,-0.03326,-0.12772,0.17654,-0.03418,-0.11017,-0.01419,-0.00397,-0.0174,-0.02243,-0.01297,0.00214,-0.03372,-0.01801,0.00168,-0.03952
8.282,-0.02731,-0.03845,-0.14786,0.25314,-0.0322,-0.10971,-0.0177,0.00153,-0.01724,-0.0209,-0.01282,0.00366,-0.03128,-0.02014,0.00076,-0.04547
8.2825,0.00275,-0.04929,-0.16693,0.24872,-0.03189,-0.10757,-0.02457,0.00443,-0.01678,-0.02045,-0.01312,0.00397,-0.02838,-0.02182,0.00015,-0.05142
8.283,0.0322,-0.06058,-0.19592,0.17883,-0.03632,-0.10727,-0.02945,0.00595,-0.01633,-0.01938,-0.01312,0.00381,-0.02701,-0.02258,0.00137,-0.05585
8.2835,0.0415,-0.0618,-0.24017,0.08804,-0.03784,-0.11032,-0.02975,0.00717,-0.0174,-0.01816,-0.01251,0.00275,-0.02747,-0.02197,0.00122,-0.06042
8.284,0.02075,-0.05264,-0.28381,0.00626,-0.03632,-0.11627,-0.02472,0.00793,-0.01846,-0.01724,-0.01251,0.00107,-0.02975,-0.02151,0.00076,-0.06454
8.2845,-0.01312,-0.04059,-0.30243,-0.05997,-0.03387,-0.11963,-0.01831,0.0087,-0.01846,-0.01678,-0.01343,0.0,-0.03204,-0.02121,0.00107,-0.06638
8.285,-0.03586,-0.03036,-0.28259,-0.10284,-0.03372,-0.11887,-0.01434,0.00854,-0.0174,-0.01801,-0.01465,0.00244,-0.03296,-0.02106,-0.00015,-0.06042
8.2855,-0.04318,-0.0209,-0.22766,-0.1088,-0.0354,-0.11703,-0.0145,0.00916,-0.01816,-0.01907,-0.0148,0.00259,-0.03204,-0.0206,-0.00061,-0.04883
8.286,-0.04578,-0.01175,-0.14069,-0.07629,-0.03525,-0.11734,-0.01541,0.00931,-0.01999,-0.02121,-0.01419,0.00214,-0.02914,-0.01938,-0.00076,-0.0386
8.2865,-0.0528,-0.00778,-0.02853,-0.01999,-0.03403,-0.12207,-0.01663,0.0087,-0.02182,-0.02121,-0.01266,0.00137,-0.02731,-0.01846,0.0,-0.0354
8.287,-0.06393,-0.01053,0.09277,0.04501,-0.03357,-0.1265,-0.0174,0.00595,-0.02182,-0.0206,-0.01221,-0.00015,-0.02731,-0.01724,0.00031,-0.03555
8.2875,-0.07355,-0.01404,0.19394,0.10101,-0.03326,-0.12924,-0.01892,0.00366,-0.0209,-0.0206,-0.01236,0.0,-0.02869,-0.01648,-0.00031,-0.03479
8.288,-0.07568,-0.0145,0.25421,0.12283,-0.03525,-0.12985,-0.02121,0.00183,-0.01999,-0.0209,-0.01389,-0.00122,-0.02975,-0.01678,-0.00015,-0.02899
8.2885,-0.07126,-0.01999,0.26993,0.09918,-0.03616,-0.12894,-0.02441,0.0,-0.02014,-0.02075,-0.0145,-0.00153,-0.03021,-0.01923,-0.00015,-0.02411
8.289,-0.05707,-0.03479,0.2533,0.05371,-0.03571,-0.12726,-0.02777,-0.00122,-0.02106,-0.02182,-0.01511,-0.00214,-0.0322,-0.02121,-0.00122,-0.02319
8.2895,-0.03433,-0.05173,0.21866,0.02335,-0.03357,-0.12436,-0.02686,0.00107,-0.0206,-0.02106,-0.01419,-0.00214,-0.03326,-0.02258,-0.00198,-0.02747
8.29,-0.00809,-0.05478,0.17288,0.01663,-0.0322,-0.12009,-0.02396,0.00732,-0.01999,-0.01999,-0.01266,-0.00275,-0.03403,-0.02029,-0.00061,-0.03616
8.2905,0.01129,-0.0412,0.1239,0.01709,-0.03235,-0.1149,-0.02289,0.01328,-0.01862,-0.01923,-0.01282,-0.00275,-0.03433,-0.01785,0.00168,-0.0441
8.291,0.01617,-0.02319,0.07248,0.01663,-0.03387,-0.11032,-0.02243,0.01602,-0.01816,-0.01938,-0.01389,-0.00351,-0.03662,-0.01755,0.0029,-0.05112
8.2915,0.00748,-0.01419,0.01968,0.01907,-0.03403,-0.11078,-0.02213,0.01648,-0.01801,-0.01953,-0.01343,-0.00259,-0.03647,-0.01999,0.00198,-0.05936
8.292,-0.00458,-0.01495,-0.03754,0.03052,-0.03464,-0.11337,-0.0209,0.01556,-0.01862,-0.0206,-0.01144,-0.00122,-0.03403,-0.02167,0.00214,-0.07217
8.2925,-0.01144,-0.02106,-0.10803,0.04944,-0.03571,-0.11429,-0.01907,0.01297,-0.01846,-0.0209,-0.00931,-0.00076,-0.03235,-0.0209,0.00183,-0.08453
8.293,-0.0145,-0.02975,-0.18509,0.07263,-0.03662,-0.112,-0.01755,0.00946,-0.01678,-0.0206,-0.01007,-0.00214,-0.03265,-0.01877,0.00168,-0.09125
8.2935,-0.02106,-0.0383,-0.25345,0.10101,-0.03616,-0.1059,-0.01648,0.00748,-0.01495,-0.0206,-0.01236,-0.00381,-0.03342,-0.01846,0.00275,-0.09064
8.294,-0.03052,-0.04532,-0.29755,0.13168,-0.0351,-0.10223,-0.01556,0.00839,-0.01511,-0.01801,-0.01343,-0.00473,-0.03189,-0.01953,0.00443,-0.08636
8.2945,-0.0383,-0.05066,-0.30838,0.15335,-0.03326,-0.10284,-0.01465,0.00931,-0.01556,-0.01724,-0.0148,-0.00412,-0.03021,-0.02151,0.00671,-0.08011
8.295,-0.03952,-0.0563,-0.27802,0.15091,-0.03281,-0.10452,-0.01541,0.00793,-0.01724,-0.01755,-0.01541,-0.00244,-0.02975,-0.02121,0.00916,-0.07141
8.2955,-0.03571,-0.05768,-0.19928,0.10941,-0.03418,-0.10315,-0.01617,0.00397,-0.01755,-0.01724,-0.01556,0.0,-0.03098,-0.01862,0.00992,-0.05661
8.296,-0.03113,-0.05417,-0.08331,0.02472,-0.03555,-0.09964,-0.01694,0.00153,-0.0177,-0.01816,-0.01526,0.00244,-0.03174,-0.01587,0.00824,-0.03952
8.2965,-0.02502,-0.05035,0.03769,-0.08102,-0.03937,-0.09628,-0.0177,0.00076,-0.01785,-0.01907,-0.01602,0.00198,-0.03036,-0.01373,0.00259,-0.02731
8.297,-0.0206,-0.04913,0.12589,-0.16953,-0.04105,-0.09491,-0.0174,0.00259,-0.01724,-0.01984,-0.01663,-0.00046,-0.0293,-0.01419,-0.00259,-0.01602
8.2975,-0.01694,-0.04913,0.16083,-0.21637,-0.04196,-0.09399,-0.01633,0.00305,-0.0174,-0.01923,-0.01755,-0.00336,-0.03052,-0.01511,-0.00687,0.0032
8.298,-0.00931,-0.04929,0.15305,-0.22552,-0.04242,-0.08987,-0.01526,0.00229,-0.01633,-0.01755,-0.01724,-0.00427,-0.03082,-0.01511,-0.00778,0.02655
8.2985,0.00305,-0.05371,0.12589,-0.20523,-0.04227,-0.08301,-0.0145,0.00092,-0.01556,-0.01617,-0.01572,-0.00381,-0.03067,-0.01526,-0.00504,0.03098
8.299,0.01907,-0.05936,0.0972,-0.15961,-0.04074,-0.07721,-0.01297,0.00107,-0.01373,-0.0148,-0.01389,-0.0029,-0.03021,-0.01465,0.00122,0.00458
8.2995,0.02777,-0.05341,0.07309,-0.09628,-0.0386,-0.07385,-0.01007,0.00381,-0.01144,-0.01511,-0.01419,-0.00214,-0.03021,-0.01526,0.00687,-0.03052
8.3,0.02808,-0.03479,0.04593,-0.04105,-0.0351,-0.0708,-0.00854,0.00717,-0.01022,-0.0145,-0.01572,-0.00107,-0.02914,-0.01648,0.00763,-0.04532
8.3005,0.02533,-0.01114,0.01221,-0.03906,-0.03464,-0.06668,-0.00885,0.00717,-0.00992,-0.01343,-0.01877,0.00046,-0.02731,-0.01709,0.00809,-0.03952
8.301,0.02197,0.00687,-0.02518,-0.11612,-0.03632,-0.0621,-0.01083,0.00275,-0.01144,-0.01083,-0.0235,0.00168,-0.02686,-0.01892,0.00809,-0.02731
8.3015,0.01846,0.0174,-0.05768,-0.23468,-0.03784,-0.0589,-0.01328,-0.0032,-0.01312,-0.00977,-0.02884,0.00168,-0.02792,-0.02121,0.01007,-0.0174
8.302,0.01144,0.01953,-0.07919,-0.31616,-0.03906,-0.05722,-0.01343,-0.00717,-0.01587,-0.0087,-0.03616,0.00076,-0.02884,-0.02365,0.01221,-0.01282
8.3025,0.00107,0.01312,-0.09323,-0.33295,-0.03891,-0.05661,-0.01282,-0.00824,-0.01801,-0.00931,-0.0444,0.00031,-0.02899,-0.02731,0.01266,-0.02213
8.303,-0.00763,-0.00046,-0.10025,-0.35294,-0.0383,-0.05341,-0.01328,-0.00671,-0.01984,-0.01114,-0.04807,0.00031,-0.02884,-0.03433,0.01175,-0.04608
8.3035,-0.01373,-0.01801,-0.10452,-0.44647,-0.0383,-0.04929,-0.01251,-0.0058,-0.02014,-0.01129,-0.04395,0.0,-0.02838,-0.03998,0.01007,-0.06638
8.304,-0.02304,-0.03281,-0.10864,-0.56305,-0.03937,-0.04425,-0.01175,-0.00702,-0.01862,-0.01114,-0.0325,-0.00214,-0.02747,-0.03876,0.01053,-0.06927
8.3045,-0.03479,-0.04272,-0.11246,-0.55298,-0.04242,-0.0415,-0.01068,-0.009,-0.01617,-0.00977,-0.01572,-0.00351,-0.02792,-0.03067,0.01144,-0.06348
8.305,-0.04517,-0.04868,-0.11078,-0.34149,-0.04517,-0.03983,-0.0119,-0.00793,-0.01404,-0.00992,0.00122,-0.00427,-0.0296,-0.02258,0.00946,-0.06241
8.3055,-0.04303,-0.05203,-0.09918,-0.01831,-0.04532,-0.03922,-0.01282,-0.00534,-0.01389,-0.01007,0.01297,-0.00671,-0.03098,-0.01923,0.00198,-0.06073
8.306,-0.03082,-0.05173,-0.07782,0.26703,-0.04272,-0.03799,-0.01099,-0.0029,-0.01358,-0.00961,0.0174,-0.00854,-0.03113,-0.01846,-0.00259,-0.05478
8.3065,-0.01694,-0.0502,-0.05753,0.45273,-0.0386,-0.03525,-0.00778,-0.00275,-0.01266,-0.00793,0.01755,-0.00946,-0.03128,-0.0174,-0.00351,-0.04517
8.307,-0.01083,-0.05157,-0.04745,0.53864,-0.03708,-0.03265,-0.00534,-0.00381,-0.01053,-0.00565,0.01526,-0.00931,-0.02975,-0.01724,0.00351,-0.04044
8.3075,-0.01434,-0.05661,-0.04425,0.48462,-0.03693,-0.03204,-0.0061,-0.00458,-0.00931,-0.00748,0.0116,-0.01007,-0.03021,-0.01877,0.00977,-0.04013
8.308,-0.02289,-0.05997,-0.0386,0.28137,-0.03769,-0.03204,-0.00839,-0.00488,-0.00809,-0.01114,0.00839,-0.01175,-0.03128,-0.02075,0.01083,-0.04242
8.3085,-0.02792,-0.06027,-0.02975,0.06805,-0.03647,-0.03098,-0.01022,-0.0058,-0.00748,-0.01251,0.00427,-0.01282,-0.03372,-0.02228,0.01022,-0.04745
8.309,-0.02487,-0.05859,-0.02441,0.01266,-0.03601,-0.02838,-0.01144,-0.00717,-0.00763,-0.01282,0.00092,-0.01221,-0.03571,-0.02319,0.00839,-0.056
8.3095,-0.01816,-0.05646,-0.02945,0.09048,-0.03799,-0.0267,-0.01266,-0.01022,-0.00809,-0.01099,-0.00244,-0.01114,-0.03677,-0.02151,0.00931,-0.05783
8.31,-0.00687,-0.05295,-0.04242,0.14862,-0.03998,-0.02884,-0.01633,-0.01343,-0.00732,-0.009,-0.00458,-0.01068,-0.03647,-0.01877,0.01129,-0.04303
8.3105,0.00778,-0.05127,-0.0531,0.13092,-0.04105,-0.03265,-0.02045,-0.01709,-0.00656,-0.00824,-0.00687,-0.01236,-0.03555,-0.01831,0.01343,-0.01556
8.311,0.0267,-0.05463,-0.05447,0.10101,-0.03998,-0.03342,-0.02258,-0.01984,-0.0058,-0.00793,-0.00931,-0.01434,-0.03632,-0.01953,0.01312,-0.00259
8.3115,0.04791,-0.05844,-0.04745,0.10284,-0.03616,-0.02823,-0.01984,-0.02029,-0.0058,-0.00992,-0.01129,-0.01404,-0.03647,-0.02121,0.009,-0.02045
8.312,0.06165,-0.05707,-0.03723,0.11917,-0.03372,-0.02365,-0.01465,-0.01602,-0.00656,-0.00946,-0.01282,-0.01221,-0.03525,-0.02014,0.00351,-0.0531
8.3125,0.05341,-0.05081,-0.03372,0.12711,-0.03174,-0.02457,-0.00977,-0.01068,-0.00763,-0.00809,-0.01633,-0.01099,-0.03464,-0.0174,0.00061,-0.06699
8.313,0.02716,-0.0444,-0.0354,0.12924,-0.03326,-0.02914,-0.00824,-0.00595,-0.00931,-0.00946,-0.01968,-0.01144,-0.03616,-0.01709,0.00168,-0.06012
8.3135,0.00137,-0.03876,-0.04196,0.13077,-0.03235,-0.03174,-0.00824,-0.00702,-0.01328,-0.00656,-0.02197,-0.01312,-0.03723,-0.01862,0.00534,-0.05508
8.314,-0.00809,-0.03174,-0.05127,0.12878,-0.03098,-0.03143,-0.00992,-0.01312,-0.01801,-0.00671,-0.02075,-0.0145,-0.03571,-0.01907,0.00732,-0.06317
8.3145,-0.00504,-0.02563,-0.05905,0.11826,-0.0296,-0.03021,-0.0119,-0.01999,-0.02243,-0.00458,-0.01785,-0.01389,-0.03342,-0.01694,0.0087,-0.07202
8.315,-0.00061,-0.02411,-0.06226,0.09888,-0.03021,-0.02884,-0.01511,-0.02243,-0.02548,-0.00381,-0.01633,-0.01343,-0.03372,-0.01602,0.00885,-0.06714
8.3155,-0.0029,-0.02518,-0.06073,0.07126,-0.02991,-0.02762,-0.01755,-0.02319,-0.02777,-0.00504,-0.01816,-0.01389,-0.03494,-0.01755,0.00839,-0.05142
8.316,-0.00656,-0.02365,-0.06104,0.03937,-0.02838,-0.0264,-0.01709,-0.0238,-0.02808,-0.00946,-0.02014,-0.01526,-0.03479,-0.02075,0.00687,-0.04074
8.3165,-0.01022,-0.02014,-0.06363,0.01007,-0.02686,-0.02701,-0.01587,-0.02457,-0.02777,-0.01205,-0.02045,-0.01511,-0.03342,-0.0206,0.00626,-0.04425
8.317,-0.01083,-0.01801,-0.06607,-0.00778,-0.02731,-0.0322,-0.01587,-0.02548,-0.02747,-0.01404,-0.02213,-0.01373,-0.03265,-0.01862,0.00626,-0.05661
8.3175,-0.00839,-0.01694,-0.06485,-0.01099,-0.02899,-0.04013,-0.01602,-0.02792,-0.02731,-0.01465,-0.02365,-0.01312,-0.03326,-0.01633,0.00626,-0.06271
8.318,-0.00168,-0.01678,-0.06165,-0.00381,-0.03098,-0.047,-0.01633,-0.03235,-0.02747,-0.01266,-0.02487,-0.01312,-0.03632,-0.0145,0.00519,-0.05737
8.3185,0.00641,-0.01907,-0.05905,-0.00076,-0.03204,-0.05051,-0.01709,-0.0354,-0.02548,-0.01404,-0.02609,-0.01556,-0.03845,-0.01526,0.00534,-0.04532
8.319,0.01205,-0.02441,-0.05539,-0.01236,-0.03265,-0.05341,-0.01709,-0.03387,-0.02045,-0.01434,-0.02609,-0.01785,-0.03937,-0.01892,0.00687,-0.03769
8.3195,0.01434,-0.03448,-0.05096,-0.0412,-0.03586,-0.05829,-0.01633,-0.02762,-0.01541,-0.01404,-0.02487,-0.01938,-0.03845,-0.02136,0.00839,-0.03845
8.32,0.01541,-0.04471,-0.04883,-0.09125,-0.04028,-0.06088,-0.01297,-0.02045,-0.01221,-0.01404,-0.02243,-0.01785,-0.03601,-0.01938,0.00977,-0.04257
8.3205,0.01663,-0.05142,-0.05508,-0.15594,-0.04425,-0.05859,-0.01099,-0.01511,-0.01068,-0.01312,-0.02045,-0.0145,-0.03418,-0.01709,0.00931,-0.04547
8.321,0.01648,-0.05493,-0.06882,-0.20996,-0.04318,-0.05508,-0.0116,-0.01343,-0.01053,-0.01099,-0.01938,-0.01205,-0.03418,-0.01724,0.01007,-0.04501
8.3215,0.01785,-0.05707,-0.08575,-0.2243,-0.03937,-0.05447,-0.01373,-0.01419,-0.01038,-0.01022,-0.01877,-0.01114,-0.0351,-0.01907,0.00961,-0.04562
8.322,0.01862,-0.05844,-0.10147,-0.19073,-0.03708,-0.05676,-0.01511,-0.01495,-0.01053,-0.00824,-0.01831,-0.01175,-0.03479,-0.01892,0.00946,-0.04654
8.3225,0.0177,-0.05615,-0.11185,-0.11993,-0.03662,-0.05875,-0.01556,-0.01266,-0.01144,-0.00992,-0.01633,-0.01068,-0.03403,-0.01694,0.00854,-0.04715
8.323,0.01312,-0.05173,-0.11032,-0.02167,-0.03906,-0.05768,-0.01434,-0.00702,-0.0119,-0.01007,-0.01495,-0.0087,-0.0325,-0.01587,0.00946,-0.0473
8.3235,0.00778,-0.04791,-0.09521,0.08621,-0.03876,-0.05295,-0.01343,-0.00137,-0.0119,-0.00916,-0.01511,-0.00702,-0.03204,-0.01709,0.01022,-0.04623
8.324,0.00427,-0.04913,-0.06027,0.17319,-0.03632,-0.05081,-0.01282,0.00198,-0.01099,-0.01175,-0.01663,-0.00748,-0.03296,-0.02029,0.00961,-0.04349
8.3245,0.00259,-0.05386,-0.01938,0.20844,-0.03342,-0.05341,-0.01312,0.00305,-0.01114,-0.01343,-0.01801,-0.00916,-0.03555,-0.02213,0.00931,-0.03906
8.325,-0.00046,-0.05569,0.00259,0.18906,-0.03098,-0.05737,-0.01282,0.00336,-0.01144,-0.01602,-0.02014,-0.01083,-0.03693,-0.02197,0.00717,-0.0354
8.3255,-0.00534,-0.05066,-0.01266,0.14877,-0.02991,-0.06119,-0.01068,0.00519,-0.01068,-0.01617,-0.02106,-0.01251,-0.03677,-0.0209,0.00687,-0.03616
8.326,-0.01328,-0.04364,-0.05539,0.12558,-0.03098,-0.0647,-0.00977,0.00793,-0.01038,-0.0174,-0.01999,-0.01297,-0.03586,-0.01953,0.00763,-0.03525
8.3265,-0.02243,-0.03998,-0.10391,0.1297,-0.03296,-0.06683,-0.01114,0.00824,-0.01022,-0.01541,-0.01785,-0.01114,-0.03448,-0.0177,0.00854,-0.03555
8.327,-0.03036,-0.04059,-0.14374,0.14053,-0.0354,-0.06805,-0.01419,0.00366,-0.01038,-0.01556,-0.0174,-0.00793,-0.03555,-0.01724,0.00793,-0.03601
8.3275,-0.03433,-0.04318,-0.16891,0.13153,-0.03662,-0.0676,-0.01526,-0.00549,-0.00961,-0.01602,-0.01587,-0.00641,-0.03616,-0.01862,0.0087,-0.03799
8.328,-0.03616,-0.04425,-0.16373,0.09171,-0.03723,-0.06851,-0.01602,-0.01251,-0.00977,-0.01312,-0.01617,-0.00732,-0.03662,-0.01953,0.01007,-0.04181
8.3285,-0.03769,-0.04608,-0.10971,0.03281,-0.0354,-0.0676,-0.01587,-0.01511,-0.01068,-0.0148,-0.0174,-0.009,-0.03601,-0.02045,0.01114,-0.0444
8.329,-0.03784,-0.04822,-0.00793,-0.03204,-0.03586,-0.06348,-0.01617,-0.01434,-0.0116,-0.0145,-0.01709,-0.01236,-0.03403,-0.02106,0.00946,-0.04913
8.3295,-0.03403,-0.05234,0.11505,-0.09842,-0.03601,-0.05814,-0.01633,-0.0148,-0.01175,-0.0119,-0.01678,-0.01373,-0.03281,-0.02014,0.00916,-0.06073
8.33,-0.0296,-0.056,0.21896,-0.16342,-0.03815,-0.056,-0.01648,-0.01465,-0.01022,-0.01053,-0.01648,-0.01358,-0.03174,-0.01846,0.009,-0.08011
8.3305,-0.02884,-0.05829,0.27802,-0.22018,-0.03784,-0.05661,-0.01587,-0.01358,-0.00961,-0.00885,-0.01724,-0.01221,-0.03204,-0.01724,0.01053,-0.09476
8.331,-0.03067,-0.0589,0.28671,-0.25665,-0.03265,-0.05783,-0.01587,-0.01038,-0.01022,-0.00992,-0.01587,-0.01251,-0.03235,-0.01801,0.01022,-0.0882
8.3315,-0.03021,-0.06058,0.25925,-0.26016,-0.02823,-0.05844,-0.01328,-0.00443,-0.01175,-0.00992,-0.01389,-0.01465,-0.0325,-0.01938,0.01022,-0.0647
8.332,-0.02716,-0.06149,0.20844,-0.22354,-0.02441,-0.05753,-0.01068,-0.00153,-0.01236,-0.00916,-0.01312,-0.01938,-0.03296,-0.01999,0.00992,-0.04333
8.3325,-0.02213,-0.05707,0.1503,-0.15152,-0.02075,-0.05875,-0.01099,-0.00397,-0.01221,-0.01251,-0.0145,-0.0209,-0.03281,-0.01907,0.00946,-0.03616
8.333,-0.01389,-0.04807,0.09598,-0.06744,-0.01602,-0.05966,-0.01511,-0.00931,-0.01266,-0.01266,-0.01541,-0.01648,-0.03113,-0.01801,0.009,-0.0383
8.3335,-0.00046,-0.04105,0.05127,-0.01053,-0.01251,-0.05814,-0.01907,-0.01465,-0.01312,-0.01236,-0.01541,-0.01068,-0.02838,-0.01633,0.00839,-0.04089
8.334,0.01663,-0.04105,0.0148,-0.00427,-0.01068,-0.05615,-0.01999,-0.0177,-0.01343,-0.01297,-0.01358,-0.00565,-0.02655,-0.01587,0.00732,-0.04166
8.3345,0.02609,-0.04608,-0.01801,-0.03738,-0.00946,-0.05692,-0.01755,-0.01953,-0.01343,-0.01343,-0.01099,-0.00275,-0.02609,-0.01572,0.00671,-0.04349
8.335,0.02243,-0.05051,-0.04822,-0.07904,-0.009,-0.05814,-0.01572,-0.02045,-0.01266,-0.01541,-0.0119,-0.00168,-0.02686,-0.01617,0.00809,-0.04349
8.3355,0.00931,-0.05051,-0.07339,-0.10269,-0.0148,-0.05768,-0.01816,-0.02014,-0.01282,-0.0148,-0.01495,-0.0029,-0.0264,-0.01556,0.00793,-0.03952
8.336,-0.00122,-0.0473,-0.09003,-0.09552,-0.03128,-0.05539,-0.02151,-0.01877,-0.01282,-0.01266,-0.01572,-0.00671,-0.02579,-0.01587,0.00763,-0.03464
8.3365,-0.00549,-0.04211,-0.0972,-0.06363,-0.05493,-0.05386,-0.02167,-0.01709,-0.01328,-0.01068,-0.01465,-0.01022,-0.02548,-0.01694,0.00626,-0.03143
8.337,-0.00259,-0.03494,-0.09552,-0.02487,-0.0705,-0.0531,-0.01617,-0.0174,-0.01297,-0.01114,-0.01221,-0.01373,-0.02502,-0.01678,0.00458,-0.03067
8.3375,0.00076,-0.0322,-0.09079,0.00839,-0.06882,-0.05142,-0.00839,-0.01663,-0.01312,-0.01251,-0.01144,-0.01678,-0.02533,-0.01495,0.00534,-0.02914
8.338,0.00443,-0.03403,-0.08194,0.03052,-0.05585,-0.05066,-0.00244,-0.01282,-0.01312,-0.01251,-0.01007,-0.01633,-0.02518,-0.01434,0.00885,-0.02686
8.3385,0.00671,-0.03525,-0.07156,0.03738,-0.0444,-0.04898,0.00092,-0.00641,-0.01434,-0.01068,-0.01205,-0.01282,-0.02472,-0.01541,0.00763,-0.02579
8.339,0.00656,-0.03159,-0.06302,0.03204,-0.03601,-0.04578,0.00198,-0.00183,-0.01541,-0.00885,-0.01358,-0.00778,-0.02365,-0.01648,0.00473,-0.02762
8.3395,-0.00259,-0.02747,-0.06104,0.02701,-0.02716,-0.04288,-0.00092,0.0,-0.01556,-0.00839,-0.01389,-0.0058,-0.02228,-0.01678,0.00412,-0.0325
8.34,-0.02747,-0.02899,-0.06775,0.03143,-0.01801,-0.04044,-0.00626,0.00076,-0.01526,-0.01068,-0.01297,-0.01007,-0.02106,-0.01633,0.0058,-0.03662
8.3405,-0.06363,-0.03418,-0.08057,0.03693,-0.01099,-0.03952,-0.01114,0.00397,-0.0145,-0.01297,-0.01221,-0.01663,-0.02121,-0.01541,0.00687,-0.04272
8.341,-0.09537,-0.03479,-0.09613,0.03021,-0.00702,-0.03769,-0.01297,0.00778,-0.01495,-0.01419,-0.01175,-0.02121,-0.02121,-0.01663,0.00809,-0.05646
8.3415,-0.10941,-0.03159,-0.10727,0.01389,-0.00549,-0.03647,-0.01526,0.01083,-0.01541,-0.01373,-0.01114,-0.02136,-0.02136,-0.01846,0.00748,-0.07813
8.342,-0.10574,-0.03052,-0.1062,-0.00244,-0.00702,-0.03326,-0.01862,0.01083,-0.01526,-0.01343,-0.01053,-0.01968,-0.02274,-0.01938,0.00641,-0.09552
8.3425,-0.08987,-0.03281,-0.09674,-0.01556,-0.00916,-0.03098,-0.02213,0.00687,-0.01465,-0.01419,-0.01144,-0.02182,-0.02365,-0.01892,0.00244,-0.09125
8.343,-0.06119,-0.03418,-0.08331,-0.03296,-0.01694,-0.02884,-0.02182,-0.00076,-0.01526,-0.01358,-0.0119,-0.03006,-0.0235,-0.0177,0.00122,-0.06775
8.3435,-0.02136,-0.03036,-0.07614,-0.05234,-0.03113,-0.0264,-0.01923,-0.01312,-0.01694,-0.01328,-0.01175,-0.04105,-0.02304,-0.01709,0.00015,-0.04501
8.344,0.02136,-0.02441,-0.0766,-0.06393,-0.05081,-0.02655,-0.01617,-0.03296,-0.0177,-0.01526,-0.01068,-0.04654,-0.02304,-0.01648,-0.00031,-0.03723
8.3445,0.05127,-0.0206,-0.07889,-0.06149,-0.06332,-0.02762,-0.01419,-0.06699,-0.01617,-0.01389,-0.00961,-0.04105,-0.0235,-0.01694,-0.00046,-0.03983
8.345,0.06149,-0.02472,-0.0795,-0.05112,-0.06302,-0.02884,-0.01389,-0.10437,-0.0148,-0.01587,-0.01053,-0.02716,-0.02426,-0.0174,-0.00122,-0.04074
8.3455,0.05615,-0.0354,-0.07965,-0.03983,-0.05478,-0.02808,-0.01526,-0.10406,-0.01511,-0.01724,-0.01282,-0.0116,-0.02609,-0.01785,0.00076,-0.03555
8.346,0.04562,-0.04822,-0.08179,-0.02548,-0.04929,-0.0267,-0.01663,-0.03311,-0.01694,-0.01923,-0.01434,0.00259,-0.02716,-0.0177,0.00458,-0.02838
8.3465,0.0354,-0.05844,-0.08102,-0.00595,-0.04608,-0.0264,-0.01724,0.07156,-0.01785,-0.02151,-0.01404,0.01465,-0.02777,-0.0177,0.00687,-0.02548
8.347,0.02701,-0.06439,-0.07309,0.01541,-0.03998,-0.02548,-0.01694,0.13016,-0.01678,-0.0209,-0.01297,0.02579,-0.02731,-0.01892,0.00687,-0.02762
8.3475,0.01205,-0.06607,-0.05539,0.0267,-0.03098,-0.02457,-0.01526,0.11246,-0.01602,-0.01938,-0.01205,0.03403,-0.0267,-0.02014,0.00443,-0.02914
8.348,-0.0145,-0.06424,-0.03799,0.02335,-0.02335,-0.02426,-0.01221,0.06363,-0.01663,-0.01846,-0.01175,0.03647,-0.02594,-0.01984,0.00168,-0.02991
8.3485,-0.0412,-0.06012,-0.0235,0.01602,-0.01923,-0.02472,-0.00839,0.03708,-0.01862,-0.01648,-0.01175,0.03006,-0.02731,-0.01999,0.00183,-0.02899
8.349,-0.05478,-0.05463,-0.00458,0.01694,-0.01266,-0.02365,-0.0029,0.03403,-0.01816,-0.01495,-0.01297,0.01328,-0.03006,-0.02075,0.00244,-0.03021
8.3495,-0.05127,-0.04684,0.02518,0.0238,-0.00427,-0.02228,0.00015,0.03265,-0.01633,-0.0148,-0.01358,-0.01114,-0.03174,-0.0209,0.00488,-0.03143
8.35,-0.03937,-0.0383,0.05981,0.0264,0.00046,-0.02213,0.00031,0.02609,-0.0145,-0.0148,-0.01465,-0.03632,-0.03189,-0.02045,0.0061,-0.03128
8.3505,-0.02213,-0.03189,0.08652,0.01831,-0.00214,-0.02136,-0.00381,0.01892,-0.0148,-0.01648,-0.0148,-0.04639,-0.03174,-0.01984,0.00702,-0.03174
8.351,0.00122,-0.02884,0.1001,0.0061,-0.01389,-0.02045,-0.01022,0.01526,-0.01526,-0.01953,-0.0148,-0.0238,-0.0322,-0.01892,0.0061,-0.0386
8.3515,0.02975,-0.02716,0.09857,-0.00183,-0.02777,-0.01801,-0.01404,0.01175,-0.01511,-0.01907,-0.01328,0.03113,-0.03113,-0.01892,0.00473,-0.056
8.352,0.0563,-0.0267,0.08865,-0.00381,-0.03189,-0.01526,-0.0148,0.0087,-0.01526,-0.02243,-0.01099,0.08652,-0.02991,-0.01892,0.00519,-0.07813
8.3525,0.07935,-0.02777,0.07416,-0.00168,-0.02151,-0.0119,-0.0119,0.00656,-0.01556,-0.0209,-0.01053,0.10086,-0.03052,-0.01907,0.00626,-0.08942
8.353,0.09872,-0.02869,0.05432,0.00076,-0.01114,-0.00992,-0.01099,0.00427,-0.01587,-0.02029,-0.01328,0.0679,-0.03235,-0.01923,0.00656,-0.07813
8.3535,0.11124,-0.0296,0.02853,-0.00107,-0.02014,-0.01038,-0.01205,0.00259,-0.01602,-0.01923,-0.01526,0.0209,-0.03281,-0.01923,0.00336,-0.05081
8.354,0.1062,-0.02899,0.00168,-0.00916,-0.04196,-0.01205,-0.01251,0.00259,-0.01602,-0.02289,-0.0145,-0.01022,-0.0325,-0.01907,0.00153,-0.02701
8.3545,0.08133,-0.02853,-0.01907,-0.0174,-0.05264,-0.01205,-0.00992,0.00458,-0.01648,-0.02457,-0.01251,-0.03265,-0.0325,-0.01831,0.00046,-0.01877
8.355,0.05005,-0.03052,-0.03326,-0.02121,-0.04501,-0.01007,-0.00656,0.00351,-0.0177,-0.02686,-0.01297,-0.06577,-0.03311,-0.01694,0.00122,-0.0209
8.3555,0.02838,-0.03494,-0.04868,-0.02243,-0.03708,-0.00748,-0.00595,-0.00336,-0.01877,-0.02716,-0.01389,-0.10849,-0.03174,-0.0148,0.00229,-0.02426
8.356,0.01907,-0.0386,-0.06561,-0.02182,-0.04196,-0.00671,-0.00839,-0.01221,-0.01923,-0.02457,-0.01617,-0.13855,-0.03006,-0.0145,0.00031,-0.02655
8.3565,0.01984,-0.03723,-0.08041,-0.02197,-0.05371,-0.00702,-0.01175,-0.01541,-0.01953,-0.02533,-0.01801,-0.14282,-0.02853,-0.01541,-0.00336,-0.03006
8.357,0.02853,-0.03418,-0.0882,-0.01923,-0.05463,-0.00778,-0.01251,-0.01114,-0.01953,-0.02472,-0.01846,-0.12238,-0.02823,-0.01617,-0.00656,-0.03555
8.3575,0.04532,-0.03235,-0.09766,-0.0177,-0.04517,-0.00748,-0.01175,-0.00488,-0.01923,-0.02502,-0.01587,-0.09506,-0.02747,-0.01526,-0.00732,-0.04105
8.358,0.06348,-0.03311,-0.1236,-0.01862,-0.0415,-0.00839,-0.01205,-0.00229,-0.01892,-0.02731,-0.01465,-0.07538,-0.02686,-0.01556,-0.00717,-0.04242
8.3585,0.07065,-0.03662,-0.16479,-0.02182,-0.05173,-0.00961,-0.01419,-0.00397,-0.01892,-0.02457,-0.01663,-0.07355,-0.02853,-0.01709,-0.00366,-0.03998
8.359,0.0618,-0.04166,-0.20782,-0.02533,-0.06287,-0.01007,-0.01511,-0.00595,-0.01755,-0.0296,-0.01816,-0.07553,-0.03128,-0.01892,0.0,-0.03525
8.3595,0.04303,-0.04562,-0.242,-0.02884,-0.05997,-0.00748,-0.0148,-0.00427,-0.01633,-0.0322,-0.0177,-0.05768,-0.03098,-0.01816,0.0032,-0.03021
8.36,0.0238,-0.047,-0.26016,-0.03265,-0.04669,-0.00473,-0.01282,-0.00122,-0.01556,-0.03021,-0.01617,-0.00397,-0.02716,-0.01633,0.00443,-0.0267
8.3605,0.00839,-0.04669,-0.25177,-0.03418,-0.03632,-0.0032,-0.01129,-0.00214,-0.01602,-0.03174,-0.01434,0.07584,-0.02487,-0.01404,0.00458,-0.02579
8.361,-0.00351,-0.04791,-0.20142,-0.03418,-0.03021,-0.00488,-0.0116,-0.00977,-0.01602,-0.03204,-0.01343,0.15167,-0.02457,-0.01373,0.00595,-0.02548
8.3615,-0.01343,-0.05325,-0.10757,-0.03448,-0.02869,-0.00793,-0.0145,-0.02136,-0.01633,-0.03128,-0.01419,0.19547,-0.02579,-0.01495,0.00748,-0.02609
8.362,-0.01968,-0.05981,0.00763,-0.03387,-0.02762,-0.01038,-0.01602,-0.03433,-0.01648,-0.02792,-0.01266,0.20264,-0.02686,-0.01648,0.00931,-0.02594
8.3625,-0.02533,-0.06439,0.10986,-0.02808,-0.02716,-0.01053,-0.01526,-0.04318,-0.0174,-0.02838,-0.01358,0.18112,-0.02655,-0.0174,0.01053,-0.02777
8.363,-0.03174,-0.06622,0.17563,-0.01999,-0.02762,-0.01022,-0.01221,-0.0383,-0.01785,-0.0325,-0.01343,0.12848,-0.02686,-0.0174,0.01175,-0.02975
8.3635,-0.03967,-0.06638,0.19516,-0.0174,-0.0267,-0.01114,-0.01007,-0.01251,-0.01785,-0.03052,-0.0145,0.04181,-0.02716,-0.01663,0.01282,-0.03143
8.364,-0.05005,-0.06424,0.17914,-0.0238,-0.02716,-0.0145,-0.00916,0.02304,-0.01801,-0.03098,-0.01663,-0.05997,-0.02716,-0.01663,0.01144,-0.03708
8.3645,-0.06271,-0.06195,0.14053,-0.02823,-0.0293,-0.01984,-0.01221,0.04105,-0.01755,-0.0325,-0.01724,-0.14206,-0.02777,-0.0174,0.01144,-0.05188
8.365,-0.07477,-0.06073,0.09552,-0.02289,-0.02945,-0.02426,-0.01389,0.02548,-0.01862,-0.03235,-0.01556,-0.17975,-0.02869,-0.01694,0.0119,-0.07431
8.3655,-0.08026,-0.05951,0.05157,-0.00809,-0.02716,-0.02731,-0.01526,-0.00229,-0.01816,-0.03387,-0.01556,-0.15762,-0.02884,-0.01617,0.01312,-0.08728
8.366,-0.07675,-0.056,0.0145,0.01114,-0.02335,-0.02762,-0.01541,-0.01022,-0.01755,-0.03311,-0.01602,-0.07385,-0.02914,-0.01587,0.0145,-0.07629
8.3665,-0.06622,-0.0528,-0.01602,0.02609,-0.02197,-0.02731,-0.01572,0.00381,-0.01602,-0.03342,-0.01541,0.0441,-0.0296,-0.01526,0.01526,-0.04898
8.367,-0.05737,-0.05173,-0.04288,0.03098,-0.02213,-0.02731,-0.01709,0.01373,-0.01541,-0.03571,-0.01419,0.15533,-0.03052,-0.01541,0.0148,-0.02243
8.3675,-0.05356,-0.05096,-0.06119,0.0238,-0.02197,-0.02731,-0.01938,-0.00015,-0.01587,-0.0351,-0.01343,0.23453,-0.03082,-0.01724,0.01251,-0.01022
8.368,-0.05341,-0.04745,-0.06378,0.01053,-0.02258,-0.02686,-0.02167,-0.03403,-0.01724,-0.03311,-0.01373,0.27237,-0.0296,-0.01892,0.01083,-0.00931
8.3685,-0.05188,-0.04501,-0.05676,0.00137,-0.02365,-0.02701,-0.02213,-0.07004,-0.0174,-0.03128,-0.0148,0.26123,-0.0267,-0.01999,0.00839,-0.01266
8.369,-0.04837,-0.04669,-0.05508,-0.00122,-0.02487,-0.02853,-0.02182,-0.09369,-0.01663,-0.03036,-0.01663,0.19943,-0.02426,-0.01999,0.00793,-0.01663
8.3695,-0.04684,-0.05066,-0.07034,-0.00183,-0.02457,-0.03082,-0.02045,-0.09872,-0.01541,-0.02884,-0.01663,0.10269,-0.02289,-0.01907,0.00992,-0.01984
8.37,-0.04883,-0.05219,-0.09476,-0.00549,-0.02289,-0.03403,-0.01907,-0.07492,-0.01541,-0.02594,-0.01617,-0.00107,-0.02319,-0.01968,0.01144,-0.02243
8.3705,-0.04929,-0.05112,-0.1088,-0.01266,-0.0209,-0.03357,-0.0177,-0.02182,-0.01556,-0.02579,-0.01633,-0.08545,-0.02487,-0.02167,0.01129,-0.02441
8.371,-0.04349,-0.04822,-0.10117,-0.02136,-0.02121,-0.0322,-0.01678,0.04333,-0.01526,-0.02533,-0.0145,-0.12878,-0.02487,-0.02243,0.0119,-0.02655
8.3715,-0.03265,-0.0441,-0.07843,-0.0267,-0.0209,-0.02975,-0.01617,0.08865,-0.0148,-0.02441,-0.01312,-0.11993,-0.02533,-0.02136,0.01221,-0.02731
8.372,-0.02197,-0.03937,-0.05295,-0.0264,-0.02075,-0.03128,-0.01633,0.08698,-0.0145,-0.02716,-0.01343,-0.08621,-0.0264,-0.0206,0.01236,-0.02792
8.3725,-0.01602,-0.03555,-0.03387,-0.02106,-0.01999,-0.03494,-0.01755,0.04623,-0.01587,-0.02975,-0.01434,-0.0705,-0.02762,-0.01984,0.01282,-0.02792
8.373,-0.01328,-0.03265,-0.02579,-0.0174,-0.01862,-0.03876,-0.02075,0.00259,-0.01572,-0.03021,-0.01419,-0.08545,-0.02686,-0.01923,0.01358,-0.03448
8.3735,-0.01129,-0.03006,-0.02655,-0.0177,-0.01434,-0.04349,-0.02441,-0.01678,-0.01495,-0.02899,-0.01297,-0.09949,-0.02686,-0.02045,0.01358,-0.05051
8.374,-0.00824,-0.02747,-0.02686,-0.0177,-0.00839,-0.04639,-0.02563,-0.01968,-0.01404,-0.02701,-0.01266,-0.09262,-0.02899,-0.02182,0.01358,-0.07446
8.3745,-0.00549,-0.02487,-0.02441,-0.01587,-0.00595,-0.04974,-0.02319,-0.02655,-0.01495,-0.02625,-0.01129,-0.07813,-0.0325,-0.02274,0.01434,-0.09079
8.375,-0.00397,-0.02136,-0.02411,-0.01968,-0.00732,-0.0528,-0.01923,-0.0383,-0.01602,-0.0264,-0.01175,-0.07599,-0.03525,-0.02243,0.01572,-0.08575
8.3755,-0.00198,-0.01694,-0.03128,-0.02792,-0.01175,-0.056,-0.0177,-0.03891,-0.01678,-0.02625,-0.01343,-0.08011,-0.0383,-0.02213,0.01709,-0.06409
8.376,0.00092,-0.01373,-0.0415,-0.03143,-0.01923,-0.0592,-0.01831,-0.02579,-0.01678,-0.02655,-0.01572,-0.06897,-0.04333,-0.02045,0.01862,-0.04105
8.3765,0.00732,-0.01389,-0.04822,-0.02441,-0.03189,-0.0621,-0.01892,-0.01129,-0.01648,-0.02548,-0.01801,-0.03403,-0.04791,-0.02045,0.01892,-0.02975
8.377,0.01709,-0.01541,-0.04745,-0.0116,-0.04913,-0.06226,-0.01846,-0.00244,-0.01572,-0.02625,-0.01648,0.01801,-0.05096,-0.02106,0.01846,-0.0293
8.3775,0.02472,-0.01801,-0.0383,-0.00031,-0.06378,-0.05997,-0.01526,0.00839,-0.01526,-0.02747,-0.01282,0.06668,-0.05112,-0.02167,0.01953,-0.03082
8.378,0.0267,-0.02258,-0.02899,0.00839,-0.0647,-0.0592,-0.01282,0.0296,-0.0148,-0.02701,-0.01236,0.09613,-0.05234,-0.02258,0.02365,-0.0293
8.3785,0.02243,-0.02899,-0.02808,0.01328,-0.05173,-0.06027,-0.01404,0.05829,-0.01404,-0.02548,-0.01389,0.10635,-0.05234,-0.02411,0.02518,-0.02579
8.379,0.01678,-0.0354,-0.03448,0.01251,-0.03723,-0.06119,-0.01953,0.07874,-0.01358,-0.02487,-0.0116,0.10345,-0.05249,-0.02533,0.02502,-0.02487
8.3795,0.01358,-0.03876,-0.04074,0.00687,-0.03006,-0.05981,-0.02518,0.07141,-0.01389,-0.02335,-0.0116,0.08667,-0.05127,-0.0235,0.02457,-0.02594
8.38,0.01099,-0.04013,-0.04044,0.0029,-0.02731,-0.0592,-0.0264,0.03479,-0.01465,-0.02213,-0.01144,0.05936,-0.0502,-0.02136,0.02609,-0.02747
8.3805,0.00748,-0.04059,-0.03326,0.00153,-0.02197,-0.06058,-0.02655,-0.01266,-0.01511,-0.02151,-0.0119,0.03174,-0.04883,-0.02045,0.02792,-0.02792
8.381,0.00488,-0.04089,-0.02625,0.00031,-0.01297,-0.06195,-0.02701,-0.04562,-0.01434,-0.01953,-0.01236,0.01007,-0.04761,-0.02106,0.02975,-0.02792
8.3815,0.00198,-0.0412,-0.02609,-0.0029,-0.00671,-0.06409,-0.0267,-0.05569,-0.01511,-0.02014,-0.0119,-0.00275,-0.04608,-0.02167,0.03067,-0.02808
8.382,-0.00107,-0.04303,-0.03113,-0.00656,-0.00443,-0.0647,-0.0235,-0.05447,-0.01587,-0.02106,-0.01144,-0.00015,-0.04532,-0.02121,0.03036,-0.02655
8.3825,-0.00534,-0.04608,-0.0386,-0.00763,-0.00519,-0.065,-0.01755,-0.05615,-0.01694,-0.02213,-0.01038,0.01495,-0.04303,-0.02075,0.03189,-0.02441
8.383,-0.00946,-0.04745,-0.04501,-0.00931,-0.0058,-0.06485,-0.01282,-0.06027,-0.01663,-0.02319,-0.01251,0.02411,-0.04028,-0.02182,0.03235,-0.02472
8.3835,-0.01358,-0.04791,-0.05173,-0.01083,-0.00824,-0.06332,-0.01038,-0.0415,-0.01678,-0.02411,-0.01389,0.00946,-0.03662,-0.02365,0.03128,-0.02686
8.384,-0.01862,-0.04761,-0.05554,-0.00977,-0.01221,-0.06149,-0.00748,0.01587,-0.01785,-0.02304,-0.01389,-0.0177,-0.03448,-0.02274,0.03098,-0.02975
8.3845,-0.02121,-0.04684,-0.05539,-0.00519,-0.01617,-0.06195,-0.00168,0.0795,-0.01755,-0.02213,-0.01099,-0.02762,-0.03387,-0.02121,0.0296,-0.03281
8.385,-0.02228,-0.04593,-0.05341,0.00092,-0.01923,-0.06393,0.00336,0.09506,-0.0177,-0.02274,-0.01221,-0.00671,-0.03342,-0.01968,0.02655,-0.0354
8.3855,-0.02167,-0.04425,-0.0528,0.00504,-0.01221,-0.06561,0.00488,0.05341,-0.01846,-0.02304,-0.01114,0.02106,-0.03159,-0.02014,0.02396,-0.03738
8.386,-0.02182,-0.04181,-0.05295,0.00732,0.00977,-0.06531,0.00519,0.00366,-0.01938,-0.02472,-0.00854,0.02518,-0.02853,-0.02151,0.02274,-0.0383
8.3865,-0.02121,-0.0383,-0.05264,0.00702,0.03677,-0.06561,0.00427,-0.01587,-0.01923,-0.02533,-0.00656,0.0032,-0.02701,-0.02258,0.02472,-0.03891
8.387,-0.01923,-0.03494,-0.05081,0.00427,0.04623,-0.06912,-0.00061,-0.01205,-0.01755,-0.02579,-0.00748,-0.02213,-0.02609,-0.02243,0.02472,-0.03983
8.3875,-0.01511,-0.03555,-0.04868,0.0,0.02304,-0.07141,-0.01038,-0.00992,-0.01602,-0.02594,-0.01083,-0.03998,-0.02472,-0.02182,0.02472,-0.04059
8.388,-0.00809,-0.03998,-0.04608,-0.00595,-0.02686,-0.07019,-0.01938,-0.01465,-0.01633,-0.02655,-0.01328,-0.05432,-0.02487,-0.02228,0.02289,-0.03922
8.3885,0.00229,-0.04578,-0.04333,-0.01114,-0.0798,-0.06851,-0.02274,-0.01556,-0.01709,-0.0238,-0.01373,-0.05585,-0.02548,-0.02197,0.0235,-0.03433
8.389,0.01694,-0.04929,-0.04074,-0.0148,-0.11871,-0.06836,-0.02197,-0.00366,-0.01877,-0.02258,-0.01343,-0.01877,-0.02609,-0.02213,0.02502,-0.02731
8.3895,0.03067,-0.04929,-0.03799,-0.01755,-0.13199,-0.07034,-0.02289,0.01251,-0.01984,-0.0235,-0.01343,0.05997,-0.02518,-0.02243,0.02655,-0.02075
8.39,0.03448,-0.04608,-0.03677,-0.02029,-0.1152,-0.06851,-0.02502,0.02335,-0.02029,-0.02502,-0.01221,0.14557,-0.02319,-0.02274,0.02518,-0.0177
8.3905,0.02396,-0.04227,-0.03601,-0.01984,-0.08133,-0.06393,-0.02655,0.02472,-0.02014,-0.02747,-0.01083,0.19089,-0.02365,-0.02182,0.02289,-0.01633
8.391,0.00824,-0.04211,-0.03616,-0.01602,-0.06149,-0.06027,-0.02533,0.01968,-0.01923,-0.02701,-0.00885,0.16739,-0.02457,-0.02075,0.01999,-0.01633
8.3915,-0.0032,-0.04807,-0.03693,-0.01144,-0.07141,-0.06042,-0.02289,0.01083,-0.0177,-0.02579,-0.00809,0.08957,-0.02411,-0.0209,0.01923,-0.0174
8.392,-0.00763,-0.056,-0.03754,-0.01068,-0.09338,-0.06256,-0.02304,0.0029,-0.01694,-0.02563,-0.00946,0.01038,-0.02487,-0.02106,0.02121,-0.02274
8.3925,-0.00992,-0.06104,-0.03586,-0.01389,-0.09247,-0.06439,-0.02579,-0.00046,-0.01724,-0.02548,-0.0119,-0.02106,-0.02594,-0.02167,0.02258,-0.03189
8.393,-0.01175,-0.05981,-0.03281,-0.01862,-0.06378,-0.06516,-0.02884,-0.00122,-0.01602,-0.02579,-0.01175,-0.00168,-0.02609,-0.02151,0.01877,-0.04013
8.3935,-0.01282,-0.05493,-0.0322,-0.01816,-0.03708,-0.06531,-0.02808,-0.00504,-0.0148,-0.02533,-0.01053,0.02869,-0.02533,-0.02045,0.01434,-0.05219
8.394,-0.01144,-0.04883,-0.03555,-0.0119,-0.03998,-0.06546,-0.02457,-0.01328,-0.01556,-0.02335,-0.00809,0.04028,-0.02579,-0.02014,0.01007,-0.0737
8.3945,-0.01053,-0.0415,-0.03922,-0.00336,-0.06409,-0.06531,-0.01816,-0.02182,-0.01648,-0.02136,-0.00717,0.03845,-0.02747,-0.02045,0.01007,-0.09781
8.395,-0.0116,-0.03296,-0.04044,0.00153,-0.07721,-0.06668,-0.01083,-0.02655,-0.01678,-0.02075,-0.00839,0.04074,-0.02899,-0.02182,0.01038,-0.10361
8.3955,-0.01328,-0.02502,-0.03708,0.00351,-0.06393,-0.06805,-0.00488,-0.02731,-0.01526,-0.02075,-0.00671,0.04822,-0.0293,-0.02365,0.009,-0.08224
8.396,-0.01358,-0.01846,-0.03143,0.0058,-0.04135,-0.06714,-0.00168,-0.0235,-0.01495,-0.02014,-0.00717,0.04608,-0.0293,-0.0235,0.00595,-0.04974
8.3965,-0.01312,-0.01373,-0.02625,0.0116,-0.03052,-0.06241,-0.0029,-0.01526,-0.01541,-0.01968,-0.00824,0.01999,-0.03098,-0.02151,0.00458,-0.0296
8.397,-0.01297,-0.01205,-0.02289,0.02136,-0.03006,-0.05966,-0.00595,-0.009,-0.01541,-0.02167,-0.00839,-0.0293,-0.03357,-0.02014,0.00641,-0.02686
8.3975,-0.01556,-0.01495,-0.0238,0.03128,-0.02777,-0.0592,-0.0087,-0.00885,-0.0145,-0.02365,-0.009,-0.08026,-0.0354,-0.02029,0.00946,-0.02945
8.398,-0.0174,-0.02014,-0.02869,0.03754,-0.02655,-0.06027,-0.01007,-0.01144,-0.01434,-0.02426,-0.01083,-0.11093,-0.03418,-0.02075,0.01205,-0.0296
8.3985,-0.01831,-0.02594,-0.03662,0.03738,-0.03296,-0.06088,-0.01053,-0.01007,-0.01495,-0.0235,-0.01236,-0.1088,-0.0322,-0.02106,0.01099,-0.02777
8.399,-0.01678,-0.03098,-0.04303,0.02991,-0.04868,-0.0618,-0.01129,-0.0087,-0.01526,-0.02274,-0.01282,-0.07401,-0.03174,-0.02121,0.01007,-0.02899
8.3995,-0.0145,-0.03403,-0.04379,0.02106,-0.06088,-0.06058,-0.01114,-0.01129,-0.01526,-0.02228,-0.01205,-0.02182,-0.03265,-0.02075,0.00946,-0.0351
8.4,-0.01434,-0.03693,-0.04242,0.0119,-0.06119,-0.0589,-0.00809,-0.01495,-0.01358,-0.02243,-0.01328,0.02075,-0.03311,-0.01907,0.01129,-0.04257
8.4005,-0.01831,-0.03876,-0.04028,-0.00198,-0.05585,-0.05615,-0.00473,-0.01465,-0.01236,-0.02182,-0.01068,0.03143,-0.03265,-0.01694,0.01221,-0.04944
8.401,-0.0238,-0.0383,-0.04074,-0.02396,-0.05157,-0.05493,-0.00275,-0.01617,-0.01282,-0.01984,-0.01144,0.00595,-0.03311,-0.01633,0.01205,-0.05615
8.4015,-0.02747,-0.03708,-0.04089,-0.04669,-0.04715,-0.05432,-0.00381,-0.01678,-0.01404,-0.01892,-0.01083,-0.03494,-0.03448,-0.0174,0.01083,-0.0676
8.402,-0.02975,-0.03784,-0.0415,-0.05753,-0.03952,-0.05493,-0.00504,-0.00916,-0.01434,-0.01862,-0.01236,-0.06485,-0.03601,-0.01862,0.00885,-0.08148
8.4025,-0.02716,-0.04089,-0.04181,-0.05524,-0.02975,-0.05554,-0.00336,0.0119,-0.01495,-0.01984,-0.01434,-0.07324,-0.0383,-0.01862,0.00763,-0.09171
8.403,-0.0209,-0.04379,-0.04135,-0.05035,-0.0235,-0.05539,-0.00198,0.0354,-0.01556,-0.02319,-0.01373,-0.07202,-0.03983,-0.01892,0.00763,-0.08957
8.4035,-0.01053,-0.04456,-0.03799,-0.05066,-0.02258,-0.05585,-0.00488,0.04364,-0.01633,-0.02365,-0.01495,-0.07202,-0.04059,-0.01755,0.00824,-0.07507
8.404,0.00854,-0.04303,-0.02747,-0.0502,-0.02167,-0.05646,-0.01007,0.03174,-0.01587,-0.02228,-0.01541,-0.06805,-0.04044,-0.01663,0.00641,-0.05676
8.4045,0.03647,-0.04105,-0.0145,-0.0412,-0.02213,-0.05661,-0.01266,0.00778,-0.01617,-0.01938,-0.0148,-0.04929,-0.04242,-0.0174,0.00366,-0.0444
8.405,0.06409,-0.03891,-0.00488,-0.03021,-0.02411,-0.0563,-0.01251,-0.01404,-0.01602,-0.01938,-0.0174,-0.01892,-0.04654,-0.01938,0.00259,-0.04013
8.4055,0.07111,-0.03647,-0.00153,-0.02579,-0.02548,-0.05753,-0.01251,-0.02716,-0.01526,-0.01968,-0.01556,0.00534,-0.04944,-0.01968,0.00305,-0.04044
8.406,0.05127,-0.0354,-0.00656,-0.03052,-0.02396,-0.05814,-0.01694,-0.02975,-0.01465,-0.01923,-0.01404,0.00793,-0.04929,-0.01892,0.00412,-0.04044
8.4065,0.0209,-0.03723,-0.01556,-0.03754,-0.0206,-0.05814,-0.02167,-0.02396,-0.01587,-0.01801,-0.01221,-0.01251,-0.04837,-0.01907,0.00443,-0.03952
8.407,0.00336,-0.03998,-0.02533,-0.03983,-0.0177,-0.05676,-0.02258,-0.01236,-0.01678,-0.01892,-0.01404,-0.03479,-0.04837,-0.0206,0.00641,-0.03983
8.4075,0.00107,-0.04272,-0.03143,-0.0351,-0.01465,-0.05447,-0.01953,-0.00244,-0.0177,-0.0206,-0.01724,-0.02731,-0.04883,-0.02151,0.00885,-0.04211
8.408,0.0029,-0.04532,-0.03159,-0.02731,-0.00519,-0.05203,-0.01663,0.00076,-0.01724,-0.02319,-0.01984,0.01999,-0.04913,-0.0209,0.01099,-0.04395
8.4085,0.00244,-0.04822,-0.0293,-0.02426,0.01099,-0.05234,-0.01648,-0.00275,-0.0174,-0.02426,-0.01831,0.08331,-0.04761,-0.02121,0.0087,-0.04593
8.409,-0.00153,-0.05142,-0.02869,-0.0293,0.0264,-0.05249,-0.01556,-0.00824,-0.01862,-0.02441,-0.01785,0.11566,-0.04593,-0.02243,0.00641,-0.0531
8.4095,-0.00397,-0.05402,-0.03204,-0.03555,0.03494,-0.05249,-0.01221,-0.01389,-0.01938,-0.0235,-0.01617,0.08789,-0.04547,-0.02289,0.00473,-0.06729
8.41,-0.00412,-0.05585,-0.03433,-0.0351,0.03815,-0.05066,-0.00717,-0.01862,-0.0177,-0.02213,-0.01373,0.02274,-0.04486,-0.02258,0.00427,-0.0824
8.4105,-0.00275,-0.05661,-0.03265,-0.0238,0.04166,-0.04745,-0.00443,-0.02319,-0.01633,-0.02213,-0.01404,-0.02792,-0.04456,-0.02136,0.00305,-0.08987
8.411,-0.00183,-0.05661,-0.03143,-0.00946,0.04883,-0.04562,-0.00473,-0.03098,-0.01526,-0.02213,-0.01297,-0.04028,-0.04333,-0.02045,0.00229,-0.0856
8.4115,-0.00214,-0.05737,-0.03174,0.00549,0.05127,-0.04608,-0.0058,-0.0441,-0.01434,-0.02197,-0.01465,-0.03204,-0.04211,-0.01953,0.00061,-0.07248
8.412,-0.00305,-0.05997,-0.03525,0.01907,0.03326,-0.04883,-0.00778,-0.05356,-0.01511,-0.01968,-0.01663,-0.02808,-0.0415,-0.01968,-0.00092,-0.05966
8.4125,-0.00244,-0.06378,-0.0415,0.03555,-0.01343,-0.05096,-0.00916,-0.04959,-0.01694,-0.01877,-0.01755,-0.0325,-0.04196,-0.01938,-0.00198,-0.05051
8.413,-0.00305,-0.06454,-0.04669,0.05341,-0.07294,-0.05203,-0.0119,-0.03357,-0.01877,-0.01923,-0.01541,-0.03311,-0.04181,-0.01862,-0.00214,-0.04623
8.4135,-0.0058,-0.06042,-0.04929,0.06317,-0.10635,-0.0531,-0.01511,-0.01846,-0.01892,-0.02075,-0.01205,-0.02396,-0.04074,-0.01801,-0.00122,-0.04517
8.414,-0.01068,-0.05234,-0.04913,0.05707,-0.08575,-0.05417,-0.01938,-0.01404,-0.01831,-0.02121,-0.01312,-0.009,-0.03876,-0.01923,0.00015,-0.04608
8.4145,-0.01495,-0.0441,-0.04669,0.03555,-0.03738,-0.0531,-0.02213,-0.01984,-0.0174,-0.02075,-0.01617,0.00305,-0.03891,-0.02014,0.00198,-0.04684
8.415,-0.01831,-0.03723,-0.04181,0.01266,-0.00946,-0.05203,-0.02213,-0.03021,-0.01633,-0.02106,-0.01801,0.01053,-0.0386,-0.02014,0.00275,-0.04501
8.4155,-0.02029,-0.03464,-0.03723,-0.0058,-0.01328,-0.0499,-0.0206,-0.04745,-0.01602,-0.02075,-0.01862,0.01465,-0.03754,-0.01862,0.00244,-0.04074
8.416,-0.01892,-0.03555,-0.03281,-0.02289,-0.02701,-0.04883,-0.01968,-0.07736,-0.01602,-0.01907,-0.01907,0.0174,-0.03571,-0.01724,0.0,-0.03647
8.4165,-0.01343,-0.03906,-0.02731,-0.04105,-0.03769,-0.04944,-0.02029,-0.11139,-0.01602,-0.01907,-0.0206,0.02014,-0.03525,-0.01663,-0.00137,-0.03464
8.417,-0.00916,-0.0415,-0.02167,-0.0563,-0.0473,-0.05356,-0.01938,-0.11505,-0.0174,-0.0206,-0.02106,0.02258,-0.0383,-0.01648,-0.00061,-0.0354
8.4175,-0.009,-0.04074,-0.01678,-0.06393,-0.05356,-0.05936,-0.01785,-0.06439,-0.01694,-0.02213,-0.01892,0.02228,-0.04028,-0.01587,0.00061,-0.03586
8.418,-0.01236,-0.03738,-0.01358,-0.06134,-0.05569,-0.06149,-0.01617,0.00397,-0.01663,-0.02167,-0.01801,0.01709,-0.04181,-0.01617,0.00183,-0.03433
8.4185,-0.01678,-0.03571,-0.00931,-0.05112,-0.05554,-0.06088,-0.01495,0.02792,-0.01541,-0.02029,-0.01816,0.01068,-0.04257,-0.01602,0.00015,-0.03342
8.419,-0.01831,-0.03723,-0.00534,-0.03571,-0.05844,-0.05905,-0.01221,-0.00107,-0.01526,-0.01907,-0.02106,0.00305,-0.04364,-0.01572,-0.00061,-0.03448
8.4195,-0.01556,-0.0383,-0.00549,-0.02365,-0.06805,-0.05844,-0.00916,-0.02655,-0.01617,-0.01938,-0.01831,-0.00214,-0.04379,-0.01541,-0.00031,-0.0383
8.42,-0.01068,-0.03876,-0.01114,-0.0206,-0.09811,-0.0589,-0.00641,-0.00778,-0.01633,-0.02136,-0.01602,-0.00137,-0.04135,-0.01389,0.00168,-0.04395
8.4205,-0.00595,-0.04044,-0.01801,-0.0209,-0.14145,-0.05875,-0.00717,0.04074,-0.01526,-0.02182,-0.0148,0.00275,-0.03983,-0.01343,0.00198,-0.04944
8.421,-0.00229,-0.04333,-0.02441,-0.01526,-0.15747,-0.05478,-0.0119,0.09018,-0.01602,-0.02106,-0.0148,0.00397,-0.03967,-0.01328,0.00214,-0.05859
8.4215,0.00229,-0.04669,-0.02808,-0.00717,-0.11765,-0.04974,-0.02029,0.13641,-0.01663,-0.02106,-0.01556,0.0029,-0.0386,-0.01358,0.00137,-0.07202
8.422,0.00504,-0.04608,-0.02792,-0.00519,-0.04745,-0.04532,-0.0322,0.16342,-0.01694,-0.0209,-0.01572,0.00214,-0.03662,-0.01282,0.00198,-0.08636
8.4225,0.0061,-0.04196,-0.02914,-0.00732,-0.00092,-0.04211,-0.04349,0.14725,-0.01633,-0.02014,-0.0177,0.00229,-0.03479,-0.01404,0.00183,-0.08987
8.423,0.00519,-0.03479,-0.02792,-0.00473,0.00168,-0.04196,-0.04379,0.10208,-0.01526,-0.02136,-0.01953,0.00244,-0.03494,-0.01541,0.00122,-0.07523
8.4235,0.00366,-0.02853,-0.03113,0.00244,-0.02197,-0.04303,-0.0296,0.08575,-0.0145,-0.01984,-0.01877,0.00473,-0.03525,-0.01678,0.00061,-0.05402
8.424,0.00214,-0.02258,-0.03433,0.00626,-0.04761,-0.04547,-0.01129,0.12466,-0.01648,-0.01923,-0.01862,0.00931,-0.03418,-0.01678,-0.00092,-0.03937
8.4245,-0.00122,-0.01877,-0.03754,0.00351,-0.06058,-0.04868,-0.00488,0.16495,-0.01831,-0.01801,-0.01846,0.01282,-0.03342,-0.01572,-0.00336,-0.03738
8.425,-0.0061,-0.02029,-0.03891,-0.00137,-0.05753,-0.05051,-0.00931,0.15045,-0.01862,-0.01724,-0.01801,0.0148,-0.03403,-0.0145,-0.00412,-0.04166
8.4255,-0.01083,-0.0267,-0.03906,-0.0058,-0.0473,-0.05081,-0.01495,0.08667,-0.01709,-0.01694,-0.01663,0.01373,-0.03464,-0.01404,-0.00336,-0.04532
8.426,-0.01328,-0.03372,-0.03983,-0.01434,-0.04211,-0.05249,-0.01389,0.02625,-0.01648,-0.01602,-0.01724,0.01129,-0.03555,-0.01572,-0.0029,-0.04562
8.4265,-0.01251,-0.03922,-0.03983,-0.02533,-0.04654,-0.05585,-0.00793,-0.00122,-0.01633,-0.01511,-0.01862,0.009,-0.03571,-0.01892,-0.00168,-0.04654
8.427,-0.01099,-0.04364,-0.03815,-0.03052,-0.05188,-0.06073,-0.00488,-0.01053,-0.0174,-0.01556,-0.01923,0.00748,-0.03723,-0.02106,-0.00031,-0.04684
8.4275,-0.01236,-0.04562,-0.03784,-0.02655,-0.04684,-0.06454,-0.00778,-0.02655,-0.0174,-0.0174,-0.01846,0.00595,-0.03876,-0.02213,-0.00092,-0.04669
8.428,-0.01755,-0.0473,-0.03693,-0.0206,-0.03937,-0.06516,-0.01419,-0.05386,-0.01648,-0.01724,-0.01617,0.00381,-0.03876,-0.0209,-0.00259,-0.04486
8.4285,-0.02121,-0.04959,-0.03799,-0.02335,-0.03235,-0.06348,-0.01831,-0.08453,-0.01587,-0.0174,-0.0174,0.00046,-0.03815,-0.01999,-0.00397,-0.04257
8.429,-0.01831,-0.05341,-0.03784,-0.03296,-0.02823,-0.06104,-0.01785,-0.11154,-0.01678,-0.01678,-0.01831,-0.00214,-0.03708,-0.01846,-0.00443,-0.03906
8.4295,-0.01022,-0.05661,-0.0412,-0.0383,-0.02258,-0.05737,-0.0145,-0.1297,-0.01633,-0.01587,-0.01877,-0.00458,-0.03754,-0.01816,-0.0029,-0.03677
8.43,-0.00168,-0.05768,-0.04852,-0.03174,-0.01923,-0.05157,-0.01175,-0.13718,-0.01526,-0.01251,-0.01617,-0.00565,-0.03738,-0.0177,-0.0032,-0.03647
8.4305,0.00443,-0.05768,-0.06165,-0.01862,-0.01678,-0.04669,-0.00793,-0.1297,-0.01465,-0.01022,-0.01297,-0.0058,-0.03662,-0.01831,-0.00504,-0.03525
8.431,0.00717,-0.05737,-0.07797,-0.01068,-0.01511,-0.04257,0.00137,-0.09964,-0.0145,-0.00885,-0.0119,-0.0058,-0.03448,-0.01953,-0.00656,-0.03311
8.4315,0.00671,-0.05661,-0.09048,-0.00931,-0.01236,-0.04044,0.01709,-0.04333,-0.01389,-0.00946,-0.01389,-0.00595,-0.03342,-0.02106,-0.0058,-0.03159
8.432,0.00183,-0.05554,-0.09735,-0.00687,-0.0116,-0.03967,0.02716,0.02228,-0.01282,-0.01068,-0.01343,-0.00671,-0.03265,-0.01999,-0.0032,-0.03433
8.4325,-0.0058,-0.05219,-0.10178,0.00275,-0.01144,-0.04318,0.02319,0.06653,-0.01358,-0.01068,-0.01328,-0.00641,-0.03159,-0.01892,-0.00244,-0.04166
8.433,-0.01389,-0.04944,-0.10071,0.01343,-0.01022,-0.04623,0.01144,0.07904,-0.01556,-0.0116,-0.01541,-0.00488,-0.03021,-0.01816,-0.00198,-0.04623
8.4335,-0.01892,-0.04807,-0.0853,0.01617,-0.01022,-0.04639,0.00275,0.07568,-0.01678,-0.01221,-0.01602,-0.00076,-0.03006,-0.01785,-0.00046,-0.04929
8.434,-0.02335,-0.04639,-0.05219,0.0119,-0.01129,-0.04654,-0.00015,0.06866,-0.01709,-0.01175,-0.01724,0.0029,-0.03204,-0.01831,-0.00015,-0.05615
8.4345,-0.02884,-0.04272,-0.00732,0.00336,-0.0148,-0.04639,-0.00305,0.05661,-0.01724,-0.01144,-0.01663,0.00824,-0.03311,-0.01648,-0.00046,-0.07095
8.435,-0.03403,-0.03738,0.03693,-0.00809,-0.0177,-0.047,-0.00931,0.04044,-0.01694,-0.01038,-0.01709,0.01846,-0.0322,-0.01511,-0.00031,-0.08698
8.4355,-0.03769,-0.0351,0.06454,-0.01938,-0.01816,-0.0473,-0.01709,0.02197,-0.01724,-0.01144,-0.01587,0.03586,-0.03128,-0.01419,0.00015,-0.08911
8.436,-0.03464,-0.03784,0.07019,-0.02716,-0.01724,-0.04669,-0.02777,-0.00961,-0.01785,-0.01251,-0.01556,0.05783,-0.0322,-0.01495,-0.00015,-0.07248
8.4365,-0.02487,-0.04318,0.05737,-0.02853,-0.01694,-0.04395,-0.04089,-0.05814,-0.01785,-0.01312,-0.01526,0.07477,-0.03433,-0.01602,-0.00092,-0.05081
8.437,-0.00885,-0.04471,0.0386,-0.02472,-0.01755,-0.03754,-0.05905,-0.10101,-0.01816,-0.01328,-0.01587,0.07751,-0.03601,-0.01541,-0.00214,-0.03769
8.4375,0.01251,-0.04181,0.01968,-0.01831,-0.01801,-0.02884,-0.07965,-0.11154,-0.0174,-0.01373,-0.0174,0.06668,-0.03662,-0.01419,-0.00107,-0.03616
8.438,0.03372,-0.03616,0.0032,-0.01541,-0.0177,-0.02396,-0.09308,-0.08911,-0.01678,-0.01526,-0.01663,0.04959,-0.03677,-0.01404,-0.00015,-0.03693
8.4385,0.04578,-0.03021,-0.01251,-0.02106,-0.01801,-0.02365,-0.09293,-0.05798,-0.01694,-0.01541,-0.01755,0.0325,-0.03845,-0.01526,0.00122,-0.03784
8.439,0.04333,-0.02594,-0.02701,-0.03235,-0.0177,-0.02411,-0.08026,-0.03525,-0.01663,-0.01434,-0.01663,0.01099,-0.04059,-0.01663,-0.00015,-0.0383
8.4395,0.02991,-0.02228,-0.03876,-0.03967,-0.01511,-0.02304,-0.06409,-0.01938,-0.01648,-0.01434,-0.0148,-0.02975,-0.04044,-0.01678,-0.00046,-0.04059
8.44,0.01617,-0.02106,-0.0412,-0.03983,-0.01312,-0.02335,-0.05188,-0.00366,-0.01587,-0.01404,-0.01373,-0.09567,-0.03922,-0.01724,-0.00183,-0.04517
8.4405,0.00946,-0.02319,-0.03998,-0.03937,-0.01465,-0.02808,-0.0444,0.01526,-0.01434,-0.01358,-0.01312,-0.16953,-0.03876,-0.01602,-0.00275,-0.04868
8.441,0.00717,-0.02853,-0.03998,-0.04028,-0.0177,-0.03525,-0.03662,0.04013,-0.01373,-0.01236,-0.01419,-0.2066,-0.03891,-0.01678,-0.00214,-0.04745
8.4415,0.00336,-0.03448,-0.04196,-0.03632,-0.0206,-0.0383,-0.01984,0.06943,-0.01343,-0.01129,-0.01343,-0.16754,-0.03876,-0.01907,-0.00168,-0.04059
8.442,-0.00351,-0.03876,-0.04181,-0.02533,-0.02167,-0.03708,0.00931,0.0946,-0.01495,-0.01129,-0.01251,-0.05188,-0.03677,-0.01923,-0.00092,-0.03296
8.4425,-0.01236,-0.04196,-0.04105,-0.01404,-0.02228,-0.03677,0.04791,0.09933,-0.01602,-0.01236,-0.01251,0.08102,-0.03479,-0.01816,-0.00122,-0.02884
8.443,-0.02121,-0.04379,-0.03998,-0.01251,-0.02167,-0.03784,0.08453,0.07614,-0.01633,-0.01251,-0.01114,0.14984,-0.03418,-0.01633,0.00015,-0.02716
8.4435,-0.02823,-0.04517,-0.04196,-0.02274,-0.02151,-0.0383,0.10132,0.03494,-0.01511,-0.01099,-0.01083,0.12024,-0.03403,-0.01526,0.00183,-0.02609
8.444,-0.03113,-0.04593,-0.04562,-0.03738,-0.02075,-0.03799,0.08743,0.00244,-0.01541,-0.00931,-0.01114,0.04074,-0.03372,-0.01572,0.00092,-0.02548
8.4445,-0.02777,-0.04623,-0.04868,-0.04669,-0.02106,-0.03769,0.05646,-0.01007,-0.01709,-0.00916,-0.01175,-0.0145,-0.03296,-0.01648,0.00046,-0.02609
8.445,-0.01877,-0.04654,-0.04822,-0.04135,-0.02213,-0.03693,0.03067,-0.0061,-0.01862,-0.00931,-0.01266,-0.02518,-0.03143,-0.01724,0.00046,-0.0293
8.4455,-0.0087,-0.04562,-0.04608,-0.03006,-0.0235,-0.0386,0.01831,-0.00412,-0.01877,-0.00946,-0.01312,-0.0235,-0.03021,-0.0177,0.00076,-0.03372
8.446,-0.00076,-0.04471,-0.04486,-0.02289,-0.02411,-0.04288,0.00763,-0.02151,-0.01709,-0.00854,-0.01358,-0.03799,-0.03098,-0.01709,0.00076,-0.03754
8.4465,0.00259,-0.04471,-0.04547,-0.0209,-0.02319,-0.04623,-0.00443,-0.06088,-0.01709,-0.00778,-0.01343,-0.05524,-0.03235,-0.0174,0.00229,-0.04044
8.447,0.0032,-0.04333,-0.04654,-0.01541,-0.02243,-0.04807,-0.00854,-0.10681,-0.01617,-0.00778,-0.0145,-0.05234,-0.03265,-0.01648,0.0032,-0.04639
8.4475,0.0032,-0.04181,-0.04623,-0.00427,-0.02243,-0.05035,0.00687,-0.12863,-0.01602,-0.00748,-0.01221,-0.03052,-0.03159,-0.01633,0.00168,-0.05905
8.448,0.0029,-0.04013,-0.04623,0.00427,-0.02502,-0.05356,0.03235,-0.10849,-0.01572,-0.00702,-0.01282,-0.00946,-0.02991,-0.01801,-0.00015,-0.0737
8.4485,0.00107,-0.03876,-0.047,0.00443,-0.02808,-0.05692,0.04929,-0.06012,-0.01663,-0.00946,-0.0145,0.00519,-0.02899,-0.01862,-0.00183,-0.07813
8.449,-0.0029,-0.0351,-0.04883,-0.00336,-0.03113,-0.05905,0.04959,-0.01923,-0.01724,-0.00931,-0.01694,0.02335,-0.02884,-0.01938,0.00015,-0.06638
8.4495,-0.00565,-0.03159,-0.05249,-0.01099,-0.03281,-0.06027,0.03738,-0.01114,-0.01755,-0.01251,-0.0174,0.05234,-0.0296,-0.01968,0.00366,-0.04654
8.45,-0.00595,-0.0322,-0.05737,-0.01526,-0.03342,-0.06042,0.01633,-0.02945,-0.01678,-0.01144,-0.01678,0.08698,-0.02899,-0.02014,0.00473,-0.03265
8.4505,-0.00778,-0.03586,-0.0621,-0.01373,-0.03342,-0.05905,-0.01297,-0.04898,-0.01556,-0.0116,-0.01617,0.11292,-0.02945,-0.01999,0.00168,-0.02991
8.451,-0.01022,-0.03845,-0.06439,-0.00366,-0.03128,-0.05707,-0.0473,-0.05157,-0.01526,-0.01251,-0.01434,0.11795,-0.03098,-0.01968,-0.00107,-0.03204
8.4515,-0.01129,-0.03876,-0.06317,0.01221,-0.02701,-0.05478,-0.07385,-0.03296,-0.01541,-0.0148,-0.01282,0.09766,-0.0325,-0.01953,0.00046,-0.03113
8.452,-0.01099,-0.03876,-0.05829,0.02579,-0.02243,-0.05463,-0.07446,-0.00854,-0.01587,-0.01419,-0.01129,0.06287,-0.03174,-0.01938,0.00397,-0.03128
8.4525,-0.01266,-0.03998,-0.0531,0.03281,-0.01617,-0.05478,-0.04608,0.00076,-0.01572,-0.01312,-0.01221,0.03311,-0.02899,-0.0209,0.00473,-0.03311
8.453,-0.01755,-0.0415,-0.0473,0.03418,-0.01099,-0.05508,-0.00458,-0.0087,-0.01617,-0.01205,-0.01511,0.01526,-0.02777,-0.02289,0.00473,-0.03479
8.4535,-0.0235,-0.04181,-0.03937,0.0293,-0.0058,-0.05447,0.02487,-0.01511,-0.01724,-0.01129,-0.01709,-0.00046,-0.02838,-0.02441,0.00458,-0.03525
8.454,-0.0264,-0.04196,-0.03113,0.01892,-0.00366,-0.05386,0.03342,-0.0032,-0.01663,-0.01236,-0.01587,-0.02243,-0.02899,-0.02396,0.00336,-0.03571
8.4545,-0.02472,-0.04105,-0.02335,0.00793,-0.01175,-0.05249,0.02625,0.01938,-0.01678,-0.01297,-0.0119,-0.04761,-0.02853,-0.02258,0.00351,-0.03693
8.455,-0.0174,-0.03754,-0.01755,0.00107,-0.03662,-0.05081,0.00961,0.03769,-0.01556,-0.01236,-0.00961,-0.06409,-0.02777,-0.02197,0.0029,-0.03769
8.4555,-0.00763,-0.03357,-0.01328,-0.00412,-0.07584,-0.05066,-0.01755,0.04898,-0.01587,-0.01205,-0.01007,-0.06531,-0.02609,-0.02243,0.00275,-0.03784
8.456,0.00366,-0.03189,-0.00977,-0.01251,-0.10071,-0.05188,-0.06271,0.05295,-0.01678,-0.01221,-0.01083,-0.04944,-0.02548,-0.02289,0.00381,-0.03738
8.4565,0.01343,-0.03281,-0.00824,-0.02563,-0.08514,-0.05219,-0.12207,0.0473,-0.01785,-0.01068,-0.01312,-0.02396,-0.02609,-0.02289,0.00534,-0.03815
8.457,0.01755,-0.03571,-0.01099,-0.03967,-0.03479,-0.04959,-0.16937,0.03387,-0.0177,-0.01144,-0.01419,0.00137,-0.02716,-0.02182,0.00488,-0.03952
8.4575,0.01678,-0.03952,-0.0174,-0.04929,0.01328,-0.04562,-0.16815,0.01526,-0.01678,-0.01282,-0.01556,0.02228,-0.02838,-0.02075,0.00443,-0.03967
8.458,0.01312,-0.04181,-0.0238,-0.04745,0.03769,-0.04272,-0.11261,-0.00641,-0.01602,-0.01511,-0.01678,0.0444,-0.02823,-0.02029,0.00458,-0.03876
8.4585,0.01022,-0.04425,-0.02701,-0.03647,0.04349,-0.04166,-0.056,-0.0322,-0.01495,-0.01526,-0.01709,0.06393,-0.02823,-0.01999,0.0058,-0.03708
8.459,0.00671,-0.04822,-0.02945,-0.02045,0.04135,-0.04303,-0.04898,-0.05234,-0.01511,-0.01495,-0.0174,0.06851,-0.02869,-0.01938,0.00702,-0.03494
8.4595,0.00381,-0.05157,-0.03082,-0.00565,0.02625,-0.04379,-0.07538,-0.04837,-0.01602,-0.0148,-0.01633,0.05646,-0.03021,-0.0174,0.00885,-0.03281
8.46,-0.00031,-0.05463,-0.0322,0.00702,-0.01129,-0.04272,-0.08392,-0.01236,-0.01694,-0.01221,-0.01419,0.04944,-0.03189,-0.01511,0.01038,-0.0325
8.4605,-0.00534,-0.056,-0.03265,0.0174,-0.06592,-0.04257,-0.05829,0.02823,-0.01648,-0.01221,-0.0119,0.06851,-0.03357,-0.01556,0.01053,-0.0322
8.461,-0.01175,-0.05402,-0.03647,0.01999,-0.11765,-0.0473,-0.02457,0.03311,-0.01556,-0.01312,-0.01251,0.10147,-0.03387,-0.01816,0.01068,-0.03174
8.4615,-0.01755,-0.05066,-0.04318,0.01511,-0.14236,-0.05447,-0.00565,-0.00076,-0.0148,-0.01358,-0.01312,0.11871,-0.03296,-0.02045,0.01129,-0.0322
8.462,-0.01968,-0.04837,-0.05112,0.00885,-0.13336,-0.05737,-0.00351,-0.0415,-0.0145,-0.01236,-0.01297,0.10193,-0.0322,-0.01999,0.01312,-0.03357
8.4625,-0.0177,-0.04608,-0.05783,0.00519,-0.10544,-0.05692,-0.01236,-0.0621,-0.01495,-0.0119,-0.01099,0.05539,-0.0293,-0.01923,0.01419,-0.03494
8.463,-0.01434,-0.04211,-0.06332,0.00061,-0.07675,-0.05646,-0.02258,-0.06073,-0.01556,-0.0119,-0.0087,-0.00717,-0.02838,-0.01801,0.01328,-0.03448
8.4635,-0.01358,-0.03845,-0.06821,-0.00839,-0.05875,-0.05707,-0.02747,-0.04639,-0.01572,-0.01358,-0.00809,-0.06882,-0.02838,-0.01999,0.01022,-0.03296
8.464,-0.01358,-0.03876,-0.07324,-0.01831,-0.05264,-0.05676,-0.02441,-0.02106,-0.01556,-0.01419,-0.00977,-0.11063,-0.03021,-0.02121,0.00854,-0.03036
8.4645,-0.01129,-0.04196,-0.07492,-0.02182,-0.05081,-0.056,-0.01892,0.00916,-0.01617,-0.0145,-0.01114,-0.13,-0.03067,-0.02228,0.00931,-0.02884
8.465,-0.00717,-0.04395,-0.0676,-0.01968,-0.04776,-0.05478,-0.01572,0.03082,-0.01663,-0.01526,-0.01144,-0.1297,-0.02869,-0.02167,0.00977,-0.02686
8.4655,-0.00519,-0.04196,-0.05203,-0.01801,-0.04044,-0.05432,-0.01465,0.02625,-0.01602,-0.01633,-0.01175,-0.11322,-0.02487,-0.02197,0.009,-0.02274
8.466,-0.0061,-0.04028,-0.0325,-0.0206,-0.03357,-0.05356,-0.01358,-0.01434,-0.01617,-0.01633,-0.01358,-0.07751,-0.02411,-0.02213,0.00748,-0.01831
8.4665,-0.00793,-0.03906,-0.01617,-0.02487,-0.02945,-0.05234,-0.0119,-0.06622,-0.01678,-0.01617,-0.01419,-0.03189,-0.02625,-0.02274,0.00732,-0.0174
8.467,-0.0087,-0.0386,-0.00534,-0.02563,-0.02975,-0.05203,-0.01053,-0.07233,-0.0174,-0.01862,-0.01221,0.0061,-0.0293,-0.02121,0.00702,-0.02228
8.4675,-0.00839,-0.03769,-0.00061,-0.02121,-0.03387,-0.05539,-0.00504,-0.00809,-0.0174,-0.02213,-0.01144,0.02686,-0.0325,-0.01999,0.00656,-0.02853
8.468,-0.00702,-0.03769,-0.00061,-0.01511,-0.0386,-0.05966,0.00626,0.07065,-0.01694,-0.02335,-0.01266,0.03311,-0.03494,-0.01953,0.00641,-0.03448
8.4685,-0.00595,-0.03922,-0.00443,-0.01221,-0.0383,-0.06104,0.0148,0.09064,-0.01617,-0.02228,-0.01617,0.03326,-0.0351,-0.01984,0.00809,-0.03799
8.469,-0.0061,-0.03906,-0.01038,-0.01358,-0.03464,-0.06134,0.01053,0.04593,-0.01541,-0.02106,-0.01663,0.03006,-0.03403,-0.02106,0.00809,-0.04257
8.4695,-0.00748,-0.03693,-0.01419,-0.01373,-0.03021,-0.06393,-0.00412,-0.00565,-0.01541,-0.02213,-0.0148,0.01801,-0.03281,-0.0209,0.00854,-0.04959
8.47,-0.01068,-0.03403,-0.01602,-0.00687,-0.02945,-0.06821,-0.01816,-0.01785,-0.01556,-0.01999,-0.01434,-0.00931,-0.03296,-0.02029,0.00977,-0.056
8.4705,-0.01541,-0.03281,-0.01877,0.00595,-0.02792,-0.06866,-0.02975,0.00656,-0.01526,-0.01999,-0.01541,-0.05112,-0.03357,-0.01984,0.01221,-0.05478
8.471,-0.0209,-0.03326,-0.02579,0.01801,-0.02609,-0.06973,-0.04883,0.03815,-0.01419,-0.0206,-0.01556,-0.09247,-0.03311,-0.01892,0.01404,-0.04181
8.4715,-0.02411,-0.0351,-0.03479,0.0238,-0.0238,-0.07126,-0.0766,0.05157,-0.01358,-0.02029,-0.01266,-0.12222,-0.0322,-0.0177,0.01526,-0.02533
8.472,-0.02014,-0.03815,-0.0415,0.02228,-0.02167,-0.07187,-0.09659,0.03525,-0.01373,-0.0206,-0.0119,-0.13351,-0.03174,-0.01663,0.01526,-0.0174
8.4725,-0.01221,-0.0441,-0.04303,0.01465,-0.02075,-0.06958,-0.08484,-0.00961,-0.01465,-0.01999,-0.01541,-0.11353,-0.03281,-0.01511,0.01266,-0.01831
8.473,-0.00656,-0.05157,-0.04242,0.00381,-0.02045,-0.06454,-0.04181,-0.06073,-0.01556,-0.01923,-0.01831,-0.04272,-0.03311,-0.0145,0.01221,-0.01938
8.4735,-0.0029,-0.05859,-0.04272,-0.00534,-0.02243,-0.06058,0.00656,-0.07553,-0.01556,-0.01999,-0.01709,0.05951,-0.03235,-0.01434,0.01282,-0.01633
8.474,0.00153,-0.06027,-0.04608,-0.00946,-0.02289,-0.05844,0.03128,-0.03586,-0.01633,-0.02014,-0.01312,0.1181,-0.03021,-0.0148,0.01434,-0.01343
8.4745,0.00702,-0.05707,-0.04791,-0.01175,-0.02304,-0.05646,0.0296,0.02213,-0.01587,-0.02045,-0.01251,0.09079,-0.02838,-0.01602,0.01526,-0.01541
8.475,0.00824,-0.05249,-0.04807,-0.01999,-0.02289,-0.05493,0.02441,0.04288,-0.01526,-0.02014,-0.01404,0.03448,-0.0267,-0.0174,0.01526,-0.02029
8.4755,0.00519,-0.05005,-0.04562,-0.03067,-0.02441,-0.05524,0.02838,0.02106,-0.01419,-0.01831,-0.01511,0.02533,-0.02533,-0.01755,0.01328,-0.02472
8.476,0.00061,-0.05173,-0.04623,-0.03326,-0.02411,-0.05753,0.03296,0.00793,-0.01465,-0.02029,-0.01541,0.04868,-0.0264,-0.01648,0.01175,-0.02884
8.4765,-0.00076,-0.05417,-0.04852,-0.02502,-0.02304,-0.05951,0.02411,0.03647,-0.01556,-0.02197,-0.01541,0.04166,-0.02914,-0.01572,0.01053,-0.03479
8.477,-0.00046,-0.05371,-0.05066,-0.0145,-0.02304,-0.06149,0.00778,0.07599,-0.01587,-0.02274,-0.01633,0.00137,-0.03082,-0.01678,0.01083,-0.04257
8.4775,-0.00061,-0.04913,-0.0473,-0.01221,-0.02487,-0.06363,0.00214,0.08072,-0.01526,-0.01999,-0.01663,-0.02563,-0.03128,-0.01923,0.01129,-0.04868
8.478,-0.00336,-0.04486,-0.03952,-0.01404,-0.0267,-0.0647,0.01755,0.05051,-0.0145,-0.01587,-0.01663,-0.02304,-0.03098,-0.0209,0.01083,-0.04974
8.4785,-0.00885,-0.04547,-0.03113,-0.01144,-0.02792,-0.06424,0.03876,0.01953,-0.01389,-0.0148,-0.01434,-0.01312,-0.03189,-0.0206,0.01022,-0.05112
8.479,-0.01251,-0.04684,-0.02518,-0.00443,-0.02869,-0.06363,0.04761,0.00793,-0.0145,-0.01617,-0.01328,-0.01724,-0.0322,-0.01999,0.01007,-0.05447
8.4795,-0.00946,-0.04074,-0.02029,-0.00015,-0.02762,-0.06256,0.04272,0.0032,-0.01389,-0.0174,-0.01205,-0.02731,-0.03204,-0.01953,0.01007,-0.05325
8.48,0.00153,-0.02609,-0.0145,0.00214,-0.0267,-0.06104,0.03204,-0.00549,-0.01282,-0.01816,-0.0119,-0.03021,-0.03067,-0.01938,0.00854,-0.04303
8.4805,0.01266,-0.01099,-0.00916,0.00732,-0.02533,-0.0592,0.02502,-0.01343,-0.01205,-0.01785,-0.01251,-0.02594,-0.0293,-0.01877,0.00854,-0.03174
8.481,0.01694,-0.00443,-0.00793,0.0145,-0.02548,-0.05737,0.02274,-0.01419,-0.01282,-0.01617,-0.01266,-0.02136,-0.02869,-0.01755,0.00961,-0.02533
8.4815,0.01495,-0.009,-0.01404,0.01892,-0.02548,-0.05661,0.02029,-0.01312,-0.01205,-0.01968,-0.01175,-0.0174,-0.02853,-0.0177,0.01175,-0.02365
8.482,0.01205,-0.01846,-0.02731,0.02014,-0.02563,-0.05554,0.01999,-0.01434,-0.0116,-0.01999,-0.01266,-0.01755,-0.0293,-0.01846,0.01282,-0.02243
8.4825,0.01068,-0.02777,-0.03967,0.02289,-0.02579,-0.05203,0.02411,-0.01419,-0.01251,-0.02045,-0.01572,-0.01953,-0.03113,-0.01923,0.0119,-0.02136
8.483,0.00885,-0.03571,-0.04486,0.02502,-0.02563,-0.04974,0.02716,-0.00824,-0.01343,-0.02029,-0.01755,-0.02014,-0.0322,-0.01953,0.01205,-0.02396
8.4835,0.00641,-0.04288,-0.0441,0.02289,-0.02487,-0.0502,0.01587,-0.00046,-0.01373,-0.02197,-0.01846,-0.01877,-0.03098,-0.02045,0.01282,-0.02945
8.484,0.00366,-0.04837,-0.04318,0.01816,-0.02472,-0.04974,-0.01297,0.00229,-0.01312,-0.02182,-0.01663,-0.01617,-0.0293,-0.02258,0.01373,-0.03433
8.4845,0.00198,-0.05219,-0.04456,0.01678,-0.0267,-0.04883,-0.04944,-0.00443,-0.01236,-0.02182,-0.01373,-0.01877,-0.02853,-0.02243,0.0148,-0.03738
8.485,0.00137,-0.05478,-0.04517,0.01434,-0.02975,-0.04745,-0.0766,-0.01938,-0.0119,-0.02014,-0.01358,-0.02625,-0.02853,-0.02045,0.01434,-0.03998
8.4855,0.00351,-0.05539,-0.04333,0.00305,-0.03174,-0.04623,-0.07782,-0.03693,-0.0116,-0.02014,-0.01572,-0.02747,-0.02792,-0.0177,0.01358,-0.04425
8.486,0.0061,-0.05264,-0.04074,-0.01556,-0.03082,-0.04486,-0.04517,-0.05768,-0.0116,-0.01953,-0.01633,-0.01251,-0.02594,-0.01648,0.01465,-0.04837
8.4865,0.0058,-0.04761,-0.04135,-0.02808,-0.02747,-0.04364,0.00839,-0.08087,-0.01144,-0.02121,-0.01404,0.0145,-0.02441,-0.01663,0.01541,-0.05051
8.487,0.00122,-0.04227,-0.04272,-0.02441,-0.0267,-0.04364,0.05035,-0.10452,-0.0119,-0.01984,-0.01068,0.03052,-0.02289,-0.0177,0.01389,-0.05325
8.4875,-0.00626,-0.03952,-0.04211,-0.00748,-0.02884,-0.04364,0.05966,-0.12299,-0.01251,-0.01877,-0.01038,0.02548,-0.02258,-0.01755,0.01389,-0.05753
8.488,-0.01129,-0.03815,-0.03906,0.00656,-0.03189,-0.04211,0.04456,-0.1297,-0.01328,-0.02197,-0.01358,0.0116,-0.02304,-0.01724,0.01389,-0.05951
8.4885,-0.01221,-0.03525,-0.03708,0.0061,-0.03494,-0.04044,0.03098,-0.11841,-0.01236,-0.02167,-0.01633,0.00992,-0.02228,-0.01678,0.0145,-0.05325
8.489,-0.01083,-0.03265,-0.03738,-0.0058,-0.03571,-0.03845,0.03204,-0.08621,-0.01114,-0.02182,-0.01648,0.01877,-0.02197,-0.01663,0.01343,-0.04456
8.4895,-0.00977,-0.03052,-0.03952,-0.01266,-0.03662,-0.03784,0.03937,-0.04181,-0.01099,-0.02045,-0.01465,0.02243,-0.02182,-0.01526,0.01526,-0.03815
8.49,-0.00961,-0.02762,-0.04135,-0.0087,-0.03571,-0.04013,0.03479,0.00259,-0.01022,-0.02045,-0.0148,0.01083,-0.02258,-0.01328,0.01816,-0.03418
8.4905,-0.01053,-0.02426,-0.04242,-0.00504,-0.03525,-0.04303,0.00595,0.047,-0.00992,-0.02075,-0.01633,-0.00839,-0.02197,-0.01266,0.02045,-0.03357
8.491,-0.01099,-0.02365,-0.04364,-0.00977,-0.03372,-0.04501,-0.0386,0.09598,-0.00977,-0.02213,-0.01648,-0.02335,-0.01892,-0.01236,0.01892,-0.03418
8.4915,-0.0119,-0.02594,-0.0444,-0.01755,-0.0322,-0.04623,-0.07523,0.1413,-0.00992,-0.02411,-0.01511,-0.02609,-0.01541,-0.01114,0.0148,-0.03479
