time,RectFemL,VastusMedL,VastusLatL,TibAntL,HamMedL,HamLatL,GastroMedL,GastroLatL,RectFemR,VastusMedR,VastusLatR,TibAntR,HamMedR,HamLatR,GastroMedR,GastroLatR
5.12,0.01892,-0.04562,0.00031,0.53223,-0.01923,-0.04196,-0.00641,-0.0235,0.32303,-0.13306,0.01892,0.16342,-0.0386,-0.01648,0.0061,-0.04852
5.1205,0.00793,-0.03876,-0.04028,0.34622,-0.02594,-0.04364,-0.00687,-0.01938,0.22568,-0.17227,-0.0116,0.38345,-0.0354,-0.0116,0.00671,-0.04913
5.121,0.00961,-0.0351,-0.12299,-0.03983,-0.03494,-0.04395,-0.0058,-0.01419,0.09033,-0.18326,-0.05493,0.39246,-0.03113,-0.01038,0.00854,-0.04852
5.1215,0.01404,-0.03418,-0.18661,-0.38925,-0.04181,-0.04288,-0.0061,-0.01266,-0.05859,-0.17792,-0.10178,0.21713,-0.03021,-0.01511,0.01022,-0.04456
5.122,0.01251,-0.03418,-0.15686,-0.52826,-0.04227,-0.03922,-0.00916,-0.01266,-0.18646,-0.16861,-0.12573,0.02396,-0.02853,-0.02243,0.00854,-0.04028
5.1225,0.00473,-0.03235,-0.0386,-0.43396,-0.03479,-0.03479,-0.01205,-0.01053,-0.26108,-0.14786,-0.11139,-0.07629,-0.02594,-0.03052,0.00504,-0.03723
5.123,-0.00259,-0.02869,0.07843,-0.14511,-0.02289,-0.03403,-0.01495,-0.0061,-0.27252,-0.10864,-0.07431,-0.10162,-0.02029,-0.03571,0.00046,-0.03693
5.1235,-0.00565,-0.02426,0.12711,0.25299,-0.01343,-0.03754,-0.01755,-0.00366,-0.23727,-0.06271,-0.04059,-0.09506,-0.01465,-0.03479,-0.00229,-0.0383
5.124,-0.00137,-0.02518,0.11475,0.57465,-0.00885,-0.04044,-0.02029,-0.00275,-0.18707,-0.02304,-0.02441,-0.05463,-0.01022,-0.02533,-0.00244,-0.04303
5.1245,0.01114,-0.03204,0.07858,0.63126,-0.00977,-0.04105,-0.02319,-0.00275,-0.14709,0.00793,-0.01694,0.02991,-0.00763,-0.01022,-0.00122,-0.04761
5.125,0.02579,-0.03647,0.04501,0.4364,-0.01389,-0.04303,-0.0267,-0.00214,-0.12131,0.03494,-0.00763,0.12909,-0.01266,0.00153,0.0,-0.0499
5.1255,0.02899,-0.03006,0.02502,0.20218,-0.01999,-0.04639,-0.03204,-0.00275,-0.10651,0.05783,0.00031,0.20966,-0.02853,0.0058,0.00015,-0.04868
5.126,0.01556,-0.01343,0.01053,0.10757,-0.02457,-0.04898,-0.03845,-0.0058,-0.09537,0.07309,0.00534,0.25986,-0.04868,0.00168,0.00183,-0.04623
5.1265,-0.00504,0.0032,-0.01282,0.1413,-0.02197,-0.04837,-0.04456,-0.01068,-0.08347,0.0824,0.01068,0.26505,-0.06226,-0.00626,0.00336,-0.04257
5.127,-0.02304,0.01389,-0.05127,0.17685,-0.01343,-0.04715,-0.04929,-0.01312,-0.07263,0.08789,0.01938,0.19928,-0.06287,-0.01556,0.00534,-0.03998
5.1275,-0.03525,0.02045,-0.09277,0.13992,-0.00626,-0.04807,-0.04837,-0.01266,-0.06897,0.08713,0.02258,0.06866,-0.05463,-0.02319,0.00763,-0.03708
5.128,-0.04379,0.02609,-0.12619,0.06927,-0.00534,-0.0499,-0.03418,-0.01099,-0.07629,0.07278,0.01709,-0.0676,-0.04639,-0.02579,0.01144,-0.03433
5.1285,-0.04105,0.02991,-0.14435,0.0264,-0.00809,-0.05188,-0.00488,-0.00916,-0.0856,0.05066,0.00626,-0.14252,-0.04059,-0.02579,0.01236,-0.03571
5.129,-0.02411,0.0296,-0.14465,0.00122,-0.0177,-0.05325,0.02304,-0.009,-0.09033,0.03189,-0.00198,-0.13611,-0.03723,-0.02747,0.00961,-0.03983
5.1295,-0.00305,0.02457,-0.12497,-0.04395,-0.03036,-0.0528,0.03021,-0.00839,-0.08896,0.02426,-0.00504,-0.09018,-0.03494,-0.03067,0.00641,-0.04364
5.13,0.01053,0.01114,-0.09247,-0.10529,-0.04349,-0.04883,0.01495,-0.00717,-0.0795,0.02228,-0.00381,-0.0499,-0.03555,-0.03296,0.00519,-0.0444
5.1305,0.01114,-0.01068,-0.05661,-0.14633,-0.05386,-0.04272,-0.00412,-0.00488,-0.0528,0.01846,0.0,-0.02411,-0.03494,-0.0351,0.00931,-0.04349
5.131,0.00687,-0.0354,-0.03448,-0.15991,-0.05585,-0.03983,-0.01282,-0.00534,-0.00702,0.01358,0.0032,0.00534,-0.03326,-0.03754,0.01328,-0.04227
5.1315,0.00565,-0.05432,-0.02975,-0.17548,-0.05295,-0.0386,-0.01328,-0.0087,0.04532,0.01114,0.00671,0.04044,-0.03128,-0.04028,0.0145,-0.04059
5.132,0.01205,-0.06271,-0.03693,-0.21683,-0.05325,-0.03708,-0.01511,-0.01236,0.08408,0.01266,0.00443,0.0563,-0.03067,-0.04105,0.01343,-0.03784
5.1325,0.02289,-0.05798,-0.04684,-0.27817,-0.05661,-0.03448,-0.01907,-0.01648,0.1059,0.01831,-0.00305,0.04105,-0.03143,-0.04013,0.01205,-0.03494
5.133,0.02808,-0.0441,-0.05157,-0.34134,-0.05966,-0.03189,-0.01953,-0.01694,0.12405,0.02518,-0.00809,0.01511,-0.03311,-0.0386,0.01053,-0.03372
5.1335,0.01923,-0.0322,-0.05432,-0.41306,-0.05432,-0.03189,-0.01678,-0.01511,0.14511,0.03235,-0.00336,0.00641,-0.03464,-0.04044,0.00763,-0.03433
5.134,-0.00595,-0.03342,-0.05997,-0.52246,-0.04227,-0.03311,-0.01633,-0.01175,0.15411,0.03494,0.00854,0.01892,-0.03799,-0.04227,0.00488,-0.0354
5.1345,-0.03845,-0.04501,-0.06378,-0.63171,-0.02899,-0.03387,-0.0206,-0.00839,0.13184,0.03525,0.02182,0.03616,-0.04044,-0.03967,0.00534,-0.03754
5.135,-0.06454,-0.05493,-0.06302,-0.61951,-0.02197,-0.03479,-0.02518,-0.00473,0.07355,0.03738,0.03769,0.05035,-0.04028,-0.03021,0.00839,-0.0412
5.1355,-0.07446,-0.05493,-0.06012,-0.40527,-0.02045,-0.03586,-0.02579,-0.00092,-0.0058,0.03891,0.06058,0.06317,-0.03799,-0.01877,0.0116,-0.04578
5.136,-0.06882,-0.05234,-0.065,-0.04761,-0.02289,-0.03616,-0.02426,0.00122,-0.08255,0.02716,0.07629,0.07935,-0.0354,-0.00916,0.01144,-0.04745
5.1365,-0.05966,-0.05493,-0.08652,0.31281,-0.02625,-0.03769,-0.02228,0.00183,-0.13382,0.00092,0.06516,0.09689,-0.03326,-0.00443,0.00961,-0.04791
5.137,-0.05249,-0.06592,-0.12009,0.55618,-0.03128,-0.03967,-0.02182,0.00015,-0.14801,-0.02441,0.02609,0.10757,-0.03311,-0.00214,0.00748,-0.04776
5.1375,-0.03967,-0.08087,-0.14755,0.62393,-0.03738,-0.04196,-0.02136,-0.00061,-0.13184,-0.03082,-0.01755,0.10498,-0.03372,-0.00351,0.00641,-0.04578
5.138,-0.01297,-0.09277,-0.15274,0.52078,-0.04272,-0.04501,-0.02075,0.0,-0.09918,-0.02457,-0.04761,0.06973,-0.03479,-0.009,0.00595,-0.04379
5.1385,0.01755,-0.10101,-0.14359,0.30487,-0.0473,-0.04776,-0.0206,0.00015,-0.06241,-0.02441,-0.06317,-0.02914,-0.03525,-0.01572,0.00458,-0.04227
5.139,0.03204,-0.10361,-0.14954,0.05768,-0.04669,-0.05051,-0.02075,-0.00092,-0.02716,-0.03845,-0.06638,-0.1767,-0.03464,-0.01968,0.00443,-0.04135
5.1395,0.02365,-0.10178,-0.20264,-0.14328,-0.04395,-0.05096,-0.02014,-0.00153,0.00153,-0.05539,-0.05463,-0.27557,-0.03296,-0.01968,0.00641,-0.03937
5.14,0.00656,-0.09323,-0.29739,-0.24017,-0.04318,-0.04761,-0.01953,0.00046,0.02213,-0.06653,-0.03036,-0.24399,-0.03204,-0.01694,0.00824,-0.03708
5.1405,-0.0032,-0.07599,-0.3833,-0.21408,-0.04547,-0.04425,-0.01801,0.00275,0.04211,-0.07172,-0.00595,-0.13382,-0.03265,-0.01328,0.00977,-0.03708
5.141,-0.00839,-0.05341,-0.38177,-0.0943,-0.04562,-0.04318,-0.01694,0.00244,0.06821,-0.07355,0.00305,-0.07523,-0.03342,-0.00961,0.01053,-0.04013
5.1415,-0.01602,-0.0354,-0.22476,0.06073,-0.03967,-0.04501,-0.0145,0.00183,0.09857,-0.07309,-0.00153,-0.10361,-0.03342,-0.00931,0.0119,-0.04227
5.142,-0.02594,-0.02808,0.07339,0.17853,-0.03342,-0.04593,-0.01175,0.00259,0.12222,-0.07172,-0.00992,-0.12177,-0.03357,-0.01099,0.01221,-0.04242
5.1425,-0.0293,-0.0296,0.38788,0.20645,-0.03113,-0.04501,-0.00992,0.00504,0.13184,-0.0708,-0.01083,-0.05508,-0.03525,-0.01526,0.01175,-0.0412
5.143,-0.0209,-0.03601,0.57312,0.15991,-0.03342,-0.04501,-0.00977,0.00687,0.13535,-0.0708,-0.01053,0.02228,-0.0386,-0.02502,0.00961,-0.04196
5.1435,-0.00671,-0.04456,0.58121,0.10849,-0.03708,-0.04562,-0.0119,0.00595,0.1442,-0.06989,-0.0206,-0.01297,-0.03937,-0.04944,0.00473,-0.04425
5.144,-0.00229,-0.0531,0.46783,0.09262,-0.03433,-0.04395,-0.01678,0.00061,0.15762,-0.06943,-0.04639,-0.14221,-0.03952,-0.08331,0.00092,-0.04776
5.1445,-0.0148,-0.06134,0.31616,0.08408,-0.02533,-0.04242,-0.02228,-0.00565,0.15915,-0.06912,-0.07996,-0.22659,-0.03952,-0.10742,0.00015,-0.04868
5.145,-0.04059,-0.06851,0.18341,0.04578,-0.01602,-0.04242,-0.02518,-0.00793,0.13199,-0.07294,-0.10513,-0.18127,-0.03967,-0.10483,0.00244,-0.04669
5.1455,-0.06485,-0.07446,0.0885,-0.01816,-0.01007,-0.04181,-0.02563,-0.00717,0.07767,-0.08148,-0.11002,-0.03052,-0.03922,-0.08255,0.00549,-0.0441
5.146,-0.07645,-0.08011,0.02548,-0.08194,-0.00626,-0.03998,-0.02396,-0.00595,0.01617,-0.09415,-0.09018,0.16739,-0.03784,-0.05676,0.00793,-0.04028
5.1465,-0.07416,-0.0853,-0.01862,-0.13275,-0.00259,-0.03891,-0.02274,-0.0058,-0.02548,-0.11246,-0.05096,0.32578,-0.03662,-0.03937,0.00961,-0.03815
5.147,-0.0647,-0.09369,-0.04791,-0.17319,-0.00107,-0.0386,-0.02136,-0.00534,-0.03555,-0.13367,-0.00717,0.33264,-0.03677,-0.02914,0.00763,-0.03754
5.1475,-0.056,-0.10315,-0.06271,-0.19897,-0.00366,-0.03799,-0.01877,-0.00443,-0.02106,-0.15198,0.01709,0.15747,-0.03693,-0.02548,0.00763,-0.03983
5.148,-0.05081,-0.10773,-0.06317,-0.19638,-0.00595,-0.03952,-0.01556,-0.00351,0.00351,-0.16342,0.01282,-0.05844,-0.03586,-0.02502,0.00641,-0.04333
5.1485,-0.04562,-0.103,-0.05325,-0.16373,-0.01038,-0.04196,-0.01389,-0.00366,0.03128,-0.16861,-0.01266,-0.13916,-0.03326,-0.02182,0.00641,-0.04547
5.149,-0.03281,-0.08896,-0.03922,-0.1178,-0.01373,-0.04379,-0.01328,-0.00534,0.06699,-0.16647,-0.05203,-0.06683,-0.03159,-0.01465,0.00778,-0.04547
5.1495,-0.01312,-0.07141,-0.0296,-0.08392,-0.01495,-0.04562,-0.01404,-0.00732,0.10345,-0.15198,-0.0943,0.02899,-0.03067,-0.00824,0.00992,-0.04547
5.15,0.00366,-0.05661,-0.03448,-0.07294,-0.01389,-0.04822,-0.01465,-0.00763,0.11993,-0.12604,-0.11749,0.047,-0.03052,-0.00641,0.01068,-0.04379
5.1505,0.01114,-0.04822,-0.06287,-0.07645,-0.01358,-0.04898,-0.01572,-0.00656,0.09369,-0.10742,-0.1059,0.0032,-0.03036,-0.0061,0.01144,-0.04379
5.151,0.01251,-0.04211,-0.12695,-0.07324,-0.02136,-0.04669,-0.01694,-0.00427,0.02777,-0.10803,-0.06927,-0.03174,-0.03021,-0.00473,0.01251,-0.0441
5.1515,0.01541,-0.03159,-0.22919,-0.05112,-0.03479,-0.04288,-0.01862,-0.00168,-0.05508,-0.11032,-0.03281,-0.00839,-0.02914,-0.00061,0.01297,-0.04532
5.152,0.02426,-0.0177,-0.32516,-0.01541,-0.05051,-0.03891,-0.02014,-0.00168,-0.13092,-0.0882,-0.01709,0.06912,-0.0267,0.00076,0.01221,-0.04532
5.1525,0.03922,-0.00824,-0.33447,0.01938,-0.06088,-0.03922,-0.0209,-0.00671,-0.19791,-0.04562,-0.02075,0.13916,-0.02487,-0.00244,0.00992,-0.0444
5.153,0.05386,-0.00946,-0.23651,0.02701,-0.06531,-0.04196,-0.02045,-0.01526,-0.26337,-0.00626,-0.03403,0.13229,-0.02365,-0.00824,0.00931,-0.04333
5.1535,0.06256,-0.01556,-0.10071,-0.01144,-0.06332,-0.04318,-0.01999,-0.02228,-0.32318,0.01175,-0.04883,0.05768,-0.02396,-0.01236,0.00961,-0.04257
5.154,0.06516,-0.01953,-0.00732,-0.08682,-0.05844,-0.04044,-0.02075,-0.02457,-0.36118,0.01709,-0.05844,-0.00015,-0.0235,-0.01114,0.00931,-0.0441
5.1545,0.06699,-0.02151,0.02792,-0.1561,-0.05234,-0.03723,-0.02136,-0.02533,-0.36423,0.02594,-0.05493,0.01358,-0.02167,-0.00412,0.01038,-0.04501
5.155,0.06989,-0.02411,0.02686,-0.20462,-0.04379,-0.03845,-0.01724,-0.02869,-0.3331,0.04822,-0.0386,0.04898,-0.02029,0.00641,0.0116,-0.04257
5.1555,0.07462,-0.02182,-0.00336,-0.25543,-0.03677,-0.04105,-0.00671,-0.02853,-0.27435,0.07874,-0.02563,0.0145,-0.02197,0.01602,0.0116,-0.03952
5.156,0.07843,-0.01053,-0.07614,-0.32623,-0.03357,-0.04196,0.00275,-0.01587,-0.19531,0.10269,-0.03433,-0.09537,-0.02533,0.02228,0.009,-0.0383
5.1565,0.07706,0.00443,-0.17822,-0.37231,-0.03326,-0.04181,0.00381,0.01038,-0.11276,0.10895,-0.06439,-0.18112,-0.02533,0.01892,0.00687,-0.04089
5.157,0.06989,0.01083,-0.24246,-0.26031,-0.03357,-0.04379,-0.00259,0.03265,-0.05356,0.09613,-0.09598,-0.14099,-0.02213,0.01007,0.00671,-0.04333
5.1575,0.05966,0.00473,-0.19211,0.09445,-0.03372,-0.04669,-0.00916,0.03143,-0.03647,0.0621,-0.10788,0.01556,-0.01862,-0.00015,0.00839,-0.0444
5.158,0.056,-0.00793,-0.04623,0.50522,-0.03433,-0.05066,-0.01114,0.01068,-0.05219,0.01221,-0.08789,0.16052,-0.01816,-0.00351,0.009,-0.04135
5.1585,0.06332,-0.01785,0.08911,0.62866,-0.03586,-0.05524,-0.01144,-0.00839,-0.07156,-0.03937,-0.03891,0.16647,-0.01785,-0.00107,0.00839,-0.03845
5.159,0.07309,-0.02365,0.13519,0.39047,-0.03723,-0.0589,-0.0119,-0.01434,-0.07294,-0.07401,0.01511,0.04059,-0.0177,-0.00015,0.01007,-0.03738
5.1595,0.06775,-0.02991,0.11032,0.10223,-0.03632,-0.06149,-0.01297,-0.00977,-0.05295,-0.07782,0.05005,-0.08286,-0.01907,-0.00366,0.0116,-0.03754
5.16,0.04517,-0.04028,0.07401,0.05066,-0.03464,-0.06561,-0.01434,-0.00793,-0.02426,-0.05371,0.05783,-0.10132,-0.02136,-0.00977,0.01221,-0.0383
5.1605,0.01785,-0.05463,0.0502,0.18768,-0.03387,-0.06805,-0.01694,-0.00854,-0.00076,-0.00824,0.0412,-0.04349,-0.02197,-0.01266,0.01175,-0.03876
5.161,-0.00214,-0.06989,0.02991,0.29602,-0.03479,-0.0676,-0.01968,-0.00946,0.009,0.05051,0.00626,0.00168,-0.02243,-0.01068,0.00992,-0.03998
5.1615,-0.01831,-0.07782,0.00366,0.27679,-0.04074,-0.06485,-0.01984,-0.00916,0.00824,0.11383,-0.03357,0.0145,-0.0235,-0.00763,0.00793,-0.04272
5.162,-0.0386,-0.07507,-0.02289,0.1828,-0.0502,-0.06317,-0.01831,-0.00977,0.01175,0.16403,-0.0563,0.03815,-0.02502,-0.00763,0.00656,-0.04608
5.1625,-0.05798,-0.06531,-0.02045,0.09338,-0.05615,-0.06271,-0.01541,-0.01099,0.02945,0.18967,-0.04883,0.08408,-0.02747,-0.01068,0.00519,-0.04745
5.163,-0.06256,-0.05341,0.02747,0.03311,-0.05219,-0.06149,-0.01266,-0.01144,0.05768,0.19089,-0.01938,0.10239,-0.02899,-0.01144,0.00534,-0.04639
5.1635,-0.05417,-0.04623,0.08545,-0.0119,-0.0415,-0.05951,-0.01129,-0.01114,0.08759,0.18051,0.01968,0.06424,-0.03052,-0.00717,0.00702,-0.04456
5.164,-0.0499,-0.04654,0.09628,-0.05554,-0.03128,-0.0563,-0.01114,-0.01007,0.11459,0.16678,0.0563,0.01175,-0.03159,-0.00046,0.00763,-0.04333
5.1645,-0.05814,-0.04715,0.0499,-0.09354,-0.02472,-0.0531,-0.01129,-0.00763,0.13077,0.15076,0.08209,-0.00046,-0.03342,0.00336,0.00565,-0.04379
5.165,-0.06805,-0.03876,-0.01144,-0.11292,-0.01907,-0.05203,-0.01114,-0.00565,0.12512,0.13062,0.08804,0.02182,-0.03738,0.00427,0.00443,-0.04547
5.1655,-0.06134,-0.01404,-0.05539,-0.10803,-0.01556,-0.05417,-0.00977,-0.00443,0.10254,0.09872,0.08041,0.03494,-0.03967,0.00229,0.00305,-0.04593
5.166,-0.03616,0.02228,-0.08347,-0.08316,-0.01511,-0.05875,-0.00885,-0.0032,0.08194,0.0502,0.07599,0.00961,-0.04089,-0.00122,0.0029,-0.04501
5.1665,-0.01083,0.0528,-0.10757,-0.05341,-0.01953,-0.06378,-0.00824,0.0,0.06943,-0.01068,0.07813,-0.03937,-0.0412,-0.00717,0.0029,-0.04379
5.167,-0.00641,0.06287,-0.12222,-0.05081,-0.02609,-0.06668,-0.0087,0.00259,0.056,-0.07736,0.07385,-0.07874,-0.04211,-0.01389,0.00458,-0.04379
5.1675,-0.02121,0.05035,-0.11322,-0.09674,-0.02853,-0.06638,-0.0119,0.00443,0.0383,-0.13931,0.0502,-0.08957,-0.04333,-0.01846,0.00748,-0.04562
5.168,-0.03571,0.02792,-0.08102,-0.18387,-0.02411,-0.06516,-0.01663,0.00259,0.02914,-0.18677,0.01587,-0.07019,-0.04318,-0.02029,0.00885,-0.04745
5.1685,-0.04105,0.01007,-0.04135,-0.30243,-0.01343,-0.0647,-0.01938,-0.00137,0.03448,-0.21088,-0.01526,-0.02075,-0.04379,-0.02151,0.00839,-0.04608
5.169,-0.0412,0.00366,-0.00702,-0.4631,-0.00366,-0.06546,-0.02243,-0.00656,0.04227,-0.20599,-0.04318,0.0618,-0.04333,-0.02304,0.00778,-0.0444
5.1695,-0.0354,0.00595,0.01434,-0.64972,-0.00229,-0.06607,-0.02319,-0.00946,0.03815,-0.18433,-0.07446,0.16586,-0.0412,-0.02167,0.00717,-0.04227
5.17,-0.01862,0.00748,0.01816,-0.74371,-0.0145,-0.06531,-0.0209,-0.00977,0.0206,-0.15137,-0.09689,0.24353,-0.04044,-0.01465,0.00763,-0.04105
5.1705,0.00244,0.0029,0.01099,-0.54779,-0.03708,-0.06561,-0.0145,-0.009,0.0,-0.10498,-0.09033,0.2269,-0.04028,-0.00763,0.00763,-0.03998
5.171,0.009,-0.0087,0.00458,0.03082,-0.0589,-0.0679,-0.00732,-0.00885,-0.01068,-0.04837,-0.06302,0.11353,-0.04074,-0.00671,0.00717,-0.04059
5.1715,-0.00916,-0.02594,0.00412,0.75104,-0.06683,-0.06943,-0.00473,-0.01022,-0.01358,0.00305,-0.0502,0.00137,-0.04059,-0.01266,0.00595,-0.04272
5.172,-0.04349,-0.04517,0.00061,1.15479,-0.05966,-0.07111,-0.00778,-0.01038,-0.02502,0.03693,-0.06943,-0.04318,-0.03891,-0.02029,0.00626,-0.04456
5.1725,-0.07843,-0.06302,-0.0177,0.99823,-0.04807,-0.07141,-0.01175,-0.00748,-0.05585,0.04913,-0.10162,-0.09216,-0.03693,-0.02594,0.00778,-0.04486
5.173,-0.10483,-0.07614,-0.0473,0.50537,-0.04395,-0.07111,-0.01343,-0.00443,-0.09903,0.04456,-0.12039,-0.2327,-0.03479,-0.02899,0.00946,-0.04318
5.1735,-0.11871,-0.08301,-0.07431,0.09247,-0.05035,-0.07111,-0.01312,-0.00473,-0.13962,0.02502,-0.11566,-0.39566,-0.03433,-0.03174,0.00992,-0.04379
5.174,-0.11215,-0.08591,-0.08698,-0.05783,-0.05768,-0.06821,-0.01358,-0.00793,-0.16083,-0.00076,-0.09094,-0.42664,-0.03326,-0.0322,0.00793,-0.04517
5.1745,-0.08652,-0.08698,-0.08835,-0.0441,-0.0592,-0.06256,-0.01617,-0.01022,-0.15839,-0.02167,-0.0502,-0.28137,-0.03174,-0.03067,0.00565,-0.04608
5.175,-0.05966,-0.08392,-0.08362,-0.01083,-0.05234,-0.05707,-0.01892,-0.00931,-0.14313,-0.03525,-0.00748,-0.06271,-0.03143,-0.02808,0.00397,-0.04486
5.1755,-0.04791,-0.07919,-0.0737,-0.00488,-0.04395,-0.05386,-0.01877,-0.00732,-0.12848,-0.04532,0.02136,0.09003,-0.0325,-0.02609,0.00427,-0.04349
5.176,-0.04776,-0.07492,-0.05341,-0.01511,-0.03693,-0.05142,-0.01678,-0.00702,-0.11276,-0.05341,0.02594,0.08698,-0.0325,-0.02411,0.0061,-0.04257
5.1765,-0.04501,-0.07599,-0.03128,-0.0264,-0.03265,-0.04852,-0.01526,-0.0087,-0.08301,-0.05447,0.01083,-0.05219,-0.0322,-0.02319,0.00793,-0.04196
5.177,-0.0322,-0.08179,-0.04166,-0.02441,-0.02716,-0.04532,-0.01526,-0.01068,-0.03632,-0.04013,-0.00992,-0.17761,-0.03235,-0.02426,0.00671,-0.04013
5.1775,-0.0177,-0.09094,-0.11093,0.00626,-0.01907,-0.04562,-0.0148,-0.01282,0.01587,-0.01389,-0.02563,-0.13016,-0.03281,-0.0267,0.00412,-0.03891
5.178,-0.00977,-0.10284,-0.2063,0.05524,-0.01251,-0.04898,-0.01556,-0.01328,0.05508,0.00854,-0.03342,0.06668,-0.03296,-0.0293,0.0,-0.03845
5.1785,-0.00473,-0.12009,-0.23834,0.07538,-0.01328,-0.05341,-0.01907,-0.01312,0.07584,0.0174,-0.0325,0.22125,-0.03265,-0.02914,0.0,-0.03937
5.179,0.00366,-0.14038,-0.16281,0.03326,-0.01602,-0.05676,-0.0235,-0.01022,0.08652,0.01694,-0.02548,0.21042,-0.03403,-0.02731,0.00381,-0.03967
5.1795,0.01404,-0.15518,-0.03098,-0.04593,-0.01541,-0.05707,-0.02563,-0.00534,0.09689,0.02335,-0.00977,0.09949,-0.0354,-0.02563,0.00809,-0.03952
5.18,0.0238,-0.15045,0.07401,-0.11032,-0.00916,-0.05249,-0.02457,0.00015,0.10086,0.0412,0.01968,0.01678,-0.03632,-0.02335,0.01022,-0.0383
5.1805,0.03494,-0.12848,0.12619,-0.14511,-0.00336,-0.04562,-0.02411,0.00214,0.08438,0.05463,0.06302,0.00839,-0.03464,-0.02121,0.00977,-0.04028
5.181,0.05249,-0.09964,0.14099,-0.16235,-0.00565,-0.04135,-0.02563,0.00046,0.04776,0.05112,0.1059,0.03922,-0.03265,-0.02151,0.00717,-0.04135
5.1815,0.06302,-0.07843,0.12894,-0.14511,-0.0119,-0.04242,-0.02899,-0.00031,0.00732,0.03311,0.12924,0.07126,-0.0322,-0.02579,0.00717,-0.04074
5.182,0.04654,-0.06653,0.09109,-0.06012,-0.02045,-0.04745,-0.0296,-0.00214,-0.02441,0.01251,0.12939,0.08987,-0.03342,-0.03189,0.00732,-0.03845
5.1825,0.00031,-0.05722,0.04868,0.06546,-0.02853,-0.05035,-0.02151,-0.00778,-0.05051,-0.00443,0.11505,0.09186,-0.03281,-0.03952,0.00549,-0.03662
5.183,-0.04562,-0.04288,0.02625,0.14175,-0.03555,-0.04883,0.00229,-0.01297,-0.06912,-0.01846,0.0943,0.07629,-0.03128,-0.05096,0.00549,-0.03754
5.1835,-0.06302,-0.02792,0.01465,0.10422,-0.0415,-0.04623,0.0322,-0.00687,-0.06805,-0.03479,0.06729,0.05234,-0.0296,-0.0679,0.00717,-0.0386
5.184,-0.05295,-0.01984,-0.02762,-0.01389,-0.04501,-0.04517,0.04379,0.00702,-0.04074,-0.05463,0.03632,0.03403,-0.02884,-0.08041,0.00809,-0.04028
5.1845,-0.03693,-0.01938,-0.12268,-0.11566,-0.04608,-0.04486,0.0264,0.01389,-0.00092,-0.07324,0.00778,0.0267,-0.0296,-0.07706,0.00854,-0.04059
5.185,-0.02457,-0.0235,-0.22949,-0.14008,-0.04745,-0.0444,-0.00351,0.00519,0.02975,-0.08286,-0.01526,0.02411,-0.02975,-0.05646,0.01007,-0.04135
5.1855,-0.01221,-0.02808,-0.2597,-0.11536,-0.05173,-0.04257,-0.02167,-0.00839,0.03922,-0.07874,-0.03754,0.01526,-0.02808,-0.0322,0.0116,-0.04166
5.186,0.00351,-0.0293,-0.18509,-0.11871,-0.06058,-0.04196,-0.02167,-0.01556,0.03204,-0.06485,-0.06592,-0.00671,-0.02563,-0.01297,0.01205,-0.04089
5.1865,0.0238,-0.02609,-0.07584,-0.17426,-0.06836,-0.04471,-0.01526,-0.01343,0.01648,-0.04684,-0.09766,-0.03616,-0.02365,0.00046,0.01114,-0.04013
5.187,0.04105,-0.01831,-0.00916,-0.22919,-0.07004,-0.04807,-0.0087,-0.00717,-0.00305,-0.03525,-0.12085,-0.05981,-0.02213,0.00656,0.00992,-0.04074
5.1875,0.04822,-0.01175,-0.00107,-0.233,-0.06485,-0.05066,-0.00275,-0.00275,-0.0267,-0.03372,-0.12695,-0.07111,-0.02213,0.00229,0.00931,-0.04135
5.188,0.04807,-0.00854,-0.02426,-0.20111,-0.0531,-0.05112,0.00153,-0.00061,-0.0528,-0.03815,-0.11658,-0.07355,-0.02502,-0.00992,0.00748,-0.04227
5.1885,0.04578,-0.00793,-0.05585,-0.17349,-0.03815,-0.04745,-0.00015,-0.00076,-0.0798,-0.03555,-0.08957,-0.0705,-0.0296,-0.02243,0.00488,-0.04471
5.189,0.04303,-0.00519,-0.07858,-0.15442,-0.02792,-0.04669,-0.00519,-0.00046,-0.10178,-0.02686,-0.04517,-0.065,-0.03235,-0.02716,0.0029,-0.04532
5.1895,0.03784,0.00519,-0.08163,-0.12665,-0.02441,-0.04669,-0.00717,0.00092,-0.10239,-0.02472,0.00717,-0.06897,-0.03311,-0.02441,0.0032,-0.04456
5.19,0.03433,0.02579,-0.06958,-0.09125,-0.02289,-0.0499,-0.00641,0.00397,-0.06592,-0.03677,0.04654,-0.08286,-0.03296,-0.01678,0.00504,-0.04303
5.1905,0.03784,0.04822,-0.05844,-0.06561,-0.02136,-0.05295,-0.00732,0.00641,0.00366,-0.05341,0.05859,-0.08682,-0.03357,-0.00488,0.00763,-0.04272
5.191,0.04868,0.05951,-0.05447,-0.05615,-0.01907,-0.05432,-0.01251,0.00824,0.0824,-0.06332,0.04379,-0.06393,-0.03464,0.01099,0.00946,-0.04364
5.1915,0.05722,0.05569,-0.0412,-0.05508,-0.01801,-0.05295,-0.02213,0.00717,0.14679,-0.06638,0.01602,-0.03403,-0.03418,0.02075,0.01038,-0.04364
5.192,0.05173,0.04898,-0.00168,-0.04913,-0.02075,-0.05035,-0.03128,0.00046,0.18478,-0.07141,-0.00702,-0.02808,-0.03326,0.01694,0.01099,-0.04303
5.1925,0.03098,0.04593,0.05768,-0.03448,-0.02518,-0.04761,-0.03525,-0.01572,0.19974,-0.07935,-0.01678,-0.0383,-0.03204,0.00336,0.01068,-0.04227
5.193,0.0061,0.04288,0.112,-0.01129,-0.02655,-0.04608,-0.03174,-0.04379,0.19882,-0.08224,-0.01053,-0.02731,-0.03098,-0.0116,0.01053,-0.04242
5.1935,-0.01266,0.03006,0.1384,0.02197,-0.02609,-0.04486,-0.02945,-0.07492,0.177,-0.07919,0.01068,0.01495,-0.03159,-0.02396,0.01129,-0.04288
5.194,-0.0267,0.00809,0.13367,0.06561,-0.02441,-0.04272,-0.0354,-0.09567,0.12543,-0.07782,0.03891,0.05615,-0.03387,-0.03265,0.00977,-0.04456
5.1945,-0.03845,-0.01572,0.10452,0.10635,-0.02304,-0.03952,-0.04959,-0.09918,0.05127,-0.07843,0.06363,0.0705,-0.03769,-0.03937,0.00732,-0.04684
5.195,-0.04852,-0.02899,0.05661,0.11536,-0.0209,-0.03738,-0.06119,-0.09186,-0.01175,-0.07599,0.0737,0.06622,-0.03983,-0.04288,0.00702,-0.04807
5.1955,-0.05127,-0.02869,-0.00244,0.06927,-0.01541,-0.03754,-0.06516,-0.0795,-0.03174,-0.06241,0.06775,0.05875,-0.03891,-0.04547,0.00885,-0.04623
5.196,-0.04471,-0.02182,-0.05051,-0.01755,-0.00977,-0.03891,-0.06088,-0.05173,-0.01022,-0.03677,0.04959,0.05203,-0.0354,-0.04684,0.01022,-0.04242
5.1965,-0.03281,-0.01785,-0.07095,-0.0975,-0.00412,-0.03784,-0.04669,0.00412,0.0145,-0.01129,0.02655,0.05875,-0.03281,-0.04425,0.01129,-0.03876
5.197,-0.02625,-0.02274,-0.07294,-0.12726,0.00153,-0.03525,-0.02274,0.08728,0.00168,-0.00076,0.00717,0.10071,-0.0325,-0.03708,0.01282,-0.03723
5.1975,-0.02731,-0.03281,-0.07782,-0.10742,0.00244,-0.03265,0.0029,0.168,-0.06165,-0.01617,-0.00809,0.16891,-0.03494,-0.02869,0.01373,-0.03723
5.198,-0.0322,-0.04089,-0.08759,-0.0705,-0.00595,-0.03174,0.02243,0.1973,-0.15503,-0.05096,-0.02274,0.21027,-0.03876,-0.02274,0.01328,-0.03906
5.1985,-0.04013,-0.04211,-0.08728,-0.04669,-0.02167,-0.03159,0.03372,0.14847,-0.24307,-0.09125,-0.03387,0.19592,-0.04013,-0.01831,0.01053,-0.04257
5.199,-0.04761,-0.03784,-0.07462,-0.03799,-0.03235,-0.03128,0.0322,0.06256,-0.3067,-0.12207,-0.03586,0.15518,-0.03952,-0.01236,0.00977,-0.0444
5.1995,-0.04883,-0.03189,-0.06485,-0.03052,-0.03494,-0.03326,0.01648,0.01129,-0.33493,-0.14496,-0.03357,0.12268,-0.03754,-0.00275,0.00977,-0.0444
5.2,-0.0415,-0.02823,-0.06714,-0.01831,-0.03723,-0.03632,-0.00687,0.01541,-0.32349,-0.17075,-0.03799,0.09415,-0.03601,0.00793,0.00854,-0.04242
5.2005,-0.03464,-0.02991,-0.07584,-0.00336,-0.04395,-0.04074,-0.02045,0.03311,-0.27695,-0.20615,-0.04379,0.05249,-0.03525,0.01648,0.00427,-0.04166
5.201,-0.03235,-0.03967,-0.0769,0.0148,-0.04913,-0.04379,-0.01907,0.03189,-0.2182,-0.25314,-0.01877,0.00427,-0.03326,0.02106,-0.00031,-0.04349
5.2015,-0.02914,-0.05798,-0.06561,0.03754,-0.04745,-0.04349,-0.01236,0.01862,-0.17288,-0.29343,0.0412,-0.03586,-0.03113,0.02182,-0.00198,-0.04791
5.202,-0.01877,-0.08255,-0.04761,0.04333,-0.0415,-0.04242,-0.01038,0.01083,-0.14023,-0.29648,0.07889,-0.07187,-0.02823,0.02014,0.00046,-0.05051
5.2025,-0.00381,-0.10223,-0.03143,-0.00549,-0.0322,-0.04181,-0.0119,0.00931,-0.10452,-0.24078,0.04364,-0.10651,-0.02106,0.01709,0.00473,-0.04898
5.203,0.01053,-0.10849,-0.01801,-0.10193,-0.02319,-0.04333,-0.01053,0.00717,-0.06531,-0.13611,-0.03754,-0.1239,-0.01221,0.01251,0.00885,-0.04486
5.2035,0.02075,-0.10147,-0.01053,-0.18875,-0.01511,-0.0441,-0.00824,0.00198,-0.03372,-0.01114,-0.09506,-0.12527,-0.00839,0.00717,0.01205,-0.04196
5.204,0.02792,-0.09125,-0.02365,-0.24261,-0.01205,-0.04333,-0.00748,-0.00244,-0.01083,0.11627,-0.09293,-0.15518,-0.01724,0.00381,0.01083,-0.04272
5.2045,0.0322,-0.08514,-0.07217,-0.30502,-0.01266,-0.04303,-0.01022,-0.00458,0.0116,0.23697,-0.0531,-0.24185,-0.03479,0.00732,0.00702,-0.0441
5.205,0.03265,-0.08286,-0.13519,-0.38773,-0.01358,-0.04471,-0.01205,-0.00641,0.02777,0.3389,-0.01984,-0.33203,-0.05142,0.0174,0.00565,-0.04562
5.2055,0.02853,-0.07874,-0.15503,-0.37964,-0.01312,-0.0473,-0.01251,-0.00793,0.02731,0.41229,-0.01953,-0.32471,-0.05707,0.02274,0.00702,-0.04547
5.206,0.02014,-0.07202,-0.10544,-0.09445,-0.01373,-0.0473,-0.01266,-0.00854,0.00854,0.45258,-0.0473,-0.17136,-0.05157,0.0145,0.00885,-0.0441
5.2065,0.01007,-0.06805,-0.02869,0.48706,-0.01602,-0.04715,-0.01175,-0.00763,-0.01038,0.46463,-0.07431,0.04868,-0.04242,-0.00305,0.00763,-0.04272
5.207,0.00381,-0.07126,0.01495,1.03882,-0.01709,-0.04532,-0.01144,-0.00732,-0.02029,0.44693,-0.07431,0.18875,-0.03571,-0.01785,0.00626,-0.04211
5.2075,0.00427,-0.07904,0.00244,1.15204,-0.01709,-0.04318,-0.01114,-0.01053,-0.02411,0.3981,-0.05249,0.17654,-0.03372,-0.02487,0.00687,-0.04333
5.208,0.0119,-0.08652,-0.04974,0.79529,-0.02075,-0.04242,-0.01221,-0.01541,-0.02167,0.32196,-0.03906,0.07446,-0.03387,-0.0293,0.0087,-0.04578
5.2085,0.02411,-0.0914,-0.10986,0.34088,-0.03586,-0.04425,-0.01389,-0.0209,-0.00305,0.23514,-0.05371,-0.01282,-0.03448,-0.0322,0.00763,-0.04776
5.209,0.03296,-0.09399,-0.15274,0.10056,-0.05402,-0.04837,-0.01587,-0.02258,0.02884,0.1561,-0.08041,-0.05463,-0.03235,-0.0325,0.00443,-0.04669
5.2095,0.03067,-0.09354,-0.16785,0.05066,-0.06317,-0.04883,-0.01831,-0.01999,0.05661,0.09277,-0.08865,-0.07584,-0.0293,-0.02655,0.00443,-0.04471
5.21,0.01846,-0.09186,-0.15915,0.03067,-0.05783,-0.0444,-0.01816,-0.01495,0.06302,0.04364,-0.07126,-0.09338,-0.02808,-0.01801,0.00565,-0.04456
5.2105,0.00626,-0.09079,-0.13718,-0.00824,-0.0441,-0.03738,-0.01694,-0.01175,0.05035,-0.00092,-0.04684,-0.11902,-0.02853,-0.0119,0.00809,-0.04501
5.211,0.00076,-0.09003,-0.1004,-0.0264,-0.03387,-0.03326,-0.01526,-0.01282,0.03204,-0.04501,-0.03052,-0.15533,-0.03189,-0.01068,0.00885,-0.04257
5.2115,0.00229,-0.08591,-0.04623,-0.01617,-0.03464,-0.03189,-0.01541,-0.01617,0.02228,-0.08865,-0.02487,-0.16159,-0.03571,-0.0145,0.00824,-0.03799
5.212,0.00671,-0.07858,0.01862,-0.00809,-0.04333,-0.03143,-0.0174,-0.01831,0.02426,-0.12268,-0.02914,-0.10193,-0.03906,-0.01999,0.00946,-0.03433
5.2125,0.01175,-0.07385,0.07874,-0.01724,-0.05264,-0.03021,-0.01755,-0.01846,0.03006,-0.14008,-0.04669,-0.02808,-0.03952,-0.02121,0.00977,-0.03448
5.213,0.01755,-0.0766,0.1149,-0.0354,-0.05753,-0.02884,-0.01724,-0.01816,0.0264,-0.1413,-0.07385,-0.0174,-0.03647,-0.01678,0.01022,-0.0354
5.2135,0.02441,-0.08606,0.12482,-0.05249,-0.05707,-0.02884,-0.01755,-0.01938,0.00809,-0.14114,-0.09171,-0.03326,-0.03372,-0.01389,0.00961,-0.03464
5.214,0.03265,-0.09491,0.11795,-0.05264,-0.05112,-0.0293,-0.01785,-0.02213,-0.0177,-0.14999,-0.08179,0.02625,-0.03448,-0.01862,0.01007,-0.03372
5.2145,0.04074,-0.09888,0.09674,-0.03067,-0.04074,-0.03098,-0.01694,-0.02502,-0.03983,-0.15991,-0.0412,0.15442,-0.03754,-0.0296,0.00977,-0.03525
5.215,0.0441,-0.09705,0.0386,-0.00137,-0.03098,-0.03464,-0.01633,-0.02762,-0.05173,-0.1532,0.01007,0.22614,-0.04089,-0.0415,0.00885,-0.03708
5.2155,0.04425,-0.09369,-0.06989,0.01251,-0.02747,-0.04074,-0.01709,-0.02731,-0.04486,-0.1236,0.03998,0.17914,-0.04211,-0.0563,0.00656,-0.03952
5.216,0.04776,-0.09079,-0.1799,0.00565,-0.03128,-0.04593,-0.01923,-0.02487,-0.009,-0.08545,0.03601,0.09048,-0.04089,-0.07309,0.00443,-0.0415
5.2165,0.05859,-0.08667,-0.20416,-0.00443,-0.03662,-0.0473,-0.01877,-0.02029,0.05692,-0.05432,0.01556,0.07065,-0.03891,-0.08942,0.00458,-0.04501
5.217,0.06531,-0.07889,-0.11765,-0.00702,-0.03876,-0.04761,-0.01663,-0.01511,0.12756,-0.03204,0.00702,0.13718,-0.03876,-0.09857,0.00549,-0.04776
5.2175,0.05203,-0.06851,0.01404,-0.01038,-0.03586,-0.0502,-0.01465,-0.009,0.18051,-0.02029,0.01419,0.22751,-0.03937,-0.09384,0.00534,-0.04822
5.218,0.02106,-0.05493,0.11292,-0.02884,-0.03357,-0.05402,-0.01511,-0.00031,0.22095,-0.02502,0.0209,0.28122,-0.03845,-0.07492,0.00381,-0.04639
5.2185,-0.00793,-0.03647,0.15091,-0.05936,-0.03082,-0.05463,-0.01694,0.00748,0.26794,-0.03662,0.02228,0.28412,-0.03571,-0.0499,0.0029,-0.04379
5.219,-0.02411,-0.01556,0.13947,-0.08347,-0.03189,-0.0528,-0.01877,0.01129,0.3125,-0.03525,0.02518,0.25787,-0.03204,-0.03082,0.00275,-0.04196
5.2195,-0.03571,-0.00412,0.09018,-0.07904,-0.03311,-0.0502,-0.0206,0.01068,0.32486,-0.01312,0.02045,0.22293,-0.0293,-0.02136,0.00565,-0.04089
5.22,-0.04837,-0.00793,0.02167,-0.04013,-0.03464,-0.0473,-0.02228,0.00488,0.28732,0.00809,-0.00153,0.16953,-0.02823,-0.01236,0.00977,-0.0412
5.2205,-0.05417,-0.02533,-0.05219,0.00702,-0.03571,-0.04822,-0.02213,-0.00275,0.20615,0.0058,-0.02655,0.07278,-0.02792,-0.00092,0.0119,-0.04074
5.221,-0.04623,-0.0444,-0.15305,0.00992,-0.03494,-0.04929,-0.01999,-0.01099,0.09613,-0.0145,-0.02777,-0.05569,-0.02792,0.00839,0.01236,-0.03937
5.2215,-0.03265,-0.05981,-0.30441,-0.04654,-0.0296,-0.04852,-0.01617,-0.01907,-0.02686,-0.03555,-0.0061,-0.15656,-0.02792,0.01022,0.01282,-0.03891
5.222,-0.02304,-0.07416,-0.43625,-0.10895,-0.02213,-0.04745,-0.0116,-0.0296,-0.14374,-0.04639,0.01251,-0.18875,-0.02625,0.0061,0.01144,-0.03967
5.2225,-0.01785,-0.08469,-0.43671,-0.11078,-0.01663,-0.04898,-0.00549,-0.03967,-0.23315,-0.05264,0.00839,-0.18433,-0.0238,0.00595,0.00931,-0.0412
5.223,-0.01099,-0.08209,-0.30151,-0.04807,-0.01694,-0.05264,-0.00015,-0.04425,-0.27771,-0.05386,-0.01511,-0.18829,-0.02274,0.01053,0.00763,-0.0412
5.2235,0.00275,-0.06393,-0.11887,0.0235,-0.02151,-0.05524,0.00427,-0.04059,-0.2774,-0.04837,-0.04257,-0.19333,-0.02304,0.01144,0.00732,-0.04028
5.224,0.01938,-0.03937,0.06363,0.04913,-0.02747,-0.05478,0.00656,-0.0296,-0.24399,-0.03677,-0.06012,-0.1651,-0.02594,0.00381,0.00854,-0.04089
5.2245,0.0325,-0.0206,0.23682,0.02258,-0.03281,-0.05341,0.00488,-0.00961,-0.18616,-0.03204,-0.06485,-0.11597,-0.02792,-0.00961,0.00946,-0.0415
5.225,0.03967,-0.00397,0.34973,-0.01984,-0.03708,-0.05356,-0.00305,0.01892,-0.10757,-0.03494,-0.06516,-0.08377,-0.02838,-0.02106,0.01007,-0.04242
5.2255,0.04089,0.0174,0.33585,-0.04166,-0.04028,-0.05386,-0.01678,0.04791,-0.02304,-0.03876,-0.06439,-0.06882,-0.02808,-0.02533,0.00946,-0.04303
5.226,0.03159,0.04471,0.20828,-0.04211,-0.04211,-0.05295,-0.03021,0.0621,0.03998,-0.04242,-0.05936,-0.0415,-0.02823,-0.02762,0.00717,-0.04379
5.2265,0.0087,0.06927,0.04791,-0.03708,-0.04654,-0.05371,-0.03616,0.05051,0.06241,-0.04608,-0.04852,-0.02258,-0.02945,-0.03448,0.00473,-0.04486
5.227,-0.02182,0.0827,-0.09491,-0.04089,-0.05219,-0.05615,-0.03265,0.02548,0.05173,-0.05127,-0.03723,-0.07294,-0.03143,-0.04929,0.0029,-0.0441
5.2275,-0.0441,0.08286,-0.21652,-0.06042,-0.05859,-0.0592,-0.03082,0.00488,0.02716,-0.05814,-0.02655,-0.18112,-0.03159,-0.06699,0.00275,-0.04364
5.228,-0.04379,0.07721,-0.29327,-0.08987,-0.06119,-0.06119,-0.03738,-0.00671,-0.00122,-0.06424,-0.01266,-0.2507,-0.0322,-0.07462,0.00488,-0.04318
5.2285,-0.02594,0.0766,-0.26489,-0.1152,-0.05524,-0.06073,-0.05432,-0.01282,-0.03143,-0.06638,0.01236,-0.23224,-0.03326,-0.06561,0.00931,-0.04257
5.229,-0.01205,0.08453,-0.13214,-0.1239,-0.04395,-0.05768,-0.06943,-0.01892,-0.0679,-0.06561,0.04745,-0.15823,-0.03326,-0.04593,0.01144,-0.04196
5.2295,-0.0174,0.09399,0.01984,-0.1178,-0.03479,-0.05341,-0.06592,-0.02808,-0.11414,-0.06516,0.08102,-0.03204,-0.0322,-0.03113,0.01205,-0.04135
5.23,-0.03754,0.09705,0.11063,-0.10422,-0.03036,-0.04944,-0.03281,-0.03448,-0.16846,-0.07294,0.09842,0.15808,-0.02945,-0.02487,0.01038,-0.04059
5.2305,-0.05875,0.09384,0.13306,-0.07767,-0.02914,-0.04868,0.02411,-0.03204,-0.22369,-0.09216,0.09293,0.3125,-0.02853,-0.02182,0.00885,-0.03922
5.231,-0.07111,0.09018,0.11475,-0.03601,-0.02899,-0.05112,0.07751,-0.02243,-0.26779,-0.11642,0.06851,0.28488,-0.03128,-0.01678,0.00778,-0.0386
5.2315,-0.07309,0.08835,0.07294,0.00412,-0.02899,-0.05371,0.08804,-0.0177,-0.28915,-0.13351,0.03342,0.10437,-0.03311,-0.01175,0.00671,-0.0386
5.232,-0.07004,0.08591,0.02441,0.01968,-0.02945,-0.05402,0.04669,-0.02029,-0.28,-0.1358,-0.00473,-0.02853,-0.03433,-0.01038,0.00671,-0.04013
5.2325,-0.0676,0.07751,-0.00427,0.00885,-0.02853,-0.05219,-0.0087,-0.0209,-0.24048,-0.12253,-0.03387,-0.00763,-0.03479,-0.01404,0.00748,-0.04242
5.233,-0.06546,0.05783,-0.0087,-0.00168,-0.02594,-0.0499,-0.03464,-0.01511,-0.17868,-0.10071,-0.03967,0.07538,-0.03555,-0.0209,0.00916,-0.04379
5.2335,-0.06271,0.02563,-0.02045,0.00443,-0.02457,-0.0473,-0.0264,-0.00732,-0.10284,-0.07904,-0.02594,0.10895,-0.03571,-0.02579,0.01022,-0.04425
5.234,-0.05722,-0.01083,-0.06866,0.0119,-0.02411,-0.04562,-0.01175,-0.00244,-0.02213,-0.06546,-0.01373,0.10056,-0.03647,-0.02426,0.009,-0.0441
5.2345,-0.05051,-0.03906,-0.12985,-0.01038,-0.02396,-0.04333,-0.009,0.00046,0.04791,-0.06531,-0.01892,0.10712,-0.0351,-0.01938,0.00732,-0.04517
5.235,-0.0354,-0.05173,-0.15594,-0.07843,-0.02106,-0.03952,-0.01251,0.00137,0.09125,-0.07309,-0.03647,0.13214,-0.03342,-0.01907,0.00549,-0.04578
5.2355,-0.00549,-0.05432,-0.12161,-0.19501,-0.01785,-0.03601,-0.01251,0.00092,0.10483,-0.0766,-0.04318,0.14191,-0.03204,-0.02289,0.00443,-0.04547
5.236,0.0354,-0.06104,-0.05783,-0.3656,-0.02106,-0.03326,-0.00793,0.00107,0.10071,-0.06393,-0.03098,0.12939,-0.03159,-0.02609,0.0058,-0.04471
5.2365,0.06424,-0.0769,-0.01831,-0.57892,-0.03098,-0.03357,-0.00259,0.00351,0.09216,-0.03189,-0.01038,0.10849,-0.0325,-0.02502,0.00778,-0.0415
5.237,0.05875,-0.1001,-0.03021,-0.73044,-0.0444,-0.03616,-0.00076,0.00641,0.08484,0.00076,0.0,0.07156,-0.03174,-0.02197,0.01083,-0.03891
5.2375,0.01648,-0.1236,-0.07324,-0.59448,-0.04959,-0.0383,-0.00351,0.0058,0.07523,0.01419,-0.00443,-0.0058,-0.03067,-0.01862,0.01129,-0.03815
5.238,-0.04166,-0.14374,-0.10117,-0.02777,-0.04379,-0.03937,-0.00961,0.00137,0.05997,0.00961,-0.00961,-0.12177,-0.03036,-0.01282,0.00992,-0.04044
5.2385,-0.09521,-0.1593,-0.0946,0.74371,-0.03052,-0.04074,-0.01617,-0.00275,0.05173,0.0029,0.00229,-0.22659,-0.02884,-0.00305,0.00656,-0.04364
5.239,-0.13168,-0.16815,-0.06393,1.2262,-0.0206,-0.04211,-0.02075,-0.00687,0.06531,0.00336,0.03235,-0.2713,-0.02716,0.01068,0.00381,-0.04608
5.2395,-0.14175,-0.16953,-0.02792,1.13831,-0.01617,-0.04227,-0.02228,-0.01404,0.09842,0.00305,0.06897,-0.25803,-0.02457,0.02686,0.00229,-0.04639
5.24,-0.12222,-0.15793,0.00427,0.67932,-0.01389,-0.04059,-0.02213,-0.02258,0.13107,-0.0061,0.09644,-0.22308,-0.02487,0.03876,0.00412,-0.04486
5.2405,-0.09232,-0.13504,0.02838,0.25635,-0.01068,-0.0412,-0.02182,-0.02502,0.14267,-0.02991,0.09445,-0.16464,-0.02747,0.03693,0.00717,-0.04303
5.241,-0.07492,-0.11108,0.03616,0.07843,-0.01129,-0.04471,-0.02167,-0.01816,0.12527,-0.06378,0.04379,-0.06821,-0.03235,0.01724,0.00732,-0.04257
5.2415,-0.07416,-0.09933,0.02274,0.08087,-0.01312,-0.04669,-0.02029,-0.0061,0.08514,-0.09598,-0.04135,0.02289,-0.03448,-0.01144,0.00595,-0.04333
5.242,-0.06775,-0.09933,-0.00244,0.12253,-0.01221,-0.04456,-0.01862,0.00824,0.03342,-0.1091,-0.11673,0.04929,-0.03448,-0.03494,0.0058,-0.0441
5.2425,-0.0386,-0.09689,-0.02106,0.1207,-0.00717,-0.04181,-0.01755,0.02457,-0.02838,-0.08606,-0.15167,0.04074,-0.03387,-0.04227,0.00641,-0.04333
5.243,-0.00031,-0.08179,-0.01953,0.04669,-0.00168,-0.04166,-0.01663,0.04135,-0.10178,-0.02884,-0.15884,0.08224,-0.03403,-0.03571,0.00732,-0.04074
5.2435,0.0235,-0.06134,-0.00168,-0.0824,-0.00076,-0.0444,-0.01709,0.04669,-0.17883,0.03983,-0.15945,0.17639,-0.03448,-0.02777,0.00748,-0.0386
5.244,0.02518,-0.04913,0.01907,-0.20966,-0.00458,-0.047,-0.01892,0.03387,-0.24139,0.09705,-0.1474,0.23041,-0.03326,-0.02487,0.00671,-0.03784
5.2445,0.01495,-0.04837,0.02487,-0.27084,-0.00763,-0.04868,-0.02411,0.00687,-0.26871,0.13885,-0.11154,0.18509,-0.03036,-0.02747,0.00626,-0.0386
5.245,0.00763,-0.05035,0.00641,-0.25391,-0.00824,-0.04883,-0.0293,-0.01877,-0.25223,0.17349,-0.07324,0.08377,-0.02777,-0.0293,0.00717,-0.03983
5.2455,0.01007,-0.0531,-0.02151,-0.20706,-0.01129,-0.0502,-0.03052,-0.0296,-0.2037,0.19867,-0.0592,0.00687,-0.02548,-0.02792,0.00839,-0.04044
5.246,0.02289,-0.06012,-0.03815,-0.18372,-0.02716,-0.05264,-0.0293,-0.02457,-0.14816,0.20798,-0.06149,-0.01465,-0.02335,-0.02365,0.00748,-0.04074
5.2465,0.04196,-0.07126,-0.03174,-0.19272,-0.05463,-0.05524,-0.0296,-0.01358,-0.1062,0.19958,-0.04791,0.00488,-0.02213,-0.01892,0.00458,-0.04196
5.247,0.05493,-0.07935,-0.01984,-0.20844,-0.08179,-0.05661,-0.0322,-0.00809,-0.0798,0.17319,-0.0032,0.04593,-0.02289,-0.01419,0.00183,-0.0441
5.2475,0.05692,-0.07767,-0.03143,-0.21729,-0.09094,-0.05615,-0.03326,-0.00809,-0.05402,0.1326,0.05753,0.0885,-0.02533,-0.01099,0.00046,-0.04745
5.248,0.05249,-0.06882,-0.07706,-0.23056,-0.07858,-0.05432,-0.0322,-0.00168,-0.01709,0.08499,0.10574,0.10574,-0.02563,-0.0087,0.00351,-0.04883
5.2485,0.05051,-0.0589,-0.11505,-0.25604,-0.05341,-0.0528,-0.03311,0.01801,0.02457,0.0499,0.11841,0.08484,-0.02472,-0.0087,0.00656,-0.04684
5.249,0.05432,-0.05005,-0.09125,-0.27328,-0.03265,-0.05188,-0.03448,0.04913,0.05676,0.02975,0.08698,0.04822,-0.02426,-0.00977,0.00717,-0.04257
5.2495,0.05295,-0.03998,-0.00717,-0.25436,-0.02167,-0.05142,-0.02625,0.07507,0.07126,0.01617,0.02945,0.02991,-0.02396,-0.00854,0.00748,-0.04089
5.25,0.03403,-0.02609,0.07385,-0.19424,-0.01633,-0.04883,-0.00305,0.08423,0.07126,0.00137,-0.02853,0.03098,-0.02441,-0.00504,0.00778,-0.04059
5.2505,0.00687,-0.00824,0.08347,-0.1236,-0.01068,-0.04623,0.01923,0.07568,0.06607,-0.01007,-0.07202,0.02716,-0.02579,-0.00092,0.00626,-0.04196
5.251,-0.0032,0.00961,0.01144,-0.07767,-0.00259,-0.04562,0.02228,0.05356,0.06287,-0.00931,-0.09781,0.0032,-0.02731,-0.00229,0.00458,-0.04364
5.2515,0.01389,0.02502,-0.0679,-0.06958,0.00336,-0.04761,0.00763,0.01236,0.06302,0.00198,-0.10635,-0.0351,-0.02792,-0.00626,0.00198,-0.0444
5.252,0.03799,0.03235,-0.0679,-0.09262,0.00351,-0.04791,-0.00214,-0.04883,0.0592,0.01297,-0.09048,-0.08896,-0.0293,-0.00977,0.00137,-0.04379
5.2525,0.0499,0.03128,0.01083,-0.12512,-0.00336,-0.04486,0.00458,-0.10254,0.04425,0.01831,-0.04517,-0.15656,-0.03006,-0.00702,0.00412,-0.04227
5.253,0.05402,0.02441,0.08789,-0.13763,-0.01511,-0.04105,0.02197,-0.10895,0.0177,0.01923,0.02853,-0.20477,-0.03113,-0.00244,0.00763,-0.04028
5.2535,0.05951,0.01511,0.11093,-0.10559,-0.03082,-0.04105,0.03311,-0.06729,-0.01328,0.01358,0.10361,-0.1828,-0.03326,-0.00061,0.00702,-0.0383
5.254,0.0618,0.00534,0.09064,-0.04089,-0.05066,-0.0444,0.03189,-0.01923,-0.03738,-0.0032,0.13474,-0.09583,-0.0351,-0.00305,0.00549,-0.0383
5.2545,0.05692,-0.00702,0.05554,0.00549,-0.07202,-0.04837,0.01892,0.00061,-0.04639,-0.03357,0.09705,-0.01968,-0.03601,-0.00656,0.00519,-0.03967
5.255,0.04929,-0.02411,0.0177,-0.00519,-0.09186,-0.04974,-0.00168,-0.00168,-0.04547,-0.07431,0.01877,-0.03098,-0.0386,-0.01175,0.00565,-0.04105
5.2555,0.04242,-0.04715,-0.01663,-0.05249,-0.10239,-0.0499,-0.03021,-0.00473,-0.04227,-0.11932,-0.05051,-0.11963,-0.0415,-0.01999,0.00534,-0.04196
5.256,0.03204,-0.0737,-0.04074,-0.08911,-0.09918,-0.05051,-0.06546,-0.00092,-0.03952,-0.15778,-0.09171,-0.2153,-0.04303,-0.02899,0.00641,-0.04166
5.2565,0.01343,-0.0914,-0.05432,-0.09521,-0.0827,-0.05112,-0.09399,0.00061,-0.0354,-0.17746,-0.1149,-0.25101,-0.04227,-0.03464,0.00778,-0.0415
5.257,-0.01022,-0.09262,-0.06744,-0.07339,-0.06271,-0.05356,-0.09354,-0.00183,-0.02472,-0.1712,-0.12512,-0.19302,-0.04181,-0.03647,0.01053,-0.04044
5.2575,-0.03021,-0.0798,-0.08545,-0.02319,-0.047,-0.05676,-0.05722,-0.00534,-0.00031,-0.14618,-0.11856,-0.03998,-0.04181,-0.03723,0.01236,-0.03952
5.258,-0.04257,-0.06378,-0.09903,0.05249,-0.03815,-0.05875,-0.00809,-0.00595,0.04318,-0.11993,-0.08636,0.1442,-0.04227,-0.03845,0.01251,-0.0386
5.2585,-0.04761,-0.05295,-0.09766,0.13809,-0.03662,-0.05859,0.01831,-0.00565,0.10284,-0.09689,-0.03204,0.23773,-0.04303,-0.03738,0.01114,-0.04013
5.259,-0.04944,-0.04593,-0.09186,0.20264,-0.04074,-0.05692,0.0116,-0.00504,0.16296,-0.06943,0.03143,0.17746,-0.04303,-0.03372,0.01144,-0.04303
5.2595,-0.04868,-0.03967,-0.10193,0.21439,-0.04623,-0.05585,-0.00824,-0.00473,0.20828,-0.02777,0.09171,0.04181,-0.04196,-0.02853,0.009,-0.047
5.26,-0.04257,-0.03143,-0.13168,0.16754,-0.04868,-0.0563,-0.01862,-0.00336,0.22491,0.02365,0.14191,-0.03937,-0.04013,-0.02518,0.00702,-0.04852
5.2605,-0.02548,-0.01999,-0.15869,0.10406,-0.04303,-0.05798,-0.01465,-0.00458,0.21286,0.07324,0.17303,-0.02365,-0.0386,-0.02579,0.00427,-0.04715
5.261,-0.00107,-0.00778,-0.16251,0.08026,-0.0325,-0.05905,-0.00809,-0.00763,0.17731,0.10895,0.177,0.0293,-0.03662,-0.02579,0.00366,-0.0441
5.2615,0.01816,-0.00031,-0.14572,0.10666,-0.02289,-0.05753,-0.00656,-0.00778,0.12985,0.12375,0.16144,0.03418,-0.03387,-0.02426,0.00443,-0.0415
5.262,0.02106,-0.00275,-0.12482,0.11353,-0.01694,-0.0563,-0.01129,-0.00412,0.07675,0.12192,0.13687,-0.0412,-0.03174,-0.02319,0.00534,-0.04013
5.2625,0.01053,-0.0119,-0.11017,0.02701,-0.01236,-0.05692,-0.01816,-0.00122,0.01587,0.10727,0.09659,-0.15625,-0.03204,-0.0238,0.00656,-0.03891
5.263,-0.00122,-0.02426,-0.09796,-0.1358,-0.01007,-0.05829,-0.02563,-0.00305,-0.05554,0.08224,0.03433,-0.23865,-0.03387,-0.02167,0.00854,-0.03754
5.2635,-0.00839,-0.03677,-0.08789,-0.29465,-0.01236,-0.05859,-0.02975,-0.00977,-0.13107,0.04715,-0.03082,-0.25711,-0.03555,-0.01587,0.01129,-0.03616
5.264,-0.01251,-0.04944,-0.08347,-0.41168,-0.01709,-0.05661,-0.02594,-0.01633,-0.19287,0.00565,-0.07782,-0.22644,-0.03662,-0.01022,0.01205,-0.03647
5.2645,-0.0177,-0.06195,-0.08255,-0.51025,-0.01801,-0.056,-0.01495,-0.01663,-0.2301,-0.03998,-0.09964,-0.14771,-0.03601,-0.01038,0.0119,-0.03876
5.265,-0.0238,-0.06927,-0.0705,-0.57068,-0.01129,-0.05798,-0.00793,-0.009,-0.23773,-0.08545,-0.10437,0.01068,-0.0351,-0.01251,0.01114,-0.04028
5.2655,-0.02853,-0.07278,-0.05264,-0.44983,-0.00519,-0.05844,-0.01114,0.00381,-0.21225,-0.12512,-0.1001,0.23376,-0.03342,-0.01022,0.01144,-0.03891
5.266,-0.02792,-0.07614,-0.04227,-0.03143,-0.0061,-0.05585,-0.02304,0.01724,-0.15396,-0.15884,-0.08911,0.41351,-0.0325,-0.00122,0.01282,-0.03723
5.2665,-0.02075,-0.08057,-0.04349,0.4921,-0.01724,-0.05432,-0.03174,0.02319,-0.08057,-0.18463,-0.0766,0.43625,-0.03189,0.00778,0.01434,-0.03708
5.267,-0.01389,-0.08179,-0.04852,0.72113,-0.03113,-0.05142,-0.02899,0.01602,-0.0177,-0.20477,-0.06607,0.31387,-0.03235,0.01205,0.01251,-0.03799
5.2675,-0.01022,-0.07477,-0.05371,0.52063,-0.03677,-0.04791,-0.01907,-0.00122,0.02045,-0.22064,-0.05844,0.16174,-0.0322,0.01114,0.00732,-0.04044
5.268,-0.01083,-0.06165,-0.05524,0.19669,-0.03098,-0.04425,-0.01266,-0.01663,0.03922,-0.22522,-0.05142,0.0621,-0.03204,0.00656,0.00229,-0.0441
5.2685,-0.01175,-0.04974,-0.0531,0.09415,-0.02289,-0.04074,-0.0148,-0.02228,0.04959,-0.20416,-0.04639,0.01251,-0.03189,0.00092,0.00183,-0.04669
5.269,-0.01068,-0.04013,-0.04486,0.21042,-0.02014,-0.03571,-0.02167,-0.01785,0.05859,-0.14984,-0.0473,-0.01221,-0.03098,-0.00397,0.00198,-0.04913
5.2695,-0.00732,-0.03403,-0.02716,0.31525,-0.02335,-0.0325,-0.0235,-0.01251,0.06638,-0.07874,-0.05737,-0.00977,-0.03067,-0.00824,0.00031,-0.04868
5.27,-0.00412,-0.03082,-0.00351,0.27786,-0.0267,-0.03174,-0.01511,-0.01434,0.07263,-0.01877,-0.07996,0.01572,-0.03082,-0.01282,-0.00137,-0.04669
5.2705,-0.0032,-0.03052,0.01831,0.16235,-0.03052,-0.03387,-0.00214,-0.02274,0.08041,0.0145,-0.10483,0.03708,-0.03174,-0.02075,-0.00015,-0.04471
5.271,-0.00763,-0.0296,0.0177,0.09293,-0.03494,-0.03845,-0.00153,-0.03006,0.09186,0.02213,-0.10574,0.0351,-0.03281,-0.03006,0.00458,-0.04288
5.2715,-0.01785,-0.03036,-0.0293,0.12329,-0.03876,-0.04471,-0.01678,-0.03052,0.10345,0.01755,-0.06821,0.01816,-0.0322,-0.03998,0.0087,-0.0412
5.272,-0.02853,-0.03815,-0.10147,0.23132,-0.03677,-0.05096,-0.02747,-0.0238,0.11322,0.0116,-0.00626,0.00275,-0.03159,-0.04898,0.01114,-0.03922
5.2725,-0.03433,-0.05219,-0.12985,0.35782,-0.02777,-0.05417,-0.02014,-0.01236,0.11963,0.01511,0.05173,-0.00885,-0.03174,-0.05203,0.01251,-0.03845
5.273,-0.03128,-0.06622,-0.07339,0.43777,-0.0177,-0.05402,-0.01007,0.00534,0.112,0.02701,0.08774,-0.01358,-0.03204,-0.04364,0.01297,-0.03937
5.2735,-0.01877,-0.07645,0.02457,0.43182,-0.01541,-0.05417,-0.01587,0.02213,0.08408,0.03464,0.09796,-0.00534,-0.03067,-0.02747,0.01434,-0.0412
5.274,0.00183,-0.08255,0.09018,0.36514,-0.02014,-0.05325,-0.02457,0.02563,0.04745,0.0264,0.09171,0.01465,-0.03067,-0.01465,0.01434,-0.04044
5.2745,0.02762,-0.08545,0.09689,0.29678,-0.02808,-0.05096,-0.01556,0.01343,0.02487,0.00839,0.07904,0.03296,-0.03128,-0.01236,0.01312,-0.03937
5.275,0.05127,-0.08514,0.0589,0.25772,-0.03265,-0.04684,0.00641,-0.0029,0.01907,-0.00824,0.06271,0.03357,-0.03265,-0.01694,0.01282,-0.03952
5.2755,0.06271,-0.0827,0.00412,0.23071,-0.03357,-0.04318,0.01785,-0.01175,0.009,-0.02182,0.03479,0.01785,-0.03311,-0.01678,0.01129,-0.04044
5.276,0.05707,-0.08148,-0.0415,0.1915,-0.03143,-0.04044,0.01099,-0.01312,-0.0264,-0.04074,-0.00168,-0.00198,-0.03357,-0.00778,0.01038,-0.04105
5.2765,0.04074,-0.07889,-0.06058,0.1387,-0.02731,-0.04166,-0.00031,-0.01266,-0.08118,-0.06287,-0.02975,-0.02213,-0.03494,0.00015,0.01068,-0.03998
5.277,0.02213,-0.06943,-0.04517,0.08774,-0.02289,-0.04456,-0.00488,-0.01083,-0.13641,-0.07584,-0.04105,-0.05173,-0.03632,-0.00931,0.01205,-0.04013
5.2775,0.00397,-0.0499,0.00488,0.04349,-0.01923,-0.04715,-0.00595,-0.0061,-0.18051,-0.07339,-0.04959,-0.0972,-0.03723,-0.04379,0.0116,-0.04318
5.278,-0.0148,-0.02975,0.06912,-0.00473,-0.01801,-0.04623,-0.00656,-0.00015,-0.21622,-0.06805,-0.06409,-0.15671,-0.03815,-0.08926,0.00885,-0.04623
5.2785,-0.02991,-0.02365,0.11429,-0.06042,-0.0235,-0.04471,-0.00687,0.00198,-0.25452,-0.0679,-0.06836,-0.22049,-0.03906,-0.12054,0.0061,-0.04715
5.279,-0.03525,-0.03098,0.11871,-0.1004,-0.03281,-0.0441,-0.00671,-0.00031,-0.29831,-0.0737,-0.05478,-0.26382,-0.03906,-0.12192,-0.00015,-0.0444
5.2795,-0.03036,-0.04425,0.09155,-0.09766,-0.03967,-0.04547,-0.00778,-0.00427,-0.32959,-0.07416,-0.04227,-0.25085,-0.03601,-0.09811,-0.0029,-0.03983
5.28,-0.01862,-0.05707,0.056,-0.06439,-0.03708,-0.04349,-0.01083,-0.00565,-0.3215,-0.06073,-0.04776,-0.15076,-0.03281,-0.0679,-0.00076,-0.03738
5.2805,-0.00351,-0.07172,0.03143,-0.04654,-0.03235,-0.04196,-0.01068,-0.00214,-0.26901,-0.03952,-0.05768,0.0589,-0.03006,-0.0499,0.00488,-0.03922
5.281,0.00671,-0.09064,0.02731,-0.06317,-0.02914,-0.04379,-0.00885,0.00351,-0.19501,-0.01358,-0.05295,0.33096,-0.02853,-0.04776,0.01068,-0.04196
5.2815,0.00641,-0.1059,0.03876,-0.08591,-0.02838,-0.04791,-0.00809,0.00641,-0.12558,0.01892,-0.04105,0.50766,-0.02625,-0.05371,0.01266,-0.04257
5.282,-0.0032,-0.11383,0.04745,-0.07919,-0.02792,-0.05173,-0.0116,0.00488,-0.07248,0.056,-0.04349,0.45868,-0.0235,-0.05798,0.01129,-0.04272
5.2825,-0.01846,-0.11292,0.0354,-0.04883,-0.02762,-0.05249,-0.01678,-0.00046,-0.0351,0.09262,-0.065,0.24475,-0.01923,-0.04959,0.00885,-0.04211
5.283,-0.03586,-0.10422,0.00305,-0.03098,-0.02991,-0.05295,-0.02121,-0.00641,-0.01068,0.11963,-0.08591,0.02655,-0.01404,-0.03036,0.00732,-0.04105
5.2835,-0.0528,-0.08636,-0.04059,-0.05066,-0.03632,-0.05234,-0.02243,-0.01099,0.00183,0.13855,-0.09064,-0.11917,-0.00854,-0.01068,0.009,-0.03952
5.284,-0.06317,-0.06332,-0.08179,-0.09781,-0.04745,-0.05341,-0.02136,-0.01282,0.00458,0.15213,-0.08224,-0.18875,-0.00565,-0.00168,0.00946,-0.04028
5.2845,-0.06332,-0.03799,-0.11429,-0.14343,-0.05997,-0.05463,-0.01892,-0.01236,0.00534,0.16602,-0.07401,-0.16266,-0.00885,-0.00336,0.0087,-0.04272
5.285,-0.05875,-0.01282,-0.13855,-0.17273,-0.06775,-0.0563,-0.01694,-0.01068,0.01617,0.17166,-0.0647,-0.05875,-0.02014,-0.00732,0.00732,-0.0441
5.2855,-0.0531,0.00961,-0.1619,-0.19302,-0.06638,-0.056,-0.01556,-0.00748,0.04028,0.16647,-0.05264,0.02441,-0.04135,-0.00961,0.00793,-0.04562
5.286,-0.04547,0.02777,-0.19058,-0.20813,-0.05463,-0.05371,-0.0145,-0.00626,0.06287,0.14404,-0.04791,0.0206,-0.06409,-0.01053,0.00748,-0.04425
5.2865,-0.03296,0.04425,-0.21881,-0.21378,-0.03525,-0.05051,-0.01282,-0.00519,0.0705,0.10742,-0.0676,-0.02563,-0.0766,-0.01144,0.00641,-0.04486
5.287,-0.01404,0.06317,-0.23163,-0.21118,-0.01907,-0.04684,-0.0119,-0.00641,0.06165,0.05585,-0.10941,-0.05127,-0.07446,-0.01251,0.0058,-0.04669
5.2875,0.01328,0.08072,-0.22644,-0.21118,-0.00931,-0.04227,-0.01312,-0.00656,0.0473,-0.00641,-0.13962,-0.05356,-0.06531,-0.01541,0.00595,-0.047
5.288,0.0499,0.08911,-0.20798,-0.21942,-0.00427,-0.03937,-0.01541,-0.00809,0.03326,-0.06973,-0.12222,-0.03571,-0.05875,-0.0206,0.00717,-0.04517
5.2885,0.0882,0.08591,-0.17853,-0.22781,-0.0029,-0.03632,-0.01617,-0.00839,0.01358,-0.12711,-0.05264,0.03494,-0.05508,-0.02655,0.00824,-0.04089
5.289,0.11398,0.07584,-0.13168,-0.22675,-0.00229,-0.03235,-0.01511,-0.00778,-0.01724,-0.17807,0.03403,0.14465,-0.05127,-0.02731,0.01114,-0.03738
5.2895,0.1181,0.06088,-0.07629,-0.21667,0.00198,-0.02945,-0.01358,-0.00778,-0.056,-0.22797,0.09216,0.20142,-0.04288,-0.01266,0.01358,-0.03601
5.29,0.10422,0.04395,-0.05173,-0.20477,0.00763,-0.02853,-0.0116,-0.01236,-0.08728,-0.27161,0.10391,0.14816,-0.02838,0.01236,0.01373,-0.03647
5.2905,0.07935,0.02594,-0.07477,-0.1973,0.00748,-0.03128,-0.00946,-0.01892,-0.09872,-0.29205,0.08636,0.05997,-0.009,0.03494,0.01129,-0.03799
5.291,0.05051,0.009,-0.08835,-0.19485,-0.00427,-0.03403,-0.00885,-0.02365,-0.08835,-0.27679,0.07095,0.03113,0.00687,0.04501,0.00732,-0.04181
5.2915,0.02075,-0.00656,-0.02304,-0.19379,-0.02457,-0.03662,-0.01099,-0.02258,-0.06348,-0.23941,0.06989,0.04181,0.01236,0.04349,0.00473,-0.04486
5.292,-0.0087,-0.01953,0.09109,-0.19257,-0.04883,-0.03891,-0.01541,-0.01877,-0.0293,-0.20172,0.07202,0.01236,0.00504,0.03693,0.0032,-0.0444
5.2925,-0.03708,-0.03281,0.159,-0.18753,-0.07111,-0.03952,-0.0177,-0.01648,0.01068,-0.16891,0.06073,-0.06699,-0.00687,0.02823,0.00397,-0.04242
5.293,-0.06393,-0.04745,0.14267,-0.1741,-0.08713,-0.04013,-0.01846,-0.01556,0.05829,-0.1236,0.03296,-0.13641,-0.01862,0.01663,0.00351,-0.04364
5.2935,-0.08896,-0.06439,0.08728,-0.15442,-0.09277,-0.03876,-0.01694,-0.00626,0.11475,-0.05753,-0.00107,-0.1593,-0.02914,0.00168,0.00443,-0.0473
5.294,-0.10269,-0.07965,0.04883,-0.1413,-0.08957,-0.03326,-0.01526,0.01511,0.17548,0.00961,-0.02991,-0.15671,-0.03891,-0.01358,0.00656,-0.05005
5.2945,-0.09705,-0.08865,0.02594,-0.15198,-0.0798,-0.02838,-0.01404,0.03769,0.22949,0.05203,-0.04593,-0.15442,-0.04562,-0.02762,0.00854,-0.05051
5.295,-0.07126,-0.0885,-0.01984,-0.19547,-0.06805,-0.02747,-0.01434,0.0415,0.27115,0.06989,-0.04745,-0.16113,-0.04669,-0.03967,0.00977,-0.04898
5.2955,-0.03754,-0.08408,-0.10376,-0.26657,-0.0531,-0.02792,-0.01633,0.02411,0.3009,0.08072,-0.03693,-0.17502,-0.04288,-0.04929,0.009,-0.04593
5.296,-0.01099,-0.07843,-0.17456,-0.35217,-0.03799,-0.02716,-0.01892,0.00336,0.3183,0.09644,-0.02014,-0.19684,-0.03906,-0.05341,0.00778,-0.04257
5.2965,0.00168,-0.07034,-0.15869,-0.44388,-0.02869,-0.02579,-0.01953,-0.00473,0.3157,0.11353,-0.00443,-0.22034,-0.03754,-0.04944,0.0087,-0.04166
5.297,0.00244,-0.06226,-0.0589,-0.52261,-0.02548,-0.02975,-0.01846,-0.00336,0.27863,0.13107,0.00748,-0.224,-0.03662,-0.0383,0.0116,-0.04471
5.2975,-0.01068,-0.06027,0.05249,-0.51224,-0.02487,-0.0386,-0.01694,-0.00061,0.19592,0.14954,0.0148,-0.16968,-0.03632,-0.02319,0.01282,-0.047
5.298,-0.0322,-0.06546,0.11169,-0.31006,-0.02258,-0.04898,-0.0177,-0.00046,0.07339,0.16388,0.01938,-0.03601,-0.03677,-0.00458,0.01053,-0.04501
5.2985,-0.0499,-0.07202,0.11047,0.0679,-0.01816,-0.05463,-0.02258,-0.00061,-0.05768,0.168,0.02274,0.12268,-0.03632,0.01175,0.00824,-0.04211
5.299,-0.05249,-0.07599,0.07309,0.41275,-0.01404,-0.05554,-0.03143,-0.00092,-0.16418,0.16281,0.02747,0.20126,-0.03433,0.01892,0.00732,-0.04105
5.2995,-0.04318,-0.07629,0.02228,0.49377,-0.0148,-0.05234,-0.03983,-0.00275,-0.23315,0.14923,0.03632,0.15793,-0.03326,0.0116,0.00824,-0.0415
5.3,-0.03174,-0.07446,-0.0325,0.26718,-0.02228,-0.05035,-0.04288,-0.00641,-0.2803,0.1329,0.0502,0.05966,-0.03464,-0.00092,0.00793,-0.04135
5.3005,-0.02151,-0.0737,-0.0827,-0.12207,-0.03265,-0.04974,-0.04074,-0.00885,-0.31372,0.12115,0.05936,-0.00793,-0.03754,-0.01144,0.0061,-0.04166
5.301,-0.01266,-0.07706,-0.14694,-0.49133,-0.0383,-0.05066,-0.03387,-0.01068,-0.3212,0.11673,0.05829,-0.02121,-0.03906,-0.01389,0.00565,-0.04105
5.3015,-0.00656,-0.08194,-0.25101,-0.68314,-0.0383,-0.05142,-0.02365,-0.01129,-0.29724,0.11078,0.04578,-0.00443,-0.03738,-0.00854,0.00671,-0.03998
5.302,-0.00488,-0.08835,-0.3392,-0.56244,-0.03525,-0.05035,-0.01129,-0.01007,-0.26077,0.08911,0.03586,0.0235,-0.03586,0.00092,0.00916,-0.03815
5.3025,-0.00351,-0.09537,-0.2977,-0.13214,-0.03418,-0.04654,0.00107,-0.00732,-0.23529,0.05127,0.03754,0.05432,-0.03616,0.01129,0.01068,-0.03952
5.303,0.00198,-0.10117,-0.10468,0.35522,-0.03342,-0.04196,0.01312,-0.0058,-0.2243,0.01312,0.04807,0.0856,-0.0351,0.02014,0.01099,-0.04166
5.3035,0.00504,-0.09506,0.11688,0.58762,-0.02945,-0.04044,0.02441,-0.00443,-0.21164,-0.01434,0.05524,0.10635,-0.03403,0.0235,0.01129,-0.04211
5.304,-0.00214,-0.07156,0.22491,0.4985,-0.0264,-0.04074,0.02762,-0.0058,-0.18646,-0.03159,0.0531,0.09995,-0.0325,0.01801,0.01114,-0.03967
5.3045,-0.01328,-0.04181,0.18646,0.27405,-0.02502,-0.04333,0.01846,-0.00793,-0.14786,-0.04623,0.04623,0.05844,-0.03174,0.00671,0.01114,-0.03632
5.305,-0.01968,-0.01709,0.0737,0.07309,-0.02777,-0.04425,0.00198,-0.00793,-0.0946,-0.06363,0.03799,-0.01144,-0.03189,0.00107,0.0116,-0.03494
5.3055,-0.0238,0.00214,-0.0177,-0.09995,-0.03067,-0.04669,-0.01099,-0.00626,-0.03021,-0.08621,0.02426,-0.08423,-0.03265,0.00381,0.01358,-0.03586
5.306,-0.03876,0.01877,-0.0412,-0.2562,-0.0325,-0.0499,-0.01617,-0.00351,0.03586,-0.11047,0.00793,-0.11551,-0.03235,0.00809,0.01541,-0.03815
5.3065,-0.05905,0.03342,-0.02304,-0.32608,-0.0325,-0.05386,-0.01526,-0.00198,0.08774,-0.12131,-0.00778,-0.0824,-0.03052,0.00519,0.01587,-0.03906
5.307,-0.06882,0.03891,-0.01251,-0.26596,-0.03036,-0.05463,-0.01022,-0.00153,0.121,-0.11185,-0.02838,-0.02167,-0.03067,-0.00351,0.01587,-0.04044
5.3075,-0.06104,0.03464,-0.03525,-0.159,-0.02518,-0.05234,-0.00381,-0.00153,0.14328,-0.09094,-0.05981,0.01785,-0.03281,-0.01083,0.01373,-0.04257
5.308,-0.04562,0.02625,-0.08545,-0.1207,-0.01953,-0.05066,0.00198,-0.00153,0.1593,-0.0798,-0.09323,0.03555,-0.03494,-0.01602,0.00793,-0.04715
5.3085,-0.03326,0.02167,-0.13885,-0.15411,-0.01709,-0.04913,0.00458,-0.00183,0.15945,-0.08606,-0.11337,0.06927,-0.03372,-0.02197,0.0029,-0.05096
5.309,-0.02335,0.02472,-0.16586,-0.17929,-0.02045,-0.04883,0.00351,-0.00412,0.13641,-0.09995,-0.12665,0.13,-0.03067,-0.03021,-0.00061,-0.05234
5.3095,-0.01022,0.03098,-0.14648,-0.15869,-0.02548,-0.04776,0.00015,-0.00534,0.103,-0.11215,-0.14633,0.1741,-0.02884,-0.03555,0.00137,-0.05035
5.31,0.009,0.02945,-0.08896,-0.11734,-0.02579,-0.04715,-0.00412,-0.00732,0.08331,-0.11856,-0.16617,0.15137,-0.02914,-0.03647,0.00458,-0.04929
5.3105,0.0322,0.01328,-0.02411,-0.0856,-0.02228,-0.047,-0.0116,-0.00977,0.08377,-0.12314,-0.16953,0.06668,-0.03006,-0.03616,0.00198,-0.04913
5.311,0.05264,-0.01419,0.02579,-0.05936,-0.01984,-0.047,-0.02213,-0.0119,0.09384,-0.1239,-0.14572,-0.02869,-0.02838,-0.03357,-0.0032,-0.04868
5.3115,0.05463,-0.03983,0.05768,-0.02975,-0.02441,-0.04639,-0.03021,-0.01251,0.11093,-0.11261,-0.0882,-0.09888,-0.02563,-0.02914,-0.0061,-0.04654
5.312,0.0325,-0.0563,0.07996,0.00336,-0.0322,-0.04562,-0.03372,-0.01114,0.13748,-0.08926,-0.00626,-0.13885,-0.0238,-0.0267,-0.00717,-0.04517
5.3125,0.00504,-0.06271,0.09613,0.03128,-0.0325,-0.04608,-0.03281,-0.00946,0.16403,-0.06409,0.06104,-0.14465,-0.02335,-0.02991,-0.00397,-0.04349
5.313,0.00137,-0.06439,0.09186,0.04822,-0.02533,-0.04807,-0.02792,-0.00778,0.16068,-0.04242,0.06973,-0.11765,-0.0238,-0.03601,-0.00092,-0.04105
5.3135,0.02655,-0.06088,0.06287,0.04913,-0.02106,-0.04883,-0.02258,-0.00488,0.10468,-0.03021,0.02579,-0.08301,-0.02472,-0.04196,0.00336,-0.03845
5.314,0.05905,-0.05234,0.03159,0.03876,-0.02243,-0.04898,-0.01755,0.00046,0.0119,-0.03342,-0.01907,-0.05722,-0.0264,-0.04532,0.009,-0.03784
5.3145,0.08224,-0.04379,0.02975,0.02121,-0.02731,-0.04761,-0.01648,0.00412,-0.07584,-0.05463,-0.02457,-0.02106,-0.02884,-0.04593,0.01236,-0.03983
5.315,0.08942,-0.04272,0.07477,0.00122,-0.03204,-0.04944,-0.02838,0.00244,-0.1265,-0.07706,0.00732,0.04257,-0.02991,-0.04425,0.01343,-0.04318
5.3155,0.07767,-0.05096,0.13428,-0.01694,-0.03647,-0.05234,-0.05341,-0.00381,-0.13489,-0.08438,0.05066,0.12192,-0.02945,-0.04333,0.01282,-0.04623
5.316,0.0386,-0.06516,0.14282,-0.02655,-0.0412,-0.05539,-0.06592,-0.01068,-0.11154,-0.07339,0.07843,0.20599,-0.02914,-0.04318,0.01175,-0.04776
5.3165,-0.02365,-0.0769,0.06866,-0.02853,-0.04257,-0.05615,-0.04333,-0.01938,-0.06943,-0.05753,0.07263,0.27298,-0.02884,-0.04318,0.0116,-0.047
5.317,-0.09003,-0.08133,-0.01648,-0.03281,-0.04074,-0.05524,-0.00504,-0.03326,-0.02289,-0.05295,0.02975,0.27023,-0.02899,-0.04318,0.01022,-0.0441
5.3175,-0.1297,-0.07904,-0.02228,-0.04303,-0.04089,-0.0531,0.00916,-0.05295,0.00519,-0.05356,-0.02777,0.17075,-0.03036,-0.04456,0.01099,-0.04135
5.318,-0.12558,-0.07538,0.03708,-0.05188,-0.04181,-0.05219,-0.00488,-0.07294,-0.00702,-0.04501,-0.06943,0.03601,-0.03113,-0.04333,0.01099,-0.03906
5.3185,-0.08286,-0.07553,0.07629,-0.05157,-0.04166,-0.05447,-0.01846,-0.0882,-0.0621,-0.02518,-0.0795,-0.04333,-0.02945,-0.03677,0.0116,-0.03693
5.319,-0.02747,-0.08026,0.04807,-0.03586,-0.03647,-0.05829,-0.01328,-0.09766,-0.14221,-0.00137,-0.07004,-0.0412,-0.02792,-0.0238,0.01297,-0.03601
5.3195,0.01221,-0.08255,-0.02075,0.00427,-0.03128,-0.05829,-0.0032,-0.09964,-0.22507,0.01175,-0.0563,0.00214,-0.02716,-0.01099,0.01343,-0.03677
5.32,0.02686,-0.07614,-0.0914,0.06668,-0.02853,-0.056,-0.00259,-0.08179,-0.28961,0.01099,-0.04074,0.03189,-0.02777,-0.00702,0.01266,-0.03891
5.3205,0.02335,-0.0621,-0.14725,0.12268,-0.02945,-0.05478,-0.00809,-0.02533,-0.31677,-0.00229,-0.02106,0.02304,-0.02869,-0.01251,0.01129,-0.04089
5.321,0.01373,-0.04669,-0.18616,0.13,-0.0293,-0.05447,-0.01114,0.06317,-0.29312,-0.02213,-0.00336,-0.01526,-0.03052,-0.02213,0.00839,-0.04105
5.3215,0.00565,-0.03555,-0.21027,0.06821,-0.02762,-0.05554,-0.01251,0.13016,-0.22369,-0.04837,0.00687,-0.06348,-0.03357,-0.02975,0.00717,-0.0415
5.322,0.00122,-0.02975,-0.22415,-0.03952,-0.02411,-0.05814,-0.01526,0.11551,-0.12909,-0.07187,0.01434,-0.10849,-0.03494,-0.03311,0.00687,-0.0415
5.3225,0.00092,-0.02884,-0.24155,-0.1384,-0.02182,-0.05936,-0.01907,0.03693,-0.03418,-0.08804,0.02319,-0.14557,-0.0354,-0.03128,0.00885,-0.04135
5.323,0.00336,-0.03418,-0.28885,-0.19485,-0.01907,-0.06058,-0.0209,-0.01907,0.03647,-0.09277,0.03387,-0.1712,-0.03479,-0.02365,0.0087,-0.04303
5.3235,0.00809,-0.04654,-0.354,-0.23666,-0.01816,-0.06058,-0.0206,-0.00153,0.06516,-0.09094,0.04181,-0.18356,-0.03372,-0.01663,0.00595,-0.04456
5.324,0.01419,-0.06165,-0.3627,-0.31296,-0.01556,-0.06058,-0.01877,0.05096,0.04517,-0.08362,0.04196,-0.18341,-0.03082,-0.00977,0.00519,-0.04333
5.3245,0.02136,-0.07309,-0.25955,-0.40771,-0.01022,-0.05997,-0.01816,0.08118,-0.00839,-0.07172,0.0296,-0.16525,-0.02853,-0.00061,0.00504,-0.03891
5.325,0.02884,-0.07919,-0.09125,-0.39352,-0.00656,-0.06042,-0.01892,0.08209,-0.06516,-0.05875,0.00839,-0.13168,-0.02777,0.01053,0.00473,-0.03525
5.3255,0.03738,-0.08316,0.04791,-0.11307,-0.00595,-0.05692,-0.02029,0.07721,-0.09766,-0.05157,-0.01404,-0.10376,-0.03036,0.02274,0.00351,-0.03662
5.326,0.04715,-0.0882,0.12115,0.38727,-0.01068,-0.05402,-0.01999,0.0708,-0.09659,-0.04715,-0.03494,-0.10056,-0.03464,0.0325,-0.00092,-0.04181
5.3265,0.05692,-0.09445,0.14557,0.78506,-0.01831,-0.05005,-0.01785,0.05478,-0.06302,-0.02869,-0.05493,-0.11337,-0.03754,0.0354,-0.00107,-0.0444
5.327,0.06058,-0.09842,0.1387,0.78812,-0.02548,-0.04745,-0.01495,0.0325,-0.00687,0.01312,-0.07339,-0.1181,-0.03906,0.02975,-0.00076,-0.04364
5.3275,0.05493,-0.09918,0.10635,0.46524,-0.03082,-0.04639,-0.01419,0.01724,0.05264,0.06668,-0.0705,-0.09186,-0.03998,0.02014,-0.00092,-0.04181
5.328,0.0415,-0.10208,0.06073,0.14175,-0.03357,-0.04745,-0.01587,0.01236,0.09918,0.11017,-0.03036,-0.00366,-0.0412,0.01282,0.00244,-0.04333
5.3285,0.03067,-0.10605,0.01938,0.02777,-0.03204,-0.04852,-0.01785,0.01373,0.13321,0.12787,0.01984,0.15549,-0.04227,0.00748,0.00534,-0.04349
5.329,0.0296,-0.10498,-0.0087,0.08591,-0.03082,-0.04898,-0.01709,0.01541,0.1619,0.13138,0.02609,0.31097,-0.04318,-0.0032,0.00748,-0.04166
5.3295,0.03937,-0.09079,-0.02106,0.18555,-0.03311,-0.04745,-0.01434,0.01663,0.17853,0.14801,-0.02182,0.34485,-0.04288,-0.02289,0.00793,-0.04044
5.33,0.04913,-0.06454,-0.02625,0.23697,-0.04105,-0.04669,-0.0119,0.01648,0.17029,0.18799,-0.08102,0.22919,-0.04135,-0.04608,0.00717,-0.04181
5.3305,0.04547,-0.0351,-0.04288,0.22232,-0.05066,-0.04913,-0.01205,0.0145,0.1445,0.22491,-0.10803,0.06256,-0.0383,-0.06516,0.0061,-0.04517
5.331,0.02518,-0.00732,-0.07782,0.16953,-0.05508,-0.05203,-0.01434,0.00961,0.1181,0.22659,-0.09842,-0.04089,-0.03601,-0.07843,0.00595,-0.04593
5.3315,0.00229,0.01541,-0.11734,0.11932,-0.05142,-0.05203,-0.01572,0.00427,0.08911,0.18661,-0.06836,-0.05646,-0.03571,-0.08774,0.00626,-0.04425
5.332,-0.00732,0.03433,-0.13184,0.09033,-0.04272,-0.05005,-0.01633,-0.00107,0.04196,0.12604,-0.03143,-0.02701,-0.03586,-0.09125,0.0061,-0.04211
5.3325,0.00092,0.04791,-0.10635,0.08072,-0.03876,-0.05096,-0.01587,-0.0061,-0.02258,0.06546,0.00183,0.00534,-0.03494,-0.08514,0.00793,-0.04044
5.333,0.01892,0.05066,-0.05325,0.08331,-0.04013,-0.05066,-0.01709,-0.00977,-0.08759,0.01221,0.02167,0.02731,-0.03357,-0.06744,0.00885,-0.04074
5.3335,0.03372,0.03693,-0.00427,0.0824,-0.04089,-0.04868,-0.01877,-0.01022,-0.14618,-0.03967,0.02029,0.0473,-0.03189,-0.04745,0.009,-0.04227
5.334,0.0354,0.01022,0.00931,0.05646,-0.03571,-0.04501,-0.02289,-0.01022,-0.19989,-0.09277,-0.00397,0.07751,-0.03311,-0.03464,0.00763,-0.04303
5.3345,0.02548,-0.02121,-0.03876,0.0058,-0.02716,-0.04395,-0.02518,-0.01175,-0.24567,-0.14511,-0.05173,0.10559,-0.03387,-0.03128,0.00687,-0.04471
5.335,0.00916,-0.04654,-0.13763,-0.04532,-0.01846,-0.0473,-0.02808,-0.01419,-0.27176,-0.19409,-0.10925,0.08072,-0.03204,-0.03021,0.00732,-0.04532
5.3355,-0.00504,-0.05966,-0.21835,-0.07278,-0.01709,-0.05081,-0.03281,-0.01907,-0.27588,-0.23514,-0.14328,-0.03906,-0.03067,-0.02579,0.00885,-0.04517
5.336,-0.01251,-0.06226,-0.20264,-0.06912,-0.01907,-0.05219,-0.03571,-0.02197,-0.2623,-0.2626,-0.12314,-0.21774,-0.03021,-0.0174,0.00854,-0.04303
5.3365,-0.01068,-0.05371,-0.09415,-0.03693,-0.0264,-0.05112,-0.03265,-0.02457,-0.22614,-0.27023,-0.05859,-0.36087,-0.03036,-0.00824,0.00809,-0.04074
5.337,-0.00534,-0.03967,0.01984,0.01343,-0.03799,-0.0499,-0.02762,-0.02609,-0.15854,-0.25345,0.00717,-0.40665,-0.03052,-0.00351,0.00824,-0.04028
5.3375,0.0,-0.02548,0.06439,0.06882,-0.04776,-0.05112,-0.02731,-0.02487,-0.06439,-0.20996,0.03464,-0.34973,-0.03052,-0.00412,0.00931,-0.04166
5.338,-0.00366,-0.0119,0.03998,0.10376,-0.05234,-0.05234,-0.03189,-0.02045,0.0293,-0.14679,0.0206,-0.17059,-0.0296,-0.00488,0.0119,-0.04135
5.3385,-0.01892,0.00214,-0.00473,0.08774,-0.05203,-0.05173,-0.03815,-0.01328,0.09674,-0.0827,-0.00809,0.16724,-0.0293,-0.00336,0.01282,-0.04074
5.339,-0.04181,0.01846,-0.03586,0.02274,-0.04959,-0.05157,-0.04211,-0.009,0.13412,-0.0293,-0.02518,0.5748,-0.02945,-0.00015,0.01419,-0.03922
5.3395,-0.05768,0.03677,-0.05295,-0.04364,-0.04486,-0.05234,-0.03448,-0.01038,0.15167,0.01617,-0.02319,0.80841,-0.0293,0.00107,0.0145,-0.03845
5.34,-0.05463,0.0528,-0.06607,-0.06042,-0.04059,-0.05447,-0.00107,-0.01404,0.15518,0.0618,-0.01175,0.69855,-0.02823,0.00046,0.01419,-0.0383
5.3405,-0.03983,0.06088,-0.07355,-0.03204,-0.03693,-0.05463,0.05447,-0.01755,0.14221,0.10803,-0.00366,0.34576,-0.02853,0.00214,0.01328,-0.0383
5.341,-0.03433,0.05585,-0.06836,-0.00443,-0.03647,-0.0528,0.09872,-0.01862,0.11902,0.14633,-0.0029,-0.00153,-0.03036,0.0061,0.01312,-0.0386
5.3415,-0.0499,0.04135,-0.04639,-0.0058,-0.03845,-0.05142,0.09384,-0.01755,0.09933,0.1651,-0.00732,-0.20706,-0.03159,0.00763,0.01205,-0.03983
5.342,-0.0766,0.02441,-0.00732,-0.02548,-0.04059,-0.05127,0.04333,-0.01709,0.09094,0.15594,-0.00534,-0.2829,-0.0322,0.00351,0.01022,-0.0412
5.3425,-0.09567,0.00824,0.04395,-0.04547,-0.03952,-0.04944,-0.00916,-0.01694,0.09018,0.12726,0.00671,-0.25284,-0.03082,-0.00275,0.00839,-0.04105
5.343,-0.09903,-0.00946,0.08942,-0.06439,-0.03433,-0.04486,-0.03571,-0.01724,0.09262,0.09308,0.02594,-0.13641,-0.02975,-0.00641,0.00992,-0.04044
5.3435,-0.09628,-0.03387,0.10986,-0.07568,-0.0296,-0.0415,-0.04745,-0.01801,0.09842,0.06088,0.03494,-0.01343,-0.02914,-0.00778,0.01129,-0.04044
5.344,-0.09659,-0.0618,0.09964,-0.06531,-0.02716,-0.04135,-0.06332,-0.01846,0.10712,0.03006,0.02426,0.03021,-0.03006,-0.00641,0.01099,-0.0415
5.3445,-0.09598,-0.08408,0.06699,-0.02899,-0.02609,-0.04272,-0.06866,-0.01419,0.1091,0.00641,0.00015,0.00763,-0.0322,-0.00137,0.00626,-0.04227
5.345,-0.08591,-0.09583,0.03448,0.0148,-0.02289,-0.04395,-0.04074,-0.00259,0.09476,-0.00412,-0.02029,-0.01221,-0.03387,0.00168,0.00351,-0.04425
5.3455,-0.06424,-0.09491,0.0148,0.04608,-0.01923,-0.04471,0.01511,0.00809,0.06668,-0.00214,-0.02838,-0.0116,-0.03555,-0.00153,0.00137,-0.04456
5.346,-0.03372,-0.08606,0.00702,0.06088,-0.01678,-0.04608,0.06378,0.01114,0.03983,0.00824,-0.02548,-0.02869,-0.03632,-0.01404,0.00351,-0.04257
5.3465,0.00137,-0.07568,0.00153,0.0676,-0.01724,-0.04852,0.08835,0.00687,0.02533,0.01938,-0.01358,-0.0769,-0.03464,-0.03494,0.00504,-0.03967
5.347,0.03235,-0.06775,-0.01144,0.0798,-0.01144,-0.05188,0.09872,0.00031,0.02121,0.02518,0.00183,-0.11566,-0.03311,-0.0589,0.00626,-0.0383
5.3475,0.04791,-0.06149,-0.02625,0.09247,0.00214,-0.05142,0.10193,-0.01404,0.02609,0.02579,0.01495,-0.08759,-0.03235,-0.07202,0.00839,-0.03891
5.348,0.04333,-0.05737,-0.02808,0.06348,0.01724,-0.04715,0.08835,-0.04242,0.04227,0.01801,0.0235,0.01785,-0.0322,-0.06683,0.00809,-0.04135
5.3485,0.02762,-0.05707,-0.00519,-0.04852,0.02625,-0.04211,0.05493,-0.07126,0.0679,0.00137,0.02991,0.11551,-0.0322,-0.04868,0.00809,-0.04272
5.349,0.01892,-0.06287,0.03906,-0.19852,0.03067,-0.03967,0.01007,-0.07446,0.08698,-0.02396,0.03479,0.08194,-0.0293,-0.03281,0.00885,-0.04272
5.3495,0.02472,-0.0705,0.08286,-0.27679,0.03006,-0.0386,-0.03876,-0.03876,0.09064,-0.04501,0.03662,-0.08057,-0.02533,-0.02487,0.00839,-0.04166
5.35,0.03906,-0.07263,0.09552,-0.23102,0.02243,-0.0412,-0.08713,0.01541,0.08759,-0.04639,0.03113,-0.21103,-0.02472,-0.02533,0.00763,-0.04044
5.3505,0.05417,-0.06454,0.06226,-0.12512,0.00549,-0.04623,-0.12344,0.0528,0.09232,-0.02365,0.02838,-0.18265,-0.02808,-0.02777,0.00671,-0.04135
5.351,0.0618,-0.04547,0.0029,-0.0322,-0.0148,-0.05096,-0.13428,0.05569,0.09689,0.00702,0.04303,-0.047,-0.03311,-0.02655,0.00763,-0.04272
5.3515,0.05066,-0.02548,-0.05051,0.03647,-0.0325,-0.05386,-0.11963,0.03555,0.08194,0.02411,0.06882,0.06866,-0.03387,-0.01968,0.00885,-0.04379
5.352,0.0177,-0.01785,-0.08438,0.09689,-0.04761,-0.05295,-0.09445,0.01602,0.04211,0.01617,0.07614,0.11795,-0.03067,-0.00854,0.009,-0.04456
5.3525,-0.01633,-0.02243,-0.10834,0.14893,-0.06958,-0.05249,-0.07019,0.01022,-0.00839,-0.01205,0.04944,0.12253,-0.02731,0.00122,0.00854,-0.04456
5.353,-0.03052,-0.02701,-0.14282,0.18173,-0.10391,-0.05417,-0.05417,0.00717,-0.0621,-0.04684,0.00885,0.09338,-0.02792,0.00519,0.00778,-0.04486
5.3535,-0.02304,-0.02457,-0.19043,0.18799,-0.14389,-0.05646,-0.04883,-0.00717,-0.12238,-0.07126,-0.0177,0.03189,-0.03113,0.00305,0.00671,-0.04456
5.354,-0.00595,-0.0206,-0.23758,0.14557,-0.16693,-0.05692,-0.05219,-0.03189,-0.19089,-0.07828,-0.02106,-0.03769,-0.03357,-0.0032,0.00702,-0.04501
5.3545,0.00702,-0.0235,-0.27084,0.0325,-0.16006,-0.05219,-0.05661,-0.05219,-0.25696,-0.07584,-0.01221,-0.08682,-0.03342,-0.0116,0.00687,-0.04562
5.355,0.00244,-0.03357,-0.28839,-0.12741,-0.12741,-0.04639,-0.05585,-0.05783,-0.3067,-0.07202,-0.01419,-0.11032,-0.03326,-0.01892,0.00839,-0.04593
5.3555,-0.02243,-0.04501,-0.26825,-0.26047,-0.09171,-0.04486,-0.03647,-0.04868,-0.32837,-0.07141,-0.03662,-0.11932,-0.03387,-0.02258,0.00824,-0.04517
5.356,-0.05295,-0.06088,-0.18112,-0.30075,-0.06546,-0.04318,0.00717,-0.02579,-0.31281,-0.07034,-0.07019,-0.11093,-0.03342,-0.0206,0.00854,-0.04364
5.3565,-0.06943,-0.08438,-0.03494,-0.24323,-0.05219,-0.04135,0.05341,0.01511,-0.25406,-0.06302,-0.09369,-0.0737,-0.0293,-0.01465,0.009,-0.04181
5.357,-0.06592,-0.10986,0.11688,-0.14923,-0.04532,-0.04166,0.06409,0.06653,-0.16403,-0.05157,-0.09872,-0.01038,-0.02533,-0.00748,0.01007,-0.03937
5.3575,-0.0531,-0.13046,0.21942,-0.07889,-0.03998,-0.04471,0.03235,0.10208,-0.0705,-0.04227,-0.09079,0.06332,-0.02365,-0.00015,0.01144,-0.0383
5.358,-0.04349,-0.14084,0.25635,-0.047,-0.03342,-0.04852,-0.00458,0.09583,0.00702,-0.04318,-0.07462,0.12054,-0.02563,0.00443,0.01007,-0.03738
5.3585,-0.03723,-0.14603,0.23834,-0.02945,-0.02686,-0.05234,-0.01831,0.0502,0.065,-0.05432,-0.05219,0.13214,-0.02975,0.00504,0.00824,-0.03738
5.359,-0.03006,-0.15121,0.18494,-0.01053,-0.01617,-0.056,-0.01556,-0.00061,0.11032,-0.07172,-0.02396,0.09766,-0.03265,0.0029,0.00641,-0.03738
5.3595,-0.0206,-0.15793,0.11551,-0.00031,-0.00793,-0.05905,-0.01526,-0.0238,0.13687,-0.08911,0.00565,0.05325,-0.03555,0.00031,0.00641,-0.03906
5.36,-0.01007,-0.1593,0.04837,-0.01358,-0.00687,-0.06088,-0.02029,-0.01617,0.13351,-0.10071,0.02319,0.03113,-0.03662,-0.00214,0.00656,-0.04013
5.3605,-0.00183,-0.14908,-0.00778,-0.05234,-0.01221,-0.0621,-0.02243,-0.00015,0.1062,-0.09567,0.01602,0.01282,-0.03571,-0.00214,0.00702,-0.04135
5.361,0.00229,-0.12482,-0.06973,-0.10696,-0.02029,-0.06287,-0.01831,0.00595,0.07401,-0.07507,-0.00626,-0.03769,-0.03494,0.00229,0.00748,-0.04196
5.3615,0.00137,-0.09293,-0.17975,-0.1825,-0.02457,-0.06287,-0.01129,0.00092,0.04852,-0.05219,-0.01114,-0.09506,-0.0351,0.00946,0.00717,-0.04166
5.362,-0.00229,-0.06195,-0.33264,-0.28717,-0.02701,-0.06195,-0.00732,-0.00473,0.03113,-0.03876,0.01907,-0.09811,-0.0383,0.01266,0.0061,-0.04074
5.3625,-0.00305,-0.04272,-0.41794,-0.37384,-0.0264,-0.06165,-0.00763,-0.00626,0.01831,-0.03082,0.06058,-0.06088,-0.04135,0.00626,0.00656,-0.0412
5.363,-0.00076,-0.0383,-0.31311,-0.32578,-0.02731,-0.06104,-0.00992,-0.0061,0.00671,-0.01953,0.07538,-0.05661,-0.04272,-0.00885,0.00671,-0.04318
5.3635,0.00076,-0.0386,-0.05753,-0.07721,-0.02747,-0.05844,-0.01068,-0.0058,-0.00992,-0.00168,0.05768,-0.08179,-0.04227,-0.02594,0.00473,-0.04532
5.364,-0.00031,-0.01984,0.16861,0.24841,-0.02701,-0.0531,-0.00885,-0.00565,-0.04425,0.02182,0.02365,-0.04364,-0.04242,-0.03784,0.0029,-0.047
5.3645,-0.00214,0.02518,0.242,0.4248,-0.02502,-0.04684,-0.00778,-0.00519,-0.10452,0.04913,-0.0058,0.08148,-0.04349,-0.04425,0.00076,-0.04715
5.365,-0.00351,0.07706,0.1915,0.37369,-0.02518,-0.04227,-0.00824,-0.00412,-0.17899,0.07111,-0.02411,0.18463,-0.04486,-0.04456,0.00153,-0.04745
5.3655,-0.00732,0.1123,0.103,0.23346,-0.02502,-0.03876,-0.01083,-0.00412,-0.24567,0.07507,-0.02975,0.16617,-0.04486,-0.04166,0.00397,-0.04715
5.366,-0.01358,0.11963,0.01999,0.17746,-0.02487,-0.03403,-0.01282,-0.00626,-0.28549,0.05157,-0.02792,0.07065,-0.04395,-0.03998,0.00732,-0.04883
5.3665,-0.01785,0.10666,-0.04562,0.22141,-0.02411,-0.03052,-0.01495,-0.00977,-0.28793,0.009,-0.03784,0.00732,-0.04196,-0.04196,0.00809,-0.04944
5.367,-0.01572,0.0853,-0.0853,0.26077,-0.02441,-0.02823,-0.01694,-0.01251,-0.25406,-0.03311,-0.06744,0.00473,-0.03952,-0.04562,0.00778,-0.0499
5.3675,-0.01343,0.06653,-0.09109,0.2269,-0.02518,-0.03036,-0.01938,-0.01144,-0.19073,-0.06424,-0.10406,0.01083,-0.0383,-0.04562,0.00687,-0.0499
5.368,-0.01785,0.05829,-0.08026,0.14191,-0.02533,-0.0325,-0.02121,-0.00717,-0.10895,-0.0882,-0.12344,-0.00183,-0.03738,-0.03998,0.0061,-0.04929
5.3685,-0.02792,0.05127,-0.07492,0.05768,-0.02411,-0.03204,-0.0209,-0.00122,-0.02411,-0.10727,-0.1123,-0.01755,-0.03769,-0.03204,0.00534,-0.04791
5.369,-0.03677,0.02762,-0.07889,-0.00443,-0.02075,-0.03036,-0.01862,0.0032,0.0444,-0.12665,-0.06058,-0.02625,-0.03937,-0.0235,0.00381,-0.04669
5.3695,-0.0383,-0.01541,-0.08148,-0.05905,-0.01617,-0.03067,-0.01663,0.00504,0.08743,-0.14084,0.0209,-0.03708,-0.04059,-0.01984,0.00504,-0.04532
5.37,-0.0325,-0.056,-0.07919,-0.14053,-0.01114,-0.0322,-0.01572,0.00381,0.11673,-0.13855,0.08209,-0.03784,-0.04074,-0.02167,0.00763,-0.04166
5.3705,-0.02731,-0.07416,-0.07965,-0.27771,-0.01007,-0.03342,-0.01541,0.00336,0.15274,-0.11703,0.06607,0.00519,-0.04044,-0.02441,0.01053,-0.03815
5.371,-0.02548,-0.07004,-0.08865,-0.44113,-0.01175,-0.03464,-0.01526,0.00214,0.1915,-0.09171,-0.01907,0.09033,-0.03769,-0.02258,0.01068,-0.03693
5.3715,-0.02335,-0.05463,-0.0972,-0.4985,-0.01633,-0.03571,-0.0148,0.00046,0.20462,-0.08316,-0.10971,0.15579,-0.03128,-0.01434,0.00793,-0.03891
5.372,-0.0206,-0.03967,-0.09109,-0.28839,-0.01907,-0.03571,-0.0145,0.00031,0.1767,-0.0946,-0.15564,0.11917,-0.02365,-0.0032,0.00687,-0.04181
5.3725,-0.02319,-0.02899,-0.06332,0.1738,-0.01923,-0.03479,-0.01419,0.00092,0.1181,-0.10483,-0.15442,-0.04044,-0.0174,0.00732,0.00793,-0.04257
5.373,-0.03647,-0.01953,-0.02609,0.6131,-0.02258,-0.03265,-0.01343,0.00351,0.04364,-0.09033,-0.12177,-0.23621,-0.01129,0.01175,0.009,-0.04135
5.3735,-0.05585,-0.01389,0.00488,0.74722,-0.03067,-0.03159,-0.0119,0.00443,-0.03433,-0.04578,-0.07431,-0.3447,-0.00565,0.00641,0.00763,-0.03876
5.374,-0.07339,-0.01556,0.02151,0.5687,-0.04135,-0.03296,-0.01129,0.0029,-0.09796,0.01068,-0.03204,-0.32089,-0.00259,-0.00397,0.00626,-0.03601
5.3745,-0.08514,-0.02594,0.02487,0.28397,-0.0473,-0.03571,-0.01144,0.00122,-0.12436,0.06088,-0.00809,-0.20264,-0.00778,-0.01068,0.00656,-0.0354
5.375,-0.09369,-0.0441,0.01572,0.03708,-0.047,-0.03632,-0.01266,-0.0029,-0.11139,0.10178,0.00092,-0.04608,-0.02426,-0.01022,0.00885,-0.03647
5.3755,-0.09903,-0.07019,0.00137,-0.15854,-0.04501,-0.03845,-0.01511,-0.00885,-0.07797,0.13672,0.00015,0.0795,-0.04578,-0.00702,0.00885,-0.03937
5.376,-0.09125,-0.09964,-0.00656,-0.30136,-0.04578,-0.04135,-0.01724,-0.01465,-0.04608,0.16205,-0.01053,0.08911,-0.05936,-0.00473,0.00626,-0.04166
5.3765,-0.05524,-0.12253,0.00092,-0.38132,-0.04257,-0.04333,-0.01984,-0.01678,-0.02853,0.17258,-0.0238,-0.01099,-0.05859,-0.00687,0.00336,-0.04425
5.377,0.00656,-0.13016,0.01877,-0.44098,-0.02823,-0.04318,-0.02243,-0.01434,-0.03098,0.16693,-0.02243,-0.08881,-0.04898,-0.01358,0.00137,-0.04578
5.3775,0.06912,-0.12482,0.03067,-0.53131,-0.01312,-0.04318,-0.02304,-0.01236,-0.05585,0.14725,-0.00015,-0.04181,-0.04013,-0.02411,-0.00092,-0.04547
5.378,0.1088,-0.11612,-0.00092,-0.59769,-0.01373,-0.04456,-0.0235,-0.0116,-0.09521,0.11276,0.02655,0.06638,-0.03708,-0.03403,-0.00244,-0.0444
5.3785,0.12772,-0.11215,-0.11322,-0.46097,-0.02991,-0.04639,-0.02335,-0.01266,-0.13199,0.06607,0.03815,0.11002,-0.03693,-0.03738,-0.00122,-0.04318
5.379,0.1416,-0.11536,-0.27496,-0.00748,-0.04486,-0.04684,-0.02167,-0.01266,-0.14954,0.01343,0.03418,0.06485,-0.03433,-0.03815,0.00198,-0.04333
5.3795,0.15533,-0.12756,-0.34454,0.56595,-0.04913,-0.04593,-0.01755,-0.01282,-0.14282,-0.03128,0.02563,0.0029,-0.03174,-0.03799,0.00458,-0.04303
5.38,0.16098,-0.14206,-0.20859,0.86456,-0.04852,-0.0441,-0.0119,-0.0116,-0.11902,-0.06088,0.01663,-0.02731,-0.03036,-0.03632,0.00427,-0.04333
5.3805,0.15335,-0.14923,0.05692,0.71289,-0.05081,-0.04135,-0.00778,-0.01114,-0.0914,-0.07294,0.00488,-0.03983,-0.02991,-0.03052,0.0029,-0.04318
5.381,0.13596,-0.14465,0.26184,0.34637,-0.0502,-0.03952,-0.00763,-0.00946,-0.06424,-0.07034,-0.00671,-0.06393,-0.02762,-0.0235,0.00412,-0.04364
5.3815,0.1152,-0.13382,0.30869,0.1059,-0.04044,-0.03922,-0.009,-0.00809,-0.03342,-0.05981,-0.00671,-0.09567,-0.0238,-0.02167,0.00641,-0.04364
5.382,0.08926,-0.121,0.22339,0.07629,-0.02625,-0.03983,-0.0119,-0.00778,0.00214,-0.047,0.01297,-0.09567,-0.02258,-0.0351,0.00732,-0.04272
5.3825,0.05569,-0.10406,0.06516,0.11993,-0.01572,-0.04135,-0.01297,-0.00809,0.03128,-0.03479,0.04517,-0.03067,-0.02441,-0.06653,0.00671,-0.04135
5.383,0.0267,-0.08102,-0.09094,0.11917,-0.01144,-0.04242,-0.01312,-0.00793,0.04822,-0.02228,0.06775,0.05814,-0.02899,-0.09613,0.00626,-0.0386
5.3835,0.01175,-0.04974,-0.16296,0.06882,-0.00885,-0.03937,-0.01312,-0.00885,0.05524,-0.00565,0.06592,0.07584,-0.03082,-0.09796,0.00824,-0.03937
5.384,0.00626,-0.01724,-0.12833,0.01099,-0.00351,-0.0351,-0.01312,-0.00977,0.05417,0.01205,0.04044,-0.00763,-0.03128,-0.06897,0.01068,-0.04135
5.3845,-0.00015,0.01221,-0.04059,-0.02899,0.00107,-0.03433,-0.01205,-0.01038,0.04013,0.0267,0.00885,-0.10986,-0.03098,-0.03448,0.01083,-0.04257
5.385,-0.01434,0.03799,0.02167,-0.04608,-0.00153,-0.03647,-0.01129,-0.01114,0.01038,0.03433,-0.0058,-0.14893,-0.03067,-0.01617,0.00854,-0.04181
5.3855,-0.03769,0.06165,0.02014,-0.04608,-0.00992,-0.03906,-0.01068,-0.01175,-0.02777,0.02777,0.00305,-0.12268,-0.02914,-0.01007,0.00824,-0.0412
5.386,-0.07477,0.07797,-0.03937,-0.0444,-0.01694,-0.04105,-0.01526,-0.01129,-0.06165,0.01144,0.02518,-0.03677,-0.02838,-0.00656,0.009,-0.04257
5.3865,-0.11978,0.07782,-0.11765,-0.05203,-0.02457,-0.04623,-0.02472,-0.00977,-0.08621,-0.01129,0.04364,0.12787,-0.02914,-0.00473,0.00916,-0.04456
5.387,-0.15137,0.06134,-0.16769,-0.06256,-0.03342,-0.05402,-0.03784,-0.00977,-0.10361,-0.0351,0.04745,0.30716,-0.03021,-0.00687,0.00946,-0.04425
5.3875,-0.14526,0.03815,-0.16266,-0.06317,-0.04089,-0.05966,-0.05157,-0.01114,-0.11292,-0.05997,0.02762,0.34302,-0.03159,-0.01083,0.01038,-0.04257
5.388,-0.09338,0.02045,-0.10757,-0.05493,-0.04211,-0.0589,-0.05936,-0.01328,-0.10452,-0.08148,-0.01236,0.19424,-0.03174,-0.01053,0.01129,-0.04135
5.3885,-0.02258,0.00916,-0.0412,-0.05096,-0.03235,-0.056,-0.05768,-0.0148,-0.0705,-0.0943,-0.0563,0.01175,-0.03189,-0.00717,0.01266,-0.04166
5.389,0.02869,-0.00336,-0.00778,-0.05753,-0.01923,-0.05432,-0.05096,-0.01282,-0.0209,-0.09293,-0.0766,-0.05798,-0.03143,-0.0029,0.01343,-0.04227
5.3895,0.0441,-0.01923,-0.02426,-0.06866,-0.01068,-0.05585,-0.04517,-0.00824,0.02686,-0.07813,-0.06714,-0.02808,-0.02991,0.00122,0.01312,-0.04074
5.39,0.03922,-0.03235,-0.06149,-0.07843,-0.0119,-0.05585,-0.04242,-0.0029,0.06027,-0.05371,-0.04547,0.0296,-0.02899,0.00549,0.01266,-0.03738
5.3905,0.03281,-0.03754,-0.08698,-0.08911,-0.02579,-0.05402,-0.0412,-0.00031,0.0824,-0.0296,-0.03571,0.10193,-0.03052,0.00748,0.01129,-0.03738
5.391,0.03021,-0.03616,-0.0946,-0.09903,-0.04379,-0.05264,-0.03357,0.0,0.10178,-0.01526,-0.04288,0.18341,-0.03311,0.00397,0.01007,-0.03967
5.3915,0.02853,-0.0322,-0.09872,-0.10223,-0.05341,-0.0502,-0.00992,0.00046,0.1236,-0.01083,-0.05447,0.21423,-0.03357,-0.00336,0.00931,-0.04272
5.392,0.02747,-0.02396,-0.12009,-0.10025,-0.0473,-0.04791,0.02899,0.00259,0.14313,-0.00824,-0.06165,0.15121,-0.03235,-0.01297,0.0116,-0.04379
5.3925,0.02701,-0.01099,-0.17319,-0.09827,-0.03754,-0.04745,0.06577,0.00412,0.15518,-0.00275,-0.06271,0.03036,-0.03189,-0.02182,0.01221,-0.04303
5.393,0.02945,-0.00244,-0.2417,-0.08789,-0.03082,-0.0499,0.07889,0.00183,0.1622,-0.00259,-0.05722,-0.07141,-0.03281,-0.02792,0.0116,-0.04074
5.3935,0.03693,-0.01068,-0.26443,-0.0499,-0.02563,-0.0528,0.06302,-0.00229,0.17639,-0.00931,-0.03494,-0.11124,-0.03143,-0.03326,0.00885,-0.03983
5.394,0.04684,-0.03601,-0.19699,0.00336,-0.02029,-0.05295,0.03662,-0.0032,0.2034,-0.02441,0.00214,-0.09384,-0.02792,-0.0383,0.00732,-0.04074
5.3945,0.05127,-0.06516,-0.07706,0.02548,-0.02106,-0.04913,0.0209,-0.00015,0.22827,-0.04242,0.02594,-0.04288,-0.02548,-0.03586,0.00565,-0.04349
5.395,0.04623,-0.08469,0.00549,-0.01053,-0.02823,-0.04471,0.02029,0.00351,0.22919,-0.05386,0.00839,0.02197,-0.0264,-0.02533,0.00549,-0.04501
5.3955,0.0386,-0.09476,0.00656,-0.06149,-0.03632,-0.04196,0.01816,0.00671,0.20187,-0.0589,-0.03784,0.08286,-0.02869,-0.01022,0.00549,-0.04318
5.396,0.03418,-0.10376,-0.04532,-0.06668,-0.03708,-0.04227,0.00504,0.00885,0.16251,-0.0592,-0.07858,0.11261,-0.02975,0.0029,0.00549,-0.03922
5.3965,0.0322,-0.11688,-0.09903,-0.01266,-0.03174,-0.03998,-0.01633,0.00824,0.12421,-0.06027,-0.10071,0.0853,-0.02945,0.00977,0.00732,-0.03738
5.397,0.03113,-0.12802,-0.12344,0.05829,-0.02518,-0.03464,-0.03342,0.00305,0.07935,-0.06638,-0.11444,0.01617,-0.02869,0.00565,0.00595,-0.04135
5.3975,0.02869,-0.12527,-0.1123,0.09628,-0.02167,-0.03143,-0.03891,-0.00488,0.01633,-0.08636,-0.12177,-0.03448,-0.03113,-0.01678,0.00458,-0.04654
5.398,0.02197,-0.1033,-0.07294,0.08286,-0.02167,-0.03433,-0.03342,-0.00977,-0.05753,-0.11658,-0.11292,-0.01892,-0.03418,-0.05692,0.00488,-0.04807
5.3985,0.00671,-0.07095,-0.01282,0.04227,-0.02121,-0.04181,-0.02228,-0.00916,-0.1123,-0.14786,-0.08835,0.04211,-0.03555,-0.09537,0.00641,-0.04593
5.399,-0.01938,-0.0386,0.05157,0.01678,-0.01831,-0.04807,-0.01251,-0.00427,-0.12604,-0.17746,-0.06622,0.09018,-0.03525,-0.10498,0.00763,-0.04318
5.3995,-0.05051,-0.01328,0.10162,0.02777,-0.01251,-0.04929,-0.00854,-0.00061,-0.10895,-0.20294,-0.05402,0.09293,-0.03403,-0.07904,0.00839,-0.04227
5.4,-0.07126,0.0032,0.12283,0.06714,-0.01099,-0.0502,-0.00778,0.00244,-0.08774,-0.21927,-0.04471,0.03922,-0.03464,-0.04044,0.00809,-0.04166
5.4005,-0.07385,0.00916,0.11703,0.11597,-0.01419,-0.05325,-0.00931,0.00397,-0.07629,-0.21286,-0.02487,-0.09018,-0.03571,-0.01953,0.00931,-0.03998
5.401,-0.06271,0.00931,0.09308,0.15854,-0.02045,-0.05844,-0.01053,0.00473,-0.07111,-0.17258,0.00305,-0.25513,-0.0351,-0.02167,0.0116,-0.03845
5.4015,-0.04852,0.0087,0.06119,0.17441,-0.02426,-0.06226,-0.01068,0.00519,-0.07187,-0.10818,0.03357,-0.32669,-0.03265,-0.03036,0.01266,-0.0386
5.402,-0.03479,0.01129,0.03296,0.14648,-0.02914,-0.06256,-0.01099,0.00412,-0.07996,-0.04807,0.06744,-0.22125,-0.03159,-0.03235,0.01129,-0.04013
5.4025,-0.0209,0.01343,0.01587,0.07385,-0.03952,-0.05844,-0.01205,0.00473,-0.09781,-0.01556,0.10101,-0.02655,-0.0322,-0.02808,0.00854,-0.0415
5.403,-0.009,0.01175,0.01221,-0.02274,-0.05035,-0.0563,-0.01511,0.00519,-0.12451,-0.01007,0.11765,0.10529,-0.03342,-0.02106,0.00702,-0.04135
5.4035,-0.00259,0.00656,0.02167,-0.11856,-0.05295,-0.05676,-0.01877,0.0032,-0.16434,-0.01068,0.10498,0.12527,-0.03357,-0.01282,0.00687,-0.04211
5.404,-0.00504,0.00153,0.03876,-0.19547,-0.04715,-0.05722,-0.0209,-0.00061,-0.21347,-0.00351,0.07111,0.07782,-0.03296,-0.00259,0.00565,-0.04364
5.4045,-0.01251,-0.00031,0.05203,-0.23026,-0.04013,-0.05432,-0.02274,-0.00351,-0.25208,0.01709,0.03708,0.01678,-0.03372,0.00473,0.00641,-0.04608
5.405,-0.01663,-0.00031,0.03464,-0.20157,-0.0383,-0.05188,-0.02457,-0.00305,-0.26382,0.0499,0.02182,-0.02457,-0.03403,0.0061,0.00687,-0.04761
5.4055,-0.01251,-0.00046,-0.01648,-0.12024,-0.04227,-0.0502,-0.02609,0.00122,-0.24475,0.08987,0.0296,-0.02563,-0.03403,0.00473,0.00671,-0.04776
5.406,-0.00595,-0.00534,-0.04425,-0.03418,-0.04425,-0.05081,-0.02625,0.00687,-0.20065,0.12863,0.05447,0.00336,-0.03372,0.00641,0.00626,-0.0473
5.4065,-0.01129,-0.01633,0.00443,0.01022,-0.04028,-0.05096,-0.02487,0.01007,-0.14313,0.16083,0.08163,0.02213,-0.03204,0.01297,0.00671,-0.04715
5.407,-0.03601,-0.02747,0.09842,0.01495,-0.03448,-0.05188,-0.02304,0.00992,-0.08087,0.18784,0.09918,0.00198,-0.03036,0.01541,0.00565,-0.04517
5.4075,-0.06866,-0.03693,0.15625,0.00366,-0.03296,-0.0528,-0.02243,0.00839,-0.0238,0.21774,0.09567,-0.047,-0.02899,0.00793,0.00397,-0.04166
5.408,-0.0914,-0.04608,0.14252,-0.01999,-0.04211,-0.05203,-0.02014,0.00778,0.02701,0.24902,0.06729,-0.09186,-0.02823,-0.00488,0.00366,-0.03769
5.4085,-0.09094,-0.05829,0.08301,-0.07629,-0.06119,-0.04913,-0.01694,0.00671,0.06897,0.27054,0.02243,-0.1152,-0.02808,-0.01556,0.00687,-0.03708
5.409,-0.07217,-0.0708,0.01663,-0.1564,-0.08209,-0.04776,-0.01129,0.00305,0.09613,0.27054,-0.0174,-0.11749,-0.02899,-0.02014,0.01053,-0.03983
5.4095,-0.0473,-0.07629,-0.03876,-0.20691,-0.0946,-0.04868,-0.00351,-0.00107,0.09781,0.24841,-0.03357,-0.08499,-0.03052,-0.02167,0.01129,-0.04242
5.41,-0.02396,-0.07599,-0.07767,-0.19073,-0.09003,-0.05112,0.00229,-0.00351,0.06714,0.21271,-0.03006,0.01129,-0.03342,-0.02106,0.00977,-0.04349
5.4105,-0.00748,-0.07568,-0.09827,-0.13123,-0.07095,-0.05264,0.00015,-0.00519,0.00732,0.17105,-0.02747,0.14328,-0.03632,-0.01846,0.01022,-0.04333
5.411,-0.00351,-0.07965,-0.10788,-0.07233,-0.05035,-0.05371,-0.00931,-0.00458,-0.05524,0.1236,-0.03586,0.20554,-0.0383,-0.01465,0.0119,-0.04425
5.4115,-0.01343,-0.08118,-0.11276,-0.03799,-0.03967,-0.05463,-0.01648,-0.00397,-0.08301,0.06866,-0.04486,0.1326,-0.03952,-0.01053,0.01312,-0.0444
5.412,-0.02518,-0.07278,-0.11368,-0.03433,-0.04196,-0.05554,-0.01709,-0.00275,-0.05417,0.01083,-0.04684,0.0032,-0.04028,-0.01038,0.01144,-0.04349
5.4125,-0.02716,-0.05569,-0.10986,-0.04501,-0.04929,-0.05417,-0.01251,-0.00214,0.00946,-0.04135,-0.04456,-0.04959,-0.04044,-0.01389,0.01007,-0.04074
5.413,-0.02487,-0.03922,-0.10513,-0.02502,-0.04913,-0.05371,-0.01038,-0.00229,0.06668,-0.08575,-0.04288,-0.00214,-0.03891,-0.01831,0.00946,-0.03922
5.4135,-0.02594,-0.02853,-0.10132,0.06226,-0.03906,-0.05463,-0.01297,-0.00458,0.09796,-0.1181,-0.03616,0.05615,-0.03616,-0.02121,0.0087,-0.03891
5.414,-0.03036,-0.02457,-0.09628,0.18021,-0.02533,-0.05508,-0.02014,-0.00748,0.11002,-0.13107,-0.02396,0.05737,-0.03296,-0.02014,0.00549,-0.0386
5.4145,-0.03662,-0.02548,-0.0856,0.22675,-0.01968,-0.05447,-0.02823,-0.01038,0.11017,-0.11795,-0.02029,0.01556,-0.03189,-0.01678,0.00473,-0.03922
5.415,-0.04608,-0.02869,-0.07202,0.13672,-0.02151,-0.05432,-0.03296,-0.01068,0.08896,-0.08759,-0.05325,-0.02167,-0.03113,-0.01175,0.00717,-0.04059
5.4155,-0.05142,-0.03448,-0.06165,-0.04059,-0.02533,-0.05524,-0.03235,-0.00885,0.03677,-0.05753,-0.12131,-0.03693,-0.02991,-0.01007,0.00748,-0.04242
5.416,-0.04135,-0.04227,-0.05936,-0.18387,-0.02792,-0.05539,-0.02777,-0.00687,-0.04593,-0.03662,-0.18539,-0.03632,-0.02869,-0.01373,0.00549,-0.04318
5.4165,-0.01617,-0.05356,-0.06119,-0.22308,-0.02625,-0.05508,-0.02258,-0.00732,-0.13809,-0.02518,-0.20569,-0.01343,-0.02853,-0.01984,0.00519,-0.04242
5.417,0.00931,-0.06897,-0.05829,-0.18875,-0.02213,-0.05508,-0.01785,-0.00885,-0.20401,-0.0238,-0.18127,0.03601,-0.02838,-0.0206,0.00702,-0.04028
5.4175,0.02289,-0.07996,-0.05325,-0.1532,-0.01648,-0.05447,-0.00916,-0.00854,-0.21927,-0.03082,-0.1387,0.08316,-0.02777,-0.01343,0.01007,-0.03937
5.418,0.0235,-0.0769,-0.05341,-0.14908,-0.01221,-0.05371,0.00366,-0.00702,-0.18448,-0.03357,-0.10101,0.07095,-0.02823,-0.00168,0.01022,-0.03998
5.4185,0.01907,-0.06302,-0.05783,-0.15106,-0.01221,-0.05356,0.01495,-0.00488,-0.12604,-0.02853,-0.07538,-0.01648,-0.02869,0.00748,0.00778,-0.04013
5.419,0.02106,-0.05386,-0.05936,-0.12695,-0.01678,-0.0531,0.01358,-0.00412,-0.07111,-0.02533,-0.06058,-0.11353,-0.02914,0.00916,0.00504,-0.03937
5.4195,0.02838,-0.05722,-0.05753,-0.07782,-0.02167,-0.0531,0.00046,-0.00214,-0.03143,-0.03372,-0.04944,-0.13687,-0.02853,0.00275,0.00488,-0.04013
5.42,0.04059,-0.06271,-0.06561,-0.03586,-0.0238,-0.05203,-0.01404,0.00046,-0.00717,-0.04868,-0.03601,-0.09064,-0.02762,-0.0058,0.0061,-0.04257
5.4205,0.05386,-0.05615,-0.08911,-0.02502,-0.0206,-0.05051,-0.02136,0.00168,0.00641,-0.05936,-0.02548,-0.06805,-0.02808,-0.00961,0.00687,-0.04486
5.421,0.06454,-0.03632,-0.12558,-0.04745,-0.01495,-0.04868,-0.02472,0.00076,0.0174,-0.05951,-0.03159,-0.12878,-0.02914,-0.00717,0.00626,-0.04456
5.4215,0.0647,-0.01572,-0.16708,-0.09888,-0.00946,-0.047,-0.03067,0.00031,0.03677,-0.05463,-0.05127,-0.22369,-0.02899,-0.00275,0.0058,-0.04379
5.422,0.05432,-0.00275,-0.19775,-0.18265,-0.00702,-0.04501,-0.03586,0.00107,0.07507,-0.056,-0.06226,-0.26337,-0.02853,-0.00168,0.00671,-0.04547
5.4225,0.04349,0.00046,-0.18585,-0.29587,-0.00687,-0.04349,-0.03494,0.00076,0.1207,-0.06744,-0.03983,-0.22507,-0.02747,-0.00244,0.00671,-0.04623
5.423,0.03494,-0.00412,-0.11047,-0.38132,-0.00778,-0.04379,-0.02792,-0.00076,0.14786,-0.08545,0.01434,-0.13474,-0.02808,-0.00458,0.00656,-0.04456
5.4235,0.01923,-0.01419,0.00229,-0.30762,-0.01114,-0.04593,-0.02213,-0.00351,0.14099,-0.10696,0.07095,0.01801,-0.03128,-0.00778,0.00732,-0.04013
5.424,-0.00778,-0.02502,0.08209,-0.00153,-0.01816,-0.04776,-0.01907,-0.00641,0.1059,-0.12253,0.103,0.23392,-0.03418,-0.01007,0.01007,-0.03677
5.4245,-0.03403,-0.03601,0.09247,0.39581,-0.02808,-0.04807,-0.01801,-0.00809,0.06149,-0.12085,0.11475,0.38925,-0.03555,-0.009,0.01358,-0.03769
5.425,-0.04837,-0.04517,0.08636,0.62576,-0.03983,-0.04929,-0.0148,-0.00854,0.01099,-0.1059,0.13901,0.34134,-0.0351,-0.00626,0.01282,-0.04089
5.4255,-0.05051,-0.0499,0.14648,0.56885,-0.04623,-0.05127,-0.0119,-0.00793,-0.05005,-0.08774,0.18967,0.13901,-0.03586,-0.00671,0.01068,-0.04303
5.426,-0.05112,-0.04547,0.25909,0.32593,-0.04349,-0.05432,-0.01083,-0.00809,-0.1149,-0.07935,0.23163,-0.00137,-0.03662,-0.0116,0.00839,-0.04318
5.4265,-0.05661,-0.03723,0.32867,0.0592,-0.03586,-0.05753,-0.01053,-0.009,-0.16281,-0.08011,0.22263,0.0618,-0.03708,-0.02045,0.00824,-0.04196
5.427,-0.05905,-0.03159,0.29114,-0.17059,-0.02869,-0.05997,-0.00595,-0.00824,-0.17303,-0.08072,0.16739,0.24002,-0.03784,-0.02808,0.00687,-0.04196
5.4275,-0.04944,-0.02777,0.17792,-0.3833,-0.02502,-0.05936,0.00244,-0.00778,-0.14465,-0.07538,0.09949,0.32547,-0.03815,-0.03235,0.00534,-0.04211
5.428,-0.02914,-0.02274,0.05569,-0.53375,-0.02136,-0.05661,0.01083,-0.00748,-0.09811,-0.07065,0.03937,0.21957,-0.03754,-0.03433,0.00427,-0.04257
5.4285,-0.00137,-0.01633,-0.03983,-0.46371,-0.01801,-0.05386,0.0116,-0.00931,-0.05554,-0.07278,-0.00717,0.02502,-0.03494,-0.03662,0.00595,-0.0415
5.429,0.02884,-0.01373,-0.10239,-0.09338,-0.01312,-0.05234,0.00626,-0.01221,-0.02609,-0.07599,-0.03708,-0.0853,-0.03296,-0.03983,0.00931,-0.03922
5.4295,0.05966,-0.0177,-0.14053,0.37628,-0.00809,-0.05142,0.00183,-0.01511,0.00214,-0.07111,-0.05127,-0.06317,-0.03189,-0.04303,0.01282,-0.03632
5.43,0.07935,-0.02823,-0.16479,0.61478,-0.00214,-0.0502,-0.00076,-0.0148,0.03876,-0.05722,-0.05692,-0.01923,-0.03052,-0.04395,0.0145,-0.03418
5.4305,0.08026,-0.0383,-0.18845,0.51544,-0.00076,-0.04822,-0.01251,-0.01251,0.07721,-0.04272,-0.06027,-0.06042,-0.02945,-0.04257,0.01266,-0.03372
5.431,0.06271,-0.03906,-0.20233,0.27115,-0.00732,-0.04639,-0.03891,-0.00763,0.09674,-0.03067,-0.06073,-0.15594,-0.03067,-0.04364,0.00992,-0.03525
5.4315,0.02991,-0.0325,-0.1825,0.09445,-0.01617,-0.04562,-0.06714,-0.00366,0.07675,-0.01648,-0.06058,-0.21149,-0.03311,-0.05112,0.00763,-0.03845
5.432,-0.01205,-0.02975,-0.11536,0.01328,-0.02182,-0.04639,-0.0737,-0.00275,0.01511,0.00076,-0.06317,-0.22156,-0.03555,-0.0589,0.00824,-0.0415
5.4325,-0.04623,-0.04654,-0.01541,-0.02228,-0.0206,-0.04669,-0.05569,-0.00519,-0.06729,0.01663,-0.07294,-0.24338,-0.03586,-0.06073,0.00916,-0.04364
5.433,-0.0502,-0.07935,0.08591,-0.00748,-0.02029,-0.04501,-0.03342,-0.00946,-0.13092,0.02792,-0.0853,-0.28137,-0.03555,-0.05096,0.00809,-0.04517
5.4335,-0.02472,-0.10773,0.16037,0.06943,-0.02625,-0.04227,-0.02823,-0.01251,-0.14481,0.03525,-0.0943,-0.29846,-0.0351,-0.03479,0.00671,-0.04654
5.434,-0.00427,-0.11932,0.19165,0.15167,-0.03906,-0.03937,-0.03723,-0.01266,-0.11078,0.04074,-0.09094,-0.30228,-0.03479,-0.01999,0.00504,-0.04669
5.4345,-0.01816,-0.12299,0.17868,0.17334,-0.05676,-0.03891,-0.04517,-0.01236,-0.05692,0.03937,-0.06409,-0.33279,-0.03281,-0.0145,0.00336,-0.04745
5.435,-0.05508,-0.13702,0.13596,0.13809,-0.07874,-0.03983,-0.04395,-0.01175,-0.01404,0.03159,-0.00397,-0.38315,-0.03082,-0.01678,0.00443,-0.04776
5.4355,-0.08102,-0.16266,0.08163,0.07813,-0.103,-0.04181,-0.03372,-0.01053,0.00992,0.01968,0.06622,-0.39047,-0.03082,-0.01831,0.0061,-0.04684
5.436,-0.08331,-0.18188,0.02991,-0.00061,-0.11993,-0.0441,-0.02274,-0.00778,0.02106,0.0087,0.09125,-0.29694,-0.03143,-0.01266,0.00702,-0.04456
5.4365,-0.08209,-0.17593,-0.01526,-0.08774,-0.12344,-0.04379,-0.01495,-0.00671,0.02899,0.00031,0.03525,-0.09781,-0.03281,-0.00183,0.00717,-0.04196
5.437,-0.09094,-0.14526,-0.06607,-0.13779,-0.11261,-0.04166,-0.00549,-0.00839,0.03891,-0.01114,-0.06943,0.17044,-0.03326,0.00702,0.00534,-0.0412
5.4375,-0.0946,-0.10361,-0.14771,-0.11795,-0.09399,-0.04105,0.01221,-0.00992,0.05112,-0.03082,-0.15945,0.44769,-0.03387,0.00687,0.00305,-0.04272
5.438,-0.06729,-0.06989,-0.27847,-0.05646,-0.07446,-0.0412,0.0296,-0.00778,0.05753,-0.06195,-0.19684,0.6279,-0.03479,0.0,0.00214,-0.04395
5.4385,-0.01572,-0.05554,-0.41428,-0.01785,-0.05707,-0.04135,0.03006,-0.00397,0.04913,-0.09476,-0.18738,0.59662,-0.03555,-0.00671,0.00397,-0.04425
5.439,0.02777,-0.05875,-0.44449,-0.03342,-0.04089,-0.03983,0.01358,-0.00168,0.02274,-0.11795,-0.1506,0.36163,-0.0351,-0.00977,0.00519,-0.04486
5.4395,0.04517,-0.06012,-0.28305,-0.08179,-0.02625,-0.03708,-0.00031,-0.00031,-0.01175,-0.12802,-0.09842,0.08469,-0.03342,-0.00809,0.00671,-0.04395
5.44,0.04608,-0.03998,0.00687,-0.13046,-0.01831,-0.03693,0.00015,0.00076,-0.03784,-0.13321,-0.04852,-0.07263,-0.03159,-0.00488,0.00931,-0.04379
5.4405,0.04532,-0.00122,0.24872,-0.17715,-0.01648,-0.0383,0.00565,0.00076,-0.04211,-0.13596,-0.02243,-0.08057,-0.03021,-0.00076,0.01129,-0.04333
5.441,0.0412,0.03723,0.31021,-0.25864,-0.01846,-0.03967,0.00473,-0.00214,-0.02808,-0.11841,-0.0209,0.01038,-0.03006,0.00305,0.01144,-0.04257
5.4415,0.01892,0.056,0.20615,-0.38727,-0.02213,-0.04379,-0.00137,-0.00381,-0.00793,-0.07202,-0.0209,0.14267,-0.03113,0.00549,0.01022,-0.0412
5.442,-0.01724,0.05142,0.04089,-0.49774,-0.02518,-0.04822,-0.00839,-0.00549,0.00793,-0.01663,-0.00229,0.25024,-0.03296,0.00488,0.00931,-0.03952
5.4425,-0.04288,0.03479,-0.09232,-0.44373,-0.02884,-0.0502,-0.01663,-0.00565,0.02258,0.01358,0.03143,0.27191,-0.03464,0.00397,0.01083,-0.03876
5.443,-0.03738,0.02045,-0.16068,-0.0824,-0.03006,-0.05127,-0.02655,-0.00549,0.03616,0.00687,0.06119,0.2092,-0.03571,0.00351,0.01251,-0.04013
5.4435,-0.009,0.01282,-0.16907,0.51743,-0.02762,-0.05219,-0.03403,-0.00458,0.03571,-0.01678,0.07339,0.11154,-0.03662,0.00122,0.00961,-0.04425
5.444,0.01251,0.00626,-0.13992,1.00204,-0.02274,-0.05295,-0.03281,-0.00275,0.01282,-0.03494,0.0621,0.01633,-0.03601,-0.00427,0.00473,-0.04837
5.4445,0.01266,-0.00168,-0.10574,1.03378,-0.01526,-0.05295,-0.02411,-0.00092,-0.01633,-0.04776,0.0412,-0.05371,-0.03586,-0.01373,0.00397,-0.04974
5.445,-0.00229,-0.00793,-0.11688,0.66742,-0.00839,-0.05066,-0.01602,0.00092,-0.02518,-0.06622,0.03189,-0.07309,-0.03632,-0.02533,0.00748,-0.04715
5.4455,-0.02289,-0.00793,-0.18921,0.25467,-0.00412,-0.04959,-0.01297,0.00275,-0.0058,-0.08408,0.04288,-0.05539,-0.03754,-0.03845,0.01022,-0.04501
5.446,-0.04349,-0.00427,-0.25772,0.03464,-0.00351,-0.0499,-0.01282,0.00336,0.0235,-0.08774,0.06317,-0.05127,-0.03754,-0.05386,0.01022,-0.04486
5.4465,-0.05646,-0.00519,-0.24155,-0.01389,-0.00366,-0.05173,-0.01297,0.00076,0.04913,-0.07294,0.07278,-0.06638,-0.03586,-0.07095,0.00778,-0.04532
5.447,-0.04791,-0.01511,-0.14389,-0.00854,-0.00565,-0.0528,-0.0148,-0.00305,0.07721,-0.05157,0.05981,-0.03784,-0.03433,-0.0882,0.00534,-0.0444
5.4475,-0.02029,-0.03357,-0.04166,-0.01617,-0.00946,-0.05203,-0.01724,-0.00549,0.11093,-0.02853,0.0209,0.04944,-0.03494,-0.10056,0.00732,-0.04257
5.448,0.00916,-0.05096,0.00687,-0.06348,-0.01328,-0.05005,-0.01755,-0.00717,0.14343,0.00336,-0.0354,0.10605,-0.03693,-0.09949,0.01038,-0.04028
5.4485,0.02518,-0.06088,0.01266,-0.15106,-0.01648,-0.04974,-0.0148,-0.00931,0.16144,0.05035,-0.08575,0.06119,-0.03708,-0.08423,0.01038,-0.03952
5.449,0.03326,-0.06348,0.01068,-0.24033,-0.01801,-0.04898,-0.0119,-0.01205,0.15488,0.1033,-0.11337,-0.02975,-0.03571,-0.06439,0.00839,-0.03937
5.4495,0.04242,-0.06378,0.01755,-0.2832,-0.02426,-0.04593,-0.01266,-0.01129,0.12512,0.14252,-0.12177,-0.065,-0.03296,-0.04517,0.00504,-0.03952
5.45,0.0563,-0.06622,-0.00122,-0.27313,-0.03616,-0.04227,-0.0148,-0.00732,0.07828,0.15427,-0.12482,-0.0238,-0.03204,-0.02411,0.00549,-0.03967
5.4505,0.07004,-0.07126,-0.08774,-0.24216,-0.04608,-0.04211,-0.01572,-0.0029,0.02274,0.13824,-0.12741,0.03418,-0.03265,-0.00534,0.00626,-0.04028
5.451,0.07416,-0.0766,-0.25146,-0.20798,-0.04974,-0.04318,-0.01266,0.00031,-0.03326,0.11551,-0.12421,0.06485,-0.03494,0.00687,0.00641,-0.04349
5.4515,0.06561,-0.08621,-0.43335,-0.1474,-0.0499,-0.04364,-0.01099,0.00214,-0.08606,0.11063,-0.10529,0.07797,-0.03601,0.01312,0.00519,-0.04562
5.452,0.05157,-0.1033,-0.51208,-0.04028,-0.04898,-0.04349,-0.01038,0.00397,-0.13062,0.12436,-0.06683,0.09247,-0.03342,0.01892,0.00473,-0.04501
5.4525,0.04181,-0.11887,-0.39627,0.08102,-0.04913,-0.04288,-0.0116,0.00198,-0.16632,0.1413,-0.02716,0.09796,-0.02945,0.02014,0.00793,-0.04227
5.453,0.03571,-0.12131,-0.14801,0.13702,-0.047,-0.04166,-0.0119,-0.00565,-0.18997,0.14236,-0.00809,0.0798,-0.02792,0.01175,0.01221,-0.03998
5.4535,0.02533,-0.10864,0.0798,0.09079,-0.04135,-0.03937,-0.01099,-0.01663,-0.19562,0.12558,-0.01602,0.05524,-0.02792,-0.0032,0.01434,-0.03891
5.454,0.00931,-0.09247,0.20157,-0.00137,-0.03265,-0.03769,-0.01114,-0.02548,-0.18112,0.09644,-0.02472,0.04852,-0.02762,-0.01633,0.0119,-0.03922
5.4545,-0.00427,-0.07889,0.24765,-0.05203,-0.02258,-0.03525,-0.01007,-0.03113,-0.15427,0.05859,-0.01038,0.03922,-0.02609,-0.02045,0.00977,-0.03952
5.455,-0.00366,-0.06805,0.26779,-0.03708,-0.01419,-0.03555,-0.00961,-0.0386,-0.12665,0.01328,0.01617,-0.0354,-0.02441,-0.01709,0.00824,-0.04227
5.4555,0.00641,-0.05539,0.26413,-0.00732,-0.00809,-0.03937,-0.01068,-0.05173,-0.10544,-0.02914,0.02808,-0.19501,-0.02441,-0.01007,0.00778,-0.04456
5.456,0.01343,-0.04196,0.21423,-0.01846,-0.00641,-0.04349,-0.01526,-0.06866,-0.08362,-0.05096,0.02472,-0.34607,-0.02701,-0.00443,0.00687,-0.04379
5.4565,0.0145,-0.02747,0.13046,-0.06958,-0.00397,-0.04822,-0.02029,-0.07996,-0.05264,-0.04608,0.03082,-0.35889,-0.02914,-0.00198,0.00626,-0.04211
5.457,0.01923,-0.00839,0.05157,-0.11551,0.00153,-0.05203,-0.02243,-0.07111,-0.01923,-0.02884,0.06058,-0.22415,-0.02975,-0.00046,0.00656,-0.04135
5.4575,0.03357,0.01373,0.00946,-0.13077,0.00595,-0.05356,-0.01953,-0.02914,-0.0032,-0.0148,0.10071,-0.07751,-0.03143,0.00076,0.00565,-0.04135
5.458,0.04288,0.03342,0.00824,-0.12726,0.00229,-0.05295,-0.01755,0.04288,-0.01556,-0.00504,0.12512,-0.03036,-0.0325,0.00031,0.00504,-0.04181
5.4585,0.03387,0.04456,0.02914,-0.12726,-0.01068,-0.05173,-0.01923,0.10498,-0.04929,0.01007,0.11948,-0.04318,-0.03326,-0.00656,0.00397,-0.04288
5.459,0.00656,0.04776,0.04425,-0.13504,-0.02945,-0.05203,-0.02411,0.10925,-0.08148,0.03479,0.0882,-0.02136,-0.03418,-0.02182,0.00519,-0.04257
5.4595,-0.01938,0.04791,0.03525,-0.14023,-0.04837,-0.05386,-0.02792,0.06134,-0.09338,0.05783,0.0473,0.02991,-0.0351,-0.04089,0.00732,-0.0412
5.46,-0.03387,0.04517,0.00626,-0.1355,-0.05875,-0.0531,-0.03174,0.01678,-0.08301,0.06882,0.01434,0.02502,-0.03784,-0.05341,0.00839,-0.03876
5.4605,-0.03906,0.03525,-0.02655,-0.11459,-0.05707,-0.05066,-0.03586,0.009,-0.05951,0.06287,-0.00015,-0.03067,-0.03922,-0.05035,0.00916,-0.0383
5.461,-0.04105,0.0174,-0.04547,-0.06989,-0.04669,-0.04883,-0.03708,0.02106,-0.03448,0.04807,0.00275,-0.0322,-0.03799,-0.03021,0.00854,-0.03937
5.4615,-0.0415,-0.01129,-0.04837,-0.00961,-0.03647,-0.04791,-0.03021,0.02441,-0.02136,0.03525,0.01251,0.04745,-0.03525,-0.0087,0.00656,-0.04044
5.462,-0.03815,-0.04578,-0.05157,0.03967,-0.03067,-0.04898,-0.01923,0.01617,-0.02853,0.02579,0.01816,0.09857,-0.03326,-0.00153,0.00397,-0.04166
5.4625,-0.03159,-0.0769,-0.07462,0.05814,-0.03143,-0.04898,-0.01419,0.00519,-0.05295,0.01358,0.01816,0.04593,-0.03281,-0.01251,0.00381,-0.04181
5.463,-0.02487,-0.09247,-0.11215,0.06454,-0.03387,-0.04745,-0.01465,-0.00626,-0.07935,-0.00671,0.01434,-0.03937,-0.03281,-0.02701,0.00351,-0.04242
5.4635,-0.01999,-0.09186,-0.13962,0.08499,-0.03403,-0.04593,-0.01022,-0.02121,-0.08987,-0.03372,-0.00565,-0.05798,-0.03372,-0.03265,0.00305,-0.04364
5.464,-0.0145,-0.08316,-0.13779,0.11108,-0.03067,-0.04776,0.00854,-0.03311,-0.07538,-0.06012,-0.05554,-0.02319,-0.03647,-0.03036,0.00046,-0.04456
5.4645,-0.00366,-0.0737,-0.11688,0.09262,-0.02701,-0.05157,0.03113,-0.03571,-0.03418,-0.08347,-0.11475,0.00031,-0.03937,-0.03174,0.00122,-0.04425
5.465,0.01007,-0.06332,-0.09613,0.00107,-0.02411,-0.05478,0.03372,-0.02518,0.0238,-0.11093,-0.13733,0.00931,-0.04044,-0.03845,0.00076,-0.0441
5.4655,0.02426,-0.04807,-0.08286,-0.12421,-0.02136,-0.05508,0.01099,-0.00153,0.08575,-0.14816,-0.10101,0.0444,-0.03952,-0.03998,0.00336,-0.04242
5.466,0.03235,-0.02182,-0.07065,-0.21408,-0.01617,-0.0528,-0.01434,0.02594,0.1384,-0.18112,-0.04318,0.09735,-0.03647,-0.02457,0.00717,-0.0415
5.4665,0.0264,0.01068,-0.05814,-0.23651,-0.01022,-0.04959,-0.02182,0.03677,0.17212,-0.18906,-0.01511,0.11002,-0.0322,0.0,0.01007,-0.0415
5.467,0.00351,0.03922,-0.04883,-0.22018,-0.0119,-0.04745,-0.0177,0.02151,0.1828,-0.17212,-0.02701,0.06241,-0.02823,0.01678,0.0116,-0.04166
5.4675,-0.0267,0.05783,-0.04715,-0.19745,-0.0235,-0.04761,-0.01785,-0.00076,0.17426,-0.15579,-0.04837,0.00153,-0.02701,0.01831,0.01038,-0.04257
5.468,-0.04654,0.06836,-0.04745,-0.15671,-0.0386,-0.04898,-0.02365,-0.0029,0.15396,-0.15625,-0.05417,-0.02487,-0.02792,0.00809,0.00885,-0.04349
5.4685,-0.04211,0.07584,-0.04562,-0.0737,-0.0473,-0.04944,-0.02731,0.0177,0.12772,-0.16785,-0.04501,-0.01251,-0.0296,-0.00412,0.00793,-0.04425
5.469,-0.02029,0.07706,-0.04456,0.03036,-0.0441,-0.04868,-0.01892,0.03769,0.09506,-0.17761,-0.03036,0.01373,-0.03067,-0.01297,0.00778,-0.04471
5.4695,-0.00534,0.06653,-0.04913,0.09705,-0.03479,-0.04517,0.00229,0.03265,0.04532,-0.17288,-0.01389,0.03159,-0.03036,-0.01923,0.00778,-0.04456
5.47,-0.01404,0.04578,-0.05722,0.0972,-0.02716,-0.04257,0.02426,0.00824,-0.03555,-0.14389,0.0029,0.03357,-0.03082,-0.0206,0.00809,-0.04211
5.4705,-0.03632,0.01938,-0.06027,0.05585,-0.02243,-0.03967,0.02975,-0.01129,-0.14511,-0.09399,0.01236,0.02731,-0.03204,-0.0116,0.0087,-0.03891
5.471,-0.04807,-0.00854,-0.04684,0.02029,-0.02167,-0.03738,0.01419,-0.00916,-0.25146,-0.04456,0.009,0.03082,-0.03265,-0.00168,0.00885,-0.03815
5.4715,-0.04471,-0.03601,-0.01266,0.01251,-0.02609,-0.03662,-0.0058,0.00916,-0.32013,-0.01923,-0.00748,0.04303,-0.03159,-0.00717,0.01114,-0.03937
5.472,-0.03632,-0.05417,0.02502,0.02533,-0.03342,-0.03922,-0.01495,0.02182,-0.33112,-0.01968,-0.02441,0.04715,-0.02991,-0.03006,0.01221,-0.04089
5.4725,-0.03235,-0.05676,0.03738,0.04578,-0.04211,-0.04089,-0.01465,0.01572,-0.29221,-0.02762,-0.03281,0.04227,-0.02975,-0.04379,0.01114,-0.04105
5.473,-0.02914,-0.05112,0.01251,0.06149,-0.04913,-0.04166,-0.01404,-0.00443,-0.22247,-0.02655,-0.03433,0.04974,-0.02899,-0.03693,0.00931,-0.04166
5.4735,-0.02121,-0.04639,-0.02441,0.06531,-0.05493,-0.0441,-0.01556,-0.02167,-0.13809,-0.01648,-0.03189,0.06622,-0.02853,-0.02457,0.00702,-0.04364
5.474,-0.00839,-0.04517,-0.04318,0.06485,-0.0592,-0.04837,-0.01648,-0.02594,-0.04807,-0.00259,-0.02151,0.06042,-0.02487,-0.02289,0.0058,-0.04471
5.4745,0.00443,-0.04425,-0.05661,0.06638,-0.0589,-0.05127,-0.01633,-0.02014,0.04028,0.00839,0.00076,0.01831,-0.02121,-0.02823,0.00687,-0.04303
5.475,0.00336,-0.04745,-0.08209,0.06256,-0.05341,-0.05112,-0.01541,-0.01099,0.11581,0.01373,0.03067,-0.03067,-0.01862,-0.03082,0.00763,-0.04013
5.4755,-0.01205,-0.05753,-0.08728,0.0383,-0.0473,-0.05005,-0.0148,-0.00198,0.16312,0.009,0.05722,-0.05127,-0.01877,-0.02747,0.00854,-0.03891
5.476,-0.03281,-0.07568,-0.02518,-0.00336,-0.04471,-0.05142,-0.01389,0.00519,0.16708,-0.00366,0.07034,-0.05463,-0.0206,-0.02228,0.00946,-0.04059
5.4765,-0.04654,-0.09506,0.08377,-0.04547,-0.04272,-0.05402,-0.01419,0.00351,0.12939,-0.01984,0.06821,-0.08224,-0.02136,-0.01587,0.01007,-0.04181
5.477,-0.04929,-0.11063,0.16602,-0.07278,-0.03983,-0.05569,-0.01526,-0.01038,0.07141,-0.03601,0.04913,-0.13504,-0.02151,-0.01083,0.00931,-0.04196
5.4775,-0.04898,-0.12054,0.1767,-0.07919,-0.03296,-0.05676,-0.01617,-0.02869,0.02579,-0.05066,0.02045,-0.17105,-0.02258,-0.00885,0.00671,-0.04211
5.478,-0.04547,-0.12146,0.1181,-0.06683,-0.02487,-0.05753,-0.0177,-0.0386,0.00397,-0.06348,-0.0061,-0.18036,-0.02487,-0.01038,0.00595,-0.04318
5.4785,-0.03433,-0.11597,0.01129,-0.04257,-0.01938,-0.05814,-0.01999,-0.03601,-0.00534,-0.06027,-0.02014,-0.19257,-0.02625,-0.01205,0.0058,-0.04395
5.479,-0.01907,-0.11017,-0.09964,-0.01434,-0.01984,-0.05798,-0.02258,-0.02594,-0.01129,-0.03693,-0.02182,-0.20401,-0.02594,-0.0087,0.00626,-0.04425
5.4795,-0.00565,-0.10651,-0.15259,0.01816,-0.02228,-0.05585,-0.02365,-0.01465,-0.009,-0.00107,-0.02121,-0.16663,-0.02335,-0.00198,0.00656,-0.04486
5.48,0.00259,-0.10071,-0.11307,0.05798,-0.02197,-0.05142,-0.02472,-0.00595,0.00854,0.03204,-0.02243,-0.06516,-0.02228,0.00214,0.00504,-0.04578
5.4805,0.00854,-0.08835,-0.0116,0.09491,-0.01572,-0.04791,-0.02731,-0.00046,0.03662,0.05219,-0.02609,0.04242,-0.0238,0.0,0.0029,-0.04562
5.481,0.01022,-0.07111,0.08972,0.10971,-0.00595,-0.04562,-0.03128,0.00061,0.0563,0.06073,-0.03723,0.08881,-0.02777,-0.00824,0.00137,-0.04318
5.4815,0.00717,-0.05264,0.14038,0.09827,-0.00137,-0.04379,-0.03235,-0.00534,0.05524,0.0589,-0.05875,0.06256,-0.0325,-0.01709,0.00198,-0.03952
5.482,0.00305,-0.03647,0.13062,0.0766,-0.00549,-0.04379,-0.0267,-0.01938,0.03784,0.047,-0.08209,0.01266,-0.03555,-0.02472,0.00305,-0.03708
5.4825,0.00168,-0.02487,0.08286,0.05661,-0.01816,-0.04715,-0.01312,-0.03586,0.02838,0.02853,-0.09094,-0.01328,-0.03708,-0.02869,0.00473,-0.0383
5.483,0.00183,-0.01572,0.02716,0.03616,-0.03159,-0.05112,0.00198,-0.03998,0.04227,0.01236,-0.08163,-0.01328,-0.03769,-0.0293,0.00702,-0.03983
5.4835,-0.00031,-0.01038,-0.01877,0.01022,-0.03525,-0.05188,0.00626,-0.02563,0.06927,-0.00229,-0.06073,-0.00198,-0.03815,-0.02853,0.00916,-0.04044
5.484,-0.00534,-0.00565,-0.05112,-0.01556,-0.02487,-0.04868,-0.00198,-0.00259,0.0914,-0.01923,-0.03754,0.03052,-0.03891,-0.02869,0.00916,-0.04227
5.4845,-0.00931,-0.00687,-0.07492,-0.03815,-0.01038,-0.04379,-0.01511,0.01266,0.10483,-0.03403,-0.02167,0.08728,-0.03784,-0.02777,0.00717,-0.04364
5.485,-0.01251,-0.01633,-0.09659,-0.05966,-0.00214,-0.03998,-0.02502,0.01663,0.11002,-0.03342,-0.02045,0.12772,-0.03586,-0.02197,0.00656,-0.04303
5.4855,-0.01892,-0.03418,-0.11993,-0.07904,-0.00412,-0.03769,-0.03448,0.01434,0.09979,-0.01358,-0.02975,0.11444,-0.03555,-0.01572,0.00946,-0.0415
5.486,-0.02335,-0.05569,-0.14221,-0.08957,-0.01389,-0.03906,-0.04669,0.01053,0.05966,0.00916,-0.03433,0.06622,-0.03693,-0.01358,0.01251,-0.04105
5.4865,-0.02213,-0.07095,-0.15549,-0.08499,-0.03342,-0.04166,-0.05157,-0.00122,-0.0116,0.02487,-0.01984,0.02182,-0.03922,-0.01984,0.01328,-0.04227
5.487,-0.01602,-0.07767,-0.16068,-0.06668,-0.0592,-0.04425,-0.03769,-0.02975,-0.09918,0.03357,0.02228,-0.01144,-0.03998,-0.02747,0.01099,-0.04257
5.4875,-0.00946,-0.08072,-0.16556,-0.04791,-0.07706,-0.04562,-0.01526,-0.07034,-0.1799,0.0322,0.08575,-0.04608,-0.04013,-0.0325,0.00839,-0.04166
5.488,-0.00381,-0.08743,-0.17868,-0.0412,-0.07568,-0.04517,-0.00458,-0.09445,-0.23621,0.01312,0.1387,-0.0766,-0.04211,-0.03265,0.00687,-0.0412
5.4885,0.00153,-0.09567,-0.18768,-0.04395,-0.06073,-0.047,-0.00656,-0.08057,-0.26321,-0.02045,0.13763,-0.08179,-0.0444,-0.02853,0.00595,-0.04333
5.489,0.00626,-0.10315,-0.17349,-0.04379,-0.04623,-0.05203,-0.0061,-0.03632,-0.26398,-0.0589,0.0766,-0.05722,-0.04623,-0.02213,0.00626,-0.04456
5.4895,0.00977,-0.10773,-0.12756,-0.03067,-0.03876,-0.05432,0.00275,0.00076,-0.24368,-0.09216,-0.00198,-0.00229,-0.04608,-0.01633,0.00748,-0.04379
5.49,0.01511,-0.1062,-0.06653,-0.00427,-0.03998,-0.05707,0.01038,0.00824,-0.20645,-0.11154,-0.05264,0.09171,-0.04608,-0.01328,0.0087,-0.0412
5.4905,0.02563,-0.0943,-0.01663,0.02533,-0.05066,-0.05829,0.00717,-0.00092,-0.16129,-0.10712,-0.06683,0.2005,-0.04532,-0.01526,0.01068,-0.04028
5.491,0.03876,-0.07431,0.00793,0.04593,-0.06622,-0.06027,-0.00443,-0.0029,-0.11826,-0.07492,-0.06454,0.24277,-0.0444,-0.01968,0.01236,-0.04089
5.4915,0.04608,-0.06363,0.01205,0.0563,-0.07385,-0.06027,-0.0177,0.0058,-0.08041,-0.02533,-0.07004,0.17532,-0.04272,-0.02075,0.01038,-0.04211
5.492,0.04257,-0.07339,0.00504,0.05264,-0.06653,-0.06042,-0.03174,0.01007,-0.04257,0.0235,-0.09247,0.05203,-0.04074,-0.0177,0.00702,-0.04227
5.4925,0.03494,-0.09399,-0.01999,0.02701,-0.05112,-0.06073,-0.04135,0.00488,-0.00168,0.06119,-0.11902,-0.05112,-0.0383,-0.01053,0.00671,-0.04257
5.493,0.0325,-0.10162,-0.0766,-0.01633,-0.04181,-0.06012,-0.04395,-0.00275,0.03647,0.08896,-0.12436,-0.11856,-0.03586,-0.00366,0.00687,-0.0444
5.4935,0.03601,-0.09506,-0.13947,-0.05096,-0.04395,-0.05768,-0.04272,-0.00732,0.0592,0.10635,-0.09933,-0.16953,-0.03265,-0.0032,0.00885,-0.04654
5.494,0.04059,-0.09003,-0.17227,-0.08011,-0.04593,-0.05356,-0.04196,-0.01282,0.06104,0.11078,-0.06332,-0.20782,-0.03128,-0.00916,0.00702,-0.04684
5.4945,0.03693,-0.0946,-0.18204,-0.15732,-0.04135,-0.05051,-0.0444,-0.02228,0.05035,0.09476,-0.04318,-0.2243,-0.03159,-0.01617,0.00366,-0.04593
5.495,0.0235,-0.09811,-0.17151,-0.32654,-0.03448,-0.04929,-0.04929,-0.02853,0.04135,0.04471,-0.04364,-0.21088,-0.03357,-0.0177,0.00366,-0.04486
5.4955,0.0174,-0.08499,-0.09094,-0.54779,-0.02899,-0.04761,-0.04761,-0.02014,0.04028,-0.03784,-0.04517,-0.14572,-0.03494,-0.01068,0.00534,-0.04349
5.496,0.03479,-0.05417,0.08347,-0.7103,-0.02396,-0.04562,-0.02533,-0.00351,0.03937,-0.13,-0.03433,0.01022,-0.03464,-0.00259,0.00778,-0.04196
5.4965,0.05783,-0.01801,0.26794,-0.74982,-0.01907,-0.04272,0.02518,0.00565,0.02716,-0.20035,-0.01785,0.24185,-0.03403,-0.00381,0.01068,-0.04166
5.497,0.0528,0.01114,0.35629,-0.71472,-0.01801,-0.04196,0.08408,0.00366,0.0061,-0.2269,-0.01205,0.41718,-0.03418,-0.01816,0.01251,-0.04166
5.4975,0.0148,0.03067,0.33127,-0.65613,-0.02563,-0.04395,0.10727,0.00107,-0.01373,-0.21591,-0.01602,0.40176,-0.03677,-0.03616,0.01297,-0.04211
5.498,-0.02914,0.04425,0.25345,-0.48401,-0.03693,-0.04837,0.07813,0.00275,-0.02579,-0.17868,-0.01831,0.23148,-0.03754,-0.04364,0.0116,-0.04257
5.4985,-0.05615,0.05447,0.17242,-0.04135,-0.04288,-0.04929,0.02716,0.00381,-0.02914,-0.12543,-0.00641,0.06546,-0.03754,-0.03799,0.00977,-0.0412
5.499,-0.06012,0.05585,0.10452,0.63477,-0.04044,-0.04837,-0.00702,0.00397,-0.02396,-0.06973,0.01541,-0.01511,-0.03662,-0.0293,0.01022,-0.03952
5.4995,-0.04593,0.04791,0.05798,1.21109,-0.03052,-0.04761,-0.01694,0.00519,-0.00748,-0.02686,0.03433,-0.05264,-0.03448,-0.02396,0.01038,-0.0383
5.5,-0.02457,0.03494,0.04013,1.33118,-0.01678,-0.0473,-0.01877,0.00549,0.0235,-0.00351,0.04013,-0.08301,-0.03204,-0.02136,0.00793,-0.03906
5.5005,-0.01068,0.02136,0.03189,0.9906,-0.00519,-0.04501,-0.0238,0.00305,0.06729,0.00916,0.03891,-0.08835,-0.03128,-0.02014,0.00626,-0.03998
5.501,-0.01312,0.00519,0.00275,0.54031,0.00244,-0.04288,-0.02808,-0.00153,0.11719,0.02426,0.04669,-0.06592,-0.03021,-0.01816,0.00656,-0.03983
5.5015,-0.02213,-0.01541,-0.04807,0.30487,0.00687,-0.04211,-0.02701,-0.00412,0.16373,0.03967,0.06729,-0.03906,-0.03006,-0.01526,0.00992,-0.03845
5.502,-0.0293,-0.03571,-0.09018,0.30533,0.009,-0.0441,-0.02411,-0.00427,0.19913,0.04807,0.08133,-0.0029,-0.02975,-0.01099,0.01083,-0.03632
5.5025,-0.0383,-0.04654,-0.09674,0.35553,0.00351,-0.04776,-0.02289,-0.00366,0.20584,0.04089,0.0766,0.05295,-0.0296,-0.00275,0.0116,-0.03708
5.503,-0.06378,-0.04303,-0.07431,0.31326,-0.00778,-0.04944,-0.02289,-0.00366,0.16907,0.01785,0.06775,0.08286,-0.02823,0.0087,0.01175,-0.03998
5.5035,-0.10361,-0.03296,-0.04974,0.18234,-0.02014,-0.04837,-0.02121,-0.00351,0.08743,-0.0058,0.07904,0.03372,-0.02701,0.01892,0.01266,-0.04181
5.504,-0.13351,-0.02609,-0.04517,0.04288,-0.02762,-0.04593,-0.01984,-0.00381,-0.02136,-0.0206,0.1004,-0.06912,-0.02701,0.02167,0.01358,-0.04211
5.5045,-0.13443,-0.0264,-0.06821,-0.0444,-0.03067,-0.04486,-0.02075,-0.00549,-0.12451,-0.02884,0.09415,-0.15076,-0.02777,0.01465,0.01266,-0.04211
5.505,-0.11505,-0.03143,-0.11169,-0.07172,-0.03052,-0.0444,-0.02289,-0.00732,-0.19638,-0.03281,0.03235,-0.16373,-0.02625,-0.00076,0.01038,-0.04425
5.5055,-0.09262,-0.03815,-0.16037,-0.06699,-0.03082,-0.04349,-0.02487,-0.00916,-0.22476,-0.01877,-0.06317,-0.11002,-0.02457,-0.01862,0.00641,-0.04471
5.506,-0.07156,-0.04288,-0.20248,-0.0563,-0.03387,-0.04318,-0.02502,-0.01068,-0.21133,0.01724,-0.14465,-0.01572,-0.0235,-0.03693,0.00427,-0.04333
5.5065,-0.03998,-0.04684,-0.23361,-0.04913,-0.04181,-0.04242,-0.02533,-0.01083,-0.16632,0.06073,-0.18326,0.07141,-0.02274,-0.05188,0.00336,-0.04196
5.507,0.00305,-0.0499,-0.24872,-0.04868,-0.05173,-0.03891,-0.02441,-0.01038,-0.112,0.09186,-0.18021,0.10178,-0.02335,-0.06012,0.00244,-0.04425
5.5075,0.04883,-0.05051,-0.24261,-0.0563,-0.05463,-0.03464,-0.02365,-0.00809,-0.06897,0.11154,-0.14999,0.06836,-0.02441,-0.05905,0.00275,-0.04639
5.508,0.08377,-0.04669,-0.21896,-0.06638,-0.04654,-0.0322,-0.02228,-0.00427,-0.04196,0.13626,-0.10712,0.01694,-0.0238,-0.04883,0.00275,-0.04684
5.5085,0.09933,-0.04028,-0.19592,-0.06729,-0.03342,-0.02945,-0.02045,-0.00031,-0.01938,0.168,-0.07172,0.00015,-0.02319,-0.03067,0.00351,-0.04608
5.509,0.09033,-0.03769,-0.17532,-0.05463,-0.02838,-0.02792,-0.01999,0.00153,0.00748,0.18906,-0.05722,0.01892,-0.02182,-0.01068,0.00366,-0.04532
5.5095,0.06104,-0.04013,-0.121,-0.03693,-0.03128,-0.02838,-0.01923,0.00183,0.03128,0.18631,-0.06577,0.03021,-0.02182,0.00351,0.00366,-0.04639
5.51,0.01907,-0.04074,-0.01053,-0.02411,-0.03342,-0.02884,-0.01877,0.00107,0.03738,0.16251,-0.08194,0.00793,-0.02487,0.00793,0.00153,-0.04684
5.5105,-0.02914,-0.03326,0.11383,-0.01907,-0.03098,-0.02975,-0.01648,-0.00031,0.0235,0.12756,-0.0885,-0.02441,-0.02823,0.00534,0.00183,-0.04639
5.511,-0.06744,-0.02213,0.18494,-0.01923,-0.02655,-0.03006,-0.01572,-0.00153,0.00122,0.09125,-0.07782,-0.01144,-0.03159,0.00183,0.00244,-0.04669
5.5115,-0.07065,-0.01236,0.18036,-0.02441,-0.02274,-0.0293,-0.01602,-0.00229,-0.02136,0.05096,-0.05569,0.06989,-0.03281,0.00366,0.00336,-0.04715
5.512,-0.03448,-0.00854,0.12924,-0.0351,-0.02228,-0.03113,-0.01709,-0.0032,-0.04135,0.01266,-0.03601,0.16479,-0.03113,0.01022,0.00259,-0.04654
5.5125,0.00778,-0.01465,0.06195,-0.05005,-0.02441,-0.03555,-0.01678,-0.00488,-0.05035,-0.02151,-0.02487,0.18463,-0.02777,0.01633,0.0029,-0.0441
5.513,0.02029,-0.03128,-0.00198,-0.06195,-0.02579,-0.03983,-0.01602,-0.00839,-0.04227,-0.05005,-0.01541,0.11078,-0.0264,0.01938,0.00519,-0.04028
5.5135,0.00504,-0.05371,-0.0531,-0.06363,-0.0264,-0.04166,-0.01587,-0.01221,-0.02151,-0.07874,0.00137,0.01343,-0.02716,0.02258,0.00565,-0.03708
5.514,-0.00763,-0.07141,-0.08499,-0.05951,-0.02518,-0.04211,-0.01663,-0.01297,-0.00183,-0.10406,0.01938,-0.04456,-0.02731,0.01999,0.00549,-0.03479
5.5145,0.00031,-0.07965,-0.0972,-0.05722,-0.02213,-0.04272,-0.01801,-0.01053,0.01068,-0.12329,0.02075,-0.08057,-0.0235,-0.01175,0.00595,-0.03555
5.515,0.0206,-0.08392,-0.09064,-0.06699,-0.01816,-0.04639,-0.0174,-0.00916,0.01282,-0.13992,-0.00198,-0.14404,-0.01923,-0.08575,0.00732,-0.03662
5.5155,0.03494,-0.08759,-0.06409,-0.08682,-0.01312,-0.04776,-0.01541,-0.00824,-0.00183,-0.15366,-0.03479,-0.23239,-0.02045,-0.17044,0.009,-0.03723
5.516,0.03494,-0.08636,-0.01663,-0.09537,-0.00656,-0.04623,-0.01389,-0.00717,-0.03571,-0.16327,-0.04608,-0.30182,-0.03021,-0.21027,0.00854,-0.03738
5.5165,0.02579,-0.07507,0.02701,-0.06561,0.00412,-0.04349,-0.01434,-0.00504,-0.07111,-0.16525,-0.01389,-0.327,-0.04745,-0.18555,0.00641,-0.0386
5.517,0.01541,-0.05402,0.01434,-0.00015,0.01709,-0.04364,-0.01541,-0.00427,-0.08926,-0.15625,0.04669,-0.29541,-0.06744,-0.12558,0.00656,-0.04135
5.5175,0.00412,-0.03281,-0.08667,0.06577,0.02625,-0.04532,-0.01495,-0.00412,-0.09399,-0.13901,0.09125,-0.16937,-0.08286,-0.06607,0.0087,-0.04303
5.518,-0.01083,-0.01556,-0.21301,0.09323,0.02579,-0.04669,-0.01053,-0.00153,-0.09781,-0.11871,0.08957,0.04776,-0.08575,-0.01953,0.01221,-0.04364
5.5185,-0.02731,-0.00198,-0.24994,0.07294,0.01938,-0.04929,-0.00809,0.00137,-0.09506,-0.09964,0.06134,0.24643,-0.0766,0.009,0.01419,-0.04272
5.519,-0.03601,0.00763,-0.15274,0.03372,0.0116,-0.05035,-0.00854,0.00259,-0.07034,-0.08362,0.04425,0.30731,-0.06454,0.0145,0.01266,-0.04242
5.5195,-0.0322,0.01053,-0.0029,0.01007,0.0,-0.05112,-0.01099,0.00168,-0.02716,-0.07034,0.0502,0.24338,-0.05646,0.00031,0.00977,-0.04211
5.52,-0.02167,0.00473,0.08865,-0.00183,-0.02335,-0.05142,-0.01266,0.0,0.00702,-0.05783,0.06287,0.16006,-0.05188,-0.01648,0.00732,-0.04059
5.5205,-0.01099,-0.0061,0.0853,-0.0351,-0.05814,-0.05142,-0.01434,-0.00214,0.01862,-0.04456,0.0676,0.1059,-0.04837,-0.02365,0.00732,-0.03922
5.521,-0.00473,-0.01617,0.01923,-0.10483,-0.09048,-0.05219,-0.01572,-0.0032,0.01709,-0.02853,0.06638,0.05249,-0.0415,-0.02197,0.01007,-0.04028
5.5215,-0.00259,-0.02365,-0.06027,-0.18112,-0.10818,-0.05478,-0.01694,-0.00305,0.02121,-0.01816,0.06088,-0.00488,-0.03357,-0.01968,0.01022,-0.04303
5.522,-0.0032,-0.02869,-0.11765,-0.2121,-0.10712,-0.05493,-0.01846,-0.00336,0.04318,-0.01328,0.04883,-0.02625,-0.0264,-0.01968,0.00854,-0.04501
5.5225,0.00397,-0.0322,-0.1239,-0.16281,-0.09644,-0.05325,-0.02228,-0.00626,0.07553,-0.00763,0.03098,-0.00397,-0.02197,-0.02182,0.0058,-0.0441
5.523,0.0296,-0.03204,-0.07996,-0.05188,-0.08514,-0.05188,-0.02686,-0.01007,0.09399,-0.00198,0.01343,0.02502,-0.02106,-0.02457,0.00702,-0.04318
5.5235,0.0621,-0.03143,-0.01328,0.04715,-0.07584,-0.05234,-0.03067,-0.01175,0.07248,-0.00671,0.0,0.03464,-0.02441,-0.02502,0.01038,-0.04242
5.524,0.06912,-0.03586,0.03525,0.04395,-0.06805,-0.05722,-0.0325,-0.01099,0.0148,-0.02716,-0.01297,0.03403,-0.02747,-0.02121,0.01144,-0.0412
5.5245,0.0383,-0.04669,0.04547,-0.08835,-0.06088,-0.06287,-0.03143,-0.00885,-0.05096,-0.0499,-0.02579,0.04227,-0.02716,-0.01404,0.01068,-0.03922
5.525,-0.00778,-0.05905,0.02457,-0.26596,-0.05386,-0.06393,-0.02899,-0.00824,-0.103,-0.05478,-0.03296,0.05554,-0.02548,-0.00687,0.00885,-0.04028
5.5255,-0.03647,-0.07004,-0.00671,-0.36209,-0.04807,-0.05981,-0.02472,-0.00961,-0.1416,-0.04089,-0.03403,0.05219,-0.02457,0.0,0.00809,-0.04364
5.526,-0.03952,-0.07874,-0.0351,-0.327,-0.04242,-0.05432,-0.01862,-0.01068,-0.16968,-0.02701,-0.0354,0.01083,-0.02228,0.00778,0.00595,-0.04608
5.5265,-0.03235,-0.09003,-0.05219,-0.2298,-0.03891,-0.05112,-0.00916,-0.01007,-0.1767,-0.02258,-0.04211,-0.06561,-0.02045,0.01541,0.00473,-0.04501
5.527,-0.03372,-0.10269,-0.05035,-0.16251,-0.03647,-0.05356,-0.00305,-0.00778,-0.15503,-0.02533,-0.04929,-0.14618,-0.01862,0.02411,0.00656,-0.04227
5.5275,-0.04425,-0.112,-0.0293,-0.14709,-0.0322,-0.05524,-0.00122,-0.00549,-0.11093,-0.03113,-0.04684,-0.19257,-0.0174,0.03189,0.00931,-0.04059
5.528,-0.05112,-0.11032,-0.00885,-0.1416,-0.0264,-0.05539,-0.00244,-0.00381,-0.05386,-0.03555,-0.0325,-0.19363,-0.01709,0.03387,0.00977,-0.0412
5.5285,-0.04517,-0.09644,-0.01572,-0.1181,-0.02228,-0.05554,-0.00488,-0.00122,0.0058,-0.03067,-0.01389,-0.14908,-0.01801,0.02563,0.00824,-0.04379
5.529,-0.02838,-0.07462,-0.04593,-0.08972,-0.02289,-0.05615,-0.00626,0.00122,0.05493,-0.01785,-0.0032,-0.04242,-0.01923,0.01328,0.00793,-0.04578
5.5295,-0.00793,-0.0499,-0.06454,-0.06439,-0.02487,-0.05493,-0.00534,0.00275,0.08606,0.0,0.00092,0.11673,-0.02106,0.009,0.00854,-0.04562
5.53,0.01221,-0.02472,-0.04959,-0.03494,-0.0296,-0.05066,-0.00229,0.00336,0.10468,0.01129,0.00214,0.23102,-0.02121,0.01236,0.01022,-0.0444
5.5305,0.03021,-0.00336,-0.02548,-0.00183,-0.03296,-0.04669,-0.00092,0.00198,0.11902,0.01816,-0.00427,0.17853,-0.02014,0.0148,0.01053,-0.04349
5.531,0.04562,0.01053,-0.05203,0.02319,-0.03326,-0.04547,-0.00137,0.0,0.12543,0.02686,-0.01694,-0.0148,-0.01801,0.0116,0.01022,-0.04288
5.5315,0.0563,0.0174,-0.16632,0.03723,-0.03159,-0.04593,-0.00336,-0.0029,0.11627,0.04349,-0.02548,-0.16235,-0.01633,0.00626,0.01129,-0.0412
5.532,0.06256,0.01892,-0.29343,0.0351,-0.02991,-0.04501,-0.00488,-0.00412,0.09689,0.05402,-0.02884,-0.12817,-0.01755,0.00412,0.01389,-0.04028
5.5325,0.06851,0.01724,-0.28885,0.00351,-0.02747,-0.04349,-0.00626,-0.00275,0.08545,0.04654,-0.05081,0.01846,-0.02121,0.00671,0.01282,-0.04135
5.533,0.07599,0.01434,-0.10361,-0.04852,-0.02274,-0.0412,-0.01007,-0.00305,0.08972,0.02396,-0.10315,0.10391,-0.02472,0.009,0.01144,-0.04395
5.5335,0.0824,0.00931,0.1265,-0.07858,-0.01648,-0.03876,-0.01617,-0.00595,0.09659,-0.00153,-0.16678,0.06378,-0.02609,0.00534,0.00961,-0.04471
5.534,0.08804,-0.00015,0.24719,-0.06027,-0.0148,-0.03952,-0.01984,-0.009,0.08743,-0.02426,-0.20798,-0.01404,-0.02563,-0.00183,0.00763,-0.04288
5.5345,0.08942,-0.01099,0.23209,-0.0174,-0.01541,-0.04517,-0.02075,-0.00885,0.06378,-0.04272,-0.20752,-0.03632,-0.02533,-0.00931,0.00717,-0.04135
5.535,0.0827,-0.01892,0.15259,0.01465,-0.0148,-0.05096,-0.02045,-0.0058,0.03952,-0.05951,-0.16098,-0.00137,-0.02487,-0.01297,0.00732,-0.04349
5.5355,0.06882,-0.01968,0.06866,0.03342,-0.01343,-0.05356,-0.01877,-0.00397,0.02136,-0.06607,-0.09109,0.03922,-0.02472,-0.01358,0.00687,-0.04791
5.536,0.056,-0.02106,0.00015,0.05768,-0.01053,-0.05325,-0.0177,-0.00351,0.00031,-0.05569,-0.03128,0.05585,-0.02655,-0.0116,0.00504,-0.04715
