time,RectFemL,VastusMedL,VastusLatL,TibAntL,HamMedL,HamLatL,GastroMedL,GastroLatL,RectFemR,VastusMedR,VastusLatR,TibAntR,HamMedR,HamLatR,GastroMedR,GastroLatR
6.05,-0.00626,-0.05173,-0.04135,0.05386,-0.01724,-0.05447,0.05646,0.01678,0.01816,-0.07339,0.04395,-0.00351,-0.0058,-0.01404,-0.00244,-0.03937
6.0505,-0.00534,-0.05798,-0.04517,0.07309,-0.01328,-0.05539,0.05768,0.03784,0.02258,-0.07599,0.04135,0.0,0.009,-0.01434,0.00153,-0.03922
6.051,-0.00702,-0.05814,-0.04639,0.06775,-0.00717,-0.05539,0.02029,0.04883,0.02808,-0.06958,0.03616,0.00351,0.01709,-0.01434,0.00565,-0.04074
6.0515,-0.00824,-0.05371,-0.0444,0.06088,0.00107,-0.05539,-0.02121,0.03876,0.0322,-0.05905,0.0296,0.00549,0.01495,-0.01556,0.01587,-0.0415
6.052,-0.00687,-0.04639,-0.04181,0.06439,0.00717,-0.05615,-0.047,0.01495,0.03326,-0.05127,0.01968,0.00671,0.00809,-0.01602,0.0296,-0.03891
6.0525,-0.00397,-0.04074,-0.03876,0.06378,0.01175,-0.05554,-0.05905,-0.00336,0.02914,-0.04272,0.00549,0.00885,0.00046,-0.01617,0.03708,-0.0354
6.053,-0.00229,-0.03799,-0.03693,0.04227,0.01404,-0.05417,-0.05325,-0.0058,0.01785,-0.03189,-0.00702,0.00885,-0.0087,-0.01602,0.03159,-0.03448
6.0535,-0.00412,-0.03906,-0.03723,0.01358,0.0119,-0.05249,-0.01282,-0.00061,-0.00031,-0.01968,-0.01404,0.0058,-0.01907,-0.01617,0.01877,-0.03555
6.054,-0.00961,-0.04242,-0.04211,-0.00153,0.0032,-0.05203,0.05386,-0.00122,-0.0235,-0.00687,-0.01465,0.00137,-0.02533,-0.0177,0.00961,-0.03677
6.0545,-0.01465,-0.04761,-0.04883,0.00229,-0.00824,-0.05219,0.1062,-0.00885,-0.04959,0.00488,-0.01312,-0.00046,-0.02502,-0.02136,0.00763,-0.03677
6.055,-0.01526,-0.05142,-0.05432,0.01083,-0.01358,-0.05142,0.10986,-0.01465,-0.08194,0.01465,-0.01434,-0.00015,-0.02106,-0.0264,0.01129,-0.03693
6.0555,-0.00977,-0.05173,-0.05524,0.01526,-0.00687,-0.05081,0.07263,-0.01419,-0.11459,0.01968,-0.01877,0.00076,-0.01389,-0.02808,0.01755,-0.03693
6.056,-0.00443,-0.04761,-0.05219,0.0148,0.00366,-0.05112,0.02869,-0.00961,-0.12573,0.02213,-0.02289,0.00153,-0.00351,-0.02686,0.02579,-0.03815
6.0565,-0.00153,-0.04181,-0.04913,0.01419,0.00031,-0.05264,0.00305,-0.00565,-0.10651,0.02151,-0.02686,0.00214,0.00504,-0.02258,0.03281,-0.04105
6.057,-0.00229,-0.03754,-0.04959,0.0119,-0.02716,-0.05508,-0.00305,-0.00427,-0.0705,0.01663,-0.02747,0.00198,0.00488,-0.01877,0.03555,-0.04333
6.0575,-0.00336,-0.03799,-0.05051,0.00717,-0.06882,-0.05585,0.00244,-0.00412,-0.04242,0.00793,-0.0238,0.00259,-0.00381,-0.01648,0.03311,-0.04425
6.058,-0.00244,-0.04196,-0.04837,0.00046,-0.09445,-0.0563,0.0177,-0.00473,-0.03098,-0.0032,-0.01724,0.0029,-0.01862,-0.01587,0.02533,-0.04807
6.0585,0.00015,-0.04471,-0.04364,-0.00748,-0.0853,-0.05463,0.03693,-0.00351,-0.02655,-0.01205,-0.01343,0.0029,-0.0322,-0.01434,0.01343,-0.05798
6.059,0.00351,-0.04456,-0.03738,-0.01541,-0.05157,-0.05203,0.04837,0.00092,-0.02213,-0.02319,-0.01175,0.00122,-0.03876,-0.01404,-0.00122,-0.07065
6.0595,0.0058,-0.04333,-0.03021,-0.02258,-0.02335,-0.05066,0.04578,0.00534,-0.01556,-0.03738,-0.0058,-0.00229,-0.03754,-0.01526,-0.02258,-0.07568
6.06,0.0061,-0.04166,-0.02106,-0.02823,-0.01617,-0.04929,0.03647,0.00656,-0.0087,-0.05035,0.01083,-0.00504,-0.03952,-0.01862,-0.05569,-0.06882
6.0605,0.0032,-0.03754,-0.01266,-0.03235,-0.02121,-0.0473,0.02258,0.00275,-0.00305,-0.05676,0.03662,-0.00641,-0.04288,-0.01862,-0.09521,-0.0563
6.061,0.0,-0.03098,-0.00824,-0.03799,-0.02899,-0.04639,-0.00412,-0.00229,0.00061,-0.056,0.047,-0.00778,-0.03464,-0.01511,-0.13321,-0.04593
6.0615,-0.00443,-0.02625,-0.00854,-0.04364,-0.03799,-0.04562,-0.04272,-0.00641,0.00061,-0.05081,0.02792,-0.00946,-0.01282,-0.01114,-0.16144,-0.03799
6.062,-0.00763,-0.02853,-0.01328,-0.04715,-0.0444,-0.0444,-0.07538,-0.0087,0.0,-0.04456,-0.00717,-0.01144,0.00778,-0.01007,-0.16891,-0.03204
6.0625,-0.00748,-0.0351,-0.01846,-0.03906,-0.04196,-0.04318,-0.09445,-0.01022,-0.00031,-0.04181,-0.03326,-0.01434,0.01709,-0.01068,-0.13931,-0.03006
6.063,-0.00473,-0.04105,-0.02213,-0.01419,-0.02991,-0.0415,-0.10422,-0.01282,-0.00198,-0.04288,-0.04196,-0.01816,0.01511,-0.01083,-0.07553,-0.03586
6.0635,-0.00107,-0.04593,-0.02457,0.01968,-0.01526,-0.03998,-0.10071,-0.0177,-0.00778,-0.03891,-0.04257,-0.02136,0.00183,-0.00946,-0.00946,-0.04608
6.064,-0.00061,-0.05066,-0.02625,0.03937,-0.0032,-0.04013,-0.07202,-0.0238,-0.01404,-0.02426,-0.04242,-0.02029,-0.01877,-0.00885,0.03128,-0.04456
6.0645,-0.00137,-0.05508,-0.03006,0.03113,0.00946,-0.04196,-0.02884,-0.02548,-0.01694,-0.00198,-0.0415,-0.01129,-0.03906,-0.0119,0.05432,-0.02136
6.065,0.0,-0.05554,-0.03326,0.00351,0.0267,-0.0444,0.00015,-0.02228,-0.01877,0.01953,-0.04028,0.00778,-0.05722,-0.01755,0.07111,0.00717
6.0655,0.00351,-0.05203,-0.03479,-0.02029,0.04242,-0.04593,-0.00031,-0.01892,-0.02472,0.03876,-0.04349,0.03189,-0.07492,-0.02243,0.08636,0.01205
6.066,0.00458,-0.04562,-0.03601,-0.02823,0.05112,-0.04898,-0.02304,-0.01831,-0.03098,0.05417,-0.05051,0.04684,-0.07339,-0.02457,0.09644,-0.01205
6.0665,0.00214,-0.03616,-0.04135,-0.02426,0.05493,-0.0531,-0.04517,-0.01984,-0.03189,0.06363,-0.05402,0.04074,-0.0415,-0.02426,0.10223,-0.03708
6.067,-0.00092,-0.0238,-0.04791,-0.0238,0.05341,-0.05493,-0.04349,-0.01953,-0.02304,0.06287,-0.04822,0.01968,-0.00824,-0.02213,0.11322,-0.04288
6.0675,-0.00259,-0.01404,-0.05264,-0.03922,0.04684,-0.05386,-0.01312,-0.01526,-0.01266,0.05264,-0.03464,0.00153,-0.02213,-0.01938,0.12772,-0.03937
6.068,-0.00412,-0.01602,-0.05264,-0.06577,0.02579,-0.0531,0.02136,-0.00854,-0.00702,0.03738,-0.01984,-0.00717,-0.08575,-0.01816,0.13321,-0.04059
6.0685,-0.00763,-0.02731,-0.05035,-0.08209,-0.01877,-0.05478,0.03189,-0.00427,-0.00412,0.02258,-0.00641,-0.01053,-0.14389,-0.01663,0.11124,-0.04639
6.069,-0.00992,-0.03967,-0.04898,-0.07111,-0.07828,-0.05707,0.01587,-0.00198,-0.00137,0.01022,0.00244,-0.01511,-0.14572,-0.01312,0.06897,-0.04959
6.0695,-0.00854,-0.04715,-0.04837,-0.03601,-0.12558,-0.05539,0.00168,-0.00092,-0.00198,0.00259,0.00397,-0.01984,-0.1001,-0.00992,0.02213,-0.04807
6.07,-0.00336,-0.04837,-0.04669,0.00732,-0.14725,-0.04959,0.01038,0.00153,-0.00809,-0.00351,-0.00046,-0.02228,-0.05722,-0.00961,-0.01602,-0.04684
6.0705,0.00061,-0.04623,-0.04395,0.03464,-0.15244,-0.04471,0.03128,0.00702,-0.01602,-0.01114,-0.00504,-0.01923,-0.0444,-0.01511,-0.03296,-0.04501
6.071,0.00229,-0.04089,-0.04333,0.01495,-0.14725,-0.04318,0.0383,0.01312,-0.02167,-0.01907,-0.009,-0.00977,-0.04715,-0.02167,-0.01999,-0.04257
6.0715,0.00046,-0.03448,-0.04547,-0.06805,-0.12711,-0.04425,0.01801,0.01526,-0.02441,-0.02609,-0.01083,0.01038,-0.04745,-0.02319,0.01541,-0.04059
6.072,-0.00397,-0.02777,-0.04303,-0.17975,-0.08957,-0.04166,-0.01877,0.01236,-0.02487,-0.03067,-0.01358,0.04166,-0.04547,-0.0209,0.0412,-0.04105
6.0725,-0.009,-0.02457,-0.03967,-0.2597,-0.05081,-0.03815,-0.05341,0.00809,-0.02197,-0.03326,-0.01602,0.065,-0.04532,-0.0206,0.0383,-0.04196
6.073,-0.01266,-0.02747,-0.03586,-0.28091,-0.02808,-0.03677,-0.07217,0.0029,-0.01465,-0.03387,-0.01602,0.05783,-0.04791,-0.02182,0.02243,-0.04272
6.0735,-0.01419,-0.0386,-0.03357,-0.26138,-0.02289,-0.03784,-0.07156,-0.00061,-0.009,-0.03387,-0.00854,0.02426,-0.04562,-0.02258,0.01328,-0.04303
6.074,-0.0145,-0.05341,-0.03708,-0.20584,-0.02029,-0.04074,-0.05829,-0.00305,-0.00748,-0.03174,0.01434,-0.00412,-0.03693,-0.02289,0.01343,-0.04425
6.0745,-0.01587,-0.06439,-0.04288,-0.08362,-0.01328,-0.04242,-0.04547,-0.00443,-0.00839,-0.0293,0.04379,-0.00885,-0.0235,-0.02441,0.00702,-0.04547
6.075,-0.02136,-0.06836,-0.047,0.10361,-0.01068,-0.04364,-0.03891,-0.00595,-0.01007,-0.02914,0.05615,-0.00092,-0.00885,-0.02594,-0.00229,-0.04684
6.0755,-0.02762,-0.06882,-0.04776,0.27512,-0.01877,-0.04318,-0.03265,-0.00763,-0.01251,-0.03128,0.03708,0.00214,0.0,-0.02563,-0.00671,-0.04684
6.076,-0.03265,-0.06866,-0.04608,0.33173,-0.03006,-0.04227,-0.01709,-0.01083,-0.01526,-0.03494,0.00015,-0.00046,-0.00488,-0.02365,-0.00656,-0.04456
6.0765,-0.03616,-0.06714,-0.04135,0.26169,-0.03708,-0.04227,0.00015,-0.0148,-0.01633,-0.03677,-0.02991,0.00107,-0.0267,-0.0209,-0.00534,-0.0412
6.077,-0.03922,-0.06165,-0.03571,0.14679,-0.0415,-0.04593,0.00565,-0.01678,-0.01572,-0.0351,-0.04379,0.00854,-0.05524,-0.01846,-0.00168,-0.04044
6.0775,-0.04044,-0.05585,-0.03235,0.07141,-0.04639,-0.04868,-0.00687,-0.01617,-0.01465,-0.03372,-0.04807,0.01572,-0.07126,-0.01724,0.00916,-0.04303
6.078,-0.03891,-0.05157,-0.03204,0.05188,-0.04944,-0.05005,-0.02365,-0.01221,-0.0148,-0.0351,-0.04929,0.01755,-0.06592,-0.01816,0.01953,-0.04532
6.0785,-0.03174,-0.04791,-0.03571,0.0499,-0.04379,-0.05051,-0.03036,-0.00641,-0.01526,-0.03754,-0.04944,0.01801,-0.05066,-0.02121,0.01633,-0.04425
6.079,-0.01892,-0.03998,-0.03799,0.0351,-0.03067,-0.05035,-0.02899,-0.00244,-0.01541,-0.03723,-0.0499,0.01892,-0.04364,-0.02213,0.0032,-0.04364
6.0795,-0.00336,-0.0267,-0.03433,0.01282,-0.01862,-0.04883,-0.02716,-0.0029,-0.01678,-0.03372,-0.0499,0.01617,-0.04364,-0.0209,-0.00626,-0.04501
6.08,0.0145,-0.00854,-0.0267,-0.00015,-0.01251,-0.04547,-0.0322,-0.00565,-0.01877,-0.03036,-0.05005,0.00519,-0.03754,-0.01877,-0.00641,-0.04745
6.0805,0.03479,0.00381,-0.02136,-0.00198,-0.01297,-0.04547,-0.03952,-0.00824,-0.0177,-0.02945,-0.04456,-0.01663,-0.0206,-0.01816,-0.00549,-0.04852
6.081,0.05447,0.00381,-0.02228,-0.00137,-0.01694,-0.04715,-0.04379,-0.00717,-0.01114,-0.03052,-0.03647,-0.04456,-0.00626,-0.01755,-0.00687,-0.047
6.0815,0.06744,-0.00702,-0.02884,-0.00137,-0.01938,-0.04654,-0.04028,-0.00305,-0.00015,-0.03677,-0.03082,-0.06821,0.00153,-0.01541,-0.00717,-0.04349
6.082,0.06638,-0.02045,-0.03448,0.00137,-0.01755,-0.04517,-0.03265,-0.00046,0.00809,-0.03983,-0.03021,-0.08224,0.00946,-0.01282,-0.00366,-0.0412
6.0825,0.05203,-0.03159,-0.0351,0.00275,-0.01373,-0.047,-0.02319,0.0,0.01007,-0.03784,-0.03189,-0.09232,0.0209,-0.01251,-0.00092,-0.04074
6.083,0.03555,-0.03922,-0.03128,0.0,-0.01282,-0.05173,-0.0145,-0.00031,0.00641,-0.03128,-0.03006,-0.1004,0.02457,-0.0145,-0.0032,-0.04196
6.0835,0.02487,-0.04547,-0.02594,-0.00488,-0.01831,-0.05478,-0.01007,-0.00015,0.00259,-0.02502,-0.02365,-0.09888,0.01434,-0.01785,-0.00809,-0.04349
6.084,0.02045,-0.04959,-0.02289,-0.00748,-0.03281,-0.05493,-0.01297,0.00031,0.00214,-0.02136,-0.01511,-0.07797,-0.00031,-0.01633,-0.01282,-0.04395
6.0845,0.01831,-0.05432,-0.02304,-0.00519,-0.0499,-0.05264,-0.02441,0.00168,0.00046,-0.01877,-0.00046,-0.0383,-0.00992,-0.01389,-0.02243,-0.04364
6.085,0.01831,-0.05981,-0.02441,0.00122,-0.056,-0.05112,-0.03143,0.00259,-0.00366,-0.01678,0.01816,0.01724,-0.02075,-0.0116,-0.04211,-0.04517
6.0855,0.01846,-0.06653,-0.02487,0.00931,-0.04196,-0.05051,-0.02167,0.0029,-0.00717,-0.01495,0.03357,0.08392,-0.04639,-0.01389,-0.06531,-0.04837
6.086,0.01511,-0.07141,-0.0235,0.01877,-0.01541,-0.05142,-0.00015,0.00443,-0.01007,-0.0145,0.03662,0.1442,-0.07996,-0.01816,-0.0766,-0.04883
6.0865,0.00793,-0.06958,-0.02213,0.03296,0.0029,-0.05142,0.01511,0.00473,-0.01801,-0.01755,0.0325,0.15915,-0.09018,-0.02228,-0.06653,-0.04562
6.087,-0.00198,-0.05814,-0.02151,0.05463,0.00565,-0.05219,0.01251,0.00412,-0.0354,-0.02579,0.02899,0.10529,-0.06378,-0.02518,-0.04318,-0.04211
6.0875,-0.0148,-0.0386,-0.02441,0.07507,-0.00031,-0.05234,-0.00519,0.00275,-0.06134,-0.04608,0.02762,0.0206,-0.03174,-0.02686,-0.0206,-0.04211
6.088,-0.0296,-0.02182,-0.02975,0.08484,-0.009,-0.05081,-0.02533,0.00153,-0.08682,-0.07172,0.02151,-0.03494,-0.02533,-0.0264,-0.00397,-0.04669
6.0885,-0.04761,-0.0145,-0.03479,0.08255,-0.01831,-0.05127,-0.03876,0.00031,-0.10132,-0.08911,0.00656,-0.04074,-0.0386,-0.02441,0.01343,-0.05157
6.089,-0.06226,-0.01282,-0.0386,0.07645,-0.03403,-0.05112,-0.04303,-0.00092,-0.09857,-0.08942,-0.00992,-0.02304,-0.05203,-0.02075,0.03738,-0.05539
6.0895,-0.06714,-0.01175,-0.04196,0.07156,-0.05295,-0.0499,-0.04013,-0.00015,-0.08026,-0.07233,-0.02197,-0.01251,-0.06454,-0.01755,0.07111,-0.06088
6.09,-0.05814,-0.01068,-0.04623,0.0676,-0.06638,-0.04837,-0.0325,0.00305,-0.05386,-0.05188,-0.0296,-0.01175,-0.07858,-0.01724,0.10422,-0.0679
6.0905,-0.04395,-0.00992,-0.05783,0.05981,-0.06851,-0.04562,-0.02106,0.00671,-0.02335,-0.03616,-0.04013,-0.01205,-0.07217,-0.02014,0.11475,-0.07446
6.091,-0.0325,-0.01038,-0.0914,0.04654,-0.06348,-0.04395,-0.00931,0.00824,0.00916,-0.01968,-0.05173,-0.00671,-0.03662,-0.02274,0.08713,-0.07202
6.0915,-0.02914,-0.01221,-0.15411,0.03098,-0.05508,-0.04456,-0.00366,0.00687,0.03815,-0.00015,-0.0502,0.0087,-0.00031,-0.02243,0.03937,-0.04715
6.092,-0.02884,-0.01694,-0.233,0.0174,-0.04349,-0.04761,-0.01144,0.00488,0.05234,0.02075,-0.02151,0.03845,0.00427,-0.01968,0.0029,-0.00916
6.0925,-0.02411,-0.02426,-0.30014,0.00397,-0.02884,-0.04852,-0.02899,0.00229,0.03998,0.03448,0.02319,0.07019,-0.01526,-0.01678,-0.00534,0.01068
6.093,-0.01312,-0.03479,-0.33157,-0.02213,-0.01144,-0.04639,-0.04517,0.00092,-0.00137,0.03876,0.05112,0.08286,-0.03204,-0.01617,0.00656,-0.00366
6.0935,-0.00458,-0.04486,-0.3096,-0.07309,0.00381,-0.04364,-0.05585,0.00153,-0.05051,0.03952,0.04242,0.06363,-0.02884,-0.0177,0.02182,-0.03372
6.094,-0.00168,-0.05081,-0.21759,-0.13397,0.01328,-0.04227,-0.0676,0.00381,-0.08057,0.0386,0.01114,0.02426,-0.01877,-0.01923,0.0322,-0.04913
6.0945,-0.00259,-0.05417,-0.06073,-0.17258,0.01831,-0.04181,-0.08469,0.00443,-0.08026,0.03326,-0.01526,-0.01099,-0.02289,-0.01877,0.03586,-0.04364
6.095,-0.00427,-0.05569,0.12283,-0.17532,0.02228,-0.04242,-0.09354,0.00351,-0.056,0.02319,-0.03021,-0.02838,-0.04166,-0.01709,0.03342,-0.03357
6.0955,-0.00595,-0.05386,0.27542,-0.15884,0.02365,-0.04242,-0.07523,0.00198,-0.02457,0.00977,-0.04547,-0.03235,-0.0531,-0.01678,0.02411,-0.03189
6.096,-0.00809,-0.05051,0.35812,-0.13962,0.0177,-0.04303,-0.03616,0.00137,0.00046,-0.00061,-0.0647,-0.03387,-0.0444,-0.01694,0.01083,-0.03647
6.0965,-0.00992,-0.047,0.36163,-0.11871,0.00031,-0.04227,-0.00763,0.00031,0.01831,-0.00824,-0.08255,-0.03372,-0.02945,-0.01831,-0.0032,-0.04135
6.097,-0.01068,-0.04471,0.31036,-0.09613,-0.02716,-0.03922,-0.00565,-0.00031,0.03891,-0.0119,-0.08972,-0.03159,-0.02563,-0.01785,-0.02075,-0.04517
6.0975,-0.00931,-0.04227,0.23285,-0.07736,-0.04639,-0.0354,-0.0174,-0.00046,0.06226,-0.01801,-0.08774,-0.02655,-0.03311,-0.01633,-0.04242,-0.04837
6.098,-0.00519,-0.03876,0.14954,-0.06531,-0.04364,-0.03387,-0.01617,-0.00046,0.07813,-0.02594,-0.08408,-0.01938,-0.04486,-0.01434,-0.06165,-0.04913
6.0985,0.00107,-0.03296,0.07416,-0.07309,-0.03235,-0.03571,0.00504,-0.00046,0.08209,-0.03769,-0.08087,-0.00931,-0.05798,-0.01419,-0.06668,-0.04852
6.099,0.00595,-0.0264,0.01236,-0.11597,-0.03189,-0.04028,0.03662,-0.00046,0.08041,-0.04822,-0.07401,0.00259,-0.06958,-0.01434,-0.05539,-0.04501
6.0995,0.0087,-0.02258,-0.03159,-0.18555,-0.05157,-0.04135,0.06195,-0.00031,0.07584,-0.05432,-0.05341,0.00992,-0.06912,-0.01572,-0.03738,-0.04364
6.1,0.01007,-0.02457,-0.05905,-0.2417,-0.08484,-0.0412,0.07706,-0.0029,0.0618,-0.05432,-0.02243,0.01114,-0.05234,-0.01831,-0.0206,-0.04333
6.1005,0.01099,-0.0322,-0.0708,-0.24414,-0.11261,-0.04074,0.0827,-0.01358,0.03693,-0.0528,0.00214,0.00992,-0.02884,-0.01877,-0.00732,-0.04166
6.101,0.01236,-0.03998,-0.06897,-0.18463,-0.11749,-0.04074,0.08026,-0.03418,0.00565,-0.04913,0.01083,0.00916,-0.00977,-0.01816,0.00122,-0.03967
6.1015,0.01266,-0.04639,-0.0592,-0.0856,-0.09857,-0.04044,0.06393,-0.05615,-0.02213,-0.0441,0.0087,0.00076,0.00076,-0.01602,0.00885,-0.0386
6.102,0.00961,-0.05295,-0.04608,0.00931,-0.07385,-0.04044,0.03494,-0.05676,-0.04501,-0.03662,0.00366,-0.01617,0.00397,-0.01404,0.01053,-0.03922
6.1025,0.0032,-0.05981,-0.03754,0.06485,-0.05829,-0.04105,0.00076,-0.02319,-0.05905,-0.02716,-0.00259,-0.0296,-0.00076,-0.01282,0.00702,-0.04105
6.103,-0.00458,-0.06485,-0.03784,0.07675,-0.04974,-0.04257,-0.02487,0.0206,-0.06332,-0.01724,-0.01007,-0.02182,-0.01328,-0.01236,0.00092,-0.04257
6.1035,-0.01114,-0.06729,-0.04456,0.06744,-0.04395,-0.04715,-0.04059,0.03616,-0.06134,-0.00732,-0.01724,0.00793,-0.02487,-0.01358,-0.00351,-0.04272
6.104,-0.01312,-0.06699,-0.05173,0.0531,-0.03815,-0.05493,-0.05493,0.01724,-0.05325,0.00198,-0.0209,0.03738,-0.02518,-0.01633,-0.0032,-0.04288
6.1045,-0.01022,-0.06271,-0.05783,0.03662,-0.02701,-0.05997,-0.07431,-0.00732,-0.0383,0.01236,-0.02182,0.04242,-0.01892,-0.01968,0.00076,-0.04318
6.105,-0.00656,-0.05829,-0.06226,0.01358,-0.00946,-0.06012,-0.09674,-0.0145,-0.02045,0.02274,-0.01968,0.0267,-0.01862,-0.01953,0.00763,-0.04379
6.1055,-0.00595,-0.05569,-0.06378,-0.01328,0.00427,-0.05707,-0.10986,-0.00885,-0.00656,0.02899,-0.01495,0.00946,-0.0267,-0.01694,0.01755,-0.04333
6.106,-0.00778,-0.05524,-0.06485,-0.03616,0.00153,-0.05295,-0.1033,-0.00504,-0.00305,0.0264,-0.00671,0.00305,-0.03174,-0.01556,0.02777,-0.04257
6.1065,-0.00961,-0.05203,-0.06409,-0.05432,-0.01511,-0.05035,-0.07919,-0.0058,-0.00259,0.01907,0.00214,0.00519,-0.02487,-0.01663,0.02701,-0.04181
6.107,-0.00977,-0.04379,-0.06256,-0.07416,-0.03021,-0.05234,-0.04501,-0.00778,0.00214,0.01266,0.00824,0.0116,-0.01129,-0.01938,0.01129,-0.04227
6.1075,-0.01114,-0.03265,-0.0618,-0.09995,-0.03418,-0.05478,-0.00763,-0.01038,0.00839,0.01038,0.00824,0.01801,-0.00473,-0.0209,-0.00839,-0.04303
6.108,-0.0174,-0.02182,-0.06256,-0.12451,-0.03967,-0.056,0.02777,-0.01266,0.00961,0.00946,0.00626,0.01984,-0.00946,-0.02121,-0.0174,-0.04395
6.1085,-0.02472,-0.01556,-0.06668,-0.13336,-0.05417,-0.05783,0.05447,-0.01221,0.0061,0.00534,0.00595,0.01556,-0.0209,-0.0209,-0.01434,-0.04379
6.109,-0.02716,-0.01587,-0.07248,-0.11093,-0.07126,-0.06012,0.0676,-0.00916,-0.00031,-0.00198,0.00565,0.00214,-0.0325,-0.02243,-0.00809,-0.04364
6.1095,-0.02121,-0.02319,-0.07645,-0.05264,-0.08209,-0.06104,0.06409,-0.00458,-0.00549,-0.00961,0.0058,-0.02396,-0.03784,-0.02518,0.00198,-0.0444
6.11,-0.01175,-0.03464,-0.07385,0.01846,-0.07843,-0.06042,0.04883,-0.00122,-0.00946,-0.01709,0.00488,-0.06058,-0.03204,-0.0264,0.02716,-0.04395
6.1105,-0.00534,-0.04532,-0.06912,0.06439,-0.06454,-0.0589,0.0383,0.0,-0.01312,-0.02365,0.00229,-0.10071,-0.01175,-0.02472,0.05997,-0.04303
6.111,-0.00427,-0.05463,-0.07034,0.07431,-0.04807,-0.0563,0.04684,0.00076,-0.02075,-0.02899,-0.00504,-0.13382,0.01755,-0.02167,0.07767,-0.04196
6.1115,-0.00717,-0.06058,-0.07767,0.07675,-0.03387,-0.05554,0.06378,0.00229,-0.03265,-0.03265,-0.01312,-0.13672,0.04105,-0.01785,0.06302,-0.03967
6.112,-0.01038,-0.06165,-0.08484,0.08896,-0.02655,-0.05463,0.065,0.00381,-0.04654,-0.03403,-0.0177,-0.07858,0.04822,-0.01633,0.03571,-0.0383
6.1125,-0.01312,-0.05737,-0.08911,0.08865,-0.02579,-0.0531,0.0473,0.00473,-0.05936,-0.03448,-0.01526,0.03647,0.03937,-0.01541,0.02213,-0.03616
6.113,-0.01358,-0.05188,-0.08972,0.06348,-0.02777,-0.05157,0.02258,0.0058,-0.07095,-0.03204,-0.00854,0.13748,0.02106,-0.01434,0.02213,-0.03433
6.1135,-0.0116,-0.0502,-0.0827,0.04425,-0.03036,-0.05096,-0.00565,0.00397,-0.08621,-0.02991,-0.00076,0.15167,-0.01587,-0.01419,0.01907,-0.03357
6.114,-0.009,-0.05402,-0.06271,0.06134,-0.03159,-0.05447,-0.04898,-0.00076,-0.10468,-0.03082,0.00397,0.08102,-0.08499,-0.01389,0.00916,-0.03647
6.1145,-0.00778,-0.05829,-0.0354,0.09445,-0.03311,-0.05737,-0.10574,-0.00702,-0.11261,-0.03494,0.00336,-0.00793,-0.16281,-0.01587,-0.00061,-0.04105
6.115,-0.00732,-0.06058,-0.01312,0.1088,-0.0325,-0.05905,-0.14175,-0.00946,-0.09766,-0.04059,-0.00488,-0.06287,-0.1918,-0.01877,-0.00168,-0.0444
6.1155,-0.0061,-0.06195,-0.00244,0.11719,-0.03006,-0.05951,-0.11673,-0.01038,-0.06683,-0.04578,-0.01984,-0.06516,-0.14374,-0.02228,0.00305,-0.04547
6.116,-0.00214,-0.06271,-0.00168,0.1474,-0.02426,-0.05692,-0.03403,-0.01175,-0.04059,-0.04761,-0.03143,-0.02274,-0.06561,-0.0264,0.00946,-0.04486
6.1165,0.00214,-0.06058,-0.00366,0.1709,-0.01755,-0.05325,0.05264,-0.01083,-0.02945,-0.04669,-0.03265,0.03021,-0.02182,-0.03082,0.01465,-0.0444
6.117,0.00351,-0.05508,-0.00748,0.13916,-0.0119,-0.0499,0.09888,-0.00229,-0.02869,-0.0441,-0.02457,0.05157,-0.0235,-0.0354,0.02365,-0.04349
6.1175,0.00397,-0.04761,-0.01389,0.05692,-0.00748,-0.04913,0.103,0.01328,-0.02533,-0.03677,-0.01465,0.03418,-0.03418,-0.03815,0.04257,-0.04288
6.118,0.00458,-0.03891,-0.01984,-0.02563,-0.0058,-0.04974,0.08148,0.02426,-0.01801,-0.03418,-0.00626,0.00885,-0.03235,-0.03632,0.0647,-0.04242
6.1185,0.00351,-0.03036,-0.0267,-0.08057,-0.00305,-0.04868,0.0473,0.02182,-0.01053,-0.03998,0.00015,0.00031,-0.02563,-0.02975,0.07141,-0.04272
6.119,0.00198,-0.02243,-0.03281,-0.12863,-0.00153,-0.04684,0.01923,0.01053,-0.00412,-0.05234,0.00519,0.00671,-0.02609,-0.02472,0.05478,-0.04303
6.1195,0.00137,-0.01709,-0.03632,-0.18906,0.00046,-0.04623,0.00839,0.00153,0.00183,-0.06332,0.00992,0.01266,-0.02899,-0.02319,0.02335,-0.04364
6.12,0.00183,-0.01709,-0.04013,-0.22873,0.00137,-0.04623,0.00732,0.0,0.00641,-0.06836,0.01175,0.01129,-0.0264,-0.02319,-0.00259,-0.04318
6.1205,0.0,-0.02274,-0.04105,-0.18372,-0.00183,-0.0473,0.00305,0.00259,0.0119,-0.06958,0.00732,0.00763,-0.01877,-0.02274,-0.01358,-0.04395
6.121,-0.00488,-0.03128,-0.04089,-0.0441,-0.0087,-0.04929,-0.00351,0.00275,0.01541,-0.06729,-0.00427,0.00595,-0.01205,-0.02167,-0.01907,-0.04623
6.1215,-0.00885,-0.03784,-0.03845,0.09964,-0.01541,-0.05035,-0.00854,-0.00092,0.01709,-0.05539,-0.01602,0.00778,-0.0119,-0.02213,-0.03098,-0.05051
6.122,-0.00809,-0.04059,-0.03677,0.13931,-0.02121,-0.05112,-0.01572,-0.00626,0.01602,-0.03204,-0.01953,0.01129,-0.01923,-0.02228,-0.04898,-0.05569
6.1225,-0.00351,-0.04242,-0.03738,0.06912,-0.02914,-0.05127,-0.02701,-0.01038,0.01297,-0.00259,-0.01236,0.01724,-0.03265,-0.02213,-0.0528,-0.05585
6.123,0.00046,-0.04349,-0.04044,-0.01755,-0.03876,-0.05219,-0.03784,-0.0087,0.00732,0.02258,-0.00229,0.02609,-0.04608,-0.01984,-0.0209,-0.04959
6.1235,0.00107,-0.04181,-0.04578,-0.06241,-0.04639,-0.05249,-0.04135,-0.00458,-0.00366,0.03677,0.00259,0.03418,-0.05035,-0.01572,0.03754,-0.04196
6.124,-0.00076,-0.0351,-0.05157,-0.09293,-0.04776,-0.05203,-0.03922,-0.00153,-0.0206,0.03799,0.00031,0.03616,-0.04379,-0.01099,0.07721,-0.03754
6.1245,-0.00259,-0.02762,-0.05798,-0.14511,-0.04471,-0.05295,-0.0351,-0.0029,-0.04074,0.03143,-0.00626,0.03479,-0.03616,-0.01053,0.06653,-0.03738
6.125,-0.00275,-0.02625,-0.06287,-0.19287,-0.0354,-0.05203,-0.02899,-0.00534,-0.05829,0.02182,-0.01266,0.03189,-0.03632,-0.01282,0.02594,-0.03845
6.1255,-0.00244,-0.03128,-0.06592,-0.19653,-0.02304,-0.05066,-0.02045,-0.00641,-0.07095,0.01312,-0.01831,0.02487,-0.03296,-0.01556,0.00031,-0.03983
6.126,-0.00259,-0.03815,-0.06271,-0.15625,-0.01099,-0.04898,-0.01495,-0.00565,-0.07446,0.00336,-0.01968,0.00885,-0.01755,-0.01709,0.00458,-0.0412
6.1265,-0.00488,-0.04288,-0.05371,-0.09857,-0.00671,-0.05081,-0.00916,-0.00427,-0.06348,-0.01022,-0.00137,-0.01648,0.00107,-0.0177,0.01877,-0.0441
6.127,-0.00793,-0.0444,-0.04318,-0.03647,-0.01404,-0.05264,0.01022,-0.00381,-0.0412,-0.02228,0.05051,-0.0444,0.00015,-0.01755,0.02533,-0.04898
6.1275,-0.00839,-0.04532,-0.03555,0.03296,-0.02335,-0.05234,0.04852,-0.00427,-0.01968,-0.02457,0.11841,-0.0647,-0.01434,-0.01785,0.02411,-0.05173
6.128,-0.0032,-0.04547,-0.03036,0.10941,-0.02625,-0.05188,0.08057,-0.00412,-0.01022,-0.01831,0.14603,-0.06851,-0.02075,-0.0177,0.01968,-0.05173
6.1285,0.00397,-0.0441,-0.02472,0.18066,-0.01602,-0.05188,0.06485,-0.00244,-0.00961,-0.00992,0.09888,-0.06256,-0.02243,-0.01923,0.01343,-0.04974
6.129,0.01068,-0.04211,-0.01785,0.23224,-0.00244,-0.05112,-0.01144,-0.00214,-0.0119,-0.00443,0.01053,-0.06729,-0.04425,-0.02228,0.00626,-0.04776
6.1295,0.01572,-0.04211,-0.01007,0.24658,-0.00031,-0.04913,-0.10544,-0.00214,-0.01419,0.00015,-0.05966,-0.0882,-0.07965,-0.02274,-0.00366,-0.04623
6.13,0.01617,-0.04639,-0.00427,0.22095,-0.01236,-0.04898,-0.14999,-0.00198,-0.02167,0.00946,-0.08652,-0.10284,-0.08987,-0.01892,-0.01709,-0.04425
6.1305,0.01312,-0.05127,-0.00244,0.17426,-0.03571,-0.05264,-0.12161,-0.00107,-0.03113,0.0209,-0.0885,-0.08636,-0.056,-0.01389,-0.03433,-0.03922
6.131,0.00732,-0.05508,-0.00534,0.13077,-0.06058,-0.05829,-0.06485,0.00015,-0.03693,0.03006,-0.08698,-0.0383,-0.00641,-0.01312,-0.05234,-0.03006
6.1315,0.00153,-0.05508,-0.01266,0.10529,-0.0766,-0.06058,-0.04318,0.00137,-0.03235,0.03113,-0.08652,0.01312,0.02274,-0.01709,-0.05829,-0.01709
6.132,-0.00153,-0.05554,-0.01907,0.09293,-0.07645,-0.05981,-0.06805,0.00244,-0.02304,0.02243,-0.08438,0.03967,0.0296,-0.02228,-0.04776,-0.00595
6.1325,-0.00198,-0.05722,-0.02258,0.07858,-0.06256,-0.0592,-0.09308,0.00229,-0.01526,0.00549,-0.08148,0.03204,0.02426,-0.02533,-0.02792,-0.00565
6.133,-0.00168,-0.05951,-0.02274,0.05203,-0.04623,-0.05814,-0.07248,0.00275,-0.0032,-0.01801,-0.08286,0.00931,0.00412,-0.02594,-0.01434,-0.02014
6.1335,-0.00488,-0.06287,-0.02151,0.02289,-0.03677,-0.05844,-0.01587,0.00259,0.01709,-0.04684,-0.08698,-0.00366,-0.04013,-0.02563,-0.01099,-0.04181
6.134,-0.01465,-0.06836,-0.02136,0.00839,-0.03296,-0.05875,0.02808,-0.00015,0.04028,-0.07599,-0.08469,-0.00092,-0.08682,-0.02426,-0.01022,-0.05417
6.1345,-0.02747,-0.07324,-0.02579,0.01373,-0.02899,-0.05768,0.02884,-0.00626,0.05447,-0.09491,-0.07629,0.00626,-0.09674,-0.02075,-0.0032,-0.05127
6.135,-0.03601,-0.07324,-0.03311,0.02975,-0.02136,-0.05417,0.00229,-0.01297,0.05402,-0.09903,-0.0708,0.00687,-0.06073,-0.01648,0.00458,-0.04227
6.1355,-0.03555,-0.06653,-0.04227,0.04166,-0.01266,-0.0499,-0.02014,-0.01663,0.04272,-0.08896,-0.07004,0.00275,-0.01419,-0.01297,0.00229,-0.03876
6.136,-0.02762,-0.05463,-0.04486,0.04044,-0.00671,-0.04501,-0.03113,-0.01419,0.02472,-0.07187,-0.06744,0.0,0.00275,-0.01297,-0.01007,-0.03967
6.1365,-0.01816,-0.04028,-0.04013,0.02991,-0.00443,-0.0415,-0.04425,-0.00946,-0.00244,-0.05188,-0.05783,0.00031,-0.0177,-0.01587,-0.02396,-0.03967
6.137,-0.01038,-0.02808,-0.03372,0.0145,-0.01114,-0.04135,-0.06729,-0.00504,-0.03662,-0.03128,-0.04593,0.00153,-0.05951,-0.02029,-0.02838,-0.04044
6.1375,-0.00458,-0.0209,-0.03098,-0.0119,-0.0351,-0.04242,-0.0795,-0.00107,-0.06165,-0.0145,-0.03403,0.00259,-0.10147,-0.02335,-0.01633,-0.04227
6.138,0.00015,-0.01602,-0.03143,-0.05493,-0.07019,-0.04181,-0.06027,0.00427,-0.06104,-0.00229,-0.0206,0.00336,-0.11703,-0.02533,0.02121,-0.0441
6.1385,0.00351,-0.01465,-0.03296,-0.09735,-0.09445,-0.03845,-0.02014,0.00977,-0.03952,0.00809,-0.00443,0.00259,-0.0972,-0.02487,0.07111,-0.04364
6.139,0.00381,-0.01831,-0.0383,-0.11337,-0.08942,-0.03632,0.00473,0.01511,-0.01831,0.02182,0.01785,0.00046,-0.06165,-0.02518,0.10071,-0.04349
6.1395,0.00031,-0.02228,-0.04761,-0.09964,-0.05966,-0.0383,-0.00244,0.01389,-0.00656,0.03098,0.04288,0.00061,-0.04074,-0.02609,0.08713,-0.04364
6.14,-0.00473,-0.02365,-0.06195,-0.07935,-0.0296,-0.04166,-0.02228,0.0058,0.00259,0.03235,0.05478,0.00488,-0.03677,-0.02838,0.04974,-0.04257
6.1405,-0.01053,-0.02411,-0.07462,-0.06622,-0.01236,-0.04257,-0.02945,-0.00427,0.00931,0.02426,0.04288,0.009,-0.03616,-0.02838,0.02197,-0.04089
6.141,-0.01358,-0.02426,-0.08102,-0.05386,-0.00366,-0.04105,-0.02136,-0.00839,0.01007,0.0116,0.01846,0.00717,-0.03174,-0.02625,0.01602,-0.03784
6.1415,-0.01266,-0.02243,-0.08072,-0.03433,0.00427,-0.04028,-0.01373,-0.00626,-0.00031,0.00046,-0.00122,0.00183,-0.02487,-0.02289,0.01831,-0.03769
6.142,-0.00977,-0.01724,-0.07584,-0.01663,0.00809,-0.04211,-0.01328,-0.00336,-0.0145,-0.00381,-0.01129,-0.00717,-0.01709,-0.01999,0.01663,-0.03876
6.1425,-0.00595,-0.01297,-0.06683,-0.01282,0.00122,-0.04486,-0.01572,-0.00275,-0.02426,0.0,-0.01434,-0.01907,-0.00427,-0.01892,0.01297,-0.04028
6.143,-0.00519,-0.01617,-0.05722,-0.01984,-0.01465,-0.04929,-0.0174,-0.00092,-0.02701,0.00839,-0.01526,-0.03204,0.00885,-0.01892,0.01053,-0.04044
6.1435,-0.00977,-0.0267,-0.04822,-0.02747,-0.03357,-0.05142,-0.02151,0.00275,-0.02625,0.00992,-0.01205,-0.04379,0.00824,-0.02136,0.00824,-0.04013
6.144,-0.01801,-0.03998,-0.03845,-0.02991,-0.05157,-0.05249,-0.02472,0.00458,-0.02548,-0.00443,-0.00427,-0.04898,-0.009,-0.02258,0.0058,-0.04074
6.1445,-0.02472,-0.04745,-0.02884,-0.0264,-0.06973,-0.05188,-0.02151,0.00198,-0.02197,-0.02945,0.00397,-0.05081,-0.02747,-0.02151,0.00443,-0.04288
6.145,-0.02594,-0.04852,-0.02335,-0.02136,-0.08774,-0.0499,-0.0145,-0.00305,-0.01648,-0.04852,0.00977,-0.05463,-0.02396,-0.01663,0.0032,-0.0444
6.1455,-0.02213,-0.04517,-0.02823,-0.02289,-0.1004,-0.047,-0.01373,-0.00549,-0.01022,-0.05157,0.01068,-0.0592,0.00458,-0.01144,0.00168,-0.04547
6.146,-0.01617,-0.04364,-0.0441,-0.03555,-0.10193,-0.04623,-0.02167,-0.00488,-0.00549,-0.04364,0.01389,-0.04974,0.03815,-0.01038,0.00336,-0.0444
6.1465,-0.00931,-0.04517,-0.0705,-0.05173,-0.09277,-0.04578,-0.0235,-0.00565,-0.00259,-0.03708,0.02716,-0.01053,0.05157,-0.01236,0.00946,-0.04425
6.147,-0.00366,-0.04776,-0.09857,-0.0589,-0.0769,-0.04501,-0.01144,-0.00595,-0.00168,-0.03357,0.04486,0.05203,0.03387,-0.01434,0.00839,-0.047
6.1475,0.00046,-0.04776,-0.12192,-0.05722,-0.05875,-0.04166,0.00534,-0.00595,-0.00275,-0.02991,0.04532,0.1059,-0.0177,-0.01511,-0.00702,-0.05264
6.148,0.0029,-0.04105,-0.12589,-0.06119,-0.03998,-0.04105,0.01251,-0.00458,-0.009,-0.02625,0.01877,0.12253,-0.07751,-0.01404,-0.03296,-0.05508
6.1485,0.00473,-0.03036,-0.09949,-0.07935,-0.02243,-0.0444,0.00748,-0.00519,-0.01617,-0.0235,-0.01358,0.10712,-0.10422,-0.01266,-0.05203,-0.05371
6.149,0.00488,-0.02121,-0.04303,-0.09995,-0.00793,-0.04868,-0.00046,-0.00671,-0.02258,-0.02335,-0.03021,0.08545,-0.08606,-0.01236,-0.05753,-0.04944
6.1495,0.00244,-0.01724,0.0238,-0.11353,0.00153,-0.0502,-0.00641,-0.00839,-0.02563,-0.02441,-0.03204,0.07339,-0.06516,-0.01251,-0.05844,-0.04044
6.15,-0.00092,-0.0177,0.0795,-0.13412,0.00076,-0.04791,-0.01007,-0.00778,-0.02411,-0.02457,-0.03204,0.06424,-0.07935,-0.01099,-0.05737,-0.0322
6.1505,-0.00656,-0.02151,0.10925,-0.17365,-0.00809,-0.04425,-0.0145,-0.00702,-0.0174,-0.02502,-0.03723,0.04944,-0.10651,-0.00854,-0.04318,-0.02609
6.151,-0.01266,-0.02747,0.11185,-0.2153,-0.02045,-0.04379,-0.01801,-0.00671,-0.00351,-0.02472,-0.04257,0.03357,-0.09613,-0.00717,-0.00031,-0.02518
6.1515,-0.01602,-0.03281,0.09598,-0.23132,-0.02853,-0.04669,-0.01862,-0.00763,0.01328,-0.02472,-0.04517,0.02411,-0.05066,-0.00824,0.05844,-0.0293
6.152,-0.01709,-0.03525,0.07172,-0.21332,-0.02914,-0.04913,-0.01694,-0.00839,0.02487,-0.02747,-0.04669,0.0209,-0.01556,-0.0116,0.0943,-0.03677
6.1525,-0.01495,-0.03342,0.04578,-0.16068,-0.02899,-0.04852,-0.01373,-0.00885,0.02426,-0.03296,-0.047,0.01923,-0.02029,-0.01465,0.08881,-0.04944
6.153,-0.00931,-0.02762,0.0206,-0.07233,-0.03464,-0.047,-0.01129,-0.00732,0.01129,-0.0386,-0.04578,0.01663,-0.04044,-0.01602,0.06516,-0.06699
6.1535,0.00229,-0.02167,-0.00305,0.03555,-0.04776,-0.04761,-0.01083,-0.00504,-0.00626,-0.04196,-0.03387,0.01068,-0.04318,-0.01862,0.04776,-0.08331
6.154,0.01862,-0.02029,-0.02243,0.12207,-0.05829,-0.04944,-0.01144,-0.00336,-0.02014,-0.0412,0.00549,0.0029,-0.02197,-0.02411,0.03738,-0.08987
6.1545,0.0354,-0.02533,-0.0354,0.1561,-0.0528,-0.04852,-0.01328,-0.00336,-0.02762,-0.04028,0.07523,-0.0029,0.00076,-0.02792,0.02243,-0.08743
6.155,0.04425,-0.03387,-0.03891,0.13504,-0.0267,-0.04349,-0.01358,-0.00427,-0.02838,-0.04013,0.13596,-0.00443,0.00687,-0.02609,0.00366,-0.08759
6.1555,0.04044,-0.04211,-0.04105,0.0798,0.01175,-0.0383,-0.01099,-0.00427,-0.02808,-0.04059,0.13504,-0.00336,0.00092,-0.02075,-0.00504,-0.09613
6.156,0.02701,-0.04562,-0.04379,0.02151,0.04303,-0.03616,-0.00626,-0.00305,-0.03036,-0.03677,0.06882,-0.00305,-0.00626,-0.01755,0.01251,-0.10712
6.1565,0.01389,-0.04456,-0.04608,-0.01495,0.056,-0.03799,-0.00336,-0.00153,-0.03906,-0.03006,-0.01144,-0.00412,-0.01114,-0.01801,0.06119,-0.112
6.157,0.00748,-0.04425,-0.04654,-0.02731,0.04486,-0.04044,-0.00244,-0.00031,-0.05005,-0.02365,-0.06302,-0.0061,-0.02121,-0.01892,0.12222,-0.10452
6.1575,0.0058,-0.04944,-0.04333,-0.02747,0.00504,-0.04166,-0.00534,0.00092,-0.05341,-0.01785,-0.08301,-0.00504,-0.0351,-0.01938,0.15213,-0.08942
6.158,0.00336,-0.06027,-0.04074,-0.02213,-0.0563,-0.04547,-0.00763,0.00092,-0.04456,-0.0116,-0.09216,0.00015,-0.04089,-0.01984,0.12192,-0.06271
6.1585,-0.00076,-0.06989,-0.03906,-0.00732,-0.11551,-0.04959,-0.00671,-0.00092,-0.03189,-0.00381,-0.09308,0.00946,-0.03342,-0.01923,0.04227,-0.01526
6.159,-0.00412,-0.07126,-0.03815,0.0177,-0.14359,-0.05051,-0.00305,-0.00336,-0.02747,0.00107,-0.07904,0.01801,-0.02304,-0.0177,-0.04562,0.04608
6.1595,-0.00488,-0.065,-0.03738,0.03708,-0.13443,-0.04715,0.00153,-0.00504,-0.02869,-0.00061,-0.05524,0.02014,-0.02457,-0.0174,-0.09842,0.08118
6.16,-0.00366,-0.05905,-0.03754,0.01724,-0.10483,-0.04211,0.00443,-0.00565,-0.02518,-0.00412,-0.03708,0.01617,-0.04395,-0.01495,-0.09506,0.05188
6.1605,-0.00305,-0.05508,-0.03876,-0.05051,-0.0769,-0.03723,0.00443,-0.00641,-0.01617,-0.00626,-0.03067,0.01083,-0.07111,-0.01144,-0.0473,-0.01328
6.161,-0.00244,-0.05157,-0.04242,-0.11765,-0.05569,-0.03479,0.00229,-0.00717,-0.00824,-0.00778,-0.02914,0.00626,-0.08911,-0.00931,-0.00443,-0.04349
6.1615,-0.00244,-0.04852,-0.04562,-0.10452,-0.04044,-0.0351,-0.00061,-0.00687,-0.00549,-0.01083,-0.02274,0.00046,-0.08453,-0.00885,-0.00732,-0.01251
6.162,-0.00336,-0.04776,-0.047,0.00778,-0.03006,-0.03738,-0.0058,-0.00351,-0.009,-0.0148,-0.01312,-0.00778,-0.06485,-0.00977,-0.04974,0.02686
6.1625,-0.00717,-0.04852,-0.04791,0.14526,-0.02533,-0.04074,-0.02014,-0.00092,-0.01709,-0.01709,-0.00748,-0.01862,-0.05096,-0.01221,-0.08942,0.02396
6.163,-0.01297,-0.04822,-0.04822,0.20767,-0.02045,-0.04471,-0.04333,-0.00046,-0.02899,-0.01663,-0.00961,-0.02609,-0.05005,-0.01541,-0.08926,-0.00977
6.1635,-0.01831,-0.04471,-0.04883,0.1767,-0.01144,-0.04669,-0.06622,-0.00168,-0.03922,-0.01648,-0.01694,-0.02808,-0.04883,-0.01755,-0.05661,-0.03159
6.164,-0.01999,-0.0386,-0.05127,0.1059,0.00183,-0.047,-0.07874,-0.0032,-0.03876,-0.02197,-0.02579,-0.02213,-0.0441,-0.01511,-0.0293,-0.03067
6.1645,-0.01892,-0.03098,-0.05219,0.0499,0.01297,-0.04608,-0.07828,-0.00412,-0.02518,-0.0351,-0.03448,-0.01328,-0.04944,-0.01144,-0.03464,-0.02487
6.165,-0.01678,-0.02731,-0.0499,0.02258,0.01999,-0.04578,-0.07034,-0.00458,-0.00198,-0.04929,-0.04364,-0.00839,-0.06729,-0.01144,-0.05402,-0.02914
6.1655,-0.01511,-0.03067,-0.03998,0.0209,0.01984,-0.04562,-0.06485,-0.00656,0.02213,-0.0563,-0.0499,-0.01419,-0.07874,-0.01602,-0.03967,-0.03708
6.166,-0.01434,-0.04074,-0.02975,0.03586,0.01099,-0.04639,-0.06424,-0.00763,0.0383,-0.05463,-0.04852,-0.0238,-0.06836,-0.02243,0.03235,-0.04105
6.1665,-0.01373,-0.05188,-0.02625,0.04913,-0.0119,-0.04791,-0.0592,-0.00687,0.04333,-0.0499,-0.04044,-0.02808,-0.04471,-0.02686,0.12344,-0.04028
6.167,-0.01358,-0.05905,-0.0296,0.04318,-0.04791,-0.04913,-0.03693,-0.0058,0.03998,-0.04761,-0.02884,-0.0264,-0.02579,-0.02716,0.15686,-0.0386
6.1675,-0.01526,-0.06104,-0.03143,0.02808,-0.07675,-0.04974,0.00351,-0.00397,0.03128,-0.047,-0.01938,-0.02502,-0.01724,-0.02594,0.10956,-0.03616
6.168,-0.0206,-0.05997,-0.0293,0.02136,-0.0769,-0.0502,0.05127,-0.0032,0.01862,-0.04181,-0.01343,-0.02579,-0.01068,-0.02426,0.03403,-0.03464
6.1685,-0.03098,-0.056,-0.0293,0.02396,-0.05219,-0.05203,0.0853,-0.00259,0.00504,-0.02747,-0.01465,-0.02197,-0.00366,-0.02243,-0.00488,-0.03387
6.169,-0.04272,-0.05035,-0.0325,0.02213,-0.03113,-0.05569,0.08865,-0.00351,-0.00595,-0.00977,-0.02319,-0.01358,0.00153,-0.02029,-0.00763,-0.03616
6.1695,-0.04898,-0.0441,-0.03571,0.00824,-0.02548,-0.05798,0.06134,-0.00504,-0.01266,0.00656,-0.03342,-0.00671,0.00488,-0.01678,-0.00519,-0.03891
6.17,-0.04532,-0.03632,-0.0351,-0.02045,-0.02441,-0.05722,0.02335,-0.00565,-0.01541,0.01663,-0.03952,-0.00443,0.00595,-0.01328,-0.00946,-0.04257
6.1705,-0.03693,-0.02869,-0.03464,-0.06866,-0.01541,-0.05478,-0.00198,-0.00534,-0.01846,0.02151,-0.0354,-0.00275,0.00549,-0.00961,-0.01572,-0.04486
6.171,-0.03006,-0.02518,-0.03891,-0.13367,-0.00183,-0.05478,-0.01099,-0.00275,-0.02487,0.0238,-0.02457,0.00122,0.00122,-0.00854,-0.01938,-0.05112
6.1715,-0.02762,-0.0296,-0.04654,-0.19547,0.01038,-0.05722,-0.01495,-0.00198,-0.03586,0.02655,-0.01053,0.00366,-0.00916,-0.01099,-0.02609,-0.05859
6.172,-0.02731,-0.03784,-0.05219,-0.23087,0.02151,-0.05814,-0.01877,-0.00305,-0.05447,0.02029,0.00168,0.00336,-0.02777,-0.01526,-0.03754,-0.06592
6.1725,-0.02518,-0.04105,-0.05417,-0.22797,0.03494,-0.05615,-0.0235,-0.00473,-0.07767,-0.00122,0.00961,-0.00153,-0.0531,-0.01831,-0.04837,-0.06851
6.173,-0.02075,-0.03799,-0.05386,-0.18707,0.05081,-0.05585,-0.02731,-0.00305,-0.09186,-0.02945,0.01282,-0.00671,-0.07614,-0.01755,-0.0531,-0.06363
6.1735,-0.0145,-0.03235,-0.05432,-0.10803,0.06226,-0.05661,-0.03174,0.00107,-0.0853,-0.04669,0.01236,-0.00824,-0.08286,-0.01633,-0.04562,-0.05325
6.174,-0.00778,-0.0322,-0.05554,-0.00061,0.06256,-0.05692,-0.03479,0.00595,-0.06256,-0.04776,0.01129,-0.00519,-0.06622,-0.0174,-0.01953,-0.04211
6.1745,-0.00229,-0.03662,-0.05569,0.10635,0.05524,-0.05447,-0.03433,0.00626,-0.03967,-0.04013,0.00748,-0.00092,-0.03464,-0.01846,0.02029,-0.0386
6.175,0.00046,-0.04089,-0.05829,0.17563,0.04547,-0.05005,-0.03113,0.00259,-0.02716,-0.03128,0.00214,0.00198,-0.00076,-0.01633,0.04883,-0.0412
6.1755,0.00504,-0.04242,-0.06073,0.19852,0.02731,-0.04608,-0.02716,0.00015,-0.02258,-0.01907,-0.00137,0.00336,0.02609,-0.01129,0.05402,-0.04486
6.176,0.01312,-0.04105,-0.06088,0.19287,-0.01862,-0.04501,-0.02502,0.00153,-0.01846,-0.00443,0.00107,0.00504,0.04318,-0.00671,0.06241,-0.04639
6.1765,0.02518,-0.03754,-0.05722,0.16342,-0.09613,-0.04593,-0.02716,0.00412,-0.01373,0.00916,0.00671,0.00763,0.0444,-0.00473,0.09033,-0.04929
6.177,0.04196,-0.03342,-0.05112,0.09476,-0.17319,-0.04684,-0.03311,0.00336,-0.01175,0.01801,0.00977,0.00763,0.02731,-0.00549,0.10971,-0.05569
6.1775,0.06165,-0.0325,-0.04578,-0.00427,-0.19653,-0.04562,-0.03296,-0.00275,-0.01877,0.02197,0.00809,0.0029,0.0,-0.00824,0.08209,-0.06607
6.178,0.07645,-0.03693,-0.04364,-0.08453,-0.16068,-0.0441,-0.01785,-0.01083,-0.03998,0.0238,0.00778,-0.00275,-0.02777,-0.01297,0.02548,-0.07721
6.1785,0.07462,-0.04364,-0.04166,-0.10529,-0.10513,-0.04196,0.00458,-0.01648,-0.06836,0.0235,0.00854,-0.00793,-0.04486,-0.01801,-0.009,-0.08606
6.179,0.05264,-0.047,-0.03967,-0.07599,-0.06744,-0.03906,0.01862,-0.01694,-0.08713,0.01938,0.00656,-0.01373,-0.04761,-0.02457,-0.00717,-0.07767
6.1795,0.0235,-0.04456,-0.03632,-0.02975,-0.04929,-0.0351,0.01602,-0.0145,-0.08209,0.01053,0.00046,-0.02182,-0.03555,-0.03021,0.0032,-0.04776
6.18,0.00443,-0.03784,-0.03174,0.01068,-0.03815,-0.03418,0.00137,-0.01328,-0.05814,-0.00214,-0.00427,-0.03143,-0.01678,-0.03052,0.00397,-0.01877
6.1805,-0.00122,-0.03189,-0.02777,0.0351,-0.02975,-0.03616,-0.01495,-0.01404,-0.02655,-0.01328,-0.00473,-0.04257,-0.00443,-0.02365,0.00137,-0.01938
6.181,-0.00183,-0.03067,-0.0238,0.03418,-0.02914,-0.03769,-0.02777,-0.01572,0.00168,-0.0206,-0.0029,-0.05585,-0.00641,-0.01495,-0.00061,-0.04379
6.1815,-0.00412,-0.03204,-0.02014,0.00137,-0.03174,-0.03906,-0.03891,-0.01343,0.01968,-0.02335,-0.00198,-0.07172,-0.01526,-0.01328,-0.00824,-0.0592
6.182,-0.00504,-0.0325,-0.01953,-0.04257,-0.03204,-0.04089,-0.05112,-0.01175,0.02213,-0.02396,-0.00275,-0.08926,-0.0235,-0.02029,-0.02594,-0.04913
6.1825,-0.00168,-0.03326,-0.02197,-0.07614,-0.02808,-0.04456,-0.05905,-0.01099,0.01556,-0.02457,-0.00458,-0.09735,-0.02701,-0.02869,-0.03571,-0.02899
6.183,0.00259,-0.03723,-0.02518,-0.09186,-0.0238,-0.04669,-0.05463,-0.0116,0.01068,-0.02762,-0.00687,-0.07614,-0.03281,-0.03311,-0.02502,-0.02029
6.1835,0.00305,-0.04318,-0.02991,-0.08347,-0.02213,-0.04669,-0.02502,-0.01099,0.01343,-0.03754,-0.01083,-0.01907,-0.04333,-0.03464,-0.00656,-0.02701
6.184,-0.00107,-0.04868,-0.03296,-0.04196,-0.02319,-0.04532,0.03052,-0.00961,0.02182,-0.05554,-0.01663,0.04715,-0.05371,-0.03723,0.00031,-0.03922
6.1845,-0.00656,-0.05249,-0.03448,0.01511,-0.02487,-0.04593,0.08743,-0.00885,0.02838,-0.07278,-0.02151,0.0827,-0.05539,-0.03967,0.00031,-0.04608
6.185,-0.01114,-0.05569,-0.03479,0.04425,-0.02792,-0.04684,0.1004,-0.00885,0.02838,-0.08362,-0.02304,0.07935,-0.04791,-0.03937,0.01358,-0.05035
6.1855,-0.0148,-0.05951,-0.03464,0.02167,-0.03204,-0.04852,0.0531,-0.00793,0.02106,-0.0824,-0.01328,0.07263,-0.03967,-0.03479,0.05066,-0.05066
6.186,-0.01755,-0.06241,-0.03418,-0.03311,-0.03525,-0.04868,-0.01892,-0.00565,0.01068,-0.07095,0.00824,0.09094,-0.03571,-0.02853,0.09384,-0.04837
6.1865,-0.01999,-0.06271,-0.0322,-0.10132,-0.03723,-0.04822,-0.06622,-0.00397,0.00351,-0.05478,0.03418,0.11688,-0.03616,-0.02182,0.10941,-0.04089
6.187,-0.02243,-0.06195,-0.02975,-0.19165,-0.03204,-0.04684,-0.06927,-0.00351,-0.00015,-0.03723,0.04547,0.11124,-0.0415,-0.01572,0.08606,-0.03036
6.1875,-0.02502,-0.06241,-0.03067,-0.30426,-0.01663,-0.04517,-0.04272,-0.00397,-0.00214,-0.01877,0.03113,0.06989,-0.05081,-0.01221,0.04181,-0.02228
6.188,-0.02884,-0.06119,-0.03464,-0.39963,-0.00046,-0.04303,-0.0174,-0.00336,-0.00381,0.00061,0.00259,0.0325,-0.05676,-0.01297,0.00793,-0.02274
6.1885,-0.03159,-0.05814,-0.03754,-0.42114,0.00549,-0.04181,-0.00641,-0.00214,-0.00854,0.01938,-0.01984,0.03235,-0.05081,-0.0148,-0.00458,-0.03006
6.189,-0.03326,-0.05554,-0.03967,-0.3331,-0.00305,-0.04303,-0.00244,-0.00076,-0.02411,0.03189,-0.03235,0.05005,-0.03738,-0.01617,-0.00595,-0.03845
6.1895,-0.03296,-0.05188,-0.04211,-0.1532,-0.02151,-0.04288,0.00641,0.00153,-0.04669,0.03586,-0.04181,0.04929,-0.02762,-0.01892,-0.00214,-0.04425
6.19,-0.0322,-0.04654,-0.0415,0.04318,-0.04333,-0.04288,0.01358,0.0032,-0.06088,0.03494,-0.05539,0.02335,-0.02136,-0.02396,0.0029,-0.04593
6.1905,-0.03433,-0.04089,-0.03998,0.17456,-0.05951,-0.04211,0.00977,0.00366,-0.05341,0.02975,-0.06485,-0.00397,-0.00809,-0.02808,0.00488,-0.04425
6.191,-0.03601,-0.03998,-0.03891,0.22659,-0.0621,-0.04242,-0.00534,0.00275,-0.03082,0.02197,-0.06424,-0.01236,0.01678,-0.02716,0.00397,-0.03784
6.1915,-0.03265,-0.04196,-0.04105,0.24612,-0.04974,-0.04333,-0.0206,0.00305,-0.01053,0.01129,-0.0563,-0.00565,0.04684,-0.02304,0.00137,-0.03021
6.192,-0.02243,-0.04303,-0.04272,0.2713,-0.03204,-0.04379,-0.02838,0.00336,-0.00076,-0.00275,-0.05219,-0.00229,0.065,-0.01923,0.0,-0.02319
6.1925,-0.00916,-0.04074,-0.0386,0.28931,-0.02289,-0.04395,-0.0296,0.00351,0.00504,-0.01923,-0.05798,-0.00793,0.06622,-0.01678,0.00137,-0.02243
6.193,0.00031,-0.03662,-0.02747,0.2713,-0.02274,-0.04395,-0.02777,0.00198,0.01312,-0.03632,-0.05829,-0.01572,0.04532,-0.01587,0.00275,-0.02487
6.1935,0.00412,-0.03464,-0.01617,0.21484,-0.02792,-0.04257,-0.02136,-0.00061,0.01968,-0.04898,-0.0206,-0.01907,-0.01373,-0.01495,0.00259,-0.02869
6.194,0.0058,-0.03159,-0.01007,0.14725,-0.03632,-0.04181,-0.01389,-0.00397,0.01938,-0.05493,0.06409,-0.02136,-0.1062,-0.01572,0.00259,-0.03235
6.1945,0.00809,-0.02747,-0.00854,0.09079,-0.04547,-0.03998,-0.01297,-0.00809,0.01266,-0.05478,0.14297,-0.02151,-0.18738,-0.01648,0.00229,-0.03494
6.195,0.00793,-0.02533,-0.00916,0.05127,-0.04486,-0.03738,-0.01266,-0.01068,0.00397,-0.05493,0.14465,-0.01358,-0.19745,-0.01785,0.00046,-0.03586
6.1955,0.00565,-0.02945,-0.01205,0.02213,-0.03433,-0.03525,0.00214,-0.01022,-0.00534,-0.05325,0.06729,0.00763,-0.13031,-0.01831,-0.00412,-0.03952
6.196,0.00198,-0.03647,-0.01694,0.00046,-0.02502,-0.0351,0.03113,-0.00732,-0.01495,-0.05219,-0.02258,0.02991,-0.04837,-0.01801,-0.00961,-0.04532
6.1965,-0.00061,-0.04089,-0.02396,-0.01221,-0.02777,-0.03738,0.04669,-0.00412,-0.02289,-0.04974,-0.07416,0.03082,-0.01923,-0.0177,-0.01236,-0.0499
6.197,-0.00046,-0.04013,-0.03067,-0.02014,-0.03998,-0.03998,0.02304,-0.00366,-0.0293,-0.04593,-0.08789,0.00626,-0.0473,-0.01785,-0.01068,-0.05264
6.1975,0.00381,-0.03967,-0.04028,-0.02731,-0.05096,-0.04105,-0.02441,-0.00244,-0.03448,-0.04349,-0.09216,-0.02853,-0.0856,-0.01999,-0.00793,-0.05432
6.198,0.00702,-0.0415,-0.04944,-0.0325,-0.0528,-0.04013,-0.05341,-0.00137,-0.03632,-0.04318,-0.09857,-0.05127,-0.0943,-0.02075,-0.01038,-0.05859
6.1985,0.00549,-0.04257,-0.05341,-0.03815,-0.04349,-0.04059,-0.04379,-0.00015,-0.02991,-0.04959,-0.09598,-0.05539,-0.07233,-0.01968,-0.01251,-0.06699
6.199,-0.00137,-0.04135,-0.04807,-0.04837,-0.03357,-0.04196,-0.02014,-0.00061,-0.01617,-0.05753,-0.07904,-0.05005,-0.0412,-0.02029,-0.00916,-0.07034
6.1995,-0.00916,-0.04105,-0.03952,-0.06149,-0.03052,-0.04333,-0.0119,-0.00214,0.00107,-0.05661,-0.05966,-0.04166,-0.01724,-0.02167,0.0029,-0.0647
6.2,-0.01373,-0.04257,-0.03311,-0.06134,-0.03357,-0.04425,-0.0238,-0.00305,0.01694,-0.04074,-0.05295,-0.02228,-0.00153,-0.02075,0.01862,-0.05493
6.2005,-0.01541,-0.04486,-0.03311,-0.04074,-0.03372,-0.04547,-0.03647,-0.00443,0.02823,-0.01953,-0.05997,0.01266,0.00992,-0.01724,0.0238,-0.04913
6.201,-0.01816,-0.04639,-0.03845,-0.00992,-0.02777,-0.047,-0.03876,-0.00504,0.0325,-0.00168,-0.06744,0.04074,0.01862,-0.01389,0.01434,-0.04776
6.2015,-0.02243,-0.04578,-0.04791,0.0177,-0.02197,-0.04623,-0.03204,-0.00519,0.02716,0.01175,-0.06104,0.04486,0.01556,-0.01587,0.00305,-0.04791
6.202,-0.02563,-0.04318,-0.0592,0.03479,-0.02045,-0.04364,-0.01953,-0.00458,0.00931,0.0235,-0.04166,0.03128,-0.00916,-0.02213,0.00046,-0.04791
6.2025,-0.02289,-0.03937,-0.06912,0.03891,-0.02151,-0.04135,-0.00366,-0.0058,-0.01892,0.03281,-0.02213,0.01862,-0.05447,-0.02884,0.00473,-0.04776
6.203,-0.01709,-0.03647,-0.06958,0.0238,-0.02014,-0.04196,0.00748,-0.00824,-0.04852,0.03693,-0.0087,0.01328,-0.09537,-0.03143,0.00824,-0.04807
6.2035,-0.01343,-0.03571,-0.05569,-0.01266,-0.01831,-0.04227,0.00809,-0.00961,-0.0705,0.03311,-0.00275,0.00519,-0.10422,-0.03281,0.00519,-0.04776
6.204,-0.01297,-0.03418,-0.03174,-0.06927,-0.01785,-0.04105,0.00351,-0.00778,-0.08575,0.02304,-0.00443,-0.01541,-0.08102,-0.03464,0.00046,-0.04715
6.2045,-0.01175,-0.02899,-0.00793,-0.14038,-0.01984,-0.03891,0.00748,-0.0061,-0.09476,0.01282,-0.01358,-0.05737,-0.0502,-0.03677,-0.0032,-0.04547
6.205,-0.00717,-0.02182,0.00229,-0.21011,-0.02167,-0.0412,0.01984,-0.0061,-0.09262,0.00397,-0.02472,-0.11475,-0.03113,-0.03403,-0.00107,-0.04425
6.2055,-0.00092,-0.01892,0.00168,-0.23865,-0.02518,-0.04501,0.02777,-0.00916,-0.07614,-0.00076,-0.0296,-0.14206,-0.02045,-0.02747,0.00351,-0.04272
6.206,0.00092,-0.02243,-0.00473,-0.19043,-0.02716,-0.04776,0.02548,-0.01175,-0.05234,-0.0032,-0.02457,-0.08392,-0.01038,-0.02365,0.009,-0.0412
6.2065,-0.00046,-0.02472,-0.00778,-0.08408,-0.02502,-0.04791,0.02228,-0.01328,-0.03387,-0.00565,-0.01785,0.04105,-0.00153,-0.02441,0.01236,-0.04074
6.207,-0.00397,-0.02243,-0.00916,0.02075,-0.01907,-0.04852,0.02548,-0.01328,-0.02502,-0.00687,-0.00885,0.13275,-0.00275,-0.02472,0.01144,-0.04242
6.2075,-0.00488,-0.01907,-0.00763,0.0882,-0.01465,-0.05081,0.02548,-0.0119,-0.01755,-0.00916,0.0087,0.12024,-0.0145,-0.0209,0.00687,-0.0441
6.208,-0.00351,-0.01968,-0.00717,0.12985,-0.01556,-0.05341,0.01129,-0.00961,-0.00702,-0.01266,0.03418,0.05066,-0.03128,-0.01648,-0.00244,-0.04944
6.2085,-0.00122,-0.02441,-0.00763,0.15701,-0.01862,-0.05371,-0.01373,-0.00778,-0.00107,-0.01938,0.05081,0.00916,-0.04242,-0.01312,-0.01251,-0.05783
6.209,-0.00061,-0.03036,-0.01038,0.1474,-0.01938,-0.05356,-0.03738,-0.00595,-0.00519,-0.02319,0.0412,0.00412,-0.0444,-0.01205,-0.02151,-0.06805
6.2095,0.00061,-0.03647,-0.01556,0.09262,-0.01526,-0.05341,-0.05035,-0.00412,-0.01343,-0.02258,0.01175,-0.00671,-0.04089,-0.01282,-0.02625,-0.07217
6.21,0.00305,-0.04623,-0.02533,0.02823,-0.00916,-0.05524,-0.05692,-0.00397,-0.01694,-0.01999,-0.01572,-0.03464,-0.03998,-0.01343,-0.02991,-0.06882
6.2105,0.00565,-0.06226,-0.03769,-0.00427,-0.00656,-0.05692,-0.06714,-0.00504,-0.0148,-0.01968,-0.02884,-0.05051,-0.04318,-0.01434,-0.03464,-0.06165
6.211,0.00671,-0.07813,-0.04669,-0.00595,-0.00504,-0.05875,-0.0795,-0.00641,-0.01175,-0.02106,-0.02991,-0.04013,-0.04684,-0.01297,-0.03311,-0.05417
6.2115,0.00717,-0.0882,-0.04684,-0.0032,-0.0029,-0.06027,-0.08209,-0.00641,-0.01068,-0.02136,-0.02777,-0.01755,-0.04349,-0.01129,-0.01724,-0.04501
6.212,0.00824,-0.09186,-0.0412,-0.00595,0.00168,-0.0618,-0.065,-0.00641,-0.01068,-0.02014,-0.0267,0.00183,-0.02792,-0.01282,0.0119,-0.0325
6.2125,0.00717,-0.09354,-0.03586,-0.00885,-0.00061,-0.06073,-0.03738,-0.0058,-0.00824,-0.02029,-0.02686,0.02045,-0.00336,-0.01785,0.03571,-0.01816
6.213,0.0032,-0.09277,-0.0354,-0.00473,-0.01175,-0.05768,-0.0119,-0.0058,-0.00046,-0.02365,-0.03113,0.0502,0.01923,-0.02045,0.03876,-0.00534
6.2135,-0.00122,-0.08575,-0.03891,0.00519,-0.02838,-0.05341,0.00854,-0.00534,0.01114,-0.02869,-0.0351,0.08682,0.02914,-0.01968,0.02808,0.00351
6.214,-0.00443,-0.07294,-0.04089,0.01968,-0.0412,-0.05096,0.0293,-0.00488,0.02045,-0.03647,-0.03601,0.10864,0.02914,-0.01984,0.0238,-0.00122
6.2145,-0.00565,-0.06088,-0.04318,0.0383,-0.0531,-0.05096,0.05173,-0.00534,0.02121,-0.04562,-0.03052,0.08865,0.02335,-0.02243,0.03464,-0.02167
6.215,-0.0058,-0.05356,-0.04608,0.05219,-0.06836,-0.05096,0.07126,-0.00549,0.01389,-0.05707,-0.01816,0.02243,0.00504,-0.0264,0.04929,-0.04547
6.2155,-0.00748,-0.04929,-0.04761,0.04745,-0.08713,-0.05173,0.08179,-0.00504,0.00458,-0.06699,-0.00336,-0.05417,-0.03647,-0.02518,0.0528,-0.05432
6.216,-0.01129,-0.04028,-0.04761,0.01938,-0.09918,-0.05203,0.06622,-0.00488,-0.00153,-0.07339,0.00778,-0.08865,-0.08423,-0.01801,0.04105,-0.0473
6.2165,-0.01724,-0.02213,-0.04684,-0.01968,-0.09293,-0.05188,0.01022,-0.00366,-0.00931,-0.07477,0.01312,-0.0563,-0.09247,-0.01099,0.02228,-0.03815
6.217,-0.02151,0.00137,-0.0444,-0.05051,-0.07431,-0.05005,-0.07904,-0.00168,-0.0206,-0.07111,0.01328,0.0119,-0.04684,-0.00992,0.01038,-0.03601
6.2175,-0.01938,0.01816,-0.03998,-0.06485,-0.05371,-0.04852,-0.15778,-0.00076,-0.03662,-0.06607,0.01099,0.05859,0.00854,-0.0145,0.00534,-0.03738
6.218,-0.01175,0.02319,-0.03632,-0.06714,-0.04471,-0.04684,-0.17334,-0.00107,-0.05661,-0.05905,0.00473,0.05386,0.02899,-0.02014,-0.00168,-0.03891
6.2185,-0.00397,0.0174,-0.03601,-0.06973,-0.0473,-0.04608,-0.11826,0.0,-0.07935,-0.05173,0.00076,0.02029,0.01678,-0.02441,-0.01083,-0.03967
6.219,-0.00092,0.00687,-0.03616,-0.07965,-0.05524,-0.04761,-0.056,0.00183,-0.09384,-0.03922,0.00198,-0.00381,-0.00244,-0.02777,-0.02274,-0.03967
6.2195,-0.00107,-0.00656,-0.03677,-0.09094,-0.05463,-0.04868,-0.04578,0.00305,-0.08942,-0.02213,0.00946,-0.0087,-0.01953,-0.02731,-0.03113,-0.0386
6.22,-0.00107,-0.0206,-0.03616,-0.09216,-0.04684,-0.04684,-0.0737,0.00336,-0.06805,-0.00488,0.01724,-0.0058,-0.04288,-0.02258,-0.03876,-0.03784
6.2205,-0.00183,-0.03296,-0.03693,-0.08209,-0.03876,-0.04532,-0.08621,0.00244,-0.04181,0.00977,0.02029,-0.00504,-0.07477,-0.01724,-0.0473,-0.03906
6.221,-0.00397,-0.0412,-0.03677,-0.06149,-0.03342,-0.04456,-0.06622,0.00229,-0.01892,0.01968,0.01816,-0.00534,-0.09506,-0.01602,-0.05554,-0.04196
6.2215,-0.0061,-0.04684,-0.03571,-0.03098,-0.02838,-0.04517,-0.03784,0.00397,-0.00061,0.0267,0.01541,-0.00473,-0.09048,-0.01938,-0.05951,-0.04456
6.222,-0.00656,-0.04745,-0.0354,-0.00473,-0.01816,-0.04669,-0.01877,0.00488,0.01282,0.03372,0.01389,-0.00412,-0.07767,-0.02258,-0.05646,-0.04456
6.2225,-0.00534,-0.04272,-0.03632,-0.00839,-0.00183,-0.04791,-0.00183,0.00305,0.01968,0.03708,0.01099,-0.00412,-0.07431,-0.02457,-0.047,-0.04272
6.223,-0.0032,-0.03326,-0.03799,-0.04913,0.01663,-0.04684,0.02594,-0.00061,0.02258,0.03601,0.0032,-0.00397,-0.07385,-0.02472,-0.03098,-0.0412
6.2235,0.00015,-0.0267,-0.03891,-0.09521,0.0322,-0.0444,0.05997,-0.0029,0.02487,0.02792,-0.00687,-0.00336,-0.06256,-0.02411,0.00885,-0.0412
6.224,0.00137,-0.02838,-0.04044,-0.11322,0.03616,-0.04333,0.06821,-0.00397,0.03082,0.01694,-0.01663,-0.00214,-0.04654,-0.02243,0.08667,-0.04196
6.2245,0.00137,-0.03983,-0.03952,-0.10422,0.02884,-0.04349,0.03525,-0.00488,0.03784,0.00259,-0.02335,-0.00381,-0.03754,-0.02045,0.17151,-0.04288
6.225,0.00183,-0.0502,-0.03769,-0.09644,0.01389,-0.04623,-0.00336,-0.00687,0.04135,-0.01221,-0.02655,-0.00839,-0.0354,-0.01801,0.1918,-0.04227
6.2255,0.0,-0.05356,-0.03708,-0.11139,-0.00534,-0.0499,-0.00198,-0.00854,0.03723,-0.02655,-0.02762,-0.01358,-0.03479,-0.01572,0.12573,-0.0415
6.226,0.00046,-0.05096,-0.03723,-0.13367,-0.03082,-0.0531,0.03281,-0.00854,0.02487,-0.03815,-0.0238,-0.0148,-0.03403,-0.01389,0.03265,-0.04272
6.2265,0.00183,-0.04883,-0.03616,-0.12558,-0.06104,-0.05493,0.05493,-0.00641,0.00824,-0.04608,-0.01083,-0.01282,-0.03357,-0.01404,-0.0145,-0.04395
6.227,0.00381,-0.04807,-0.03326,-0.06058,-0.09003,-0.05737,0.04837,-0.00412,-0.00656,-0.04944,0.01175,-0.01068,-0.03143,-0.01556,-0.00854,-0.0441
6.2275,0.00488,-0.04944,-0.03006,0.04425,-0.10651,-0.06149,0.03357,-0.00473,-0.01511,-0.04837,0.0296,-0.01236,-0.02533,-0.01465,0.00946,-0.04303
6.228,0.00397,-0.05157,-0.03021,0.14099,-0.09903,-0.06454,0.02777,-0.00748,-0.01724,-0.04425,0.02243,-0.0148,-0.0116,-0.01007,0.01709,-0.0415
6.2285,0.00427,-0.05478,-0.03372,0.19608,-0.07385,-0.06424,0.01724,-0.01144,-0.01755,-0.03983,-0.00854,-0.01877,0.00824,-0.00504,0.02045,-0.04089
6.229,0.0061,-0.06042,-0.03891,0.20325,-0.04974,-0.06058,-0.01694,-0.01511,-0.01984,-0.03632,-0.03952,-0.02319,0.02426,-0.00534,0.02777,-0.04227
6.2295,0.01099,-0.06744,-0.03998,0.1622,-0.04379,-0.05554,-0.0647,-0.01709,-0.02518,-0.03174,-0.05402,-0.0267,0.02625,-0.00916,0.03891,-0.0441
6.23,0.01404,-0.07339,-0.04013,0.0856,-0.04913,-0.05264,-0.09583,-0.01541,-0.03265,-0.02472,-0.0563,-0.02991,0.01617,-0.01328,0.04929,-0.04639
6.2305,0.01434,-0.07751,-0.03983,0.00626,-0.05188,-0.05234,-0.09201,-0.0116,-0.03983,-0.01266,-0.05707,-0.03128,0.00305,-0.01526,0.05707,-0.04944
6.231,0.00992,-0.0798,-0.03876,-0.03693,-0.04639,-0.05081,-0.06729,-0.00778,-0.04623,-0.00015,-0.05585,-0.0267,-0.01465,-0.01389,0.05905,-0.05127
6.2315,0.00412,-0.07828,-0.03845,-0.03433,-0.03998,-0.04868,-0.05417,-0.00519,-0.04745,0.01297,-0.04822,-0.01343,-0.04929,-0.01175,0.04196,-0.05219
6.232,-0.00305,-0.07324,-0.03616,-0.01083,-0.03555,-0.04745,-0.06378,-0.0029,-0.04211,0.02289,-0.03723,0.00427,-0.09521,-0.01221,0.00122,-0.05356
6.2325,-0.01053,-0.06592,-0.03479,0.00702,-0.03372,-0.04929,-0.06851,0.0,-0.0322,0.02945,-0.02716,0.01343,-0.11703,-0.01266,-0.04776,-0.05264
6.233,-0.0177,-0.05875,-0.03433,0.01236,-0.03082,-0.04959,-0.02731,0.00168,-0.02457,0.03479,-0.02106,0.00671,-0.09094,-0.01114,-0.08759,-0.0502
6.2335,-0.02426,-0.05096,-0.03601,0.00931,-0.02533,-0.05051,0.0531,0.00198,-0.01968,0.03586,-0.01755,-0.0119,-0.03616,-0.00717,-0.11322,-0.04913
6.234,-0.02838,-0.04364,-0.03647,0.00183,-0.02106,-0.05035,0.11902,0.00137,-0.01495,0.02808,-0.01633,-0.03174,-0.00061,-0.00412,-0.13153,-0.05203
6.2345,-0.03006,-0.03998,-0.03357,-0.00549,-0.01694,-0.04929,0.11963,0.00031,-0.00687,0.0119,-0.01282,-0.04196,-0.0087,-0.0061,-0.13412,-0.05478
6.235,-0.02975,-0.0412,-0.02914,-0.01114,-0.01419,-0.04715,0.05737,-0.00107,0.00153,-0.00626,-0.00885,-0.03998,-0.0444,-0.01144,-0.09567,-0.05539
6.2355,-0.02731,-0.0441,-0.02441,-0.01053,-0.0119,-0.04593,-0.02121,-0.00183,0.00504,-0.02014,-0.00458,-0.02777,-0.0737,-0.01541,0.00046,-0.05142
6.236,-0.02243,-0.04211,-0.02121,-0.00565,-0.01144,-0.04684,-0.07233,-0.00168,0.00183,-0.0293,0.0,-0.01343,-0.07141,-0.01617,0.12283,-0.04288
6.2365,-0.0174,-0.03296,-0.0209,-0.0032,-0.01617,-0.0499,-0.08621,-0.00259,-0.00687,-0.03418,0.00656,-0.00351,-0.03876,-0.01709,0.19318,-0.03067
6.237,-0.01541,-0.02106,-0.02228,-0.00961,-0.02914,-0.05066,-0.0737,-0.00519,-0.01816,-0.03799,0.01495,-0.00046,0.00046,-0.01953,0.16571,-0.01648
6.2375,-0.01434,-0.01511,-0.02701,-0.03052,-0.04349,-0.05035,-0.04639,-0.00412,-0.02808,-0.04196,0.01999,-0.00183,0.02182,-0.0206,0.08087,-0.00488
6.238,-0.01068,-0.01648,-0.03616,-0.0589,-0.04883,-0.04745,-0.0177,-0.00076,-0.03616,-0.04623,0.01816,-0.0032,0.01328,-0.01953,0.01022,-0.00183
6.2385,-0.00427,-0.02045,-0.04608,-0.07553,-0.03464,-0.04349,-0.0029,0.00046,-0.04135,-0.04715,0.01221,-0.0029,-0.01923,-0.01892,-0.02075,-0.01053
6.239,0.00244,-0.02487,-0.05112,-0.06378,-0.00748,-0.03922,-0.00504,-0.00046,-0.0441,-0.04425,0.0061,-0.00092,-0.05447,-0.0206,-0.03983,-0.02289
6.2395,0.00702,-0.0293,-0.04959,-0.02838,0.01328,-0.03571,-0.00671,-0.00031,-0.04364,-0.03815,0.00031,0.00107,-0.06409,-0.0235,-0.0705,-0.03159
6.24,0.009,-0.03418,-0.04669,0.01404,0.01266,-0.03448,0.00702,0.00275,-0.04013,-0.03067,-0.0058,0.0032,-0.04517,-0.0235,-0.09964,-0.03296
6.2405,0.00824,-0.03632,-0.04684,0.05035,-0.0061,-0.03723,0.03113,0.00473,-0.03174,-0.0235,-0.01282,0.00412,-0.0206,-0.0206,-0.10361,-0.03281
6.241,0.0058,-0.02899,-0.05035,0.07721,-0.03525,-0.04227,0.04547,0.00336,-0.01984,-0.01862,-0.01678,0.00381,-0.01038,-0.0174,-0.08102,-0.03387
6.2415,0.00381,-0.01038,-0.05234,0.09033,-0.06714,-0.04517,0.0386,0.00015,-0.00854,-0.01709,-0.01694,0.00275,-0.01434,-0.01816,-0.05264,-0.03586
6.242,0.00412,0.00824,-0.04776,0.07507,-0.08942,-0.04379,0.01648,-0.00183,-0.00076,-0.01801,-0.01434,0.00305,-0.02579,-0.02197,-0.03235,-0.03754
6.2425,0.00397,0.01328,-0.03983,0.01373,-0.08698,-0.04089,-0.00259,-0.00305,0.00305,-0.02014,-0.01465,0.00504,-0.03937,-0.02319,-0.00397,-0.0386
6.243,0.00183,0.00275,-0.03403,-0.08606,-0.06149,-0.03967,-0.00809,-0.00259,0.00412,-0.02213,-0.01633,0.00732,-0.04517,-0.01923,0.04898,-0.03967
6.2435,-0.00259,-0.01389,-0.03113,-0.17761,-0.03174,-0.04044,-0.00122,0.00015,0.00381,-0.0238,-0.01648,0.0087,-0.04089,-0.01495,0.09995,-0.04272
6.244,-0.00702,-0.02808,-0.03067,-0.20554,-0.01587,-0.04272,0.0058,0.00443,0.00381,-0.02533,-0.01419,0.00946,-0.03342,-0.01556,0.1091,-0.04852
6.2445,-0.00793,-0.03922,-0.03036,-0.14862,-0.00946,-0.0415,0.00885,0.00687,-0.00015,-0.02823,-0.01297,0.00961,-0.03174,-0.01831,0.07324,-0.05295
6.245,-0.00687,-0.04852,-0.03021,-0.04028,-0.00534,-0.03967,0.00854,0.00549,-0.01129,-0.0293,-0.01617,0.00977,-0.03433,-0.01892,0.03326,-0.05371
6.2455,-0.00809,-0.05447,-0.02945,0.05554,0.00046,-0.03967,0.00168,0.00107,-0.02518,-0.0296,-0.02289,0.00809,-0.03159,-0.01877,0.02335,-0.05127
6.246,-0.01343,-0.05707,-0.0293,0.09171,0.00046,-0.04349,-0.02075,-0.0029,-0.0293,-0.03098,-0.02869,0.00488,-0.02243,-0.02014,0.04776,-0.04959
6.2465,-0.01892,-0.05905,-0.02747,0.07111,-0.00885,-0.04669,-0.05936,-0.00656,-0.02151,-0.03098,-0.0293,0.00183,-0.01755,-0.02365,0.09521,-0.05127
6.247,-0.01877,-0.05997,-0.02579,0.03372,-0.02197,-0.04944,-0.09613,-0.00854,-0.01373,-0.03204,-0.02396,0.00107,-0.03265,-0.02609,0.13718,-0.05295
6.2475,-0.01389,-0.0618,-0.02533,0.01266,-0.03387,-0.05157,-0.10529,-0.00931,-0.01755,-0.03204,-0.01266,0.00244,-0.06409,-0.02609,0.1384,-0.05066
6.248,-0.00778,-0.0621,-0.02609,0.01038,-0.03952,-0.0531,-0.08011,-0.00916,-0.02838,-0.0325,0.00259,0.00153,-0.08118,-0.02472,0.09201,-0.04532
6.2485,-0.0032,-0.06073,-0.02731,0.01068,-0.03555,-0.05142,-0.04303,-0.00839,-0.03464,-0.03143,0.01556,0.0,-0.05188,-0.02319,0.02731,-0.04013
6.249,0.00046,-0.05798,-0.03281,-0.00046,-0.02701,-0.04822,-0.03174,-0.0061,-0.03448,-0.03052,0.02213,-0.00198,0.01266,-0.02182,-0.02548,-0.03922
6.2495,0.0029,-0.05219,-0.056,-0.02136,-0.02136,-0.04852,-0.05707,-0.00153,-0.03494,-0.02991,0.02274,-0.00122,0.05875,-0.02121,-0.06378,-0.04044
6.25,0.00458,-0.0441,-0.11017,-0.03662,-0.01923,-0.05219,-0.08255,0.00168,-0.04105,-0.03494,0.01907,0.00168,0.03967,-0.02472,-0.08606,-0.04089
6.2505,0.00458,-0.03799,-0.18982,-0.04303,-0.01892,-0.05661,-0.06088,0.00305,-0.04715,-0.04227,0.01007,0.0032,-0.02319,-0.03464,-0.08377,-0.04135
6.251,0.00381,-0.03464,-0.26474,-0.05646,-0.0267,-0.05722,0.00732,0.00305,-0.04562,-0.047,-0.00214,0.00473,-0.06348,-0.04272,-0.05707,-0.04272
6.2515,0.0029,-0.0322,-0.30304,-0.08743,-0.0441,-0.05539,0.07065,0.00336,-0.03723,-0.04349,-0.0119,0.00488,-0.04715,-0.04227,-0.02548,-0.04333
6.252,0.00076,-0.02899,-0.2919,-0.11047,-0.0563,-0.05478,0.08652,0.00198,-0.02762,-0.03601,-0.01465,0.00504,-0.0029,-0.03265,-0.01068,-0.04364
6.2525,-0.00031,-0.02808,-0.22369,-0.08484,-0.05219,-0.05493,0.06012,0.0,-0.02106,-0.02777,-0.01587,0.00534,0.01556,-0.02182,-0.00763,-0.04318
6.253,0.00153,-0.0296,-0.1004,0.00031,-0.0386,-0.05295,0.02411,-0.00092,-0.0148,-0.02289,-0.02075,0.00702,-0.01175,-0.01678,0.00259,-0.0415
6.2535,0.00519,-0.03342,0.05524,0.10101,-0.03479,-0.04944,-0.00076,-0.00092,-0.00641,-0.02625,-0.03235,0.01022,-0.06851,-0.01465,0.03067,-0.04074
6.254,0.00839,-0.03815,0.19638,0.15213,-0.05096,-0.04745,-0.01312,0.0,0.00565,-0.03876,-0.04669,0.01343,-0.11887,-0.01312,0.06134,-0.04242
6.2545,0.00793,-0.04166,0.28412,0.13016,-0.0769,-0.04517,-0.01923,-0.00061,0.01831,-0.05554,-0.05966,0.01602,-0.12985,-0.00946,0.06866,-0.04456
6.255,0.00549,-0.04471,0.30258,0.06973,-0.09109,-0.04349,-0.0267,-0.00183,0.0267,-0.06271,-0.06332,0.01968,-0.09766,-0.00549,0.04852,-0.04486
6.2555,0.00259,-0.04761,0.2655,0.01602,-0.07904,-0.0444,-0.04135,-0.00305,0.02731,-0.0563,-0.05936,0.02823,-0.05356,-0.00366,0.01862,-0.04242
6.256,-0.00168,-0.05219,0.20142,-0.01221,-0.05051,-0.04684,-0.05814,-0.00336,0.01862,-0.0412,-0.05508,0.04059,-0.02441,-0.0058,0.00092,-0.04272
6.2565,-0.00671,-0.0563,0.13779,-0.0235,-0.03067,-0.04868,-0.065,-0.0029,-0.00107,-0.02884,-0.05951,0.04822,-0.01144,-0.00671,-0.0029,-0.04456
6.257,-0.01389,-0.05676,0.08377,-0.03342,-0.03189,-0.04776,-0.05478,-0.00397,-0.0267,-0.01953,-0.06805,0.04608,-0.00641,-0.00626,-0.0032,-0.04654
6.2575,-0.01907,-0.05463,0.03662,-0.03754,-0.04501,-0.04288,-0.03632,-0.00732,-0.04608,-0.01007,-0.07095,0.03738,-0.00992,-0.00656,-0.00534,-0.0473
6.258,-0.01968,-0.05371,-0.00473,-0.01892,-0.05142,-0.03983,-0.0206,-0.01068,-0.04883,0.00198,-0.0647,0.03036,-0.02167,-0.00717,-0.00656,-0.04517
6.2585,-0.01633,-0.05676,-0.03601,0.01846,-0.03967,-0.04013,-0.0145,-0.01297,-0.0354,0.0116,-0.05524,0.0293,-0.03174,-0.01236,-0.0061,-0.04288
6.259,-0.01083,-0.06165,-0.05264,0.04669,-0.0177,-0.04288,-0.01785,-0.01221,-0.01709,0.01572,-0.04852,0.02853,-0.03448,-0.02136,-0.00397,-0.04181
6.2595,-0.00504,-0.06256,-0.06058,0.04669,-0.00275,-0.04608,-0.02777,-0.0087,-0.00214,0.01373,-0.04349,0.01526,-0.03693,-0.03296,-0.00275,-0.04166
6.26,-0.00107,-0.05798,-0.06134,0.02899,-0.00153,-0.04715,-0.03754,-0.00473,0.01053,0.00931,-0.03632,-0.02197,-0.04486,-0.04059,-0.00198,-0.0415
6.2605,-0.00061,-0.0528,-0.05615,0.01266,-0.00977,-0.04669,-0.03723,-0.00259,0.01938,0.00046,-0.02197,-0.0766,-0.04974,-0.03662,-0.00137,-0.04074
6.261,-0.00137,-0.04913,-0.0473,0.00641,-0.02014,-0.04608,-0.03036,-0.00092,0.01953,-0.00748,0.00763,-0.11673,-0.04242,-0.02441,0.00015,-0.03937
6.2615,-0.00275,-0.04196,-0.04105,0.00626,-0.02701,-0.04486,-0.02518,0.00061,0.01221,-0.0119,0.06439,-0.10895,-0.02899,-0.01389,0.00092,-0.03906
6.262,-0.00473,-0.0325,-0.04333,0.00534,-0.02731,-0.04425,-0.02289,0.00214,0.00259,-0.01175,0.13367,-0.0589,-0.02121,-0.01205,0.00015,-0.03998
6.2625,-0.00977,-0.02563,-0.05157,-0.00168,-0.01923,-0.04532,-0.02029,0.00153,-0.00595,-0.01343,0.16922,-0.01038,-0.01907,-0.01694,0.00137,-0.04074
6.263,-0.01602,-0.02487,-0.05768,-0.01572,-0.00671,-0.04501,-0.01846,-0.00061,-0.01602,-0.01923,0.13458,0.00076,-0.01587,-0.02167,0.00351,-0.04105
6.2635,-0.01846,-0.02777,-0.06393,-0.03952,0.0029,-0.04486,-0.01831,-0.00183,-0.03021,-0.02029,0.05325,-0.02106,-0.01083,-0.02441,0.00534,-0.03983
6.264,-0.01633,-0.03113,-0.06897,-0.08194,0.00259,-0.04395,-0.01633,-0.00275,-0.04456,-0.01144,-0.02106,-0.04318,-0.01053,-0.02563,0.00381,-0.03952
6.2645,-0.01373,-0.02991,-0.07385,-0.14923,-0.01099,-0.04532,-0.01129,-0.00473,-0.05219,0.00305,-0.05951,-0.04211,-0.0177,-0.02441,-0.00015,-0.04089
6.265,-0.01221,-0.02457,-0.07355,-0.22491,-0.03326,-0.04578,-0.01022,-0.00626,-0.04898,0.01709,-0.07431,-0.02197,-0.02823,-0.02365,-0.00336,-0.04318
6.2655,-0.01251,-0.02167,-0.07019,-0.27023,-0.04852,-0.04501,-0.02472,-0.00763,-0.03876,0.03036,-0.08438,-0.00427,-0.03845,-0.02319,-0.00946,-0.04501
6.266,-0.0145,-0.02396,-0.06577,-0.25055,-0.04517,-0.04395,-0.05493,-0.00732,-0.03113,0.04257,-0.09445,-0.0119,-0.05417,-0.02457,-0.02045,-0.04608
6.2665,-0.01831,-0.03036,-0.0647,-0.15915,-0.03296,-0.04456,-0.07858,-0.0087,-0.0267,0.04929,-0.0975,-0.04684,-0.06927,-0.02655,-0.0351,-0.04608
6.267,-0.02121,-0.03647,-0.06577,-0.03326,-0.03113,-0.04395,-0.0676,-0.00946,-0.02197,0.0473,-0.09689,-0.08286,-0.06393,-0.02686,-0.05096,-0.04776
6.2675,-0.02029,-0.03983,-0.06226,0.056,-0.04517,-0.04395,-0.02594,-0.00916,-0.01022,0.03952,-0.09964,-0.08942,-0.03006,-0.02502,-0.06409,-0.04898
6.268,-0.01648,-0.04227,-0.05508,0.06348,-0.06454,-0.04654,0.01541,-0.00732,0.00763,0.02792,-0.10132,-0.05768,0.01389,-0.02075,-0.06866,-0.05081
6.2685,-0.01328,-0.04639,-0.04654,0.01541,-0.07233,-0.04868,0.03433,-0.00702,0.02533,0.01404,-0.09262,-0.01495,0.03983,-0.01877,-0.06699,-0.0499
6.269,-0.01404,-0.04944,-0.04013,-0.02106,-0.06592,-0.04868,0.03372,-0.00885,0.03662,0.00229,-0.06927,0.00763,0.04227,-0.01892,-0.06058,-0.04868
6.2695,-0.01877,-0.04929,-0.03647,-0.01083,-0.0531,-0.04868,0.02655,-0.01114,0.04227,-0.00412,-0.04303,0.01831,0.0354,-0.02136,-0.04242,-0.04852
6.27,-0.02274,-0.04761,-0.03174,0.03494,-0.04227,-0.05203,0.01694,-0.01068,0.03769,-0.00366,-0.02655,0.04684,0.02197,-0.02197,0.00107,-0.05173
6.2705,-0.02579,-0.04974,-0.02777,0.09918,-0.03784,-0.0592,0.00519,-0.00793,0.01236,-0.00259,-0.02151,0.0914,-0.01312,-0.02014,0.07217,-0.05905
6.271,-0.02548,-0.05463,-0.02686,0.16541,-0.03555,-0.06699,-0.00381,-0.00534,-0.02975,-0.00412,-0.02014,0.11963,-0.07446,-0.01587,0.15091,-0.06424
6.2715,-0.02335,-0.0589,-0.03128,0.20111,-0.03265,-0.06912,-0.00702,-0.00504,-0.07141,-0.0058,-0.01465,0.12482,-0.12833,-0.01343,0.20187,-0.06393
6.272,-0.0209,-0.06104,-0.03891,0.18112,-0.02991,-0.06699,-0.00748,-0.00549,-0.09796,-0.00732,-0.0032,0.1268,-0.13214,-0.01358,0.20554,-0.05676
6.2725,-0.01816,-0.0618,-0.04578,0.11871,-0.02731,-0.06439,-0.00839,-0.00488,-0.10742,-0.00885,0.01007,0.12924,-0.08698,-0.01373,0.14587,-0.047
6.273,-0.01282,-0.0618,-0.04837,0.05829,-0.02502,-0.06332,-0.00946,-0.00336,-0.0975,-0.01755,0.0209,0.10818,-0.03937,-0.01358,0.03479,-0.03998
6.2735,-0.00214,-0.05875,-0.04791,0.02396,-0.02228,-0.06241,-0.0087,-0.00168,-0.06424,-0.0296,0.02304,0.06195,-0.02594,-0.01495,-0.08408,-0.03647
6.274,0.01419,-0.05356,-0.04654,0.00229,-0.01862,-0.06119,-0.00809,-0.00183,-0.01862,-0.04059,0.01602,0.02121,-0.03296,-0.0177,-0.14481,-0.0351
6.2745,0.03265,-0.04715,-0.0444,-0.02686,-0.01648,-0.06271,-0.01022,-0.00381,0.01511,-0.04395,0.00656,0.01038,-0.03479,-0.01984,-0.12161,-0.03464
6.275,0.0502,-0.04211,-0.04044,-0.06256,-0.01694,-0.06378,-0.01389,-0.00595,0.02365,-0.0444,0.00305,0.01709,-0.02808,-0.01938,-0.06363,-0.03677
6.2755,0.05875,-0.04196,-0.03967,-0.08728,-0.01892,-0.06119,-0.01663,-0.00641,0.01526,-0.04425,0.0061,0.00687,-0.02365,-0.01923,-0.03159,-0.03723
6.276,0.05173,-0.04578,-0.04166,-0.09491,-0.02487,-0.05707,-0.01633,-0.00687,0.00626,-0.04364,0.01282,-0.02853,-0.02792,-0.01968,-0.02808,-0.02548
6.2765,0.0296,-0.05051,-0.0444,-0.09537,-0.0264,-0.05249,-0.01419,-0.00702,0.00565,-0.03571,0.02014,-0.06577,-0.03479,-0.01785,-0.02533,-0.00534
6.277,0.00443,-0.05356,-0.04593,-0.09354,-0.02106,-0.04944,-0.01083,-0.00793,0.01053,-0.02319,0.03342,-0.07446,-0.03662,-0.01343,-0.01633,0.00214
6.2775,-0.01083,-0.05432,-0.04532,-0.08026,-0.0116,-0.047,-0.00854,-0.00717,0.0148,-0.01694,0.05447,-0.056,-0.03433,-0.01129,-0.01343,-0.01312
6.278,-0.01282,-0.05417,-0.04547,-0.05295,-0.00259,-0.04547,-0.00656,-0.00519,0.01266,-0.01801,0.06989,-0.02625,-0.03174,-0.01404,-0.02228,-0.03387
6.2785,-0.00961,-0.05554,-0.04623,-0.03052,-0.00412,-0.04532,-0.00366,-0.0032,0.00488,-0.01984,0.06622,0.00488,-0.02731,-0.01923,-0.03036,-0.03845
6.279,-0.00839,-0.05585,-0.0502,-0.02655,-0.01251,-0.04639,-0.00092,-0.00168,-0.00473,-0.01923,0.0444,0.04364,-0.01892,-0.02121,-0.01923,-0.03113
6.2795,-0.00961,-0.05402,-0.0563,-0.03296,-0.02472,-0.04593,0.00076,0.00015,-0.01266,-0.01953,0.01877,0.09399,-0.00702,-0.01968,0.00671,-0.02792
6.28,-0.00931,-0.04654,-0.05936,-0.04303,-0.03571,-0.0441,0.0,0.00092,-0.02182,-0.02426,-0.00443,0.1442,-0.00061,-0.0174,0.02197,-0.03387
6.2805,-0.00717,-0.03937,-0.05798,-0.06866,-0.04944,-0.04272,-0.00198,0.00015,-0.03433,-0.03052,-0.02304,0.16846,-0.009,-0.0145,0.02258,-0.04181
6.281,-0.00656,-0.03677,-0.04944,-0.11368,-0.06165,-0.04364,-0.00458,-0.00092,-0.04898,-0.03571,-0.0325,0.14526,-0.03067,-0.01053,0.03296,-0.04211
6.2815,-0.01053,-0.03815,-0.04196,-0.14435,-0.06195,-0.04364,-0.00839,-0.00076,-0.05737,-0.03998,-0.02686,0.07889,-0.05356,-0.00702,0.06042,-0.03784
6.282,-0.01663,-0.03754,-0.03799,-0.12726,-0.0499,-0.04364,-0.01221,0.00046,-0.05402,-0.04562,-0.01114,0.00565,-0.06302,-0.00732,0.07401,-0.03555
6.2825,-0.01816,-0.02884,-0.03815,-0.0795,-0.03387,-0.04379,-0.01511,0.00183,-0.03754,-0.05112,-0.00549,-0.03815,-0.0563,-0.01038,0.05051,-0.03876
6.283,-0.01282,-0.01709,-0.03738,-0.04135,-0.02136,-0.04562,-0.01724,0.00168,-0.01556,-0.04852,-0.02136,-0.04272,-0.04105,-0.01389,0.00763,-0.04288
6.2835,-0.00427,-0.00809,-0.03479,-0.02747,-0.00992,-0.04761,-0.01663,0.0,0.00092,-0.04501,-0.05051,-0.0267,-0.02533,-0.01694,-0.01663,-0.04562
6.284,-0.00061,-0.00595,-0.03494,-0.02899,-0.00366,-0.04898,-0.01343,-0.00015,0.00778,-0.04562,-0.07355,-0.00671,-0.01068,-0.02167,-0.00778,-0.04807
6.2845,-0.00229,-0.00824,-0.03662,-0.04135,-0.00763,-0.04776,-0.00992,0.00153,0.00809,-0.05402,-0.07507,0.01129,0.00107,-0.02518,0.02808,-0.05096
6.285,-0.00793,-0.0119,-0.03891,-0.0589,-0.02075,-0.04532,-0.00824,0.00412,0.00824,-0.06409,-0.0592,0.02182,0.00778,-0.02502,0.07034,-0.0528
6.2855,-0.01511,-0.0145,-0.03876,-0.05219,-0.03708,-0.04395,-0.00916,0.00427,0.01099,-0.0679,-0.04166,0.01709,0.00687,-0.02182,0.09033,-0.05249
6.286,-0.01984,-0.01755,-0.03677,0.00687,-0.04974,-0.04456,-0.01175,0.00229,0.01541,-0.06378,-0.03235,-0.00061,-0.00458,-0.01968,0.07339,-0.05005
6.2865,-0.02426,-0.02167,-0.03571,0.10956,-0.05493,-0.04761,-0.01099,-0.00092,0.01465,-0.05692,-0.02975,-0.01251,-0.02594,-0.02121,0.03784,-0.04745
6.287,-0.02716,-0.02441,-0.0351,0.21027,-0.05066,-0.04974,-0.00641,-0.00305,0.00656,-0.04883,-0.02884,-0.01801,-0.05478,-0.0235,0.00992,-0.04578
6.2875,-0.02899,-0.02533,-0.03326,0.26062,-0.04608,-0.0502,-0.00122,-0.0032,-0.00549,-0.0412,-0.0267,-0.03967,-0.08087,-0.02075,-0.00336,-0.04333
6.288,-0.03006,-0.02625,-0.02991,0.24796,-0.04974,-0.0499,-0.00061,-0.00244,-0.02457,-0.03448,-0.02563,-0.08224,-0.08469,-0.01282,-0.00854,-0.03983
6.2885,-0.03311,-0.0293,-0.02655,0.19241,-0.05951,-0.0502,-0.00488,-0.00198,-0.05234,-0.03021,-0.02365,-0.11078,-0.06317,-0.00259,-0.01205,-0.03693
6.289,-0.03616,-0.03433,-0.02533,0.11719,-0.06348,-0.05112,-0.01328,-0.00244,-0.08453,-0.02853,-0.01892,-0.08896,-0.03311,0.00381,-0.00916,-0.03525
6.2895,-0.03403,-0.03815,-0.02701,0.03571,-0.05554,-0.0499,-0.02716,-0.00351,-0.10132,-0.02625,-0.01343,-0.02869,-0.01419,0.00015,0.0029,-0.03433
6.29,-0.02411,-0.04211,-0.03159,-0.03662,-0.03952,-0.047,-0.04761,-0.00305,-0.08698,-0.02167,-0.00687,0.01724,-0.00992,-0.00977,0.02335,-0.03265
6.2905,-0.00854,-0.04974,-0.03693,-0.07874,-0.02411,-0.04379,-0.06714,-0.00168,-0.04929,-0.01663,-0.00015,0.01999,-0.01007,-0.01755,0.04318,-0.03281
6.291,0.00763,-0.06165,-0.04059,-0.09766,-0.00854,-0.04196,-0.07294,-0.00046,-0.01602,-0.01129,0.00259,-0.00793,-0.00839,-0.01968,0.05493,-0.03586
6.2915,0.02167,-0.07065,-0.03922,-0.12405,0.00717,-0.04242,-0.05814,0.00031,-0.00259,-0.00534,-0.00031,-0.04761,-0.00931,-0.02136,0.05737,-0.04105
6.292,0.03265,-0.06973,-0.03418,-0.1651,0.02029,-0.04272,-0.02792,-0.00107,-0.00275,0.00305,-0.00626,-0.08789,-0.0238,-0.02609,0.05859,-0.04684
6.2925,0.03403,-0.06104,-0.0293,-0.18814,0.02457,-0.04364,0.00259,-0.00641,-0.00092,0.01358,-0.00534,-0.11642,-0.05585,-0.0293,0.0621,-0.05035
6.293,0.02579,-0.05112,-0.02609,-0.1561,0.02136,-0.0441,0.02274,-0.01312,0.0029,0.01968,0.00061,-0.12039,-0.08591,-0.02563,0.05814,-0.05051
6.2935,0.0145,-0.04364,-0.02518,-0.05875,0.01053,-0.04593,0.02884,-0.01785,0.00336,0.01846,0.00473,-0.11124,-0.08469,-0.01724,0.03113,-0.0499
6.294,0.00534,-0.03998,-0.02563,0.07507,-0.00198,-0.0473,0.02487,-0.02029,0.00031,0.0119,0.00534,-0.1152,-0.05264,-0.01251,-0.01251,-0.05157
6.2945,0.00351,-0.03815,-0.03433,0.18265,-0.01953,-0.04883,0.0177,-0.02106,-0.00259,0.00763,0.00275,-0.13718,-0.02075,-0.01404,-0.04654,-0.05173
6.295,0.00381,-0.0383,-0.0531,0.20462,-0.0473,-0.05112,0.01282,-0.01678,-0.00793,0.00107,-0.00092,-0.13214,-0.01022,-0.01877,-0.0563,-0.0499
6.2955,0.00336,-0.04089,-0.0769,0.15045,-0.07919,-0.05249,0.00473,-0.00305,-0.01862,-0.00839,-0.00687,-0.047,-0.01282,-0.02167,-0.05539,-0.04562
6.296,0.00183,-0.04349,-0.09384,0.09476,-0.09537,-0.04959,-0.01663,0.01404,-0.02853,-0.01831,-0.01434,0.08926,-0.01587,-0.0267,-0.05859,-0.04135
6.2965,-0.00137,-0.04272,-0.09766,0.09277,-0.08331,-0.04379,-0.0415,0.02258,-0.02625,-0.02304,-0.02106,0.16983,-0.01694,-0.03952,-0.06012,-0.03922
6.297,-0.00443,-0.03662,-0.08865,0.11368,-0.05295,-0.03937,-0.04822,0.01541,-0.01343,-0.02197,-0.02625,0.13458,-0.0148,-0.05295,-0.0412,-0.04028
6.2975,-0.00626,-0.0267,-0.06866,0.10376,-0.03098,-0.03891,-0.02457,0.00214,0.00015,-0.01968,-0.0296,0.04379,-0.00656,-0.05219,0.00031,-0.04303
6.298,-0.00534,-0.0177,-0.04059,0.06348,-0.02777,-0.04044,0.01404,-0.00519,0.01144,-0.01923,-0.02945,-0.00595,-0.0032,-0.03876,0.04425,-0.04456
6.2985,-0.00244,-0.0145,-0.01022,0.03464,-0.03128,-0.04044,0.04486,-0.00534,0.02106,-0.01968,-0.0264,-0.00092,-0.02335,-0.02808,0.06363,-0.04349
6.299,0.00198,-0.01663,0.01221,0.02609,-0.03387,-0.04074,0.04715,-0.00336,0.02731,-0.01801,-0.02289,0.01404,-0.065,-0.02701,0.05005,-0.04135
6.2995,0.0061,-0.0209,0.02426,0.00168,-0.03693,-0.03922,0.01953,-0.00366,0.02655,-0.01465,-0.01694,0.01312,-0.09369,-0.02853,0.0235,-0.04059
6.3,0.00854,-0.0267,0.02579,-0.06516,-0.03983,-0.03677,-0.01587,-0.00412,0.02014,-0.0119,-0.0116,0.00687,-0.08667,-0.02441,0.01175,-0.04089
6.3005,0.00839,-0.03387,0.02411,-0.15411,-0.04089,-0.03387,-0.03204,-0.00229,0.01022,-0.0116,-0.00687,0.00732,-0.05783,-0.01923,0.01587,-0.04257
6.301,0.00656,-0.04135,0.02213,-0.22156,-0.03662,-0.03036,-0.02441,0.00015,0.00031,-0.01846,-0.00214,0.00748,-0.04669,-0.01816,0.01709,-0.04318
6.3015,0.00443,-0.04852,0.01785,-0.23087,-0.03098,-0.02899,-0.01663,0.00061,-0.00992,-0.03143,0.00107,0.00168,-0.06393,-0.0177,0.00961,-0.04211
6.302,0.00305,-0.05493,0.0087,-0.17181,-0.02869,-0.03052,-0.03098,-0.00244,-0.0174,-0.04929,0.00305,-0.00488,-0.08087,-0.0174,0.00992,-0.04013
6.3025,0.00137,-0.06226,-0.00351,-0.07538,-0.02716,-0.03418,-0.06149,-0.00504,-0.0206,-0.06439,0.00366,-0.00717,-0.06989,-0.01648,0.02335,-0.04059
6.303,-0.00214,-0.0676,-0.01724,0.00092,-0.02472,-0.0383,-0.08499,-0.00565,-0.02045,-0.07309,0.00458,-0.00488,-0.03769,-0.0145,0.03265,-0.04364
6.3035,-0.00854,-0.06729,-0.02747,0.02106,-0.02167,-0.04044,-0.08926,-0.00565,-0.0209,-0.07538,0.00549,0.00015,-0.01205,-0.01251,0.02365,-0.04578
6.304,-0.01587,-0.06256,-0.03159,-0.00534,-0.01877,-0.04089,-0.08255,-0.00778,-0.02243,-0.07401,0.00397,0.00687,-0.0058,-0.01205,0.00961,-0.04471
6.3045,-0.02151,-0.0592,-0.03143,-0.04227,-0.01755,-0.04013,-0.06927,-0.01007,-0.02335,-0.06836,-0.00076,0.01282,-0.01282,-0.01221,0.00214,-0.04242
6.305,-0.0238,-0.05783,-0.03204,-0.06241,-0.01862,-0.04013,-0.04501,-0.01053,-0.02563,-0.05737,-0.00473,0.0145,-0.02289,-0.01419,0.00244,-0.04135
6.3055,-0.02686,-0.05646,-0.0351,-0.06409,-0.02014,-0.04211,-0.01404,-0.00977,-0.02975,-0.04059,-0.00778,0.01129,-0.0325,-0.01724,0.00107,-0.04242
6.306,-0.02975,-0.05432,-0.03906,-0.05524,-0.02365,-0.04684,0.0029,-0.00916,-0.03906,-0.01923,-0.01099,0.00549,-0.0386,-0.01938,-0.00473,-0.04456
6.3065,-0.03098,-0.0531,-0.04013,-0.04456,-0.03082,-0.05051,0.00366,-0.00977,-0.05035,0.00259,-0.01419,0.00107,-0.03876,-0.01953,-0.01129,-0.04562
6.307,-0.0267,-0.05188,-0.03967,-0.03525,-0.04333,-0.05142,0.00412,-0.01129,-0.06073,0.01984,-0.01266,0.00061,-0.03204,-0.01892,-0.01526,-0.04562
6.3075,-0.01648,-0.047,-0.03967,-0.02899,-0.05783,-0.05081,0.01526,-0.0119,-0.0676,0.03052,-0.00671,0.0061,-0.01953,-0.01923,-0.01556,-0.04623
6.308,-0.00595,-0.04059,-0.0415,-0.02487,-0.06439,-0.05051,0.02319,-0.01053,-0.06821,0.03754,-0.0029,0.0174,-0.0058,-0.01907,-0.01236,-0.0473
6.3085,0.00092,-0.03662,-0.04547,-0.02121,-0.05524,-0.0499,0.01312,-0.00931,-0.0589,0.04425,-0.00671,0.02869,0.00214,-0.01846,-0.00397,-0.04959
6.309,0.00244,-0.03769,-0.047,-0.01678,-0.03967,-0.04944,-0.01038,-0.01007,-0.0412,0.05264,-0.0174,0.03464,-0.00046,-0.0177,0.01358,-0.04944
6.3095,0.00107,-0.03845,-0.047,-0.01251,-0.02884,-0.04898,-0.02777,-0.0119,-0.01999,0.05844,-0.02838,0.03326,-0.01389,-0.01923,0.03677,-0.04807
6.31,-0.00107,-0.03586,-0.04623,-0.00793,-0.02792,-0.0502,-0.0235,-0.01205,-0.00137,0.0563,-0.03677,0.02686,-0.03098,-0.02014,0.05356,-0.04501
6.3105,-0.00504,-0.03174,-0.04562,-0.00626,-0.03159,-0.04745,-0.00107,-0.01083,0.01221,0.04623,-0.04272,0.01587,-0.04272,-0.01724,0.05005,-0.04288
6.311,-0.01022,-0.02945,-0.04364,-0.01404,-0.03082,-0.04013,0.01999,-0.01068,0.01953,0.02777,-0.0386,-0.00015,-0.04425,-0.01099,0.02731,-0.04272
6.3115,-0.0148,-0.02884,-0.03784,-0.03815,-0.02502,-0.02823,0.02304,-0.01022,0.02029,0.0087,-0.01633,-0.02563,-0.0383,-0.00488,0.00351,-0.04364
6.312,-0.01541,-0.03128,-0.03143,-0.07263,-0.01724,-0.02197,0.01373,-0.01038,0.0145,-0.00671,0.0177,-0.05966,-0.03204,-0.00076,-0.00519,-0.04379
6.3125,-0.01297,-0.03387,-0.02701,-0.09567,-0.01205,-0.02625,0.00763,-0.00977,0.00198,-0.01862,0.03555,-0.08408,-0.02716,0.00336,-0.00122,-0.04227
6.313,-0.00809,-0.03555,-0.02655,-0.08408,-0.01099,-0.03983,0.01068,-0.01007,-0.01129,-0.02609,0.01953,-0.07111,-0.02075,0.00839,0.00595,-0.0415
6.3135,-0.00397,-0.0351,-0.02762,-0.03143,-0.01175,-0.05569,0.01266,-0.0116,-0.02396,-0.02609,-0.01114,-0.0174,-0.01083,0.01389,0.00946,-0.0415
6.314,-0.00198,-0.03067,-0.02838,0.05051,-0.01373,-0.07004,-0.00168,-0.01358,-0.03311,-0.0206,-0.01678,0.02533,-0.00046,0.0174,0.00549,-0.04288
6.3145,-0.00229,-0.02838,-0.02701,0.13519,-0.01801,-0.08163,-0.03143,-0.01297,-0.03967,-0.01617,0.01984,0.00854,0.00366,0.01572,-0.00702,-0.04242
6.315,-0.00229,-0.03082,-0.02747,0.177,-0.02777,-0.08514,-0.05844,-0.01129,-0.04196,-0.01495,0.0737,-0.05112,0.00336,0.00885,-0.03052,-0.04135
6.3155,0.00137,-0.03448,-0.02991,0.13336,-0.0412,-0.08133,-0.06592,-0.00778,-0.04013,-0.01617,0.09262,-0.09613,0.00275,-0.00504,-0.05814,-0.04105
6.316,0.00671,-0.03586,-0.03159,0.01648,-0.05402,-0.07355,-0.05127,-0.0032,-0.03296,-0.01633,0.05325,-0.09628,-0.00244,-0.02441,-0.07965,-0.04242
6.3165,0.00961,-0.03479,-0.03052,-0.09674,-0.05295,-0.06516,-0.02594,0.0032,-0.02304,-0.01633,-0.01755,-0.06607,-0.0264,-0.04715,-0.08591,-0.04395
6.317,0.0087,-0.03494,-0.02823,-0.14847,-0.0325,-0.05508,-0.00366,0.00916,-0.01709,-0.01602,-0.07568,-0.02655,-0.06744,-0.06439,-0.08087,-0.04379
6.3175,0.00565,-0.03723,-0.02838,-0.14694,-0.0029,-0.04562,0.0119,0.00946,-0.01648,-0.01465,-0.10101,0.01724,-0.09735,-0.06592,-0.07324,-0.04181
6.318,0.00427,-0.03952,-0.03189,-0.12054,0.02213,-0.03876,0.0322,0.00488,-0.02014,-0.01251,-0.10345,0.06882,-0.08926,-0.05524,-0.0589,-0.04074
6.3185,0.00504,-0.0383,-0.0354,-0.07706,0.03464,-0.03403,0.0647,-0.00153,-0.02289,-0.01465,-0.09827,0.1181,-0.05402,-0.04288,-0.01373,-0.04044
6.319,0.0061,-0.03311,-0.03799,-0.02335,0.02594,-0.03189,0.09705,-0.00687,-0.02228,-0.02182,-0.0885,0.1384,-0.02823,-0.03647,0.0705,-0.0412
6.3195,0.00565,-0.02762,-0.03815,0.02014,-0.01221,-0.03494,0.1091,-0.009,-0.01831,-0.02838,-0.07324,0.10864,-0.03174,-0.03387,0.15442,-0.04089
6.32,0.00397,-0.02686,-0.03754,0.04425,-0.06638,-0.04074,0.09521,-0.00717,-0.01328,-0.03433,-0.05676,0.04822,-0.05112,-0.03098,0.17776,-0.03937
6.3205,0.00214,-0.03174,-0.03677,0.05768,-0.10284,-0.04639,0.06317,-0.00534,-0.00748,-0.03784,-0.04868,0.00732,-0.056,-0.02747,0.1297,-0.0386
6.321,0.00031,-0.04013,-0.03616,0.06439,-0.10117,-0.04883,0.01358,-0.00443,-0.00259,-0.04059,-0.04868,0.00824,-0.03769,-0.02258,0.06058,-0.03891
6.3215,-0.00198,-0.04654,-0.03601,0.06226,-0.07248,-0.04791,-0.04913,-0.00366,-0.00107,-0.0412,-0.05081,0.02609,-0.01572,-0.01755,0.01495,-0.03952
6.322,-0.00305,-0.04929,-0.03693,0.04608,-0.04456,-0.04654,-0.0914,-0.00107,0.00015,-0.04059,-0.04761,0.02762,-0.01312,-0.01312,-0.00305,-0.04059
6.3225,-0.00381,-0.05035,-0.03815,0.0174,-0.03006,-0.04807,-0.07294,0.00168,0.00305,-0.03983,-0.04013,0.01053,-0.03174,-0.01175,-0.01266,-0.04089
6.323,-0.00565,-0.0502,-0.03754,-0.00092,-0.02945,-0.05234,-0.00778,0.00061,0.00458,-0.03723,-0.03143,-0.00778,-0.05219,-0.01526,-0.02121,-0.04059
6.3235,-0.01099,-0.04822,-0.04044,0.01373,-0.0383,-0.05554,0.04196,-0.00381,-0.00015,-0.03494,-0.02701,-0.02197,-0.0592,-0.02029,-0.02991,-0.04028
6.324,-0.01785,-0.04578,-0.04929,0.0589,-0.05005,-0.05615,0.04547,-0.00732,-0.00778,-0.03204,-0.02838,-0.03632,-0.05341,-0.02411,-0.03891,-0.03998
6.3245,-0.02319,-0.04974,-0.06012,0.10712,-0.06195,-0.05463,0.03067,-0.00763,-0.01205,-0.03174,-0.02869,-0.05081,-0.04517,-0.02411,-0.05325,-0.03906
6.325,-0.02594,-0.06149,-0.06561,0.13611,-0.07385,-0.05295,0.0177,-0.00534,-0.01266,-0.03265,-0.01892,-0.06088,-0.03571,-0.01968,-0.07065,-0.04059
6.3255,-0.0264,-0.07751,-0.06577,0.13855,-0.08087,-0.05066,-0.0209,-0.00259,-0.01434,-0.03143,0.00519,-0.06256,-0.02319,-0.01587,-0.06805,-0.04288
6.326,-0.02792,-0.09003,-0.06409,0.10056,-0.07645,-0.0473,-0.1091,-0.00107,-0.01907,-0.02762,0.03403,-0.0528,-0.01236,-0.01663,-0.01678,-0.04471
6.3265,-0.03174,-0.09552,-0.06226,0.00931,-0.06332,-0.04333,-0.19684,0.00061,-0.0238,-0.02319,0.05219,-0.02808,-0.0145,-0.01892,0.07187,-0.04486
6.327,-0.0351,-0.09552,-0.05661,-0.11642,-0.05234,-0.04196,-0.19409,0.00153,-0.02609,-0.01862,0.05386,0.01205,-0.02945,-0.01907,0.1355,-0.04242
6.3275,-0.03189,-0.09216,-0.04623,-0.21622,-0.05051,-0.04211,-0.09232,0.00061,-0.02579,-0.01617,0.04608,0.05814,-0.04532,-0.0174,0.1236,-0.04349
6.328,-0.02289,-0.08484,-0.03571,-0.23834,-0.0531,-0.04257,0.00519,0.0,-0.02213,-0.0148,0.03464,0.0882,-0.04868,-0.01633,0.05539,-0.04745
6.3285,-0.01282,-0.07416,-0.02853,-0.1889,-0.04791,-0.04303,0.01846,-0.00031,-0.01755,-0.01221,0.02579,0.08636,-0.04395,-0.01587,-0.00854,-0.05035
6.329,-0.00793,-0.06149,-0.02365,-0.11826,-0.03571,-0.04608,-0.01923,0.0,-0.01419,-0.01205,0.02014,0.05432,-0.03754,-0.01556,-0.03784,-0.04913
6.3295,-0.00687,-0.04898,-0.0177,-0.07233,-0.02396,-0.04883,-0.03647,-0.00092,-0.0145,-0.01373,0.01495,0.01984,-0.02823,-0.01572,-0.04379,-0.0441
6.33,-0.0058,-0.04028,-0.01053,-0.06149,-0.01648,-0.05035,-0.02411,-0.00214,-0.01694,-0.01999,0.00381,0.009,-0.01434,-0.01862,-0.04349,-0.0412
6.3305,-0.00504,-0.03586,-0.00412,-0.05768,-0.01114,-0.05081,-0.01526,-0.00366,-0.01755,-0.02884,-0.01678,0.01724,-0.00504,-0.02075,-0.03693,-0.0412
6.331,-0.00702,-0.02548,-0.00015,-0.01266,-0.00854,-0.05157,-0.0238,-0.00366,-0.0116,-0.03418,-0.04135,0.02441,-0.0235,-0.01862,-0.0238,-0.04288
6.3315,-0.00992,-0.00854,-0.00092,0.08728,-0.00854,-0.05203,-0.0354,-0.00305,-0.00229,-0.03387,-0.06104,0.02151,-0.07797,-0.01328,-0.009,-0.04333
6.332,-0.00916,0.009,-0.00671,0.18448,-0.009,-0.05096,-0.04135,-0.00153,0.00717,-0.03098,-0.07141,0.01541,-0.12833,-0.01083,0.01083,-0.0415
6.3325,-0.0032,0.01846,-0.01419,0.19791,-0.0061,-0.04944,-0.04562,-0.00122,0.01328,-0.02808,-0.07507,0.01083,-0.11581,-0.01266,0.04181,-0.03845
6.333,0.00443,0.01892,-0.02075,0.12039,0.00183,-0.0499,-0.05203,-0.00076,0.01831,-0.02838,-0.06897,0.0032,-0.03998,-0.01419,0.07706,-0.03693
6.3335,0.00916,0.01862,-0.02335,0.02991,0.00793,-0.05173,-0.05569,-0.00015,0.0206,-0.02869,-0.05447,-0.00641,0.04074,-0.01236,0.09979,-0.03937
6.334,0.00931,0.01709,-0.02319,-0.00946,0.0032,-0.05188,-0.0528,0.00061,0.01526,-0.02991,-0.03479,-0.01205,0.0795,-0.01099,0.09918,-0.04166
6.3345,0.00595,0.01038,-0.02319,-0.00626,-0.00931,-0.05142,-0.04562,0.00336,0.00244,-0.03342,-0.01511,-0.01099,0.07965,-0.01282,0.0853,-0.04303
6.335,0.00031,-0.00198,-0.02213,-0.00519,-0.01526,-0.05356,-0.04425,0.00565,-0.01358,-0.04257,0.00107,-0.00854,0.0589,-0.0174,0.0592,-0.04211
6.3355,-0.00488,-0.01129,-0.01801,-0.0209,-0.01297,-0.05524,-0.05051,0.00565,-0.02762,-0.05707,0.01038,-0.00931,0.02243,-0.0209,0.01999,-0.03922
6.336,-0.0087,-0.01358,-0.01266,-0.04761,-0.01129,-0.05417,-0.05905,0.0029,-0.03723,-0.0737,0.0119,-0.01389,-0.01602,-0.02258,-0.02441,-0.0383
6.3365,-0.01022,-0.01251,-0.0119,-0.09018,-0.02075,-0.05341,-0.06516,-0.00107,-0.04044,-0.08194,0.00717,-0.02365,-0.03769,-0.02167,-0.05493,-0.03937
6.337,-0.00824,-0.01343,-0.01526,-0.14496,-0.04074,-0.05295,-0.06775,-0.00275,-0.03571,-0.07782,0.00351,-0.0354,-0.05173,-0.01801,-0.05966,-0.04089
6.3375,-0.00519,-0.01617,-0.02045,-0.17929,-0.06134,-0.05219,-0.06653,-0.00198,-0.02731,-0.05981,0.00443,-0.03555,-0.08499,-0.01312,-0.0412,-0.04379
6.338,-0.00305,-0.02075,-0.02487,-0.16281,-0.07492,-0.04959,-0.06226,0.00015,-0.02151,-0.0354,0.00412,-0.01312,-0.13031,-0.01083,-0.01633,-0.04684
6.3385,-0.00229,-0.02747,-0.03021,-0.10315,-0.0766,-0.04684,-0.05951,0.00168,-0.02045,-0.01404,-0.00122,0.01801,-0.13702,-0.01099,0.00473,-0.05066
6.339,-0.00168,-0.0351,-0.03662,-0.03159,-0.06561,-0.04578,-0.05722,0.00336,-0.02121,0.00168,-0.01266,0.02975,-0.08545,-0.00992,0.01465,-0.0528
6.3395,-0.00015,-0.04166,-0.04089,0.03067,-0.04639,-0.04303,-0.03357,0.00412,-0.02197,0.01129,-0.02411,0.01785,-0.01663,-0.00702,0.01511,-0.05112
6.34,0.00259,-0.04761,-0.03937,0.0705,-0.02823,-0.03967,0.03082,0.00458,-0.02426,0.0174,-0.0322,0.00732,0.02045,-0.00534,0.00961,-0.04578
6.3405,0.00427,-0.05264,-0.03754,0.07263,-0.01709,-0.03906,0.10895,0.00443,-0.03128,0.01663,-0.03586,0.01633,0.02304,-0.0058,0.00458,-0.04196
6.341,0.00565,-0.05737,-0.03891,0.04227,-0.01038,-0.04074,0.13977,0.00244,-0.04135,0.00961,-0.03494,0.0351,0.00824,-0.00778,0.00229,-0.04105
6.3415,0.00565,-0.06165,-0.04379,0.01541,-0.00656,-0.04288,0.09918,-0.00061,-0.05127,0.00076,-0.02655,0.04486,-0.02289,-0.01083,0.00198,-0.04059
6.342,0.00656,-0.06683,-0.04883,0.02289,-0.0032,-0.04211,0.03235,-0.00549,-0.0563,-0.00565,-0.01694,0.03983,-0.06729,-0.01465,0.00381,-0.04089
6.3425,0.00916,-0.07202,-0.05417,0.05585,-0.00397,-0.0415,-0.0029,-0.009,-0.05112,-0.00793,-0.00916,0.02457,-0.09995,-0.01999,0.00641,-0.03998
6.343,0.01266,-0.0766,-0.06088,0.07828,-0.00992,-0.04211,-0.00107,-0.00885,-0.03937,-0.00778,-0.00031,0.00214,-0.09598,-0.0238,0.00946,-0.04013
6.3435,0.01755,-0.07965,-0.06866,0.07172,-0.02121,-0.04303,0.00732,-0.0058,-0.02731,-0.01038,0.01801,-0.02411,-0.0676,-0.02731,0.01266,-0.04074
6.344,0.02274,-0.07919,-0.07401,0.04196,-0.03708,-0.04242,0.00748,-0.00305,-0.02213,-0.01968,0.0618,-0.05096,-0.04242,-0.02823,0.01129,-0.0415
6.3445,0.02518,-0.07477,-0.06943,0.00763,-0.0563,-0.03937,0.0058,-0.0029,-0.02258,-0.03464,0.1265,-0.0737,-0.02655,-0.02701,0.00656,-0.04074
6.345,0.02213,-0.06683,-0.05737,-0.01968,-0.06683,-0.03708,0.00763,-0.00381,-0.02258,-0.04532,0.17151,-0.09232,-0.00092,-0.02808,0.00046,-0.03967
6.3455,0.01465,-0.06119,-0.04608,-0.03372,-0.06027,-0.03616,0.0087,-0.00549,-0.01831,-0.04333,0.15213,-0.10178,0.04349,-0.0351,-0.00839,-0.03906
6.346,0.00519,-0.06165,-0.03922,-0.03662,-0.04303,-0.0383,0.00519,-0.00885,-0.01465,-0.02869,0.08072,-0.09506,0.09201,-0.04532,-0.01678,-0.03952
6.3465,-0.00397,-0.06653,-0.03677,-0.03784,-0.03067,-0.04318,-0.00092,-0.01282,-0.01648,-0.01297,0.01434,-0.07507,0.10742,-0.047,-0.02151,-0.04028
6.347,-0.01114,-0.06821,-0.03662,-0.04166,-0.0296,-0.04883,-0.00793,-0.01556,-0.02304,-0.00214,-0.01083,-0.05402,0.07187,-0.03677,-0.02167,-0.04044
6.3475,-0.01587,-0.06516,-0.03845,-0.03906,-0.03006,-0.05127,-0.01389,-0.01617,-0.03235,0.00107,-0.01587,-0.03036,-0.00153,-0.02274,-0.01877,-0.0412
6.348,-0.01907,-0.0618,-0.04196,-0.02029,-0.02655,-0.0499,-0.02029,-0.01419,-0.0386,-0.00565,-0.03494,0.0145,-0.08163,-0.01633,-0.01694,-0.04257
6.3485,-0.02151,-0.05905,-0.04333,0.00671,-0.02075,-0.04822,-0.02548,-0.01099,-0.03754,-0.02151,-0.0705,0.07843,-0.13977,-0.01785,-0.01587,-0.04211
6.349,-0.02182,-0.05264,-0.04257,0.02411,-0.01801,-0.04868,-0.02701,-0.00931,-0.03189,-0.03723,-0.09995,0.1239,-0.15945,-0.01938,-0.01343,-0.03891
6.3495,-0.01892,-0.04242,-0.03876,0.02426,-0.01511,-0.04669,-0.02502,-0.00732,-0.02441,-0.0415,-0.11078,0.12329,-0.13962,-0.01801,-0.00839,-0.03448
6.35,-0.0148,-0.03281,-0.03433,0.01312,-0.01129,-0.04318,-0.02151,-0.00534,-0.01648,-0.03189,-0.11169,0.09399,-0.09735,-0.01572,-0.00351,-0.03113
6.3505,-0.01114,-0.03174,-0.03326,0.0,-0.00732,-0.04074,-0.01846,-0.00153,-0.00641,-0.01572,-0.11505,0.06317,-0.05844,-0.01358,-0.00153,-0.03082
6.351,-0.00916,-0.03586,-0.03311,-0.01373,-0.0029,-0.0415,-0.01221,0.00244,0.00732,-0.00244,-0.11856,0.03952,-0.03708,-0.01068,-0.00244,-0.03342
6.3515,-0.00656,-0.03799,-0.0354,-0.03052,0.00092,-0.04486,-0.00671,0.00488,0.01923,0.00916,-0.112,0.02213,-0.03235,-0.00793,-0.00137,-0.03708
6.352,-0.00473,-0.03632,-0.0351,-0.04379,0.00351,-0.04654,-0.00656,0.00351,0.02609,0.02014,-0.0914,0.0145,-0.03464,-0.00671,0.01053,-0.03677
6.3525,-0.00519,-0.03387,-0.03342,-0.04807,-0.00397,-0.04745,-0.01221,0.00015,0.02686,0.03052,-0.06897,0.02289,-0.03281,-0.00748,0.03082,-0.03632
6.353,-0.00732,-0.0322,-0.03174,-0.04318,-0.0209,-0.04837,-0.01266,-0.00137,0.02441,0.03448,-0.0531,0.03937,-0.02121,-0.00732,0.04349,-0.03754
6.3535,-0.00992,-0.02991,-0.0293,-0.03296,-0.03845,-0.04898,-0.00046,-0.00244,0.02243,0.03387,-0.04684,0.04898,-0.00015,-0.00656,0.0383,-0.04211
6.354,-0.01068,-0.0267,-0.02838,-0.02029,-0.04517,-0.05035,0.01663,-0.00259,0.02029,0.03235,-0.04166,0.03998,0.01617,-0.00595,0.02106,-0.04639
6.3545,-0.00946,-0.02716,-0.02625,-0.00732,-0.04272,-0.04929,0.02899,-0.0029,0.01709,0.03189,-0.03143,0.01968,0.01007,-0.00778,0.01297,-0.04898
6.355,-0.00626,-0.03098,-0.02502,0.00793,-0.03876,-0.04623,0.03311,-0.00259,0.01541,0.03052,-0.02045,0.0029,-0.03281,-0.01205,0.0206,-0.04807
6.3555,-0.00381,-0.03601,-0.02441,0.01846,-0.03708,-0.04257,0.02548,-0.00244,0.01236,0.02365,-0.01221,-0.00473,-0.09521,-0.01801,0.03616,-0.04623
6.356,-0.00229,-0.03876,-0.02441,0.00778,-0.03357,-0.04257,-0.009,-0.00259,0.00656,0.01221,-0.009,-0.01556,-0.13062,-0.02731,0.04227,-0.0444
6.3565,-0.00183,-0.04105,-0.02274,-0.03204,-0.02136,-0.04486,-0.07294,-0.00076,-0.00137,-0.00031,-0.00626,-0.04074,-0.11276,-0.0354,0.02975,-0.04593
6.357,-0.00153,-0.04578,-0.02045,-0.08698,-0.00076,-0.04578,-0.13535,0.00153,-0.00595,-0.0116,-0.00244,-0.0766,-0.06866,-0.03723,0.00687,-0.04974
6.3575,-0.00275,-0.05112,-0.01801,-0.13596,0.02228,-0.04456,-0.14603,0.00183,-0.00702,-0.0206,0.0,-0.09705,-0.03555,-0.03143,-0.00824,-0.05173
6.358,-0.00443,-0.05402,-0.01831,-0.16953,0.04761,-0.04364,-0.09705,-0.00168,-0.01053,-0.02594,0.00168,-0.07813,-0.01526,-0.02365,-0.00916,-0.05051
6.3585,-0.00717,-0.05463,-0.02167,-0.18158,0.07156,-0.0441,-0.0351,-0.0061,-0.02304,-0.02899,0.0032,-0.02838,0.00824,-0.01907,-0.00351,-0.04684
6.359,-0.00946,-0.05371,-0.02716,-0.15167,0.08667,-0.04669,-0.00412,-0.00763,-0.04211,-0.03235,0.00366,0.01343,0.03204,-0.01892,-0.00046,-0.04379
6.3595,-0.01144,-0.05371,-0.03357,-0.08087,0.07782,-0.04807,-0.00198,-0.0058,-0.05234,-0.03586,0.00351,0.02014,0.04349,-0.01953,0.00366,-0.03906
6.36,-0.01297,-0.0531,-0.03616,0.00534,0.02716,-0.04807,0.00259,-0.00244,-0.04715,-0.03601,0.00229,0.00244,0.03922,-0.01862,0.01282,-0.03525
6.3605,-0.0148,-0.05219,-0.03662,0.08148,-0.06149,-0.04837,0.02792,-0.00031,-0.03403,-0.03204,0.00122,-0.01251,0.02518,-0.01678,0.02411,-0.03296
6.361,-0.01694,-0.0531,-0.0351,0.14771,-0.14786,-0.04944,0.06363,0.00031,-0.02655,-0.0264,0.00076,-0.00809,0.00046,-0.01617,0.03113,-0.03204
6.3615,-0.01801,-0.05692,-0.0351,0.20081,-0.18234,-0.05051,0.08423,-0.00061,-0.03113,-0.02457,-0.00198,0.01556,-0.03647,-0.01907,0.03143,-0.03433
6.362,-0.01816,-0.0589,-0.03525,0.22629,-0.15869,-0.0499,0.06989,-0.00443,-0.04242,-0.02945,-0.01007,0.04807,-0.06622,-0.02411,0.02838,-0.04059
6.3625,-0.02136,-0.05493,-0.03326,0.21576,-0.11841,-0.05005,0.02838,-0.00839,-0.04959,-0.03815,-0.02136,0.0647,-0.05981,-0.02625,0.02258,-0.04852
6.363,-0.02853,-0.04562,-0.0296,0.1796,-0.09308,-0.05112,-0.01526,-0.0119,-0.04562,-0.04288,-0.02914,0.04044,-0.02411,-0.02396,0.00992,-0.0531
6.3635,-0.03754,-0.03738,-0.02701,0.12878,-0.0853,-0.05295,-0.03906,-0.01175,-0.0325,-0.04333,-0.02777,-0.01007,-0.00214,-0.01938,-0.00671,-0.05264
6.364,-0.04196,-0.03326,-0.03067,0.06821,-0.08881,-0.05417,-0.03784,-0.00931,-0.01984,-0.03998,-0.01678,-0.05035,-0.0119,-0.01633,-0.02136,-0.04944
6.3645,-0.04013,-0.03342,-0.03708,0.01282,-0.09918,-0.05325,-0.02167,-0.00793,-0.01465,-0.03632,-0.00305,-0.05371,-0.02502,-0.01602,-0.02548,-0.04898
6.365,-0.03403,-0.03616,-0.04364,-0.0238,-0.10803,-0.05051,-0.00854,-0.00839,-0.02045,-0.03098,0.00992,-0.02502,-0.02518,-0.01617,-0.02151,-0.05142
6.3655,-0.02884,-0.0415,-0.04822,-0.06271,-0.09964,-0.04913,-0.00916,-0.00885,-0.03723,-0.02533,0.02045,0.00885,-0.04028,-0.01602,-0.01633,-0.0531
6.366,-0.02304,-0.04974,-0.05127,-0.14099,-0.07217,-0.04944,-0.01831,-0.00824,-0.05676,-0.02243,0.02548,0.02472,-0.09232,-0.01602,-0.01358,-0.05157
6.3665,-0.01419,-0.06195,-0.05356,-0.25375,-0.04364,-0.05234,-0.02396,-0.0058,-0.06561,-0.02716,0.02289,0.01755,-0.14496,-0.01648,-0.01556,-0.04807
6.367,-0.00046,-0.07675,-0.05753,-0.33951,-0.0296,-0.05295,-0.02289,-0.00122,-0.05829,-0.03601,0.01694,0.00687,-0.1387,-0.01938,-0.01862,-0.04608
6.3675,0.01541,-0.08606,-0.06378,-0.35217,-0.0238,-0.05081,-0.01923,0.00366,-0.04013,-0.04028,0.01495,0.00961,-0.07614,-0.0235,-0.01465,-0.04532
6.368,0.03265,-0.08438,-0.06866,-0.29816,-0.01389,-0.04745,-0.01694,0.0061,-0.02396,-0.03906,0.01678,0.01755,-0.01511,-0.02594,0.00687,-0.04547
6.3685,0.04913,-0.07263,-0.07111,-0.20279,-0.00122,-0.0444,-0.01617,0.00656,-0.01999,-0.03479,0.01602,0.00748,0.00793,-0.02609,0.03616,-0.04364
6.369,0.05844,-0.05585,-0.07034,-0.07935,0.00198,-0.04547,-0.01572,0.00839,-0.02884,-0.03525,0.00854,-0.02258,0.0116,-0.02594,0.05325,-0.04105
6.3695,0.05371,-0.03769,-0.0679,0.05295,-0.01099,-0.04822,-0.01312,0.0116,-0.03632,-0.0386,-0.00656,-0.04578,0.01678,-0.02655,0.0441,-0.03952
6.37,0.0351,-0.0177,-0.0589,0.15656,-0.0383,-0.05005,-0.00916,0.01373,-0.02533,-0.03723,-0.02289,-0.04028,0.00595,-0.02655,0.02304,-0.03906
6.3705,0.01419,0.00244,-0.04257,0.20126,-0.06805,-0.05127,-0.00549,0.0145,0.00366,-0.02747,-0.03433,-0.01831,-0.03052,-0.02426,0.01114,-0.04013
6.371,0.00229,0.01785,-0.02197,0.18631,-0.08591,-0.05157,-0.0032,0.01373,0.03952,-0.01266,-0.03998,-0.01099,-0.05936,-0.02029,0.01038,-0.0415
6.3715,-0.00107,0.02411,-0.00702,0.13565,-0.07843,-0.05295,-0.0029,0.01251,0.07156,0.00229,-0.04639,-0.02533,-0.05188,-0.01587,0.00992,-0.04166
6.372,-0.00198,0.02258,-0.00168,0.07416,-0.05386,-0.05341,-0.00854,0.01114,0.0946,0.01022,-0.05356,-0.03662,-0.02548,-0.01312,0.00839,-0.04059
6.3725,-0.0032,0.01831,-0.00198,0.01816,-0.03235,-0.05234,-0.0264,0.00946,0.10452,0.01083,-0.05997,-0.0296,-0.01831,-0.00931,0.00763,-0.0412
6.373,-0.00381,0.0145,-0.00336,-0.01984,-0.02426,-0.04883,-0.06348,0.00671,0.10254,0.00427,-0.05859,-0.0148,-0.0325,-0.00275,0.00916,-0.04303
6.3735,-0.0032,0.01038,-0.00336,-0.0441,-0.01999,-0.04654,-0.1091,0.00565,0.08896,-0.00809,-0.04883,-0.00229,-0.0383,0.0029,0.00992,-0.04288
6.374,-0.0029,0.0029,-0.00412,-0.06989,-0.01205,-0.04654,-0.13687,0.00595,0.06668,-0.01816,-0.03281,0.00946,-0.0267,0.0058,0.00824,-0.04166
6.3745,-0.00275,-0.01022,-0.00732,-0.09735,-0.00122,-0.04761,-0.12894,0.00839,0.03601,-0.02594,-0.00885,0.01328,-0.01587,0.00153,0.00748,-0.03937
6.375,-0.00137,-0.02487,-0.01419,-0.09613,0.00137,-0.04883,-0.0972,0.00992,-0.0029,-0.03082,0.02197,-0.01434,-0.01816,-0.00702,0.00763,-0.03723
6.3755,-0.00015,-0.03586,-0.01968,-0.03586,-0.00519,-0.04913,-0.06561,0.00916,-0.04745,-0.03311,0.04944,-0.08133,-0.02045,-0.01755,0.00778,-0.03525
6.376,-0.00153,-0.04272,-0.0235,0.0589,-0.01373,-0.04959,-0.04227,0.00748,-0.08636,-0.03098,0.05875,-0.13519,-0.01083,-0.02731,0.00854,-0.03494
6.3765,-0.00641,-0.04776,-0.02762,0.12558,-0.01862,-0.05051,-0.01755,0.00641,-0.10651,-0.02945,0.04684,-0.09506,0.00427,-0.03372,0.0087,-0.03494
6.377,-0.01114,-0.05508,-0.03403,0.13306,-0.01923,-0.04974,0.01053,0.00671,-0.09918,-0.03067,0.02228,0.04715,0.0058,-0.03876,0.00916,-0.03571
6.3775,-0.01511,-0.06241,-0.0412,0.09567,-0.01999,-0.04837,0.03708,0.00748,-0.07492,-0.03036,-0.00549,0.17365,-0.01846,-0.03891,0.0087,-0.03586
6.378,-0.01663,-0.06577,-0.04501,0.03677,-0.02258,-0.04639,0.05966,0.00717,-0.0531,-0.02594,-0.03174,0.16418,-0.05646,-0.03265,0.00641,-0.03693
6.3785,-0.01282,-0.06287,-0.04196,-0.03494,-0.0264,-0.04456,0.07721,0.00626,-0.04364,-0.0177,-0.05341,0.0383,-0.07477,-0.02258,0.00702,-0.03998
6.379,-0.00687,-0.0563,-0.03723,-0.10666,-0.02884,-0.04501,0.08804,0.00565,-0.04013,-0.01068,-0.065,-0.07843,-0.05585,-0.01541,0.00946,-0.04288
6.3795,-0.00259,-0.05188,-0.03586,-0.15793,-0.02991,-0.04364,0.08942,0.00519,-0.03098,-0.00549,-0.065,-0.11032,-0.01801,-0.01404,0.0116,-0.0444
6.38,-0.00137,-0.05066,-0.03738,-0.16342,-0.02808,-0.0415,0.07843,0.00244,-0.01862,-0.00458,-0.05676,-0.08682,0.00061,-0.01587,0.00793,-0.04333
6.3805,-0.00198,-0.0502,-0.03876,-0.10574,-0.0238,-0.04028,0.05615,-0.00046,-0.00946,-0.00641,-0.0473,-0.06271,-0.01343,-0.01877,-0.00107,-0.04227
6.381,-0.00351,-0.04807,-0.03708,0.00015,-0.0174,-0.03922,0.03082,-0.00229,-0.0087,-0.00778,-0.04196,-0.04776,-0.04684,-0.01907,-0.01114,-0.03967
6.3815,-0.00519,-0.04242,-0.0351,0.09583,-0.01022,-0.03891,0.01328,-0.00092,-0.01114,-0.0058,-0.04196,-0.02899,-0.07538,-0.01694,-0.01617,-0.03738
6.382,-0.00748,-0.03204,-0.03464,0.11826,-0.00183,-0.03937,0.00671,0.00137,-0.01236,0.00031,-0.04211,-0.00351,-0.08209,-0.01404,-0.01434,-0.03799
6.3825,-0.009,-0.01907,-0.03418,0.06714,0.00229,-0.04044,0.00259,0.00092,-0.01266,0.00504,-0.03571,0.02579,-0.06744,-0.01236,-0.00885,-0.03983
6.383,-0.00809,-0.00748,-0.03372,0.00381,0.00137,-0.04211,-0.00763,-0.0029,-0.0119,0.00763,-0.01877,0.05249,-0.04608,-0.01297,-0.00534,-0.03891
6.3835,-0.00534,-0.00183,-0.03235,-0.02319,-0.00259,-0.0412,-0.02609,-0.0087,-0.01022,0.00671,-0.00046,0.06607,-0.0325,-0.01556,-0.00381,-0.03784
6.384,-0.00336,-0.00198,-0.03113,-0.02289,-0.00839,-0.03937,-0.0473,-0.01312,-0.00702,0.00412,0.00656,0.06363,-0.0267,-0.01831,-0.00259,-0.03784
6.3845,-0.00198,-0.00473,-0.03159,-0.02991,-0.01511,-0.03922,-0.06485,-0.01587,-0.00702,-0.00153,0.00259,0.06332,-0.02197,-0.02029,0.00198,-0.03815
6.385,-0.0029,-0.00946,-0.03464,-0.04929,-0.02594,-0.04074,-0.07675,-0.01678,-0.01389,-0.00916,-0.00473,0.07782,-0.01984,-0.02014,0.009,-0.03799
6.3855,-0.00443,-0.01846,-0.03983,-0.05539,-0.04196,-0.04242,-0.08682,-0.01587,-0.02365,-0.01648,-0.00931,0.09811,-0.02121,-0.02014,0.00687,-0.03815
6.386,-0.0061,-0.03189,-0.04303,-0.02899,-0.05508,-0.0441,-0.09293,-0.01282,-0.03082,-0.02014,-0.01053,0.10208,-0.02533,-0.01984,-0.00641,-0.03998
6.3865,-0.00732,-0.04303,-0.04456,0.01785,-0.05859,-0.04501,-0.08286,-0.00931,-0.03296,-0.0235,-0.00946,0.07935,-0.03052,-0.02045,-0.02045,-0.04105
6.387,-0.00916,-0.04974,-0.0444,0.06073,-0.05203,-0.04761,-0.04318,-0.00732,-0.0325,-0.02716,-0.00809,0.03479,-0.03174,-0.01984,-0.0206,-0.04166
6.3875,-0.00931,-0.05356,-0.04486,0.08698,-0.04318,-0.05035,0.0235,-0.00732,-0.03128,-0.03403,-0.0061,-0.0148,-0.02808,-0.01724,-0.00214,-0.04105
6.388,-0.00732,-0.05676,-0.04547,0.09079,-0.03738,-0.05081,0.08484,-0.00778,-0.02838,-0.04181,-0.00549,-0.04349,-0.0206,-0.01266,0.03235,-0.04059
6.3885,-0.00641,-0.05966,-0.04623,0.05844,-0.0354,-0.05112,0.1062,-0.009,-0.02289,-0.04517,-0.00565,-0.02792,-0.01816,-0.00946,0.06485,-0.04181
6.389,-0.00885,-0.05875,-0.047,-0.02396,-0.03448,-0.05203,0.08377,-0.01053,-0.01663,-0.04211,-0.00519,0.02594,-0.02548,-0.00702,0.07004,-0.04288
6.3895,-0.01434,-0.05676,-0.04547,-0.14389,-0.03357,-0.05157,0.04532,-0.00961,-0.01129,-0.03479,0.00153,0.06729,-0.02609,-0.00687,0.04517,-0.04211
6.39,-0.01877,-0.05707,-0.03906,-0.26382,-0.03387,-0.05005,0.01892,-0.00443,-0.0061,-0.02914,0.01846,0.05432,-0.00153,-0.00641,0.01694,-0.03967
6.3905,-0.01999,-0.05798,-0.02869,-0.33127,-0.03174,-0.04852,0.00427,0.00092,-0.00244,-0.02533,0.03723,0.00809,0.03815,-0.00824,0.00977,-0.03876
6.391,-0.01923,-0.05783,-0.01907,-0.30106,-0.02853,-0.04669,-0.0087,0.00305,-0.00214,-0.02411,0.03799,-0.01465,0.06332,-0.01846,0.01999,-0.03922
6.3915,-0.01846,-0.05539,-0.01343,-0.17441,-0.02335,-0.04562,-0.02289,0.00076,-0.00626,-0.02274,0.01038,-0.00183,0.0473,-0.03174,0.02914,-0.04105
6.392,-0.01755,-0.05112,-0.01511,-0.02014,-0.01724,-0.04654,-0.03326,-0.00412,-0.01251,-0.02701,-0.02792,0.01678,-0.01816,-0.03952,0.03448,-0.04211
6.3925,-0.01587,-0.0444,-0.02213,0.0856,-0.01266,-0.04776,-0.03983,-0.01007,-0.01694,-0.03464,-0.05173,0.02213,-0.10818,-0.03525,0.04059,-0.04181
6.393,-0.01328,-0.03845,-0.03021,0.12741,-0.01007,-0.04913,-0.04822,-0.01328,-0.01785,-0.04227,-0.05554,0.02228,-0.16632,-0.02579,0.04471,-0.04318
6.3935,-0.01236,-0.03448,-0.0354,0.13748,-0.00946,-0.04807,-0.05798,-0.01434,-0.01663,-0.04456,-0.04807,0.02472,-0.14816,-0.02106,0.03571,-0.0444
6.394,-0.01221,-0.0351,-0.0354,0.13153,-0.01083,-0.04456,-0.06622,-0.0148,-0.0174,-0.04333,-0.03967,0.01816,-0.0795,-0.02182,0.01373,-0.04669
6.3945,-0.01175,-0.04028,-0.02899,0.1033,-0.01648,-0.0415,-0.07095,-0.01694,-0.0206,-0.03937,-0.0322,-0.00305,-0.0267,-0.02487,-0.00427,-0.04837
6.395,-0.01144,-0.04547,-0.02045,0.06287,-0.02899,-0.04059,-0.07202,-0.02121,-0.02365,-0.03647,-0.02457,-0.0235,-0.01678,-0.03036,-0.00885,-0.04715
6.3955,-0.01022,-0.04944,-0.01602,0.03311,-0.04623,-0.04181,-0.06973,-0.0264,-0.02548,-0.0354,-0.01785,-0.02213,-0.02274,-0.0354,-0.00519,-0.04578
6.396,-0.009,-0.05219,-0.02197,0.01328,-0.05844,-0.04318,-0.06424,-0.0293,-0.0267,-0.0322,-0.01358,-0.0029,-0.01755,-0.03647,-0.00305,-0.04623
6.3965,-0.00931,-0.0563,-0.03555,-0.01862,-0.05096,-0.04288,-0.05417,-0.02869,-0.02869,-0.03098,-0.01251,0.00885,-0.00381,-0.03006,-0.00427,-0.04761
6.397,-0.01022,-0.06027,-0.04684,-0.0705,-0.02365,-0.04272,-0.03586,-0.02655,-0.02899,-0.02762,-0.0148,0.00198,0.00443,-0.02197,-0.00305,-0.04807
6.3975,-0.00961,-0.06241,-0.04959,-0.12253,0.00916,-0.0412,-0.01038,-0.0238,-0.02487,-0.02625,-0.01923,-0.01556,0.00076,-0.0177,0.00748,-0.04776
6.398,-0.00946,-0.06271,-0.04669,-0.15167,0.03143,-0.0412,0.01785,-0.01999,-0.01648,-0.02609,-0.02213,-0.03357,-0.01175,-0.01694,0.02365,-0.04715
6.3985,-0.01038,-0.0592,-0.03937,-0.14954,0.04013,-0.04181,0.0322,-0.01678,-0.00824,-0.02594,-0.02243,-0.05066,-0.03387,-0.01709,0.03311,-0.04654
6.399,-0.01175,-0.05554,-0.0293,-0.10345,0.04471,-0.04303,0.01633,-0.01404,-0.00504,-0.02106,-0.0174,-0.06561,-0.06119,-0.01831,0.02838,-0.04395
6.3995,-0.01022,-0.05264,-0.0206,0.0032,0.04822,-0.0444,-0.01968,-0.01282,-0.00351,-0.01251,-0.0116,-0.07599,-0.08453,-0.01877,0.01511,-0.04089
6.4,-0.00702,-0.0499,-0.01526,0.14648,0.04074,-0.04715,-0.0473,-0.01144,-0.00305,-0.00198,-0.00732,-0.08392,-0.08774,-0.01923,0.00763,-0.0386
6.4005,-0.00198,-0.047,-0.0177,0.24521,0.00473,-0.05005,-0.05157,-0.00931,-0.00351,0.00351,-0.00793,-0.09506,-0.06714,-0.01999,0.0058,-0.0383
6.401,0.0032,-0.047,-0.0238,0.24414,-0.06149,-0.05386,-0.03891,-0.00793,-0.00824,0.00122,-0.00763,-0.11292,-0.04593,-0.02213,0.00626,-0.04074
6.4015,0.0087,-0.04913,-0.03616,0.17426,-0.13367,-0.05417,-0.01999,-0.00854,-0.01404,-0.00595,-0.00381,-0.1358,-0.04196,-0.02533,0.0032,-0.04318
6.402,0.0116,-0.04959,-0.07019,0.10437,-0.17334,-0.05264,0.00549,-0.00977,-0.01801,-0.01297,0.00336,-0.15503,-0.04852,-0.02762,-0.00458,-0.04333
6.4025,0.00961,-0.04623,-0.13733,0.0531,-0.1564,-0.04807,0.03662,-0.01038,-0.01816,-0.01678,0.00519,-0.15533,-0.04837,-0.03128,-0.01602,-0.0415
6.403,0.00458,-0.04181,-0.22125,-0.01694,-0.10773,-0.04425,0.05798,-0.01038,-0.01541,-0.01633,0.00076,-0.12878,-0.03738,-0.03738,-0.0322,-0.03845
6.4035,-0.0032,-0.03876,-0.28503,-0.12802,-0.07385,-0.04196,0.04745,-0.01144,-0.01434,-0.01053,-0.00931,-0.08331,-0.02823,-0.04181,-0.05051,-0.03845
6.404,-0.01144,-0.03845,-0.2977,-0.23239,-0.07553,-0.04303,0.00717,-0.01205,-0.0174,-0.00015,-0.02487,-0.03418,-0.02609,-0.03876,-0.06683,-0.04211
6.4045,-0.01816,-0.04105,-0.25177,-0.25528,-0.0853,-0.04532,-0.03555,-0.01251,-0.0238,0.009,-0.04349,0.02121,-0.02441,-0.02548,-0.07416,-0.04623
6.405,-0.02182,-0.047,-0.15045,-0.16891,-0.07385,-0.04654,-0.05737,-0.0116,-0.03036,0.01205,-0.05478,0.10117,-0.01648,-0.01282,-0.07507,-0.04807
6.4055,-0.0235,-0.05173,-0.01007,-0.0145,-0.04333,-0.04654,-0.0592,-0.01175,-0.03586,0.01114,-0.04822,0.1796,-0.00198,-0.00549,-0.0708,-0.047
6.406,-0.02258,-0.05295,0.1329,0.13199,-0.01434,-0.04562,-0.04974,-0.01144,-0.03998,0.00824,-0.0264,0.19379,0.01236,-0.00153,-0.05722,-0.04501
6.4065,-0.01953,-0.04974,0.23117,0.20767,-0.00031,-0.04669,-0.03479,-0.01083,-0.03708,0.00229,-0.00412,0.12604,0.02151,0.00107,-0.00824,-0.04318
6.407,-0.01678,-0.04669,0.25909,0.19547,-0.00519,-0.04929,-0.01495,-0.00748,-0.02548,-0.01038,0.01434,0.04578,0.02304,0.00366,0.0795,-0.04288
6.4075,-0.01633,-0.04639,0.2211,0.1265,-0.02213,-0.05249,0.01251,-0.00458,-0.0116,-0.03281,0.04578,0.02045,0.01938,0.00381,0.15701,-0.04318
6.408,-0.01755,-0.04669,0.14999,0.05096,-0.03815,-0.05447,0.04852,-0.00305,-0.00473,-0.05722,0.10757,0.03708,0.00916,0.00015,0.16327,-0.04364
6.4085,-0.01663,-0.04211,0.07355,0.00305,-0.04257,-0.05539,0.08896,-0.00168,-0.00656,-0.07141,0.16968,0.04837,-0.01526,-0.0058,0.10361,-0.04318
6.409,-0.01114,-0.03281,0.01251,-0.01328,-0.0444,-0.05783,0.10696,0.00046,-0.01312,-0.07141,0.17532,0.03738,-0.05875,-0.01083,0.04272,-0.04196
6.4095,-0.00275,-0.02289,-0.02151,-0.01358,-0.05951,-0.06104,0.07172,0.00275,-0.02258,-0.06241,0.10849,0.02167,-0.103,-0.01389,0.02029,-0.04013
6.41,0.00641,-0.01907,-0.02594,-0.00946,-0.08179,-0.06332,-0.01312,0.00122,-0.03464,-0.05173,0.01358,0.0087,-0.11383,-0.01465,0.0235,-0.03784
6.4105,0.01572,-0.0238,-0.00687,-0.00443,-0.08759,-0.06271,-0.09018,-0.00183,-0.04852,-0.04593,-0.05463,-0.00488,-0.08148,-0.01282,0.02304,-0.03677
6.411,0.02335,-0.03235,0.01694,0.00168,-0.0708,-0.06088,-0.09827,-0.00412,-0.06149,-0.0473,-0.0856,-0.01938,-0.03906,-0.00916,0.01648,-0.03799
6.4115,0.02625,-0.03754,0.0351,0.00778,-0.04822,-0.06058,-0.04807,-0.00214,-0.06653,-0.05402,-0.09918,-0.02563,-0.01556,-0.00504,0.0145,-0.03952
6.412,0.02182,-0.03998,0.04166,0.01328,-0.03693,-0.06104,0.0,0.00168,-0.06027,-0.05783,-0.10849,-0.01617,-0.01068,-0.00168,0.01709,-0.03998
6.4125,0.01221,-0.04166,0.03967,0.01999,-0.03632,-0.06042,0.01175,0.00626,-0.04547,-0.0502,-0.10727,0.00656,-0.009,-0.00305,0.01755,-0.03922
6.413,0.00305,-0.04425,0.03052,0.02533,-0.0354,-0.05676,0.00366,0.00732,-0.0325,-0.03052,-0.09354,0.03265,-0.00656,-0.00687,0.01328,-0.03906
6.4135,-0.00015,-0.04776,0.01648,0.01984,-0.03159,-0.05325,-0.0029,0.00519,-0.02991,-0.00809,-0.07629,0.05447,-0.0087,-0.01038,0.00946,-0.03967
6.414,0.00153,-0.05081,-0.00305,0.00092,-0.02686,-0.04929,-0.00778,0.00275,-0.03204,0.01129,-0.06653,0.06699,-0.01465,-0.01236,0.00732,-0.04059
6.4145,0.00427,-0.05219,-0.02594,-0.02045,-0.02151,-0.04654,-0.01923,0.00153,-0.02594,0.02594,-0.0676,0.06302,-0.01785,-0.01877,0.00397,-0.04166
6.415,0.0061,-0.05081,-0.04791,-0.03769,-0.01648,-0.04456,-0.0383,0.00046,-0.00488,0.03464,-0.06729,0.04593,-0.02106,-0.03326,-0.0061,-0.04318
6.4155,0.00916,-0.04608,-0.06531,-0.05234,-0.01434,-0.04318,-0.06027,-0.00214,0.0235,0.03738,-0.05707,0.03342,-0.03311,-0.04776,-0.02686,-0.04517
6.416,0.01282,-0.04196,-0.07462,-0.06973,-0.01282,-0.04272,-0.07675,-0.00473,0.04486,0.03632,-0.03601,0.03586,-0.05325,-0.0415,-0.04791,-0.04578
6.4165,0.0145,-0.03952,-0.0795,-0.08438,-0.01175,-0.04227,-0.07614,-0.00656,0.05249,0.0351,-0.01343,0.03586,-0.06958,-0.00626,-0.06104,-0.04456
6.417,0.01343,-0.03983,-0.08179,-0.09155,-0.0119,-0.04135,-0.05249,-0.00885,0.04669,0.03448,0.00153,0.01572,-0.07019,0.03647,-0.06088,-0.04303
6.4175,0.01007,-0.04211,-0.08148,-0.09964,-0.01633,-0.04089,-0.02045,-0.01129,0.03616,0.03204,0.00595,-0.01556,-0.06165,0.04852,-0.05661,-0.04318
6.418,0.00626,-0.04303,-0.07996,-0.11459,-0.02533,-0.04074,-0.00214,-0.01129,0.02563,0.02686,0.01083,-0.03433,-0.05432,0.00839,-0.05386,-0.04242
6.4185,0.0032,-0.0412,-0.07614,-0.1181,-0.03342,-0.04288,-0.00488,-0.00854,0.01617,0.02121,0.0296,-0.03769,-0.05005,-0.0647,-0.04608,-0.04196
6.419,0.00168,-0.03723,-0.07431,-0.08118,-0.03464,-0.04715,-0.01282,-0.00458,0.00458,0.01648,0.05753,-0.03708,-0.04486,-0.11978,-0.01587,-0.04242
6.4195,0.00305,-0.03326,-0.07217,-0.00534,-0.03235,-0.04959,-0.01129,-0.00183,-0.00504,0.00977,0.07141,-0.03723,-0.03784,-0.11734,0.03998,-0.04349
6.42,0.0058,-0.03418,-0.07019,0.06302,-0.0293,-0.05112,-0.00458,-0.00122,-0.00946,-0.00061,0.05402,-0.03387,-0.02991,-0.07294,0.09857,-0.04364
6.4205,0.00519,-0.03967,-0.06836,0.07339,-0.02808,-0.04837,-0.00183,-0.00198,-0.01083,-0.01114,0.01923,-0.02304,-0.02655,-0.03464,0.12268,-0.04425
6.421,0.00183,-0.04395,-0.06592,0.0296,-0.0293,-0.04623,-0.00397,-0.00153,-0.01297,-0.01587,-0.01083,-0.00427,-0.02686,-0.02502,0.09781,-0.0441
6.4215,-0.00259,-0.04318,-0.06088,-0.01144,-0.02869,-0.04684,-0.00687,-0.00061,-0.01755,-0.01663,-0.02625,0.01938,-0.02975,-0.0293,0.04837,-0.04364
6.422,-0.00671,-0.04089,-0.05341,-0.00732,-0.02762,-0.04929,-0.00961,-0.00122,-0.02228,-0.01755,-0.03342,0.04059,-0.03662,-0.02777,0.0119,-0.04288
6.4225,-0.01068,-0.04059,-0.0473,0.02823,-0.0264,-0.05249,-0.01312,-0.00229,-0.02655,-0.02045,-0.0412,0.05112,-0.04608,-0.02151,-0.00427,-0.04166
6.423,-0.0148,-0.04272,-0.04654,0.0528,-0.02243,-0.05508,-0.01801,-0.00549,-0.03204,-0.02441,-0.04898,0.04654,-0.05356,-0.01633,-0.0174,-0.04166
6.4235,-0.01678,-0.04257,-0.04959,0.04974,-0.0177,-0.05341,-0.02716,-0.009,-0.03876,-0.02838,-0.05463,0.02808,-0.05402,-0.01373,-0.02899,-0.04089
6.424,-0.01419,-0.03708,-0.05478,0.03036,-0.01205,-0.04974,-0.04196,-0.00961,-0.04608,-0.0296,-0.05615,0.0029,-0.047,-0.01312,-0.02335,-0.03876
6.4245,-0.00885,-0.03021,-0.05814,0.00153,-0.00366,-0.04562,-0.05432,-0.00946,-0.05249,-0.02869,-0.0563,-0.01633,-0.03494,-0.01495,-0.00153,-0.0386
6.425,-0.0058,-0.02548,-0.05859,-0.03235,0.00305,-0.04379,-0.05829,-0.00885,-0.05478,-0.02884,-0.05615,-0.02243,-0.02121,-0.01968,0.01602,-0.04028
6.4255,-0.00671,-0.02365,-0.05676,-0.05188,0.00702,-0.0441,-0.05188,-0.00992,-0.04822,-0.03036,-0.05539,-0.01633,-0.00916,-0.02594,0.01541,-0.04166
6.426,-0.00946,-0.02258,-0.05386,-0.03677,0.01068,-0.0444,-0.04349,-0.01236,-0.03067,-0.03342,-0.05432,-0.00748,-0.00107,-0.03098,0.00977,-0.04272
6.4265,-0.01236,-0.02274,-0.0502,-0.00305,0.0148,-0.04501,-0.0383,-0.01251,-0.0058,-0.03586,-0.05051,-0.00427,0.00473,-0.03265,0.00351,-0.04364
6.427,-0.01419,-0.02655,-0.04776,0.00961,0.01862,-0.04547,-0.03616,-0.01144,0.01678,-0.03632,-0.04486,-0.00626,0.00519,-0.0293,-0.01022,-0.04272
6.4275,-0.01511,-0.03372,-0.04578,-0.00839,0.01572,-0.047,-0.0322,-0.01099,0.02777,-0.03662,-0.03738,-0.01053,-0.00351,-0.02243,-0.03174,-0.04166
6.428,-0.01389,-0.04349,-0.04623,-0.02457,0.01205,-0.04944,-0.02533,-0.01007,0.02579,-0.03525,-0.03021,-0.02045,-0.01678,-0.01602,-0.04944,-0.04028
6.4285,-0.01205,-0.05295,-0.04761,-0.01282,0.01328,-0.05112,-0.01587,-0.00885,0.0177,-0.03342,-0.02121,-0.03922,-0.01907,-0.01328,-0.05112,-0.04044
6.429,-0.0119,-0.06149,-0.04715,0.00626,0.02075,-0.05173,-0.01099,-0.00595,0.00885,-0.02975,-0.01022,-0.065,-0.00092,-0.01312,-0.02838,-0.04013
6.4295,-0.01282,-0.065,-0.04456,0.0,0.02701,-0.0528,-0.0145,-0.00366,0.00275,-0.02594,-0.00061,-0.0827,0.02533,-0.01312,0.01251,-0.0386
6.43,-0.01312,-0.06195,-0.0415,-0.03662,0.02182,-0.056,-0.02121,-0.0032,-0.00305,-0.02472,0.00198,-0.07767,0.04135,-0.01404,0.04456,-0.03815
6.4305,-0.01236,-0.05692,-0.03952,-0.07599,-0.00504,-0.05844,-0.01968,-0.0032,-0.01038,-0.02701,-0.00397,-0.05341,0.03326,-0.01602,0.0386,-0.03799
6.431,-0.01175,-0.05432,-0.03693,-0.08621,-0.05524,-0.05905,-0.00778,-0.00229,-0.01907,-0.03006,-0.01282,-0.02533,-0.00107,-0.01678,-0.00046,-0.04028
6.4315,-0.01297,-0.05646,-0.03525,-0.06882,-0.10117,-0.05829,0.00305,-0.00168,-0.02579,-0.03174,-0.01633,-0.00061,-0.04791,-0.01678,-0.02457,-0.04562
6.432,-0.01572,-0.06104,-0.03464,-0.04456,-0.11902,-0.0589,0.00854,-0.00229,-0.02777,-0.03128,-0.00977,0.02335,-0.08011,-0.01724,-0.00153,-0.05051
6.4325,-0.01831,-0.06409,-0.03647,-0.01999,-0.11597,-0.06073,0.01175,-0.00458,-0.03036,-0.03082,-0.00031,0.05203,-0.08316,-0.02014,0.04959,-0.05219
6.433,-0.01678,-0.06287,-0.04028,0.01144,-0.12299,-0.0647,0.01297,-0.00534,-0.0412,-0.03235,0.00504,0.08453,-0.07874,-0.02304,0.08148,-0.05112
6.4335,-0.01282,-0.05539,-0.04257,0.03937,-0.14435,-0.0679,0.00885,-0.00534,-0.06012,-0.03632,0.00473,0.10712,-0.09613,-0.02136,0.07019,-0.04959
6.434,-0.00885,-0.04288,-0.04364,0.04364,-0.14633,-0.0679,0.0058,-0.00458,-0.07355,-0.03937,-0.00046,0.09995,-0.12619,-0.01923,0.04456,-0.04807
6.4345,-0.00961,-0.03082,-0.0415,0.0264,-0.11353,-0.06439,0.00946,-0.00458,-0.07202,-0.04028,-0.00717,0.06042,-0.13046,-0.01953,0.04593,-0.04547
6.435,-0.01434,-0.02075,-0.03754,0.00916,-0.06836,-0.06088,0.01511,-0.00549,-0.05829,-0.04059,-0.01297,0.02136,-0.09567,-0.02167,0.07401,-0.04242
6.4355,-0.01831,-0.01251,-0.03296,-0.00366,-0.04211,-0.05753,0.01144,-0.00656,-0.04135,-0.04059,-0.01312,0.01694,-0.05096,-0.02075,0.08728,-0.04105
6.436,-0.01724,-0.00504,-0.0293,-0.02716,-0.03662,-0.05615,0.00046,-0.00778,-0.02228,-0.0412,-0.009,0.04623,-0.02625,-0.01678,0.05966,-0.0412
6.4365,-0.0116,0.00061,-0.02869,-0.06027,-0.03571,-0.05386,-0.00549,-0.00778,-0.00275,-0.04105,-0.00687,0.08072,-0.02197,-0.01221,0.01511,-0.04196
6.437,-0.00534,0.00076,-0.03036,-0.07355,-0.03067,-0.0531,0.00092,-0.00824,0.01083,-0.03937,-0.00931,0.10406,-0.02502,-0.01099,-0.01785,-0.04318
6.4375,-0.00214,-0.00565,-0.03357,-0.03693,-0.02579,-0.05463,0.01419,-0.00885,0.01541,-0.03555,-0.01205,0.11719,-0.02686,-0.01282,-0.04272,-0.04532
6.438,-0.00381,-0.01556,-0.03723,0.04715,-0.02441,-0.0563,0.02594,-0.00977,0.01434,-0.02823,-0.01266,0.11642,-0.02884,-0.01724,-0.07523,-0.04578
6.4385,-0.0087,-0.02457,-0.04196,0.12253,-0.02411,-0.05783,0.03387,-0.01038,0.01358,-0.01907,-0.01236,0.08392,-0.03159,-0.02182,-0.10223,-0.04593
6.439,-0.01358,-0.02716,-0.04776,0.11917,-0.02533,-0.05707,0.03876,-0.01038,0.01572,-0.01434,-0.01419,0.01266,-0.03555,-0.02213,-0.09247,-0.04456
6.4395,-0.01648,-0.02502,-0.04913,0.02579,-0.02731,-0.05386,0.03754,-0.01007,0.01938,-0.01801,-0.01495,-0.07248,-0.04196,-0.01862,-0.04562,-0.0441
6.44,-0.01785,-0.02457,-0.04684,-0.08652,-0.0293,-0.05066,0.0238,-0.00961,0.02151,-0.03052,-0.00244,-0.13336,-0.04929,-0.01495,0.00504,-0.04257
6.4405,-0.01938,-0.02975,-0.04303,-0.14786,-0.02731,-0.04791,-0.00946,-0.00839,0.01923,-0.04364,0.03906,-0.15793,-0.05447,-0.01236,0.03311,-0.04181
6.441,-0.0209,-0.03952,-0.04318,-0.16159,-0.02243,-0.04929,-0.04715,-0.00732,0.00946,-0.0441,0.10468,-0.16235,-0.05295,-0.00854,0.0412,-0.04074
6.4415,-0.02335,-0.04929,-0.04562,-0.16266,-0.01633,-0.05219,-0.06378,-0.00809,-0.0061,-0.03296,0.15396,-0.16068,-0.04456,-0.00229,0.03082,-0.03983
6.442,-0.02304,-0.05692,-0.04517,-0.15198,-0.0119,-0.05127,-0.05081,-0.01022,-0.02045,-0.02502,0.14297,-0.1503,-0.02731,0.00137,-0.00076,-0.03876
6.4425,-0.02182,-0.06454,-0.0412,-0.1152,-0.00946,-0.04578,-0.03036,-0.01068,-0.02899,-0.03143,0.07614,-0.12756,-0.00107,-0.00046,-0.04608,-0.03876
6.443,-0.01801,-0.07217,-0.03723,-0.06989,-0.00778,-0.03967,-0.02594,-0.0119,-0.03448,-0.04471,0.00031,-0.09201,0.02869,-0.00534,-0.07736,-0.04044
6.4435,-0.01251,-0.07782,-0.0354,-0.04776,-0.00458,-0.03769,-0.03021,-0.01328,-0.04074,-0.056,-0.04608,-0.04089,0.05035,-0.00916,-0.06744,-0.04242
6.444,-0.00198,-0.07889,-0.0354,-0.04547,-0.00259,-0.03906,-0.02853,-0.01434,-0.04776,-0.05417,-0.06393,0.02151,0.05325,-0.01129,-0.01694,-0.04257
6.4445,0.0119,-0.07385,-0.03387,-0.04211,-0.00534,-0.04211,-0.02182,-0.01495,-0.05142,-0.03845,-0.07248,0.07736,0.03754,-0.01282,0.03693,-0.04227
6.445,0.02655,-0.06378,-0.02914,-0.0412,-0.01144,-0.04303,-0.02304,-0.0145,-0.04807,-0.01465,-0.08072,0.10071,0.01099,-0.01434,0.06424,-0.04181
6.4455,0.04105,-0.05081,-0.02228,-0.06241,-0.02609,-0.03876,-0.03052,-0.01358,-0.04013,0.00656,-0.08469,0.06927,-0.01556,-0.01633,0.07309,-0.04166
6.446,0.05142,-0.0383,-0.01526,-0.10132,-0.04822,-0.0322,-0.03235,-0.01251,-0.02975,0.01846,-0.08041,-0.0238,-0.03098,-0.02151,0.08835,-0.04135
6.4465,0.0502,-0.02975,-0.01038,-0.11887,-0.06927,-0.02853,-0.02579,-0.01099,-0.01724,0.02319,-0.07233,-0.15259,-0.02945,-0.02945,0.09995,-0.04044
6.447,0.0325,-0.02762,-0.01022,-0.09201,-0.07278,-0.03159,-0.02197,-0.00824,-0.00305,0.02884,-0.07095,-0.25192,-0.01724,-0.03296,0.0827,-0.04105
6.4475,0.00946,-0.03113,-0.01419,-0.03204,-0.05646,-0.03967,-0.03372,-0.00656,0.01175,0.03998,-0.07858,-0.24155,-0.01114,-0.02823,0.03998,-0.04242
6.448,-0.00534,-0.03586,-0.01953,0.0383,-0.03632,-0.04684,-0.06256,-0.00641,0.02426,0.04669,-0.08698,-0.08728,-0.02213,-0.01801,0.01022,-0.04379
6.4485,-0.00748,-0.03998,-0.02365,0.10391,-0.02884,-0.04822,-0.09857,-0.00656,0.03372,0.04364,-0.08652,0.14297,-0.04257,-0.01205,0.01404,-0.04288
6.449,-0.00793,-0.04074,-0.0293,0.1416,-0.02853,-0.0499,-0.12039,-0.00595,0.0351,0.03067,-0.07523,0.29755,-0.0563,-0.01038,0.03586,-0.04166
6.4495,-0.01099,-0.03998,-0.03876,0.12497,-0.02823,-0.05142,-0.11093,-0.00305,0.02426,0.01968,-0.06073,0.27008,-0.05859,-0.00931,0.05173,-0.03952
6.45,-0.01358,-0.04059,-0.04807,0.06409,-0.0264,-0.05264,-0.07401,-0.00015,0.00153,0.01129,-0.05417,0.1181,-0.05112,-0.0032,0.05081,-0.03845
6.4505,-0.01144,-0.04318,-0.05096,0.01022,-0.02609,-0.05356,-0.02838,0.00046,-0.02258,0.00244,-0.05707,-0.00412,-0.03662,0.00519,0.0441,-0.03815
6.451,-0.0058,-0.04532,-0.04623,0.00061,-0.02487,-0.05432,0.01373,-0.00107,-0.03143,-0.00931,-0.06058,-0.01587,-0.02655,0.00977,0.03906,-0.03983
6.4515,0.00031,-0.04745,-0.03845,0.02045,-0.01938,-0.05356,0.05493,-0.00031,-0.01984,-0.01999,-0.05615,0.02991,-0.03998,0.00687,0.03296,-0.04196
6.452,0.00366,-0.0502,-0.0351,0.03494,-0.01465,-0.05203,0.08759,0.00275,-0.00061,-0.02335,-0.04257,0.05432,-0.07324,-0.0029,0.01938,-0.04272
6.4525,0.00381,-0.056,-0.03937,0.03098,-0.01419,-0.04959,0.10178,0.00427,0.01022,-0.01999,-0.02472,0.04349,-0.09064,-0.01511,-0.00702,-0.04456
6.453,0.00214,-0.06073,-0.04715,0.01892,-0.0177,-0.0473,0.09842,0.00381,0.009,-0.01556,-0.00656,0.02518,-0.0705,-0.02548,-0.04379,-0.04562
6.4535,0.00137,-0.0592,-0.05707,0.00809,-0.02258,-0.04623,0.08499,0.00168,0.00076,-0.0119,0.00748,0.00778,-0.03937,-0.03647,-0.07523,-0.04501
6.454,0.00244,-0.05539,-0.0676,0.00061,-0.02716,-0.04639,0.0563,0.0,-0.01022,-0.00977,0.01648,-0.01907,-0.02808,-0.0441,-0.08469,-0.04318
6.4545,0.00504,-0.05295,-0.07278,-0.00702,-0.03006,-0.04837,0.00916,-0.00183,-0.0209,-0.00519,0.01862,-0.05234,-0.03571,-0.04791,-0.06683,-0.04242
6.455,0.00565,-0.05341,-0.06973,-0.01343,-0.03128,-0.05081,-0.03372,-0.00534,-0.03296,0.00031,0.01678,-0.07324,-0.04517,-0.04791,-0.03601,-0.04318
6.4555,0.0032,-0.05432,-0.0592,-0.01968,-0.03128,-0.05127,-0.047,-0.009,-0.04425,0.00229,0.01465,-0.06912,-0.05051,-0.04532,-0.00717,-0.04395
6.456,-0.00214,-0.05463,-0.04288,-0.02167,-0.03021,-0.04944,-0.0322,-0.00931,-0.0592,-0.00137,0.01373,-0.04181,-0.05203,-0.03906,0.01297,-0.04364
6.4565,-0.00748,-0.05157,-0.02335,-0.01373,-0.02884,-0.04868,-0.01541,-0.00458,-0.07996,-0.0145,0.01602,-0.01022,-0.04974,-0.02487,0.02121,-0.04333
6.457,-0.01205,-0.04364,-0.00366,0.00473,-0.02731,-0.04913,-0.01251,0.00061,-0.10147,-0.03616,0.02029,-0.00122,-0.04547,-0.00565,0.01648,-0.04501
6.4575,-0.01389,-0.03342,0.00885,0.02304,-0.02563,-0.04944,-0.01953,0.00305,-0.10849,-0.05768,0.02548,-0.01907,-0.04364,0.00885,0.0,-0.04547
6.458,-0.01511,-0.02441,0.01221,0.02884,-0.02365,-0.04868,-0.02914,0.00153,-0.09323,-0.06683,0.02502,-0.03418,-0.04379,0.01053,-0.02045,-0.04379
6.4585,-0.01801,-0.01892,0.01266,0.0209,-0.01953,-0.04486,-0.04486,-0.00168,-0.06027,-0.06256,0.01999,-0.03784,-0.03906,-0.00443,-0.0351,-0.0412
6.459,-0.02274,-0.01373,0.01236,0.009,-0.01801,-0.03479,-0.06836,-0.00488,-0.02457,-0.05371,0.01617,-0.04196,-0.03204,-0.03113,-0.03906,-0.03937
6.4595,-0.02853,-0.00504,0.01389,-0.01801,-0.0145,-0.02029,-0.08728,-0.0058,0.00229,-0.04456,0.0145,-0.03876,-0.02777,-0.05356,-0.03296,-0.03922
6.46,-0.03189,0.00214,0.01297,-0.08865,-0.01221,-0.0145,-0.09293,-0.00549,0.01617,-0.03784,0.01724,-0.00381,-0.02731,-0.05768,-0.02243,-0.03906
6.4605,-0.03159,0.00305,0.0058,-0.19897,-0.01251,-0.02625,-0.09048,-0.00458,0.01907,-0.02914,0.01877,0.04227,-0.02502,-0.04395,-0.00534,-0.04028
6.461,-0.02838,-0.00259,-0.00351,-0.3006,-0.01343,-0.0444,-0.09872,-0.00458,0.01541,-0.02029,0.01831,0.05157,-0.0177,-0.02731,0.0206,-0.04105
6.4615,-0.02304,-0.01053,-0.01129,-0.34088,-0.01205,-0.05051,-0.11688,-0.00336,0.00931,-0.01343,0.01297,0.02106,-0.01328,-0.01892,0.05249,-0.04089
6.462,-0.01633,-0.01877,-0.01907,-0.30869,-0.00946,-0.04379,-0.10742,-0.00076,0.00427,-0.00961,0.00244,-0.01083,-0.01923,-0.01801,0.07477,-0.03845
6.4625,-0.00854,-0.02472,-0.02472,-0.21957,-0.00656,-0.03937,-0.03448,0.00259,0.00626,-0.00702,-0.0116,-0.02594,-0.02731,-0.01724,0.07645,-0.0351
6.463,-0.00336,-0.03052,-0.03143,-0.08041,-0.00702,-0.04135,0.07965,0.00473,0.01694,-0.0058,-0.0264,-0.03769,-0.02502,-0.01221,0.06454,-0.03433
