time,RectFemL,VastusMedL,VastusLatL,TibAntL,HamMedL,HamLatL,GastroMedL,GastroLatL,RectFemR,VastusMedR,VastusLatR,TibAntR,HamMedR,HamLatR,GastroMedR,GastroLatR
3.09,-0.00137,-0.04913,-0.04059,-0.01297,-0.00717,-0.04242,-0.01511,-0.01541,0.07813,-0.05051,-0.08453,0.01373,-0.04791,-0.00397,0.02213,-0.0441
3.0905,-0.0029,-0.04425,-0.03647,-0.01251,0.01251,-0.04044,-0.01282,-0.01007,0.07034,-0.04135,-0.06699,0.03128,-0.04959,-0.01877,0.0209,-0.04196
3.091,-0.00519,-0.03693,-0.0325,-0.01251,0.01617,-0.03983,-0.01221,-0.00626,0.04974,-0.02991,-0.05264,0.03326,-0.05783,-0.03586,0.01694,-0.04227
3.0915,-0.00717,-0.02808,-0.02884,-0.01312,0.01099,-0.04196,-0.01236,-0.00351,0.02319,-0.01678,-0.03464,0.01724,-0.05997,-0.04578,0.01175,-0.04425
3.092,-0.00778,-0.02365,-0.02686,-0.01389,0.00763,-0.04532,-0.01175,0.0,0.00259,-0.00702,-0.01434,0.00534,-0.04852,-0.04562,0.00687,-0.0441
3.0925,-0.00748,-0.02548,-0.02853,-0.01328,0.00671,-0.04883,-0.01068,0.00458,-0.00488,0.00168,-0.00031,0.01999,-0.03082,-0.04013,-0.00061,-0.04089
3.093,-0.00671,-0.03128,-0.03494,-0.01068,-0.00031,-0.04959,-0.00931,0.00656,-0.00183,0.00656,0.0032,0.05188,-0.02213,-0.03433,-0.00977,-0.03769
3.0935,-0.00748,-0.03494,-0.04013,-0.00854,-0.01312,-0.04944,-0.0087,0.00351,0.00168,0.0119,0.00122,0.07019,-0.02258,-0.02029,-0.01785,-0.03693
3.094,-0.01038,-0.03326,-0.03967,-0.00763,-0.03143,-0.04944,-0.00732,-0.00717,-0.00015,0.01205,-0.00031,0.05524,-0.02228,0.00595,-0.02151,-0.03845
3.0945,-0.00931,-0.02716,-0.03357,-0.009,-0.05188,-0.04929,-0.00595,-0.02548,-0.00977,0.00839,0.00336,0.01801,-0.01999,0.03662,-0.01846,-0.0415
3.095,-0.00488,-0.01862,-0.02777,-0.01053,-0.06516,-0.04822,-0.01053,-0.04242,-0.02899,0.00458,0.01129,-0.02411,-0.02014,0.05142,-0.01053,-0.04425
3.0955,-0.00168,-0.00931,-0.0264,-0.01083,-0.06516,-0.04654,-0.02151,-0.05035,-0.05249,0.00351,0.01984,-0.06073,-0.02594,0.03342,-0.00412,-0.04639
3.096,-0.00259,-0.00351,-0.02823,-0.00946,-0.05295,-0.04562,-0.03464,-0.05051,-0.07141,0.00534,0.02365,-0.08255,-0.03372,-0.00702,-0.00107,-0.04715
3.0965,-0.00336,-0.00443,-0.03235,-0.0087,-0.03967,-0.04501,-0.04211,-0.05112,-0.08102,0.00839,0.01816,-0.07706,-0.03876,-0.0322,0.00031,-0.047
3.097,-0.00275,-0.01038,-0.03662,-0.009,-0.03021,-0.04501,-0.0383,-0.05722,-0.08606,0.01099,-0.00137,-0.04242,-0.0386,-0.01556,0.00427,-0.04593
3.0975,-0.00092,-0.02106,-0.04166,-0.00916,-0.02029,-0.04364,-0.02853,-0.06592,-0.08148,0.01221,-0.02762,0.00046,-0.03555,0.02274,0.01236,-0.04379
3.098,-0.00046,-0.03082,-0.04501,-0.00946,-0.00946,-0.04333,-0.01938,-0.06409,-0.05783,0.01007,-0.0444,0.02365,-0.0322,0.03677,0.02243,-0.04135
3.0985,-0.00092,-0.03876,-0.04318,-0.009,0.0,-0.04364,-0.01419,-0.03555,-0.02167,0.00259,-0.0441,0.0209,-0.0325,0.00031,0.02701,-0.04028
3.099,-0.00214,-0.04257,-0.03693,-0.00854,0.00549,-0.04425,-0.01083,0.02533,0.00443,-0.00565,-0.03098,0.00793,-0.03494,-0.07019,0.02075,-0.04105
3.0995,-0.00534,-0.04318,-0.03113,-0.00839,0.00748,-0.04593,-0.00641,0.09171,0.00809,-0.01328,-0.00839,0.00351,-0.03647,-0.13199,0.0061,-0.04272
3.1,-0.00931,-0.04105,-0.02808,-0.00717,0.00565,-0.04883,-0.00107,0.11963,-0.00351,-0.01953,0.02457,0.00854,-0.03525,-0.14984,-0.00565,-0.04364
3.1005,-0.01358,-0.03906,-0.02747,-0.00626,-0.0032,-0.05157,0.00381,0.09323,-0.01343,-0.02243,0.05997,0.01312,-0.03296,-0.11932,-0.00946,-0.04486
3.101,-0.01526,-0.03891,-0.02853,-0.00687,-0.02533,-0.05219,0.00214,0.03906,-0.01144,-0.0235,0.08286,0.01083,-0.03143,-0.06775,-0.00793,-0.04501
3.1015,-0.01236,-0.03998,-0.02945,-0.00992,-0.05936,-0.05219,-0.00534,-0.00336,-0.00198,-0.02487,0.08255,0.00381,-0.03067,-0.02701,-0.00595,-0.04517
3.102,-0.009,-0.0412,-0.03159,-0.01099,-0.09003,-0.05249,-0.01144,-0.01709,0.0058,-0.0267,0.06668,-0.00122,-0.02777,-0.01221,-0.00458,-0.04471
3.1025,-0.00793,-0.04013,-0.03555,-0.01114,-0.09979,-0.05341,-0.01526,-0.01389,0.00809,-0.02792,0.05005,-0.0029,-0.01984,-0.01526,0.0,-0.04501
3.103,-0.00961,-0.03708,-0.03967,-0.01068,-0.08255,-0.05371,-0.01907,-0.00977,0.00748,-0.02625,0.03922,-0.00519,-0.00793,-0.02441,0.00946,-0.04593
3.1035,-0.00809,-0.03448,-0.04379,-0.01114,-0.05768,-0.05188,-0.02045,-0.01144,0.00427,-0.02426,0.03418,-0.00961,0.00244,-0.03387,0.02167,-0.04578
3.104,-0.00397,-0.03372,-0.0444,-0.01175,-0.03952,-0.05035,-0.01633,-0.01511,-0.00259,-0.02686,0.0296,-0.01205,0.00458,-0.03677,0.03006,-0.04333
3.1045,-0.00015,-0.03342,-0.0441,-0.01129,-0.03418,-0.04959,-0.00473,-0.01968,-0.01297,-0.03403,0.02213,-0.00824,-0.00275,-0.03326,0.03098,-0.04059
3.105,0.00076,-0.03433,-0.04211,-0.01099,-0.03342,-0.05066,0.01114,-0.03067,-0.02167,-0.0441,0.01297,-0.00061,-0.01617,-0.02518,0.02823,-0.03876
3.1055,-0.00107,-0.03662,-0.04044,-0.00961,-0.03372,-0.05142,0.03159,-0.04456,-0.02853,-0.04944,0.00351,0.00534,-0.0354,-0.01846,0.02808,-0.03708
3.106,-0.00229,-0.03983,-0.03769,-0.00763,-0.03571,-0.05051,0.04776,-0.05447,-0.03021,-0.04669,-0.00565,0.00748,-0.05371,-0.01099,0.03082,-0.03647
3.1065,-0.00351,-0.04425,-0.03784,-0.00107,-0.0383,-0.04898,0.04715,-0.05402,-0.02762,-0.03922,-0.01663,0.00397,-0.05829,0.00015,0.03021,-0.03723
3.107,-0.00397,-0.04822,-0.03723,0.00809,-0.03876,-0.04822,0.03265,-0.04532,-0.02213,-0.03952,-0.02701,-0.00168,-0.04318,0.01602,0.02411,-0.03998
3.1075,-0.00381,-0.05112,-0.03632,0.01617,-0.03143,-0.04791,0.01587,-0.03693,-0.01572,-0.05661,-0.03174,-0.00717,-0.01984,0.03281,0.01846,-0.04242
3.108,-0.00458,-0.05371,-0.03403,0.02167,-0.01846,-0.047,0.00214,-0.03525,-0.009,-0.08743,-0.02609,-0.00946,-0.01221,0.0386,0.01862,-0.04349
3.1085,-0.00626,-0.05737,-0.03494,0.02121,-0.00504,-0.04562,-0.01541,-0.03998,-0.00137,-0.11917,-0.01251,-0.00885,-0.03281,0.0148,0.02167,-0.04318
3.109,-0.00748,-0.06195,-0.03708,0.01083,0.0032,-0.0444,-0.04013,-0.03372,0.0032,-0.13626,-0.00137,-0.00824,-0.06943,-0.03723,0.01846,-0.04272
3.1095,-0.00671,-0.06638,-0.03876,-0.01282,-0.00122,-0.04288,-0.06073,-0.00977,-0.00031,-0.1329,0.00046,-0.00778,-0.09521,-0.08514,0.01358,-0.04318
3.11,-0.0029,-0.06989,-0.03845,-0.03937,-0.02075,-0.03952,-0.0592,0.01221,-0.0119,-0.11002,-0.00351,-0.00717,-0.09048,-0.09338,0.01099,-0.04517
3.1105,-0.00061,-0.07202,-0.03632,-0.056,-0.04868,-0.03677,-0.03586,0.00275,-0.02365,-0.07813,-0.00549,-0.00656,-0.06622,-0.06439,0.01144,-0.04471
3.111,-0.00275,-0.06989,-0.03265,-0.05249,-0.0679,-0.03525,-0.01129,-0.02762,-0.02991,-0.04379,-0.00107,-0.00656,-0.04456,-0.03052,0.01801,-0.04227
3.1115,-0.00946,-0.06332,-0.0296,-0.03036,-0.06058,-0.03494,-0.0061,-0.0325,-0.03021,-0.01312,0.00427,-0.00732,-0.03403,-0.01572,0.02579,-0.0383
3.112,-0.01617,-0.05539,-0.02884,-0.00046,-0.03326,-0.03616,-0.01831,0.00961,-0.02762,0.01114,0.00656,-0.00641,-0.03174,-0.01556,0.03235,-0.03525
3.1125,-0.01907,-0.04868,-0.03113,0.0177,-0.01144,-0.03845,-0.03372,0.06119,-0.02396,0.03052,0.00443,-0.00259,-0.03128,-0.01602,0.03052,-0.03448
3.113,-0.01892,-0.04639,-0.03418,0.01144,-0.01373,-0.03845,-0.04044,0.07278,-0.02167,0.0412,0.00015,0.00092,-0.03021,-0.01312,0.0238,-0.03677
3.1135,-0.01785,-0.04791,-0.03555,-0.01419,-0.0325,-0.03845,-0.0386,0.04959,-0.02121,0.0444,-0.0032,0.0029,-0.02762,-0.01007,0.01633,-0.03906
3.114,-0.01572,-0.05051,-0.0351,-0.04272,-0.04456,-0.0383,-0.03036,0.03479,-0.01846,0.04303,-0.00748,0.00259,-0.02655,-0.00946,0.01221,-0.03845
3.1145,-0.01144,-0.05005,-0.03601,-0.06012,-0.03784,-0.04135,-0.02106,0.04883,-0.0119,0.04013,-0.01419,-0.00504,-0.02731,-0.0119,0.00977,-0.0354
3.115,-0.00519,-0.0473,-0.03876,-0.06531,-0.02045,-0.04593,-0.01663,0.07538,-0.00381,0.03799,-0.02289,-0.01953,-0.0293,-0.01541,0.00534,-0.03693
3.1155,-0.00107,-0.04181,-0.04181,-0.06165,-0.00305,-0.04837,-0.0148,0.08667,0.00046,0.03632,-0.02792,-0.0322,-0.03021,-0.01892,-0.00076,-0.04303
3.116,-0.00076,-0.03464,-0.0415,-0.04456,0.00778,-0.04684,-0.01404,0.07996,0.00031,0.03632,-0.02914,-0.02991,-0.02869,-0.02197,-0.00946,-0.04852
3.1165,-0.00305,-0.02869,-0.03632,-0.00488,0.01373,-0.04608,-0.01953,0.07004,-0.00305,0.03952,-0.0293,-0.00519,-0.02701,-0.02289,-0.01511,-0.05051
3.117,-0.0032,-0.02655,-0.03265,0.05234,0.01419,-0.04654,-0.03647,0.0647,-0.00748,0.04623,-0.0325,0.02609,-0.02502,-0.02213,-0.01205,-0.04898
3.1175,-0.00076,-0.02853,-0.03281,0.09766,0.01221,-0.04852,-0.05646,0.05219,-0.01389,0.04913,-0.0383,0.03952,-0.02319,-0.01526,-0.00092,-0.04684
3.118,0.00198,-0.03342,-0.03403,0.0975,0.00793,-0.04929,-0.06119,0.02518,-0.02121,0.04532,-0.04135,0.02838,-0.01633,-0.00305,0.00626,-0.04562
3.1185,0.00412,-0.03922,-0.03494,0.0499,-0.00641,-0.04791,-0.04303,-0.00671,-0.02716,0.03494,-0.03937,0.00687,-0.0032,0.00763,-0.00336,-0.04578
3.119,0.00305,-0.04456,-0.03326,-0.01541,-0.02991,-0.04715,-0.01587,-0.02533,-0.02899,0.02441,-0.03281,-0.00824,0.01266,0.00885,-0.03006,-0.04471
3.1195,0.00107,-0.04944,-0.03113,-0.06088,-0.04868,-0.04639,0.00351,-0.02731,-0.02823,0.01633,-0.02762,-0.00946,0.0264,0.00015,-0.06424,-0.04395
3.12,-0.00107,-0.05051,-0.03113,-0.07492,-0.04684,-0.047,0.00961,-0.02121,-0.02502,0.01007,-0.02396,-0.00275,0.02716,-0.01038,-0.09003,-0.04562
3.1205,-0.00381,-0.04669,-0.03403,-0.07706,-0.03143,-0.04944,0.00656,-0.02472,-0.02228,0.00504,-0.02151,0.00015,0.01251,-0.01633,-0.09689,-0.04913
3.121,-0.00549,-0.03952,-0.03662,-0.07767,-0.02502,-0.05112,-0.00153,-0.04913,-0.0238,0.00015,-0.01846,-0.00443,-0.00458,-0.01953,-0.08591,-0.05127
3.1215,-0.00473,-0.03357,-0.03647,-0.06516,-0.04074,-0.0502,-0.01038,-0.08377,-0.02991,-0.00504,-0.01495,-0.00854,-0.01068,-0.02411,-0.06821,-0.0502
3.122,-0.00488,-0.03204,-0.03662,-0.03235,-0.07507,-0.04852,-0.01755,-0.08667,-0.03754,-0.0116,-0.01114,-0.00946,-0.0174,-0.03098,-0.05203,-0.04669
3.1225,-0.0061,-0.03326,-0.03647,0.00336,-0.11108,-0.04929,-0.02014,-0.0351,-0.04089,-0.01953,-0.00778,-0.00992,-0.0473,-0.03479,-0.03799,-0.04318
3.123,-0.00763,-0.03632,-0.03723,0.02167,-0.13107,-0.05264,-0.02136,0.02991,-0.03845,-0.02609,-0.00656,-0.01434,-0.09964,-0.03479,-0.01541,-0.04196
3.1235,-0.00595,-0.03784,-0.03754,0.01785,-0.13168,-0.05585,-0.0235,0.05127,-0.03235,-0.03082,-0.009,-0.01831,-0.13794,-0.02945,0.03082,-0.04196
3.124,-0.00458,-0.03647,-0.03723,0.00046,-0.11444,-0.05783,-0.03387,0.0235,-0.02426,-0.03616,-0.01373,-0.01709,-0.13184,-0.01755,0.09689,-0.04135
3.1245,-0.00534,-0.03021,-0.03647,-0.01816,-0.08911,-0.05768,-0.05112,-0.0087,-0.01099,-0.04272,-0.01755,-0.01251,-0.09338,-0.00443,0.14603,-0.03922
3.125,-0.00732,-0.02029,-0.03464,-0.02686,-0.06439,-0.05692,-0.06653,-0.01755,0.01038,-0.04517,-0.01617,-0.01022,-0.05615,0.00214,0.14236,-0.03738
3.1255,-0.00656,-0.01038,-0.03326,-0.02594,-0.04959,-0.05615,-0.06805,-0.0209,0.02975,-0.04425,-0.01221,-0.01129,-0.0383,-0.00259,0.09354,-0.03616
3.126,-0.0029,-0.00763,-0.03372,-0.02487,-0.04471,-0.05661,-0.05447,-0.0386,0.03326,-0.04395,-0.00946,-0.0116,-0.02747,-0.01312,0.047,-0.03876
3.1265,-0.00046,-0.01434,-0.03586,-0.0264,-0.04181,-0.05539,-0.0386,-0.05814,0.01968,-0.04623,-0.01343,-0.01099,-0.00885,-0.01968,0.02975,-0.04303
3.127,0.00061,-0.02365,-0.03784,-0.02655,-0.03494,-0.0528,-0.02792,-0.05829,0.00015,-0.05035,-0.0235,-0.01129,0.01236,-0.01892,0.03082,-0.04608
3.1275,-0.00076,-0.03021,-0.03662,-0.02274,-0.02884,-0.04898,-0.0209,-0.03876,-0.01785,-0.05325,-0.03342,-0.01526,0.01907,-0.01434,0.02655,-0.04562
3.128,-0.00122,-0.03448,-0.03296,-0.01877,-0.02625,-0.04761,-0.01022,-0.01862,-0.03586,-0.05356,-0.03555,-0.01633,0.00534,-0.01068,0.01755,-0.04379
3.1285,0.00061,-0.03754,-0.03021,-0.01923,-0.02441,-0.04807,0.00778,-0.01175,-0.05325,-0.04929,-0.02945,-0.00824,-0.0174,-0.0116,0.01083,-0.04318
3.129,0.00183,-0.03983,-0.02975,-0.02975,-0.02243,-0.04822,0.02884,-0.02655,-0.06256,-0.04349,-0.02121,-0.00641,-0.03082,-0.01633,0.00931,-0.04303
3.1295,0.00214,-0.04257,-0.0293,-0.05463,-0.02029,-0.04715,0.04379,-0.05524,-0.05951,-0.03677,-0.01968,-0.02701,-0.02991,-0.02228,0.00748,-0.04227
3.13,0.00122,-0.04486,-0.03006,-0.09186,-0.01984,-0.04639,0.04684,-0.07401,-0.04868,-0.03082,-0.02838,-0.05249,-0.02167,-0.02472,0.00397,-0.04135
3.1305,0.00183,-0.04654,-0.03159,-0.12848,-0.01923,-0.04684,0.0383,-0.0621,-0.03967,-0.02502,-0.03769,-0.04227,-0.01694,-0.02136,0.00168,-0.04105
3.131,0.00229,-0.04639,-0.03387,-0.14236,-0.01678,-0.04898,0.02487,-0.01282,-0.03479,-0.0174,-0.03799,0.01282,-0.01755,-0.01343,0.00275,-0.03983
3.1315,0.0032,-0.04761,-0.03769,-0.1236,-0.01007,-0.05234,0.01724,0.06012,-0.03342,-0.00793,-0.02914,0.07858,-0.01724,-0.00458,0.00443,-0.03876
3.132,0.00504,-0.05264,-0.0444,-0.08301,-0.00183,-0.05341,0.01709,0.11444,-0.03357,-0.00412,-0.01984,0.11658,-0.0119,-0.00015,0.00565,-0.03769
3.1325,0.00717,-0.05997,-0.05081,-0.04074,0.00381,-0.05203,0.01297,0.11353,-0.03296,-0.00671,-0.0119,0.12299,-0.00504,-0.00153,0.0032,-0.03937
3.133,0.00916,-0.06363,-0.05234,-0.0058,0.00504,-0.05051,0.00351,0.06577,-0.03052,-0.01373,0.00336,0.1181,-0.0032,-0.00626,-0.00076,-0.03952
3.1335,0.00931,-0.06134,-0.04822,0.0351,0.00305,-0.04807,-0.00198,0.0177,-0.02563,-0.02029,0.03387,0.11047,-0.00763,-0.01007,-0.00427,-0.03784
3.134,0.00763,-0.05768,-0.04242,0.09903,-0.00458,-0.04684,-0.00717,-0.00488,-0.01984,-0.02502,0.06744,0.09171,-0.01831,-0.01221,-0.00427,-0.03677
3.1345,0.00366,-0.05493,-0.04059,0.16434,-0.0174,-0.04425,-0.02151,-0.01328,-0.01709,-0.0267,0.07751,0.05554,-0.04059,-0.01785,-0.00122,-0.03845
3.135,-0.00107,-0.05905,-0.04211,0.18005,-0.03662,-0.03998,-0.03937,-0.02106,-0.01678,-0.02762,0.05325,0.01099,-0.07584,-0.02594,0.00305,-0.04074
3.1355,-0.00412,-0.06668,-0.0412,0.12787,-0.05875,-0.03876,-0.03998,-0.02563,-0.01511,-0.02792,0.01175,-0.03067,-0.10574,-0.03098,0.00336,-0.03998
3.136,-0.00732,-0.07462,-0.03525,0.05508,-0.07462,-0.04166,-0.02274,-0.02136,-0.01312,-0.0267,-0.01999,-0.0589,-0.10483,-0.03113,0.00397,-0.03799
3.1365,-0.01129,-0.0766,-0.0264,0.02304,-0.07263,-0.04532,-0.0032,-0.01404,-0.01266,-0.02518,-0.03494,-0.07111,-0.07385,-0.02899,0.00412,-0.03815
3.137,-0.01617,-0.07309,-0.01709,0.03555,-0.05554,-0.04623,0.00778,-0.01297,-0.01648,-0.02518,-0.04059,-0.06287,-0.04196,-0.02792,0.00565,-0.03906
3.1375,-0.02243,-0.06744,-0.01068,0.04532,-0.03723,-0.04562,0.01083,-0.01404,-0.02319,-0.02609,-0.04517,-0.04074,-0.03098,-0.02945,0.00671,-0.04227
3.138,-0.02853,-0.06073,-0.00824,0.02335,-0.02655,-0.0473,0.00748,-0.01022,-0.02686,-0.0264,-0.04745,-0.01175,-0.0322,-0.03052,0.00504,-0.04608
3.1385,-0.03372,-0.05066,-0.00778,-0.0145,-0.02304,-0.05127,0.00031,-0.00351,-0.02472,-0.02579,-0.04593,0.0209,-0.02991,-0.02777,0.0032,-0.05051
3.139,-0.03723,-0.03754,-0.00992,-0.04089,-0.01984,-0.05554,-0.00534,-0.00076,-0.01862,-0.02274,-0.04181,0.05341,-0.02197,-0.01694,-0.00061,-0.05081
3.1395,-0.03891,-0.02502,-0.01404,-0.03723,-0.01282,-0.056,-0.00656,-0.00519,-0.0148,-0.01724,-0.03937,0.07446,-0.01587,0.0,-0.00229,-0.04822
3.14,-0.03693,-0.01892,-0.02335,0.00687,-0.00198,-0.05264,-0.00519,-0.01099,-0.01968,-0.01144,-0.03555,0.06821,-0.01587,0.01389,-0.0032,-0.04471
3.1405,-0.03067,-0.01892,-0.03098,0.08911,0.00809,-0.04898,-0.00488,-0.01312,-0.03662,-0.00839,-0.02396,0.03387,-0.01877,0.01984,-0.00031,-0.04364
3.141,-0.02304,-0.01862,-0.03387,0.17654,0.01389,-0.04501,-0.00626,-0.01205,-0.05615,-0.00763,0.0,-0.0061,-0.02304,0.02243,0.00793,-0.04517
3.1415,-0.01694,-0.01541,-0.03159,0.21561,0.0119,-0.04288,-0.009,-0.00961,-0.06714,-0.00702,0.02197,-0.03372,-0.02777,0.0267,0.0174,-0.04532
3.142,-0.01419,-0.01099,-0.03143,0.18204,0.00244,-0.04364,-0.01144,-0.00916,-0.06302,-0.00702,0.02472,-0.04684,-0.0354,0.02899,0.01892,-0.047
3.1425,-0.01358,-0.00885,-0.0351,0.10803,-0.0145,-0.04776,-0.01282,-0.01099,-0.04639,-0.00885,0.00885,-0.05356,-0.04318,0.01312,0.01373,-0.04837
3.143,-0.01419,-0.01175,-0.04074,0.04211,-0.0354,-0.0528,-0.01373,-0.01205,-0.02426,-0.01328,-0.01282,-0.04669,-0.04761,-0.03143,0.00824,-0.04776
3.1435,-0.01602,-0.01892,-0.04333,-0.00854,-0.05615,-0.05585,-0.0119,-0.00977,-0.00015,-0.02319,-0.02792,0.0029,-0.04608,-0.09308,0.00641,-0.04456
3.144,-0.0174,-0.02838,-0.04135,-0.06866,-0.06454,-0.05585,-0.01251,-0.00671,0.02045,-0.03876,-0.03036,0.09796,-0.04074,-0.13641,0.00702,-0.04211
3.1445,-0.01587,-0.03693,-0.03693,-0.14526,-0.05966,-0.05325,-0.01953,-0.00656,0.03296,-0.05829,-0.00626,0.17365,-0.0354,-0.13031,0.00626,-0.04196
3.145,-0.0119,-0.04257,-0.03372,-0.20782,-0.04837,-0.04944,-0.03601,-0.00885,0.03448,-0.07217,0.05203,0.15198,-0.03265,-0.08133,0.00488,-0.04196
3.1455,-0.00748,-0.0444,-0.03204,-0.22934,-0.04349,-0.04745,-0.05234,-0.01251,0.02899,-0.07309,0.11841,0.04715,-0.03311,-0.02853,0.00687,-0.04349
3.146,-0.00565,-0.04379,-0.03052,-0.20828,-0.04532,-0.04684,-0.06012,-0.01373,0.02121,-0.06073,0.1413,-0.04196,-0.03403,-0.00137,0.00854,-0.04257
3.1465,-0.00443,-0.04181,-0.02792,-0.15244,-0.04364,-0.04822,-0.05585,-0.01251,0.01297,-0.04669,0.09354,-0.06042,-0.03387,0.00305,0.00748,-0.0415
3.147,-0.00137,-0.04013,-0.02609,-0.06744,-0.03784,-0.05051,-0.04532,-0.01205,0.00488,-0.0351,0.00381,-0.04333,-0.03113,0.00504,0.00626,-0.03967
3.1475,0.00229,-0.03906,-0.02838,0.01373,-0.03204,-0.05264,-0.03372,-0.01617,-0.00351,-0.02411,-0.07401,-0.04578,-0.02823,0.01221,0.00626,-0.04044
3.148,0.00351,-0.03815,-0.03174,0.03632,-0.03128,-0.0531,-0.02625,-0.02441,-0.01129,-0.01251,-0.11612,-0.07446,-0.02747,0.01816,0.00504,-0.04257
3.1485,0.00397,-0.03693,-0.03448,-0.01633,-0.03601,-0.05127,-0.02701,-0.03174,-0.01801,-0.00015,-0.12573,-0.09888,-0.02747,0.00946,0.00549,-0.04379
3.149,0.00473,-0.03479,-0.03464,-0.09033,-0.0383,-0.05005,-0.03998,-0.0325,-0.02289,0.00931,-0.12009,-0.09659,-0.02762,-0.01831,0.0061,-0.04272
3.1495,0.00748,-0.03311,-0.03601,-0.121,-0.03693,-0.04883,-0.05798,-0.02853,-0.02441,0.01602,-0.10849,-0.07324,-0.02762,-0.05219,0.0087,-0.03983
3.15,0.00992,-0.03174,-0.03845,-0.08896,-0.03281,-0.04669,-0.05722,-0.02441,-0.02167,0.01785,-0.09323,-0.04471,-0.0267,-0.06485,0.01297,-0.03693
3.1505,0.01129,-0.03143,-0.0412,-0.01877,-0.0296,-0.04333,-0.01953,-0.0177,-0.01862,0.0148,-0.0679,-0.01465,-0.02655,-0.05127,0.01404,-0.03708
3.151,0.01068,-0.03525,-0.04013,0.0531,-0.02823,-0.04089,0.03403,-0.0029,-0.01572,0.00854,-0.02518,0.01251,-0.02655,-0.02838,0.01053,-0.0386
3.1515,0.00961,-0.03967,-0.03418,0.09216,-0.02548,-0.04166,0.0589,0.01892,-0.01022,0.00061,0.02426,0.0174,-0.02792,-0.01114,0.00458,-0.04089
3.152,0.00717,-0.04257,-0.02594,0.0769,-0.02151,-0.04395,0.03906,0.03983,0.00153,-0.00626,0.04623,-0.00748,-0.03067,-0.00183,0.00122,-0.04028
3.1525,0.00366,-0.04425,-0.02045,0.01755,-0.01663,-0.04654,0.00244,0.04822,0.01755,-0.01358,0.0209,-0.04898,-0.03296,0.00656,0.00031,-0.03922
3.153,0.0,-0.04623,-0.02014,-0.0386,-0.00885,-0.04715,-0.01526,0.03876,0.03448,-0.01633,-0.02975,-0.09552,-0.03174,0.00961,0.00092,-0.0383
3.1535,-0.00504,-0.04822,-0.02365,-0.05234,0.00122,-0.0473,-0.01236,0.02075,0.04608,-0.01572,-0.07095,-0.14435,-0.0293,0.00793,0.00076,-0.03876
3.154,-0.00854,-0.05081,-0.02686,-0.03052,0.01221,-0.04608,-0.00671,0.00626,0.04822,-0.01007,-0.08881,-0.1651,-0.02838,0.00656,-0.00336,-0.03845
3.1545,-0.0116,-0.05295,-0.0296,-0.00656,0.02121,-0.04547,-0.00351,0.00061,0.03906,-0.00549,-0.09064,-0.10498,-0.02884,0.0058,-0.01419,-0.03784
3.155,-0.01419,-0.05371,-0.03372,0.00214,0.02182,-0.04486,-0.00198,-0.00061,0.02609,-0.00381,-0.09109,0.03616,-0.02884,0.00092,-0.02701,-0.03891
3.1555,-0.01572,-0.05478,-0.03784,0.00916,0.0058,-0.04318,0.00198,-0.00229,0.01587,-0.00687,-0.0885,0.15915,-0.0296,-0.01221,-0.0322,-0.04089
3.156,-0.01495,-0.05569,-0.03998,0.03021,-0.02823,-0.04196,0.00656,-0.00641,0.00656,-0.01114,-0.07721,0.16754,-0.03296,-0.0296,-0.02426,-0.03922
3.1565,-0.01038,-0.05341,-0.04196,0.05341,-0.06119,-0.04074,0.00961,-0.01541,-0.00717,-0.01282,-0.06149,0.0827,-0.03601,-0.0444,-0.00977,-0.03723
3.157,-0.00595,-0.05051,-0.04578,0.05692,-0.06866,-0.04105,0.01083,-0.02869,-0.02029,-0.01419,-0.0502,0.00656,-0.0354,-0.04913,0.00305,-0.0386
3.1575,-0.00412,-0.05173,-0.04745,0.03906,-0.04929,-0.0444,0.01022,-0.04013,-0.02106,-0.0174,-0.04944,-0.01205,-0.0325,-0.0412,0.00809,-0.04257
3.158,-0.00656,-0.05905,-0.04715,0.02655,-0.02106,-0.04654,0.00732,-0.05005,-0.00793,-0.02167,-0.05585,-0.0058,-0.03006,-0.02731,0.0116,-0.04486
3.1585,-0.01099,-0.06927,-0.04608,0.04532,-0.00366,-0.04623,0.00137,-0.05615,0.00458,-0.02441,-0.05661,-0.01022,-0.0296,-0.01678,0.0209,-0.04318
3.159,-0.0174,-0.07721,-0.04547,0.09964,-0.00137,-0.04486,-0.00671,-0.05325,0.0087,-0.02625,-0.04379,-0.02319,-0.03098,-0.0148,0.03372,-0.04013
3.1595,-0.02151,-0.08163,-0.04486,0.1712,-0.00839,-0.04593,-0.01373,-0.03616,0.00641,-0.02731,-0.02304,-0.03479,-0.02991,-0.01572,0.047,-0.03983
3.16,-0.01816,-0.0795,-0.04257,0.22476,-0.01923,-0.04852,-0.01862,-0.00214,0.00244,-0.02777,-0.00656,-0.0444,-0.02747,-0.01465,0.05554,-0.03998
3.1605,-0.00763,-0.07065,-0.04196,0.22278,-0.02701,-0.05035,-0.02716,0.03555,-0.00427,-0.02823,0.0,-0.05295,-0.02563,-0.01282,0.05142,-0.04013
3.161,0.00305,-0.05783,-0.04211,0.1532,-0.02319,-0.04929,-0.04013,0.05814,-0.01404,-0.02716,0.00275,-0.05371,-0.02655,-0.01328,0.0351,-0.04196
3.1615,0.00946,-0.04883,-0.0444,0.04272,-0.01434,-0.04944,-0.05402,0.06165,-0.02274,-0.02457,0.01251,-0.04593,-0.0296,-0.01572,0.01709,-0.04562
3.162,0.01114,-0.04684,-0.04761,-0.05753,-0.02045,-0.04974,-0.06134,0.0528,-0.02533,-0.0238,0.0325,-0.0267,-0.0322,-0.01785,0.00885,-0.04929
3.1625,0.00946,-0.04822,-0.05539,-0.11673,-0.04608,-0.05112,-0.06119,0.03983,-0.0267,-0.02579,0.05569,0.0177,-0.03159,-0.01617,0.01129,-0.05051
3.163,0.00717,-0.04517,-0.06393,-0.14618,-0.07339,-0.05249,-0.05859,0.0264,-0.03616,-0.03021,0.06622,0.08652,-0.02914,-0.01114,0.01541,-0.04837
3.1635,0.00626,-0.03555,-0.06683,-0.17441,-0.08148,-0.05219,-0.05432,0.01343,-0.05554,-0.03708,0.05432,0.13885,-0.0238,-0.00275,0.01389,-0.04425
3.164,0.00763,-0.02502,-0.06424,-0.20798,-0.08087,-0.05096,-0.04333,0.00259,-0.07324,-0.04562,0.02777,0.12817,-0.01801,0.00809,0.00916,-0.04242
3.1645,0.01068,-0.01678,-0.05692,-0.2359,-0.08682,-0.0499,-0.02304,-0.00351,-0.07629,-0.05432,0.00458,0.06058,-0.01434,0.0177,0.00656,-0.04181
3.165,0.01251,-0.01175,-0.04837,-0.25528,-0.10101,-0.05081,-0.00427,-0.00687,-0.06485,-0.05966,-0.00519,-0.00961,-0.01434,0.02045,0.00748,-0.03983
3.1655,0.0119,-0.00839,-0.03632,-0.26428,-0.10986,-0.05142,0.00153,-0.00916,-0.04578,-0.06088,-0.00443,-0.04242,-0.0177,0.00809,0.00641,-0.03799
3.166,0.00641,-0.00534,-0.02686,-0.25574,-0.10315,-0.05219,-0.0058,-0.00885,-0.02716,-0.05844,-0.00443,-0.04532,-0.02548,-0.01541,0.00504,-0.03769
3.1665,-0.00351,-0.0029,-0.02014,-0.22888,-0.08286,-0.0528,-0.0174,-0.0061,-0.01221,-0.05508,-0.01022,-0.03983,-0.03906,-0.03052,0.00381,-0.04028
3.167,-0.01587,-0.00061,-0.01678,-0.20111,-0.06012,-0.0528,-0.02533,-0.00153,-0.00305,-0.05096,-0.01801,-0.03525,-0.05478,-0.01587,0.00381,-0.04349
3.1675,-0.0296,-0.00092,-0.01373,-0.19547,-0.04501,-0.05203,-0.02777,0.00137,-0.00137,-0.04562,-0.02151,-0.0264,-0.06195,0.02808,0.00397,-0.04562
3.168,-0.04044,-0.00626,-0.01205,-0.21011,-0.03845,-0.05188,-0.0267,0.00214,-0.00748,-0.03845,-0.02029,-0.01083,-0.056,0.06973,0.0029,-0.04456
3.1685,-0.04379,-0.01526,-0.0116,-0.22202,-0.03479,-0.05325,-0.02258,0.0,-0.01999,-0.02777,-0.01968,0.0087,-0.04333,0.06973,-0.00046,-0.04364
3.169,-0.03799,-0.02441,-0.01343,-0.215,-0.02563,-0.05173,-0.01923,-0.0029,-0.03082,-0.0174,-0.02151,0.02838,-0.03189,0.00565,0.00153,-0.04318
3.1695,-0.02594,-0.02884,-0.01663,-0.20691,-0.01251,-0.04929,-0.02045,-0.00397,-0.02838,-0.00671,-0.02609,0.04623,-0.02197,-0.09323,0.00351,-0.04303
3.17,-0.01328,-0.02655,-0.02029,-0.21866,0.0,-0.04822,-0.02823,-0.00351,-0.0119,0.00412,-0.02625,0.0621,-0.01465,-0.15747,0.00626,-0.04364
3.1705,-0.00443,-0.02197,-0.02655,-0.23636,0.0061,-0.04547,-0.03891,-0.00351,0.00717,0.0145,-0.01923,0.07431,-0.01785,-0.13748,0.00763,-0.04349
3.171,0.00031,-0.02182,-0.02991,-0.20325,0.00275,-0.04257,-0.04501,-0.00259,0.02029,0.02274,-0.00793,0.07645,-0.03632,-0.06683,0.00717,-0.04196
3.1715,0.00061,-0.02441,-0.0293,-0.08087,-0.01404,-0.03967,-0.04288,-0.00153,0.0235,0.0296,0.00122,0.06409,-0.06012,-0.01938,0.00534,-0.04028
3.172,-0.00076,-0.02747,-0.02747,0.10422,-0.04318,-0.03937,-0.03616,-0.00275,0.02045,0.03372,0.00565,0.04013,-0.06882,-0.02472,0.00473,-0.03967
3.1725,-0.00305,-0.03143,-0.02716,0.2626,-0.06622,-0.04227,-0.02686,-0.00717,0.01419,0.03601,0.00626,0.01678,-0.05722,-0.05203,0.00412,-0.04044
3.173,-0.00275,-0.03586,-0.02991,0.32059,-0.07065,-0.047,-0.01617,-0.01144,0.00839,0.03586,0.00366,-0.00122,-0.04105,-0.06775,0.0029,-0.03998
3.1735,-0.00198,-0.03998,-0.02899,0.27878,-0.05707,-0.05096,-0.00534,-0.01358,0.00565,0.03265,-0.00168,-0.01648,-0.03464,-0.06424,0.00259,-0.03983
3.174,-0.00198,-0.04379,-0.02747,0.19775,-0.04181,-0.05295,0.00671,-0.01419,0.00504,0.02426,-0.00992,-0.03052,-0.0354,-0.05219,0.00046,-0.04044
3.1745,-0.00244,-0.04776,-0.02701,0.13504,-0.03174,-0.05066,0.01892,-0.01328,-0.00031,0.00626,-0.0206,-0.0322,-0.03647,-0.04257,0.00214,-0.04135
3.175,-0.0029,-0.05219,-0.0293,0.10941,-0.02609,-0.04837,0.02853,-0.01144,-0.01022,-0.02289,-0.02747,-0.0029,-0.03708,-0.03891,0.00458,-0.04105
3.1755,-0.00153,-0.05707,-0.03281,0.11627,-0.02136,-0.04501,0.03311,-0.00977,-0.02243,-0.05112,-0.02731,0.05325,-0.03891,-0.03632,0.00641,-0.04028
3.176,0.00137,-0.06226,-0.03693,0.15182,-0.01282,-0.04181,0.02945,-0.00793,-0.03616,-0.06531,-0.02213,0.09628,-0.04028,-0.03052,0.00854,-0.0415
3.1765,0.00534,-0.06805,-0.03967,0.21088,-0.00214,-0.03845,0.01999,-0.00732,-0.05432,-0.06073,-0.00946,0.0943,-0.03891,-0.01968,0.00961,-0.04105
3.177,0.00671,-0.07065,-0.03983,0.2655,0.00534,-0.03586,0.01038,-0.00732,-0.07858,-0.04745,0.0087,0.05432,-0.03601,-0.00793,0.00854,-0.0415
3.1775,0.00504,-0.06897,-0.03876,0.26749,0.00549,-0.03403,0.00397,-0.00748,-0.10437,-0.03265,0.02838,0.01038,-0.0351,0.00229,0.00809,-0.04196
3.178,0.00458,-0.06592,-0.03632,0.1973,0.00137,-0.03494,0.0,-0.00397,-0.12024,-0.01801,0.03677,-0.01511,-0.03662,0.01266,0.00793,-0.04303
3.1785,0.00595,-0.06485,-0.03647,0.09796,-0.00366,-0.03693,-0.00412,-0.00015,-0.11734,-0.00305,0.02808,-0.01801,-0.03677,0.01846,0.0087,-0.04349
3.179,0.00793,-0.06561,-0.03662,0.03342,-0.00977,-0.0383,-0.00809,-0.00076,-0.09766,0.00961,0.00824,-0.00381,-0.03494,0.00931,0.00809,-0.04303
3.1795,0.00839,-0.06653,-0.0354,0.02365,-0.02457,-0.04028,-0.01236,-0.00702,-0.07446,0.01801,-0.01083,0.01053,-0.03265,-0.01556,0.00381,-0.04089
3.18,0.00641,-0.06592,-0.03418,0.04318,-0.04807,-0.04257,-0.01862,-0.01801,-0.05463,0.01938,-0.02457,-0.00031,-0.03174,-0.03723,-0.00366,-0.03632
3.1805,0.00351,-0.06592,-0.03311,0.06897,-0.06882,-0.04532,-0.03113,-0.03113,-0.03555,0.01511,-0.0354,-0.04684,-0.03052,-0.03693,-0.01419,-0.03418
3.181,0.00031,-0.06897,-0.03387,0.0824,-0.06882,-0.04852,-0.04623,-0.04105,-0.01633,0.00885,-0.04089,-0.09735,-0.02823,-0.01862,-0.02487,-0.0351
3.1815,-0.00153,-0.07385,-0.03479,0.06073,-0.05035,-0.05325,-0.05569,-0.04822,-0.00626,0.00061,-0.03937,-0.10803,-0.02594,-0.00092,-0.02991,-0.03799
3.182,-0.0029,-0.07614,-0.03525,0.00153,-0.03265,-0.05646,-0.05157,-0.05539,-0.0116,-0.0061,-0.0293,-0.07141,-0.02594,0.0116,-0.02563,-0.03967
3.1825,-0.00458,-0.07233,-0.03555,-0.05463,-0.02991,-0.05661,-0.04105,-0.06516,-0.02151,-0.01114,-0.01556,-0.01953,-0.02777,0.02518,-0.01236,-0.04059
3.183,-0.00885,-0.06607,-0.03677,-0.07187,-0.03342,-0.05249,-0.03616,-0.07477,-0.02319,-0.0145,-0.00519,0.0174,-0.02899,0.03204,0.00519,-0.04135
3.1835,-0.01465,-0.06226,-0.0383,-0.05768,-0.02853,-0.04761,-0.04211,-0.07126,-0.0145,-0.01434,-0.00549,0.03571,-0.03021,0.01205,0.02365,-0.0415
3.184,-0.01663,-0.06241,-0.03967,-0.04242,-0.01709,-0.04578,-0.05112,-0.03983,-0.00336,-0.01556,-0.01389,0.03738,-0.03174,-0.02991,0.03738,-0.04333
3.1845,-0.01053,-0.06104,-0.04059,-0.04028,-0.00916,-0.04639,-0.05112,0.01572,0.00626,-0.01755,-0.01877,0.02335,-0.03281,-0.06027,0.04333,-0.04364
3.185,-0.00351,-0.05615,-0.0412,-0.04364,-0.01022,-0.04776,-0.03922,0.06943,0.01465,-0.02426,-0.01221,-0.00122,-0.03265,-0.05569,0.04181,-0.04547
3.1855,-0.00259,-0.05051,-0.04272,-0.04791,-0.01495,-0.04684,-0.01877,0.09079,0.02136,-0.03036,0.00061,-0.02701,-0.03235,-0.03265,0.0386,-0.04639
3.186,-0.00641,-0.0444,-0.04608,-0.05341,-0.02045,-0.04776,0.0058,0.07294,0.02563,-0.03098,0.0116,-0.05325,-0.03128,-0.01694,0.04074,-0.04639
3.1865,-0.01007,-0.0351,-0.047,-0.06012,-0.02655,-0.04929,0.0293,0.04028,0.02716,-0.02914,0.01266,-0.08118,-0.03189,-0.01526,0.03983,-0.04486
3.187,-0.00977,-0.02029,-0.0441,-0.06287,-0.03418,-0.05173,0.03632,0.01938,0.02457,-0.02792,0.00687,-0.09781,-0.03372,-0.01648,0.02518,-0.04318
3.1875,-0.0087,0.00092,-0.04135,-0.05905,-0.03662,-0.05264,0.02106,0.02045,0.01755,-0.03265,-0.00137,-0.08377,-0.03342,-0.01434,0.00061,-0.04364
3.188,-0.01053,0.02411,-0.0386,-0.05157,-0.03098,-0.05249,0.00458,0.02625,0.00839,-0.0473,-0.00702,-0.04944,-0.03082,-0.01129,-0.02106,-0.04608
3.1885,-0.01266,0.03922,-0.03586,-0.04395,-0.0206,-0.0528,0.00809,0.01343,0.00031,-0.07324,-0.00992,-0.02716,-0.0264,-0.00916,-0.03632,-0.04868
3.189,-0.01099,0.04013,-0.03326,-0.03845,-0.01526,-0.0528,0.02472,-0.02579,-0.00839,-0.09476,-0.01038,-0.02884,-0.02594,-0.00549,-0.04822,-0.0499
3.1895,-0.00778,0.03021,-0.03204,-0.03494,-0.01663,-0.05264,0.03311,-0.07492,-0.01633,-0.10178,-0.00824,-0.02884,-0.02701,0.00198,-0.06012,-0.04883
3.19,-0.00458,0.01877,-0.03082,-0.03204,-0.0238,-0.05295,0.02594,-0.10544,-0.02045,-0.09109,-0.00687,0.00092,-0.02579,0.01144,-0.06088,-0.04593
3.1905,-0.00473,0.00854,-0.02899,-0.03098,-0.0351,-0.05356,0.01556,-0.10651,-0.01938,-0.07034,-0.00732,0.06058,-0.02441,0.01587,-0.03479,-0.04318
3.191,-0.00626,-0.00137,-0.02655,-0.02899,-0.04822,-0.05249,0.01205,-0.08621,-0.0145,-0.04639,-0.00809,0.11856,-0.02411,0.0119,0.01251,-0.04044
3.1915,-0.00931,-0.01221,-0.02426,-0.02609,-0.05707,-0.05035,0.01083,-0.05646,-0.0119,-0.02289,-0.00626,0.14191,-0.0264,0.00381,0.05325,-0.03876
3.192,-0.01526,-0.0235,-0.0235,-0.02243,-0.05447,-0.04822,0.00381,-0.01709,-0.01312,0.00198,-0.00427,0.11963,-0.02838,-0.00305,0.06104,-0.03693
3.1925,-0.02365,-0.03189,-0.02167,-0.02136,-0.04532,-0.04761,-0.00504,0.04227,-0.01572,0.02258,-0.00992,0.07675,-0.02991,-0.00473,0.04486,-0.03677
3.193,-0.03021,-0.03754,-0.02014,-0.02182,-0.03677,-0.04837,-0.01053,0.11398,-0.01923,0.03479,-0.03204,0.05035,-0.0293,-0.00061,0.03372,-0.03738
3.1935,-0.03082,-0.04105,-0.02533,-0.02228,-0.03281,-0.04761,-0.01083,0.16174,-0.02151,0.03647,-0.07065,0.0589,-0.02533,0.00778,0.0412,-0.03922
3.194,-0.02655,-0.0444,-0.03403,-0.02258,-0.03128,-0.04883,-0.01068,0.15182,-0.02258,0.02945,-0.10971,0.08453,-0.02029,0.01694,0.05341,-0.03906
3.1945,-0.01938,-0.04929,-0.04059,-0.02365,-0.02792,-0.04883,-0.01709,0.09598,-0.02228,0.0206,-0.12482,0.09384,-0.0177,0.01083,0.05508,-0.0386
3.195,-0.01099,-0.05539,-0.03967,-0.02426,-0.01862,-0.05005,-0.02823,0.03799,-0.01846,0.01328,-0.11093,0.07202,-0.01999,-0.02197,0.04547,-0.03906
3.1955,-0.00015,-0.0618,-0.03586,-0.02426,-0.00397,-0.05051,-0.04105,0.0058,-0.01205,0.00565,-0.08499,0.0267,-0.02304,-0.07401,0.03418,-0.0412
3.196,0.0119,-0.06744,-0.03555,-0.02335,0.01083,-0.04868,-0.05386,-0.01373,-0.00443,-0.00427,-0.06378,-0.02838,-0.02823,-0.11185,0.02518,-0.04196
3.1965,0.02121,-0.06927,-0.04181,-0.02151,0.01678,-0.04639,-0.06714,-0.03937,0.00061,-0.01404,-0.04761,-0.07904,-0.03784,-0.11368,0.01862,-0.04181
3.197,0.02167,-0.06775,-0.05188,-0.01984,0.009,-0.04364,-0.07568,-0.06409,0.00183,-0.01862,-0.02014,-0.10712,-0.04578,-0.08347,0.00626,-0.04166
3.1975,0.01297,-0.06393,-0.05859,-0.01663,-0.01266,-0.04227,-0.07339,-0.05859,0.00137,-0.0174,0.03494,-0.10712,-0.04532,-0.04837,-0.01175,-0.0441
3.198,0.00137,-0.06393,-0.05981,-0.01404,-0.03586,-0.04135,-0.05905,-0.01663,0.00183,-0.01373,0.1059,-0.0946,-0.03098,-0.02518,-0.02747,-0.04578
3.1985,-0.00687,-0.06744,-0.05722,-0.01389,-0.04715,-0.04074,-0.03647,0.02228,0.00229,-0.00946,0.15289,-0.08514,-0.01373,-0.01724,-0.0351,-0.04608
3.199,-0.01053,-0.07004,-0.05386,-0.01556,-0.04822,-0.03983,-0.00946,0.02029,-0.00046,-0.00534,0.14282,-0.07813,-0.00504,-0.02014,-0.03616,-0.04486
3.1995,-0.0116,-0.0676,-0.05051,-0.01923,-0.04654,-0.03845,0.01251,-0.01312,-0.00778,0.00076,0.09277,-0.05844,-0.00671,-0.02228,-0.03342,-0.04395
3.2,-0.00931,-0.06226,-0.04669,-0.02106,-0.04105,-0.03693,0.01907,-0.03845,-0.01816,0.00992,0.04471,-0.02182,-0.01312,-0.02029,-0.02823,-0.04608
3.2005,-0.0029,-0.05951,-0.04303,-0.0206,-0.0209,-0.03647,0.00931,-0.0351,-0.03021,0.01907,0.01953,0.0177,-0.01633,-0.01373,-0.01862,-0.04715
3.201,0.00473,-0.06119,-0.03815,-0.0177,0.01114,-0.03754,-0.00381,-0.01999,-0.04608,0.0235,0.00351,0.0441,-0.01663,-0.01022,-0.00839,-0.04623
3.2015,0.00946,-0.06348,-0.03296,-0.01312,0.04181,-0.03983,-0.00702,-0.01495,-0.06149,0.0206,-0.01633,0.05081,-0.01984,-0.01297,-0.00168,-0.04547
3.202,0.00809,-0.06302,-0.02609,-0.00778,0.05539,-0.0415,0.00031,-0.02106,-0.0705,0.01205,-0.03464,0.04318,-0.03403,-0.01862,0.00732,-0.04471
3.2025,0.00092,-0.06058,-0.01846,-0.00305,0.05188,-0.04333,0.00565,-0.02136,-0.06699,0.00473,-0.0383,0.02609,-0.05737,-0.02182,0.03006,-0.04623
3.203,-0.00992,-0.05707,-0.00916,-0.00214,0.03601,-0.04501,0.0029,-0.00565,-0.05493,-0.00046,-0.02182,0.00549,-0.07553,-0.02213,0.06256,-0.04837
3.2035,-0.01968,-0.05096,-0.00198,-0.00443,0.01038,-0.04654,-0.00626,0.0209,-0.04272,-0.00641,0.00488,-0.00824,-0.07462,-0.02045,0.07721,-0.04929
3.204,-0.02274,-0.0441,-0.00305,-0.00931,-0.02869,-0.04761,-0.01495,0.04074,-0.0325,-0.01678,0.02991,-0.00946,-0.06119,-0.01678,0.05875,-0.04745
3.2045,-0.01724,-0.03464,-0.01389,-0.01236,-0.07645,-0.04684,-0.01495,0.03876,-0.0238,-0.03036,0.04288,-0.00061,-0.04837,-0.00854,0.02716,-0.04501
3.205,-0.00977,-0.02609,-0.02747,-0.01282,-0.11536,-0.04562,-0.00885,0.02304,-0.01999,-0.04089,0.04059,0.00732,-0.04288,-0.00015,0.00748,-0.04379
3.2055,-0.0032,-0.02045,-0.03555,-0.01282,-0.12619,-0.04501,-0.00183,0.01083,-0.01816,-0.04486,0.0322,0.01434,-0.0444,0.00565,0.00153,-0.04288
3.206,0.00214,-0.02029,-0.03616,-0.01373,-0.1152,-0.04517,0.00351,0.00687,-0.0148,-0.04517,0.02502,0.02029,-0.04608,0.009,-0.0029,-0.04211
3.2065,0.00702,-0.02457,-0.03403,-0.01633,-0.1059,-0.04684,0.00214,-0.00092,-0.00824,-0.04532,0.02274,0.0267,-0.04578,0.01038,-0.00793,-0.04028
3.207,0.01068,-0.03021,-0.03464,-0.01846,-0.11124,-0.04868,-0.01144,-0.01923,-0.00656,-0.04974,0.01953,0.02823,-0.04425,0.00916,-0.00809,-0.03891
3.2075,0.0116,-0.03494,-0.03448,-0.01724,-0.11963,-0.04898,-0.03326,-0.0412,-0.01251,-0.05966,0.00961,0.02136,-0.04227,0.00504,-0.00259,-0.03922
3.208,0.0116,-0.03815,-0.03708,-0.01205,-0.11642,-0.04807,-0.04883,-0.05173,-0.01633,-0.06866,-0.00671,-0.00366,-0.04242,0.00137,0.0032,-0.04257
3.2085,0.01175,-0.03937,-0.04288,-0.00381,-0.10178,-0.04761,-0.04868,-0.04837,-0.01083,-0.07126,-0.02594,-0.0444,-0.04211,-0.00076,0.00854,-0.04379
3.209,0.0116,-0.03891,-0.04852,-0.00092,-0.08301,-0.047,-0.03311,-0.04257,-0.00198,-0.0705,-0.04486,-0.08072,-0.0412,-0.00793,0.01389,-0.04272
3.2095,0.01144,-0.03723,-0.04898,-0.00763,-0.06485,-0.04593,-0.00793,-0.03723,0.00458,-0.07172,-0.06546,-0.08957,-0.03952,-0.02594,0.02045,-0.04044
3.21,0.01083,-0.03677,-0.04395,-0.01968,-0.04929,-0.04425,0.0174,-0.01465,0.01266,-0.07523,-0.08636,-0.07462,-0.03784,-0.04654,0.02563,-0.03952
3.2105,0.00717,-0.03983,-0.03998,-0.0264,-0.03738,-0.04578,0.03433,0.03372,0.02686,-0.07507,-0.09293,-0.06897,-0.03677,-0.05356,0.02609,-0.03937
3.211,-0.00031,-0.04501,-0.03845,-0.02075,-0.03082,-0.04944,0.03662,0.07843,0.04257,-0.06531,-0.0592,-0.09369,-0.03601,-0.04196,0.0209,-0.04074
3.2115,-0.01068,-0.04807,-0.0351,-0.00702,-0.02762,-0.05219,0.03036,0.08423,0.04898,-0.04776,0.01892,-0.12558,-0.03479,-0.02182,0.01068,-0.0412
3.212,-0.01953,-0.04623,-0.02838,0.00687,-0.03113,-0.05203,0.02197,0.04868,0.04349,-0.03189,0.09918,-0.11307,-0.03265,-0.00687,-0.00641,-0.04074
3.2125,-0.02441,-0.0415,-0.02106,0.01648,-0.03815,-0.05081,0.01587,-0.00305,0.02945,-0.0209,0.11688,-0.03082,-0.03098,-0.00214,-0.02945,-0.03952
3.213,-0.02563,-0.0354,-0.01526,0.01816,-0.04211,-0.04959,0.00992,-0.06393,0.00992,-0.01358,0.05875,0.07507,-0.02991,-0.01007,-0.05035,-0.03967
3.2135,-0.0238,-0.02838,-0.01205,0.01144,-0.0325,-0.04868,0.00275,-0.12283,-0.01389,-0.00748,-0.02991,0.12207,-0.02869,-0.02853,-0.06454,-0.04089
3.214,-0.02182,-0.02274,-0.01312,-0.00107,-0.00992,-0.04883,-0.00793,-0.13199,-0.0383,-0.00305,-0.09796,0.09338,-0.02777,-0.04486,-0.07416,-0.04242
3.2145,-0.02396,-0.02197,-0.01511,-0.01663,0.0116,-0.05035,-0.02228,-0.056,-0.05646,0.00107,-0.13229,0.05203,-0.02609,-0.04074,-0.08057,-0.04288
3.215,-0.02716,-0.0264,-0.01877,-0.03128,0.01877,-0.05127,-0.04089,0.05249,-0.07263,0.00305,-0.14526,0.03845,-0.02426,-0.01968,-0.07935,-0.04196
3.2155,-0.02396,-0.03113,-0.02457,-0.03983,0.01266,-0.05325,-0.05829,0.10406,-0.09689,0.00031,-0.15076,0.01053,-0.0238,-0.00916,-0.05753,-0.03998
3.216,-0.01251,-0.03403,-0.0325,-0.03784,-0.00412,-0.056,-0.07401,0.08087,-0.12253,-0.00732,-0.15244,-0.08118,-0.02548,-0.02243,0.00122,-0.03799
3.2165,0.00015,-0.03876,-0.04089,-0.02975,-0.02945,-0.05783,-0.08514,0.0386,-0.12711,-0.01328,-0.14923,-0.20142,-0.02823,-0.03525,0.08942,-0.03525
3.217,0.00671,-0.0441,-0.04562,-0.02289,-0.05463,-0.05768,-0.08972,0.01053,-0.09949,-0.01373,-0.1387,-0.24384,-0.0296,-0.01892,0.16403,-0.03418
3.2175,0.00671,-0.04883,-0.04593,-0.02014,-0.06271,-0.05493,-0.07965,-0.01144,-0.05646,-0.009,-0.12192,-0.13992,-0.02792,0.01816,0.17212,-0.03433
3.218,0.00473,-0.0502,-0.04318,-0.01999,-0.04822,-0.05219,-0.05646,-0.03342,-0.01785,0.00061,-0.10788,0.05142,-0.02548,0.03769,0.11703,-0.03723
3.2185,0.00443,-0.0499,-0.03998,-0.01968,-0.02609,-0.05066,-0.02823,-0.04379,0.0145,0.00977,-0.10117,0.18204,-0.02594,0.01816,0.05295,-0.04013
3.219,0.00763,-0.04791,-0.03662,-0.01831,-0.01099,-0.0531,-0.0032,-0.03632,0.04578,0.01724,-0.09232,0.16922,-0.02747,-0.02136,0.01968,-0.04257
3.2195,0.01129,-0.04578,-0.03433,-0.01785,-0.0029,-0.05676,0.01709,-0.03098,0.07507,0.02213,-0.07019,0.07462,-0.02594,-0.05096,0.00992,-0.0444
3.22,0.01343,-0.04211,-0.03311,-0.01953,0.00397,-0.05936,0.03021,-0.04532,0.0943,0.02472,-0.03799,0.01389,-0.01999,-0.05997,0.00412,-0.04669
3.2205,0.01297,-0.03922,-0.0322,-0.02258,0.00717,-0.06012,0.03067,-0.06516,0.09537,0.02731,-0.01099,0.01938,-0.00992,-0.05325,-0.00275,-0.04852
3.221,0.01068,-0.03647,-0.03296,-0.02548,-0.00229,-0.06088,0.01572,-0.05188,0.07263,0.0296,0.00168,0.04776,-0.00183,-0.02991,-0.00504,-0.04776
3.2215,0.00824,-0.03464,-0.03281,-0.02594,-0.02289,-0.06119,-0.01129,0.01175,0.03174,0.03113,0.00488,0.06271,0.0,0.00366,0.00122,-0.04669
3.222,0.00641,-0.03403,-0.03265,-0.02426,-0.03845,-0.0618,-0.03799,0.0856,-0.00793,0.02991,0.00488,0.06851,-0.00732,0.03052,0.01663,-0.04639
3.2225,0.00275,-0.03464,-0.03418,-0.02136,-0.03876,-0.06256,-0.04333,0.1123,-0.03021,0.02777,0.00168,0.07355,-0.02213,0.03754,0.03464,-0.04639
3.223,-0.00046,-0.0351,-0.03662,-0.01801,-0.03693,-0.06149,-0.02533,0.08652,-0.03555,0.02457,-0.00732,0.06805,-0.03891,0.02396,0.03998,-0.04486
3.2235,-0.00397,-0.03464,-0.03983,-0.01526,-0.04959,-0.05936,-0.00549,0.05157,-0.03555,0.01923,-0.01694,0.04425,-0.05463,-0.01007,0.02518,-0.04196
3.224,-0.00824,-0.03738,-0.04074,-0.01221,-0.06775,-0.05768,-0.00687,0.0383,-0.03769,0.00839,-0.01877,0.01266,-0.06454,-0.06027,-0.00809,-0.04028
3.2245,-0.01282,-0.04395,-0.04135,-0.00595,-0.06897,-0.05615,-0.02213,0.03708,-0.03845,-0.00732,-0.00839,-0.01053,-0.06332,-0.10468,-0.04333,-0.04135
3.225,-0.01541,-0.05157,-0.04257,0.00229,-0.04608,-0.05707,-0.03525,0.02914,-0.03571,-0.02335,0.00763,-0.02304,-0.05341,-0.11429,-0.06668,-0.04349
3.2255,-0.0145,-0.05692,-0.04547,0.01297,-0.01648,-0.05707,-0.03799,0.01404,-0.03189,-0.03235,0.02289,-0.03113,-0.04303,-0.08652,-0.06973,-0.04517
3.226,-0.01205,-0.06012,-0.05005,0.02869,0.00015,-0.05737,-0.03128,0.00107,-0.02945,-0.03494,0.03311,-0.04074,-0.03845,-0.04807,-0.06241,-0.04471
3.2265,-0.01007,-0.06271,-0.05402,0.05829,0.00504,-0.0592,-0.02426,-0.00793,-0.0296,-0.03632,0.03799,-0.05142,-0.0383,-0.02808,-0.05356,-0.04211
3.227,-0.00839,-0.0647,-0.05646,0.09369,0.00702,-0.06195,-0.02563,-0.01556,-0.0296,-0.03891,0.03769,-0.05844,-0.03845,-0.03372,-0.05264,-0.03983
3.2275,-0.00549,-0.06622,-0.05615,0.11353,0.00656,-0.06149,-0.03677,-0.02441,-0.03204,-0.04425,0.03616,-0.0589,-0.03815,-0.05493,-0.04715,-0.03967
3.228,-0.0032,-0.06424,-0.0528,0.09476,-0.00259,-0.05829,-0.05035,-0.03418,-0.04013,-0.05081,0.04105,-0.05127,-0.03693,-0.06775,-0.02106,-0.04227
3.2285,-0.00305,-0.06088,-0.04562,0.03555,-0.02213,-0.056,-0.05478,-0.04517,-0.05249,-0.05615,0.0531,-0.03418,-0.03632,-0.05722,0.01862,-0.04532
3.229,-0.0058,-0.05875,-0.03662,-0.04684,-0.04547,-0.05386,-0.05035,-0.05219,-0.06088,-0.05936,0.05905,-0.0145,-0.03525,-0.0322,0.04135,-0.04761
3.2295,-0.01221,-0.05554,-0.03082,-0.13321,-0.06134,-0.05402,-0.03937,-0.05157,-0.0563,-0.06256,0.04761,-0.00534,-0.03189,-0.01251,0.03403,-0.04913
3.23,-0.02014,-0.05173,-0.02975,-0.21439,-0.05997,-0.05661,-0.02792,-0.04547,-0.03998,-0.06363,0.02411,-0.01434,-0.02243,-0.00549,0.02792,-0.05096
3.2305,-0.02655,-0.04669,-0.03464,-0.28351,-0.04517,-0.06104,-0.01755,-0.03983,-0.01953,-0.06424,0.00351,-0.02487,-0.00656,-0.00687,0.05264,-0.05234
3.231,-0.02823,-0.04211,-0.04089,-0.32288,-0.0293,-0.0621,-0.00366,-0.0351,-0.00259,-0.06454,-0.00961,-0.0119,0.00351,-0.01556,0.08087,-0.05264
3.2315,-0.02686,-0.03571,-0.04745,-0.30991,-0.01801,-0.05829,0.01495,-0.02991,0.01053,-0.06638,-0.01831,0.02502,-0.00381,-0.03113,0.07217,-0.05203
3.232,-0.02426,-0.02747,-0.05356,-0.23239,-0.0116,-0.0528,0.03418,-0.02075,0.01907,-0.07294,-0.02213,0.06195,-0.02853,-0.0441,0.03372,-0.04868
3.2325,-0.02121,-0.01801,-0.05768,-0.09537,-0.00992,-0.04944,0.04822,-0.01251,0.02365,-0.07828,-0.01663,0.07813,-0.05371,-0.04013,0.00961,-0.04425
3.233,-0.01663,-0.00854,-0.05615,0.06516,-0.0116,-0.04593,0.04791,-0.009,0.02518,-0.07584,-0.00626,0.07126,-0.06149,-0.02167,0.01999,-0.04013
3.2335,-0.01129,-0.00336,-0.04593,0.19638,-0.01663,-0.04318,0.03586,-0.01343,0.02426,-0.065,-0.00198,0.05096,-0.04974,-0.00793,0.03845,-0.03799
3.234,-0.0029,-0.00504,-0.02823,0.25909,-0.02213,-0.04196,0.0206,-0.02472,0.02228,-0.05264,-0.00534,0.02213,-0.03143,-0.00641,0.03769,-0.03525
3.2345,0.00671,-0.01144,-0.01007,0.25955,-0.0267,-0.0415,0.01236,-0.04242,0.01953,-0.04471,-0.009,-0.01205,-0.02029,-0.0029,0.02335,-0.03143
3.235,0.01343,-0.01617,0.00427,0.23499,-0.03235,-0.03998,0.00641,-0.06439,0.01984,-0.03937,-0.01312,-0.03448,-0.01907,0.01602,0.01251,-0.02884
3.2355,0.01266,-0.01984,0.01053,0.20416,-0.03647,-0.03937,-0.00412,-0.0853,0.02411,-0.0325,-0.01862,-0.02426,-0.02319,0.04013,0.01022,-0.02899
3.236,0.00656,-0.02396,0.01022,0.13519,-0.02853,-0.04166,-0.01938,-0.09018,0.0293,-0.02289,-0.02243,0.01129,-0.02823,0.04425,0.00961,-0.03235
3.2365,0.00046,-0.03128,0.00809,-0.00427,-0.00702,-0.04227,-0.02319,-0.0705,0.02853,-0.01221,-0.01984,0.02625,-0.02792,0.01373,0.01007,-0.03632
3.237,-0.00366,-0.03708,0.00504,-0.17273,0.01251,-0.04074,-0.01282,-0.03662,0.01923,-0.00397,-0.0116,-0.01007,-0.01816,-0.03586,0.00946,-0.04196
3.2375,-0.00427,-0.03876,0.00092,-0.26749,0.00549,-0.03998,-0.00076,-0.00946,0.00854,0.00137,-0.00656,-0.06241,-0.00275,-0.06836,0.00946,-0.05005
3.238,-0.00458,-0.03647,-0.00397,-0.22415,-0.03464,-0.04135,0.00198,0.00214,0.00443,0.00504,-0.009,-0.06531,0.00961,-0.06287,0.00854,-0.05646
3.2385,-0.00504,-0.0351,-0.00702,-0.0737,-0.08148,-0.04272,-0.00275,0.00702,0.00549,0.009,-0.01297,-0.00641,0.01282,-0.03632,0.00748,-0.05707
3.239,-0.00763,-0.03555,-0.01083,0.09766,-0.10208,-0.04364,-0.00717,0.01846,0.00259,0.01266,-0.01007,0.05188,0.00885,-0.02014,0.00702,-0.0528
3.2395,-0.01099,-0.0383,-0.01678,0.21423,-0.08728,-0.04532,-0.01068,0.0383,-0.00961,0.01663,-0.00259,0.05966,-0.00061,-0.02563,0.00839,-0.0473
3.24,-0.01587,-0.04257,-0.02502,0.23666,-0.05737,-0.04807,-0.01511,0.05676,-0.02502,0.01831,0.00137,0.04059,-0.02258,-0.03433,0.00824,-0.04272
3.2405,-0.02258,-0.04944,-0.03143,0.16312,-0.0351,-0.04974,-0.01953,0.06638,-0.03479,0.01541,-0.00107,0.05203,-0.06439,-0.0322,0.00732,-0.03876
3.241,-0.03067,-0.05783,-0.03586,0.02899,-0.02457,-0.04517,-0.01953,0.06317,-0.0412,0.00504,-0.00534,0.09232,-0.11337,-0.02014,0.00534,-0.03708
3.2415,-0.03952,-0.0647,-0.0354,-0.09445,-0.01862,-0.03922,-0.01801,0.0502,-0.05051,-0.01053,-0.00687,0.11566,-0.13626,-0.00885,0.00336,-0.03647
3.242,-0.04501,-0.06958,-0.03342,-0.14389,-0.01083,-0.03662,-0.02045,0.03708,-0.06165,-0.02396,-0.00381,0.09842,-0.11688,0.00214,-0.00046,-0.03937
3.2425,-0.04578,-0.0708,-0.03265,-0.11841,-0.0032,-0.03845,-0.02884,0.03159,-0.06424,-0.03052,-0.00183,0.06012,-0.07721,0.01602,-0.0029,-0.0444
3.243,-0.04044,-0.0679,-0.03586,-0.07065,0.00427,-0.04257,-0.03967,0.0322,-0.05463,-0.03403,-0.00198,0.02548,-0.04547,0.02853,-0.00381,-0.04562
3.2435,-0.0322,-0.06226,-0.04425,-0.01663,0.01144,-0.04532,-0.04547,0.03098,-0.03876,-0.03693,-0.00427,0.0061,-0.03052,0.02701,-0.00366,-0.04318
3.244,-0.02579,-0.05402,-0.06119,0.06195,0.01648,-0.04623,-0.04242,0.0264,-0.02777,-0.04166,-0.00931,0.0032,-0.02777,0.00458,-0.0032,-0.03937
3.2445,-0.02182,-0.04669,-0.08606,0.14404,0.01053,-0.04578,-0.03693,0.02213,-0.02365,-0.04837,-0.01328,0.00549,-0.02808,-0.0238,-0.00168,-0.03922
3.245,-0.01984,-0.04089,-0.11383,0.15579,-0.01282,-0.04349,-0.03342,0.0177,-0.0235,-0.06012,-0.01389,-0.00137,-0.02472,-0.0354,0.00046,-0.04318
3.2455,-0.01785,-0.03845,-0.13702,0.07858,-0.04715,-0.04166,-0.03067,0.01343,-0.02304,-0.07065,-0.01328,-0.02304,-0.01938,-0.02411,0.00122,-0.04715
3.246,-0.01694,-0.03555,-0.1535,-0.01572,-0.08163,-0.04196,-0.02396,0.00885,-0.02502,-0.07217,-0.01755,-0.04745,-0.02197,-0.00687,-0.00183,-0.04807
3.2465,-0.01572,-0.03174,-0.16174,-0.06012,-0.10544,-0.04318,-0.00977,0.00671,-0.02869,-0.06058,-0.02426,-0.06302,-0.03342,-0.00092,-0.0087,-0.04456
3.247,-0.01389,-0.0296,-0.15305,-0.06287,-0.10803,-0.04257,0.00977,0.00732,-0.03326,-0.03891,-0.02823,-0.06516,-0.04364,-0.00732,-0.01526,-0.04135
3.2475,-0.009,-0.02975,-0.11795,-0.06653,-0.08759,-0.03891,0.03098,0.00671,-0.03891,-0.01495,-0.02563,-0.05447,-0.04776,-0.01389,-0.01862,-0.03922
3.248,-0.00214,-0.02777,-0.05997,-0.07828,-0.04745,-0.03479,0.04196,0.00076,-0.04745,0.0087,-0.01923,-0.03342,-0.04608,-0.01572,-0.01785,-0.03891
3.2485,0.00336,-0.02609,0.00351,-0.07721,-0.00885,-0.03357,0.03632,-0.00549,-0.06012,0.02869,-0.01541,-0.01007,-0.04105,-0.0145,-0.01312,-0.03937
3.249,0.00839,-0.02716,0.05829,-0.05432,0.00992,-0.0354,0.01923,-0.00702,-0.07523,0.04471,-0.01755,0.00809,-0.03296,-0.0174,-0.00809,-0.04166
3.2495,0.0148,-0.0351,0.09201,-0.02289,0.00153,-0.03723,0.00381,-0.00336,-0.08453,0.05936,-0.02457,0.0206,-0.0206,-0.01999,-0.00824,-0.04242
3.25,0.02426,-0.04669,0.09918,0.00671,-0.02747,-0.03647,-0.00198,-0.0032,-0.08209,0.06836,-0.0296,0.02777,-0.00931,-0.02014,-0.01968,-0.04227
3.2505,0.03448,-0.05646,0.08484,0.02975,-0.05692,-0.03372,-0.00656,-0.00977,-0.06638,0.06744,-0.02975,0.02716,-0.0029,-0.01678,-0.03494,-0.04196
3.251,0.03967,-0.06149,0.06195,0.04349,-0.0737,-0.0325,-0.01358,-0.0209,-0.04868,0.05798,-0.02487,0.01602,-0.0061,-0.01251,-0.03387,-0.04318
3.2515,0.0354,-0.06134,0.03952,0.04822,-0.0827,-0.0322,-0.02197,-0.02731,-0.04028,0.04532,-0.01709,0.00061,-0.01526,-0.00717,0.00137,-0.04196
3.252,0.02396,-0.05951,0.01953,0.04639,-0.08667,-0.03021,-0.03067,-0.02518,-0.04425,0.03281,-0.0116,0.00031,-0.02502,-0.00488,0.05234,-0.03937
3.2525,0.01404,-0.05844,-0.00092,0.03647,-0.07462,-0.0267,-0.04196,-0.0174,-0.05295,0.02289,-0.01343,0.02609,-0.03342,-0.0061,0.07523,-0.03525
3.253,0.01099,-0.05829,-0.01953,0.01358,-0.03815,-0.02502,-0.04974,-0.01099,-0.05402,0.01526,-0.02533,0.06424,-0.03937,-0.00778,0.05493,-0.03418
3.2535,0.01312,-0.06012,-0.03357,-0.009,0.00076,-0.02609,-0.04456,-0.009,-0.04532,0.00839,-0.03769,0.08499,-0.04211,-0.00061,0.01678,-0.03464
3.254,0.01511,-0.06317,-0.04227,-0.00977,0.01465,-0.02975,-0.02853,-0.00824,-0.03235,-0.00168,-0.04105,0.07721,-0.04089,0.01495,-0.00381,-0.03494
3.2545,0.0177,-0.06805,-0.04929,0.01205,-0.00366,-0.03342,-0.0148,-0.00626,-0.02136,-0.01404,-0.03098,0.05951,-0.03616,0.03174,-0.00076,-0.0351
3.255,0.02029,-0.07156,-0.05356,0.02747,-0.0351,-0.03632,-0.01419,-0.00336,-0.01373,-0.0235,-0.01266,0.04852,-0.03067,0.03555,0.0209,-0.03464
3.2555,0.02151,-0.0708,-0.05386,0.00702,-0.06149,-0.03815,-0.02258,-0.00168,-0.00671,-0.02213,0.00183,0.04578,-0.02777,0.02945,0.05447,-0.03281
3.256,0.01892,-0.06454,-0.05157,-0.04608,-0.06927,-0.04013,-0.03159,-0.00046,-0.00168,-0.01617,0.00748,0.04349,-0.02945,0.02975,0.0827,-0.03159
3.2565,0.0145,-0.05508,-0.04913,-0.09613,-0.06073,-0.03922,-0.0386,0.00092,0.00015,-0.01129,0.00305,0.04028,-0.03357,0.04761,0.08514,-0.03647
3.257,0.01114,-0.04684,-0.0473,-0.11078,-0.0473,-0.03616,-0.04425,-0.00031,0.00107,-0.01068,-0.00183,0.03174,-0.03799,0.07553,0.05859,-0.047
3.2575,0.00763,-0.04135,-0.04425,-0.09521,-0.04044,-0.03372,-0.047,-0.00793,0.00549,-0.01343,-0.00336,0.00595,-0.0383,0.09811,0.02548,-0.05707
3.258,0.00351,-0.03998,-0.04135,-0.0795,-0.04166,-0.03433,-0.04395,-0.02106,0.0148,-0.01678,-0.00488,-0.04745,-0.03418,0.10422,0.00366,-0.05966
3.2585,-0.00046,-0.0415,-0.03998,-0.08286,-0.04242,-0.03647,-0.03571,-0.03357,0.02258,-0.01984,-0.00824,-0.11887,-0.02792,0.08423,-0.01144,-0.05554
3.259,-0.00336,-0.04547,-0.04272,-0.10178,-0.0383,-0.03708,-0.02472,-0.04303,0.02396,-0.02182,-0.01038,-0.18387,-0.02029,0.0293,-0.03098,-0.04898
3.2595,-0.00473,-0.04807,-0.04761,-0.13855,-0.03159,-0.0383,-0.01144,-0.05661,0.02106,-0.02289,-0.00031,-0.22308,-0.01144,-0.05722,-0.05554,-0.04425
3.26,-0.00397,-0.0444,-0.05081,-0.20279,-0.02914,-0.03922,0.0,-0.07919,0.01801,-0.02075,0.02579,-0.22934,-0.00244,-0.1355,-0.07324,-0.04135
3.2605,-0.00351,-0.03082,-0.05219,-0.28336,-0.03113,-0.03967,0.01129,-0.10071,0.0145,-0.01663,0.05554,-0.19867,-0.00244,-0.17365,-0.07492,-0.03967
3.261,-0.00381,-0.01007,-0.05142,-0.33447,-0.03265,-0.04044,0.02502,-0.09109,0.01266,-0.01144,0.05981,-0.13153,-0.01862,-0.18158,-0.05936,-0.03876
3.2615,-0.00473,0.00412,-0.05341,-0.31555,-0.03143,-0.04166,0.03708,-0.02502,0.01266,-0.00702,0.02869,-0.04745,-0.04257,-0.18829,-0.03601,-0.03906
3.262,-0.00549,0.00092,-0.05585,-0.22018,-0.02716,-0.04456,0.03571,0.07401,0.01266,-0.00641,-0.01587,0.0235,-0.05661,-0.19272,-0.01694,-0.04105
3.2625,-0.00717,-0.01877,-0.05661,-0.07874,-0.02365,-0.04776,0.01801,0.13947,0.01144,-0.01114,-0.04486,0.05966,-0.0563,-0.17395,-0.00244,-0.04288
3.263,-0.0119,-0.03876,-0.05386,0.0563,-0.01877,-0.04913,-0.00397,0.12604,0.00671,-0.01999,-0.05264,0.05753,-0.05035,-0.13077,0.01648,-0.04257
3.2635,-0.01831,-0.04654,-0.04898,0.14801,-0.01205,-0.04761,-0.01587,0.06165,0.00031,-0.02991,-0.05066,0.02731,-0.04669,-0.0856,0.04364,-0.04028
3.264,-0.02213,-0.03754,-0.04196,0.19653,-0.00458,-0.04303,-0.01816,0.00809,-0.00824,-0.03479,-0.04333,-0.00778,-0.04227,-0.05417,0.06332,-0.03876
3.2645,-0.01816,-0.01831,-0.03464,0.22018,0.00168,-0.03952,-0.01907,-0.00717,-0.01556,-0.03708,-0.02594,-0.02304,-0.03662,-0.03433,0.05905,-0.04013
3.265,-0.0087,0.00046,-0.02594,0.21652,0.0029,-0.0386,-0.02029,-0.00748,-0.0209,-0.03693,-0.00137,-0.00946,-0.03235,-0.01907,0.03464,-0.04257
3.2655,0.00015,0.00854,-0.0177,0.17761,0.00015,-0.04105,-0.02014,-0.01907,-0.02472,-0.03677,0.01709,0.01724,-0.03021,-0.00992,0.01282,-0.04456
3.266,0.00412,0.00366,-0.01129,0.11398,-0.00687,-0.04486,-0.01709,-0.03799,-0.02579,-0.0351,0.01587,0.03708,-0.02884,-0.00778,0.00641,-0.04608
3.2665,0.00443,-0.00854,-0.00824,0.05539,-0.01221,-0.04654,-0.0145,-0.04807,-0.02426,-0.03464,-0.00351,0.04791,-0.02777,-0.01343,0.00977,-0.04791
3.267,0.00366,-0.02014,-0.01144,0.02151,-0.0087,-0.04684,-0.01114,-0.04456,-0.01968,-0.03464,-0.02853,0.06546,-0.02625,-0.02472,0.01297,-0.04791
3.2675,0.00168,-0.02991,-0.02197,0.01099,0.00366,-0.04562,-0.00885,-0.03326,-0.01373,-0.03296,-0.04959,0.09109,-0.0264,-0.03601,0.01709,-0.04654
3.268,0.0029,-0.03693,-0.03571,0.01709,0.01999,-0.04303,-0.00717,-0.02243,-0.00839,-0.02899,-0.05737,0.10529,-0.03021,-0.04166,0.01968,-0.04242
3.2685,0.00443,-0.03693,-0.04395,0.04089,0.03189,-0.04227,-0.00595,-0.01312,-0.00732,-0.02319,-0.03845,0.0853,-0.03738,-0.04089,0.01831,-0.04028
3.269,0.0058,-0.0325,-0.04517,0.08575,0.03311,-0.04333,-0.00504,0.00107,-0.0116,-0.0209,0.01022,0.03784,-0.04547,-0.03815,0.01282,-0.0412
3.2695,0.00504,-0.02792,-0.04211,0.13519,0.03067,-0.04501,-0.00397,0.02563,-0.01678,-0.02365,0.0589,-0.00748,-0.04898,-0.03281,0.00916,-0.04166
3.27,0.00275,-0.03159,-0.0386,0.14603,0.02594,-0.04395,-0.0061,0.05005,-0.0177,-0.03204,0.06104,-0.03189,-0.04593,-0.01984,0.00916,-0.04013
3.2705,-0.00076,-0.04272,-0.03677,0.09964,0.01602,-0.04074,-0.01343,0.05905,-0.01526,-0.03845,0.00702,-0.0441,-0.04166,0.00122,0.00931,-0.03952
3.271,-0.00412,-0.05539,-0.0351,0.02945,-0.00793,-0.03799,-0.02548,0.05035,-0.01251,-0.04288,-0.06348,-0.06058,-0.03525,0.01495,0.00916,-0.03952
3.2715,-0.00534,-0.06393,-0.03311,-0.01663,-0.04166,-0.0383,-0.03906,0.03326,-0.01358,-0.04257,-0.11017,-0.08011,-0.02319,0.00488,0.00748,-0.04013
3.272,-0.00595,-0.06821,-0.03021,-0.02777,-0.06622,-0.04059,-0.0473,0.01114,-0.02045,-0.04349,-0.12527,-0.08606,-0.00443,-0.01816,0.00687,-0.03769
3.2725,-0.00534,-0.0676,-0.02609,-0.02853,-0.07294,-0.0441,-0.04379,-0.01877,-0.02777,-0.04639,-0.12054,-0.06897,0.00748,-0.01663,0.00595,-0.03586
3.273,-0.00473,-0.05966,-0.02258,-0.03754,-0.06897,-0.04761,-0.02716,-0.04959,-0.03326,-0.04837,-0.10483,-0.0351,0.00595,0.03128,-0.00061,-0.03433
3.2735,-0.00412,-0.04669,-0.02213,-0.05173,-0.07111,-0.04944,-0.009,-0.06516,-0.04013,-0.04547,-0.08133,-0.00244,-0.00626,0.08835,-0.01358,-0.03494
3.274,-0.00549,-0.03479,-0.02502,-0.06119,-0.08835,-0.05219,-0.00458,-0.06027,-0.05005,-0.03983,-0.05646,0.0148,-0.01999,0.09399,-0.02594,-0.03738
3.2745,-0.01221,-0.02701,-0.02686,-0.06393,-0.10895,-0.05493,-0.0145,-0.0441,-0.05478,-0.03677,-0.0386,0.01297,-0.03784,0.03723,-0.0293,-0.03922
3.275,-0.02335,-0.0235,-0.02716,-0.0589,-0.11475,-0.05478,-0.02304,-0.02518,-0.0444,-0.04166,-0.03052,-0.00168,-0.06149,-0.03372,-0.02594,-0.03906
3.2755,-0.03464,-0.02319,-0.02594,-0.04669,-0.09689,-0.05402,-0.02213,-0.00565,-0.02274,-0.05875,-0.02747,-0.01282,-0.07629,-0.07111,-0.0206,-0.03784
3.276,-0.0415,-0.02701,-0.02701,-0.03357,-0.0708,-0.05341,-0.01938,0.01678,-0.00122,-0.08438,-0.02731,-0.00336,-0.06638,-0.06821,-0.01724,-0.0383
3.2765,-0.04395,-0.03403,-0.02823,-0.02991,-0.05493,-0.05386,-0.02075,0.04105,0.01511,-0.10437,-0.02869,0.03189,-0.04684,-0.04395,-0.01602,-0.04044
3.277,-0.04379,-0.03891,-0.02914,-0.03067,-0.05753,-0.05432,-0.02228,0.056,0.02716,-0.10849,-0.03098,0.08026,-0.04517,-0.01587,-0.00946,-0.04211
3.2775,-0.03983,-0.03922,-0.03387,-0.01907,-0.07263,-0.05569,-0.01877,0.05356,0.03891,-0.09232,-0.03082,0.11749,-0.06393,0.00748,0.00778,-0.04227
3.278,-0.03571,-0.03845,-0.04242,0.00946,-0.08469,-0.05875,-0.01389,0.03937,0.04715,-0.06607,-0.02991,0.12772,-0.07706,0.01846,0.03708,-0.04288
3.2785,-0.03311,-0.0386,-0.05356,0.04166,-0.07736,-0.05997,-0.01312,0.02548,0.04776,-0.04211,-0.03006,0.10971,-0.06836,0.01358,0.06699,-0.04425
3.279,-0.03189,-0.03876,-0.0618,0.06226,-0.04776,-0.05798,-0.01602,0.01694,0.04028,-0.02563,-0.02975,0.07614,-0.04791,-0.00275,0.07706,-0.0444
3.2795,-0.02853,-0.03769,-0.06241,0.06912,-0.01114,-0.05295,-0.01831,0.01007,0.02975,-0.01434,-0.0264,0.04471,-0.03372,-0.0206,0.05905,-0.04318
3.28,-0.02151,-0.03647,-0.05676,0.05951,0.01526,-0.04898,-0.01755,0.00015,0.01846,-0.00305,-0.01816,0.01968,-0.02884,-0.03067,0.0293,-0.0412
3.2805,-0.01328,-0.03922,-0.04868,0.02579,0.02716,-0.04761,-0.01694,-0.00885,0.00961,0.01175,-0.00809,-0.01343,-0.02808,-0.0296,0.01343,-0.03998
3.281,-0.00656,-0.04395,-0.04257,-0.04166,0.03174,-0.04684,-0.0174,-0.01266,0.00336,0.02502,0.00076,-0.07782,-0.02655,-0.01999,0.02014,-0.04059
3.2815,-0.0032,-0.04745,-0.03937,-0.14435,0.03372,-0.04807,-0.01892,-0.01236,-0.00092,0.03113,0.00458,-0.15656,-0.02502,-0.00656,0.02991,-0.04272
3.282,-0.00168,-0.04852,-0.03784,-0.25986,0.02808,-0.05188,-0.01709,-0.01068,-0.00595,0.0296,0.00595,-0.159,-0.02487,0.00519,0.02457,-0.04639
3.2825,0.00107,-0.0502,-0.03815,-0.34042,0.00961,-0.05524,-0.01419,-0.00763,-0.01114,0.02686,0.00748,-0.00458,-0.0238,0.01602,0.00443,-0.04776
3.283,0.0061,-0.05508,-0.0386,-0.33173,-0.02487,-0.05402,-0.01221,-0.00366,-0.01495,0.02594,0.01511,0.23849,-0.02182,0.02808,-0.00717,-0.04562
3.2835,0.01068,-0.05966,-0.04028,-0.22476,-0.06836,-0.05035,-0.01205,-0.00275,-0.01678,0.0264,0.0383,0.3743,-0.01938,0.04318,-0.00107,-0.04288
3.284,0.01114,-0.06332,-0.04044,-0.07492,-0.10178,-0.05005,-0.01312,-0.00595,-0.02258,0.02579,0.08774,0.28107,-0.01724,0.05859,0.01236,-0.04227
3.2845,0.00854,-0.06607,-0.03784,0.0412,-0.11063,-0.05173,-0.01389,-0.01099,-0.03281,0.02136,0.15549,0.05463,-0.01587,0.06653,0.01709,-0.04288
3.285,0.00748,-0.0676,-0.03418,0.09064,-0.09689,-0.05219,-0.01343,-0.01541,-0.0415,0.01495,0.19714,-0.11337,-0.01816,0.05341,0.00854,-0.04318
3.2855,0.00839,-0.065,-0.03189,0.0972,-0.07645,-0.04852,-0.01114,-0.01907,-0.0444,0.00763,0.17456,-0.14069,-0.02243,0.01465,-0.00229,-0.04166
3.286,0.00854,-0.05844,-0.0325,0.10117,-0.05539,-0.04471,-0.00809,-0.02197,-0.04059,-0.00031,0.09918,-0.08865,-0.02518,-0.02319,-0.00504,-0.04135
3.2865,0.00488,-0.05341,-0.03372,0.11108,-0.03555,-0.04501,-0.00458,-0.02289,-0.03143,-0.00534,0.01419,-0.03967,-0.02472,-0.02609,0.00046,-0.0412
3.287,-0.00168,-0.04974,-0.03555,0.10605,-0.02136,-0.04868,-0.00412,-0.02243,-0.01877,-0.01038,-0.04745,-0.02197,-0.02213,0.00519,0.00595,-0.04303
3.2875,-0.00519,-0.04639,-0.03784,0.07614,-0.01419,-0.05112,-0.00534,-0.02502,-0.01373,-0.01617,-0.0853,-0.03677,-0.02167,0.02914,0.00687,-0.04318
3.288,-0.0058,-0.04166,-0.03906,0.04623,-0.00992,-0.05203,-0.00992,-0.02853,-0.0267,-0.01968,-0.10635,-0.07507,-0.02274,0.01144,0.00763,-0.04242
3.2885,-0.00656,-0.03952,-0.03952,0.03784,-0.00443,-0.05203,-0.01648,-0.02914,-0.05096,-0.02258,-0.10986,-0.11444,-0.02533,-0.0354,0.01312,-0.04257
3.289,-0.01221,-0.0415,-0.0386,0.03708,0.00229,-0.05249,-0.02762,-0.02502,-0.07019,-0.02563,-0.10056,-0.1329,-0.02792,-0.06973,0.02167,-0.04318
3.2895,-0.01801,-0.04456,-0.03555,0.01785,-0.00336,-0.0531,-0.0415,-0.01724,-0.07614,-0.02548,-0.0853,-0.12619,-0.02869,-0.06805,0.02396,-0.04364
3.29,-0.01846,-0.04379,-0.03357,-0.01404,-0.02579,-0.05402,-0.05081,-0.009,-0.07263,-0.02258,-0.06882,-0.09842,-0.02731,-0.04715,0.01358,-0.04272
3.2905,-0.01602,-0.04013,-0.03571,-0.0209,-0.05981,-0.05539,-0.05188,-0.00122,-0.06439,-0.01816,-0.056,-0.05417,-0.02686,-0.04349,-0.00519,-0.04257
3.291,-0.01419,-0.03738,-0.04318,0.02213,-0.08591,-0.05508,-0.04562,0.00443,-0.05005,-0.01511,-0.04868,-0.00748,-0.02869,-0.07339,-0.01938,-0.04227
3.2915,-0.01434,-0.03815,-0.05035,0.10345,-0.08499,-0.05142,-0.03815,0.009,-0.03067,-0.01389,-0.04669,0.0206,-0.03036,-0.112,-0.01617,-0.04105
3.292,-0.01511,-0.04257,-0.05432,0.1889,-0.0589,-0.04593,-0.03265,0.00977,-0.01587,-0.01343,-0.04517,0.02304,-0.02853,-0.12436,-0.00381,-0.03937
3.2925,-0.01572,-0.04776,-0.05539,0.22705,-0.02716,-0.0444,-0.02472,0.00565,-0.01404,-0.01465,-0.03708,0.01251,-0.02167,-0.10452,0.00443,-0.03952
3.293,-0.01694,-0.05081,-0.05432,0.17273,-0.00458,-0.04669,-0.00595,-0.00214,-0.02396,-0.01755,-0.0235,0.00183,-0.01114,-0.07782,0.00595,-0.04272
3.2935,-0.0177,-0.0531,-0.05295,0.03418,0.00885,-0.04761,0.02029,-0.00992,-0.03616,-0.02243,-0.01205,-0.00717,-0.00244,-0.05707,0.00549,-0.04532
3.294,-0.01572,-0.05676,-0.04944,-0.11993,0.02258,-0.04593,0.03616,-0.01434,-0.03876,-0.02579,-0.00687,-0.01877,-0.00061,-0.03464,0.00534,-0.0473
3.2945,-0.01099,-0.06012,-0.04181,-0.22507,0.03754,-0.0444,0.02914,-0.0174,-0.02777,-0.02945,-0.00397,-0.02869,-0.00534,-0.0119,0.0061,-0.04807
3.295,-0.00336,-0.06088,-0.03418,-0.271,0.05035,-0.04486,0.00244,-0.02625,-0.01022,-0.03922,-0.00061,-0.02289,-0.01892,-0.00778,0.00748,-0.04745
3.2955,0.00305,-0.05615,-0.0296,-0.28244,0.04913,-0.04501,-0.02701,-0.04318,0.00473,-0.05722,0.00076,0.00336,-0.04517,-0.02655,0.00916,-0.04395
3.296,0.00626,-0.04837,-0.02487,-0.26764,0.03006,-0.04608,-0.0441,-0.05829,0.01465,-0.07614,0.00046,0.03632,-0.07858,-0.04623,0.00885,-0.04074
3.2965,0.00504,-0.04196,-0.01602,-0.2034,-0.00504,-0.04761,-0.0415,-0.06012,0.02335,-0.08362,-0.00046,0.05341,-0.0972,-0.04837,0.00488,-0.04013
3.297,0.00031,-0.03845,-0.00381,-0.07126,-0.04562,-0.04654,-0.02457,-0.04944,0.0293,-0.07431,-0.00015,0.04684,-0.08499,-0.03799,-0.00244,-0.04059
3.2975,-0.00412,-0.0351,0.00443,0.08331,-0.0769,-0.04623,-0.00214,-0.03525,0.02823,-0.05615,0.00031,0.02655,-0.05768,-0.03113,-0.00717,-0.04028
3.298,-0.00824,-0.0322,0.00351,0.16266,-0.08957,-0.04776,0.01602,-0.01999,0.01389,-0.03815,0.00015,0.00687,-0.03815,-0.03525,-0.00687,-0.04135
3.2985,-0.00946,-0.02991,-0.00397,0.12497,-0.08301,-0.05203,0.0264,0.00519,-0.01297,-0.02335,-0.00214,-0.00687,-0.03174,-0.04364,-0.00229,-0.04288
3.299,-0.00885,-0.02762,-0.01175,0.03357,-0.07706,-0.05325,0.02792,0.04242,-0.04074,-0.01068,-0.00244,-0.01648,-0.02686,-0.04791,0.00214,-0.04379
3.2995,-0.00793,-0.02396,-0.01678,-0.01389,-0.08377,-0.05142,0.02625,0.07431,-0.05219,-0.00092,-0.00046,-0.02579,-0.01785,-0.04517,0.00702,-0.0412
3.3,-0.00839,-0.01816,-0.01678,0.00961,-0.09491,-0.04807,0.02319,0.07935,-0.04303,0.00702,-0.00046,-0.03036,-0.01129,-0.03754,0.01022,-0.03799
3.3005,-0.0087,-0.01419,-0.01465,0.06531,-0.08514,-0.04623,0.01846,0.05707,-0.02518,0.01144,-0.00656,-0.02365,-0.01129,-0.02838,0.01068,-0.03784
3.301,-0.009,-0.01541,-0.01495,0.11215,-0.05188,-0.04639,0.01083,0.03006,-0.01007,0.01328,-0.01785,-0.00488,-0.01434,-0.01907,0.009,-0.03998
3.3015,-0.00916,-0.01968,-0.01892,0.11993,-0.01831,-0.04593,0.00046,0.01526,-0.00107,0.01221,-0.02594,0.0148,-0.01343,-0.00885,0.00793,-0.04196
3.302,-0.01144,-0.02411,-0.02747,0.0737,-0.00137,-0.04166,-0.01343,0.01068,0.00504,0.01053,-0.02609,0.02365,-0.00839,0.00229,0.00763,-0.04196
3.3025,-0.01389,-0.02762,-0.03662,-0.01602,0.00244,-0.03769,-0.02869,0.00473,0.00687,0.01068,-0.02182,0.01877,-0.00931,0.01419,0.00656,-0.04166
3.303,-0.01389,-0.03418,-0.04196,-0.10056,0.00259,-0.03891,-0.03922,-0.00732,0.00214,0.01373,-0.01602,0.00687,-0.02228,0.0209,-0.00275,-0.04181
3.3035,-0.01129,-0.0415,-0.04303,-0.13138,-0.00122,-0.04532,-0.04028,-0.02457,-0.00549,0.01953,-0.01099,-0.0029,-0.03906,0.02151,-0.0206,-0.04166
3.304,-0.00839,-0.04593,-0.03906,-0.11017,-0.01083,-0.04852,-0.03555,-0.03632,-0.01022,0.02258,-0.00488,-0.00732,-0.05035,0.01831,-0.04028,-0.0412
3.3045,-0.00732,-0.04593,-0.03632,-0.07675,-0.01221,-0.04532,-0.03265,-0.03372,-0.01251,0.02075,-0.00153,-0.0087,-0.05447,0.01816,-0.0528,-0.04105
3.305,-0.00732,-0.0441,-0.03448,-0.05051,0.00458,-0.04059,-0.03571,-0.02197,-0.01678,0.01678,-0.01053,-0.01541,-0.05539,0.02258,-0.0589,-0.04105
3.3055,-0.00412,-0.04456,-0.03677,-0.01572,0.03036,-0.03922,-0.04059,-0.01694,-0.01785,0.01297,-0.03784,-0.03204,-0.05554,0.0296,-0.06577,-0.04318
3.306,0.00092,-0.047,-0.03967,0.03326,0.05341,-0.04211,-0.03952,-0.03418,-0.01038,0.01144,-0.07309,-0.05142,-0.05447,0.03738,-0.07324,-0.04593
3.3065,0.00656,-0.05005,-0.04288,0.07401,0.06409,-0.04532,-0.0293,-0.08041,0.00427,0.01053,-0.0975,-0.05997,-0.05157,0.04578,-0.07233,-0.04669
3.307,0.01144,-0.05188,-0.0441,0.07523,0.05249,-0.04822,-0.01312,-0.12238,0.01465,0.01007,-0.09415,-0.0499,-0.04517,0.05447,-0.04288,-0.04501
3.3075,0.01617,-0.0528,-0.04303,0.01648,0.0058,-0.05264,-0.00015,-0.09491,0.01266,0.00961,-0.06683,-0.0322,-0.0351,0.05661,0.03174,-0.04379
3.308,0.0206,-0.05249,-0.04456,-0.09628,-0.06866,-0.05676,0.00259,0.01419,0.00137,0.00671,-0.03098,-0.02899,-0.02441,0.03906,0.13306,-0.04349
3.3085,0.02151,-0.05112,-0.05142,-0.20935,-0.13947,-0.06042,-0.00244,0.12009,-0.01282,-0.00214,-0.00137,-0.04654,-0.01358,-0.00076,0.20111,-0.04288
3.309,0.01617,-0.04669,-0.06073,-0.2533,-0.17776,-0.05905,-0.01068,0.1326,-0.02716,-0.01572,0.0177,-0.06134,-0.00336,-0.04669,0.19531,-0.04227
3.3095,0.00809,-0.03906,-0.06958,-0.19791,-0.17502,-0.05539,-0.01724,0.06607,-0.04105,-0.03006,0.03693,-0.04333,0.00244,-0.08041,0.13458,-0.04044
3.31,0.00305,-0.03067,-0.07599,-0.07629,-0.14542,-0.0502,-0.02167,0.00397,-0.05249,-0.04333,0.06927,0.0029,0.00061,-0.09979,0.07675,-0.03876
3.3105,0.00351,-0.02518,-0.07996,0.04578,-0.10818,-0.04639,-0.02304,-0.01038,-0.05783,-0.05402,0.10895,0.0386,-0.00946,-0.10651,0.05051,-0.03677
3.311,0.00473,-0.02426,-0.0795,0.12238,-0.07919,-0.04272,-0.02213,-0.00198,-0.0531,-0.05997,0.1207,0.04196,-0.01709,-0.09369,0.04211,-0.03555
3.3115,0.00366,-0.02747,-0.06546,0.14526,-0.05997,-0.04318,-0.02121,-0.00275,-0.04333,-0.05951,0.08865,0.03754,-0.0148,-0.06149,0.03433,-0.03662
3.312,0.00015,-0.03159,-0.04227,0.13275,-0.04807,-0.04608,-0.02396,-0.01282,-0.03418,-0.05508,0.03143,0.05798,-0.00717,-0.02869,0.02213,-0.03922
3.3125,-0.00214,-0.03418,-0.01938,0.10605,-0.03952,-0.04684,-0.0293,-0.01785,-0.02792,-0.05066,-0.01511,0.09628,-0.00305,-0.01007,0.01099,-0.04196
3.313,-0.00137,-0.03311,-0.00336,0.07538,-0.03281,-0.04654,-0.03128,-0.01465,-0.02258,-0.04639,-0.03876,0.11963,-0.00412,-0.00397,0.00153,-0.04501
3.3135,0.00015,-0.03021,0.00412,0.04822,-0.02716,-0.04608,-0.02747,-0.00732,-0.01419,-0.04333,-0.04745,0.1149,-0.00854,-0.00549,-0.00702,-0.04761
3.314,0.00061,-0.02777,0.0061,0.03204,-0.01968,-0.04547,-0.02075,-0.00046,-0.00595,-0.04059,-0.05249,0.09232,-0.0238,-0.01022,-0.01221,-0.04776
3.3145,0.00092,-0.02701,0.00549,0.02884,-0.00992,-0.04471,-0.01556,0.00671,-0.00168,-0.03647,-0.05554,0.0647,-0.06256,-0.01617,-0.01083,-0.04654
3.315,0.00168,-0.02838,0.00198,0.02914,0.00076,-0.04166,-0.01389,0.01129,-0.00092,-0.03128,-0.05295,0.03647,-0.10834,-0.01587,-0.00671,-0.04471
3.3155,0.00183,-0.03265,-0.00458,0.0238,0.00946,-0.03983,-0.01572,0.01404,-0.00244,-0.02716,-0.0444,0.01205,-0.12192,-0.01801,-0.00641,-0.04501
3.316,0.00061,-0.03799,-0.01266,0.01541,0.01434,-0.04013,-0.0177,0.01556,-0.00427,-0.02213,-0.03708,-0.00305,-0.08957,-0.04196,-0.01556,-0.047
3.3165,-0.00351,-0.04303,-0.01999,0.01602,0.01312,-0.04272,-0.01755,0.01648,-0.00305,-0.01129,-0.03326,-0.01038,-0.04745,-0.0856,-0.0267,-0.04776
3.317,-0.00809,-0.04761,-0.02518,0.02914,0.00793,-0.04395,-0.01297,0.01038,-0.00107,0.00504,-0.03128,-0.01511,-0.03174,-0.10849,-0.03098,-0.04669
3.3175,-0.01068,-0.05203,-0.0296,0.04333,-0.00305,-0.04471,-0.0032,-0.00443,0.00015,0.01953,-0.0293,-0.02029,-0.0383,-0.08316,-0.02563,-0.04532
3.318,-0.0116,-0.05432,-0.03189,0.04333,-0.0209,-0.04547,0.00763,-0.02472,-0.00046,0.02655,-0.02472,-0.02426,-0.04333,-0.02869,-0.02197,-0.04333
3.3185,-0.01129,-0.05554,-0.03387,0.02228,-0.04532,-0.04684,0.01587,-0.04028,-0.0032,0.02457,-0.01984,-0.0209,-0.04166,0.01404,-0.0235,-0.04211
3.319,-0.01129,-0.05585,-0.03723,-0.01556,-0.06317,-0.047,0.02014,-0.04639,-0.00885,0.01892,-0.01724,-0.00793,-0.0415,0.03235,-0.03174,-0.0412
3.3195,-0.0119,-0.05829,-0.04196,-0.0499,-0.06042,-0.04639,0.02213,-0.03967,-0.01465,0.01358,-0.01602,0.01205,-0.04456,0.0351,-0.04684,-0.03967
3.32,-0.01221,-0.0621,-0.04684,-0.07156,-0.04272,-0.047,0.01434,-0.01495,-0.02228,0.00824,-0.01358,0.02594,-0.04471,0.03052,-0.06668,-0.03937
3.3205,-0.01205,-0.06485,-0.04837,-0.09125,-0.02899,-0.04791,-0.00641,0.02533,-0.03143,0.00259,-0.01022,0.02563,-0.03998,0.01862,-0.07797,-0.03998
3.321,-0.01083,-0.06317,-0.04593,-0.11139,-0.02762,-0.04974,-0.03784,0.06302,-0.03876,-0.00427,-0.01053,0.01343,-0.03418,0.00122,-0.06271,-0.04196
3.3215,-0.01007,-0.05859,-0.04166,-0.10635,-0.02899,-0.04898,-0.06256,0.06714,-0.03662,-0.01602,-0.01266,0.00259,-0.03281,-0.01556,-0.0145,-0.04318
3.322,-0.01038,-0.05295,-0.04227,-0.05417,-0.02411,-0.04776,-0.0618,0.02777,-0.02304,-0.03723,-0.01831,0.00275,-0.03326,-0.02167,0.04425,-0.04379
3.3225,-0.0119,-0.04578,-0.047,0.03235,-0.01526,-0.04669,-0.03387,-0.03418,-0.00595,-0.06256,-0.0209,0.01221,-0.03113,-0.00977,0.07797,-0.04471
3.323,-0.01434,-0.03784,-0.05157,0.12039,-0.00977,-0.04562,-0.00076,-0.08606,0.00626,-0.08041,-0.01907,0.01617,-0.0235,0.01144,0.07019,-0.04501
3.3235,-0.01633,-0.02838,-0.05203,0.18524,-0.00916,-0.04532,0.00885,-0.11627,0.01038,-0.08469,-0.01556,0.00244,-0.0119,0.02609,0.03998,-0.04456
3.324,-0.01801,-0.02167,-0.04807,0.2037,-0.00854,-0.04272,-0.00626,-0.13885,0.01175,-0.07553,-0.01328,-0.03098,-0.00153,0.03052,0.02319,-0.04501
3.3245,-0.01831,-0.0206,-0.04349,0.15686,-0.00443,-0.03952,-0.02243,-0.16174,0.01511,-0.05875,-0.01083,-0.07294,0.00351,0.03265,0.0322,-0.04471
3.325,-0.01831,-0.02457,-0.03937,0.05569,0.00687,-0.03769,-0.0238,-0.15808,0.01648,-0.03784,-0.00565,-0.10086,0.00259,0.03021,0.05219,-0.04471
3.3255,-0.01511,-0.03036,-0.03723,-0.04761,0.02182,-0.04028,-0.01556,-0.08896,0.0116,-0.01785,-0.00031,-0.0972,-0.00519,0.00687,0.06042,-0.04471
3.326,-0.00854,-0.03357,-0.03464,-0.09796,0.03494,-0.04532,-0.01068,0.03677,0.00137,-0.00549,0.0,-0.07065,-0.01816,-0.03479,0.05066,-0.04456
3.3265,-0.00061,-0.03464,-0.03387,-0.08911,0.03784,-0.04761,-0.01083,0.14755,-0.00763,0.0,-0.00443,-0.04974,-0.02945,-0.07065,0.03204,-0.0441
3.327,0.00519,-0.03632,-0.03265,-0.06027,0.02975,-0.0502,-0.01221,0.18066,-0.01419,0.00366,-0.00504,-0.04944,-0.02991,-0.08774,0.0119,-0.04349
3.3275,0.00717,-0.04044,-0.03036,-0.04944,0.01572,-0.05356,-0.01251,0.14786,-0.02701,0.00854,0.00137,-0.06088,-0.01572,-0.09872,-0.00366,-0.04288
3.328,0.00626,-0.04669,-0.02502,-0.06027,0.00076,-0.05783,-0.01328,0.09964,-0.05249,0.01297,0.01419,-0.06546,0.00122,-0.10483,-0.01755,-0.04135
3.3285,0.00381,-0.0528,-0.01831,-0.07675,-0.01755,-0.06119,-0.01495,0.06287,-0.08011,0.01541,0.02808,-0.05035,0.01114,-0.08896,-0.02945,-0.04318
3.329,0.00046,-0.05539,-0.01419,-0.0827,-0.04913,-0.06119,-0.01587,0.03494,-0.08835,0.01587,0.03632,-0.02258,0.01221,-0.05219,-0.02899,-0.04425
3.3295,-0.00214,-0.05386,-0.01434,-0.07538,-0.09079,-0.05997,-0.01648,0.01587,-0.07172,0.01205,0.03265,-0.00443,0.00534,-0.02014,-0.00031,-0.04349
3.33,-0.00168,-0.04822,-0.01877,-0.06027,-0.12161,-0.05905,-0.01724,0.01312,-0.05066,0.00595,0.01663,-0.0058,-0.01465,-0.0116,0.04776,-0.04196
3.3305,0.00092,-0.04257,-0.02716,-0.04425,-0.12054,-0.05936,-0.01663,0.02014,-0.04349,-0.00366,-0.0058,0.00229,-0.05234,-0.01923,0.08423,-0.04227
3.331,0.00305,-0.03815,-0.03555,-0.02914,-0.09079,-0.0589,-0.01465,0.01968,-0.04654,-0.01175,-0.02609,0.05814,-0.09521,-0.02609,0.08102,-0.04211
3.3315,0.00122,-0.03372,-0.03922,-0.01968,-0.05737,-0.05569,-0.01144,0.00443,-0.04547,-0.01678,-0.03738,0.15488,-0.1152,-0.02655,0.04883,-0.04166
3.332,-0.00183,-0.02838,-0.03723,-0.02609,-0.04028,-0.05386,-0.00931,-0.01678,-0.0383,-0.01801,-0.03738,0.23224,-0.1004,-0.02533,0.01831,-0.0415
3.3325,-0.00427,-0.02625,-0.03418,-0.05432,-0.03998,-0.05386,-0.00732,-0.03464,-0.0351,-0.01953,-0.03036,0.23514,-0.07095,-0.02167,0.00687,-0.0412
3.333,-0.00397,-0.02808,-0.03189,-0.09323,-0.0444,-0.05493,-0.00397,-0.04868,-0.04074,-0.02182,-0.02655,0.17166,-0.05402,-0.01526,0.00763,-0.04196
3.3335,-0.00183,-0.03113,-0.03281,-0.12177,-0.04486,-0.056,-0.00153,-0.05951,-0.04898,-0.02396,-0.03021,0.10178,-0.04929,-0.01038,0.00687,-0.0441
3.334,-0.00153,-0.03159,-0.03555,-0.12512,-0.04181,-0.05524,-0.00214,-0.06241,-0.05325,-0.02457,-0.03784,0.06577,-0.03891,-0.00854,0.0029,-0.04303
3.3345,-0.00214,-0.03006,-0.03906,-0.10971,-0.03769,-0.05173,-0.0058,-0.05249,-0.05066,-0.02594,-0.04227,0.04715,-0.01831,-0.00793,0.00137,-0.03998
3.335,-0.00427,-0.02701,-0.04059,-0.08774,-0.0322,-0.04974,-0.00854,-0.0235,-0.04181,-0.02792,-0.04288,0.00107,-0.00488,-0.00549,0.00519,-0.03738
3.3355,-0.00397,-0.02441,-0.04105,-0.06485,-0.02274,-0.05005,-0.01083,0.01846,-0.02808,-0.02991,-0.04211,-0.07446,-0.01266,-0.00107,0.01083,-0.0383
3.336,-0.00397,-0.02563,-0.04089,-0.04333,-0.00504,-0.05386,-0.01434,0.05417,-0.01404,-0.0296,-0.04181,-0.13153,-0.03067,0.00626,0.01083,-0.04089
3.3365,-0.00656,-0.03204,-0.04181,-0.03342,0.01572,-0.05829,-0.02136,0.06409,-0.00351,-0.02838,-0.04028,-0.12268,-0.03723,0.01617,0.00793,-0.04135
3.337,-0.01099,-0.04013,-0.04288,-0.04471,0.03464,-0.06058,-0.02731,0.0441,0.00275,-0.02777,-0.03708,-0.05798,-0.04242,0.02716,0.00565,-0.04135
3.3375,-0.0174,-0.0473,-0.04074,-0.07248,0.04608,-0.05981,-0.03113,0.01282,0.00839,-0.02579,-0.03326,0.00412,-0.06836,0.03113,0.00931,-0.04227
3.338,-0.02182,-0.05295,-0.03555,-0.0972,0.04898,-0.056,-0.03357,-0.00946,0.0119,-0.02396,-0.02945,0.01801,-0.10696,0.01617,0.01404,-0.04242
3.3385,-0.02426,-0.05676,-0.03006,-0.10117,0.03815,-0.05157,-0.0325,-0.01678,0.01282,-0.0235,-0.02411,-0.00732,-0.11429,-0.0174,0.01556,-0.04074
3.339,-0.02502,-0.05936,-0.0264,-0.08041,0.00046,-0.05066,-0.0267,-0.01434,0.01068,-0.0235,-0.01862,-0.03128,-0.07645,-0.04974,0.01266,-0.03922
3.3395,-0.02213,-0.06012,-0.02579,-0.03952,-0.0647,-0.05295,-0.01892,-0.01907,0.00717,-0.02274,-0.01389,-0.02182,-0.02655,-0.05371,0.00687,-0.03967
3.34,-0.01633,-0.06027,-0.0267,0.00824,-0.12619,-0.05661,-0.01068,-0.03906,0.00473,-0.0206,-0.01312,0.00702,-0.0029,-0.03189,0.00351,-0.04089
3.3405,-0.01266,-0.05997,-0.02762,0.06042,-0.14603,-0.05905,-0.00458,-0.05646,0.00488,-0.02228,-0.01602,0.01968,-0.00732,-0.01648,0.00336,-0.04166
3.341,-0.01236,-0.05783,-0.02823,0.12222,-0.11581,-0.05798,0.00244,-0.03708,0.00671,-0.02655,-0.01938,0.00595,-0.0206,-0.0293,0.00153,-0.04211
3.3415,-0.01144,-0.05417,-0.03082,0.17807,-0.06927,-0.05463,0.0087,0.01984,0.0058,-0.02991,-0.01968,-0.01709,-0.03235,-0.05493,-0.00381,-0.04242
3.342,-0.00824,-0.05051,-0.03586,0.18188,-0.04578,-0.0531,0.01083,0.06866,0.00229,-0.03143,-0.01755,-0.03494,-0.04913,-0.06058,-0.01038,-0.04272
3.3425,-0.00565,-0.0499,-0.04013,0.1207,-0.05356,-0.05478,0.00595,0.06241,0.00046,-0.03143,-0.01816,-0.0415,-0.06958,-0.03464,-0.01419,-0.04257
3.343,-0.00809,-0.04959,-0.04517,0.04364,-0.06897,-0.05844,-0.00687,0.01511,0.00412,-0.03296,-0.02182,-0.02838,-0.07858,0.00427,-0.01587,-0.04333
3.3435,-0.01312,-0.04532,-0.04547,0.00626,-0.06516,-0.06088,-0.03052,-0.03159,0.01266,-0.03555,-0.02762,0.00336,-0.06622,0.02899,-0.01755,-0.04364
3.344,-0.01389,-0.0354,-0.04303,0.00641,-0.03952,-0.06104,-0.06882,-0.05722,0.01938,-0.03799,-0.03052,0.03403,-0.03998,0.02274,-0.01999,-0.04318
3.3445,-0.00778,-0.02579,-0.0415,0.0087,-0.01099,-0.05707,-0.1088,-0.08041,0.02197,-0.03967,-0.02914,0.03952,-0.01175,-0.00427,-0.01694,-0.04135
3.345,0.00076,-0.02411,-0.04227,-0.00397,0.00443,-0.05386,-0.11826,-0.11047,0.02213,-0.03616,-0.02396,0.02045,0.00717,-0.02289,-0.0087,-0.03967
3.3455,0.00885,-0.03113,-0.04471,-0.01633,0.00549,-0.05295,-0.08057,-0.13397,0.02045,-0.03113,-0.0174,-0.00381,0.01251,-0.01297,-0.00061,-0.03876
3.346,0.01602,-0.03876,-0.04456,-0.01801,0.00137,-0.05463,-0.02609,-0.13763,0.0145,-0.02701,-0.01251,-0.02533,0.00198,0.01373,0.00076,-0.0383
3.3465,0.02274,-0.04196,-0.0415,-0.02197,-0.01312,-0.05539,-0.00122,-0.12634,0.00412,-0.02411,-0.01053,-0.05325,-0.01434,0.02899,-0.00214,-0.03952
3.347,0.02579,-0.04135,-0.03815,-0.04852,-0.03998,-0.05692,-0.01266,-0.10193,-0.00397,-0.02548,-0.00778,-0.0946,-0.02548,0.01205,-0.00122,-0.04013
3.3475,0.0209,-0.03799,-0.03723,-0.10162,-0.06958,-0.0621,-0.02594,-0.06332,-0.00687,-0.02655,-0.00443,-0.13901,-0.02258,-0.02823,0.00214,-0.03937
3.348,0.00671,-0.03372,-0.03677,-0.15076,-0.08514,-0.06912,-0.01205,-0.01236,-0.0061,-0.02747,0.00168,-0.15945,-0.00626,-0.05997,0.00748,-0.03693
3.3485,-0.01007,-0.03143,-0.03662,-0.16144,-0.08896,-0.0737,0.02625,0.04913,-0.00595,-0.02518,0.01877,-0.12268,0.01663,-0.05661,0.01099,-0.03464
3.349,-0.0209,-0.03387,-0.03418,-0.12482,-0.09186,-0.07202,0.06546,0.11917,-0.00793,-0.02228,0.05829,-0.01312,0.03342,-0.02975,0.0148,-0.03479
3.3495,-0.02075,-0.03784,-0.03372,-0.06134,-0.09109,-0.06409,0.09018,0.17548,-0.01221,-0.01907,0.1059,0.11887,0.03448,-0.01404,0.01999,-0.03677
3.35,-0.0145,-0.03922,-0.03418,0.00824,-0.07431,-0.05478,0.09064,0.18799,-0.0177,-0.0177,0.12207,0.17639,0.02151,-0.02625,0.02365,-0.03799
3.3505,-0.00916,-0.03845,-0.03479,0.08133,-0.0502,-0.04852,0.06866,0.14847,-0.02625,-0.01633,0.08438,0.12894,0.0,-0.04913,0.02197,-0.03998
3.351,-0.00763,-0.03754,-0.0325,0.14282,-0.03632,-0.047,0.04028,0.0882,-0.03815,-0.0148,0.01862,0.05615,-0.03174,-0.05463,0.01602,-0.04013
3.3515,-0.00946,-0.03845,-0.0296,0.15579,-0.03418,-0.04852,0.01968,0.04456,-0.05112,-0.01282,-0.03967,0.04242,-0.06638,-0.03693,0.00961,-0.03891
3.352,-0.01129,-0.0412,-0.02777,0.10406,-0.0322,-0.04715,0.00916,0.03571,-0.0621,-0.01312,-0.07538,0.07141,-0.07889,-0.01358,0.00275,-0.03769
3.3525,-0.01328,-0.04471,-0.02808,0.0322,-0.02518,-0.04471,0.00137,0.04379,-0.07065,-0.01602,-0.09369,0.06943,-0.06271,0.00046,-0.00809,-0.03937
3.353,-0.01358,-0.04639,-0.02914,-0.00473,-0.01511,-0.04379,-0.01099,0.04608,-0.07294,-0.01877,-0.09598,0.01129,-0.05264,0.00809,-0.02731,-0.0441
3.3535,-0.01129,-0.04456,-0.03082,-0.00259,-0.00641,-0.04501,-0.02777,0.03616,-0.06653,-0.01801,-0.07828,-0.05157,-0.07767,0.01663,-0.05264,-0.05051
3.354,-0.00458,-0.0415,-0.03372,0.00229,0.0032,-0.04623,-0.04684,0.02487,-0.05234,-0.0177,-0.04318,-0.06195,-0.1149,0.02518,-0.08133,-0.05478
3.3545,0.00336,-0.03937,-0.03708,-0.00641,0.01572,-0.04593,-0.06073,0.0174,-0.0383,-0.01541,-0.00534,-0.02228,-0.12009,0.02777,-0.11047,-0.05524
3.355,0.00885,-0.03799,-0.03952,-0.01648,0.02533,-0.04501,-0.05951,0.01175,-0.02792,-0.01129,0.01419,0.02731,-0.08591,0.0235,-0.13046,-0.05402
3.3555,0.00885,-0.03754,-0.04089,-0.01617,0.02655,-0.04425,-0.04517,0.0058,-0.02136,-0.00809,0.01282,0.06271,-0.03998,0.01663,-0.12253,-0.05188
3.356,0.00687,-0.03967,-0.0415,-0.01526,0.01297,-0.04349,-0.02777,0.00092,-0.01587,-0.01053,0.00961,0.0882,-0.00519,0.00549,-0.07492,-0.04852
3.3565,0.00381,-0.04425,-0.03967,-0.02533,-0.01373,-0.04288,-0.01617,-0.00168,-0.01083,-0.01877,0.02045,0.10437,0.01404,-0.02258,-0.01236,-0.0444
3.357,-0.00107,-0.04959,-0.03662,-0.03876,-0.04196,-0.04395,-0.01129,-0.00412,-0.00443,-0.02991,0.03494,0.0943,0.02213,-0.06927,0.02747,-0.04013
3.3575,-0.00732,-0.05325,-0.03204,-0.03098,-0.05478,-0.04822,-0.01114,-0.0061,0.00336,-0.03586,0.02777,0.03494,0.01831,-0.10056,0.04181,-0.03799
3.358,-0.01297,-0.05371,-0.02884,0.01541,-0.047,-0.05188,-0.01282,-0.00961,0.0087,-0.02884,-0.00336,-0.07141,0.01129,-0.0824,0.06271,-0.03891
3.3585,-0.0148,-0.05157,-0.0267,0.07965,-0.03204,-0.05188,-0.01907,-0.01297,0.0061,-0.01358,-0.0354,-0.16525,0.00626,-0.02914,0.10147,-0.03922
3.359,-0.01282,-0.05066,-0.02289,0.11658,-0.02396,-0.05035,-0.02853,-0.01678,-0.0058,0.00214,-0.05127,-0.16357,0.0029,0.0148,0.12817,-0.03738
3.3595,-0.00961,-0.05051,-0.01801,0.1059,-0.02274,-0.04868,-0.04013,-0.0209,-0.01862,0.00977,-0.05783,-0.05646,-0.0029,0.02716,0.12009,-0.03433
3.36,-0.00824,-0.05066,-0.0145,0.07187,-0.02213,-0.04868,-0.05341,-0.02594,-0.02579,0.00992,-0.06454,0.05768,-0.0119,0.01617,0.09384,-0.03265
3.3605,-0.01022,-0.05051,-0.01465,0.047,-0.02548,-0.04852,-0.06516,-0.02975,-0.02548,0.00885,-0.07385,0.08408,-0.0209,-0.01343,0.07126,-0.03296
3.361,-0.01389,-0.05219,-0.01953,0.03677,-0.04059,-0.04745,-0.07095,-0.03113,-0.02121,0.00641,-0.08102,0.03738,-0.02594,-0.05814,0.04822,-0.03616
3.3615,-0.01648,-0.05585,-0.02594,0.02243,-0.06561,-0.04517,-0.06439,-0.02945,-0.01343,0.00443,-0.08362,-0.00763,-0.02792,-0.09155,0.02228,-0.03906
3.362,-0.01801,-0.06058,-0.0325,-0.0058,-0.07965,-0.04166,-0.04761,-0.02563,-0.0029,-0.00092,-0.07751,-0.01526,-0.03235,-0.09079,0.00488,-0.0412
3.3625,-0.01694,-0.06256,-0.03891,-0.04639,-0.06317,-0.03845,-0.02792,-0.02106,0.00198,-0.00946,-0.06073,-0.00854,-0.04074,-0.0676,0.00153,-0.04227
3.363,-0.01419,-0.0589,-0.04333,-0.08865,-0.02487,-0.03616,-0.00793,-0.01617,-0.00626,-0.0209,-0.03845,-0.00732,-0.04944,-0.05249,0.00504,-0.04532
3.3635,-0.01053,-0.05066,-0.04395,-0.10941,-0.00061,-0.0354,0.01663,-0.0119,-0.02472,-0.03021,-0.02182,-0.009,-0.05341,-0.04974,0.00748,-0.05081
3.364,-0.00671,-0.04074,-0.04059,-0.09048,-0.00748,-0.03494,0.04333,-0.01083,-0.03708,-0.03845,-0.01923,-0.00732,-0.05432,-0.04074,0.01556,-0.05295
3.3645,-0.00412,-0.03235,-0.03693,-0.03983,-0.03571,-0.03387,0.05325,-0.01328,-0.03159,-0.04364,-0.0264,-0.00717,-0.0531,-0.01907,0.03616,-0.04791
3.365,-0.00366,-0.02594,-0.03464,0.01511,-0.05737,-0.03494,0.03555,-0.01816,-0.00992,-0.04593,-0.03281,-0.01083,-0.04623,-0.00137,0.05966,-0.04333
3.3655,-0.00473,-0.01907,-0.03525,0.05188,-0.056,-0.03708,0.00488,-0.02487,0.01556,-0.04776,-0.02975,-0.01373,-0.0351,0.00427,0.0679,-0.04272
3.366,-0.00641,-0.01389,-0.03769,0.06775,-0.03418,-0.0386,-0.01602,-0.03021,0.0383,-0.04852,-0.02075,-0.01221,-0.02716,0.00702,0.05539,-0.04623
3.3665,-0.00519,-0.01221,-0.04074,0.05402,-0.00305,-0.03891,-0.02441,-0.03403,0.05707,-0.04974,-0.01129,-0.00977,-0.02319,0.01511,0.03418,-0.0499
3.367,-0.00473,-0.01495,-0.04196,-0.01495,0.02518,-0.03693,-0.03052,-0.03769,0.06454,-0.05188,-0.00412,-0.00961,-0.01801,0.02594,0.0177,-0.05295
3.3675,-0.00656,-0.02075,-0.04059,-0.14587,0.047,-0.03738,-0.03815,-0.04181,0.05417,-0.05875,-0.00015,-0.01129,-0.01144,0.03326,0.00992,-0.05768
3.368,-0.01022,-0.02411,-0.03769,-0.29388,0.05859,-0.03769,-0.03342,-0.04608,0.0293,-0.07095,0.01236,-0.01099,-0.01419,0.03601,0.0058,-0.06302
3.3685,-0.01282,-0.02579,-0.03387,-0.37933,0.05234,-0.04028,-0.01068,-0.04791,0.00366,-0.07919,0.04425,-0.009,-0.0322,0.03036,0.00198,-0.06332
3.369,-0.01099,-0.02991,-0.03372,-0.35019,0.02274,-0.04456,0.00626,-0.04715,-0.01373,-0.07538,0.08224,-0.00458,-0.04791,0.0116,-0.00153,-0.05829
3.3695,-0.0058,-0.03616,-0.03494,-0.22781,-0.02289,-0.04913,-0.0061,-0.04333,-0.02701,-0.05905,0.0943,0.00061,-0.04166,-0.01175,-0.00488,-0.05188
3.37,-0.00244,-0.04303,-0.03601,-0.08926,-0.06714,-0.05295,-0.0383,-0.03723,-0.03906,-0.03677,0.07095,0.00549,-0.01144,-0.01938,-0.00809,-0.04761
3.3705,-0.00183,-0.04608,-0.03586,0.00244,-0.09689,-0.05524,-0.0473,-0.02991,-0.0473,-0.01694,0.03662,0.00641,0.02457,0.00427,-0.00809,-0.04532
3.371,-0.00137,-0.04486,-0.03418,0.03479,-0.11871,-0.0563,-0.00977,-0.02289,-0.04822,0.00015,0.01251,0.00595,0.05234,0.04745,-0.00519,-0.04303
3.3715,-0.00015,-0.04181,-0.03357,0.02731,-0.13931,-0.0528,0.04257,-0.0174,-0.0441,0.01541,-0.0145,0.00763,0.06332,0.06546,-0.00122,-0.04074
3.372,0.00168,-0.03906,-0.03662,0.01312,-0.14694,-0.04868,0.06287,-0.01373,-0.0415,0.02869,-0.05508,0.00977,0.05447,0.01785,0.00168,-0.03906
3.3725,0.00061,-0.0383,-0.04181,0.01862,-0.12497,-0.04593,0.04333,-0.01129,-0.04456,0.04059,-0.09323,0.01053,0.0145,-0.08804,0.00275,-0.03906
3.373,-0.00061,-0.03769,-0.04532,0.04684,-0.0798,-0.04425,0.01251,-0.00809,-0.04639,0.047,-0.10757,0.01007,-0.0592,-0.18555,0.00137,-0.03784
3.3735,-0.00122,-0.03693,-0.04532,0.07889,-0.03967,-0.04181,-0.00732,-0.00504,-0.04105,0.04669,-0.09735,0.00854,-0.13229,-0.20294,-0.00015,-0.03525
3.374,-0.00015,-0.03723,-0.04303,0.08728,-0.02319,-0.03922,-0.02182,-0.0032,-0.02823,0.04227,-0.0769,0.00717,-0.15549,-0.13855,-0.00046,-0.03342
3.3745,-0.00076,-0.03815,-0.03998,0.05661,-0.0238,-0.03754,-0.03876,-0.00214,-0.01282,0.03723,-0.05692,0.00443,-0.12375,-0.06317,0.00137,-0.03326
3.375,-0.00031,-0.03876,-0.0351,-0.01022,-0.02762,-0.03815,-0.05615,-0.00122,0.00153,0.0322,-0.04227,0.00168,-0.09155,-0.03174,0.00427,-0.03448
3.3755,-0.00046,-0.03693,-0.0267,-0.08148,-0.0264,-0.03922,-0.06653,-0.00031,0.00977,0.02518,-0.03922,-0.00046,-0.09476,-0.03433,0.00565,-0.03677
3.376,-0.00107,-0.03555,-0.01938,-0.0882,-0.01801,-0.03815,-0.06836,-0.00198,0.00977,0.01328,-0.04517,-0.00702,-0.10162,-0.03586,0.00275,-0.03937
3.3765,-0.00381,-0.03906,-0.01602,0.01404,-0.0119,-0.03983,-0.06241,-0.00519,0.00122,-0.00214,-0.04913,-0.02625,-0.07599,-0.02853,-0.0058,-0.04181
3.377,-0.00763,-0.0473,-0.0174,0.17563,-0.02228,-0.04501,-0.05127,-0.00854,-0.00793,-0.01419,-0.04395,-0.05478,-0.03632,-0.02121,-0.01862,-0.04181
3.3775,-0.01114,-0.0563,-0.0235,0.28168,-0.05234,-0.05081,-0.03769,-0.00732,-0.01312,-0.0235,-0.03189,-0.08072,-0.01205,-0.02014,-0.03189,-0.03983
3.378,-0.01389,-0.0621,-0.03601,0.2742,-0.07813,-0.05249,-0.01678,-0.00183,-0.01648,-0.0264,-0.02075,-0.09415,0.00473,-0.0206,-0.0386,-0.03693
3.3785,-0.01434,-0.06424,-0.05493,0.19821,-0.07767,-0.05234,0.01358,0.00519,-0.01968,-0.01999,-0.01221,-0.09186,0.03616,-0.02029,-0.03494,-0.03571
3.379,-0.01144,-0.06027,-0.07706,0.12741,-0.0528,-0.05051,0.04425,0.01144,-0.02243,-0.01175,-0.00275,-0.07874,0.06714,-0.0206,-0.02625,-0.03479
3.3795,-0.00595,-0.05341,-0.09583,0.08224,-0.03036,-0.04791,0.0589,0.01556,-0.02121,-0.00626,0.00702,-0.06378,0.06668,-0.02335,-0.01663,-0.03494
3.38,-0.00153,-0.04807,-0.11215,0.04211,-0.02151,-0.04395,0.0502,0.01892,-0.02045,-0.00565,0.0148,-0.04868,0.03403,-0.02884,-0.00641,-0.03525
3.3805,0.00015,-0.04547,-0.1239,-0.00076,-0.01984,-0.04028,0.0267,0.0206,-0.02594,-0.00916,0.01907,-0.01846,-0.00763,-0.03723,0.00565,-0.03662
3.381,-0.00076,-0.04227,-0.11826,-0.0386,-0.01755,-0.03952,0.00381,0.01999,-0.03754,-0.01251,0.02121,0.0415,-0.04883,-0.04242,0.02609,-0.03769
3.3815,-0.00412,-0.03708,-0.08484,-0.07111,-0.01846,-0.0412,-0.01434,0.01648,-0.04852,-0.01465,0.02258,0.10895,-0.08987,-0.03937,0.05768,-0.03677
3.382,-0.00717,-0.03235,-0.03021,-0.10254,-0.02213,-0.04593,-0.03052,0.01022,-0.05249,-0.01862,0.02274,0.13153,-0.10864,-0.03082,0.09094,-0.03586
3.3825,-0.00854,-0.03021,0.0267,-0.12207,-0.01938,-0.04974,-0.04272,0.00473,-0.04837,-0.02487,0.01801,0.08987,-0.07858,-0.02121,0.10178,-0.03616
3.383,-0.00824,-0.02899,0.06866,-0.11169,-0.00916,-0.05386,-0.04639,-0.00061,-0.0354,-0.03296,0.00565,0.02396,-0.01831,-0.01083,0.08209,-0.03845
3.3835,-0.0087,-0.02533,0.08652,-0.06744,-0.00839,-0.05814,-0.04211,-0.00626,-0.01694,-0.03876,-0.00839,-0.01724,0.02029,0.00092,0.04242,-0.04196
3.384,-0.00854,-0.01968,0.08163,-0.00443,-0.02914,-0.06165,-0.03479,-0.0119,-0.00015,-0.03891,-0.01312,-0.02777,0.01541,0.01236,0.00153,-0.04364
3.3845,-0.00534,-0.01648,0.06531,0.0531,-0.05463,-0.06256,-0.02686,-0.01572,0.00427,-0.03265,-0.00656,-0.02457,-0.01099,0.02319,-0.03662,-0.04349
3.385,0.00046,-0.01755,0.04105,0.08133,-0.06027,-0.06149,-0.01923,-0.01617,-0.00366,-0.02289,0.00412,-0.00946,-0.03769,0.03677,-0.065,-0.04318
3.3855,0.00626,-0.02243,0.01617,0.06363,-0.04303,-0.0589,-0.01175,-0.01419,-0.01434,-0.01724,0.0087,0.01953,-0.06775,0.05707,-0.07843,-0.04395
3.386,0.00961,-0.02594,-0.00198,0.00885,-0.02518,-0.05798,-0.00412,-0.01038,-0.02029,-0.01617,0.00519,0.04593,-0.11292,0.08484,-0.08057,-0.0444
3.3865,0.01083,-0.02625,-0.01648,-0.05035,-0.02258,-0.05554,0.0032,-0.00641,-0.02441,-0.01846,-0.00229,0.04395,-0.15228,0.11124,-0.09293,-0.04456
3.387,0.01083,-0.02808,-0.0296,-0.09262,-0.03143,-0.05386,0.01053,-0.00031,-0.03021,-0.02182,-0.00946,0.01572,-0.14923,0.12283,-0.12787,-0.04364
3.3875,0.01129,-0.03265,-0.04211,-0.1181,-0.03799,-0.0502,0.01495,0.00671,-0.03586,-0.02701,-0.01114,-0.01053,-0.09949,0.11002,-0.15198,-0.04196
3.388,0.01511,-0.03998,-0.0528,-0.14038,-0.03204,-0.04608,0.01038,0.01114,-0.03799,-0.03296,-0.00671,-0.01633,-0.04044,0.08438,-0.1123,-0.04105
3.3885,0.02075,-0.04684,-0.06042,-0.15549,-0.01312,-0.04181,-0.00305,0.01007,-0.03723,-0.03494,0.00183,-0.00519,-0.00626,0.06271,-0.00092,-0.0412
3.389,0.02487,-0.05264,-0.06622,-0.13733,0.01175,-0.03891,-0.01999,0.00519,-0.03555,-0.03265,0.00549,0.00549,0.00351,0.03448,0.11948,-0.04089
3.3895,0.02411,-0.05692,-0.06897,-0.07736,0.03647,-0.03769,-0.03098,-0.00153,-0.03525,-0.02869,-0.00092,0.00839,0.00977,-0.02319,0.18219,-0.03922
3.39,0.01831,-0.06058,-0.06866,0.00076,0.05524,-0.03494,-0.03372,-0.01038,-0.03815,-0.02884,-0.01114,0.00595,0.01205,-0.09811,0.16312,-0.03616
3.3905,0.01114,-0.06073,-0.06454,0.05981,0.06729,-0.03204,-0.03052,-0.03098,-0.04211,-0.03494,-0.01297,0.00519,-0.00275,-0.13687,0.09033,-0.03494
3.391,0.00641,-0.05798,-0.05707,0.07706,0.07339,-0.03021,-0.02533,-0.07294,-0.04318,-0.0415,-0.00275,0.00885,-0.03983,-0.1152,0.02151,-0.03571
3.3915,0.0032,-0.05188,-0.05081,0.06577,0.07309,-0.0296,-0.02197,-0.1152,-0.03632,-0.04349,0.01236,0.01282,-0.07965,-0.07202,-0.00397,-0.03754
3.392,-0.00198,-0.04745,-0.04578,0.04898,0.06165,-0.03052,-0.02075,-0.10223,-0.02579,-0.03769,0.01968,0.01221,-0.10132,-0.06454,0.00397,-0.03967
3.3925,-0.00732,-0.04456,-0.04333,0.0383,0.0296,-0.03418,-0.02014,-0.01648,-0.01633,-0.03159,0.01923,0.00763,-0.0972,-0.10361,0.01999,-0.04288
3.393,-0.01205,-0.04364,-0.03922,0.0296,-0.02487,-0.03952,-0.02014,0.07797,-0.0119,-0.03067,0.0209,0.00336,-0.07797,-0.15411,0.03799,-0.04532
3.3935,-0.0177,-0.0444,-0.03433,0.01907,-0.08408,-0.04379,-0.02151,0.10269,-0.01694,-0.03448,0.02441,0.00015,-0.05753,-0.16922,0.07019,-0.047
3.394,-0.0264,-0.04807,-0.02777,0.00656,-0.11063,-0.04562,-0.02167,0.06256,-0.03326,-0.03677,0.02258,-0.00229,-0.03967,-0.13153,0.11261,-0.04898
3.3945,-0.03571,-0.05188,-0.02151,-0.01282,-0.09018,-0.04501,-0.0177,0.02258,-0.05356,-0.0354,0.0148,-0.00748,-0.03021,-0.06393,0.13977,-0.04898
3.395,-0.04196,-0.05234,-0.01633,-0.04074,-0.05157,-0.04486,-0.01251,0.01709,-0.06821,-0.03281,0.00778,-0.0174,-0.02731,-0.00793,0.12344,-0.04944
3.3955,-0.04227,-0.05142,-0.01587,-0.06393,-0.04044,-0.04593,-0.01053,0.02594,-0.07187,-0.0293,0.00565,-0.02945,-0.0293,0.01923,0.0705,-0.05142
3.396,-0.03784,-0.05112,-0.01923,-0.06012,-0.06958,-0.04852,-0.01343,0.02686,-0.06607,-0.02808,0.0029,-0.03922,-0.03235,0.02716,0.01526,-0.05386
3.3965,-0.03159,-0.05081,-0.02747,-0.0293,-0.10895,-0.04974,-0.01648,0.02243,-0.0502,-0.02975,-0.00244,-0.03387,-0.03525,0.02426,-0.01587,-0.05356
3.397,-0.02518,-0.04959,-0.03662,0.01236,-0.12833,-0.0499,-0.01419,0.01816,-0.0206,-0.03281,-0.00961,-0.00443,-0.03632,0.00717,-0.02426,-0.04852
3.3975,-0.01862,-0.04547,-0.04303,0.05188,-0.12589,-0.05081,-0.00854,0.00916,0.01236,-0.03311,-0.01678,0.03891,-0.03418,-0.01785,-0.01892,-0.04211
3.398,-0.01129,-0.04089,-0.04608,0.0824,-0.11322,-0.0502,-0.00565,-0.0119,0.03494,-0.03036,-0.02106,0.0679,-0.02808,-0.03021,-0.00488,-0.03815
3.3985,-0.00519,-0.04028,-0.04364,0.0856,-0.09033,-0.04608,-0.00687,-0.04028,0.04379,-0.02518,-0.0206,0.06561,-0.01923,-0.02243,0.01099,-0.03723
3.399,-0.0032,-0.04456,-0.04227,0.03708,-0.05798,-0.04044,-0.01205,-0.05539,0.04669,-0.0206,-0.01694,0.04379,-0.00854,-0.00931,0.01877,-0.03815
3.3995,-0.00488,-0.04974,-0.04257,-0.05646,-0.02274,-0.03616,-0.02014,-0.0383,0.04929,-0.01953,-0.01556,0.02625,-0.00137,-0.00687,0.01556,-0.03891
3.4,-0.00839,-0.05142,-0.04181,-0.14801,0.00076,-0.03632,-0.03052,0.00259,0.04761,-0.02243,-0.02029,0.01694,-0.00198,-0.01617,0.00351,-0.03876
3.4005,-0.01373,-0.05051,-0.04044,-0.18646,0.009,-0.03922,-0.04059,0.03601,0.04013,-0.02853,-0.02899,0.009,-0.00992,-0.03357,-0.01328,-0.03876
3.401,-0.01923,-0.04837,-0.03906,-0.16403,0.00946,-0.04318,-0.04471,0.03738,0.03204,-0.03189,-0.04089,0.00076,-0.01877,-0.05585,-0.03204,-0.03891
3.4015,-0.02243,-0.04669,-0.03922,-0.11703,0.00519,-0.04745,-0.03662,0.0174,0.02533,-0.02823,-0.05264,-0.00412,-0.02274,-0.07172,-0.04822,-0.03845
3.402,-0.01984,-0.04456,-0.03967,-0.0856,-0.01724,-0.05295,-0.01678,0.00122,0.01648,-0.01968,-0.06073,-0.00519,-0.02167,-0.06531,-0.05432,-0.03891
3.4025,-0.01282,-0.04425,-0.03922,-0.07629,-0.06271,-0.05844,-0.00031,0.00015,0.00366,-0.01144,-0.06134,-0.00458,-0.02136,-0.03662,-0.04837,-0.04044
3.403,-0.00687,-0.04303,-0.03784,-0.06943,-0.10956,-0.05936,0.00259,0.00336,-0.00824,-0.00702,-0.05615,-0.0032,-0.02289,-0.01038,-0.03067,-0.04395
3.4035,-0.00443,-0.03891,-0.03723,-0.04578,-0.12009,-0.05539,-0.00351,-0.00061,-0.00916,-0.00473,-0.05295,-0.00153,-0.0235,-0.00504,-0.01038,-0.047
3.404,-0.00519,-0.03128,-0.03738,0.0145,-0.08713,-0.04898,-0.00763,-0.00763,-0.00122,-0.00122,-0.05341,-0.00122,-0.02213,-0.01419,0.00427,-0.04761
3.4045,-0.00595,-0.02884,-0.0386,0.12192,-0.04181,-0.04501,-0.00732,-0.00549,0.00336,0.00427,-0.05325,0.00015,-0.01892,-0.01984,0.01083,-0.04501
3.405,-0.00656,-0.03296,-0.04074,0.23102,-0.01572,-0.04532,-0.0087,0.01114,-0.00015,0.00732,-0.04791,0.00626,-0.01617,-0.01724,0.01144,-0.04028
3.4055,-0.00763,-0.03922,-0.04242,0.24994,-0.00656,-0.04501,-0.01389,0.03021,-0.00671,0.00595,-0.03906,0.01709,-0.01312,-0.01236,0.00946,-0.03571
3.406,-0.00931,-0.04196,-0.04303,0.14679,0.00153,-0.04639,-0.01831,0.03418,-0.01022,-0.00046,-0.03021,0.03174,-0.00732,-0.009,0.00961,-0.03357
3.4065,-0.00931,-0.0415,-0.04242,0.00458,0.00717,-0.04547,-0.02121,0.02197,-0.009,-0.01465,-0.02335,0.05066,-0.00336,-0.00732,0.01236,-0.03281
3.407,-0.00732,-0.0412,-0.04074,-0.09018,0.00168,-0.04349,-0.02518,0.00824,-0.00793,-0.03448,-0.01831,0.06699,-0.00549,-0.00824,0.01328,-0.03479
3.4075,-0.00229,-0.04074,-0.04089,-0.14359,-0.00931,-0.04044,-0.02975,0.00473,-0.00931,-0.04929,-0.01587,0.06729,-0.01022,-0.01144,0.00839,-0.0386
3.408,0.00443,-0.03845,-0.04089,-0.19119,-0.01205,-0.03754,-0.0325,0.00702,-0.01328,-0.04974,-0.01404,0.05066,-0.00427,-0.01419,-0.00702,-0.04257
3.4085,0.01022,-0.0383,-0.04028,-0.21927,-0.00793,-0.03448,-0.02991,0.00641,-0.01755,-0.0354,-0.01297,0.02075,0.01022,-0.01526,-0.04059,-0.0444
3.409,0.01099,-0.04059,-0.03876,-0.19562,-0.01022,-0.03265,-0.02243,0.00107,-0.02136,-0.01511,-0.01099,-0.03021,0.01617,-0.01724,-0.08606,-0.04456
3.4095,0.01022,-0.04272,-0.03708,-0.12909,-0.01297,-0.03387,-0.01068,-0.0061,-0.02228,0.00427,-0.00961,-0.09689,-0.00519,-0.01953,-0.11337,-0.04364
3.41,0.00931,-0.04196,-0.03479,-0.05127,0.00076,-0.03632,0.00504,-0.01221,-0.01877,0.01846,-0.00854,-0.14725,-0.05081,-0.01755,-0.08484,-0.04135
3.4105,0.00809,-0.03891,-0.03357,0.02609,0.02716,-0.03922,0.01617,-0.01862,-0.01343,0.02686,-0.0087,-0.14755,-0.09506,-0.00763,-0.00427,-0.03967
3.411,0.00626,-0.03647,-0.03448,0.10727,0.04501,-0.04395,0.01526,-0.02472,-0.00946,0.03159,-0.00626,-0.10696,-0.10284,0.01221,0.07034,-0.03891
3.4115,0.00443,-0.03708,-0.0351,0.17654,0.03967,-0.04745,0.0029,-0.03113,-0.00977,0.03326,0.01099,-0.06653,-0.06256,0.03326,0.08408,-0.03891
3.412,0.0032,-0.03952,-0.03632,0.19958,0.00793,-0.04929,-0.00763,-0.0415,-0.01419,0.03082,0.05325,-0.04486,0.00015,0.04425,0.04654,-0.03952
3.4125,0.00229,-0.04257,-0.03418,0.16205,-0.04532,-0.0473,-0.01068,-0.05447,-0.01831,0.02274,0.10315,-0.02716,0.04379,0.03708,0.00687,-0.03922
3.413,0.00198,-0.04425,-0.03265,0.0885,-0.09933,-0.04532,-0.0087,-0.06546,-0.02182,0.00687,0.11993,0.0029,0.05066,0.01694,-0.00336,-0.0386
3.4135,0.00259,-0.04532,-0.03204,0.0238,-0.12726,-0.047,-0.00763,-0.06592,-0.02609,-0.01862,0.08652,0.03403,0.0293,-0.00183,0.00137,-0.03708
3.414,0.00168,-0.04623,-0.03159,-0.00549,-0.11444,-0.05188,-0.00687,-0.0528,-0.03189,-0.05234,0.02731,0.04257,-0.0148,-0.01251,0.00092,-0.03494
3.4145,-0.00122,-0.04669,-0.03098,-0.00748,-0.07782,-0.05478,-0.0061,-0.02609,-0.03845,-0.08255,-0.02106,0.02396,-0.07828,-0.02014,-0.01053,-0.0351
3.415,-0.00595,-0.04486,-0.02914,-0.00473,-0.047,-0.05478,-0.00793,0.01297,-0.0473,-0.0943,-0.04623,0.00397,-0.13596,-0.0296,-0.02808,-0.03769
3.4155,-0.01053,-0.04059,-0.02899,-0.01175,-0.03479,-0.05417,-0.0116,0.0528,-0.05798,-0.0827,-0.05722,0.00717,-0.15076,-0.04013,-0.04364,-0.04272
3.416,-0.01266,-0.03586,-0.03052,-0.02533,-0.03281,-0.05341,-0.01389,0.06699,-0.0676,-0.0589,-0.06226,0.02258,-0.11246,-0.04868,-0.047,-0.0473
3.4165,-0.0116,-0.03311,-0.03174,-0.03387,-0.03189,-0.05325,-0.01495,0.03738,-0.07034,-0.03265,-0.06454,0.02075,-0.0473,-0.05463,-0.02823,-0.04929
3.417,-0.01068,-0.0325,-0.03174,-0.03448,-0.03448,-0.05066,-0.02457,-0.01678,-0.06226,-0.00763,-0.0647,0.00046,0.00427,-0.05829,0.00687,-0.04959
3.4175,-0.00992,-0.03204,-0.03128,-0.02838,-0.04059,-0.04791,-0.0444,-0.05493,-0.04608,0.01328,-0.06226,-0.01282,0.01907,-0.05707,0.0351,-0.05142
3.418,-0.00977,-0.02884,-0.03082,-0.02304,-0.04395,-0.04654,-0.06454,-0.05905,-0.02975,0.03113,-0.05753,-0.00809,0.00381,-0.03525,0.04074,-0.05203
3.4185,-0.00854,-0.02441,-0.03235,-0.02258,-0.04196,-0.04578,-0.06851,-0.04242,-0.01785,0.04303,-0.05096,0.00229,-0.0238,0.01434,0.03265,-0.04852
3.419,-0.00839,-0.02274,-0.03387,-0.02747,-0.03433,-0.04578,-0.05386,-0.02182,-0.00717,0.0502,-0.04395,0.00671,-0.05539,0.06393,0.03036,-0.04181
3.4195,-0.01099,-0.02319,-0.03693,-0.03662,-0.02594,-0.0441,-0.03952,-0.00076,0.00641,0.0502,-0.03586,0.00839,-0.08102,0.07507,0.03357,-0.0383
3.42,-0.01328,-0.02365,-0.04013,-0.04547,-0.01755,-0.04059,-0.03662,0.01862,0.02457,0.04532,-0.02838,0.01282,-0.08362,0.05081,0.02502,-0.0386
3.4205,-0.01144,-0.02136,-0.04608,-0.04974,-0.01007,-0.03769,-0.04532,0.02716,0.04227,0.03555,-0.02151,0.01587,-0.05936,0.02838,-0.00015,-0.04074
3.421,-0.00534,-0.02228,-0.05264,-0.04669,0.00046,-0.03922,-0.04837,0.01938,0.05356,0.02441,-0.01297,0.01602,-0.02823,0.01999,-0.02563,-0.04303
3.4215,0.00076,-0.03006,-0.05402,-0.03601,0.01709,-0.04318,-0.03357,0.00549,0.05295,0.01541,-0.00534,0.01343,-0.0148,0.00778,-0.03922,-0.04486
3.422,0.00366,-0.04089,-0.05157,-0.01831,0.02563,-0.04684,-0.00031,-0.00122,0.03784,0.00854,0.00046,0.0116,-0.02777,-0.01083,-0.04044,-0.04761
3.4225,0.00381,-0.04761,-0.04684,0.0058,0.01724,-0.04654,0.03662,0.00122,0.01434,0.00412,0.00183,0.00916,-0.05676,-0.02029,-0.03326,-0.04959
3.423,0.00412,-0.04883,-0.04349,0.02823,0.00137,-0.0441,0.05737,0.00458,-0.00763,-0.00031,-0.00443,0.00702,-0.08072,-0.01587,-0.01877,-0.05096
3.4235,0.00519,-0.04852,-0.04471,0.04013,-0.00793,-0.04333,0.04913,0.00443,-0.02411,-0.00626,-0.01389,0.00656,-0.08179,-0.0145,-0.00351,-0.05096
3.424,0.00519,-0.05127,-0.05096,0.0383,-0.0145,-0.0444,0.02533,0.00275,-0.03601,-0.01205,-0.02228,0.00656,-0.06302,-0.02747,0.00198,-0.05173
3.4245,0.00473,-0.05371,-0.06088,0.03296,-0.03815,-0.04517,0.0058,-0.00046,-0.0441,-0.0174,-0.02808,0.00336,-0.04349,-0.05554,0.00473,-0.05035
3.425,0.00504,-0.05402,-0.07111,0.02914,-0.08286,-0.04517,-0.00137,-0.01282,-0.04929,-0.02304,-0.03235,-0.00061,-0.03616,-0.08621,0.02182,-0.04517
3.4255,0.00641,-0.05203,-0.07706,0.02533,-0.12207,-0.04623,-0.00443,-0.03235,-0.05325,-0.03006,-0.03586,-0.00336,-0.0354,-0.09933,0.05814,-0.03952
3.426,0.00687,-0.04883,-0.07629,0.01465,-0.12711,-0.04837,-0.01038,-0.04684,-0.05539,-0.03937,-0.03983,-0.00565,-0.0293,-0.08057,0.09521,-0.03586
3.4265,0.00305,-0.04593,-0.06668,-0.00168,-0.09537,-0.05035,-0.01801,-0.04868,-0.05661,-0.05203,-0.04822,-0.00885,-0.0206,-0.03922,0.1152,-0.03784
3.427,-0.00198,-0.04349,-0.04883,-0.01495,-0.05447,-0.05219,-0.02136,-0.04364,-0.05569,-0.06531,-0.05951,-0.01312,-0.01663,0.00992,0.12253,-0.04044
3.4275,-0.0058,-0.04013,-0.02747,-0.02182,-0.03052,-0.05234,-0.02121,-0.04242,-0.05386,-0.07065,-0.06516,-0.01816,-0.01541,0.05981,0.12436,-0.04227
3.428,-0.01053,-0.03784,-0.00946,-0.02655,-0.02365,-0.05112,-0.01526,-0.04501,-0.05295,-0.06134,-0.05783,-0.02213,-0.01007,0.09933,0.1149,-0.0412
3.4285,-0.01678,-0.03769,-0.00061,-0.03525,-0.01877,-0.05188,-0.00168,-0.03662,-0.05096,-0.04593,-0.03906,-0.02518,0.00473,0.10849,0.08408,-0.04074
3.429,-0.02182,-0.03891,0.00137,-0.04684,-0.00763,-0.05646,0.01541,-0.01297,-0.04288,-0.0351,-0.01907,-0.02426,0.02609,0.06989,0.04333,-0.0415
3.4295,-0.02014,-0.03922,-0.00122,-0.04807,0.00229,-0.06348,0.03021,0.00671,-0.02823,-0.03311,-0.00839,-0.01877,0.04288,0.00168,0.01892,-0.04425
3.43,-0.01236,-0.03693,-0.00473,-0.02716,0.00717,-0.07187,0.0383,0.00473,-0.01404,-0.03525,-0.00656,-0.00641,0.03769,-0.04593,0.01602,-0.04471
3.4305,-0.00534,-0.03662,-0.00656,0.00504,0.00519,-0.07721,0.03922,-0.00565,-0.00641,-0.03586,-0.00717,0.00626,-0.00305,-0.03952,0.02167,-0.04196
3.431,-0.00275,-0.03937,-0.00732,0.01831,-0.00763,-0.08041,0.02487,0.00107,-0.00259,-0.03387,-0.00595,0.01114,-0.06851,0.00427,0.01999,-0.03983
3.4315,-0.00336,-0.04364,-0.00961,-0.00366,-0.03555,-0.08148,-0.01373,0.03159,-0.00046,-0.03143,0.00336,0.0061,-0.11902,0.03143,0.01266,-0.04044
3.432,-0.00381,-0.04639,-0.01541,-0.04395,-0.06805,-0.08072,-0.07431,0.06622,-0.00229,-0.03159,0.01923,0.00168,-0.1239,0.00549,0.00732,-0.04333
3.4325,-0.00198,-0.04761,-0.02151,-0.06683,-0.07843,-0.07965,-0.12848,0.0766,-0.0087,-0.03479,0.03662,0.01114,-0.09552,-0.05402,0.00519,-0.04608
3.433,0.00122,-0.04868,-0.0264,-0.06317,-0.05722,-0.07706,-0.13123,0.04974,-0.01663,-0.0386,0.04135,0.03174,-0.06805,-0.08972,0.00549,-0.04395
3.4335,0.00565,-0.04898,-0.0296,-0.04913,-0.02472,-0.07431,-0.07233,-0.00381,-0.01907,-0.04242,0.02548,0.05295,-0.05051,-0.06897,0.00626,-0.03937
3.434,0.00854,-0.04929,-0.03174,-0.04456,-0.00778,-0.07095,-0.00488,-0.05768,-0.01633,-0.04456,0.0,0.06042,-0.0325,-0.02075,0.00702,-0.03693
3.4345,0.00687,-0.05035,-0.03281,-0.05295,-0.00671,-0.06851,0.01205,-0.09247,-0.0116,-0.04471,-0.01999,0.04562,-0.00854,0.00809,0.00488,-0.03723
3.435,0.00183,-0.05219,-0.03281,-0.06683,-0.009,-0.06683,-0.01984,-0.09995,-0.00854,-0.04517,-0.02975,0.01404,0.01556,-0.00214,0.00153,-0.03937
3.4355,-0.00153,-0.05219,-0.03296,-0.08621,-0.01465,-0.06744,-0.05341,-0.06882,-0.00931,-0.04654,-0.03204,-0.0119,0.02899,-0.03525,0.00092,-0.04013
3.436,-0.00351,-0.05035,-0.03311,-0.10544,-0.02502,-0.06943,-0.05844,0.00687,-0.01801,-0.04852,-0.03189,-0.01282,0.02502,-0.06836,0.0029,-0.03784
3.4365,-0.00366,-0.04913,-0.03525,-0.11047,-0.03616,-0.07172,-0.03525,0.10239,-0.03769,-0.05051,-0.03143,0.00198,0.0058,-0.08423,0.00504,-0.03693
3.437,-0.00412,-0.04501,-0.03754,-0.08774,-0.04288,-0.07355,0.00381,0.16174,-0.06042,-0.05051,-0.03128,0.00275,-0.01724,-0.07782,0.00458,-0.03891
3.4375,-0.00565,-0.03677,-0.03922,-0.03876,-0.04486,-0.07477,0.04105,0.14984,-0.07355,-0.04547,-0.0325,-0.02502,-0.03586,-0.06271,0.00381,-0.04181
3.438,-0.00839,-0.02548,-0.03906,0.01434,-0.0441,-0.07706,0.05066,0.08713,-0.06973,-0.03479,-0.0322,-0.06363,-0.05432,-0.05966,0.00061,-0.04379
3.4385,-0.01221,-0.02045,-0.03967,0.04333,-0.04272,-0.07736,0.02686,0.02487,-0.05096,-0.02289,-0.03036,-0.08057,-0.06897,-0.07431,-0.00687,-0.0444
3.439,-0.01389,-0.02487,-0.03952,0.02945,-0.04013,-0.07416,-0.00305,-0.00977,-0.02441,-0.01404,-0.02792,-0.06821,-0.06516,-0.08789,-0.01923,-0.04471
3.4395,-0.01297,-0.03342,-0.03799,-0.02029,-0.03906,-0.06958,-0.01434,-0.02182,0.0029,-0.01175,-0.0267,-0.03799,-0.04028,-0.08301,-0.03281,-0.04532
3.44,-0.01129,-0.0386,-0.03494,-0.07385,-0.03952,-0.06607,-0.009,-0.02655,0.02457,-0.01297,-0.02258,-0.00183,-0.01877,-0.05814,-0.04501,-0.04456
3.4405,-0.01205,-0.03967,-0.0322,-0.103,-0.03784,-0.06393,-0.00397,-0.03021,0.03647,-0.01511,-0.01572,0.04532,-0.02228,-0.02945,-0.05508,-0.04364
3.441,-0.01419,-0.03952,-0.03082,-0.09903,-0.0351,-0.05997,-0.01007,-0.03387,0.03799,-0.01602,-0.00214,0.10223,-0.03815,-0.01343,-0.06317,-0.04303
3.4415,-0.01953,-0.0383,-0.03067,-0.07645,-0.0296,-0.05539,-0.02213,-0.02151,0.03403,-0.01465,0.0145,0.1474,-0.04456,-0.01282,-0.07492,-0.04364
3.442,-0.02151,-0.03448,-0.03067,-0.0502,-0.02151,-0.05234,-0.03052,0.01953,0.0293,-0.00946,0.02808,0.14969,-0.03677,-0.01999,-0.09308,-0.04501
3.4425,-0.01816,-0.02869,-0.0322,-0.0238,-0.0116,-0.05203,-0.02914,0.06302,0.0235,-0.00458,0.03372,0.09247,-0.02396,-0.02579,-0.10559,-0.04715
3.443,-0.0119,-0.02502,-0.03357,0.00549,-0.00443,-0.05188,-0.02045,0.06027,0.01724,-0.00229,0.03265,-0.00244,-0.01389,-0.02899,-0.08835,-0.04807
3.4435,-0.00778,-0.02426,-0.0354,0.03601,-0.00168,-0.04974,-0.01221,0.00946,0.01083,-0.00397,0.02701,-0.09949,-0.00763,-0.03281,-0.02274,-0.04822
3.444,-0.00671,-0.02533,-0.03891,0.04547,-0.00168,-0.04684,-0.01083,-0.04272,0.00732,-0.00763,0.0174,-0.18127,-0.00732,-0.03632,0.05646,-0.04669
3.4445,-0.00885,-0.02686,-0.04211,0.0145,-0.00092,-0.04456,-0.01266,-0.05585,0.00916,-0.00946,0.00351,-0.24155,-0.01678,-0.03937,0.08163,-0.04318
3.445,-0.01129,-0.02975,-0.04196,-0.04349,0.00412,-0.04715,-0.01404,-0.04425,0.01175,-0.00931,-0.00961,-0.23544,-0.03494,-0.03952,0.04135,-0.04135
3.4455,-0.01602,-0.03418,-0.03906,-0.08926,0.00992,-0.05081,-0.01221,-0.03815,0.01144,-0.00824,-0.01831,-0.11475,-0.05386,-0.03723,-0.01007,-0.04105
3.446,-0.02228,-0.0415,-0.03342,-0.09583,0.00977,-0.05295,-0.01068,-0.04456,0.00671,-0.00854,-0.02258,0.07553,-0.0647,-0.03433,-0.02075,-0.04166
3.4465,-0.0267,-0.04822,-0.02884,-0.06577,0.00381,-0.05249,-0.0119,-0.04456,0.00107,-0.00931,-0.02243,0.19684,-0.06073,-0.0322,0.00122,-0.04227
3.447,-0.02792,-0.05463,-0.02472,-0.00671,0.00244,-0.05219,-0.01617,-0.02625,-0.00214,-0.01175,-0.02029,0.17197,-0.04654,-0.03036,0.02625,-0.04379
3.4475,-0.02701,-0.06287,-0.02151,0.07507,0.01053,-0.05066,-0.02121,0.00412,-0.00305,-0.01801,-0.02029,0.07889,-0.03372,-0.0264,0.04715,-0.04684
3.448,-0.02213,-0.07278,-0.02319,0.16571,0.01892,-0.04913,-0.02594,0.0235,-0.00351,-0.03433,-0.02502,0.03723,-0.02563,-0.01862,0.07294,-0.0499
3.4485,-0.0148,-0.08209,-0.02716,0.22552,0.00992,-0.04547,-0.02762,0.02136,-0.00275,-0.05615,-0.03281,0.07034,-0.02197,-0.01099,0.10773,-0.05005
3.449,-0.00656,-0.08652,-0.03357,0.21286,-0.01617,-0.04166,-0.02426,0.00626,-0.00153,-0.07492,-0.03998,0.1091,-0.01999,-0.00839,0.14023,-0.04684
3.4495,0.00168,-0.08484,-0.03891,0.13077,-0.0325,-0.0383,-0.01755,-0.00244,0.00183,-0.07614,-0.04181,0.0882,-0.0235,-0.01099,0.14587,-0.04181
3.45,0.00992,-0.07889,-0.0386,0.02151,-0.03189,-0.03616,-0.01266,0.00137,0.0058,-0.06027,-0.03616,-0.0058,-0.03403,-0.01221,0.11124,-0.03922
3.4505,0.01831,-0.07202,-0.03357,-0.07294,-0.04105,-0.03479,-0.01129,0.0029,0.00702,-0.03784,-0.02258,-0.13046,-0.04333,-0.01038,0.05402,-0.03998
3.451,0.02533,-0.06561,-0.0267,-0.13199,-0.08865,-0.03433,-0.01312,-0.0119,0.00397,-0.01617,-0.00732,-0.19913,-0.04974,-0.00839,0.01297,-0.04181
3.4515,0.02609,-0.06104,-0.02167,-0.15137,-0.1532,-0.0325,-0.0145,-0.03708,-0.00229,0.00092,0.00198,-0.14099,-0.05417,-0.01205,0.00244,-0.04227
3.452,0.01907,-0.05753,-0.02045,-0.13565,-0.17853,-0.03082,-0.01495,-0.04013,-0.00916,0.01236,0.00122,0.03036,-0.06195,-0.02014,0.00198,-0.04074
3.4525,0.00809,-0.05295,-0.02182,-0.08804,-0.14297,-0.03098,-0.01312,-0.00244,-0.01862,0.01862,-0.00473,0.19821,-0.07233,-0.02808,-0.00916,-0.03891
3.453,-0.00183,-0.04562,-0.02747,-0.00931,-0.08377,-0.03372,-0.01297,0.0528,-0.03006,0.02014,-0.00946,0.23575,-0.0769,-0.03021,-0.02151,-0.0386
3.4535,-0.01022,-0.03464,-0.03677,0.08011,-0.04654,-0.03769,-0.0174,0.07813,-0.04471,0.01923,-0.01144,0.13336,-0.06256,-0.02426,-0.01923,-0.03937
3.454,-0.01801,-0.02197,-0.04608,0.12863,-0.03983,-0.03983,-0.02075,0.06088,-0.06058,0.01358,-0.01175,-0.0032,-0.0267,-0.01434,-0.00443,-0.03891
3.4545,-0.02625,-0.00931,-0.0499,0.09796,-0.04272,-0.03876,-0.02182,0.03052,-0.07202,0.00656,-0.00443,-0.07477,0.01755,-0.00519,0.00427,-0.0383
3.455,-0.03494,-0.00305,-0.0499,0.01312,-0.03555,-0.03952,-0.01862,0.01785,-0.07507,0.00366,0.01892,-0.0708,0.04837,-0.00061,0.00229,-0.03738
3.4555,-0.04044,-0.0058,-0.04761,-0.05615,-0.01678,-0.04059,-0.01541,0.01968,-0.06989,0.00107,0.04822,-0.03708,0.05432,-0.00015,-0.00168,-0.03784
3.456,-0.04196,-0.01312,-0.04517,-0.06714,0.00214,-0.04135,-0.01526,0.01846,-0.05829,-0.00183,0.05203,-0.01312,0.04242,-0.00168,-0.0061,-0.03967
3.4565,-0.03922,-0.02045,-0.04105,-0.03906,0.0119,-0.04028,-0.0235,0.0087,-0.04593,-0.00458,0.01678,-0.01633,0.0296,-0.00351,-0.01419,-0.04196
3.457,-0.03159,-0.02396,-0.03708,-0.01602,0.00992,-0.03799,-0.03937,-0.00259,-0.0351,-0.00488,-0.03281,-0.04272,0.02716,-0.00443,-0.03006,-0.04364
3.4575,-0.01816,-0.02426,-0.03448,-0.01617,-0.00305,-0.03738,-0.056,-0.01297,-0.02701,-0.00504,-0.06668,-0.07172,0.02945,-0.00168,-0.04761,-0.04593
3.458,-0.00153,-0.02441,-0.03662,-0.01389,-0.02716,-0.0383,-0.05997,-0.02701,-0.02304,-0.00702,-0.0798,-0.07904,0.01938,0.00565,-0.06134,-0.04684
3.4585,0.01801,-0.02762,-0.04105,0.02335,-0.05417,-0.03784,-0.0502,-0.05173,-0.02655,-0.01083,-0.08087,-0.05768,-0.01358,0.01572,-0.07233,-0.04623
3.459,0.03738,-0.0325,-0.04425,0.08881,-0.0769,-0.0351,-0.03876,-0.07416,-0.03876,-0.01312,-0.07355,-0.02213,-0.05844,0.02518,-0.08026,-0.04425
3.4595,0.05219,-0.03693,-0.04562,0.1442,-0.09537,-0.03296,-0.03403,-0.07202,-0.05478,-0.01144,-0.05646,0.01099,-0.09262,0.03128,-0.08698,-0.04074
3.46,0.05814,-0.03754,-0.04349,0.16052,-0.11353,-0.03296,-0.03143,-0.04059,-0.06134,-0.00687,-0.02884,0.02914,-0.09979,0.03647,-0.07935,-0.0383
3.4605,0.05066,-0.03876,-0.04349,0.13962,-0.12009,-0.03494,-0.01938,-0.00717,-0.05127,-0.00244,0.00504,0.03189,-0.08255,0.03647,-0.03403,-0.03784
3.461,0.03326,-0.04211,-0.04425,0.08652,-0.10406,-0.03601,0.0087,-0.00214,-0.03189,-0.00137,0.03815,0.02731,-0.05188,0.02014,0.05463,-0.03784
3.4615,0.01572,-0.04807,-0.04517,0.01709,-0.06851,-0.03632,0.04166,-0.02075,-0.01999,-0.00412,0.05966,0.02335,-0.02731,-0.01907,0.14221,-0.03708
3.462,0.00519,-0.05447,-0.04242,-0.02655,-0.03555,-0.03571,0.05768,-0.03433,-0.01617,-0.00992,0.056,0.01617,-0.02167,-0.05859,0.16541,-0.03555
3.4625,0.00015,-0.05737,-0.03754,-0.00793,-0.01678,-0.03708,0.04532,-0.02518,-0.01099,-0.01587,0.02594,0.00092,-0.03616,-0.06973,0.12054,-0.03555
3.463,-0.00473,-0.05615,-0.03067,0.047,-0.00549,-0.03922,0.02579,-0.0058,0.00198,-0.02075,-0.01266,-0.009,-0.05585,-0.05463,0.06592,-0.03647
3.4635,-0.00854,-0.05112,-0.02365,0.06317,0.00473,-0.04074,0.02579,0.00839,0.01511,-0.02579,-0.04074,0.00198,-0.06683,-0.04303,0.03937,-0.03799
3.464,-0.01205,-0.04761,-0.01831,-0.0029,0.01205,-0.03983,0.04303,0.01083,0.02167,-0.03189,-0.04898,0.02762,-0.06622,-0.0502,0.02792,-0.04013
3.4645,-0.01572,-0.047,-0.01495,-0.11002,0.0148,-0.03891,0.04822,0.00412,0.02182,-0.03632,-0.04562,0.03571,-0.05966,-0.05493,0.00839,-0.04135
3.465,-0.02136,-0.04761,-0.01343,-0.18753,0.02213,-0.03998,0.02686,-0.00549,0.01846,-0.03754,-0.03876,0.01007,-0.04852,-0.03876,-0.01312,-0.04135
3.4655,-0.0267,-0.04562,-0.0145,-0.19272,0.0325,-0.0412,-0.00305,-0.01526,0.01358,-0.03891,-0.03357,-0.03464,-0.0322,-0.00854,-0.01892,-0.03983
3.466,-0.02808,-0.0412,-0.01801,-0.12833,0.02975,-0.03891,-0.01907,-0.01923,0.01114,-0.04532,-0.02808,-0.07523,-0.01068,0.0209,-0.01282,-0.0386
3.4665,-0.02533,-0.03784,-0.02579,-0.02899,0.01038,-0.0351,-0.02121,-0.01709,0.0148,-0.05417,-0.02411,-0.09232,0.00961,0.04456,-0.01038,-0.03906
3.467,-0.0209,-0.03708,-0.03433,0.05264,-0.00626,-0.03387,-0.02045,-0.01587,0.01938,-0.06073,-0.02548,-0.06714,0.02228,0.05524,-0.01434,-0.0415
3.4675,-0.01465,-0.03815,-0.03937,0.08179,-0.00885,-0.0351,-0.02106,-0.02075,0.01816,-0.06241,-0.02975,-0.00244,0.02258,0.04028,-0.01541,-0.04303
3.468,-0.00885,-0.04044,-0.03967,0.06256,-0.02274,-0.03433,-0.01968,-0.02838,0.01358,-0.05844,-0.03067,0.05402,0.00931,-0.00076,-0.00763,-0.04272
3.4685,-0.00565,-0.04593,-0.03571,0.02762,-0.0647,-0.03357,-0.01709,-0.02899,0.01358,-0.05356,-0.02274,0.06058,-0.00885,-0.04181,0.0032,-0.04379
3.469,-0.00626,-0.05051,-0.03311,0.00366,-0.10223,-0.03586,-0.01724,-0.02121,0.01633,-0.05081,-0.00763,0.03433,-0.01801,-0.05386,0.01083,-0.04639
3.4695,-0.00977,-0.05035,-0.03281,-0.00259,-0.08942,-0.03754,-0.02029,-0.00977,0.01511,-0.04791,0.01129,0.01923,-0.00977,-0.03738,0.01099,-0.04913
3.47,-0.0116,-0.04837,-0.03525,-0.00793,-0.03174,-0.03769,-0.02228,-0.0029,0.00885,-0.04349,0.0293,0.02487,0.00488,-0.01663,0.00671,-0.04837
3.4705,-0.01221,-0.04684,-0.03693,-0.0386,0.01862,-0.03723,-0.02258,-0.00626,0.00092,-0.03235,0.03967,0.02808,0.00778,-0.01266,0.00244,-0.04654
3.471,-0.0119,-0.047,-0.03693,-0.10803,0.02457,-0.03952,-0.02335,-0.01877,-0.00854,-0.01495,0.03815,0.01694,-0.00671,-0.02914,-0.00031,-0.04349
3.4715,-0.01038,-0.04456,-0.03693,-0.19638,-0.00473,-0.04318,-0.02518,-0.03159,-0.02182,0.00305,0.0235,0.00275,-0.0264,-0.05875,-0.00275,-0.04242
3.472,-0.00885,-0.03952,-0.03815,-0.25452,-0.04074,-0.04486,-0.02548,-0.03845,-0.03387,0.01556,0.00092,-0.00336,-0.04486,-0.0824,-0.00626,-0.0441
3.4725,-0.00839,-0.03662,-0.03799,-0.25131,-0.06546,-0.04303,-0.02197,-0.03815,-0.0386,0.01984,-0.01785,-0.0061,-0.07416,-0.08179,-0.01114,-0.04547
3.473,-0.00748,-0.03708,-0.03601,-0.19592,-0.07278,-0.04135,-0.01282,-0.03479,-0.03616,0.01907,-0.02319,-0.01358,-0.1149,-0.05981,-0.01541,-0.04501
3.4735,-0.00381,-0.03769,-0.03433,-0.11978,-0.06744,-0.04349,-0.00092,-0.02808,-0.02853,0.01633,-0.01877,-0.03036,-0.13474,-0.04318,-0.01724,-0.04349
3.474,0.00214,-0.0383,-0.03616,-0.03876,-0.06042,-0.04562,0.0087,-0.01205,-0.02182,0.0119,-0.01495,-0.04791,-0.10727,-0.05066,-0.01419,-0.04196
3.4745,0.00778,-0.0386,-0.04059,0.04807,-0.05463,-0.04272,0.01205,0.0119,-0.02014,0.00656,-0.01495,-0.05493,-0.05585,-0.06592,-0.00732,-0.04242
3.475,0.01083,-0.03876,-0.04364,0.13489,-0.04227,-0.03616,0.00793,0.03052,-0.02457,0.00214,-0.01587,-0.04456,-0.02518,-0.06622,-0.00092,-0.0444
3.4755,0.01022,-0.03555,-0.04257,0.19409,-0.01801,-0.03143,-0.00137,0.03036,-0.02731,-0.00168,-0.01648,-0.01633,-0.02502,-0.05371,0.00168,-0.04532
3.476,0.00839,-0.02747,-0.03922,0.2066,0.01175,-0.0322,-0.0119,0.01572,-0.02335,-0.00671,-0.01587,0.0238,-0.03525,-0.03967,0.00015,-0.04471
3.4765,0.0058,-0.02045,-0.03586,0.18311,0.02838,-0.03479,-0.01831,0.00336,-0.01724,-0.0119,-0.01129,0.05692,-0.03571,-0.02426,-0.00244,-0.04318
3.477,0.0032,-0.01999,-0.03448,0.15228,0.02243,-0.03754,-0.02274,0.00061,-0.01694,-0.01678,0.00107,0.06149,-0.02975,-0.00732,-0.00168,-0.04089
3.4775,0.00061,-0.02792,-0.03464,0.12115,-0.00473,-0.04105,-0.03326,0.00412,-0.02502,-0.02182,0.01511,0.03693,-0.02228,0.00153,0.00046,-0.03983
3.478,-0.00107,-0.03876,-0.03387,0.07278,-0.03555,-0.04471,-0.04974,0.00656,-0.03571,-0.02625,0.01907,-0.00168,-0.01312,-0.0032,0.00275,-0.03983
3.4785,-0.00137,-0.04593,-0.03235,-0.01282,-0.0444,-0.0473,-0.06165,0.00488,-0.04379,-0.02914,0.00732,-0.04105,-0.0032,-0.0116,0.00168,-0.04044
3.479,-0.00092,-0.047,-0.03006,-0.11215,-0.02686,-0.04852,-0.0589,0.00046,-0.0502,-0.02777,-0.01129,-0.0737,0.00076,-0.00916,-0.0032,-0.04166
3.4795,-0.00046,-0.047,-0.02991,-0.16464,-0.00977,-0.04822,-0.04196,-0.00488,-0.05661,-0.02533,-0.02182,-0.08698,-0.00168,0.01083,-0.00717,-0.04333
3.48,0.00076,-0.04959,-0.03067,-0.12833,-0.02075,-0.05005,-0.02472,-0.0087,-0.0592,-0.02472,-0.02487,-0.0737,-0.00824,0.04211,-0.0087,-0.04379
3.4805,0.00061,-0.05417,-0.03098,-0.02731,-0.0499,-0.05203,-0.02045,-0.0087,-0.05585,-0.02655,-0.02716,-0.04364,-0.01801,0.06317,-0.00183,-0.04425
3.481,-0.00244,-0.05676,-0.03387,0.0705,-0.07385,-0.05096,-0.02487,-0.00549,-0.0499,-0.02823,-0.03494,-0.0145,-0.03159,0.05066,0.0087,-0.04242
3.4815,-0.00977,-0.05585,-0.03525,0.11795,-0.09705,-0.04639,-0.02258,0.0,-0.04852,-0.02747,-0.0444,0.00641,-0.04745,0.0032,0.01801,-0.03937
3.482,-0.01755,-0.05219,-0.03693,0.11627,-0.13016,-0.04272,-0.01205,0.00244,-0.05188,-0.02426,-0.04868,0.02426,-0.05478,-0.04532,0.02502,-0.03784
3.4825,-0.01953,-0.04822,-0.03967,0.09384,-0.14999,-0.04257,-0.00244,0.00061,-0.05615,-0.0206,-0.03967,0.04425,-0.04654,-0.06439,0.03357,-0.03799
3.483,-0.01602,-0.04486,-0.0412,0.07172,-0.12497,-0.04364,-0.00168,-0.00244,-0.05661,-0.01846,-0.0116,0.06012,-0.03357,-0.06439,0.0441,-0.03937
3.4835,-0.01022,-0.0415,-0.04227,0.05737,-0.06958,-0.04333,-0.00656,-0.00519,-0.05173,-0.01907,0.03983,0.05692,-0.03494,-0.07462,0.04471,-0.04089
3.484,-0.00717,-0.03815,-0.04181,0.04684,-0.02579,-0.04242,-0.00916,-0.00671,-0.04074,-0.02335,0.08987,0.03387,-0.05051,-0.09735,0.01846,-0.04272
3.4845,-0.00641,-0.03693,-0.0412,0.03021,-0.01816,-0.04501,-0.01007,-0.00992,-0.0206,-0.03326,0.09903,0.01556,-0.06989,-0.10635,-0.02274,-0.0444
3.485,-0.00626,-0.03525,-0.03967,-0.00092,-0.02991,-0.04929,-0.0145,-0.01328,0.00366,-0.05035,0.06058,0.0264,-0.08972,-0.09369,-0.04791,-0.04303
3.4855,-0.00366,-0.03082,-0.03891,-0.03433,-0.03601,-0.05096,-0.0235,-0.01648,0.02151,-0.07187,0.01862,0.0592,-0.11276,-0.07416,-0.04059,-0.04181
3.486,-0.00122,-0.02319,-0.03571,-0.04715,-0.03174,-0.04929,-0.03006,-0.02258,0.0206,-0.08453,0.01068,0.08133,-0.12253,-0.06104,-0.01511,-0.0415
3.4865,-0.0029,-0.01816,-0.03281,-0.03143,-0.02792,-0.04684,-0.02991,-0.03922,-0.00275,-0.0798,0.02075,0.07523,-0.1059,-0.05051,0.00244,-0.0412
3.487,-0.00809,-0.01587,-0.03082,-0.00458,-0.03067,-0.04868,-0.02426,-0.07431,-0.04257,-0.06058,0.00748,0.04654,-0.07126,-0.0354,0.00778,-0.04196
3.4875,-0.01511,-0.01572,-0.02884,0.01617,-0.03357,-0.05157,-0.02228,-0.112,-0.07919,-0.0383,-0.03311,0.01343,-0.04379,-0.01709,0.009,-0.04166
3.488,-0.02167,-0.01862,-0.02731,0.02716,-0.03342,-0.05173,-0.02899,-0.10147,-0.09903,-0.01968,-0.07324,-0.01724,-0.03494,-0.0029,0.0174,-0.04028
3.4885,-0.02655,-0.02396,-0.02579,0.02777,-0.02975,-0.05005,-0.03632,-0.02014,-0.10178,-0.00412,-0.09369,-0.03967,-0.03433,0.00717,0.02991,-0.03723
3.489,-0.02838,-0.03021,-0.02716,0.00778,-0.02365,-0.04868,-0.03387,0.07217,-0.09521,0.00931,-0.10056,-0.04456,-0.03098,0.01755,0.03845,-0.0354
3.4895,-0.02563,-0.03555,-0.02975,-0.03067,-0.01251,-0.04868,-0.01877,0.09201,-0.0795,0.02045,-0.10284,-0.03418,-0.02502,0.02823,0.04044,-0.03677
3.49,-0.0209,-0.03922,-0.03357,-0.06302,0.00961,-0.04562,-0.00153,0.03708,-0.05051,0.02731,-0.10483,-0.02289,-0.02075,0.03937,0.03693,-0.03937
3.4905,-0.01785,-0.04044,-0.03448,-0.05905,0.03693,-0.04288,0.01022,-0.01816,-0.01038,0.02991,-0.103,-0.02441,-0.01892,0.04974,0.03235,-0.04135
3.491,-0.01556,-0.03845,-0.03387,-0.03021,0.05692,-0.04135,0.01755,-0.02884,0.02762,0.02792,-0.09018,-0.03189,-0.01617,0.05707,0.02609,-0.04135
3.4915,-0.01266,-0.03403,-0.03311,-0.01968,0.06073,-0.04135,0.02014,-0.01404,0.05173,0.02502,-0.05249,-0.03357,-0.01297,0.05753,0.01663,-0.04196
3.492,-0.00992,-0.03281,-0.03342,-0.04196,0.05005,-0.04272,0.01358,-0.00107,0.06058,0.02014,0.00015,-0.03311,-0.01007,0.04883,0.00336,-0.04456
3.4925,-0.00748,-0.03601,-0.03311,-0.06622,0.03998,-0.04501,-0.00641,0.01297,0.05798,0.01068,0.03433,-0.03387,-0.0029,0.03281,-0.01007,-0.04791
3.493,-0.00504,-0.03876,-0.03281,-0.0705,0.03128,-0.04623,-0.03647,0.04028,0.04807,-0.00626,0.02258,-0.03067,0.01068,0.01602,-0.01663,-0.04883
3.4935,-0.00183,-0.04013,-0.03174,-0.06912,0.01465,-0.04852,-0.05951,0.07233,0.03448,-0.02625,-0.01907,-0.01633,0.02792,0.0032,-0.01312,-0.04684
3.494,0.0,-0.04044,-0.03296,-0.08606,-0.01953,-0.05081,-0.05524,0.08774,0.01938,-0.04074,-0.05219,0.01358,0.03815,-0.00336,-0.00565,-0.04379
3.4945,0.0,-0.0412,-0.03448,-0.11993,-0.06332,-0.05417,-0.0264,0.0737,0.00519,-0.04425,-0.06439,0.04608,0.03922,-0.00565,-0.0029,-0.04135
3.495,-0.00183,-0.04013,-0.03616,-0.15167,-0.0882,-0.05386,0.00061,0.04135,-0.00488,-0.0412,-0.06683,0.05539,0.03845,-0.00534,-0.0116,-0.04211
3.4955,-0.00534,-0.03632,-0.03815,-0.17776,-0.08118,-0.05142,0.00717,0.01541,-0.00732,-0.03448,-0.07172,0.03067,0.0383,-0.00443,-0.03021,-0.04318
3.496,-0.009,-0.03235,-0.03922,-0.19867,-0.05936,-0.04929,0.00397,0.00427,-0.0029,-0.02853,-0.07294,-0.00473,0.01923,0.00015,-0.05203,-0.04318
3.4965,-0.0119,-0.03281,-0.03906,-0.20279,-0.04181,-0.04913,0.00381,-0.00015,0.00275,-0.01923,-0.06592,-0.01984,-0.03082,0.00916,-0.06119,-0.04272
3.497,-0.01205,-0.03677,-0.0386,-0.17761,-0.03082,-0.04791,0.00504,-0.00824,0.00412,-0.00977,-0.05142,-0.01953,-0.09201,0.01724,-0.04471,-0.04211
3.4975,-0.00641,-0.04181,-0.03815,-0.12772,-0.01846,-0.04669,0.00168,-0.01709,0.00244,0.00137,-0.03769,-0.02884,-0.12909,0.01862,-0.0116,-0.04303
3.498,0.00168,-0.0444,-0.03479,-0.07401,0.00244,-0.047,-0.0058,-0.01373,0.0029,0.01526,-0.02609,-0.04562,-0.13336,0.0116,0.01236,-0.04456
3.4985,0.00763,-0.04623,-0.03281,-0.03571,0.03006,-0.04776,-0.00931,0.00412,0.00763,0.0296,-0.01877,-0.04517,-0.12192,-0.00031,0.01663,-0.04593
3.499,0.00854,-0.0499,-0.03265,-0.02579,0.06073,-0.04761,-0.00824,0.02197,0.01572,0.03738,-0.01801,-0.01709,-0.11017,-0.01968,0.01602,-0.04639
3.4995,0.00549,-0.05417,-0.03387,-0.04318,0.08362,-0.04654,-0.00854,0.0145,0.02533,0.03845,-0.02197,0.0209,-0.09369,-0.04654,0.03098,-0.04578
3.5,0.00137,-0.0563,-0.0351,-0.0676,0.08514,-0.04791,-0.01266,-0.01785,0.03403,0.03433,-0.02548,0.05219,-0.06836,-0.07233,0.05707,-0.0444
3.5005,0.0,-0.05722,-0.03738,-0.07492,0.0618,-0.05249,-0.02014,-0.04211,0.04364,0.02762,-0.02136,0.06882,-0.04593,-0.08331,0.0705,-0.0444
3.501,-0.00092,-0.05844,-0.03906,-0.06287,0.01083,-0.05753,-0.03113,-0.0325,0.05447,0.01663,-0.01068,0.06332,-0.03616,-0.07935,0.056,-0.04379
3.5015,-0.00092,-0.05798,-0.03998,-0.04807,-0.07645,-0.06012,-0.04501,-0.00702,0.06302,0.0029,0.00381,0.02472,-0.03418,-0.07263,0.02991,-0.04272
3.502,-0.00168,-0.05676,-0.04303,-0.04044,-0.18707,-0.05936,-0.05356,0.00488,0.06119,-0.01007,0.01312,-0.04349,-0.02975,-0.06653,0.01709,-0.04105
3.5025,-0.00183,-0.05417,-0.05081,-0.03204,-0.26276,-0.05814,-0.04684,0.01297,0.04929,-0.01816,0.01709,-0.11307,-0.02258,-0.05402,0.01968,-0.04044
3.503,0.0,-0.05203,-0.05997,-0.01846,-0.25009,-0.0563,-0.02518,0.0383,0.0325,-0.02197,0.01648,-0.14603,-0.01465,-0.0351,0.02319,-0.04044
