time,RectFemL,VastusMedL,VastusLatL,TibAntL,HamMedL,HamLatL,GastroMedL,GastroLatL,RectFemR,VastusMedR,VastusLatR,TibAntR,HamMedR,HamLatR,GastroMedR,GastroLatR
6.74,-0.01022,-0.04761,-0.03616,-0.05692,-0.1091,-0.11032,-0.0177,0.01953,-0.04471,-0.02106,-0.00565,0.05936,-0.03296,-0.01755,0.00824,0.04684
6.7405,-0.00656,-0.04776,-0.03616,-0.0473,-0.08804,-0.11017,-0.01663,0.09872,-0.04486,-0.0209,-0.00961,0.05524,-0.03128,-0.01404,0.05783,0.03906
6.741,-0.00351,-0.04852,-0.03586,-0.02792,-0.05951,-0.10712,-0.0145,0.10345,-0.04532,-0.02258,-0.01144,0.05081,-0.02991,-0.01328,0.10269,0.02167
6.7415,-0.00259,-0.047,-0.03708,-0.00717,-0.03769,-0.10651,-0.01495,0.05478,-0.04395,-0.02502,-0.0119,0.0473,-0.02914,-0.01465,0.09445,-0.00336
6.742,-0.00214,-0.04242,-0.03632,0.00595,-0.02426,-0.10391,-0.01678,0.01587,-0.03906,-0.02594,-0.01053,0.04501,-0.02808,-0.01663,0.04333,-0.03052
6.7425,-0.00214,-0.03571,-0.03418,0.00809,-0.0177,-0.09933,-0.01877,0.00961,-0.03052,-0.02594,-0.01053,0.04272,-0.02777,-0.01678,0.00092,-0.05585
6.743,-0.00107,-0.03067,-0.03159,0.00198,-0.01404,-0.09781,-0.01953,0.0148,-0.02167,-0.02457,-0.0119,0.03876,-0.02945,-0.01617,-0.00763,-0.0766
6.7435,0.00015,-0.02853,-0.03082,-0.00656,-0.01068,-0.09949,-0.01892,0.01282,-0.01511,-0.02472,-0.01373,0.03448,-0.03143,-0.01709,-0.00046,-0.09155
6.744,-0.00046,-0.0293,-0.03021,-0.01358,-0.00763,-0.10071,-0.01892,0.0061,-0.01251,-0.02411,-0.0145,0.03143,-0.03296,-0.01831,0.00015,-0.10117
6.7445,-0.00397,-0.0322,-0.02945,-0.01678,-0.00549,-0.10056,-0.01938,0.0032,-0.01312,-0.02182,-0.01297,0.03189,-0.03326,-0.01877,-0.00839,-0.11139
6.745,-0.00778,-0.03571,-0.03067,-0.01221,-0.00366,-0.09644,-0.01862,0.00275,-0.01297,-0.01785,-0.01007,0.03311,-0.03296,-0.01862,-0.02762,-0.11887
6.7455,-0.00809,-0.03708,-0.03342,-0.00122,-0.00519,-0.09109,-0.01663,0.00336,-0.01129,-0.01358,-0.00839,0.03235,-0.0325,-0.01877,-0.06088,-0.11398
6.746,-0.00534,-0.03662,-0.03601,0.00931,-0.009,-0.08408,-0.01495,0.0032,-0.0087,-0.00946,-0.00839,0.03006,-0.03281,-0.01892,-0.07919,-0.0943
6.7465,-0.00046,-0.03571,-0.03891,0.01358,-0.01297,-0.07904,-0.01297,0.00366,-0.00732,-0.00839,-0.01007,0.02579,-0.03387,-0.01923,-0.03799,-0.07431
6.747,0.00244,-0.03632,-0.03967,0.01404,-0.01389,-0.07339,-0.01297,0.00427,-0.00809,-0.00854,-0.01175,0.02014,-0.03418,-0.01999,0.07584,-0.06821
6.7475,0.00305,-0.03693,-0.03922,0.01373,-0.0119,-0.06821,-0.01434,0.00397,-0.00916,-0.01175,-0.01266,0.01434,-0.03265,-0.02121,0.20065,-0.07324
6.748,0.00259,-0.03662,-0.03738,0.01007,-0.009,-0.06363,-0.01724,0.0032,-0.01053,-0.01328,-0.01358,0.01099,-0.03098,-0.02121,0.25604,-0.08072
6.7485,0.00214,-0.0351,-0.03677,-0.0032,-0.0058,-0.0592,-0.01862,0.00397,-0.00916,-0.01266,-0.0145,0.00992,-0.03082,-0.02121,0.21912,-0.08392
6.749,0.00229,-0.0351,-0.03357,-0.02258,0.0,-0.05692,-0.01724,0.00504,-0.00748,-0.0119,-0.01633,0.0061,-0.03265,-0.02151,0.14191,-0.08545
6.7495,0.00153,-0.03525,-0.03204,-0.03479,0.00656,-0.05478,-0.01175,0.00565,-0.00656,-0.01373,-0.01801,-0.00015,-0.03372,-0.02136,0.0769,-0.08774
6.75,0.0,-0.03632,-0.03174,-0.03113,0.01068,-0.05157,-0.00778,0.0061,-0.00763,-0.01465,-0.01709,-0.00214,-0.03296,-0.01938,0.03784,-0.09323
6.7505,-0.00183,-0.03754,-0.03235,-0.01633,0.00916,-0.04761,-0.00717,0.00702,-0.00885,-0.01556,-0.0145,0.0,-0.03113,-0.01785,0.00763,-0.10361
6.751,-0.00198,-0.03922,-0.03036,0.00137,0.00656,-0.04501,-0.0087,0.009,-0.00992,-0.01678,-0.01129,0.00153,-0.03174,-0.01755,-0.01862,-0.11032
6.7515,-0.00061,-0.03922,-0.02762,0.01419,0.00549,-0.03998,-0.00992,0.01068,-0.01068,-0.01617,-0.01022,-0.00183,-0.03296,-0.01831,-0.03479,-0.09918
6.752,0.00015,-0.03937,-0.02716,0.01999,0.0032,-0.03265,-0.00916,0.01053,-0.01312,-0.01495,-0.01022,-0.00763,-0.03296,-0.01984,-0.05341,-0.06332
6.7525,0.00153,-0.03998,-0.03006,0.02151,0.00107,-0.02853,-0.0087,0.009,-0.01678,-0.01419,-0.01129,-0.0087,-0.03265,-0.02106,-0.0914,-0.01663
6.753,0.00122,-0.0412,-0.03326,0.0177,0.00534,-0.02426,-0.01053,0.0061,-0.02045,-0.01602,-0.01221,-0.00336,-0.0325,-0.02029,-0.14343,0.01648
6.7535,0.00031,-0.0412,-0.03311,0.00046,0.01678,-0.0177,-0.01465,0.0058,-0.02426,-0.01755,-0.01236,0.00351,-0.03326,-0.01938,-0.17044,0.02441
6.754,0.00076,-0.04166,-0.03174,-0.03571,0.02823,-0.01022,-0.01785,0.00763,-0.02777,-0.01801,-0.01282,0.00168,-0.03403,-0.01846,-0.13214,0.0119
6.7545,0.00107,-0.04303,-0.03067,-0.08453,0.03006,-0.00305,-0.01801,0.00977,-0.03067,-0.01923,-0.01526,-0.00793,-0.03296,-0.01831,-0.03311,-0.00366
6.755,0.00137,-0.04501,-0.03082,-0.1297,0.02426,0.00015,-0.0177,0.00793,-0.03281,-0.02151,-0.01999,-0.01663,-0.03143,-0.01862,0.06363,-0.00748
6.7555,0.0,-0.04654,-0.03403,-0.16174,0.0116,0.00107,-0.01709,0.00122,-0.03479,-0.0235,-0.02991,-0.01343,-0.03113,-0.01938,0.08652,-0.00031
6.756,-0.00153,-0.04623,-0.03677,-0.17624,-0.00763,0.0029,-0.01633,-0.00549,-0.03662,-0.02441,-0.04883,-0.00214,-0.03204,-0.02014,0.04547,0.00687
6.7565,-0.00381,-0.04593,-0.03799,-0.17685,-0.03082,0.00717,-0.0174,-0.00763,-0.03601,-0.0238,-0.07111,0.00458,-0.03357,-0.02045,0.01389,0.00198
6.757,-0.00458,-0.04578,-0.03586,-0.15915,-0.04547,0.01129,-0.01801,-0.00595,-0.03281,-0.02274,-0.0824,-0.00305,-0.03403,-0.01846,0.02777,-0.02106
6.7575,-0.00549,-0.04654,-0.03235,-0.11459,-0.0441,0.01648,-0.01892,-0.00275,-0.02975,-0.02243,-0.07004,-0.01968,-0.03433,-0.01541,0.04486,-0.05829
6.758,-0.00473,-0.04837,-0.03082,-0.04501,-0.03632,0.02075,-0.01831,-0.00122,-0.02762,-0.02029,-0.04135,-0.03433,-0.03494,-0.01266,0.02655,-0.09949
6.7585,-0.00244,-0.04974,-0.03113,0.0267,-0.03708,0.02365,-0.01694,0.00031,-0.02426,-0.01907,-0.01343,-0.04135,-0.03433,-0.01175,-0.0145,-0.13412
6.759,0.00275,-0.05051,-0.03372,0.07446,-0.05585,0.02762,-0.01526,0.00412,-0.01923,-0.01953,0.00458,-0.0444,-0.03265,-0.01236,-0.03448,-0.1413
6.7595,0.00717,-0.05112,-0.03571,0.09048,-0.07797,0.03403,-0.01312,0.01251,-0.01358,-0.01938,0.01541,-0.04257,-0.03174,-0.01404,-0.02884,-0.09399
6.76,0.00793,-0.05219,-0.03677,0.08621,-0.08469,0.04105,-0.01114,0.02335,-0.00946,-0.01984,0.02213,-0.03494,-0.03189,-0.01663,-0.01053,-0.00626
6.7605,0.00504,-0.05325,-0.03616,0.07111,-0.06943,0.04517,-0.01144,0.02777,-0.00931,-0.01892,0.02243,-0.02563,-0.03189,-0.01984,0.00519,0.06012
6.761,0.00229,-0.05219,-0.03754,0.04242,-0.04791,0.04776,-0.01282,0.02411,-0.00946,-0.0174,0.01801,-0.0209,-0.03311,-0.02228,0.02213,0.065
6.7615,0.00153,-0.04791,-0.03815,0.00412,-0.04349,0.04791,-0.01328,0.01328,-0.00946,-0.01678,0.01266,-0.02014,-0.0325,-0.02335,0.03372,0.04288
6.762,0.00198,-0.04211,-0.03708,-0.02701,-0.05859,0.04715,-0.01251,0.00778,-0.0087,-0.01419,0.00931,-0.02182,-0.03235,-0.02411,0.03677,0.04105
6.7625,0.00061,-0.03998,-0.0351,-0.03799,-0.07416,0.04471,-0.01038,0.0116,-0.00946,-0.01175,0.00458,-0.02396,-0.03296,-0.02518,0.0473,0.05234
6.763,-0.00046,-0.04013,-0.03387,-0.03494,-0.07355,0.04517,-0.01083,0.01938,-0.01038,-0.01083,-0.00092,-0.02411,-0.03403,-0.02426,0.08209,0.0383
6.7635,-0.00107,-0.04028,-0.0351,-0.03738,-0.06195,0.04745,-0.01175,0.02304,-0.01053,-0.0116,-0.00397,-0.02396,-0.03357,-0.02197,0.11841,-0.00381
6.764,-0.00183,-0.04181,-0.03708,-0.04974,-0.05737,0.05096,-0.0116,0.02197,-0.00931,-0.01358,-0.00336,-0.02441,-0.03357,-0.01953,0.11536,-0.04028
6.7645,-0.00305,-0.04578,-0.03983,-0.04868,-0.06256,0.05341,-0.01144,0.01648,-0.00854,-0.01556,-0.00168,-0.02533,-0.03372,-0.01755,0.0589,-0.04791
6.765,-0.00427,-0.05035,-0.04074,-0.0116,-0.06836,0.05478,-0.0119,0.01053,-0.00656,-0.01678,-0.00275,-0.02594,-0.03387,-0.01541,-0.01053,-0.04074
6.7655,-0.00443,-0.05203,-0.04272,0.03922,-0.06577,0.056,-0.01205,0.00275,-0.00244,-0.01755,-0.00885,-0.02548,-0.03387,-0.01434,-0.04654,-0.03845
6.766,-0.00366,-0.05112,-0.04257,0.05707,-0.05585,0.06088,-0.01343,-0.00717,0.00214,-0.01678,-0.01373,-0.02411,-0.03387,-0.01556,-0.04761,-0.04105
6.7665,-0.00412,-0.05157,-0.0412,0.03479,-0.04425,0.06393,-0.01236,-0.01663,0.00427,-0.0174,-0.01038,-0.02396,-0.03418,-0.01755,-0.04013,-0.04074
6.767,-0.00549,-0.05493,-0.04105,0.01236,-0.0351,0.06485,-0.01328,-0.02396,0.00336,-0.01877,0.00107,-0.02701,-0.03433,-0.01877,-0.03418,-0.04807
6.7675,-0.00809,-0.05875,-0.04105,0.00793,-0.0293,0.06546,-0.01526,-0.02914,0.00305,-0.01938,0.00671,-0.03357,-0.03448,-0.02014,-0.02701,-0.06729
6.768,-0.01068,-0.05753,-0.04105,-0.00854,-0.02594,0.0676,-0.01785,-0.03113,0.00275,-0.01892,0.00168,-0.03754,-0.03464,-0.0206,-0.01785,-0.08728
6.7685,-0.01236,-0.05173,-0.03906,-0.06393,-0.02014,0.06958,-0.01892,-0.02975,0.0,-0.01816,-0.00549,-0.03845,-0.03387,-0.02121,-0.01862,-0.09628
6.769,-0.01236,-0.04456,-0.03616,-0.12924,-0.01266,0.07217,-0.01862,-0.0264,-0.00748,-0.01801,-0.01312,-0.03723,-0.03372,-0.02258,-0.03708,-0.09933
6.7695,-0.01099,-0.03937,-0.03342,-0.15579,-0.00549,0.07538,-0.01587,-0.02167,-0.01526,-0.0174,-0.02045,-0.03433,-0.03357,-0.02319,-0.06302,-0.10162
6.77,-0.00992,-0.03616,-0.0322,-0.13107,-0.00336,0.07599,-0.01251,-0.01556,-0.01999,-0.0177,-0.02808,-0.02853,-0.03342,-0.02213,-0.06851,-0.09842
6.7705,-0.00961,-0.03418,-0.03311,-0.07477,-0.00595,0.07401,-0.01068,-0.01099,-0.02121,-0.01831,-0.03281,-0.02197,-0.03281,-0.01968,-0.03738,-0.08499
6.771,-0.00809,-0.03265,-0.03357,-0.00214,-0.00717,0.07019,-0.01053,-0.00717,-0.02457,-0.01816,-0.03372,-0.01801,-0.03052,-0.01724,0.01205,-0.06912
6.7715,-0.00565,-0.0322,-0.03357,0.08423,-0.00046,0.06683,-0.01266,-0.00427,-0.03464,-0.01785,-0.03265,-0.01755,-0.02869,-0.01785,0.04135,-0.05859
6.772,-0.00488,-0.03265,-0.03586,0.17349,0.01526,0.06439,-0.01404,-0.00092,-0.05142,-0.01938,-0.03265,-0.01892,-0.02975,-0.01923,0.03601,-0.05585
6.7725,-0.00565,-0.0322,-0.03998,0.23239,0.03311,0.06287,-0.01404,0.0029,-0.0679,-0.0209,-0.0325,-0.0209,-0.03143,-0.01877,0.02304,-0.06454
6.773,-0.00656,-0.03098,-0.04318,0.22552,0.03754,0.06042,-0.01373,0.0058,-0.07294,-0.02213,-0.03113,-0.02396,-0.03204,-0.01724,0.0293,-0.08911
6.7735,-0.00748,-0.03021,-0.04425,0.14053,0.02258,0.05936,-0.01434,0.00473,-0.0621,-0.02457,-0.02716,-0.02594,-0.03143,-0.01587,0.05524,-0.12512
6.774,-0.00717,-0.03021,-0.04166,0.00229,-0.00641,0.06012,-0.0145,-0.00412,-0.03784,-0.02625,-0.02029,-0.02258,-0.03128,-0.01556,0.08041,-0.14877
6.7745,-0.00595,-0.03021,-0.03693,-0.13092,-0.03098,0.0589,-0.01236,-0.01343,-0.00534,-0.02655,-0.01465,-0.01709,-0.03082,-0.01556,0.08575,-0.1268
6.775,-0.00351,-0.02853,-0.02914,-0.19852,-0.03845,0.05676,-0.0116,-0.01923,0.0264,-0.02426,-0.01312,-0.01633,-0.0293,-0.01511,0.06531,-0.04807
6.7755,-0.00336,-0.02426,-0.02472,-0.17059,-0.03128,0.05539,-0.01114,-0.01938,0.0415,-0.02197,-0.01511,-0.02319,-0.02853,-0.0148,0.03403,0.06012
6.776,-0.00549,-0.01801,-0.02274,-0.07385,-0.01999,0.05341,-0.01099,-0.01907,0.03159,-0.02197,-0.01465,-0.03174,-0.02991,-0.01572,0.01419,0.13306
6.7765,-0.00778,-0.01511,-0.02335,0.01419,-0.0174,0.0502,-0.01144,-0.01968,0.0058,-0.02197,-0.01053,-0.03616,-0.03067,-0.0174,0.00946,0.12039
6.777,-0.009,-0.01709,-0.02563,0.02701,-0.02411,0.04547,-0.01236,-0.01953,-0.0177,-0.02075,-0.00656,-0.03738,-0.03098,-0.01831,0.00565,0.04181
6.7775,-0.00931,-0.02289,-0.02838,-0.03525,-0.03647,0.04272,-0.01373,-0.02167,-0.02838,-0.01877,-0.00595,-0.03769,-0.0296,-0.01953,-0.00504,-0.0267
6.778,-0.01038,-0.03098,-0.03128,-0.11856,-0.05676,0.04501,-0.0145,-0.02487,-0.02991,-0.01724,-0.00778,-0.03754,-0.02899,-0.0209,-0.01999,-0.04425
6.7785,-0.00961,-0.04105,-0.03326,-0.17136,-0.07568,0.04547,-0.01587,-0.02045,-0.03067,-0.01801,-0.00946,-0.03586,-0.0293,-0.02365,-0.03616,-0.03708
6.779,-0.0058,-0.05234,-0.03204,-0.1651,-0.07874,0.0441,-0.01556,-0.00381,-0.03342,-0.01999,-0.01099,-0.03113,-0.03021,-0.02563,-0.04303,-0.0386
6.7795,-0.00183,-0.0621,-0.02701,-0.09232,-0.05875,0.04074,-0.01495,0.01617,-0.0354,-0.01953,-0.0116,-0.02502,-0.03113,-0.02457,-0.03677,-0.04501
6.78,-0.00092,-0.06592,-0.01877,0.03082,-0.03586,0.03799,-0.01419,0.02441,-0.0351,-0.01968,-0.01282,-0.02121,-0.03143,-0.01984,-0.02441,-0.04166
6.7805,-0.00107,-0.06577,-0.01205,0.15823,-0.02869,0.03479,-0.01404,0.01785,-0.03265,-0.02151,-0.01617,-0.02075,-0.03311,-0.01678,-0.0174,-0.03311
6.781,0.00122,-0.06363,-0.00946,0.22354,-0.03616,0.0351,-0.01526,0.00977,-0.02808,-0.02472,-0.0206,-0.02136,-0.03448,-0.01678,-0.01892,-0.03143
6.7815,0.00534,-0.06073,-0.01602,0.17914,-0.04089,0.03754,-0.0174,0.00473,-0.02213,-0.02838,-0.02472,-0.01938,-0.03372,-0.01907,-0.01816,-0.03586
6.782,0.00931,-0.05676,-0.02716,0.04257,-0.03845,0.03922,-0.01831,0.00183,-0.01526,-0.03006,-0.02899,-0.01648,-0.03311,-0.01953,-0.01129,-0.03708
6.7825,0.01114,-0.05203,-0.03647,-0.10544,-0.03586,0.03693,-0.01877,0.00259,-0.00809,-0.0296,-0.03326,-0.0145,-0.03296,-0.01694,-0.00137,-0.03479
6.783,0.01068,-0.04822,-0.0444,-0.19562,-0.04211,0.03098,-0.02075,0.00992,0.00015,-0.02686,-0.03662,-0.01404,-0.03265,-0.01541,0.00595,-0.03128
6.7835,0.00839,-0.04669,-0.05005,-0.22766,-0.05325,0.02335,-0.02579,0.01923,0.00748,-0.02441,-0.0412,-0.01266,-0.03159,-0.01541,0.00839,-0.02777
6.784,0.00595,-0.04608,-0.05219,-0.23346,-0.06485,0.02075,-0.03036,0.02014,0.01053,-0.02197,-0.04211,-0.00885,-0.03204,-0.0174,0.00641,-0.02167
6.7845,0.00305,-0.04532,-0.04944,-0.20828,-0.065,0.01938,-0.03036,0.00488,0.00916,-0.01938,-0.03235,-0.00671,-0.0325,-0.01801,0.00153,-0.01694
6.785,-0.00061,-0.04395,-0.04318,-0.11734,-0.04272,0.01846,-0.02716,-0.02304,0.00641,-0.01755,-0.0116,-0.00824,-0.03235,-0.01877,-0.00366,-0.02029
6.7855,-0.00458,-0.04318,-0.03845,0.03647,-0.00824,0.01572,-0.02319,-0.05219,0.00488,-0.01572,0.01144,-0.01068,-0.03204,-0.0177,-0.00366,-0.03067
6.786,-0.00885,-0.04303,-0.03586,0.19989,0.01358,0.0119,-0.01953,-0.07156,0.00229,-0.0177,0.02304,-0.01053,-0.03143,-0.01572,0.0032,-0.04364
6.7865,-0.01251,-0.04242,-0.03738,0.31631,0.00671,0.00809,-0.0148,-0.07858,-0.00214,-0.01892,0.02014,-0.00702,-0.03189,-0.01465,0.01114,-0.05188
6.787,-0.01801,-0.04211,-0.03906,0.35797,-0.01328,0.00214,-0.00931,-0.07843,-0.00732,-0.01953,0.01007,-0.00336,-0.0325,-0.01648,0.01633,-0.05981
6.7875,-0.02228,-0.04318,-0.03891,0.32669,-0.03632,-0.00488,-0.00549,-0.07736,-0.01236,-0.01968,0.00214,-0.00214,-0.03387,-0.01907,0.0148,-0.07126
6.788,-0.02151,-0.04471,-0.03738,0.24277,-0.06592,-0.0145,-0.00244,-0.07431,-0.01511,-0.01862,-0.00244,-0.0032,-0.03357,-0.01907,0.00961,-0.08163
6.7885,-0.01495,-0.04623,-0.03555,0.12436,-0.121,-0.02075,-0.00061,-0.05798,-0.0177,-0.01526,-0.01038,-0.00534,-0.03281,-0.01755,-0.00076,-0.07996
6.789,-0.00336,-0.04684,-0.03616,-0.0061,-0.18723,-0.02396,0.0,-0.00992,-0.0209,-0.01083,-0.03082,-0.00748,-0.03311,-0.01785,-0.01663,-0.06821
6.7895,0.01022,-0.04684,-0.03799,-0.10193,-0.22461,-0.0206,-0.00366,0.07233,-0.02579,-0.00687,-0.05875,-0.00992,-0.03357,-0.01877,-0.02716,-0.05783
6.79,0.01816,-0.04791,-0.03784,-0.12436,-0.20538,-0.01495,-0.01053,0.13763,-0.03418,-0.00656,-0.0737,-0.01099,-0.03357,-0.01999,-0.02182,-0.05737
6.7905,0.01801,-0.04761,-0.03662,-0.08759,-0.15732,-0.00809,-0.01999,0.13367,-0.04532,-0.01144,-0.05997,-0.0087,-0.03433,-0.01968,-0.00305,-0.06332
6.791,0.01236,-0.047,-0.03632,-0.04929,-0.11215,-0.00931,-0.0264,0.06973,-0.05356,-0.02167,-0.02792,-0.00488,-0.03479,-0.01877,0.01312,-0.07004
6.7915,0.00702,-0.04669,-0.03784,-0.04074,-0.09171,-0.01236,-0.02731,0.009,-0.05524,-0.03494,0.00061,-0.00183,-0.03479,-0.01831,0.01801,-0.07782
6.792,0.00229,-0.04684,-0.03754,-0.04379,-0.08087,-0.01495,-0.02457,-0.01755,-0.04929,-0.04807,0.01251,-0.00198,-0.03433,-0.01831,0.01862,-0.08728
6.7925,-0.0032,-0.04974,-0.03448,-0.0386,-0.06439,-0.01389,-0.02167,-0.02487,-0.03769,-0.05463,0.00916,-0.00488,-0.03296,-0.01846,0.02457,-0.09903
6.793,-0.01038,-0.0531,-0.02914,-0.02975,-0.03754,-0.01541,-0.02243,-0.02243,-0.01923,-0.05386,-0.00137,-0.00748,-0.03128,-0.0177,0.03235,-0.11139
6.7935,-0.01816,-0.05478,-0.02548,-0.02808,-0.0087,-0.01816,-0.0238,0.00397,-0.00046,-0.04684,-0.01129,-0.0061,-0.03128,-0.01633,0.03342,-0.12054
6.794,-0.02655,-0.05402,-0.02411,-0.0325,0.01526,-0.02121,-0.02487,0.04791,0.00977,-0.0386,-0.01404,-0.00183,-0.03235,-0.01755,0.01816,-0.11475
6.7945,-0.03418,-0.05051,-0.02594,-0.0354,0.02487,-0.02289,-0.02319,0.07141,0.00626,-0.02914,-0.00992,0.00076,-0.03265,-0.01984,-0.00458,-0.0853
6.795,-0.03891,-0.04547,-0.02777,-0.03296,0.01556,-0.02594,-0.02243,0.0531,-0.00412,-0.01907,-0.00244,0.00168,-0.03235,-0.02319,-0.02274,-0.04288
6.7955,-0.03922,-0.03952,-0.03052,-0.03632,-0.0119,-0.03265,-0.02197,0.02228,-0.01068,-0.01144,0.00137,0.00198,-0.03189,-0.02457,-0.02869,-0.00961
6.796,-0.03647,-0.03342,-0.03403,-0.06088,-0.05219,-0.0412,-0.02106,0.01114,-0.01068,-0.00641,0.00137,0.00214,-0.03387,-0.02197,-0.02502,0.01389
6.7965,-0.03296,-0.03052,-0.03754,-0.10162,-0.08469,-0.047,-0.0177,0.01678,-0.00992,-0.00488,-0.00305,0.00122,-0.0354,-0.01801,-0.02182,0.03769
6.797,-0.03113,-0.03174,-0.03815,-0.13687,-0.09155,-0.05325,-0.01511,0.01907,-0.00931,-0.00473,-0.01114,-0.00107,-0.03525,-0.01541,-0.02426,0.05661
6.7975,-0.02869,-0.03448,-0.03525,-0.14572,-0.07629,-0.05615,-0.01404,0.01373,-0.0087,-0.00519,-0.02197,-0.00229,-0.03418,-0.01617,-0.02808,0.05371
6.798,-0.02457,-0.03555,-0.03296,-0.12085,-0.05585,-0.05951,-0.01343,0.0061,-0.00916,-0.00534,-0.04272,-0.00092,-0.03387,-0.01831,-0.03265,0.02747
6.7985,-0.02045,-0.03204,-0.0296,-0.06851,-0.04425,-0.06241,-0.01114,-0.00488,-0.01175,-0.00687,-0.07614,0.00137,-0.03372,-0.02014,-0.03128,-0.00366
6.799,-0.01694,-0.02563,-0.0264,-0.00565,-0.03952,-0.06653,-0.01144,-0.02365,-0.01602,-0.00595,-0.10635,0.00244,-0.03372,-0.02075,-0.01907,-0.02609
6.7995,-0.01572,-0.02075,-0.02289,0.04364,-0.02777,-0.06851,-0.01373,-0.03937,-0.01724,-0.00549,-0.10544,0.00153,-0.03235,-0.02014,-0.00031,-0.03845
6.8,-0.01465,-0.02014,-0.02167,0.07935,-0.00946,-0.07339,-0.01434,-0.03342,-0.01419,-0.00488,-0.06744,0.00137,-0.03113,-0.01816,0.01831,-0.04761
6.8005,-0.0145,-0.02243,-0.02655,0.11642,0.00061,-0.07782,-0.01068,-0.00153,-0.01053,-0.00397,-0.01846,0.00351,-0.03113,-0.01709,0.03143,-0.05234
6.801,-0.01312,-0.02594,-0.03174,0.14236,0.00412,-0.08087,-0.00626,0.03159,-0.00946,-0.00259,0.01343,0.00687,-0.03143,-0.01709,0.03632,-0.05402
6.8015,-0.01251,-0.02945,-0.03357,0.11551,0.00656,-0.08255,-0.00443,0.03738,-0.01144,-0.00092,0.02899,0.00885,-0.03143,-0.01877,0.03036,-0.05295
6.802,-0.01328,-0.03265,-0.03143,0.03845,0.01724,-0.08133,-0.00504,0.01587,-0.01389,-0.00214,0.03677,0.0087,-0.03159,-0.01984,0.01785,-0.05173
6.8025,-0.01633,-0.0386,-0.03036,-0.03632,0.03372,-0.08057,-0.0061,-0.00824,-0.01602,-0.00412,0.04013,0.00656,-0.03174,-0.02106,0.01282,-0.04929
6.803,-0.01953,-0.04456,-0.03143,-0.0766,0.04974,-0.08057,-0.00549,-0.01617,-0.01724,-0.00717,0.03586,0.0061,-0.03174,-0.02258,0.02045,-0.04608
6.8035,-0.0206,-0.04608,-0.0325,-0.1062,0.06027,-0.08423,-0.00565,-0.0119,-0.01831,-0.01038,0.02579,0.00534,-0.03082,-0.02258,0.0351,-0.04578
6.804,-0.01984,-0.04562,-0.03189,-0.14786,0.06805,-0.08759,-0.00717,-0.00931,-0.01816,-0.01389,0.01709,0.00336,-0.0293,-0.02121,0.04761,-0.04883
6.8045,-0.01801,-0.04425,-0.03082,-0.18066,0.06607,-0.09048,-0.00854,-0.00977,-0.01831,-0.01709,0.01541,0.0,-0.02884,-0.0206,0.05081,-0.05219
6.805,-0.0148,-0.04364,-0.03311,-0.17227,0.05264,-0.09155,-0.009,-0.01053,-0.01968,-0.01877,0.01877,-0.00153,-0.0293,-0.0206,0.04486,-0.05356
6.8055,-0.00748,-0.04242,-0.0386,-0.12131,0.02365,-0.09201,-0.00595,-0.01099,-0.0209,-0.02136,0.02487,0.0,-0.02945,-0.01953,0.03448,-0.04929
6.806,0.01434,-0.0383,-0.04532,-0.05066,-0.01572,-0.09323,-0.00244,-0.01678,-0.02151,-0.02213,0.03128,0.00076,-0.02914,-0.01801,0.02747,-0.0412
6.8065,0.0563,-0.03357,-0.05188,0.01526,-0.04944,-0.09445,-0.00107,-0.03098,-0.02106,-0.02075,0.03372,0.00031,-0.02899,-0.01633,0.02411,-0.03647
6.807,0.10117,-0.03464,-0.05585,0.05035,-0.05829,-0.0975,-0.00229,-0.05112,-0.01968,-0.01984,0.02792,-0.00122,-0.02991,-0.01572,0.02289,-0.03891
6.8075,0.11124,-0.03967,-0.05447,0.03464,-0.03571,-0.09995,-0.00488,-0.0795,-0.01907,-0.02045,0.0145,-0.00198,-0.03113,-0.01678,0.02167,-0.04379
6.808,0.07217,-0.04684,-0.04807,-0.02106,0.0,-0.10056,-0.0061,-0.11917,-0.01984,-0.02289,-0.00046,-0.00244,-0.03143,-0.01846,0.02121,-0.04318
6.8085,0.01419,-0.05356,-0.0386,-0.08728,0.02823,-0.10056,-0.00671,-0.15045,-0.02197,-0.02472,-0.01053,-0.00381,-0.03113,-0.02014,0.0209,-0.03738
6.809,-0.02411,-0.05875,-0.03479,-0.14069,0.03204,-0.10117,-0.00824,-0.1268,-0.02335,-0.02472,-0.01556,-0.00427,-0.03143,-0.02136,0.02213,-0.02975
6.8095,-0.03082,-0.06149,-0.0325,-0.16174,0.02411,-0.10269,-0.01175,-0.03128,-0.02151,-0.02289,-0.01724,-0.00458,-0.03204,-0.02045,0.01892,-0.02304
6.81,-0.02365,-0.06195,-0.03006,-0.12421,0.0206,-0.10056,-0.01373,0.07782,-0.01694,-0.02045,-0.01831,-0.00351,-0.03159,-0.0177,0.01648,-0.01602
6.8105,-0.02014,-0.05981,-0.02762,-0.03738,0.03113,-0.09811,-0.01343,0.12787,-0.01282,-0.01923,-0.01968,-0.0032,-0.03006,-0.01633,0.01434,-0.0119
6.811,-0.02121,-0.05493,-0.02655,0.03265,0.05035,-0.09369,-0.01144,0.10529,-0.01068,-0.01892,-0.02136,-0.00259,-0.02869,-0.01633,0.01068,-0.01465
6.8115,-0.02335,-0.04761,-0.02823,0.0322,0.06378,-0.09216,-0.01129,0.05646,-0.01022,-0.02029,-0.02258,-0.00336,-0.02777,-0.01617,0.00732,-0.02441
6.812,-0.02472,-0.04333,-0.03128,-0.00946,0.06378,-0.09308,-0.01404,0.01907,-0.01083,-0.02045,-0.02228,-0.00259,-0.02823,-0.01236,0.00244,-0.03464
6.8125,-0.02563,-0.04257,-0.0322,-0.0351,0.0502,-0.0975,-0.01556,-0.00107,-0.01068,-0.01907,-0.02289,-0.00183,-0.02853,-0.00671,-0.00351,-0.03601
6.813,-0.02518,-0.04562,-0.0322,-0.04227,0.03357,-0.10284,-0.01511,-0.01007,-0.00824,-0.01633,-0.02426,-0.00183,-0.02869,-0.00259,-0.01404,-0.0354
6.8135,-0.02426,-0.04807,-0.03235,-0.0618,0.02625,-0.10345,-0.01495,-0.01129,-0.00641,-0.01526,-0.0264,-0.00412,-0.0296,-0.00412,-0.03021,-0.04135
6.814,-0.0235,-0.04578,-0.03296,-0.09125,0.02838,-0.10529,-0.01678,-0.01022,-0.00595,-0.01678,-0.02853,-0.00671,-0.03006,-0.00839,-0.04898,-0.05539
6.8145,-0.02151,-0.03799,-0.03571,-0.10925,0.02884,-0.10651,-0.01938,-0.0119,-0.00778,-0.01923,-0.02823,-0.00809,-0.03036,-0.01312,-0.06302,-0.06561
6.815,-0.01907,-0.02701,-0.03754,-0.11215,0.02182,-0.10773,-0.02075,-0.01663,-0.00946,-0.02075,-0.02869,-0.00763,-0.03113,-0.01755,-0.06683,-0.06485
6.8155,-0.01694,-0.01678,-0.0383,-0.1181,0.00641,-0.10773,-0.02045,-0.02106,-0.01205,-0.02167,-0.02914,-0.00473,-0.03174,-0.02304,-0.06592,-0.05569
6.816,-0.01617,-0.009,-0.03632,-0.13428,-0.02304,-0.10529,-0.0206,-0.02441,-0.01572,-0.02075,-0.02945,-0.00153,-0.03189,-0.0296,-0.06668,-0.04868
6.8165,-0.01495,-0.00504,-0.03342,-0.13474,-0.06912,-0.10452,-0.02151,-0.0264,-0.01999,-0.01953,-0.02869,-0.00168,-0.03265,-0.03662,-0.07416,-0.05035
6.817,-0.0145,-0.00427,-0.03311,-0.07095,-0.1152,-0.10757,-0.02319,-0.02533,-0.02197,-0.01923,-0.02914,-0.00381,-0.0351,-0.03983,-0.0769,-0.05707
6.8175,-0.01404,-0.00702,-0.03265,0.056,-0.15228,-0.10788,-0.02533,-0.02121,-0.02319,-0.01999,-0.0296,-0.00519,-0.03586,-0.03693,-0.0592,-0.05676
6.818,-0.01282,-0.0119,-0.03464,0.16479,-0.18753,-0.10681,-0.02625,-0.01785,-0.02426,-0.02045,-0.02838,-0.00229,-0.03464,-0.02853,-0.00549,-0.04211
6.8185,-0.00656,-0.01816,-0.03769,0.18127,-0.21301,-0.10345,-0.02457,-0.01785,-0.02655,-0.02167,-0.02197,-0.00015,-0.03296,-0.0206,0.08316,-0.02029
6.819,0.00183,-0.02441,-0.03677,0.13626,-0.20523,-0.10223,-0.01999,-0.01984,-0.02853,-0.02167,-0.01434,0.00015,-0.03342,-0.01755,0.16693,-0.00427
6.8195,0.00687,-0.03006,-0.03433,0.11063,-0.15121,-0.1033,-0.01602,-0.02167,-0.03143,-0.02151,-0.00824,-0.00076,-0.03586,-0.0209,0.19836,-0.00122
6.82,0.00595,-0.03311,-0.0325,0.11368,-0.0856,-0.10315,-0.0148,-0.02258,-0.03464,-0.02136,-0.00488,0.00183,-0.03708,-0.02304,0.18143,-0.00473
6.8205,0.00305,-0.03281,-0.0322,0.09338,-0.05386,-0.10208,-0.01404,-0.02167,-0.03815,-0.02167,-0.00153,0.00702,-0.03525,-0.02289,0.14908,-0.00809
6.821,0.00092,-0.03159,-0.03235,0.03967,-0.0589,-0.09842,-0.01541,-0.01999,-0.03876,-0.02121,0.00366,0.00931,-0.03342,-0.0209,0.12436,-0.01633
6.8215,-0.00183,-0.03677,-0.03296,-0.00549,-0.06989,-0.09598,-0.01755,-0.0206,-0.03815,-0.02106,0.00641,0.00366,-0.03342,-0.02014,0.09552,-0.03738
6.822,-0.00702,-0.04837,-0.03723,-0.01816,-0.06851,-0.09674,-0.01984,-0.02441,-0.03586,-0.02289,0.00305,-0.00824,-0.03464,-0.02106,0.05325,-0.0676
6.8225,-0.0148,-0.06134,-0.0444,-0.01892,-0.06454,-0.10178,-0.01984,-0.02792,-0.03159,-0.02411,-0.00534,-0.02045,-0.03448,-0.02106,0.00931,-0.08896
6.823,-0.02014,-0.06927,-0.05463,-0.03006,-0.0621,-0.10544,-0.01633,-0.02792,-0.02441,-0.02365,-0.01419,-0.02457,-0.03296,-0.01953,-0.01556,-0.09033
6.8235,-0.02121,-0.07019,-0.07111,-0.04028,-0.05966,-0.10544,-0.01068,-0.02487,-0.0148,-0.02243,-0.01984,-0.01648,-0.03159,-0.01724,-0.01968,-0.07813
6.824,-0.01709,-0.06989,-0.09079,-0.02167,-0.04837,-0.1033,-0.00687,-0.02396,-0.0058,-0.02228,-0.02472,-0.00366,-0.0322,-0.01678,-0.01526,-0.06561
6.8245,-0.01358,-0.07156,-0.10635,0.04532,-0.03006,-0.09964,-0.00641,-0.02655,0.00153,-0.02197,-0.0293,0.00214,-0.03357,-0.01846,-0.01434,-0.06088
6.825,-0.01038,-0.07141,-0.11322,0.15182,-0.01221,-0.09598,-0.00687,-0.03082,0.00732,-0.0235,-0.03433,-0.00259,-0.03342,-0.02167,-0.0206,-0.06439
6.8255,-0.00687,-0.06882,-0.10727,0.26566,0.00092,-0.09201,-0.00748,-0.03464,0.01404,-0.02411,-0.03708,-0.00839,-0.03189,-0.02243,-0.02594,-0.0676
6.826,-0.00229,-0.06454,-0.08743,0.34119,0.00351,-0.09048,-0.00824,-0.03998,0.02106,-0.02518,-0.03601,-0.00992,-0.03067,-0.02182,-0.02258,-0.05676
6.8265,0.00244,-0.05844,-0.05524,0.33768,0.0,-0.0885,-0.01221,-0.0444,0.02258,-0.02304,-0.03311,-0.00977,-0.03052,-0.01999,-0.00702,-0.03632
6.827,0.00687,-0.05127,-0.01617,0.23865,-0.00671,-0.08545,-0.01801,-0.04669,0.01907,-0.01984,-0.02991,-0.01205,-0.03143,-0.01892,0.01419,-0.02579
6.8275,0.00809,-0.04486,0.01923,0.06714,-0.01099,-0.08469,-0.0238,-0.04654,0.01495,-0.0177,-0.02747,-0.01434,-0.0322,-0.01816,0.0238,-0.03189
6.828,0.00824,-0.04257,0.04456,-0.11124,-0.01099,-0.0853,-0.02625,-0.04608,0.01236,-0.01678,-0.02426,-0.0116,-0.03189,-0.01801,0.01129,-0.04562
6.8285,0.00763,-0.04486,0.06042,-0.21088,-0.00763,-0.08408,-0.02579,-0.04578,0.01053,-0.01602,-0.02075,-0.00595,-0.03296,-0.01572,-0.01236,-0.05936
6.829,0.0061,-0.04959,0.065,-0.17868,-0.00061,-0.08209,-0.02518,-0.04547,0.00458,-0.01404,-0.01694,-0.00168,-0.03372,-0.01343,-0.02869,-0.07477
6.8295,0.00336,-0.05157,0.06012,-0.03632,0.00732,-0.08026,-0.02502,-0.04608,-0.00565,-0.01144,-0.01373,-0.00092,-0.03448,-0.01389,-0.02884,-0.08987
6.83,0.00015,-0.04913,0.04868,0.11932,0.01129,-0.07874,-0.02518,-0.04684,-0.01511,-0.01022,-0.01251,-0.00336,-0.03357,-0.01511,-0.02075,-0.09125
6.8305,-0.00244,-0.04486,0.0322,0.18784,0.00931,-0.0766,-0.02411,-0.04623,-0.0238,-0.01129,-0.01221,-0.00366,-0.03296,-0.01617,-0.0177,-0.0766
6.831,-0.00198,-0.04105,0.01068,0.12756,0.00916,-0.07629,-0.02243,-0.04288,-0.0296,-0.0148,-0.01221,0.00046,-0.0325,-0.01556,-0.02457,-0.05951
6.8315,-0.00092,-0.04059,-0.01297,-0.01572,0.01709,-0.07858,-0.02045,-0.03799,-0.0322,-0.01663,-0.01205,0.00778,-0.03143,-0.01465,-0.03952,-0.05219
6.832,-0.00366,-0.04196,-0.03403,-0.1564,0.03326,-0.08423,-0.01785,-0.0351,-0.03174,-0.01617,-0.01266,0.01328,-0.03021,-0.01404,-0.0621,-0.05478
6.8325,-0.00763,-0.04288,-0.05249,-0.23743,0.03738,-0.09277,-0.0148,-0.03479,-0.02991,-0.01755,-0.01328,0.0119,-0.0296,-0.01495,-0.08713,-0.05463
6.833,-0.00687,-0.04211,-0.06714,-0.25787,0.02304,-0.09903,-0.01144,-0.03387,-0.02838,-0.01892,-0.01465,0.00641,-0.03174,-0.01541,-0.0972,-0.05341
6.8335,-0.00046,-0.0415,-0.07324,-0.23132,-0.00122,-0.10071,-0.00977,-0.02975,-0.02747,-0.01862,-0.01587,-0.00153,-0.03357,-0.01572,-0.07339,-0.06058
6.834,0.00519,-0.0444,-0.07309,-0.14481,-0.01312,-0.09903,-0.00977,-0.02228,-0.02716,-0.01785,-0.01724,-0.0087,-0.03265,-0.01556,-0.02502,-0.08163
6.8345,0.0058,-0.04791,-0.06866,0.01434,-0.01419,-0.0972,-0.01083,-0.01526,-0.02594,-0.01755,-0.02106,-0.01205,-0.03067,-0.01602,0.01129,-0.10513
6.835,0.00504,-0.04913,-0.06836,0.2037,-0.02975,-0.09583,-0.01083,-0.01144,-0.02502,-0.01846,-0.03082,-0.00687,-0.03113,-0.01724,0.02335,-0.11398
6.8355,0.00565,-0.04807,-0.06973,0.33615,-0.07034,-0.09689,-0.0116,-0.01144,-0.02396,-0.01877,-0.03906,0.00381,-0.03372,-0.01892,0.03784,-0.10239
6.836,0.00671,-0.04608,-0.07095,0.35812,-0.12543,-0.09995,-0.0145,-0.01205,-0.02182,-0.01724,-0.04105,0.01404,-0.03586,-0.02014,0.07309,-0.08072
6.8365,0.00656,-0.04547,-0.06653,0.2951,-0.16556,-0.10117,-0.01801,-0.01205,-0.01999,-0.01678,-0.0354,0.01938,-0.03601,-0.01999,0.10086,-0.06607
6.837,0.00671,-0.04456,-0.05676,0.20905,-0.18036,-0.10223,-0.01816,-0.00992,-0.01938,-0.01831,-0.02563,0.01968,-0.03448,-0.02014,0.09262,-0.06592
6.8375,0.01022,-0.04242,-0.04578,0.14847,-0.16388,-0.10193,-0.01511,-0.00732,-0.01862,-0.01938,-0.01572,0.0174,-0.03433,-0.01923,0.06775,-0.07248
6.838,0.01617,-0.03937,-0.03464,0.13245,-0.12573,-0.10086,-0.01099,-0.00351,-0.01663,-0.01968,-0.0087,0.01251,-0.0354,-0.01907,0.05539,-0.06012
6.8385,0.01831,-0.03662,-0.0235,0.14343,-0.07629,-0.0972,-0.00839,0.00046,-0.01511,-0.01831,-0.00366,0.00763,-0.03571,-0.01846,0.05402,-0.00854
6.839,0.01617,-0.03555,-0.01556,0.13229,-0.04013,-0.0975,-0.00641,0.00351,-0.01404,-0.0177,0.00046,0.0029,-0.03616,-0.01831,0.04715,0.05692
6.8395,0.0116,-0.03586,-0.01114,0.06271,-0.02716,-0.10071,-0.00626,0.00656,-0.01419,-0.01801,0.00519,-0.00259,-0.0354,-0.01816,0.03235,0.08209
6.84,0.00763,-0.03433,-0.00931,-0.03632,-0.02686,-0.10269,-0.00641,0.01129,-0.01404,-0.01923,0.00931,-0.00885,-0.03387,-0.01633,0.01556,0.04242
6.8405,0.00565,-0.03082,-0.01144,-0.10971,-0.02243,-0.10239,-0.00702,0.01617,-0.01328,-0.02075,0.01114,-0.01251,-0.03235,-0.01373,0.00015,-0.02792
6.841,0.00366,-0.02808,-0.01556,-0.14877,-0.00336,-0.09888,-0.00793,0.01923,-0.01266,-0.0209,0.00778,-0.01266,-0.03265,-0.01266,-0.00244,-0.07401
6.8415,0.00076,-0.02472,-0.02029,-0.17624,0.02594,-0.09583,-0.01022,0.02014,-0.01144,-0.02121,-0.00168,-0.01343,-0.03372,-0.01389,0.01373,-0.08026
6.842,-0.00458,-0.02182,-0.02426,-0.18372,0.05524,-0.09094,-0.00992,0.02121,-0.01068,-0.02167,-0.01587,-0.01114,-0.03464,-0.01556,0.04044,-0.07065
6.8425,-0.00977,-0.01892,-0.02823,-0.14221,0.06958,-0.08514,-0.00946,0.02274,-0.01144,-0.02029,-0.02609,-0.00519,-0.03555,-0.01556,0.05814,-0.06195
6.843,-0.01419,-0.01801,-0.03662,-0.05173,0.06256,-0.07767,-0.00992,0.02762,-0.01221,-0.01938,-0.02838,0.00092,-0.03571,-0.01694,0.05112,-0.04913
6.8435,-0.0174,-0.02243,-0.04608,0.05157,0.03586,-0.07248,-0.0116,0.03281,-0.01251,-0.01923,-0.02365,0.00153,-0.0354,-0.01877,0.03311,-0.02914
6.844,-0.02167,-0.03143,-0.05417,0.13107,-0.00183,-0.06897,-0.0119,0.0354,-0.01373,-0.01953,-0.01678,-0.00244,-0.03479,-0.02045,0.02136,-0.01572
6.8445,-0.03067,-0.03952,-0.06104,0.16769,-0.0351,-0.06439,-0.01144,0.03571,-0.0148,-0.02029,-0.01144,-0.00336,-0.03479,-0.02197,0.02029,-0.01678
6.845,-0.04257,-0.04257,-0.06378,0.15488,-0.05142,-0.05875,-0.00961,0.03632,-0.01602,-0.02106,-0.0058,0.00137,-0.03525,-0.0235,0.02594,-0.02731
6.8455,-0.04776,-0.03952,-0.06561,0.10742,-0.04837,-0.05142,-0.00778,0.03754,-0.01648,-0.02014,-0.00153,0.00671,-0.03601,-0.02548,0.02838,-0.03448
6.846,-0.04105,-0.03494,-0.06363,0.04044,-0.02487,-0.04623,-0.00763,0.03845,-0.0177,-0.01999,-0.00015,0.00839,-0.03632,-0.02747,0.01465,-0.03479
6.8465,-0.02655,-0.03098,-0.05508,-0.06226,0.01862,-0.03906,-0.00839,0.03799,-0.01984,-0.02197,-0.00198,0.00534,-0.03586,-0.02686,-0.01419,-0.03265
6.847,-0.01114,-0.02975,-0.04333,-0.22675,0.07172,-0.03067,-0.00763,0.03616,-0.02167,-0.02228,-0.00443,0.00305,-0.03464,-0.02411,-0.03922,-0.04532
6.8475,-0.00122,-0.03036,-0.03326,-0.41061,0.10834,-0.02457,-0.00809,0.03494,-0.02472,-0.02197,-0.00549,0.00275,-0.03387,-0.02121,-0.03448,-0.09125
6.848,0.00336,-0.03174,-0.02609,-0.51514,0.10101,-0.02136,-0.00977,0.03677,-0.02823,-0.0206,-0.00534,0.00305,-0.03372,-0.01999,0.00275,-0.15259
6.8485,0.00504,-0.03235,-0.02151,-0.49332,0.04791,-0.02075,-0.01114,0.0386,-0.03098,-0.01999,-0.00595,-0.00031,-0.03418,-0.02121,0.04486,-0.17639
6.849,0.0061,-0.03098,-0.01511,-0.3952,-0.02121,-0.02045,-0.00992,0.03922,-0.03021,-0.02014,-0.00946,-0.00443,-0.03525,-0.02243,0.06958,-0.12253
6.8495,0.00793,-0.03021,-0.01007,-0.29449,-0.07477,-0.02319,-0.00641,0.03937,-0.02762,-0.01938,-0.01358,-0.00244,-0.0351,-0.02121,0.08102,-0.01419
6.85,0.00809,-0.0296,-0.00183,-0.224,-0.09903,-0.0238,-0.00473,0.03983,-0.02533,-0.01892,-0.01572,0.00168,-0.03494,-0.02045,0.09232,0.06775
6.8505,0.00397,-0.02991,0.00961,-0.17532,-0.11108,-0.01984,-0.00671,0.04166,-0.02335,-0.01801,-0.01389,0.00168,-0.03448,-0.02014,0.09476,0.06424
6.851,-0.00259,-0.03143,0.02106,-0.11017,-0.13565,-0.01266,-0.00946,0.04303,-0.02075,-0.01633,-0.01083,-0.00381,-0.03357,-0.02075,0.07034,0.00275
6.8515,-0.009,-0.03296,0.02655,0.00061,-0.17395,-0.00626,-0.00885,0.04486,-0.01938,-0.01541,-0.01083,-0.00885,-0.0322,-0.0209,0.01938,-0.02533
6.852,-0.01144,-0.03738,0.02335,0.12939,-0.19241,0.00031,-0.00641,0.04501,-0.01892,-0.01602,-0.01389,-0.00702,-0.03021,-0.01968,-0.02975,0.02243
6.8525,-0.01129,-0.04227,0.01114,0.21515,-0.16891,0.00687,-0.00519,0.04349,-0.01984,-0.0177,-0.01633,0.00198,-0.02975,-0.01968,-0.06714,0.08453
6.853,-0.01022,-0.04883,-0.00931,0.22461,-0.12543,0.01099,-0.00412,0.03998,-0.01923,-0.01755,-0.01678,0.01022,-0.03128,-0.01968,-0.09476,0.07843
6.8535,-0.0119,-0.05478,-0.03845,0.18616,-0.10361,0.00732,-0.00336,0.03586,-0.01678,-0.01648,-0.0174,0.01114,-0.03372,-0.01892,-0.11002,0.00595
6.854,-0.0148,-0.05814,-0.08209,0.16602,-0.11383,-0.00198,-0.0032,0.03113,-0.01511,-0.01724,-0.01816,0.00259,-0.03387,-0.01801,-0.10666,-0.05859
6.8545,-0.01495,-0.05783,-0.14801,0.19897,-0.1297,-0.01053,-0.00412,0.02609,-0.01556,-0.01846,-0.01801,-0.01114,-0.03357,-0.01877,-0.08408,-0.07675
6.855,-0.01099,-0.05569,-0.22552,0.23117,-0.1416,-0.01144,-0.00717,0.02106,-0.01602,-0.01923,-0.01648,-0.02197,-0.03342,-0.01984,-0.05249,-0.07263
6.8555,-0.00732,-0.05249,-0.28503,0.17258,-0.15717,-0.00885,-0.01053,0.01724,-0.01602,-0.01709,-0.01526,-0.02518,-0.0325,-0.01999,-0.01892,-0.07446
6.856,-0.00839,-0.04517,-0.30731,0.01755,-0.18219,-0.00977,-0.01221,0.01526,-0.0145,-0.01465,-0.01587,-0.02319,-0.03235,-0.02014,0.009,-0.07217
6.8565,-0.01404,-0.03403,-0.28854,-0.14435,-0.19897,-0.01282,-0.01175,0.01404,-0.01434,-0.01312,-0.01694,-0.02167,-0.03311,-0.02014,0.02838,-0.04593
6.857,-0.0174,-0.0235,-0.224,-0.23865,-0.19196,-0.01404,-0.00916,0.01129,-0.0145,-0.0145,-0.01587,-0.01938,-0.03464,-0.01999,0.04288,-0.00183
6.8575,-0.01358,-0.01755,-0.11139,-0.26779,-0.16022,-0.01038,-0.00702,0.0087,-0.01511,-0.01617,-0.01511,-0.01404,-0.03616,-0.01907,0.05173,0.04349
6.858,-0.00656,-0.01724,0.02533,-0.25925,-0.11993,-0.00549,-0.00732,0.00549,-0.01495,-0.01724,-0.01587,-0.00458,-0.03647,-0.01801,0.04364,0.08896
6.8585,-0.00168,-0.01877,0.14267,-0.21988,-0.08392,-0.00198,-0.00916,0.00244,-0.01465,-0.0174,-0.01938,0.00427,-0.03616,-0.01709,0.01144,0.13824
6.859,0.00153,-0.01678,0.21179,-0.15549,-0.05966,0.00229,-0.01236,-0.00046,-0.01434,-0.01816,-0.0206,0.00656,-0.03525,-0.0177,-0.02319,0.159
6.8595,0.0061,-0.01221,0.23239,-0.10971,-0.04211,0.00626,-0.01282,-0.00351,-0.01419,-0.01862,-0.0177,0.00183,-0.03525,-0.01785,-0.03754,0.11276
6.86,0.01038,-0.00916,0.21805,-0.1384,-0.02853,0.00565,-0.00992,-0.00778,-0.01297,-0.01801,-0.0145,-0.00488,-0.03464,-0.01648,-0.0351,0.02167
6.8605,0.01251,-0.00946,0.18066,-0.24704,-0.01801,0.00153,-0.00595,-0.01205,-0.01205,-0.01678,-0.01419,-0.01038,-0.03433,-0.01526,-0.03265,-0.04608
6.861,0.01053,-0.01114,0.13046,-0.36972,-0.0087,-0.00534,-0.00366,-0.01358,-0.01251,-0.01602,-0.01556,-0.01175,-0.03448,-0.01633,-0.03021,-0.06088
6.8615,0.00809,-0.0119,0.08255,-0.39917,-0.00275,-0.00961,-0.00458,-0.01343,-0.01328,-0.01556,-0.01511,-0.00763,-0.03418,-0.01923,-0.0209,-0.05783
6.862,0.00504,-0.01144,0.04257,-0.27573,0.00214,-0.01175,-0.0061,-0.01434,-0.01373,-0.0148,-0.01373,-0.00122,-0.03311,-0.01907,-0.01328,-0.06912
6.8625,-0.00183,-0.01495,0.01205,-0.05539,0.00748,-0.01328,-0.00885,-0.01678,-0.01358,-0.0145,-0.01419,0.00549,-0.03143,-0.01785,-0.01709,-0.09033
6.863,-0.00656,-0.02457,-0.01648,0.13016,0.01877,-0.01816,-0.01007,-0.01877,-0.01434,-0.01465,-0.01495,0.01053,-0.03128,-0.01678,-0.02899,-0.09903
6.8635,0.00549,-0.03952,-0.04196,0.19119,0.03525,-0.02319,-0.01007,-0.01968,-0.01495,-0.01587,-0.01373,0.01297,-0.03174,-0.01755,-0.04578,-0.09079
6.864,0.04837,-0.05707,-0.05936,0.12985,0.05142,-0.02991,-0.00824,-0.01968,-0.01495,-0.01648,-0.01221,0.00763,-0.03311,-0.01877,-0.06744,-0.07294
6.8645,0.10483,-0.07202,-0.06744,0.01633,0.05524,-0.03662,-0.00748,-0.01801,-0.01556,-0.0177,-0.0119,-0.0029,-0.03433,-0.01968,-0.08759,-0.05447
6.865,0.12848,-0.08057,-0.06989,-0.0592,0.04196,-0.04135,-0.00778,-0.01572,-0.01709,-0.01785,-0.01343,-0.00977,-0.03387,-0.02045,-0.09186,-0.04837
6.8655,0.09369,-0.08148,-0.07675,-0.0351,0.02182,-0.04532,-0.01022,-0.01755,-0.01816,-0.01846,-0.01434,-0.00961,-0.03281,-0.01968,-0.08392,-0.06409
6.866,0.0296,-0.08041,-0.08438,0.07568,0.01007,-0.05142,-0.01511,-0.02136,-0.01877,-0.01892,-0.01465,-0.00519,-0.03281,-0.01938,-0.07935,-0.08926
6.8665,-0.01846,-0.08331,-0.08469,0.17639,0.01038,-0.05798,-0.02075,-0.02502,-0.01877,-0.02014,-0.01709,-0.00259,-0.0351,-0.0174,-0.08087,-0.09308
6.867,-0.03754,-0.09277,-0.07538,0.16754,0.00885,-0.06302,-0.02411,-0.02609,-0.01892,-0.0209,-0.01846,-0.00214,-0.03555,-0.01617,-0.06439,-0.06439
6.8675,-0.04593,-0.10269,-0.06317,0.05966,-0.00153,-0.06668,-0.02396,-0.02609,-0.01907,-0.02151,-0.01877,-0.00122,-0.03418,-0.01587,-0.00198,-0.02701
6.868,-0.05478,-0.10315,-0.05524,-0.01648,-0.02167,-0.07126,-0.02197,-0.02594,-0.01877,-0.0206,-0.01831,0.00061,-0.03296,-0.01648,0.10345,-0.01938
6.8685,-0.05798,-0.08987,-0.0502,0.04471,-0.03021,-0.07706,-0.02045,-0.0238,-0.01816,-0.01953,-0.01877,0.00244,-0.03387,-0.01801,0.19501,-0.04532
6.869,-0.05585,-0.0679,-0.04669,0.22217,-0.01266,-0.08026,-0.01968,-0.01953,-0.01785,-0.01907,-0.01968,0.00107,-0.03464,-0.01999,0.21698,-0.07294
6.8695,-0.05569,-0.04379,-0.04211,0.42343,0.02563,-0.07858,-0.01984,-0.01678,-0.01846,-0.01999,-0.01938,-0.00198,-0.03448,-0.01984,0.16571,-0.08057
6.87,-0.06058,-0.0238,-0.04089,0.57175,0.05051,-0.07523,-0.01999,-0.01663,-0.01846,-0.02151,-0.01678,-0.00366,-0.03296,-0.01862,0.09521,-0.07278
6.8705,-0.06439,-0.00931,-0.04196,0.62057,0.04486,-0.07538,-0.02014,-0.0174,-0.01755,-0.02182,-0.01465,-0.00214,-0.03189,-0.01846,0.05112,-0.065
6.871,-0.0618,0.0032,-0.04288,0.5574,0.02731,-0.07706,-0.01984,-0.0177,-0.01556,-0.02045,-0.01358,-0.00061,-0.03204,-0.01953,0.03494,-0.05951
6.8715,-0.05417,0.01846,-0.0412,0.39673,0.02747,-0.07904,-0.02106,-0.01755,-0.01389,-0.01862,-0.01389,-0.00061,-0.03281,-0.02182,0.0322,-0.05829
6.872,-0.04623,0.03113,-0.03769,0.17029,0.04593,-0.08072,-0.02426,-0.01831,-0.01419,-0.01892,-0.01343,-0.00122,-0.03357,-0.02274,0.03326,-0.06454
6.8725,-0.04227,0.03372,-0.03754,-0.08545,0.06256,-0.08408,-0.02823,-0.0206,-0.01572,-0.01999,-0.0145,-0.00031,-0.03326,-0.02151,0.03326,-0.07416
6.873,-0.04135,0.02289,-0.03952,-0.32593,0.06348,-0.09201,-0.03174,-0.02258,-0.01678,-0.01984,-0.01541,0.00366,-0.03281,-0.01862,0.03128,-0.07507
6.8735,-0.03937,0.00626,-0.04089,-0.47989,0.04684,-0.10284,-0.03281,-0.02243,-0.01648,-0.02075,-0.01511,0.00778,-0.03235,-0.01678,0.0267,-0.06149
6.874,-0.03494,-0.00519,-0.04181,-0.47302,0.02304,-0.11002,-0.03159,-0.02106,-0.0148,-0.02197,-0.01541,0.00977,-0.03281,-0.01663,0.0209,-0.0444
6.8745,-0.02975,-0.0116,-0.03967,-0.29846,0.00717,-0.11383,-0.02899,-0.01984,-0.01389,-0.02243,-0.01511,0.00656,-0.03296,-0.01831,0.02029,-0.0415
6.875,-0.02197,-0.01572,-0.0322,-0.04807,0.00381,-0.11765,-0.02792,-0.01816,-0.0148,-0.02136,-0.01419,0.00092,-0.03296,-0.01877,0.03067,-0.06012
6.8755,-0.01251,-0.02197,-0.01663,0.14023,0.00443,-0.12207,-0.02823,-0.01709,-0.01572,-0.01984,-0.01312,-0.00443,-0.03281,-0.01816,0.04776,-0.1004
6.876,-0.00122,-0.02808,0.00397,0.19043,-0.00137,-0.1297,-0.02853,-0.01587,-0.01602,-0.01968,-0.01389,-0.00656,-0.03387,-0.01862,0.05173,-0.14511
6.8765,0.01572,-0.03403,0.01541,0.12665,-0.0209,-0.13519,-0.02701,-0.01404,-0.01633,-0.02106,-0.01572,-0.0058,-0.03525,-0.01953,0.0267,-0.16281
6.877,0.0354,-0.03876,0.0119,0.0322,-0.04822,-0.13962,-0.02716,-0.01068,-0.01587,-0.02258,-0.01648,-0.00443,-0.03479,-0.01999,-0.01617,-0.13977
6.8775,0.04776,-0.04074,-0.00732,-0.01923,-0.06775,-0.1413,-0.02945,-0.00809,-0.01572,-0.02197,-0.01587,-0.00336,-0.03235,-0.01907,-0.04776,-0.08621
6.878,0.0473,-0.04166,-0.03143,-0.0061,-0.06516,-0.14633,-0.03098,-0.00854,-0.01511,-0.02258,-0.01617,0.00031,-0.03098,-0.0174,-0.05035,-0.03052
6.8785,0.03738,-0.04425,-0.04913,0.04105,-0.04654,-0.15549,-0.03021,-0.00809,-0.01465,-0.02167,-0.01617,0.01099,-0.03128,-0.01709,-0.03708,0.0
6.879,0.0264,-0.05341,-0.06577,0.06943,-0.03433,-0.1619,-0.02808,-0.0058,-0.01511,-0.0206,-0.01495,0.0235,-0.0325,-0.01877,-0.03326,-0.00427
6.8795,0.01724,-0.0705,-0.09033,0.05554,-0.04196,-0.16479,-0.02518,-0.00198,-0.01404,-0.01984,-0.01282,0.02884,-0.03265,-0.02106,-0.04761,-0.02838
6.88,0.00717,-0.08865,-0.13031,0.01541,-0.05402,-0.16342,-0.02365,0.00122,-0.01236,-0.01862,-0.01099,0.02213,-0.03204,-0.0209,-0.06668,-0.05142
6.8805,-0.00595,-0.09857,-0.17639,-0.03036,-0.04822,-0.16037,-0.02289,0.00473,-0.01221,-0.01862,-0.00854,0.01114,-0.03189,-0.02014,-0.07797,-0.06393
6.881,-0.01938,-0.09644,-0.21133,-0.07202,-0.02533,-0.15656,-0.02014,0.00763,-0.01297,-0.01984,-0.00702,0.00229,-0.03189,-0.01938,-0.07919,-0.06714
6.8815,-0.03006,-0.08759,-0.22217,-0.10071,0.00092,-0.1535,-0.01724,0.0087,-0.01419,-0.02121,-0.00763,-0.00168,-0.0322,-0.02029,-0.07782,-0.0676
6.882,-0.03983,-0.07675,-0.20752,-0.09872,0.01938,-0.1503,-0.01511,0.01007,-0.01556,-0.02106,-0.00977,-0.00275,-0.03342,-0.02106,-0.05569,-0.06668
6.8825,-0.04898,-0.06714,-0.17471,-0.06195,0.02502,-0.14664,-0.01419,0.01114,-0.01724,-0.02029,-0.01175,-0.0029,-0.03326,-0.02151,0.00702,-0.06302
6.883,-0.06012,-0.06012,-0.12985,-0.0296,0.01495,-0.14267,-0.01328,0.01221,-0.01923,-0.01862,-0.01266,-0.00122,-0.03265,-0.01938,0.0972,-0.05539
6.8835,-0.07141,-0.05676,-0.08118,-0.05676,-0.00931,-0.13977,-0.01297,0.01358,-0.02014,-0.01862,-0.01419,0.00076,-0.03265,-0.01678,0.16479,-0.04639
6.884,-0.07401,-0.05707,-0.03708,-0.15488,-0.03326,-0.13611,-0.01404,0.01343,-0.01892,-0.01923,-0.01602,0.00107,-0.03128,-0.01587,0.16586,-0.04425
6.8845,-0.04227,-0.05951,0.00015,-0.26627,-0.04639,-0.13214,-0.01328,0.01328,-0.01617,-0.01938,-0.01694,-0.00107,-0.03113,-0.01511,0.11353,-0.04929
6.885,0.03662,-0.06546,0.03036,-0.31357,-0.05478,-0.12787,-0.01282,0.01221,-0.01541,-0.02029,-0.01724,-0.00351,-0.03189,-0.01587,0.05493,-0.05981
6.8855,0.12131,-0.07767,0.04578,-0.26367,-0.0705,-0.12497,-0.01358,0.00961,-0.01617,-0.02151,-0.0177,-0.0058,-0.03311,-0.0174,0.01968,-0.07629
6.886,0.13763,-0.09674,0.02472,-0.14755,-0.08804,-0.11963,-0.01419,0.00839,-0.01572,-0.02106,-0.01907,-0.00595,-0.03235,-0.0177,0.00549,-0.09628
6.8865,0.07309,-0.11108,-0.04059,-0.01144,-0.08591,-0.11169,-0.01404,0.00839,-0.0145,-0.01938,-0.01968,-0.0029,-0.03036,-0.01602,-0.00137,-0.10818
6.887,-0.01266,-0.11124,-0.11444,0.12512,-0.05981,-0.10025,-0.01221,0.00961,-0.01358,-0.01694,-0.01801,0.00397,-0.02884,-0.01511,-0.00702,-0.10391
6.8875,-0.05966,-0.09598,-0.14786,0.20767,-0.02747,-0.09018,-0.01007,0.00977,-0.01419,-0.01648,-0.01633,0.01053,-0.02975,-0.01572,-0.00946,-0.09857
6.888,-0.06805,-0.07416,-0.12405,0.15381,-0.00214,-0.0827,-0.00931,0.00854,-0.0148,-0.01724,-0.01541,0.01251,-0.03082,-0.0177,-0.01144,-0.10971
6.8885,-0.06332,-0.05463,-0.06149,-0.00336,0.01617,-0.08179,-0.01129,0.00565,-0.01495,-0.01862,-0.01511,0.00992,-0.03006,-0.01862,-0.01709,-0.1297
6.889,-0.05783,-0.03922,0.01968,-0.09308,0.03159,-0.08224,-0.0145,0.00244,-0.0145,-0.01755,-0.0145,0.00809,-0.03021,-0.01831,-0.02045,-0.12772
6.8895,-0.05005,-0.02853,0.10361,-0.01984,0.03784,-0.07919,-0.01694,0.0,-0.01495,-0.01755,-0.01221,0.01053,-0.02914,-0.01724,-0.00107,-0.08667
6.89,-0.03983,-0.02151,0.16663,0.09354,0.03372,-0.07324,-0.01923,-0.00031,-0.01495,-0.01801,-0.01144,0.01373,-0.02945,-0.01709,0.04318,-0.00488
6.8905,-0.03281,-0.02014,0.19211,0.08163,0.02121,-0.0679,-0.01938,0.00061,-0.01434,-0.01877,-0.0119,0.01251,-0.02899,-0.0174,0.08072,0.09979
6.891,-0.03082,-0.02396,0.18204,-0.04715,-0.00259,-0.06393,-0.01846,0.00107,-0.01404,-0.01862,-0.01282,0.00595,-0.03036,-0.0177,0.08011,0.18173
6.8915,-0.03067,-0.02655,0.14832,-0.18005,-0.04623,-0.05951,-0.01587,0.00168,-0.01389,-0.01892,-0.01205,-0.00137,-0.03006,-0.01831,0.04822,0.18509
6.892,-0.03052,-0.02625,0.10361,-0.27313,-0.10468,-0.05219,-0.01419,0.00214,-0.0148,-0.01907,-0.01129,-0.0087,-0.02975,-0.01831,0.02029,0.10681
6.8925,-0.03021,-0.02258,0.06012,-0.32257,-0.14542,-0.04532,-0.01266,0.00305,-0.01617,-0.01846,-0.01312,-0.01892,-0.03021,-0.0177,0.01221,0.01053
6.893,-0.02655,-0.01709,0.02701,-0.28381,-0.13763,-0.04074,-0.01022,0.0032,-0.01587,-0.01831,-0.01617,-0.03311,-0.03113,-0.0177,0.01144,-0.04105
6.8935,-0.01678,-0.01282,0.0029,-0.13321,-0.0943,-0.03799,-0.00778,0.00107,-0.01526,-0.02075,-0.01541,-0.04242,-0.03128,-0.01923,0.00183,-0.03906
6.894,-0.00046,-0.00778,-0.01755,0.03372,-0.05951,-0.03342,-0.00702,0.00153,-0.01526,-0.01999,-0.0145,-0.03799,-0.03052,-0.0206,-0.01129,-0.01862
6.8945,0.01663,-0.00473,-0.03799,0.08652,-0.0592,-0.02502,-0.00778,0.00305,-0.01541,-0.02121,-0.01404,-0.01999,-0.03036,-0.01892,-0.02106,-0.01358
6.895,0.02716,-0.00534,-0.05356,0.01389,-0.07782,-0.01511,-0.00717,0.00229,-0.01617,-0.01968,-0.01328,-0.0029,-0.03128,-0.01862,-0.02472,-0.02441
6.8955,0.02914,-0.01053,-0.06317,-0.08972,-0.08713,-0.00458,-0.00687,-0.00061,-0.01709,-0.02029,-0.01236,0.00092,-0.03235,-0.01907,-0.02396,-0.02579
6.896,0.02563,-0.01526,-0.06744,-0.15793,-0.07935,0.00381,-0.00656,-0.00534,-0.01663,-0.02014,-0.01221,-0.00229,-0.03357,-0.02029,-0.01831,-0.00381
6.8965,0.02365,-0.01785,-0.07095,-0.20218,-0.06943,0.01022,-0.00885,-0.01007,-0.01633,-0.01938,-0.01434,-0.0029,-0.03403,-0.02075,-0.00809,0.02258
6.897,0.0267,-0.01953,-0.07324,-0.24857,-0.05936,0.0148,-0.01251,-0.01358,-0.01694,-0.01877,-0.01648,0.00122,-0.03464,-0.01968,0.00366,0.02686
6.8975,0.03433,-0.02487,-0.0737,-0.27878,-0.04211,0.01694,-0.01373,-0.01617,-0.01785,-0.01785,-0.01755,0.00381,-0.0354,-0.01846,0.01099,0.00687
6.898,0.04059,-0.03265,-0.06821,-0.24368,-0.01862,0.01907,-0.01312,-0.01831,-0.01862,-0.01724,-0.01617,0.00351,-0.03555,-0.01907,0.01129,-0.01572
6.8985,0.04181,-0.04257,-0.05966,-0.11688,-0.00519,0.02106,-0.01205,-0.01923,-0.01846,-0.01907,-0.01389,0.00336,-0.03479,-0.02075,0.00946,-0.03052
6.899,0.04044,-0.05615,-0.05432,0.07919,-0.01923,0.02487,-0.01099,-0.01831,-0.01831,-0.02014,-0.01434,0.00336,-0.03342,-0.02045,0.00687,-0.04745
6.8995,0.03723,-0.07141,-0.06134,0.26886,-0.056,0.03143,-0.01022,-0.01694,-0.01816,-0.01953,-0.01617,0.00076,-0.03143,-0.01816,0.00061,-0.07278
6.9,0.02518,-0.08087,-0.07828,0.38406,-0.08789,0.03937,-0.00854,-0.01434,-0.01785,-0.0177,-0.01633,-0.00381,-0.02975,-0.01602,-0.01297,-0.09933
6.9005,-0.00931,-0.0798,-0.08987,0.40924,-0.09201,0.04562,-0.00854,-0.01343,-0.01694,-0.01801,-0.01587,-0.00702,-0.0293,-0.01755,-0.02975,-0.10834
6.901,-0.06348,-0.07156,-0.0827,0.3508,-0.0708,0.04852,-0.01053,-0.01404,-0.01709,-0.01846,-0.01572,-0.00488,-0.02945,-0.01968,-0.03433,-0.09659
6.9015,-0.11276,-0.06302,-0.06378,0.21378,-0.04837,0.05127,-0.01373,-0.01617,-0.01709,-0.01801,-0.01556,0.00015,-0.02991,-0.01968,-0.02243,-0.07736
6.902,-0.13245,-0.05585,-0.04379,0.05875,-0.03525,0.05493,-0.01526,-0.01831,-0.01678,-0.01862,-0.01556,0.00473,-0.0296,-0.01862,-0.0029,-0.06577
6.9025,-0.12161,-0.05035,-0.02411,-0.00824,-0.02975,0.06119,-0.01526,-0.01984,-0.01617,-0.0177,-0.01511,0.00626,-0.02884,-0.01816,0.01205,-0.06699
6.903,-0.09094,-0.04623,-0.00229,0.04028,-0.02335,0.06897,-0.01633,-0.01999,-0.01587,-0.0177,-0.01633,0.00656,-0.02853,-0.01892,0.01846,-0.07355
6.9035,-0.05096,-0.0444,0.01923,0.10025,-0.01526,0.07553,-0.01923,-0.01877,-0.01556,-0.01648,-0.01663,0.00443,-0.0296,-0.0206,0.01999,-0.07324
6.904,-0.01144,-0.04181,0.03616,0.06821,-0.00595,0.08163,-0.02167,-0.01755,-0.01587,-0.01541,-0.01419,0.00275,-0.02991,-0.02121,0.01617,-0.06287
6.9045,0.01724,-0.03693,0.04425,-0.02899,0.00626,0.08774,-0.02014,-0.01556,-0.01556,-0.0174,-0.0116,0.00183,-0.02869,-0.02151,0.00854,-0.04913
6.905,0.03311,-0.03296,0.0415,-0.09583,0.01816,0.09369,-0.01465,-0.01251,-0.0145,-0.01968,-0.01144,0.00137,-0.02899,-0.0209,-0.00031,-0.04013
6.9055,0.04532,-0.02853,0.0322,-0.08362,0.02151,0.09735,-0.00977,-0.01038,-0.01328,-0.02151,-0.01266,0.00214,-0.0293,-0.02014,-0.00351,-0.03723
6.906,0.0618,-0.02365,0.01602,-0.01175,0.01404,0.09903,-0.0058,-0.009,-0.01251,-0.0206,-0.0148,0.00214,-0.03006,-0.01923,-0.00137,-0.03723
6.9065,0.07858,-0.01709,-0.00153,0.09781,-0.00366,0.09827,-0.00427,-0.00885,-0.01373,-0.01801,-0.01419,0.00092,-0.03067,-0.02075,0.00473,-0.03922
6.907,0.08652,-0.01709,-0.01297,0.23544,-0.02777,0.0946,-0.00534,-0.00931,-0.01465,-0.01709,-0.01373,-0.00183,-0.0325,-0.02182,0.00626,-0.04395
6.9075,0.08087,-0.03418,-0.02075,0.35538,-0.05386,0.09186,-0.00885,-0.01022,-0.01434,-0.01709,-0.01312,-0.00351,-0.03479,-0.02121,0.00198,-0.04852
6.908,0.06454,-0.06363,-0.02747,0.36774,-0.07431,0.0914,-0.01251,-0.01099,-0.01434,-0.01709,-0.01389,-0.00381,-0.03632,-0.01923,-0.00305,-0.04974
6.9085,0.0383,-0.08713,-0.03708,0.22415,-0.09033,0.09247,-0.01709,-0.01251,-0.01465,-0.01587,-0.01343,-0.00168,-0.03586,-0.01923,-0.00214,-0.0473
6.909,0.00153,-0.09277,-0.04517,-0.00671,-0.10696,0.09293,-0.01968,-0.01465,-0.01541,-0.01663,-0.01343,-0.00015,-0.03601,-0.02106,0.00259,-0.0441
6.9095,-0.03967,-0.0853,-0.04471,-0.19241,-0.11505,0.0914,-0.01892,-0.01556,-0.01602,-0.01602,-0.01312,0.00198,-0.03632,-0.02106,0.00671,-0.04471
6.91,-0.07111,-0.07568,-0.03571,-0.26505,-0.10284,0.08759,-0.01663,-0.01373,-0.01694,-0.01663,-0.01221,0.00198,-0.03693,-0.01999,0.00809,-0.0473
6.9105,-0.08087,-0.06638,-0.03113,-0.24826,-0.07706,0.08209,-0.01587,-0.01068,-0.01724,-0.01648,-0.0119,-0.00061,-0.03571,-0.01953,0.00732,-0.04822
6.911,-0.0708,-0.05249,-0.03876,-0.19485,-0.05676,0.07751,-0.01465,-0.00946,-0.01785,-0.01648,-0.01205,-0.00183,-0.03326,-0.02014,0.00595,-0.04562
6.9115,-0.04669,-0.03296,-0.056,-0.13428,-0.04761,0.07584,-0.01465,-0.00809,-0.01724,-0.01633,-0.01312,-0.00168,-0.03036,-0.01953,0.00565,-0.0412
6.912,-0.01801,-0.00961,-0.07172,-0.08209,-0.03876,0.07507,-0.01419,-0.0061,-0.01663,-0.01694,-0.01556,-0.00183,-0.0296,-0.01923,0.00687,-0.03815
6.9125,0.00519,0.01419,-0.0827,-0.04837,-0.02594,0.07202,-0.01404,-0.00427,-0.01648,-0.0177,-0.01663,-0.00153,-0.03036,-0.01846,0.0087,-0.03769
6.913,0.0174,0.02991,-0.09155,-0.03311,-0.01297,0.06668,-0.01541,-0.00183,-0.01709,-0.01846,-0.01526,-0.00076,-0.02975,-0.01678,0.01068,-0.03922
6.9135,0.02151,0.0322,-0.09811,-0.03189,-0.00839,0.06088,-0.01816,-0.00137,-0.01724,-0.01923,-0.01266,0.00092,-0.02762,-0.0174,0.01175,-0.04303
6.914,0.02213,0.02258,-0.10193,-0.03784,-0.01328,0.05844,-0.0206,-0.00244,-0.01678,-0.01984,-0.01083,0.00122,-0.0267,-0.01907,0.01053,-0.04517
6.9145,0.02472,0.01312,-0.10223,-0.04456,-0.02213,0.06088,-0.02045,-0.00336,-0.01663,-0.02029,-0.01099,-0.00015,-0.02731,-0.02029,0.009,-0.04349
6.915,0.03174,0.01114,-0.10254,-0.04364,-0.0267,0.06027,-0.01831,-0.00534,-0.01694,-0.01999,-0.01114,-0.00214,-0.02823,-0.02045,0.00793,-0.04303
6.9155,0.04425,0.01038,-0.10193,-0.03372,-0.02228,0.05646,-0.01694,-0.00565,-0.01678,-0.02106,-0.01114,-0.00214,-0.02823,-0.01953,0.00824,-0.0441
6.916,0.05798,0.00397,-0.09995,-0.02274,-0.01663,0.05188,-0.01465,-0.00397,-0.01663,-0.02319,-0.01266,-0.00107,-0.02945,-0.01846,0.00717,-0.0441
6.9165,0.06317,-0.01022,-0.1091,-0.01648,-0.01541,0.04715,-0.01434,-0.00137,-0.01694,-0.02487,-0.01373,-0.00015,-0.03082,-0.01648,0.00702,-0.04425
6.917,0.04898,-0.02686,-0.14725,-0.01129,-0.01541,0.04288,-0.01373,0.00107,-0.01617,-0.02457,-0.01343,0.00061,-0.03021,-0.01511,0.00839,-0.0415
6.9175,0.01297,-0.04318,-0.21606,-0.00443,-0.02197,0.03723,-0.0145,0.00183,-0.01587,-0.02304,-0.01328,0.00015,-0.02777,-0.01419,0.00916,-0.03998
6.918,-0.0293,-0.05539,-0.28168,-0.00031,-0.03281,0.03189,-0.01556,0.00183,-0.01633,-0.02167,-0.01282,0.00092,-0.02655,-0.01419,0.01007,-0.04028
6.9185,-0.05493,-0.06546,-0.30579,-0.00473,-0.03891,0.02594,-0.01602,-0.00076,-0.01648,-0.0209,-0.0148,0.00107,-0.02853,-0.01617,0.01053,-0.04089
6.919,-0.05402,-0.07202,-0.27527,-0.01328,-0.03418,0.02274,-0.01633,-0.00168,-0.01602,-0.02014,-0.01694,0.00168,-0.03082,-0.01602,0.01053,-0.04166
6.9195,-0.03555,-0.07614,-0.19409,-0.01648,-0.02121,0.02029,-0.01541,-0.00244,-0.01556,-0.02045,-0.01724,0.00168,-0.03128,-0.01541,0.01083,-0.04059
6.92,-0.00839,-0.0798,-0.07538,-0.01129,-0.00748,0.01785,-0.0116,-0.00061,-0.0145,-0.02106,-0.01617,0.00229,-0.03174,-0.01541,0.01007,-0.03769
6.9205,0.02106,-0.08301,0.05753,-0.00244,-0.00137,0.01175,-0.0087,0.00275,-0.01511,-0.02289,-0.01572,0.00183,-0.03235,-0.01678,0.00916,-0.03784
6.921,0.04959,-0.08392,0.17288,0.00397,0.00031,0.00397,-0.0087,0.00626,-0.01556,-0.02396,-0.01572,0.00153,-0.03479,-0.01755,0.00809,-0.03723
6.9215,0.06943,-0.08286,0.24551,0.00488,-0.00076,-0.00397,-0.00977,0.0061,-0.01602,-0.02487,-0.01526,0.00153,-0.03769,-0.01724,0.009,-0.03555
6.922,0.07614,-0.07965,0.26764,0.00397,-0.00061,-0.00671,-0.009,0.00488,-0.01495,-0.02411,-0.0145,0.00137,-0.03983,-0.01678,0.01053,-0.03403
6.9225,0.06775,-0.07462,0.24857,0.00366,0.00092,-0.01144,-0.00763,0.00473,-0.01373,-0.02365,-0.01373,0.00153,-0.03876,-0.01709,0.01099,-0.03311
6.923,0.0502,-0.06683,0.20279,0.00458,-0.00061,-0.01572,-0.00854,0.00458,-0.01251,-0.02213,-0.01328,0.00214,-0.03586,-0.01602,0.01099,-0.03586
6.9235,0.03174,-0.05966,0.14786,0.00595,-0.00519,-0.0206,-0.01068,0.00458,-0.01328,-0.02151,-0.01312,0.00198,-0.03448,-0.01419,0.01022,-0.03815
6.924,0.02197,-0.05203,0.09674,0.00443,-0.00992,-0.02502,-0.01236,0.00473,-0.01434,-0.02243,-0.01373,0.00031,-0.03494,-0.01434,0.0116,-0.03754
6.9245,0.02106,-0.04456,0.05341,-0.00137,-0.00748,-0.02914,-0.01144,0.00488,-0.01526,-0.0235,-0.01495,-0.00107,-0.03723,-0.01678,0.01297,-0.0351
6.925,0.02396,-0.03815,0.0029,-0.00793,-0.00336,-0.03036,-0.00961,0.00458,-0.01526,-0.02411,-0.01495,-0.00092,-0.03906,-0.01984,0.01236,-0.03418
6.9255,0.02914,-0.03494,-0.07278,-0.01083,-0.00458,-0.02975,-0.00763,0.00351,-0.01465,-0.02289,-0.0148,0.00076,-0.04105,-0.0206,0.0119,-0.03632
6.926,0.04181,-0.03494,-0.16953,-0.00931,-0.01602,-0.0293,-0.0061,0.00397,-0.0145,-0.02182,-0.01404,0.00229,-0.04333,-0.02045,0.01175,-0.03738
6.9265,0.06165,-0.03662,-0.25345,-0.0061,-0.02655,-0.03235,-0.00748,0.00534,-0.01404,-0.02121,-0.01511,0.00198,-0.0441,-0.0209,0.01236,-0.03754
6.927,0.08163,-0.03616,-0.29709,-0.00595,-0.0264,-0.03571,-0.01236,0.00702,-0.01389,-0.01984,-0.01572,0.00107,-0.04242,-0.02106,0.0116,-0.03494
6.9275,0.08392,-0.03281,-0.30502,-0.01022,-0.01831,-0.04028,-0.01831,0.00702,-0.0148,-0.01953,-0.01556,0.00061,-0.0383,-0.02029,0.01053,-0.03387
6.928,0.06744,-0.03052,-0.28839,-0.01556,-0.01572,-0.04425,-0.02182,0.00549,-0.0148,-0.01846,-0.01572,0.00061,-0.03372,-0.01877,0.01114,-0.03479
6.9285,0.04623,-0.03357,-0.25406,-0.01877,-0.01755,-0.05051,-0.01999,0.00549,-0.0148,-0.01846,-0.01526,0.00122,-0.03204,-0.01785,0.01221,-0.03708
6.929,0.0264,-0.0412,-0.20721,-0.0209,-0.01846,-0.05981,-0.01419,0.00748,-0.01419,-0.01785,-0.01602,0.00214,-0.03326,-0.01938,0.01205,-0.03754
6.9295,0.0032,-0.04745,-0.14908,-0.02045,-0.01068,-0.06775,-0.00839,0.00946,-0.01343,-0.01801,-0.01602,0.00336,-0.03387,-0.02014,0.01053,-0.03708
6.93,-0.01968,-0.04837,-0.08041,-0.01816,0.0,-0.07095,-0.00717,0.00717,-0.01389,-0.01801,-0.01633,0.00351,-0.03342,-0.01877,0.00992,-0.03479
6.9305,-0.03174,-0.04471,-0.00641,-0.01587,0.00748,-0.07523,-0.00961,0.00412,-0.01495,-0.0177,-0.01602,0.00305,-0.03281,-0.01755,0.0116,-0.03418
6.931,-0.03021,-0.03922,0.06943,-0.01602,0.0058,-0.07797,-0.01312,0.00214,-0.01587,-0.01724,-0.01526,0.00275,-0.03372,-0.01831,0.01282,-0.0351
6.9315,-0.02274,-0.03464,0.14404,-0.01907,-0.00839,-0.08087,-0.0145,0.00198,-0.01587,-0.01877,-0.0148,0.00412,-0.03418,-0.01999,0.01205,-0.03647
6.932,-0.02289,-0.03418,0.20813,-0.02258,-0.04074,-0.08484,-0.01495,0.00122,-0.01526,-0.01785,-0.0148,0.00443,-0.0351,-0.01968,0.01221,-0.03647
6.9325,-0.03464,-0.03784,0.24872,-0.02319,-0.08652,-0.08759,-0.0145,-0.00183,-0.01434,-0.01694,-0.01511,0.00443,-0.0351,-0.01862,0.01038,-0.03693
6.933,-0.05493,-0.04242,0.25726,-0.02319,-0.12421,-0.08881,-0.0119,-0.00412,-0.01465,-0.01434,-0.01511,0.00397,-0.03387,-0.01877,0.01144,-0.03784
6.9335,-0.07401,-0.04669,0.23392,-0.02396,-0.12924,-0.08881,-0.00961,-0.00427,-0.01526,-0.01389,-0.01404,0.00427,-0.03326,-0.01984,0.01205,-0.0383
6.934,-0.08698,-0.05188,0.18509,-0.0235,-0.10681,-0.08957,-0.00977,-0.00183,-0.01678,-0.01633,-0.01343,0.00443,-0.03235,-0.01999,0.01282,-0.03754
6.9345,-0.09445,-0.05997,0.13107,-0.02228,-0.07904,-0.08987,-0.01114,-0.00229,-0.01801,-0.0177,-0.01404,0.0032,-0.0322,-0.01831,0.01511,-0.03662
6.935,-0.0975,-0.06821,0.08926,-0.0206,-0.05997,-0.08682,-0.01083,-0.00443,-0.01755,-0.01755,-0.01587,0.0029,-0.03296,-0.01678,0.01526,-0.03754
6.9355,-0.09811,-0.07263,0.065,-0.01953,-0.04135,-0.08575,-0.01007,-0.00916,-0.01724,-0.01617,-0.01617,0.00229,-0.03372,-0.01709,0.01282,-0.03769
6.936,-0.09445,-0.07477,0.05127,-0.01923,-0.01556,-0.08606,-0.01053,-0.01068,-0.01663,-0.01602,-0.01663,0.00183,-0.03387,-0.0177,0.00946,-0.03632
6.9365,-0.09018,-0.07858,0.04105,-0.02014,0.00778,-0.08942,-0.01175,-0.01099,-0.01648,-0.01755,-0.01572,0.00137,-0.0325,-0.01892,0.00946,-0.03464
6.937,-0.08667,-0.08286,0.02716,-0.02029,0.01587,-0.09338,-0.01144,-0.0116,-0.01633,-0.01785,-0.01419,0.00168,-0.03021,-0.01816,0.0119,-0.03418
6.9375,-0.08835,-0.07965,0.00427,-0.01953,0.00656,-0.09506,-0.01053,-0.01099,-0.01556,-0.01648,-0.01236,0.00229,-0.02701,-0.01633,0.01221,-0.03448
6.938,-0.09888,-0.06882,-0.02655,-0.01755,-0.00763,-0.09583,-0.01038,-0.01007,-0.01556,-0.01572,-0.0116,0.00244,-0.02487,-0.01495,0.01297,-0.03494
6.9385,-0.12009,-0.06134,-0.05081,-0.01648,-0.01831,-0.09888,-0.01114,-0.00809,-0.01602,-0.01694,-0.01266,0.00183,-0.02472,-0.01511,0.01404,-0.03494
6.939,-0.1413,-0.06546,-0.0592,-0.01633,-0.02625,-0.10193,-0.01068,-0.00717,-0.01617,-0.01953,-0.0148,0.00214,-0.02777,-0.01709,0.0148,-0.03448
6.9395,-0.14313,-0.07233,-0.05676,-0.01694,-0.03204,-0.1001,-0.00931,-0.009,-0.01602,-0.01877,-0.01587,0.00336,-0.03082,-0.01877,0.01434,-0.03311
6.94,-0.11978,-0.06805,-0.05341,-0.01846,-0.03464,-0.09766,-0.00626,-0.00824,-0.01724,-0.01648,-0.01465,0.00473,-0.03174,-0.01831,0.01236,-0.03128
6.9405,-0.08484,-0.05096,-0.0502,-0.01892,-0.03189,-0.09903,-0.00626,-0.00626,-0.01785,-0.01541,-0.01266,0.00595,-0.03113,-0.01678,0.01144,-0.02945
6.941,-0.05249,-0.03128,-0.04395,-0.01694,-0.01892,-0.10437,-0.01068,-0.0061,-0.01816,-0.01663,-0.01144,0.00702,-0.03098,-0.01663,0.01099,-0.02884
6.9415,-0.02548,-0.01373,-0.03754,-0.01236,0.00504,-0.11017,-0.01465,-0.01068,-0.01785,-0.0174,-0.01221,0.00778,-0.03052,-0.01816,0.01205,-0.03113
6.942,-0.00092,0.00137,-0.03525,-0.00931,0.02975,-0.11185,-0.01617,-0.01587,-0.01831,-0.01862,-0.01312,0.00687,-0.03021,-0.02014,0.01312,-0.03418
6.9425,0.02197,0.01221,-0.03845,-0.00931,0.03616,-0.11536,-0.01373,-0.01877,-0.01846,-0.02029,-0.0145,0.00595,-0.03082,-0.02045,0.01328,-0.03693
6.943,0.03845,0.01328,-0.04333,-0.00977,0.02029,-0.11642,-0.01007,-0.01846,-0.01801,-0.0209,-0.01617,0.00473,-0.03204,-0.02014,0.01297,-0.03708
6.9435,0.04974,0.0029,-0.0499,-0.00824,-0.01251,-0.11795,-0.00732,-0.01587,-0.01694,-0.01984,-0.01663,0.00412,-0.03128,-0.01953,0.01251,-0.03693
6.944,0.0592,-0.00824,-0.05646,-0.0061,-0.05035,-0.11902,-0.00687,-0.01587,-0.01617,-0.01984,-0.01541,0.00488,-0.03021,-0.01953,0.01297,-0.03616
6.9445,0.06607,-0.01251,-0.06454,-0.00702,-0.0856,-0.11993,-0.01038,-0.01633,-0.01633,-0.01923,-0.0145,0.00458,-0.03113,-0.01953,0.01175,-0.03571
6.945,0.06805,-0.01236,-0.07507,-0.00977,-0.10712,-0.12024,-0.01389,-0.01465,-0.01694,-0.01862,-0.01511,0.00458,-0.03372,-0.01923,0.009,-0.03403
6.9455,0.06638,-0.01678,-0.08743,-0.01175,-0.10803,-0.11932,-0.01633,-0.01144,-0.01678,-0.01877,-0.01617,0.00458,-0.03494,-0.01862,0.00748,-0.03265
6.946,0.07446,-0.02808,-0.09842,-0.00961,-0.09521,-0.11795,-0.01953,-0.00839,-0.01694,-0.01953,-0.01633,0.00519,-0.03433,-0.01831,0.00916,-0.03281
6.9465,0.0972,-0.04303,-0.10696,-0.00778,-0.08179,-0.11673,-0.02365,-0.00977,-0.0174,-0.02075,-0.01663,0.0058,-0.03326,-0.01938,0.01205,-0.03403
6.947,0.112,-0.05829,-0.11444,-0.01007,-0.06607,-0.11948,-0.02731,-0.01236,-0.01831,-0.02228,-0.01694,0.0058,-0.03235,-0.01984,0.01251,-0.03479
6.9475,0.09155,-0.06912,-0.11581,-0.01404,-0.04242,-0.12177,-0.02838,-0.01511,-0.01801,-0.02304,-0.01648,0.00565,-0.0322,-0.01938,0.00946,-0.03494
6.948,0.03693,-0.06653,-0.11154,-0.01465,-0.01587,-0.11703,-0.02792,-0.01556,-0.01633,-0.02197,-0.01526,0.00534,-0.03281,-0.01846,0.00656,-0.03616
6.9485,-0.01587,-0.0502,-0.10361,-0.01099,0.00824,-0.11108,-0.02518,-0.01221,-0.01419,-0.02335,-0.01389,0.00702,-0.03311,-0.02014,0.00687,-0.03754
6.949,-0.04028,-0.03448,-0.09705,-0.00732,0.03204,-0.10956,-0.02029,-0.00687,-0.01389,-0.02365,-0.01404,0.009,-0.0322,-0.02151,0.00763,-0.03815
6.9495,-0.0415,-0.03082,-0.09415,-0.00702,0.0563,-0.112,-0.01419,-0.00259,-0.01511,-0.02304,-0.01373,0.00885,-0.03113,-0.02289,0.00854,-0.03876
6.95,-0.04501,-0.03784,-0.09872,-0.00977,0.07431,-0.11612,-0.00931,0.00015,-0.01617,-0.02167,-0.01205,0.00626,-0.03036,-0.02304,0.01007,-0.04044
6.9505,-0.0679,-0.04532,-0.10712,-0.01038,0.07721,-0.11917,-0.00854,-0.00153,-0.01617,-0.0209,-0.00946,0.00473,-0.03311,-0.02304,0.01038,-0.04242
6.951,-0.10498,-0.04898,-0.10895,-0.01083,0.0621,-0.11917,-0.01221,-0.00671,-0.01633,-0.01862,-0.0087,0.00458,-0.03708,-0.02274,0.009,-0.0415
6.9515,-0.13153,-0.04974,-0.09903,-0.01114,0.03662,-0.12054,-0.01587,-0.01297,-0.01694,-0.01709,-0.00961,0.00443,-0.03922,-0.02228,0.00702,-0.0386
6.952,-0.13168,-0.04654,-0.07858,-0.01144,0.01358,-0.11887,-0.01633,-0.01373,-0.01617,-0.0174,-0.01129,0.00351,-0.03937,-0.02045,0.00763,-0.03754
6.9525,-0.10986,-0.03876,-0.05188,-0.0119,-0.00443,-0.11841,-0.01434,-0.00793,-0.01556,-0.02045,-0.01266,0.0029,-0.03922,-0.01892,0.00839,-0.0386
6.953,-0.07584,-0.03006,-0.0206,-0.01175,-0.03952,-0.11948,-0.01358,-0.00046,-0.01495,-0.02243,-0.01266,0.00275,-0.03906,-0.01801,0.00961,-0.03967
6.9535,-0.03555,-0.02426,0.01083,-0.01068,-0.10757,-0.12024,-0.01587,0.00366,-0.01526,-0.02319,-0.01251,0.00397,-0.03784,-0.01877,0.00885,-0.03967
6.954,0.00839,-0.02029,0.0354,-0.00931,-0.17883,-0.12238,-0.02045,0.0032,-0.01556,-0.02228,-0.01312,0.00504,-0.03601,-0.01923,0.00656,-0.03876
6.9545,0.04578,-0.01923,0.04242,-0.00763,-0.20691,-0.12222,-0.02441,0.00198,-0.01633,-0.01923,-0.01266,0.0061,-0.03571,-0.01938,0.00366,-0.03662
6.955,0.06882,-0.02029,0.03098,-0.00641,-0.17624,-0.11948,-0.02396,0.00168,-0.01648,-0.01709,-0.01236,0.00671,-0.03632,-0.01968,0.00351,-0.03769
6.9555,0.07935,-0.02304,0.01007,-0.0061,-0.12543,-0.11612,-0.02228,0.00244,-0.01617,-0.01541,-0.01175,0.00626,-0.0351,-0.02106,0.00534,-0.04013
6.956,0.08484,-0.02365,-0.00778,-0.00717,-0.1004,-0.11398,-0.02029,0.00122,-0.01709,-0.01633,-0.01175,0.00565,-0.03403,-0.02136,0.00519,-0.04135
6.9565,0.09293,-0.01938,-0.01816,-0.01038,-0.10178,-0.11093,-0.02121,-0.00107,-0.01831,-0.01862,-0.01236,0.00443,-0.03464,-0.02136,0.00534,-0.04105
6.957,0.10101,-0.01373,-0.02533,-0.01221,-0.10147,-0.10696,-0.02289,-0.00488,-0.01862,-0.0209,-0.01495,0.00458,-0.03662,-0.02121,0.00427,-0.04059
6.9575,0.10269,-0.01312,-0.03235,-0.01312,-0.08224,-0.10239,-0.02426,-0.00656,-0.01755,-0.02167,-0.01724,0.00626,-0.03693,-0.02121,0.00168,-0.04242
6.958,0.09628,-0.0209,-0.04013,-0.01419,-0.05768,-0.09644,-0.02304,-0.0061,-0.01602,-0.02182,-0.01755,0.00809,-0.0354,-0.02167,-0.00031,-0.04303
6.9585,0.08804,-0.03159,-0.05096,-0.01526,-0.04288,-0.09003,-0.01938,-0.00336,-0.01633,-0.02045,-0.01572,0.00717,-0.03403,-0.02029,-0.00076,-0.04272
6.959,0.08026,-0.0412,-0.06271,-0.01541,-0.03906,-0.0856,-0.0174,-0.00015,-0.01648,-0.01923,-0.01343,0.00519,-0.03372,-0.01816,-0.00015,-0.04105
6.9595,0.06989,-0.04745,-0.06973,-0.01617,-0.03586,-0.08575,-0.01328,0.00504,-0.01617,-0.01877,-0.01297,0.00488,-0.03342,-0.01617,0.00168,-0.04044
6.96,0.05112,-0.05341,-0.06699,-0.01556,-0.03052,-0.08804,-0.00946,0.00961,-0.01465,-0.01816,-0.01434,0.00641,-0.03235,-0.0148,0.00229,-0.0415
6.9605,0.02716,-0.06577,-0.06134,-0.01526,-0.02502,-0.09262,-0.00778,0.01297,-0.01404,-0.01755,-0.01541,0.00763,-0.03128,-0.01572,0.00198,-0.04486
6.961,0.00839,-0.08118,-0.05615,-0.01389,-0.02014,-0.09308,-0.01114,0.01526,-0.01434,-0.01785,-0.01465,0.00702,-0.03281,-0.0174,0.00137,-0.04578
6.9615,0.00076,-0.08896,-0.05508,-0.01236,-0.01465,-0.08759,-0.01663,0.01495,-0.0145,-0.01923,-0.01404,0.00793,-0.03357,-0.01831,0.00061,-0.04623
6.962,-0.00076,-0.08255,-0.05402,-0.00961,-0.01205,-0.08224,-0.02151,0.01419,-0.01526,-0.0209,-0.0145,0.00885,-0.03296,-0.01968,0.00076,-0.04364
6.9625,-0.00488,-0.07019,-0.05295,-0.00656,-0.01419,-0.08316,-0.0238,0.01175,-0.01617,-0.02075,-0.01572,0.00763,-0.03159,-0.02136,0.00107,-0.04272
6.963,-0.01328,-0.0618,-0.04761,-0.00046,-0.01755,-0.08438,-0.0235,0.0116,-0.01678,-0.02136,-0.01678,0.00595,-0.03021,-0.02151,0.00046,-0.04364
6.9635,-0.02274,-0.05981,-0.03693,0.00748,-0.02045,-0.08102,-0.01846,0.01312,-0.01755,-0.02213,-0.0148,0.0061,-0.03006,-0.02121,-0.00015,-0.04532
6.964,-0.03403,-0.05768,-0.02823,0.00793,-0.01831,-0.07599,-0.01389,0.01266,-0.01785,-0.02304,-0.01358,0.00778,-0.02991,-0.02197,-0.00168,-0.04669
6.9645,-0.047,-0.04944,-0.03036,-0.01068,-0.01328,-0.07385,-0.01266,0.00793,-0.0177,-0.02396,-0.01312,0.00885,-0.03006,-0.02289,-0.00198,-0.04807
6.965,-0.05814,-0.03616,-0.04761,-0.05127,-0.0058,-0.07523,-0.01511,-0.00122,-0.01785,-0.02304,-0.0145,0.00732,-0.03098,-0.02197,-0.00137,-0.04852
6.9655,-0.06393,-0.02106,-0.0708,-0.09735,-0.00015,-0.07004,-0.01801,-0.00931,-0.01785,-0.02289,-0.01495,0.00595,-0.03174,-0.02106,-0.00031,-0.04761
6.966,-0.06775,-0.0087,-0.08987,-0.12512,-0.00198,-0.06561,-0.0174,-0.01114,-0.01724,-0.02289,-0.01495,0.00748,-0.03387,-0.01999,0.00137,-0.04822
6.9665,-0.07233,-0.00168,-0.10269,-0.11658,-0.00534,-0.06058,-0.01556,-0.00565,-0.01633,-0.02319,-0.01465,0.00961,-0.03448,-0.01892,0.00198,-0.04868
6.967,-0.06882,0.0,-0.11368,-0.06531,-0.00458,-0.056,-0.01465,0.00168,-0.01602,-0.02304,-0.01434,0.009,-0.03357,-0.01862,0.00076,-0.04898
6.9675,-0.04837,-0.00183,-0.11734,0.01907,0.00076,-0.05005,-0.01724,0.00702,-0.01678,-0.0206,-0.01419,0.00763,-0.03281,-0.01923,0.00168,-0.04822
6.968,-0.01801,-0.00336,-0.10468,0.11322,0.00259,-0.04395,-0.02014,0.00793,-0.0174,-0.01938,-0.01328,0.00732,-0.03174,-0.0209,0.00076,-0.04807
6.9685,0.00534,-0.00305,-0.06836,0.18387,-0.00687,-0.03906,-0.02228,0.00748,-0.01678,-0.02045,-0.01328,0.0087,-0.03098,-0.02197,0.0,-0.04761
6.969,0.01556,-0.00427,-0.01877,0.20187,-0.0296,-0.03571,-0.02151,0.00702,-0.01648,-0.02335,-0.01495,0.00977,-0.03006,-0.02151,-0.00015,-0.0473
6.9695,0.0174,-0.00885,0.02777,0.17532,-0.05676,-0.03006,-0.01724,0.00671,-0.01648,-0.02335,-0.01587,0.00946,-0.02853,-0.01831,0.00244,-0.04745
6.97,0.01831,-0.01221,0.06104,0.13596,-0.07187,-0.02533,-0.01266,0.00671,-0.01709,-0.02106,-0.01572,0.00809,-0.02716,-0.01617,0.00671,-0.04776
6.9705,0.01755,-0.01205,0.08026,0.09064,-0.06622,-0.0174,-0.00824,0.00702,-0.0174,-0.01801,-0.01328,0.00656,-0.02701,-0.01648,0.00717,-0.04822
6.971,0.01266,-0.00931,0.08789,0.01144,-0.05142,-0.01526,-0.00595,0.00778,-0.01633,-0.01663,-0.01175,0.0061,-0.02716,-0.0177,0.00473,-0.04669
6.9715,0.00519,-0.00931,0.08133,-0.1059,-0.03983,-0.01343,-0.00427,0.00504,-0.01633,-0.0174,-0.01175,0.00641,-0.02899,-0.01801,0.00229,-0.04486
6.972,-0.00488,-0.01678,0.06149,-0.20264,-0.03922,-0.01343,-0.00626,-0.00015,-0.01587,-0.0209,-0.01312,0.00824,-0.03113,-0.0174,0.0029,-0.0444
6.9725,-0.01678,-0.02762,0.03571,-0.20996,-0.03922,-0.00778,-0.01022,-0.00519,-0.01541,-0.02426,-0.01251,0.00778,-0.03296,-0.01541,0.00427,-0.04425
6.973,-0.02899,-0.03983,0.01007,-0.14404,-0.03693,-0.00626,-0.01297,-0.00717,-0.01495,-0.02533,-0.01144,0.0058,-0.03357,-0.01404,0.00473,-0.04471
6.9735,-0.03967,-0.05356,-0.01053,-0.08987,-0.03326,-0.0058,-0.01404,-0.00671,-0.01511,-0.0235,-0.0119,0.00336,-0.03265,-0.0145,0.00397,-0.04517
6.974,-0.05173,-0.07202,-0.02502,-0.10239,-0.03189,-0.00381,-0.01328,-0.00732,-0.01526,-0.02014,-0.01434,0.00183,-0.03204,-0.01709,0.00381,-0.04532
6.9745,-0.06531,-0.08987,-0.0354,-0.15869,-0.03311,-0.00122,-0.01312,-0.00732,-0.01556,-0.01953,-0.01495,0.00122,-0.03113,-0.01968,0.00336,-0.04578
6.975,-0.07874,-0.09964,-0.04288,-0.20645,-0.03036,0.00046,-0.0116,-0.00763,-0.01678,-0.02213,-0.01236,0.00107,-0.03098,-0.0206,0.00336,-0.04517
6.9755,-0.09018,-0.09918,-0.05173,-0.20935,-0.0235,0.00076,-0.00809,-0.00656,-0.01694,-0.02258,-0.01053,0.00046,-0.0322,-0.01907,0.00229,-0.04547
6.976,-0.09979,-0.09506,-0.06302,-0.14435,-0.01556,-0.00275,-0.00641,-0.00504,-0.01694,-0.0206,-0.01083,0.00092,-0.03418,-0.01953,0.00183,-0.04639
6.9765,-0.10406,-0.08911,-0.07523,-0.01572,-0.0087,-0.00656,-0.00732,-0.0061,-0.01678,-0.01907,-0.01282,0.00107,-0.03403,-0.02014,0.00153,-0.04639
6.977,-0.09796,-0.07919,-0.08759,0.12085,-0.00244,-0.00488,-0.00839,-0.01114,-0.0174,-0.01785,-0.01328,0.00046,-0.0322,-0.02106,0.00092,-0.04578
6.9775,-0.08713,-0.06683,-0.10315,0.19806,0.00107,-0.00824,-0.00443,-0.02106,-0.01801,-0.01999,-0.01297,-0.00107,-0.03067,-0.0209,0.00183,-0.04532
6.978,-0.07935,-0.05692,-0.12634,0.1973,-0.0058,-0.00778,-0.00122,-0.03372,-0.01801,-0.02045,-0.0145,-0.00259,-0.03098,-0.01938,0.00366,-0.04608
6.9785,-0.07248,-0.05035,-0.16403,0.15228,-0.01831,-0.00717,-0.00397,-0.03998,-0.01648,-0.0209,-0.01541,-0.00244,-0.03235,-0.01785,0.00443,-0.04669
6.979,-0.05844,-0.04517,-0.21683,0.08606,-0.02106,-0.0087,-0.01297,-0.03632,-0.01602,-0.0209,-0.01495,-0.00214,-0.03448,-0.01907,0.0032,-0.04761
6.9795,-0.03235,-0.03738,-0.26764,0.00397,-0.00351,-0.00961,-0.02014,-0.02747,-0.01617,-0.02151,-0.01266,-0.00198,-0.0354,-0.02182,0.00122,-0.04837
6.98,0.00107,-0.02884,-0.29541,-0.06943,0.02045,-0.01022,-0.01968,-0.02304,-0.01633,-0.02106,-0.00992,-0.00092,-0.03433,-0.02136,0.00214,-0.04807
6.9805,0.03815,-0.02197,-0.2887,-0.09613,0.03159,-0.01007,-0.01373,-0.02365,-0.01617,-0.02045,-0.01022,-0.00061,-0.0325,-0.01968,0.00519,-0.04715
6.981,0.0708,-0.0177,-0.24307,-0.0621,0.02808,-0.01312,-0.01068,-0.02136,-0.01511,-0.01709,-0.0119,0.00046,-0.03204,-0.01923,0.00702,-0.04593
6.9815,0.08621,-0.01495,-0.1561,0.01175,0.00961,-0.01617,-0.01266,-0.01282,-0.0148,-0.01724,-0.01328,0.00046,-0.03174,-0.0206,0.00656,-0.04501
6.982,0.0795,-0.01221,-0.03342,0.08835,-0.03159,-0.02106,-0.01648,-0.00092,-0.01694,-0.01801,-0.01358,-0.00137,-0.03235,-0.02106,0.0058,-0.04517
6.9825,0.05997,-0.01038,0.10422,0.12131,-0.08591,-0.02365,-0.01816,0.00565,-0.01923,-0.01892,-0.01373,-0.00275,-0.03387,-0.02045,0.00336,-0.04547
6.983,0.04761,-0.0087,0.22659,0.08743,-0.11993,-0.02594,-0.0174,-0.00046,-0.01999,-0.01968,-0.01495,-0.0058,-0.03418,-0.01999,0.0032,-0.04486
6.9835,0.05051,-0.00885,0.30411,0.02579,-0.11246,-0.02838,-0.01785,-0.01633,-0.01968,-0.01907,-0.01587,-0.00763,-0.03342,-0.0209,0.00458,-0.04456
6.984,0.05692,-0.01312,0.31982,0.00031,-0.09186,-0.02945,-0.02029,-0.02975,-0.01953,-0.01999,-0.01694,-0.00839,-0.03326,-0.02136,0.00656,-0.04486
6.9845,0.0412,-0.02014,0.28427,0.01617,-0.0972,-0.03342,-0.01938,-0.03235,-0.01984,-0.02167,-0.01678,-0.00732,-0.03326,-0.0206,0.00809,-0.04669
6.985,-0.00351,-0.02686,0.22247,0.02914,-0.11261,-0.03922,-0.01495,-0.02701,-0.01968,-0.02106,-0.01602,-0.00519,-0.03311,-0.01923,0.00809,-0.04745
6.9855,-0.05859,-0.03448,0.15808,0.01358,-0.10086,-0.0441,-0.01022,-0.0206,-0.01999,-0.01984,-0.01633,-0.00519,-0.03189,-0.01984,0.00839,-0.04654
6.986,-0.09537,-0.04562,0.09674,-0.0119,-0.06485,-0.04791,-0.00961,-0.01694,-0.0206,-0.0177,-0.01724,-0.00748,-0.02914,-0.02213,0.0087,-0.04684
6.9865,-0.09842,-0.0592,0.04166,-0.0264,-0.03708,-0.0502,-0.01343,-0.01663,-0.02045,-0.01709,-0.01801,-0.00717,-0.02487,-0.02304,0.00702,-0.04669
6.987,-0.07248,-0.06897,-0.00214,-0.03021,-0.03326,-0.05081,-0.01801,-0.01694,-0.02167,-0.0177,-0.01801,-0.00549,-0.0235,-0.02167,0.00565,-0.04654
6.9875,-0.02762,-0.07034,-0.03571,-0.03342,-0.03601,-0.0499,-0.01892,-0.0148,-0.02167,-0.0177,-0.0177,-0.00671,-0.02548,-0.01999,0.0058,-0.0444
6.988,0.0235,-0.06531,-0.06119,-0.04837,-0.03128,-0.05295,-0.01572,-0.01144,-0.02167,-0.01617,-0.01785,-0.00916,-0.0293,-0.02121,0.0058,-0.04318
6.9885,0.07141,-0.05997,-0.07568,-0.07889,-0.02594,-0.05966,-0.01389,-0.01144,-0.02182,-0.0145,-0.01633,-0.01083,-0.03189,-0.02228,0.0061,-0.04227
6.989,0.10361,-0.0563,-0.07507,-0.11353,-0.02457,-0.06683,-0.01572,-0.01724,-0.02213,-0.01587,-0.0148,-0.01068,-0.03128,-0.02182,0.00641,-0.04379
6.9895,0.12115,-0.05112,-0.06439,-0.12421,-0.02167,-0.0705,-0.01953,-0.02304,-0.02274,-0.01526,-0.01556,-0.01007,-0.02869,-0.01877,0.00626,-0.04501
6.99,0.12817,-0.04395,-0.05768,-0.08835,-0.01389,-0.07584,-0.02075,-0.02319,-0.02304,-0.01465,-0.01877,-0.01007,-0.02594,-0.01617,0.00595,-0.04471
6.9905,0.12741,-0.03876,-0.05829,-0.01663,-0.00671,-0.07813,-0.01862,-0.01862,-0.02243,-0.01358,-0.02441,-0.00885,-0.02472,-0.01587,0.0061,-0.04364
6.991,0.11673,-0.03815,-0.0647,0.05585,-0.00778,-0.07874,-0.01572,-0.01282,-0.02167,-0.01419,-0.03204,-0.00641,-0.02533,-0.01678,0.00641,-0.04318
6.9915,0.09674,-0.04059,-0.07339,0.09048,-0.01389,-0.08041,-0.01465,-0.00931,-0.0209,-0.0148,-0.0383,-0.00458,-0.0264,-0.0177,0.00793,-0.04333
6.992,0.07278,-0.04807,-0.08148,0.07172,-0.02411,-0.08087,-0.01511,-0.0061,-0.02014,-0.01358,-0.04318,-0.0058,-0.02777,-0.01862,0.00961,-0.04364
6.9925,0.05142,-0.06012,-0.08392,0.01831,-0.03632,-0.08591,-0.01373,-0.00473,-0.02045,-0.01114,-0.04517,-0.00839,-0.0293,-0.01877,0.00839,-0.04303
6.993,0.03296,-0.07095,-0.08072,-0.03204,-0.04684,-0.09216,-0.01297,-0.00427,-0.02121,-0.00931,-0.04135,-0.0087,-0.0296,-0.01846,0.00641,-0.04272
6.9935,0.01648,-0.07446,-0.07355,-0.0589,-0.0502,-0.09552,-0.01297,-0.00397,-0.02167,-0.009,-0.03036,-0.00671,-0.02914,-0.01755,0.00488,-0.04166
6.994,0.00137,-0.07111,-0.06851,-0.06516,-0.04166,-0.09338,-0.01434,-0.00183,-0.02197,-0.01083,-0.01328,-0.00488,-0.02869,-0.0177,0.00504,-0.04135
6.9945,-0.00961,-0.06561,-0.06882,-0.05447,-0.03113,-0.09232,-0.0148,0.00046,-0.02136,-0.01343,0.00366,-0.00443,-0.02899,-0.01862,0.00641,-0.04242
6.995,-0.01938,-0.06073,-0.07217,-0.01785,-0.02686,-0.09216,-0.01404,0.00275,-0.02151,-0.0145,0.01526,-0.00534,-0.02914,-0.01953,0.00778,-0.04349
6.9955,-0.03296,-0.05432,-0.07507,0.03143,-0.03143,-0.09567,-0.01297,0.00473,-0.02197,-0.01312,0.01953,-0.00671,-0.02884,-0.0206,0.00931,-0.04425
6.996,-0.04791,-0.04715,-0.07248,0.05417,-0.03204,-0.09933,-0.01175,0.00671,-0.02228,-0.01144,0.01785,-0.00732,-0.02899,-0.02151,0.00916,-0.04456
6.9965,-0.05783,-0.04242,-0.06638,0.03128,-0.02716,-0.10193,-0.0116,0.00702,-0.02167,-0.01022,0.01373,-0.0061,-0.02838,-0.02075,0.00778,-0.04471
6.997,-0.05707,-0.0412,-0.06195,-0.00916,-0.02289,-0.10498,-0.01221,0.0058,-0.0209,-0.01022,0.01007,-0.00412,-0.02869,-0.01953,0.00702,-0.04486
6.9975,-0.04669,-0.03937,-0.05722,-0.02945,-0.02151,-0.10742,-0.01236,0.00397,-0.01877,-0.00885,0.00595,-0.00351,-0.02914,-0.01923,0.00778,-0.04532
6.998,-0.03174,-0.03708,-0.05341,-0.02243,-0.01831,-0.10788,-0.0119,0.00488,-0.01831,-0.0087,0.00153,-0.00381,-0.03067,-0.01999,0.0087,-0.04578
6.9985,-0.01984,-0.03387,-0.05447,-0.01007,-0.01633,-0.10757,-0.009,0.00641,-0.0174,-0.00946,-0.00168,-0.00381,-0.03281,-0.02121,0.00763,-0.04547
6.999,-0.01709,-0.03098,-0.07309,-0.01068,-0.01343,-0.1091,-0.009,0.00397,-0.01617,-0.01053,-0.0032,-0.00351,-0.03372,-0.01999,0.00565,-0.0441
6.9995,-0.02182,-0.02686,-0.11353,-0.0206,-0.00931,-0.10773,-0.00854,0.00061,-0.01587,-0.00977,-0.0058,-0.00366,-0.0322,-0.01709,0.00809,-0.04303
7.0,-0.02625,-0.02243,-0.16159,-0.02213,-0.00381,-0.10361,-0.00992,0.0,-0.01541,-0.00793,-0.01022,-0.00488,-0.03067,-0.01541,0.01144,-0.04257
7.0005,-0.02533,-0.02045,-0.19302,-0.00534,0.0,-0.10376,-0.00946,0.00275,-0.01465,-0.00641,-0.01419,-0.0061,-0.03098,-0.01648,0.01114,-0.04181
7.001,-0.02121,-0.02106,-0.19699,0.01877,0.00015,-0.10361,-0.00854,0.00565,-0.01282,-0.00656,-0.01572,-0.00488,-0.03235,-0.01816,0.00687,-0.04166
7.0015,-0.01999,-0.02319,-0.17242,0.03159,-0.00336,-0.10757,-0.01038,0.0058,-0.01053,-0.00626,-0.01633,-0.00397,-0.03281,-0.01755,0.00259,-0.04089
7.002,-0.0235,-0.02594,-0.11627,0.02747,-0.00687,-0.10513,-0.0145,0.00473,-0.00946,-0.00656,-0.01572,-0.00458,-0.03281,-0.01648,0.00229,-0.04288
7.0025,-0.02899,-0.02991,-0.03418,0.01694,-0.01312,-0.10315,-0.01694,0.00504,-0.01083,-0.00687,-0.01572,-0.00809,-0.03357,-0.01816,0.0058,-0.04654
7.003,-0.03525,-0.03326,0.05341,0.01221,-0.02258,-0.10147,-0.01648,0.00824,-0.01495,-0.00763,-0.01663,-0.01099,-0.0354,-0.02075,0.00885,-0.04913
7.0035,-0.04196,-0.03525,0.12146,0.01526,-0.02975,-0.10056,-0.01434,0.01343,-0.01846,-0.00931,-0.01617,-0.01282,-0.03754,-0.02136,0.00916,-0.04898
7.004,-0.04883,-0.03738,0.15442,0.01999,-0.04181,-0.09903,-0.01389,0.01907,-0.02029,-0.00992,-0.01465,-0.01358,-0.04028,-0.01999,0.00809,-0.04593
7.0045,-0.05341,-0.04059,0.15213,0.02289,-0.05371,-0.09766,-0.01572,0.02365,-0.01984,-0.00916,-0.01404,-0.01251,-0.04166,-0.02075,0.00824,-0.0441
7.005,-0.05402,-0.04547,0.12665,0.02182,-0.05905,-0.09644,-0.01785,0.02304,-0.01587,-0.009,-0.01526,-0.01038,-0.04089,-0.02289,0.00626,-0.04333
7.0055,-0.05096,-0.05157,0.09476,0.01465,-0.0528,-0.09369,-0.01831,0.01587,-0.01144,-0.00931,-0.01602,-0.01114,-0.03815,-0.02335,0.00595,-0.04425
7.006,-0.04501,-0.05692,0.06805,0.00443,-0.03998,-0.09003,-0.01801,0.00198,-0.0087,-0.01007,-0.01511,-0.01419,-0.03723,-0.02136,0.00458,-0.04471
7.0065,-0.03754,-0.05951,0.04913,-0.00259,-0.0322,-0.09094,-0.01755,-0.01373,-0.00824,-0.01114,-0.01526,-0.01663,-0.03815,-0.02014,0.00458,-0.0444
7.007,-0.0322,-0.05478,0.03342,-0.00122,-0.03021,-0.09079,-0.0148,-0.02365,-0.00839,-0.01312,-0.01801,-0.01602,-0.03891,-0.02106,0.0058,-0.04379
7.0075,-0.02991,-0.04196,0.01892,0.00137,-0.0296,-0.09247,-0.01312,-0.0148,-0.00824,-0.01465,-0.02167,-0.01373,-0.03845,-0.02197,0.00641,-0.04349
7.008,-0.02563,-0.03036,0.00229,0.00137,-0.02777,-0.09338,-0.01022,0.01251,-0.00885,-0.01495,-0.02228,-0.01038,-0.03784,-0.02075,0.00717,-0.04379
7.0085,-0.00977,-0.02869,-0.01923,-0.00473,-0.02625,-0.09048,-0.00839,0.03845,-0.00931,-0.01419,-0.01999,-0.00778,-0.03632,-0.01923,0.00732,-0.04318
7.009,0.01343,-0.03479,-0.04547,-0.0148,-0.02457,-0.08728,-0.00702,0.03647,-0.00854,-0.01541,-0.01831,-0.00519,-0.03357,-0.01892,0.00702,-0.04242
7.0095,0.03006,-0.04028,-0.08255,-0.02853,-0.01831,-0.08514,-0.00717,0.00916,-0.00687,-0.01648,-0.01846,-0.00351,-0.03006,-0.02045,0.00656,-0.04059
7.01,0.02777,-0.03952,-0.13458,-0.0415,-0.01205,-0.08575,-0.009,-0.01907,-0.0061,-0.01633,-0.01999,-0.0032,-0.02899,-0.02075,0.00732,-0.03967
7.0105,0.01144,-0.03403,-0.19501,-0.05173,-0.01251,-0.08438,-0.01541,-0.02945,-0.00656,-0.01419,-0.0209,-0.00336,-0.02975,-0.01968,0.0087,-0.04166
7.011,-0.00336,-0.03006,-0.24963,-0.05463,-0.02228,-0.07782,-0.01923,-0.02518,-0.00641,-0.01236,-0.01938,-0.00397,-0.03052,-0.01862,0.00977,-0.04379
7.0115,-0.00793,-0.02991,-0.28809,-0.05188,-0.03616,-0.07187,-0.01526,-0.01755,-0.00519,-0.0119,-0.01831,-0.00366,-0.03006,-0.01877,0.00885,-0.04425
7.012,-0.00702,-0.03098,-0.31052,-0.04929,-0.04822,-0.06683,-0.00351,-0.01266,-0.00549,-0.01404,-0.01816,-0.00351,-0.0296,-0.01984,0.00763,-0.04242
7.0125,-0.00732,-0.0296,-0.30853,-0.05157,-0.05875,-0.06409,0.00275,-0.00977,-0.00595,-0.01526,-0.01892,-0.00122,-0.02975,-0.01953,0.00916,-0.03967
7.013,-0.00839,-0.02625,-0.26443,-0.05569,-0.06653,-0.06088,-0.00031,-0.00931,-0.00763,-0.01419,-0.01785,0.00214,-0.03174,-0.01892,0.01114,-0.03922
7.0135,-0.00687,-0.02609,-0.16785,-0.05844,-0.06516,-0.05783,-0.01297,-0.01038,-0.01038,-0.01328,-0.01511,0.00275,-0.03479,-0.01816,0.01221,-0.03983
7.014,-0.00259,-0.0322,-0.03571,-0.05783,-0.05219,-0.05203,-0.0206,-0.01114,-0.01221,-0.01328,-0.01358,-0.00015,-0.03677,-0.01862,0.01038,-0.04166
7.0145,0.00122,-0.04211,0.09384,-0.05539,-0.03723,-0.04623,-0.01907,-0.00946,-0.01251,-0.01282,-0.0148,-0.00305,-0.03662,-0.01831,0.01053,-0.04242
7.015,0.00427,-0.05035,0.18845,-0.05173,-0.02869,-0.04501,-0.01434,-0.00793,-0.01205,-0.01312,-0.01724,-0.00412,-0.03479,-0.01801,0.01205,-0.04257
7.0155,0.00504,-0.05386,0.23407,-0.04776,-0.0293,-0.04547,-0.0116,-0.00687,-0.01083,-0.01343,-0.01846,-0.00565,-0.03448,-0.01755,0.01221,-0.0415
7.016,0.00443,-0.05493,0.23743,-0.04532,-0.03464,-0.04578,-0.0119,-0.00443,-0.01007,-0.01465,-0.01984,-0.00931,-0.03647,-0.01846,0.00793,-0.03983
7.0165,0.0032,-0.05585,0.20981,-0.04425,-0.03937,-0.04395,-0.01282,0.00046,-0.01099,-0.0148,-0.01877,-0.01251,-0.03845,-0.01862,0.00534,-0.03906
7.017,0.0032,-0.05798,0.16693,-0.03967,-0.03983,-0.03952,-0.01282,0.00397,-0.01373,-0.01434,-0.01755,-0.01266,-0.0386,-0.01892,0.00549,-0.04074
7.0175,0.00443,-0.05951,0.12405,-0.03387,-0.03754,-0.03479,-0.01343,0.00336,-0.01648,-0.01495,-0.01678,-0.01068,-0.03815,-0.01923,0.00793,-0.04318
7.018,0.00565,-0.06271,0.09064,-0.02747,-0.0351,-0.03128,-0.01633,0.00046,-0.01831,-0.01465,-0.01877,-0.00992,-0.03754,-0.01968,0.00687,-0.04501
7.0185,0.00275,-0.06439,0.06546,-0.01907,-0.03281,-0.02808,-0.01846,-0.00183,-0.01801,-0.01572,-0.01877,-0.0119,-0.03738,-0.01831,0.00412,-0.04517
7.019,-0.00381,-0.06409,0.04608,-0.00626,-0.02502,-0.02289,-0.01755,-0.00336,-0.01785,-0.01648,-0.01846,-0.01404,-0.03708,-0.01785,0.0029,-0.04501
7.0195,-0.01068,-0.06027,0.03159,0.00534,-0.01068,-0.01785,-0.01617,-0.00366,-0.01724,-0.01617,-0.01465,-0.01495,-0.03632,-0.01785,0.00336,-0.04395
7.02,-0.01572,-0.05615,0.02258,0.01114,0.00305,-0.0145,-0.01297,-0.00153,-0.0174,-0.01572,-0.01312,-0.01572,-0.03464,-0.01724,0.00412,-0.04272
7.0205,-0.0177,-0.05447,0.01633,0.01648,0.0032,-0.01328,-0.01144,0.00122,-0.01846,-0.01587,-0.01389,-0.0174,-0.03296,-0.01663,0.00443,-0.04318
7.021,-0.01755,-0.05585,0.01236,0.02106,-0.00809,-0.0119,-0.01022,0.00336,-0.01862,-0.01526,-0.0145,-0.02045,-0.03235,-0.01663,0.00366,-0.0441
7.0215,-0.01648,-0.05707,0.00351,0.01053,-0.01801,-0.00961,-0.00961,0.00381,-0.01816,-0.01419,-0.01434,-0.02289,-0.03113,-0.01755,0.00366,-0.04486
7.022,-0.01633,-0.05875,-0.00702,-0.0296,-0.01892,-0.00458,-0.0116,0.00305,-0.01831,-0.01373,-0.01541,-0.02487,-0.03021,-0.01831,0.00488,-0.04562
7.0225,-0.01465,-0.06088,-0.01663,-0.08606,-0.00824,-0.00015,-0.01434,0.00275,-0.0177,-0.0145,-0.0177,-0.02609,-0.02792,-0.01755,0.00793,-0.04669
7.023,-0.01221,-0.06195,-0.02625,-0.12726,0.00198,0.0032,-0.01556,0.00381,-0.01694,-0.01541,-0.01938,-0.03159,-0.02502,-0.01633,0.00992,-0.04822
7.0235,-0.00854,-0.05981,-0.03769,-0.13565,0.00198,0.00412,-0.01648,0.00549,-0.01602,-0.01648,-0.01816,-0.04547,-0.02335,-0.01572,0.00961,-0.04776
7.024,-0.00397,-0.05615,-0.05157,-0.11536,-0.01572,0.00565,-0.0174,0.00458,-0.01633,-0.01617,-0.0177,-0.06592,-0.02228,-0.01648,0.00854,-0.04532
7.0245,0.00366,-0.05219,-0.06302,-0.06668,-0.04044,0.00961,-0.01816,0.00275,-0.01572,-0.01694,-0.01816,-0.07751,-0.02365,-0.01724,0.00854,-0.04349
7.025,0.0145,-0.04623,-0.07462,0.01694,-0.05157,0.01389,-0.01755,0.00229,-0.01434,-0.01724,-0.01801,-0.06699,-0.02502,-0.01938,0.00854,-0.04272
7.0255,0.0267,-0.03586,-0.07965,0.11368,-0.04181,0.01663,-0.0174,0.00534,-0.01144,-0.01617,-0.01755,-0.0354,-0.02609,-0.01999,0.00763,-0.04288
7.026,0.03937,-0.02304,-0.07996,0.15778,-0.02792,0.01526,-0.01617,0.009,-0.01007,-0.01556,-0.01709,-0.00092,-0.02609,-0.02136,0.00839,-0.04196
7.0265,0.04959,-0.0116,-0.0766,0.11597,-0.02548,0.01068,-0.0177,0.00732,-0.00946,-0.01541,-0.01556,0.02167,-0.02533,-0.02289,0.00931,-0.04059
7.027,0.04913,-0.00763,-0.07446,0.03754,-0.03723,0.0058,-0.01877,0.00015,-0.00961,-0.01602,-0.0145,0.03128,-0.02365,-0.02396,0.00885,-0.04257
7.0275,0.03403,-0.00961,-0.0737,-0.00427,-0.05615,0.0032,-0.01968,-0.00687,-0.01114,-0.01694,-0.01358,0.04013,-0.02304,-0.02289,0.00854,-0.04593
7.028,0.01251,-0.01343,-0.07507,-0.00397,-0.07355,0.0029,-0.01968,-0.01068,-0.0119,-0.01617,-0.01282,0.05814,-0.02441,-0.02167,0.00885,-0.04715
7.0285,-0.00107,-0.02075,-0.07507,0.00076,-0.07889,0.00458,-0.01785,-0.01343,-0.01343,-0.01495,-0.01144,0.08209,-0.02548,-0.02029,0.00839,-0.04593
7.029,-0.00351,-0.02945,-0.07538,-0.00717,-0.06958,0.00504,-0.01495,-0.01785,-0.0148,-0.01465,-0.01099,0.09521,-0.02563,-0.01862,0.00977,-0.04684
7.0295,-0.00336,-0.03891,-0.07797,-0.01526,-0.06027,0.00595,-0.01099,-0.02625,-0.01434,-0.01556,-0.01114,0.08163,-0.02487,-0.0177,0.01068,-0.04776
7.03,-0.01022,-0.04532,-0.07706,-0.01312,-0.06699,0.00488,-0.00854,-0.03418,-0.01251,-0.01617,-0.01221,0.04471,-0.02502,-0.01862,0.00946,-0.04761
7.0305,-0.02502,-0.04639,-0.07294,-0.00778,-0.0856,0.00504,-0.00916,-0.03815,-0.01083,-0.01556,-0.0145,0.0032,-0.02731,-0.01968,0.00885,-0.04471
7.031,-0.04211,-0.04166,-0.06821,-0.00824,-0.09506,0.00626,-0.01068,-0.03418,-0.01083,-0.01541,-0.01556,-0.02228,-0.0293,-0.01938,0.00977,-0.04303
7.0315,-0.05997,-0.03479,-0.06516,-0.01251,-0.08484,0.01068,-0.01266,-0.02731,-0.0116,-0.01694,-0.01373,-0.01923,-0.03082,-0.01877,0.00977,-0.04395
7.032,-0.08163,-0.02853,-0.06195,-0.01495,-0.06622,0.01434,-0.01648,-0.0235,-0.01236,-0.01938,-0.0116,0.00168,-0.03052,-0.01862,0.01144,-0.04684
7.0325,-0.10559,-0.02289,-0.06393,-0.01541,-0.05035,0.0177,-0.0206,-0.02457,-0.01297,-0.01999,-0.01144,0.01694,-0.03082,-0.01907,0.01053,-0.04883
7.033,-0.12451,-0.01785,-0.06561,-0.01404,-0.04044,0.02136,-0.02396,-0.02457,-0.01205,-0.01938,-0.01312,0.01038,-0.03143,-0.01831,0.0087,-0.04837
7.0335,-0.12863,-0.01755,-0.06683,-0.00839,-0.03632,0.02472,-0.02182,-0.02106,-0.01175,-0.01999,-0.01389,-0.00656,-0.03159,-0.0177,0.00778,-0.04791
7.034,-0.11429,-0.02228,-0.06729,0.00092,-0.03433,0.02762,-0.01633,-0.01556,-0.0119,-0.02045,-0.01221,-0.01648,-0.0325,-0.01678,0.00717,-0.04868
7.0345,-0.08286,-0.02869,-0.06744,0.00885,-0.03296,0.02518,-0.01053,-0.01007,-0.01328,-0.02213,-0.00931,-0.01617,-0.03479,-0.01663,0.00839,-0.04837
7.035,-0.03922,-0.03098,-0.07019,0.009,-0.03067,0.01984,-0.00946,-0.00565,-0.01419,-0.02167,-0.00885,-0.01862,-0.03754,-0.01648,0.00748,-0.04837
7.0355,0.00809,-0.0293,-0.07477,0.00214,-0.02914,0.01663,-0.01434,-0.00214,-0.01389,-0.01999,-0.01053,-0.03128,-0.03815,-0.01556,0.00717,-0.04791
7.036,0.0499,-0.03082,-0.0769,-0.00854,-0.0267,0.01572,-0.01953,-0.00183,-0.01343,-0.0177,-0.01205,-0.05295,-0.03723,-0.01373,0.00748,-0.04807
7.0365,0.07965,-0.03586,-0.07233,-0.0174,-0.02319,0.01419,-0.02182,-0.0032,-0.0148,-0.01633,-0.01251,-0.07996,-0.0354,-0.0145,0.00885,-0.04745
7.037,0.09506,-0.04105,-0.06638,-0.01892,-0.01862,0.00931,-0.01907,-0.00504,-0.01526,-0.01587,-0.01221,-0.10666,-0.03525,-0.01709,0.01007,-0.04791
7.0375,0.0975,-0.04501,-0.056,-0.01633,-0.01465,0.00549,-0.01862,-0.00641,-0.01511,-0.01694,-0.0116,-0.12177,-0.03662,-0.01907,0.00854,-0.04807
7.038,0.09171,-0.04837,-0.04776,-0.01602,-0.01404,0.00275,-0.02029,-0.00687,-0.01419,-0.0174,-0.01251,-0.10696,-0.03845,-0.01892,0.00809,-0.04852
7.0385,0.08331,-0.05096,-0.03998,-0.02182,-0.01373,-0.00015,-0.02106,-0.00549,-0.01297,-0.01816,-0.01419,-0.07141,-0.03799,-0.01862,0.00748,-0.04654
7.039,0.07401,-0.05081,-0.03143,-0.02869,-0.01068,-0.00122,-0.01923,0.00046,-0.01312,-0.01816,-0.01526,-0.06165,-0.03723,-0.01877,0.00626,-0.04471
7.0395,0.0618,-0.04959,-0.02533,-0.02747,-0.00458,0.00046,-0.01602,0.01053,-0.01282,-0.01801,-0.01572,-0.10971,-0.03571,-0.01938,0.00504,-0.0444
7.04,0.04608,-0.0502,-0.02243,-0.01801,0.00214,0.00076,-0.0145,0.02518,-0.01236,-0.01572,-0.01434,-0.18097,-0.03479,-0.01999,0.00473,-0.04593
7.0405,0.03082,-0.05035,-0.01709,-0.00702,0.00626,0.00107,-0.01404,0.03967,-0.01221,-0.01373,-0.01266,-0.19333,-0.03494,-0.01892,0.00397,-0.04547
7.041,0.01953,-0.04913,-0.01465,-0.00229,0.00092,-0.00183,-0.01251,0.04868,-0.01404,-0.01358,-0.0119,-0.09537,-0.03586,-0.0174,0.00275,-0.04425
7.0415,0.00916,-0.04623,-0.01053,-0.00092,-0.01663,-0.00702,-0.00977,0.04898,-0.01633,-0.01434,-0.01312,0.07904,-0.03662,-0.01663,0.00153,-0.04303
7.042,-0.00305,-0.04044,-0.01282,0.00107,-0.04105,-0.00992,-0.00717,0.03952,-0.01678,-0.01495,-0.01434,0.23346,-0.03723,-0.01633,0.00198,-0.04227
7.0425,-0.01602,-0.03265,-0.01999,0.00183,-0.06042,-0.01144,-0.00717,0.0238,-0.01648,-0.01587,-0.0148,0.29327,-0.03708,-0.01678,0.00305,-0.04227
7.043,-0.02243,-0.02487,-0.0296,-0.00549,-0.06149,-0.0119,-0.01038,0.00809,-0.01633,-0.01434,-0.01495,0.26321,-0.03571,-0.0177,0.0032,-0.04303
7.0435,-0.01816,-0.02045,-0.03998,-0.01877,-0.05066,-0.00977,-0.01282,-0.00198,-0.01648,-0.01297,-0.0148,0.21179,-0.03311,-0.01801,0.00397,-0.04456
7.044,-0.0058,-0.02075,-0.04547,-0.03098,-0.03845,-0.00916,-0.01389,-0.00473,-0.01648,-0.01358,-0.01526,0.18387,-0.03174,-0.0177,0.00336,-0.04517
7.0445,0.0061,-0.02396,-0.04761,-0.03372,-0.03281,-0.01083,-0.01419,-0.00443,-0.01617,-0.01633,-0.01465,0.15579,-0.03067,-0.01648,0.0029,-0.04532
7.045,0.01129,-0.02716,-0.04761,-0.02914,-0.02853,-0.01205,-0.01328,-0.00839,-0.01709,-0.01801,-0.01404,0.09064,-0.02884,-0.01587,0.00259,-0.0441
7.0455,0.00977,-0.02655,-0.0499,-0.02472,-0.0267,-0.01205,-0.01328,-0.02029,-0.0177,-0.01846,-0.01373,0.00595,-0.0264,-0.01663,0.0058,-0.04288
7.046,0.00565,-0.02716,-0.06226,-0.02426,-0.02823,-0.0145,-0.01205,-0.03403,-0.0177,-0.01877,-0.01465,-0.04593,-0.02594,-0.01831,0.00824,-0.04272
7.0465,0.00244,-0.03098,-0.07507,-0.02487,-0.03159,-0.01328,-0.00778,-0.04089,-0.01678,-0.01968,-0.01572,-0.04822,-0.02701,-0.01923,0.00824,-0.0441
7.047,-0.00076,-0.03616,-0.0882,-0.02457,-0.03189,-0.01007,-0.00824,-0.04257,-0.01648,-0.0209,-0.0148,-0.03128,-0.03021,-0.01907,0.00427,-0.04517
7.0475,-0.00443,-0.0415,-0.09857,-0.02335,-0.0293,-0.00778,-0.01099,-0.047,-0.01541,-0.02228,-0.01373,-0.02731,-0.03174,-0.01785,0.00153,-0.04471
7.048,-0.00839,-0.04852,-0.10895,-0.02304,-0.02487,-0.00641,-0.01648,-0.05295,-0.01526,-0.02151,-0.01419,-0.03815,-0.03021,-0.0177,0.00336,-0.04395
7.0485,-0.01053,-0.05737,-0.11612,-0.02487,-0.02335,-0.00595,-0.01953,-0.05066,-0.01556,-0.02167,-0.01587,-0.04669,-0.02914,-0.01877,0.00427,-0.04135
7.049,-0.01068,-0.06516,-0.12085,-0.02731,-0.02426,-0.009,-0.01877,-0.0386,-0.01648,-0.0238,-0.01633,-0.04593,-0.02914,-0.02029,0.00565,-0.03906
7.0495,-0.01236,-0.06882,-0.12192,-0.02701,-0.02533,-0.01343,-0.01617,-0.0238,-0.01663,-0.02579,-0.01526,-0.04303,-0.02991,-0.01953,0.00504,-0.03632
7.05,-0.01572,-0.06683,-0.11337,-0.02304,-0.02487,-0.01724,-0.01511,-0.01526,-0.01556,-0.02533,-0.01389,-0.03967,-0.02884,-0.01724,0.00763,-0.03342
7.0505,-0.02075,-0.06104,-0.08865,-0.01831,-0.0238,-0.02014,-0.01923,-0.01328,-0.01419,-0.02289,-0.01358,-0.02274,-0.02777,-0.0145,0.00763,-0.0325
7.051,-0.02396,-0.05386,-0.04288,-0.01343,-0.02457,-0.02121,-0.02243,-0.01221,-0.01495,-0.02243,-0.01312,0.01572,-0.02686,-0.01404,0.00717,-0.03372
7.0515,-0.02228,-0.047,0.01495,-0.0061,-0.02472,-0.0209,-0.02106,-0.00916,-0.01663,-0.02151,-0.01266,0.05905,-0.02731,-0.01526,0.00763,-0.03571
7.052,-0.01816,-0.0412,0.07355,0.00275,-0.02502,-0.02182,-0.02014,-0.00671,-0.01724,-0.02304,-0.01343,0.09048,-0.02655,-0.0177,0.00641,-0.03525
7.0525,-0.01312,-0.03387,0.12253,0.00961,-0.02228,-0.02029,-0.02121,-0.0058,-0.01617,-0.02441,-0.01511,0.10117,-0.02579,-0.01892,0.00748,-0.03418
7.053,-0.01022,-0.02777,0.14755,0.01022,-0.01862,-0.01755,-0.02213,-0.00336,-0.01541,-0.02701,-0.01541,0.08179,-0.02518,-0.0177,0.00671,-0.03616
7.0535,-0.00992,-0.02609,0.14343,0.00351,-0.0145,-0.01785,-0.01999,0.00153,-0.01495,-0.02884,-0.0145,0.02945,-0.02411,-0.01785,0.00549,-0.04013
7.054,-0.01236,-0.02991,0.11963,-0.00488,-0.01343,-0.02243,-0.01404,0.00107,-0.01541,-0.02884,-0.0148,-0.0322,-0.02319,-0.01801,0.00366,-0.04227
7.0545,-0.01328,-0.03616,0.08087,-0.01114,-0.0148,-0.02579,-0.00534,-0.01404,-0.01541,-0.02777,-0.01541,-0.07324,-0.0235,-0.01846,0.0029,-0.04074
7.055,-0.01083,-0.03708,0.03555,-0.01251,-0.01541,-0.02655,-0.00214,-0.05234,-0.01602,-0.02747,-0.01465,-0.09232,-0.02502,-0.01907,0.00153,-0.03922
7.0555,-0.00626,-0.03342,-0.00443,-0.01541,-0.01633,-0.02823,-0.00534,-0.09781,-0.01572,-0.02808,-0.01495,-0.10971,-0.02563,-0.01984,-0.00137,-0.0386
7.056,-0.00305,-0.03204,-0.03906,-0.02457,-0.02106,-0.03265,-0.01114,-0.11261,-0.01678,-0.02945,-0.0148,-0.13123,-0.02457,-0.0209,-0.00092,-0.0386
7.0565,-0.00244,-0.03616,-0.07004,-0.03555,-0.03372,-0.03433,-0.01343,-0.05554,-0.01816,-0.0293,-0.01434,-0.14648,-0.02258,-0.02029,-0.00092,-0.03998
7.057,-0.00336,-0.04517,-0.09369,-0.04166,-0.05417,-0.03616,-0.01419,0.04944,-0.01877,-0.02975,-0.01343,-0.14816,-0.02258,-0.01953,-0.00031,-0.0415
7.0575,-0.00595,-0.05402,-0.10284,-0.0354,-0.06546,-0.03387,-0.0148,0.12222,-0.01938,-0.02914,-0.01358,-0.13779,-0.02304,-0.01968,-0.00153,-0.04135
7.058,-0.00931,-0.0618,-0.0882,-0.01862,-0.05951,-0.03525,-0.01389,0.1149,-0.01923,-0.02808,-0.01419,-0.11353,-0.02243,-0.02045,-0.00031,-0.04013
7.0585,-0.01419,-0.07004,-0.05386,0.00137,-0.04547,-0.03799,-0.01328,0.06424,-0.01877,-0.02899,-0.0148,-0.07507,-0.0206,-0.01968,0.00137,-0.0383
7.059,-0.01999,-0.07568,-0.01068,0.01419,-0.03906,-0.03983,-0.01419,0.03082,-0.01862,-0.02899,-0.01602,-0.0235,-0.02121,-0.01892,0.00336,-0.03677
7.0595,-0.02563,-0.07675,0.02701,0.0119,-0.04242,-0.03983,-0.0174,0.02762,-0.01694,-0.02899,-0.01633,0.04135,-0.02243,-0.01801,0.00412,-0.03418
7.06,-0.02869,-0.07294,0.04669,0.00092,-0.04593,-0.04135,-0.01923,0.02945,-0.01556,-0.02823,-0.01572,0.11414,-0.02365,-0.01816,0.0061,-0.03204
7.0605,-0.02975,-0.06592,0.04608,-0.00885,-0.04211,-0.04211,-0.01526,0.02335,-0.01511,-0.02792,-0.01511,0.1741,-0.02472,-0.0177,0.0087,-0.03098
7.061,-0.03006,-0.05981,0.03082,-0.01129,-0.03769,-0.04578,-0.01175,0.01617,-0.01556,-0.02701,-0.01541,0.1944,-0.0238,-0.01724,0.01114,-0.03143
7.0615,-0.02838,-0.05325,0.00717,-0.01144,-0.03601,-0.04776,-0.0119,0.01526,-0.01617,-0.02563,-0.01633,0.15427,-0.02167,-0.0177,0.01205,-0.03342
7.062,-0.02335,-0.04471,-0.01633,-0.01099,-0.03448,-0.04761,-0.0148,0.01587,-0.01724,-0.02472,-0.01602,0.0563,-0.02014,-0.01862,0.01053,-0.0354
7.0625,-0.01648,-0.03403,-0.03418,-0.00671,-0.02853,-0.04395,-0.01663,0.0145,-0.0174,-0.02579,-0.01511,-0.05753,-0.02106,-0.01816,0.01083,-0.03616
7.063,-0.00977,-0.02167,-0.04272,0.00214,-0.0174,-0.03891,-0.01617,0.01022,-0.0177,-0.02686,-0.0148,-0.12283,-0.0238,-0.01709,0.01205,-0.03586
7.0635,-0.00351,-0.01312,-0.04776,0.00504,-0.00778,-0.03601,-0.01434,0.0058,-0.01709,-0.02853,-0.01511,-0.11429,-0.02625,-0.01709,0.01099,-0.03479
7.064,0.00183,-0.01389,-0.05142,-0.01343,-0.00565,-0.03906,-0.01541,0.00473,-0.0177,-0.02762,-0.01511,-0.06851,-0.02655,-0.01785,0.01007,-0.03464
7.0645,0.0058,-0.02625,-0.05325,-0.04883,-0.00732,-0.04135,-0.0148,0.00458,-0.01785,-0.02579,-0.01389,-0.03464,-0.02625,-0.01846,0.00885,-0.0354
7.065,0.00809,-0.04425,-0.05234,-0.07751,-0.00809,-0.04532,-0.01495,0.00443,-0.01862,-0.02533,-0.01312,-0.01968,-0.02747,-0.01831,0.00839,-0.03815
7.0655,0.00809,-0.06119,-0.04898,-0.07874,-0.00656,-0.04837,-0.01678,0.00214,-0.01877,-0.02441,-0.01236,-0.00244,-0.02853,-0.01862,0.00839,-0.04105
7.066,0.00656,-0.06821,-0.04486,-0.05096,-0.0032,-0.05188,-0.01877,0.00015,-0.01801,-0.02441,-0.01144,0.02426,-0.02945,-0.01999,0.00961,-0.0415
7.0665,0.00534,-0.065,-0.03799,-0.00916,-0.01434,-0.05768,-0.01801,-0.00046,-0.01678,-0.02502,-0.01099,0.04669,-0.03036,-0.02045,0.01221,-0.03998
7.067,0.00305,-0.05569,-0.03036,0.03784,-0.03479,-0.05905,-0.01617,0.00076,-0.01663,-0.02686,-0.0116,0.05005,-0.02991,-0.0206,0.01129,-0.0383
7.0675,-0.00031,-0.04471,-0.02533,0.07919,-0.05463,-0.05569,-0.01419,0.00137,-0.0177,-0.02838,-0.01251,0.03204,-0.02853,-0.02075,0.01297,-0.0383
7.068,-0.00687,-0.03418,-0.02777,0.09888,-0.05569,-0.05203,-0.01465,-0.00137,-0.01801,-0.03021,-0.01358,-0.00076,-0.0264,-0.02075,0.01556,-0.0386
7.0685,-0.01221,-0.02457,-0.03326,0.08438,-0.04303,-0.05447,-0.01541,-0.00534,-0.0177,-0.02914,-0.01266,-0.03464,-0.02625,-0.01984,0.01953,-0.03693
7.069,-0.01389,-0.01648,-0.03983,0.04913,-0.03311,-0.05951,-0.01358,-0.00885,-0.01831,-0.02686,-0.01175,-0.05875,-0.02853,-0.01877,0.02136,-0.03555
7.0695,-0.01297,-0.01129,-0.04288,0.01724,-0.03021,-0.06241,-0.01144,-0.00916,-0.01862,-0.02533,-0.01083,-0.07156,-0.03174,-0.01785,0.02426,-0.03433
7.07,-0.01328,-0.01053,-0.04227,0.00748,-0.02518,-0.0618,-0.009,-0.00732,-0.01678,-0.02396,-0.01053,-0.08011,-0.03357,-0.01831,0.02411,-0.03403
7.0705,-0.0148,-0.01205,-0.04227,0.02075,-0.00732,-0.06165,-0.00504,-0.00671,-0.01495,-0.0238,-0.00992,-0.08789,-0.03433,-0.01862,0.02304,-0.03418
7.071,-0.01419,-0.01038,-0.04456,0.04074,0.01633,-0.06516,-0.00259,-0.00916,-0.01465,-0.02411,-0.01129,-0.09048,-0.03296,-0.01862,0.02304,-0.03586
7.0715,-0.00961,-0.00397,-0.04517,0.0502,0.03937,-0.06958,-0.00137,-0.01129,-0.01556,-0.02472,-0.01389,-0.07507,-0.0322,-0.01892,0.02396,-0.03723
7.072,-0.00534,0.00168,-0.0441,0.03983,0.04929,-0.0705,-0.00504,-0.01373,-0.01694,-0.02518,-0.01678,-0.03555,-0.03174,-0.01953,0.02655,-0.03647
7.0725,-0.00412,-0.00122,-0.04562,0.02045,0.03815,-0.07004,-0.01389,-0.01831,-0.01602,-0.02487,-0.01801,0.02426,-0.03098,-0.01984,0.02899,-0.0354
7.073,-0.00488,-0.01328,-0.04517,0.00656,0.02991,-0.07095,-0.02121,-0.02686,-0.01511,-0.02441,-0.01587,0.08698,-0.03143,-0.01907,0.02792,-0.03403
7.0735,-0.00565,-0.02792,-0.04791,-0.00305,0.02472,-0.07217,-0.02411,-0.03906,-0.01373,-0.02457,-0.01236,0.1268,-0.03265,-0.01831,0.02655,-0.03464
7.074,-0.00595,-0.03815,-0.04807,-0.01251,0.00839,-0.07248,-0.02167,-0.04898,-0.01465,-0.02426,-0.01083,0.12131,-0.03494,-0.01984,0.02747,-0.03555
7.0745,-0.00366,-0.04349,-0.047,-0.02701,-0.04257,-0.07172,-0.01526,-0.05234,-0.01617,-0.02518,-0.01205,0.0705,-0.03677,-0.02228,0.02747,-0.03464
7.075,0.00015,-0.04684,-0.04303,-0.04654,-0.12848,-0.07019,-0.00778,-0.05066,-0.01831,-0.02579,-0.01389,0.00702,-0.03586,-0.02396,0.02808,-0.03311
7.0755,0.00458,-0.04822,-0.04333,-0.06577,-0.20279,-0.06927,-0.00443,-0.04761,-0.01846,-0.02579,-0.01541,-0.03082,-0.03433,-0.02243,0.02655,-0.03128
7.076,0.00641,-0.04883,-0.04272,-0.07782,-0.224,-0.06516,-0.00443,-0.04028,-0.0177,-0.02594,-0.01526,-0.0322,-0.03418,-0.02136,0.02518,-0.03052
7.0765,0.0058,-0.04929,-0.04562,-0.07431,-0.18219,-0.0592,-0.00671,-0.02487,-0.01709,-0.02472,-0.01465,-0.01282,-0.0351,-0.0206,0.02396,-0.03265
7.077,0.00534,-0.05096,-0.05051,-0.05707,-0.11536,-0.05676,-0.00549,0.0032,-0.01648,-0.02304,-0.01465,0.00824,-0.03738,-0.02151,0.02182,-0.03387
7.0775,0.00656,-0.05386,-0.0563,-0.03891,-0.07126,-0.05844,-0.00427,0.03937,-0.01633,-0.02335,-0.01602,0.0209,-0.03754,-0.02228,0.02075,-0.03632
7.078,0.00641,-0.05493,-0.06027,-0.02899,-0.05722,-0.06073,-0.00397,0.06546,-0.01663,-0.02396,-0.01602,0.03342,-0.03632,-0.0235,0.0206,-0.03677
7.0785,0.00412,-0.05402,-0.06241,-0.02884,-0.05692,-0.06073,-0.00549,0.06195,-0.01617,-0.02426,-0.01526,0.05325,-0.03464,-0.02365,0.02121,-0.03738
7.079,-0.00229,-0.05157,-0.06027,-0.02731,-0.04944,-0.0618,-0.0087,0.03143,-0.01572,-0.02396,-0.01358,0.07416,-0.03281,-0.02289,0.02213,-0.03845
7.0795,-0.01297,-0.04913,-0.05615,-0.01907,-0.03616,-0.06195,-0.01205,-0.00641,-0.01526,-0.02274,-0.01144,0.07446,-0.03174,-0.02182,0.02182,-0.03922
7.08,-0.0264,-0.04578,-0.04913,-0.00717,-0.03082,-0.06088,-0.01328,-0.02991,-0.01648,-0.02197,-0.01038,0.04913,-0.03235,-0.01984,0.02274,-0.03799
7.0805,-0.03662,-0.04318,-0.04257,0.0,-0.03067,-0.06042,-0.01556,-0.02319,-0.01694,-0.02228,-0.01083,0.02991,-0.03372,-0.01892,0.02151,-0.03632
7.081,-0.04059,-0.04333,-0.03998,-0.0029,-0.03143,-0.06363,-0.01923,0.01694,-0.01755,-0.02258,-0.01129,0.04349,-0.03372,-0.01923,0.02136,-0.0351
7.0815,-0.03891,-0.04837,-0.04196,-0.0119,-0.03296,-0.0708,-0.02533,0.07156,-0.01709,-0.02243,-0.00977,0.07599,-0.03189,-0.02014,0.02182,-0.03281
7.082,-0.03235,-0.0531,-0.04425,-0.01846,-0.0325,-0.07568,-0.03067,0.09949,-0.01617,-0.02197,-0.00763,0.09811,-0.03143,-0.02167,0.02213,-0.03189
7.0825,-0.02014,-0.05508,-0.04349,-0.01984,-0.03006,-0.07935,-0.03387,0.07431,-0.01633,-0.02121,-0.00885,0.10666,-0.03311,-0.02258,0.02197,-0.03326
7.083,0.00229,-0.05219,-0.04013,-0.01831,-0.02594,-0.08011,-0.03326,0.01862,-0.01663,-0.02243,-0.01053,0.10391,-0.0351,-0.02396,0.02213,-0.03616
7.0835,0.03296,-0.04852,-0.03891,-0.01602,-0.02228,-0.0769,-0.02838,-0.0238,-0.01724,-0.02396,-0.01221,0.07904,-0.03555,-0.02426,0.02197,-0.03937
7.084,0.056,-0.04532,-0.04105,-0.01389,-0.02121,-0.07339,-0.02243,-0.03479,-0.01602,-0.02502,-0.01205,0.02609,-0.03586,-0.02426,0.01923,-0.04013
7.0845,0.05554,-0.04242,-0.04272,-0.00885,-0.02045,-0.07034,-0.01938,-0.02991,-0.01602,-0.02502,-0.01205,-0.0354,-0.03601,-0.0235,0.01633,-0.03983
7.085,0.03357,-0.03983,-0.0415,-0.00168,-0.02121,-0.06653,-0.01877,-0.0267,-0.01587,-0.02411,-0.01144,-0.07004,-0.03891,-0.02213,0.01343,-0.03998
7.0855,0.00793,-0.0383,-0.03845,0.00519,-0.02228,-0.06516,-0.01923,-0.02594,-0.01556,-0.02319,-0.0119,-0.06683,-0.04181,-0.02197,0.0148,-0.0415
7.086,-0.00381,-0.03906,-0.03784,0.00671,-0.02213,-0.06683,-0.01724,-0.0238,-0.01465,-0.02182,-0.0119,-0.04059,-0.04333,-0.02213,0.01785,-0.04318
7.0865,-0.00214,-0.04135,-0.04044,0.00504,-0.02304,-0.06943,-0.01648,-0.01877,-0.01343,-0.02182,-0.01221,-0.01419,-0.04318,-0.02243,0.01663,-0.04639
7.087,0.0029,-0.04318,-0.04044,0.00153,-0.02106,-0.06989,-0.01465,-0.01404,-0.01343,-0.02197,-0.01129,0.00275,-0.04272,-0.02197,0.0145,-0.04776
7.0875,0.00275,-0.04761,-0.03998,-0.00336,-0.01968,-0.06653,-0.01541,-0.00839,-0.01328,-0.02167,-0.00961,0.01831,-0.04333,-0.02228,0.01358,-0.04837
7.088,-0.00198,-0.0528,-0.04379,-0.00717,-0.02243,-0.0618,-0.01572,-0.00519,-0.01373,-0.02182,-0.00977,0.03021,-0.04425,-0.02197,0.01434,-0.04776
7.0885,-0.01068,-0.05692,-0.04791,-0.00687,-0.02258,-0.06104,-0.0174,-0.00427,-0.0145,-0.02045,-0.01083,0.02899,-0.04333,-0.02136,0.01511,-0.04669
7.089,-0.01968,-0.05722,-0.05051,0.00137,-0.02289,-0.0647,-0.01709,-0.0061,-0.0148,-0.01907,-0.01251,0.01221,-0.04257,-0.02029,0.0145,-0.04471
7.0895,-0.02533,-0.05478,-0.04913,0.0119,-0.01984,-0.06714,-0.01541,-0.00732,-0.01404,-0.01816,-0.01236,-0.00534,-0.04211,-0.01999,0.0119,-0.04364
7.09,-0.0264,-0.05234,-0.047,0.01587,-0.01785,-0.06546,-0.01328,-0.00519,-0.01266,-0.01862,-0.01114,-0.01907,-0.04181,-0.02106,0.01114,-0.04623
7.0905,-0.02625,-0.0502,-0.04349,0.00931,-0.01999,-0.06516,-0.01282,-0.00046,-0.01282,-0.01907,-0.01068,-0.03235,-0.04196,-0.02197,0.01007,-0.04944
7.091,-0.02716,-0.047,-0.03906,-0.0029,-0.02228,-0.06653,-0.01175,0.00244,-0.01373,-0.01846,-0.01144,-0.04654,-0.04181,-0.02121,0.00931,-0.0499
7.0915,-0.0296,-0.04318,-0.03098,-0.01236,-0.02441,-0.06699,-0.01129,0.00366,-0.01465,-0.01617,-0.01038,-0.05768,-0.04135,-0.01907,0.00961,-0.04974
7.092,-0.03494,-0.04074,-0.02304,-0.01984,-0.02518,-0.06714,-0.01175,0.00397,-0.01572,-0.01617,-0.00839,-0.06195,-0.04105,-0.01877,0.01038,-0.04959
7.0925,-0.04379,-0.04211,-0.01755,-0.02838,-0.02319,-0.0679,-0.01205,0.00259,-0.01602,-0.01846,-0.00809,-0.05203,-0.03998,-0.01953,0.01144,-0.05081
7.093,-0.05127,-0.04379,-0.01389,-0.03601,-0.0177,-0.06714,-0.0116,-0.00061,-0.01678,-0.01999,-0.00885,-0.02426,-0.03983,-0.0206,0.01099,-0.05035
7.0935,-0.05051,-0.04211,-0.01114,-0.03815,-0.01099,-0.06439,-0.00793,-0.00473,-0.01709,-0.02045,-0.01099,0.01831,-0.03952,-0.02151,0.01053,-0.04898
7.094,-0.03937,-0.03876,-0.00702,-0.02777,-0.0032,-0.06165,-0.00336,-0.00549,-0.01709,-0.01984,-0.01007,0.06302,-0.03967,-0.02258,0.00839,-0.04913
7.0945,-0.02197,-0.03708,-0.00427,-0.01358,0.00259,-0.06119,-0.00076,-0.00656,-0.01694,-0.02182,-0.00885,0.09033,-0.04013,-0.02228,0.00748,-0.05112
7.095,-0.00244,-0.0383,-0.00397,-0.00916,0.00656,-0.0618,-0.00076,-0.00946,-0.01633,-0.02396,-0.00916,0.08698,-0.03937,-0.02182,0.00824,-0.05356
7.0955,0.02014,-0.04028,-0.00992,-0.02106,0.00702,-0.06363,-0.00488,-0.01266,-0.01602,-0.02426,-0.0119,0.06256,-0.03754,-0.01999,0.00809,-0.05585
7.096,0.04166,-0.04105,-0.02014,-0.03738,0.00565,-0.06653,-0.0116,-0.01022,-0.01831,-0.02304,-0.01389,0.03189,-0.03662,-0.01907,0.00717,-0.05539
7.0965,0.05219,-0.04227,-0.02899,-0.04395,-0.00259,-0.0676,-0.01801,-0.00198,-0.02106,-0.02258,-0.01572,0.0029,-0.03738,-0.01953,0.00412,-0.05386
7.097,0.04379,-0.04303,-0.0322,-0.0383,-0.01343,-0.06729,-0.02045,0.00885,-0.02304,-0.02487,-0.01801,-0.01892,-0.03815,-0.02045,0.00244,-0.0528
7.0975,0.02457,-0.04349,-0.03036,-0.02808,-0.0325,-0.06668,-0.01511,0.02029,-0.02106,-0.02792,-0.01816,-0.0354,-0.03952,-0.02258,0.0032,-0.05219
7.098,0.01129,-0.04364,-0.02686,-0.02151,-0.05478,-0.06744,-0.00504,0.02884,-0.01892,-0.02899,-0.01755,-0.05127,-0.04013,-0.02213,0.00443,-0.05356
7.0985,0.00854,-0.04318,-0.02487,-0.0206,-0.07431,-0.06744,0.00519,0.02655,-0.01816,-0.02808,-0.01678,-0.06958,-0.04059,-0.02014,0.00534,-0.05554
7.099,0.00961,-0.04166,-0.02655,-0.02502,-0.07614,-0.06561,0.00366,0.00259,-0.01801,-0.02792,-0.01541,-0.08133,-0.04181,-0.01801,0.00443,-0.05692
7.0995,0.00916,-0.03937,-0.03006,-0.03311,-0.06226,-0.06256,-0.01999,-0.03922,-0.01724,-0.02716,-0.01495,-0.06363,-0.04211,-0.01877,0.00351,-0.05676
7.1,0.00687,-0.03677,-0.03281,-0.04196,-0.04608,-0.06058,-0.06058,-0.08377,-0.01602,-0.02502,-0.01419,-0.01709,-0.04181,-0.02045,0.00427,-0.05417
7.1005,0.00351,-0.03601,-0.03265,-0.04608,-0.0354,-0.05905,-0.09064,-0.11383,-0.01694,-0.02289,-0.01312,0.02365,-0.04181,-0.02029,0.00443,-0.05157
7.101,0.00076,-0.03723,-0.03113,-0.04013,-0.03647,-0.05844,-0.08392,-0.12589,-0.01862,-0.02335,-0.01053,0.02487,-0.04227,-0.01831,0.00595,-0.05066
7.1015,-0.00168,-0.03937,-0.02945,-0.02701,-0.03479,-0.05905,-0.04349,-0.13,-0.01801,-0.02472,-0.01038,-0.00549,-0.04211,-0.01877,0.00626,-0.05112
7.102,-0.00275,-0.04196,-0.03021,-0.01175,-0.03403,-0.06104,-0.00122,-0.13229,-0.01602,-0.02411,-0.01221,-0.03021,-0.04135,-0.02029,0.00504,-0.05295
7.1025,-0.00275,-0.04318,-0.03052,0.00015,-0.03677,-0.06363,0.0206,-0.12436,-0.01434,-0.02274,-0.01572,-0.02747,-0.04135,-0.0206,0.0032,-0.05295
7.103,-0.00565,-0.04196,-0.03052,0.00656,-0.0441,-0.06592,0.01953,-0.0946,-0.01358,-0.02319,-0.01709,-0.00732,-0.04288,-0.0206,0.00336,-0.05447
7.1035,-0.01068,-0.04089,-0.03204,0.00778,-0.05142,-0.06729,0.00168,-0.03677,-0.01358,-0.02441,-0.01648,0.00992,-0.04364,-0.01968,0.0029,-0.05539
7.104,-0.01419,-0.04028,-0.03311,0.00397,-0.04745,-0.06775,-0.02014,0.03342,-0.01404,-0.02396,-0.01465,0.01785,-0.04364,-0.01953,0.00153,-0.05539
7.1045,-0.01465,-0.04059,-0.03464,-0.00214,-0.04074,-0.06607,-0.0264,0.0946,-0.0148,-0.02228,-0.01297,0.02075,-0.04242,-0.0206,0.00031,-0.05447
7.105,-0.01495,-0.04105,-0.03448,-0.00626,-0.03418,-0.06317,-0.00854,0.13077,-0.01541,-0.01938,-0.01266,0.02228,-0.04059,-0.02197,0.0,-0.05234
7.1055,-0.01709,-0.04135,-0.03479,-0.00504,-0.03174,-0.06042,0.0177,0.1326,-0.01648,-0.01923,-0.01297,0.02243,-0.03952,-0.02274,0.00229,-0.05234
7.106,-0.01831,-0.0412,-0.03494,-0.00015,-0.03021,-0.0589,0.02914,0.10742,-0.01755,-0.01999,-0.01373,0.02014,-0.03998,-0.02274,0.00519,-0.05371
7.1065,-0.01572,-0.04196,-0.03387,0.00336,-0.02243,-0.05997,0.02197,0.07233,-0.01694,-0.01999,-0.01358,0.01678,-0.0412,-0.02151,0.0058,-0.05371
7.107,-0.01099,-0.04242,-0.03159,0.00427,-0.01755,-0.05844,0.01816,0.04654,-0.01724,-0.0209,-0.01297,0.01083,-0.04211,-0.01907,0.00473,-0.0528
7.1075,-0.00763,-0.04272,-0.0293,0.00229,-0.00519,-0.05798,0.03128,0.0351,-0.01831,-0.02136,-0.01419,-0.00229,-0.04196,-0.01816,0.00412,-0.05112
7.108,-0.00626,-0.04166,-0.02975,0.00046,0.00244,-0.05707,0.05051,0.0325,-0.01816,-0.02167,-0.01602,-0.02625,-0.0412,-0.01938,0.00519,-0.05157
7.1085,-0.00504,-0.04028,-0.03342,0.00015,-0.00351,-0.05539,0.05646,0.03098,-0.01694,-0.02228,-0.01724,-0.05096,-0.04013,-0.02228,0.00549,-0.0531
7.109,-0.00397,-0.03952,-0.03479,0.00076,-0.03021,-0.05524,0.03815,0.02838,-0.01587,-0.02304,-0.01846,-0.06012,-0.03876,-0.02228,0.00412,-0.05417
7.1095,-0.00351,-0.03998,-0.03387,0.00168,-0.06241,-0.05676,0.00183,0.0238,-0.01572,-0.02335,-0.01816,-0.05127,-0.03708,-0.01831,0.00107,-0.05478
7.11,-0.00183,-0.04105,-0.03296,0.00565,-0.07797,-0.05661,-0.02792,0.02045,-0.01556,-0.0235,-0.01633,-0.03326,-0.03479,-0.01541,-0.00031,-0.05447
7.1105,0.00153,-0.0412,-0.03342,0.01343,-0.06683,-0.05417,-0.03601,0.02258,-0.0145,-0.02457,-0.01572,-0.01404,-0.03494,-0.0148,-0.00198,-0.05447
7.111,0.00381,-0.04318,-0.03311,0.0206,-0.05325,-0.05341,-0.0351,0.03036,-0.01389,-0.02396,-0.01495,0.00641,-0.03403,-0.01663,-0.00214,-0.05447
7.1115,0.00336,-0.04562,-0.0322,0.02121,-0.03998,-0.05737,-0.05905,0.03662,-0.01465,-0.02167,-0.01511,0.02838,-0.03174,-0.01663,-0.00092,-0.05325
7.112,0.00259,-0.04822,-0.03235,0.01617,-0.0351,-0.06027,-0.10483,0.03372,-0.01511,-0.01999,-0.01373,0.05203,-0.02823,-0.01572,0.00153,-0.05264
7.1125,0.00168,-0.04822,-0.03342,0.0119,-0.02762,-0.05875,-0.12054,0.0209,-0.0148,-0.02075,-0.01404,0.07477,-0.02655,-0.01419,0.00107,-0.0531
7.113,0.00076,-0.04715,-0.03448,0.00763,-0.01984,-0.05508,-0.07538,0.00626,-0.01495,-0.02197,-0.01526,0.08087,-0.02655,-0.01434,0.00122,-0.05402
7.1135,-0.00015,-0.04578,-0.0354,-0.00259,-0.01465,-0.05127,-0.01511,-0.00534,-0.01556,-0.02274,-0.01694,0.05219,-0.02716,-0.01602,0.00198,-0.05341
7.114,-0.00107,-0.04562,-0.03494,-0.02136,-0.01175,-0.05234,-0.00198,-0.0119,-0.01678,-0.02213,-0.01633,-0.01404,-0.02808,-0.01785,0.0032,-0.05112
7.1145,-0.00107,-0.04532,-0.03387,-0.03937,-0.01465,-0.05569,-0.02991,-0.01282,-0.01801,-0.02151,-0.01495,-0.09048,-0.02991,-0.01831,0.00351,-0.04822
7.115,-0.00107,-0.04471,-0.03403,-0.04608,-0.02045,-0.05829,-0.04456,-0.00977,-0.01801,-0.02029,-0.01465,-0.13748,-0.03098,-0.01617,0.00092,-0.04684
7.1155,-0.00214,-0.04517,-0.03586,-0.04364,-0.03265,-0.05814,-0.03021,-0.00427,-0.01648,-0.02045,-0.01526,-0.11871,-0.03143,-0.0148,0.00046,-0.04654
7.116,-0.00412,-0.04669,-0.03952,-0.04089,-0.05402,-0.0563,-0.01221,0.00015,-0.01617,-0.02014,-0.01541,-0.02319,-0.03204,-0.01526,0.00031,-0.04776
7.1165,-0.00671,-0.0473,-0.0412,-0.03922,-0.07156,-0.05447,-0.00961,0.00107,-0.01724,-0.0209,-0.01511,0.11246,-0.03387,-0.0174,0.00061,-0.04684
7.117,-0.01083,-0.0473,-0.03967,-0.03616,-0.0824,-0.05463,-0.00961,-0.00488,-0.01846,-0.02121,-0.01648,0.21454,-0.0354,-0.01877,0.00046,-0.04684
7.1175,-0.01465,-0.04669,-0.03967,-0.03174,-0.06958,-0.05615,-0.00046,-0.01755,-0.01816,-0.02121,-0.01785,0.23239,-0.03586,-0.01907,-0.00031,-0.04715
7.118,-0.01648,-0.04517,-0.04074,-0.03036,-0.04639,-0.05569,0.01038,-0.03174,-0.01648,-0.01968,-0.01892,0.1712,-0.03754,-0.01846,-0.00122,-0.04883
7.1185,-0.01556,-0.03906,-0.04211,-0.0322,-0.01907,-0.05142,0.01495,-0.04166,-0.01526,-0.01846,-0.01877,0.07401,-0.03799,-0.01831,-0.00092,-0.04807
7.119,-0.0148,-0.03036,-0.04272,-0.03326,-0.00137,-0.04807,0.01495,-0.0441,-0.01511,-0.01755,-0.01678,-0.01602,-0.03784,-0.01831,0.00107,-0.04532
7.1195,-0.0145,-0.02548,-0.04196,-0.03342,0.00763,-0.04852,0.01694,-0.04135,-0.01495,-0.01556,-0.01541,-0.07507,-0.03784,-0.01831,0.00092,-0.04333
7.12,-0.01297,-0.02762,-0.0415,-0.03189,0.01404,-0.05051,0.01984,-0.04532,-0.01511,-0.01434,-0.01526,-0.09552,-0.03922,-0.01831,0.00153,-0.04379
7.1205,-0.0087,-0.03342,-0.03876,-0.03098,0.02197,-0.05035,0.01999,-0.07065,-0.01404,-0.01373,-0.01617,-0.08377,-0.04135,-0.01709,-0.00107,-0.04791
7.121,-0.00504,-0.03616,-0.03723,-0.02914,0.03326,-0.04974,0.01846,-0.11963,-0.01312,-0.01419,-0.0174,-0.05585,-0.04349,-0.01663,-0.0029,-0.04959
7.1215,-0.00458,-0.03647,-0.03693,-0.02655,0.03738,-0.05096,0.01831,-0.1712,-0.01358,-0.01373,-0.01785,-0.0296,-0.04471,-0.01709,-0.00381,-0.05035
7.122,-0.00626,-0.03616,-0.03677,-0.02258,0.02579,-0.05249,0.02014,-0.20187,-0.01465,-0.01434,-0.01709,-0.01617,-0.04562,-0.0174,-0.0029,-0.04883
7.1225,-0.00809,-0.03494,-0.03616,-0.01602,-0.0058,-0.05417,0.01678,-0.21317,-0.01495,-0.01266,-0.01724,-0.01053,-0.04593,-0.01602,-0.00473,-0.04684
7.123,-0.009,-0.03235,-0.03342,-0.00488,-0.04257,-0.0528,0.00458,-0.22842,-0.01556,-0.0119,-0.01892,-0.00336,-0.04517,-0.01526,-0.00641,-0.04715
7.1235,-0.01022,-0.02792,-0.03082,0.00549,-0.06302,-0.04959,-0.01633,-0.25497,-0.01511,-0.01266,-0.01968,0.00504,-0.0441,-0.01648,-0.00854,-0.04929
7.124,-0.01083,-0.02121,-0.02975,0.00961,-0.05142,-0.04608,-0.03937,-0.24567,-0.01495,-0.01373,-0.01862,0.01038,-0.04318,-0.01816,-0.00793,-0.05005
7.1245,-0.00992,-0.01694,-0.03113,0.00809,-0.0296,-0.0444,-0.06012,-0.13657,-0.01541,-0.01343,-0.01709,0.01205,-0.04303,-0.01907,-0.00717,-0.04852
7.125,-0.00732,-0.01648,-0.03265,0.00458,-0.02045,-0.04562,-0.07401,0.06668,-0.01572,-0.01251,-0.01709,0.0116,-0.04196,-0.01846,-0.00565,-0.04715
7.1255,-0.0058,-0.0206,-0.03204,-0.00153,-0.02441,-0.04745,-0.08377,0.28336,-0.01617,-0.01236,-0.01907,0.0119,-0.04181,-0.01877,-0.00381,-0.04791
7.126,-0.00488,-0.02731,-0.03006,-0.01129,-0.02457,-0.04715,-0.09201,0.42572,-0.01755,-0.0148,-0.01999,0.01266,-0.04089,-0.02045,-0.00336,-0.04837
7.1265,-0.00305,-0.03296,-0.02853,-0.02151,-0.01648,-0.04623,-0.0975,0.45166,-0.01785,-0.01633,-0.01923,0.01541,-0.04028,-0.01999,-0.00381,-0.04868
7.127,-0.00061,-0.03693,-0.03021,-0.02716,-0.02411,-0.04456,-0.09415,0.36285,-0.01785,-0.01602,-0.01831,0.01709,-0.04089,-0.01892,-0.00488,-0.04807
7.1275,0.00031,-0.03891,-0.03204,-0.0264,-0.05783,-0.04257,-0.07935,0.20264,-0.01938,-0.01465,-0.01862,0.01556,-0.04089,-0.01801,-0.00381,-0.04623
7.128,-0.00198,-0.03906,-0.03372,-0.02426,-0.07004,-0.03967,-0.05966,0.04623,-0.01984,-0.01251,-0.01938,0.01129,-0.03906,-0.01877,-0.00107,-0.0444
7.1285,-0.00534,-0.03891,-0.03418,-0.02365,-0.03952,-0.03693,-0.04471,-0.04425,-0.01938,-0.01251,-0.0177,0.00854,-0.03799,-0.01938,0.00107,-0.04379
7.129,-0.00412,-0.04028,-0.03448,-0.02274,0.00336,-0.03754,-0.04272,-0.06195,-0.01801,-0.01343,-0.01556,0.01129,-0.03708,-0.02014,0.00214,-0.04532
7.1295,-0.00015,-0.04211,-0.03448,-0.0209,0.00732,-0.0386,-0.06256,-0.04059,-0.01556,-0.01328,-0.01389,0.01907,-0.03494,-0.01938,0.00305,-0.04547
7.13,0.00351,-0.04272,-0.03387,-0.01923,-0.03296,-0.03693,-0.08759,-0.01221,-0.0148,-0.01114,-0.0148,0.02594,-0.03281,-0.0174,0.0032,-0.04318
7.1305,0.00305,-0.0412,-0.03342,-0.01984,-0.08133,-0.03464,-0.08194,0.00854,-0.0148,-0.01099,-0.01541,0.01953,-0.03143,-0.0174,0.00412,-0.04028
7.131,0.00046,-0.03922,-0.03326,-0.01999,-0.10803,-0.03708,-0.02213,0.02014,-0.01541,-0.01022,-0.01709,-0.00183,-0.02991,-0.0177,0.00381,-0.03876
7.1315,-0.00061,-0.03952,-0.03357,-0.01678,-0.10498,-0.03983,0.06714,0.02563,-0.01633,-0.009,-0.01801,-0.02747,-0.02869,-0.01816,0.00397,-0.03769
7.132,-0.00275,-0.04227,-0.03342,-0.01404,-0.08423,-0.03967,0.12985,0.02975,-0.01694,-0.00702,-0.0177,-0.04059,-0.02777,-0.01755,0.0029,-0.03586
7.1325,-0.00687,-0.04425,-0.03326,-0.01266,-0.06332,-0.0383,0.13138,0.03052,-0.01678,-0.00687,-0.01541,-0.03357,-0.02869,-0.01709,0.00259,-0.03555
7.133,-0.00854,-0.04517,-0.03342,-0.01297,-0.04974,-0.03876,0.08194,0.01266,-0.01678,-0.00687,-0.01419,-0.0148,-0.0296,-0.0174,0.00443,-0.03677
7.1335,-0.00671,-0.04486,-0.03464,-0.01465,-0.04761,-0.04272,0.0206,-0.02151,-0.01724,-0.00793,-0.01541,0.00122,-0.02991,-0.01816,0.00458,-0.03876
7.134,-0.00488,-0.04517,-0.03571,-0.01556,-0.0618,-0.04776,-0.02029,-0.05234,-0.01755,-0.00763,-0.01724,0.00458,-0.03052,-0.01877,0.00351,-0.04044
7.1345,-0.00488,-0.04532,-0.03479,-0.01328,-0.08286,-0.05203,-0.03998,-0.0621,-0.01724,-0.00778,-0.01678,-0.00092,-0.03098,-0.01831,0.00092,-0.04105
7.135,-0.00656,-0.04547,-0.03265,-0.00549,-0.09232,-0.05447,-0.05173,-0.04761,-0.01602,-0.00763,-0.01419,0.00443,-0.02975,-0.0177,0.00061,-0.03937
7.1355,-0.00671,-0.04578,-0.03433,0.00519,-0.07614,-0.05569,-0.0592,-0.01083,-0.01541,-0.00717,-0.01251,0.0351,-0.02853,-0.01831,0.00061,-0.03738
7.136,-0.0058,-0.04593,-0.03677,0.01511,-0.04715,-0.05692,-0.05356,0.03738,-0.01556,-0.0058,-0.01205,0.07507,-0.02823,-0.01877,0.00015,-0.03754
7.1365,-0.00549,-0.04578,-0.03723,0.01755,-0.0267,-0.05814,-0.03632,0.07034,-0.01572,-0.00702,-0.0119,0.0946,-0.02884,-0.01892,0.0,-0.03967
7.137,-0.00565,-0.04608,-0.03433,0.01343,-0.01831,-0.0592,-0.01633,0.06882,-0.01663,-0.00854,-0.01175,0.08316,-0.02899,-0.01785,0.00031,-0.04181
7.1375,-0.00565,-0.04639,-0.03235,0.00824,-0.01923,-0.05936,0.00259,0.03876,-0.01724,-0.009,-0.01389,0.05447,-0.02808,-0.01602,0.00076,-0.04074
7.138,-0.00458,-0.04654,-0.03448,0.00336,-0.02975,-0.06042,0.0267,0.00458,-0.01663,-0.0087,-0.01633,0.02274,-0.02487,-0.01511,0.00107,-0.0386
7.1385,-0.00656,-0.04608,-0.03738,-0.00427,-0.03906,-0.06226,0.0531,-0.01587,-0.01556,-0.00763,-0.0174,-0.00641,-0.02258,-0.01572,0.00046,-0.0354
7.139,-0.00916,-0.04639,-0.0386,-0.01419,-0.03952,-0.06332,0.06439,-0.0206,-0.01465,-0.00793,-0.01419,-0.02792,-0.02228,-0.01602,-0.00107,-0.03418
7.1395,-0.00961,-0.04639,-0.03448,-0.02106,-0.03067,-0.06332,0.05432,-0.0145,-0.01434,-0.0087,-0.01205,-0.04089,-0.02365,-0.01572,-0.00015,-0.03464
7.14,-0.00702,-0.04593,-0.03021,-0.02045,-0.01953,-0.06241,0.03693,-0.00778,-0.01389,-0.00809,-0.01144,-0.04684,-0.02502,-0.01678,0.00198,-0.03448
7.1405,-0.00351,-0.04425,-0.0293,-0.01526,-0.02014,-0.0621,0.02411,-0.01892,-0.01465,-0.00595,-0.01282,-0.05035,-0.02518,-0.0174,0.00458,-0.03357
7.141,-0.00107,-0.04318,-0.03189,-0.01205,-0.03174,-0.06302,0.00977,-0.06058,-0.01526,-0.00519,-0.01373,-0.05463,-0.02625,-0.01801,0.00473,-0.0325
7.1415,0.00015,-0.04318,-0.03555,-0.01373,-0.04608,-0.06104,-0.0177,-0.12421,-0.01602,-0.00534,-0.0119,-0.05707,-0.02884,-0.01724,0.00443,-0.03372
7.142,0.00061,-0.04547,-0.03738,-0.01862,-0.04822,-0.0589,-0.0589,-0.17761,-0.01602,-0.00595,-0.01068,-0.04562,-0.03067,-0.01617,0.00305,-0.03662
7.1425,0.00137,-0.04608,-0.03952,-0.01846,-0.04135,-0.05722,-0.10376,-0.19394,-0.01511,-0.00778,-0.01053,-0.00885,-0.03204,-0.01633,0.00076,-0.03799
7.143,0.00153,-0.04517,-0.03815,-0.0116,-0.03128,-0.05661,-0.14221,-0.16983,-0.01617,-0.00931,-0.01144,0.03235,-0.03281,-0.0174,-0.00061,-0.03616
7.1435,0.0,-0.04395,-0.03616,-0.00183,-0.02548,-0.05569,-0.1683,-0.11642,-0.01633,-0.00885,-0.01343,0.03876,-0.03555,-0.01862,-0.00107,-0.03555
7.144,-0.0032,-0.04395,-0.03464,0.0058,-0.02548,-0.0531,-0.18173,-0.04547,-0.01633,-0.00946,-0.01572,0.00031,-0.03647,-0.01984,0.00092,-0.03616
7.1445,-0.00549,-0.04669,-0.03448,0.01175,-0.02411,-0.05127,-0.17868,0.03098,-0.01694,-0.00931,-0.01663,-0.04883,-0.03479,-0.01953,0.00214,-0.03891
7.145,-0.00595,-0.05249,-0.03525,0.01801,-0.01633,-0.04898,-0.1561,0.10193,-0.01831,-0.01038,-0.01633,-0.0737,-0.03296,-0.01938,0.0,-0.04074
7.1455,-0.00519,-0.0592,-0.03662,0.02502,-0.0058,-0.04654,-0.11383,0.15045,-0.01923,-0.0116,-0.01389,-0.06775,-0.03372,-0.01831,-0.00122,-0.04028
7.146,-0.00336,-0.06149,-0.04074,0.03113,0.0061,-0.0441,-0.04364,0.16541,-0.01785,-0.01236,-0.01297,-0.04166,-0.03601,-0.01755,-0.00061,-0.03876
7.1465,-0.00137,-0.05829,-0.04486,0.03387,0.01053,-0.04425,0.06027,0.14694,-0.01556,-0.01343,-0.01282,0.0,-0.03662,-0.0174,0.00198,-0.03799
7.147,0.0,-0.0528,-0.04761,0.03357,0.0061,-0.047,0.17136,0.11246,-0.0148,-0.01434,-0.01434,0.04562,-0.03555,-0.01801,0.00214,-0.03799
7.1475,-0.00153,-0.04807,-0.04654,0.02945,-0.00046,-0.05188,0.24887,0.08148,-0.01694,-0.01541,-0.01602,0.07004,-0.03448,-0.0177,0.00198,-0.03662
7.148,-0.00351,-0.04486,-0.04288,0.02319,-0.00061,-0.05264,0.28259,0.05814,-0.01907,-0.01572,-0.01587,0.05493,-0.03387,-0.0177,0.00137,-0.03738
7.1485,-0.00488,-0.04166,-0.03876,0.01541,-0.00854,-0.04807,0.28381,0.03098,-0.01938,-0.01587,-0.0148,0.0174,-0.03448,-0.01678,0.00092,-0.0383
7.149,-0.00595,-0.03891,-0.03662,0.00656,-0.02777,-0.04211,0.25299,-0.00916,-0.01785,-0.01617,-0.01404,-0.01038,-0.03403,-0.01572,0.00168,-0.03876
7.1495,-0.00656,-0.03586,-0.03571,-0.00153,-0.04929,-0.03983,0.18219,-0.04883,-0.01678,-0.01633,-0.01404,-0.02365,-0.03204,-0.01419,0.00336,-0.03677
7.15,-0.00595,-0.03189,-0.0354,-0.00641,-0.07126,-0.03998,0.08514,-0.05447,-0.01633,-0.01663,-0.01328,-0.04547,-0.03036,-0.01343,0.00565,-0.03433
7.1505,-0.00565,-0.02975,-0.03357,-0.009,-0.07187,-0.04105,-0.01129,-0.01801,-0.01678,-0.01526,-0.01282,-0.08041,-0.03052,-0.01404,0.00595,-0.03464
7.151,-0.00534,-0.02899,-0.03021,-0.01389,-0.04913,-0.0415,-0.07401,0.02701,-0.01724,-0.01495,-0.01312,-0.10071,-0.03174,-0.01541,0.00458,-0.03708
