time,RectFemL,VastusMedL,VastusLatL,TibAntL,HamMedL,HamLatL,GastroMedL,GastroLatL,RectFemR,VastusMedR,VastusLatR,TibAntR,HamMedR,HamLatR,GastroMedR,GastroLatR
3.75,0.06256,-0.04089,-0.10452,-0.29938,-0.03113,-0.04227,-0.01816,-0.0058,0.01541,-0.00504,0.03525,-0.01999,-0.02975,-0.00366,0.00488,-0.04013
3.7505,0.09232,-0.04578,0.05157,-0.33829,-0.0296,-0.04623,-0.01862,-0.0058,0.04807,-0.00198,0.04578,0.01434,-0.03006,-0.00534,0.00549,-0.03647
3.751,0.10666,-0.05524,0.18555,-0.18875,-0.0293,-0.04974,-0.0209,-0.00488,0.05951,0.00137,0.05249,0.06577,-0.03143,-0.009,0.00626,-0.03555
3.7515,0.10117,-0.0618,0.26428,-0.03754,-0.03052,-0.04944,-0.02258,-0.00397,0.04517,0.00061,0.05722,0.14404,-0.03235,-0.01205,0.00702,-0.03708
3.752,0.08194,-0.06073,0.28381,0.03098,-0.03128,-0.047,-0.0235,-0.00336,0.02487,-0.00473,0.05859,0.19669,-0.03174,-0.01221,0.00702,-0.03967
3.7525,0.06058,-0.05875,0.2536,0.03128,-0.03098,-0.04501,-0.02182,-0.00092,0.02106,-0.01343,0.05707,0.186,-0.03006,-0.01022,0.00656,-0.04089
3.753,0.04257,-0.06195,0.18585,-0.01984,-0.0325,-0.0444,-0.01633,0.00076,0.03357,-0.02304,0.05035,0.14404,-0.02975,-0.01038,0.0061,-0.0412
3.7535,0.0264,-0.06744,0.10727,-0.11856,-0.03296,-0.04272,-0.00961,0.00061,0.05051,-0.02548,0.0386,0.1178,-0.03067,-0.01602,0.00504,-0.04227
3.754,0.01175,-0.06943,0.04425,-0.25436,-0.0325,-0.04364,-0.00534,-0.00046,0.05753,-0.01984,0.02457,0.10452,-0.03159,-0.02502,0.00534,-0.04471
3.7545,-0.00183,-0.065,0.00534,-0.4097,-0.03174,-0.04715,-0.00534,-0.00198,0.04913,-0.01511,0.00809,0.07126,-0.03143,-0.03494,0.00656,-0.04501
3.755,-0.01266,-0.05783,-0.01526,-0.54398,-0.03387,-0.05142,-0.00748,-0.00046,0.04211,-0.01831,-0.00778,0.01175,-0.03235,-0.04242,0.00824,-0.04379
3.7555,-0.02014,-0.05203,-0.02991,-0.57999,-0.03677,-0.05142,-0.00977,0.00214,0.06699,-0.02914,-0.01328,-0.0473,-0.03418,-0.04822,0.00793,-0.04166
3.756,-0.02579,-0.04974,-0.04501,-0.4689,-0.03769,-0.04913,-0.01083,0.00336,0.12329,-0.03723,0.0,-0.08774,-0.03555,-0.05066,0.00687,-0.04059
3.7565,-0.02884,-0.0499,-0.06088,-0.26733,-0.0351,-0.04547,-0.01205,0.0029,0.16647,-0.03967,0.02426,-0.11749,-0.03555,-0.0473,0.00732,-0.03998
3.757,-0.02899,-0.05005,-0.07507,-0.10742,-0.0351,-0.04471,-0.01434,0.00168,0.16205,-0.03891,0.04196,-0.14679,-0.03372,-0.03891,0.00778,-0.04028
3.7575,-0.02625,-0.05295,-0.0882,-0.05508,-0.03571,-0.04562,-0.01602,0.00015,0.11597,-0.03769,0.04257,-0.16891,-0.03189,-0.02777,0.01038,-0.03906
3.758,-0.02365,-0.05875,-0.09964,-0.04227,-0.03632,-0.04868,-0.01648,-0.00153,0.0531,-0.0412,0.03006,-0.17639,-0.03265,-0.02075,0.01221,-0.03815
3.7585,-0.02258,-0.06378,-0.10635,0.05554,-0.03754,-0.05203,-0.01678,-0.00153,-0.0116,-0.05051,0.01205,-0.17349,-0.03418,-0.01999,0.01358,-0.03662
3.759,-0.02274,-0.06439,-0.10834,0.29404,-0.03922,-0.05432,-0.01541,0.00031,-0.07553,-0.0621,-0.01312,-0.16327,-0.03418,-0.02243,0.01328,-0.03571
3.7595,-0.02304,-0.06134,-0.1059,0.62408,-0.04028,-0.05676,-0.01389,0.00244,-0.13962,-0.06653,-0.04776,-0.14557,-0.03357,-0.02258,0.01343,-0.03677
3.76,-0.02319,-0.05554,-0.10223,0.92041,-0.03784,-0.05798,-0.01129,0.00305,-0.19806,-0.05966,-0.08209,-0.13565,-0.03418,-0.01862,0.01205,-0.03922
3.7605,-0.02228,-0.04745,-0.09735,1.01822,-0.03555,-0.05646,-0.01068,0.00229,-0.23438,-0.04532,-0.10406,-0.14755,-0.03601,-0.01541,0.01053,-0.0412
3.761,-0.01938,-0.0383,-0.09155,0.84488,-0.03448,-0.05249,-0.01038,0.00137,-0.23911,-0.0264,-0.1088,-0.14404,-0.03662,-0.01434,0.00946,-0.04135
3.7615,-0.01511,-0.03052,-0.08606,0.50262,-0.03586,-0.04715,-0.00854,0.00122,-0.2211,-0.00229,-0.09796,-0.06714,-0.03632,-0.01343,0.00839,-0.04135
3.762,-0.0116,-0.0264,-0.08392,0.18311,-0.03586,-0.04501,-0.00687,0.00168,-0.19928,0.02655,-0.07919,0.06882,-0.03723,-0.00839,0.00748,-0.03998
3.7625,-0.00809,-0.02289,-0.08148,-0.01465,-0.03281,-0.04639,-0.00687,0.00107,-0.18372,0.05508,-0.07095,0.16891,-0.0386,-0.00046,0.00671,-0.0383
3.763,-0.00519,-0.01938,-0.07462,-0.11459,-0.03067,-0.04578,-0.01083,-0.00031,-0.17365,0.07675,-0.0827,0.15701,-0.03937,0.00778,0.00702,-0.03632
3.7635,-0.00397,-0.01266,-0.06332,-0.16144,-0.02991,-0.04517,-0.01465,-0.00305,-0.16556,0.08667,-0.10452,0.06714,-0.0383,0.0177,0.00763,-0.03723
3.764,-0.00885,-0.00549,-0.07431,-0.17258,-0.03143,-0.04532,-0.01724,-0.00626,-0.15549,0.09125,-0.11322,0.00732,-0.03723,0.02869,0.00778,-0.03952
3.7645,-0.01816,-0.00122,-0.13428,-0.15579,-0.03433,-0.04745,-0.01953,-0.009,-0.13962,0.09262,-0.09796,0.03784,-0.03784,0.03738,0.00824,-0.04166
3.765,-0.02411,-0.00427,-0.21744,-0.11581,-0.03479,-0.05173,-0.02075,-0.01038,-0.11948,0.08881,-0.07172,0.11414,-0.03922,0.03845,0.00854,-0.04105
3.7655,-0.02487,-0.01862,-0.23987,-0.04074,-0.03357,-0.05539,-0.01938,-0.01083,-0.10223,0.07919,-0.04578,0.15594,-0.03845,0.03235,0.00809,-0.04074
3.766,-0.0235,-0.04166,-0.15717,0.04974,-0.03174,-0.05646,-0.01724,-0.0087,-0.09171,0.06241,-0.02457,0.12283,-0.03708,0.02106,0.00885,-0.04211
3.7665,-0.02319,-0.0679,-0.03113,0.09109,-0.03021,-0.05417,-0.01526,-0.0058,-0.08652,0.04166,-0.00443,0.01114,-0.03571,0.0058,0.00839,-0.04608
3.767,-0.02487,-0.08987,0.05463,0.05127,-0.02777,-0.0531,-0.01343,-0.00275,-0.08087,0.02182,0.01251,-0.1535,-0.03418,-0.01587,0.00824,-0.04654
3.7675,-0.02579,-0.10254,0.07599,-0.02045,-0.0267,-0.05112,-0.01358,-0.00229,-0.06729,0.00351,0.02502,-0.30396,-0.03494,-0.04181,0.00732,-0.04486
3.768,-0.02518,-0.10452,0.06668,-0.07217,-0.02609,-0.04807,-0.01495,-0.00427,-0.04089,-0.01358,0.03387,-0.35919,-0.03632,-0.06912,0.00641,-0.04303
3.7685,-0.02304,-0.0972,0.05539,-0.11398,-0.02579,-0.04593,-0.01602,-0.00595,-0.00244,-0.02655,0.03952,-0.28259,-0.03571,-0.09689,0.00473,-0.04288
3.769,-0.01999,-0.08881,0.05096,-0.16357,-0.02502,-0.04608,-0.01389,-0.00641,0.0412,-0.0325,0.04486,-0.10834,-0.03372,-0.1207,0.00397,-0.04211
3.7695,-0.0177,-0.08469,0.05402,-0.20126,-0.02563,-0.04715,-0.01129,-0.0058,0.07675,-0.03128,0.04761,0.10406,-0.03235,-0.13397,0.00443,-0.04196
3.77,-0.01495,-0.08224,0.06348,-0.20462,-0.02655,-0.04562,-0.01068,-0.00565,0.09247,-0.02716,0.04211,0.30258,-0.03098,-0.12894,0.00671,-0.04379
3.7705,-0.01358,-0.07385,0.07217,-0.19424,-0.02777,-0.04379,-0.01205,-0.00488,0.08713,-0.02502,0.03098,0.42664,-0.03204,-0.10818,0.00854,-0.04593
3.771,-0.0145,-0.05615,0.07111,-0.21896,-0.02823,-0.04425,-0.01343,-0.00336,0.07553,-0.02213,0.01617,0.40817,-0.03281,-0.07996,0.01022,-0.04578
3.7715,-0.01617,-0.03479,0.05936,-0.2771,-0.02884,-0.0473,-0.0119,-0.00168,0.07324,-0.01602,0.00061,0.23804,-0.03265,-0.05157,0.01205,-0.0441
3.772,-0.01465,-0.01785,0.04028,-0.24994,-0.02975,-0.04837,-0.009,-0.00168,0.07614,-0.0116,-0.0087,0.01846,-0.03174,-0.02853,0.01251,-0.04303
3.7725,-0.01022,-0.01129,0.01572,-0.00839,-0.03067,-0.04837,-0.00702,-0.00259,0.06775,-0.00931,-0.00061,-0.12604,-0.03021,-0.01587,0.0116,-0.04089
3.773,-0.00824,-0.01007,-0.00809,0.39124,-0.03113,-0.05264,-0.00793,-0.00381,0.0383,-0.01114,0.02289,-0.17487,-0.0293,-0.01266,0.00977,-0.0383
3.7735,-0.02029,-0.00885,-0.02655,0.73318,-0.0296,-0.06012,-0.01251,-0.00473,-0.00076,-0.01465,0.03464,-0.1767,-0.0296,-0.01266,0.00839,-0.03723
3.774,-0.04929,-0.0061,-0.03723,0.8667,-0.02945,-0.06714,-0.01694,-0.00702,-0.03281,-0.01724,0.01633,-0.11276,-0.0293,-0.00961,0.00809,-0.03876
3.7745,-0.07813,-0.00702,-0.04242,0.79468,-0.03204,-0.0679,-0.01938,-0.01099,-0.05417,-0.02136,-0.01648,0.09842,-0.02777,-0.0061,0.00732,-0.04028
3.775,-0.07675,-0.01419,-0.03769,0.55923,-0.03464,-0.06271,-0.01846,-0.01465,-0.07034,-0.02396,-0.03494,0.41245,-0.02823,-0.00519,0.00626,-0.04242
3.7755,-0.03433,-0.02487,-0.02228,0.2005,-0.03494,-0.05844,-0.01801,-0.01465,-0.0885,-0.02762,-0.03143,0.60211,-0.02991,-0.00504,0.0029,-0.0441
3.776,0.02289,-0.03616,-0.00809,-0.14465,-0.03326,-0.05615,-0.01877,-0.0119,-0.10101,-0.03098,-0.0264,0.51193,-0.03128,-0.00504,0.00092,-0.04486
3.7765,0.0618,-0.04822,-0.00732,-0.31418,-0.03113,-0.05402,-0.01938,-0.01007,-0.08774,-0.03494,-0.03708,0.2742,-0.03143,-0.00595,0.00275,-0.04425
3.777,0.06943,-0.05859,-0.02213,-0.32822,-0.03036,-0.04959,-0.01831,-0.01007,-0.0415,-0.04181,-0.06149,0.13855,-0.03174,-0.00793,0.0061,-0.04425
3.7775,0.05875,-0.0621,-0.0444,-0.34653,-0.02991,-0.04547,-0.0177,-0.01038,0.01572,-0.05127,-0.07843,0.15366,-0.03281,-0.01053,0.0058,-0.0441
3.778,0.04456,-0.05707,-0.0647,-0.45258,-0.0293,-0.04684,-0.0174,-0.01022,0.05875,-0.06409,-0.07538,0.16556,-0.03372,-0.0119,0.00458,-0.04333
3.7785,0.03189,-0.04318,-0.08163,-0.62592,-0.03006,-0.04929,-0.01816,-0.00946,0.07904,-0.08102,-0.05646,0.06927,-0.0351,-0.01465,0.0058,-0.0412
3.779,0.02182,-0.02625,-0.09354,-0.86823,-0.02899,-0.0502,-0.01831,-0.00748,0.08545,-0.10101,-0.03418,-0.05493,-0.03723,-0.01709,0.00854,-0.03952
3.7795,0.01617,-0.01312,-0.09735,-1.19431,-0.02823,-0.05096,-0.01846,-0.00397,0.08209,-0.11993,-0.01282,-0.08408,-0.0383,-0.01953,0.009,-0.04013
3.78,0.01328,-0.00916,-0.09232,-1.5451,-0.02701,-0.05051,-0.0174,-0.00259,0.06714,-0.13611,0.00885,-0.0322,-0.03876,-0.01953,0.00778,-0.04166
3.7805,0.00763,-0.01572,-0.08286,-1.79047,-0.0267,-0.04898,-0.01633,-0.00381,0.04623,-0.14404,0.03204,-0.01877,-0.03922,-0.01846,0.00717,-0.04486
3.781,-0.00412,-0.02518,-0.07584,-1.7485,-0.02579,-0.04776,-0.01572,-0.00702,0.03403,-0.14465,0.05081,-0.09613,-0.03906,-0.01862,0.00641,-0.04578
3.7815,-0.01663,-0.03067,-0.06958,-1.25732,-0.02686,-0.04776,-0.01678,-0.00931,0.03632,-0.13626,0.06012,-0.20508,-0.03937,-0.02106,0.00748,-0.04379
3.782,-0.02243,-0.03189,-0.06271,-0.37949,-0.02808,-0.04944,-0.01862,-0.01038,0.04639,-0.12039,0.06134,-0.28152,-0.03937,-0.02289,0.00702,-0.04135
3.7825,-0.02014,-0.03555,-0.05569,0.50751,-0.03265,-0.04944,-0.01816,-0.01068,0.05219,-0.0943,0.0563,-0.32562,-0.03769,-0.02121,0.00916,-0.03998
3.783,-0.01434,-0.04517,-0.05112,1.01318,-0.03265,-0.04761,-0.01617,-0.01007,0.04883,-0.06165,0.04837,-0.32608,-0.03555,-0.01602,0.01083,-0.04028
3.7835,-0.00961,-0.05783,-0.04898,1.09604,-0.03204,-0.0473,-0.01266,-0.009,0.0383,-0.02579,0.03952,-0.23743,-0.03464,-0.01251,0.01099,-0.04044
3.784,-0.0061,-0.07019,-0.04883,0.9993,-0.02869,-0.04929,-0.01129,-0.00778,0.02319,0.01099,0.02914,-0.09186,-0.03433,-0.01114,0.00763,-0.0415
3.7845,-0.0029,-0.07797,-0.04639,0.90759,-0.02686,-0.05051,-0.01175,-0.00671,0.00671,0.04929,0.01633,-0.01343,-0.03464,-0.01205,0.00504,-0.04395
3.785,0.00046,-0.08148,-0.04395,0.78995,-0.02701,-0.04944,-0.01358,-0.00717,-0.00793,0.0827,-0.00015,-0.04593,-0.03555,-0.01297,0.00275,-0.04623
3.7855,0.00427,-0.0824,-0.04318,0.60654,-0.02899,-0.04929,-0.01419,-0.00717,-0.01587,0.10315,-0.01785,-0.0946,-0.0354,-0.01236,0.00168,-0.0473
3.786,0.01038,-0.08392,-0.04303,0.43869,-0.03159,-0.05081,-0.01358,-0.00626,-0.01389,0.10101,-0.03281,-0.09796,-0.03418,-0.0119,0.00183,-0.04807
3.7865,0.0148,-0.08621,-0.04807,0.38223,-0.03082,-0.05325,-0.01495,-0.00641,-0.00061,0.08011,-0.04623,-0.09903,-0.03174,-0.01038,0.00107,-0.04776
3.787,0.01617,-0.08591,-0.07187,0.42725,-0.03021,-0.05478,-0.01755,-0.00641,0.02029,0.05646,-0.05905,-0.12177,-0.03006,-0.00839,0.00137,-0.0473
3.7875,0.01312,-0.08011,-0.13351,0.49957,-0.03128,-0.05325,-0.01923,-0.0061,0.03616,0.04517,-0.06973,-0.11505,-0.02899,-0.00839,0.00259,-0.04745
3.788,0.00854,-0.07355,-0.20935,0.53635,-0.03326,-0.0528,-0.01785,-0.00351,0.03693,0.04639,-0.07568,-0.05859,-0.02945,-0.01175,0.00458,-0.04852
3.7885,0.0032,-0.06989,-0.22751,0.49438,-0.03159,-0.05249,-0.01465,-0.00046,0.0267,0.05188,-0.07599,0.01556,-0.03082,-0.01572,0.0061,-0.0473
3.789,-0.00092,-0.06439,-0.14328,0.3624,-0.02747,-0.05219,-0.01358,0.00137,0.01221,0.04868,-0.06714,0.10254,-0.03296,-0.01709,0.00732,-0.04471
3.7895,-0.00534,-0.05157,-0.01221,0.18066,-0.02609,-0.05005,-0.01434,0.00229,-0.00961,0.03983,-0.04333,0.19821,-0.03464,-0.01282,0.00946,-0.0415
3.79,-0.00412,-0.03708,0.07797,0.00412,-0.03052,-0.04684,-0.01373,0.0029,-0.04333,0.02441,-0.01129,0.23453,-0.03571,-0.0032,0.01144,-0.03983
3.7905,0.00305,-0.02701,0.10452,-0.16083,-0.03906,-0.04593,-0.01282,0.00336,-0.08408,0.00259,0.01465,0.15747,-0.03815,0.00549,0.01251,-0.03799
3.791,0.01312,-0.01877,0.09583,-0.35065,-0.04776,-0.04639,-0.01144,0.00351,-0.11826,-0.01999,0.02686,0.02441,-0.0386,0.00824,0.01389,-0.03586
3.7915,0.01999,-0.0061,0.07233,-0.52322,-0.05478,-0.04822,-0.00992,0.00443,-0.1297,-0.03326,0.02899,-0.0737,-0.03738,0.00702,0.01556,-0.03403
3.792,0.01694,0.00916,0.03708,-0.50369,-0.06012,-0.05051,-0.00854,0.00443,-0.11322,-0.03616,0.02548,-0.11642,-0.03586,0.00381,0.01755,-0.03387
3.7925,0.00443,0.02075,-0.00046,-0.17227,-0.05951,-0.04929,-0.00793,0.00381,-0.07416,-0.03601,0.01846,-0.10864,-0.03616,-0.00107,0.01633,-0.03403
3.793,-0.01419,0.02396,-0.0174,0.29221,-0.05508,-0.04608,-0.00702,0.0029,-0.03021,-0.04135,0.00885,-0.04654,-0.03693,-0.00824,0.0145,-0.03387
3.7935,-0.03098,0.01923,-0.01236,0.52765,-0.04929,-0.04211,-0.00946,0.00168,0.00046,-0.05081,-0.01129,0.0087,-0.03799,-0.01587,0.01404,-0.03433
3.794,-0.03876,0.0087,-0.00137,0.39337,-0.04654,-0.03845,-0.01251,0.00046,0.01907,-0.05417,-0.04288,-0.05905,-0.03906,-0.02258,0.01389,-0.03769
3.7945,-0.03967,-0.00275,-0.00504,0.10162,-0.04517,-0.03754,-0.0145,-0.00092,0.04105,-0.05432,-0.07446,-0.23361,-0.04013,-0.02762,0.01343,-0.04242
3.795,-0.04013,-0.00992,-0.02441,-0.05661,-0.03967,-0.03815,-0.01312,-0.00259,0.06317,-0.05951,-0.08041,-0.32532,-0.0383,-0.03128,0.01022,-0.04562
3.7955,-0.04364,-0.01465,-0.05539,0.01678,-0.03036,-0.03677,-0.01266,-0.0029,0.06287,-0.07599,-0.05493,-0.20493,-0.03799,-0.03433,0.00916,-0.04578
3.796,-0.04684,-0.02396,-0.08347,0.23026,-0.01663,-0.03418,-0.01465,-0.00427,0.02563,-0.09186,-0.01816,0.03662,-0.03769,-0.03937,0.00778,-0.0444
3.7965,-0.04578,-0.03937,-0.10437,0.4097,-0.00412,-0.0322,-0.01678,-0.00565,-0.0267,-0.09537,0.00854,0.21866,-0.03723,-0.04471,0.00702,-0.04425
3.797,-0.04028,-0.05402,-0.12024,0.39703,-0.00031,-0.03143,-0.01678,-0.00763,-0.06607,-0.09216,0.02045,0.25192,-0.03571,-0.04456,0.00458,-0.0473
3.7975,-0.03845,-0.06256,-0.13763,0.12543,-0.009,-0.0296,-0.0148,-0.00916,-0.08392,-0.08652,0.02686,0.15091,-0.03387,-0.03876,0.00153,-0.05051
3.798,-0.04364,-0.0676,-0.14801,-0.3215,-0.02289,-0.02716,-0.01251,-0.00839,-0.08987,-0.07614,0.03403,0.00839,-0.03281,-0.03204,0.00122,-0.05219
3.7985,-0.05478,-0.07599,-0.14145,-0.74051,-0.03128,-0.02701,-0.01114,-0.00656,-0.08865,-0.05432,0.04532,-0.05585,-0.0322,-0.02899,0.00412,-0.04868
3.799,-0.06592,-0.08987,-0.10956,-0.92239,-0.02884,-0.02914,-0.01099,-0.00381,-0.0798,-0.02655,0.05829,-0.01465,-0.03189,-0.02716,0.00687,-0.04196
3.7995,-0.07187,-0.09689,-0.05615,-0.75668,-0.02197,-0.0296,-0.01007,0.00031,-0.06653,0.00031,0.07034,0.03494,-0.03036,-0.02258,0.00885,-0.03723
3.8,-0.07385,-0.08911,0.00717,-0.29633,-0.01663,-0.02731,-0.00763,0.00549,-0.05554,0.01923,0.07797,0.02914,-0.02853,-0.01678,0.00793,-0.03769
3.8005,-0.0737,-0.0705,0.0647,0.23773,-0.01495,-0.02548,-0.0061,0.00885,-0.0531,0.02518,0.07858,0.01984,-0.02899,-0.0119,0.00641,-0.04089
3.801,-0.06805,-0.05447,0.10468,0.54306,-0.0148,-0.02716,-0.00702,0.00626,-0.06561,0.02121,0.07095,0.05203,-0.03159,-0.0087,0.00488,-0.04288
3.8015,-0.05005,-0.04929,0.12527,0.42374,-0.01877,-0.03052,-0.01022,0.00015,-0.08942,0.01068,0.05219,0.07889,-0.03403,-0.00519,0.00565,-0.04105
3.802,-0.0174,-0.04883,0.12207,-0.02899,-0.02197,-0.03311,-0.01312,-0.00534,-0.10712,-0.00107,0.02304,0.05661,-0.03342,-0.0032,0.00656,-0.03769
3.8025,0.02304,-0.04745,0.09445,-0.44739,-0.02441,-0.0354,-0.01572,-0.00763,-0.10269,-0.01221,-0.01022,0.01282,-0.03143,-0.00427,0.00595,-0.03799
3.803,0.06012,-0.0415,0.04517,-0.52734,-0.0235,-0.03632,-0.01755,-0.00732,-0.07919,-0.02045,-0.03586,-0.0145,-0.03098,-0.00595,0.00427,-0.04288
3.8035,0.08163,-0.03342,-0.01282,-0.29739,-0.02319,-0.03632,-0.01633,-0.0058,-0.05478,-0.02335,-0.04684,-0.01205,-0.03082,-0.00702,0.00275,-0.04929
3.804,0.08591,-0.02777,-0.06607,-0.01144,-0.02441,-0.03876,-0.01495,-0.00351,-0.03876,-0.02701,-0.04852,0.04105,-0.03174,-0.00671,0.00366,-0.0502
3.8045,0.08179,-0.02686,-0.10818,0.14755,-0.02686,-0.03845,-0.01465,-0.00214,-0.02579,-0.03113,-0.04593,0.14847,-0.03235,-0.00702,0.00412,-0.04715
3.805,0.07767,-0.0325,-0.13901,0.16174,-0.03006,-0.03677,-0.01556,-0.00198,-0.00595,-0.03769,-0.04318,0.25284,-0.03281,-0.01083,0.00671,-0.04257
3.8055,0.07721,-0.03906,-0.15305,0.08865,-0.03433,-0.03647,-0.01572,-0.00412,0.0177,-0.04395,-0.04013,0.27206,-0.03235,-0.01755,0.0058,-0.04044
3.806,0.07095,-0.03769,-0.13901,0.00488,-0.03799,-0.03998,-0.01724,-0.00778,0.0354,-0.05051,-0.03708,0.19455,-0.03159,-0.02365,0.00656,-0.04135
3.8065,0.05173,-0.02731,-0.09537,-0.03128,-0.0386,-0.04547,-0.02029,-0.01083,0.04486,-0.05554,-0.03403,0.10315,-0.03067,-0.02823,0.009,-0.04196
3.807,0.02487,-0.01831,-0.04196,-0.07721,-0.03632,-0.04608,-0.02228,-0.0116,0.04959,-0.05569,-0.03647,0.07614,-0.0293,-0.0296,0.01251,-0.04318
3.8075,0.00565,-0.01831,0.00229,-0.28381,-0.03326,-0.04379,-0.02167,-0.01114,0.05569,-0.05127,-0.04211,0.09033,-0.02747,-0.02914,0.0148,-0.04333
3.808,-0.00137,-0.02335,0.02731,-0.67032,-0.03128,-0.04257,-0.01984,-0.01038,0.06317,-0.04593,-0.03967,0.05737,-0.02731,-0.02762,0.01251,-0.04379
3.8085,-0.00488,-0.02487,0.03815,-0.98343,-0.02853,-0.04379,-0.01984,-0.00854,0.07187,-0.03876,-0.02884,-0.05234,-0.02747,-0.02625,0.00778,-0.04623
3.809,-0.01221,-0.02258,0.04013,-0.89706,-0.02716,-0.04593,-0.01862,-0.00488,0.08209,-0.03448,-0.02869,-0.18433,-0.02792,-0.02487,0.00397,-0.04791
3.8095,-0.01801,-0.02258,0.03876,-0.34912,-0.02731,-0.04517,-0.0145,-0.00244,0.09521,-0.03082,-0.05142,-0.25558,-0.02792,-0.02274,0.00397,-0.04486
3.81,-0.01572,-0.0267,0.03677,0.36026,-0.02853,-0.04379,-0.00946,-0.00183,0.11246,-0.02594,-0.08011,-0.19409,-0.02838,-0.02228,0.00763,-0.03754
3.8105,-0.00381,-0.02808,0.03128,0.82382,-0.02975,-0.04578,-0.00748,-0.00259,0.12558,-0.01846,-0.09018,-0.0061,-0.02716,-0.02487,0.00931,-0.03265
3.811,0.01328,-0.02396,0.02319,0.8493,-0.03326,-0.04929,-0.00946,-0.00046,0.13046,-0.00839,-0.0769,0.16602,-0.01831,-0.02701,0.009,-0.03296
3.8115,0.03204,-0.01877,0.009,0.53421,-0.03281,-0.05234,-0.01175,0.00229,0.12558,0.00015,-0.05295,0.1741,-0.00351,-0.02701,0.00717,-0.03799
3.812,0.0473,-0.02121,-0.00732,0.11688,-0.03433,-0.05447,-0.01297,0.00397,0.11475,0.00763,-0.02914,0.04272,0.00748,-0.02594,0.00595,-0.04257
3.8125,0.05234,-0.03082,-0.02426,-0.19577,-0.03601,-0.05539,-0.01343,0.00183,0.09644,0.01373,-0.00961,-0.08621,0.00717,-0.0267,0.00504,-0.04425
3.813,0.04654,-0.04089,-0.03754,-0.30548,-0.04196,-0.0563,-0.0148,0.00092,0.07309,0.02258,0.00473,-0.13809,-0.00092,-0.02853,0.00519,-0.04456
3.8135,0.03265,-0.04425,-0.04974,-0.2356,-0.05539,-0.05966,-0.01526,-0.00031,0.04562,0.02975,0.01099,-0.13275,-0.00885,-0.02853,0.00595,-0.04425
3.814,0.0177,-0.04196,-0.05844,-0.0914,-0.06882,-0.06134,-0.01678,-0.00229,0.01953,0.03098,0.0061,-0.09857,-0.01358,-0.02869,0.00473,-0.0441
3.8145,0.00931,-0.03784,-0.06485,0.0441,-0.07309,-0.06104,-0.01923,-0.00656,-0.01129,0.02777,-0.00412,-0.04913,-0.01938,-0.0264,0.00534,-0.04318
3.815,0.00854,-0.03479,-0.0676,0.14389,-0.06485,-0.05844,-0.02151,-0.00854,-0.05264,0.02411,-0.01038,-0.01495,-0.02563,-0.02289,0.0061,-0.04135
3.8155,0.00763,-0.03571,-0.06592,0.15335,-0.04944,-0.05722,-0.02045,-0.00702,-0.10361,0.02441,-0.01083,-0.02151,-0.03082,-0.01907,0.01038,-0.04166
3.816,0.00229,-0.04227,-0.0647,-0.01633,-0.03693,-0.05844,-0.01648,-0.00275,-0.13779,0.0238,-0.01862,-0.03891,-0.03586,-0.01877,0.0119,-0.04166
3.8165,-0.00351,-0.05188,-0.06454,-0.32852,-0.02899,-0.06088,-0.01297,-0.00031,-0.12329,0.01541,-0.04425,-0.01678,-0.0473,-0.0209,0.01129,-0.04135
3.817,-0.00244,-0.05646,-0.065,-0.55939,-0.02411,-0.06165,-0.01389,-0.00061,-0.06042,0.00061,-0.07339,0.04288,-0.07172,-0.02197,0.00992,-0.03998
3.8175,0.00015,-0.05371,-0.065,-0.45929,-0.02121,-0.06012,-0.01724,-0.00259,0.01434,-0.01511,-0.08224,0.08011,-0.09811,-0.02106,0.00946,-0.03815
3.818,-0.00565,-0.04807,-0.06378,0.01877,-0.01968,-0.06027,-0.02014,-0.00626,0.06454,-0.03067,-0.06378,0.05676,-0.10818,-0.01877,0.00854,-0.03876
3.8185,-0.01938,-0.04593,-0.06348,0.62057,-0.02167,-0.06226,-0.02075,-0.00992,0.08118,-0.04959,-0.03159,0.0,-0.09109,-0.01526,0.00778,-0.04044
3.819,-0.02365,-0.0502,-0.06241,0.97015,-0.02411,-0.06332,-0.02029,-0.01083,0.07324,-0.07309,-0.00488,-0.04837,-0.06226,-0.0116,0.00778,-0.04318
3.8195,-0.00549,-0.06058,-0.06104,0.88226,-0.02792,-0.06332,-0.01953,-0.00824,0.04974,-0.09506,0.01251,-0.06699,-0.04196,-0.01144,0.00854,-0.04303
3.82,0.02518,-0.07355,-0.06622,0.5188,-0.03296,-0.0621,-0.01678,-0.00381,0.01038,-0.1091,0.02502,-0.05096,-0.03662,-0.01541,0.00824,-0.04242
3.8205,0.04578,-0.08453,-0.08179,0.19241,-0.03632,-0.06256,-0.01282,-0.00168,-0.04318,-0.11459,0.03098,-0.01221,-0.03754,-0.0209,0.00702,-0.04364
3.821,0.04333,-0.0882,-0.1001,0.04898,-0.03265,-0.06195,-0.00946,-0.00168,-0.103,-0.1152,0.02747,0.02045,-0.03876,-0.02502,0.00549,-0.04501
3.8215,0.02319,-0.08545,-0.1004,0.01663,-0.02151,-0.05737,-0.00854,-0.00092,-0.15656,-0.10971,0.01556,0.02777,-0.03815,-0.02701,0.00519,-0.04532
3.822,-0.00412,-0.08041,-0.07706,0.00046,-0.00839,-0.05295,-0.0087,0.00076,-0.19592,-0.0975,0.00153,0.02991,-0.03799,-0.02853,0.00687,-0.04456
3.8225,-0.0322,-0.07339,-0.04517,-0.00916,-0.00381,-0.0502,-0.01022,0.00198,-0.2182,-0.0827,-0.00992,0.04837,-0.03876,-0.02945,0.00732,-0.04349
3.823,-0.05569,-0.06439,-0.02319,-0.01572,-0.0119,-0.05035,-0.01297,0.00031,-0.22507,-0.07599,-0.01892,0.06561,-0.03876,-0.02884,0.00854,-0.04486
3.8235,-0.06638,-0.05325,-0.01465,-0.08118,-0.02304,-0.05096,-0.01602,-0.00198,-0.21957,-0.0766,-0.02808,0.0473,-0.03708,-0.02625,0.00763,-0.04715
3.824,-0.06058,-0.04196,-0.01419,-0.24277,-0.03098,-0.05066,-0.01755,-0.00381,-0.20477,-0.07645,-0.03647,-0.00092,-0.03464,-0.02197,0.00763,-0.04822
3.8245,-0.0441,-0.03189,-0.01678,-0.40176,-0.03464,-0.05096,-0.01785,-0.00381,-0.18387,-0.07141,-0.04135,-0.03372,-0.0322,-0.01801,0.00702,-0.04593
3.825,-0.03174,-0.02426,-0.02014,-0.37369,-0.03738,-0.05188,-0.01801,-0.00275,-0.16083,-0.06485,-0.04135,-0.03036,-0.03143,-0.01648,0.0058,-0.04425
3.8255,-0.03494,-0.02045,-0.0235,-0.09247,-0.0412,-0.05463,-0.01862,-0.00244,-0.13397,-0.05753,-0.03952,-0.00702,-0.03189,-0.01709,0.0032,-0.04318
3.826,-0.04745,-0.02182,-0.02365,0.26917,-0.04471,-0.05783,-0.01755,-0.00275,-0.103,-0.0502,-0.04211,0.01755,-0.03204,-0.01633,0.00244,-0.04272
3.8265,-0.05325,-0.02991,-0.0238,0.45105,-0.04776,-0.05814,-0.01526,-0.00336,-0.07233,-0.04105,-0.05112,0.04532,-0.03098,-0.01175,0.00443,-0.04028
3.827,-0.04257,-0.04272,-0.02686,0.35736,-0.05249,-0.05569,-0.01389,-0.00229,-0.05447,-0.03403,-0.06516,0.07019,-0.02914,-0.00717,0.0087,-0.03723
3.8275,-0.02365,-0.056,-0.03311,0.11017,-0.05722,-0.05325,-0.01434,-0.00076,-0.05905,-0.03174,-0.08255,0.06958,-0.02792,-0.00488,0.01312,-0.03662
3.828,-0.00626,-0.06485,-0.03769,-0.10529,-0.05753,-0.05188,-0.01495,-0.00076,-0.07767,-0.03128,-0.09659,0.02686,-0.02686,-0.00427,0.01419,-0.03754
3.8285,0.0032,-0.06332,-0.03876,-0.19012,-0.04974,-0.05142,-0.01587,-0.00336,-0.08575,-0.02167,-0.10132,-0.06073,-0.02686,-0.00687,0.01282,-0.0383
3.829,0.00626,-0.05035,-0.0383,-0.16617,-0.03708,-0.04837,-0.01755,-0.00565,-0.06454,0.00153,-0.09232,-0.18433,-0.02823,-0.01068,0.01144,-0.0383
3.8295,0.00565,-0.0293,-0.04089,-0.10605,-0.02487,-0.04318,-0.01709,-0.00656,-0.01923,0.03143,-0.07416,-0.31052,-0.03082,-0.01312,0.01022,-0.03937
3.83,0.00061,-0.00793,-0.04883,-0.05524,-0.01419,-0.03967,-0.01602,-0.00519,0.03311,0.05798,-0.05386,-0.38483,-0.03265,-0.01282,0.00931,-0.0415
3.8305,-0.00992,0.00641,-0.06073,-0.01526,-0.00748,-0.03891,-0.01389,-0.00381,0.07751,0.07965,-0.03632,-0.35004,-0.03387,-0.01266,0.00671,-0.04272
3.831,-0.02487,0.0148,-0.07385,0.02808,-0.00351,-0.04059,-0.01129,-0.00168,0.10757,0.09583,-0.01923,-0.16464,-0.03448,-0.01358,0.00504,-0.04196
3.8315,-0.03769,0.01953,-0.08316,0.08545,-0.00595,-0.04395,-0.01068,-0.00122,0.11734,0.10895,0.00397,0.11566,-0.03555,-0.01541,0.00473,-0.04105
3.832,-0.04303,0.02213,-0.0885,0.15411,-0.01083,-0.04684,-0.01144,-0.00046,0.10666,0.11673,0.02808,0.29465,-0.03525,-0.01633,0.00778,-0.04105
3.8325,-0.03632,0.01999,-0.08621,0.19913,-0.01831,-0.04837,-0.01083,0.0,0.08423,0.1178,0.04593,0.2124,-0.03342,-0.01709,0.01144,-0.04028
3.833,-0.02167,0.01526,-0.07843,0.14084,-0.02167,-0.0473,-0.00916,0.00092,0.06424,0.11414,0.05493,-0.04501,-0.03098,-0.0177,0.01389,-0.03632
3.8335,-0.0087,0.01282,-0.06714,-0.08514,-0.02426,-0.0473,-0.00763,0.00031,0.05508,0.10712,0.05875,-0.26154,-0.0296,-0.01694,0.01556,-0.03418
3.834,-0.00992,0.01129,-0.05356,-0.43137,-0.02625,-0.04745,-0.00763,-0.00137,0.05966,0.0972,0.06271,-0.34286,-0.02853,-0.01572,0.01465,-0.03464
3.8345,-0.02625,0.00595,-0.03906,-0.72128,-0.02655,-0.04883,-0.00793,-0.00137,0.08545,0.08881,0.06638,-0.31967,-0.02472,-0.01648,0.01129,-0.03677
3.835,-0.05325,-0.00229,-0.01892,-0.77942,-0.0267,-0.04852,-0.00778,-0.00168,0.13504,0.07782,0.06561,-0.21103,-0.01999,-0.01831,0.00961,-0.03784
3.8355,-0.08224,-0.01236,0.00824,-0.58746,-0.0238,-0.04852,-0.00702,-0.00366,0.18845,0.06149,0.06241,-0.02441,-0.01419,-0.0177,0.00748,-0.03876
3.836,-0.1091,-0.02136,0.03448,-0.27435,-0.02136,-0.04868,-0.00748,-0.00656,0.20737,0.04227,0.05798,0.16266,-0.01022,-0.01358,0.00626,-0.03891
3.8365,-0.12878,-0.02808,0.0528,0.00839,-0.02319,-0.047,-0.00931,-0.00778,0.17471,0.02182,0.04852,0.24551,-0.00977,-0.01053,0.00504,-0.04074
3.837,-0.13596,-0.02945,0.06058,0.13168,-0.02762,-0.04715,-0.0119,-0.00748,0.12131,0.00198,0.01968,0.20844,-0.01343,-0.01221,0.00351,-0.04608
3.8375,-0.12955,-0.02487,0.05905,0.02731,-0.03143,-0.04883,-0.01389,-0.00534,0.08255,-0.01495,-0.0293,0.13458,-0.01938,-0.01846,0.00168,-0.05081
3.838,-0.11078,-0.02045,0.0531,-0.18982,-0.03387,-0.05051,-0.01434,-0.00397,0.0531,-0.03128,-0.07126,0.10468,-0.02472,-0.02457,-0.00031,-0.05325
3.8385,-0.08133,-0.02121,0.04379,-0.24902,-0.03464,-0.05234,-0.01465,-0.00473,-0.00641,-0.04822,-0.07614,0.12131,-0.02838,-0.0267,0.00046,-0.05203
3.839,-0.04166,-0.02975,0.03281,0.00305,-0.03418,-0.05173,-0.01694,-0.00565,-0.10345,-0.06546,-0.04898,0.15305,-0.03052,-0.02594,0.00259,-0.04868
3.8395,0.00259,-0.04272,0.02029,0.41138,-0.03357,-0.05142,-0.01862,-0.00549,-0.19211,-0.08011,-0.01831,0.1915,-0.03128,-0.02457,0.00565,-0.04501
3.84,0.04547,-0.05524,0.00626,0.67535,-0.03235,-0.0528,-0.01801,-0.00381,-0.22888,-0.08728,-0.00336,0.22919,-0.0322,-0.02411,0.00732,-0.0412
3.8405,0.07965,-0.065,-0.01099,0.63614,-0.03036,-0.05447,-0.01587,-0.00092,-0.2211,-0.08286,-0.00031,0.22873,-0.03525,-0.02258,0.00412,-0.04044
3.841,0.10117,-0.06851,-0.02563,0.34851,-0.03052,-0.05432,-0.01511,0.00076,-0.2037,-0.06531,-0.00214,0.17731,-0.03952,-0.02014,-0.00427,-0.04272
3.8415,0.10971,-0.06805,-0.03494,-0.03815,-0.03113,-0.05295,-0.01434,0.0,-0.1947,-0.04562,-0.00473,0.12207,-0.04135,-0.01801,-0.01602,-0.04379
3.842,0.10696,-0.07004,-0.0383,-0.41092,-0.03204,-0.0499,-0.01312,-0.00168,-0.18738,-0.02884,-0.00443,0.10635,-0.04105,-0.01556,-0.0235,-0.04242
3.8425,0.09293,-0.07721,-0.03922,-0.70511,-0.03372,-0.05127,-0.01144,-0.0029,-0.1683,-0.02472,-0.00153,0.10757,-0.04013,-0.01526,-0.02747,-0.04089
3.843,0.07294,-0.08347,-0.04028,-0.8432,-0.03586,-0.05325,-0.01205,-0.00275,-0.13382,-0.02777,-0.00198,0.08041,-0.03754,-0.0148,-0.0325,-0.04227
3.8435,0.05524,-0.08179,-0.04211,-0.73196,-0.03693,-0.0528,-0.01495,-0.00336,-0.08759,-0.03418,-0.009,0.01617,-0.03204,-0.01495,-0.04089,-0.04471
3.844,0.04318,-0.07248,-0.04196,-0.33554,-0.03555,-0.04974,-0.01648,-0.00473,-0.03799,-0.04135,-0.01404,-0.06058,-0.02426,-0.0148,-0.04684,-0.04562
3.8445,0.03357,-0.06287,-0.04028,0.22156,-0.03448,-0.04837,-0.01678,-0.00488,0.00427,-0.04913,-0.009,-0.13565,-0.01404,-0.01389,-0.0296,-0.04349
3.845,0.02411,-0.05951,-0.03067,0.65689,-0.03555,-0.05081,-0.01663,-0.00397,0.02792,-0.05417,-0.00168,-0.20508,0.00061,-0.01144,0.02243,-0.04089
3.8455,0.01968,-0.06424,-0.01663,0.7341,-0.03494,-0.05219,-0.01465,-0.00412,0.02975,-0.05493,-0.00214,-0.2597,0.01724,-0.00839,0.08545,-0.04059
3.846,0.02106,-0.06805,-0.00748,0.49423,-0.03387,-0.05249,-0.01419,-0.0061,0.01541,-0.05295,-0.01083,-0.27924,0.0235,-0.00671,0.11124,-0.04425
3.8465,0.02213,-0.06378,-0.01511,0.21774,-0.03311,-0.0528,-0.01465,-0.00854,-0.00534,-0.04837,-0.02335,-0.23132,0.01297,-0.00595,0.08621,-0.04684
3.847,0.01801,-0.04944,-0.03265,0.11536,-0.03525,-0.05402,-0.01541,-0.00839,-0.02869,-0.04181,-0.03784,-0.07706,-0.00504,-0.00381,0.04471,-0.047
3.8475,0.01053,-0.03418,-0.04166,0.14847,-0.03616,-0.05341,-0.01465,-0.00732,-0.04654,-0.03983,-0.05356,0.14099,-0.01724,-0.00015,0.02411,-0.04501
3.848,0.00443,-0.0264,-0.03647,0.16632,-0.03616,-0.04974,-0.01282,-0.00595,-0.04868,-0.03967,-0.06332,0.26077,-0.01953,0.00076,0.02335,-0.04211
3.8485,0.00137,-0.0296,-0.02625,0.08331,-0.03372,-0.04547,-0.01251,-0.00626,-0.03555,-0.03387,-0.06317,0.16586,-0.02075,-0.00427,0.02502,-0.03952
3.849,0.00046,-0.04013,-0.02289,-0.1001,-0.03281,-0.04501,-0.01526,-0.00946,-0.02045,-0.0119,-0.06073,-0.04608,-0.02365,-0.01099,0.0206,-0.0386
3.8495,0.00061,-0.05371,-0.02655,-0.32379,-0.03265,-0.04837,-0.01801,-0.01144,-0.01251,0.0238,-0.07065,-0.18005,-0.02609,-0.0145,0.0174,-0.03769
3.85,0.00107,-0.06912,-0.03433,-0.48218,-0.03311,-0.05051,-0.01877,-0.01114,-0.00809,0.0592,-0.09338,-0.17761,-0.02716,-0.01358,0.01724,-0.03876
3.8505,0.00305,-0.0853,-0.04242,-0.47287,-0.03418,-0.0499,-0.01709,-0.00778,-0.00458,0.07996,-0.10757,-0.13123,-0.02747,-0.01266,0.01587,-0.04196
3.851,0.00641,-0.09689,-0.05402,-0.28778,-0.03387,-0.04898,-0.01556,-0.00458,-0.00839,0.08118,-0.09567,-0.1123,-0.02884,-0.01266,0.01297,-0.04578
3.8515,0.01282,-0.0975,-0.06454,-0.02411,-0.03418,-0.04761,-0.01434,-0.00244,-0.02319,0.07126,-0.06546,-0.09216,-0.0296,-0.01251,0.01373,-0.04822
3.852,0.02029,-0.08896,-0.07172,0.19272,-0.03693,-0.047,-0.01282,-0.00214,-0.04044,0.05722,-0.03876,-0.01831,-0.03082,-0.01251,0.01999,-0.04837
3.8525,0.02518,-0.0795,-0.0766,0.25009,-0.0412,-0.04593,-0.01205,-0.00214,-0.04623,0.05234,-0.02243,0.09766,-0.03036,-0.01266,0.02579,-0.04745
3.853,0.02563,-0.07431,-0.07858,0.0914,-0.04456,-0.04593,-0.01282,-0.00153,-0.03738,0.05676,-0.01083,0.20401,-0.0293,-0.01434,0.02548,-0.04593
3.8535,0.02106,-0.07248,-0.07645,-0.13245,-0.04425,-0.04623,-0.01556,-0.00381,-0.02411,0.06348,-0.00443,0.28503,-0.02975,-0.01602,0.0206,-0.04486
3.854,0.01373,-0.07172,-0.0705,-0.10193,-0.04105,-0.04639,-0.01907,-0.00748,-0.01617,0.06317,-0.00473,0.35004,-0.03189,-0.01694,0.01602,-0.04684
3.8545,0.00519,-0.07309,-0.06668,0.28046,-0.03937,-0.0473,-0.0206,-0.01007,-0.01526,0.0502,-0.00366,0.36835,-0.03494,-0.01648,0.00839,-0.0499
3.855,-0.00229,-0.07751,-0.07446,0.65399,-0.03891,-0.04868,-0.02014,-0.01007,-0.01434,0.02869,0.00763,0.29678,-0.03647,-0.01526,-0.00092,-0.05112
3.8555,-0.00702,-0.08179,-0.09933,0.60776,-0.03738,-0.04883,-0.01709,-0.00595,-0.00839,0.00504,0.02747,0.14755,-0.03662,-0.01678,-0.00885,-0.04913
3.856,-0.01007,-0.08102,-0.13107,0.20752,-0.03616,-0.04776,-0.01236,-0.00031,-0.00061,-0.01419,0.04181,-0.01053,-0.03738,-0.02274,-0.01022,-0.04471
3.8565,-0.01389,-0.07278,-0.15671,-0.10834,-0.03662,-0.04654,-0.01022,0.00381,0.00229,-0.02945,0.04715,-0.11154,-0.03845,-0.0296,-0.00336,-0.03967
3.857,-0.01923,-0.06195,-0.177,-0.08881,-0.03876,-0.04532,-0.01099,0.00381,-0.00031,-0.04318,0.04333,-0.13199,-0.03937,-0.03235,0.00427,-0.03647
3.8575,-0.02579,-0.05493,-0.20294,0.10376,-0.03906,-0.04501,-0.01358,0.00092,0.00198,-0.05844,0.03296,-0.11398,-0.03922,-0.03189,0.00809,-0.03464
3.858,-0.02945,-0.05386,-0.22629,0.20508,-0.03815,-0.04593,-0.01541,-0.00076,0.02014,-0.0769,0.02014,-0.13397,-0.0383,-0.02853,0.00671,-0.03448
3.8585,-0.03067,-0.05676,-0.21851,0.15366,-0.03708,-0.04486,-0.0145,0.0,0.06058,-0.09384,0.00916,-0.20813,-0.03708,-0.02457,0.00259,-0.03525
3.859,-0.03052,-0.06241,-0.15228,0.02899,-0.03662,-0.04257,-0.01328,0.00107,0.11612,-0.10117,-0.00351,-0.25604,-0.03616,-0.02151,-0.00168,-0.03891
3.8595,-0.03036,-0.06653,-0.03479,-0.09705,-0.03479,-0.04242,-0.01312,0.00137,0.17029,-0.09201,-0.02701,-0.2037,-0.03571,-0.02106,-0.00443,-0.0415
3.86,-0.02945,-0.06393,0.09811,-0.14023,-0.03128,-0.04242,-0.01282,-0.00122,0.21133,-0.0769,-0.05661,-0.06866,-0.03494,-0.02365,-0.0058,-0.04379
3.8605,-0.03021,-0.0473,0.2063,-0.00061,-0.03021,-0.04089,-0.01343,-0.00397,0.24536,-0.07492,-0.07385,0.07111,-0.03433,-0.0267,-0.00595,-0.04517
3.861,-0.02731,-0.02289,0.26703,0.27466,-0.03189,-0.0383,-0.01312,-0.00549,0.27374,-0.0943,-0.06683,0.14603,-0.0351,-0.02777,-0.00519,-0.04471
3.8615,-0.01801,-0.00534,0.27176,0.45013,-0.03204,-0.03922,-0.01236,-0.00427,0.27786,-0.12421,-0.04318,0.13412,-0.03754,-0.02609,-0.0029,-0.04456
3.862,-0.00809,-0.00305,0.22156,0.34332,-0.03021,-0.04303,-0.01099,-0.00137,0.24033,-0.14374,-0.01831,0.07126,-0.0383,-0.02563,-0.00198,-0.04425
3.8625,-0.00366,-0.0061,0.13794,0.04547,-0.02777,-0.04608,-0.00946,-0.00229,0.16525,-0.14755,0.00137,0.00732,-0.03738,-0.02609,0.00168,-0.04349
3.863,-0.00427,-0.00351,0.05569,-0.19257,-0.02762,-0.04501,-0.00977,-0.00656,0.07523,-0.14938,0.01236,-0.05371,-0.03479,-0.02441,0.00381,-0.04089
3.8635,-0.00534,-0.00275,-0.00061,-0.23544,-0.02899,-0.04166,-0.01083,-0.01068,-0.01801,-0.15457,0.0174,-0.1355,-0.03403,-0.02136,0.00549,-0.03769
3.864,-0.00458,-0.01633,-0.02762,-0.1738,-0.03143,-0.04044,-0.01389,-0.0119,-0.11307,-0.15228,0.01663,-0.22614,-0.03494,-0.02151,0.00565,-0.03555
3.8645,-0.00977,-0.04227,-0.03845,-0.17838,-0.03403,-0.04166,-0.01801,-0.01068,-0.2037,-0.13412,0.01175,-0.27695,-0.03601,-0.0235,0.00565,-0.03708
3.865,-0.02121,-0.06531,-0.04715,-0.30991,-0.03418,-0.04395,-0.02014,-0.01022,-0.26474,-0.10529,0.00565,-0.24658,-0.03479,-0.02319,0.00549,-0.0386
3.8655,-0.03281,-0.07156,-0.05661,-0.48065,-0.0354,-0.04517,-0.01709,-0.00839,-0.27496,-0.07492,-0.00565,-0.13428,-0.03296,-0.02029,0.00519,-0.03815
3.866,-0.03647,-0.05936,-0.06287,-0.57327,-0.03616,-0.0444,-0.01083,-0.00549,-0.2356,-0.04669,-0.02792,0.00961,-0.03082,-0.01846,0.00488,-0.03754
3.8665,-0.02975,-0.03784,-0.06546,-0.55206,-0.03555,-0.04395,-0.00885,-0.0029,-0.17258,-0.02258,-0.05569,0.10956,-0.02975,-0.0206,0.00412,-0.03891
3.867,-0.01816,-0.02213,-0.06882,-0.45975,-0.03418,-0.04364,-0.01266,-0.00397,-0.11551,-0.00809,-0.06729,0.10818,-0.03036,-0.02411,0.00198,-0.04028
3.8675,-0.01205,-0.01923,-0.08926,-0.33127,-0.03204,-0.04501,-0.01709,-0.00656,-0.07919,0.00168,-0.05539,-0.00061,-0.03281,-0.02655,-0.00046,-0.04196
3.868,-0.01419,-0.02594,-0.14114,-0.16968,-0.03342,-0.04623,-0.01617,-0.00824,-0.07004,0.01724,-0.03845,-0.16129,-0.03403,-0.02975,-0.00061,-0.04349
3.8685,-0.01404,-0.03403,-0.20782,0.0058,-0.03464,-0.04593,-0.0119,-0.0061,-0.09216,0.04135,-0.02869,-0.2948,-0.03342,-0.03357,-0.00015,-0.04501
3.869,0.00015,-0.03647,-0.22507,0.14267,-0.03448,-0.04333,-0.009,-0.00351,-0.12802,0.06821,-0.01602,-0.31204,-0.03235,-0.0351,0.00229,-0.04501
3.8695,0.02518,-0.03036,-0.15717,0.22812,-0.03113,-0.04028,-0.00748,-0.00122,-0.14099,0.08698,0.0061,-0.1532,-0.0322,-0.03235,0.00488,-0.0441
3.87,0.04318,-0.01846,-0.04776,0.28702,-0.03036,-0.03738,-0.00595,-0.00015,-0.10498,0.09232,0.02579,0.11551,-0.03235,-0.02777,0.00687,-0.04318
3.8705,0.04501,-0.0087,0.02121,0.30075,-0.02914,-0.03525,-0.00565,0.00015,-0.03845,0.08224,0.03403,0.28931,-0.03265,-0.02396,0.00687,-0.04486
3.871,0.0351,-0.00427,0.02625,0.21362,-0.02991,-0.03479,-0.00702,0.0,0.01724,0.05844,0.04318,0.25131,-0.03357,-0.02136,0.00473,-0.04684
3.8715,0.02136,-0.00107,-0.00305,0.00397,-0.02747,-0.03723,-0.01083,-0.00336,0.0386,0.02289,0.0621,0.1062,-0.0351,-0.02167,0.00488,-0.04562
3.872,0.00412,0.00519,-0.02808,-0.28656,-0.02792,-0.04044,-0.01495,-0.00977,0.03342,-0.01511,0.07996,0.00229,-0.03616,-0.02274,0.01038,-0.04257
3.8725,-0.01984,0.01129,-0.03494,-0.59036,-0.02686,-0.04227,-0.01678,-0.01572,0.02548,-0.0441,0.0827,-0.03479,-0.03525,-0.02243,0.01465,-0.04028
3.873,-0.04791,0.01251,-0.02686,-0.84915,-0.02808,-0.0415,-0.01678,-0.0174,0.03204,-0.056,0.08865,-0.03815,-0.03372,-0.01984,0.01556,-0.03922
3.8735,-0.07294,0.00473,-0.01282,-0.9903,-0.03082,-0.04013,-0.0174,-0.01389,0.05356,-0.05936,0.12436,0.01373,-0.03387,-0.01633,0.01373,-0.03876
3.874,-0.08713,-0.00778,-0.00412,-0.86746,-0.03342,-0.04105,-0.01801,-0.01007,0.07416,-0.06592,0.17487,0.15945,-0.03555,-0.01404,0.00977,-0.03998
3.8745,-0.08957,-0.01968,-0.0061,-0.3215,-0.03311,-0.04272,-0.0177,-0.00916,0.07813,-0.0708,0.19897,0.34576,-0.0354,-0.01282,0.00641,-0.03998
3.875,-0.08377,-0.02853,-0.01877,0.53467,-0.03021,-0.04257,-0.01663,-0.01007,0.07065,-0.056,0.18295,0.4097,-0.03525,-0.0119,0.00534,-0.03967
3.8755,-0.07523,-0.03525,-0.04303,1.18805,-0.02899,-0.0415,-0.01648,-0.01144,0.06699,-0.01877,0.14893,0.22949,-0.03601,-0.01389,0.00641,-0.03723
3.876,-0.06424,-0.04379,-0.06851,1.17004,-0.02975,-0.04181,-0.01694,-0.01129,0.06744,0.02014,0.11139,-0.10803,-0.0386,-0.0177,0.00839,-0.03372
3.8765,-0.04883,-0.05432,-0.0769,0.60059,-0.03082,-0.04227,-0.01877,-0.00977,0.05615,0.0351,0.0563,-0.3743,-0.0386,-0.02365,0.00931,-0.03326
3.877,-0.02579,-0.06149,-0.05905,0.08743,-0.03128,-0.03998,-0.01984,-0.0087,0.02609,0.02274,-0.01755,-0.41794,-0.03769,-0.02991,0.00793,-0.0354
3.8775,0.00366,-0.05905,-0.02731,0.03952,-0.02991,-0.03555,-0.02075,-0.00748,-0.00702,0.00656,-0.08347,-0.26581,-0.03708,-0.03281,0.00656,-0.0383
3.878,0.03021,-0.04517,0.0058,0.31937,-0.02899,-0.03281,-0.02045,-0.00702,-0.02716,0.00702,-0.12115,-0.04959,-0.0386,-0.0293,0.00732,-0.04044
3.8785,0.03738,-0.02304,0.03479,0.56107,-0.02731,-0.03296,-0.01862,-0.0061,-0.03204,0.01709,-0.13611,0.09705,-0.03784,-0.02258,0.00809,-0.04074
3.879,0.01953,-0.00137,0.06256,0.56976,-0.02625,-0.03632,-0.01617,-0.00443,-0.03479,0.01785,-0.14801,0.13397,-0.03738,-0.01892,0.00687,-0.03967
3.8795,-0.00671,0.01129,0.08377,0.34256,-0.02747,-0.03815,-0.0148,-0.00305,-0.05417,0.00229,-0.15594,0.14023,-0.03647,-0.02014,0.00641,-0.03952
3.88,-0.01022,0.01328,0.06699,-0.04608,-0.02701,-0.03922,-0.01404,-0.00198,-0.09689,-0.02045,-0.14008,0.20447,-0.03662,-0.02625,0.00809,-0.04135
3.8805,0.02075,0.00824,-0.03922,-0.45197,-0.02701,-0.03998,-0.01541,-0.00092,-0.14069,-0.03891,-0.09781,0.27542,-0.03708,-0.03021,0.00931,-0.04379
3.881,0.06622,0.00046,-0.22614,-0.69305,-0.0293,-0.04272,-0.01678,-0.00015,-0.15594,-0.05951,-0.04929,0.24002,-0.03769,-0.02838,0.01007,-0.04395
3.8815,0.09888,-0.01312,-0.36087,-0.69275,-0.03174,-0.04547,-0.0174,0.00061,-0.15198,-0.08331,-0.01419,0.12512,-0.03723,-0.0235,0.00809,-0.04364
3.882,0.10361,-0.03769,-0.30396,-0.55054,-0.03357,-0.04852,-0.01343,0.00122,-0.16663,-0.1088,-0.00214,0.06195,-0.03632,-0.02106,0.00748,-0.04364
3.8825,0.08224,-0.06821,-0.08514,-0.37888,-0.03555,-0.05066,-0.009,0.00092,-0.20874,-0.12238,-0.01648,0.08194,-0.03387,-0.02289,0.00366,-0.04517
3.883,0.04913,-0.08743,0.12955,-0.14664,-0.03571,-0.05356,-0.00717,0.00183,-0.24109,-0.12115,-0.05173,0.09521,-0.03128,-0.02472,0.00275,-0.04807
3.8835,0.02167,-0.08087,0.2243,0.20142,-0.03464,-0.05569,-0.01038,0.00214,-0.23193,-0.10773,-0.09109,0.04456,-0.0296,-0.02411,0.00092,-0.0499
3.884,0.00244,-0.04944,0.22034,0.55786,-0.03281,-0.05447,-0.01328,0.00122,-0.19119,-0.08957,-0.10498,-0.03342,-0.0293,-0.02289,0.00214,-0.0499
3.8845,-0.01694,-0.01556,0.18265,0.74097,-0.03342,-0.05173,-0.01328,-0.00122,-0.14694,-0.07172,-0.07126,-0.07568,-0.02975,-0.02274,0.00381,-0.04898
3.885,-0.04105,-0.00031,0.12619,0.681,-0.03448,-0.05188,-0.01266,-0.00427,-0.10605,-0.05707,-0.00595,-0.05402,-0.03082,-0.02289,0.00443,-0.04837
3.8855,-0.05966,-0.00854,0.01755,0.45731,-0.03479,-0.05432,-0.01556,-0.00549,-0.06973,-0.04532,0.047,0.00381,-0.03052,-0.02304,0.00351,-0.04776
3.886,-0.06348,-0.03464,-0.16754,0.20004,-0.03387,-0.056,-0.01785,-0.00443,-0.04471,-0.03647,0.05402,0.03098,-0.03021,-0.02151,0.0032,-0.04669
3.8865,-0.05493,-0.06531,-0.37766,-0.00015,-0.0322,-0.05508,-0.01694,-0.00214,-0.03433,-0.03128,0.01663,-0.00458,-0.03159,-0.02075,0.00336,-0.04593
3.887,-0.04166,-0.0882,-0.50278,-0.11597,-0.03143,-0.0531,-0.0148,0.00076,-0.01923,-0.02518,-0.03906,-0.05615,-0.03235,-0.02197,0.00595,-0.04547
3.8875,-0.02319,-0.09583,-0.46997,-0.17548,-0.0296,-0.05219,-0.01526,0.00214,0.01663,-0.01404,-0.07996,-0.06439,-0.03174,-0.02396,0.00763,-0.04532
3.888,0.00153,-0.09399,-0.31021,-0.21408,-0.02884,-0.05264,-0.01816,0.00153,0.06927,-0.00214,-0.09216,-0.03723,-0.03067,-0.02228,0.00885,-0.04654
3.8885,0.03143,-0.08987,-0.10834,-0.23087,-0.02853,-0.05142,-0.02213,-0.00076,0.11902,0.00778,-0.08774,-0.02319,-0.03098,-0.01816,0.01007,-0.04593
3.889,0.05661,-0.08789,0.07355,-0.21255,-0.02914,-0.04929,-0.02426,-0.00351,0.1561,0.01953,-0.0885,-0.03632,-0.03113,-0.0145,0.01099,-0.04303
3.8895,0.0705,-0.08514,0.22186,-0.16769,-0.02792,-0.05157,-0.02365,-0.00336,0.18082,0.03494,-0.10239,-0.03265,-0.03098,-0.0116,0.01236,-0.03906
3.89,0.06821,-0.07919,0.33401,-0.11658,-0.02518,-0.05524,-0.02136,-0.00305,0.18921,0.04776,-0.11444,0.04562,-0.03296,-0.009,0.01175,-0.03738
3.8905,0.05051,-0.06927,0.39841,-0.06592,-0.02518,-0.05753,-0.02045,-0.00366,0.17166,0.05356,-0.10574,0.19226,-0.03601,-0.00687,0.00961,-0.03952
3.891,0.02411,-0.05814,0.4007,-0.0087,-0.02701,-0.05493,-0.0206,-0.00656,0.12955,0.05432,-0.07431,0.31036,-0.0386,-0.00763,0.00748,-0.04242
3.8915,-0.00473,-0.05066,0.34531,0.04318,-0.03082,-0.05096,-0.01801,-0.00748,0.07599,0.05569,-0.0325,0.29739,-0.0383,-0.0087,0.0087,-0.04303
3.892,-0.03891,-0.04761,0.25406,0.0528,-0.03342,-0.04974,-0.01404,-0.00671,0.02762,0.05615,0.00381,0.15167,-0.03662,-0.009,0.01129,-0.03922
3.8925,-0.07553,-0.0441,0.15045,-0.00397,-0.03159,-0.05142,-0.01144,-0.00519,-0.01129,0.056,0.02579,-0.04715,-0.03601,-0.00763,0.01358,-0.0351
3.893,-0.10208,-0.03525,0.05417,-0.10895,-0.02716,-0.05402,-0.01053,-0.00381,-0.04166,0.05447,0.03906,-0.24078,-0.03693,-0.00626,0.01404,-0.03403
3.8935,-0.10437,-0.02304,-0.02289,-0.2092,-0.02502,-0.05569,-0.00946,-0.00229,-0.05875,0.05447,0.05127,-0.39917,-0.03708,-0.00488,0.01022,-0.03601
3.894,-0.09323,-0.01358,-0.07538,-0.24567,-0.02502,-0.05432,-0.00549,0.00092,-0.05798,0.05203,0.06363,-0.4744,-0.0351,-0.00519,0.00534,-0.03876
3.8945,-0.10803,-0.01526,-0.10391,-0.18723,-0.02747,-0.05188,-0.00137,0.00519,-0.05051,0.04318,0.06546,-0.42831,-0.03372,-0.00793,0.00214,-0.04135
3.895,-0.16693,-0.0238,-0.11078,-0.05676,-0.02823,-0.05081,-0.00076,0.00778,-0.05371,0.02121,0.04944,-0.29938,-0.03296,-0.01312,0.00168,-0.04547
3.8955,-0.22385,-0.03235,-0.09674,0.08804,-0.02701,-0.0499,-0.00488,0.00839,-0.07385,-0.01068,0.02121,-0.17639,-0.0322,-0.01801,0.00092,-0.04807
3.896,-0.21454,-0.03937,-0.07095,0.20081,-0.0267,-0.04837,-0.00946,0.0058,-0.09003,-0.04745,-0.00488,-0.09399,-0.03067,-0.02014,0.00107,-0.04745
3.8965,-0.1384,-0.05051,-0.05447,0.23727,-0.0267,-0.04669,-0.01175,0.00259,-0.08087,-0.08347,-0.01434,-0.01663,-0.03098,-0.02167,0.00351,-0.04318
3.897,-0.06149,-0.06943,-0.06439,0.15244,-0.02777,-0.04547,-0.01419,0.00137,-0.05371,-0.11078,-0.01114,0.06378,-0.03342,-0.02121,0.00717,-0.04059
3.8975,-0.03601,-0.08896,-0.09354,-0.04364,-0.02747,-0.04257,-0.01755,0.00153,-0.02609,-0.11963,-0.01404,0.09369,-0.03464,-0.02029,0.00763,-0.04166
3.898,-0.04898,-0.10025,-0.12238,-0.27237,-0.0238,-0.03754,-0.01923,0.00153,0.00076,-0.10468,-0.03342,0.0502,-0.03418,-0.02029,0.00519,-0.04379
3.8985,-0.05157,-0.09979,-0.14008,-0.44754,-0.01846,-0.03174,-0.01862,0.00046,0.0325,-0.07507,-0.05173,-0.00336,-0.03403,-0.02136,0.00458,-0.04486
3.899,-0.01678,-0.09018,-0.14984,-0.522,-0.01602,-0.02945,-0.01556,0.0,0.05997,-0.04318,-0.0415,-0.00885,-0.03387,-0.0206,0.00732,-0.04303
3.8995,0.04578,-0.07599,-0.159,-0.47104,-0.01373,-0.03143,-0.01404,-0.00046,0.06927,-0.01938,-0.00656,0.00854,-0.03448,-0.0177,0.00931,-0.04242
3.9,0.11169,-0.06104,-0.16296,-0.31845,-0.01419,-0.03082,-0.01343,-0.00107,0.05585,-0.00031,0.02472,-0.01282,-0.03418,-0.01617,0.00778,-0.04303
3.9005,0.16602,-0.04745,-0.15839,-0.15106,-0.01663,-0.0296,-0.01297,-0.00168,0.03799,0.02228,0.03021,-0.11078,-0.03311,-0.01923,0.00824,-0.04547
3.901,0.20172,-0.03571,-0.14587,-0.00381,-0.01923,-0.02838,-0.01099,-0.00198,0.04486,0.05493,0.00336,-0.29358,-0.03265,-0.02609,0.00916,-0.04669
3.9015,0.21774,-0.02747,-0.12772,0.18875,-0.02151,-0.03098,-0.00931,-0.00076,0.09018,0.08392,-0.04883,-0.49133,-0.03357,-0.03036,0.01266,-0.04562
3.902,0.21866,-0.01816,-0.103,0.41412,-0.02441,-0.03586,-0.00885,0.00031,0.15381,0.09445,-0.10803,-0.52261,-0.03372,-0.03159,0.0148,-0.04257
3.9025,0.21469,-0.0061,-0.07294,0.51575,-0.02808,-0.03845,-0.01007,-0.00031,0.20355,0.08331,-0.14984,-0.21622,-0.03387,-0.03143,0.01541,-0.04105
3.903,0.21332,0.0061,-0.04349,0.42969,-0.0325,-0.03983,-0.01068,-0.00275,0.23834,0.06531,-0.17258,0.34271,-0.03326,-0.0322,0.01221,-0.03845
3.9035,0.20782,0.0145,-0.01617,0.30121,-0.03342,-0.03998,-0.01144,-0.00565,0.28641,0.05219,-0.18967,0.77423,-0.03174,-0.03296,0.00946,-0.03647
3.904,0.18845,0.01816,0.0087,0.24567,-0.03235,-0.04089,-0.01221,-0.00732,0.3421,0.04852,-0.19318,0.77057,-0.03113,-0.0325,0.00778,-0.03372
3.9045,0.15686,0.01785,0.02899,0.17471,-0.03387,-0.04227,-0.01282,-0.00641,0.35355,0.05066,-0.1593,0.44571,-0.03159,-0.03204,0.0087,-0.03357
3.905,0.12085,0.01282,0.03555,-0.03662,-0.03738,-0.04471,-0.01297,-0.00595,0.28412,0.05844,-0.09644,0.17776,-0.03189,-0.03082,0.01144,-0.0354
3.9055,0.08789,-0.00046,0.0238,-0.3241,-0.03922,-0.0473,-0.01343,-0.00671,0.16159,0.07309,-0.0531,0.15579,-0.03235,-0.02686,0.01266,-0.03891
3.906,0.05692,-0.01755,0.00107,-0.49515,-0.03799,-0.04883,-0.0148,-0.00854,0.03906,0.08987,-0.06439,0.23651,-0.03479,-0.02518,0.01205,-0.04211
3.9065,0.02579,-0.03174,-0.02274,-0.45502,-0.03723,-0.05096,-0.01801,-0.01007,-0.04944,0.09979,-0.10513,0.21149,-0.03799,-0.02563,0.00809,-0.04486
3.907,-0.0087,-0.03998,-0.04883,-0.32211,-0.0354,-0.05508,-0.02197,-0.01083,-0.09918,0.09979,-0.12497,0.05798,-0.0383,-0.02441,0.00519,-0.04578
3.9075,-0.05005,-0.04105,-0.08606,-0.29617,-0.03433,-0.05798,-0.02319,-0.01099,-0.12436,0.09048,-0.10315,-0.08163,-0.03738,-0.01938,0.00778,-0.0441
3.908,-0.09628,-0.0386,-0.12482,-0.42572,-0.03311,-0.06012,-0.0206,-0.01038,-0.14893,0.07507,-0.05829,-0.10666,-0.03693,-0.01404,0.0119,-0.03952
3.9085,-0.13138,-0.03784,-0.14603,-0.51834,-0.02975,-0.06149,-0.0177,-0.0087,-0.19012,0.05981,-0.01389,-0.07523,-0.0354,-0.01022,0.01572,-0.03616
3.909,-0.13733,-0.03952,-0.1358,-0.33569,-0.03159,-0.06134,-0.01495,-0.0061,-0.24277,0.04883,0.02548,-0.09628,-0.03403,-0.0061,0.01572,-0.03479
3.9095,-0.11642,-0.03845,-0.11032,0.07996,-0.03265,-0.05768,-0.01205,-0.00427,-0.27496,0.03998,0.0592,-0.16312,-0.03265,-0.00107,0.01465,-0.03693
3.91,-0.08835,-0.03204,-0.08896,0.34576,-0.03464,-0.05264,-0.01007,-0.0058,-0.25711,0.02838,0.08179,-0.15717,-0.03342,0.00122,0.01099,-0.03937
3.9105,-0.07111,-0.02319,-0.08057,0.11734,-0.03296,-0.04944,-0.00931,-0.00824,-0.19547,0.00519,0.08804,-0.03632,-0.03571,-0.00046,0.00717,-0.04135
3.911,-0.06577,-0.01892,-0.07919,-0.53925,-0.02975,-0.04791,-0.009,-0.00961,-0.13641,-0.0238,0.07599,0.06622,-0.0386,-0.00443,0.00641,-0.04288
3.9115,-0.06699,-0.02319,-0.08392,-1.19675,-0.02884,-0.04639,-0.00931,-0.00839,-0.11063,-0.05508,0.04578,0.01617,-0.0412,-0.00778,0.00748,-0.04257
3.912,-0.0708,-0.03082,-0.08942,-1.42471,-0.03098,-0.04669,-0.01053,-0.00763,-0.09781,-0.08392,0.0145,-0.1329,-0.04272,-0.01068,0.00656,-0.04318
3.9125,-0.07813,-0.03113,-0.07874,-1.07422,-0.03128,-0.04684,-0.01343,-0.00717,-0.06332,-0.1091,0.01175,-0.20691,-0.04349,-0.01251,0.0058,-0.04364
3.913,-0.08041,-0.02228,-0.0499,-0.29282,-0.02945,-0.04929,-0.01633,-0.0061,-0.01266,-0.13382,0.04288,-0.11673,-0.04318,-0.01221,0.00473,-0.04288
3.9135,-0.06805,-0.01892,-0.0502,0.66315,-0.03036,-0.05432,-0.01785,-0.00641,0.01602,-0.15701,0.0798,0.06302,-0.04211,-0.00839,0.00641,-0.04105
3.914,-0.03662,-0.03967,-0.13336,1.5239,-0.03296,-0.05981,-0.01724,-0.00748,0.00031,-0.17349,0.0885,0.18585,-0.04044,-0.00717,0.0058,-0.03891
3.9145,0.00061,-0.0885,-0.2684,1.96442,-0.03677,-0.06317,-0.01694,-0.00763,-0.04776,-0.17792,0.06256,0.17014,-0.03784,-0.01144,0.00397,-0.03876
3.915,0.02899,-0.14893,-0.33066,1.75537,-0.03815,-0.06531,-0.01678,-0.00671,-0.10193,-0.1683,0.02045,0.05844,-0.0354,-0.0206,0.0029,-0.04318
3.9155,0.04776,-0.19058,-0.24139,1.09314,-0.04028,-0.06577,-0.01633,-0.00381,-0.14893,-0.14786,-0.0119,-0.05157,-0.03387,-0.02838,0.00381,-0.04562
3.916,0.06821,-0.19012,-0.06821,0.49911,-0.04028,-0.06744,-0.0145,-0.00061,-0.19363,-0.12283,-0.01831,-0.10376,-0.03235,-0.03189,0.00397,-0.04456
3.9165,0.09064,-0.14709,0.05951,0.27893,-0.03784,-0.06866,-0.01434,0.00061,-0.23926,-0.10956,-0.00168,-0.09537,-0.03098,-0.03372,0.00183,-0.04318
3.917,0.10239,-0.09003,0.09277,0.27023,-0.03479,-0.06851,-0.01862,0.00092,-0.26596,-0.12421,0.0238,-0.03143,-0.03067,-0.03708,-0.00031,-0.04471
3.9175,0.08987,-0.0441,0.06836,0.20203,-0.03265,-0.06775,-0.02151,-0.00061,-0.25497,-0.16953,0.0383,0.06226,-0.03479,-0.0412,0.00046,-0.04822
3.918,0.05569,-0.01541,0.03845,0.05676,-0.03342,-0.06821,-0.02167,-0.00214,-0.21805,-0.22934,0.02762,0.11871,-0.04211,-0.04105,0.00183,-0.05112
3.9185,0.01892,0.00076,0.02426,-0.0238,-0.03632,-0.06943,-0.01633,-0.0032,-0.19226,-0.26993,-0.00885,0.07385,-0.04761,-0.0354,0.00183,-0.05157
3.919,-0.00259,0.0058,0.02533,0.01236,-0.0386,-0.06927,-0.01083,-0.00397,-0.18982,-0.2565,-0.04303,-0.05478,-0.04868,-0.0296,0.00381,-0.04883
3.9195,-0.00702,0.00458,0.03403,0.10849,-0.03906,-0.06378,-0.0087,-0.00275,-0.18372,-0.18219,-0.04135,-0.16891,-0.04547,-0.02869,0.0087,-0.0441
3.92,-0.0087,0.00214,0.04074,0.21301,-0.04028,-0.05707,-0.01068,-0.00366,-0.1506,-0.08194,-0.00122,-0.18173,-0.04211,-0.03082,0.01648,-0.03799
3.9205,-0.0145,0.00229,0.03754,0.28549,-0.04013,-0.05463,-0.01373,-0.00473,-0.10117,-0.00031,0.04196,-0.08423,-0.03998,-0.03113,0.0209,-0.03265
3.921,-0.0235,0.00427,0.02655,0.24048,-0.03983,-0.05524,-0.01556,-0.00595,-0.06454,0.04227,0.06424,0.0531,-0.03891,-0.02609,0.02151,-0.03052
3.9215,-0.02853,0.00687,0.0145,0.00427,-0.04013,-0.05737,-0.01587,-0.0058,-0.05157,0.0528,0.06607,0.13824,-0.03799,-0.01831,0.01907,-0.03098
3.922,-0.03342,0.01572,0.00809,-0.35782,-0.04089,-0.05905,-0.01633,-0.00549,-0.05981,0.05081,0.06836,0.11993,-0.03723,-0.01144,0.0177,-0.03204
3.9225,-0.04211,0.02777,0.01007,-0.65552,-0.04395,-0.05753,-0.0177,-0.00443,-0.08667,0.04791,0.08575,0.01251,-0.03616,-0.0061,0.01648,-0.03189
3.923,-0.05325,0.0296,0.02609,-0.72678,-0.04608,-0.05432,-0.01938,-0.00305,-0.11978,0.04639,0.11169,-0.10559,-0.03555,-0.00458,0.01404,-0.0354
3.9235,-0.06866,0.01556,0.05676,-0.55679,-0.04395,-0.05066,-0.01801,-0.0032,-0.13306,0.04196,0.1265,-0.12604,-0.0351,-0.00763,0.00992,-0.04288
3.924,-0.09583,-0.00259,0.09247,-0.26382,-0.03693,-0.04868,-0.01465,-0.00122,-0.11444,0.03265,0.11719,-0.01968,-0.03281,-0.01038,0.00519,-0.05066
3.9245,-0.13626,-0.01358,0.11688,0.00244,-0.02487,-0.04745,-0.01175,0.00046,-0.07904,0.02029,0.09598,0.10269,-0.03036,-0.01022,0.00046,-0.05417
3.925,-0.16357,-0.02441,0.12192,0.15747,-0.01266,-0.04517,-0.01038,0.0,-0.05417,0.00839,0.08728,0.12085,-0.03021,-0.00763,-0.00214,-0.05386
3.9255,-0.14389,-0.04257,0.11398,0.20645,-0.00351,-0.04135,-0.01129,-0.00229,-0.03708,-0.00336,0.10117,0.04333,-0.03113,-0.00839,-0.00214,-0.05219
3.926,-0.07782,-0.06165,0.10025,0.18341,-0.00137,-0.03616,-0.01205,-0.00473,-0.01099,-0.01678,0.12589,-0.04318,-0.03174,-0.01312,0.00137,-0.04745
3.9265,-0.00824,-0.06851,0.08377,0.08987,-0.00214,-0.03433,-0.01221,-0.00397,0.02197,-0.03296,0.14099,-0.08316,-0.03189,-0.01831,0.0058,-0.03952
3.927,0.02609,-0.06454,0.06149,-0.08087,-0.00275,-0.03571,-0.0119,-0.00305,0.03601,-0.0528,0.14038,-0.06714,-0.02991,-0.02213,0.0116,-0.03159
3.9275,0.02701,-0.05814,0.03067,-0.2739,-0.00061,-0.03738,-0.0119,-0.00259,0.02258,-0.07751,0.12985,-0.01389,-0.02319,-0.02502,0.01648,-0.02777
3.928,0.02182,-0.05402,-0.00595,-0.37827,0.00626,-0.0383,-0.01282,-0.00305,0.01419,-0.09735,0.11078,0.03799,-0.01251,-0.02777,0.01831,-0.02716
3.9285,0.02518,-0.05203,-0.0412,-0.32898,0.01312,-0.0386,-0.01572,-0.00351,0.04593,-0.10086,0.07263,0.05875,0.00015,-0.02426,0.01495,-0.0293
3.929,0.02991,-0.05127,-0.06836,-0.17868,0.01053,-0.04105,-0.02014,-0.00565,0.11414,-0.08133,0.01297,0.05722,0.00931,-0.01984,0.01099,-0.03494
3.9295,0.02441,-0.04883,-0.0856,-0.01678,-0.00931,-0.04166,-0.02197,-0.00824,0.17822,-0.04089,-0.04517,0.06577,0.01114,-0.0177,0.00717,-0.04471
3.93,0.01053,-0.04623,-0.09521,0.08301,-0.04547,-0.04028,-0.02213,-0.009,0.20309,0.00107,-0.0708,0.06165,0.00763,-0.01953,0.00595,-0.05142
3.9305,-0.00412,-0.04684,-0.09766,0.01831,-0.08316,-0.03738,-0.02151,-0.00702,0.18906,0.02945,-0.07507,-0.04807,0.00061,-0.02121,0.00397,-0.05432
3.931,-0.01724,-0.05249,-0.08682,-0.26352,-0.10666,-0.03433,-0.02075,-0.0032,0.16876,0.03571,-0.09598,-0.27725,-0.00824,-0.02182,0.00229,-0.05463
3.9315,-0.03036,-0.0621,-0.05707,-0.58243,-0.10162,-0.03342,-0.01892,-0.00061,0.16891,0.01877,-0.14587,-0.47302,-0.01709,-0.02426,0.00198,-0.05356
3.932,-0.04288,-0.07629,-0.01129,-0.62347,-0.07004,-0.03265,-0.01602,-0.00183,0.17883,-0.01236,-0.18723,-0.46249,-0.02594,-0.02899,0.00488,-0.05142
3.9325,-0.05112,-0.0914,0.02823,-0.3186,-0.03113,-0.03159,-0.01343,-0.00305,0.16953,-0.04868,-0.18433,-0.22354,-0.03693,-0.0354,0.00763,-0.04807
3.933,-0.05219,-0.10269,0.03922,0.04959,-0.00626,-0.03021,-0.01144,-0.00214,0.14023,-0.07767,-0.14282,0.11871,-0.05508,-0.03967,0.00763,-0.0444
3.9335,-0.04837,-0.10666,0.02045,0.19577,-0.00244,-0.03006,-0.01221,0.00122,0.121,-0.09476,-0.08606,0.41824,-0.07935,-0.03952,0.00839,-0.04242
3.934,-0.03967,-0.11002,-0.0116,0.11993,-0.01663,-0.02991,-0.01343,0.00412,0.12894,-0.1091,-0.02106,0.5722,-0.09735,-0.03723,0.0087,-0.04074
3.9345,-0.02975,-0.11215,-0.04196,0.00473,-0.04059,-0.03021,-0.01236,0.00397,0.1413,-0.11963,0.04547,0.50446,-0.09811,-0.03174,0.0116,-0.04074
3.935,-0.02151,-0.10681,-0.06561,-0.00885,-0.06378,-0.03326,-0.00854,0.00336,0.1326,-0.11154,0.07935,0.23163,-0.08118,-0.02502,0.01419,-0.04089
3.9355,-0.01678,-0.09262,-0.08316,0.06744,-0.07339,-0.03754,-0.00549,0.00244,0.11307,-0.06805,0.05127,-0.0647,-0.05936,-0.01755,0.0145,-0.04166
3.936,-0.01419,-0.07721,-0.09186,0.07874,-0.06332,-0.04013,-0.00702,0.00153,0.10925,-0.0032,-0.02319,-0.18585,-0.04333,-0.0119,0.01221,-0.04166
3.9365,-0.01114,-0.06516,-0.09262,-0.12741,-0.04501,-0.03876,-0.01221,0.00107,0.11826,0.05875,-0.09872,-0.10925,-0.03723,-0.00763,0.00732,-0.04074
3.937,-0.00595,-0.05554,-0.08987,-0.49835,-0.03403,-0.03464,-0.01541,-0.00107,0.11826,0.10178,-0.15976,0.01724,-0.03647,-0.00595,0.00443,-0.04166
3.9375,0.00031,-0.0444,-0.09186,-0.75607,-0.03433,-0.03128,-0.01633,-0.00229,0.10239,0.12573,-0.22049,0.0531,-0.03677,-0.00656,0.00458,-0.04333
3.938,0.00458,-0.03357,-0.11642,-0.62057,-0.03555,-0.02914,-0.0177,-0.00488,0.08514,0.13962,-0.28275,-0.00549,-0.03586,-0.00916,0.00595,-0.04395
3.9385,0.00198,-0.02472,-0.18234,-0.08972,-0.03708,-0.02991,-0.01999,-0.00641,0.06744,0.14572,-0.33066,-0.07202,-0.03433,-0.01007,0.00626,-0.0441
3.939,-0.00519,-0.01434,-0.29282,0.49072,-0.03677,-0.03296,-0.02243,-0.00793,0.03494,0.14297,-0.35568,-0.10086,-0.03372,-0.00809,0.0058,-0.04379
3.9395,-0.00839,-0.00183,-0.39963,0.69992,-0.03998,-0.03357,-0.02075,-0.00732,-0.01312,0.13,-0.34882,-0.12329,-0.03281,-0.00198,0.0061,-0.04395
3.94,-0.00671,0.00549,-0.43167,0.40482,-0.04242,-0.03403,-0.01633,-0.00458,-0.05615,0.1059,-0.29648,-0.15823,-0.03128,0.00519,0.00809,-0.04196
3.9405,-0.01038,-0.00031,-0.34393,-0.13565,-0.04333,-0.03433,-0.01221,-0.00153,-0.06866,0.0798,-0.20706,-0.16724,-0.02899,0.01099,0.00824,-0.04059
3.941,-0.02777,-0.02151,-0.17426,-0.50049,-0.04349,-0.03571,-0.00916,0.00015,-0.05112,0.06134,-0.1123,-0.10391,-0.0264,0.01556,0.00671,-0.03983
3.9415,-0.05356,-0.047,-0.02533,-0.40649,-0.04196,-0.03952,-0.00854,0.00076,-0.03098,0.05692,-0.04135,0.02625,-0.02518,0.02258,0.00137,-0.04105
3.942,-0.06882,-0.05981,0.03006,0.10559,-0.03677,-0.04684,-0.00885,0.00198,-0.03433,0.05508,0.00031,0.15854,-0.02518,0.03067,-0.00275,-0.04364
3.9425,-0.06699,-0.05386,0.01801,0.65643,-0.02884,-0.05432,-0.00916,0.00275,-0.05264,0.04257,0.02274,0.21439,-0.0264,0.03372,-0.00443,-0.04623
3.943,-0.06058,-0.04059,0.01724,0.87769,-0.02289,-0.06042,-0.0087,0.00198,-0.0589,0.01465,0.03296,0.16068,-0.02762,0.0293,-0.00336,-0.04578
3.9435,-0.06821,-0.0412,0.02426,0.77454,-0.02319,-0.06241,-0.00748,0.00122,-0.04852,-0.0174,0.02533,0.04242,-0.02914,0.01968,-0.00198,-0.04257
3.944,-0.08102,-0.06271,-0.04166,0.59784,-0.03036,-0.06088,-0.00687,0.00259,-0.04028,-0.03952,-0.00092,-0.05066,-0.03098,0.00687,0.00214,-0.03891
3.9445,-0.07385,-0.08972,-0.159,0.42938,-0.03784,-0.05661,-0.00687,0.00305,-0.04745,-0.04425,-0.01953,-0.04639,-0.0296,-0.01144,0.00565,-0.03769
3.945,-0.03632,-0.09888,-0.16571,0.17517,-0.0412,-0.05432,-0.01038,0.00229,-0.05753,-0.03525,0.0061,0.05997,-0.02808,-0.0354,0.00854,-0.03784
3.9455,0.00244,-0.08728,0.02518,-0.11063,-0.03876,-0.05585,-0.01587,0.00031,-0.05966,-0.02487,0.07156,0.20981,-0.02655,-0.05814,0.01022,-0.03845
3.946,0.00366,-0.07111,0.28,-0.2095,-0.03632,-0.06058,-0.01938,-0.00244,-0.05997,-0.02594,0.12863,0.30075,-0.02686,-0.07263,0.01221,-0.03906
3.9465,-0.03387,-0.06302,0.40665,-0.06042,-0.03571,-0.06424,-0.01877,-0.00534,-0.06393,-0.04379,0.14572,0.22736,-0.02792,-0.07996,0.01251,-0.04044
3.947,-0.06119,-0.05966,0.3569,0.14618,-0.03723,-0.06485,-0.01556,-0.0058,-0.05188,-0.05737,0.12726,-0.01526,-0.03021,-0.08591,0.01053,-0.04211
3.9475,-0.0296,-0.0502,0.21271,0.21118,-0.03555,-0.06363,-0.01328,-0.00473,-0.00732,-0.04349,0.09293,-0.26184,-0.03281,-0.09003,0.00656,-0.04303
3.948,0.05539,-0.0322,0.06607,0.1178,-0.03357,-0.06058,-0.01434,-0.00458,0.04578,-0.00351,0.06042,-0.32547,-0.03357,-0.08438,0.00702,-0.04318
3.9485,0.14038,-0.00412,-0.03189,-0.02701,-0.03525,-0.06073,-0.01877,-0.00763,0.06393,0.04105,0.04028,-0.21133,-0.03113,-0.06409,0.00824,-0.04089
3.949,0.18188,0.02823,-0.08224,-0.11917,-0.03784,-0.06195,-0.02243,-0.0116,0.04578,0.07813,0.03296,-0.08728,-0.02792,-0.03769,0.01022,-0.03738
3.9495,0.18204,0.05524,-0.11841,-0.13275,-0.0383,-0.06104,-0.02045,-0.01114,0.02426,0.10757,0.02731,-0.03387,-0.02686,-0.01419,0.01251,-0.03632
3.95,0.16861,0.06378,-0.15884,-0.12558,-0.0351,-0.05646,-0.01617,-0.00793,0.01663,0.13504,0.00717,0.00992,-0.02731,0.00061,0.01129,-0.03586
3.9505,0.15656,0.05463,-0.16083,-0.15732,-0.03128,-0.05142,-0.01389,-0.00305,0.01038,0.15518,-0.02121,0.05417,-0.02777,0.0087,0.01007,-0.03784
3.951,0.14114,0.04089,-0.0795,-0.20248,-0.02747,-0.04944,-0.01282,-0.00031,-0.00229,0.15259,-0.03021,0.01312,-0.02808,0.01114,0.01083,-0.03799
3.9515,0.11169,0.03647,0.04807,-0.17731,-0.0238,-0.04929,-0.01266,0.00076,-0.00946,0.12283,-0.00351,-0.11993,-0.02777,0.0119,0.01114,-0.0383
3.952,0.06973,0.04044,0.14603,-0.05264,-0.02106,-0.04929,-0.01297,0.00031,-0.00549,0.07233,0.04059,-0.2179,-0.02731,0.0116,0.00839,-0.04059
3.9525,0.03143,0.03906,0.18616,0.11566,-0.01984,-0.04929,-0.01266,0.00031,-0.00122,0.02411,0.0708,-0.17731,-0.0267,0.01175,0.00534,-0.04303
3.953,0.00977,0.02213,0.19485,0.25208,-0.01968,-0.04868,-0.01068,-0.00046,-0.0029,0.00076,0.07126,-0.02823,-0.02686,0.01007,0.0058,-0.04288
3.9535,-0.00046,-0.009,0.20477,0.30045,-0.01999,-0.05066,-0.00854,-0.00122,-0.00671,0.00427,0.04333,0.13351,-0.0293,0.00626,0.00885,-0.04242
3.954,-0.01434,-0.04623,0.21637,0.215,-0.02106,-0.05386,-0.00763,-0.00351,-0.00931,0.01404,0.00259,0.2182,-0.03143,0.00153,0.01083,-0.04349
3.9545,-0.04105,-0.07919,0.20569,-0.01923,-0.02182,-0.05554,-0.00763,-0.00565,-0.02197,0.00809,-0.02884,0.15869,-0.03311,-0.00214,0.01068,-0.04623
3.955,-0.07324,-0.09766,0.15381,-0.32364,-0.02121,-0.05402,-0.00946,-0.00702,-0.05463,-0.02197,-0.04318,-0.02731,-0.03372,-0.00717,0.01007,-0.04593
3.9555,-0.09109,-0.09705,0.0621,-0.56046,-0.02182,-0.05112,-0.01266,-0.00793,-0.10651,-0.05859,-0.05188,-0.18921,-0.03647,-0.01297,0.01114,-0.04562
3.956,-0.08194,-0.08331,-0.06332,-0.6488,-0.02029,-0.04807,-0.01709,-0.00885,-0.16418,-0.0798,-0.0647,-0.18112,-0.0386,-0.02014,0.01099,-0.04791
3.9565,-0.06775,-0.06744,-0.21805,-0.57739,-0.01801,-0.04898,-0.01968,-0.01053,-0.20996,-0.0798,-0.07065,-0.0412,-0.0386,-0.02579,0.00748,-0.05173
3.957,-0.08713,-0.05539,-0.36407,-0.33203,-0.0148,-0.0499,-0.02075,-0.01099,-0.23392,-0.07233,-0.05905,0.05737,-0.03525,-0.03128,0.0032,-0.05341
3.9575,-0.14725,-0.04623,-0.44846,0.0209,-0.01251,-0.0528,-0.02151,-0.00977,-0.23636,-0.06546,-0.03616,0.04822,-0.03021,-0.03799,0.00244,-0.05096
3.958,-0.20004,-0.04105,-0.46799,0.25818,-0.01389,-0.05234,-0.02167,-0.00916,-0.22507,-0.05707,-0.02136,0.02808,-0.02655,-0.04532,0.0058,-0.04639
3.9585,-0.19623,-0.03586,-0.45959,0.20447,-0.01862,-0.05157,-0.01953,-0.00992,-0.20493,-0.04868,-0.02167,0.06821,-0.02747,-0.05005,0.01083,-0.04272
3.959,-0.13809,-0.02777,-0.40848,-0.07309,-0.02258,-0.05203,-0.01602,-0.01022,-0.17624,-0.04486,-0.03006,0.11261,-0.0293,-0.05188,0.01343,-0.03922
3.9595,-0.07843,-0.01755,-0.26123,-0.35782,-0.02518,-0.0528,-0.0119,-0.00824,-0.1387,-0.04913,-0.03113,0.07996,-0.03128,-0.04898,0.01526,-0.03784
3.96,-0.05554,-0.00992,-0.03632,-0.45837,-0.02655,-0.05005,-0.01022,-0.00656,-0.09857,-0.05798,-0.0174,-0.0296,-0.03082,-0.04318,0.01404,-0.0383
3.9605,-0.05981,-0.01022,0.16449,-0.2623,-0.02563,-0.04593,-0.01022,-0.00656,-0.06897,-0.06912,-0.0029,-0.14755,-0.03204,-0.03998,0.009,-0.04257
3.961,-0.05157,-0.0177,0.26932,0.14252,-0.02502,-0.0441,-0.01022,-0.00885,-0.05554,-0.08591,-0.00031,-0.2092,-0.03311,-0.04852,0.0032,-0.04532
3.9615,-0.00534,-0.02533,0.2948,0.37491,-0.02411,-0.0444,-0.00946,-0.00854,-0.05447,-0.10956,-0.00336,-0.18524,-0.03326,-0.06561,-0.00061,-0.04532
3.962,0.06058,-0.02716,0.29129,0.07858,-0.02365,-0.04486,-0.00885,-0.00671,-0.05432,-0.13123,-0.00076,-0.05432,-0.03174,-0.07965,-0.00061,-0.04318
3.9625,0.1091,-0.02487,0.28015,-0.60074,-0.02457,-0.04501,-0.00931,-0.00641,-0.05371,-0.14053,0.00351,0.15732,-0.03052,-0.08408,0.00198,-0.04135
3.963,0.12329,-0.02136,0.26001,-1.10565,-0.02533,-0.0473,-0.0116,-0.00671,-0.06805,-0.14038,0.00626,0.34317,-0.02991,-0.0824,0.00458,-0.04196
3.9635,0.11536,-0.02121,0.23209,-1.07559,-0.02869,-0.0528,-0.0116,-0.00641,-0.10391,-0.1416,0.01587,0.38681,-0.02869,-0.07965,0.00839,-0.04349
3.964,0.10468,-0.02411,0.19531,-0.64896,-0.0322,-0.05753,-0.01312,-0.00412,-0.12711,-0.15625,0.03189,0.26871,-0.02594,-0.07401,0.00931,-0.04318
3.9645,0.09705,-0.02731,0.13626,-0.13794,-0.03586,-0.06073,-0.01419,-0.00366,-0.10635,-0.186,0.0412,0.07889,-0.02426,-0.06195,0.00809,-0.04181
3.965,0.08759,-0.03235,0.05356,0.39551,-0.0386,-0.05951,-0.01617,-0.00748,-0.06271,-0.22171,0.03998,-0.06073,-0.02487,-0.0444,0.0058,-0.04135
3.9655,0.07309,-0.04303,-0.03799,1.00647,-0.04074,-0.05783,-0.01663,-0.01129,-0.04761,-0.24658,0.03799,-0.09766,-0.02548,-0.02731,0.00504,-0.04333
3.966,0.05493,-0.0589,-0.11124,1.47415,-0.0415,-0.05676,-0.01602,-0.01129,-0.07889,-0.24506,0.04059,-0.07385,-0.02441,-0.01373,0.00473,-0.04547
3.9665,0.03326,-0.07278,-0.15594,1.42487,-0.03998,-0.05646,-0.01694,-0.00961,-0.13123,-0.22446,0.04059,-0.03433,-0.02243,-0.00381,0.00504,-0.04456
3.967,0.01205,-0.08179,-0.17944,0.87723,-0.04089,-0.05386,-0.01877,-0.00931,-0.17746,-0.20462,0.03418,0.04044,-0.02304,0.00412,0.00458,-0.04318
3.9675,-0.0032,-0.08957,-0.19287,0.30136,-0.04044,-0.05066,-0.01968,-0.00916,-0.21179,-0.18951,0.03647,0.15625,-0.02457,0.01221,0.00366,-0.04211
3.968,-0.00854,-0.09689,-0.19699,0.06165,-0.03799,-0.04776,-0.01755,-0.00931,-0.22888,-0.15991,0.05768,0.21591,-0.02487,0.0209,0.00183,-0.0415
3.9685,-0.00443,-0.09613,-0.19379,0.07782,-0.03555,-0.04608,-0.01556,-0.00702,-0.20737,-0.10361,0.09705,0.13351,-0.02487,0.02716,0.00107,-0.03998
3.969,0.00137,-0.08377,-0.18204,0.08026,-0.03555,-0.04379,-0.01541,-0.00427,-0.13641,-0.0354,0.13809,-0.00946,-0.02441,0.03098,0.00122,-0.03586
3.9695,-0.00076,-0.06714,-0.16708,-0.05035,-0.03616,-0.04135,-0.01633,-0.00168,-0.03769,0.01801,0.16388,-0.06668,-0.02441,0.02701,0.00488,-0.03159
3.97,-0.01358,-0.05478,-0.1532,-0.2504,-0.03738,-0.03708,-0.01572,-0.00107,0.05447,0.04425,0.1622,-0.03265,-0.02533,0.01709,0.00916,-0.03082
3.9705,-0.02777,-0.0499,-0.14603,-0.39505,-0.03647,-0.03525,-0.01312,-0.00244,0.1207,0.04639,0.13367,0.00763,-0.02655,0.00565,0.01053,-0.03571
3.971,-0.03464,-0.04654,-0.14175,-0.38818,-0.03326,-0.03693,-0.01221,-0.00458,0.15656,0.03632,0.09415,0.05569,-0.02853,-0.00366,0.00931,-0.04227
3.9715,-0.0296,-0.04608,-0.13489,-0.21759,-0.02975,-0.03662,-0.01389,-0.00488,0.15457,0.0206,0.06485,0.15091,-0.03159,-0.01083,0.00763,-0.04654
3.972,-0.01709,-0.0528,-0.12497,0.01862,-0.03006,-0.0354,-0.01709,-0.00397,0.11108,0.0,0.05325,0.19913,-0.03387,-0.01755,0.00854,-0.04456
3.9725,-0.00244,-0.06851,-0.11963,0.18051,-0.03586,-0.03571,-0.01923,-0.00488,0.047,-0.02945,0.04715,0.05157,-0.03525,-0.02502,0.01221,-0.04028
3.973,0.01526,-0.08316,-0.12222,0.1976,-0.03845,-0.03922,-0.01831,-0.00702,0.00366,-0.05585,0.02899,-0.22034,-0.03525,-0.03189,0.0145,-0.03723
3.9735,0.03326,-0.0856,-0.12222,0.10376,-0.03754,-0.04318,-0.01633,-0.00809,0.00244,-0.06363,-0.00839,-0.3537,-0.03464,-0.03403,0.01266,-0.03891
3.974,0.04593,-0.07614,-0.10925,0.00839,-0.0354,-0.04547,-0.0145,-0.00702,0.03265,-0.05051,-0.05646,-0.24063,-0.03464,-0.02838,0.00854,-0.04303
3.9745,0.05661,-0.06592,-0.08652,-0.00336,-0.03357,-0.047,-0.01511,-0.00458,0.06546,-0.02716,-0.10391,-0.05905,-0.03387,-0.01495,0.00717,-0.04639
3.975,0.08316,-0.06226,-0.06271,0.03662,-0.03494,-0.04929,-0.01572,-0.00275,0.0856,0.00351,-0.1384,0.00931,-0.03189,-0.00137,0.00763,-0.04715
3.9755,0.12894,-0.06363,-0.04745,0.00275,-0.03601,-0.05096,-0.0145,0.0,0.10452,0.04532,-0.14755,-0.00885,-0.03143,0.0058,0.00687,-0.04608
3.976,0.16724,-0.06836,-0.0383,-0.1445,-0.03571,-0.05234,-0.01266,0.00076,0.14297,0.09796,-0.13,-0.01907,-0.02975,0.00717,0.00687,-0.0444
3.9765,0.16266,-0.07629,-0.03281,-0.26611,-0.03281,-0.05157,-0.01068,0.00122,0.19974,0.14282,-0.09567,-0.04486,-0.02838,0.00748,0.00885,-0.04105
3.977,0.10941,-0.08667,-0.02991,-0.22629,-0.03067,-0.04944,-0.00992,0.00061,0.24414,0.16663,-0.06073,-0.17181,-0.02579,0.0058,0.01266,-0.03769
3.9775,0.03189,-0.09399,-0.03433,-0.08163,-0.03082,-0.04745,-0.00931,0.00122,0.24979,0.17044,-0.0351,-0.36774,-0.02457,-0.00107,0.01465,-0.03738
3.978,-0.04196,-0.09232,-0.04074,0.01663,-0.03357,-0.04593,-0.009,0.00107,0.22919,0.16754,-0.02014,-0.46417,-0.02487,-0.01221,0.01251,-0.04089
3.9785,-0.09796,-0.07767,-0.04593,0.02594,-0.0354,-0.04608,-0.01099,-0.00061,0.22568,0.15854,-0.01617,-0.33691,-0.02731,-0.02106,0.00778,-0.04639
3.979,-0.13092,-0.05463,-0.04379,0.00473,-0.03662,-0.04639,-0.0145,-0.00397,0.26474,0.13763,-0.01968,-0.07385,-0.0293,-0.02228,0.00443,-0.05142
3.9795,-0.13779,-0.03464,-0.03906,-0.0209,-0.03479,-0.04669,-0.0174,-0.00732,0.32501,0.09857,-0.02655,0.09125,-0.02991,-0.0177,0.00488,-0.05249
3.98,-0.12253,-0.02563,-0.04684,-0.07172,-0.03204,-0.04608,-0.01801,-0.00809,0.36362,0.04639,-0.03738,0.03677,-0.02914,-0.01205,0.00534,-0.05234
3.9805,-0.09781,-0.02533,-0.08255,-0.12146,-0.03189,-0.04669,-0.01953,-0.00824,0.35583,-0.0058,-0.05173,-0.12848,-0.02838,-0.00656,0.00763,-0.05157
3.981,-0.07202,-0.02533,-0.14313,-0.09918,-0.03433,-0.04913,-0.0209,-0.00854,0.30609,-0.0473,-0.06958,-0.1915,-0.02899,0.00046,0.01144,-0.04761
3.9815,-0.04593,-0.02075,-0.17075,0.02121,-0.03784,-0.05325,-0.01999,-0.00748,0.23056,-0.07538,-0.09323,-0.02502,-0.02869,0.00732,0.01602,-0.04059
3.982,-0.01862,-0.01068,-0.10071,0.17212,-0.03983,-0.05615,-0.01678,-0.00458,0.14313,-0.09308,-0.12329,0.30762,-0.02792,0.00946,0.01938,-0.03326
3.9825,0.00687,0.00183,0.05554,0.2597,-0.0383,-0.056,-0.01495,-0.00214,0.04074,-0.10361,-0.14984,0.58411,-0.02502,0.00488,0.01892,-0.02975
3.983,0.02243,0.01633,0.20126,0.23331,-0.03708,-0.05463,-0.0145,-0.0029,-0.06897,-0.10834,-0.16357,0.59937,-0.02472,-0.00092,0.01709,-0.0322
3.9835,0.0235,0.02075,0.26611,0.1004,-0.03708,-0.0531,-0.01358,-0.00519,-0.15686,-0.10605,-0.17532,0.36728,-0.02579,-0.0061,0.01297,-0.03784
3.984,0.01617,0.00702,0.27069,-0.10101,-0.0386,-0.05295,-0.01144,-0.00504,-0.19897,-0.09232,-0.20844,0.12451,-0.02808,-0.01175,0.00793,-0.04196
3.9845,0.01236,-0.01724,0.26443,-0.30777,-0.04044,-0.05081,-0.00793,-0.00092,-0.20386,-0.06363,-0.26337,0.05814,-0.03113,-0.01953,0.00427,-0.04349
3.985,0.01343,-0.02792,0.24384,-0.42404,-0.03983,-0.0473,-0.00488,0.00443,-0.19394,-0.02121,-0.29968,0.07217,-0.03326,-0.02853,0.00275,-0.04395
3.9855,0.01541,-0.01404,0.1738,-0.38269,-0.0386,-0.04364,-0.00336,0.00732,-0.17899,0.02518,-0.28641,-0.03357,-0.0354,-0.03479,0.00488,-0.04379
3.986,0.01633,0.00565,0.06271,-0.26489,-0.03937,-0.04379,-0.00473,0.00626,-0.15549,0.06409,-0.2388,-0.24719,-0.03525,-0.0383,0.00702,-0.04257
3.9865,0.01495,0.01083,-0.03342,-0.26398,-0.04105,-0.04578,-0.01038,0.00183,-0.13794,0.08789,-0.17731,-0.39169,-0.03281,-0.03815,0.00687,-0.04028
3.987,0.01007,0.00381,-0.08072,-0.45258,-0.04272,-0.04761,-0.01556,-0.00305,-0.14572,0.10101,-0.09277,-0.39169,-0.03036,-0.03799,0.00595,-0.03983
3.9875,0.00275,-0.00275,-0.0975,-0.62576,-0.0415,-0.04898,-0.01801,-0.00641,-0.17792,0.10651,0.0061,-0.29434,-0.02945,-0.03815,0.00595,-0.04044
3.988,-0.00107,-0.00641,-0.11108,-0.44769,-0.04105,-0.04929,-0.01495,-0.00626,-0.21149,0.10117,0.07538,-0.11963,-0.03296,-0.03799,0.00916,-0.0415
3.9885,-0.00412,-0.01541,-0.13016,0.18265,-0.03983,-0.04868,-0.00992,-0.00519,-0.22385,0.08255,0.0885,0.12726,-0.03662,-0.03571,0.01144,-0.04181
3.989,-0.0177,-0.02853,-0.14648,0.91461,-0.03571,-0.05051,-0.00717,-0.0032,-0.20752,0.05341,0.07233,0.34729,-0.03799,-0.0264,0.01114,-0.04135
3.9895,-0.04456,-0.03769,-0.15472,1.20956,-0.03204,-0.05142,-0.00778,-0.00122,-0.16434,0.0119,0.06302,0.41443,-0.03952,-0.01419,0.00931,-0.04013
3.99,-0.07141,-0.04211,-0.15579,0.85648,-0.03036,-0.0502,-0.01038,0.00137,-0.10025,-0.03021,0.0589,0.29877,-0.0415,-0.00565,0.00748,-0.04074
3.9905,-0.08453,-0.05051,-0.14786,0.18341,-0.03189,-0.04715,-0.01205,0.00122,-0.03326,-0.05585,0.04501,0.08652,-0.0444,-0.00275,0.00702,-0.04196
3.991,-0.08682,-0.06653,-0.12817,-0.33676,-0.03189,-0.04379,-0.01373,-0.00092,0.01297,-0.05554,0.02853,-0.08545,-0.04623,-0.00336,0.00473,-0.04288
3.9915,-0.0885,-0.08743,-0.09918,-0.57266,-0.03174,-0.04303,-0.01526,-0.00488,0.03036,-0.04227,0.02914,-0.13153,-0.04623,-0.00443,0.00275,-0.04486
3.992,-0.0885,-0.10773,-0.07614,-0.68802,-0.03052,-0.04532,-0.0177,-0.00854,0.03677,-0.03403,0.04807,-0.08438,-0.04471,-0.00015,0.00198,-0.04791
3.9925,-0.07446,-0.11719,-0.07675,-0.74158,-0.02899,-0.04684,-0.02121,-0.01007,0.05524,-0.03448,0.07462,-0.03784,-0.04135,0.00916,0.00305,-0.04974
3.993,-0.04288,-0.10803,-0.10406,-0.54688,-0.02594,-0.04456,-0.0235,-0.00916,0.08453,-0.03265,0.10574,0.00488,-0.03693,0.01923,0.0029,-0.04868
3.9935,-0.00748,-0.08408,-0.13443,0.01938,-0.0238,-0.04227,-0.02197,-0.0061,0.09628,-0.02151,0.13977,0.12344,-0.03036,0.02594,0.00153,-0.04593
3.994,0.01053,-0.05753,-0.14206,0.68024,-0.02319,-0.04105,-0.0174,-0.00153,0.06683,-0.0061,0.16541,0.26413,-0.02365,0.02594,0.00137,-0.04456
3.9945,-0.00092,-0.0354,-0.12329,0.97717,-0.0238,-0.04074,-0.01328,0.00046,0.00061,0.00031,0.17288,0.23285,-0.01694,0.01907,0.00275,-0.04349
3.995,-0.02533,-0.0235,-0.09247,0.76797,-0.02411,-0.04089,-0.01373,-0.00107,-0.07385,-0.009,0.16052,0.00626,-0.01236,0.00885,0.00504,-0.04166
3.9955,-0.03204,-0.02701,-0.06088,0.35889,-0.02396,-0.03922,-0.01709,-0.0058,-0.13321,-0.03113,0.13947,-0.1712,-0.01709,-0.00153,0.00793,-0.04089
3.996,-0.01144,-0.04456,-0.03418,0.0943,-0.02045,-0.03937,-0.02182,-0.00931,-0.17136,-0.05814,0.1178,-0.12085,-0.03067,-0.0116,0.01099,-0.03891
3.9965,0.01175,-0.06149,-0.01266,0.00198,-0.01526,-0.03754,-0.02304,-0.01099,-0.19318,-0.08179,0.08942,0.03342,-0.04547,-0.01999,0.01328,-0.03845
3.997,0.00992,-0.06073,-0.01129,-0.09979,-0.01083,-0.03387,-0.02121,-0.0087,-0.19669,-0.09827,0.047,0.08575,-0.05035,-0.02716,0.01434,-0.03891
3.9975,-0.02258,-0.04044,-0.05768,-0.29099,-0.00778,-0.03143,-0.01709,-0.00534,-0.17609,-0.09964,-0.00549,0.01541,-0.04669,-0.03082,0.0116,-0.04227
3.998,-0.06393,-0.01389,-0.15579,-0.45807,-0.00687,-0.03479,-0.01419,-0.00198,-0.12634,-0.08087,-0.05341,-0.05524,-0.04227,-0.03265,0.01129,-0.047
3.9985,-0.08835,0.00305,-0.26535,-0.46936,-0.00626,-0.03845,-0.01312,0.0,-0.04547,-0.03815,-0.08881,-0.07675,-0.04257,-0.0322,0.00961,-0.04745
3.999,-0.09003,0.00183,-0.31616,-0.32394,-0.00381,-0.03922,-0.01328,-0.00015,0.056,0.02548,-0.1149,-0.1088,-0.04852,-0.02701,0.01022,-0.0441
3.9995,-0.07767,-0.01358,-0.2478,-0.11719,0.0,-0.03799,-0.01282,-0.00275,0.15411,0.09476,-0.14313,-0.18906,-0.0618,-0.01434,0.01221,-0.03891
4.0,-0.05341,-0.02975,-0.06561,0.05875,0.00076,-0.03769,-0.01251,-0.00519,0.22781,0.14496,-0.17303,-0.27618,-0.07935,0.00519,0.01358,-0.03845
4.0005,-0.00992,-0.03769,0.13779,0.14496,-0.00244,-0.03876,-0.01205,-0.00412,0.2684,0.16495,-0.18936,-0.35217,-0.08774,0.02563,0.0119,-0.04105
4.001,0.05646,-0.03952,0.24658,0.1239,-0.00778,-0.0415,-0.01129,0.0,0.27252,0.16129,-0.17197,-0.47363,-0.07813,0.0412,0.0087,-0.04303
4.0015,0.12558,-0.04318,0.22522,0.05112,-0.01495,-0.04227,-0.01083,0.00229,0.23788,0.14923,-0.12329,-0.63477,-0.06058,0.04654,0.00778,-0.04303
4.002,0.17258,-0.05325,0.13245,0.00626,-0.02686,-0.04013,-0.01099,0.00031,0.17639,0.1355,-0.07034,-0.66956,-0.04868,0.03418,0.00946,-0.04166
4.0025,0.18509,-0.06393,0.0444,-0.02274,-0.03983,-0.03891,-0.01266,-0.00229,0.11749,0.12085,-0.03784,-0.42404,-0.04761,-0.00153,0.01129,-0.0415
4.003,0.16266,-0.06516,-0.009,-0.0946,-0.04929,-0.03815,-0.01541,-0.00275,0.07935,0.10376,-0.03098,0.0206,-0.04959,-0.04913,0.01083,-0.04105
4.0035,0.11597,-0.05646,-0.03677,-0.14999,-0.05066,-0.03937,-0.0174,-0.00046,0.04852,0.08209,-0.0444,0.41977,-0.0502,-0.08759,0.00931,-0.03998
4.004,0.06897,-0.04837,-0.0795,-0.05966,-0.04425,-0.04044,-0.01709,0.00107,0.0087,0.05463,-0.07111,0.62927,-0.04944,-0.103,0.00778,-0.03952
4.0045,0.04623,-0.05295,-0.18768,0.14587,-0.03601,-0.04288,-0.01587,0.00168,-0.02289,0.02457,-0.09262,0.68893,-0.04974,-0.09827,0.00656,-0.04028
4.005,0.047,-0.06653,-0.34637,0.25879,-0.03082,-0.04669,-0.01404,0.00046,-0.01816,-0.00595,-0.08942,0.68298,-0.05127,-0.0882,0.00641,-0.04318
4.0055,0.04852,-0.08179,-0.42374,0.13382,-0.03021,-0.05035,-0.01053,0.00061,0.01328,-0.03143,-0.06058,0.59738,-0.05066,-0.07965,0.00381,-0.04562
4.006,0.03006,-0.10315,-0.31219,-0.1712,-0.02792,-0.05447,-0.00626,0.00153,0.02075,-0.05692,-0.02365,0.40985,-0.0473,-0.07294,0.00061,-0.04715
4.0065,-0.00153,-0.13184,-0.06744,-0.47989,-0.02762,-0.05875,-0.0032,0.00275,-0.02655,-0.08194,0.01434,0.22598,-0.04181,-0.06561,-0.00153,-0.04654
4.007,-0.02853,-0.15366,0.13916,-0.61646,-0.02625,-0.06165,-0.00458,0.00259,-0.11765,-0.11124,0.05905,0.18692,-0.03616,-0.05569,0.00153,-0.04364
4.0075,-0.03632,-0.14389,0.22522,-0.45898,-0.02686,-0.05997,-0.01114,-0.00061,-0.21957,-0.14038,0.09506,0.23178,-0.03296,-0.04303,0.00519,-0.04105
4.008,-0.03113,-0.09933,0.2356,-0.0267,-0.0267,-0.05585,-0.01892,-0.00595,-0.31433,-0.17059,0.09247,0.15518,-0.0322,-0.03403,0.00809,-0.04013
4.0085,-0.02975,-0.04272,0.23727,0.44662,-0.03036,-0.05402,-0.02304,-0.009,-0.39276,-0.19577,0.04471,-0.07339,-0.03235,-0.03067,0.00565,-0.04105
4.009,-0.04196,0.00153,0.2478,0.67596,-0.04288,-0.05356,-0.02274,-0.009,-0.43701,-0.21805,-0.01404,-0.24216,-0.03235,-0.03113,0.0032,-0.04074
4.0095,-0.05737,0.02487,0.25528,0.60257,-0.0618,-0.05432,-0.01999,-0.00778,-0.43015,-0.23651,-0.05508,-0.22522,-0.03204,-0.03143,0.00214,-0.03799
4.01,-0.05417,0.03021,0.24429,0.4425,-0.07721,-0.05417,-0.01907,-0.0061,-0.37872,-0.25253,-0.06699,-0.16525,-0.03326,-0.03128,0.00504,-0.03616
4.0105,-0.02487,0.02274,0.19516,0.42053,-0.07828,-0.05371,-0.02075,-0.00717,-0.30685,-0.26352,-0.05096,-0.23239,-0.03525,-0.03113,0.00732,-0.03876
4.011,0.01358,0.01221,0.10101,0.53726,-0.06912,-0.05188,-0.02228,-0.00885,-0.23193,-0.25894,-0.01434,-0.36011,-0.03601,-0.02914,0.00656,-0.04272
4.0115,0.03754,0.00732,-0.01938,0.6015,-0.0592,-0.0499,-0.02151,-0.00992,-0.15884,-0.23193,0.02106,-0.38422,-0.03403,-0.02289,0.00336,-0.04532
4.012,0.03448,0.00931,-0.13229,0.42023,-0.05508,-0.04822,-0.01968,-0.01038,-0.09125,-0.19379,0.0322,-0.2858,-0.02945,-0.01495,0.0,-0.04654
4.0125,0.00702,0.0119,-0.21973,-0.02869,-0.05585,-0.04776,-0.01877,-0.009,-0.04196,-0.16312,0.01053,-0.16312,-0.02197,-0.00992,0.00122,-0.04715
4.013,-0.03922,0.01053,-0.26566,-0.5452,-0.05753,-0.04898,-0.01801,-0.0061,-0.02197,-0.15701,-0.0293,-0.07141,-0.01068,-0.00763,0.00519,-0.04578
4.0135,-0.09506,0.00702,-0.25604,-0.87296,-0.05692,-0.05234,-0.01434,-0.00443,-0.02502,-0.16922,-0.05875,0.00626,0.00443,-0.00687,0.00992,-0.0415
4.014,-0.14191,0.00305,-0.19409,-0.87372,-0.05432,-0.05524,-0.0087,-0.00488,-0.03769,-0.17166,-0.06134,0.07919,0.01526,-0.00946,0.01404,-0.03571
4.0145,-0.15915,-0.0032,-0.12451,-0.57709,-0.05188,-0.05692,-0.00702,-0.00702,-0.05524,-0.1413,-0.04166,0.16556,0.01434,-0.0145,0.01495,-0.03433
4.015,-0.14511,-0.01373,-0.08484,-0.17654,-0.04898,-0.05722,-0.01007,-0.00916,-0.07919,-0.08209,-0.00137,0.29449,0.00397,-0.01694,0.01282,-0.03662
4.0155,-0.11734,-0.02686,-0.06622,0.01419,-0.04593,-0.05692,-0.01587,-0.00961,-0.10529,-0.02396,0.06592,0.39658,-0.00458,-0.01251,0.00961,-0.04135
4.016,-0.09689,-0.04501,-0.04532,-0.20401,-0.04074,-0.0589,-0.01907,-0.00839,-0.12283,0.01556,0.14175,0.32028,-0.00656,-0.00549,0.00778,-0.04547
4.0165,-0.08881,-0.06546,-0.01266,-0.64987,-0.03708,-0.06271,-0.01877,-0.00671,-0.11414,0.04242,0.17334,0.06912,-0.00595,-0.00122,0.00702,-0.04807
4.017,-0.08453,-0.07721,0.0354,-0.89279,-0.03616,-0.0647,-0.01617,-0.00488,-0.06256,0.05875,0.13428,-0.13184,-0.00687,-0.00244,0.00397,-0.04929
4.0175,-0.07736,-0.0705,0.1088,-0.67215,-0.03845,-0.06287,-0.0145,-0.00565,0.0351,0.05829,0.07233,-0.10803,-0.00931,-0.0061,0.00061,-0.05081
4.018,-0.07355,-0.04944,0.19333,-0.13702,-0.0415,-0.05753,-0.01526,-0.00717,0.16205,0.02853,0.05203,0.06699,-0.01236,-0.01068,-0.00092,-0.05035
4.0185,-0.08438,-0.02625,0.23849,0.32227,-0.04181,-0.05264,-0.01541,-0.00854,0.28076,-0.02045,0.08026,0.2092,-0.01556,-0.01526,-0.00046,-0.04883
4.019,-0.10025,-0.00702,0.21027,0.42389,-0.03983,-0.04898,-0.01572,-0.00671,0.34927,-0.05829,0.11749,0.21988,-0.02075,-0.01862,0.00259,-0.04639
4.0195,-0.09445,0.00565,0.13153,0.17761,-0.03723,-0.04684,-0.01678,-0.00595,0.35309,-0.0589,0.13504,0.10193,-0.02548,-0.0209,0.0058,-0.04242
4.02,-0.05676,0.01007,0.04868,-0.1828,-0.03464,-0.04593,-0.01801,-0.00641,0.30731,-0.02579,0.13199,-0.09354,-0.02838,-0.02289,0.00977,-0.03708
4.0205,-0.01694,0.00671,-0.0206,-0.37567,-0.0325,-0.0441,-0.01694,-0.00778,0.23941,0.01556,0.1181,-0.25711,-0.03052,-0.02319,0.01312,-0.03525
4.021,-0.00977,0.00427,-0.0853,-0.19241,-0.03189,-0.0412,-0.01358,-0.00809,0.16602,0.0415,0.10132,-0.23758,-0.03387,-0.02274,0.01541,-0.03677
4.0215,-0.02228,0.01221,-0.14053,0.34195,-0.02991,-0.03952,-0.00961,-0.00656,0.08698,0.05341,0.07874,-0.01617,-0.0351,-0.01968,0.01358,-0.03952
4.022,-0.01114,0.02747,-0.16525,0.85785,-0.02747,-0.03815,-0.00763,-0.00381,0.00381,0.06943,0.04395,0.15533,-0.03357,-0.01526,0.01144,-0.04181
4.0225,0.04044,0.03372,-0.1683,0.92072,-0.02518,-0.03632,-0.00809,-0.00198,-0.06088,0.10391,-0.0032,0.03906,-0.03143,-0.01312,0.01038,-0.0415
4.023,0.10773,0.02502,-0.19714,0.50934,-0.02335,-0.03601,-0.01022,-0.00168,-0.07111,0.15411,-0.04883,-0.21896,-0.03021,-0.01328,0.01205,-0.03998
4.0235,0.16083,0.00732,-0.26749,0.04868,-0.02411,-0.03723,-0.01312,-0.00351,-0.02014,0.19485,-0.07248,-0.31021,-0.03036,-0.01694,0.01282,-0.04089
4.024,0.18692,-0.01633,-0.28687,-0.10513,-0.02777,-0.03891,-0.01587,-0.00549,0.04822,0.20767,-0.06439,-0.21347,-0.0296,-0.02121,0.01282,-0.04364
4.0245,0.1857,-0.04898,-0.1532,0.00504,-0.0325,-0.04059,-0.0174,-0.00732,0.09033,0.19516,-0.03342,-0.12909,-0.02655,-0.02502,0.01007,-0.0444
4.025,0.16296,-0.07996,0.10605,0.15228,-0.0351,-0.04242,-0.01831,-0.00824,0.09445,0.1767,0.0,-0.12741,-0.0238,-0.02838,0.00687,-0.04318
4.0255,0.13351,-0.09476,0.33539,0.21729,-0.03311,-0.04196,-0.01877,-0.00961,0.06912,0.15884,0.01755,-0.12451,-0.02319,-0.02945,0.00427,-0.04272
4.026,0.10742,-0.09171,0.4184,0.2005,-0.02747,-0.04013,-0.01862,-0.00992,0.01266,0.13626,0.00519,-0.09216,-0.02289,-0.03174,0.00153,-0.0441
4.0265,0.07462,-0.08804,0.36774,0.11963,-0.02396,-0.04013,-0.01648,-0.00854,-0.07065,0.10376,-0.03647,-0.07858,-0.02335,-0.03387,0.00046,-0.04669
4.027,0.02686,-0.09933,0.26062,-0.0032,-0.02075,-0.04059,-0.01373,-0.00641,-0.14862,0.06409,-0.08636,-0.08469,-0.02426,-0.03357,0.00092,-0.04639
4.0275,-0.02213,-0.12482,0.14679,-0.1181,-0.01785,-0.04059,-0.01068,-0.00351,-0.17548,0.01709,-0.11597,-0.05798,-0.02579,-0.02975,0.0032,-0.04364
4.028,-0.05005,-0.15167,0.03616,-0.18509,-0.01404,-0.03876,-0.00885,-0.00061,-0.13763,-0.03372,-0.11475,0.00885,-0.02808,-0.02609,0.00412,-0.04211
4.0285,-0.05051,-0.16708,-0.05981,-0.21713,-0.0119,-0.03662,-0.00717,0.00031,-0.06409,-0.07477,-0.09552,0.06165,-0.02884,-0.02289,0.00275,-0.0444
4.029,-0.03647,-0.1564,-0.11398,-0.25772,-0.01175,-0.0351,-0.00854,-0.00107,0.00275,-0.09201,-0.0795,0.05768,-0.02975,-0.02136,0.00244,-0.04501
4.0295,-0.01251,-0.11429,-0.11002,-0.28793,-0.01282,-0.03433,-0.01038,-0.00336,0.03769,-0.08972,-0.0705,-0.00519,-0.03143,-0.01999,0.00443,-0.04333
4.03,0.02625,-0.06134,-0.07263,-0.22476,-0.01312,-0.03601,-0.01129,-0.00473,0.03204,-0.08331,-0.06088,-0.09842,-0.03128,-0.01892,0.00916,-0.04013
4.0305,0.07813,-0.02411,-0.04639,-0.02823,-0.01343,-0.03784,-0.01129,-0.00412,-0.00702,-0.08499,-0.05432,-0.14709,-0.02945,-0.01419,0.0116,-0.0386
4.031,0.1181,-0.01266,-0.0502,0.21851,-0.01404,-0.03738,-0.01282,-0.00214,-0.05692,-0.09552,-0.06561,-0.05753,-0.02838,-0.0058,0.01022,-0.03876
4.0315,0.12039,-0.01038,-0.07141,0.36285,-0.01465,-0.0383,-0.01602,-0.00137,-0.08926,-0.1149,-0.09064,0.18326,-0.02762,0.00214,0.00916,-0.03799
4.032,0.08942,0.00137,-0.09506,0.29022,-0.01465,-0.04227,-0.01892,-0.00168,-0.08881,-0.13885,-0.10086,0.46295,-0.02884,0.00916,0.00885,-0.03723
4.0325,0.05524,0.02853,-0.11765,0.02548,-0.0148,-0.04852,-0.01984,-0.00198,-0.06409,-0.16846,-0.08026,0.5896,-0.0293,0.01709,0.01144,-0.03693
4.033,0.03708,0.05615,-0.13397,-0.20905,-0.01709,-0.05112,-0.02075,-0.00183,-0.0293,-0.19684,-0.04745,0.44037,-0.02975,0.02457,0.01434,-0.03693
4.0335,0.03189,0.06241,-0.13138,-0.17609,-0.01862,-0.05081,-0.02121,-0.00183,0.0119,-0.215,-0.03387,0.12421,-0.03082,0.02472,0.01526,-0.03799
4.034,0.02945,0.04227,-0.1123,0.08179,-0.01968,-0.04807,-0.01953,-0.00122,0.06195,-0.20981,-0.04852,-0.08698,-0.03067,0.0174,0.01358,-0.0386
4.0345,0.02167,0.01236,-0.12314,0.24704,-0.01938,-0.04471,-0.01617,0.0,0.11154,-0.1825,-0.06836,-0.05264,-0.02945,0.00519,0.00946,-0.0412
4.035,0.00259,-0.009,-0.21027,0.08438,-0.01846,-0.04349,-0.01419,0.00137,0.14175,-0.14511,-0.06729,0.09628,-0.02945,-0.01175,0.00427,-0.04684
4.0355,-0.03159,-0.01709,-0.3389,-0.32227,-0.01907,-0.04272,-0.01297,0.00259,0.1413,-0.10468,-0.04547,0.13885,-0.03113,-0.03296,0.00275,-0.05066
4.036,-0.07889,-0.02167,-0.3624,-0.72388,-0.01984,-0.04257,-0.01205,0.00366,0.1152,-0.04929,-0.0235,0.0145,-0.03448,-0.05554,0.00168,-0.04974
4.0365,-0.13336,-0.02914,-0.19882,-0.9465,-0.02136,-0.04486,-0.01068,0.00336,0.07889,0.03326,-0.0206,-0.14801,-0.03677,-0.07156,0.00214,-0.04654
4.037,-0.18158,-0.03906,0.01389,-0.91949,-0.02502,-0.04639,-0.01038,0.00168,0.04791,0.13214,-0.02579,-0.20813,-0.03738,-0.07339,0.00397,-0.04532
4.0375,-0.19852,-0.04395,0.04074,-0.56198,-0.02838,-0.04578,-0.0119,-0.00031,0.02502,0.21286,-0.01755,-0.16022,-0.03677,-0.06287,0.0061,-0.04501
4.038,-0.16464,-0.04456,-0.13474,0.17548,-0.02991,-0.04471,-0.01434,-0.00092,0.00519,0.25513,0.00351,-0.10223,-0.0354,-0.04745,0.00717,-0.04425
4.0385,-0.09232,-0.05188,-0.27191,1.02997,-0.02975,-0.04578,-0.01709,-0.00015,-0.0145,0.2565,0.00183,-0.09689,-0.03357,-0.03586,0.00702,-0.04272
4.039,-0.02243,-0.07004,-0.18753,1.44272,-0.02899,-0.04608,-0.01862,0.00122,-0.02869,0.22964,-0.04745,-0.11337,-0.03143,-0.02823,0.00381,-0.04333
4.0395,0.01541,-0.09033,0.0296,1.08002,-0.02975,-0.04501,-0.01907,0.00229,-0.03708,0.18356,-0.11856,-0.09857,-0.03098,-0.02426,0.00198,-0.04807
4.04,0.02701,-0.1004,0.17303,0.2832,-0.03006,-0.04379,-0.01587,0.0032,-0.04761,0.12024,-0.15747,-0.04608,-0.03159,-0.01938,0.00168,-0.05249
4.0405,0.03937,-0.10071,0.1619,-0.27435,-0.0296,-0.04623,-0.01282,0.00259,-0.06226,0.03998,-0.14114,0.01389,-0.02975,-0.0119,0.00336,-0.05325
4.041,0.06027,-0.09796,0.04105,-0.32516,-0.02899,-0.04807,-0.01022,0.00122,-0.07751,-0.04288,-0.09232,0.06622,-0.0264,-0.00275,0.00534,-0.04929
4.0415,0.07874,-0.1001,-0.09598,-0.16281,-0.02945,-0.04837,-0.01007,0.0,-0.09109,-0.10895,-0.04425,0.11917,-0.02304,0.00504,0.00824,-0.04349
4.042,0.08347,-0.10681,-0.16068,-0.1329,-0.03281,-0.04822,-0.00931,0.00046,-0.10696,-0.14481,-0.01419,0.16815,-0.02106,0.01038,0.0116,-0.03769
4.0425,0.07858,-0.11215,-0.11581,-0.22797,-0.03448,-0.05051,-0.00748,0.00275,-0.12527,-0.15091,-0.00549,0.15564,-0.02197,0.01404,0.01526,-0.0351
4.043,0.06958,-0.11139,-0.02029,-0.24811,-0.03555,-0.05096,-0.00504,0.00519,-0.1358,-0.13687,-0.01236,0.0145,-0.02502,0.01907,0.01816,-0.0354
4.0435,0.05997,-0.10803,0.0412,-0.16113,-0.03616,-0.0499,-0.0058,0.0058,-0.11795,-0.11642,-0.01694,-0.22247,-0.02716,0.02258,0.01755,-0.03815
4.044,0.04807,-0.1091,0.04364,-0.11963,-0.0351,-0.04974,-0.01129,0.00259,-0.06256,-0.08362,-0.01556,-0.39734,-0.02914,0.02197,0.01373,-0.04257
4.0445,0.02716,-0.11414,0.02243,-0.21179,-0.0354,-0.05005,-0.01938,-0.00397,0.01328,-0.03189,-0.02014,-0.37094,-0.03235,0.01495,0.01053,-0.04654
4.045,-0.00839,-0.11124,0.00443,-0.31494,-0.03525,-0.05234,-0.02502,-0.00839,0.08881,0.03326,-0.04272,-0.16159,-0.03555,0.00259,0.01099,-0.04547
4.0455,-0.0473,-0.09369,-0.01083,-0.21667,-0.03494,-0.05432,-0.02594,-0.01022,0.15717,0.09766,-0.06927,0.08209,-0.03784,-0.01434,0.01175,-0.04227
4.046,-0.07248,-0.06775,-0.02487,0.08652,-0.03494,-0.05478,-0.02182,-0.00763,0.21317,0.14389,-0.07233,0.21866,-0.03906,-0.03387,0.01175,-0.04242
4.0465,-0.06851,-0.04532,-0.03113,0.30182,-0.03525,-0.05554,-0.01648,-0.0029,0.23514,0.16403,-0.0473,0.19516,-0.04074,-0.05295,0.00702,-0.04547
4.047,-0.04074,-0.03143,-0.02991,0.20142,-0.03601,-0.05859,-0.01312,-0.00015,0.20081,0.16342,-0.0206,0.05127,-0.04578,-0.06821,0.00504,-0.04837
4.0475,-0.00702,-0.01999,-0.03052,-0.02869,-0.03937,-0.06195,-0.01358,-0.00092,0.11703,0.14679,-0.01297,-0.10025,-0.05112,-0.07385,0.00641,-0.04639
4.048,0.01541,-0.00427,-0.03708,-0.0206,-0.04089,-0.06439,-0.01572,-0.00366,0.01999,0.11658,-0.00793,-0.15915,-0.0592,-0.07034,0.0087,-0.04257
4.0485,0.01984,0.02014,-0.04608,0.24261,-0.04013,-0.06439,-0.01831,-0.00488,-0.05981,0.08041,0.0116,-0.12177,-0.06821,-0.06088,0.01007,-0.0386
4.049,0.00595,0.04959,-0.05356,0.41962,-0.03891,-0.06027,-0.01831,-0.00641,-0.12909,0.04791,0.03693,-0.05783,-0.07233,-0.04929,0.00992,-0.03555
4.0495,-0.01694,0.07095,-0.06119,0.31784,-0.03662,-0.05447,-0.01663,-0.0061,-0.21179,0.02197,0.04807,0.00305,-0.06622,-0.03906,0.01053,-0.03586
4.05,-0.02975,0.07233,-0.08087,0.1178,-0.03265,-0.04974,-0.01511,-0.00519,-0.30182,-0.00214,0.0386,0.11017,-0.05447,-0.03143,0.01144,-0.03983
4.0505,-0.01648,0.05219,-0.14206,0.04684,-0.02808,-0.04669,-0.01312,-0.00305,-0.36697,-0.02762,0.0177,0.27954,-0.04578,-0.02899,0.00946,-0.04425
4.051,0.01831,0.01801,-0.25543,0.09293,-0.02426,-0.04898,-0.01007,-0.00031,-0.38406,-0.05615,0.00183,0.39932,-0.04196,-0.0293,0.00565,-0.0473
4.0515,0.04684,-0.02213,-0.35431,0.12573,-0.0238,-0.05157,-0.00778,-0.00031,-0.36057,-0.09491,0.00244,0.30441,-0.04135,-0.03098,0.00351,-0.04456
4.052,0.05142,-0.05341,-0.33936,0.1001,-0.02533,-0.05478,-0.00702,-0.00229,-0.30838,-0.14618,0.00809,-0.01617,-0.04074,-0.03296,0.0058,-0.03967
4.0525,0.03616,-0.06699,-0.19562,0.04608,-0.02716,-0.05554,-0.00931,-0.00595,-0.23529,-0.19135,-0.00885,-0.32745,-0.03983,-0.03113,0.0087,-0.03662
4.053,0.01526,-0.0647,-0.0206,-0.02701,-0.02838,-0.05463,-0.01144,-0.00809,-0.14938,-0.21393,-0.04059,-0.38483,-0.03632,-0.02655,0.01038,-0.03769
4.0535,-0.00626,-0.05661,0.08865,-0.11993,-0.03021,-0.05386,-0.01282,-0.0087,-0.06302,-0.21133,-0.05203,-0.21988,-0.03357,-0.01984,0.01068,-0.04059
4.054,-0.02502,-0.04532,0.12039,-0.18921,-0.0322,-0.05249,-0.01511,-0.01022,0.00824,-0.19974,-0.02808,-0.06821,-0.03281,-0.01434,0.00763,-0.04456
4.0545,-0.02914,-0.02853,0.1152,-0.18402,-0.03433,-0.05356,-0.01785,-0.01404,0.04883,-0.18066,0.00381,-0.03983,-0.03464,-0.00931,0.00519,-0.04684
4.055,-0.00793,-0.01358,0.09048,-0.11642,-0.03387,-0.05585,-0.01923,-0.01648,0.05615,-0.14557,0.01297,-0.05203,-0.03555,-0.00641,0.00412,-0.04532
4.0555,0.0209,-0.00916,0.03113,-0.05325,-0.03403,-0.05646,-0.01648,-0.01556,0.04211,-0.08896,0.00519,-0.07187,-0.03418,-0.00717,0.00427,-0.0415
4.056,0.02991,-0.01755,-0.10269,-0.0351,-0.03433,-0.05402,-0.01221,-0.01251,0.02472,-0.02991,0.00275,-0.1828,-0.03067,-0.01221,0.0032,-0.03799
4.0565,0.01358,-0.02853,-0.29495,-0.03693,-0.03357,-0.05035,-0.00916,-0.01053,0.0209,0.01266,0.01205,-0.3363,-0.02853,-0.01663,0.0032,-0.0383
4.057,-0.00809,-0.03387,-0.42007,-0.03052,-0.03174,-0.04898,-0.00931,-0.01007,0.05066,0.03464,0.02686,-0.28564,-0.0264,-0.01831,0.00565,-0.03937
4.0575,-0.01999,-0.03967,-0.32928,-0.02853,-0.02914,-0.04761,-0.01038,-0.00824,0.11536,0.05035,0.04669,0.08316,-0.02319,-0.0177,0.00961,-0.0386
4.058,-0.02899,-0.05127,-0.0267,-0.05371,-0.02777,-0.04593,-0.00961,-0.00565,0.1918,0.06439,0.07309,0.49164,-0.01938,-0.01694,0.01343,-0.0351
4.0585,-0.05112,-0.06042,0.2916,-0.09689,-0.02884,-0.0444,-0.00839,-0.00336,0.25146,0.06088,0.10483,0.55786,-0.01617,-0.01556,0.01495,-0.03464
4.059,-0.08957,-0.05981,0.43152,-0.12314,-0.03143,-0.04517,-0.00854,-0.0029,0.28061,0.02731,0.13641,0.25681,-0.01404,-0.01251,0.01404,-0.03952
4.0595,-0.1265,-0.05676,0.37537,-0.12329,-0.03403,-0.04654,-0.01083,-0.0032,0.2739,-0.0235,0.15518,-0.06485,-0.01251,-0.00946,0.01129,-0.04456
4.06,-0.14328,-0.06104,0.23346,-0.13855,-0.03418,-0.04761,-0.01648,-0.00458,0.21805,-0.06622,0.13031,-0.12756,-0.01022,-0.00549,0.00946,-0.04593
4.0605,-0.14435,-0.07172,0.0946,-0.22598,-0.03387,-0.04684,-0.02136,-0.00671,0.11078,-0.09079,0.05142,0.00076,-0.01114,-0.00351,0.00946,-0.04395
4.061,-0.14389,-0.07797,-0.02151,-0.36423,-0.03296,-0.04593,-0.02319,-0.00702,-0.02167,-0.09598,-0.03433,0.0853,-0.01938,-0.00397,0.00992,-0.04227
4.0615,-0.14465,-0.07202,-0.11383,-0.43488,-0.03311,-0.04578,-0.02045,-0.0061,-0.13702,-0.07477,-0.07355,0.0499,-0.03571,-0.00534,0.01083,-0.04105
4.062,-0.13199,-0.05112,-0.16983,-0.33905,-0.03265,-0.0473,-0.0177,-0.00351,-0.2124,-0.02594,-0.07401,0.02045,-0.05554,-0.00504,0.01022,-0.03967
4.0625,-0.0972,-0.02274,-0.19104,-0.10712,-0.03342,-0.05081,-0.01541,-0.00092,-0.25436,0.02472,-0.06348,0.09781,-0.06775,-0.0029,0.00961,-0.03815
4.063,-0.04425,-0.00168,-0.21042,0.14786,-0.03403,-0.05432,-0.0145,0.00183,-0.27969,0.04395,-0.03128,0.20721,-0.06332,0.00046,0.00885,-0.03754
4.0635,0.01358,0.0029,-0.25848,0.33051,-0.03464,-0.05386,-0.01312,0.00351,-0.29495,0.01862,0.03769,0.22705,-0.05096,0.00259,0.00793,-0.03708
4.064,0.0618,-0.00351,-0.31097,0.37857,-0.03693,-0.05035,-0.0116,0.00214,-0.30182,-0.02441,0.11017,0.15701,-0.04303,0.00488,0.00671,-0.03845
4.0645,0.08484,-0.01282,-0.30792,0.23605,-0.03845,-0.04929,-0.01099,-0.00031,-0.30197,-0.05539,0.13519,0.07858,-0.04242,0.0087,0.00504,-0.04013
4.065,0.07751,-0.02457,-0.22797,-0.08972,-0.03952,-0.05157,-0.0116,-0.00061,-0.2948,-0.06409,0.11536,0.02808,-0.04425,0.01343,0.00488,-0.04242
4.0655,0.05234,-0.03998,-0.11536,-0.44922,-0.03876,-0.05493,-0.0119,0.00244,-0.27542,-0.0647,0.08667,-0.00641,-0.04227,0.01663,0.00565,-0.04318
4.066,0.03372,-0.05341,-0.02258,-0.61569,-0.03738,-0.05417,-0.00977,0.00473,-0.23346,-0.0679,0.06516,-0.0206,-0.04013,0.01801,0.00381,-0.0415
4.0665,0.03174,-0.05951,0.04181,-0.49362,-0.03296,-0.05051,-0.00671,0.00351,-0.16083,-0.07965,0.03754,-0.00183,-0.04196,0.01938,0.00336,-0.03891
4.067,0.03525,-0.05753,0.09659,-0.21072,-0.02884,-0.04684,-0.00473,0.00168,-0.05859,-0.09506,-0.00778,0.02075,-0.04593,0.01923,0.00275,-0.03998
4.0675,0.02487,-0.05051,0.14481,0.03571,-0.02625,-0.04211,-0.00458,0.00183,0.06195,-0.11154,-0.0621,0.00824,-0.04944,0.01343,0.00305,-0.04562
4.068,-0.00381,-0.04242,0.17303,0.17609,-0.02411,-0.03555,-0.00534,0.00275,0.17715,-0.1265,-0.1123,-0.02762,-0.05157,0.00122,0.00198,-0.04974
4.0685,-0.03693,-0.03769,0.17105,0.26962,-0.02441,-0.03113,-0.00717,0.00244,0.25772,-0.13168,-0.14954,-0.04272,-0.05081,-0.01495,0.00122,-0.04883
4.069,-0.05661,-0.03693,0.14572,0.37354,-0.02747,-0.02808,-0.00839,-0.00107,0.29175,-0.11673,-0.16632,-0.02548,-0.04807,-0.02975,0.00397,-0.04456
4.0695,-0.05341,-0.03815,0.11169,0.45547,-0.03128,-0.02472,-0.00961,-0.00427,0.289,-0.07431,-0.14481,-0.01358,-0.04562,-0.03952,0.00778,-0.03876
4.07,-0.03204,-0.04044,0.08377,0.42282,-0.03372,-0.0209,-0.01251,-0.00641,0.26642,-0.02548,-0.08362,-0.04333,-0.04318,-0.04471,0.01114,-0.0354
4.0705,-0.00656,-0.04562,0.08392,0.23605,-0.03235,-0.01816,-0.01709,-0.00809,0.23102,0.00198,-0.01831,-0.10498,-0.03998,-0.04593,0.01251,-0.03601
4.071,0.01404,-0.04715,0.12146,-0.06348,-0.03082,-0.01587,-0.02136,-0.00916,0.18784,0.00443,0.00793,-0.14328,-0.03555,-0.04456,0.0119,-0.04013
4.0715,0.03204,-0.03754,0.17136,-0.40344,-0.03036,-0.01541,-0.02487,-0.01083,0.1474,0.00275,-0.01007,-0.11093,-0.03159,-0.04608,0.00885,-0.0444
4.072,0.04364,-0.02228,0.19119,-0.63644,-0.0322,-0.0206,-0.02426,-0.01205,0.11185,0.00732,-0.04349,-0.02121,-0.03128,-0.05066,0.00778,-0.04761
4.0725,0.04272,-0.01968,0.16464,-0.54779,-0.03448,-0.0322,-0.02319,-0.01236,0.07324,0.00092,-0.05829,0.06577,-0.03189,-0.05249,0.00732,-0.04822
4.073,0.03113,-0.03693,0.11597,-0.12573,-0.0354,-0.04868,-0.01999,-0.01114,0.0293,-0.02518,-0.03937,0.103,-0.0267,-0.04623,0.00839,-0.04669
4.0735,0.01816,-0.06775,0.08728,0.30701,-0.03738,-0.06134,-0.01663,-0.009,-0.00305,-0.05188,0.00443,0.08347,-0.01755,-0.03311,0.01083,-0.0444
4.074,0.01144,-0.09918,0.09476,0.42709,-0.03555,-0.06638,-0.01511,-0.00687,-0.0116,-0.05325,0.04257,0.03235,-0.01358,-0.02182,0.0116,-0.04166
4.0745,0.01221,-0.12329,0.12695,0.24857,-0.03021,-0.06058,-0.01663,-0.0061,-0.0058,-0.02472,0.04349,-0.01663,-0.0148,-0.01633,0.00961,-0.04135
4.075,0.0174,-0.13626,0.15335,0.01709,-0.02426,-0.05264,-0.0209,-0.0058,-0.01251,0.00198,0.00427,-0.03983,-0.01801,-0.01633,0.00916,-0.04135
4.0755,0.02319,-0.1413,0.13763,-0.07126,-0.0206,-0.0473,-0.02258,-0.00412,-0.047,0.00565,-0.04822,-0.03677,-0.0209,-0.01785,0.00778,-0.04166
4.076,0.01923,-0.14557,0.06454,0.01114,-0.0238,-0.04791,-0.02075,-0.00137,-0.10773,-0.00412,-0.08652,-0.02838,-0.02304,-0.01816,0.01083,-0.04105
4.0765,-0.00992,-0.15213,-0.03632,0.16891,-0.03281,-0.05005,-0.01938,0.00198,-0.1825,-0.00534,-0.09903,-0.03754,-0.02518,-0.01801,0.01099,-0.03922
4.077,-0.05829,-0.14923,-0.10849,0.26566,-0.04303,-0.05157,-0.01968,0.00275,-0.24796,0.009,-0.08301,-0.06683,-0.02533,-0.01801,0.00977,-0.03845
4.0775,-0.10284,-0.12604,-0.12817,0.22781,-0.04807,-0.05295,-0.01968,0.00244,-0.27374,0.02563,-0.04654,-0.09659,-0.02579,-0.01694,0.00763,-0.03845
4.078,-0.12558,-0.08987,-0.11627,0.09293,-0.04791,-0.05417,-0.01846,0.0029,-0.24658,0.03113,-0.01221,-0.10803,-0.02411,-0.01282,0.00717,-0.04059
4.0785,-0.12131,-0.05966,-0.09979,-0.04028,-0.04395,-0.05661,-0.01724,0.00259,-0.18219,0.01831,0.00488,-0.10345,-0.02243,-0.0058,0.00671,-0.04333
4.079,-0.09216,-0.03952,-0.08392,-0.11536,-0.03891,-0.06134,-0.0174,0.00351,-0.10757,-0.00931,0.01053,-0.09567,-0.02289,-0.00076,0.00656,-0.04517
4.0795,-0.05325,-0.0145,-0.05814,-0.17303,-0.03418,-0.06516,-0.01709,0.00565,-0.04028,-0.03693,0.02197,-0.08469,-0.02472,-0.00107,0.0061,-0.04578
4.08,-0.03265,0.02106,-0.02502,-0.28168,-0.03159,-0.06821,-0.01511,0.00565,0.00916,-0.04822,0.04242,-0.06317,-0.02563,-0.00595,0.00595,-0.04471
4.0805,-0.04166,0.05478,-0.00763,-0.41534,-0.03326,-0.06973,-0.01328,0.00305,0.03815,-0.0386,0.05829,-0.03754,-0.02594,-0.0116,0.00519,-0.04318
4.081,-0.05264,0.07278,-0.0174,-0.40375,-0.03479,-0.06836,-0.01633,0.0,0.05249,-0.01495,0.0592,-0.02075,-0.0264,-0.01526,0.00519,-0.04303
4.0815,-0.03586,0.07523,-0.04517,-0.05844,-0.0354,-0.06592,-0.02319,-0.00198,0.06546,0.01541,0.05447,-0.01312,-0.02884,-0.01602,0.00595,-0.04456
4.082,0.00229,0.06592,-0.07507,0.54245,-0.03586,-0.06302,-0.02762,-0.00183,0.08926,0.05203,0.05203,0.00214,-0.03204,-0.01495,0.00504,-0.04547
4.0825,0.03616,0.05142,-0.10284,0.99457,-0.03754,-0.06027,-0.02548,-0.00259,0.12604,0.10162,0.03723,0.0528,-0.03342,-0.01328,0.00488,-0.04654
4.083,0.05539,0.03738,-0.1265,0.96146,-0.03845,-0.05402,-0.01709,-0.00366,0.16907,0.16144,-0.01007,0.14725,-0.0322,-0.01129,0.00519,-0.04608
4.0835,0.06775,0.02792,-0.1445,0.57053,-0.03632,-0.04883,-0.00793,-0.00412,0.20569,0.20813,-0.07858,0.24933,-0.02975,-0.00992,0.00717,-0.04532
4.084,0.08316,0.01709,-0.14801,0.2243,-0.03296,-0.04578,-0.0029,-0.00305,0.2272,0.22247,-0.13458,0.2887,-0.02731,-0.01144,0.01236,-0.04242
4.0845,0.09979,-0.00183,-0.13733,0.10468,-0.03113,-0.04517,-0.00412,-0.00275,0.2327,0.20554,-0.16174,0.21057,-0.02548,-0.0174,0.01831,-0.03784
4.085,0.10696,-0.02701,-0.12146,0.05508,-0.03204,-0.04318,-0.00946,-0.00381,0.23041,0.17731,-0.15854,0.03387,-0.02594,-0.02853,0.02045,-0.0351
4.0855,0.10254,-0.04837,-0.11414,-0.09521,-0.0325,-0.04028,-0.01389,-0.00549,0.22476,0.14954,-0.12421,-0.14008,-0.02838,-0.03998,0.01801,-0.03403
4.086,0.09354,-0.05981,-0.1178,-0.29861,-0.03296,-0.04166,-0.01495,-0.00641,0.21362,0.12817,-0.08194,-0.21057,-0.03098,-0.04913,0.01251,-0.03662
4.0865,0.08804,-0.06699,-0.12512,-0.38345,-0.03418,-0.05157,-0.01358,-0.00565,0.1857,0.11078,-0.06836,-0.16068,-0.03265,-0.05661,0.00946,-0.04105
4.087,0.08591,-0.07629,-0.13687,-0.27618,-0.03403,-0.06348,-0.01068,-0.00275,0.14709,0.1004,-0.10056,-0.05478,-0.03342,-0.06332,0.00732,-0.04578
4.0875,0.09048,-0.08759,-0.16663,-0.08026,-0.03464,-0.06607,-0.00778,-0.00092,0.12268,0.09033,-0.14465,0.02991,-0.03464,-0.06775,0.00381,-0.04959
4.088,0.11002,-0.09918,-0.2121,0.04822,-0.03586,-0.05966,-0.00793,-0.00183,0.1297,0.06561,-0.15305,0.0473,-0.03494,-0.06714,0.00153,-0.05035
4.0885,0.13992,-0.11368,-0.233,0.06531,-0.03799,-0.05234,-0.00977,-0.00397,0.14816,0.02533,-0.11978,-0.01434,-0.03586,-0.06332,0.00198,-0.04837
4.089,0.15579,-0.13016,-0.1886,0.0264,-0.03754,-0.04944,-0.0116,-0.0061,0.14526,-0.00458,-0.07889,-0.12741,-0.03754,-0.05859,0.00458,-0.04593
4.0895,0.13565,-0.14175,-0.09659,-0.02609,-0.03708,-0.0499,-0.01282,-0.00687,0.11292,0.00275,-0.06226,-0.22629,-0.03769,-0.05157,0.00458,-0.04318
4.09,0.08453,-0.13885,-0.02441,-0.09232,-0.03571,-0.04959,-0.01251,-0.00641,0.06195,0.03265,-0.06027,-0.26047,-0.03448,-0.04135,0.0032,-0.03952
4.0905,0.02426,-0.12131,-0.01938,-0.14984,-0.03662,-0.04929,-0.01175,-0.00473,-0.01526,0.04593,-0.04868,-0.23483,-0.03143,-0.03189,0.00549,-0.03586
4.091,-0.02975,-0.09445,-0.08118,-0.1506,-0.03754,-0.0473,-0.01007,-0.00229,-0.14023,0.02762,-0.02991,-0.16083,-0.03067,-0.02792,0.00977,-0.03403
4.0915,-0.07599,-0.06485,-0.18707,-0.09323,-0.03891,-0.04654,-0.00961,-0.00092,-0.30289,-0.00412,-0.01968,-0.02945,-0.03113,-0.02716,0.01251,-0.03418
4.092,-0.11444,-0.03601,-0.31174,-0.03601,-0.03647,-0.04669,-0.01068,-0.00244,-0.44739,-0.03311,-0.01328,0.11627,-0.03174,-0.0238,0.01022,-0.03723
4.0925,-0.13901,-0.01343,-0.42236,-0.02197,-0.03418,-0.04883,-0.01221,-0.00488,-0.51285,-0.06058,0.01251,0.19775,-0.02975,-0.01801,0.00656,-0.04044
4.093,-0.14648,-0.00504,-0.47668,-0.03189,-0.03372,-0.04929,-0.01266,-0.00595,-0.47852,-0.09567,0.07584,0.19485,-0.02762,-0.01312,0.00519,-0.04257
4.0935,-0.14343,-0.01099,-0.42374,-0.02502,-0.03662,-0.0502,-0.01144,-0.00427,-0.37537,-0.13321,0.17105,0.14236,-0.02777,-0.01312,0.0058,-0.04089
4.094,-0.14114,-0.02045,-0.21698,-0.00153,-0.03815,-0.05112,-0.01022,-0.00107,-0.25528,-0.15732,0.2504,0.0528,-0.02899,-0.01526,0.00748,-0.04013
4.0945,-0.1416,-0.0206,0.1149,0.00061,-0.03891,-0.05325,-0.01068,0.0,-0.15152,-0.16617,0.25894,-0.07416,-0.02914,-0.01465,0.00916,-0.04074
4.095,-0.13657,-0.00961,0.43533,-0.03769,-0.0383,-0.05569,-0.01282,-0.00061,-0.06683,-0.17166,0.17807,-0.17563,-0.02838,-0.01129,0.00824,-0.0415
4.0955,-0.11673,-0.00031,0.5957,-0.08453,-0.03723,-0.05478,-0.01358,-0.0032,-0.00122,-0.17731,0.05325,-0.15671,-0.02869,-0.00809,0.00793,-0.04303
4.096,-0.08362,-0.00168,0.5455,-0.10544,-0.03525,-0.05188,-0.01282,-0.00504,0.02808,-0.1825,-0.04822,-0.01404,-0.03128,-0.01022,0.00916,-0.0444
4.0965,-0.05112,-0.01205,0.35324,-0.112,-0.03342,-0.04913,-0.01266,-0.00595,0.00473,-0.17883,-0.09399,0.12009,-0.03235,-0.01373,0.01328,-0.04578
4.097,-0.03296,-0.0209,0.13138,-0.14023,-0.03418,-0.04913,-0.01389,-0.00549,-0.05341,-0.16251,-0.09598,0.11078,-0.03159,-0.01373,0.01282,-0.04532
4.0975,-0.0293,-0.02502,-0.03189,-0.21469,-0.03586,-0.04837,-0.01587,-0.00504,-0.10971,-0.14023,-0.08118,-0.03418,-0.02884,-0.01022,0.01297,-0.04379
4.098,-0.03067,-0.02655,-0.1001,-0.34973,-0.03571,-0.04578,-0.01663,-0.00504,-0.14267,-0.12192,-0.06973,-0.18112,-0.02655,-0.0061,0.0119,-0.04242
4.0985,-0.02686,-0.02365,-0.09003,-0.51849,-0.03265,-0.04181,-0.01587,-0.00671,-0.16556,-0.11429,-0.06592,-0.21103,-0.02563,-0.00153,0.00793,-0.04303
4.099,-0.01831,-0.01389,-0.04211,-0.61401,-0.02701,-0.03738,-0.01404,-0.00916,-0.19089,-0.1152,-0.06882,-0.10803,-0.02502,0.00275,0.00168,-0.04547
4.0995,-0.00854,-0.00061,0.00916,-0.5188,-0.02136,-0.03372,-0.01282,-0.00992,-0.21133,-0.11749,-0.07614,0.08347,-0.02487,0.00534,-0.00107,-0.0473
4.1,0.00031,0.01022,0.04303,-0.24643,-0.01602,-0.02945,-0.0116,-0.00854,-0.21469,-0.11795,-0.09201,0.30884,-0.02472,0.00458,0.00076,-0.04761
4.1005,0.00885,0.01663,0.05325,0.06027,-0.01419,-0.02533,-0.0119,-0.00549,-0.20111,-0.12192,-0.13687,0.49271,-0.02548,0.00015,0.00351,-0.04608
4.101,0.01755,0.02136,0.04013,0.25208,-0.01709,-0.02365,-0.01282,-0.00305,-0.17319,-0.12909,-0.20737,0.5278,-0.0264,-0.00717,0.00458,-0.04379
4.1015,0.02304,0.02106,0.01694,0.27145,-0.02304,-0.02518,-0.01312,-0.00198,-0.12878,-0.13184,-0.24551,0.37781,-0.02731,-0.01404,0.00336,-0.04303
4.102,0.02289,0.01266,-0.00656,0.16815,-0.02792,-0.03067,-0.01343,-0.00259,-0.07599,-0.1239,-0.19897,0.13733,-0.02762,-0.01816,0.00275,-0.0444
4.1025,0.0177,0.00214,-0.02655,0.03326,-0.02899,-0.03906,-0.01312,-0.00458,-0.03525,-0.10956,-0.0885,-0.09079,-0.02869,-0.01862,0.00336,-0.04669
4.103,0.01053,-0.00168,-0.06821,-0.10437,-0.0238,-0.04639,-0.01266,-0.00626,-0.02228,-0.09964,0.0174,-0.27878,-0.02914,-0.01404,0.0058,-0.04745
4.1035,0.00397,0.00229,-0.13855,-0.28107,-0.01831,-0.04944,-0.01343,-0.00473,-0.03021,-0.09659,0.08408,-0.37598,-0.03052,-0.00748,0.00748,-0.04578
4.104,0.00427,0.00366,-0.19257,-0.46967,-0.01556,-0.04913,-0.0145,-0.00107,-0.03967,-0.09613,0.1236,-0.25436,-0.03174,-0.00504,0.00626,-0.04425
4.1045,0.01678,-0.0058,-0.16022,-0.54443,-0.01495,-0.04761,-0.01617,0.00137,-0.03906,-0.08957,0.1474,0.08057,-0.03326,-0.0087,0.00519,-0.04364
4.105,0.03555,-0.02121,-0.05402,-0.40512,-0.01541,-0.04425,-0.01724,0.00046,-0.03036,-0.07813,0.14969,0.34973,-0.03464,-0.01358,0.00595,-0.04349
4.1055,0.05005,-0.03235,0.03937,-0.08347,-0.01526,-0.04349,-0.01785,-0.00214,-0.01801,-0.06073,0.13382,0.28015,-0.03677,-0.01831,0.00793,-0.04318
4.106,0.05798,-0.03571,0.06149,0.2652,-0.01526,-0.0444,-0.01663,-0.0061,-0.0032,-0.04227,0.11917,-0.04135,-0.03815,-0.02274,0.00977,-0.03952
4.1065,0.06241,-0.03372,0.03189,0.43839,-0.01633,-0.04517,-0.01541,-0.01022,0.01785,-0.03174,0.11627,-0.26443,-0.03784,-0.02609,0.00854,-0.03662
4.107,0.06683,-0.03021,-0.00549,0.3447,-0.01953,-0.0444,-0.0148,-0.01297,0.05005,-0.03433,0.11383,-0.19516,-0.03662,-0.02899,0.0058,-0.03647
4.1075,0.07217,-0.02762,-0.03342,0.14969,-0.02319,-0.04379,-0.01587,-0.01282,0.08789,-0.0415,0.10361,0.05386,-0.03601,-0.03021,0.00549,-0.03983
4.108,0.07904,-0.02548,-0.05493,0.11826,-0.02518,-0.04532,-0.01495,-0.00977,0.11978,-0.03876,0.09003,0.25696,-0.03723,-0.02945,0.00778,-0.04425
4.1085,0.08316,-0.02289,-0.07126,0.27039,-0.02655,-0.04807,-0.01175,-0.0061,0.14359,-0.0209,0.07706,0.28122,-0.04044,-0.0264,0.01099,-0.04547
4.109,0.08102,-0.02487,-0.07797,0.38467,-0.02716,-0.04837,-0.00916,-0.00488,0.168,0.00839,0.06516,0.13763,-0.04181,-0.02106,0.01358,-0.04257
4.1095,0.07019,-0.0351,-0.07782,0.33295,-0.02747,-0.04745,-0.01053,-0.00534,0.19608,0.03647,0.05707,-0.05722,-0.0412,-0.01587,0.01328,-0.03937
4.11,0.05371,-0.04822,-0.07645,0.2153,-0.02731,-0.0473,-0.01312,-0.00595,0.21515,0.04669,0.05829,-0.17517,-0.04028,-0.01068,0.00931,-0.03937
4.1105,0.03387,-0.05814,-0.07126,0.14801,-0.02823,-0.05005,-0.01556,-0.00565,0.2092,0.03403,0.06805,-0.17273,-0.03967,-0.00763,0.00488,-0.0415
4.111,0.01053,-0.06302,-0.0621,0.11658,-0.02731,-0.05356,-0.01617,-0.00458,0.17487,0.00671,0.07477,-0.10422,-0.03769,-0.00641,0.00397,-0.04379
4.1115,-0.01663,-0.06516,-0.05081,0.07278,-0.0267,-0.05539,-0.01617,-0.00412,0.12192,-0.0148,0.06668,-0.0322,-0.03418,-0.00656,0.00565,-0.04318
4.112,-0.04684,-0.06882,-0.04379,0.03128,-0.0264,-0.05402,-0.01663,-0.00412,0.0592,-0.02518,0.03876,0.01938,-0.03082,-0.01022,0.00793,-0.04105
4.1125,-0.07248,-0.07767,-0.0415,0.02396,-0.02884,-0.05157,-0.01648,-0.00412,-0.00244,-0.03265,0.00595,0.03342,-0.03006,-0.0145,0.01099,-0.03738
4.113,-0.0853,-0.09384,-0.0415,0.04135,-0.02899,-0.05005,-0.01755,-0.00412,-0.04135,-0.0412,-0.01678,-0.01343,-0.03052,-0.01755,0.01373,-0.03448
4.1135,-0.08759,-0.11292,-0.03922,0.05386,-0.03098,-0.04868,-0.01816,-0.00412,-0.03098,-0.0441,-0.02457,-0.0766,-0.03235,-0.01923,0.01556,-0.03525
4.114,-0.08621,-0.12619,-0.04395,0.05249,-0.03571,-0.04883,-0.01892,-0.00381,0.03693,-0.03723,-0.03098,-0.06393,-0.03387,-0.0206,0.01617,-0.03769
4.1145,-0.08286,-0.12756,-0.07645,0.04501,-0.04837,-0.05066,-0.01907,-0.00427,0.14664,-0.01968,-0.05508,0.04166,-0.03662,-0.0206,0.01587,-0.03891
4.115,-0.07156,-0.11887,-0.13824,0.03784,-0.0621,-0.05356,-0.0174,-0.00504,0.26627,0.00839,-0.10391,0.12985,-0.03769,-0.01892,0.01404,-0.03555
4.1155,-0.05325,-0.10696,-0.16891,0.03067,-0.06653,-0.056,-0.01678,-0.00671,0.35049,0.05539,-0.16266,0.09964,-0.03815,-0.0174,0.0119,-0.03159
4.116,-0.0354,-0.0946,-0.10376,0.02396,-0.05966,-0.05722,-0.01648,-0.00702,0.36438,0.11398,-0.19302,-0.01266,-0.03769,-0.01785,0.009,-0.02869
4.1165,-0.02808,-0.08331,0.02289,0.01938,-0.04868,-0.05783,-0.0174,-0.00732,0.3067,0.16342,-0.1741,-0.10132,-0.0386,-0.01968,0.00565,-0.03082
4.117,-0.03235,-0.07263,0.07996,0.01495,-0.04547,-0.05737,-0.01938,-0.0087,0.21194,0.18509,-0.12741,-0.1239,-0.03815,-0.01953,0.00153,-0.03616
4.1175,-0.04257,-0.06714,-0.00092,0.00961,-0.04684,-0.05661,-0.01953,-0.01038,0.10361,0.1825,-0.0798,-0.11414,-0.03616,-0.01617,-0.00015,-0.04135
4.118,-0.04562,-0.06653,-0.12344,0.01007,-0.04959,-0.05478,-0.01648,-0.01068,-0.0238,0.17105,-0.03586,-0.09979,-0.03464,-0.01114,0.00122,-0.04791
4.1185,-0.03601,-0.06653,-0.14481,0.01419,-0.05234,-0.05386,-0.01144,-0.00946,-0.17197,0.16068,-0.00259,-0.0798,-0.03387,-0.00809,0.00381,-0.05463
4.119,-0.02213,-0.06348,-0.05463,0.01175,-0.05661,-0.05508,-0.00854,-0.00687,-0.30945,0.14832,0.00931,-0.06073,-0.03418,-0.00854,0.00427,-0.05997
4.1195,-0.01785,-0.06058,0.04166,-0.00427,-0.06104,-0.05768,-0.00793,-0.00366,-0.39108,0.12314,0.01083,-0.06439,-0.03433,-0.00946,0.0029,-0.06256
4.12,-0.02487,-0.06165,0.06927,-0.02579,-0.06042,-0.05768,-0.00748,-0.00061,-0.40512,0.07065,0.02396,-0.0824,-0.03387,-0.00931,0.00229,-0.06104
4.1205,-0.03922,-0.06638,0.04639,-0.03708,-0.05386,-0.05722,-0.00626,0.00198,-0.37537,-0.01724,0.04807,-0.06836,-0.03357,-0.00946,0.00275,-0.05829
4.121,-0.04196,-0.06836,0.02045,-0.03265,-0.04623,-0.05676,-0.00748,0.00381,-0.32623,-0.12436,0.06256,-0.01205,-0.03418,-0.01221,0.00107,-0.05524
4.1215,-0.01984,-0.06317,0.00748,-0.01709,-0.04105,-0.05524,-0.01099,0.00366,-0.26459,-0.21271,0.05661,0.03677,-0.03555,-0.01511,-0.00275,-0.0528
4.122,0.0119,-0.04944,0.00198,-0.00259,-0.03815,-0.05157,-0.01434,0.00076,-0.19714,-0.25604,0.03952,0.0325,-0.03662,-0.01144,-0.0061,-0.04776
4.1225,0.01755,-0.03342,-0.00122,-0.01236,-0.03738,-0.05112,-0.01495,-0.00168,-0.13748,-0.24689,0.02136,0.0,-0.03647,-0.00504,-0.00458,-0.0415
4.123,-0.009,-0.02533,-0.00778,-0.07904,-0.03708,-0.05142,-0.01343,-0.00275,-0.09384,-0.19318,-0.00183,-0.00229,-0.03555,-0.00153,0.00046,-0.03662
4.1235,-0.0354,-0.03113,-0.03784,-0.19913,-0.03723,-0.05356,-0.00977,-0.00305,-0.05478,-0.11978,-0.03006,0.03937,-0.03555,-0.00519,0.00687,-0.03616
4.124,-0.03555,-0.05096,-0.09933,-0.30426,-0.03754,-0.0528,-0.009,-0.0029,-0.00275,-0.04623,-0.056,0.08575,-0.03586,-0.01175,0.01038,-0.03876
4.1245,-0.01541,-0.07736,-0.14709,-0.32364,-0.03555,-0.05127,-0.01068,-0.00244,0.05493,0.01038,-0.07385,0.08926,-0.03601,-0.01572,0.01358,-0.04044
4.125,0.00214,-0.09613,-0.11368,-0.25162,-0.03235,-0.04913,-0.01236,-0.00198,0.09781,0.04425,-0.0853,0.04791,-0.03525,-0.01389,0.01297,-0.03983
4.1255,0.0116,-0.09445,-0.00198,-0.13275,-0.02701,-0.04486,-0.01175,-0.00031,0.12161,0.05432,-0.08682,0.0087,-0.03571,-0.00839,0.0116,-0.03662
4.126,0.02136,-0.07309,0.10544,-0.01221,-0.02304,-0.0412,-0.00977,0.00076,0.13794,0.04517,-0.07828,-0.0029,-0.03601,-0.00443,0.00992,-0.03494
4.1265,0.03815,-0.04684,0.14679,0.07233,-0.02151,-0.03922,-0.01007,-0.00153,0.14343,0.02731,-0.06073,-0.01419,-0.03555,-0.00458,0.00885,-0.03433
4.127,0.05386,-0.0293,0.13641,0.10406,-0.02151,-0.03937,-0.01389,-0.00702,0.11963,0.01923,-0.0383,-0.05249,-0.03418,-0.00946,0.01022,-0.03494
4.1275,0.05768,-0.01877,0.11032,0.11307,-0.0235,-0.03952,-0.01862,-0.01083,0.07599,0.03143,-0.0206,-0.09064,-0.03372,-0.01617,0.0145,-0.03525
4.128,0.04898,-0.00366,0.05966,0.15564,-0.02335,-0.03967,-0.01984,-0.00885,0.04669,0.05371,-0.02808,-0.08041,-0.03372,-0.02075,0.02014,-0.03342
4.1285,0.04211,0.01678,-0.04303,0.23636,-0.01999,-0.04227,-0.01572,-0.00351,0.05173,0.07202,-0.07309,-0.01343,-0.03296,-0.02228,0.0235,-0.03387
4.129,0.04929,0.03601,-0.18631,0.29068,-0.01587,-0.04501,-0.0119,-0.00137,0.07629,0.07523,-0.13351,0.06958,-0.03387,-0.02335,0.02274,-0.0354
4.1295,0.06363,0.04868,-0.33173,0.26794,-0.01709,-0.04578,-0.01221,-0.00275,0.08865,0.07599,-0.16235,0.12695,-0.03479,-0.02579,0.02151,-0.03586
4.13,0.06378,0.0647,-0.45456,0.17487,-0.02121,-0.04486,-0.01434,-0.0061,0.0679,0.09064,-0.13443,0.1619,-0.03525,-0.0296,0.01999,-0.03479
4.1305,0.03693,0.08667,-0.51147,0.01892,-0.02487,-0.04669,-0.01465,-0.00717,0.02029,0.11948,-0.07339,0.19272,-0.03494,-0.03433,0.0174,-0.03326
4.131,-0.00717,0.10147,-0.4245,-0.19638,-0.02777,-0.05203,-0.01221,-0.00565,-0.02319,0.14038,-0.02213,0.19669,-0.03418,-0.04044,0.01251,-0.03662
4.1315,-0.04822,0.09399,-0.22125,-0.36499,-0.02884,-0.05615,-0.01129,-0.00458,-0.03815,0.13412,-0.00656,0.12482,-0.03311,-0.05127,0.00961,-0.04227
4.132,-0.06882,0.06653,-0.05768,-0.29449,-0.02975,-0.05402,-0.0145,-0.00443,-0.03448,0.09705,-0.01328,-0.00427,-0.03067,-0.06439,0.00854,-0.04898
4.1325,-0.06943,0.03113,-0.01038,0.02884,-0.02792,-0.04745,-0.01999,-0.00488,-0.04364,0.04761,-0.01526,-0.0946,-0.02838,-0.06897,0.009,-0.05325
4.133,-0.06088,-0.00671,0.01678,0.31204,-0.02853,-0.04196,-0.02289,-0.00656,-0.08224,0.00229,0.00275,-0.10086,-0.02686,-0.0589,0.01007,-0.05569
4.1335,-0.05005,-0.04456,0.10132,0.27725,-0.02899,-0.03937,-0.02258,-0.00824,-0.13809,-0.03098,0.02914,-0.08545,-0.02609,-0.04013,0.00885,-0.05508
4.134,-0.03601,-0.08133,0.18066,-0.00519,-0.02884,-0.0383,-0.02228,-0.00961,-0.1857,-0.0531,0.04425,-0.11215,-0.02747,-0.0264,0.00961,-0.0531
4.1345,-0.02411,-0.11597,0.17883,-0.25787,-0.02731,-0.03906,-0.02472,-0.01099,-0.21118,-0.06607,0.04059,-0.15045,-0.02731,-0.01816,0.01129,-0.0499
4.135,-0.02182,-0.14648,0.1088,-0.35217,-0.02441,-0.03815,-0.03021,-0.0116,-0.20859,-0.06363,0.02945,-0.12833,-0.02686,-0.01007,0.01419,-0.04898
4.1355,-0.03128,-0.16357,0.03403,-0.35782,-0.02045,-0.03922,-0.03723,-0.00992,-0.18509,-0.04562,0.02472,-0.03342,-0.02548,-0.00076,0.01312,-0.04822
4.136,-0.0412,-0.15808,-0.00076,-0.34439,-0.0174,-0.03983,-0.04074,-0.00717,-0.15701,-0.02289,0.02563,0.07217,-0.02655,0.00412,0.01282,-0.04623
4.1365,-0.04242,-0.12848,0.0238,-0.32578,-0.01678,-0.03967,-0.03418,-0.00717,-0.14114,-0.00748,0.02487,0.11932,-0.02914,0.00595,0.01007,-0.04242
4.137,-0.03265,-0.09216,0.10437,-0.34103,-0.01694,-0.03967,-0.02365,-0.01129,-0.13687,0.00076,0.02197,0.09827,-0.03036,0.0087,0.00626,-0.03937
4.1375,-0.01801,-0.0676,0.19974,-0.4248,-0.01831,-0.04074,-0.01877,-0.01648,-0.12878,0.01205,0.02029,0.0499,-0.03036,0.01099,0.0032,-0.03769
4.138,-0.00656,-0.05737,0.25406,-0.46967,-0.01968,-0.04196,-0.02518,-0.01862,-0.10437,0.02884,0.01205,0.00671,-0.02975,0.00809,0.00137,-0.03754
4.1385,-0.00046,-0.05081,0.24429,-0.25223,-0.02106,-0.04227,-0.03845,-0.01556,-0.05829,0.04074,-0.01633,-0.04425,-0.02716,-0.00107,-0.00198,-0.04227
4.139,0.0,-0.03891,0.18692,0.27924,-0.02243,-0.04196,-0.05447,-0.01007,0.00351,0.0386,-0.05905,-0.14496,-0.02396,-0.00916,-0.0087,-0.05035
4.1395,-0.00717,-0.02884,0.11459,0.80276,-0.0235,-0.04272,-0.06866,-0.00565,0.07385,0.02838,-0.08896,-0.31891,-0.0206,-0.01114,-0.01556,-0.05798
4.14,-0.01999,-0.02625,0.04852,0.92072,-0.02441,-0.04593,-0.06577,-0.00519,0.14191,0.01328,-0.08896,-0.51056,-0.0206,-0.01175,-0.01862,-0.06027
4.1405,-0.03098,-0.0293,0.00427,0.62119,-0.02533,-0.04822,-0.02975,-0.00702,0.19852,-0.0058,-0.06439,-0.59616,-0.0235,-0.01846,-0.01602,-0.05753
4.141,-0.03296,-0.03403,-0.01099,0.26413,-0.02655,-0.05096,0.03372,-0.00763,0.23758,-0.03021,-0.0325,-0.49713,-0.0267,-0.02869,-0.00961,-0.05157
4.1415,-0.02563,-0.03632,-0.0174,0.12329,-0.02975,-0.05188,0.08347,-0.0061,0.25177,-0.05234,-0.00671,-0.24628,-0.0267,-0.03616,-0.00198,-0.04379
4.142,-0.01694,-0.03586,-0.06287,0.1506,-0.03159,-0.05157,0.07889,-0.0032,0.23621,-0.06653,0.01175,0.0795,-0.0238,-0.04059,0.00427,-0.03769
4.1425,-0.01282,-0.03616,-0.14801,0.1915,-0.03311,-0.04913,0.03418,-0.00092,0.19089,-0.07339,0.0351,0.4097,-0.0238,-0.03937,0.00763,-0.03525
4.143,-0.0148,-0.03891,-0.19455,0.20126,-0.03113,-0.04486,-0.00244,0.00092,0.12589,-0.08423,0.06287,0.64713,-0.02777,-0.03586,0.00641,-0.03555
4.1435,-0.02335,-0.04303,-0.13977,0.19913,-0.02731,-0.04059,-0.00671,0.00458,0.05661,-0.10086,0.08438,0.68909,-0.03342,-0.03143,0.00412,-0.03723
4.144,-0.03311,-0.04456,-0.02213,0.16663,-0.02411,-0.0383,0.00351,0.00763,-0.0061,-0.12207,0.08682,0.55206,-0.04181,-0.02838,0.00244,-0.03769
4.1445,-0.0322,-0.04318,0.06332,0.07935,-0.02151,-0.03723,0.00732,0.0087,-0.06165,-0.14053,0.06516,0.37643,-0.05096,-0.02945,0.00397,-0.03845
4.145,-0.01144,-0.04059,0.08484,-0.0383,-0.01907,-0.03723,0.00443,0.00778,-0.11276,-0.15457,0.01968,0.26047,-0.05493,-0.03433,0.00549,-0.03952
4.1455,0.01633,-0.04059,0.07034,-0.13947,-0.01999,-0.03738,0.00275,0.00473,-0.14954,-0.16754,-0.05188,0.17883,-0.04944,-0.03693,0.00793,-0.03952
4.146,0.02609,-0.04501,0.01953,-0.18875,-0.0238,-0.03967,0.00229,0.00168,-0.1593,-0.17853,-0.13229,0.07416,-0.03922,-0.0293,0.00839,-0.03754
4.1465,0.00671,-0.05905,-0.11337,-0.18555,-0.02975,-0.04181,0.0,-0.00107,-0.14282,-0.17517,-0.17471,-0.06912,-0.03387,-0.01251,0.0087,-0.03586
4.147,-0.01816,-0.07996,-0.30396,-0.15564,-0.03922,-0.04105,-0.00183,-0.00366,-0.11841,-0.14664,-0.1442,-0.2388,-0.03616,0.00031,0.00885,-0.03693
4.1475,-0.02228,-0.09445,-0.41336,-0.13107,-0.05066,-0.03723,-0.00198,-0.00519,-0.10452,-0.09659,-0.06775,-0.3952,-0.03891,-0.00031,0.009,-0.03922
4.148,-0.00641,-0.09384,-0.34409,-0.1355,-0.05646,-0.03128,-0.00153,-0.00702,-0.11353,-0.04578,-0.01205,-0.46188,-0.0386,-0.01434,0.01007,-0.04166
4.1485,0.00931,-0.08606,-0.16998,-0.16235,-0.05737,-0.02289,-0.00046,-0.00916,-0.14221,-0.00961,-0.00641,-0.38757,-0.0386,-0.0322,0.01144,-0.04395
4.149,0.01999,-0.08392,-0.03845,-0.18372,-0.04974,-0.01389,0.00214,-0.01282,-0.17197,0.00427,-0.0351,-0.21347,-0.03876,-0.04547,0.01221,-0.04456
4.1495,0.02686,-0.0885,0.00626,-0.17761,-0.04089,-0.00687,0.00381,-0.01709,-0.17776,0.0061,-0.06378,-0.05722,-0.03738,-0.05051,0.01419,-0.04166
4.15,0.02029,-0.08179,0.01633,-0.15411,-0.03571,-0.00702,-0.00076,-0.01862,-0.15411,0.00458,-0.07095,-0.0148,-0.0351,-0.04791,0.01572,-0.03662
4.1505,-0.00854,-0.05798,0.03113,-0.13977,-0.03296,-0.01099,-0.01648,-0.01556,-0.11917,0.00214,-0.04868,-0.04044,-0.03479,-0.04135,0.01724,-0.03448
4.151,-0.03983,-0.03113,0.04501,-0.14404,-0.03494,-0.0174,-0.03387,-0.009,-0.08774,-0.00641,0.0,0.02274,-0.03555,-0.03265,0.01602,-0.03647
4.1515,-0.04211,-0.0174,0.04593,-0.15396,-0.03738,-0.02716,-0.03845,-0.00488,-0.05539,-0.02045,0.07034,0.21484,-0.03677,-0.0264,0.01419,-0.04013
4.152,-0.02197,-0.0177,0.03937,-0.14053,-0.04059,-0.0415,-0.0267,-0.00427,-0.00885,-0.03448,0.1474,0.33447,-0.03876,-0.02426,0.01175,-0.04196
4.1525,-0.01099,-0.01358,0.02792,-0.09048,-0.04181,-0.05585,-0.01556,-0.00427,0.04517,-0.04944,0.18967,0.20416,-0.03922,-0.02243,0.01144,-0.04105
4.153,-0.01892,0.00641,0.01328,-0.01678,-0.04089,-0.06607,-0.01556,-0.00229,0.09155,-0.06332,0.16602,-0.02701,-0.04013,-0.01999,0.0148,-0.03967
4.1535,-0.02579,0.03738,-0.00046,0.03998,-0.03784,-0.07095,-0.02487,-0.00153,0.12421,-0.07965,0.09232,-0.07858,-0.04196,-0.02029,0.01511,-0.03784
4.154,-0.01877,0.06241,-0.0029,0.05341,-0.03387,-0.07568,-0.03342,-0.00046,0.15076,-0.10254,0.02914,0.05463,-0.04486,-0.02548,0.01038,-0.03677
4.1545,-0.00183,0.07172,-0.00305,0.03357,-0.03235,-0.08362,-0.03891,0.00153,0.17548,-0.13107,0.01373,0.13443,-0.04501,-0.03387,0.00092,-0.03586
4.155,0.01709,0.06424,-0.02396,0.01404,-0.03265,-0.08957,-0.03876,0.00198,0.18829,-0.15503,0.02609,0.05783,-0.04166,-0.03784,-0.0029,-0.03571
4.1555,0.03662,0.03555,-0.07248,0.01648,-0.03342,-0.08743,-0.0354,0.00214,0.17532,-0.16022,0.02762,-0.03967,-0.03815,-0.03204,-0.00229,-0.03586
4.156,0.05447,-0.01083,-0.12207,0.03281,-0.0325,-0.07721,-0.02991,-0.00092,0.13992,-0.14664,0.00381,-0.03281,-0.03571,-0.02121,0.00305,-0.03662
4.1565,0.06744,-0.05829,-0.14023,0.03937,-0.03067,-0.06851,-0.02609,-0.00427,0.09827,-0.12665,-0.02823,0.0383,-0.03418,-0.01007,0.00793,-0.03784
4.157,0.07751,-0.08011,-0.12207,0.02075,-0.02838,-0.06317,-0.0235,-0.00687,0.05585,-0.10437,-0.0473,0.07889,-0.03235,0.00168,0.00854,-0.0386
4.1575,0.10071,-0.06805,-0.07813,-0.01007,-0.02716,-0.0618,-0.02197,-0.00748,0.00046,-0.07477,-0.04974,0.07492,-0.03128,0.00854,0.00626,-0.04013
4.158,0.14618,-0.03769,-0.01968,-0.01984,-0.02686,-0.06073,-0.02075,-0.00626,-0.07172,-0.03571,-0.05066,0.06485,-0.03235,0.00748,0.00473,-0.04105
4.1585,0.1976,-0.01221,0.03799,-0.00656,-0.02716,-0.05646,-0.02151,-0.00351,-0.14267,0.00504,-0.06088,0.05768,-0.03479,-0.00168,0.0029,-0.04211
4.159,0.21957,-0.00473,0.06989,-0.02075,-0.02777,-0.05203,-0.02258,-0.00259,-0.18265,0.03098,-0.0737,0.03738,-0.03601,-0.00931,0.00305,-0.04196
4.1595,0.1944,-0.01144,0.07034,-0.103,-0.02838,-0.04913,-0.0209,-0.00275,-0.18311,0.04074,-0.07721,0.00565,-0.0351,-0.01007,0.00458,-0.04272
4.16,0.13809,-0.02029,0.05035,-0.23453,-0.02808,-0.04791,-0.01862,-0.00565,-0.16159,0.0502,-0.065,-0.01495,-0.03326,-0.00854,0.00824,-0.04364
4.1605,0.08453,-0.0206,0.02731,-0.36072,-0.02762,-0.04883,-0.01694,-0.00641,-0.14603,0.06546,-0.04379,-0.0177,-0.03281,-0.01038,0.00854,-0.04272
4.161,0.05157,-0.01358,0.00366,-0.46967,-0.02808,-0.04913,-0.0174,-0.00519,-0.14465,0.08011,-0.03082,-0.01892,-0.03067,-0.01663,0.00519,-0.0415
4.1615,0.03693,-0.00534,-0.02213,-0.57037,-0.03021,-0.04913,-0.01862,-0.00397,-0.14847,0.08774,-0.03372,-0.04349,-0.02518,-0.02289,-0.00168,-0.04288
4.162,0.0264,-0.00336,-0.0473,-0.58472,-0.03067,-0.04639,-0.01785,-0.00351,-0.1416,0.09048,-0.04868,-0.09201,-0.01785,-0.02762,-0.01114,-0.04578
4.1625,0.0116,-0.00824,-0.06592,-0.40848,-0.02914,-0.04395,-0.01648,-0.00397,-0.12177,0.08804,-0.06607,-0.13168,-0.01144,-0.03174,-0.01953,-0.04761
4.163,-0.00671,-0.01846,-0.06683,-0.13123,-0.02548,-0.04425,-0.01816,-0.00351,-0.10071,0.08224,-0.08072,-0.11505,-0.0058,-0.03555,-0.02853,-0.04791
4.1635,-0.02762,-0.03357,-0.04669,0.00961,-0.02213,-0.0473,-0.02625,-0.00366,-0.08286,0.07721,-0.0824,-0.02808,-0.00092,-0.03983,-0.03937,-0.04715
4.164,-0.04883,-0.05493,-0.02335,-0.0209,-0.02258,-0.04807,-0.03815,-0.00397,-0.06241,0.07019,-0.05997,0.07065,-0.00351,-0.04532,-0.05219,-0.04776
4.1645,-0.06119,-0.08148,-0.02502,0.00916,-0.02518,-0.04669,-0.04623,-0.00412,-0.03769,0.05798,-0.02274,0.09476,-0.01785,-0.05295,-0.05493,-0.04791
