time,RectFemL,VastusMedL,VastusLatL,TibAntL,HamMedL,HamLatL,GastroMedL,GastroLatL,RectFemR,VastusMedR,VastusLatR,TibAntR,HamMedR,HamLatR,GastroMedR,GastroLatR
4.4,-0.02304,-0.04684,-0.07751,-0.03754,-0.01968,-0.0502,-0.00763,0.01022,-0.03967,-0.01617,-0.01205,-0.07584,-0.0351,-0.01938,0.00336,-0.04333
4.4005,-0.03296,-0.0412,-0.07431,0.36728,-0.02609,-0.04929,-0.00641,0.01022,-0.04349,-0.02258,-0.00687,-0.12711,-0.03693,-0.02151,0.0058,-0.05096
4.401,-0.03754,-0.03632,-0.07095,0.71426,-0.03799,-0.04761,-0.00732,0.00763,-0.04364,-0.03204,-0.00549,-0.12939,-0.03876,-0.02365,0.00961,-0.05081
4.4015,-0.03922,-0.03571,-0.06805,0.8371,-0.04883,-0.04639,-0.00809,0.00504,-0.03662,-0.04196,-0.00656,-0.11749,-0.03815,-0.02594,0.01266,-0.04654
4.402,-0.03998,-0.04028,-0.0647,0.65079,-0.05325,-0.04364,-0.01038,0.00092,-0.02411,-0.05203,-0.0061,-0.13245,-0.03479,-0.02594,0.01511,-0.04318
4.4025,-0.04028,-0.04562,-0.05951,0.24033,-0.05493,-0.04227,-0.01343,-0.00534,-0.01068,-0.05997,-0.00397,-0.16525,-0.03265,-0.02258,0.01663,-0.04318
4.403,-0.03677,-0.04852,-0.05417,-0.15747,-0.05463,-0.04242,-0.01465,-0.0116,-0.00214,-0.07172,-0.00061,-0.14526,-0.03128,-0.01709,0.0148,-0.04501
4.4035,-0.02762,-0.04639,-0.0502,-0.31174,-0.05173,-0.04532,-0.01572,-0.01373,0.00305,-0.08316,-0.00183,-0.02655,-0.03067,-0.01343,0.01419,-0.04669
4.404,-0.01556,-0.0415,-0.05035,-0.19196,-0.04623,-0.04684,-0.01587,-0.01083,0.00885,-0.0885,-0.00656,0.13245,-0.02945,-0.01373,0.0145,-0.04593
4.4045,-0.00458,-0.03616,-0.05356,0.01862,-0.04318,-0.04807,-0.01724,-0.00702,0.01678,-0.08591,-0.01038,0.22812,-0.02899,-0.01587,0.01343,-0.04242
4.405,0.00229,-0.03418,-0.05646,0.10284,-0.04486,-0.04852,-0.01938,-0.00549,0.02975,-0.07767,-0.01083,0.22598,-0.02945,-0.01602,0.01297,-0.03937
4.4055,0.00671,-0.03403,-0.05646,0.02396,-0.04623,-0.04944,-0.01892,-0.00763,0.05035,-0.06744,-0.00931,0.17105,-0.03098,-0.0145,0.01175,-0.03632
4.406,0.01144,-0.03479,-0.05157,-0.08621,-0.04364,-0.04898,-0.01694,-0.00977,0.07278,-0.0592,-0.01083,0.10849,-0.03113,-0.01297,0.01053,-0.03571
4.4065,0.01892,-0.03662,-0.04593,-0.13184,-0.04013,-0.04883,-0.0148,-0.00961,0.08148,-0.05417,-0.01999,0.04776,-0.03159,-0.01419,0.01144,-0.03586
4.407,0.02472,-0.03845,-0.04562,-0.16083,-0.03891,-0.04974,-0.01328,-0.00854,0.06592,-0.05356,-0.03433,-0.00259,-0.03189,-0.01968,0.01175,-0.0386
4.4075,0.02548,-0.03983,-0.04684,-0.27069,-0.04013,-0.05264,-0.01282,-0.00687,0.03677,-0.05524,-0.04761,-0.03448,-0.03235,-0.02563,0.01266,-0.04547
4.408,0.02197,-0.03952,-0.04807,-0.4628,-0.04105,-0.05295,-0.01373,-0.00549,0.00992,-0.05524,-0.05814,-0.0592,-0.03265,-0.02869,0.00992,-0.06042
4.4085,0.01785,-0.03754,-0.04456,-0.6102,-0.03754,-0.05081,-0.01389,-0.00549,-0.00671,-0.05341,-0.06851,-0.07278,-0.03357,-0.02838,0.00702,-0.07523
4.409,0.01663,-0.03662,-0.03952,-0.56442,-0.03326,-0.04913,-0.01419,-0.00717,-0.01801,-0.04929,-0.07263,-0.02441,-0.0351,-0.0267,0.00687,-0.0708
4.4095,0.01984,-0.03555,-0.03601,-0.30609,-0.03143,-0.04883,-0.01328,-0.009,-0.02731,-0.04242,-0.06302,0.10925,-0.03448,-0.02594,0.00824,-0.04211
4.41,0.02319,-0.03326,-0.03403,0.01633,-0.02716,-0.047,-0.01297,-0.00946,-0.03494,-0.03372,-0.0386,0.23712,-0.03281,-0.02625,0.01038,-0.01297
4.4105,0.02396,-0.03159,-0.03204,0.22934,-0.01846,-0.04227,-0.01358,-0.01022,-0.0412,-0.02563,-0.01236,0.23575,-0.03067,-0.02762,0.00977,-0.01144
4.411,0.02151,-0.03326,-0.03128,0.3064,-0.01099,-0.03784,-0.01495,-0.01083,-0.04486,-0.01831,0.00549,0.11642,-0.03113,-0.02899,0.00916,-0.03159
4.4115,0.01862,-0.03571,-0.03159,0.31845,-0.00885,-0.03479,-0.01556,-0.01114,-0.04425,-0.01312,0.01602,0.01312,-0.03098,-0.02853,0.009,-0.04623
4.412,0.01617,-0.03525,-0.03021,0.28702,-0.01373,-0.03387,-0.01541,-0.01251,-0.03937,-0.00809,0.02411,-0.00031,-0.03143,-0.02594,0.00839,-0.04486
4.4125,0.01205,-0.03174,-0.02777,0.17914,-0.01953,-0.03448,-0.01648,-0.0119,-0.03098,0.00015,0.02731,0.01923,-0.03128,-0.02182,0.00839,-0.03937
4.413,0.00412,-0.02747,-0.02396,0.00412,-0.02151,-0.03586,-0.01831,-0.01022,-0.02167,0.00717,0.0264,0.01083,-0.0322,-0.01907,0.0087,-0.03937
4.4135,-0.009,-0.0235,-0.01999,-0.16586,-0.01816,-0.0383,-0.02014,-0.00839,-0.01572,0.01297,0.0238,0.00412,-0.03357,-0.01923,0.00885,-0.04303
4.414,-0.02625,-0.02167,-0.01663,-0.22751,-0.01282,-0.04196,-0.02106,-0.00717,-0.01328,0.01556,0.02396,0.03693,-0.03235,-0.01923,0.00885,-0.0441
4.4145,-0.0415,-0.02182,-0.00244,-0.09247,-0.00671,-0.04532,-0.01907,-0.0061,-0.01343,0.01648,0.02716,0.06607,-0.02884,-0.01907,0.00809,-0.04379
4.415,-0.04974,-0.02411,0.02869,0.20981,-0.00168,-0.04822,-0.01587,-0.00687,-0.01266,0.01846,0.02792,0.04791,-0.0264,-0.0206,0.00656,-0.04623
4.4155,-0.05005,-0.02365,0.06683,0.48767,0.0029,-0.05142,-0.01465,-0.00793,-0.009,0.02243,0.02518,0.01205,-0.02731,-0.02274,0.00259,-0.05035
4.416,-0.04852,-0.01648,0.08713,0.52475,0.00351,-0.05295,-0.01404,-0.00839,-0.00137,0.0296,0.02182,0.0119,-0.03143,-0.02182,0.00168,-0.05325
4.4165,-0.05356,-0.00961,0.07065,0.31754,-0.00397,-0.05249,-0.01343,-0.00732,0.00702,0.03571,0.01892,0.04944,-0.03555,-0.01816,0.00183,-0.05676
4.417,-0.06577,-0.01022,0.0238,0.06912,-0.01984,-0.05157,-0.00992,-0.00519,0.01465,0.03723,0.01526,0.08911,-0.03922,-0.01572,0.00275,-0.05585
4.4175,-0.07874,-0.02136,-0.02792,-0.05432,-0.03662,-0.04883,-0.00763,-0.0061,0.02777,0.0325,0.00885,0.11322,-0.04227,-0.0177,0.00168,-0.0502
4.418,-0.08575,-0.03372,-0.05814,-0.07172,-0.04791,-0.04547,-0.0087,-0.00824,0.05402,0.02426,-0.00198,0.12222,-0.04395,-0.02228,-0.00046,-0.04196
4.4185,-0.08469,-0.03952,-0.06592,-0.06561,-0.0563,-0.04395,-0.0116,-0.00549,0.09186,0.0174,-0.01221,0.11414,-0.04303,-0.02518,-0.00107,-0.04013
4.419,-0.07507,-0.03799,-0.06378,-0.05341,-0.06348,-0.04654,-0.01419,0.00412,0.12665,0.01419,-0.01709,0.08728,-0.0412,-0.02716,0.00122,-0.04791
4.4195,-0.05814,-0.03479,-0.05585,-0.0206,-0.0679,-0.04807,-0.01526,0.01465,0.14069,0.01251,-0.0148,0.05142,-0.03876,-0.02762,0.00381,-0.05951
4.42,-0.03647,-0.03754,-0.03693,0.01358,-0.07126,-0.04715,-0.01373,0.01633,0.12619,0.01007,-0.00977,0.00595,-0.03754,-0.02579,0.0058,-0.06577
4.4205,-0.01053,-0.04486,-0.00961,0.02014,-0.07324,-0.04501,-0.01266,0.00992,0.08575,0.00626,-0.00778,-0.07645,-0.03754,-0.02228,0.0061,-0.06149
4.421,0.01572,-0.05356,0.00595,0.00183,-0.06866,-0.0441,-0.01419,0.00214,0.03357,0.00168,-0.00793,-0.19867,-0.0354,-0.01877,0.00763,-0.05219
4.4215,0.0351,-0.06058,-0.00244,-0.01923,-0.05508,-0.04562,-0.01648,-0.00061,-0.01694,0.00122,-0.00961,-0.28595,-0.03036,-0.01877,0.01022,-0.04181
4.422,0.04211,-0.06912,-0.0238,-0.02563,-0.04257,-0.04745,-0.0177,0.0,-0.06119,0.00854,-0.01282,-0.25787,-0.02441,-0.02029,0.01221,-0.02991
4.4225,0.04227,-0.07797,-0.04028,-0.01556,-0.03967,-0.04776,-0.01694,-0.00046,-0.10254,0.02457,-0.02487,-0.14999,-0.02045,-0.02014,0.01205,-0.01205
4.423,0.0444,-0.08423,-0.04471,-0.00565,-0.04074,-0.0473,-0.01556,-0.00214,-0.1387,0.03922,-0.04227,-0.07385,-0.01892,-0.01892,0.01083,0.00275
4.4235,0.0528,-0.08301,-0.04791,-0.01617,-0.03983,-0.04776,-0.01572,-0.00351,-0.16388,0.0499,-0.05188,-0.05737,-0.0174,-0.01831,0.00931,-0.00305
4.424,0.0621,-0.07828,-0.05554,-0.05402,-0.03647,-0.04807,-0.01617,-0.00504,-0.16937,0.05157,-0.04257,-0.03235,-0.01862,-0.01862,0.00671,-0.02716
4.4245,0.0708,-0.07736,-0.06393,-0.12405,-0.03235,-0.04776,-0.01602,-0.00809,-0.15717,0.04974,-0.01907,0.03433,-0.02304,-0.01648,0.00381,-0.04715
4.425,0.07706,-0.0798,-0.07309,-0.23697,-0.03189,-0.04623,-0.01343,-0.01251,-0.13947,0.03937,0.00366,0.09781,-0.0293,-0.01556,0.00107,-0.05173
4.4255,0.07874,-0.07584,-0.08148,-0.36163,-0.03372,-0.04501,-0.01297,-0.0145,-0.13016,0.01938,0.01572,0.11276,-0.03433,-0.01724,0.00015,-0.05096
4.426,0.06699,-0.05997,-0.08698,-0.42496,-0.0351,-0.04242,-0.01556,-0.01251,-0.13092,-0.01022,0.01938,0.09048,-0.03571,-0.02014,0.00122,-0.05768
4.4265,0.03738,-0.04013,-0.0882,-0.40024,-0.03571,-0.03937,-0.01877,-0.00931,-0.13107,-0.03662,0.0209,0.05905,-0.03479,-0.0209,0.00534,-0.06409
4.427,-0.00305,-0.03326,-0.08499,-0.3334,-0.03448,-0.03738,-0.02045,-0.00854,-0.11765,-0.05157,0.02289,0.01984,-0.03494,-0.01801,0.00732,-0.06012
4.4275,-0.04272,-0.04944,-0.08316,-0.26199,-0.0322,-0.03845,-0.01923,-0.00992,-0.09109,-0.05417,0.02258,-0.03616,-0.03708,-0.01663,0.00778,-0.047
4.428,-0.07645,-0.07858,-0.08301,-0.168,-0.02975,-0.04105,-0.01724,-0.01053,-0.05783,-0.05341,0.01465,-0.09521,-0.03876,-0.0177,0.00778,-0.03098
4.4285,-0.10559,-0.10361,-0.07965,-0.05341,-0.02762,-0.04257,-0.01587,-0.00778,-0.01877,-0.05524,-0.00015,-0.13412,-0.03799,-0.01953,0.00839,-0.02045
4.429,-0.12939,-0.11444,-0.07782,0.01038,-0.02808,-0.04135,-0.01465,-0.00534,0.02319,-0.06027,-0.01236,-0.1506,-0.03586,-0.01801,0.00778,-0.01968
4.4295,-0.13962,-0.11398,-0.09628,-0.02975,-0.02914,-0.03815,-0.01236,-0.00305,0.05554,-0.06439,-0.01572,-0.16037,-0.03494,-0.01587,0.0058,-0.02853
4.43,-0.12512,-0.10696,-0.14343,-0.13031,-0.02991,-0.0351,-0.01053,-0.00381,0.06424,-0.0676,-0.01144,-0.1593,-0.03616,-0.01541,0.00458,-0.03906
4.4305,-0.09613,-0.0975,-0.19135,-0.21851,-0.02914,-0.03662,-0.01129,-0.00656,0.0531,-0.06958,-0.00565,-0.11703,-0.03662,-0.0177,0.00534,-0.04547
4.431,-0.07339,-0.08606,-0.18005,-0.25482,-0.02884,-0.03983,-0.01419,-0.00946,0.04074,-0.07111,-0.00305,-0.02487,-0.03632,-0.0206,0.00656,-0.04578
4.4315,-0.056,-0.06821,-0.09323,-0.17059,-0.02838,-0.04227,-0.01816,-0.01266,0.03845,-0.07126,-0.00748,0.07614,-0.03464,-0.02289,0.00641,-0.0444
4.432,-0.01709,-0.04486,0.01038,0.11627,-0.02899,-0.04166,-0.02151,-0.01465,0.03967,-0.06973,-0.01831,0.13474,-0.03464,-0.02411,0.0061,-0.0441
4.4325,0.0531,-0.02121,0.06409,0.51071,-0.02853,-0.03952,-0.02243,-0.01587,0.03601,-0.06241,-0.02823,0.1358,-0.0354,-0.02365,0.00549,-0.04593
4.433,0.12375,-0.00565,0.05722,0.73441,-0.02686,-0.03845,-0.01968,-0.01465,0.03906,-0.05356,-0.03387,0.10727,-0.03571,-0.02319,0.00534,-0.04654
4.4335,0.16022,0.00107,0.00488,0.62317,-0.02563,-0.03937,-0.01572,-0.0116,0.06622,-0.04562,-0.03983,0.08606,-0.03479,-0.02304,0.00656,-0.04608
4.434,0.1564,0.00778,-0.08163,0.33356,-0.02625,-0.0415,-0.01282,-0.00809,0.10696,-0.04074,-0.05493,0.08438,-0.03174,-0.02289,0.00702,-0.04501
4.4345,0.13214,0.0206,-0.15991,0.12146,-0.02701,-0.04333,-0.01328,-0.00732,0.13458,-0.03876,-0.08255,0.07477,-0.02945,-0.02304,0.00885,-0.04532
4.435,0.10574,0.03525,-0.16144,0.05081,-0.02838,-0.04379,-0.01633,-0.01038,0.13626,-0.03693,-0.11505,0.02869,-0.02884,-0.0235,0.01038,-0.0444
4.4355,0.0824,0.0444,-0.06516,0.04532,-0.03006,-0.04532,-0.01617,-0.01251,0.1181,-0.03265,-0.13947,-0.04303,-0.02884,-0.02167,0.01205,-0.04318
4.436,0.06287,0.04425,0.05768,0.07965,-0.03174,-0.04868,-0.01389,-0.01282,0.07843,-0.03098,-0.14175,-0.09018,-0.02853,-0.01862,0.01236,-0.0415
4.4365,0.0444,0.04196,0.12787,0.17624,-0.03265,-0.04929,-0.01129,-0.01099,0.01022,-0.03677,-0.12497,-0.07553,-0.02869,-0.01343,0.01312,-0.04211
4.437,0.02853,0.03784,0.13123,0.2916,-0.03174,-0.04929,-0.00977,-0.01007,-0.07095,-0.05127,-0.09766,-0.01938,-0.0296,-0.01068,0.01419,-0.04181
4.4375,0.01587,0.02914,0.10147,0.32593,-0.03159,-0.0502,-0.00916,-0.00854,-0.13275,-0.06897,-0.06912,0.02151,-0.02914,-0.00961,0.01343,-0.04303
4.438,0.00351,0.01633,0.06073,0.23544,-0.03128,-0.05173,-0.00839,-0.00671,-0.15961,-0.08377,-0.04288,0.00565,-0.02792,-0.00732,0.01144,-0.04532
4.4385,-0.00839,0.0061,0.01968,0.07187,-0.03143,-0.0528,-0.00809,-0.0058,-0.15823,-0.09506,-0.02518,-0.05737,-0.02762,-0.00336,0.00854,-0.04745
4.439,-0.01678,-0.00046,-0.01511,-0.07172,-0.03281,-0.0528,-0.00809,-0.0061,-0.13855,-0.10239,-0.01663,-0.12726,-0.02823,0.00076,0.00793,-0.05035
4.4395,-0.0177,-0.00641,-0.03601,-0.1329,-0.03342,-0.05341,-0.00824,-0.00763,-0.09659,-0.10376,-0.01205,-0.16037,-0.0293,0.00275,0.00732,-0.05188
4.44,-0.01617,-0.01526,-0.04456,-0.11124,-0.03235,-0.05539,-0.00763,-0.009,-0.03357,-0.09628,-0.00702,-0.12573,-0.02869,0.00107,0.00397,-0.05341
4.4405,-0.01663,-0.02457,-0.04562,-0.05905,-0.03098,-0.05707,-0.00793,-0.01038,0.0238,-0.07919,-0.00092,-0.0351,-0.02869,-0.00397,0.00076,-0.05447
4.441,-0.01923,-0.02991,-0.0383,-0.03693,-0.03036,-0.05661,-0.01022,-0.01389,0.04791,-0.05615,0.00702,0.05234,-0.03006,-0.00977,0.00076,-0.05432
4.4415,-0.01877,-0.03204,-0.02228,-0.05676,-0.03036,-0.05493,-0.01465,-0.01862,0.03342,-0.03281,0.02213,0.08911,-0.0322,-0.01404,0.00336,-0.05127
4.442,-0.01755,-0.0354,-0.0029,-0.09613,-0.02853,-0.05325,-0.01831,-0.02121,-0.0029,-0.00854,0.04654,0.07202,-0.03387,-0.01556,0.00778,-0.04822
4.4425,-0.01755,-0.04333,0.00397,-0.16388,-0.02655,-0.05325,-0.02014,-0.01953,-0.04822,0.0145,0.07385,0.02533,-0.03326,-0.01465,0.01053,-0.04608
4.443,-0.0177,-0.05127,-0.01175,-0.28717,-0.02502,-0.05188,-0.01801,-0.01572,-0.09705,0.03632,0.08163,-0.00992,-0.03174,-0.01465,0.0116,-0.04486
4.4435,-0.01053,-0.05112,-0.03967,-0.4361,-0.02533,-0.05005,-0.01297,-0.01099,-0.14587,0.05142,0.05814,0.01434,-0.03189,-0.01556,0.01007,-0.04547
4.444,-0.00046,-0.04028,-0.06622,-0.51743,-0.02594,-0.04898,-0.00931,-0.0087,-0.1828,0.05615,0.01953,0.09048,-0.03052,-0.01587,0.00931,-0.04929
4.4445,0.00351,-0.0238,-0.09064,-0.457,-0.02579,-0.04837,-0.009,-0.00824,-0.2002,0.05432,-0.00763,0.12238,-0.02975,-0.01587,0.00916,-0.05859
4.445,0.00031,-0.01617,-0.11566,-0.26627,-0.02518,-0.04837,-0.00854,-0.00809,-0.19653,0.05173,-0.01694,0.02777,-0.02914,-0.01678,0.0087,-0.06973
4.4455,-0.00305,-0.02548,-0.13275,-0.03418,-0.02502,-0.04852,-0.00824,-0.00595,-0.1767,0.05478,-0.02502,-0.14023,-0.0296,-0.01801,0.00916,-0.07614
4.446,-0.00183,-0.04547,-0.12619,0.15167,-0.02472,-0.05035,-0.00702,-0.00473,-0.14481,0.06317,-0.04776,-0.25208,-0.0296,-0.01801,0.00885,-0.07309
4.4465,-0.00031,-0.0647,-0.09399,0.23346,-0.02625,-0.05173,-0.00702,-0.00427,-0.0975,0.06577,-0.08713,-0.26245,-0.02975,-0.01678,0.00702,-0.06485
4.447,-0.00351,-0.07767,-0.05173,0.18082,-0.02548,-0.05051,-0.009,-0.00519,-0.03967,0.05707,-0.13199,-0.23102,-0.03021,-0.01556,0.00702,-0.05753
4.4475,-0.00931,-0.08591,-0.01755,0.04898,-0.02533,-0.04822,-0.01022,-0.0058,0.01221,0.0351,-0.16205,-0.19958,-0.03128,-0.01556,0.00626,-0.05264
4.448,-0.01587,-0.09033,0.00626,0.01175,-0.02686,-0.047,-0.0116,-0.00427,0.04135,0.00732,-0.16449,-0.14069,-0.03174,-0.01617,0.00519,-0.04883
4.4485,-0.02609,-0.09125,0.02136,0.19196,-0.02975,-0.04745,-0.01282,-0.00183,0.04425,-0.01282,-0.14969,-0.04471,-0.03281,-0.01709,0.00626,-0.04318
4.449,-0.04593,-0.09415,0.02991,0.48706,-0.03235,-0.04913,-0.01556,0.00015,0.02625,-0.01572,-0.12634,0.04364,-0.03418,-0.01816,0.0061,-0.03601
4.4495,-0.06683,-0.10025,0.02365,0.67596,-0.03448,-0.05234,-0.01602,0.00137,-0.00427,-0.00305,-0.09018,0.10941,-0.03387,-0.01831,0.00626,-0.02319
4.45,-0.07202,-0.10437,0.0,0.64194,-0.0351,-0.05707,-0.01511,0.00305,-0.0354,0.01053,-0.03967,0.18387,-0.03296,-0.01984,0.00946,-0.00641
4.4505,-0.05432,-0.10101,-0.03296,0.42633,-0.0351,-0.06042,-0.01266,0.00397,-0.05417,0.01297,0.00793,0.26993,-0.0325,-0.02243,0.01114,0.00046
4.451,-0.02808,-0.09018,-0.05951,0.11658,-0.03616,-0.06119,-0.01083,0.00305,-0.05142,0.00763,0.04013,0.30396,-0.03281,-0.02396,0.01038,-0.01007
4.4515,-0.00916,-0.07736,-0.06851,-0.20248,-0.03906,-0.06073,-0.00992,0.00076,-0.0293,0.00717,0.06317,0.23682,-0.03342,-0.02151,0.00748,-0.02869
4.452,0.0,-0.06699,-0.06439,-0.42969,-0.04166,-0.06042,-0.01114,-0.00107,0.00641,0.01877,0.08896,0.09842,-0.03265,-0.01846,0.00671,-0.03845
4.4525,0.0032,-0.06088,-0.05844,-0.51178,-0.04166,-0.0621,-0.0145,-0.00244,0.04364,0.03708,0.11398,-0.05249,-0.03204,-0.01968,0.00748,-0.03571
4.453,0.0029,-0.05768,-0.05936,-0.49942,-0.0386,-0.06241,-0.01709,-0.00153,0.06454,0.0502,0.12421,-0.18494,-0.03098,-0.02502,0.01007,-0.03098
4.4535,-0.00107,-0.05508,-0.06744,-0.46036,-0.03586,-0.06119,-0.01831,0.00031,0.05737,0.05341,0.10605,-0.28183,-0.0293,-0.02808,0.00931,-0.03372
4.454,-0.00839,-0.05127,-0.07904,-0.37964,-0.03342,-0.06073,-0.01831,0.00198,0.03036,0.04715,0.05814,-0.32822,-0.02869,-0.02487,0.00656,-0.03784
4.4545,-0.01755,-0.04486,-0.08484,-0.20172,-0.03098,-0.06165,-0.01724,0.00183,0.00626,0.03342,-0.00031,-0.32562,-0.02686,-0.01831,0.00534,-0.03952
4.455,-0.02365,-0.03326,-0.0769,0.05386,-0.02808,-0.06134,-0.01709,0.0,-0.00244,0.01221,-0.04684,-0.28061,-0.02625,-0.01434,0.00702,-0.03998
4.4555,-0.02151,-0.01877,-0.06897,0.2713,-0.02365,-0.0618,-0.01755,-0.00183,-0.00412,-0.02197,-0.06912,-0.18646,-0.02747,-0.01343,0.009,-0.04135
4.456,-0.01053,-0.0119,-0.07217,0.3479,-0.02075,-0.0621,-0.01877,-0.00259,-0.01251,-0.06653,-0.07126,-0.0415,-0.0296,-0.01236,0.00824,-0.04456
4.4565,-0.00015,-0.01755,-0.07813,0.30838,-0.02396,-0.06287,-0.01923,-0.00107,-0.02899,-0.10773,-0.05615,0.1268,-0.0322,-0.01236,0.00671,-0.04837
4.457,0.00351,-0.02853,-0.06134,0.25818,-0.03372,-0.0618,-0.01831,-0.00076,-0.04272,-0.12985,-0.02426,0.26031,-0.03265,-0.0145,0.00427,-0.0502
4.4575,0.00275,-0.0383,-0.0145,0.22903,-0.04547,-0.05951,-0.01587,-0.00336,-0.0415,-0.12802,0.01999,0.28198,-0.03418,-0.01831,0.00427,-0.04929
4.458,0.00259,-0.05112,0.04272,0.14664,-0.05096,-0.05875,-0.01266,-0.00504,-0.02045,-0.11032,0.06973,0.16998,-0.03571,-0.01968,0.00565,-0.04623
4.4585,-0.00259,-0.06927,0.09171,-0.04745,-0.04715,-0.05829,-0.01175,-0.00443,0.01862,-0.08453,0.11032,0.02335,-0.03662,-0.01617,0.00717,-0.0444
4.459,-0.01984,-0.08713,0.12314,-0.31281,-0.04013,-0.05981,-0.01114,-0.00137,0.06393,-0.06119,0.12802,0.01297,-0.03662,-0.0119,0.00732,-0.04578
4.4595,-0.04578,-0.09476,0.13641,-0.57327,-0.03799,-0.06042,-0.01007,0.00214,0.09628,-0.0441,0.11719,0.21194,-0.03677,-0.01022,0.00656,-0.047
4.46,-0.06271,-0.09583,0.12955,-0.7756,-0.0386,-0.05829,-0.00626,0.00549,0.10315,-0.03632,0.08942,0.48492,-0.03708,-0.0116,0.0058,-0.04745
4.4605,-0.05875,-0.09949,0.10742,-0.82611,-0.03616,-0.056,-0.00275,0.00534,0.08072,-0.03815,0.06302,0.58868,-0.03647,-0.01434,0.00641,-0.04593
4.461,-0.04196,-0.10498,0.07599,-0.60242,-0.03174,-0.05676,-0.00366,0.00275,0.03189,-0.04211,0.04395,0.4245,-0.03555,-0.01801,0.00916,-0.04425
4.4615,-0.03128,-0.09918,0.03937,-0.14175,-0.02975,-0.05829,-0.0116,-0.00427,-0.03555,-0.04242,0.02884,0.15656,-0.03525,-0.02243,0.01129,-0.04303
4.462,-0.03448,-0.07309,-0.00504,0.27786,-0.02975,-0.05814,-0.01938,-0.01038,-0.09766,-0.03967,0.02304,0.00244,-0.03815,-0.02426,0.01282,-0.04349
4.4625,-0.03937,-0.03662,-0.04883,0.40649,-0.02762,-0.05661,-0.02182,-0.01205,-0.13153,-0.03952,0.02823,-0.00244,-0.04105,-0.02304,0.0119,-0.04395
4.463,-0.03632,-0.01068,-0.07996,0.28839,-0.02487,-0.05585,-0.01831,-0.00977,-0.1355,-0.03967,0.02472,0.03571,-0.04242,-0.02228,0.01221,-0.04288
4.4635,-0.02502,-0.0058,-0.09506,0.14969,-0.02411,-0.05783,-0.0145,-0.00732,-0.12619,-0.03204,-0.00977,0.0354,-0.04242,-0.02228,0.01419,-0.04242
4.464,-0.01358,-0.01373,-0.10422,0.09705,-0.02457,-0.05875,-0.01572,-0.00671,-0.11734,-0.01465,-0.0589,-0.0148,-0.04181,-0.02136,0.01297,-0.04288
4.4645,-0.00763,-0.02502,-0.11322,0.06454,-0.02472,-0.0589,-0.01892,-0.009,-0.10605,0.0061,-0.08286,-0.09018,-0.0412,-0.02045,0.00992,-0.04333
4.465,-0.00656,-0.0383,-0.1178,-0.00046,-0.02594,-0.05676,-0.0206,-0.0119,-0.08575,0.01953,-0.07401,-0.13596,-0.04181,-0.01877,0.00488,-0.04532
4.4655,-0.009,-0.05402,-0.11078,-0.05783,-0.02655,-0.05539,-0.01999,-0.01495,-0.05402,0.01694,-0.0592,-0.11169,-0.04105,-0.01709,-0.00031,-0.04791
4.466,-0.01389,-0.06149,-0.09216,-0.07141,-0.02808,-0.0528,-0.01984,-0.01663,-0.00946,-0.00366,-0.05249,-0.04425,-0.03845,-0.01282,-0.00168,-0.05035
4.4665,-0.01938,-0.04883,-0.06729,-0.09094,-0.02914,-0.05005,-0.01968,-0.01709,0.03784,-0.04074,-0.047,-0.01236,-0.0351,-0.00931,0.00031,-0.05066
4.467,-0.02319,-0.02151,-0.04364,-0.19287,-0.03036,-0.04776,-0.01999,-0.01648,0.06958,-0.0795,-0.04349,-0.04715,-0.03189,-0.00885,0.00275,-0.05005
4.4675,-0.02396,0.00107,-0.01831,-0.36041,-0.03082,-0.04486,-0.01877,-0.01556,0.08057,-0.10208,-0.05249,-0.08652,-0.02991,-0.01328,0.0032,-0.04852
4.468,-0.02792,0.00687,0.00519,-0.47806,-0.03098,-0.04257,-0.01694,-0.01587,0.0885,-0.09903,-0.06577,-0.04929,-0.0293,-0.01617,0.00046,-0.0473
4.4685,-0.03738,0.00214,0.01785,-0.46066,-0.03143,-0.03952,-0.01617,-0.01572,0.12299,-0.08057,-0.06317,0.0528,-0.02838,-0.01602,-0.00168,-0.04578
4.469,-0.0386,0.00168,0.00885,-0.34195,-0.03265,-0.03922,-0.01572,-0.01266,0.18738,-0.06348,-0.04074,0.11993,-0.02731,-0.01511,0.0,-0.04486
4.4695,-0.01617,0.00992,-0.0145,-0.21164,-0.03265,-0.04028,-0.0148,-0.00763,0.25528,-0.05203,-0.01663,0.08759,-0.02609,-0.01495,0.00336,-0.04257
4.47,0.01572,0.02228,-0.04166,-0.10956,-0.03174,-0.04089,-0.01556,-0.00336,0.29724,-0.04028,-0.0029,-0.00214,-0.02457,-0.01633,0.00824,-0.0412
4.4705,0.02716,0.03479,-0.05905,0.01816,-0.03387,-0.04089,-0.01495,-0.00214,0.30426,-0.02396,0.00336,-0.0798,-0.02411,-0.01694,0.01068,-0.04074
4.471,0.00793,0.04242,-0.07111,0.26016,-0.03876,-0.04059,-0.01236,-0.00305,0.27954,-0.00259,0.00748,-0.11383,-0.02518,-0.01862,0.01038,-0.04013
4.4715,-0.01984,0.04272,-0.08118,0.59265,-0.04425,-0.04074,-0.00854,-0.00305,0.22446,0.0235,0.0061,-0.09613,-0.02701,-0.02289,0.00809,-0.04044
4.472,-0.03098,0.03235,-0.09048,0.82718,-0.04898,-0.03754,-0.00656,-0.00244,0.13794,0.0499,-0.00137,-0.03433,-0.02838,-0.0267,0.00504,-0.04257
4.4725,-0.02014,0.01801,-0.09293,0.79117,-0.05081,-0.03632,-0.00656,-0.00122,0.0264,0.07202,-0.00824,0.02197,-0.02869,-0.02777,0.00351,-0.04791
4.473,-0.00305,0.0058,-0.08698,0.54626,-0.05096,-0.03586,-0.00778,-0.00031,-0.0914,0.08209,-0.00778,0.01862,-0.02762,-0.02533,0.00519,-0.05173
4.4735,0.00488,-0.00458,-0.08148,0.32242,-0.04868,-0.03464,-0.00854,0.00275,-0.19562,0.08362,-0.0058,-0.04456,-0.02716,-0.02304,0.00748,-0.05249
4.474,0.0,-0.01633,-0.08652,0.25528,-0.04578,-0.03281,-0.01007,0.00488,-0.27771,0.08133,-0.00626,-0.12314,-0.02701,-0.02304,0.00748,-0.05173
4.4745,-0.00656,-0.02792,-0.10132,0.28641,-0.04196,-0.03067,-0.01221,0.00412,-0.33875,0.07813,-0.00504,-0.18021,-0.02777,-0.02396,0.0061,-0.04868
4.475,-0.00122,-0.03708,-0.11353,0.30792,-0.0383,-0.02853,-0.01236,0.00046,-0.3714,0.07278,-0.00656,-0.21057,-0.02945,-0.02579,0.00656,-0.04364
4.4755,0.01984,-0.04837,-0.12009,0.27664,-0.03479,-0.02686,-0.01022,-0.00107,-0.36148,0.06577,-0.02487,-0.21408,-0.0322,-0.02808,0.00763,-0.03876
4.476,0.0415,-0.06714,-0.12253,0.19821,-0.02975,-0.02701,-0.0087,0.00046,-0.30792,0.05661,-0.05951,-0.16556,-0.03571,-0.03204,0.00931,-0.03738
4.4765,0.04868,-0.08942,-0.11932,0.08591,-0.02258,-0.02731,-0.00977,0.00092,-0.2359,0.04242,-0.08438,-0.03357,-0.03677,-0.03342,0.00946,-0.03967
4.477,0.0444,-0.1059,-0.10086,-0.04913,-0.01099,-0.02731,-0.0119,-0.00031,-0.17075,0.02243,-0.08026,0.16159,-0.0351,-0.03296,0.00992,-0.04242
4.4775,0.04196,-0.10941,-0.05844,-0.19089,-0.00092,-0.02502,-0.01312,-0.00305,-0.12329,0.00214,-0.05859,0.34088,-0.03265,-0.0322,0.00946,-0.04211
4.478,0.04074,-0.10056,0.00946,-0.32288,0.00519,-0.02472,-0.01328,-0.00595,-0.08652,-0.0119,-0.04303,0.40802,-0.03143,-0.03159,0.0119,-0.03937
4.4785,0.0293,-0.08789,0.09232,-0.45761,0.00443,-0.02609,-0.01495,-0.01007,-0.05844,-0.01724,-0.03738,0.30075,-0.03067,-0.03143,0.01282,-0.03738
4.479,-0.00153,-0.08163,0.16083,-0.61554,-0.00122,-0.02762,-0.01892,-0.01312,-0.047,-0.0148,-0.02808,0.05646,-0.02991,-0.02975,0.01541,-0.0383
4.4795,-0.04501,-0.08118,0.19379,-0.74265,-0.01038,-0.02914,-0.02213,-0.01358,-0.05508,-0.01038,-0.00443,-0.19241,-0.02975,-0.02563,0.01678,-0.03937
4.48,-0.08652,-0.07614,0.18234,-0.70602,-0.02121,-0.03006,-0.02182,-0.01221,-0.065,-0.00793,0.02472,-0.33279,-0.03342,-0.01907,0.01709,-0.03876
4.4805,-0.10757,-0.05966,0.1297,-0.44922,-0.03021,-0.03265,-0.01999,-0.01053,-0.05341,-0.00778,0.04532,-0.35858,-0.0383,-0.01221,0.01526,-0.03693
4.481,-0.09384,-0.0351,0.04547,-0.10574,-0.03342,-0.03555,-0.01923,-0.009,-0.01892,-0.00854,0.04715,-0.32364,-0.04074,-0.00717,0.01251,-0.03632
4.4815,-0.04944,-0.01251,-0.04913,0.13641,-0.03418,-0.03647,-0.01938,-0.00793,0.02502,-0.01068,0.02762,-0.25955,-0.04028,-0.00381,0.00961,-0.03876
4.482,0.00107,0.00229,-0.1178,0.2327,-0.03235,-0.03586,-0.01968,-0.00595,0.07996,-0.01648,-0.00549,-0.1506,-0.03952,-0.00107,0.00824,-0.04227
4.4825,0.03265,0.01053,-0.12772,0.27451,-0.03021,-0.03525,-0.01785,-0.00366,0.1532,-0.0238,-0.03128,0.01755,-0.03922,-0.00214,0.0061,-0.04471
4.483,0.03311,0.01587,-0.0679,0.32074,-0.02701,-0.03464,-0.01404,-0.00046,0.22995,-0.0235,-0.0296,0.20142,-0.03769,-0.00427,0.00427,-0.04471
4.4835,0.00885,0.02045,0.03693,0.3096,-0.02548,-0.03494,-0.01175,0.00198,0.2887,-0.01389,-0.00504,0.2858,-0.03418,-0.00793,0.00427,-0.04257
4.484,-0.02518,0.02365,0.14206,0.17914,-0.02731,-0.03586,-0.01175,0.00275,0.33585,0.00046,0.02228,0.15839,-0.03128,-0.01312,0.00671,-0.04013
4.4845,-0.05524,0.02258,0.19806,0.00092,-0.03143,-0.03876,-0.01404,0.00122,0.38574,0.01541,0.04272,-0.1593,-0.02975,-0.01816,0.00931,-0.03708
4.485,-0.07004,0.01144,0.1828,-0.06546,-0.03387,-0.04105,-0.01602,-0.00092,0.41321,0.02808,0.0618,-0.47455,-0.02609,-0.0206,0.01022,-0.03693
4.4855,-0.05554,-0.00641,0.11322,0.05264,-0.03616,-0.04196,-0.01694,-0.0029,0.36743,0.02548,0.08621,-0.55298,-0.01907,-0.01938,0.01022,-0.04013
4.486,-0.01068,-0.02243,0.03098,0.2478,-0.0383,-0.0415,-0.01556,-0.00198,0.24475,-0.01251,0.1033,-0.33432,-0.01099,-0.0177,0.00854,-0.04272
4.4865,0.04135,-0.02899,-0.0209,0.32242,-0.03952,-0.04166,-0.01312,0.00031,0.10284,-0.08972,0.09094,0.00504,-0.00824,-0.02045,0.00549,-0.04059
4.487,0.07019,-0.02975,-0.04227,0.20416,-0.04013,-0.04303,-0.0116,0.00153,-0.00885,-0.186,0.0473,0.24475,-0.01526,-0.02609,0.00412,-0.03632
4.4875,0.06622,-0.02731,-0.08224,0.01984,-0.04059,-0.04379,-0.01083,0.00137,-0.08926,-0.2713,0.0061,0.33585,-0.02853,-0.03113,0.00534,-0.03418
4.488,0.04181,-0.0238,-0.16541,-0.06104,-0.0412,-0.04379,-0.00992,0.00046,-0.1561,-0.3154,-0.00031,0.36636,-0.03799,-0.0325,0.00824,-0.03372
4.4885,0.02563,-0.02853,-0.22461,-0.03067,-0.04166,-0.04196,-0.01007,0.00015,-0.19943,-0.3096,0.02747,0.37231,-0.03708,-0.03342,0.01068,-0.03448
4.489,0.04333,-0.04974,-0.17059,0.00198,-0.04318,-0.03906,-0.01297,0.00015,-0.19348,-0.26855,0.05508,0.29861,-0.03067,-0.03464,0.00992,-0.03464
4.4895,0.09888,-0.07813,-0.01114,-0.01175,-0.04333,-0.03784,-0.01587,0.0,-0.13031,-0.21622,0.06119,0.13702,-0.02808,-0.03738,0.00748,-0.03555
4.49,0.15915,-0.09155,0.14481,-0.03265,-0.04227,-0.0386,-0.01709,-0.00015,-0.03571,-0.16953,0.04471,-0.01419,-0.03036,-0.03754,0.00717,-0.03708
4.4905,0.18066,-0.08408,0.20844,-0.04822,-0.03815,-0.04089,-0.01587,0.00122,0.04929,-0.12894,0.01419,-0.05524,-0.03265,-0.0354,0.00793,-0.03967
4.491,0.15503,-0.07477,0.18097,-0.09979,-0.03418,-0.04242,-0.01434,0.00381,0.10223,-0.08163,-0.02457,0.01266,-0.03296,-0.03265,0.00824,-0.04044
4.4915,0.1149,-0.07889,0.11063,-0.18448,-0.03326,-0.04456,-0.0145,0.00534,0.11536,-0.02029,-0.06851,0.08987,-0.03342,-0.03281,0.00809,-0.04059
4.492,0.09689,-0.09125,0.02396,-0.23102,-0.03754,-0.04639,-0.01663,0.00488,0.08331,0.04562,-0.10681,0.06714,-0.0351,-0.03586,0.00534,-0.04059
4.4925,0.10223,-0.10361,-0.06149,-0.20432,-0.03922,-0.04944,-0.01724,0.00458,-0.00366,0.09644,-0.13229,-0.0679,-0.03891,-0.03967,0.00229,-0.04288
4.493,0.10574,-0.12238,-0.12482,-0.16968,-0.03677,-0.05157,-0.0148,0.00488,-0.13458,0.11505,-0.14618,-0.21317,-0.04105,-0.0412,0.00137,-0.04715
4.4935,0.08224,-0.14877,-0.15961,-0.22186,-0.03372,-0.05203,-0.0119,0.00519,-0.26337,0.11002,-0.15991,-0.23895,-0.04135,-0.03815,0.00168,-0.04898
4.494,0.02594,-0.16022,-0.19943,-0.34927,-0.03387,-0.05325,-0.01251,0.00595,-0.33264,0.09766,-0.17456,-0.09201,-0.04074,-0.03235,0.00336,-0.04761
4.4945,-0.0386,-0.14343,-0.27023,-0.39642,-0.03662,-0.05356,-0.01633,0.0058,-0.32501,0.09048,-0.17807,0.12329,-0.03906,-0.02823,0.00641,-0.0444
4.495,-0.06744,-0.11795,-0.3334,-0.19028,-0.03922,-0.05402,-0.01968,0.0058,-0.27054,0.09125,-0.15442,0.18661,-0.03891,-0.02655,0.00992,-0.04013
4.4955,-0.04349,-0.112,-0.31693,0.23056,-0.04028,-0.05493,-0.01862,0.00488,-0.21744,0.09232,-0.10605,-0.00061,-0.03906,-0.02457,0.01205,-0.0351
4.496,0.00153,-0.1181,-0.21454,0.56183,-0.0412,-0.05676,-0.01511,0.00427,-0.20294,0.09079,-0.06088,-0.24399,-0.03952,-0.02258,0.01175,-0.03143
4.4965,0.01724,-0.11246,-0.10223,0.52582,-0.04044,-0.05966,-0.01129,0.00381,-0.23972,0.08255,-0.05905,-0.25223,-0.03891,-0.0206,0.00961,-0.03387
4.497,-0.01602,-0.09384,-0.04288,0.17807,-0.0383,-0.06134,-0.01068,0.00458,-0.30746,0.06058,-0.12131,0.01633,-0.03784,-0.02014,0.0061,-0.04013
4.4975,-0.07874,-0.07721,-0.03265,-0.16525,-0.03525,-0.06088,-0.01129,0.00519,-0.36087,0.0238,-0.20798,0.3186,-0.03418,-0.02106,0.00168,-0.04547
4.498,-0.14175,-0.06683,-0.0354,-0.29663,-0.0322,-0.05859,-0.0119,0.00549,-0.3688,-0.01678,-0.2417,0.42114,-0.0264,-0.01892,-0.00107,-0.04532
4.4985,-0.18784,-0.05142,-0.03525,-0.28168,-0.03036,-0.05722,-0.01266,0.00458,-0.33279,-0.04822,-0.19104,0.31586,-0.01251,-0.01587,0.00046,-0.0441
4.499,-0.20981,-0.02563,-0.03708,-0.28976,-0.02975,-0.05859,-0.01419,0.00275,-0.26917,-0.06897,-0.09979,0.14801,0.00351,-0.01251,0.00473,-0.04364
4.4995,-0.19882,0.00122,-0.04425,-0.39383,-0.0264,-0.05981,-0.01465,0.00183,-0.18661,-0.08514,-0.01785,0.01678,0.01328,-0.01129,0.00687,-0.04456
4.5,-0.15488,0.01984,-0.05676,-0.54718,-0.02289,-0.05722,-0.01358,0.00183,-0.09064,-0.09888,0.0473,-0.07492,0.01389,-0.01022,0.00763,-0.04532
4.5005,-0.10101,0.02792,-0.07111,-0.60745,-0.01877,-0.05234,-0.0119,-0.00046,0.00015,-0.10468,0.10162,-0.16083,0.00916,-0.00763,0.00565,-0.04547
4.501,-0.06561,0.02701,-0.08591,-0.4039,-0.01923,-0.04807,-0.01175,-0.00214,0.07156,-0.09567,0.13123,-0.24185,0.00626,-0.00305,0.00381,-0.04532
4.5015,-0.05371,0.01709,-0.09598,0.05005,-0.02075,-0.04898,-0.01358,-0.00519,0.11841,-0.07568,0.11871,-0.23376,0.00122,0.00183,0.00504,-0.04471
4.502,-0.0441,0.00092,-0.11826,0.49728,-0.02258,-0.05096,-0.01511,-0.00549,0.14053,-0.05478,0.06638,-0.0325,-0.01266,0.00473,0.00977,-0.04105
4.5025,-0.0267,-0.0116,-0.18021,0.71243,-0.02213,-0.05066,-0.01617,-0.00504,0.13107,-0.03265,-0.00626,0.28198,-0.0354,0.00488,0.01358,-0.03616
4.503,-0.00992,-0.0116,-0.26489,0.74142,-0.02365,-0.04776,-0.01404,-0.00458,0.08591,-0.00931,-0.06866,0.4248,-0.05722,0.00275,0.01648,-0.03296
4.5035,-0.00381,-0.00122,-0.29266,0.73166,-0.02487,-0.04486,-0.01114,-0.00351,0.02121,0.00946,-0.08957,0.233,-0.06668,-0.00092,0.01816,-0.03128
4.504,-0.00259,0.01099,-0.21072,0.68085,-0.02136,-0.0412,-0.01038,-0.00214,-0.03342,0.01846,-0.06058,-0.11459,-0.05981,-0.00443,0.01633,-0.03052
4.5045,0.00687,0.0177,-0.07156,0.51422,-0.01526,-0.03815,-0.01205,-0.00092,-0.056,0.01953,-0.01755,-0.32715,-0.05188,-0.00885,0.01465,-0.03189
4.505,0.02655,0.01648,0.02167,0.26688,-0.01312,-0.03845,-0.0145,-0.00168,-0.04395,0.02213,0.0087,-0.32928,-0.05707,-0.0145,0.01343,-0.03586
4.5055,0.04395,0.00732,0.02747,0.03891,-0.01541,-0.0412,-0.01587,-0.00412,-0.00381,0.03632,0.03143,-0.23514,-0.07324,-0.01678,0.01312,-0.0412
4.506,0.04288,-0.00687,-0.02609,-0.15778,-0.01907,-0.04639,-0.01755,-0.00656,0.05157,0.05417,0.07523,-0.12924,-0.08057,-0.01221,0.01038,-0.04669
4.5065,0.02167,-0.0174,-0.08774,-0.40436,-0.02304,-0.04852,-0.01831,-0.00763,0.1001,0.06317,0.12192,-0.0148,-0.07004,-0.00397,0.00687,-0.04883
4.507,-0.00443,-0.01968,-0.12299,-0.7225,-0.02533,-0.04852,-0.01755,-0.00778,0.11383,0.05142,0.13916,0.0769,-0.05112,0.00351,0.00351,-0.04715
4.5075,-0.0238,-0.01999,-0.12589,-1.00204,-0.02625,-0.04944,-0.01831,-0.00916,0.08438,0.01785,0.12497,0.0882,-0.04044,0.00748,0.00275,-0.04578
4.508,-0.04089,-0.02548,-0.11871,-1.07574,-0.02594,-0.05051,-0.02121,-0.00977,0.03525,-0.02228,0.10025,0.02121,-0.04135,0.00992,0.00183,-0.04593
4.5085,-0.06363,-0.0293,-0.12009,-0.8577,-0.02411,-0.05264,-0.02228,-0.00946,-0.00259,-0.04013,0.07507,-0.06226,-0.04623,0.01175,0.00107,-0.04669
4.509,-0.08377,-0.02701,-0.1387,-0.40436,-0.02121,-0.05096,-0.01953,-0.00854,-0.02151,-0.0177,0.05112,-0.13519,-0.04883,0.01205,-0.00046,-0.047
4.5095,-0.07416,-0.0267,-0.18692,0.14725,-0.01923,-0.05035,-0.01572,-0.0058,-0.02945,0.02884,0.03113,-0.22202,-0.04913,0.01328,-0.00198,-0.04623
4.51,-0.03311,-0.04044,-0.2562,0.64606,-0.02121,-0.05264,-0.01373,-0.00122,-0.02975,0.07065,0.01236,-0.32379,-0.04929,0.01984,-0.00031,-0.04501
4.5105,0.0116,-0.06622,-0.26962,0.92468,-0.02991,-0.056,-0.01419,0.00244,-0.02075,0.08636,-0.01312,-0.36331,-0.04929,0.0264,0.00244,-0.0444
4.511,0.0351,-0.09033,-0.13916,0.83206,-0.03937,-0.05768,-0.01282,0.00488,-0.00549,0.08026,-0.03311,-0.25497,-0.04807,0.02716,0.00504,-0.04486
4.5115,0.04272,-0.10223,0.09979,0.40787,-0.04318,-0.05814,-0.00946,0.00443,0.01205,0.06668,-0.03448,-0.0354,-0.04395,0.02014,0.00641,-0.04486
4.512,0.04959,-0.10345,0.28732,-0.05966,-0.04181,-0.05997,-0.00778,0.00336,0.03143,0.05127,-0.01755,0.14618,-0.03708,0.00656,0.00687,-0.04654
4.5125,0.05936,-0.09689,0.30411,-0.2771,-0.0383,-0.06012,-0.0087,0.00305,0.05844,0.03357,0.00381,0.20477,-0.02762,-0.00992,0.00763,-0.04715
4.513,0.06897,-0.08881,0.17532,-0.21301,-0.03891,-0.05768,-0.01251,0.00366,0.09903,0.01083,0.01785,0.22369,-0.01968,-0.03052,0.0087,-0.04684
4.5135,0.07736,-0.07904,0.02579,-0.04395,-0.04013,-0.05295,-0.01419,0.00381,0.15121,-0.01236,0.01907,0.31982,-0.01617,-0.05127,0.01022,-0.04608
4.514,0.08072,-0.06439,-0.02518,0.07233,-0.03891,-0.04898,-0.01358,0.00153,0.20172,-0.03143,0.00626,0.44647,-0.01846,-0.07034,0.01205,-0.04684
4.5145,0.07706,-0.04318,0.06561,0.09476,-0.03433,-0.04608,-0.01221,-0.00168,0.23117,-0.04654,-0.01907,0.44601,-0.02167,-0.08514,0.01419,-0.04745
4.515,0.06485,-0.01953,0.24338,0.04791,-0.03204,-0.04562,-0.01389,-0.00488,0.23178,-0.05844,-0.05081,0.27786,-0.02075,-0.09186,0.01587,-0.04608
4.5155,0.04349,0.00061,0.39978,-0.02258,-0.03418,-0.04501,-0.01694,-0.00732,0.21606,-0.07095,-0.08057,0.047,-0.01343,-0.09094,0.01633,-0.04089
4.516,0.02167,0.00992,0.45349,-0.06958,-0.03632,-0.0441,-0.01923,-0.01007,0.20798,-0.08179,-0.10742,-0.15091,-0.00549,-0.08331,0.0148,-0.03784
4.5165,0.02258,0.00046,0.40619,-0.07782,-0.0354,-0.04211,-0.01938,-0.01022,0.2301,-0.08392,-0.1297,-0.28748,-0.0029,-0.07233,0.0116,-0.03876
4.517,0.05264,-0.02563,0.30991,-0.07385,-0.03372,-0.0383,-0.01633,-0.00687,0.28198,-0.07523,-0.14374,-0.327,-0.00595,-0.05875,0.01144,-0.03967
4.5175,0.08606,-0.05173,0.20538,-0.07599,-0.0351,-0.0383,-0.01282,-0.00183,0.32379,-0.05707,-0.14114,-0.26031,-0.01007,-0.04318,0.01373,-0.03876
4.518,0.09369,-0.06088,0.10864,-0.06149,-0.03891,-0.04257,-0.01038,0.00046,0.31342,-0.03815,-0.11917,-0.14938,-0.01389,-0.02975,0.01511,-0.03632
4.5185,0.07141,-0.05234,0.02731,-0.00122,-0.04166,-0.04883,-0.01068,0.0,0.24811,-0.02533,-0.09308,-0.02396,-0.01907,-0.02197,0.01236,-0.03677
4.519,0.03647,-0.04303,-0.03479,0.08347,-0.04364,-0.05676,-0.01129,-0.00061,0.15137,-0.03067,-0.08392,0.15793,-0.02548,-0.01999,0.00671,-0.04059
4.5195,-0.00397,-0.04364,-0.07965,0.13199,-0.04547,-0.06195,-0.0119,-0.00214,0.03693,-0.05554,-0.09811,0.36362,-0.03113,-0.02014,0.0029,-0.04501
4.52,-0.05463,-0.04959,-0.11398,0.08087,-0.04547,-0.06241,-0.0119,-0.00397,-0.09827,-0.08621,-0.12085,0.44968,-0.03555,-0.02274,0.00183,-0.04868
4.5205,-0.11185,-0.05173,-0.13962,-0.08438,-0.04654,-0.05905,-0.01205,-0.0058,-0.23224,-0.10773,-0.13062,0.34866,-0.03876,-0.02457,0.0032,-0.04913
4.521,-0.14999,-0.04807,-0.15152,-0.23926,-0.04654,-0.05829,-0.01312,-0.00717,-0.32745,-0.11337,-0.11993,0.17456,-0.04181,-0.02472,0.0029,-0.04623
4.5215,-0.14069,-0.04333,-0.15579,-0.15396,-0.04761,-0.05981,-0.01328,-0.00656,-0.36652,-0.10941,-0.09354,0.0705,-0.04547,-0.02594,0.00122,-0.04303
4.522,-0.08591,-0.04608,-0.19913,0.23895,-0.0499,-0.06256,-0.01404,-0.00458,-0.34332,-0.10376,-0.05554,0.05325,-0.05127,-0.02991,0.00031,-0.04303
4.5225,-0.0174,-0.06302,-0.34103,0.63812,-0.05447,-0.06317,-0.0145,-0.00381,-0.24719,-0.09827,-0.01038,0.06256,-0.05661,-0.03525,0.00015,-0.04578
4.523,0.03296,-0.08484,-0.53864,0.64163,-0.05402,-0.0621,-0.01419,-0.00565,-0.09567,-0.09491,0.03143,0.05692,-0.06149,-0.03906,-0.00046,-0.0502
4.5235,0.05783,-0.09048,-0.62759,0.20798,-0.04547,-0.06149,-0.01343,-0.00702,0.04074,-0.10315,0.04013,0.02899,-0.0621,-0.03906,0.00015,-0.0528
4.524,0.06729,-0.0705,-0.49011,-0.31906,-0.02899,-0.06058,-0.01144,-0.00717,0.08392,-0.12024,-0.00504,-0.01175,-0.06042,-0.03494,0.00275,-0.05051
4.5245,0.06088,-0.03693,-0.18738,-0.61295,-0.01114,-0.05814,-0.01144,-0.00534,0.03143,-0.12543,-0.06851,-0.05783,-0.05707,-0.0267,0.00778,-0.04715
4.525,0.01511,-0.01068,0.09537,-0.60394,-0.00168,-0.05447,-0.01221,-0.00534,-0.04639,-0.0972,-0.07339,-0.12665,-0.05142,-0.01862,0.01175,-0.04349
4.5255,-0.09415,-0.00732,0.22339,-0.39169,-0.00534,-0.04974,-0.01282,-0.00824,-0.08667,-0.04807,0.00824,-0.23422,-0.04456,-0.01266,0.01221,-0.04013
4.526,-0.23544,-0.02609,0.18509,-0.14984,-0.01862,-0.04745,-0.01282,-0.01129,-0.09216,-0.01083,0.11414,-0.33463,-0.03891,-0.00809,0.01068,-0.03769
4.5265,-0.3215,-0.05356,0.06348,-0.05661,-0.0325,-0.04578,-0.01358,-0.01266,-0.09933,-0.00641,0.17502,-0.36118,-0.03494,-0.00229,0.01068,-0.03738
4.527,-0.29495,-0.07416,-0.01999,-0.1239,-0.04013,-0.04547,-0.01617,-0.01328,-0.12039,-0.02396,0.18463,-0.29663,-0.03098,0.00305,0.01129,-0.0412
4.5275,-0.19119,-0.07706,0.01968,-0.12131,-0.0386,-0.04379,-0.01663,-0.01465,-0.13916,-0.05112,0.17349,-0.15747,-0.02838,0.00565,0.01083,-0.04517
4.528,-0.08911,-0.06073,0.14893,0.14709,-0.03296,-0.04242,-0.01633,-0.01633,-0.14328,-0.07965,0.168,0.03632,-0.02945,0.00549,0.00763,-0.04562
4.5285,-0.03387,-0.03571,0.24567,0.50522,-0.02975,-0.04181,-0.01617,-0.01694,-0.12863,-0.10513,0.18188,0.21744,-0.03418,0.0032,0.00458,-0.04456
4.529,-0.01877,-0.01144,0.23254,0.57663,-0.03372,-0.0412,-0.01556,-0.01617,-0.07889,-0.11978,0.21759,0.26642,-0.03799,-0.00107,0.0032,-0.04349
4.5295,-0.01633,0.00824,0.14587,0.27283,-0.04181,-0.04211,-0.01434,-0.01389,0.01877,-0.11642,0.25223,0.12375,-0.03754,-0.00641,0.0029,-0.04395
4.53,-0.00824,0.02884,0.05722,-0.08179,-0.0499,-0.0441,-0.01328,-0.0116,0.13687,-0.09857,0.25345,-0.11688,-0.03571,-0.01144,0.00305,-0.04608
4.5305,0.00336,0.04471,-0.0058,-0.17532,-0.05615,-0.04562,-0.01419,-0.01038,0.22354,-0.07751,0.20844,-0.27237,-0.0351,-0.01572,0.00412,-0.04837
4.531,0.01587,0.04257,-0.05951,-0.04044,-0.05737,-0.04669,-0.01572,-0.00793,0.25482,-0.06104,0.13214,-0.25345,-0.03479,-0.01831,0.00595,-0.047
4.5315,0.03647,0.01526,-0.11429,0.09109,-0.05402,-0.04684,-0.01602,-0.00732,0.23636,-0.05096,0.03983,-0.17136,-0.03326,-0.02045,0.00824,-0.04257
4.532,0.06348,-0.02243,-0.15472,0.07111,-0.04486,-0.04684,-0.01556,-0.00916,0.16724,-0.04166,-0.05798,-0.17883,-0.03204,-0.02243,0.01236,-0.03815
4.5325,0.07721,-0.0528,-0.17029,-0.09888,-0.03815,-0.04547,-0.01556,-0.01053,0.03189,-0.02502,-0.14435,-0.22491,-0.0322,-0.02594,0.01678,-0.03525
4.533,0.06348,-0.06744,-0.17807,-0.31204,-0.03799,-0.04364,-0.01495,-0.01022,-0.15686,0.00748,-0.19211,-0.1239,-0.03448,-0.03265,0.02029,-0.03189
4.5335,0.03632,-0.06882,-0.20294,-0.41702,-0.04105,-0.04257,-0.0148,-0.00885,-0.34576,0.05768,-0.18494,0.1239,-0.03662,-0.03906,0.02304,-0.02899
4.534,0.02792,-0.06119,-0.2475,-0.34576,-0.03967,-0.0412,-0.01328,-0.00824,-0.48203,0.11475,-0.1355,0.29938,-0.03677,-0.04044,0.01953,-0.02808
4.5345,0.05554,-0.04486,-0.28397,-0.18341,-0.03632,-0.04166,-0.01099,-0.00748,-0.54047,0.1619,-0.07889,0.2594,-0.03616,-0.03723,0.01297,-0.03281
4.535,0.10498,-0.02167,-0.28671,-0.02777,-0.03265,-0.04181,-0.00916,-0.00595,-0.52338,0.18967,-0.03876,0.11124,-0.03693,-0.0325,0.00626,-0.0415
4.5355,0.14206,0.00565,-0.25986,0.15518,-0.03326,-0.04196,-0.00793,-0.0058,-0.44601,0.20172,-0.01999,0.05692,-0.03799,-0.03082,0.00305,-0.04776
4.536,0.14816,0.03052,-0.21576,0.37628,-0.03281,-0.04211,-0.00854,-0.00504,-0.33768,0.20401,-0.02533,0.1535,-0.03586,-0.02884,0.00259,-0.04883
4.5365,0.12695,0.04303,-0.14389,0.46432,-0.03281,-0.04257,-0.00824,-0.00397,-0.2327,0.19714,-0.05463,0.27374,-0.03311,-0.02289,0.0029,-0.04547
4.537,0.0885,0.04044,-0.02655,0.26596,-0.03448,-0.04379,-0.00854,-0.00229,-0.14938,0.18372,-0.08942,0.28275,-0.02945,-0.01419,0.00443,-0.04288
4.5375,0.04242,0.02655,0.11612,-0.08804,-0.03876,-0.04593,-0.01114,-0.00443,-0.08575,0.17136,-0.1062,0.18372,-0.0267,-0.00931,0.00504,-0.04425
4.538,0.00275,0.00443,0.23239,-0.31036,-0.04181,-0.04669,-0.01343,-0.00687,-0.03494,0.16327,-0.09735,0.08102,-0.02533,-0.0087,0.00305,-0.04745
4.5385,-0.02487,-0.02014,0.28946,-0.28641,-0.04105,-0.04593,-0.01434,-0.00809,0.00061,0.15549,-0.06592,0.02701,-0.02502,-0.00732,0.0,-0.05112
4.539,-0.04684,-0.04364,0.29999,-0.13596,-0.0354,-0.04501,-0.01495,-0.00687,0.01923,0.13885,-0.0238,-0.03342,-0.02289,0.00031,-0.00061,-0.05203
4.5395,-0.07751,-0.06348,0.28915,0.00931,-0.03174,-0.04364,-0.01587,-0.00534,0.02518,0.11124,0.01328,-0.15717,-0.01816,0.01312,0.00244,-0.04898
4.54,-0.12512,-0.08163,0.26138,0.12939,-0.02838,-0.04456,-0.01587,-0.00504,0.02548,0.08408,0.02991,-0.30319,-0.00977,0.02441,0.00687,-0.0441
4.5405,-0.17868,-0.09827,0.2121,0.23895,-0.02594,-0.04395,-0.01587,-0.00641,0.02365,0.06241,0.0238,-0.40131,-0.00381,0.02823,0.00885,-0.04044
4.541,-0.21057,-0.10239,0.15106,0.30441,-0.0235,-0.04364,-0.01785,-0.00946,0.02579,0.04776,0.00641,-0.43747,-0.00351,0.02533,0.01053,-0.03815
4.5415,-0.20187,-0.08057,0.09796,0.27634,-0.02167,-0.04562,-0.02106,-0.01282,0.03586,0.03693,-0.0119,-0.39215,-0.00793,0.02228,0.01099,-0.03799
4.542,-0.1564,-0.04013,0.06607,0.16403,-0.01938,-0.04761,-0.02472,-0.01633,0.05264,0.02701,-0.0293,-0.20233,-0.01053,0.01892,0.01053,-0.03708
4.5425,-0.09094,-0.00732,0.05768,0.03983,-0.01419,-0.0499,-0.02655,-0.01877,0.07675,0.01617,-0.04562,0.10239,-0.01129,0.01328,0.01099,-0.03555
4.543,-0.01511,-0.00275,0.06516,-0.03006,-0.00626,-0.05005,-0.02487,-0.01785,0.10971,0.00275,-0.05753,0.33737,-0.01236,0.00397,0.01266,-0.0354
4.5435,0.06668,-0.02136,0.06683,-0.04669,0.00122,-0.05157,-0.01953,-0.01358,0.1442,-0.01205,-0.0647,0.35736,-0.01572,-0.00488,0.01343,-0.03647
4.544,0.14038,-0.0383,0.04791,-0.07462,0.00732,-0.05219,-0.01648,-0.00916,0.15991,-0.02655,-0.0705,0.22766,-0.02045,-0.01114,0.01358,-0.03952
4.5445,0.19196,-0.04105,0.01114,-0.18417,0.0116,-0.05234,-0.01678,-0.00778,0.14481,-0.03952,-0.07736,0.10742,-0.0238,-0.01663,0.00992,-0.04425
4.545,0.21957,-0.03387,-0.02213,-0.37582,0.00732,-0.05264,-0.01907,-0.00854,0.10605,-0.04684,-0.08163,0.06058,-0.0267,-0.01999,0.00473,-0.04883
4.5455,0.23239,-0.02808,-0.03647,-0.5835,-0.0087,-0.0531,-0.02014,-0.00732,0.06332,-0.04837,-0.07721,0.06134,-0.02762,-0.02136,0.00229,-0.05295
4.546,0.22873,-0.0296,-0.03662,-0.71457,-0.02899,-0.05356,-0.01709,-0.00519,0.0296,-0.04517,-0.06317,0.10147,-0.02869,-0.01984,0.00275,-0.05432
4.5465,0.19989,-0.03677,-0.04807,-0.64819,-0.04242,-0.05234,-0.01434,-0.00336,0.00092,-0.04761,-0.056,0.17563,-0.03067,-0.01862,0.00488,-0.05219
4.547,0.14313,-0.04395,-0.08835,-0.28915,-0.04547,-0.05234,-0.01282,-0.00244,-0.02884,-0.06012,-0.07675,0.19348,-0.03265,-0.01984,0.00595,-0.04593
4.5475,0.06622,-0.0473,-0.14709,0.26321,-0.04105,-0.05447,-0.01373,-0.00061,-0.05569,-0.07858,-0.11337,0.04044,-0.03342,-0.02304,0.00778,-0.03983
4.548,-0.01022,-0.04852,-0.19531,0.68985,-0.03632,-0.05554,-0.01556,0.00137,-0.05829,-0.09674,-0.12497,-0.23483,-0.03235,-0.02655,0.01007,-0.03693
4.5485,-0.05783,-0.05157,-0.21042,0.74478,-0.03387,-0.05646,-0.01678,0.00366,-0.01434,-0.11581,-0.09644,-0.41809,-0.0325,-0.03082,0.01175,-0.03723
4.549,-0.06012,-0.05676,-0.19547,0.50232,-0.03464,-0.05341,-0.01816,0.00473,0.07187,-0.13687,-0.06775,-0.35248,-0.03448,-0.03281,0.01038,-0.03937
4.5495,-0.02747,-0.06485,-0.18326,0.23422,-0.03891,-0.04974,-0.0177,0.00443,0.16968,-0.14908,-0.07706,-0.07919,-0.03586,-0.03326,0.009,-0.04105
4.55,0.00031,-0.07446,-0.20782,0.10101,-0.04272,-0.04852,-0.01434,0.00458,0.24765,-0.14191,-0.10254,0.20752,-0.03525,-0.03418,0.00839,-0.04242
4.5505,0.00198,-0.08087,-0.25848,0.05005,-0.04486,-0.05112,-0.00977,0.00458,0.30136,-0.12665,-0.09552,0.25909,-0.03586,-0.03571,0.01022,-0.04288
4.551,-0.01205,-0.07385,-0.26825,-0.04623,-0.04547,-0.0531,-0.00595,0.00473,0.33798,-0.12344,-0.04272,-0.04257,-0.03723,-0.03342,0.01282,-0.04059
4.5515,-0.01297,-0.05539,-0.19714,-0.24612,-0.04471,-0.05371,-0.00595,0.00473,0.35583,-0.13718,0.02426,-0.48737,-0.03754,-0.02701,0.01526,-0.03708
4.552,0.0209,-0.03952,-0.09689,-0.49103,-0.04272,-0.05249,-0.00732,0.00412,0.34714,-0.1506,0.0795,-0.66086,-0.03723,-0.02182,0.01419,-0.03708
4.5525,0.08774,-0.03555,-0.04456,-0.6279,-0.04135,-0.05051,-0.01038,0.00336,0.31525,-0.14572,0.11505,-0.34775,-0.03845,-0.02136,0.00977,-0.0412
4.553,0.15823,-0.04211,-0.05417,-0.51331,-0.04272,-0.04822,-0.01129,0.00351,0.27542,-0.12604,0.13306,0.24445,-0.04105,-0.02502,0.00488,-0.047
4.5535,0.19653,-0.05081,-0.08545,-0.16647,-0.04303,-0.04776,-0.01175,0.0032,0.23529,-0.10834,0.13824,0.68542,-0.04318,-0.02884,0.00137,-0.04883
4.554,0.18936,-0.05768,-0.10727,0.21729,-0.03937,-0.047,-0.0116,0.00198,0.18005,-0.09201,0.14755,0.74036,-0.04425,-0.02975,0.00122,-0.04745
4.5545,0.14862,-0.0647,-0.12634,0.41794,-0.03204,-0.04593,-0.01175,0.00153,0.09537,-0.07278,0.17029,0.53101,-0.04532,-0.02899,0.00275,-0.04486
4.555,0.08759,-0.07294,-0.14435,0.35706,-0.02823,-0.04593,-0.01099,0.00275,-0.009,-0.05829,0.17624,0.28946,-0.04654,-0.0293,0.00488,-0.04257
4.5555,0.01816,-0.08286,-0.11795,0.1358,-0.0293,-0.04669,-0.009,0.00519,-0.10925,-0.056,0.12497,0.09003,-0.04868,-0.03098,0.00687,-0.04013
4.556,-0.04211,-0.09689,-0.00626,-0.09232,-0.03159,-0.04807,-0.00687,0.0061,-0.19211,-0.05707,0.02121,-0.08469,-0.0502,-0.03342,0.00732,-0.03922
4.5565,-0.0769,-0.11642,0.14832,-0.28641,-0.03174,-0.04593,-0.00687,0.0032,-0.25116,-0.03723,-0.07813,-0.17685,-0.04898,-0.03479,0.00595,-0.04013
4.557,-0.09079,-0.13107,0.24414,-0.513,-0.02838,-0.04318,-0.01038,-0.00214,-0.29175,0.00885,-0.12329,-0.14923,-0.04745,-0.03159,0.00443,-0.04333
4.5575,-0.11017,-0.13153,0.22675,-0.72037,-0.02213,-0.04074,-0.01251,-0.00641,-0.32211,0.06653,-0.11398,-0.08118,-0.04608,-0.02655,0.00473,-0.04562
4.558,-0.1506,-0.11734,0.13306,-0.6723,-0.01495,-0.03891,-0.01343,-0.00458,-0.34775,0.11276,-0.08881,-0.03296,-0.04456,-0.02167,0.00504,-0.0444
4.5585,-0.19775,-0.09583,0.02808,-0.24521,-0.00824,-0.03632,-0.01282,0.00076,-0.36392,0.13336,-0.08255,0.04486,-0.04196,-0.01755,0.00641,-0.04181
4.559,-0.22919,-0.07446,-0.05463,0.34592,-0.00214,-0.03433,-0.01251,0.00519,-0.36407,0.12466,-0.09811,0.16861,-0.04044,-0.01587,0.00748,-0.04028
4.5595,-0.23056,-0.0618,-0.13199,0.784,0.00244,-0.03433,-0.01312,0.00443,-0.34698,0.09552,-0.11978,0.23331,-0.0412,-0.0174,0.009,-0.03906
4.56,-0.19363,-0.06195,-0.21576,0.9787,0.00671,-0.03662,-0.01465,0.00275,-0.31952,0.05829,-0.14236,0.14816,-0.04272,-0.02121,0.0087,-0.03662
4.5605,-0.12466,-0.0647,-0.25635,0.99457,0.00946,-0.03708,-0.01633,0.00381,-0.28214,0.02289,-0.1651,-0.03372,-0.04395,-0.02365,0.00839,-0.03418
4.561,-0.05188,-0.05417,-0.19333,0.81131,0.00824,-0.03754,-0.01862,0.00443,-0.23453,-0.0061,-0.16357,-0.18967,-0.04272,-0.02136,0.01068,-0.03555
4.5615,-0.00549,-0.02747,-0.05188,0.4068,-0.00076,-0.0386,-0.01968,0.00427,-0.18158,-0.02396,-0.11032,-0.26459,-0.03967,-0.01617,0.01282,-0.04105
4.562,0.009,0.00153,0.06424,-0.04333,-0.0209,-0.04013,-0.01862,0.00229,-0.13245,-0.02609,-0.02243,-0.30365,-0.03738,-0.01419,0.01114,-0.04562
4.5625,0.01038,0.02045,0.08713,-0.28625,-0.04349,-0.04059,-0.01678,0.00015,-0.08224,-0.02197,0.05554,-0.36896,-0.03693,-0.01678,0.00549,-0.04639
4.563,0.01907,0.03021,0.02869,-0.29266,-0.05417,-0.04089,-0.01709,-0.00015,-0.02289,-0.02151,0.10452,-0.43869,-0.0351,-0.02243,0.00015,-0.0441
4.5635,0.03845,0.03021,-0.08118,-0.24368,-0.05051,-0.03922,-0.01892,-0.00076,0.03067,-0.0322,0.14542,-0.43808,-0.0322,-0.02548,-0.00122,-0.04379
4.564,0.05203,0.01511,-0.22003,-0.26062,-0.04059,-0.03784,-0.02106,-0.00214,0.0531,-0.0502,0.19547,-0.36011,-0.03052,-0.02411,-0.00153,-0.04547
4.5645,0.04044,-0.01343,-0.3302,-0.27771,-0.03876,-0.03586,-0.02289,-0.00488,0.0444,-0.06897,0.23468,-0.25757,-0.0296,-0.02014,-0.00092,-0.04684
4.565,-0.00122,-0.04028,-0.33203,-0.19516,-0.047,-0.03662,-0.02319,-0.00534,0.02792,-0.08026,0.2327,-0.11276,-0.02853,-0.01831,0.00122,-0.04608
4.5655,-0.05219,-0.05432,-0.2121,-0.02991,-0.06195,-0.03845,-0.02106,-0.00534,0.0206,-0.07477,0.19012,0.12955,-0.02823,-0.01785,0.0032,-0.0441
4.566,-0.08377,-0.05783,-0.04166,0.11353,-0.06943,-0.03876,-0.01785,-0.00427,0.0174,-0.0531,0.13626,0.37796,-0.02747,-0.01633,0.00504,-0.04028
4.5665,-0.08118,-0.05615,0.1033,0.16876,-0.0647,-0.03784,-0.01465,-0.00519,0.0116,-0.02945,0.0914,0.42755,-0.02579,-0.01266,0.00549,-0.03677
4.567,-0.05676,-0.05341,0.19379,0.13931,-0.05478,-0.03708,-0.01419,-0.00641,0.00809,-0.0206,0.05157,0.22385,-0.02197,-0.00763,0.00717,-0.03357
4.5675,-0.03616,-0.05157,0.23727,0.0351,-0.05035,-0.0383,-0.0148,-0.00732,0.00961,-0.02563,0.00931,-0.04181,-0.01892,-0.00504,0.01053,-0.03372
4.568,-0.03067,-0.0531,0.25024,-0.15198,-0.05539,-0.04074,-0.0148,-0.00549,0.00351,-0.03662,-0.03281,-0.17334,-0.01877,-0.00458,0.01251,-0.03555
4.5685,-0.0325,-0.05905,0.242,-0.39108,-0.06516,-0.04288,-0.01511,-0.0032,-0.01602,-0.04761,-0.06485,-0.15121,-0.02045,-0.00626,0.00992,-0.0383
4.569,-0.0354,-0.06653,0.21164,-0.59601,-0.07111,-0.04333,-0.01602,-0.00366,-0.03387,-0.05692,-0.07935,-0.02869,-0.02151,-0.01053,0.00641,-0.04013
4.5695,-0.04303,-0.07172,0.14008,-0.68024,-0.06882,-0.04135,-0.01587,-0.00565,-0.03174,-0.06058,-0.07874,0.16891,-0.02258,-0.01617,0.00534,-0.03983
4.57,-0.0592,-0.07339,-0.01648,-0.6015,-0.05814,-0.03601,-0.01297,-0.00549,-0.01251,-0.05768,-0.07172,0.37018,-0.02396,-0.02045,0.00717,-0.04013
4.5705,-0.07278,-0.07263,-0.25055,-0.37827,-0.04593,-0.03342,-0.00946,-0.00275,0.00122,-0.05615,-0.06821,0.42374,-0.02365,-0.02441,0.0087,-0.04074
4.571,-0.06454,-0.07187,-0.42572,-0.09216,-0.0383,-0.03464,-0.00824,-0.00153,-0.00015,-0.06042,-0.07111,0.2623,-0.02274,-0.02792,0.00946,-0.04333
4.5715,-0.03632,-0.07141,-0.38071,0.14343,-0.03647,-0.03799,-0.009,-0.0032,-0.00595,-0.06699,-0.08057,0.01389,-0.02228,-0.03235,0.00854,-0.0444
4.572,-0.01312,-0.07202,-0.14008,0.25024,-0.03723,-0.04349,-0.01297,-0.00641,-0.00259,-0.06577,-0.09201,-0.13107,-0.02289,-0.03571,0.00656,-0.04456
4.5725,-0.02106,-0.07584,0.0943,0.21011,-0.03845,-0.0473,-0.0177,-0.00854,0.01022,-0.06012,-0.10178,-0.1033,-0.02411,-0.03845,0.00504,-0.04486
4.573,-0.06393,-0.08698,0.17365,0.10284,-0.03922,-0.04944,-0.01938,-0.00824,0.02991,-0.05814,-0.11627,0.04654,-0.02502,-0.03891,0.0061,-0.04562
4.5735,-0.11993,-0.10605,0.13535,0.1149,-0.03876,-0.0499,-0.01633,-0.0061,0.05341,-0.06699,-0.15152,0.24918,-0.02396,-0.03815,0.00839,-0.04623
4.574,-0.15808,-0.13077,0.09018,0.34592,-0.03571,-0.0499,-0.01282,-0.00443,0.07828,-0.08652,-0.21072,0.44556,-0.02335,-0.03632,0.01068,-0.04517
4.5745,-0.15762,-0.15579,0.09308,0.60318,-0.03128,-0.05127,-0.01266,-0.00473,0.10651,-0.10529,-0.25543,0.522,-0.02518,-0.03632,0.01236,-0.04349
4.575,-0.11749,-0.16953,0.11246,0.57266,-0.03098,-0.05188,-0.01312,-0.00641,0.1445,-0.11414,-0.23651,0.37354,-0.02975,-0.03784,0.01389,-0.04272
4.5755,-0.05768,-0.15533,0.09659,0.22583,-0.03113,-0.05096,-0.0119,-0.00656,0.19958,-0.1149,-0.1651,0.07614,-0.03204,-0.0386,0.01328,-0.04471
4.576,-0.00137,-0.10986,0.03555,-0.11917,-0.02914,-0.04929,-0.01099,-0.00488,0.26062,-0.1181,-0.09842,-0.13763,-0.0325,-0.03479,0.01129,-0.04837
4.5765,0.03418,-0.05005,-0.03006,-0.18524,-0.02243,-0.04639,-0.0116,-0.00397,0.29877,-0.12726,-0.06332,-0.17868,-0.03021,-0.02701,0.00778,-0.05325
4.577,0.04486,0.00244,-0.05295,-0.01556,-0.01129,-0.04532,-0.01221,-0.00427,0.29099,-0.13336,-0.02319,-0.17761,-0.02762,-0.01892,0.00275,-0.05585
4.5775,0.03998,0.03418,-0.03036,0.19989,0.0,-0.04623,-0.0145,-0.0058,0.24551,-0.12726,0.05203,-0.24658,-0.02838,-0.01358,-0.00198,-0.05539
4.578,0.03738,0.04242,0.01114,0.35904,0.00839,-0.04715,-0.01633,-0.00626,0.18707,-0.11139,0.1387,-0.33997,-0.03036,-0.01144,-0.00198,-0.05234
4.5785,0.04471,0.03586,0.04669,0.43015,0.01389,-0.04807,-0.01587,-0.00504,0.1268,-0.09964,0.19241,-0.39185,-0.03296,-0.00992,0.00214,-0.04837
4.579,0.05463,0.02747,0.05844,0.34363,0.01602,-0.05005,-0.01343,-0.00488,0.06714,-0.09384,0.20004,-0.40619,-0.03479,-0.00839,0.00412,-0.04623
4.5795,0.04913,0.03098,0.0235,0.04578,0.01633,-0.05157,-0.01144,-0.00565,0.01892,-0.08743,0.18753,-0.38544,-0.03601,-0.00763,0.00397,-0.04639
4.58,0.02426,0.05402,-0.07477,-0.38605,0.01709,-0.0528,-0.01266,-0.00671,0.00183,-0.07492,0.17944,-0.27023,-0.03555,-0.00854,0.00397,-0.04639
4.5805,-0.00732,0.09598,-0.19882,-0.78384,0.01816,-0.05341,-0.01633,-0.0061,0.02243,-0.06332,0.17227,-0.04303,-0.03281,-0.01129,0.0061,-0.04318
4.581,-0.02151,0.13641,-0.25116,-0.98938,0.02167,-0.05417,-0.0174,-0.00214,0.05981,-0.06088,0.15274,0.15656,-0.02579,-0.01312,0.009,-0.03708
4.5815,-0.01526,0.14893,-0.17181,-0.84473,0.02029,-0.05402,-0.01358,0.00259,0.07599,-0.05325,0.11566,0.16983,-0.01709,-0.01205,0.0116,-0.03326
4.582,-0.00519,0.13031,-0.01892,-0.25055,0.01434,-0.05402,-0.00977,0.00519,0.05722,-0.02197,0.07065,0.05875,-0.01495,-0.00809,0.01144,-0.03433
4.5825,0.00092,0.10284,0.10208,0.56229,-0.00046,-0.05554,-0.00854,0.00397,0.02686,0.0296,0.02518,0.02136,-0.02472,-0.00259,0.01114,-0.03708
4.583,0.01175,0.08606,0.14252,1.0173,-0.02762,-0.05875,-0.01129,0.00092,0.0032,0.07843,-0.02121,0.09476,-0.04135,-0.00046,0.009,-0.04013
4.5835,0.02579,0.07843,0.1178,0.75485,-0.06378,-0.06104,-0.01465,-0.00244,-0.0383,0.10986,-0.06851,0.11932,-0.05081,-0.00168,0.00717,-0.04196
4.584,0.02823,0.06866,0.04593,0.07339,-0.09293,-0.06149,-0.01709,-0.00412,-0.12405,0.13138,-0.1123,-0.00473,-0.04456,-0.00839,0.00717,-0.04166
4.5845,0.01877,0.04913,-0.06592,-0.42755,-0.09613,-0.05951,-0.01709,-0.00427,-0.22858,0.15335,-0.15045,-0.18204,-0.02823,-0.01617,0.009,-0.03998
4.585,0.00351,0.0235,-0.18677,-0.55145,-0.07568,-0.05707,-0.01602,-0.00488,-0.29404,0.17197,-0.18021,-0.28549,-0.01144,-0.02182,0.01099,-0.03815
4.5855,-0.01175,-0.00183,-0.24826,-0.55283,-0.05081,-0.05569,-0.01312,-0.00443,-0.29907,0.17731,-0.17319,-0.30777,-0.00076,-0.02243,0.01205,-0.03723
4.586,-0.02441,-0.01663,-0.19882,-0.60028,-0.03571,-0.05432,-0.00961,-0.00183,-0.27451,0.16235,-0.1033,-0.29541,0.00366,-0.01999,0.01282,-0.03647
4.5865,-0.03036,-0.01266,-0.07462,-0.52185,-0.03189,-0.05325,-0.00702,0.00015,-0.25909,0.12146,-0.00153,-0.23987,0.00366,-0.01663,0.01129,-0.03632
4.587,-0.02548,0.00443,0.02731,-0.16022,-0.03189,-0.04974,-0.0058,-0.00061,-0.26093,0.06638,0.05447,-0.07996,-0.00031,-0.01526,0.00717,-0.03876
4.5875,-0.02243,0.01678,0.04715,0.29312,-0.03403,-0.047,-0.00687,-0.00336,-0.26779,0.02914,0.02975,0.1767,-0.00778,-0.01602,0.00458,-0.04349
4.588,-0.03616,0.00443,-0.00061,0.50766,-0.03799,-0.04807,-0.00824,-0.00443,-0.27725,0.03403,-0.02914,0.37262,-0.01511,-0.01755,0.00443,-0.04684
4.5885,-0.0592,-0.03479,-0.0705,0.39917,-0.04333,-0.05112,-0.00885,-0.00305,-0.29129,0.07263,-0.05707,0.32227,-0.02151,-0.01892,0.00519,-0.04684
4.589,-0.06088,-0.07919,-0.13702,0.15686,-0.04669,-0.05112,-0.00916,-0.00107,-0.29678,0.11536,-0.05753,0.08911,-0.02716,-0.01953,0.0058,-0.04517
4.5895,-0.02335,-0.10361,-0.18936,0.00153,-0.04883,-0.04639,-0.00992,-0.00015,-0.28259,0.14465,-0.06485,-0.01572,-0.03296,-0.01877,0.0061,-0.04318
4.59,0.03754,-0.10468,-0.22018,0.01038,-0.05249,-0.04257,-0.01129,-0.00305,-0.24963,0.15488,-0.07645,0.16663,-0.03983,-0.0206,0.00565,-0.04166
4.5905,0.09842,-0.10651,-0.21713,0.12375,-0.05554,-0.04547,-0.01389,-0.00854,-0.18921,0.13962,-0.06363,0.42252,-0.04807,-0.02365,0.00748,-0.03967
4.591,0.14679,-0.12451,-0.17685,0.22415,-0.05508,-0.05188,-0.01633,-0.01373,-0.09064,0.09247,-0.03235,0.44876,-0.05493,-0.02228,0.01007,-0.03799
4.5915,0.17532,-0.14603,-0.10971,0.21957,-0.04654,-0.05646,-0.0177,-0.01617,0.01801,0.02228,-0.00793,0.20599,-0.05875,-0.01801,0.01114,-0.03983
4.592,0.17365,-0.14282,-0.03494,0.09613,-0.0354,-0.05676,-0.01923,-0.01526,0.07217,-0.05112,0.00168,-0.12375,-0.06119,-0.01709,0.00839,-0.04532
4.5925,0.14679,-0.11246,0.0296,-0.08469,-0.02533,-0.05707,-0.01892,-0.01205,0.04639,-0.10834,0.0061,-0.38651,-0.06454,-0.02228,0.00458,-0.0502
4.593,0.12192,-0.07782,0.07202,-0.23178,-0.01923,-0.05615,-0.0174,-0.00687,-0.0267,-0.13855,0.01114,-0.53818,-0.06683,-0.02991,0.00183,-0.05173
4.5935,0.12039,-0.05508,0.08499,-0.27832,-0.01694,-0.05493,-0.01724,-0.00366,-0.09521,-0.14008,0.01923,-0.56717,-0.06439,-0.03799,0.00427,-0.04807
4.594,0.12604,-0.04166,0.06012,-0.21301,-0.01678,-0.05234,-0.01968,-0.00336,-0.14236,-0.12115,0.03326,-0.45639,-0.0563,-0.04379,0.00916,-0.04028
4.5945,0.1149,-0.02914,0.00366,-0.07935,-0.01602,-0.04974,-0.02136,-0.00473,-0.18936,-0.10117,0.0444,-0.21606,-0.04578,-0.04532,0.01556,-0.02991
4.595,0.08087,-0.01938,-0.06119,0.06393,-0.01541,-0.04715,-0.01953,-0.00488,-0.25665,-0.09827,0.04227,0.10101,-0.0383,-0.03967,0.02228,-0.02182
4.5955,0.0415,-0.01434,-0.11353,0.16052,-0.01526,-0.04593,-0.01648,-0.0029,-0.33234,-0.11292,0.02747,0.43793,-0.03479,-0.02792,0.02579,-0.01892
4.596,0.01602,-0.01892,-0.14999,0.15747,-0.01511,-0.04684,-0.01572,-0.00214,-0.36865,-0.12466,0.00931,0.72418,-0.03418,-0.01678,0.02655,-0.02243
4.5965,0.01617,-0.03174,-0.17883,0.02106,-0.01678,-0.04715,-0.01694,-0.00137,-0.32288,-0.10422,-0.00961,0.81787,-0.03387,-0.00931,0.02502,-0.02975
4.597,0.04379,-0.04883,-0.20828,-0.24765,-0.02441,-0.04776,-0.01617,-0.00214,-0.19943,-0.04852,-0.03387,0.60303,-0.0351,-0.00534,0.02182,-0.03632
4.5975,0.07828,-0.06516,-0.23575,-0.60181,-0.0415,-0.05035,-0.01297,0.0,-0.0441,0.01816,-0.06226,0.1857,-0.03601,0.00137,0.01511,-0.03891
4.598,0.0943,-0.07782,-0.24429,-0.90866,-0.06439,-0.05402,-0.00946,0.00275,0.09766,0.06561,-0.08789,-0.12436,-0.03525,0.01266,0.00671,-0.04074
4.5985,0.08835,-0.08896,-0.21515,-0.91003,-0.08347,-0.05554,-0.00839,0.00458,0.21393,0.0882,-0.11368,-0.13153,-0.03403,0.02411,-0.00061,-0.0444
4.599,0.07431,-0.09903,-0.14572,-0.4039,-0.0885,-0.05569,-0.00885,0.00504,0.31311,0.09689,-0.14282,0.01221,-0.03174,0.02838,-0.00641,-0.05051
4.5995,0.06485,-0.10071,-0.05463,0.41901,-0.07843,-0.0531,-0.01007,0.00473,0.39795,0.1088,-0.14709,-0.00504,-0.02777,0.0238,-0.01038,-0.05264
4.6,0.05661,-0.09033,0.03784,1.03088,-0.06073,-0.05173,-0.01053,0.00183,0.46768,0.12421,-0.09949,-0.2536,-0.02274,0.0145,-0.01114,-0.05066
4.6005,0.04715,-0.07584,0.11566,1.11298,-0.04852,-0.05234,-0.01221,-0.00046,0.51514,0.13763,-0.02441,-0.49225,-0.01999,0.00595,-0.00839,-0.04898
4.601,0.03799,-0.07065,0.16586,0.81573,-0.04547,-0.05249,-0.01556,-0.00305,0.52032,0.13687,0.02609,-0.49179,-0.02029,-0.00107,-0.00214,-0.05005
4.6015,0.02838,-0.07675,0.17868,0.44846,-0.04501,-0.05051,-0.01862,-0.00626,0.46326,0.11551,0.03555,-0.24277,-0.02136,-0.01038,0.00244,-0.04944
4.602,0.0145,-0.08316,0.15396,0.16022,-0.04211,-0.04669,-0.01999,-0.009,0.34988,0.07584,0.0264,0.12939,-0.02197,-0.01968,0.00534,-0.04425
4.6025,-0.0058,-0.08194,0.10574,0.00366,-0.03937,-0.04471,-0.0206,-0.0087,0.2124,0.02869,0.02151,0.45242,-0.02304,-0.02274,0.00641,-0.03647
4.603,-0.0267,-0.08041,0.047,0.02548,-0.0383,-0.04425,-0.01953,-0.00458,0.08484,-0.01343,0.0264,0.55634,-0.02411,-0.01999,0.009,-0.03235
4.6035,-0.04501,-0.08514,-0.01434,0.15137,-0.03677,-0.04395,-0.01633,0.00122,-0.01556,-0.04745,0.02411,0.39841,-0.02441,-0.01801,0.00977,-0.03342
4.604,-0.07156,-0.09399,-0.07736,0.18478,-0.03357,-0.04242,-0.01328,0.00519,-0.08499,-0.08026,-0.01007,0.10971,-0.0235,-0.02029,0.00793,-0.03693
4.6045,-0.11078,-0.09949,-0.13046,0.01099,-0.03082,-0.04013,-0.01068,0.00687,-0.12985,-0.11215,-0.07233,-0.14816,-0.02319,-0.0235,0.00366,-0.0415
4.605,-0.14374,-0.09583,-0.16342,-0.28854,-0.02869,-0.0386,-0.01022,0.00671,-0.15533,-0.12909,-0.1178,-0.28503,-0.02487,-0.02289,0.00031,-0.04684
4.6055,-0.14893,-0.08102,-0.17502,-0.54581,-0.02808,-0.03754,-0.01099,0.00732,-0.16556,-0.11734,-0.11261,-0.28549,-0.02655,-0.02151,-0.00137,-0.05173
4.606,-0.12894,-0.06256,-0.17151,-0.66788,-0.0264,-0.03769,-0.01175,0.00854,-0.15961,-0.08194,-0.07797,-0.17395,-0.02701,-0.02121,-0.00031,-0.05188
4.6065,-0.0972,-0.04959,-0.15091,-0.66956,-0.02319,-0.0351,-0.01129,0.00839,-0.13062,-0.0386,-0.05859,-0.00961,-0.02762,-0.02319,0.00275,-0.04837
4.607,-0.06104,-0.04822,-0.10971,-0.57022,-0.01953,-0.03067,-0.01144,0.00504,-0.07462,-0.00015,-0.06393,0.10437,-0.02914,-0.02365,0.00778,-0.04242
4.6075,-0.02762,-0.05417,-0.05539,-0.35034,-0.01633,-0.02747,-0.01266,-0.00153,-0.00519,0.02762,-0.0676,0.06577,-0.03342,-0.0209,0.01221,-0.03662
4.608,-0.00839,-0.06241,0.00702,-0.03159,-0.0145,-0.02884,-0.0145,-0.00534,0.05173,0.05035,-0.04807,-0.09354,-0.0386,-0.01877,0.01587,-0.03296
4.6085,-0.00778,-0.07126,0.08972,0.29343,-0.0145,-0.03143,-0.01663,-0.00671,0.07553,0.06638,-0.01099,-0.1918,-0.04196,-0.01846,0.01617,-0.03311
4.609,-0.01495,-0.07782,0.19836,0.54642,-0.01541,-0.0325,-0.01907,-0.00717,0.06851,0.07629,0.02213,-0.11841,-0.04257,-0.0206,0.01297,-0.03769
4.6095,-0.01953,-0.08194,0.30762,0.66391,-0.01587,-0.0322,-0.01907,-0.00778,0.04456,0.07751,0.03799,-0.00687,-0.04089,-0.02365,0.00824,-0.04364
4.61,-0.02319,-0.08667,0.36514,0.54886,-0.0145,-0.03326,-0.01816,-0.009,0.01831,0.06821,0.0415,-0.04608,-0.0383,-0.02472,0.00443,-0.04852
4.6105,-0.03159,-0.09354,0.34592,0.16922,-0.01404,-0.03815,-0.01892,-0.01099,-0.00122,0.05096,0.04791,-0.19516,-0.03708,-0.02533,0.00412,-0.0499
4.611,-0.0412,-0.09308,0.26871,-0.30136,-0.01541,-0.04425,-0.02243,-0.01205,-0.01251,0.03189,0.06363,-0.27267,-0.03693,-0.02792,0.009,-0.04639
4.6115,-0.04608,-0.07568,0.14023,-0.57846,-0.01816,-0.04852,-0.0238,-0.01144,-0.01205,0.01404,0.07507,-0.24384,-0.03738,-0.03082,0.01419,-0.04242
4.612,-0.04501,-0.04532,-0.05661,-0.51804,-0.01785,-0.04959,-0.02136,-0.00854,0.00595,-0.00839,0.05875,-0.19943,-0.03723,-0.03204,0.01541,-0.0415
4.6125,-0.03723,-0.01602,-0.27908,-0.20386,-0.01602,-0.04593,-0.01648,-0.00336,0.04822,-0.04395,0.00122,-0.12543,-0.03693,-0.03128,0.01205,-0.04395
4.613,-0.01984,0.00061,-0.38406,0.15549,-0.01297,-0.04059,-0.01404,0.00153,0.10712,-0.09506,-0.07965,0.05356,-0.03647,-0.03204,0.00763,-0.04501
4.6135,0.00778,0.00427,-0.27847,0.35187,-0.01175,-0.03632,-0.01373,0.0032,0.16235,-0.14084,-0.14511,0.25787,-0.03632,-0.03494,0.00641,-0.0444
4.614,0.03784,0.00229,-0.05051,0.24551,-0.01389,-0.03632,-0.01419,0.00031,0.19653,-0.15762,-0.16205,0.31891,-0.03632,-0.03906,0.00748,-0.04395
4.6145,0.05295,0.0032,0.12833,-0.15305,-0.01617,-0.03769,-0.01434,-0.0029,0.20309,-0.13519,-0.13245,0.21378,-0.03586,-0.04059,0.01007,-0.0412
4.615,0.04013,0.00793,0.19318,-0.6517,-0.01999,-0.03906,-0.01511,-0.00412,0.18509,-0.09232,-0.08881,0.08438,-0.03479,-0.03922,0.01144,-0.03616
4.6155,0.01022,0.01221,0.19547,-1.00296,-0.02243,-0.03891,-0.0148,-0.00168,0.16098,-0.05692,-0.0592,0.03738,-0.03494,-0.0351,0.01221,-0.03143
4.616,-0.00839,0.01648,0.17487,-0.98358,-0.02548,-0.0386,-0.01419,0.00031,0.1445,-0.04395,-0.04791,0.04333,-0.03601,-0.03326,0.01129,-0.03036
4.6165,-0.00443,0.02426,0.09888,-0.47577,-0.0296,-0.03998,-0.01236,-0.00046,0.13916,-0.05753,-0.03754,0.01129,-0.03693,-0.03387,0.00992,-0.03265
4.617,0.00595,0.03296,-0.07065,0.34729,-0.03326,-0.04257,-0.01144,-0.00214,0.14359,-0.09048,-0.01617,-0.08652,-0.0386,-0.03708,0.009,-0.03586
4.6175,-0.00565,0.0351,-0.27344,1.03897,-0.03632,-0.04623,-0.01419,-0.00488,0.15549,-0.13214,0.00671,-0.18311,-0.04074,-0.04272,0.00931,-0.03799
4.618,-0.04944,0.03189,-0.36758,1.30356,-0.03784,-0.04745,-0.0174,-0.00778,0.15839,-0.16678,0.02441,-0.18921,-0.04181,-0.0502,0.00763,-0.03983
4.6185,-0.11398,0.03342,-0.27481,1.22589,-0.0383,-0.04791,-0.01968,-0.01114,0.13885,-0.18585,0.04761,-0.10284,-0.0412,-0.05295,0.00473,-0.04227
4.619,-0.17044,0.04318,-0.07492,1.00433,-0.03525,-0.04669,-0.01907,-0.01297,0.09415,-0.18463,0.08438,0.00763,-0.04013,-0.05081,0.00458,-0.04532
4.6195,-0.18005,0.04654,0.07721,0.69229,-0.02899,-0.04669,-0.01633,-0.01068,0.01282,-0.16418,0.12924,0.13748,-0.04044,-0.04776,0.00702,-0.04715
4.62,-0.12573,0.0293,0.10986,0.3186,-0.02472,-0.04562,-0.01358,-0.00534,-0.13153,-0.1416,0.17166,0.31647,-0.04257,-0.04745,0.00992,-0.04684
4.6205,-0.0441,-0.01038,0.07339,-0.01038,-0.02243,-0.0441,-0.01114,-0.00137,-0.33539,-0.14038,0.20035,0.46036,-0.04425,-0.04791,0.00824,-0.04745
4.621,0.00824,-0.06332,0.03983,-0.23438,-0.02258,-0.04395,-0.01053,-0.00061,-0.5304,-0.16052,0.21271,0.43518,-0.0415,-0.04395,0.00504,-0.047
4.6215,0.01526,-0.10864,0.03006,-0.4039,-0.02167,-0.04349,-0.01144,-0.00153,-0.6282,-0.18036,0.22583,0.26886,-0.03769,-0.03479,0.00381,-0.04471
4.622,0.00931,-0.13138,0.02243,-0.55252,-0.02213,-0.04272,-0.01144,-0.00259,-0.60699,-0.18326,0.25787,0.09644,-0.0351,-0.02396,0.00504,-0.04227
4.6225,0.02396,-0.13092,0.00336,-0.63065,-0.02441,-0.04013,-0.01205,-0.00275,-0.52704,-0.17075,0.28885,-0.03006,-0.03326,-0.01312,0.00534,-0.04257
4.623,0.0528,-0.12314,-0.01892,-0.58746,-0.02594,-0.0383,-0.01511,-0.00412,-0.44693,-0.15717,0.28687,-0.10681,-0.03098,-0.00519,0.00488,-0.0441
4.6235,0.06516,-0.11734,-0.0354,-0.45654,-0.02533,-0.03708,-0.02045,-0.00778,-0.3685,-0.14984,0.25101,-0.09094,-0.02869,-0.00229,0.00275,-0.04425
4.624,0.04547,-0.10559,-0.04669,-0.30685,-0.02594,-0.03464,-0.02335,-0.01236,-0.27008,-0.14008,0.20004,-0.03616,-0.02777,-0.00229,0.0032,-0.04211
4.6245,0.00397,-0.08469,-0.05524,-0.1973,-0.0322,-0.03159,-0.02365,-0.01404,-0.16464,-0.11536,0.14236,-0.11322,-0.02808,-0.00366,0.00687,-0.03891
4.625,-0.03738,-0.06393,-0.05676,-0.19577,-0.04059,-0.02945,-0.02167,-0.01205,-0.08545,-0.07568,0.08713,-0.31891,-0.02686,-0.00168,0.00916,-0.03784
4.6255,-0.06866,-0.05081,-0.05447,-0.35934,-0.04684,-0.02899,-0.01968,-0.00946,-0.0444,-0.03174,0.04837,-0.39337,-0.02487,0.0,0.00839,-0.04059
4.626,-0.0914,-0.04456,-0.05508,-0.62393,-0.04776,-0.02945,-0.0177,-0.00885,-0.02747,0.00702,0.02045,-0.20233,-0.0235,-0.00076,0.00641,-0.04425
4.6265,-0.11124,-0.04044,-0.06058,-0.77698,-0.04486,-0.02823,-0.01678,-0.01038,-0.01816,0.04227,-0.02426,0.0293,-0.02411,-0.00351,0.00687,-0.04547
4.627,-0.12924,-0.03799,-0.06989,-0.62805,-0.04105,-0.02487,-0.01907,-0.01083,-0.01175,0.0769,-0.1004,0.03998,-0.02487,-0.00275,0.00778,-0.04288
4.6275,-0.13855,-0.03387,-0.08362,-0.19669,-0.03754,-0.02075,-0.02182,-0.00931,-0.01968,0.1149,-0.18234,-0.12268,-0.02548,-0.00259,0.00885,-0.03983
4.628,-0.13672,-0.01984,-0.1001,0.33737,-0.03372,-0.01999,-0.02151,-0.00732,-0.04578,0.15472,-0.2298,-0.25269,-0.02609,-0.00671,0.00885,-0.03677
4.6285,-0.12543,0.0032,-0.11719,0.80414,-0.03082,-0.01968,-0.01694,-0.00366,-0.0705,0.19226,-0.22675,-0.28473,-0.02777,-0.01373,0.00824,-0.03632
4.629,-0.11108,0.02533,-0.13565,1.05499,-0.0293,-0.01907,-0.01129,0.00031,-0.06393,0.22247,-0.20248,-0.27039,-0.02899,-0.01938,0.00809,-0.03677
4.6295,-0.08408,0.03601,-0.15411,0.95978,-0.02716,-0.01785,-0.00824,0.00259,-0.02151,0.2449,-0.18997,-0.20721,-0.02884,-0.02197,0.0087,-0.0383
4.63,-0.03403,0.0322,-0.16876,0.58777,-0.02563,-0.01511,-0.00671,0.00198,0.03021,0.25757,-0.19669,-0.05402,-0.02869,-0.02075,0.00946,-0.03983
4.6305,0.02747,0.01587,-0.1683,0.23956,-0.02457,-0.01251,-0.00824,-0.00031,0.06119,0.25513,-0.21011,0.17014,-0.0293,-0.01678,0.00946,-0.04227
4.631,0.07492,-0.01114,-0.15076,0.11353,-0.02441,-0.0116,-0.01099,-0.00259,0.07004,0.23422,-0.21484,0.38544,-0.0296,-0.0119,0.00732,-0.04578
4.6315,0.09399,-0.04593,-0.10315,0.07813,-0.02533,-0.01419,-0.01343,-0.00366,0.08057,0.19577,-0.20859,0.51804,-0.02899,-0.00824,0.00381,-0.04837
4.632,0.09598,-0.07874,-0.01984,-0.06653,-0.02838,-0.01556,-0.01266,-0.00427,0.10361,0.14709,-0.19455,0.53558,-0.02792,-0.00519,-0.00198,-0.04929
4.6325,0.10025,-0.09933,0.07278,-0.29617,-0.03204,-0.01541,-0.01083,-0.00458,0.12329,0.10315,-0.17868,0.44464,-0.02792,0.00046,-0.00504,-0.04761
4.633,0.11597,-0.10773,0.11841,-0.46555,-0.03311,-0.01694,-0.00992,-0.00275,0.1152,0.07111,-0.15915,0.26886,-0.02914,0.00565,-0.00427,-0.04517
4.6335,0.13245,-0.11047,0.08682,-0.55862,-0.03464,-0.0209,-0.01068,-0.00076,0.0769,0.04028,-0.14008,0.04944,-0.03159,0.00748,0.00092,-0.0412
4.634,0.1384,-0.11459,0.00229,-0.66299,-0.03693,-0.02609,-0.00992,-0.00076,0.02548,-0.00259,-0.12939,-0.15411,-0.03311,0.00473,0.00687,-0.0386
4.6345,0.13412,-0.11688,-0.10452,-0.74905,-0.03967,-0.03006,-0.01083,-0.00244,-0.01785,-0.04944,-0.12344,-0.27771,-0.03143,0.00046,0.00946,-0.03799
4.635,0.11856,-0.10468,-0.2533,-0.59204,-0.04288,-0.03113,-0.01236,-0.00595,-0.04227,-0.08102,-0.11124,-0.28305,-0.02899,0.00015,0.01083,-0.03738
4.6355,0.08667,-0.07324,-0.44586,-0.03571,-0.04517,-0.03082,-0.01343,-0.00839,-0.04654,-0.09476,-0.09232,-0.17151,-0.02838,0.00168,0.01114,-0.03784
4.636,0.04333,-0.03555,-0.54672,0.7077,-0.047,-0.03067,-0.01312,-0.00717,-0.0354,-0.10406,-0.07843,-0.01648,-0.0296,0.00244,0.0119,-0.03998
4.6365,0.00961,-0.00778,-0.39917,1.17279,-0.04822,-0.03128,-0.01129,-0.00381,-0.02472,-0.1178,-0.07492,0.02014,-0.02975,0.00122,0.01099,-0.04349
4.637,0.00092,0.00427,-0.05493,1.09482,-0.05081,-0.02991,-0.00961,-0.00122,-0.03006,-0.1297,-0.07202,-0.14404,-0.02838,-0.00153,0.00916,-0.04639
4.6375,0.00763,0.00061,0.21545,0.6575,-0.0528,-0.0264,-0.00916,-0.00107,-0.04562,-0.13336,-0.06226,-0.33997,-0.02609,-0.00565,0.0058,-0.04501
4.638,0.01587,-0.01526,0.22995,0.26047,-0.05447,-0.02655,-0.00977,-0.00275,-0.05432,-0.12894,-0.04837,-0.32272,-0.0267,-0.00824,0.00534,-0.04135
4.6385,0.01602,-0.03693,0.09354,0.10818,-0.05432,-0.03403,-0.01144,-0.00473,-0.05264,-0.11841,-0.03464,-0.11841,-0.02991,-0.01144,0.00702,-0.03922
4.639,-0.00092,-0.05737,0.03555,0.08713,-0.05341,-0.04837,-0.01389,-0.00595,-0.04578,-0.09857,-0.01465,0.00488,-0.03342,-0.01587,0.0087,-0.04028
4.6395,-0.03036,-0.06592,0.12329,0.00519,-0.05203,-0.06958,-0.01556,-0.00656,-0.03342,-0.07278,0.01495,-0.09659,-0.03601,-0.02014,0.00946,-0.0444
4.64,-0.047,-0.06165,0.21713,-0.15503,-0.05035,-0.09476,-0.01465,-0.00656,-0.00717,-0.05219,0.05142,-0.2417,-0.03754,-0.02136,0.00946,-0.04654
4.6405,-0.03128,-0.05432,0.18265,-0.26978,-0.0473,-0.12177,-0.01251,-0.00641,0.03616,-0.04837,0.07813,-0.16418,-0.03784,-0.01816,0.00885,-0.04471
4.641,-0.00473,-0.05508,0.05005,-0.26474,-0.04425,-0.14969,-0.00854,-0.0058,0.09521,-0.05295,0.08484,0.12543,-0.03693,-0.01343,0.00778,-0.0412
4.6415,-0.00153,-0.05783,-0.0499,-0.19028,-0.04211,-0.17807,-0.00473,-0.00534,0.15869,-0.05127,0.06409,0.36514,-0.0351,-0.01358,0.0087,-0.03754
4.642,-0.0267,-0.05341,-0.04272,-0.13885,-0.03983,-0.20187,-0.00351,-0.00565,0.20584,-0.03845,0.00458,0.38406,-0.03265,-0.01938,0.0116,-0.0354
4.6425,-0.05142,-0.0412,0.02701,-0.16754,-0.03723,-0.21805,-0.00595,-0.00519,0.22354,-0.02121,-0.08087,0.23605,-0.03204,-0.02777,0.01205,-0.0354
4.643,-0.04913,-0.02441,0.07477,-0.26337,-0.0354,-0.2269,-0.009,-0.00519,0.22156,-0.00702,-0.14008,0.07324,-0.0354,-0.03311,0.01038,-0.03571
4.6435,-0.0145,-0.00916,0.07217,-0.34042,-0.03525,-0.22995,-0.01251,-0.00687,0.20508,-0.00183,-0.12299,0.03647,-0.04318,-0.03326,0.00977,-0.03769
4.644,0.03632,-0.00061,0.05325,-0.29358,-0.03601,-0.22964,-0.01526,-0.00931,0.16373,-0.01129,-0.05325,0.16403,-0.05051,-0.03128,0.01083,-0.04105
4.6445,0.07477,0.00519,0.05127,-0.10727,-0.03708,-0.22766,-0.01694,-0.01083,0.09674,-0.03769,0.00015,0.31708,-0.05127,-0.03036,0.01312,-0.04425
4.645,0.08087,0.02029,0.06195,0.10269,-0.03677,-0.22507,-0.01648,-0.00946,0.02609,-0.06882,0.01099,0.30899,-0.04745,-0.03098,0.01328,-0.04425
4.6455,0.05234,0.04959,0.05646,0.19913,-0.03754,-0.21881,-0.01526,-0.00595,-0.01984,-0.08453,0.00778,0.12466,-0.0444,-0.03021,0.00992,-0.04303
4.646,0.00732,0.07965,0.01129,0.13855,-0.03906,-0.2092,-0.01389,-0.00168,-0.03311,-0.07004,0.02563,-0.10498,-0.04242,-0.02853,0.00824,-0.04257
4.6465,-0.02853,0.09308,-0.05951,-0.01755,-0.03967,-0.19943,-0.01373,0.00183,-0.02228,-0.03433,0.0618,-0.26611,-0.04044,-0.02914,0.00778,-0.04272
4.647,-0.04013,0.08392,-0.11551,-0.15671,-0.03876,-0.18936,-0.01465,0.00198,-0.00595,-0.00168,0.09995,-0.28427,-0.03922,-0.0325,0.00687,-0.0441
4.6475,-0.03189,0.0589,-0.1506,-0.20889,-0.03616,-0.17715,-0.01526,0.00076,-0.00671,0.01724,0.12589,-0.11154,-0.03937,-0.03494,0.00534,-0.0444
4.648,-0.02548,0.02563,-0.23407,-0.18921,-0.03418,-0.16129,-0.01343,0.00015,-0.03693,0.03906,0.13824,0.16342,-0.03967,-0.0322,0.0058,-0.04333
4.6485,-0.04868,-0.00519,-0.41473,-0.16327,-0.03006,-0.14557,-0.01114,0.00183,-0.08636,0.07889,0.1413,0.30289,-0.03769,-0.02289,0.0087,-0.04044
4.649,-0.10147,-0.02365,-0.58273,-0.1825,-0.02655,-0.13046,-0.00793,0.00153,-0.12665,0.1326,0.13885,0.15442,-0.03754,-0.01205,0.01266,-0.03693
4.6495,-0.1442,-0.0351,-0.54672,-0.25894,-0.02396,-0.11734,-0.00687,0.00107,-0.13672,0.18005,0.13,-0.17914,-0.03845,-0.00656,0.01602,-0.03448
4.65,-0.13168,-0.05249,-0.2832,-0.35934,-0.02167,-0.10483,-0.00702,0.0,-0.11734,0.20081,0.11429,-0.47272,-0.03723,-0.00671,0.01541,-0.03418
4.6505,-0.07263,-0.08179,0.02182,-0.38971,-0.01938,-0.09277,-0.01053,-0.00198,-0.07614,0.18707,0.09567,-0.56961,-0.03021,-0.0087,0.01312,-0.03601
4.651,-0.02411,-0.10818,0.18478,-0.2475,-0.01724,-0.0827,-0.0145,-0.00381,-0.0116,0.14648,0.08163,-0.3952,-0.02075,-0.01022,0.01129,-0.0383
4.6515,-0.02319,-0.11215,0.19318,0.03387,-0.01602,-0.07584,-0.01572,-0.0058,0.07202,0.09567,0.07065,0.00992,-0.01297,-0.01419,0.00961,-0.04059
4.652,-0.04654,-0.09384,0.13733,0.24506,-0.0145,-0.07355,-0.01434,-0.00381,0.15137,0.05249,0.04166,0.41046,-0.00992,-0.02106,0.00702,-0.04425
4.6525,-0.05341,-0.06882,0.0914,0.20844,-0.01251,-0.07782,-0.01251,-0.00031,0.1947,0.02075,-0.04257,0.53879,-0.01007,-0.03052,0.00198,-0.04745
4.653,-0.0415,-0.04623,0.0769,0.00488,-0.0119,-0.08392,-0.01266,0.00305,0.1947,-0.00931,-0.16861,0.39215,-0.00916,-0.03937,-0.00168,-0.05096
4.6535,-0.03754,-0.02533,0.0856,-0.10925,-0.01251,-0.0856,-0.01373,0.00381,0.16602,-0.0444,-0.24765,0.19562,-0.00885,-0.0441,-0.00381,-0.05219
4.654,-0.05508,-0.0058,0.09644,-0.01068,-0.01434,-0.08148,-0.01389,0.00198,0.12161,-0.08301,-0.20218,0.08987,-0.0087,-0.04288,-0.0032,-0.05234
4.6545,-0.08408,0.0061,0.08835,0.17838,-0.01633,-0.07721,-0.01205,-0.00076,0.05646,-0.11871,-0.06287,0.02121,-0.01022,-0.04013,-0.00076,-0.05341
4.655,-0.10315,0.00259,0.05234,0.31555,-0.01923,-0.0766,-0.01022,-0.0032,-0.03601,-0.14954,0.05569,-0.08972,-0.01617,-0.03937,0.00153,-0.0531
4.6555,-0.09872,-0.02106,-0.01114,0.41214,-0.02289,-0.07462,-0.01007,-0.00381,-0.14969,-0.17776,0.0885,-0.22949,-0.03204,-0.03937,0.00366,-0.05112
4.656,-0.07492,-0.06042,-0.09384,0.48187,-0.02548,-0.06546,-0.00992,-0.00229,-0.25558,-0.18982,0.0679,-0.31006,-0.05936,-0.03723,0.00626,-0.04868
4.6565,-0.04868,-0.0972,-0.17761,0.39505,-0.02747,-0.0499,-0.00946,0.00015,-0.31631,-0.17578,0.05264,-0.27267,-0.08408,-0.03204,0.00885,-0.04654
4.657,-0.03525,-0.11597,-0.24033,0.10498,-0.02991,-0.03616,-0.00809,0.00305,-0.3215,-0.13779,0.05737,-0.2121,-0.09445,-0.02625,0.00961,-0.04517
4.6575,-0.02518,-0.11505,-0.27557,-0.13229,-0.03342,-0.02838,-0.00641,0.00534,-0.30014,-0.0914,0.06454,-0.27725,-0.08743,-0.02335,0.009,-0.0444
4.658,-0.00351,-0.09888,-0.28992,-0.05829,-0.03601,-0.02457,-0.00534,0.00626,-0.28381,-0.05341,0.06042,-0.40527,-0.07126,-0.02136,0.00717,-0.04425
4.6585,0.03616,-0.08011,-0.2861,0.17822,-0.03464,-0.02304,-0.00748,0.00473,-0.27405,-0.0296,0.04547,-0.35355,-0.05417,-0.02136,0.00443,-0.0441
4.659,0.08163,-0.07248,-0.24796,0.22522,-0.03204,-0.0206,-0.01434,0.00137,-0.25284,-0.01419,0.02151,-0.07553,-0.04105,-0.02197,0.00366,-0.0444
4.6595,0.1181,-0.07813,-0.16556,0.03311,-0.02914,-0.01602,-0.02045,-0.00397,-0.21408,-0.00214,-0.00351,0.16632,-0.03174,-0.02167,0.00183,-0.04578
4.66,0.13718,-0.08621,-0.04639,-0.14099,-0.02762,-0.01007,-0.02289,-0.00885,-0.17014,0.00534,-0.01862,0.18356,-0.02579,-0.01862,0.00214,-0.047
4.6605,0.13489,-0.08347,0.06866,-0.14908,-0.02747,-0.00534,-0.02274,-0.01129,-0.12497,0.00565,-0.0058,0.1149,-0.02365,-0.01587,0.00458,-0.04608
4.661,0.11978,-0.07004,0.13565,-0.05875,-0.02472,-0.00076,-0.02411,-0.01038,-0.07645,0.00473,0.04318,0.1825,-0.02396,-0.01434,0.00732,-0.04196
4.6615,0.10529,-0.05493,0.14557,0.04852,-0.0206,0.00183,-0.02686,-0.00885,-0.03143,0.00381,0.09659,0.36316,-0.02487,-0.01602,0.01022,-0.03922
4.662,0.09613,-0.04822,0.14343,0.13992,-0.01724,0.00092,-0.02914,-0.01022,0.00107,0.00244,0.10315,0.44525,-0.02548,-0.01877,0.01099,-0.03952
4.6625,0.0856,-0.05096,0.17578,0.14893,-0.01648,-0.00137,-0.02914,-0.01495,0.02304,0.00229,0.04578,0.31738,-0.02487,-0.01968,0.01099,-0.04242
4.663,0.06393,-0.05676,0.23239,0.04318,-0.01877,-0.00244,-0.02731,-0.01862,0.03723,0.00336,-0.03647,0.10361,-0.02304,-0.01999,0.01083,-0.04379
4.6635,0.03357,-0.06042,0.27283,-0.0853,-0.02533,-0.00061,-0.02502,-0.01724,0.03494,0.00473,-0.10132,-0.00397,-0.02121,-0.01999,0.00977,-0.0441
4.664,0.00504,-0.05661,0.27664,-0.14542,-0.0383,0.00275,-0.02289,-0.0119,0.01251,0.00595,-0.13519,0.03708,-0.01999,-0.01831,0.00946,-0.04211
4.6645,-0.01236,-0.04868,0.25131,-0.17746,-0.05371,0.00565,-0.02151,-0.0061,-0.01724,0.00595,-0.1355,0.09399,-0.02151,-0.01617,0.00946,-0.04044
4.665,-0.02274,-0.04074,0.20935,-0.26749,-0.06439,0.00961,-0.01877,-0.00412,-0.04456,-0.00046,-0.10818,0.03967,-0.02426,-0.0145,0.01007,-0.03662
4.6655,-0.0386,-0.03448,0.16235,-0.41153,-0.06256,0.01419,-0.01709,-0.00473,-0.06744,-0.02197,-0.07584,-0.09415,-0.02762,-0.01526,0.00931,-0.03311
4.666,-0.06271,-0.03372,0.10941,-0.51697,-0.05493,0.0206,-0.01602,-0.0058,-0.07965,-0.05936,-0.05463,-0.17975,-0.02991,-0.01495,0.00824,-0.0325
4.6665,-0.08224,-0.04211,0.0238,-0.46997,-0.04898,0.02487,-0.01801,-0.00473,-0.06577,-0.10086,-0.03021,-0.18311,-0.03235,-0.0119,0.00824,-0.0354
4.667,-0.08484,-0.0618,-0.11597,-0.20172,-0.04639,0.02777,-0.01923,-0.00427,-0.02319,-0.13336,0.00595,-0.20248,-0.03601,-0.00748,0.00763,-0.04074
4.6675,-0.07996,-0.08423,-0.26566,0.20798,-0.04272,0.03189,-0.01907,-0.00397,0.03113,-0.15427,0.03357,-0.29755,-0.04166,-0.00641,0.00687,-0.04608
4.668,-0.07599,-0.09521,-0.33829,0.52856,-0.03937,0.03662,-0.01801,-0.00443,0.08377,-0.16602,0.03387,-0.36591,-0.04547,-0.00992,0.00351,-0.04883
4.6685,-0.07004,-0.08743,-0.29266,0.57251,-0.03815,0.04105,-0.01678,-0.00565,0.13214,-0.16785,0.01907,-0.24963,-0.04532,-0.01358,-0.00015,-0.05157
4.669,-0.05463,-0.07019,-0.16235,0.34851,-0.03891,0.04303,-0.01617,-0.00702,0.17151,-0.15076,0.01099,0.04074,-0.04135,-0.01328,-0.00397,-0.05417
4.6695,-0.02625,-0.05753,-0.00793,-0.01129,-0.03723,0.04272,-0.01785,-0.00839,0.18402,-0.11749,0.01083,0.3064,-0.03647,-0.01007,-0.00381,-0.05386
4.67,0.0087,-0.05432,0.11505,-0.37354,-0.03387,0.04181,-0.01877,-0.00916,0.15976,-0.08163,0.00351,0.38147,-0.03342,-0.01007,-0.00015,-0.05142
4.6705,0.04211,-0.0592,0.17456,-0.63141,-0.03311,0.0412,-0.0177,-0.00977,0.11536,-0.05142,-0.01358,0.30075,-0.0322,-0.01678,0.00641,-0.047
4.671,0.06271,-0.0676,0.17563,-0.70374,-0.03265,0.03601,-0.01434,-0.00885,0.07675,-0.02213,-0.03708,0.20477,-0.03265,-0.02289,0.01129,-0.04257
4.6715,0.065,-0.07736,0.1416,-0.56702,-0.03128,0.0264,-0.00916,-0.00519,0.05524,0.0145,-0.05814,0.13748,-0.0325,-0.02502,0.01205,-0.03952
4.672,0.05386,-0.08453,0.09262,-0.27771,-0.03021,0.0119,-0.00656,-0.00076,0.04486,0.05295,-0.07721,0.03082,-0.0322,-0.02396,0.01022,-0.03922
4.6725,0.04257,-0.08499,0.03601,0.02197,-0.03082,-0.00244,-0.00519,0.00214,0.03967,0.08026,-0.09918,-0.13672,-0.03204,-0.02197,0.0087,-0.04227
4.673,0.03677,-0.07187,-0.01709,0.16846,-0.03433,-0.0119,-0.00488,0.00412,0.03922,0.09186,-0.1355,-0.27374,-0.03098,-0.01831,0.009,-0.04547
4.6735,0.02853,-0.04471,-0.05722,0.11459,-0.03647,-0.01511,-0.00565,0.00244,0.04044,0.08896,-0.18112,-0.29785,-0.02655,-0.01221,0.00839,-0.04578
4.674,0.0145,-0.01221,-0.08392,-0.04501,-0.03708,-0.01221,-0.0087,-0.00275,0.03876,0.07294,-0.21103,-0.23895,-0.01572,-0.00595,0.00778,-0.04471
4.6745,0.00275,0.01099,-0.09903,-0.21439,-0.03891,-0.0061,-0.01297,-0.00839,0.04181,0.0415,-0.2034,-0.1619,-0.00488,-0.00229,0.00702,-0.04501
4.675,-0.00015,0.01678,-0.10986,-0.37933,-0.04623,-0.00229,-0.01678,-0.0116,0.06744,-0.00061,-0.17242,-0.09644,-0.00641,-0.00244,0.009,-0.04517
4.6755,0.00061,0.01358,-0.11932,-0.42862,-0.05829,-0.00351,-0.02014,-0.01343,0.12039,-0.03983,-0.14359,-0.09079,-0.0235,-0.00671,0.01099,-0.04364
4.676,-0.00275,0.01572,-0.13321,-0.09949,-0.06958,-0.00656,-0.0209,-0.01465,0.17792,-0.06683,-0.12421,-0.19455,-0.04532,-0.01266,0.01266,-0.03998
4.6765,-0.00534,0.02625,-0.16525,0.61966,-0.07324,-0.00961,-0.01831,-0.01556,0.20615,-0.08743,-0.11002,-0.32028,-0.05661,-0.01831,0.01282,-0.03464
4.677,0.00458,0.03357,-0.22141,1.23245,-0.06561,-0.01099,-0.01465,-0.01419,0.19577,-0.11444,-0.09933,-0.27069,-0.05295,-0.02274,0.01602,-0.0293
4.6775,0.02563,0.03189,-0.2597,1.23184,-0.04959,-0.01099,-0.01083,-0.01175,0.16342,-0.13916,-0.08224,0.00793,-0.04257,-0.02487,0.01862,-0.0267
4.678,0.0441,0.02533,-0.21698,0.72113,-0.03372,-0.00977,-0.00793,-0.00946,0.12527,-0.13763,-0.04364,0.32379,-0.03296,-0.02533,0.01846,-0.02884
4.6785,0.0499,0.01877,-0.09003,0.22964,-0.02472,-0.01266,-0.00748,-0.00763,0.08926,-0.10666,0.01312,0.4982,-0.02563,-0.02518,0.01724,-0.03326
4.679,0.04227,0.01099,0.0473,0.05142,-0.01938,-0.02029,-0.00946,-0.0061,0.06546,-0.08057,0.06195,0.57907,-0.01526,-0.02548,0.01648,-0.03677
4.6795,0.02762,-0.00137,0.11887,0.06668,-0.01373,-0.0296,-0.01114,-0.00641,0.06561,-0.09293,0.07843,0.65659,-0.00504,-0.02777,0.01892,-0.03601
4.68,0.01694,-0.0177,0.09583,0.05493,-0.01007,-0.03799,-0.01099,-0.00748,0.08209,-0.13153,0.06714,0.64148,-0.0058,-0.03189,0.02151,-0.03525
4.6805,0.0206,-0.0296,-0.01785,-0.07568,-0.01129,-0.04211,-0.01129,-0.00671,0.09216,-0.15427,0.04776,0.43152,-0.02472,-0.03296,0.02121,-0.03693
4.681,0.03876,-0.03128,-0.15961,-0.26352,-0.01541,-0.0415,-0.01328,-0.00488,0.09598,-0.13901,0.03662,0.12405,-0.05264,-0.03036,0.01617,-0.03983
4.6815,0.05112,-0.02472,-0.22629,-0.36224,-0.01938,-0.03555,-0.01434,-0.00275,0.11215,-0.10498,0.03433,-0.1268,-0.07278,-0.02686,0.00809,-0.0444
4.682,0.04425,-0.02335,-0.16373,-0.2684,-0.02136,-0.0293,-0.01236,-0.00137,0.14328,-0.07523,0.03479,-0.28595,-0.07355,-0.02747,0.0029,-0.04715
4.6825,0.02304,-0.03632,-0.03754,-0.01984,-0.0209,-0.02472,-0.00824,-0.00031,0.16373,-0.04379,0.03296,-0.34225,-0.06012,-0.03021,0.00107,-0.0473
4.683,-0.00198,-0.06424,0.0499,0.23743,-0.01953,-0.02457,-0.00549,0.00198,0.14847,0.00641,0.03784,-0.23621,-0.0444,-0.03281,-0.00092,-0.04562
4.6835,-0.03098,-0.09216,0.06378,0.37125,-0.01709,-0.02731,-0.00504,0.00412,0.09354,0.07309,0.05997,-0.0235,-0.03326,-0.02991,-0.00305,-0.04318
4.684,-0.05539,-0.10162,0.04211,0.33432,-0.01495,-0.03067,-0.00595,0.00443,0.00702,0.14038,0.1001,0.08621,-0.0267,-0.02411,-0.00122,-0.0415
4.6845,-0.05569,-0.08453,0.01938,0.17548,-0.01526,-0.03189,-0.01038,0.0029,-0.09705,0.19119,0.14023,-0.03937,-0.02228,-0.01938,0.00427,-0.04059
4.685,-0.03204,-0.05524,-0.00458,0.00305,-0.01755,-0.03052,-0.01526,0.00153,-0.19455,0.2095,0.15625,-0.26901,-0.01831,-0.01877,0.00992,-0.03876
4.6855,-0.01633,-0.03815,-0.03494,-0.08209,-0.02243,-0.02823,-0.01999,-0.00046,-0.24963,0.18585,0.13626,-0.34546,-0.01633,-0.02365,0.01144,-0.0351
4.686,-0.02747,-0.03922,-0.06256,-0.06195,-0.0264,-0.02533,-0.02197,-0.00336,-0.25574,0.12299,0.09064,-0.18112,-0.01617,-0.02747,0.00885,-0.03281
4.6865,-0.04761,-0.04913,-0.06897,-0.00366,-0.02884,-0.02319,-0.02182,-0.00626,-0.25146,0.0528,0.03479,0.06592,-0.01801,-0.02716,0.00381,-0.03494
4.687,-0.05371,-0.05829,-0.04425,-0.02502,-0.02792,-0.02258,-0.02319,-0.00809,-0.27161,0.00946,-0.02319,0.19623,-0.02167,-0.02472,-0.00198,-0.04257
4.6875,-0.05478,-0.06241,-0.00992,-0.18936,-0.02472,-0.02182,-0.02548,-0.00916,-0.30777,-0.00366,-0.07538,0.1651,-0.02426,-0.02258,-0.00687,-0.05188
4.688,-0.0676,-0.06348,-0.02014,-0.40878,-0.02045,-0.01755,-0.02716,-0.01038,-0.3363,-0.0145,-0.10513,0.04547,-0.02563,-0.02167,-0.00961,-0.05661
4.6885,-0.08179,-0.06317,-0.09537,-0.50247,-0.01541,-0.01419,-0.02426,-0.00824,-0.36072,-0.04211,-0.1004,-0.08987,-0.02411,-0.01816,-0.00763,-0.05508
4.689,-0.06546,-0.06577,-0.17792,-0.39993,-0.01251,-0.01617,-0.01831,-0.00366,-0.39276,-0.07065,-0.07294,-0.2005,-0.02213,-0.01068,-0.00153,-0.0499
4.6895,-0.00931,-0.07141,-0.1973,-0.21759,-0.01251,-0.02411,-0.0119,0.00229,-0.42313,-0.07263,-0.04608,-0.25696,-0.02029,-0.00122,0.00534,-0.0444
4.69,0.05249,-0.07858,-0.14908,-0.12222,-0.01556,-0.03174,-0.00702,0.00732,-0.43076,-0.04486,-0.0267,-0.25436,-0.01923,0.00427,0.01022,-0.04135
4.6905,0.08163,-0.08575,-0.08774,-0.19745,-0.01846,-0.04059,-0.00534,0.01022,-0.40756,-0.01129,-0.01633,-0.21561,-0.01541,0.00229,0.01099,-0.04196
4.691,0.07706,-0.09445,-0.03998,-0.43655,-0.01984,-0.05035,-0.00656,0.01175,-0.35645,0.00519,-0.0209,-0.14267,-0.01007,-0.00183,0.00977,-0.04379
4.6915,0.06134,-0.11108,0.00244,-0.7135,-0.02106,-0.05615,-0.0087,0.00992,-0.28046,0.00641,-0.04517,0.00137,-0.00336,-0.00519,0.01007,-0.04303
4.692,0.04028,-0.1358,0.04211,-0.7692,-0.02396,-0.04807,-0.01221,0.00488,-0.19348,0.00916,-0.07553,0.19073,0.00122,-0.0061,0.01114,-0.04059
4.6925,-0.00168,-0.15717,0.0441,-0.40726,-0.03159,-0.02518,-0.01724,-0.00092,-0.12207,0.01923,-0.09171,0.27985,0.0032,-0.00534,0.01358,-0.03952
4.693,-0.06561,-0.16113,-0.02243,0.22461,-0.04471,0.00061,-0.02136,-0.00534,-0.08713,0.02838,-0.0853,0.1593,0.00214,-0.00351,0.01221,-0.04074
4.6935,-0.11169,-0.14236,-0.14282,0.70892,-0.05951,0.02167,-0.02304,-0.00702,-0.08286,0.02731,-0.06653,-0.06622,-0.00061,-0.00153,0.00839,-0.04272
4.694,-0.09933,-0.11002,-0.26047,0.79987,-0.0679,0.03967,-0.02106,-0.00732,-0.09109,0.01801,-0.0563,-0.1918,-0.00519,-0.00031,0.00488,-0.0441
4.6945,-0.03525,-0.08377,-0.32654,0.61417,-0.06561,0.05814,-0.02151,-0.00778,-0.09979,0.01144,-0.08133,-0.15991,-0.01083,0.00031,0.00504,-0.04395
4.695,0.02945,-0.06805,-0.32944,0.41,-0.05539,0.07233,-0.02518,-0.00916,-0.10651,0.009,-0.15213,-0.08301,-0.01785,0.00214,0.00656,-0.0441
4.6955,0.05493,-0.05539,-0.29541,0.29434,-0.04105,0.07141,-0.02777,-0.01022,-0.10406,0.01205,-0.23346,-0.04959,-0.02609,0.00351,0.00778,-0.04425
4.696,0.03952,-0.03601,-0.2359,0.22644,-0.03052,0.05463,-0.02594,-0.01038,-0.0824,0.01282,-0.2536,-0.00412,-0.03571,0.0029,0.00824,-0.04395
4.6965,0.00366,-0.01038,-0.13489,0.15411,-0.02762,0.03204,-0.01953,-0.00732,-0.03067,0.00824,-0.18494,0.13092,-0.04684,0.00061,0.00778,-0.04272
4.697,-0.03296,0.01572,0.00885,0.04669,-0.0325,0.0145,-0.01328,-0.00366,0.04166,0.0029,-0.07278,0.31281,-0.05646,-0.00183,0.00854,-0.04288
4.6975,-0.05814,0.03922,0.15182,-0.14008,-0.04166,0.00717,-0.01022,-0.0032,0.11475,0.00595,0.02029,0.4126,-0.06378,-0.00443,0.01053,-0.04257
4.698,-0.07187,0.05585,0.2388,-0.40329,-0.04959,0.00809,-0.01053,-0.00443,0.17624,0.02106,0.07645,0.34821,-0.0676,-0.009,0.01114,-0.04166
4.6985,-0.08469,0.0618,0.26276,-0.61142,-0.05051,0.01175,-0.0116,-0.00549,0.22369,0.03769,0.11078,0.13824,-0.06348,-0.01358,0.01083,-0.03998
4.699,-0.10239,0.05783,0.26291,-0.59021,-0.04395,0.01572,-0.01175,-0.00427,0.25711,0.04196,0.13794,-0.10422,-0.04913,-0.01724,0.01114,-0.03998
4.6995,-0.11261,0.04791,0.2803,-0.3157,-0.03555,0.02441,-0.01068,-0.00153,0.26886,0.03662,0.159,-0.26245,-0.02792,-0.01755,0.01221,-0.03922
4.7,-0.10437,0.03571,0.30579,0.04791,-0.03174,0.04166,-0.01083,-0.00015,0.2597,0.03204,0.17349,-0.3508,-0.0087,-0.01587,0.01312,-0.0386
4.7005,-0.08102,0.02167,0.29831,0.29327,-0.03143,0.06104,-0.01297,0.00031,0.24078,0.0386,0.18021,-0.45624,0.00153,-0.01404,0.01358,-0.03983
4.701,-0.05569,0.00534,0.20462,0.30899,-0.03143,0.07462,-0.01343,0.00061,0.2269,0.04288,0.18234,-0.49957,0.00336,-0.01328,0.01251,-0.04288
4.7015,-0.03571,-0.01221,-0.00076,0.13992,-0.03128,0.0798,-0.01205,0.00275,0.22095,0.02686,0.18311,-0.28122,0.00259,-0.01373,0.00946,-0.04532
4.702,-0.02121,-0.02853,-0.23468,-0.02991,-0.03189,0.07248,-0.01175,0.00397,0.21683,-0.01495,0.17685,0.16953,0.00061,-0.01404,0.00839,-0.04501
4.7025,-0.01419,-0.03876,-0.32196,-0.02975,-0.03265,0.04105,-0.01343,0.00259,0.20706,-0.07141,0.15152,0.50934,-0.00717,-0.01266,0.0119,-0.04364
4.703,-0.01602,-0.04944,-0.19302,0.11566,-0.03479,-0.01938,-0.0148,0.00153,0.19226,-0.12863,0.10269,0.48416,-0.02502,-0.00961,0.01434,-0.04074
4.7035,-0.02228,-0.065,-0.00229,0.22308,-0.03571,-0.08667,-0.01389,0.00092,0.17914,-0.16815,0.04913,0.23132,-0.05325,-0.00748,0.01389,-0.03784
4.704,-0.02106,-0.0795,0.05005,0.17548,-0.03738,-0.12436,-0.01175,0.00015,0.16876,-0.17639,0.01358,0.06973,-0.08484,-0.00916,0.01022,-0.03754
4.7045,-0.0061,-0.08514,-0.05524,0.0029,-0.03754,-0.1268,-0.01251,-0.00122,0.14923,-0.15289,-0.0029,0.12192,-0.10773,-0.01373,0.00839,-0.04028
4.705,0.01343,-0.07797,-0.17136,-0.24078,-0.03677,-0.12039,-0.01419,-0.00275,0.11108,-0.11108,-0.02335,0.26764,-0.11551,-0.01892,0.00717,-0.04471
4.7055,0.0267,-0.06332,-0.18661,-0.53818,-0.03494,-0.12817,-0.01511,-0.00244,0.06149,-0.06393,-0.05249,0.37262,-0.10803,-0.02548,0.00534,-0.04715
4.706,0.03036,-0.04532,-0.1207,-0.81696,-0.03113,-0.14328,-0.01556,-0.00229,0.02075,-0.01602,-0.07156,0.39047,-0.08972,-0.03235,0.0032,-0.04532
4.7065,0.0293,-0.02548,-0.04929,-0.89417,-0.02625,-0.14862,-0.01343,-0.00244,-0.00397,0.0354,-0.06851,0.27328,-0.06989,-0.03876,0.00092,-0.04364
4.707,0.03006,-0.00076,-0.00381,-0.59433,-0.02274,-0.14755,-0.01083,-0.00259,-0.01633,0.08728,-0.05081,-0.01266,-0.05783,-0.04105,0.00229,-0.04349
4.7075,0.03586,0.02686,0.02365,0.0473,-0.02441,-0.15244,-0.00992,-0.0032,-0.03128,0.13092,-0.03021,-0.33447,-0.05569,-0.0386,0.00534,-0.04456
4.708,0.04517,0.04807,0.04105,0.68176,-0.03036,-0.16602,-0.01236,-0.00595,-0.0563,0.16068,-0.00656,-0.46463,-0.05508,-0.03571,0.00732,-0.04547
4.7085,0.05035,0.05707,0.04517,0.91156,-0.03494,-0.18158,-0.01465,-0.00931,-0.07996,0.1799,0.02426,-0.36758,-0.04913,-0.03876,0.00534,-0.04562
4.709,0.04608,0.06134,0.03647,0.68146,-0.03616,-0.19348,-0.01572,-0.01068,-0.07538,0.1918,0.05646,-0.2356,-0.04044,-0.04257,0.00198,-0.04562
4.7095,0.03647,0.06943,0.01801,0.32745,-0.03418,-0.20309,-0.01358,-0.00778,-0.03922,0.19318,0.07462,-0.19104,-0.03464,-0.0412,-0.00046,-0.04532
4.71,0.02533,0.07538,-0.01511,0.17334,-0.0293,-0.21576,-0.01144,-0.00519,-0.00824,0.17639,0.06851,-0.16373,-0.03082,-0.03448,0.00107,-0.0444
4.7105,0.0087,0.06546,-0.09232,0.21408,-0.02579,-0.23239,-0.01053,-0.00336,-0.01495,0.13565,0.0444,-0.08026,-0.02579,-0.02777,0.00519,-0.04318
4.711,-0.0116,0.03967,-0.25146,0.25726,-0.02243,-0.24857,-0.01022,-0.00183,-0.05035,0.07813,0.01053,0.00687,-0.02014,-0.02563,0.00763,-0.04135
4.7115,-0.0148,0.00809,-0.46509,0.20615,-0.02151,-0.26154,-0.01068,-0.00061,-0.08484,0.01328,-0.0325,0.03052,-0.01419,-0.02747,0.00763,-0.04028
4.712,0.02518,-0.01343,-0.58823,0.1059,-0.02441,-0.271,-0.01144,0.00137,-0.1178,-0.04639,-0.08865,0.0116,-0.01038,-0.02975,0.00214,-0.04196
4.7125,0.0943,-0.02274,-0.47729,0.01892,-0.02731,-0.27878,-0.0116,0.00198,-0.16373,-0.0882,-0.13992,0.00748,-0.00885,-0.03021,-0.00046,-0.04517
4.713,0.15198,-0.02686,-0.18082,-0.0528,-0.02884,-0.27756,-0.0116,0.00168,-0.22568,-0.10788,-0.16388,0.02182,-0.0087,-0.02457,-0.00046,-0.04654
4.7135,0.16678,-0.03265,0.0795,-0.13947,-0.03021,-0.27023,-0.01205,0.00061,-0.28503,-0.1152,-0.159,0.02182,-0.01251,-0.01602,0.00336,-0.04532
4.714,0.13748,-0.04456,0.14984,-0.26505,-0.03021,-0.25681,-0.01221,-0.00092,-0.31525,-0.12375,-0.13947,-0.009,-0.01892,-0.01099,0.0061,-0.04333
4.7145,0.08682,-0.06287,0.08072,-0.4277,-0.02701,-0.24033,-0.01373,-0.0032,-0.30289,-0.12924,-0.11063,-0.05096,-0.02441,-0.00916,0.00687,-0.04272
4.715,0.03906,-0.08713,0.01083,-0.56854,-0.02106,-0.22202,-0.01328,-0.00488,-0.25803,-0.12085,-0.07111,-0.06516,-0.0264,-0.00717,0.00748,-0.0444
4.7155,-0.00443,-0.10956,0.01297,-0.5632,-0.01648,-0.20279,-0.01007,-0.00473,-0.2121,-0.09689,-0.03433,-0.01419,-0.02762,-0.00259,0.00702,-0.04562
4.716,-0.05569,-0.11917,0.07782,-0.29419,-0.01343,-0.18616,-0.00641,-0.00366,-0.18356,-0.06958,-0.01968,0.10223,-0.03586,-0.00244,0.00565,-0.04669
4.7165,-0.10788,-0.11215,0.18234,0.17273,-0.01068,-0.17258,-0.00458,-0.00259,-0.15762,-0.05524,-0.02289,0.22278,-0.0502,-0.00595,0.00534,-0.04608
4.717,-0.12939,-0.09338,0.30899,0.5513,-0.00793,-0.16022,-0.00443,-0.00183,-0.10513,-0.06027,-0.02075,0.27115,-0.05844,-0.00854,0.00717,-0.04349
4.7175,-0.10422,-0.06958,0.42007,0.5954,-0.00565,-0.14725,-0.00443,-0.00137,-0.01221,-0.08224,-0.01526,0.22919,-0.05142,-0.00565,0.00961,-0.04074
4.718,-0.05447,-0.04395,0.45975,0.34485,-0.00061,-0.13641,-0.00458,-0.00305,0.09903,-0.1059,-0.01984,0.14862,-0.0322,-0.00259,0.01205,-0.03693
4.7185,-0.02045,-0.01923,0.39825,0.0502,0.01007,-0.12863,-0.00473,-0.00381,0.19241,-0.11581,-0.02792,0.07507,-0.01587,-0.00412,0.01358,-0.03525
4.719,-0.01358,0.00076,0.26367,-0.10315,0.02243,-0.11978,-0.00595,-0.00458,0.24643,-0.11063,-0.01648,-0.00946,-0.00748,-0.00717,0.01282,-0.03586
4.7195,-0.01999,0.00946,0.11627,-0.11703,0.03128,-0.1091,-0.00916,-0.00671,0.26031,-0.10544,0.02319,-0.13687,-0.00443,-0.00809,0.01144,-0.03876
4.72,-0.03052,0.00275,-0.00351,-0.07935,0.03494,-0.09857,-0.01343,-0.00671,0.23987,-0.11337,0.07553,-0.2739,-0.00244,-0.00885,0.00992,-0.03998
4.7205,-0.04532,-0.01877,-0.10498,-0.05356,0.03403,-0.08713,-0.01862,-0.00412,0.18524,-0.12375,0.1059,-0.33188,-0.00244,-0.01251,0.00916,-0.04135
4.721,-0.06577,-0.047,-0.20187,-0.05692,0.02792,-0.07813,-0.02335,-0.00366,0.10086,-0.12009,0.09125,-0.26199,-0.00916,-0.01678,0.00824,-0.04196
4.7215,-0.0882,-0.07034,-0.25803,-0.0769,0.01968,-0.07065,-0.02563,-0.00519,0.00946,-0.09933,0.0386,-0.11261,-0.02182,-0.01663,0.00732,-0.04166
4.722,-0.10956,-0.08392,-0.20691,-0.0856,0.00824,-0.06348,-0.0264,-0.00748,-0.05875,-0.07843,-0.02884,0.02045,-0.03571,-0.01434,0.00763,-0.04211
4.7225,-0.11887,-0.08652,-0.04776,-0.06836,-0.00763,-0.05371,-0.02487,-0.00641,-0.09552,-0.07507,-0.10223,0.08362,-0.04196,-0.01358,0.00687,-0.04272
4.723,-0.10681,-0.08316,0.10742,-0.04425,-0.02411,-0.04074,-0.02121,-0.00473,-0.11612,-0.09201,-0.17075,0.09308,-0.03403,-0.01617,0.00656,-0.04349
4.7235,-0.07858,-0.08301,0.12512,-0.03738,-0.04257,-0.03067,-0.01755,-0.00488,-0.13336,-0.12573,-0.2034,0.09079,-0.01938,-0.02014,0.00488,-0.04227
4.724,-0.04715,-0.08972,-0.00702,-0.04364,-0.06439,-0.02411,-0.01633,-0.00671,-0.13382,-0.17303,-0.18402,0.09766,-0.01205,-0.02182,0.00427,-0.03891
4.7245,-0.01877,-0.09598,-0.17731,-0.04532,-0.08896,-0.0235,-0.01633,-0.00793,-0.09689,-0.22583,-0.13885,0.10834,-0.0206,-0.02106,0.00549,-0.03723
4.725,0.00717,-0.08621,-0.27908,-0.04028,-0.11124,-0.02304,-0.01694,-0.00732,-0.02075,-0.25635,-0.10071,0.09232,-0.03815,-0.01923,0.00839,-0.03754
4.7255,0.02579,-0.0592,-0.30136,-0.04059,-0.12543,-0.01709,-0.01617,-0.00916,0.07095,-0.23407,-0.07263,0.00122,-0.05142,-0.01846,0.01114,-0.03891
4.726,0.03067,-0.02808,-0.28687,-0.04623,-0.13123,-0.0058,-0.01694,-0.01236,0.14725,-0.15671,-0.04166,-0.18082,-0.05356,-0.01785,0.01114,-0.03967
4.7265,0.02762,-0.00793,-0.24857,-0.04501,-0.13474,0.00702,-0.01572,-0.01404,0.19165,-0.05478,-0.00549,-0.35904,-0.04715,-0.01785,0.00992,-0.03967
4.727,0.03128,-0.00626,-0.17807,-0.03113,-0.13351,0.01907,-0.01465,-0.01373,0.21164,0.03235,0.02945,-0.3746,-0.03891,-0.01892,0.00946,-0.04105
4.7275,0.05096,-0.02167,-0.08804,-0.01251,-0.11536,0.02975,-0.0145,-0.0116,0.22903,0.07568,0.0618,-0.177,-0.03326,-0.01984,0.01144,-0.04242
4.728,0.08102,-0.04654,-0.01312,0.00153,-0.08179,0.03952,-0.01633,-0.009,0.25757,0.06699,0.08392,0.0737,-0.03067,-0.01984,0.0116,-0.04288
4.7285,0.11307,-0.06287,0.02121,0.01297,-0.05005,0.05066,-0.01831,-0.00824,0.28015,0.02975,0.0827,0.16739,-0.02869,-0.0177,0.00977,-0.0441
4.729,0.13855,-0.06363,0.02136,0.02533,-0.03418,0.05875,-0.01984,-0.00977,0.26352,0.00732,0.05768,0.09003,-0.02655,-0.01221,0.00671,-0.0444
4.7295,0.14526,-0.05615,0.00534,0.03326,-0.0293,0.06363,-0.01831,-0.01129,0.19531,0.02487,0.02563,0.00473,-0.02838,-0.00183,0.00549,-0.04318
4.73,0.12161,-0.04761,-0.01892,0.02625,-0.02441,0.06592,-0.01404,-0.0116,0.09109,0.06256,0.00565,0.01205,-0.03708,0.00854,0.00809,-0.04242
4.7305,0.06927,-0.03815,-0.05798,0.00824,-0.01587,0.065,-0.01266,-0.01175,-0.03235,0.07874,-0.00031,0.05783,-0.04929,0.0145,0.00992,-0.04196
4.731,-0.00549,-0.02747,-0.12299,-0.00549,-0.00702,0.06134,-0.01358,-0.01129,-0.16785,0.05905,-0.00107,0.06729,-0.05386,0.01602,0.00961,-0.04196
4.7315,-0.09506,-0.02274,-0.20401,-0.00809,-0.00244,0.05722,-0.01358,-0.00931,-0.30624,0.01984,-0.00916,0.04913,-0.04715,0.01282,0.00763,-0.04242
4.732,-0.17044,-0.0322,-0.24628,-0.00656,-0.00076,0.05554,-0.01175,-0.00549,-0.41962,-0.01099,-0.02914,0.04349,-0.03693,0.00259,0.00626,-0.04196
4.7325,-0.18082,-0.05783,-0.20569,-0.01038,-0.00107,0.0528,-0.01129,-0.00153,-0.47318,-0.01495,-0.05554,0.05661,-0.03113,-0.00961,0.00519,-0.04227
4.733,-0.11795,-0.08926,-0.1004,-0.01846,-0.00412,0.04684,-0.01114,-0.00031,-0.44724,0.00259,-0.0914,0.0676,-0.03113,-0.01541,0.00565,-0.04196
4.7335,-0.03052,-0.11612,0.01312,-0.0238,-0.01404,0.04089,-0.00946,-0.00107,-0.35309,0.02975,-0.15182,0.06577,-0.03296,-0.01205,0.00595,-0.04089
4.734,0.01633,-0.13351,0.0972,-0.02625,-0.02548,0.03571,-0.00763,-0.00351,-0.22781,0.05386,-0.22202,0.05402,-0.03296,-0.00458,0.00656,-0.04196
4.7345,0.00488,-0.14038,0.1329,-0.02747,-0.03159,0.03113,-0.00671,-0.00641,-0.11246,0.06897,-0.24521,0.0386,-0.03174,-0.00366,0.00656,-0.04135
4.735,-0.03662,-0.13947,0.10269,-0.02197,-0.02747,0.02609,-0.0061,-0.00839,-0.03418,0.07858,-0.18738,0.02457,-0.02747,-0.01251,0.00717,-0.03784
4.7355,-0.07797,-0.13107,-0.00031,-0.01282,-0.01724,0.01999,-0.00732,-0.00809,0.00107,0.09094,-0.09415,0.01572,-0.02213,-0.02792,0.00854,-0.0322
4.736,-0.10254,-0.12192,-0.11932,-0.0061,-0.01038,0.01266,-0.00824,-0.00626,0.0,0.11169,-0.03128,0.01175,-0.01663,-0.03952,0.01129,-0.02747
4.7365,-0.11017,-0.12115,-0.15228,-0.00656,-0.01129,0.00549,-0.00946,-0.00214,-0.02823,0.13687,-0.00702,0.00992,-0.01602,-0.04501,0.01343,-0.02441
4.737,-0.10925,-0.12268,-0.0647,-0.00977,-0.01602,-0.00183,-0.00961,0.00259,-0.06592,0.15244,0.00916,0.00885,-0.01923,-0.0473,0.0148,-0.02289
4.7375,-0.1059,-0.10468,0.06256,-0.01068,-0.01694,-0.00824,-0.00854,0.00534,-0.09354,0.14618,0.02945,0.00916,-0.02457,-0.05173,0.01862,-0.02151
4.738,-0.08987,-0.05722,0.13092,-0.00977,-0.01312,-0.01251,-0.00519,0.00641,-0.10361,0.11475,0.03143,0.01099,-0.03235,-0.05875,0.02457,-0.02213
4.7385,-0.04807,0.00137,0.12039,-0.00702,-0.01541,-0.01511,-0.0032,0.00565,-0.10086,0.06638,0.01129,0.0119,-0.03952,-0.05951,0.0296,-0.02411
4.739,0.00671,0.04135,0.07889,-0.00488,-0.02365,-0.01953,-0.00549,0.00443,-0.0853,0.01617,0.00198,0.00931,-0.04578,-0.05096,0.03235,-0.02884
4.7395,0.03738,0.05447,0.04715,-0.00458,-0.03433,-0.0235,-0.0087,0.0032,-0.04715,-0.02502,0.03479,0.00732,-0.04883,-0.03357,0.03571,-0.03403
4.74,0.02991,0.05783,0.03174,-0.0087,-0.04456,-0.02228,-0.00854,0.0029,0.0174,-0.05508,0.09033,0.00809,-0.04898,-0.01312,0.03967,-0.03845
4.7405,0.00793,0.06561,0.02197,-0.01633,-0.05615,-0.01556,-0.00519,0.00259,0.09003,-0.08224,0.11078,0.00916,-0.04776,0.00443,0.04059,-0.04379
4.741,0.00015,0.07782,0.01053,-0.02426,-0.06714,-0.01099,-0.00107,0.00015,0.13855,-0.10803,0.0705,0.00931,-0.04684,0.01648,0.03448,-0.0499
4.7415,0.01251,0.08698,-0.00519,-0.03036,-0.07492,-0.01053,-0.00092,-0.00397,0.15335,-0.12405,0.01175,0.00977,-0.04395,0.01694,0.02594,-0.05829
4.742,0.03601,0.08316,-0.01877,-0.03281,-0.07538,-0.01144,-0.00351,-0.00977,0.15259,-0.11551,-0.0029,0.01007,-0.04135,0.00458,0.01572,-0.06683
4.7425,0.06378,0.06287,-0.02884,-0.02975,-0.0676,-0.01175,-0.00839,-0.01724,0.1503,-0.08438,0.03387,0.00992,-0.0386,-0.01389,0.00473,-0.07248
4.743,0.08621,0.02502,-0.03235,-0.02243,-0.05432,-0.01175,-0.01572,-0.02594,0.13794,-0.04456,0.06866,0.00626,-0.03586,-0.03113,-0.00854,-0.07233
4.7435,0.08469,-0.02258,-0.02304,-0.01572,-0.04074,-0.0145,-0.02502,-0.03006,0.10239,-0.01175,0.06226,-0.00046,-0.03464,-0.04532,-0.02533,-0.06836
4.744,0.05173,-0.06256,0.00214,-0.01373,-0.03372,-0.0174,-0.03632,-0.02838,0.05646,0.00854,0.03021,-0.00702,-0.03632,-0.05798,-0.04333,-0.06577
4.7445,0.00977,-0.07385,0.02487,-0.01389,-0.03357,-0.01984,-0.04791,-0.02197,0.02655,0.01755,0.01129,-0.00916,-0.03769,-0.06546,-0.05478,-0.06577
4.745,-0.0119,-0.05966,0.01144,-0.01434,-0.03281,-0.02167,-0.056,-0.01541,0.02579,0.01572,0.01968,-0.0116,-0.03616,-0.06531,-0.05386,-0.06622
4.7455,-0.00809,-0.0473,-0.04929,-0.0145,-0.02991,-0.02335,-0.05753,-0.00809,0.04074,0.00427,0.04257,-0.01343,-0.03281,-0.05875,-0.04059,-0.06012
4.746,-0.00275,-0.05829,-0.13443,-0.01297,-0.02594,-0.02518,-0.05295,-0.00046,0.04898,-0.01923,0.06363,-0.01266,-0.03052,-0.0502,-0.02319,-0.05005
4.7465,-0.01129,-0.08194,-0.21072,-0.00992,-0.02457,-0.02792,-0.04639,0.0058,0.03738,-0.04791,0.07431,-0.00702,-0.03143,-0.0412,-0.01022,-0.03845
4.747,-0.02686,-0.09918,-0.24597,-0.0061,-0.02792,-0.02914,-0.03998,0.00931,0.0116,-0.06958,0.07324,-0.00107,-0.03265,-0.03174,-0.00504,-0.02914
4.7475,-0.03189,-0.10559,-0.2124,-0.00336,-0.03464,-0.02853,-0.03296,0.01053,-0.01953,-0.07339,0.06287,0.00015,-0.03296,-0.02518,-0.00366,-0.02335
4.748,-0.02731,-0.11154,-0.11276,-0.00183,-0.0412,-0.02914,-0.02258,0.01129,-0.04974,-0.0563,0.04745,-0.00183,-0.03372,-0.02304,-0.00046,-0.02121
4.7485,-0.01892,-0.1181,0.00504,-0.00107,-0.04593,-0.02808,-0.01099,0.01129,-0.07385,-0.02655,0.02899,-0.00046,-0.0351,-0.02518,0.00504,-0.02121
4.749,-0.00702,-0.11917,0.09674,-0.0032,-0.05005,-0.02686,-0.00122,0.00931,-0.08118,0.00565,0.00366,0.00687,-0.03723,-0.02899,0.01175,-0.02106
4.7495,0.01068,-0.10864,0.15152,-0.009,-0.05295,-0.02411,0.00427,0.00565,-0.065,0.0296,-0.02472,0.0148,-0.03738,-0.03174,0.01633,-0.01846
4.75,0.03159,-0.09247,0.16876,-0.01633,-0.05127,-0.02319,0.00641,0.00214,-0.02289,0.03677,-0.03677,0.01511,-0.03632,-0.03326,0.01877,-0.01419
4.7505,0.04517,-0.07751,0.13199,-0.02029,-0.04486,-0.0267,0.00412,-0.00092,0.0412,0.03769,-0.02121,0.00671,-0.03403,-0.03372,0.01984,-0.01053
4.751,0.0499,-0.06531,0.03433,-0.01877,-0.03738,-0.03174,-0.00031,-0.00259,0.11719,0.0441,0.01404,-0.00305,-0.03082,-0.03235,0.02243,-0.00809
4.7515,0.05676,-0.05585,-0.0853,-0.0116,-0.03098,-0.03281,-0.00549,-0.00412,0.19028,0.05615,0.04501,-0.00702,-0.0293,-0.03082,0.02472,-0.00626
4.752,0.07843,-0.04745,-0.17746,-0.00183,-0.02609,-0.03174,-0.009,-0.00412,0.24902,0.06012,0.05554,-0.00595,-0.03006,-0.02716,0.02579,-0.00839
4.7525,0.11108,-0.03754,-0.21545,0.00488,-0.02319,-0.03387,-0.00992,-0.00305,0.28885,0.04379,0.04715,-0.00366,-0.0293,-0.02197,0.02518,-0.01526
4.753,0.13428,-0.03052,-0.18845,0.00397,-0.02121,-0.0386,-0.01205,-0.00229,0.30609,0.0116,0.03265,-0.00259,-0.02701,-0.01419,0.02396,-0.0238
4.7535,0.12299,-0.0296,-0.10895,-0.0061,-0.01862,-0.0412,-0.01755,-0.0029,0.29968,-0.02625,0.02533,-0.00397,-0.02609,-0.00732,0.02731,-0.02975
4.754,0.06836,-0.03098,-0.02228,-0.0177,-0.01434,-0.03983,-0.02731,-0.00351,0.27008,-0.05676,0.02686,-0.0058,-0.02823,-0.0061,0.03448,-0.03021
4.7545,-0.02289,-0.02823,0.02869,-0.02289,-0.01083,-0.03876,-0.03601,-0.00305,0.2182,-0.07675,0.03189,-0.00778,-0.03067,-0.00854,0.04333,-0.02914
4.755,-0.12115,-0.02716,0.04486,-0.01923,-0.0116,-0.04135,-0.03998,0.00031,0.13962,-0.08041,0.02716,-0.00961,-0.03082,-0.01205,0.05005,-0.03052
4.7555,-0.17303,-0.03723,0.04745,-0.01144,-0.01907,-0.04288,-0.03723,0.00427,0.02426,-0.06638,0.0029,-0.01328,-0.03006,-0.0148,0.05203,-0.03662
4.756,-0.14038,-0.06165,0.02808,-0.00687,-0.03433,-0.04196,-0.02869,0.00778,-0.12573,-0.04166,-0.04379,-0.01831,-0.02914,-0.0177,0.047,-0.04532
4.7565,-0.04654,-0.09567,-0.03311,-0.00656,-0.04959,-0.0412,-0.01511,0.00748,-0.29816,-0.02304,-0.10239,-0.01938,-0.02716,-0.01953,0.03693,-0.05722
4.757,0.03433,-0.12848,-0.11642,-0.00626,-0.05524,-0.04227,-0.00366,0.00351,-0.46738,-0.02106,-0.14664,-0.01007,-0.02563,-0.01831,0.02441,-0.07507
4.7575,0.0528,-0.15411,-0.15854,-0.00397,-0.04593,-0.04303,-0.00092,-0.00198,-0.59937,-0.02136,-0.15808,0.01144,-0.02563,-0.01572,0.00946,-0.09933
4.758,0.02762,-0.16953,-0.14389,-0.01007,-0.03342,-0.04272,-0.00565,-0.00381,-0.66055,0.00336,-0.14404,0.04166,-0.02777,-0.01373,-0.01068,-0.12497
4.7585,0.00015,-0.17197,-0.12497,-0.03311,-0.02777,-0.04272,-0.0116,-0.00183,-0.64301,0.05646,-0.12253,0.07477,-0.03036,-0.01175,-0.03372,-0.14008
4.759,-0.00992,-0.15289,-0.14404,-0.05219,-0.02884,-0.04593,-0.01358,0.00061,-0.569,0.10895,-0.09964,0.10208,-0.03174,-0.01053,-0.05524,-0.14099
4.7595,-0.00854,-0.10406,-0.16251,-0.04211,-0.02838,-0.05249,-0.01373,0.00107,-0.46982,0.13123,-0.07065,0.11414,-0.03082,-0.01038,-0.07034,-0.12878
4.76,-0.00626,-0.03387,-0.12299,-0.0177,-0.02548,-0.05798,-0.01526,-0.00031,-0.36392,0.11978,-0.03128,0.09811,-0.0296,-0.01251,-0.07736,-0.11276
4.7605,-0.00717,0.03403,-0.03265,-0.00946,-0.02457,-0.06104,-0.01694,-0.00229,-0.25726,0.09323,0.00946,0.05157,-0.0296,-0.01694,-0.07233,-0.0975
4.761,-0.01053,0.0824,0.05508,-0.01038,-0.02609,-0.0621,-0.01709,-0.00244,-0.15915,0.06653,0.02853,-0.00244,-0.03067,-0.0209,-0.05295,-0.08499
4.7615,-0.01312,0.10834,0.10406,0.01984,-0.02701,-0.06302,-0.01602,-0.00244,-0.08331,0.03693,0.0058,-0.03098,-0.03067,-0.02182,-0.02563,-0.07156
4.762,-0.01663,0.11917,0.12161,0.08728,-0.02518,-0.06287,-0.01694,-0.00305,-0.03479,-0.00015,-0.05005,-0.01709,-0.02991,-0.02121,-0.0032,-0.05539
4.7625,-0.02625,0.12222,0.121,0.14404,-0.02213,-0.065,-0.01663,-0.0058,-0.01068,-0.03357,-0.0972,0.03616,-0.02899,-0.01984,0.00656,-0.03906
4.763,-0.04257,0.11887,0.10345,0.12787,-0.02014,-0.06668,-0.01434,-0.00946,-0.00259,-0.05249,-0.10452,0.10391,-0.02869,-0.01923,0.009,-0.02701
4.7635,-0.05539,0.103,0.06592,0.01892,-0.02045,-0.0679,-0.01083,-0.01083,0.00565,-0.05676,-0.07782,0.12299,-0.02808,-0.02121,0.00885,-0.02258
4.764,-0.06042,0.06989,0.02426,-0.12802,-0.01999,-0.06699,-0.01083,-0.01053,0.03372,-0.06104,-0.04959,0.02594,-0.02716,-0.02411,0.0087,-0.02502
4.7645,-0.06287,0.02441,-0.00275,-0.22598,-0.01678,-0.06714,-0.01373,-0.00778,0.08514,-0.07217,-0.03799,-0.14648,-0.02686,-0.02563,0.00839,-0.03052
4.765,-0.06744,-0.01892,-0.02045,-0.23865,-0.01251,-0.06668,-0.0145,-0.00488,0.13931,-0.08621,-0.03464,-0.25253,-0.02808,-0.02716,0.01038,-0.03677
4.7655,-0.0679,-0.0473,-0.04471,-0.19836,-0.00809,-0.06424,-0.01022,-0.00244,0.17426,-0.09827,-0.02304,-0.224,-0.02975,-0.02701,0.01358,-0.04074
4.766,-0.05997,-0.06042,-0.07904,-0.16708,-0.00412,-0.06226,-0.00198,-0.00015,0.1947,-0.11398,-0.00046,-0.14191,-0.03098,-0.02121,0.01663,-0.0441
4.7665,-0.04654,-0.06546,-0.1088,-0.20035,-0.00107,-0.06241,0.00565,-0.00031,0.21835,-0.13641,0.02136,-0.0914,-0.03082,-0.00824,0.01678,-0.04791
4.767,-0.03372,-0.06409,-0.12405,-0.29266,-0.00061,-0.06271,0.00916,-0.00153,0.23911,-0.16434,0.03296,-0.04684,-0.0325,0.00443,0.01297,-0.05203
4.7675,-0.01648,-0.05508,-0.12543,-0.34592,-0.00275,-0.06393,0.0061,-0.00259,0.23697,-0.18494,0.03098,0.0264,-0.0351,0.01205,0.00671,-0.05173
4.768,0.00793,-0.03891,-0.11948,-0.26398,-0.00656,-0.06332,-0.00061,-0.00412,0.20828,-0.19196,0.0206,0.06088,-0.03876,0.01251,0.00488,-0.0473
4.7685,0.03311,-0.02014,-0.12726,-0.07843,-0.00748,-0.05936,-0.00717,-0.00641,0.16861,-0.18906,0.01831,-0.01678,-0.04227,0.00717,0.00977,-0.03952
4.769,0.04181,-0.00168,-0.18555,0.12024,-0.00656,-0.05493,-0.01053,-0.0087,0.13184,-0.17929,0.03143,-0.15045,-0.04608,-0.0029,0.01862,-0.03204
4.7695,0.02853,0.01144,-0.29953,0.31967,-0.00702,-0.05157,-0.01205,-0.00839,0.10132,-0.16113,0.04959,-0.2327,-0.047,-0.01434,0.02838,-0.02426
4.77,0.00549,0.01831,-0.37613,0.52948,-0.01038,-0.05219,-0.01328,-0.0058,0.08148,-0.1326,0.04959,-0.26062,-0.0441,-0.0209,0.03494,-0.01526
4.7705,-0.01083,0.01999,-0.29572,0.63995,-0.01755,-0.05432,-0.01343,-0.00412,0.07172,-0.09872,0.03204,-0.28564,-0.03815,-0.02136,0.03586,-0.0087
4.771,-0.0174,0.0206,-0.07858,0.49347,-0.02426,-0.05646,-0.01205,-0.00534,0.06516,-0.06454,0.01831,-0.28183,-0.02991,-0.0177,0.03418,-0.01144
4.7715,-0.01801,0.01862,0.10178,0.08102,-0.02823,-0.05859,-0.01144,-0.00809,0.05844,-0.03387,0.02304,-0.16769,-0.02319,-0.01556,0.0322,-0.0206
4.772,-0.01404,0.01007,0.11749,-0.39993,-0.03326,-0.05905,-0.01083,-0.00778,0.05096,-0.00671,0.03708,0.06638,-0.01816,-0.01556,0.03159,-0.02884
4.7725,-0.00427,-0.00305,0.01297,-0.66879,-0.03876,-0.05783,-0.00824,-0.00244,0.03693,0.01923,0.03708,0.30563,-0.01572,-0.01556,0.02838,-0.0354
4.773,0.00763,-0.01526,-0.0856,-0.59372,-0.04532,-0.05783,-0.00458,0.00366,0.00427,0.03952,0.01358,0.41275,-0.01556,-0.01495,0.02182,-0.0386
4.7735,0.01663,-0.02182,-0.11597,-0.3096,-0.04532,-0.06042,-0.00107,0.00443,-0.0502,0.04852,-0.02197,0.37033,-0.02029,-0.01511,0.01343,-0.03815
4.774,0.02197,-0.02396,-0.09628,-0.07111,-0.03723,-0.06332,0.00061,0.00031,-0.11322,0.0415,-0.05432,0.26855,-0.02609,-0.01663,0.01007,-0.03586
4.7745,0.0235,-0.02762,-0.04944,-0.0235,-0.02777,-0.06363,0.00107,-0.00427,-0.16785,0.02136,-0.08194,0.17502,-0.02777,-0.01831,0.0148,-0.03372
4.775,0.0238,-0.03723,0.01999,-0.11292,-0.02243,-0.06271,0.00015,-0.00809,-0.20233,-0.00259,-0.1062,0.0885,-0.02243,-0.01801,0.01816,-0.03159
4.7755,0.02487,-0.05371,0.1059,-0.1181,-0.02243,-0.06104,-0.00015,-0.0087,-0.21408,-0.02045,-0.12314,0.01328,-0.01404,-0.01526,0.01785,-0.03052
4.776,0.02731,-0.07095,0.18387,0.14801,-0.02594,-0.05844,-0.00092,-0.00946,-0.20599,-0.02533,-0.12894,-0.01556,-0.0087,-0.00854,0.01205,-0.03143
4.7765,0.03265,-0.08301,0.23148,0.54642,-0.02686,-0.05524,-0.00488,-0.01495,-0.17792,-0.02075,-0.13168,0.01068,-0.00916,0.00031,0.00183,-0.03418
4.777,0.03723,-0.08621,0.24368,0.69611,-0.02838,-0.05173,-0.01053,-0.02228,-0.12711,-0.01694,-0.14725,0.05463,-0.0116,0.00763,-0.00992,-0.0354
4.7775,0.03998,-0.08331,0.22614,0.44449,-0.02777,-0.04959,-0.01434,-0.02319,-0.06195,-0.02426,-0.17303,0.08392,-0.0145,0.01114,-0.01923,-0.03571
4.778,0.04089,-0.08057,0.19608,0.06546,-0.02533,-0.0502,-0.01465,-0.01419,-0.00046,-0.0383,-0.18631,0.10818,-0.02106,0.00885,-0.02243,-0.03693
4.7785,0.04105,-0.08209,0.16647,-0.11276,-0.02335,-0.05325,-0.01465,-0.00351,0.04837,-0.04471,-0.15808,0.13733,-0.03143,0.00046,-0.01724,-0.03738
4.779,0.04059,-0.08621,0.12711,-0.07019,-0.02792,-0.05753,-0.01907,-0.00153,0.09232,-0.03189,-0.09232,0.13824,-0.04181,-0.01007,-0.00931,-0.0351
4.7795,0.0386,-0.08499,0.06088,0.01236,-0.03784,-0.0621,-0.02792,-0.009,0.13687,-0.00641,-0.01892,0.07813,-0.04837,-0.01755,-0.00351,-0.02975
4.78,0.0351,-0.07996,-0.0264,0.03845,-0.04959,-0.06531,-0.03891,-0.01602,0.17044,0.01678,0.03433,-0.01877,-0.05188,-0.02151,-0.00015,-0.02441
4.7805,0.03067,-0.07599,-0.10803,0.03693,-0.05829,-0.0679,-0.05096,-0.01602,0.17578,0.02792,0.06577,-0.09109,-0.05417,-0.02487,0.00275,-0.02335
4.781,0.02441,-0.07629,-0.16418,0.04105,-0.05966,-0.06882,-0.05997,-0.01083,0.14648,0.02304,0.08606,-0.11108,-0.05539,-0.02914,0.00397,-0.02533
4.7815,0.01663,-0.07904,-0.18936,0.03754,-0.05356,-0.06744,-0.06287,-0.00763,0.09033,0.00946,0.10223,-0.10345,-0.05432,-0.03189,0.00519,-0.02472
4.782,0.01099,-0.0798,-0.19119,0.02014,-0.04669,-0.06592,-0.05508,-0.00931,0.02213,-0.00458,0.11154,-0.09659,-0.05478,-0.03357,0.00626,-0.02319
4.7825,0.01175,-0.08026,-0.18448,0.00656,-0.04318,-0.06485,-0.03983,-0.01373,-0.04532,-0.01068,0.1239,-0.08911,-0.05707,-0.03616,0.00763,-0.02304
4.783,0.01465,-0.0856,-0.17761,0.00854,-0.04211,-0.06561,-0.02609,-0.01556,-0.10132,-0.01251,0.14755,-0.07813,-0.05524,-0.0386,0.00931,-0.02472
4.7835,0.00717,-0.09491,-0.16525,0.01694,-0.03967,-0.06744,-0.01831,-0.01205,-0.13489,-0.0174,0.16434,-0.08453,-0.04639,-0.04196,0.01221,-0.02838
4.784,-0.01831,-0.10559,-0.13611,0.02136,-0.03525,-0.06683,-0.0145,-0.00565,-0.13916,-0.02411,0.13779,-0.11642,-0.03326,-0.04715,0.01709,-0.03296
4.7845,-0.05463,-0.10956,-0.08591,0.01816,-0.03189,-0.06424,-0.01297,-0.00076,-0.11902,-0.02289,0.05768,-0.15015,-0.02304,-0.05341,0.0235,-0.03937
4.785,-0.08133,-0.10513,-0.02594,0.01129,-0.03098,-0.06256,-0.0116,0.00122,-0.08377,-0.01556,-0.0444,-0.16235,-0.01648,-0.05768,0.0293,-0.04547
4.7855,-0.08133,-0.09567,0.02914,0.00778,-0.0325,-0.06027,-0.0087,0.00076,-0.04074,-0.01892,-0.12329,-0.159,-0.01282,-0.056,0.0325,-0.04898
4.786,-0.056,-0.08545,0.0647,0.01221,-0.03418,-0.05753,-0.00534,-0.00015,0.00397,-0.0354,-0.15671,-0.14084,-0.01389,-0.0502,0.03113,-0.04837
4.7865,-0.02777,-0.07538,0.07401,0.02563,-0.03265,-0.05478,-0.00214,-0.00107,0.04395,-0.05157,-0.14832,-0.09338,-0.01755,-0.04242,0.02823,-0.04608
4.787,-0.02151,-0.06516,0.0621,0.04196,-0.02869,-0.05264,-0.00107,-0.00244,0.06973,-0.05096,-0.11169,-0.02533,-0.01907,-0.03311,0.02487,-0.04517
4.7875,-0.0383,-0.05737,0.04013,0.0592,-0.0264,-0.05142,-0.0029,-0.00443,0.07156,-0.03403,-0.0676,0.03525,-0.01495,-0.02808,0.02045,-0.04608
4.788,-0.05463,-0.05249,0.02167,0.07889,-0.02487,-0.04944,-0.00488,-0.00732,0.04318,-0.01556,-0.03723,0.11414,-0.01266,-0.02777,0.01663,-0.04807
4.7885,-0.0502,-0.05081,0.01205,0.09644,-0.02029,-0.04456,-0.00534,-0.01038,-0.00656,-0.00046,-0.02716,0.26154,-0.01419,-0.0293,0.01175,-0.05051
4.789,-0.03067,-0.04807,0.00732,0.09506,-0.01328,-0.04013,-0.0032,-0.01099,-0.05417,0.00992,-0.02777,0.41306,-0.01953,-0.02777,0.0061,-0.05341
4.7895,-0.01419,-0.03983,0.00229,0.06348,-0.01022,-0.03815,0.00046,-0.00793,-0.08026,0.01907,-0.02762,0.41351,-0.02151,-0.02335,-0.00092,-0.05478
4.79,-0.01144,-0.02762,-0.00839,0.01846,-0.01328,-0.03876,0.0032,-0.00366,-0.08194,0.01892,-0.03677,0.24368,-0.01724,-0.01709,-0.00702,-0.0563
4.7905,-0.02045,-0.01556,-0.02167,-0.01648,-0.02106,-0.03815,0.00534,-0.00092,-0.0679,0.00931,-0.06393,0.07401,-0.00778,-0.01068,-0.01282,-0.05661
4.791,-0.0386,-0.00931,-0.03479,-0.05859,-0.02869,-0.03403,0.00519,-0.00015,-0.04318,-0.00076,-0.09277,0.03586,0.00031,-0.00229,-0.01389,-0.05554
4.7915,-0.06149,-0.0119,-0.05234,-0.16464,-0.03708,-0.03128,0.00275,0.0,-0.0119,-0.00259,-0.09735,0.06332,0.00153,0.00488,-0.00687,-0.05066
4.792,-0.07751,-0.02243,-0.09155,-0.32364,-0.0473,-0.03204,-0.00046,0.00092,0.01816,0.00412,-0.06973,0.01785,-0.00641,0.009,0.00671,-0.04272
4.7925,-0.07919,-0.0386,-0.16037,-0.41901,-0.05569,-0.03357,-0.00275,0.00107,0.03708,0.01266,-0.02716,-0.10239,-0.01755,0.01099,0.01862,-0.03677
4.793,-0.07278,-0.05463,-0.22675,-0.3624,-0.05753,-0.0325,-0.0029,0.00061,0.04074,0.01617,0.00671,-0.17975,-0.02792,0.01053,0.02106,-0.0351
4.7935,-0.06866,-0.06393,-0.24307,-0.21301,-0.05096,-0.02975,-0.00259,-0.00229,0.03067,0.00504,0.0293,-0.1561,-0.03479,0.0032,0.01831,-0.03632
4.794,-0.06012,-0.06607,-0.20157,-0.10742,-0.04288,-0.02945,-0.0029,-0.00488,0.00854,-0.01923,0.05768,-0.10315,-0.03998,-0.01205,0.01511,-0.03601
4.7945,-0.03189,-0.07202,-0.15213,-0.12283,-0.03784,-0.03189,-0.00305,-0.00397,-0.01648,-0.0415,0.09033,-0.10269,-0.04333,-0.02838,0.01648,-0.03098
4.795,0.01404,-0.08652,-0.13397,-0.20523,-0.03571,-0.03662,-0.00458,-0.00046,-0.03479,-0.05249,0.08713,-0.11032,-0.04028,-0.0383,0.02106,-0.02457
4.7955,0.05829,-0.09491,-0.12573,-0.18738,-0.03525,-0.04333,-0.00748,0.00443,-0.04501,-0.05325,0.01953,-0.02213,-0.0296,-0.04227,0.02197,-0.02151
4.796,0.08804,-0.0853,-0.08148,0.05402,-0.03464,-0.05096,-0.01114,0.00641,-0.05325,-0.0563,-0.08881,0.10376,-0.01602,-0.04242,0.01892,-0.02365
4.7965,0.10193,-0.0621,0.00702,0.39627,-0.03494,-0.05615,-0.01251,0.00656,-0.06531,-0.06332,-0.1738,0.065,-0.00687,-0.04211,0.0145,-0.02853
4.797,0.10391,-0.0383,0.10635,0.55283,-0.03723,-0.05905,-0.01236,0.00748,-0.07782,-0.06973,-0.18906,-0.15869,0.00046,-0.03799,0.01099,-0.03174
4.7975,0.09598,-0.02121,0.17853,0.41336,-0.03784,-0.06119,-0.01251,0.00961,-0.08118,-0.06882,-0.13351,-0.32043,0.00839,-0.03265,0.00641,-0.03387
4.798,0.08301,-0.00458,0.20782,0.16342,-0.03815,-0.06104,-0.01205,0.01129,-0.07034,-0.06073,-0.03952,-0.25375,0.01358,-0.02899,0.00183,-0.03769
4.7985,0.06851,0.0145,0.19485,0.01801,-0.0386,-0.05951,-0.01068,0.01099,-0.04684,-0.04791,0.05051,-0.06866,0.00534,-0.02777,-0.00046,-0.04318
4.799,0.05127,0.03601,0.14786,0.0,-0.04059,-0.05585,-0.00931,0.00931,-0.00977,-0.02914,0.11002,0.05264,-0.01633,-0.02518,-0.00076,-0.04623
4.7995,0.02762,0.0563,0.08652,0.01862,-0.04181,-0.05219,-0.0087,0.00809,0.04227,-0.00397,0.14053,0.08163,-0.04349,-0.02014,0.00198,-0.04501
4.8,0.00244,0.06851,0.03265,0.01907,-0.04044,-0.04852,-0.0087,0.009,0.10162,0.02991,0.15518,0.08087,-0.06989,-0.0148,0.00275,-0.04166
4.8005,-0.01633,0.07126,-0.00137,0.009,-0.03906,-0.04517,-0.00824,0.00946,0.14648,0.06897,0.16052,0.06256,-0.08987,-0.01114,0.00198,-0.04135
4.801,-0.02472,0.06195,-0.01846,0.00351,-0.03662,-0.04196,-0.00931,0.00717,0.15457,0.10727,0.15167,0.0206,-0.09995,-0.00656,0.00137,-0.04395
4.8015,-0.02731,0.04395,-0.03342,0.00107,-0.03403,-0.03891,-0.01297,0.00351,0.11917,0.1387,0.12283,-0.00992,-0.0975,-0.00107,0.00244,-0.04517
4.802,-0.03098,0.02396,-0.05402,0.00061,-0.03296,-0.03601,-0.01953,-0.00061,0.05554,0.15656,0.07858,0.00504,-0.0856,0.00412,0.00443,-0.04364
4.8025,-0.03723,0.00504,-0.08072,-0.00168,-0.03357,-0.03342,-0.02502,-0.00336,-0.00885,0.15732,0.02747,0.03845,-0.06989,0.00809,0.00534,-0.04349
4.803,-0.04257,-0.01236,-0.10529,-0.01007,-0.03464,-0.02808,-0.02594,-0.00122,-0.05829,0.14313,-0.01938,0.04974,-0.05432,0.00824,0.00549,-0.04501
4.8035,-0.0441,-0.02731,-0.12436,-0.02136,-0.03525,-0.02548,-0.02594,0.00351,-0.08347,0.11581,-0.05341,0.04242,-0.04364,0.00351,0.00565,-0.04745
4.804,-0.04547,-0.03784,-0.13641,-0.02396,-0.03555,-0.0322,-0.02899,0.00961,-0.0824,0.08362,-0.06622,0.04608,-0.0383,-0.00565,0.00748,-0.04807
4.8045,-0.05112,-0.04333,-0.13885,-0.01724,-0.03662,-0.04944,-0.03403,0.01144,-0.05951,0.05066,-0.05707,0.06927,-0.03723,-0.01465,0.00977,-0.04471
4.805,-0.06042,-0.0441,-0.12909,-0.00946,-0.03799,-0.0708,-0.03464,0.00977,-0.03494,0.02243,-0.03387,0.0882,-0.03632,-0.01755,0.009,-0.03906
4.8055,-0.06485,-0.04135,-0.10498,-0.01511,-0.04013,-0.08026,-0.02884,0.00732,-0.03098,-0.00565,-0.00961,0.08591,-0.03296,-0.01587,0.00702,-0.03601
4.806,-0.06058,-0.03677,-0.06668,-0.04395,-0.04211,-0.07141,-0.01694,0.00732,-0.0499,-0.03769,0.0119,0.05981,-0.03036,-0.01175,0.00702,-0.03815
4.8065,-0.0499,-0.03174,-0.02167,-0.09918,-0.04242,-0.056,-0.00763,0.00549,-0.07843,-0.07858,0.03311,0.00763,-0.03143,-0.01022,0.01022,-0.04227
4.807,-0.04028,-0.03174,0.01022,-0.15106,-0.03754,-0.04807,-0.0058,0.00153,-0.09933,-0.12512,0.05096,-0.07095,-0.03189,-0.01175,0.01221,-0.0441
4.8075,-0.03082,-0.03418,0.01175,-0.1535,-0.03128,-0.04898,-0.00992,-0.0029,-0.10574,-0.17242,0.06149,-0.14694,-0.02869,-0.01526,0.0116,-0.04318
4.808,-0.01541,-0.03754,-0.01465,-0.09186,-0.02808,-0.04822,-0.01312,-0.00732,-0.10101,-0.2092,0.06134,-0.16525,-0.0174,-0.01953,0.00809,-0.0412
4.8085,0.01511,-0.04074,-0.04456,-0.00412,-0.02579,-0.04181,-0.01419,-0.01099,-0.09064,-0.22522,0.05219,-0.1178,-0.00031,-0.02548,0.00748,-0.03952
4.809,0.06226,-0.04486,-0.05676,0.05569,-0.02594,-0.03448,-0.01633,-0.01617,-0.0798,-0.20981,0.0412,-0.06378,0.01587,-0.0296,0.00854,-0.04013
4.8095,0.11765,-0.04776,-0.05112,0.07156,-0.02747,-0.03021,-0.02029,-0.02045,-0.07126,-0.16449,0.03357,-0.04745,0.01617,-0.02777,0.01068,-0.04135
4.81,0.15884,-0.04837,-0.03906,0.06912,-0.0293,-0.03128,-0.02289,-0.01938,-0.065,-0.10101,0.01984,-0.04623,-0.00946,-0.02258,0.01022,-0.04303
4.8105,0.16113,-0.04562,-0.02411,0.06927,-0.03021,-0.03387,-0.02365,-0.01389,-0.05722,-0.03815,-0.01236,-0.02243,-0.05203,-0.02167,0.00854,-0.04578
4.811,0.13107,-0.04013,0.00107,0.06424,-0.0293,-0.03632,-0.0238,-0.00961,-0.0412,0.01083,-0.06165,0.01846,-0.08545,-0.02792,0.009,-0.04791
4.8115,0.10574,-0.03448,0.03845,0.04578,-0.02899,-0.03677,-0.02579,-0.00885,-0.01831,0.04562,-0.11063,0.04379,-0.09155,-0.04333,0.01129,-0.04623
4.812,0.11215,-0.0354,0.07187,0.03723,-0.03052,-0.03662,-0.02655,-0.00748,0.0116,0.07233,-0.13962,0.0412,-0.07935,-0.06226,0.01434,-0.04395
4.8125,0.1329,-0.04623,0.07523,0.0528,-0.0325,-0.03555,-0.02411,-0.00458,0.04318,0.09766,-0.13962,0.03143,-0.06714,-0.07309,0.0119,-0.04364
4.813,0.13306,-0.06393,0.04532,0.05112,-0.03418,-0.0325,-0.01999,-0.00198,0.06836,0.11948,-0.11642,0.03632,-0.06088,-0.06729,0.00595,-0.04562
4.8135,0.09933,-0.07813,-0.00031,-0.01617,-0.03708,-0.03113,-0.01846,-0.00061,0.0827,0.13214,-0.08255,0.05249,-0.05585,-0.05051,0.00107,-0.04745
4.814,0.03891,-0.08728,-0.04257,-0.11887,-0.03891,-0.0322,-0.01892,0.00015,0.09491,0.12863,-0.05219,0.05157,-0.0502,-0.03784,-0.00015,-0.04745
4.8145,-0.05096,-0.09842,-0.07416,-0.16129,-0.04028,-0.03265,-0.01785,0.00092,0.1149,0.10986,-0.03372,0.00656,-0.04974,-0.03387,-0.00076,-0.04547
4.815,-0.17227,-0.11932,-0.09628,-0.103,-0.04013,-0.03296,-0.01404,0.00137,0.14923,0.08469,-0.02365,-0.06958,-0.0502,-0.03021,0.0,-0.04318
4.8155,-0.27679,-0.14206,-0.11398,-0.00931,-0.04028,-0.03616,-0.00992,0.00122,0.19257,0.06104,-0.01785,-0.13245,-0.04471,-0.02121,0.00259,-0.0415
