time,RectFemL,VastusMedL,VastusLatL,TibAntL,HamMedL,HamLatL,GastroMedL,GastroLatL,RectFemR,VastusMedR,VastusLatR,TibAntR,HamMedR,HamLatR,GastroMedR,GastroLatR
6.91,0.00519,-0.0441,-0.03922,-0.09369,-0.02914,-0.0618,-0.01312,-0.01617,-0.02563,-0.02777,-0.0177,0.00427,-0.03052,-0.02411,0.01251,-0.01404
6.9105,0.0032,-0.04501,-0.03906,-0.07996,0.0032,-0.06042,-0.01266,-0.01343,-0.02502,-0.02701,-0.02045,0.0,-0.03143,-0.02533,-0.00031,-0.01923
6.911,-0.00046,-0.04669,-0.03983,-0.02884,0.02777,-0.06088,-0.0119,-0.01007,-0.02884,-0.02487,-0.02365,-0.00519,-0.03159,-0.02472,-0.03159,-0.04135
6.9115,-0.00381,-0.04532,-0.03983,0.0209,0.03952,-0.0618,-0.0116,-0.00839,-0.03525,-0.02472,-0.02731,-0.00885,-0.03143,-0.02365,-0.07294,-0.06607
6.912,-0.00748,-0.04425,-0.0383,0.01831,0.03967,-0.06241,-0.01099,-0.0087,-0.03799,-0.02762,-0.02975,-0.00916,-0.03052,-0.02075,-0.11032,-0.0766
6.9125,-0.01007,-0.04684,-0.03632,-0.02792,0.0296,-0.06271,-0.01129,-0.01038,-0.03387,-0.02853,-0.03128,-0.00549,-0.03174,-0.01785,-0.12711,-0.07065
6.913,-0.01129,-0.05341,-0.03433,-0.06348,0.01892,-0.06271,-0.01236,-0.01099,-0.02472,-0.03143,-0.0296,-0.00137,-0.03342,-0.01526,-0.12299,-0.06287
6.9135,-0.01053,-0.05875,-0.03357,-0.05676,0.01572,-0.06348,-0.01511,-0.00931,-0.01648,-0.03067,-0.02487,-0.00153,-0.03387,-0.01465,-0.1001,-0.06485
6.914,-0.00793,-0.05951,-0.03433,-0.04517,0.01968,-0.06378,-0.01648,-0.00717,-0.00931,-0.02945,-0.02365,-0.0061,-0.03281,-0.01678,-0.0528,-0.07034
6.9145,-0.00458,-0.05783,-0.03235,-0.07294,0.0235,-0.0618,-0.01587,-0.00595,-0.00473,-0.02625,-0.02533,-0.01236,-0.03128,-0.0177,0.02136,-0.0708
6.915,-0.00076,-0.05875,-0.02991,-0.12222,0.02457,-0.06042,-0.01434,-0.00473,-0.00031,-0.02365,-0.02914,-0.01907,-0.03143,-0.01633,0.09735,-0.06531
6.9155,0.00183,-0.06012,-0.02747,-0.13718,0.02014,-0.0592,-0.01389,-0.00305,0.00351,-0.02136,-0.03555,-0.03159,-0.0325,-0.01511,0.13077,-0.06699
6.916,0.00443,-0.06027,-0.02777,-0.10147,0.01404,-0.05722,-0.01633,-0.00107,0.0058,-0.01984,-0.05234,-0.05112,-0.0325,-0.01526,0.10086,-0.08072
6.9165,0.00473,-0.05615,-0.02899,-0.04898,0.00381,-0.05447,-0.01984,0.00015,0.0058,-0.01862,-0.07813,-0.0679,-0.03326,-0.01755,0.03647,-0.09567
6.917,0.00366,-0.05066,-0.02991,-0.01419,-0.0029,-0.0531,-0.02197,0.0,0.0029,-0.01511,-0.09445,-0.08331,-0.03235,-0.01846,-0.01465,-0.10345
6.9175,0.0,-0.04715,-0.02991,0.00183,-0.00183,-0.05417,-0.02167,-0.00107,0.0,-0.01114,-0.08377,-0.15747,-0.03174,-0.01862,-0.03403,-0.10071
6.918,-0.00259,-0.04623,-0.0296,0.00992,-0.00153,-0.05493,-0.02045,-0.00076,-0.00168,-0.00595,-0.05325,-0.43304,-0.03082,-0.01846,-0.03067,-0.0795
6.9185,-0.00412,-0.04608,-0.02975,0.01328,-0.01511,-0.056,-0.01984,0.0,-0.00381,-0.00351,-0.02213,-0.98419,-0.03006,-0.01938,-0.01968,-0.04044
6.919,-0.00305,-0.04578,-0.02777,-0.00061,-0.04761,-0.05692,-0.02029,0.00092,-0.00519,-0.00381,-0.0061,-1.58356,-0.03113,-0.02014,-0.00809,-0.00748
6.9195,-0.00183,-0.04379,-0.02731,-0.05371,-0.08591,-0.05768,-0.01984,0.00153,-0.00763,-0.00839,-0.01541,-1.82449,-0.03128,-0.02045,0.00031,0.00122
6.92,-0.00198,-0.03754,-0.02655,-0.14725,-0.11536,-0.05859,-0.01724,0.00137,-0.01022,-0.01312,-0.04578,-1.58463,-0.03067,-0.01862,0.00153,-0.00397
6.9205,-0.00153,-0.02731,-0.02808,-0.23911,-0.13321,-0.05905,-0.01465,0.00259,-0.01404,-0.01465,-0.07126,-1.1644,-0.03174,-0.01801,0.00107,-0.00992
6.921,0.00046,-0.01724,-0.02991,-0.26047,-0.14725,-0.05661,-0.0148,0.00473,-0.01709,-0.0145,-0.06195,-0.88348,-0.03326,-0.01709,0.01297,-0.02335
6.9215,0.00473,-0.01328,-0.0296,-0.1918,-0.15472,-0.04852,-0.01572,0.00809,-0.01694,-0.01709,-0.02228,-0.75912,-0.03342,-0.01663,0.03586,-0.03967
6.922,0.00946,-0.01556,-0.02518,-0.08774,-0.14526,-0.03708,-0.01572,0.009,-0.01633,-0.01816,0.01968,-0.65018,-0.0325,-0.01617,0.05371,-0.03983
6.9225,0.0116,-0.02182,-0.02335,-0.01556,-0.11703,-0.0264,-0.01312,0.00916,-0.01556,-0.01892,0.0412,-0.50461,-0.03128,-0.01724,0.05524,-0.02457
6.923,0.00977,-0.02731,-0.02579,0.01389,-0.08636,-0.01846,-0.01221,0.00763,-0.01556,-0.01953,0.047,-0.36545,-0.03204,-0.0174,0.0444,-0.01907
6.9235,0.00381,-0.03189,-0.03296,0.02533,-0.06561,-0.0145,-0.01297,0.00687,-0.01587,-0.02228,0.047,-0.26047,-0.03387,-0.0174,0.02914,-0.03784
6.924,-0.00168,-0.03525,-0.04181,0.02625,-0.05508,-0.01266,-0.01434,0.00687,-0.01633,-0.02609,0.0441,-0.1738,-0.03464,-0.01709,0.00931,-0.06668
6.9245,-0.0032,-0.03937,-0.04822,0.00916,-0.04837,-0.00793,-0.01419,0.00763,-0.01556,-0.03235,0.03754,-0.09018,-0.03357,-0.01816,-0.00092,-0.08759
6.925,-0.00229,-0.04639,-0.05066,-0.01266,-0.04562,-0.00198,-0.01221,0.00763,-0.01511,-0.03983,0.03036,-0.01068,-0.03098,-0.01923,0.01038,-0.09445
6.9255,-0.00198,-0.05585,-0.04669,-0.01038,-0.04593,0.00259,-0.01129,0.00824,-0.01556,-0.04196,0.02457,0.06256,-0.02899,-0.01968,0.03937,-0.08499
6.926,-0.0029,-0.06638,-0.03876,0.0264,-0.04105,0.00549,-0.0119,0.00854,-0.01648,-0.04074,0.02029,0.13168,-0.02975,-0.01999,0.06088,-0.06317
6.9265,-0.00244,-0.07584,-0.03616,0.06775,-0.02563,0.009,-0.01175,0.00778,-0.01648,-0.03998,0.0209,0.19424,-0.03174,-0.01999,0.05753,-0.0415
6.927,-0.00183,-0.08224,-0.04593,0.07721,-0.00153,0.01251,-0.01175,0.00519,-0.0145,-0.04364,0.02655,0.24689,-0.03342,-0.01938,0.04471,-0.0293
6.9275,-0.00183,-0.08453,-0.06653,0.04745,0.01648,0.01724,-0.01236,0.0032,-0.01419,-0.05417,0.03311,0.2919,-0.03326,-0.01785,0.04272,-0.01907
6.928,-0.00229,-0.0827,-0.08896,0.00198,0.02167,0.02365,-0.01434,0.00412,-0.0148,-0.06165,0.03174,0.33157,-0.03372,-0.01816,0.05096,0.00015
6.9285,-0.00366,-0.07996,-0.10605,-0.04669,0.01785,0.02716,-0.01709,0.00702,-0.01678,-0.06058,0.02029,0.36301,-0.03464,-0.01862,0.05386,0.01968
6.929,-0.00519,-0.07751,-0.1123,-0.10559,0.0174,0.02701,-0.01556,0.00732,-0.01724,-0.05096,0.0032,0.38681,-0.03632,-0.01999,0.04761,0.0174
6.9295,-0.00626,-0.07202,-0.10849,-0.16479,0.02441,0.02502,-0.01389,0.00473,-0.01678,-0.04044,-0.00946,0.41199,-0.03601,-0.02029,0.04196,-0.00732
6.93,-0.00519,-0.06317,-0.09003,-0.18768,0.03677,0.02563,-0.01404,0.00183,-0.01755,-0.02808,-0.0145,0.44388,-0.03586,-0.01923,0.04547,-0.03738
6.9305,-0.00198,-0.05569,-0.05844,-0.15076,0.04272,0.02808,-0.01495,-0.00214,-0.0206,-0.01312,-0.01266,0.47668,-0.03616,-0.01968,0.05432,-0.05157
6.931,0.00198,-0.05249,-0.02258,-0.07736,0.03876,0.03052,-0.0145,-0.00519,-0.02304,0.00214,-0.00824,0.49805,-0.03555,-0.02136,0.06302,-0.0502
6.9315,0.00488,-0.05188,0.00473,-0.00687,0.03403,0.03281,-0.01297,-0.00748,-0.02457,0.01297,-0.0058,0.50552,-0.03479,-0.02304,0.065,-0.047
6.932,0.00641,-0.05005,0.0177,0.04517,0.03937,0.03738,-0.01251,-0.00671,-0.02441,0.01877,-0.00854,0.50552,-0.03357,-0.02365,0.05966,-0.05173
6.9325,0.00656,-0.04852,0.02167,0.07996,0.04883,0.0415,-0.01236,-0.00488,-0.02411,0.02258,-0.0145,0.49988,-0.03311,-0.02365,0.05035,-0.05783
6.933,0.00656,-0.0499,0.02029,0.09186,0.04959,0.04471,-0.01144,-0.00366,-0.02441,0.02762,-0.02075,0.49011,-0.03174,-0.02213,0.04257,-0.04456
6.9335,0.00381,-0.05112,0.0148,0.06866,0.0383,0.04456,-0.01251,-0.00443,-0.0238,0.02975,-0.0264,0.48248,-0.02975,-0.01923,0.03326,0.00229
6.934,0.00107,-0.04852,0.00519,0.01495,0.02319,0.04211,-0.01389,-0.00092,-0.0235,0.02686,-0.03098,0.48294,-0.02914,-0.01587,0.01205,0.05707
6.9345,-0.00092,-0.04044,-0.0058,-0.05661,0.0116,0.04089,-0.01526,0.01007,-0.02258,0.02045,-0.03448,0.48874,-0.02884,-0.01389,-0.02975,0.06577
6.935,-0.00076,-0.03036,-0.01465,-0.13412,0.0032,0.0412,-0.01572,0.02518,-0.02213,0.01678,-0.03494,0.49271,-0.0293,-0.01465,-0.08011,0.01541
6.9355,0.00046,-0.02121,-0.02045,-0.1976,-0.00671,0.04471,-0.01602,0.03525,-0.01984,0.01755,-0.03342,0.49072,-0.02914,-0.01663,-0.11169,-0.04776
6.936,0.00046,-0.01556,-0.02289,-0.20309,-0.02243,0.04562,-0.01633,0.0322,-0.01556,0.0174,-0.0322,0.48508,-0.02899,-0.01816,-0.11703,-0.07492
6.9365,0.0,-0.01495,-0.02426,-0.11856,-0.03906,0.04303,-0.01678,0.01999,-0.01083,0.01465,-0.0354,0.4776,-0.03006,-0.01831,-0.10483,-0.06927
6.937,0.00061,-0.01907,-0.02701,0.0264,-0.05234,0.03647,-0.01633,0.00763,-0.00626,0.00748,-0.04364,0.4715,-0.03098,-0.01709,-0.08606,-0.05386
6.9375,0.00275,-0.02441,-0.03128,0.15244,-0.0676,0.03113,-0.01572,0.00153,-0.0032,-0.00046,-0.05234,0.46417,-0.03067,-0.01709,-0.07629,-0.03952
6.938,0.00717,-0.02777,-0.03235,0.19669,-0.09842,0.02869,-0.01511,0.00168,0.00076,-0.00824,-0.05478,0.4538,-0.03021,-0.0174,-0.08438,-0.02701
6.9385,0.01144,-0.02823,-0.03082,0.16357,-0.1445,0.0267,-0.01328,0.00397,0.00473,-0.01419,-0.04959,0.43839,-0.03021,-0.01785,-0.09659,-0.02182
6.939,0.01389,-0.02975,-0.03036,0.10788,-0.17563,0.02457,-0.01266,0.00443,0.00748,-0.01862,-0.03952,0.41962,-0.03189,-0.01678,-0.06607,-0.02396
6.9395,0.01434,-0.0322,-0.03265,0.07751,-0.16937,0.02365,-0.01221,0.00381,0.00854,-0.02243,-0.03128,0.40283,-0.03235,-0.01633,0.02151,-0.03067
6.94,0.01175,-0.03479,-0.03891,0.07858,-0.13351,0.02609,-0.01282,0.00473,0.0087,-0.03174,-0.02686,0.38879,-0.03098,-0.01709,0.12009,-0.03845
6.9405,0.00946,-0.03525,-0.04272,0.1001,-0.10223,0.03143,-0.01251,0.00626,0.00961,-0.04807,-0.02792,0.37643,-0.02975,-0.01724,0.16052,-0.04486
6.941,0.00732,-0.03326,-0.04456,0.13474,-0.09155,0.03494,-0.01068,0.00763,0.01297,-0.06439,-0.0293,0.36697,-0.03036,-0.01724,0.13504,-0.04654
6.9415,0.00519,-0.03098,-0.04349,0.1709,-0.08743,0.03342,-0.00961,0.00717,0.01617,-0.07278,-0.02548,0.35828,-0.03174,-0.01678,0.08209,-0.04227
6.942,0.00107,-0.03082,-0.04242,0.18555,-0.07523,0.0264,-0.01114,0.00336,0.01465,-0.06912,-0.01358,0.34653,-0.03174,-0.01724,0.0386,-0.03723
6.9425,-0.00381,-0.03204,-0.04196,0.17456,-0.05417,0.02014,-0.01389,-0.00061,0.009,-0.05844,0.00549,0.32669,-0.03052,-0.01938,0.01419,-0.03754
6.943,-0.00793,-0.03296,-0.03876,0.1564,-0.03464,0.01877,-0.01419,-0.0029,-0.00092,-0.04852,0.02228,0.30167,-0.0293,-0.02136,0.00305,-0.04517
6.9435,-0.01144,-0.03235,-0.03525,0.15259,-0.02304,0.01984,-0.01266,-0.00076,-0.01068,-0.03387,0.02701,0.27863,-0.03082,-0.02151,0.00275,-0.05356
6.944,-0.0148,-0.0322,-0.03525,0.16388,-0.02213,0.01648,-0.00916,0.00259,-0.0206,-0.01816,0.01633,0.26321,-0.03326,-0.01923,0.00107,-0.06027
6.9445,-0.01862,-0.03326,-0.03525,0.17654,-0.0293,0.01038,-0.00793,0.00626,-0.02945,-0.0032,-0.0032,0.25253,-0.03464,-0.01495,-0.00748,-0.06546
6.945,-0.02182,-0.0351,-0.03494,0.17075,-0.0412,0.00412,-0.00977,0.00626,-0.03845,0.00824,-0.01907,0.24078,-0.03326,-0.01175,-0.02228,-0.06836
6.9455,-0.02182,-0.03754,-0.03235,0.12741,-0.04745,0.00244,-0.0116,0.00305,-0.04303,0.01602,-0.02502,0.22614,-0.03418,-0.01251,-0.03387,-0.06668
6.946,-0.0206,-0.03876,-0.03098,0.03601,-0.03815,0.00381,-0.01389,0.00183,-0.04654,0.02075,-0.02319,0.21118,-0.03555,-0.01495,-0.03586,-0.05875
6.9465,-0.01968,-0.0386,-0.0322,-0.07889,-0.0174,0.00458,-0.01572,0.0,-0.05341,0.01968,-0.01617,0.19791,-0.03693,-0.01755,-0.03357,-0.04715
6.947,-0.01892,-0.03525,-0.03525,-0.16388,0.00565,0.00427,-0.01663,-0.00885,-0.06821,0.01663,-0.00595,0.18372,-0.03677,-0.02014,-0.03174,-0.03876
6.9475,-0.01617,-0.0293,-0.03815,-0.1918,0.02518,0.00458,-0.01785,-0.02625,-0.08774,0.00717,0.00198,0.16907,-0.03586,-0.02472,-0.03464,-0.03906
6.948,-0.01205,-0.02258,-0.04074,-0.18494,0.04379,0.00504,-0.01892,-0.03952,-0.10147,-0.00366,-0.00031,0.15472,-0.03571,-0.02869,-0.0296,-0.04974
6.9485,-0.0087,-0.0174,-0.03952,-0.16998,0.05951,0.0032,-0.01892,-0.02731,-0.10422,-0.01343,-0.01419,0.14145,-0.03708,-0.02975,0.00916,-0.06424
6.949,-0.00732,-0.01648,-0.03693,-0.13916,0.06927,0.00198,-0.01816,0.01282,-0.08972,-0.01984,-0.02838,0.12848,-0.03754,-0.0267,0.08377,-0.07462
6.9495,-0.00702,-0.01846,-0.03418,-0.06805,0.06378,0.00259,-0.01572,0.05554,-0.05539,-0.02335,-0.0322,0.11459,-0.03601,-0.02182,0.1561,-0.08011
6.95,-0.00443,-0.02121,-0.03296,0.0383,0.04623,0.00458,-0.01419,0.06927,-0.00534,-0.02625,-0.02808,0.10193,-0.03418,-0.01892,0.16937,-0.08286
6.9505,-0.00229,-0.02609,-0.03265,0.12817,0.0209,0.00351,-0.0145,0.05066,0.04318,-0.02777,-0.02518,0.08789,-0.03357,-0.0174,0.11429,-0.08209
6.951,-0.00229,-0.03281,-0.03311,0.14984,-0.01099,-0.00076,-0.01526,0.01709,0.06851,-0.0238,-0.0264,0.07355,-0.03281,-0.0148,0.04593,-0.07736
6.9515,-0.00275,-0.0383,-0.03281,0.09567,-0.04791,-0.00549,-0.01343,-0.01953,0.06271,-0.02197,-0.02563,0.06027,-0.03265,-0.01022,0.00992,-0.0737
6.952,-0.00168,-0.04074,-0.02914,0.01465,-0.08286,-0.01038,-0.01114,-0.06378,0.04196,-0.02243,-0.02029,0.05066,-0.03326,-0.00397,0.01282,-0.07721
6.9525,0.00031,-0.04089,-0.02686,-0.03525,-0.11383,-0.01373,-0.01068,-0.09735,0.01862,-0.02533,-0.01297,0.04272,-0.0325,0.00031,0.0238,-0.08514
6.953,0.00137,-0.03754,-0.02579,-0.03006,-0.14236,-0.01541,-0.01266,-0.07858,-0.00198,-0.02655,-0.00748,0.03464,-0.03174,0.00015,0.02426,-0.08942
6.9535,0.00107,-0.03235,-0.0238,0.01038,-0.16693,-0.01541,-0.01511,-0.00153,-0.01953,-0.02808,-0.0061,0.02258,-0.03113,-0.00641,0.01877,-0.09018
6.954,0.00076,-0.02686,-0.01968,0.04395,-0.17105,-0.01663,-0.01724,0.0708,-0.03021,-0.02518,-0.00732,0.00824,-0.03174,-0.01419,0.01541,-0.09247
6.9545,-0.00046,-0.02457,-0.01709,0.04501,-0.14297,-0.01831,-0.01877,0.07355,-0.03204,-0.02274,-0.00839,-0.00336,-0.03296,-0.02014,0.0116,-0.10345
6.955,-0.00366,-0.02701,-0.02014,0.01404,-0.09171,-0.01709,-0.02106,0.01892,-0.02853,-0.01999,-0.01129,-0.01129,-0.03418,-0.02487,-0.00183,-0.11093
6.9555,-0.00824,-0.03265,-0.02533,-0.02945,-0.04318,-0.01648,-0.02182,-0.0325,-0.0238,-0.01755,-0.01389,-0.01358,-0.03387,-0.03082,-0.0235,-0.09933
6.956,-0.01114,-0.03967,-0.02899,-0.06775,-0.01511,-0.01724,-0.02228,-0.04852,-0.02228,-0.01633,-0.01556,-0.01465,-0.03326,-0.03769,-0.0386,-0.06912
6.9565,-0.01053,-0.04608,-0.03113,-0.0946,-0.00839,-0.01968,-0.02213,-0.04807,-0.02167,-0.01541,-0.01617,-0.01709,-0.03296,-0.0412,-0.03677,-0.03708
6.957,-0.00992,-0.05081,-0.03159,-0.1178,-0.01282,-0.0206,-0.02335,-0.05096,-0.02274,-0.01511,-0.01572,-0.02396,-0.03311,-0.03769,-0.02808,-0.02151
6.9575,-0.01282,-0.05325,-0.0322,-0.15076,-0.01404,-0.02151,-0.02304,-0.05157,-0.02563,-0.01465,-0.01556,-0.0325,-0.03235,-0.03159,-0.02151,-0.02792
6.958,-0.01678,-0.05386,-0.03387,-0.1947,-0.00824,-0.02228,-0.02258,-0.0383,-0.0293,-0.01556,-0.01556,-0.03967,-0.03265,-0.02716,-0.01862,-0.04196
6.9585,-0.01938,-0.05463,-0.03891,-0.233,0.00259,-0.0235,-0.01999,-0.01251,-0.03204,-0.0177,-0.01556,-0.04456,-0.03311,-0.02579,-0.01709,-0.03784
6.959,-0.01724,-0.05692,-0.04623,-0.22766,0.0061,-0.0235,-0.01755,0.00946,-0.03357,-0.01984,-0.01541,-0.04929,-0.0325,-0.02457,-0.01373,-0.01236
6.9595,-0.01297,-0.05875,-0.05112,-0.14786,-0.0029,-0.02426,-0.01495,0.01617,-0.03235,-0.0209,-0.01465,-0.05737,-0.03128,-0.02289,-0.01129,0.01373
6.96,-0.00656,-0.05905,-0.05447,-0.02243,-0.01755,-0.02731,-0.01465,0.00488,-0.02869,-0.02075,-0.01511,-0.06531,-0.03235,-0.01999,-0.01068,0.02563
6.9605,0.00153,-0.05905,-0.05447,0.06134,-0.02609,-0.03159,-0.01541,-0.01617,-0.02502,-0.0206,-0.01404,-0.07019,-0.03494,-0.01678,-0.01038,0.03143
6.961,0.00916,-0.05905,-0.05341,0.04547,-0.03067,-0.03326,-0.01556,-0.03174,-0.01892,-0.02182,-0.01297,-0.07141,-0.03418,-0.01511,-0.01053,0.04059
6.9615,0.01266,-0.05905,-0.05295,-0.02167,-0.04089,-0.03494,-0.01465,-0.03128,-0.00946,-0.02304,-0.01144,-0.07172,-0.03159,-0.01465,-0.00977,0.0386
6.962,0.01389,-0.05859,-0.05112,-0.0563,-0.06302,-0.03723,-0.0119,-0.01877,0.00259,-0.0209,-0.0087,-0.07431,-0.02884,-0.0148,-0.01556,0.01175
6.9625,0.01373,-0.05692,-0.047,-0.04471,-0.09521,-0.04105,-0.01053,-0.00763,0.01328,-0.01831,-0.00687,-0.0798,-0.02853,-0.01526,-0.02441,-0.02609
6.963,0.01282,-0.0528,-0.04089,-0.03387,-0.12497,-0.04349,-0.01221,-0.00534,0.0206,-0.01801,-0.00763,-0.08499,-0.02975,-0.01587,-0.03098,-0.04669
6.9635,0.01099,-0.04913,-0.03906,-0.04395,-0.14252,-0.04211,-0.01724,-0.01373,0.02426,-0.01755,-0.01083,-0.08636,-0.03052,-0.01755,-0.02533,-0.03906
6.964,0.00549,-0.04791,-0.04074,-0.05219,-0.13489,-0.04242,-0.02243,-0.02625,0.0238,-0.01999,-0.01495,-0.08392,-0.02991,-0.01801,-0.01328,-0.01389
6.9645,-0.00046,-0.04776,-0.04089,-0.04486,-0.10468,-0.04608,-0.02609,-0.03662,0.01877,-0.02274,-0.01862,-0.08011,-0.03021,-0.01816,0.00031,0.00992
6.965,-0.00549,-0.04517,-0.04028,-0.0351,-0.06271,-0.05081,-0.0238,-0.04227,0.00992,-0.02441,-0.02182,-0.0795,-0.03204,-0.0177,0.00824,0.0148
6.9655,0.00137,-0.04135,-0.03998,-0.04013,-0.02762,-0.05142,-0.01907,-0.04837,0.00229,-0.0267,-0.02335,-0.08469,-0.03433,-0.0177,0.00519,-0.00504
6.966,0.03098,-0.03937,-0.03647,-0.06073,-0.009,-0.05402,-0.01404,-0.065,-0.00443,-0.02762,-0.02106,-0.08972,-0.03464,-0.01907,-0.00366,-0.03586
6.9665,0.07568,-0.03906,-0.02731,-0.08575,-0.00504,-0.05524,-0.01358,-0.09048,-0.01312,-0.02487,-0.01984,-0.09216,-0.03464,-0.02014,-0.0119,-0.05737
6.967,0.0914,-0.04013,-0.01099,-0.10849,-0.0061,-0.06104,-0.01678,-0.09949,-0.02579,-0.02243,-0.02289,-0.09262,-0.0354,-0.02197,-0.01465,-0.06561
6.9675,0.04517,-0.03998,0.00549,-0.12619,-0.00168,-0.06653,-0.01953,-0.06638,-0.03571,-0.0209,-0.02548,-0.09521,-0.03586,-0.02197,-0.01434,-0.06638
6.968,-0.0386,-0.0383,0.00717,-0.13885,0.00824,-0.06927,-0.02121,-0.00076,-0.04044,-0.02167,-0.02579,-0.09705,-0.0354,-0.01923,-0.01572,-0.06729
6.9685,-0.10391,-0.03967,-0.00366,-0.14374,0.01953,-0.0705,-0.02167,0.0502,-0.03952,-0.02289,-0.02441,-0.09521,-0.03372,-0.01755,-0.01678,-0.06882
6.969,-0.12207,-0.04395,-0.02121,-0.13901,0.02762,-0.0705,-0.02197,0.05493,-0.03769,-0.02533,-0.02304,-0.09216,-0.03174,-0.0174,-0.01328,-0.06958
6.9695,-0.1088,-0.05112,-0.03937,-0.12146,0.03036,-0.06958,-0.02029,0.03021,-0.03464,-0.02533,-0.01968,-0.09201,-0.03067,-0.01846,-0.0058,-0.06805
6.97,-0.08743,-0.0589,-0.05386,-0.08728,0.02487,-0.0647,-0.01465,0.01312,-0.03006,-0.02594,-0.01663,-0.09308,-0.03174,-0.01862,0.01266,-0.06241
6.9705,-0.07034,-0.06302,-0.06424,-0.04227,0.01205,-0.05753,-0.00885,0.01541,-0.02304,-0.02762,-0.01556,-0.09293,-0.03174,-0.01709,0.03952,-0.0563
6.971,-0.05936,-0.05875,-0.06821,-0.00809,-0.00229,-0.05264,-0.00519,0.02121,-0.01175,-0.02808,-0.01816,-0.09232,-0.0325,-0.01511,0.06088,-0.0528
6.9715,-0.05173,-0.04837,-0.06607,0.00519,-0.01053,-0.05127,-0.0058,0.00809,0.00229,-0.02686,-0.02335,-0.09384,-0.03235,-0.01297,0.06119,-0.05371
6.972,-0.04349,-0.03815,-0.06104,0.01022,-0.00946,-0.05417,-0.00885,-0.01953,0.01526,-0.02167,-0.03845,-0.0972,-0.03204,-0.01205,0.04166,-0.05524
6.9725,-0.03204,-0.03342,-0.05371,0.00198,0.00061,-0.05859,-0.01022,-0.02625,0.02045,-0.01709,-0.06607,-0.09918,-0.03143,-0.01205,0.0209,-0.05173
6.973,-0.02029,-0.03387,-0.04547,-0.04211,0.01236,-0.06027,-0.00931,0.01328,0.01602,-0.01495,-0.08636,-0.09796,-0.03143,-0.01205,0.01404,-0.04425
6.9735,-0.01389,-0.03662,-0.03525,-0.10239,0.01495,-0.06058,-0.00702,0.07721,0.00702,-0.01434,-0.07568,-0.0946,-0.0325,-0.01175,0.01694,-0.03922
6.974,-0.0148,-0.03998,-0.0296,-0.10956,-0.00244,-0.06424,-0.00748,0.11902,0.00015,-0.01404,-0.0351,-0.09186,-0.03418,-0.0119,0.01984,-0.03769
6.9745,-0.01907,-0.04349,-0.03006,-0.03265,-0.03586,-0.06836,-0.00977,0.11505,-0.00259,-0.0148,0.01053,-0.09094,-0.0351,-0.01419,0.0174,-0.03922
6.975,-0.01907,-0.04456,-0.0351,0.08331,-0.06683,-0.07309,-0.01282,0.08163,-0.00504,-0.01602,0.03906,-0.09018,-0.03479,-0.01709,0.01602,-0.03952
6.9755,-0.0116,-0.04517,-0.04181,0.18356,-0.07095,-0.07523,-0.01343,0.04898,-0.00854,-0.01678,0.04852,-0.08865,-0.03448,-0.01923,0.01678,-0.04272
6.976,-0.0029,-0.04272,-0.04425,0.26413,-0.04456,-0.07187,-0.01053,0.03174,-0.0119,-0.01648,0.04776,-0.08667,-0.03448,-0.01984,0.01617,-0.04654
6.9765,0.00031,-0.0386,-0.04196,0.34134,-0.00763,-0.06592,-0.00656,0.02182,-0.01251,-0.01587,0.04211,-0.08377,-0.03616,-0.02228,0.01175,-0.05005
6.977,-0.00076,-0.03357,-0.03891,0.38681,0.02136,-0.06058,-0.00671,0.01328,-0.01404,-0.01465,0.03433,-0.08072,-0.03632,-0.02487,0.00961,-0.04913
6.9775,-0.00137,-0.03067,-0.0383,0.32913,0.03815,-0.05768,-0.01068,0.00458,-0.01953,-0.01648,0.02823,-0.0798,-0.0351,-0.02686,0.01007,-0.04547
6.978,0.00259,-0.03174,-0.03876,0.14252,0.04807,-0.05829,-0.01526,-0.00275,-0.02716,-0.02136,0.02396,-0.08102,-0.03357,-0.02731,0.00946,-0.04303
6.9785,0.01038,-0.03235,-0.03479,-0.08881,0.06088,-0.0621,-0.01663,-0.00687,-0.03174,-0.02518,0.01999,-0.08133,-0.0325,-0.0264,0.00824,-0.04318
6.979,0.01831,-0.03067,-0.02579,-0.22568,0.06775,-0.06165,-0.01404,-0.00717,-0.03372,-0.02579,0.01221,-0.08041,-0.03296,-0.02716,0.00717,-0.04288
6.9795,0.02411,-0.02899,-0.01663,-0.20386,0.0563,-0.06439,-0.01083,-0.00443,-0.03265,-0.02518,-0.00061,-0.07797,-0.03265,-0.02701,0.00702,-0.03967
6.98,0.02426,-0.03326,-0.01831,-0.07736,0.01617,-0.06821,-0.00854,-0.00275,-0.02838,-0.0238,-0.01648,-0.07462,-0.03189,-0.02441,0.00687,-0.03494
6.9805,0.01938,-0.04593,-0.03174,0.05081,-0.03189,-0.07095,-0.00778,-0.00473,-0.02075,-0.02518,-0.02899,-0.0705,-0.03189,-0.02075,0.00748,-0.03098
6.981,0.01358,-0.06332,-0.05127,0.11673,-0.06058,-0.07248,-0.0087,-0.009,-0.01511,-0.02457,-0.0351,-0.06821,-0.03174,-0.01831,0.00565,-0.03098
6.9815,0.01099,-0.07507,-0.06424,0.12024,-0.06241,-0.07446,-0.01053,-0.01221,-0.01511,-0.02762,-0.03601,-0.06714,-0.03021,-0.01846,0.00305,-0.03479
6.982,0.01175,-0.0737,-0.06989,0.08865,-0.05295,-0.0737,-0.01312,-0.01648,-0.02243,-0.02731,-0.03555,-0.06729,-0.02853,-0.01984,0.0029,-0.04013
6.9825,0.01221,-0.06042,-0.06866,0.04028,-0.04288,-0.07294,-0.01633,-0.02365,-0.03204,-0.0264,-0.03555,-0.06607,-0.02823,-0.02136,0.00458,-0.04242
6.983,0.00671,-0.04822,-0.06012,-0.0148,-0.03906,-0.0705,-0.02029,-0.03372,-0.03891,-0.02701,-0.03876,-0.06378,-0.03036,-0.02243,0.00732,-0.04135
6.9835,-0.00076,-0.03983,-0.04608,-0.0589,-0.05402,-0.06836,-0.02441,-0.04532,-0.04059,-0.02563,-0.04181,-0.0621,-0.03265,-0.02258,0.01022,-0.03662
6.984,-0.00656,-0.03128,-0.03128,-0.07034,-0.08957,-0.06805,-0.02487,-0.05096,-0.03876,-0.02197,-0.03922,-0.05936,-0.03204,-0.02335,0.01404,-0.03113
6.9845,-0.00916,-0.01877,-0.02106,-0.04456,-0.11993,-0.07599,-0.02029,-0.04776,-0.03754,-0.02029,-0.02869,-0.05585,-0.03067,-0.02502,0.0177,-0.0296
6.985,-0.01022,-0.00824,-0.01495,-0.00137,-0.11368,-0.08682,-0.01373,-0.03906,-0.03845,-0.01709,-0.01495,-0.05264,-0.03006,-0.02563,0.02121,-0.03403
6.9855,-0.01129,-0.00397,-0.0119,0.03342,-0.07034,-0.09399,-0.00702,-0.03113,-0.03998,-0.0148,-0.00244,-0.05127,-0.03052,-0.02304,0.02502,-0.04089
6.986,-0.01282,-0.0032,-0.01266,0.04227,-0.02594,-0.08987,-0.00153,-0.02594,-0.0383,-0.01129,0.00366,-0.05127,-0.03036,-0.01938,0.03021,-0.04379
6.9865,-0.01648,-0.00366,-0.01572,0.02975,-0.01373,-0.07446,-0.00092,-0.02197,-0.03387,-0.00626,0.00488,-0.04959,-0.03143,-0.01678,0.03601,-0.04333
6.987,-0.02304,-0.0061,-0.0177,0.00153,-0.02899,-0.05524,-0.0061,-0.01999,-0.03067,-0.00504,0.00229,-0.04547,-0.03387,-0.01678,0.0383,-0.0415
6.9875,-0.02762,-0.01419,-0.01846,-0.03967,-0.05051,-0.04135,-0.01587,-0.01862,-0.02899,-0.00565,-0.00412,-0.04105,-0.0351,-0.01724,0.03754,-0.04196
6.988,-0.02548,-0.02579,-0.02243,-0.08911,-0.06088,-0.03387,-0.02151,-0.01984,-0.02823,-0.00839,-0.01007,-0.03799,-0.03418,-0.01755,0.02945,-0.04379
6.9885,-0.01755,-0.03601,-0.0296,-0.13947,-0.0531,-0.03326,-0.01678,-0.0209,-0.02594,-0.01053,-0.01175,-0.0386,-0.0325,-0.01785,0.01953,-0.04379
6.989,-0.0058,-0.04364,-0.03448,-0.18066,-0.03143,-0.03998,-0.00854,-0.02014,-0.02197,-0.00839,-0.01251,-0.04257,-0.03296,-0.01846,0.01007,-0.0412
6.9895,0.00549,-0.04669,-0.03342,-0.19806,-0.00641,-0.04898,-0.00549,-0.01495,-0.01404,-0.00824,-0.01389,-0.04364,-0.03387,-0.01923,0.00153,-0.03464
6.99,0.01511,-0.04807,-0.03555,-0.17487,0.01648,-0.05936,-0.00809,-0.00656,-0.00305,-0.00824,-0.01663,-0.04013,-0.03342,-0.01938,-0.01129,-0.03006
6.9905,0.02136,-0.05051,-0.06531,-0.1181,0.03403,-0.07355,-0.01068,0.00092,0.00504,-0.01007,-0.01846,-0.03265,-0.03296,-0.01846,-0.02472,-0.03387
6.991,0.02548,-0.05829,-0.13901,-0.05997,0.05051,-0.09308,-0.01083,0.00519,0.01038,-0.01312,-0.01862,-0.02228,-0.03342,-0.01724,-0.03418,-0.04684
6.9915,0.02762,-0.06836,-0.23254,-0.02151,0.06332,-0.11642,-0.00824,0.00687,0.01068,-0.01526,-0.01816,-0.0119,-0.03326,-0.01846,-0.03677,-0.06027
6.992,0.0264,-0.07767,-0.29373,0.00076,0.06882,-0.13626,-0.00839,0.00702,0.0087,-0.01602,-0.01877,-0.00763,-0.0325,-0.01953,-0.03677,-0.06546
6.9925,0.02335,-0.08179,-0.289,0.01038,0.06378,-0.1506,-0.00961,0.0061,0.00854,-0.01709,-0.01846,-0.01343,-0.03159,-0.01938,-0.0386,-0.06073
6.993,0.02029,-0.0795,-0.21759,0.01007,0.04623,-0.15854,-0.01053,0.00427,0.00961,-0.01495,-0.01801,-0.02258,-0.03189,-0.01724,-0.04257,-0.05249
6.9935,0.01816,-0.07019,-0.09796,0.01648,0.00946,-0.15839,-0.01129,0.00122,0.00977,-0.01419,-0.01694,-0.02808,-0.03281,-0.01541,-0.0444,-0.04547
6.994,0.01404,-0.056,0.03998,0.0531,-0.04547,-0.15518,-0.01358,-0.00122,0.00793,-0.01266,-0.01541,-0.02838,-0.03342,-0.01556,-0.03906,-0.04593
6.9945,0.00656,-0.04013,0.1619,0.13031,-0.09705,-0.14389,-0.01724,-0.00168,0.0032,-0.01205,-0.01495,-0.0293,-0.0322,-0.01724,-0.02991,-0.04944
6.995,-0.00107,-0.02747,0.2359,0.21805,-0.12238,-0.12115,-0.01953,0.0,-0.00427,-0.01221,-0.01526,-0.03464,-0.03174,-0.01694,-0.00809,-0.05249
6.9955,-0.00748,-0.01709,0.25467,0.26215,-0.12177,-0.09262,-0.01923,0.00259,-0.01129,-0.01175,-0.01694,-0.03876,-0.0325,-0.01633,0.03128,-0.0499
6.996,-0.01511,-0.00763,0.23224,0.24689,-0.11185,-0.06882,-0.01892,0.00229,-0.01556,-0.01343,-0.01633,-0.03448,-0.03265,-0.01663,0.07263,-0.04227
6.9965,-0.02716,0.00076,0.18799,0.19547,-0.10361,-0.05493,-0.01846,0.0,-0.01648,-0.01465,-0.01389,-0.02457,-0.03204,-0.01907,0.08255,-0.03174
6.997,-0.04166,0.0061,0.13718,0.12161,-0.09613,-0.05234,-0.01892,-0.00092,-0.01709,-0.01373,-0.01144,-0.01785,-0.03189,-0.01907,0.05386,-0.02167
6.9975,-0.0502,0.00458,0.0885,0.01862,-0.08255,-0.05417,-0.01907,-0.00046,-0.0174,-0.01419,-0.01053,-0.02243,-0.0325,-0.01755,0.01755,-0.01938
6.998,-0.04669,-0.00351,0.04913,-0.10941,-0.06027,-0.05722,-0.01968,-0.00061,-0.01938,-0.01373,-0.00961,-0.03403,-0.03342,-0.01541,0.00198,-0.02884
6.9985,-0.03677,-0.01511,0.01984,-0.25101,-0.02945,-0.06042,-0.02029,-0.00183,-0.02106,-0.01389,-0.0087,-0.04105,-0.03403,-0.01602,0.00793,-0.04593
6.999,-0.02716,-0.02518,-0.00336,-0.39764,-0.00092,-0.06348,-0.01953,-0.00305,-0.02274,-0.01663,-0.00885,-0.03937,-0.03418,-0.01785,0.01663,-0.06332
6.9995,-0.02121,-0.02792,-0.02075,-0.50598,0.01419,-0.065,-0.0177,-0.00488,-0.02426,-0.01968,-0.00946,-0.03265,-0.03357,-0.0177,0.01999,-0.07553
7.0,-0.01984,-0.02457,-0.03311,-0.50705,0.00702,-0.06561,-0.01694,-0.00732,-0.02426,-0.0206,-0.01251,-0.0264,-0.03296,-0.01694,0.02182,-0.07645
7.0005,-0.01816,-0.02151,-0.04059,-0.40054,-0.01617,-0.06836,-0.01831,-0.01144,-0.02335,-0.02106,-0.0148,-0.02167,-0.0325,-0.01694,0.02472,-0.06577
7.001,-0.01328,-0.02533,-0.04089,-0.28671,-0.04349,-0.07355,-0.02045,-0.01572,-0.02228,-0.0209,-0.01434,-0.01602,-0.03357,-0.01877,0.02472,-0.04623
7.0015,-0.00259,-0.03418,-0.02884,-0.22995,-0.06729,-0.08072,-0.0209,-0.02075,-0.02136,-0.02045,-0.01343,-0.0116,-0.03387,-0.01938,0.02045,-0.03189
7.002,0.01373,-0.04242,-0.00656,-0.15472,-0.08682,-0.08392,-0.01755,-0.02487,-0.02075,-0.01999,-0.01343,-0.01053,-0.03311,-0.02014,0.0145,-0.0351
7.0025,0.03281,-0.0499,0.01373,0.03281,-0.10361,-0.08469,-0.01572,-0.02747,-0.01892,-0.02045,-0.01663,-0.01266,-0.03098,-0.0209,0.00885,-0.05569
7.003,0.04654,-0.05737,0.01465,0.2742,-0.1207,-0.0827,-0.01801,-0.02869,-0.01846,-0.02167,-0.02106,-0.01587,-0.02823,-0.02197,0.00137,-0.07858
7.0035,0.04837,-0.05936,-0.009,0.40833,-0.14221,-0.08026,-0.02289,-0.03006,-0.01846,-0.02167,-0.02426,-0.01694,-0.02747,-0.02045,-0.00549,-0.08347
7.004,0.03906,-0.05203,-0.0473,0.36194,-0.15976,-0.07416,-0.02457,-0.03326,-0.01938,-0.02274,-0.02655,-0.01373,-0.0293,-0.01907,-0.00397,-0.06012
7.0045,0.02365,-0.03754,-0.09247,0.21332,-0.15137,-0.06775,-0.02304,-0.03647,-0.01953,-0.02289,-0.03006,-0.00839,-0.0296,-0.01816,0.00824,-0.02335
7.005,0.00763,-0.02655,-0.1358,0.07004,-0.11108,-0.065,-0.02106,-0.03738,-0.0177,-0.02457,-0.03159,-0.00473,-0.02838,-0.01907,0.02136,-0.00107
7.0055,0.00122,-0.02579,-0.16937,-0.02243,-0.06424,-0.06226,-0.02121,-0.03647,-0.01526,-0.02625,-0.02823,-0.00641,-0.02579,-0.02045,0.02518,-0.00412
7.006,0.02533,-0.0325,-0.18143,-0.06577,-0.0325,-0.05936,-0.02197,-0.03464,-0.01373,-0.02686,-0.02014,-0.00961,-0.02457,-0.02213,0.02014,-0.02029
7.0065,0.08255,-0.03967,-0.17471,-0.07477,-0.01602,-0.05768,-0.02319,-0.0325,-0.01312,-0.02655,-0.01373,-0.0119,-0.02548,-0.02151,0.01495,-0.02838
7.007,0.1268,-0.04562,-0.15579,-0.0827,-0.00473,-0.05768,-0.02167,-0.02975,-0.01297,-0.02533,-0.01328,-0.01205,-0.02762,-0.01923,0.01236,-0.02625
7.0075,0.09995,-0.05142,-0.12833,-0.12024,0.00366,-0.05997,-0.01968,-0.02792,-0.01266,-0.02472,-0.01328,-0.0116,-0.02853,-0.0174,0.01297,-0.02609
7.008,0.0061,-0.056,-0.09369,-0.16937,0.00763,-0.06165,-0.01984,-0.02838,-0.0119,-0.02258,-0.01266,-0.01251,-0.02869,-0.01587,0.01694,-0.03845
7.0085,-0.09125,-0.06104,-0.056,-0.16846,0.0058,-0.06378,-0.01953,-0.03036,-0.01114,-0.0209,-0.0116,-0.01617,-0.02991,-0.01572,0.02182,-0.05981
7.009,-0.14587,-0.06805,-0.0264,-0.06699,0.00259,-0.065,-0.01816,-0.03159,-0.01144,-0.02167,-0.01282,-0.01755,-0.03189,-0.01678,0.02838,-0.06989
7.0095,-0.15884,-0.07706,-0.03036,0.10361,0.00137,-0.06897,-0.0148,-0.03174,-0.01205,-0.02304,-0.01419,-0.01343,-0.03326,-0.01907,0.03632,-0.05737
7.01,-0.14984,-0.08408,-0.09003,0.24277,0.00641,-0.07263,-0.01343,-0.03052,-0.01266,-0.02304,-0.01373,-0.00626,-0.03311,-0.02106,0.04425,-0.03159
7.0105,-0.12863,-0.08453,-0.19272,0.25818,0.01663,-0.07065,-0.01556,-0.03067,-0.01434,-0.02289,-0.01526,-0.00427,-0.03464,-0.02258,0.04303,-0.01251
7.011,-0.09811,-0.08163,-0.28275,0.1474,0.03036,-0.06226,-0.01785,-0.02899,-0.01511,-0.02335,-0.01663,-0.01038,-0.03677,-0.02289,0.03067,-0.00916
7.0115,-0.06729,-0.07904,-0.30807,-0.00793,0.04272,-0.05585,-0.01633,-0.02655,-0.01556,-0.02396,-0.01556,-0.02228,-0.03906,-0.02258,0.0206,-0.01862
7.012,-0.04486,-0.07813,-0.25543,-0.1181,0.04959,-0.05142,-0.01266,-0.02365,-0.01678,-0.02335,-0.01221,-0.03113,-0.03983,-0.02167,0.02197,-0.03159
7.0125,-0.02808,-0.07721,-0.14862,-0.13123,0.0528,-0.04852,-0.009,-0.02213,-0.01907,-0.02151,-0.01007,-0.03159,-0.0386,-0.02014,0.02609,-0.04059
7.013,-0.01129,-0.07278,-0.02014,-0.03799,0.05554,-0.04684,-0.00854,-0.01999,-0.02121,-0.01923,-0.01129,-0.02609,-0.03525,-0.01846,0.01114,-0.04089
7.0135,0.00565,-0.06363,0.09384,0.11429,0.06256,-0.04684,-0.00916,-0.0174,-0.02167,-0.01816,-0.01343,-0.01938,-0.03098,-0.01907,-0.02319,-0.03738
7.014,0.01862,-0.0502,0.16464,0.24689,0.07294,-0.04959,-0.01068,-0.01495,-0.02197,-0.01831,-0.01328,-0.01602,-0.0296,-0.02075,-0.0444,-0.04395
7.0145,0.03021,-0.03616,0.18951,0.32059,0.07294,-0.05569,-0.0119,-0.01282,-0.02243,-0.01862,-0.01114,-0.01511,-0.03143,-0.02182,-0.03296,-0.06302
7.015,0.05402,-0.02579,0.1828,0.3624,0.04791,-0.06439,-0.01358,-0.01175,-0.02243,-0.01968,-0.01099,-0.01419,-0.03372,-0.01999,-0.00549,-0.07889
7.0155,0.10361,-0.0206,0.16022,0.41107,-0.0119,-0.07446,-0.0148,-0.00977,-0.02228,-0.01938,-0.01328,-0.01404,-0.03494,-0.0174,0.00275,-0.07492
7.016,0.16251,-0.01709,0.13168,0.45746,-0.09033,-0.08667,-0.0148,-0.00595,-0.02274,-0.01801,-0.01465,-0.01434,-0.03448,-0.01724,-0.01678,-0.05844
7.0165,0.18555,-0.0116,0.10117,0.45761,-0.15442,-0.0972,-0.01343,-0.00107,-0.0238,-0.01755,-0.0145,-0.01373,-0.03448,-0.01938,-0.04242,-0.05051
7.017,0.14786,-0.00824,0.07416,0.36667,-0.17502,-0.10574,-0.01083,0.00412,-0.02426,-0.01663,-0.01389,-0.01022,-0.03464,-0.02121,-0.0528,-0.05676
7.0175,0.07721,-0.01038,0.05463,0.17029,-0.15366,-0.10895,-0.0061,0.00916,-0.02472,-0.01709,-0.01373,-0.00702,-0.03647,-0.02121,-0.04242,-0.06516
7.018,0.0206,-0.01801,0.03555,-0.08499,-0.1181,-0.10742,-0.00168,0.01373,-0.02579,-0.01755,-0.01343,-0.00565,-0.03784,-0.02045,-0.02167,-0.05615
7.0185,-0.00259,-0.02762,0.00443,-0.31174,-0.09064,-0.10483,0.00031,0.01862,-0.02625,-0.01633,-0.01205,-0.00671,-0.03967,-0.0206,-0.00488,-0.02838
7.019,-0.01251,-0.03494,-0.05768,-0.45944,-0.06592,-0.0975,-0.00229,0.02182,-0.02441,-0.0145,-0.01114,-0.00778,-0.03998,-0.01999,-0.00427,-0.00214
7.0195,-0.03693,-0.03723,-0.16006,-0.52948,-0.02472,-0.0885,-0.00549,0.0235,-0.0206,-0.01495,-0.01083,-0.00824,-0.03922,-0.02014,-0.01678,-0.00061
7.02,-0.08377,-0.03601,-0.27069,-0.52444,0.02655,-0.08133,-0.00809,0.02365,-0.01724,-0.01602,-0.01144,-0.00778,-0.03784,-0.02045,-0.02518,-0.02762
7.0205,-0.13214,-0.03479,-0.34042,-0.41168,0.05997,-0.08057,-0.00885,0.02274,-0.01572,-0.01495,-0.0119,-0.00534,-0.03693,-0.02197,-0.01114,-0.05798
7.021,-0.15259,-0.03723,-0.34607,-0.15686,0.05783,-0.08209,-0.01053,0.01968,-0.01587,-0.01587,-0.01236,-0.00168,-0.03815,-0.02243,0.02228,-0.07156
7.0215,-0.13931,-0.03876,-0.29388,0.16144,0.03082,-0.08331,-0.01297,0.01587,-0.01556,-0.01785,-0.01389,0.00229,-0.03922,-0.02106,0.05447,-0.06989
7.022,-0.1059,-0.03693,-0.19852,0.3537,-0.00275,-0.08301,-0.01465,0.01419,-0.01541,-0.01862,-0.01968,0.00259,-0.03876,-0.0177,0.06241,-0.06592
7.0225,-0.0676,-0.03448,-0.07767,0.30609,-0.03387,-0.08255,-0.01602,0.01404,-0.0148,-0.01892,-0.03448,0.00122,-0.03799,-0.01526,0.04211,-0.06088
7.023,-0.03677,-0.03555,0.04288,0.09689,-0.04959,-0.08255,-0.01694,0.01816,-0.01465,-0.01892,-0.05478,0.00061,-0.03754,-0.01678,0.01404,-0.047
7.0235,-0.01862,-0.03937,0.13962,-0.12726,-0.04227,-0.08408,-0.01709,0.02396,-0.0148,-0.01907,-0.06927,0.00229,-0.03754,-0.01907,0.00275,-0.02762
7.024,-0.01328,-0.04288,0.20157,-0.2829,-0.01892,-0.08453,-0.01312,0.0293,-0.0145,-0.01923,-0.07141,0.00305,-0.03708,-0.01907,0.00977,-0.01602
7.0245,-0.01511,-0.04318,0.23056,-0.33493,-0.00427,-0.08438,-0.00763,0.03143,-0.01389,-0.02045,-0.05844,0.00122,-0.0351,-0.01648,0.01938,-0.01587
7.025,-0.01663,-0.03906,0.23026,-0.26733,-0.01724,-0.08224,-0.0029,0.03006,-0.01266,-0.02289,-0.03799,-0.00504,-0.03464,-0.0148,0.01373,-0.00504
7.0255,-0.01144,-0.03235,0.20935,-0.13992,-0.05661,-0.07782,-0.00153,0.02747,-0.01282,-0.02335,-0.01846,-0.01053,-0.03448,-0.01587,-0.00763,0.03815
7.026,-0.00031,-0.02335,0.17929,-0.0737,-0.10178,-0.07019,-0.00137,0.02502,-0.01404,-0.02167,-0.0029,-0.01328,-0.0351,-0.0177,-0.03372,0.09323
7.0265,0.01022,-0.01328,0.15137,-0.12558,-0.12451,-0.06104,-0.0029,0.02441,-0.01587,-0.01663,0.01038,-0.01526,-0.03418,-0.01755,-0.04395,0.103
7.027,0.01404,-0.00595,0.12695,-0.22247,-0.12482,-0.05585,-0.00504,0.02396,-0.0177,-0.01419,0.02457,-0.01755,-0.03372,-0.01541,-0.02808,0.04181
7.0275,0.01099,-0.00946,0.10056,-0.22644,-0.12054,-0.05692,-0.00702,0.02167,-0.01938,-0.0148,0.03586,-0.01984,-0.03311,-0.01495,-0.00366,-0.03952
7.028,0.01007,-0.02045,0.06973,-0.07126,-0.11963,-0.05768,-0.00824,0.01892,-0.02197,-0.01724,0.03845,-0.01907,-0.03311,-0.01846,-0.00046,-0.08331
7.0285,0.01389,-0.03372,0.03555,0.15854,-0.10315,-0.05234,-0.00885,0.01846,-0.0235,-0.02045,0.03159,-0.01556,-0.03464,-0.02289,-0.02914,-0.08942
7.029,0.01526,-0.0415,0.00137,0.30975,-0.05875,-0.04486,-0.00946,0.01938,-0.02472,-0.02335,0.02243,-0.01038,-0.03403,-0.02289,-0.06714,-0.08606
7.0295,0.01068,-0.04028,-0.02457,0.32501,-0.01358,-0.03937,-0.01068,0.02121,-0.0235,-0.02319,0.01541,-0.00366,-0.03311,-0.01831,-0.09369,-0.06744
7.03,0.00229,-0.0351,-0.03922,0.25406,-0.00656,-0.0354,-0.01068,0.0209,-0.02121,-0.02121,0.0116,0.00549,-0.03098,-0.01404,-0.10468,-0.02304
7.0305,-0.00702,-0.03906,-0.04837,0.15213,-0.03952,-0.03311,-0.00992,0.01862,-0.01907,-0.01831,0.00656,0.01373,-0.02914,-0.01465,-0.09842,0.01495
7.031,-0.01633,-0.0592,-0.06195,0.06729,-0.07278,-0.02853,-0.00977,0.01663,-0.01724,-0.0174,0.00076,0.01572,-0.02686,-0.01801,-0.06592,0.00381
7.0315,-0.02548,-0.08728,-0.07813,0.06165,-0.07416,-0.02441,-0.00931,0.01511,-0.01495,-0.0174,-0.0029,0.00824,-0.02609,-0.01938,-0.0148,-0.0502
7.032,-0.03235,-0.10406,-0.09171,0.13,-0.04669,-0.02197,-0.00961,0.01266,-0.01343,-0.01663,-0.00366,-0.00305,-0.02594,-0.01709,0.02945,-0.10147
7.0325,-0.03342,-0.10361,-0.10178,0.16434,-0.01678,-0.01755,-0.01129,0.00977,-0.01434,-0.01556,-0.00595,-0.00839,-0.02548,-0.01404,0.05417,-0.12955
7.033,-0.03036,-0.09537,-0.10941,0.08514,0.00244,-0.00992,-0.01205,0.00595,-0.01602,-0.01511,-0.01083,-0.00458,-0.02609,-0.0145,0.08514,-0.15015
7.0335,-0.03098,-0.08774,-0.11536,-0.04562,0.00854,-0.00183,-0.01053,0.00381,-0.01663,-0.01526,-0.01495,0.00244,-0.02884,-0.01556,0.13779,-0.17349
7.034,-0.04318,-0.08057,-0.11459,-0.10757,0.00122,0.00412,-0.00961,0.00412,-0.01633,-0.01617,-0.01816,0.00824,-0.03342,-0.01785,0.17441,-0.18234
7.0345,-0.06638,-0.07126,-0.11017,-0.07431,-0.01297,0.00565,-0.01099,0.0061,-0.01541,-0.01694,-0.01862,0.01144,-0.03647,-0.02045,0.15152,-0.16006
7.035,-0.0885,-0.05997,-0.11429,-0.01266,-0.02289,0.00671,-0.01511,0.00595,-0.01495,-0.01999,-0.01755,0.01465,-0.03845,-0.02365,0.08316,-0.11734
7.0355,-0.09003,-0.05417,-0.13123,0.02106,-0.02441,0.00931,-0.0174,0.00198,-0.01465,-0.02151,-0.01511,0.01511,-0.03998,-0.02365,0.0235,-0.0766
7.036,-0.0647,-0.06104,-0.15564,0.02808,-0.02594,0.00992,-0.01648,-0.00275,-0.01465,-0.02197,-0.01556,0.01221,-0.04135,-0.02029,0.00519,-0.04379
7.0365,-0.02441,-0.0766,-0.17334,0.01999,-0.02792,0.01144,-0.01297,-0.0032,-0.01465,-0.02014,-0.01831,0.01099,-0.04181,-0.01709,0.01938,-0.00519
7.037,0.0177,-0.08408,-0.17944,-0.01465,-0.02914,0.01404,-0.00854,-0.00015,-0.01404,-0.01785,-0.01907,0.01404,-0.04013,-0.01709,0.04837,0.03662
7.0375,0.05707,-0.07263,-0.17517,-0.0914,-0.03693,0.01511,-0.0058,0.0029,-0.01419,-0.01694,-0.01831,0.01724,-0.03662,-0.01709,0.07767,0.05585
7.038,0.08652,-0.04944,-0.16052,-0.19073,-0.05341,0.0148,-0.00519,0.00351,-0.01373,-0.01724,-0.01816,0.01419,-0.03387,-0.01678,0.09766,0.02899
7.0385,0.09949,-0.03113,-0.13123,-0.26764,-0.06393,0.01343,-0.00534,0.00305,-0.01312,-0.01846,-0.01907,0.00412,-0.03357,-0.01678,0.10376,-0.03677
7.039,0.09689,-0.02151,-0.08804,-0.28641,-0.05661,0.01312,-0.0058,0.0029,-0.01389,-0.01801,-0.0206,-0.00488,-0.03448,-0.01785,0.10498,-0.09979
7.0395,0.08667,-0.01709,-0.03922,-0.23743,-0.04074,0.01617,-0.00595,0.0032,-0.01419,-0.01709,-0.01755,-0.0058,-0.03601,-0.02014,0.10452,-0.11429
7.04,0.07736,-0.01495,0.0058,-0.13824,-0.03143,0.02029,-0.00656,0.00107,-0.0145,-0.0177,-0.01663,-0.00153,-0.0351,-0.02167,0.08881,-0.08148
7.0405,0.06744,-0.01328,0.03845,-0.03235,-0.03082,0.02533,-0.00748,-0.00153,-0.01328,-0.01846,-0.01877,0.00107,-0.03372,-0.02213,0.05386,-0.04807
7.041,0.05554,-0.00702,0.05463,0.03296,-0.03464,0.02853,-0.00809,-0.00427,-0.01312,-0.01877,-0.02121,0.00092,-0.03296,-0.02014,0.01938,-0.0444
7.0415,0.04578,0.00412,0.04517,0.03555,-0.04395,0.02762,-0.00839,-0.00549,-0.0145,-0.01694,-0.02197,0.0,-0.03311,-0.01877,0.00977,-0.06134
7.042,0.03998,0.01541,0.01114,-0.00702,-0.05417,0.02304,-0.00916,-0.00687,-0.01633,-0.01648,-0.02243,-0.00137,-0.0325,-0.01663,0.01694,-0.0705
7.0425,0.03464,0.01633,-0.03036,-0.05249,-0.06378,0.01648,-0.01129,-0.00854,-0.0174,-0.01709,-0.02289,-0.00427,-0.03235,-0.01617,0.00458,-0.06226
7.043,0.0238,0.00381,-0.05402,-0.07294,-0.07599,0.01083,-0.01434,-0.00946,-0.01602,-0.01755,-0.02304,-0.00702,-0.03235,-0.01556,-0.03891,-0.05066
7.0435,0.01236,-0.01373,-0.05035,-0.06805,-0.09155,0.00763,-0.01694,-0.00961,-0.01434,-0.01694,-0.02228,-0.00946,-0.03342,-0.01465,-0.0824,-0.05203
7.044,0.0061,-0.02472,-0.03525,-0.05646,-0.09521,0.00534,-0.01709,-0.00793,-0.01266,-0.01602,-0.02029,-0.00946,-0.03448,-0.01526,-0.08453,-0.05692
7.0445,0.00885,-0.0293,-0.02975,-0.04272,-0.07385,0.00641,-0.01572,-0.0061,-0.0119,-0.01694,-0.02106,-0.00702,-0.03464,-0.01556,-0.04166,-0.0383
7.045,0.01587,-0.03204,-0.03845,-0.01984,-0.03952,0.00656,-0.01511,-0.0058,-0.01221,-0.01877,-0.02045,-0.0032,-0.03326,-0.01587,0.00717,0.01099
7.0455,0.01938,-0.03372,-0.04791,-0.00336,-0.01343,0.00305,-0.01694,-0.00763,-0.01282,-0.0206,-0.02075,-0.00168,-0.03036,-0.01511,0.03189,0.0737
7.046,0.01495,-0.02899,-0.04669,-0.03754,-0.00458,-0.0029,-0.01877,-0.009,-0.01373,-0.02075,-0.01984,-0.00412,-0.02838,-0.01556,0.03571,0.11642
7.0465,0.00443,-0.02075,-0.0415,-0.13962,-0.00839,-0.00748,-0.02029,-0.00961,-0.01434,-0.02029,-0.01999,-0.00626,-0.0296,-0.0177,0.02777,0.10254
7.047,-0.00458,-0.01419,-0.0415,-0.25391,-0.01663,-0.00854,-0.02258,-0.01083,-0.01389,-0.02075,-0.02014,-0.00458,-0.03159,-0.01816,0.01312,0.02869
7.0475,-0.00992,-0.0119,-0.05219,-0.29633,-0.02441,-0.0061,-0.02426,-0.01266,-0.01251,-0.0209,-0.0206,0.00153,-0.03204,-0.01846,0.00046,-0.05646
7.048,-0.01221,-0.01221,-0.06317,-0.24185,-0.02487,-0.00305,-0.02304,-0.01266,-0.01236,-0.02075,-0.01831,0.00702,-0.0325,-0.01816,0.00488,-0.09155
7.0485,-0.0116,-0.01099,-0.06348,-0.13611,-0.01678,-0.00046,-0.02228,-0.01144,-0.01282,-0.01907,-0.01678,0.0087,-0.03296,-0.01938,0.01617,-0.065
7.049,-0.00732,-0.00916,-0.04929,-0.01801,-0.00473,-0.00046,-0.02243,-0.01038,-0.01419,-0.01816,-0.01556,0.00748,-0.03342,-0.02045,0.00015,-0.0264
7.0495,-0.00259,-0.00793,-0.0296,0.10986,0.00839,-0.00214,-0.02151,-0.00916,-0.01419,-0.01678,-0.01587,0.00565,-0.03357,-0.01892,-0.04456,-0.01755
7.05,-0.00336,-0.01099,-0.01404,0.224,0.01541,-0.00595,-0.01999,-0.009,-0.0145,-0.01602,-0.01755,0.00351,-0.03174,-0.01755,-0.0798,-0.03815
7.0505,-0.02029,-0.01495,-0.00626,0.29221,0.00458,-0.00854,-0.01862,-0.01038,-0.01495,-0.01633,-0.01709,0.00198,-0.03067,-0.01801,-0.06882,-0.06149
7.051,-0.05173,-0.02014,-0.00351,0.33585,-0.02411,-0.00931,-0.01892,-0.01205,-0.01541,-0.01801,-0.01678,-0.00137,-0.03067,-0.01892,-0.03448,-0.0769
7.0515,-0.0766,-0.02914,-0.00275,0.36575,-0.06042,-0.00885,-0.01923,-0.01099,-0.01404,-0.01801,-0.01465,-0.00565,-0.03113,-0.01907,-0.01953,-0.08911
7.052,-0.07568,-0.0415,-0.00824,0.29739,-0.08575,-0.0087,-0.01999,-0.00839,-0.01282,-0.01755,-0.01343,-0.0087,-0.03204,-0.01678,-0.03464,-0.09995
7.0525,-0.05157,-0.05524,-0.01892,0.07111,-0.09491,-0.01038,-0.02029,-0.00809,-0.01282,-0.01785,-0.01389,-0.01068,-0.0325,-0.01541,-0.04822,-0.10101
7.053,-0.02228,-0.06622,-0.02838,-0.20828,-0.09842,-0.01266,-0.02014,-0.00961,-0.01282,-0.0174,-0.0148,-0.01114,-0.03067,-0.01587,-0.03601,-0.08636
7.0535,0.00168,-0.07141,-0.03174,-0.35568,-0.09811,-0.0177,-0.0209,-0.01022,-0.01236,-0.01663,-0.01648,-0.01099,-0.02914,-0.01816,-0.00687,-0.06638
7.054,0.01862,-0.07416,-0.02731,-0.31204,-0.08881,-0.0238,-0.02274,-0.00854,-0.01373,-0.01541,-0.01572,-0.00916,-0.02975,-0.02014,0.00534,-0.05325
7.0545,0.02945,-0.07507,-0.01846,-0.20386,-0.06866,-0.02899,-0.02396,-0.00763,-0.0145,-0.0145,-0.01541,-0.00458,-0.03036,-0.01999,-0.00809,-0.05249
7.055,0.03006,-0.07614,-0.01694,-0.19028,-0.04791,-0.0322,-0.02441,-0.00961,-0.01495,-0.01541,-0.01572,0.00137,-0.0296,-0.01892,-0.02533,-0.05447
7.0555,0.01862,-0.07446,-0.04089,-0.26398,-0.03387,-0.03494,-0.02609,-0.01068,-0.01434,-0.01617,-0.01663,0.00488,-0.02838,-0.01877,-0.02594,-0.04974
7.056,-0.00122,-0.0679,-0.1091,-0.26978,-0.02472,-0.03937,-0.02655,-0.00992,-0.0148,-0.01816,-0.01724,0.00671,-0.02899,-0.01968,-0.01373,-0.04379
7.0565,-0.02045,-0.05661,-0.20554,-0.11978,-0.0174,-0.04364,-0.02609,-0.00992,-0.01572,-0.01999,-0.01389,0.00717,-0.03036,-0.02167,-0.00473,-0.04745
7.057,-0.03418,-0.04318,-0.28412,0.10452,-0.01129,-0.04883,-0.02563,-0.01007,-0.01663,-0.02213,-0.01328,0.00763,-0.03098,-0.02258,-0.00885,-0.0647
7.0575,-0.04532,-0.03632,-0.30334,0.28259,-0.0058,-0.05234,-0.02655,-0.00992,-0.01816,-0.02365,-0.01389,0.00778,-0.03082,-0.02365,-0.01846,-0.07858
7.058,-0.05753,-0.04486,-0.26291,0.37674,0.00214,-0.05569,-0.02884,-0.00793,-0.01892,-0.02365,-0.01526,0.0058,-0.02991,-0.02319,-0.02487,-0.07019
7.0585,-0.06653,-0.065,-0.17838,0.39536,0.01175,-0.06073,-0.03082,-0.00565,-0.0177,-0.02289,-0.01633,0.00366,-0.02991,-0.02426,-0.01801,-0.03799
7.059,-0.06851,-0.08347,-0.06912,0.33432,0.01968,-0.06729,-0.0296,-0.00473,-0.01617,-0.02289,-0.01648,0.00122,-0.03052,-0.02411,0.0116,-0.00504
7.0595,-0.06271,-0.08377,0.04913,0.20767,0.02029,-0.07446,-0.02686,-0.0058,-0.01526,-0.02151,-0.01602,0.0029,-0.03036,-0.02197,0.05325,0.01419
7.06,-0.05386,-0.06897,0.15167,0.0621,0.01724,-0.07767,-0.02472,-0.00854,-0.01526,-0.02106,-0.01389,0.0058,-0.02991,-0.02075,0.07278,0.02045
7.0605,-0.04364,-0.04974,0.21515,-0.05325,0.01404,-0.08087,-0.02335,-0.01068,-0.01556,-0.02136,-0.01419,0.00626,-0.03113,-0.01999,0.05096,0.0174
7.061,-0.0322,-0.03403,0.23132,-0.11475,0.01572,-0.08408,-0.02304,-0.01129,-0.01587,-0.02167,-0.01343,0.00336,-0.03403,-0.02136,0.01282,0.00092
7.0615,-0.02182,-0.02319,0.20996,-0.12634,0.02045,-0.08865,-0.02121,-0.00977,-0.01663,-0.02289,-0.01465,-0.00046,-0.03525,-0.02075,-0.00473,-0.02563
7.062,-0.01465,-0.01587,0.16678,-0.11337,0.02151,-0.09384,-0.0177,-0.00793,-0.01663,-0.02335,-0.01678,-0.0029,-0.03342,-0.02029,0.00229,-0.03632
7.0625,-0.0087,-0.0116,0.11917,-0.11719,0.01266,-0.0972,-0.01404,-0.00763,-0.01633,-0.02304,-0.01556,-0.00214,-0.03082,-0.01968,0.01282,-0.01923
7.063,-0.00214,-0.01297,0.07584,-0.14923,-0.00839,-0.09964,-0.01297,-0.00656,-0.01541,-0.02197,-0.0148,-0.00015,-0.02869,-0.0177,0.01389,0.00427
7.0635,0.00244,-0.01938,0.03891,-0.14954,-0.03845,-0.10117,-0.01526,-0.00412,-0.01465,-0.0209,-0.01434,0.00259,-0.02777,-0.01373,0.01358,0.00031
7.064,0.00168,-0.02991,-0.00305,-0.03922,-0.06058,-0.10162,-0.01801,-0.00153,-0.01495,-0.02182,-0.01434,0.00427,-0.02777,-0.01099,0.01373,-0.0264
7.0645,-0.0029,-0.04044,-0.06897,0.17044,-0.0592,-0.1001,-0.02029,-0.00061,-0.01434,-0.02228,-0.01343,0.00412,-0.02838,-0.01038,0.01251,-0.04044
7.065,-0.00931,-0.04562,-0.17014,0.36652,-0.04089,-0.09628,-0.02045,0.0,-0.01434,-0.02304,-0.01282,0.00259,-0.02975,-0.01221,0.00885,-0.0235
7.0655,-0.01724,-0.04684,-0.27359,0.44952,-0.02319,-0.09171,-0.01907,0.00122,-0.0145,-0.02274,-0.0145,-0.00031,-0.03311,-0.01297,0.00565,-0.00183
7.066,-0.02533,-0.04868,-0.33234,0.41702,-0.01602,-0.09125,-0.01602,0.00137,-0.01465,-0.02151,-0.01511,-0.00336,-0.03616,-0.01328,0.00519,-0.00366
7.0665,-0.02335,-0.05325,-0.32745,0.32303,-0.01389,-0.09308,-0.01343,0.00107,-0.01526,-0.01785,-0.01328,-0.00473,-0.03555,-0.01328,0.00351,-0.02121
7.067,0.00381,-0.05951,-0.26764,0.20248,-0.00732,-0.09628,-0.0119,0.00137,-0.01617,-0.01526,-0.01328,-0.00305,-0.03265,-0.01373,0.00336,-0.02808
7.0675,0.05722,-0.06317,-0.17029,0.07477,0.00381,-0.09903,-0.01144,0.00168,-0.01648,-0.01495,-0.01373,-0.00168,-0.03174,-0.01511,0.00275,-0.02411
7.068,0.10468,-0.06577,-0.06149,-0.03204,0.01572,-0.09842,-0.01236,0.00229,-0.01648,-0.01678,-0.01663,-0.00153,-0.03555,-0.01678,0.00519,-0.02991
7.0685,0.10406,-0.06805,0.03189,-0.09811,0.02228,-0.09537,-0.01205,0.00015,-0.01602,-0.01755,-0.01556,-0.00183,-0.0383,-0.01755,0.00977,-0.04898
7.069,0.05325,-0.0705,0.09155,-0.14206,0.02945,-0.09277,-0.01282,-0.00351,-0.01556,-0.01724,-0.01648,-0.00061,-0.03738,-0.01801,0.0148,-0.06332
7.0695,0.00061,-0.07431,0.12146,-0.20035,0.03571,-0.09003,-0.01175,-0.00671,-0.01526,-0.01648,-0.0145,0.00183,-0.03418,-0.01709,0.01709,-0.06073
7.07,-0.01572,-0.07446,0.13382,-0.27832,0.02258,-0.08865,-0.01068,-0.00671,-0.01587,-0.01511,-0.01266,0.00381,-0.03098,-0.01572,0.01556,-0.05234
7.0705,-0.00183,-0.07095,0.13748,-0.33722,-0.02823,-0.09018,-0.00961,-0.0029,-0.0174,-0.01511,-0.01053,0.00534,-0.02838,-0.01541,0.0119,-0.05203
7.071,0.01419,-0.06195,0.13474,-0.3244,-0.09903,-0.09323,-0.00916,-0.00046,-0.0177,-0.01541,-0.01099,0.00504,-0.02594,-0.01633,0.00809,-0.05829
7.0715,0.02396,-0.05035,0.12604,-0.23514,-0.13962,-0.09491,-0.00931,0.0,-0.01862,-0.01541,-0.01099,0.00397,-0.0209,-0.01892,0.00504,-0.0621
7.072,0.03555,-0.03937,0.11139,-0.13138,-0.13351,-0.09354,-0.0087,-0.00076,-0.01923,-0.01617,-0.01129,0.00198,-0.01221,-0.01953,0.00473,-0.06409
7.0725,0.04929,-0.03296,0.08743,-0.08102,-0.11292,-0.09033,-0.00916,-0.00031,-0.01923,-0.01633,-0.01175,0.00076,-0.00259,-0.01862,0.00458,-0.06729
7.073,0.06042,-0.03296,0.05859,-0.07263,-0.09979,-0.0856,-0.01053,-0.00092,-0.01816,-0.01617,-0.01251,0.00153,0.00519,-0.0177,0.00458,-0.06912
7.0735,0.07004,-0.03647,0.02518,-0.03433,-0.07843,-0.08087,-0.00946,-0.00229,-0.01694,-0.01495,-0.01099,0.00397,0.00977,-0.01755,0.0058,-0.06882
7.074,0.0769,-0.03845,-0.0087,0.05386,-0.04456,-0.07843,-0.00732,-0.00137,-0.01587,-0.01541,-0.01144,0.00626,0.01053,-0.01846,0.00641,-0.07202
7.0745,0.065,-0.03738,-0.03876,0.11002,-0.02594,-0.07675,-0.00488,0.00076,-0.01633,-0.01633,-0.01312,0.00732,0.00748,-0.01968,0.00565,-0.07935
7.075,0.02457,-0.03098,-0.06058,0.02945,-0.0383,-0.07416,-0.00427,0.00351,-0.01633,-0.02014,-0.01297,0.00717,0.00107,-0.01968,0.00427,-0.08209
7.0755,-0.02945,-0.0209,-0.06744,-0.18082,-0.05371,-0.07065,-0.0058,0.00351,-0.01617,-0.01999,-0.01175,0.00565,-0.00916,-0.01999,0.00214,-0.0766
7.076,-0.06973,-0.01236,-0.05829,-0.3804,-0.04059,-0.06668,-0.00626,0.00244,-0.01556,-0.02014,-0.01129,0.00427,-0.02029,-0.01923,0.00305,-0.07019
7.0765,-0.0882,-0.01022,-0.04166,-0.40802,-0.00885,-0.06393,-0.00641,0.00198,-0.01602,-0.01846,-0.01434,0.00366,-0.03479,-0.02029,0.00473,-0.0708
7.077,-0.09781,-0.0119,-0.02853,-0.20309,0.01465,-0.06363,-0.00656,0.00214,-0.01678,-0.01724,-0.01694,0.00275,-0.05096,-0.02289,0.00565,-0.07675
7.0775,-0.10605,-0.01694,-0.02365,0.12924,0.01846,-0.06271,-0.00839,0.00076,-0.0174,-0.01633,-0.01648,0.00183,-0.06622,-0.02289,0.00717,-0.07645
7.078,-0.11017,-0.02258,-0.02594,0.36133,0.01801,-0.05814,-0.01114,-0.00259,-0.01755,-0.01709,-0.01282,0.00275,-0.07553,-0.02121,0.01068,-0.07034
7.0785,-0.10269,-0.03098,-0.03616,0.32837,0.02319,-0.05371,-0.01328,-0.00717,-0.01709,-0.01923,-0.01221,0.00458,-0.07706,-0.01892,0.0148,-0.06577
7.079,-0.08408,-0.04074,-0.05569,0.10513,0.03006,-0.05478,-0.01572,-0.01144,-0.01678,-0.01709,-0.01404,0.00641,-0.07019,-0.0174,0.01678,-0.07004
7.0795,-0.06149,-0.04822,-0.08133,-0.06317,0.0235,-0.05768,-0.01846,-0.01495,-0.01556,-0.01663,-0.0148,0.00671,-0.05875,-0.01785,0.01602,-0.07553
7.08,-0.04333,-0.0528,-0.10025,-0.03647,-0.009,-0.05844,-0.01968,-0.01602,-0.0145,-0.01556,-0.0148,0.00702,-0.04333,-0.01724,0.01648,-0.06821
7.0805,-0.03616,-0.05829,-0.10239,0.09216,-0.06439,-0.05737,-0.01816,-0.01556,-0.01495,-0.01373,-0.0145,0.00748,-0.03143,-0.01709,0.02167,-0.0415
7.081,-0.03738,-0.06393,-0.08881,0.15732,-0.11444,-0.05798,-0.01526,-0.01434,-0.01526,-0.01312,-0.01511,0.00824,-0.02609,-0.01602,0.02563,-0.00702
7.0815,-0.03891,-0.0647,-0.06775,0.11734,-0.12924,-0.05951,-0.01282,-0.01236,-0.01511,-0.01328,-0.01709,0.00793,-0.02701,-0.01465,0.02396,0.01617
7.082,-0.03998,-0.05661,-0.04227,0.05768,-0.10925,-0.05722,-0.01099,-0.01144,-0.01617,-0.01511,-0.01663,0.00763,-0.03296,-0.01312,0.01694,0.01556
7.0825,-0.05417,-0.04654,-0.01556,0.03784,-0.0914,-0.05066,-0.00992,-0.01083,-0.01694,-0.01648,-0.01465,0.00519,-0.03937,-0.0148,0.01007,-0.00748
7.083,-0.0943,-0.04044,0.00885,0.03357,-0.10269,-0.04379,-0.00946,-0.01099,-0.01694,-0.01831,-0.01389,0.0032,-0.04395,-0.01999,0.00763,-0.03799
7.0835,-0.14755,-0.04333,0.0264,0.0029,-0.12375,-0.03906,-0.00717,-0.009,-0.01602,-0.01862,-0.0148,0.00244,-0.04944,-0.02563,0.00839,-0.05569
7.084,-0.18585,-0.05096,0.03494,-0.05981,-0.11795,-0.03632,-0.0029,-0.00641,-0.01556,-0.01862,-0.01709,0.0029,-0.0589,-0.02747,0.00977,-0.05295
7.0845,-0.18799,-0.0563,0.04044,-0.13748,-0.08255,-0.03265,0.00168,-0.00473,-0.01602,-0.01907,-0.01755,0.00412,-0.06836,-0.02563,0.00977,-0.04013
7.085,-0.14938,-0.07095,0.04059,-0.19989,-0.04669,-0.03204,0.00092,-0.00519,-0.01678,-0.01999,-0.01556,0.00443,-0.07034,-0.02289,0.01068,-0.03311
7.0855,-0.07736,-0.10696,0.02319,-0.21896,-0.03052,-0.03082,-0.00656,-0.00732,-0.0174,-0.01968,-0.0145,0.00412,-0.06424,-0.02304,0.0116,-0.03326
7.086,0.00015,-0.1622,-0.02045,-0.19928,-0.02518,-0.02914,-0.01663,-0.01068,-0.01633,-0.01953,-0.01404,0.00305,-0.05554,-0.02289,0.01221,-0.03616
7.0865,0.05569,-0.2063,-0.07446,-0.17776,-0.01938,-0.02457,-0.02121,-0.01526,-0.01495,-0.01907,-0.01221,0.00214,-0.0502,-0.02014,0.01038,-0.03662
7.087,0.08453,-0.2092,-0.11871,-0.16373,-0.01053,-0.01907,-0.01877,-0.01862,-0.01389,-0.01648,-0.01205,0.00153,-0.047,-0.0177,0.00946,-0.03616
7.0875,0.10422,-0.1741,-0.14145,-0.11703,-0.00137,-0.01694,-0.01465,-0.01968,-0.01343,-0.01617,-0.01282,0.00198,-0.04486,-0.01801,0.00977,-0.03708
7.088,0.12558,-0.12604,-0.14404,-0.01129,0.00702,-0.01694,-0.01236,-0.01831,-0.01358,-0.0177,-0.01373,0.00259,-0.04532,-0.02014,0.01404,-0.04059
7.0885,0.13748,-0.08514,-0.13,0.10773,0.01343,-0.01953,-0.01114,-0.01602,-0.01358,-0.01968,-0.0148,0.00183,-0.04608,-0.02243,0.01511,-0.04105
7.089,0.12772,-0.05112,-0.1059,0.17792,0.01297,-0.02197,-0.01068,-0.01587,-0.0148,-0.01984,-0.01526,0.00122,-0.04242,-0.02319,0.01373,-0.03876
7.0895,0.10101,-0.01633,-0.08148,0.1973,0.00092,-0.02396,-0.01083,-0.01923,-0.01495,-0.01953,-0.01556,0.00259,-0.03006,-0.02167,0.01129,-0.03601
7.09,0.07416,0.01663,-0.06653,0.21194,-0.01587,-0.02533,-0.01129,-0.02319,-0.01495,-0.01663,-0.01526,0.00381,-0.01572,-0.02106,0.01068,-0.0351
7.0905,0.05539,0.0415,-0.06073,0.22995,-0.02655,-0.02777,-0.01236,-0.02579,-0.01419,-0.01663,-0.01465,0.00443,-0.00641,-0.02258,0.01358,-0.03571
7.091,0.04425,0.05707,-0.06012,0.21622,-0.02655,-0.02975,-0.01541,-0.02655,-0.01404,-0.01938,-0.01373,0.00519,-0.00351,-0.02563,0.0145,-0.03601
7.0915,0.03937,0.06393,-0.05646,0.16373,-0.0267,-0.02777,-0.01648,-0.0235,-0.01434,-0.02167,-0.01205,0.00519,-0.00153,-0.02548,0.01556,-0.03494
7.092,0.04044,0.06516,-0.0473,0.1123,-0.03143,-0.02258,-0.01495,-0.02045,-0.0148,-0.02243,-0.01068,0.00519,0.00336,-0.02289,0.01404,-0.03342
7.0925,0.04776,0.06577,-0.03723,0.08865,-0.02991,-0.01831,-0.01099,-0.01724,-0.01404,-0.02136,-0.01099,0.00381,0.00946,-0.02075,0.01343,-0.0322
7.093,0.06104,0.06638,-0.03174,0.07355,-0.01343,-0.01541,-0.009,-0.0148,-0.01434,-0.01953,-0.01083,0.00397,0.0145,-0.01877,0.01373,-0.03098
7.0935,0.0705,0.06424,-0.0296,0.02518,0.00809,-0.01266,-0.00885,-0.01175,-0.01602,-0.01953,-0.01144,0.00336,0.01556,-0.0177,0.01587,-0.03036
7.094,0.06821,0.05356,-0.02747,-0.06378,0.02045,-0.009,-0.00809,-0.00916,-0.01785,-0.01907,-0.01205,0.00198,0.01251,-0.01526,0.01572,-0.03052
7.0945,0.056,0.03036,-0.0267,-0.15533,0.01617,-0.00809,-0.00748,-0.00717,-0.01862,-0.01923,-0.01251,0.00122,0.00732,-0.01297,0.01404,-0.03021
7.095,0.04425,0.00137,-0.02869,-0.19287,0.00488,-0.01144,-0.00717,-0.00504,-0.01816,-0.02014,-0.01343,0.00107,-0.00244,-0.01266,0.01266,-0.03021
7.0955,0.03586,-0.02182,-0.03403,-0.14496,-0.00519,-0.01678,-0.0087,-0.00168,-0.01785,-0.02167,-0.01495,0.00122,-0.01892,-0.01556,0.01297,-0.03113
7.096,0.02991,-0.03418,-0.03983,-0.03387,-0.01114,-0.0206,-0.01236,0.00168,-0.01892,-0.02563,-0.01663,0.00168,-0.03845,-0.01846,0.01465,-0.03082
7.0965,0.0238,-0.03876,-0.04532,0.06927,-0.01999,-0.02258,-0.01236,0.00427,-0.01877,-0.02396,-0.01678,0.00061,-0.05569,-0.02014,0.0145,-0.02945
7.097,0.01663,-0.04089,-0.04929,0.10635,-0.03296,-0.02289,-0.01068,0.00351,-0.01785,-0.02563,-0.01419,-0.00015,-0.06653,-0.01984,0.01312,-0.02899
7.0975,0.00885,-0.0412,-0.05127,0.07233,-0.04807,-0.02335,-0.00885,0.00198,-0.01709,-0.02609,-0.01373,0.0,-0.07141,-0.0177,0.00931,-0.02899
7.098,0.00275,-0.0386,-0.04868,0.00366,-0.06195,-0.02502,-0.00763,0.00122,-0.01709,-0.02548,-0.01465,0.00107,-0.06943,-0.01526,0.00824,-0.0293
7.0985,-0.00305,-0.03296,-0.04288,-0.05417,-0.0705,-0.02701,-0.00824,-0.00092,-0.0174,-0.02472,-0.01556,0.00214,-0.06256,-0.01373,0.01022,-0.02792
7.099,-0.009,-0.02899,-0.03693,-0.08362,-0.065,-0.02884,-0.01007,-0.00412,-0.01801,-0.02396,-0.0148,0.00168,-0.05569,-0.01572,0.01343,-0.02747
7.0995,-0.01724,-0.02792,-0.03204,-0.09277,-0.04532,-0.03143,-0.01205,-0.00824,-0.01877,-0.02197,-0.0148,-0.00076,-0.05051,-0.01862,0.01587,-0.0293
7.1,-0.02258,-0.02853,-0.03021,-0.09644,-0.02365,-0.03281,-0.01343,-0.01007,-0.0174,-0.02228,-0.01434,-0.00183,-0.04822,-0.01862,0.01633,-0.03098
7.1005,-0.02213,-0.02747,-0.0293,-0.09628,-0.0119,-0.03525,-0.01373,-0.01022,-0.01678,-0.02182,-0.01404,-0.00046,-0.04868,-0.01663,0.01465,-0.03174
7.101,-0.01541,-0.02319,-0.02701,-0.08209,-0.00992,-0.03845,-0.01358,-0.00809,-0.01724,-0.0209,-0.01373,0.00153,-0.0473,-0.01389,0.01266,-0.0325
7.1015,-0.00931,-0.0174,-0.02213,-0.05173,-0.01205,-0.04089,-0.01297,-0.00336,-0.01709,-0.01968,-0.01419,0.00198,-0.04318,-0.01129,0.0116,-0.03311
7.102,-0.00854,-0.01648,-0.01801,-0.01328,-0.01404,-0.04044,-0.01129,0.00183,-0.01648,-0.01816,-0.01373,0.00092,-0.04074,-0.00839,0.01129,-0.03387
7.1025,-0.00992,-0.02151,-0.01556,0.01678,-0.01633,-0.03967,-0.01129,0.00504,-0.01526,-0.01831,-0.01266,0.00076,-0.04456,-0.0058,0.01129,-0.03342
7.103,-0.00839,-0.02884,-0.01373,0.02701,-0.01907,-0.04089,-0.01434,0.0058,-0.01434,-0.01846,-0.01205,0.0029,-0.05249,-0.0058,0.00854,-0.03281
7.1035,-0.00229,-0.03891,-0.01328,0.01709,-0.01923,-0.04257,-0.01923,0.0058,-0.0145,-0.01984,-0.01343,0.00366,-0.05737,-0.00809,0.00763,-0.0325
7.104,0.00381,-0.05539,-0.01938,0.00244,-0.01923,-0.04364,-0.02441,0.00549,-0.01465,-0.02121,-0.0148,0.00305,-0.05539,-0.0119,0.00854,-0.03342
7.1045,0.00748,-0.07874,-0.03372,-0.00885,-0.01663,-0.0444,-0.02808,0.00702,-0.01465,-0.02274,-0.01541,0.00244,-0.04868,-0.0145,0.01038,-0.03571
7.105,0.00702,-0.0975,-0.05219,-0.0238,-0.01434,-0.04272,-0.02747,0.00992,-0.01602,-0.02625,-0.01495,0.00397,-0.04211,-0.01648,0.01144,-0.03677
7.1055,0.00275,-0.09918,-0.06622,-0.05264,-0.01343,-0.04089,-0.02197,0.01175,-0.01755,-0.0238,-0.01587,0.00412,-0.03616,-0.01831,0.01068,-0.0351
7.106,-0.00275,-0.08545,-0.07263,-0.07965,-0.0148,-0.04257,-0.01511,0.00992,-0.01785,-0.02258,-0.01678,0.00305,-0.03174,-0.01984,0.00961,-0.03311
7.1065,-0.00778,-0.06805,-0.07172,-0.07858,-0.01831,-0.0473,-0.01236,0.00702,-0.01617,-0.02213,-0.01587,0.00275,-0.02914,-0.02106,0.00778,-0.03265
7.107,-0.01251,-0.05493,-0.06561,-0.04456,-0.02136,-0.0499,-0.0145,0.0061,-0.01434,-0.02243,-0.01328,0.00259,-0.02792,-0.02136,0.00565,-0.03372
7.1075,-0.01755,-0.04364,-0.05478,0.00214,-0.02258,-0.04959,-0.0177,0.009,-0.01541,-0.02304,-0.01266,0.00336,-0.03189,-0.02274,0.00519,-0.03525
7.108,-0.0238,-0.03174,-0.04395,0.03937,-0.02563,-0.04929,-0.01801,0.0119,-0.01816,-0.02441,-0.01541,0.00275,-0.03845,-0.02625,0.00488,-0.0351
7.1085,-0.03021,-0.0206,-0.03708,0.04669,-0.02548,-0.05096,-0.01602,0.01114,-0.01846,-0.02457,-0.0174,0.00244,-0.04196,-0.02838,0.00381,-0.03464
7.109,-0.03387,-0.01251,-0.0293,0.0119,-0.02594,-0.05569,-0.01617,0.00839,-0.01709,-0.02625,-0.0174,0.00183,-0.03586,-0.02869,0.00397,-0.03372
7.1095,-0.03601,-0.00931,-0.01816,-0.05219,-0.02533,-0.05981,-0.01816,0.009,-0.01587,-0.02411,-0.01633,0.00305,-0.02518,-0.0267,0.00427,-0.03265
7.11,-0.03708,-0.00977,-0.00504,-0.10712,-0.0264,-0.06302,-0.01801,0.01312,-0.01572,-0.02319,-0.01511,0.00412,-0.01801,-0.0235,0.00458,-0.0322
7.1105,-0.03876,-0.01175,0.00641,-0.12848,-0.02716,-0.06226,-0.01678,0.01801,-0.01556,-0.02197,-0.01358,0.00565,-0.02197,-0.01999,0.00443,-0.03448
7.111,-0.03754,-0.01328,0.01389,-0.1239,-0.02777,-0.05798,-0.01709,0.02029,-0.01511,-0.02029,-0.01297,0.0061,-0.03204,-0.01801,0.00458,-0.03677
7.1115,-0.03296,-0.01541,0.01892,-0.10223,-0.02762,-0.05188,-0.01938,0.01938,-0.01389,-0.01801,-0.01419,0.0058,-0.03967,-0.01862,0.00443,-0.03723
7.112,-0.02899,-0.02106,0.01755,-0.05707,-0.02853,-0.0499,-0.02136,0.01846,-0.01373,-0.01724,-0.01511,0.00427,-0.03677,-0.01999,0.00473,-0.03677
7.1125,-0.02777,-0.03128,0.00366,0.00198,-0.02823,-0.05096,-0.01831,0.01968,-0.01297,-0.0174,-0.01434,0.00214,-0.02563,-0.02167,0.0058,-0.03647
7.113,-0.02686,-0.04227,-0.0235,0.02487,-0.0267,-0.05432,-0.01343,0.02304,-0.01236,-0.0174,-0.01389,0.00076,-0.01251,-0.0235,0.00519,-0.03677
7.1135,-0.03387,-0.04929,-0.05646,-0.02747,-0.02716,-0.05661,-0.009,0.02609,-0.01343,-0.0177,-0.01465,0.00015,-0.00473,-0.02365,0.00381,-0.03708
7.114,-0.05951,-0.05386,-0.08194,-0.11963,-0.03006,-0.05508,-0.00717,0.02594,-0.01495,-0.01663,-0.01434,0.00092,-0.0058,-0.02319,0.00259,-0.03784
7.1145,-0.0972,-0.05798,-0.09277,-0.15945,-0.03204,-0.0528,-0.00778,0.02411,-0.01541,-0.01648,-0.01511,0.00183,-0.01633,-0.02289,0.00198,-0.03967
7.115,-0.12009,-0.06042,-0.09033,-0.10712,-0.03525,-0.05051,-0.00961,0.02121,-0.01495,-0.0177,-0.01572,0.00137,-0.03204,-0.02594,0.0029,-0.04211
7.1155,-0.11032,-0.06012,-0.07797,-0.02655,-0.03632,-0.05219,-0.01297,0.01755,-0.0148,-0.01938,-0.01694,0.00092,-0.0473,-0.02884,0.00366,-0.04196
7.116,-0.07721,-0.05814,-0.05859,0.01038,-0.03662,-0.05478,-0.0177,0.01404,-0.01617,-0.02045,-0.01907,0.00275,-0.05676,-0.02808,0.00336,-0.04074
7.1165,-0.03799,-0.056,-0.03372,0.01846,-0.03647,-0.05676,-0.02335,0.01007,-0.01648,-0.02014,-0.01938,0.0061,-0.05783,-0.02441,0.0032,-0.03906
7.117,0.00107,-0.05508,-0.00443,0.06256,-0.03815,-0.05844,-0.02808,0.00504,-0.01633,-0.01755,-0.01801,0.00519,-0.05234,-0.0209,0.00153,-0.03922
7.1175,0.03647,-0.05356,0.0264,0.15762,-0.04028,-0.06134,-0.0296,-0.00153,-0.01541,-0.01724,-0.01617,0.00168,-0.04379,-0.01785,0.00137,-0.03983
7.118,0.05981,-0.05188,0.04501,0.2179,-0.04028,-0.06439,-0.03067,-0.00763,-0.01495,-0.01953,-0.01572,-0.00046,-0.03738,-0.01709,0.00183,-0.04089
7.1185,0.06683,-0.05066,0.03357,0.13824,-0.04013,-0.0679,-0.03052,-0.009,-0.01511,-0.02151,-0.01709,0.00015,-0.03372,-0.01801,0.00092,-0.04196
7.119,0.0621,-0.04929,-0.01968,-0.08362,-0.04028,-0.07019,-0.02991,-0.00153,-0.01495,-0.02151,-0.01877,0.00198,-0.02991,-0.01923,-0.00061,-0.04288
7.1195,0.05081,-0.04837,-0.09491,-0.33905,-0.04044,-0.07523,-0.02472,0.00992,-0.0145,-0.01907,-0.01877,0.00229,-0.02625,-0.01907,-0.00092,-0.04379
7.12,0.0354,-0.05142,-0.15411,-0.49393,-0.04135,-0.08163,-0.01709,0.01556,-0.01495,-0.01816,-0.01694,0.00351,-0.0238,-0.0174,0.00046,-0.04288
7.1205,0.01602,-0.06042,-0.17044,-0.45364,-0.04105,-0.08713,-0.01053,0.01312,-0.01465,-0.01984,-0.0145,0.00488,-0.02441,-0.01587,0.00229,-0.04181
7.121,0.00031,-0.07156,-0.14603,-0.20706,-0.04105,-0.0882,-0.00702,0.00916,-0.0145,-0.01984,-0.01266,0.00626,-0.02792,-0.01572,0.00259,-0.04059
7.1215,-0.00641,-0.07843,-0.09384,0.12909,-0.03967,-0.08774,-0.00198,0.01022,-0.01434,-0.01785,-0.0116,0.0058,-0.03006,-0.01526,0.00214,-0.04135
7.122,-0.00549,-0.08057,-0.02594,0.36819,-0.03723,-0.08698,0.00137,0.01114,-0.01526,-0.01984,-0.0116,0.00504,-0.02975,-0.01694,0.00183,-0.04242
7.1225,0.00046,-0.07828,0.04227,0.39474,-0.03387,-0.08438,0.00031,0.00793,-0.01755,-0.02075,-0.01251,0.00519,-0.02808,-0.01862,0.00244,-0.04395
7.123,0.01038,-0.07355,0.09171,0.24307,-0.03204,-0.07858,-0.00427,0.00229,-0.01923,-0.02014,-0.01328,0.00504,-0.02777,-0.02014,0.00305,-0.04349
7.1235,0.02792,-0.06546,0.11017,0.04547,-0.03143,-0.07339,-0.00961,-0.0029,-0.01938,-0.0209,-0.01556,0.00504,-0.02899,-0.02151,0.0032,-0.04333
7.124,0.04807,-0.05539,0.10223,-0.08041,-0.03021,-0.07126,-0.01572,-0.00641,-0.01846,-0.02121,-0.01678,0.00336,-0.03021,-0.02075,0.00198,-0.0441
7.1245,0.05692,-0.04684,0.08377,-0.10712,-0.0296,-0.06943,-0.0267,-0.01328,-0.01831,-0.0209,-0.01617,0.00244,-0.02975,-0.01999,0.00153,-0.04501
7.125,0.04684,-0.04364,0.06638,-0.06866,-0.03021,-0.06592,-0.03708,-0.0264,-0.01785,-0.01862,-0.0148,0.00244,-0.02731,-0.02014,0.00122,-0.04547
7.1255,0.02533,-0.04517,0.05051,0.00214,-0.03189,-0.06393,-0.04044,-0.03876,-0.01724,-0.01984,-0.01419,0.00305,-0.02457,-0.02121,0.00259,-0.04669
7.126,0.01007,-0.04501,0.03433,0.09613,-0.03464,-0.06149,-0.03326,-0.03922,-0.01694,-0.02197,-0.01358,0.00214,-0.02075,-0.02151,0.00336,-0.04654
7.1265,0.00824,-0.04333,0.01572,0.19745,-0.03647,-0.06226,-0.01984,-0.02502,-0.01724,-0.02243,-0.01266,0.00183,-0.01709,-0.02182,0.00153,-0.04593
7.127,0.01328,-0.04044,-0.00366,0.25146,-0.03815,-0.06393,-0.01053,-0.00977,-0.01755,-0.02319,-0.01236,0.00137,-0.01694,-0.02182,0.00031,-0.04547
7.1275,0.01663,-0.03799,-0.02197,0.19882,-0.03952,-0.0618,-0.00702,-0.00504,-0.0174,-0.02487,-0.0119,0.00198,-0.02136,-0.02182,-0.00015,-0.047
7.128,0.01984,-0.03357,-0.03616,0.04669,-0.0386,-0.05829,-0.00732,-0.00946,-0.01785,-0.02228,-0.01236,0.00351,-0.02838,-0.02258,0.00305,-0.04837
7.1285,0.02991,-0.02823,-0.04593,-0.12238,-0.03479,-0.05707,-0.00687,-0.01511,-0.01831,-0.02289,-0.0119,0.00534,-0.03403,-0.02304,0.00427,-0.04929
7.129,0.04868,-0.02609,-0.05096,-0.21378,-0.03326,-0.05707,-0.00641,-0.01816,-0.01801,-0.02441,-0.01144,0.00519,-0.03677,-0.02258,0.00427,-0.04791
7.1295,0.05981,-0.02853,-0.05325,-0.19165,-0.03418,-0.05676,-0.009,-0.01831,-0.01694,-0.02274,-0.01083,0.00412,-0.03662,-0.02289,0.00427,-0.04471
7.13,0.04852,-0.03403,-0.05249,-0.09491,-0.03616,-0.05295,-0.0174,-0.02197,-0.01526,-0.01999,-0.01099,0.00443,-0.03403,-0.02274,0.00458,-0.04318
7.1305,0.01678,-0.04028,-0.05203,-0.00427,-0.03555,-0.04974,-0.02121,-0.03113,-0.0148,-0.01862,-0.01114,0.00656,-0.03357,-0.02151,0.00351,-0.04501
7.131,-0.01465,-0.04593,-0.0531,0.00778,-0.03616,-0.05066,-0.0177,-0.03891,-0.01511,-0.01556,-0.01205,0.00839,-0.03494,-0.01953,0.0029,-0.04715
7.1315,-0.03174,-0.05142,-0.05569,-0.07172,-0.03876,-0.05234,-0.01328,-0.03815,-0.01572,-0.01678,-0.01205,0.00809,-0.03632,-0.01877,0.00198,-0.0473
7.132,-0.03464,-0.05493,-0.05844,-0.18478,-0.04303,-0.0531,-0.01404,-0.0296,-0.01709,-0.01862,-0.0119,0.00732,-0.03662,-0.01785,0.00305,-0.04517
7.1325,-0.03098,-0.05753,-0.06271,-0.24063,-0.04623,-0.04974,-0.01953,-0.02411,-0.01846,-0.02029,-0.01114,0.00824,-0.03632,-0.01724,0.00504,-0.04471
7.133,-0.02701,-0.05707,-0.07324,-0.18982,-0.0473,-0.047,-0.02426,-0.02594,-0.01862,-0.01984,-0.01099,0.00885,-0.03525,-0.01617,0.00641,-0.04684
7.1335,-0.02411,-0.05417,-0.10101,-0.06668,-0.04578,-0.04883,-0.02045,-0.03006,-0.01801,-0.0238,-0.01068,0.00824,-0.03479,-0.01572,0.0061,-0.04715
7.134,-0.02228,-0.05096,-0.14954,0.06683,-0.04532,-0.05112,-0.00595,-0.03021,-0.01724,-0.02426,-0.01038,0.00778,-0.03571,-0.01694,0.00397,-0.04623
7.1345,-0.02045,-0.04852,-0.20981,0.1825,-0.04272,-0.05142,0.00549,-0.02777,-0.01724,-0.02121,-0.01175,0.00732,-0.03693,-0.01907,0.00275,-0.0444
7.135,-0.01999,-0.04456,-0.2626,0.27771,-0.04349,-0.04852,0.009,-0.02548,-0.0177,-0.02197,-0.01419,0.00702,-0.03799,-0.01999,0.00275,-0.04425
7.1355,-0.02075,-0.0354,-0.30243,0.33325,-0.04242,-0.04623,0.00793,-0.02182,-0.0177,-0.02411,-0.01694,0.00732,-0.03754,-0.0206,0.00366,-0.04532
7.136,-0.02548,-0.02441,-0.33737,0.31067,-0.04318,-0.04562,0.00946,-0.01617,-0.01663,-0.02151,-0.01785,0.00702,-0.03586,-0.01984,0.00381,-0.04517
7.1365,-0.03204,-0.02136,-0.36072,0.20523,-0.04272,-0.04822,0.01114,-0.01053,-0.0177,-0.02319,-0.01938,0.00839,-0.03387,-0.01846,0.00549,-0.04639
7.137,-0.03586,-0.03143,-0.3421,0.06149,-0.04105,-0.05051,0.00229,-0.00824,-0.02014,-0.02518,-0.01984,0.01068,-0.03235,-0.0177,0.00656,-0.04715
7.1375,-0.03708,-0.04715,-0.26627,-0.05997,-0.03891,-0.05234,-0.01953,-0.0119,-0.02167,-0.02533,-0.02014,0.01099,-0.03265,-0.01694,0.00488,-0.04761
7.138,-0.03601,-0.05676,-0.15579,-0.1326,-0.03723,-0.05142,-0.04242,-0.01862,-0.02213,-0.02075,-0.01877,0.00977,-0.03433,-0.01633,0.0032,-0.04837
7.1385,-0.02823,-0.0563,-0.04608,-0.17105,-0.03815,-0.05081,-0.05295,-0.02319,-0.02106,-0.01984,-0.01785,0.00961,-0.03448,-0.01678,0.00198,-0.04837
7.139,-0.009,-0.04974,0.05493,-0.20477,-0.03983,-0.05173,-0.04791,-0.02502,-0.0209,-0.02197,-0.01648,0.01129,-0.03342,-0.01846,0.00305,-0.04761
7.1395,0.00656,-0.04547,0.15579,-0.24277,-0.0415,-0.05463,-0.03403,-0.02274,-0.02075,-0.01831,-0.01572,0.01404,-0.03204,-0.01968,0.00488,-0.04654
7.14,-0.00351,-0.04684,0.25558,-0.25864,-0.04257,-0.05875,-0.02441,-0.01785,-0.02075,-0.01602,-0.01434,0.01556,-0.03296,-0.01907,0.00626,-0.04501
7.1405,-0.04074,-0.05402,0.34027,-0.22202,-0.04318,-0.05875,-0.02319,-0.01343,-0.0206,-0.01556,-0.01373,0.01648,-0.03448,-0.01709,0.00671,-0.04425
7.141,-0.08057,-0.06287,0.39276,-0.12909,-0.04227,-0.05585,-0.02289,-0.00977,-0.02151,-0.01434,-0.01541,0.01709,-0.03418,-0.01663,0.00412,-0.04333
7.1415,-0.10391,-0.06836,0.40176,0.01022,-0.03922,-0.05264,-0.0206,-0.00717,-0.02136,-0.01434,-0.01724,0.0177,-0.03204,-0.01678,0.00198,-0.04517
7.142,-0.10895,-0.06683,0.36591,0.17746,-0.03555,-0.05219,-0.01724,-0.0061,-0.02121,-0.01312,-0.01816,0.01526,-0.0293,-0.01801,0.00229,-0.0473
7.1425,-0.10651,-0.05829,0.29739,0.32242,-0.03281,-0.05325,-0.01419,-0.01129,-0.02121,-0.01282,-0.01602,0.01328,-0.02823,-0.01953,0.00412,-0.04898
7.143,-0.0972,-0.04669,0.21362,0.37506,-0.03265,-0.05615,-0.00854,-0.01938,-0.02075,-0.01312,-0.01358,0.01266,-0.02884,-0.0206,0.00488,-0.04807
7.1435,-0.0795,-0.0351,0.12695,0.31647,-0.03326,-0.05966,0.00061,-0.02502,-0.02121,-0.00961,-0.01434,0.01312,-0.03082,-0.02014,0.0058,-0.04669
7.144,-0.05585,-0.02396,0.05295,0.19577,-0.03448,-0.06012,0.01205,-0.02502,-0.01984,-0.0145,-0.01724,0.01282,-0.03036,-0.01877,0.00671,-0.04532
7.1445,-0.03296,-0.0148,0.0,0.07782,-0.03372,-0.05768,0.02441,-0.0293,-0.01968,-0.01373,-0.01862,0.01282,-0.02945,-0.01755,0.00595,-0.04517
7.145,-0.01282,-0.00854,-0.03296,-0.0119,-0.03189,-0.05692,0.03006,-0.04562,-0.01999,-0.01022,-0.01755,0.01312,-0.02975,-0.01678,0.00412,-0.04623
7.1455,0.01022,-0.00565,-0.05249,-0.07751,-0.02762,-0.05844,0.02701,-0.06058,-0.0206,-0.01328,-0.01678,0.0145,-0.0296,-0.0177,0.00397,-0.047
7.146,0.03815,-0.0058,-0.06699,-0.1178,-0.02487,-0.06027,0.01526,-0.04745,-0.02106,-0.01602,-0.01678,0.01511,-0.02945,-0.01862,0.00626,-0.04791
7.1465,0.06378,-0.00656,-0.07874,-0.1088,-0.02548,-0.06226,0.00046,0.00687,-0.02167,-0.01526,-0.01678,0.01419,-0.02731,-0.01755,0.0087,-0.0473
7.147,0.07492,-0.00854,-0.08591,-0.05737,-0.02869,-0.0647,-0.01144,0.07889,-0.02213,-0.01297,-0.01648,0.01404,-0.02502,-0.01694,0.00885,-0.04715
7.1475,0.06699,-0.01556,-0.08774,-0.0235,-0.03098,-0.06699,-0.01724,0.12115,-0.02243,-0.01022,-0.01389,0.01556,-0.02609,-0.01755,0.00687,-0.047
7.148,0.04578,-0.03098,-0.08026,-0.04181,-0.03036,-0.065,-0.01892,0.10712,-0.02151,-0.00992,-0.01068,0.01709,-0.02777,-0.02014,0.00549,-0.04745
7.1485,0.02518,-0.05173,-0.06653,-0.0676,-0.02808,-0.06317,-0.02457,0.04639,-0.02014,-0.00702,-0.01129,0.0174,-0.02899,-0.01984,0.00534,-0.04913
7.149,0.01053,-0.06577,-0.05173,-0.04974,-0.02808,-0.06241,-0.03891,-0.02625,-0.01801,-0.00778,-0.01465,0.01663,-0.02869,-0.0174,0.00565,-0.04837
7.1495,0.00061,-0.065,-0.04623,0.00381,-0.03113,-0.0647,-0.05493,-0.06897,-0.01648,-0.00595,-0.0174,0.01633,-0.0293,-0.01556,0.00702,-0.04547
7.15,-0.00748,-0.05081,-0.05127,0.05798,-0.03265,-0.06668,-0.06302,-0.04608,-0.01648,-0.00534,-0.0177,0.01587,-0.03128,-0.01709,0.00732,-0.04364
7.1505,-0.0177,-0.03159,-0.06271,0.0827,-0.03067,-0.06775,-0.06134,0.03021,-0.0174,-0.00854,-0.01556,0.01526,-0.03143,-0.01877,0.00717,-0.04425
7.151,-0.03128,-0.01526,-0.07187,0.04089,-0.02792,-0.06821,-0.05402,0.09277,-0.01831,-0.00824,-0.01511,0.01328,-0.03326,-0.01877,0.00656,-0.04593
7.1515,-0.04745,-0.00458,-0.07736,-0.07736,-0.02899,-0.06729,-0.04517,0.08728,-0.01678,-0.00961,-0.01495,0.01266,-0.03433,-0.01785,0.00809,-0.04593
7.152,-0.06592,0.00092,-0.08118,-0.21286,-0.03159,-0.06653,-0.03815,0.03571,-0.01434,-0.00687,-0.01373,0.01282,-0.03525,-0.01801,0.00931,-0.04333
7.1525,-0.08469,0.00519,-0.08377,-0.27374,-0.03326,-0.06729,-0.03906,-0.0061,-0.01312,-0.00626,-0.01328,0.01221,-0.03448,-0.01938,0.00809,-0.04211
7.153,-0.09476,0.00809,-0.08652,-0.22476,-0.03311,-0.06882,-0.04395,-0.02029,-0.01266,-0.00732,-0.01495,0.00916,-0.0354,-0.01999,0.00641,-0.0415
7.1535,-0.09216,0.00793,-0.09064,-0.12589,-0.03052,-0.0708,-0.04242,-0.02502,-0.01312,-0.0061,-0.0177,0.00519,-0.03693,-0.01999,0.00565,-0.04074
7.154,-0.0824,0.00076,-0.09949,-0.07446,-0.02899,-0.07065,-0.02808,-0.0351,-0.01419,-0.0029,-0.01877,0.00137,-0.03891,-0.01984,0.00549,-0.03891
7.1545,-0.0679,-0.00793,-0.11261,-0.10117,-0.02945,-0.06989,-0.00595,-0.04181,-0.01495,-0.0029,-0.01862,-0.00092,-0.03891,-0.01801,0.00443,-0.03708
7.155,-0.05447,-0.01541,-0.12772,-0.14236,-0.03021,-0.07156,0.01617,-0.0383,-0.01434,-0.00092,-0.01846,-0.00381,-0.0383,-0.01724,0.00198,-0.03571
7.1555,-0.03159,-0.02335,-0.13779,-0.12283,-0.03036,-0.07019,0.03387,-0.02792,-0.01312,-0.00168,-0.01785,-0.00626,-0.03723,-0.01892,0.00107,-0.03922
7.156,0.00565,-0.03723,-0.13718,-0.04242,-0.02838,-0.06485,0.04684,-0.02151,-0.0119,-0.00214,-0.01694,-0.00671,-0.03647,-0.02121,0.0029,-0.04456
7.1565,0.04929,-0.05585,-0.12711,0.04028,-0.02914,-0.06119,0.0502,-0.01801,-0.01114,-0.00412,-0.01633,-0.00687,-0.03571,-0.02151,0.00397,-0.04974
7.157,0.07675,-0.07111,-0.11078,0.08133,-0.03006,-0.06302,0.03738,-0.01251,-0.0116,-0.00275,-0.01633,-0.00916,-0.03616,-0.01984,0.00198,-0.05066
7.1575,0.07584,-0.07614,-0.09216,0.0972,-0.03006,-0.06821,0.01282,-0.00107,-0.0119,-0.00458,-0.01663,-0.01312,-0.03662,-0.01755,0.00061,-0.04929
7.158,0.05661,-0.07385,-0.07339,0.12924,-0.02777,-0.07233,-0.0238,0.01022,-0.0119,-0.00473,-0.01678,-0.0148,-0.03677,-0.01846,0.00122,-0.04791
7.1585,0.03555,-0.06958,-0.05661,0.19577,-0.02579,-0.07339,-0.06195,0.01434,-0.01144,-0.00626,-0.01663,-0.01175,-0.03586,-0.02014,0.00412,-0.04715
7.159,0.02274,-0.06607,-0.04486,0.27786,-0.02655,-0.07126,-0.0853,0.0116,-0.00977,-0.00549,-0.01511,-0.00793,-0.03647,-0.02014,0.0058,-0.04669
7.1595,0.01266,-0.06378,-0.03922,0.32288,-0.02853,-0.06912,-0.07706,0.00641,-0.00916,-0.00427,-0.01511,-0.00549,-0.03677,-0.01892,0.00504,-0.04562
7.16,0.00748,-0.06363,-0.0383,0.26016,-0.02975,-0.06775,-0.04181,0.0029,-0.009,-0.00504,-0.0145,-0.00397,-0.03662,-0.0174,0.0029,-0.04425
7.1605,0.01266,-0.06516,-0.03937,0.05844,-0.02838,-0.06836,-0.01007,-0.00259,-0.00885,-0.00534,-0.0148,-0.00244,-0.0351,-0.01755,0.00275,-0.04379
7.161,0.03204,-0.06348,-0.03967,-0.21225,-0.0267,-0.06897,-0.00061,-0.01022,-0.00839,-0.00931,-0.01984,-0.00107,-0.03311,-0.01831,0.0032,-0.0444
7.1615,0.05615,-0.05737,-0.0383,-0.42496,-0.02686,-0.06912,-0.00793,-0.01526,-0.00824,-0.01053,-0.02716,-0.00107,-0.03281,-0.0174,0.00504,-0.04471
7.162,0.07584,-0.04822,-0.03601,-0.50888,-0.02731,-0.06897,-0.02045,-0.01297,-0.00793,-0.01007,-0.03525,-0.00275,-0.03342,-0.01633,0.00671,-0.04349
7.1625,0.08057,-0.04059,-0.03372,-0.48904,-0.02823,-0.06775,-0.02899,-0.009,-0.00793,-0.00885,-0.04135,-0.0058,-0.03387,-0.01373,0.00671,-0.04288
7.163,0.06943,-0.0351,-0.0325,-0.42709,-0.02853,-0.06409,-0.03128,-0.01251,-0.00839,-0.01007,-0.04547,-0.00778,-0.03357,-0.01099,0.00641,-0.04288
7.1635,0.04623,-0.03006,-0.03494,-0.35263,-0.02991,-0.05829,-0.02487,-0.02045,-0.00824,-0.00992,-0.04745,-0.00931,-0.03403,-0.00977,0.00534,-0.04517
7.164,0.02304,-0.02563,-0.03906,-0.24643,-0.03098,-0.05234,-0.01892,-0.02548,-0.00839,-0.01114,-0.04288,-0.01068,-0.03418,-0.01038,0.00443,-0.04761
7.1645,0.01053,-0.02548,-0.04456,-0.09338,-0.03265,-0.05005,-0.02014,-0.02319,-0.00702,-0.01129,-0.03281,-0.01205,-0.03586,-0.01236,0.00488,-0.04913
7.165,0.00763,-0.03021,-0.04944,0.07782,-0.03357,-0.05188,-0.02945,-0.01617,-0.00748,-0.00809,-0.01663,-0.01373,-0.03632,-0.01419,0.00656,-0.04807
7.1655,0.00717,-0.03662,-0.0528,0.23636,-0.03311,-0.05478,-0.03845,-0.00595,-0.01007,-0.00931,0.00198,-0.01633,-0.03769,-0.01556,0.00809,-0.04608
7.166,0.00732,-0.04364,-0.05615,0.36713,-0.03326,-0.056,-0.03876,0.00397,-0.01465,-0.0119,0.01801,-0.01846,-0.03754,-0.0174,0.00885,-0.04593
7.1665,0.00824,-0.0499,-0.06195,0.44357,-0.03082,-0.056,-0.03128,0.00977,-0.01816,-0.01266,0.02777,-0.01953,-0.0383,-0.01999,0.00854,-0.0473
7.167,0.01007,-0.05402,-0.07004,0.4274,-0.03067,-0.05447,-0.02151,0.00916,-0.02151,-0.01266,0.02792,-0.01907,-0.03891,-0.02075,0.0087,-0.04776
7.1675,0.01007,-0.05219,-0.07813,0.31113,-0.0322,-0.04883,-0.01068,0.0032,-0.0235,-0.01221,0.02136,-0.01892,-0.03876,-0.02029,0.00885,-0.0473
7.168,0.0087,-0.04669,-0.07965,0.12817,-0.0325,-0.04257,-0.00122,-0.00275,-0.02426,-0.01114,0.01541,-0.01846,-0.03586,-0.01999,0.00809,-0.0473
7.1685,0.0058,-0.04135,-0.07172,-0.05112,-0.03128,-0.04242,0.00717,-0.00534,-0.02167,-0.01312,0.00992,-0.01755,-0.03281,-0.02258,0.00778,-0.04791
7.169,0.00275,-0.03815,-0.05539,-0.1413,-0.03067,-0.04547,0.01785,-0.00427,-0.01831,-0.01724,0.00656,-0.01511,-0.03372,-0.02762,0.00671,-0.04974
7.1695,0.00214,-0.03738,-0.03876,-0.11597,-0.03021,-0.04562,0.03342,-0.00427,-0.01602,-0.01923,0.00275,-0.01266,-0.03708,-0.03372,0.00732,-0.0499
7.17,0.0032,-0.03632,-0.02655,-0.04822,-0.03082,-0.03998,0.05234,-0.0058,-0.01526,-0.01968,0.00076,-0.01694,-0.03754,-0.03677,0.00916,-0.04791
7.1705,0.00137,-0.03616,-0.02319,-0.02396,-0.0322,-0.03403,0.07034,-0.00595,-0.01495,-0.0209,-0.00107,-0.03372,-0.03647,-0.03479,0.01007,-0.04547
7.171,-0.00183,-0.03754,-0.0264,-0.05051,-0.03448,-0.0296,0.07645,-0.00305,-0.01495,-0.02136,-0.00473,-0.05783,-0.0354,-0.03098,0.00992,-0.04395
7.1715,-0.00519,-0.03967,-0.03082,-0.07736,-0.03693,-0.02808,0.06165,-0.00061,-0.01495,-0.02365,-0.00992,-0.07202,-0.0351,-0.02701,0.00961,-0.04211
7.172,-0.00641,-0.04242,-0.03204,-0.07675,-0.03708,-0.02808,0.02945,-0.00366,-0.01556,-0.02472,-0.01648,-0.06973,-0.03494,-0.02228,0.00946,-0.04013
7.1725,-0.00549,-0.04349,-0.03067,-0.05753,-0.03494,-0.02823,-0.00305,-0.01144,-0.01465,-0.02563,-0.02106,-0.05981,-0.03464,-0.01892,0.00946,-0.03891
7.173,-0.00412,-0.04303,-0.02899,-0.03174,-0.03403,-0.02747,-0.02838,-0.0177,-0.01205,-0.02701,-0.02258,-0.05066,-0.03281,-0.01663,0.00824,-0.03922
7.1735,-0.00443,-0.04272,-0.02808,-0.00275,-0.03418,-0.02426,-0.05661,-0.01709,-0.01038,-0.02579,-0.02228,-0.04196,-0.03311,-0.01801,0.0087,-0.03998
7.174,-0.0061,-0.04303,-0.02518,0.01587,-0.03571,-0.01999,-0.10513,-0.009,-0.01022,-0.02441,-0.0206,-0.02747,-0.03311,-0.02014,0.00946,-0.04105
7.1745,-0.00595,-0.04456,-0.01862,0.01511,-0.03693,-0.0177,-0.15747,0.00168,-0.01083,-0.02151,-0.01892,-0.00412,-0.03265,-0.01984,0.00992,-0.04196
7.175,-0.00565,-0.04547,-0.00977,0.01892,-0.03769,-0.0148,-0.16586,0.01251,-0.01175,-0.01999,-0.01816,0.02518,-0.03296,-0.01755,0.00931,-0.04211
7.1755,-0.00778,-0.04517,-0.00198,0.06836,-0.03662,-0.01312,-0.10513,0.01923,-0.01205,-0.01968,-0.01892,0.05371,-0.03174,-0.01495,0.00854,-0.04303
7.176,-0.01389,-0.04364,0.00214,0.14694,-0.03418,-0.01297,-0.01801,0.02014,-0.01221,-0.01907,-0.01892,0.07156,-0.03235,-0.01526,0.00732,-0.04486
7.1765,-0.0209,-0.04211,0.00259,0.18188,-0.0322,-0.01328,0.02548,0.01404,-0.01297,-0.01862,-0.01968,0.07339,-0.03342,-0.0174,0.00763,-0.04684
7.177,-0.02411,-0.0412,0.00031,0.14236,-0.03174,-0.01373,0.02777,0.00443,-0.01465,-0.01801,-0.01953,0.0618,-0.03464,-0.01877,0.00885,-0.04776
7.1775,-0.02518,-0.04089,-0.00122,0.08194,-0.03159,-0.01526,0.03937,-0.00565,-0.01495,-0.01785,-0.01831,0.04852,-0.03464,-0.01801,0.00931,-0.047
7.178,-0.02594,-0.0412,-0.00183,0.05493,-0.03174,-0.01572,0.08087,-0.01602,-0.01343,-0.01678,-0.01877,0.03754,-0.03342,-0.01617,0.00977,-0.04501
7.1785,-0.0296,-0.04211,-0.00168,0.05295,-0.03052,-0.01404,0.10742,-0.0238,-0.0119,-0.01633,-0.01984,0.02747,-0.03235,-0.01663,0.00916,-0.04318
7.179,-0.0325,-0.04562,-0.00504,0.04349,-0.03082,-0.00885,0.08255,-0.03235,-0.0116,-0.01572,-0.02106,0.01862,-0.03128,-0.01862,0.00961,-0.04288
7.1795,-0.03174,-0.05417,-0.01282,0.02426,-0.0322,-0.00412,0.02319,-0.03983,-0.01343,-0.01511,-0.01984,0.01114,-0.02869,-0.01846,0.00885,-0.04242
7.18,-0.02838,-0.06683,-0.02014,0.00275,-0.03189,-0.0029,-0.02472,-0.02792,-0.01389,-0.01465,-0.01938,0.00244,-0.02731,-0.01587,0.00916,-0.04227
7.1805,-0.02548,-0.0798,-0.02457,-0.03738,-0.03036,-0.00305,-0.03342,0.01663,-0.01343,-0.01373,-0.0206,-0.01068,-0.02762,-0.01556,0.00931,-0.04227
7.181,-0.02243,-0.08301,-0.02548,-0.11429,-0.02838,-0.00366,-0.01221,0.06989,-0.01205,-0.01419,-0.02121,-0.03082,-0.02838,-0.01678,0.01053,-0.04166
7.1815,-0.01831,-0.07416,-0.02579,-0.21393,-0.02884,-0.0032,0.01007,0.08545,-0.0119,-0.01236,-0.01862,-0.06393,-0.02777,-0.0174,0.00931,-0.04044
7.182,-0.01495,-0.05859,-0.02563,-0.30243,-0.03021,-0.00198,0.01648,0.05356,-0.01205,-0.01358,-0.01556,-0.10941,-0.02731,-0.01862,0.00565,-0.04013
7.1825,-0.01358,-0.04272,-0.02594,-0.34668,-0.03143,-0.00046,0.00809,0.00839,-0.01266,-0.01526,-0.01511,-0.14221,-0.02625,-0.01923,0.00275,-0.04074
7.183,-0.0145,-0.03052,-0.03006,-0.31479,-0.0322,0.0,-0.00198,-0.0177,-0.01419,-0.01587,-0.0174,-0.12131,-0.02548,-0.01923,0.00259,-0.0415
7.1835,-0.01526,-0.0238,-0.0383,-0.19394,-0.03281,0.00305,-0.0061,-0.02106,-0.01587,-0.01678,-0.01617,-0.03143,-0.02487,-0.01785,0.0029,-0.03937
7.184,-0.01434,-0.01984,-0.04196,-0.03387,-0.0325,0.00687,-0.0058,-0.01801,-0.01663,-0.01648,-0.01495,0.06958,-0.02457,-0.01495,0.00214,-0.03738
7.1845,-0.01114,-0.01923,-0.0415,0.08423,-0.03082,0.00809,-0.00671,-0.01602,-0.01648,-0.01587,-0.0148,0.1004,-0.02441,-0.01434,0.00137,-0.03906
7.185,-0.00656,-0.01877,-0.03876,0.13687,-0.02991,0.0058,-0.00977,-0.01587,-0.01572,-0.01511,-0.01709,0.04776,-0.02151,-0.01526,0.00076,-0.04272
7.1855,-0.00107,-0.01862,-0.04059,0.17365,-0.03036,0.00259,-0.01343,-0.01709,-0.01495,-0.01572,-0.01785,-0.02792,-0.01816,-0.01801,0.00137,-0.04547
7.186,0.00397,-0.0177,-0.04807,0.22491,-0.0325,0.00275,-0.01755,-0.01709,-0.01495,-0.01709,-0.01831,-0.06729,-0.01617,-0.01862,0.00198,-0.04517
7.1865,0.00671,-0.01816,-0.05661,0.24094,-0.03189,0.0061,-0.02151,-0.01602,-0.01541,-0.01801,-0.01801,-0.07034,-0.01495,-0.01862,0.00046,-0.04333
7.187,0.00885,-0.01923,-0.06378,0.15442,-0.03021,0.00641,-0.02502,-0.01465,-0.01495,-0.01862,-0.01678,-0.06454,-0.01602,-0.01724,0.0,-0.04166
7.1875,0.00763,-0.02243,-0.07202,-0.02335,-0.03036,0.00107,-0.02991,-0.01572,-0.01495,-0.01999,-0.01556,-0.06042,-0.01816,-0.01633,0.00137,-0.04196
7.188,0.00244,-0.02945,-0.08453,-0.20676,-0.03098,-0.00488,-0.03586,-0.0177,-0.01373,-0.02274,-0.01572,-0.05661,-0.01953,-0.01633,0.00305,-0.04272
7.1885,-0.00534,-0.04196,-0.0972,-0.30991,-0.03235,-0.00549,-0.0386,-0.01846,-0.01419,-0.02289,-0.01602,-0.05264,-0.01999,-0.01678,0.00397,-0.0441
7.189,-0.01251,-0.05569,-0.10391,-0.28351,-0.03265,-0.0032,-0.03632,-0.01617,-0.01495,-0.02151,-0.01511,-0.04532,-0.01984,-0.01678,0.00443,-0.04395
7.1895,-0.01572,-0.06531,-0.10376,-0.14771,-0.03204,0.00015,-0.03021,-0.01282,-0.01495,-0.02106,-0.01328,-0.02457,-0.02029,-0.01572,0.00534,-0.04242
7.19,-0.01648,-0.06912,-0.09613,0.00793,-0.03281,0.00153,-0.02502,-0.01038,-0.0145,-0.02045,-0.01236,0.01007,-0.01968,-0.01556,0.00656,-0.0412
7.1905,-0.0174,-0.0676,-0.07935,0.07217,-0.03387,0.00137,-0.0206,-0.00916,-0.01358,-0.0206,-0.01373,0.0412,-0.01816,-0.01678,0.00687,-0.0412
7.191,-0.01801,-0.06424,-0.05249,0.01678,-0.03326,0.00046,-0.01495,-0.00732,-0.01373,-0.0209,-0.0148,0.05081,-0.01572,-0.01801,0.00732,-0.04059
7.1915,-0.01831,-0.06271,-0.01404,-0.08423,-0.0322,-0.00168,-0.00931,-0.00504,-0.01328,-0.02075,-0.01266,0.03784,-0.01343,-0.01877,0.00626,-0.04044
7.192,-0.01617,-0.06226,0.03143,-0.13397,-0.03052,-0.00275,-0.00656,-0.00412,-0.01312,-0.02121,-0.00992,0.01862,-0.01419,-0.01877,0.00595,-0.0412
7.1925,-0.01053,-0.06195,0.07248,-0.12024,-0.03098,-0.00168,-0.00778,-0.00504,-0.01282,-0.02106,-0.01038,0.00687,-0.01678,-0.01892,0.00702,-0.04227
7.193,-0.00504,-0.06073,0.09354,-0.09735,-0.0325,-0.00092,-0.01099,-0.00732,-0.01266,-0.01984,-0.01266,0.00534,-0.01892,-0.01831,0.00839,-0.04227
7.1935,0.00076,-0.05951,0.09125,-0.07462,-0.03448,-0.00336,-0.0145,-0.00778,-0.0119,-0.0174,-0.01389,0.00336,-0.01968,-0.01801,0.00671,-0.03952
7.194,0.00702,-0.06012,0.07339,0.00168,-0.0351,-0.00626,-0.01572,-0.00504,-0.01205,-0.01877,-0.01373,-0.00259,-0.01877,-0.01831,0.00351,-0.0383
7.1945,0.01434,-0.06241,0.04974,0.12604,-0.03616,-0.00793,-0.0148,-0.00168,-0.01312,-0.02045,-0.01389,-0.0061,-0.0177,-0.01938,0.00244,-0.03983
7.195,0.0177,-0.06485,0.02625,0.18295,-0.0354,-0.00931,-0.01556,0.00046,-0.01434,-0.02182,-0.0148,0.00336,-0.0174,-0.01968,0.00519,-0.04196
7.1955,0.01419,-0.05829,0.00626,0.1033,-0.03662,-0.00977,-0.01953,0.00061,-0.01572,-0.02121,-0.01602,0.02258,-0.01648,-0.02045,0.00748,-0.04196
7.196,0.00504,-0.04349,-0.00961,-0.00656,-0.03677,-0.00992,-0.02518,0.00031,-0.0148,-0.01785,-0.01556,0.03265,-0.01541,-0.01968,0.00671,-0.04074
7.1965,-0.0032,-0.02808,-0.02182,-0.00214,-0.03754,-0.01022,-0.0293,0.0,-0.01434,-0.01984,-0.01343,0.01862,-0.0148,-0.01846,0.00534,-0.03998
7.197,-0.00885,-0.01984,-0.03235,0.09842,-0.03616,-0.00977,-0.02792,0.00061,-0.0145,-0.02075,-0.01266,-0.01801,-0.01526,-0.01816,0.00549,-0.0415
7.1975,-0.01175,-0.0174,-0.04028,0.16418,-0.03586,-0.01068,-0.02335,0.00366,-0.0148,-0.02106,-0.01358,-0.06058,-0.01678,-0.01678,0.00748,-0.04196
7.198,-0.01129,-0.01587,-0.04547,0.14572,-0.03616,-0.01266,-0.01968,0.00931,-0.01511,-0.02167,-0.01465,-0.10071,-0.01633,-0.01617,0.00702,-0.04135
7.1985,-0.01022,-0.01556,-0.04501,0.09842,-0.03754,-0.01648,-0.02136,0.0116,-0.0148,-0.02106,-0.01328,-0.13611,-0.01572,-0.01633,0.00717,-0.03998
7.199,-0.01358,-0.0177,-0.0412,0.06302,-0.0383,-0.02274,-0.02747,0.00931,-0.01511,-0.02136,-0.01175,-0.16724,-0.01678,-0.01663,0.00992,-0.03998
7.1995,-0.02228,-0.02121,-0.03418,0.02899,-0.0383,-0.02823,-0.03525,0.00458,-0.01648,-0.02274,-0.01007,-0.18539,-0.01984,-0.01755,0.01266,-0.03983
7.2,-0.03494,-0.02228,-0.02899,-0.01129,-0.03723,-0.03342,-0.0412,0.00061,-0.01648,-0.02197,-0.00977,-0.16724,-0.02213,-0.0177,0.01404,-0.03922
7.2005,-0.04562,-0.01892,-0.02792,-0.04135,-0.03662,-0.03738,-0.04486,-0.00229,-0.01556,-0.02121,-0.01022,-0.08911,-0.0235,-0.01785,0.01297,-0.03723
7.201,-0.04776,-0.0119,-0.03006,-0.0473,-0.0354,-0.0415,-0.04333,-0.0032,-0.0148,-0.02243,-0.01022,0.03937,-0.02548,-0.01816,0.01312,-0.03494
7.2015,-0.04089,-0.00702,-0.03113,-0.03342,-0.03357,-0.04547,-0.03769,-0.0029,-0.01495,-0.02426,-0.01114,0.16586,-0.02762,-0.01816,0.01511,-0.03387
7.202,-0.03128,-0.00778,-0.03174,-0.01343,-0.03082,-0.04745,-0.03052,-0.00107,-0.01511,-0.02609,-0.01175,0.23499,-0.0296,-0.01907,0.01648,-0.03418
7.2025,-0.02411,-0.01373,-0.03418,0.00046,-0.02899,-0.04868,-0.02548,0.00076,-0.01678,-0.02609,-0.01175,0.23712,-0.02914,-0.01877,0.01663,-0.03586
7.203,-0.01984,-0.01923,-0.03876,0.00443,-0.02899,-0.05005,-0.02167,0.00412,-0.01709,-0.02594,-0.01114,0.19547,-0.02762,-0.01724,0.01617,-0.03769
7.2035,-0.01587,-0.02289,-0.04486,0.00732,-0.0296,-0.05188,-0.01831,0.00732,-0.01633,-0.02701,-0.01083,0.12512,-0.0264,-0.01755,0.01495,-0.04044
7.204,-0.00992,-0.02457,-0.0502,0.00854,-0.02853,-0.05173,-0.01556,0.00839,-0.01602,-0.02777,-0.01266,0.03448,-0.02838,-0.01938,0.01266,-0.04303
7.2045,-0.00626,-0.02472,-0.0531,-0.00366,-0.02884,-0.05096,-0.01129,0.00793,-0.01511,-0.02747,-0.01434,-0.05753,-0.0322,-0.02075,0.01144,-0.04349
7.205,-0.00656,-0.0238,-0.05432,-0.03311,-0.02899,-0.05234,-0.00702,0.00778,-0.01526,-0.02548,-0.01495,-0.12848,-0.03433,-0.02014,0.0116,-0.04227
7.2055,-0.01022,-0.0235,-0.05798,-0.05554,-0.02914,-0.05341,-0.00351,0.00763,-0.01694,-0.02716,-0.01358,-0.17075,-0.03403,-0.01816,0.0116,-0.04059
7.206,-0.01495,-0.02457,-0.06546,-0.0528,-0.02777,-0.05524,0.00092,0.00732,-0.0174,-0.02792,-0.01328,-0.1857,-0.03281,-0.0177,0.01068,-0.0383
7.2065,-0.0174,-0.02884,-0.07553,-0.03555,-0.02747,-0.05585,0.00549,0.0058,-0.01816,-0.02747,-0.01343,-0.17456,-0.03235,-0.0177,0.01083,-0.03815
7.207,-0.01694,-0.03387,-0.08469,-0.01999,-0.02853,-0.05646,0.00671,0.0029,-0.01785,-0.02563,-0.01328,-0.14557,-0.03311,-0.01694,0.01129,-0.04028
7.2075,-0.01205,-0.03754,-0.09109,0.00824,-0.0296,-0.05646,0.00137,-0.00076,-0.0174,-0.02533,-0.01343,-0.11398,-0.03296,-0.01755,0.01205,-0.0441
7.208,-0.00443,-0.03998,-0.09354,0.04349,-0.03052,-0.05585,-0.00656,-0.00412,-0.0177,-0.02594,-0.01343,-0.08408,-0.03082,-0.01801,0.01205,-0.0473
7.2085,0.00488,-0.04211,-0.09308,0.01648,-0.03189,-0.05783,-0.01022,-0.00519,-0.0177,-0.02823,-0.01358,-0.04196,-0.02899,-0.01801,0.01236,-0.04562
7.209,0.01419,-0.04532,-0.0856,-0.11505,-0.03281,-0.06027,-0.009,-0.0029,-0.01648,-0.03082,-0.01389,0.01953,-0.02991,-0.01785,0.01373,-0.03998
7.2095,0.0267,-0.04929,-0.0708,-0.26321,-0.03372,-0.06134,-0.00671,-0.00168,-0.01526,-0.03021,-0.01434,0.07446,-0.03098,-0.01694,0.01602,-0.0351
7.21,0.04379,-0.05173,-0.05219,-0.27863,-0.03616,-0.06042,-0.01068,-0.00168,-0.01648,-0.02975,-0.0145,0.08621,-0.03204,-0.01526,0.0177,-0.03586
7.2105,0.05936,-0.05264,-0.03586,-0.11368,-0.03876,-0.05997,-0.02121,-0.00305,-0.01984,-0.02869,-0.0145,0.06012,-0.03265,-0.01495,0.01862,-0.03815
7.211,0.05722,-0.05188,-0.02335,0.12543,-0.03967,-0.05997,-0.03418,-0.00366,-0.02014,-0.02792,-0.01419,0.03738,-0.03311,-0.0177,0.01816,-0.03937
7.2115,0.03601,-0.05188,-0.01282,0.27939,-0.03723,-0.0621,-0.04028,-0.00427,-0.01877,-0.02655,-0.0145,0.04547,-0.03372,-0.02106,0.01877,-0.04013
7.212,0.0116,-0.05203,-0.0058,0.26627,-0.03464,-0.06302,-0.03632,-0.00458,-0.0177,-0.02655,-0.01556,0.06851,-0.0322,-0.02213,0.01846,-0.03983
7.2125,-0.00092,-0.05188,-0.00229,0.12619,-0.03372,-0.06302,-0.02808,-0.00458,-0.01801,-0.02777,-0.01511,0.07187,-0.03128,-0.0209,0.01663,-0.03952
7.213,-0.00137,-0.05203,-0.00168,-0.02426,-0.03311,-0.06119,-0.02396,-0.00412,-0.01846,-0.02823,-0.01556,0.04532,-0.0322,-0.01984,0.01602,-0.03906
7.2135,0.00244,-0.05356,-0.00107,-0.09613,-0.03235,-0.05844,-0.02411,-0.00488,-0.0177,-0.02762,-0.01633,0.00534,-0.03403,-0.01984,0.01419,-0.03784
7.214,0.00504,-0.056,0.0,-0.10254,-0.03098,-0.0563,-0.0267,-0.00565,-0.01663,-0.02716,-0.01648,-0.02457,-0.03418,-0.01907,0.01434,-0.03769
7.2145,0.00656,-0.05676,-0.00046,-0.10956,-0.03067,-0.05554,-0.02655,-0.00671,-0.01617,-0.02655,-0.01572,-0.04181,-0.03098,-0.01846,0.01678,-0.03937
7.215,0.00778,-0.05463,-0.00351,-0.13168,-0.03052,-0.05585,-0.02045,-0.00977,-0.01648,-0.02625,-0.01587,-0.05539,-0.02914,-0.01709,0.01801,-0.04059
7.2155,0.00656,-0.05081,-0.00626,-0.11139,-0.03098,-0.05661,-0.01022,-0.01312,-0.01709,-0.02472,-0.01678,-0.06607,-0.02914,-0.01617,0.01846,-0.04074
7.216,0.00244,-0.04547,-0.01083,-0.01358,-0.02884,-0.05997,-0.00046,-0.01648,-0.01755,-0.02579,-0.01724,-0.06348,-0.03067,-0.01755,0.01816,-0.04028
7.2165,-0.0058,-0.04715,-0.0174,0.10849,-0.02945,-0.06332,0.00183,-0.01755,-0.01648,-0.02609,-0.01648,-0.03632,-0.03082,-0.02045,0.01831,-0.04059
7.217,-0.01587,-0.06195,-0.02655,0.1622,-0.03128,-0.06592,-0.00076,-0.01526,-0.01526,-0.02716,-0.01526,0.02228,-0.03036,-0.02228,0.0206,-0.04257
7.2175,-0.02365,-0.08362,-0.03601,0.12161,-0.03326,-0.06744,-0.00015,-0.01236,-0.01495,-0.02853,-0.01617,0.09766,-0.03082,-0.02304,0.02151,-0.0415
7.218,-0.02655,-0.1001,-0.04044,0.04761,-0.03372,-0.06699,0.00763,-0.0116,-0.01602,-0.02762,-0.01755,0.1503,-0.03189,-0.02274,0.02121,-0.03815
7.2185,-0.0267,-0.10452,-0.04089,0.00809,-0.03357,-0.06683,0.01602,-0.01328,-0.0177,-0.02777,-0.01816,0.15457,-0.03326,-0.02258,0.01907,-0.03479
7.219,-0.0264,-0.10162,-0.04089,0.0058,-0.03204,-0.0676,0.01907,-0.01465,-0.01816,-0.02823,-0.01724,0.12238,-0.03311,-0.02289,0.01801,-0.03387
7.2195,-0.02518,-0.09521,-0.0415,-0.00076,-0.02975,-0.06622,0.0148,-0.01343,-0.0174,-0.02762,-0.01648,0.08514,-0.03296,-0.02228,0.01846,-0.03601
7.22,-0.0206,-0.08163,-0.04227,-0.03296,-0.02777,-0.06744,0.00458,-0.0116,-0.01663,-0.02563,-0.01633,0.05493,-0.03296,-0.01999,0.02029,-0.03738
7.2205,-0.01266,-0.05936,-0.04547,-0.07095,-0.02792,-0.0676,-0.00488,-0.009,-0.01633,-0.02457,-0.01572,0.03113,-0.03265,-0.01953,0.0209,-0.0351
7.221,-0.00504,-0.03448,-0.05112,-0.08743,-0.02701,-0.06607,-0.00946,-0.0058,-0.01602,-0.02319,-0.01495,0.01419,-0.03265,-0.02014,0.02213,-0.0325
7.2215,0.00046,-0.01343,-0.06348,-0.07645,-0.02625,-0.06241,-0.01114,-0.00412,-0.0148,-0.02197,-0.01434,-0.00076,-0.03189,-0.02213,0.02335,-0.03159
7.222,0.00534,-0.00137,-0.08469,-0.04761,-0.02502,-0.05951,-0.01541,-0.0029,-0.01419,-0.02274,-0.01419,-0.02502,-0.03143,-0.02228,0.02441,-0.03235
7.2225,0.00931,0.00183,-0.10391,-0.00336,-0.02426,-0.06332,-0.02731,-0.00275,-0.01434,-0.0238,-0.01328,-0.05661,-0.03113,-0.0206,0.02457,-0.03296
7.223,0.00992,-0.00107,-0.10757,0.05157,-0.02319,-0.06866,-0.04272,-0.00198,-0.01602,-0.02396,-0.01129,-0.08072,-0.03128,-0.01816,0.02396,-0.03433
7.2235,0.00702,-0.0061,-0.09247,0.07843,-0.02274,-0.06958,-0.05737,-0.00076,-0.01663,-0.02548,-0.01083,-0.0882,-0.03189,-0.01785,0.02289,-0.03433
7.224,0.00397,-0.00793,-0.06393,0.03326,-0.02487,-0.06805,-0.06348,0.00046,-0.01694,-0.02487,-0.01236,-0.0798,-0.03265,-0.01999,0.02289,-0.03403
7.2245,0.00275,-0.00549,-0.03448,-0.0708,-0.02914,-0.06805,-0.05249,0.00198,-0.01678,-0.02457,-0.0145,-0.0528,-0.03357,-0.02014,0.02274,-0.0351
7.225,0.00275,-0.00107,-0.01221,-0.15305,-0.0325,-0.06927,-0.02411,0.00427,-0.01755,-0.0238,-0.01648,-0.00488,-0.0354,-0.01923,0.02213,-0.03754
7.2255,0.00153,-0.00214,-0.00061,-0.14114,-0.03326,-0.07187,0.00565,0.00671,-0.01709,-0.02411,-0.01663,0.05249,-0.03799,-0.01862,0.02121,-0.03922
7.226,0.0,-0.0116,0.00214,-0.04028,-0.03128,-0.07294,0.01633,0.00702,-0.01678,-0.02319,-0.01572,0.103,-0.03967,-0.01831,0.02075,-0.03967
7.2265,0.0,-0.02472,0.00504,0.08209,-0.02899,-0.07126,0.00763,0.00458,-0.01724,-0.02411,-0.01602,0.13275,-0.04013,-0.01831,0.02182,-0.0383
7.227,-0.00076,-0.03693,0.00946,0.16479,-0.02884,-0.06653,-0.00748,0.00061,-0.01801,-0.02411,-0.01541,0.13702,-0.03952,-0.01846,0.02335,-0.03708
7.2275,-0.00214,-0.04623,0.01099,0.1944,-0.02747,-0.06546,-0.0174,-0.00229,-0.01816,-0.02258,-0.01526,0.11673,-0.04013,-0.01999,0.02319,-0.03448
7.228,-0.00275,-0.05295,0.00595,0.18539,-0.02731,-0.06561,-0.02045,-0.00443,-0.01816,-0.02121,-0.01282,0.08087,-0.03983,-0.02075,0.02228,-0.03311
7.2285,-0.00397,-0.05676,-0.00244,0.13977,-0.03036,-0.06653,-0.01923,-0.0061,-0.01816,-0.02182,-0.01129,0.05173,-0.0386,-0.02014,0.0206,-0.03479
7.229,-0.00488,-0.05676,-0.00702,0.05859,-0.03296,-0.06516,-0.01587,-0.00595,-0.01724,-0.02197,-0.01083,0.04227,-0.03647,-0.01755,0.01953,-0.03677
7.2295,-0.0058,-0.05569,-0.00549,-0.02319,-0.03357,-0.06287,-0.01526,-0.00336,-0.0177,-0.02228,-0.01236,0.04242,-0.03632,-0.0174,0.01938,-0.03296
7.23,-0.0058,-0.05432,-0.00214,-0.06271,-0.03326,-0.06241,-0.0177,-0.00076,-0.0177,-0.02151,-0.01373,0.03326,-0.03799,-0.01862,0.0206,-0.0293
7.2305,-0.00671,-0.05157,-0.00366,-0.06485,-0.03372,-0.06302,-0.02075,-0.00214,-0.0177,-0.02075,-0.01221,0.01129,-0.03983,-0.02045,0.02136,-0.03052
7.231,-0.00809,-0.04684,-0.01129,-0.05798,-0.03387,-0.06302,-0.01923,-0.00687,-0.01678,-0.02014,-0.01114,-0.01053,-0.03952,-0.02014,0.02304,-0.03693
7.2315,-0.00839,-0.04349,-0.01984,-0.05951,-0.03326,-0.06012,-0.01434,-0.00793,-0.01572,-0.0206,-0.01099,-0.02106,-0.03922,-0.01968,0.02319,-0.04272
7.232,-0.00732,-0.04074,-0.02243,-0.07645,-0.03342,-0.05676,-0.00793,-0.00565,-0.01587,-0.02151,-0.01083,-0.02441,-0.0386,-0.01846,0.01999,-0.0441
7.2325,-0.00854,-0.03708,-0.02121,-0.11459,-0.03296,-0.056,-0.00534,-0.00275,-0.01709,-0.02167,-0.01083,-0.02319,-0.0383,-0.01892,0.01816,-0.04105
7.233,-0.01266,-0.03189,-0.02319,-0.1564,-0.03235,-0.05692,-0.00412,-0.00275,-0.01709,-0.02197,-0.01083,-0.01511,-0.03845,-0.02106,0.0174,-0.03891
7.2335,-0.01511,-0.02884,-0.03326,-0.15793,-0.03128,-0.0592,-0.00168,-0.00275,-0.01572,-0.02197,-0.01144,-0.00061,-0.03891,-0.02182,0.01678,-0.03769
7.234,-0.01251,-0.03128,-0.047,-0.08484,-0.0293,-0.06271,0.00381,-0.00031,-0.01541,-0.02274,-0.0116,0.0119,-0.03967,-0.02014,0.01541,-0.03799
7.2345,-0.00595,-0.0354,-0.05554,0.03448,-0.02914,-0.06485,0.00717,0.00412,-0.01648,-0.02289,-0.01114,0.01678,-0.03967,-0.01709,0.01328,-0.03922
7.235,-0.00046,-0.0386,-0.05417,0.12085,-0.03052,-0.06317,0.00427,0.00732,-0.01617,-0.02213,-0.01068,0.02029,-0.03937,-0.01541,0.01297,-0.03983
7.2355,0.00244,-0.03876,-0.05035,0.11734,-0.03082,-0.05875,-0.00458,0.00793,-0.01465,-0.02075,-0.01129,0.03189,-0.03967,-0.01633,0.01266,-0.04044
7.236,0.00229,-0.0386,-0.04745,0.04333,-0.03204,-0.05722,-0.0177,0.00687,-0.01373,-0.0209,-0.01114,0.04654,-0.03952,-0.01831,0.01144,-0.04089
7.2365,-0.00168,-0.03845,-0.05096,-0.03677,-0.03342,-0.05966,-0.02899,0.00473,-0.01404,-0.02136,-0.01144,0.04303,-0.04044,-0.01999,0.00961,-0.04318
7.237,-0.01236,-0.03952,-0.05676,-0.07553,-0.03235,-0.06317,-0.0383,0.00168,-0.01617,-0.01968,-0.0119,0.01556,-0.04059,-0.02014,0.01007,-0.04623
7.2375,-0.02701,-0.04227,-0.05951,-0.07187,-0.0296,-0.06363,-0.04364,0.0,-0.0174,-0.01877,-0.01175,-0.01099,-0.0412,-0.01953,0.00946,-0.04929
7.238,-0.03677,-0.04654,-0.056,-0.04532,-0.02853,-0.06409,-0.0441,0.00183,-0.01801,-0.01892,-0.01083,-0.01419,-0.04074,-0.01999,0.00916,-0.05005
7.2385,-0.03693,-0.04883,-0.04837,-0.01175,-0.02884,-0.06332,-0.03891,0.009,-0.01633,-0.01785,-0.00961,-0.01114,-0.04105,-0.01984,0.00809,-0.0502
7.239,-0.03036,-0.04974,-0.04105,0.0148,-0.02975,-0.06378,-0.03784,0.01541,-0.01511,-0.01694,-0.00793,-0.02838,-0.04257,-0.02106,0.00839,-0.04913
7.2395,-0.01984,-0.04944,-0.03525,0.02655,-0.02975,-0.06134,-0.04745,0.01373,-0.01495,-0.01831,-0.00626,-0.0473,-0.04547,-0.02136,0.00931,-0.04913
7.24,-0.01129,-0.04852,-0.02975,0.02914,-0.02792,-0.05676,-0.05493,0.00595,-0.0145,-0.01831,-0.00443,-0.02441,-0.04562,-0.0206,0.00916,-0.04852
7.2405,-0.00839,-0.04761,-0.0235,0.03754,-0.0264,-0.05325,-0.03983,-0.00153,-0.01373,-0.01801,-0.00519,0.04211,-0.04395,-0.01999,0.00824,-0.0502
7.241,-0.01343,-0.04791,-0.02106,0.04684,-0.02747,-0.05371,-0.00534,-0.00977,-0.0148,-0.01724,-0.00702,0.09781,-0.04288,-0.0206,0.00519,-0.05234
7.2415,-0.02213,-0.04822,-0.02151,0.04105,-0.03006,-0.05569,0.01862,-0.02792,-0.01389,-0.01648,-0.00809,0.0943,-0.04227,-0.02182,0.00351,-0.05402
7.242,-0.03067,-0.04913,-0.02457,0.01434,-0.0322,-0.05753,0.00946,-0.05844,-0.01373,-0.01633,-0.00778,0.04486,-0.04242,-0.02258,0.00153,-0.05646
7.2425,-0.03601,-0.05142,-0.02762,-0.01389,-0.03143,-0.05798,-0.01984,-0.0824,-0.01358,-0.01663,-0.00763,-0.00732,-0.0412,-0.02289,0.00092,-0.05814
7.243,-0.04257,-0.0563,-0.02899,-0.02686,-0.03189,-0.05875,-0.04211,-0.07782,-0.01434,-0.01755,-0.00916,-0.04074,-0.03937,-0.02121,0.00168,-0.05875
7.2435,-0.04929,-0.0592,-0.03235,-0.02625,-0.03357,-0.05936,-0.04929,-0.04532,-0.01572,-0.01801,-0.01114,-0.06104,-0.03845,-0.01846,0.00198,-0.05783
7.244,-0.05188,-0.06012,-0.03738,-0.0238,-0.03525,-0.06073,-0.04837,-0.01587,-0.01572,-0.01816,-0.01083,-0.07126,-0.03952,-0.0174,0.00275,-0.05569
7.2445,-0.04456,-0.06088,-0.04395,-0.02289,-0.03448,-0.06042,-0.04272,-0.01663,-0.01434,-0.01892,-0.01175,-0.06256,-0.04013,-0.0177,0.00244,-0.05432
7.245,-0.02701,-0.0618,-0.05173,-0.01984,-0.03204,-0.05737,-0.02853,-0.03357,-0.01434,-0.01984,-0.01221,-0.0325,-0.03937,-0.0177,0.00168,-0.05478
7.2455,-0.00732,-0.06378,-0.0589,-0.01083,-0.0293,-0.05264,-0.00854,-0.03265,-0.01602,-0.02014,-0.01144,-0.00458,-0.0383,-0.01846,-0.00031,-0.05554
7.246,0.00931,-0.06577,-0.06317,0.00107,-0.02777,-0.04715,0.0029,0.00137,-0.0177,-0.02106,-0.01175,-0.00137,-0.0383,-0.02121,-0.00076,-0.05569
7.2465,0.0209,-0.0647,-0.06165,0.01526,-0.02716,-0.04196,-0.00031,0.04135,-0.0174,-0.02106,-0.01328,-0.01373,-0.0386,-0.02258,-0.00153,-0.05539
7.247,0.0293,-0.05829,-0.05829,0.03326,-0.02686,-0.03296,-0.00946,0.05173,-0.01511,-0.02121,-0.0145,-0.0148,-0.03922,-0.0209,-0.00031,-0.05539
7.2475,0.03464,-0.04913,-0.05676,0.05524,-0.02655,-0.02548,-0.01373,0.03143,-0.01373,-0.01968,-0.01526,-0.00076,-0.03906,-0.01862,-0.00092,-0.05539
7.248,0.03662,-0.03967,-0.05569,0.08301,-0.02716,-0.02396,-0.01053,0.00824,-0.01389,-0.01785,-0.0145,0.00763,-0.03952,-0.0174,-0.00031,-0.05539
7.2485,0.03494,-0.03326,-0.05432,0.11932,-0.02853,-0.02655,-0.00259,0.00443,-0.01511,-0.01953,-0.01328,-0.00366,-0.03967,-0.01846,-0.00153,-0.05524
7.249,0.03143,-0.02869,-0.05234,0.159,-0.03143,-0.02655,0.01129,0.01663,-0.01526,-0.02197,-0.01129,-0.02045,-0.03967,-0.01816,-0.00214,-0.05615
7.2495,0.02701,-0.02594,-0.04913,0.18585,-0.0322,-0.02731,0.03937,0.02777,-0.0148,-0.0209,-0.01251,-0.02625,-0.03937,-0.0177,-0.00351,-0.05585
7.25,0.02396,-0.02441,-0.04562,0.17166,-0.03159,-0.02777,0.07523,0.03006,-0.01404,-0.0206,-0.01572,-0.02533,-0.03922,-0.0174,-0.00305,-0.05493
7.2505,0.02228,-0.02411,-0.04166,0.08743,-0.03082,-0.02884,0.09598,0.02396,-0.01465,-0.02075,-0.02014,-0.02945,-0.03998,-0.01785,-0.00336,-0.05493
7.251,0.01953,-0.02228,-0.03891,-0.07187,-0.03006,-0.02869,0.08545,0.01389,-0.01465,-0.02243,-0.02014,-0.04181,-0.04059,-0.0177,-0.00427,-0.05615
7.2515,0.01663,-0.02014,-0.03586,-0.2681,-0.02914,-0.02609,0.05814,0.00549,-0.01572,-0.02457,-0.01938,-0.05356,-0.03967,-0.01785,-0.0029,-0.05554
7.252,0.01266,-0.01877,-0.03281,-0.42664,-0.03036,-0.02686,0.04105,0.00198,-0.01556,-0.02411,-0.01755,-0.05997,-0.03906,-0.01923,-0.00015,-0.05463
7.2525,0.00916,-0.01984,-0.02731,-0.46219,-0.03098,-0.03067,0.03906,0.00244,-0.01556,-0.02228,-0.01648,-0.05524,-0.03876,-0.0206,0.00153,-0.05356
7.253,0.00504,-0.02151,-0.01984,-0.34882,-0.03174,-0.03586,0.03876,0.00381,-0.01511,-0.02136,-0.01556,-0.03189,-0.03876,-0.02167,0.00015,-0.05341
7.2535,-0.00046,-0.02197,-0.01053,-0.18036,-0.03159,-0.03937,0.03799,0.00336,-0.01465,-0.02121,-0.01602,0.01083,-0.03799,-0.02075,0.0,-0.05493
7.254,-0.00626,-0.02472,-0.00275,-0.08377,-0.03204,-0.04013,0.03799,0.00107,-0.01434,-0.0209,-0.01663,0.05844,-0.03799,-0.01938,-0.00076,-0.05585
7.2545,-0.00916,-0.03357,0.00153,-0.07782,-0.03372,-0.04242,0.03418,-0.00229,-0.01495,-0.02045,-0.01602,0.08514,-0.0386,-0.01907,-0.00137,-0.05539
7.255,-0.00824,-0.04684,0.00137,-0.08209,-0.03494,-0.04654,0.01831,-0.00809,-0.01495,-0.01984,-0.01694,0.07858,-0.03815,-0.01968,-0.00183,-0.05402
7.2555,-0.00412,-0.05798,-0.00214,-0.04715,-0.03616,-0.05112,-0.01801,-0.01343,-0.01526,-0.01984,-0.01709,0.04654,-0.03677,-0.02075,-0.00168,-0.0531
7.256,0.00153,-0.06134,-0.00839,-0.00809,-0.03815,-0.05371,-0.06699,-0.01663,-0.01526,-0.02045,-0.01801,0.01282,-0.03586,-0.02121,-0.00168,-0.05325
7.2565,0.00626,-0.05814,-0.01633,-0.01038,-0.03937,-0.05524,-0.10422,-0.01633,-0.01556,-0.02121,-0.01694,-0.00458,-0.03571,-0.02136,-0.00412,-0.05386
7.257,0.00671,-0.05234,-0.02274,-0.03922,-0.03983,-0.05722,-0.10117,-0.01495,-0.01633,-0.02167,-0.01587,-0.00717,-0.03647,-0.0206,-0.0058,-0.05356
7.2575,0.00229,-0.04517,-0.02777,-0.05264,-0.04013,-0.06241,-0.06454,-0.01266,-0.01511,-0.02167,-0.01587,-0.00473,-0.03677,-0.01907,-0.00534,-0.05325
7.258,-0.00183,-0.03906,-0.03067,-0.04471,-0.0415,-0.06775,-0.03342,-0.00778,-0.0148,-0.02045,-0.01694,-0.0058,-0.03632,-0.01755,-0.00366,-0.05219
7.2585,-0.00427,-0.03433,-0.03677,-0.03937,-0.04181,-0.07095,-0.03479,0.0,-0.0145,-0.01938,-0.01755,-0.01068,-0.03571,-0.01877,-0.00183,-0.05096
7.259,-0.00595,-0.03143,-0.05539,-0.04242,-0.04135,-0.07202,-0.05234,0.00641,-0.01434,-0.01999,-0.01801,-0.01434,-0.03616,-0.01984,-0.00092,-0.05173
7.2595,-0.009,-0.03052,-0.09415,-0.03525,-0.03937,-0.07339,-0.05356,0.009,-0.0148,-0.01953,-0.01938,-0.01755,-0.03677,-0.02014,-0.00015,-0.05295
7.26,-0.01358,-0.03098,-0.14725,-0.009,-0.03677,-0.07431,-0.03036,0.00793,-0.01465,-0.0209,-0.02106,-0.02121,-0.03662,-0.02014,-0.00061,-0.05234
7.2605,-0.0206,-0.03281,-0.2034,0.01968,-0.03708,-0.07614,-0.00244,0.00443,-0.01633,-0.02121,-0.0209,-0.02319,-0.0354,-0.02075,-0.00198,-0.05264
7.261,-0.02625,-0.03464,-0.25513,0.02975,-0.0383,-0.07706,0.00763,-0.00168,-0.01678,-0.0235,-0.01999,-0.02274,-0.03403,-0.02151,-0.00214,-0.05234
7.2615,-0.02884,-0.03586,-0.29053,0.02182,-0.03586,-0.07904,-0.00214,-0.01297,-0.01709,-0.02426,-0.01938,-0.02075,-0.03387,-0.02106,-0.00092,-0.05188
7.262,-0.02655,-0.03586,-0.28427,0.01068,-0.0322,-0.07721,-0.01694,-0.02869,-0.0177,-0.02441,-0.01999,-0.02106,-0.03326,-0.02014,-0.00107,-0.0499
7.2625,-0.02258,-0.03418,-0.21652,0.00351,-0.02914,-0.07187,-0.02182,-0.04227,-0.01877,-0.02472,-0.01999,-0.02136,-0.03281,-0.02014,-0.00107,-0.04868
7.263,-0.02029,-0.03082,-0.09628,-0.00336,-0.02899,-0.06882,-0.01617,-0.04791,-0.01877,-0.02502,-0.01862,-0.01968,-0.03357,-0.01877,-0.00153,-0.04761
7.2635,-0.02014,-0.0293,0.04303,-0.00671,-0.02975,-0.06821,-0.01556,-0.04471,-0.01709,-0.02487,-0.01694,-0.01526,-0.03387,-0.01892,-0.00214,-0.04669
7.264,-0.01755,-0.03159,0.16388,-0.00092,-0.02991,-0.06744,-0.0351,-0.03799,-0.0174,-0.02319,-0.01541,-0.01038,-0.03357,-0.01953,-0.00244,-0.04532
7.2645,-0.00992,-0.03662,0.24109,0.01297,-0.03082,-0.06744,-0.07431,-0.03296,-0.01678,-0.02243,-0.01556,-0.00473,-0.03418,-0.01831,-0.00168,-0.04547
7.265,-0.00168,-0.0415,0.26657,0.02502,-0.03235,-0.06195,-0.11566,-0.02838,-0.01694,-0.02167,-0.01755,-0.00214,-0.03525,-0.0177,-0.00137,-0.04776
7.2655,0.00198,-0.04562,0.25055,0.03174,-0.03387,-0.05646,-0.13718,-0.02426,-0.01648,-0.02274,-0.01755,-0.00336,-0.03677,-0.01816,-0.00153,-0.0499
7.266,0.00427,-0.04822,0.21545,0.03967,-0.03448,-0.05585,-0.12177,-0.02731,-0.01541,-0.02365,-0.01633,-0.00824,-0.03632,-0.01938,-0.00015,-0.05005
7.2665,0.00732,-0.0499,0.1741,0.04837,-0.03189,-0.05554,-0.05447,-0.0473,-0.01495,-0.02533,-0.01526,-0.01297,-0.03616,-0.01968,-0.00092,-0.04913
7.267,0.01007,-0.05112,0.13321,0.04822,-0.03174,-0.05203,0.05157,-0.07843,-0.01572,-0.02563,-0.01663,-0.01251,-0.03693,-0.01831,-0.00229,-0.04837
7.2675,0.00885,-0.05035,0.09186,0.03448,-0.03372,-0.04639,0.13458,-0.08469,-0.01678,-0.0267,-0.01816,-0.00854,-0.03723,-0.01846,-0.00259,-0.04868
7.268,0.00397,-0.04944,0.04883,0.01633,-0.03632,-0.0441,0.13779,-0.03754,-0.01831,-0.02518,-0.01816,-0.00351,-0.03647,-0.01816,-0.00153,-0.04807
7.2685,0.00092,-0.04852,0.00748,0.00687,-0.03754,-0.04364,0.06943,0.03708,-0.01801,-0.02274,-0.01785,0.00168,-0.03708,-0.01877,0.00076,-0.04517
7.269,0.00183,-0.0502,-0.02487,0.01251,-0.03433,-0.04288,-0.01526,0.07675,-0.01709,-0.02167,-0.01816,0.0058,-0.03937,-0.01831,0.00031,-0.04196
7.2695,0.00488,-0.05127,-0.04364,0.03067,-0.03265,-0.0415,-0.07278,0.06134,-0.01633,-0.02045,-0.01801,0.00443,-0.04074,-0.0177,-0.00061,-0.03998
7.27,0.00641,-0.0502,-0.05035,0.0563,-0.03311,-0.0383,-0.08926,0.02747,-0.01648,-0.02014,-0.01709,-0.00214,-0.04105,-0.01862,0.00092,-0.04105
7.2705,0.00504,-0.04639,-0.05417,0.08499,-0.03738,-0.03845,-0.0705,0.01358,-0.01785,-0.01877,-0.01587,-0.01022,-0.03937,-0.01938,0.00076,-0.04044
7.271,0.00183,-0.04166,-0.06073,0.1059,-0.03876,-0.03983,-0.0351,0.01663,-0.0174,-0.01724,-0.01678,-0.01343,-0.03876,-0.01907,0.00031,-0.03967
7.2715,-0.00275,-0.03876,-0.06729,0.09842,-0.03876,-0.03922,-0.00946,0.02014,-0.01678,-0.01526,-0.01801,-0.0119,-0.03708,-0.01755,-0.00107,-0.03891
7.272,-0.00824,-0.03601,-0.06973,0.04593,-0.03769,-0.03799,-0.00305,0.01938,-0.01678,-0.01511,-0.01831,-0.01022,-0.03601,-0.01785,-0.00122,-0.03952
7.2725,-0.01144,-0.03418,-0.06653,-0.03952,-0.03693,-0.03967,-0.00641,0.01938,-0.0174,-0.01526,-0.01633,-0.01068,-0.03494,-0.01923,0.00168,-0.03998
7.273,-0.01144,-0.0325,-0.06149,-0.12436,-0.03555,-0.04196,-0.009,0.02228,-0.0174,-0.01511,-0.0145,-0.01175,-0.0354,-0.02106,0.00458,-0.04074
7.2735,-0.01205,-0.03082,-0.05936,-0.19348,-0.03601,-0.04669,-0.01099,0.02274,-0.01709,-0.01419,-0.0145,-0.00977,-0.0383,-0.02106,0.00351,-0.04211
7.274,-0.01495,-0.02975,-0.06256,-0.27695,-0.03571,-0.04959,-0.01312,0.0206,-0.01755,-0.01297,-0.01434,-0.00519,-0.03876,-0.01953,0.00092,-0.04257
7.2745,-0.01617,-0.02884,-0.06699,-0.40421,-0.03464,-0.05295,-0.01556,0.01526,-0.01755,-0.0119,-0.01556,0.0029,-0.03815,-0.01785,-0.00046,-0.04181
7.275,-0.01373,-0.03052,-0.06882,-0.50507,-0.03296,-0.05478,-0.0174,0.00961,-0.01709,-0.0116,-0.01785,0.01434,-0.03815,-0.01755,0.00122,-0.03937
7.2755,-0.01068,-0.03265,-0.06851,-0.4361,-0.03265,-0.05173,-0.01877,0.00381,-0.01755,-0.01312,-0.01862,0.02472,-0.03906,-0.0174,0.00153,-0.03769
7.276,-0.00916,-0.03296,-0.06531,-0.14542,-0.03387,-0.04837,-0.01907,0.00031,-0.01816,-0.01343,-0.01785,0.02869,-0.03845,-0.01648,0.00046,-0.03906
7.2765,-0.00854,-0.03021,-0.06271,0.23636,-0.03326,-0.047,-0.01648,-0.00046,-0.01923,-0.01511,-0.01633,0.02823,-0.03799,-0.01541,-0.00061,-0.04211
7.277,-0.00519,-0.02655,-0.0621,0.50858,-0.03311,-0.04883,-0.01389,-0.00046,-0.01892,-0.01617,-0.01465,0.02701,-0.03906,-0.0177,-0.00168,-0.04456
7.2775,-0.00244,-0.02396,-0.06195,0.57693,-0.03387,-0.05173,-0.01389,-0.00061,-0.01724,-0.01724,-0.01266,0.02777,-0.03998,-0.01923,-0.00061,-0.04562
7.278,-0.00305,-0.02594,-0.06317,0.49911,-0.03448,-0.05371,-0.01572,-0.00259,-0.01617,-0.01633,-0.01205,0.02991,-0.03876,-0.01816,0.00046,-0.04456
7.2785,-0.0058,-0.03281,-0.06393,0.3743,-0.03326,-0.05539,-0.01694,-0.00412,-0.0174,-0.01587,-0.01282,0.0296,-0.03754,-0.01709,0.00183,-0.0412
7.279,-0.00534,-0.04166,-0.06409,0.23697,-0.03128,-0.05554,-0.01633,-0.00412,-0.0174,-0.01556,-0.01511,0.02914,-0.03784,-0.0177,0.00214,-0.03754
7.2795,-0.00366,-0.04715,-0.06287,0.08896,-0.03036,-0.05646,-0.0145,-0.00183,-0.01663,-0.01602,-0.01709,0.0296,-0.03784,-0.01923,0.00229,-0.03586
7.28,-0.00427,-0.0473,-0.06104,-0.02167,-0.03082,-0.05814,-0.01297,0.00214,-0.01526,-0.0145,-0.01648,0.03204,-0.03708,-0.01938,0.00336,-0.03738
7.2805,-0.00732,-0.04654,-0.06271,-0.04135,-0.03159,-0.05859,-0.01038,0.00534,-0.01587,-0.01419,-0.01526,0.03387,-0.03586,-0.01984,0.00534,-0.04028
7.281,-0.00839,-0.04822,-0.06439,-0.00885,-0.03006,-0.0592,-0.00824,0.00519,-0.01678,-0.01404,-0.01556,0.03616,-0.03632,-0.01877,0.00671,-0.04242
7.2815,-0.00488,-0.0528,-0.06393,-0.00214,-0.02792,-0.05798,-0.00885,0.00168,-0.01617,-0.01358,-0.01511,0.03616,-0.03769,-0.01892,0.00595,-0.03937
7.282,0.0,-0.05569,-0.06104,-0.009,-0.02747,-0.05692,-0.01297,-0.0029,-0.0148,-0.01343,-0.01419,0.03006,-0.0383,-0.01999,0.0029,-0.03525
7.2825,0.00275,-0.05585,-0.05676,0.03143,-0.02762,-0.05707,-0.01923,-0.00534,-0.01419,-0.01297,-0.01312,0.01923,-0.03601,-0.01923,0.00061,-0.03204
7.283,0.00229,-0.05325,-0.05341,0.0827,-0.0264,-0.05798,-0.0238,-0.00534,-0.01572,-0.01282,-0.01068,0.00977,-0.03235,-0.01785,0.00137,-0.03372
7.2835,0.00122,-0.05005,-0.05035,0.05951,-0.02533,-0.0592,-0.02411,-0.00397,-0.01617,-0.01297,-0.01022,0.00687,-0.03067,-0.01923,0.00275,-0.03738
7.284,0.00031,-0.04745,-0.0499,-0.0296,-0.0264,-0.05905,-0.01816,-0.00046,-0.01694,-0.0119,-0.01114,0.00961,-0.03036,-0.02228,0.00443,-0.03952
7.2845,0.00137,-0.04395,-0.0499,-0.08972,-0.02884,-0.05722,-0.01236,0.00137,-0.01648,-0.01038,-0.01236,0.00809,-0.03021,-0.02502,0.0058,-0.04074
7.285,0.00336,-0.04242,-0.04837,-0.07843,-0.02899,-0.05646,-0.01678,0.00122,-0.01648,-0.00992,-0.01312,-0.00916,-0.0296,-0.02487,0.00671,-0.04044
7.2855,0.00549,-0.04333,-0.04562,-0.0415,-0.02838,-0.05508,-0.02884,-0.00168,-0.01602,-0.01144,-0.01312,-0.0383,-0.02884,-0.02319,0.00519,-0.03967
7.286,0.00595,-0.0444,-0.04272,-0.02991,-0.02914,-0.05646,-0.03738,-0.00244,-0.01465,-0.01389,-0.01434,-0.06149,-0.02869,-0.02228,0.00259,-0.03769
7.2865,0.00336,-0.0444,-0.04044,-0.04044,-0.03281,-0.05829,-0.03326,-0.00122,-0.01541,-0.01312,-0.01663,-0.07202,-0.02991,-0.02228,0.00092,-0.03571
7.287,0.00092,-0.04471,-0.03967,-0.05142,-0.0354,-0.06058,-0.01816,0.00107,-0.01617,-0.01175,-0.01755,-0.08057,-0.03113,-0.02151,0.00168,-0.03479
7.2875,0.00092,-0.04456,-0.04028,-0.05554,-0.03601,-0.06149,-0.00412,0.0032,-0.01602,-0.01007,-0.01633,-0.0972,-0.03204,-0.01984,0.00381,-0.03754
7.288,0.00107,-0.04318,-0.0386,-0.05783,-0.03479,-0.06302,0.00305,0.00717,-0.01526,-0.00977,-0.01434,-0.12268,-0.03189,-0.01801,0.00519,-0.04074
7.2885,0.00015,-0.03967,-0.03616,-0.06088,-0.03235,-0.06332,0.00732,0.0145,-0.01465,-0.00839,-0.01236,-0.15976,-0.03159,-0.01785,0.0058,-0.04333
7.289,-0.00214,-0.03677,-0.03235,-0.06485,-0.03235,-0.06027,0.01373,0.01984,-0.01526,-0.00778,-0.01144,-0.19791,-0.03265,-0.01953,0.00702,-0.04257
7.2895,-0.00504,-0.03632,-0.02975,-0.06714,-0.03342,-0.05417,0.01801,0.01816,-0.01678,-0.00824,-0.01236,-0.19058,-0.03464,-0.02029,0.00671,-0.03998
7.29,-0.00916,-0.0383,-0.03036,-0.06668,-0.03311,-0.05066,0.01984,0.0087,-0.01602,-0.0087,-0.01312,-0.09415,-0.03693,-0.01984,0.00458,-0.03647
7.2905,-0.01251,-0.04181,-0.03311,-0.06317,-0.03174,-0.05142,0.01923,-0.00488,-0.01556,-0.00931,-0.01282,0.06607,-0.0383,-0.01892,0.00397,-0.03479
7.291,-0.0145,-0.04425,-0.03632,-0.05905,-0.03082,-0.05234,0.01556,-0.0148,-0.01602,-0.01053,-0.0119,0.19012,-0.04044,-0.01831,0.00504,-0.03357
7.2915,-0.01663,-0.04471,-0.03677,-0.0563,-0.03128,-0.05112,0.00565,-0.01953,-0.01694,-0.01038,-0.01221,0.20645,-0.04013,-0.0177,0.00687,-0.03448
7.292,-0.0238,-0.04425,-0.03662,-0.0563,-0.03143,-0.04791,-0.01266,-0.0209,-0.01678,-0.01038,-0.01328,0.1445,-0.03799,-0.01633,0.00809,-0.0354
7.2925,-0.03616,-0.04456,-0.03799,-0.05768,-0.03082,-0.04501,-0.03479,-0.01984,-0.01587,-0.00916,-0.01373,0.08865,-0.0354,-0.01495,0.00793,-0.03555
7.293,-0.05096,-0.04517,-0.04089,-0.05676,-0.02914,-0.0444,-0.05005,-0.0209,-0.01556,-0.00885,-0.01358,0.08453,-0.03479,-0.01495,0.00549,-0.03479
7.2935,-0.0621,-0.0441,-0.04242,-0.05325,-0.02777,-0.04486,-0.05478,-0.03098,-0.01663,-0.009,-0.01541,0.10544,-0.03571,-0.01556,0.0029,-0.03494
7.294,-0.06699,-0.04288,-0.04059,-0.04715,-0.02747,-0.04395,-0.05051,-0.0531,-0.01648,-0.01083,-0.01831,0.10345,-0.03616,-0.01602,0.00381,-0.03357
7.2945,-0.06561,-0.04303,-0.03967,-0.04257,-0.02579,-0.04059,-0.04044,-0.07492,-0.01617,-0.01205,-0.01785,0.06073,-0.03662,-0.01694,0.00626,-0.03342
7.295,-0.05981,-0.04517,-0.04166,-0.0415,-0.02518,-0.04028,-0.02823,-0.07492,-0.01495,-0.01312,-0.01495,0.00229,-0.03647,-0.01755,0.00748,-0.03418
7.2955,-0.04807,-0.05051,-0.04791,-0.03952,-0.02548,-0.04059,-0.01694,-0.04486,-0.01572,-0.01343,-0.01282,-0.03189,-0.03372,-0.01633,0.0061,-0.03525
7.296,-0.02884,-0.05585,-0.05249,-0.03296,-0.02731,-0.04059,-0.01099,-0.00931,-0.01633,-0.01373,-0.01358,-0.02747,-0.02899,-0.01495,0.00534,-0.03555
7.2965,-0.00595,-0.05753,-0.05569,-0.02396,-0.02838,-0.04227,-0.01389,0.00137,-0.01694,-0.01297,-0.01602,-0.00336,-0.02777,-0.01373,0.00671,-0.03525
7.297,0.0116,-0.05508,-0.06134,-0.01999,-0.02975,-0.04501,-0.02304,-0.01526,-0.0174,-0.01144,-0.01755,0.01266,-0.02777,-0.01495,0.0087,-0.03494
7.2975,0.01984,-0.04974,-0.06821,-0.02594,-0.03143,-0.04562,-0.03128,-0.03647,-0.01648,-0.01114,-0.01755,0.01709,-0.02838,-0.01755,0.00916,-0.03555
7.298,0.02747,-0.04486,-0.07568,-0.03647,-0.03418,-0.04471,-0.03387,-0.04333,-0.01633,-0.01236,-0.01541,0.02396,-0.02869,-0.01846,0.00839,-0.03677
7.2985,0.04562,-0.04135,-0.08698,-0.04242,-0.03372,-0.04364,-0.03494,-0.03357,-0.01709,-0.01511,-0.01175,0.03647,-0.02716,-0.01846,0.00687,-0.03769
7.299,0.06531,-0.04028,-0.10223,-0.0415,-0.03311,-0.04501,-0.03632,-0.01877,-0.01862,-0.01602,-0.01099,0.03616,-0.02686,-0.01755,0.00854,-0.03876
7.2995,0.06531,-0.03998,-0.11887,-0.03937,-0.03174,-0.04852,-0.03357,-0.01312,-0.01801,-0.0145,-0.01282,0.00961,-0.02731,-0.01633,0.00824,-0.03845
7.3,0.04166,-0.03937,-0.13123,-0.03983,-0.03128,-0.04929,-0.01663,-0.0177,-0.01694,-0.01205,-0.01419,-0.03357,-0.02792,-0.01556,0.00748,-0.0383
7.3005,0.01465,-0.03784,-0.12802,-0.04059,-0.0322,-0.04608,0.00885,-0.02411,-0.01648,-0.009,-0.01389,-0.07111,-0.02838,-0.0148,0.00931,-0.0383
7.301,0.0032,-0.03525,-0.10284,-0.03616,-0.03052,-0.03952,0.0264,-0.02777,-0.01648,-0.00778,-0.01343,-0.0856,-0.02869,-0.01526,0.01099,-0.03799
7.3015,0.00549,-0.03418,-0.05249,-0.02853,-0.0293,-0.03601,0.0264,-0.03052,-0.01694,-0.00992,-0.0148,-0.06866,-0.03021,-0.01694,0.01114,-0.03693
7.302,0.01007,-0.03647,0.00534,-0.02563,-0.0293,-0.03723,0.0148,-0.0322,-0.01709,-0.00977,-0.01556,-0.02167,-0.03235,-0.01709,0.01083,-0.03647
7.3025,0.01175,-0.04105,0.05081,-0.02991,-0.0296,-0.04013,0.00336,-0.02609,-0.01617,-0.01068,-0.01389,0.04761,-0.03311,-0.01526,0.00839,-0.03662
7.303,0.00977,-0.04318,0.07629,-0.02899,-0.03113,-0.04257,-0.00519,-0.00717,-0.01526,-0.01099,-0.0116,0.12589,-0.03296,-0.0145,0.00763,-0.03571
7.3035,0.00671,-0.04333,0.08667,-0.00793,-0.03067,-0.04364,-0.01312,0.02319,-0.01541,-0.01038,-0.01144,0.17929,-0.03204,-0.01541,0.00839,-0.03372
7.304,0.00336,-0.04318,0.08728,0.03128,-0.03189,-0.0444,-0.01617,0.05875,-0.0174,-0.00946,-0.01236,0.16312,-0.03098,-0.01678,0.01129,-0.03235
7.3045,-0.00031,-0.04288,0.08011,0.07004,-0.03525,-0.04379,-0.01205,0.08881,-0.01846,-0.01022,-0.01389,0.07492,-0.03128,-0.01755,0.01373,-0.03326
7.305,-0.00366,-0.04257,0.06454,0.09415,-0.0383,-0.0415,-0.00671,0.09995,-0.0174,-0.01236,-0.01373,-0.02319,-0.03189,-0.01694,0.01343,-0.03464
7.3055,-0.00458,-0.04105,0.04517,0.10223,-0.0386,-0.04028,-0.00778,0.08591,-0.01663,-0.01404,-0.01511,-0.06836,-0.03098,-0.01724,0.01266,-0.03494
7.306,-0.00443,-0.04028,0.02914,0.08438,-0.03647,-0.03876,-0.01801,0.05905,-0.01648,-0.01419,-0.01694,-0.06256,-0.02899,-0.0177,0.01175,-0.03571
7.3065,-0.00595,-0.0412,0.01907,0.02045,-0.03296,-0.03891,-0.03235,0.03601,-0.01755,-0.01236,-0.01724,-0.04959,-0.02808,-0.01755,0.0119,-0.03693
7.307,-0.00977,-0.04501,0.01343,-0.08698,-0.03021,-0.04013,-0.04486,0.02411,-0.01724,-0.0119,-0.0148,-0.05142,-0.02899,-0.0177,0.01221,-0.03723
7.3075,-0.01297,-0.04898,0.00443,-0.18219,-0.03006,-0.04105,-0.05417,0.01923,-0.01602,-0.01144,-0.01297,-0.05524,-0.03021,-0.01846,0.01099,-0.03616
7.308,-0.01236,-0.0499,-0.00916,-0.18982,-0.02991,-0.04196,-0.0621,0.01221,-0.0148,-0.01389,-0.01343,-0.03998,-0.03128,-0.01892,0.00931,-0.03616
7.3085,-0.00931,-0.04761,-0.02686,-0.08484,-0.02884,-0.04379,-0.06897,0.00046,-0.01541,-0.01587,-0.01495,-0.00305,-0.03067,-0.01862,0.0058,-0.03677
7.309,-0.00839,-0.04532,-0.0412,0.07141,-0.02823,-0.04501,-0.07446,-0.01617,-0.01572,-0.01633,-0.01511,0.03586,-0.02792,-0.01617,0.00519,-0.03647
7.3095,-0.00961,-0.04425,-0.04837,0.18631,-0.02716,-0.04425,-0.07477,-0.03265,-0.01587,-0.01617,-0.01373,0.05142,-0.02487,-0.01495,0.00854,-0.03571
7.31,-0.01068,-0.04364,-0.04852,0.21957,-0.02701,-0.04272,-0.06927,-0.04242,-0.01511,-0.01495,-0.01282,0.03754,-0.0235,-0.01526,0.01114,-0.0351
7.3105,-0.00778,-0.04272,-0.04608,0.20325,-0.02762,-0.04211,-0.06104,-0.03525,-0.01602,-0.01511,-0.01373,0.01266,-0.02548,-0.01694,0.01282,-0.0351
7.311,-0.00381,-0.04105,-0.04517,0.17426,-0.03021,-0.04242,-0.05051,-0.01144,-0.01633,-0.01785,-0.01343,-0.00275,-0.02747,-0.01724,0.01297,-0.03464
7.3115,-0.00153,-0.03967,-0.04623,0.12848,-0.03189,-0.04532,-0.03448,0.02213,-0.01678,-0.01968,-0.01251,-0.00565,-0.0264,-0.01633,0.01282,-0.03494
7.312,-0.00229,-0.03952,-0.04761,0.04715,-0.03159,-0.0473,-0.00885,0.04639,-0.01678,-0.02121,-0.01129,-0.00137,-0.0238,-0.01526,0.01114,-0.03555
7.3125,-0.00656,-0.03952,-0.04715,-0.06607,-0.03067,-0.04837,0.02518,0.05005,-0.01617,-0.02182,-0.01022,0.00458,-0.02243,-0.01556,0.00977,-0.0351
7.313,-0.01083,-0.03784,-0.04593,-0.18204,-0.0293,-0.04944,0.05722,0.0325,-0.01755,-0.0209,-0.01083,0.0058,-0.02396,-0.01648,0.01083,-0.03464
7.3135,-0.01236,-0.03754,-0.04639,-0.26566,-0.02823,-0.04929,0.06927,0.00412,-0.01877,-0.01984,-0.01266,-0.00305,-0.02686,-0.0174,0.01328,-0.0354
7.314,-0.01099,-0.03784,-0.04791,-0.29694,-0.0296,-0.05066,0.05569,-0.02197,-0.01801,-0.01984,-0.01373,-0.0267,-0.0296,-0.0177,0.01617,-0.03662
7.3145,-0.00702,-0.03723,-0.04883,-0.30106,-0.03143,-0.05203,0.03235,-0.04181,-0.01511,-0.01862,-0.01236,-0.06592,-0.03052,-0.01785,0.01587,-0.03693
7.315,-0.00214,-0.03616,-0.04807,-0.30853,-0.03403,-0.05386,0.01938,-0.06027,-0.01358,-0.01831,-0.01114,-0.11017,-0.03082,-0.01831,0.01511,-0.03647
7.3155,0.00107,-0.03693,-0.04822,-0.28961,-0.03571,-0.05432,0.02548,-0.08469,-0.01404,-0.01801,-0.01282,-0.14038,-0.03036,-0.01984,0.01465,-0.03601
7.316,0.00488,-0.03998,-0.04929,-0.19287,-0.03372,-0.0528,0.04593,-0.10788,-0.01556,-0.01892,-0.01526,-0.14328,-0.02975,-0.02136,0.01282,-0.03601
7.3165,0.00977,-0.04288,-0.05219,-0.0528,-0.03387,-0.04974,0.07004,-0.1088,-0.01541,-0.02045,-0.01648,-0.12268,-0.03067,-0.02319,0.01114,-0.03586
7.317,0.0119,-0.04303,-0.05783,0.04044,-0.03357,-0.04868,0.07751,-0.07568,-0.01541,-0.02151,-0.01556,-0.09201,-0.03159,-0.02411,0.01099,-0.03586
7.3175,0.01099,-0.04486,-0.06073,0.05905,-0.03174,-0.04913,0.05524,-0.0235,-0.01389,-0.01938,-0.0148,-0.05692,-0.03265,-0.02457,0.01129,-0.03632
7.318,0.00534,-0.05173,-0.0592,0.04761,-0.03204,-0.05081,0.02441,0.02762,-0.01389,-0.01892,-0.01404,-0.01144,-0.0325,-0.0238,0.01144,-0.03845
7.3185,-0.00244,-0.06271,-0.05814,0.04959,-0.03174,-0.05478,0.02014,0.07355,-0.01526,-0.01846,-0.01419,0.04288,-0.03174,-0.02228,0.01099,-0.03967
7.319,-0.00992,-0.07355,-0.05936,0.06042,-0.03235,-0.05722,0.03876,0.1062,-0.01602,-0.01785,-0.01419,0.08789,-0.0325,-0.02106,0.01205,-0.03891
7.3195,-0.01297,-0.08087,-0.06195,0.0592,-0.03174,-0.05875,0.03738,0.11032,-0.01602,-0.01602,-0.01434,0.1062,-0.03204,-0.02121,0.01495,-0.03708
7.32,-0.01282,-0.08453,-0.06042,0.04562,-0.03113,-0.05997,-0.01144,0.08698,-0.01511,-0.01419,-0.01373,0.09369,-0.03265,-0.01968,0.01785,-0.03632
7.3205,-0.01282,-0.08606,-0.05554,0.02991,-0.02884,-0.0621,-0.07889,0.0589,-0.01495,-0.01511,-0.0119,0.06393,-0.03326,-0.01846,0.01755,-0.03815
7.321,-0.01541,-0.08331,-0.0499,0.01831,-0.02777,-0.06317,-0.10757,0.04349,-0.01556,-0.0174,-0.01266,0.02594,-0.03326,-0.01938,0.01663,-0.0386
7.3215,-0.01877,-0.07507,-0.04364,0.01129,-0.02686,-0.06241,-0.06958,0.03479,-0.01678,-0.01953,-0.01541,-0.00519,-0.03403,-0.02014,0.0145,-0.0383
