time,RectFemL,VastusMedL,VastusLatL,TibAntL,HamMedL,HamLatL,GastroMedL,GastroLatL,RectFemR,VastusMedR,VastusLatR,TibAntR,HamMedR,HamLatR,GastroMedR,GastroLatR
6.56,0.0,-0.05066,-0.03555,-0.06805,-0.10956,-0.10544,-0.009,0.00031,-0.07263,-0.01984,-0.00549,-0.13214,-0.03433,0.00839,0.01251,-0.03342
6.5605,0.00168,-0.05432,-0.04166,-0.08209,-0.06912,-0.10696,-0.00946,0.00076,-0.08102,-0.01953,-0.00412,-0.10666,-0.03616,0.00885,0.01175,-0.04105
6.561,0.00259,-0.05508,-0.04578,-0.07111,-0.09766,-0.11322,-0.0116,-0.00275,-0.08499,-0.01999,-0.00549,-0.05737,-0.03723,0.01099,0.009,-0.04486
6.5615,0.0029,-0.05402,-0.047,-0.04639,-0.16449,-0.11749,-0.01312,-0.00534,-0.08133,-0.02304,-0.01236,0.02304,-0.03784,0.01053,0.00748,-0.04272
6.562,0.00336,-0.04959,-0.04837,-0.01083,-0.22171,-0.11642,-0.01358,-0.0029,-0.06943,-0.02228,-0.03387,0.12192,-0.03754,0.00519,0.00504,-0.03738
6.5625,0.0032,-0.04501,-0.04608,0.03876,-0.23331,-0.11414,-0.01434,0.00137,-0.05905,-0.02075,-0.09476,0.20462,-0.03876,-0.00259,0.00549,-0.03555
6.563,0.00183,-0.03967,-0.04318,0.08881,-0.20004,-0.11276,-0.01495,0.0032,-0.06088,-0.01938,-0.2037,0.2417,-0.03983,-0.00824,0.00763,-0.03647
6.5635,-0.00153,-0.03418,-0.03632,0.10635,-0.14862,-0.11063,-0.01312,-0.00061,-0.07111,-0.01938,-0.29892,0.22751,-0.04196,-0.0116,0.00809,-0.03983
6.564,-0.00534,-0.02975,-0.03021,0.07645,-0.10239,-0.10513,-0.01007,-0.01404,-0.07248,-0.02197,-0.29022,0.18234,-0.04456,-0.01465,0.00854,-0.04364
6.5645,-0.009,-0.02747,-0.02701,0.02396,-0.06668,-0.09689,-0.00931,-0.0412,-0.05661,-0.02731,-0.16815,0.13138,-0.04623,-0.01678,0.00763,-0.047
6.565,-0.01236,-0.03006,-0.02579,-0.01587,-0.04028,-0.08987,-0.01007,-0.0769,-0.03159,-0.03189,-0.01541,0.08804,-0.04547,-0.01633,0.00824,-0.05341
6.5655,-0.01404,-0.03494,-0.02426,-0.03479,-0.02548,-0.08545,-0.00854,-0.11215,-0.01129,-0.03479,0.09857,0.05539,-0.04196,-0.0119,0.00687,-0.05753
6.566,-0.01404,-0.03784,-0.02243,-0.04456,-0.02655,-0.08194,-0.00519,-0.13672,-0.00366,-0.03235,0.16907,0.04166,-0.03754,-0.00626,0.00626,-0.05508
6.5665,-0.01373,-0.03815,-0.01999,-0.05646,-0.03372,-0.08072,-0.00519,-0.14984,-0.00259,-0.03189,0.19821,0.04791,-0.03403,-0.00198,0.00381,-0.04608
6.567,-0.01343,-0.03799,-0.01831,-0.06912,-0.03906,-0.08316,-0.01068,-0.15915,0.00381,-0.03189,0.17059,0.04868,-0.03433,-0.00092,0.00473,-0.04013
6.5675,-0.01404,-0.03738,-0.01434,-0.07935,-0.03662,-0.09003,-0.01419,-0.16418,0.02182,-0.03647,0.09338,0.01785,-0.0354,-0.00275,0.00519,-0.04242
6.568,-0.01511,-0.0354,-0.01343,-0.08957,-0.02899,-0.09369,-0.01312,-0.14862,0.04791,-0.04303,0.01114,-0.04028,-0.03693,-0.00641,0.00504,-0.04944
6.5685,-0.01663,-0.03036,-0.01205,-0.10239,-0.02151,-0.09399,-0.01099,-0.10162,0.06668,-0.0621,-0.03418,-0.09521,-0.03754,-0.01144,0.00381,-0.05264
6.569,-0.01541,-0.02396,-0.01602,-0.1091,-0.02167,-0.0946,-0.00961,-0.03662,0.05936,-0.10025,-0.04318,-0.12634,-0.03616,-0.01556,0.00381,-0.05066
6.5695,-0.01114,-0.01923,-0.02411,-0.09735,-0.03265,-0.09445,-0.00946,0.03281,0.02579,-0.14694,-0.03845,-0.13748,-0.03433,-0.01694,0.00671,-0.04883
6.57,-0.00519,-0.02075,-0.03159,-0.06744,-0.05112,-0.09354,-0.00793,0.10773,-0.0058,-0.17105,-0.03937,-0.13672,-0.03128,-0.01495,0.00946,-0.04608
6.5705,0.00076,-0.02701,-0.0383,-0.03235,-0.05875,-0.08698,-0.0061,0.18097,-0.01129,-0.15396,-0.04929,-0.121,-0.02808,-0.01053,0.00992,-0.04166
6.571,0.0032,-0.03235,-0.0444,-0.0058,-0.05234,-0.07767,-0.00473,0.22324,-0.00351,-0.10834,-0.05463,-0.08881,-0.02533,-0.00824,0.01297,-0.03693
6.5715,0.00412,-0.03418,-0.04745,0.00641,-0.0412,-0.07034,-0.00565,0.20859,-0.00824,-0.05829,-0.03799,-0.05142,-0.02304,-0.00946,0.0116,-0.03448
6.572,0.00412,-0.03479,-0.047,0.00824,-0.03082,-0.06561,-0.00854,0.15274,-0.01709,-0.01907,-0.00244,-0.01724,-0.02258,-0.01572,0.01328,-0.03555
6.5725,0.00549,-0.03601,-0.0441,0.00778,-0.01831,-0.06104,-0.01434,0.09598,-0.00046,0.00778,0.03372,0.00992,-0.02426,-0.02304,0.01129,-0.03967
6.573,0.00931,-0.04074,-0.04211,0.01053,-0.00107,-0.05569,-0.01678,0.05539,0.04044,0.01068,0.05585,0.02304,-0.02731,-0.02762,0.00885,-0.0444
6.5735,0.01572,-0.0473,-0.03937,0.01572,0.01297,-0.05295,-0.01755,0.02136,0.06805,-0.02701,0.06119,0.01144,-0.03113,-0.02609,0.00458,-0.047
6.574,0.02167,-0.05371,-0.03601,0.01709,0.0148,-0.05554,-0.01923,-0.01144,0.05814,-0.09766,0.04745,-0.0145,-0.03387,-0.01801,0.00519,-0.04456
6.5745,0.02274,-0.05844,-0.03845,0.01419,0.00824,-0.05737,-0.02228,-0.02884,0.02899,-0.15121,0.01495,-0.02808,-0.03662,-0.00763,0.00778,-0.0386
6.575,0.01572,-0.06088,-0.03998,0.00931,0.00519,-0.05783,-0.0238,-0.02457,0.0087,-0.14328,-0.0206,-0.01709,-0.03784,0.00092,0.01099,-0.03662
6.5755,0.00214,-0.06134,-0.04044,0.00809,0.01053,-0.05173,-0.02243,-0.0145,-0.00748,-0.08453,-0.04349,-0.01541,-0.03693,0.00275,0.00992,-0.04166
6.576,-0.01175,-0.05783,-0.0383,0.0116,0.01694,-0.047,-0.01862,-0.01663,-0.03952,-0.02487,-0.04486,-0.04578,-0.03693,-0.00122,0.00732,-0.05219
6.5765,-0.01877,-0.05035,-0.03525,0.01633,0.01755,-0.04288,-0.01663,-0.03174,-0.0853,0.01007,-0.03296,-0.07858,-0.03738,-0.00427,0.00519,-0.05997
6.577,-0.01694,-0.04135,-0.03357,0.01907,0.00916,-0.04074,-0.0174,-0.04471,-0.12222,0.03845,-0.01999,-0.06378,-0.03784,-0.00397,0.00244,-0.06073
6.5775,-0.00778,-0.03586,-0.03601,0.0174,-0.00641,-0.03876,-0.01923,-0.04532,-0.13977,0.07034,-0.01251,-0.00214,-0.03723,-0.00443,0.00519,-0.05737
6.578,0.00336,-0.03281,-0.04181,0.0145,-0.0238,-0.03677,-0.0209,-0.03525,-0.13916,0.10086,-0.01556,0.05325,-0.03555,-0.01053,0.00763,-0.05539
6.5785,0.01205,-0.03082,-0.04807,0.01663,-0.03586,-0.03311,-0.01938,-0.01648,-0.12009,0.1268,-0.03006,0.05753,-0.0325,-0.02121,0.00916,-0.05249
6.579,0.01648,-0.02808,-0.05035,0.0264,-0.03433,-0.02884,-0.01587,0.009,-0.08438,0.15015,-0.05692,0.02426,-0.03128,-0.0325,0.01129,-0.04745
6.5795,0.01648,-0.0267,-0.05341,0.03693,-0.02716,-0.02487,-0.01144,0.0383,-0.04715,0.17105,-0.0856,-0.00488,-0.03098,-0.04044,0.01312,-0.03998
6.58,0.01602,-0.02777,-0.05157,0.03922,-0.02075,-0.02289,-0.00732,0.06058,-0.02777,0.17731,-0.10086,-0.0148,-0.03113,-0.04242,0.01556,-0.03464
6.5805,0.01343,-0.03036,-0.04745,0.02655,-0.0177,-0.02365,-0.00626,0.06836,-0.03708,0.16327,-0.0972,-0.01572,-0.03082,-0.04059,0.01419,-0.03403
6.581,0.01114,-0.03204,-0.04456,0.00854,-0.00992,-0.02411,-0.00778,0.05814,-0.07004,0.1297,-0.08224,-0.01984,-0.02945,-0.03769,0.00885,-0.03647
6.5815,0.00809,-0.03265,-0.04059,-0.00122,0.0032,-0.02411,-0.00946,0.03571,-0.10162,0.09766,-0.06317,-0.02563,-0.03021,-0.03571,0.00427,-0.03677
6.582,0.00381,-0.03311,-0.0351,0.00092,0.01389,-0.02365,-0.01068,0.00885,-0.10025,0.07385,-0.03952,-0.02396,-0.0351,-0.03586,0.00061,-0.0322
6.5825,0.00015,-0.03448,-0.02975,0.00748,0.01755,-0.02411,-0.01099,-0.01434,-0.05951,0.05478,-0.00931,-0.01312,-0.03983,-0.0354,0.00412,-0.0235
6.583,-0.00122,-0.03525,-0.02487,0.00961,0.01678,-0.02045,-0.01221,-0.03052,-0.00824,0.03342,0.01785,-0.00183,-0.04074,-0.03479,0.01038,-0.01541
6.5835,-0.00183,-0.03769,-0.02182,0.0058,0.01938,-0.01816,-0.01511,-0.03632,0.01953,0.01083,0.02884,0.00214,-0.03876,-0.03387,0.01587,-0.01007
6.584,-0.0032,-0.04196,-0.02014,-0.00259,0.02884,-0.01663,-0.01877,-0.03265,0.01648,-0.01328,0.01877,-0.00015,-0.03845,-0.03342,0.02014,-0.00778
6.5845,-0.00824,-0.04669,-0.0206,-0.0116,0.04318,-0.01907,-0.02045,-0.02411,-0.00458,-0.04776,-0.00259,-0.00412,-0.04089,-0.03326,0.0235,-0.00565
6.585,-0.01602,-0.04974,-0.01816,-0.02106,0.05981,-0.01892,-0.02014,-0.01755,-0.02975,-0.09888,-0.02487,-0.00656,-0.04196,-0.03189,0.02411,-0.00748
6.5855,-0.02136,-0.04807,-0.01862,-0.0322,0.0769,-0.01862,-0.01907,-0.01587,-0.05249,-0.1413,-0.04318,-0.01038,-0.04074,-0.0296,0.02289,-0.01511
6.586,-0.02136,-0.04517,-0.01968,-0.04822,0.08804,-0.01633,-0.01801,-0.01678,-0.07111,-0.15442,-0.05875,-0.01312,-0.03922,-0.02731,0.02197,-0.02853
6.5865,-0.01801,-0.04318,-0.02029,-0.06638,0.08453,-0.01663,-0.02029,-0.01785,-0.0827,-0.13092,-0.07156,-0.01282,-0.03876,-0.02686,0.02167,-0.04501
6.587,-0.01526,-0.04242,-0.02167,-0.07736,0.06073,-0.01892,-0.02243,-0.01709,-0.0769,-0.09323,-0.07584,-0.00977,-0.03815,-0.02716,0.01907,-0.05997
6.5875,-0.01511,-0.04211,-0.02472,-0.07278,0.01724,-0.01877,-0.02274,-0.01511,-0.05127,-0.05493,-0.06699,-0.00549,-0.03494,-0.02533,0.01282,-0.0737
6.588,-0.01404,-0.04105,-0.02777,-0.05951,-0.03113,-0.01877,-0.01968,-0.01343,-0.02045,-0.01984,-0.04639,-0.00168,-0.03143,-0.02151,0.0029,-0.0853
6.5885,-0.01266,-0.04028,-0.02945,-0.05219,-0.06485,-0.01678,-0.01892,-0.01205,-0.00076,0.00671,-0.02426,0.0029,-0.02899,-0.01907,-0.00473,-0.09521
6.589,-0.01328,-0.03906,-0.02899,-0.04944,-0.08072,-0.01495,-0.01984,-0.01129,0.00626,0.02121,-0.01343,0.01419,-0.02914,-0.01678,-0.00732,-0.09796
6.5895,-0.01572,-0.03876,-0.03006,-0.03372,-0.10132,-0.01373,-0.02106,-0.01251,0.01312,0.02563,-0.01785,0.03082,-0.03006,-0.01404,-0.00763,-0.0946
6.59,-0.01602,-0.03754,-0.02975,-0.00031,-0.13931,-0.01373,-0.01984,-0.01678,0.02716,0.02502,-0.03052,0.04181,-0.03098,-0.01526,-0.00961,-0.08514
6.5905,-0.01266,-0.03845,-0.03113,0.03159,-0.17273,-0.01556,-0.01663,-0.02014,0.04395,0.02609,-0.04166,0.03738,-0.0322,-0.01801,-0.01602,-0.07172
6.591,-0.01068,-0.04044,-0.03296,0.03937,-0.17426,-0.0174,-0.01312,-0.02151,0.05142,0.02304,-0.0412,0.02289,-0.03433,-0.02045,-0.01724,-0.05875
6.5915,-0.01053,-0.04196,-0.03357,0.01877,-0.14267,-0.01328,-0.01175,-0.02106,0.04074,0.01938,-0.02853,0.01205,-0.03677,-0.01877,-0.01068,-0.04929
6.592,-0.0116,-0.04196,-0.03265,-0.00885,-0.10132,-0.00946,-0.01083,-0.02045,0.01663,0.01541,-0.01099,0.0061,-0.03693,-0.01495,0.00046,-0.04562
6.5925,-0.01129,-0.04242,-0.0325,-0.01816,-0.07095,-0.00549,-0.01083,-0.01633,-0.01099,0.01175,0.00397,-0.00046,-0.03464,-0.01205,0.00519,-0.04593
6.593,-0.00839,-0.04379,-0.03418,-0.00046,-0.04898,-0.00458,-0.01038,-0.00977,-0.03265,0.00763,0.0177,-0.00946,-0.0325,-0.0119,0.00244,-0.05112
6.5935,-0.0061,-0.04562,-0.03662,0.0264,-0.02625,-0.00504,-0.00977,-0.00793,-0.04654,-0.00214,0.03052,-0.00961,-0.03159,-0.01297,0.00031,-0.05173
6.594,-0.00351,-0.047,-0.03998,0.03693,-0.00092,-0.00626,-0.01068,-0.01556,-0.04898,-0.01846,0.03693,0.00336,-0.03082,-0.0148,0.0032,-0.04868
6.5945,-0.00061,-0.0473,-0.04395,0.0264,0.01968,-0.00565,-0.01144,-0.0325,-0.03647,-0.03799,0.03387,0.01801,-0.03082,-0.01648,0.00854,-0.04242
6.595,0.00229,-0.0473,-0.04288,0.01785,0.03296,-0.00412,-0.01175,-0.04669,-0.01221,-0.05341,0.02411,0.01923,-0.03159,-0.01755,0.00931,-0.03769
6.5955,0.00366,-0.0473,-0.04242,0.03845,0.03601,-0.00397,-0.01144,-0.03906,0.0119,-0.06226,0.01297,0.00854,-0.03204,-0.01785,0.00488,-0.03754
6.596,0.00351,-0.04639,-0.04181,0.07858,0.02869,-0.00549,-0.01007,-0.00626,0.02625,-0.06531,-0.00092,-0.00122,-0.03189,-0.01816,0.00137,-0.0386
6.5965,0.00443,-0.04593,-0.04364,0.09644,0.00473,-0.009,-0.00809,0.02945,0.02899,-0.0647,-0.01419,-0.00107,-0.0325,-0.01892,0.00214,-0.03799
6.597,0.00488,-0.04669,-0.04486,0.04883,-0.04089,-0.01221,-0.00732,0.03799,0.0235,-0.06439,-0.02121,0.00366,-0.03387,-0.01907,0.00305,-0.03448
6.5975,0.00351,-0.04959,-0.0383,-0.04868,-0.09537,-0.01434,-0.0087,0.01617,0.01266,-0.06012,-0.01892,0.00763,-0.03586,-0.01923,0.0029,-0.03403
6.598,0.00046,-0.05127,-0.02899,-0.14145,-0.13916,-0.01419,-0.01038,-0.0087,0.00183,-0.05417,-0.01312,0.009,-0.03448,-0.02045,0.00565,-0.03601
6.5985,-0.00244,-0.05096,-0.0441,-0.19928,-0.15442,-0.01358,-0.01114,-0.01724,-0.00702,-0.04608,-0.00931,0.00778,-0.03113,-0.0238,0.01129,-0.03906
6.599,-0.00336,-0.04974,-0.10941,-0.23758,-0.14282,-0.01343,-0.01114,-0.0148,-0.01419,-0.03769,-0.01099,0.00458,-0.02792,-0.02625,0.01694,-0.04028
6.5995,-0.00351,-0.05249,-0.20386,-0.25848,-0.11826,-0.01587,-0.01083,-0.01434,-0.02335,-0.02899,-0.02258,0.0061,-0.02716,-0.02487,0.01816,-0.03952
6.6,-0.00519,-0.06042,-0.26932,-0.21576,-0.09293,-0.01678,-0.00961,-0.01694,-0.03769,-0.01724,-0.04013,0.01602,-0.02869,-0.01923,0.01801,-0.03845
6.6005,-0.00717,-0.0676,-0.27069,-0.05966,-0.07446,-0.01724,-0.00946,-0.01633,-0.05234,-0.00839,-0.05234,0.02899,-0.02975,-0.01465,0.01907,-0.03708
6.601,-0.00809,-0.06943,-0.21576,0.1741,-0.0647,-0.0174,-0.01038,-0.00992,-0.05585,0.00259,-0.0502,0.0351,-0.02975,-0.01465,0.01923,-0.03723
6.6015,-0.00763,-0.0676,-0.12085,0.35294,-0.06088,-0.01907,-0.0116,-0.00259,-0.04395,0.0119,-0.03998,0.02563,-0.03036,-0.01648,0.01801,-0.03586
6.602,-0.01007,-0.06424,-0.00748,0.35126,-0.05997,-0.02411,-0.01205,0.00183,-0.02213,0.01419,-0.03021,0.01205,-0.03098,-0.01724,0.01358,-0.03372
6.6025,-0.01404,-0.05966,0.10208,0.18661,-0.05646,-0.02853,-0.0119,0.00259,0.00153,0.00626,-0.02396,0.00397,-0.03036,-0.01602,0.01404,-0.02991
6.603,-0.02029,-0.05112,0.18097,-0.02289,-0.04974,-0.03342,-0.0116,0.00107,0.02289,-0.01007,-0.02182,0.00656,-0.02808,-0.01358,0.0148,-0.02228
6.6035,-0.02289,-0.04242,0.21362,-0.18295,-0.03922,-0.03632,-0.01205,-0.00046,0.03662,-0.02319,-0.02411,0.00931,-0.02762,-0.01236,0.01602,-0.01633
6.604,-0.02335,-0.03754,0.20782,-0.25681,-0.03006,-0.03159,-0.01236,-0.00076,0.03571,-0.02625,-0.02716,0.00351,-0.0296,-0.01282,0.01358,-0.01877
6.6045,-0.02228,-0.03479,0.17776,-0.22522,-0.01846,-0.02396,-0.01312,-0.00092,0.01862,-0.02304,-0.0264,-0.01404,-0.03357,-0.01389,0.01175,-0.02945
6.605,-0.02243,-0.03159,0.13382,-0.10605,-0.00473,-0.01328,-0.01587,-0.00366,-0.00244,-0.02563,-0.02304,-0.03357,-0.03647,-0.01617,0.01099,-0.03906
6.6055,-0.02274,-0.02853,0.08698,0.02518,0.0087,-0.00687,-0.01846,-0.00854,-0.01099,-0.03418,-0.02243,-0.04333,-0.03723,-0.01907,0.01099,-0.04074
6.606,-0.01999,-0.02609,0.03967,0.09674,0.01251,-0.00626,-0.01938,-0.0145,0.0,-0.05188,-0.02609,-0.04349,-0.03693,-0.0209,0.01053,-0.0383
6.6065,-0.01495,-0.02167,0.00351,0.10391,0.00153,-0.01053,-0.01862,-0.01617,0.02197,-0.07019,-0.02365,-0.03876,-0.03677,-0.01953,0.00992,-0.03799
6.607,-0.00839,-0.01465,-0.01694,0.07843,-0.01312,-0.01633,-0.01755,-0.01511,0.03754,-0.08194,-0.0061,-0.03479,-0.03586,-0.01709,0.01083,-0.04425
6.6075,-0.00305,-0.01129,-0.0264,0.0415,-0.01266,-0.02335,-0.01862,-0.01282,0.0386,-0.08865,0.01892,-0.02991,-0.03571,-0.01465,0.01068,-0.05615
6.608,0.00046,-0.01328,-0.03311,0.0032,0.00885,-0.03586,-0.02136,-0.01465,0.02533,-0.08759,0.0325,-0.02182,-0.0351,-0.01404,0.00916,-0.065
6.6085,0.00122,-0.0177,-0.04089,-0.0206,0.0386,-0.05203,-0.02258,-0.02167,0.01007,-0.08072,0.02869,-0.0119,-0.03571,-0.01465,0.00519,-0.06866
6.609,0.00076,-0.02045,-0.04974,-0.0206,0.05814,-0.0705,-0.02197,-0.03967,0.00488,-0.06989,0.01617,-0.00244,-0.0351,-0.01511,0.00107,-0.0679
6.6095,0.00092,-0.02121,-0.05417,-0.00488,0.06195,-0.08743,-0.01953,-0.07233,0.01511,-0.06302,0.00854,0.00549,-0.03281,-0.01541,-0.00443,-0.06256
6.61,0.00412,-0.02304,-0.05646,0.01129,0.05569,-0.1001,-0.01648,-0.103,0.03036,-0.05814,0.00946,0.0116,-0.02975,-0.01587,-0.009,-0.05737
6.6105,0.00778,-0.02548,-0.05783,0.01938,0.05264,-0.10986,-0.01465,-0.0882,0.03723,-0.05157,0.01297,0.01328,-0.02884,-0.01709,-0.00839,-0.05157
6.611,0.00977,-0.02899,-0.06271,0.0177,0.05173,-0.11124,-0.01526,-0.00854,0.02716,-0.04562,0.01328,0.01312,-0.02975,-0.01953,-0.00229,-0.04395
6.6115,0.00992,-0.03479,-0.06485,0.01053,0.04013,-0.10559,-0.01724,0.08621,0.00687,-0.03922,0.01282,0.01663,-0.03067,-0.02319,0.00412,-0.03281
6.612,0.00839,-0.04379,-0.06577,0.00107,0.01007,-0.0914,-0.01678,0.12146,-0.01328,-0.03448,0.01404,0.02029,-0.02975,-0.02869,0.00839,-0.02411
6.6125,0.00641,-0.05035,-0.06256,-0.00748,-0.02762,-0.07233,-0.01404,0.08728,-0.02472,-0.03052,0.01846,0.01892,-0.02838,-0.03281,0.00504,-0.02197
6.613,0.00397,-0.05417,-0.06363,-0.01434,-0.06592,-0.05402,-0.01251,0.03876,-0.02838,-0.0264,0.02228,0.01038,-0.02884,-0.03159,-0.00031,-0.02411
6.6135,0.00229,-0.05463,-0.07629,-0.01938,-0.10056,-0.04532,-0.01373,0.01907,-0.02731,-0.02441,0.02274,0.00305,-0.02808,-0.02762,-0.0032,-0.02182
6.614,0.00092,-0.05569,-0.10269,-0.01877,-0.12573,-0.04837,-0.01694,0.02014,-0.02518,-0.01968,0.0174,0.00336,-0.02655,-0.02319,-0.00137,-0.01526
6.6145,-0.00229,-0.06104,-0.12726,-0.01343,-0.13565,-0.05341,-0.01816,0.01938,-0.02441,-0.01572,0.00534,0.00946,-0.0264,-0.02045,0.0029,-0.01266
6.615,-0.00626,-0.07156,-0.13763,-0.01572,-0.1329,-0.05371,-0.01602,0.01251,-0.02563,-0.00702,-0.00824,0.01373,-0.02869,-0.0209,0.00641,-0.01358
6.6155,-0.00839,-0.08408,-0.13565,-0.03891,-0.12726,-0.04929,-0.01251,0.00809,-0.02899,-0.00046,-0.01907,0.01419,-0.03189,-0.02197,0.009,-0.0177
6.616,-0.00946,-0.08881,-0.12299,-0.07339,-0.12054,-0.04562,-0.01221,0.00458,-0.03143,0.00519,-0.02426,0.01297,-0.03265,-0.02274,0.01053,-0.01938
6.6165,-0.01022,-0.08331,-0.09506,-0.0914,-0.10742,-0.04745,-0.01541,-0.00488,-0.03067,0.00473,-0.02731,0.01007,-0.03189,-0.01938,0.01068,-0.02533
6.617,-0.01083,-0.07034,-0.05478,-0.07767,-0.07874,-0.04883,-0.0177,-0.02121,-0.02655,0.00076,-0.03021,0.00519,-0.03281,-0.01465,0.00931,-0.04211
6.6175,-0.00992,-0.05905,-0.01205,-0.04059,-0.03418,-0.04761,-0.01831,-0.03632,-0.02228,-0.00687,-0.03159,-0.00122,-0.03525,-0.0119,0.0058,-0.05951
6.618,-0.00793,-0.0502,0.01984,0.00244,0.00916,-0.04654,-0.01648,-0.04196,-0.01984,-0.0087,-0.03006,-0.0032,-0.03769,-0.01266,0.00244,-0.06958
6.6185,-0.00687,-0.04333,0.03998,0.03983,0.03143,-0.04791,-0.01556,-0.03937,-0.02258,-0.01007,-0.02563,-0.00229,-0.03876,-0.01328,-0.00031,-0.06454
6.619,-0.00809,-0.0386,0.04501,0.05295,0.02777,-0.05112,-0.01587,-0.03357,-0.02792,-0.00656,-0.02029,-0.00046,-0.03922,-0.01205,-0.00153,-0.05493
6.6195,-0.00854,-0.03708,0.04074,0.00961,0.01999,-0.05524,-0.01526,-0.0238,-0.03281,-0.01083,-0.01602,0.00244,-0.03967,-0.01022,-0.00397,-0.04669
6.62,-0.00793,-0.03769,0.03281,-0.08865,0.02838,-0.05646,-0.01373,-0.00626,-0.03616,-0.0174,-0.01343,0.01083,-0.03891,-0.01144,-0.00214,-0.04333
6.6205,-0.00641,-0.03494,0.02396,-0.18478,0.04471,-0.05646,-0.01144,0.02121,-0.03983,-0.0267,-0.01724,0.01968,-0.03799,-0.01358,0.00412,-0.04013
6.621,-0.00488,-0.02899,0.01663,-0.21988,0.0383,-0.05737,-0.01129,0.04669,-0.04242,-0.03082,-0.0296,0.02106,-0.03662,-0.01541,0.0119,-0.04272
6.6215,-0.00244,-0.02319,0.00641,-0.20004,-0.01038,-0.05905,-0.01266,0.04974,-0.04379,-0.03235,-0.04379,0.01434,-0.03693,-0.01633,0.01694,-0.04883
6.622,-0.00153,-0.01862,-0.00458,-0.16083,-0.08621,-0.06271,-0.01282,0.02151,-0.04364,-0.03357,-0.04456,0.00641,-0.0383,-0.01831,0.01724,-0.05295
6.6225,-0.0058,-0.01465,-0.01434,-0.10605,-0.15778,-0.06729,-0.01083,-0.01633,-0.04074,-0.03098,-0.02899,0.00366,-0.03799,-0.02075,0.01755,-0.047
6.623,-0.01526,-0.0116,-0.02411,-0.01526,-0.19699,-0.07202,-0.00778,-0.03326,-0.03448,-0.0238,-0.00641,0.00366,-0.03769,-0.02441,0.02014,-0.0386
6.6235,-0.02411,-0.01144,-0.03174,0.11261,-0.19394,-0.0737,-0.00671,-0.02716,-0.02655,-0.01282,0.0116,0.00259,-0.0383,-0.02716,0.02289,-0.02945
6.624,-0.02411,-0.01434,-0.03983,0.23514,-0.15793,-0.07156,-0.00763,-0.01648,-0.01953,0.00366,0.01907,0.00153,-0.04089,-0.02975,0.02304,-0.02579
6.6245,-0.00656,-0.01755,-0.0502,0.3009,-0.11047,-0.06439,-0.01007,-0.01343,-0.01282,0.01404,0.01892,0.00244,-0.0441,-0.03082,0.02243,-0.02625
6.625,0.03006,-0.01938,-0.05966,0.28305,-0.07034,-0.05905,-0.01114,-0.01007,-0.009,0.01785,0.01907,0.0029,-0.04562,-0.03052,0.0209,-0.03235
6.6255,0.06393,-0.01923,-0.06577,0.19302,-0.04547,-0.05341,-0.01068,0.00168,-0.00916,0.01221,0.02472,0.0,-0.04395,-0.02716,0.01999,-0.04715
6.626,0.06607,-0.01694,-0.06714,0.08606,-0.03128,-0.04837,-0.01053,0.0177,-0.01282,0.00961,0.03265,-0.0029,-0.04013,-0.0235,0.01846,-0.06287
6.6265,0.03265,-0.0119,-0.06531,0.0145,-0.02213,-0.04196,-0.00977,0.02533,-0.01587,0.009,0.03616,-0.00366,-0.03693,-0.02243,0.0174,-0.07294
6.627,-0.00839,-0.00793,-0.06256,-0.01114,-0.01251,-0.03525,-0.0087,0.01816,-0.01602,0.01297,0.03204,-0.00458,-0.03586,-0.0235,0.02197,-0.07523
6.6275,-0.03159,-0.00854,-0.05981,-0.02213,-0.00122,-0.02777,-0.00854,0.00488,-0.01587,0.01129,0.02182,-0.00717,-0.03662,-0.02533,0.02396,-0.07217
6.628,-0.03311,-0.01282,-0.05478,-0.05219,0.01099,-0.02548,-0.0087,0.00198,-0.01923,0.00916,0.01251,-0.00839,-0.03799,-0.02625,0.01953,-0.06714
6.6285,-0.02853,-0.01831,-0.0502,-0.10864,0.02014,-0.02823,-0.01022,0.00793,-0.02411,0.00549,0.009,-0.0058,-0.03784,-0.02487,0.01297,-0.06302
6.629,-0.02792,-0.02182,-0.05692,-0.17471,0.0238,-0.03265,-0.01251,0.00488,-0.02823,0.00275,0.01083,0.00229,-0.03525,-0.02029,0.01114,-0.05646
6.6295,-0.02914,-0.02502,-0.09338,-0.2269,0.02594,-0.03525,-0.01755,-0.01251,-0.02914,-0.00137,0.01358,0.01053,-0.03021,-0.01282,0.0116,-0.04944
6.63,-0.02731,-0.03174,-0.17349,-0.23163,0.02899,-0.03357,-0.02121,-0.03525,-0.02975,-0.00137,0.01175,0.01419,-0.02411,-0.00687,0.01053,-0.04242
6.6305,-0.02502,-0.04181,-0.27206,-0.15045,0.02762,-0.03372,-0.02258,-0.05295,-0.02899,-0.00015,0.00275,0.01114,-0.01892,-0.0061,0.00565,-0.03906
6.631,-0.02396,-0.04913,-0.33905,0.00351,0.01572,-0.03448,-0.02014,-0.0563,-0.02548,-0.0058,-0.009,0.00702,-0.01816,-0.00992,0.00076,-0.03662
6.6315,-0.02457,-0.0502,-0.33722,0.13794,-0.00885,-0.03571,-0.01572,-0.03662,-0.02136,-0.00946,-0.01862,0.00259,-0.02029,-0.0116,-0.00122,-0.03952
6.632,-0.02243,-0.04608,-0.26611,0.16953,-0.03235,-0.03616,-0.01266,-0.00015,-0.0209,-0.01389,-0.02365,-0.00031,-0.02472,-0.01114,0.00092,-0.04608
6.6325,-0.01678,-0.04593,-0.14648,0.11292,-0.04578,-0.03372,-0.00961,0.02243,-0.02655,-0.02411,-0.02579,-0.00183,-0.02914,-0.0116,0.00504,-0.05035
6.633,-0.00992,-0.05295,-0.00275,0.04547,-0.04822,-0.03357,-0.00641,0.0116,-0.03754,-0.03143,-0.02701,-0.00092,-0.02991,-0.01343,0.00748,-0.05112
6.6335,-0.00488,-0.06226,0.13321,0.00641,-0.04593,-0.03479,-0.00458,-0.01419,-0.04791,-0.03571,-0.03128,0.00076,-0.02914,-0.01663,0.00504,-0.05203
6.634,-0.00656,-0.06958,0.22964,-0.01617,-0.03662,-0.03601,-0.0061,-0.01953,-0.05661,-0.03906,-0.03586,0.00183,-0.02792,-0.01724,-0.00275,-0.05783
6.6345,-0.01373,-0.07095,0.27405,-0.03876,-0.02274,-0.03983,-0.00885,0.00839,-0.06393,-0.03601,-0.03906,0.00031,-0.02762,-0.01572,-0.00809,-0.06561
6.635,-0.02243,-0.07141,0.27252,-0.05814,-0.00931,-0.04379,-0.00824,0.05478,-0.06683,-0.03433,-0.0412,-0.00122,-0.02777,-0.0148,-0.01282,-0.07446
6.6355,-0.02518,-0.07172,0.24063,-0.05966,-0.00061,-0.04868,-0.00641,0.0856,-0.06302,-0.02777,-0.04105,0.00061,-0.02686,-0.0148,-0.01541,-0.08514
6.636,-0.02182,-0.06927,0.19226,-0.04486,0.00214,-0.05341,-0.00992,0.08057,-0.05646,-0.02167,-0.04211,0.00427,-0.02686,-0.01358,-0.01633,-0.09003
6.6365,-0.01755,-0.06104,0.14069,-0.02487,-0.00015,-0.05325,-0.01526,0.04608,-0.05341,-0.02151,-0.0441,0.00809,-0.02823,-0.01221,-0.01205,-0.08591
6.637,-0.01556,-0.0502,0.09628,-0.01083,-0.00824,-0.04883,-0.01816,0.00778,-0.05005,-0.02289,-0.04623,0.009,-0.03067,-0.01251,-0.00488,-0.07706
6.6375,-0.01419,-0.04059,0.0618,-0.0087,-0.01999,-0.0412,-0.01755,-0.01251,-0.04089,-0.02945,-0.04669,0.00916,-0.03235,-0.01495,-0.00015,-0.06683
6.638,-0.01221,-0.03479,0.03632,-0.01968,-0.03387,-0.03494,-0.01709,-0.01083,-0.02441,-0.03036,-0.04486,0.00824,-0.03387,-0.01801,0.00381,-0.05524
6.6385,-0.01251,-0.03067,0.00732,-0.0415,-0.03754,-0.03235,-0.01846,0.00168,-0.00565,-0.02991,-0.04196,0.00778,-0.03571,-0.02075,0.0116,-0.04272
6.639,-0.01862,-0.02625,-0.02426,-0.05966,-0.02121,-0.03281,-0.01831,0.00916,0.009,-0.02762,-0.04196,0.00626,-0.03799,-0.02457,0.02289,-0.03021
6.6395,-0.03082,-0.01938,-0.05753,-0.06256,0.00931,-0.03464,-0.01587,0.00488,0.01907,-0.02609,-0.04379,0.0061,-0.04044,-0.02899,0.03342,-0.01892
6.64,-0.04257,-0.01236,-0.08118,-0.05463,0.03571,-0.03296,-0.01068,-0.01007,0.02396,-0.02716,-0.04501,0.00504,-0.04623,-0.03387,0.03983,-0.01373
6.6405,-0.04684,-0.00809,-0.09277,-0.05249,0.04684,-0.0351,-0.00641,-0.02884,0.02533,-0.03036,-0.04288,0.00244,-0.05463,-0.03708,0.04013,-0.0058
6.641,-0.03952,-0.00824,-0.09445,-0.06042,0.04425,-0.04059,-0.00488,-0.04501,0.02365,-0.02991,-0.04028,-0.00183,-0.05966,-0.0354,0.03418,0.0174
6.6415,-0.02487,-0.01068,-0.09445,-0.06424,0.03021,-0.04379,-0.00626,-0.056,0.01984,-0.03189,-0.03662,-0.00427,-0.05539,-0.02945,0.02441,0.05234
6.642,-0.00839,-0.01724,-0.09552,-0.0473,0.0029,-0.04471,-0.0087,-0.05936,0.01495,-0.03204,-0.03143,-0.00534,-0.04654,-0.02518,0.01526,0.06668
6.6425,0.00473,-0.02533,-0.09674,-0.01068,-0.04288,-0.04486,-0.01114,-0.05539,0.0087,-0.02563,-0.0264,-0.00488,-0.03906,-0.02487,0.0029,0.04105
6.643,0.01389,-0.03204,-0.08957,0.02853,-0.10773,-0.04776,-0.01205,-0.04547,0.00443,-0.02319,-0.02228,-0.00259,-0.03677,-0.02655,-0.00961,-0.00458
6.6435,0.02426,-0.03616,-0.07813,0.04227,-0.17044,-0.0502,-0.01221,-0.0293,0.00229,-0.01938,-0.01968,-0.00061,-0.03647,-0.02548,-0.0209,-0.04227
6.644,0.03922,-0.04028,-0.06592,0.0264,-0.19592,-0.04944,-0.01465,-0.00168,0.00183,-0.0209,-0.01816,-0.00153,-0.03448,-0.02182,-0.03098,-0.05646
6.6445,0.05112,-0.04532,-0.05768,0.0058,-0.17014,-0.04379,-0.01907,0.03799,0.00137,-0.01816,-0.01709,-0.00443,-0.03021,-0.01846,-0.03632,-0.0563
6.645,0.0502,-0.04898,-0.05203,0.00732,-0.1178,-0.0386,-0.02228,0.07721,0.00015,-0.01846,-0.01663,-0.00641,-0.02609,-0.0174,-0.0351,-0.05524
6.6455,0.03357,-0.05051,-0.04837,0.0267,-0.07965,-0.03662,-0.02243,0.09903,-0.0029,-0.01526,-0.01648,-0.00549,-0.02472,-0.0177,-0.02899,-0.05386
6.646,0.00793,-0.05066,-0.047,0.03891,-0.06622,-0.03433,-0.01953,0.10086,-0.00549,-0.0145,-0.01648,-0.00214,-0.02487,-0.01831,-0.02289,-0.05081
6.6465,-0.01236,-0.05478,-0.047,0.02823,-0.05997,-0.03372,-0.01755,0.09232,-0.00824,-0.0145,-0.01602,0.00244,-0.02518,-0.01923,-0.01862,-0.04791
6.647,-0.02029,-0.06149,-0.04852,-0.00275,-0.04929,-0.03479,-0.01846,0.08301,-0.00916,-0.01602,-0.01358,0.00504,-0.0238,-0.01862,-0.01083,-0.04593
6.6475,-0.01785,-0.06912,-0.05051,-0.04318,-0.03616,-0.03448,-0.0209,0.07385,-0.00839,-0.01465,-0.01236,0.00336,-0.02304,-0.01846,-0.00336,-0.04593
6.648,-0.01144,-0.07462,-0.04898,-0.08743,-0.02808,-0.03296,-0.02258,0.06226,-0.00565,-0.01419,-0.01312,0.00061,-0.02319,-0.01846,0.00549,-0.04578
6.6485,-0.00763,-0.07614,-0.04623,-0.13321,-0.02975,-0.03159,-0.02441,0.04166,-0.00153,-0.0148,-0.01297,0.00076,-0.02487,-0.0177,0.01251,-0.04242
6.649,-0.00381,-0.07278,-0.0415,-0.1712,-0.04211,-0.03021,-0.02594,0.00732,0.00366,-0.01389,-0.01419,0.00229,-0.02747,-0.01724,0.01724,-0.03723
6.6495,0.00626,-0.06516,-0.04013,-0.18326,-0.06119,-0.02823,-0.02472,-0.0383,0.00687,-0.00702,-0.01862,0.00381,-0.0296,-0.01694,0.01678,-0.03296
6.65,0.02426,-0.05783,-0.03815,-0.15137,-0.07538,-0.02792,-0.0209,-0.08911,0.00824,-0.00458,-0.0209,0.00229,-0.03143,-0.0174,0.01572,-0.03387
6.6505,0.04608,-0.05142,-0.03708,-0.07523,-0.06882,-0.02655,-0.01923,-0.13458,0.00763,-0.00137,-0.01312,-0.00076,-0.03189,-0.01602,0.01831,-0.03983
6.651,0.06912,-0.04578,-0.03708,0.00351,-0.04257,-0.02457,-0.0209,-0.15732,0.00534,0.00198,0.00137,-0.00336,-0.03113,-0.01343,0.01968,-0.04379
6.6515,0.09964,-0.04318,-0.03479,0.02914,-0.01617,-0.02243,-0.02533,-0.13275,-0.00046,0.00519,0.01297,-0.00549,-0.03052,-0.01129,0.01984,-0.04272
6.652,0.12878,-0.04349,-0.03693,-0.00381,-0.0061,-0.0235,-0.02686,-0.05524,-0.01007,0.00595,0.01709,-0.00748,-0.03174,-0.01114,0.01953,-0.04211
6.6525,0.13031,-0.04578,-0.04013,-0.0354,-0.01099,-0.02823,-0.02411,0.03723,-0.02533,0.0,0.01862,-0.009,-0.03357,-0.01129,0.01648,-0.04379
6.653,0.08453,-0.04898,-0.0412,-0.00153,-0.01923,-0.03021,-0.01938,0.08514,-0.04562,-0.0058,0.0209,-0.00946,-0.03403,-0.01205,0.01358,-0.04929
6.6535,0.0148,-0.05264,-0.04242,0.08713,-0.02487,-0.03174,-0.01511,0.06363,-0.06622,-0.0087,0.01724,-0.009,-0.03326,-0.01419,0.01129,-0.05539
6.654,-0.03998,-0.05814,-0.04654,0.15991,-0.02502,-0.03204,-0.01419,0.01083,-0.08392,-0.01724,0.00854,-0.00732,-0.03372,-0.01572,0.01099,-0.05936
6.6545,-0.06577,-0.06073,-0.05142,0.16663,-0.02258,-0.03448,-0.01678,-0.02487,-0.09598,-0.03265,0.00381,-0.00565,-0.03647,-0.01709,0.01602,-0.05798
6.655,-0.07446,-0.05783,-0.05539,0.12283,-0.01877,-0.03708,-0.0209,-0.0354,-0.09964,-0.05386,0.00198,-0.00244,-0.03891,-0.01816,0.0174,-0.04883
6.6555,-0.07736,-0.04852,-0.05737,0.0737,-0.01602,-0.03693,-0.0235,-0.04257,-0.09048,-0.06668,-0.00595,0.00061,-0.03891,-0.01816,0.01694,-0.02518
6.656,-0.07523,-0.03998,-0.05859,0.04166,-0.01083,-0.03448,-0.02411,-0.05157,-0.07141,-0.06332,-0.0238,0.00107,-0.03738,-0.01816,0.01663,0.0116
6.6565,-0.06882,-0.03815,-0.05844,0.02457,-0.00397,-0.03433,-0.02243,-0.05035,-0.05524,-0.05127,-0.04379,-0.0029,-0.03815,-0.01846,0.01709,0.03906
6.657,-0.06897,-0.03952,-0.05768,0.01404,0.00015,-0.03677,-0.01923,-0.04059,-0.05371,-0.03922,-0.0563,-0.009,-0.04044,-0.01892,0.01892,0.03479
6.6575,-0.08636,-0.04242,-0.0528,0.01373,-0.00107,-0.03632,-0.01785,-0.04257,-0.05966,-0.03052,-0.06241,-0.01328,-0.04211,-0.02075,0.01862,0.00153
6.658,-0.12039,-0.04486,-0.04654,0.0293,-0.00519,-0.0351,-0.01938,-0.06683,-0.04913,-0.02136,-0.07202,-0.01404,-0.04089,-0.0235,0.01816,-0.0322
6.6585,-0.15533,-0.04944,-0.04044,0.06073,-0.00732,-0.03357,-0.02167,-0.09552,-0.01129,-0.01801,-0.0882,-0.01068,-0.03891,-0.02472,0.01892,-0.04776
6.659,-0.17075,-0.05432,-0.03876,0.09384,-0.01923,-0.03571,-0.02136,-0.1062,0.04257,-0.0177,-0.09949,-0.00626,-0.03662,-0.02106,0.02213,-0.05035
6.6595,-0.15793,-0.06302,-0.03922,0.10529,-0.04562,-0.0383,-0.01938,-0.09338,0.08743,-0.01648,-0.08987,-0.00397,-0.03281,-0.01343,0.0238,-0.06088
6.66,-0.12085,-0.07782,-0.03738,0.08728,-0.07782,-0.04028,-0.01862,-0.07019,0.10574,-0.0145,-0.05814,-0.00381,-0.02945,-0.00809,0.02274,-0.08606
6.6605,-0.07034,-0.09369,-0.03464,0.05814,-0.09491,-0.04181,-0.01801,-0.05951,0.1001,-0.00488,-0.01877,-0.00366,-0.02777,-0.00809,0.01877,-0.11185
6.661,-0.0177,-0.09979,-0.02914,0.04105,-0.09048,-0.0386,-0.01678,-0.06744,0.08148,0.00809,0.00656,-0.00366,-0.02747,-0.01389,0.01678,-0.11902
6.6615,0.02808,-0.09598,-0.02945,0.04013,-0.0705,-0.03265,-0.01312,-0.0798,0.06119,0.0148,0.01709,-0.00473,-0.0267,-0.01938,0.01465,-0.10223
6.662,0.06088,-0.08728,-0.02731,0.04669,-0.04272,-0.02701,-0.00656,-0.08224,0.04471,0.01862,0.01846,-0.00519,-0.02426,-0.0238,0.009,-0.06851
6.6625,0.07874,-0.07721,-0.02411,0.05188,-0.01953,-0.02365,-0.00076,-0.08713,0.02823,0.01663,0.01984,-0.0029,-0.0209,-0.02899,0.00198,-0.03235
6.663,0.08484,-0.06516,-0.02304,0.05096,-0.01266,-0.02136,0.00092,-0.10666,0.01038,0.0119,0.0235,0.00015,-0.01755,-0.03464,-0.00122,0.00214
6.6635,0.08301,-0.0499,-0.02274,0.04227,-0.02319,-0.02197,-0.0029,-0.13184,-0.00671,0.00458,0.02838,0.00107,-0.01465,-0.0386,-0.00183,0.02991
6.664,0.07629,-0.03494,-0.02823,0.0235,-0.03067,-0.02197,-0.00641,-0.13382,-0.01923,-0.00412,0.03616,-0.00046,-0.01099,-0.03784,-0.00671,0.03418
6.6645,0.06836,-0.02182,-0.0383,-0.00412,-0.01923,-0.02106,-0.00656,-0.09125,-0.03052,-0.00977,0.0444,-0.00092,-0.00854,-0.03311,-0.01465,0.00732
6.665,0.0618,-0.01144,-0.04929,-0.04166,0.00778,-0.02106,-0.00656,-0.0087,-0.05157,-0.01297,0.04303,0.00015,-0.01038,-0.02609,-0.02304,-0.0322
6.6655,0.05615,-0.00153,-0.05508,-0.08301,0.0322,-0.02182,-0.01007,0.0885,-0.0885,-0.01678,0.02762,0.00092,-0.01785,-0.01968,-0.01251,-0.056
6.666,0.05081,0.01099,-0.05783,-0.12161,0.04776,-0.02441,-0.01465,0.17212,-0.12726,-0.02213,0.00366,-0.00046,-0.02686,-0.01633,0.01923,-0.05981
6.6665,0.04486,0.02533,-0.05264,-0.15305,0.05997,-0.02472,-0.01617,0.21622,-0.14023,-0.03082,-0.01816,-0.0029,-0.03479,-0.01465,0.04318,-0.06851
6.667,0.0386,0.03754,-0.04807,-0.16861,0.07156,-0.02487,-0.01633,0.19928,-0.11688,-0.04837,-0.02823,-0.00488,-0.04089,-0.01495,0.03799,-0.09644
6.6675,0.03036,0.04486,-0.03967,-0.16235,0.07904,-0.02563,-0.01968,0.10803,-0.07248,-0.07721,-0.02762,-0.00488,-0.04349,-0.0148,0.01358,-0.12772
6.668,0.02136,0.04227,-0.03525,-0.13748,0.07202,-0.03006,-0.02655,-0.03296,-0.02899,-0.10086,-0.02319,-0.00351,-0.04242,-0.01419,-0.0058,-0.14282
6.6685,0.01358,0.02777,-0.03387,-0.10208,0.04715,-0.03708,-0.0325,-0.15015,0.00854,-0.1033,-0.01801,-0.00076,-0.04013,-0.0148,-0.00565,-0.13657
6.669,0.0087,0.00183,-0.03052,-0.05325,0.01678,-0.04227,-0.03143,-0.15564,0.04517,-0.08362,-0.01343,0.00092,-0.0386,-0.01602,0.0,-0.1062
6.6695,0.00549,-0.03113,-0.02533,0.00565,-0.00961,-0.04181,-0.02609,-0.04257,0.07919,-0.05554,-0.01221,0.00214,-0.0383,-0.01801,0.00824,-0.05127
6.67,0.00275,-0.06058,-0.02182,0.04303,-0.03235,-0.03891,-0.02182,0.08835,0.10071,-0.03021,-0.01114,0.00198,-0.03815,-0.01801,0.0116,0.01358
6.6705,0.00183,-0.08026,-0.01907,0.0209,-0.05783,-0.0354,-0.02151,0.13062,0.10117,-0.0116,-0.00732,0.00107,-0.03616,-0.01617,0.00519,0.04623
6.671,0.00259,-0.08942,-0.01968,-0.05737,-0.08087,-0.03403,-0.02213,0.08499,0.08606,0.00214,-0.00702,-0.00076,-0.03036,-0.01373,-0.00656,0.02975
6.6715,0.00381,-0.09308,-0.02975,-0.1384,-0.08774,-0.03433,-0.0206,0.03601,0.06958,0.01114,-0.00992,-0.00244,-0.02228,-0.01129,-0.01755,-0.00854
6.672,0.00305,-0.09247,-0.04059,-0.16312,-0.07355,-0.03738,-0.01678,0.03082,0.05905,0.02106,-0.01282,-0.00198,-0.01633,-0.00839,-0.01877,-0.02716
6.6725,0.00153,-0.08682,-0.05096,-0.11688,-0.04837,-0.03937,-0.01373,0.04395,0.05234,0.03128,-0.01297,0.00061,-0.01404,-0.00473,-0.00641,-0.02335
6.673,0.0,-0.07492,-0.05264,-0.02808,-0.02762,-0.03677,-0.01373,0.04395,0.0415,0.03937,-0.01328,0.00229,-0.01572,-0.00137,0.00961,-0.02075
6.6735,-0.00031,-0.06149,-0.04364,0.06302,-0.0296,-0.03265,-0.01572,0.03067,0.02533,0.04166,-0.01373,0.00015,-0.01923,-0.00137,0.01999,-0.02975
6.674,-0.00122,-0.04929,-0.03006,0.13031,-0.05463,-0.03281,-0.01602,0.01755,0.00351,0.03632,-0.01389,-0.00214,-0.02228,-0.00504,0.01968,-0.03769
6.6745,-0.0029,-0.0412,-0.01663,0.15427,-0.07996,-0.03601,-0.01312,0.01236,-0.02411,0.02213,-0.01144,-0.00214,-0.02533,-0.00946,0.01541,-0.03799
6.675,-0.00656,-0.03555,-0.00397,0.11475,-0.08652,-0.03891,-0.00854,0.02563,-0.05356,0.00092,-0.0061,-0.00031,-0.02945,-0.01465,0.01617,-0.03632
6.6755,-0.01083,-0.0293,0.00137,0.0087,-0.07416,-0.03876,-0.00488,0.05905,-0.07431,-0.02426,-0.00366,0.00015,-0.03632,-0.01968,0.01511,-0.03922
6.676,-0.01129,-0.02213,-0.00671,-0.13168,-0.05188,-0.03616,-0.00107,0.0943,-0.08148,-0.04623,-0.01007,-0.00153,-0.04242,-0.02274,0.01816,-0.04288
6.6765,-0.00748,-0.00961,-0.03998,-0.25757,-0.02441,-0.03677,0.00122,0.1004,-0.08209,-0.05722,-0.02899,-0.00305,-0.04379,-0.02548,0.01892,-0.04486
6.677,-0.00229,0.00626,-0.12115,-0.336,0.00259,-0.03906,0.00107,0.0708,-0.08453,-0.05554,-0.05539,-0.00183,-0.04105,-0.0267,0.01617,-0.04898
6.6775,0.00198,0.02319,-0.23224,-0.33112,0.01144,-0.03784,-0.00626,0.03311,-0.08682,-0.04349,-0.07767,0.00183,-0.03708,-0.02716,0.01297,-0.05432
6.678,0.00214,0.03815,-0.30365,-0.2034,-0.00244,-0.03586,-0.01556,0.01404,-0.08331,-0.02533,-0.08621,0.00458,-0.0351,-0.02625,0.00992,-0.05676
6.6785,0.00198,0.04639,-0.27924,0.01236,-0.03036,-0.03433,-0.02365,0.01465,-0.07248,-0.0061,-0.08148,0.00458,-0.03403,-0.02686,0.01465,-0.05356
6.679,0.00214,0.04242,-0.17014,0.18021,-0.06104,-0.0351,-0.02853,0.0177,-0.05829,0.00565,-0.06577,0.00214,-0.03311,-0.03067,0.01709,-0.04852
6.6795,0.00351,0.02533,-0.02869,0.19424,-0.08591,-0.03738,-0.02975,0.01495,-0.04898,0.01465,-0.0412,0.00015,-0.03143,-0.0354,0.01694,-0.04456
6.68,0.00488,0.00397,0.09613,0.10468,-0.09689,-0.04028,-0.02609,0.00961,-0.04883,0.01984,-0.01984,0.00107,-0.03006,-0.03677,0.01129,-0.04227
6.6805,0.00458,-0.0116,0.17654,0.03494,-0.09277,-0.04593,-0.01877,0.00702,-0.05905,0.0209,-0.00397,0.00397,-0.02899,-0.0351,0.00839,-0.04074
6.681,0.00412,-0.02213,0.20966,0.02899,-0.08484,-0.04852,-0.01282,0.00809,-0.07309,0.01846,-0.00015,0.00656,-0.02945,-0.03143,0.00854,-0.04181
6.6815,0.00443,-0.03036,0.19852,0.04349,-0.07782,-0.04639,-0.00977,0.00824,-0.08392,0.01434,-0.00885,0.00565,-0.03113,-0.02747,0.00809,-0.04486
6.682,0.00412,-0.03571,0.16037,0.03998,-0.06058,-0.04135,-0.00839,0.00458,-0.08728,0.00961,-0.02121,0.00107,-0.03296,-0.02533,0.00809,-0.05005
6.6825,0.00366,-0.03937,0.11658,0.02594,-0.02853,-0.03494,-0.00641,-0.00244,-0.08179,0.00641,-0.02914,-0.00366,-0.03281,-0.02289,0.00778,-0.05707
6.683,0.00153,-0.04196,0.07965,0.00626,0.00244,-0.03052,-0.00305,-0.00839,-0.06714,0.00793,-0.02792,-0.00946,-0.02853,-0.02014,0.01022,-0.06744
6.6835,-0.00061,-0.04593,0.04913,-0.03799,0.01526,-0.02914,0.00153,-0.01419,-0.04822,0.01144,-0.01846,-0.01343,-0.02335,-0.0177,0.01022,-0.07706
6.684,-0.00275,-0.05035,0.02487,-0.11185,0.01266,-0.0322,0.00702,-0.02625,-0.03174,0.01083,0.00015,-0.01114,-0.01831,-0.01572,0.00916,-0.07614
6.6845,-0.00549,-0.0531,0.00168,-0.17929,0.00824,-0.03876,0.01221,-0.04074,-0.01968,-0.00229,0.02151,-0.00473,-0.01434,-0.01404,0.00687,-0.06195
6.685,-0.0029,-0.05829,-0.01953,-0.20096,0.0061,-0.04486,0.01785,-0.047,-0.01236,-0.02319,0.04166,-0.00031,-0.01297,-0.01343,0.00687,-0.03983
6.6855,0.01038,-0.06378,-0.04517,-0.17303,0.00977,-0.05051,0.02319,-0.04318,-0.01114,-0.04059,0.05264,0.0,-0.0145,-0.0145,0.00809,-0.01846
6.686,0.03357,-0.06805,-0.07751,-0.1152,0.01862,-0.05478,0.03006,-0.03494,-0.01633,-0.04501,0.05112,0.00092,-0.01724,-0.01541,0.00961,-0.00717
6.6865,0.05157,-0.07019,-0.09995,-0.03265,0.03174,-0.05753,0.03693,-0.02228,-0.02213,-0.03922,0.04303,0.00351,-0.01785,-0.01495,0.00916,-0.00854
6.687,0.04715,-0.07065,-0.10239,0.07446,0.04501,-0.06088,0.04242,-0.00122,-0.02548,-0.03128,0.03433,0.00458,-0.01678,-0.01358,0.00626,-0.0177
6.6875,0.02106,-0.07126,-0.07874,0.18936,0.05112,-0.06363,0.04044,0.02365,-0.02518,-0.02808,0.02838,0.00031,-0.01694,-0.01282,0.0029,-0.02762
6.688,-0.00885,-0.06989,-0.04623,0.27527,0.03082,-0.06805,0.03082,0.03494,-0.02411,-0.02686,0.02457,-0.00839,-0.02151,-0.01419,0.00275,-0.0325
6.6885,-0.03098,-0.06454,-0.04578,0.29938,-0.02182,-0.07355,0.01495,0.01373,-0.02258,-0.03098,0.01709,-0.01694,-0.02884,-0.01572,0.00198,-0.03143
6.689,-0.04471,-0.05615,-0.11047,0.25803,-0.08316,-0.0795,-0.00168,-0.03967,-0.02136,-0.03448,0.01038,-0.01984,-0.03708,-0.01785,0.00061,-0.02457
6.6895,-0.05524,-0.05035,-0.2182,0.17776,-0.10971,-0.08072,-0.01678,-0.09521,-0.01785,-0.03464,0.00549,-0.01678,-0.04517,-0.02029,0.00015,-0.01602
6.69,-0.06302,-0.04837,-0.30228,0.09583,-0.09247,-0.07919,-0.02747,-0.10849,-0.01266,-0.0296,0.00031,-0.01312,-0.05463,-0.02167,0.0,-0.01068
6.6905,-0.06577,-0.04807,-0.31357,0.03571,-0.06058,-0.07828,-0.03326,-0.06943,-0.0061,-0.02533,-0.00351,-0.01114,-0.06256,-0.02014,0.00107,-0.00946
6.691,-0.06393,-0.04883,-0.26154,0.00229,-0.04395,-0.08011,-0.0351,-0.02319,-0.00015,-0.02411,-0.01175,-0.01007,-0.06592,-0.01709,0.0029,-0.00778
6.6915,-0.06058,-0.04852,-0.17685,-0.01389,-0.04501,-0.08423,-0.03586,-0.01236,0.00366,-0.02716,-0.01678,-0.00748,-0.06424,-0.01358,0.00732,-0.0061
6.692,-0.0647,-0.04913,-0.07034,-0.02548,-0.04486,-0.09018,-0.03616,-0.02014,0.00397,-0.02823,-0.01785,-0.0029,-0.05981,-0.01083,0.01144,-0.00748
6.6925,-0.08743,-0.0499,0.0499,-0.03464,-0.03952,-0.09354,-0.03586,-0.01022,0.00305,-0.02716,-0.01755,0.00183,-0.05386,-0.00839,0.01541,-0.01633
6.693,-0.12726,-0.04944,0.16113,-0.03632,-0.03128,-0.09399,-0.03128,0.01511,0.0029,-0.02502,-0.01816,0.00336,-0.04807,-0.00717,0.01801,-0.03098
6.6935,-0.16312,-0.04898,0.23056,-0.02991,-0.02487,-0.09079,-0.0235,0.02167,0.00351,-0.0235,-0.0206,0.00168,-0.04105,-0.00717,0.01938,-0.04669
6.694,-0.17212,-0.05142,0.24399,-0.02289,-0.02518,-0.08713,-0.01877,-0.00259,0.00412,-0.02197,-0.02213,-0.00031,-0.03189,-0.00763,0.01968,-0.05936
6.6945,-0.14725,-0.05524,0.21805,-0.02136,-0.04227,-0.08377,-0.0177,-0.03433,0.00397,-0.02151,-0.02319,-0.00061,-0.02167,-0.00946,0.01831,-0.06851
6.695,-0.1033,-0.05966,0.17166,-0.02136,-0.07599,-0.08163,-0.01663,-0.04456,0.0032,-0.02304,-0.02518,0.0,-0.01404,-0.0119,0.01419,-0.08072
6.6955,-0.05249,-0.06317,0.12207,-0.01999,-0.1062,-0.08102,-0.0148,-0.03235,0.00351,-0.02289,-0.0267,0.00046,-0.01038,-0.01373,0.00656,-0.09125
6.696,0.0061,-0.06516,0.08377,-0.01617,-0.10208,-0.07904,-0.01328,-0.02396,0.00381,-0.02167,-0.02747,0.00366,-0.01099,-0.01556,-0.00183,-0.09186
6.6965,0.07004,-0.06622,0.05295,-0.01312,-0.05783,-0.07568,-0.01389,-0.03357,0.00458,-0.02045,-0.02777,0.00992,-0.0145,-0.01892,-0.00839,-0.08102
6.697,0.13,-0.06668,0.02136,-0.01404,0.00031,-0.07523,-0.01694,-0.05524,0.00473,-0.01999,-0.02777,0.01419,-0.01968,-0.02365,-0.00671,-0.06851
6.6975,0.16861,-0.0679,-0.01862,-0.01526,0.04028,-0.07202,-0.02243,-0.06897,0.00305,-0.02258,-0.0267,0.01358,-0.02533,-0.03052,-0.00076,-0.06119
6.698,0.17731,-0.0737,-0.06439,-0.01434,0.05249,-0.07172,-0.02655,-0.07111,0.00107,-0.0235,-0.02396,0.00793,-0.0296,-0.03571,0.00565,-0.05173
6.6985,0.15945,-0.0856,-0.10727,-0.01312,0.05081,-0.07401,-0.02884,-0.06088,0.00168,-0.02289,-0.02151,0.00458,-0.0322,-0.03769,0.00961,-0.0354
6.699,0.12756,-0.09949,-0.13687,-0.01419,0.0351,-0.07797,-0.02792,-0.0264,0.00336,-0.02121,-0.02182,0.00565,-0.03693,-0.0351,0.00687,-0.01831
6.6995,0.09644,-0.10605,-0.14816,-0.01602,0.00443,-0.0798,-0.02319,0.03693,0.00427,-0.01953,-0.02197,0.01083,-0.04654,-0.03265,0.00229,-0.01266
6.7,0.07233,-0.10071,-0.14221,-0.01373,-0.04089,-0.07935,-0.01694,0.10269,0.0032,-0.01617,-0.02258,0.01724,-0.05981,-0.02991,-0.00565,-0.02335
6.7005,0.05096,-0.08713,-0.12802,-0.00732,-0.0853,-0.07843,-0.01297,0.12497,0.00183,-0.01541,-0.02182,0.02045,-0.0737,-0.02869,-0.00961,-0.04379
6.701,0.0238,-0.07019,-0.11597,0.00183,-0.11322,-0.0769,-0.01312,0.08774,0.00092,-0.01617,-0.02121,0.0174,-0.08194,-0.02808,-0.01022,-0.06378
6.7015,-0.00916,-0.05066,-0.10178,0.00793,-0.11322,-0.07294,-0.01236,0.02625,0.00046,-0.01785,-0.01999,0.01022,-0.07996,-0.02609,-0.00504,-0.07858
6.702,-0.04288,-0.03204,-0.08133,0.00763,-0.08728,-0.06866,-0.01541,-0.01373,-0.00092,-0.01877,-0.01907,0.00565,-0.06668,-0.0209,0.00229,-0.09567
6.7025,-0.06927,-0.01694,-0.05066,0.00153,-0.05188,-0.06424,-0.02335,-0.01968,-0.00275,-0.0174,-0.01709,0.00565,-0.04944,-0.01404,0.00702,-0.11856
6.703,-0.08163,-0.00473,-0.02167,-0.00488,-0.0264,-0.06149,-0.03647,-0.01053,-0.00488,-0.01694,-0.01709,0.00854,-0.03494,-0.0119,0.00595,-0.13123
6.7035,-0.07919,0.00229,-0.00305,-0.00824,-0.01923,-0.0621,-0.04852,-0.00565,-0.00565,-0.01694,-0.01831,0.01236,-0.02762,-0.01282,0.0,-0.11017
6.704,-0.06409,0.00259,0.00778,-0.01099,-0.02365,-0.06271,-0.05463,-0.00549,-0.00565,-0.01923,-0.0206,0.01526,-0.02258,-0.0148,-0.00107,-0.0621
6.7045,-0.04395,-0.00351,0.01724,-0.01419,-0.02579,-0.06042,-0.05386,-0.00244,-0.00595,-0.02045,-0.0209,0.01495,-0.01617,-0.01343,0.00031,-0.02563
6.705,-0.02655,-0.00763,0.02716,-0.01953,-0.01968,-0.05432,-0.04639,0.00229,-0.00778,-0.01968,-0.02182,0.01038,-0.00992,-0.01099,0.0061,-0.02563
6.7055,-0.01312,-0.00565,0.0264,-0.0235,-0.00458,-0.04929,-0.03479,0.00473,-0.01221,-0.01892,-0.02289,0.00427,-0.009,-0.01038,0.00916,-0.04303
6.706,-0.00244,-0.00229,-0.00824,-0.02335,0.01236,-0.04501,-0.02182,0.00504,-0.01434,-0.01846,-0.02365,0.00214,-0.01694,-0.0119,0.01083,-0.05173
6.7065,0.00702,-0.00351,-0.09079,-0.01968,0.0264,-0.03906,-0.01221,0.00793,-0.01358,-0.01907,-0.02518,0.00412,-0.03006,-0.01541,0.01022,-0.04852
6.707,0.01709,-0.00351,-0.1944,-0.01556,0.03586,-0.03387,-0.00778,0.01419,-0.01129,-0.01877,-0.02518,0.00641,-0.04089,-0.01984,0.00717,-0.04272
6.7075,0.02686,0.00122,-0.2681,-0.01236,0.0412,-0.02838,-0.00427,0.02289,-0.00992,-0.01663,-0.02411,0.00641,-0.04257,-0.02136,0.00412,-0.04028
6.708,0.03281,0.00641,-0.27588,-0.01129,0.03784,-0.02396,0.00381,0.03052,-0.01083,-0.0148,-0.02228,0.00534,-0.0386,-0.01999,0.00458,-0.03662
6.7085,0.03387,0.00275,-0.22385,-0.01114,0.02502,-0.02182,0.01633,0.03357,-0.01205,-0.0145,-0.02167,0.00687,-0.03586,-0.01755,0.01007,-0.03189
6.709,0.03082,-0.00824,-0.13016,-0.00854,-0.00275,-0.02274,0.02487,0.02716,-0.01312,-0.01465,-0.02182,0.00854,-0.03906,-0.0174,0.01221,-0.03036
6.7095,0.0264,-0.01938,-0.01587,-0.00229,-0.04257,-0.02396,0.0235,0.01312,-0.01419,-0.01572,-0.02243,0.00885,-0.0444,-0.02014,0.0116,-0.03387
6.71,0.02258,-0.02609,0.09491,0.00092,-0.08652,-0.0238,0.01144,-0.0032,-0.01511,-0.01556,-0.01953,0.00809,-0.04501,-0.02243,0.01251,-0.03616
6.7105,0.02121,-0.03174,0.17303,-0.00397,-0.1152,-0.02319,-0.00595,-0.0148,-0.01602,-0.01587,-0.0148,0.00763,-0.03952,-0.02075,0.01358,-0.03693
6.711,0.02167,-0.03983,0.20538,-0.01892,-0.1123,-0.02243,-0.02075,-0.02045,-0.01663,-0.01755,-0.01389,0.00748,-0.03296,-0.01831,0.01404,-0.03845
6.7115,0.02151,-0.04761,0.20126,-0.0351,-0.08728,-0.02136,-0.02609,-0.02197,-0.01633,-0.01923,-0.01495,0.00626,-0.02914,-0.01816,0.01373,-0.04074
6.712,0.0174,-0.05096,0.17853,-0.04623,-0.05768,-0.0209,-0.02472,-0.01938,-0.01511,-0.01999,-0.01801,0.0029,-0.02869,-0.02121,0.01404,-0.04349
6.7125,0.00977,-0.0502,0.14496,-0.05264,-0.04395,-0.02106,-0.02213,-0.01648,-0.01343,-0.01877,-0.01892,-0.0029,-0.02899,-0.02228,0.01511,-0.04593
6.713,0.0029,-0.0502,0.10742,-0.05783,-0.04532,-0.02182,-0.02014,-0.01587,-0.01312,-0.01694,-0.01846,-0.00687,-0.02808,-0.02213,0.01389,-0.04898
6.7135,-0.00107,-0.05493,0.07309,-0.05646,-0.04654,-0.02274,-0.01709,-0.01541,-0.01465,-0.01678,-0.01602,-0.00626,-0.02396,-0.0209,0.01236,-0.04898
6.714,-0.00565,-0.06165,0.0412,-0.04135,-0.03983,-0.02365,-0.01083,-0.01312,-0.01587,-0.01938,-0.01389,-0.00229,-0.01694,-0.02182,0.01282,-0.04547
6.7145,-0.01419,-0.06699,0.01083,-0.01251,-0.02884,-0.02472,-0.00595,-0.01022,-0.01511,-0.02136,-0.01221,0.00214,-0.01022,-0.02167,0.01678,-0.04257
6.715,-0.02518,-0.07034,-0.01801,0.00885,-0.01801,-0.02441,-0.0058,-0.01266,-0.01434,-0.02289,-0.01266,0.0058,-0.00549,-0.01694,0.01999,-0.04578
6.7155,-0.03647,-0.07111,-0.04715,0.00443,-0.01434,-0.0235,-0.01007,-0.02213,-0.01572,-0.0235,-0.01495,0.00824,-0.0032,-0.01129,0.02182,-0.05356
6.716,-0.04776,-0.06897,-0.07248,-0.01694,-0.02502,-0.02396,-0.01572,-0.0322,-0.01923,-0.02365,-0.01999,0.00885,-0.00397,-0.00854,0.02335,-0.05966
6.7165,-0.0589,-0.06699,-0.09094,-0.02716,-0.04379,-0.02594,-0.01785,-0.03464,-0.02289,-0.02365,-0.02319,0.00656,-0.00793,-0.01083,0.02396,-0.05829
6.717,-0.0621,-0.06561,-0.10086,-0.01633,-0.06027,-0.02808,-0.01572,-0.02701,-0.02487,-0.02304,-0.02411,0.00137,-0.01282,-0.01602,0.02502,-0.05203
6.7175,-0.05585,-0.06332,-0.10635,0.00153,-0.05981,-0.02914,-0.01053,-0.01221,-0.02472,-0.02213,-0.02411,-0.00427,-0.01709,-0.0206,0.02518,-0.04333
6.718,-0.04349,-0.05981,-0.10971,0.0061,-0.047,-0.02869,-0.00809,0.00748,-0.02274,-0.02151,-0.02365,-0.00748,-0.02075,-0.02167,0.02502,-0.03311
6.7185,-0.02869,-0.05615,-0.10757,-0.009,-0.03708,-0.02899,-0.01022,0.02838,-0.02014,-0.02106,-0.02335,-0.009,-0.02396,-0.02014,0.02045,-0.02274
6.719,-0.01205,-0.05371,-0.10437,-0.03952,-0.02579,-0.03098,-0.0148,0.04105,-0.0174,-0.0209,-0.01953,-0.0116,-0.02686,-0.01831,0.01297,-0.01251
6.7195,0.00519,-0.05173,-0.09644,-0.07126,-0.00992,-0.03433,-0.01572,0.03708,-0.01572,-0.02045,-0.01816,-0.0148,-0.02853,-0.01724,0.01038,-0.00824
6.72,0.01404,-0.05386,-0.09033,-0.08942,0.00778,-0.03708,-0.01144,0.02228,-0.0145,-0.02182,-0.01724,-0.01556,-0.02762,-0.01816,0.01312,-0.01694
6.7205,0.01282,-0.06531,-0.08362,-0.08636,0.01648,-0.03815,-0.00824,0.01129,-0.01266,-0.02304,-0.01541,-0.01236,-0.02716,-0.01953,0.01099,-0.03342
6.721,0.0116,-0.08484,-0.07782,-0.06851,0.01129,-0.03891,-0.01099,0.01022,-0.01236,-0.0235,-0.01404,-0.00778,-0.03128,-0.02106,0.0061,-0.03708
6.7215,0.02014,-0.1062,-0.07294,-0.04837,-0.01068,-0.04044,-0.01572,0.01495,-0.01328,-0.02167,-0.01495,-0.00336,-0.03922,-0.02136,-0.00336,-0.02136
6.722,0.03372,-0.12177,-0.07523,-0.0325,-0.04379,-0.04395,-0.01617,0.0177,-0.01495,-0.02045,-0.01694,0.00198,-0.04532,-0.02121,-0.00931,-0.009
6.7225,0.03723,-0.12497,-0.08865,-0.01526,-0.07141,-0.04883,-0.01144,0.01663,-0.01633,-0.02106,-0.01373,0.00717,-0.04669,-0.0206,-0.01083,-0.01862
6.723,0.02457,-0.11246,-0.11795,0.0032,-0.07416,-0.05096,-0.00977,0.01083,-0.01648,-0.02136,-0.01389,0.00961,-0.04242,-0.02075,-0.00702,-0.03342
6.7235,0.00381,-0.08591,-0.16235,0.01099,-0.05524,-0.05096,-0.01465,0.00198,-0.01831,-0.02228,-0.01312,0.00656,-0.03754,-0.01907,-0.0032,-0.03265
6.724,-0.01404,-0.05402,-0.19867,-0.00549,-0.03433,-0.05127,-0.02167,-0.00595,-0.01846,-0.02319,-0.01312,0.00092,-0.03235,-0.01663,0.00046,-0.02274
6.7245,-0.0322,-0.02777,-0.21149,-0.04135,-0.02686,-0.05371,-0.02655,-0.00931,-0.01816,-0.0209,-0.01328,-0.00412,-0.02579,-0.01312,0.00336,-0.01938
6.725,-0.05737,-0.00854,-0.2005,-0.07736,-0.02579,-0.05569,-0.02548,-0.00854,-0.0174,-0.01831,-0.01343,-0.0061,-0.01968,-0.01129,0.00626,-0.02487
6.7255,-0.08331,0.00366,-0.16907,-0.10193,-0.02243,-0.05386,-0.0235,-0.00885,-0.0177,-0.01633,-0.01404,-0.00427,-0.01587,-0.01266,0.00824,-0.03128
6.726,-0.09201,0.0119,-0.12268,-0.12024,-0.01419,-0.0528,-0.02319,-0.0116,-0.01617,-0.01587,-0.01251,-0.00015,-0.01724,-0.01602,0.01389,-0.03418
6.7265,-0.07782,0.0174,-0.07294,-0.13794,-0.01495,-0.05219,-0.02258,-0.0145,-0.01526,-0.01587,-0.01236,0.00275,-0.02304,-0.01968,0.01678,-0.03677
6.727,-0.05219,0.02365,-0.01465,-0.15259,-0.02594,-0.05447,-0.02106,-0.01419,-0.01495,-0.01633,-0.01053,0.00534,-0.02975,-0.01968,0.02045,-0.03754
6.7275,-0.02701,0.03326,0.03754,-0.15594,-0.03464,-0.05569,-0.0206,-0.01266,-0.01511,-0.01587,-0.00992,0.0058,-0.0351,-0.01678,0.02075,-0.03616
6.728,-0.00153,0.04227,0.07782,-0.13931,-0.01984,-0.05157,-0.02045,-0.01266,-0.01465,-0.0148,-0.01068,0.00366,-0.03723,-0.01343,0.01862,-0.03418
6.7285,0.02502,0.0441,0.10056,-0.09048,0.02731,-0.04776,-0.02121,-0.01297,-0.01282,-0.01465,-0.01068,-0.00168,-0.0386,-0.01419,0.01602,-0.0322
6.729,0.04776,0.03403,0.10513,0.00137,0.07645,-0.04745,-0.02121,-0.01022,-0.01221,-0.01419,-0.01053,-0.00519,-0.03998,-0.01968,0.01358,-0.0267
6.7295,0.05722,0.01282,0.09903,0.12177,0.09766,-0.05157,-0.01892,-0.00366,-0.01373,-0.0148,-0.00839,-0.00565,-0.04486,-0.02747,0.01663,-0.01953
6.73,0.05402,-0.01404,0.08194,0.22507,0.08469,-0.05966,-0.01587,0.00336,-0.01495,-0.01556,-0.00793,-0.00519,-0.05127,-0.03204,0.01556,-0.01831
6.7305,0.04486,-0.03632,0.06836,0.26627,0.05722,-0.06866,-0.01389,0.00931,-0.01511,-0.01724,-0.00732,-0.00397,-0.05417,-0.02899,0.01587,-0.02563
6.731,0.0351,-0.04684,0.05432,0.24124,0.0209,-0.07431,-0.01419,0.01236,-0.01526,-0.01617,-0.00916,-0.00412,-0.05096,-0.02274,0.01007,-0.04395
6.7315,0.0264,-0.04761,0.04059,0.16479,-0.0383,-0.07614,-0.01404,0.01297,-0.0148,-0.01556,-0.01038,-0.00488,-0.04547,-0.01923,0.00916,-0.06607
6.732,0.01785,-0.04517,0.02548,0.0383,-0.12817,-0.07492,-0.01343,0.01129,-0.01495,-0.01663,-0.01083,-0.0058,-0.04059,-0.02228,0.00732,-0.0766
6.7325,0.00717,-0.04456,0.00595,-0.14008,-0.21011,-0.07004,-0.01358,0.00732,-0.01755,-0.01923,-0.01144,-0.00519,-0.03784,-0.02792,0.00595,-0.0676
6.733,-0.00244,-0.04608,-0.0148,-0.31845,-0.23315,-0.06378,-0.01282,0.00275,-0.01862,-0.02106,-0.01251,-0.00397,-0.03555,-0.02991,0.00702,-0.04791
6.7335,-0.00565,-0.04745,-0.02945,-0.38803,-0.18646,-0.05783,-0.01282,-0.00107,-0.01785,-0.0209,-0.01419,-0.00366,-0.03448,-0.02701,0.00946,-0.0441
6.734,0.0061,-0.04654,-0.03448,-0.27435,-0.11108,-0.05661,-0.01389,-0.0032,-0.01709,-0.02136,-0.0145,-0.00519,-0.03708,-0.02304,0.00824,-0.06912
6.7345,0.03006,-0.04471,-0.02869,-0.03647,-0.06226,-0.05753,-0.01648,-0.00427,-0.01801,-0.02213,-0.0148,-0.00778,-0.04288,-0.02045,0.0061,-0.10712
6.735,0.0415,-0.04105,-0.02228,0.17059,-0.05737,-0.05814,-0.01968,-0.00534,-0.01755,-0.02335,-0.01343,-0.00977,-0.05096,-0.02029,0.00565,-0.13199
6.7355,0.02243,-0.03647,-0.01755,0.25284,-0.07385,-0.05844,-0.02136,-0.00717,-0.01663,-0.02319,-0.01358,-0.00732,-0.05981,-0.02136,-0.00061,-0.12756
6.736,-0.01282,-0.03479,-0.02975,0.24399,-0.07751,-0.06104,-0.01785,-0.01053,-0.01434,-0.02365,-0.01434,-0.00061,-0.065,-0.02335,0.00259,-0.09537
6.7365,-0.03387,-0.03677,-0.04578,0.21057,-0.05966,-0.06546,-0.01022,-0.01511,-0.01389,-0.02518,-0.01572,0.00275,-0.06058,-0.02182,0.00458,-0.04395
6.737,-0.0351,-0.04578,-0.06165,0.1683,-0.04456,-0.07065,-0.00397,-0.01755,-0.01541,-0.02686,-0.01648,-0.00214,-0.04776,-0.01709,0.00702,0.00397
6.7375,-0.04501,-0.056,-0.09018,0.11307,-0.05798,-0.07797,-0.00259,-0.01831,-0.01678,-0.02777,-0.01602,-0.01144,-0.03418,-0.01328,0.00671,0.02319
6.738,-0.08179,-0.05737,-0.12756,0.06485,-0.09018,-0.08591,-0.00549,-0.01938,-0.01617,-0.02716,-0.01602,-0.01404,-0.02533,-0.01175,0.0116,0.00809
6.7385,-0.12573,-0.047,-0.15289,0.04333,-0.09995,-0.08575,-0.01602,-0.02167,-0.01556,-0.02747,-0.01602,-0.00656,-0.01953,-0.01099,0.01648,-0.01648
6.739,-0.14404,-0.03189,-0.16144,0.04425,-0.05875,-0.07309,-0.03265,-0.02258,-0.01511,-0.02594,-0.01755,0.00488,-0.01465,-0.00946,0.0174,-0.02502
6.7395,-0.12375,-0.02197,-0.14877,0.05081,0.01007,-0.04898,-0.04715,-0.02243,-0.0148,-0.02213,-0.01785,0.00931,-0.01129,-0.00809,0.01755,-0.0174
6.74,-0.07797,-0.01602,-0.13733,0.05615,0.0528,-0.02426,-0.04791,-0.02258,-0.01434,-0.01541,-0.01587,0.00671,-0.01129,-0.00732,0.01663,-0.00687
6.7405,-0.01892,-0.009,-0.14908,0.0705,0.04562,-0.00809,-0.03342,-0.0235,-0.01282,-0.00977,-0.01373,0.00336,-0.01465,-0.00702,0.02121,0.00046
6.741,0.03616,-0.00351,-0.20111,0.10117,0.01053,0.00092,-0.01205,-0.02289,-0.01129,-0.00916,-0.01221,0.00031,-0.01846,-0.00732,0.02136,0.00351
6.7415,0.06577,-0.00443,-0.26901,0.13977,-0.01404,0.00443,0.0058,-0.01785,-0.0116,-0.01282,-0.01175,-0.00748,-0.0206,-0.00763,0.0235,0.00336
6.742,0.05844,-0.01312,-0.30853,0.15457,-0.02655,0.00473,0.01312,-0.01266,-0.01114,-0.01663,-0.0148,-0.01923,-0.0235,-0.00916,0.0264,0.00992
6.7425,0.0322,-0.0238,-0.29556,0.11475,-0.0502,-0.00183,0.00916,-0.01083,-0.0116,-0.01923,-0.01541,-0.0267,-0.02731,-0.01022,0.03006,0.03067
6.743,0.00931,-0.03159,-0.21011,0.02777,-0.08194,-0.01526,0.00259,-0.01251,-0.01114,-0.01923,-0.01373,-0.02197,-0.03281,-0.01099,0.03433,0.05295
6.7435,-0.0029,-0.03235,-0.08179,-0.05768,-0.09476,-0.03601,-0.00122,-0.01572,-0.01007,-0.02121,-0.00946,-0.00931,-0.03708,-0.0119,0.03479,0.04745
6.744,-0.00916,-0.02716,0.05234,-0.10101,-0.07172,-0.06165,-0.00076,-0.01617,-0.0087,-0.02274,-0.00885,0.00076,-0.03601,-0.01328,0.03906,0.00854
6.7445,-0.01083,-0.01953,0.1709,-0.11154,-0.02426,-0.08636,0.00076,-0.01266,-0.00671,-0.0238,-0.01038,0.00381,-0.0264,-0.0145,0.04257,-0.04227
6.745,-0.00534,-0.01953,0.24719,-0.12085,0.02045,-0.10651,0.00259,-0.00793,-0.00458,-0.02289,-0.01144,0.00031,-0.01343,-0.01663,0.04501,-0.07965
6.7455,0.0061,-0.03159,0.28183,-0.15076,0.05554,-0.12314,0.00198,-0.00717,-0.00381,-0.0235,-0.0116,-0.00534,-0.00778,-0.01953,0.03571,-0.10727
6.746,0.01816,-0.05142,0.27817,-0.18677,0.08026,-0.1387,0.0,-0.01007,-0.00412,-0.02579,-0.01205,-0.00793,-0.01251,-0.02243,0.02502,-0.13824
6.7465,0.02472,-0.06577,0.24963,-0.18539,0.08377,-0.14603,-0.00366,-0.01434,-0.00671,-0.02762,-0.01373,-0.00671,-0.02014,-0.0238,0.00748,-0.17059
6.747,0.0209,-0.07004,0.20065,-0.1207,0.04837,-0.14236,-0.00488,-0.01511,-0.00977,-0.02945,-0.01389,-0.00488,-0.02319,-0.0238,-0.00961,-0.19333
6.7475,0.00992,-0.06989,0.15167,-0.04044,-0.02365,-0.12604,-0.00458,-0.01114,-0.0148,-0.02975,-0.01587,-0.00336,-0.02457,-0.02213,-0.01709,-0.20218
6.748,0.0,-0.0708,0.112,-0.02274,-0.11871,-0.103,-0.00244,-0.00793,-0.02121,-0.03143,-0.0206,-0.00092,-0.03601,-0.02197,-0.01312,-0.1944
6.7485,0.00092,-0.07339,0.08835,-0.07141,-0.22217,-0.07767,-0.00168,-0.00565,-0.02533,-0.03372,-0.02441,0.00305,-0.0679,-0.02274,-0.00931,-0.15793
6.749,0.0206,-0.0737,0.07584,-0.1207,-0.30212,-0.05768,-0.00214,-0.00656,-0.02487,-0.03708,-0.02502,0.00702,-0.11002,-0.02411,-0.01724,-0.10269
6.7495,0.05981,-0.07187,0.06622,-0.1239,-0.31265,-0.04684,-0.00259,-0.00885,-0.02274,-0.03677,-0.02258,0.00809,-0.13229,-0.02396,-0.03174,-0.05463
6.75,0.1033,-0.06943,0.0499,-0.09979,-0.23544,-0.04211,-0.00183,-0.0116,-0.02106,-0.03525,-0.02396,0.00702,-0.11658,-0.02167,-0.03983,-0.01923
6.7505,0.12436,-0.06882,0.02167,-0.08606,-0.11826,-0.03998,-0.00153,-0.01465,-0.02106,-0.03204,-0.02701,0.00763,-0.07996,-0.0209,-0.03342,0.00885
6.751,0.10803,-0.07034,-0.00931,-0.09674,-0.03342,-0.03738,-0.00473,-0.01938,-0.0209,-0.02792,-0.02609,0.00824,-0.05249,-0.0206,-0.02213,0.00778
6.7515,0.06638,-0.07126,-0.03555,-0.12207,-0.00961,-0.0351,-0.01221,-0.02502,-0.0209,-0.02365,-0.01999,0.009,-0.04211,-0.01923,-0.00519,-0.03967
6.752,0.02518,-0.06912,-0.05737,-0.13733,-0.01205,-0.03357,-0.01755,-0.0293,-0.0209,-0.02121,-0.01266,0.00519,-0.04013,-0.01801,0.00443,-0.09995
6.7525,-0.00061,-0.06439,-0.07004,-0.12299,-0.00198,-0.0322,-0.01602,-0.0293,-0.01984,-0.02121,-0.00687,-0.00168,-0.03677,-0.0177,-0.00137,-0.11566
6.753,-0.01526,-0.05646,-0.07828,-0.0824,0.01953,-0.03265,-0.01022,-0.02502,-0.0206,-0.02151,-0.00412,-0.00549,-0.03326,-0.01831,-0.01633,-0.06989
6.7535,-0.03143,-0.04639,-0.07858,-0.04135,0.02625,-0.03586,-0.00595,-0.02136,-0.02411,-0.02289,-0.00351,-0.00198,-0.03021,-0.01892,-0.03235,-0.00656
6.754,-0.05173,-0.03464,-0.07385,-0.01266,0.01022,-0.03845,-0.00656,-0.02182,-0.03082,-0.02548,-0.00412,0.00092,-0.02777,-0.01999,-0.03571,0.02838
6.7545,-0.07034,-0.02441,-0.06744,0.01938,-0.01007,-0.03906,-0.01053,-0.0238,-0.03616,-0.02869,-0.00626,-0.0029,-0.02457,-0.02258,-0.02274,0.02625
6.755,-0.07904,-0.01923,-0.06454,0.07385,-0.01602,-0.03647,-0.01434,-0.02365,-0.03891,-0.0325,-0.00961,-0.01251,-0.02396,-0.02518,-0.01205,0.01312
6.7555,-0.07706,-0.01984,-0.06973,0.13626,-0.00137,-0.03159,-0.01556,-0.02121,-0.03708,-0.03876,-0.01144,-0.01709,-0.02579,-0.02594,-0.01404,0.01144
6.756,-0.07187,-0.02655,-0.08392,0.17319,0.02747,-0.02609,-0.01389,-0.01785,-0.03098,-0.04944,-0.00946,-0.01282,-0.0293,-0.02502,-0.01968,0.01419
6.7565,-0.07126,-0.03693,-0.10864,0.16708,0.05295,-0.01999,-0.01007,-0.01282,-0.02258,-0.05875,-0.00732,-0.00565,-0.03113,-0.02472,-0.02731,-0.00031
6.757,-0.07553,-0.05066,-0.14252,0.12924,0.047,-0.01648,-0.00687,-0.00748,-0.01266,-0.06149,-0.00671,-0.00259,-0.03189,-0.02594,-0.03281,-0.02411
6.7575,-0.07553,-0.06485,-0.17197,0.0856,0.00732,-0.01633,-0.00946,-0.00412,-0.00458,-0.05524,-0.0061,-0.0029,-0.03067,-0.02396,-0.03601,-0.03082
6.758,-0.06592,-0.07401,-0.19043,0.05661,-0.01907,-0.01221,-0.01434,-0.00458,0.00092,-0.04501,-0.00443,0.00015,-0.02808,-0.01953,-0.03204,-0.0209
6.7585,-0.0502,-0.07355,-0.21072,0.04944,-0.00519,-0.00351,-0.01892,-0.00397,0.00504,-0.03403,0.00015,0.00748,-0.02609,-0.01572,-0.02838,-0.02121
6.759,-0.03387,-0.06851,-0.24918,0.05264,0.02533,0.00198,-0.02213,0.00046,0.0061,-0.02411,0.00275,0.0148,-0.02731,-0.01556,-0.02243,-0.03906
6.7595,-0.02319,-0.0647,-0.29663,0.04791,0.01617,0.00168,-0.02228,0.0061,0.0061,-0.01328,0.0,0.01495,-0.0293,-0.01709,-0.01663,-0.0531
6.76,-0.01953,-0.07294,-0.31998,0.02426,-0.05341,-0.00168,-0.02106,0.01221,0.00198,-0.00427,-0.00702,0.00778,-0.0296,-0.01801,-0.0174,-0.04868
6.7605,-0.02258,-0.09216,-0.29709,-0.01068,-0.13794,-0.00488,-0.02014,0.01801,-0.00473,0.00336,-0.01297,0.00031,-0.0264,-0.01694,-0.02686,-0.03571
6.761,-0.02518,-0.11002,-0.23911,-0.03494,-0.17944,-0.00717,-0.01907,0.02975,-0.01053,0.0061,-0.01602,-0.00198,-0.02243,-0.01572,-0.04532,-0.03189
6.7615,-0.02487,-0.11108,-0.14954,-0.03494,-0.16449,-0.01068,-0.01663,0.04608,-0.01312,0.00885,-0.01572,0.00168,-0.02075,-0.01648,-0.06241,-0.03784
6.762,-0.02014,-0.09415,-0.03708,-0.0148,-0.12375,-0.01678,-0.0145,0.05722,-0.01495,0.01099,-0.01404,0.0119,-0.02121,-0.01862,-0.07034,-0.03723
6.7625,-0.01312,-0.06927,0.0946,0.01099,-0.09491,-0.02274,-0.01602,0.05432,-0.01846,0.01175,-0.0148,0.02075,-0.02197,-0.02121,-0.06744,-0.02197
6.763,-0.00549,-0.04364,0.21179,0.03143,-0.08041,-0.02762,-0.02182,0.03357,-0.02167,0.01038,-0.01633,0.02167,-0.02258,-0.02411,-0.03647,-0.00427
6.7635,-0.00259,-0.01617,0.29297,0.0412,-0.06317,-0.03036,-0.02686,0.0058,-0.02319,0.00839,-0.0177,0.01511,-0.02243,-0.02548,0.03143,0.00854
6.764,-0.00626,0.01404,0.32898,0.03555,-0.03662,-0.03357,-0.02869,-0.00549,-0.02106,0.0061,-0.01755,0.00549,-0.02274,-0.02655,0.11108,0.02487
6.7645,-0.01404,0.03571,0.327,0.01953,0.00061,-0.03571,-0.02884,0.01373,-0.01495,0.00351,-0.01663,0.00015,-0.02365,-0.0264,0.14511,0.04608
6.765,-0.01907,0.03922,0.28625,0.00305,0.03586,-0.03433,-0.02762,0.047,-0.00595,0.00137,-0.0145,0.00183,-0.02579,-0.0264,0.11856,0.05722
6.7655,-0.01816,0.02472,0.2002,-0.00793,0.06027,-0.03113,-0.02747,0.05707,-0.00214,0.00015,-0.01221,0.00641,-0.02823,-0.02686,0.07233,0.04349
6.766,-0.01022,0.0087,0.08408,-0.01297,0.07202,-0.0322,-0.02823,0.03693,-0.00565,-0.0032,-0.01083,0.00931,-0.03036,-0.02686,0.05371,0.01862
6.7665,0.00031,0.00214,-0.04196,-0.01434,0.07492,-0.03662,-0.02975,0.01419,-0.01221,-0.01053,-0.01083,0.00824,-0.0325,-0.02411,0.05707,0.01572
6.767,0.01038,0.00244,-0.1413,-0.0116,0.07309,-0.04211,-0.03082,0.01495,-0.01755,-0.02594,-0.01205,0.0058,-0.03372,-0.02014,0.05783,0.04822
6.7675,0.02045,0.00244,-0.18707,-0.00702,0.06195,-0.04395,-0.03021,0.03067,-0.02045,-0.04837,-0.01205,0.00565,-0.03387,-0.01724,0.04868,0.0882
6.768,0.03372,-0.00046,-0.18005,0.00122,0.03128,-0.04501,-0.0293,0.03922,-0.02396,-0.06683,-0.0119,0.00595,-0.03387,-0.01694,0.04135,0.09705
6.7685,0.05173,-0.00488,-0.13702,0.00977,-0.01923,-0.04578,-0.02655,0.03586,-0.0267,-0.07141,-0.01144,0.00626,-0.03448,-0.01709,0.04089,0.06805
6.769,0.06683,-0.01083,-0.07385,0.01205,-0.05768,-0.04654,-0.02396,0.0296,-0.02869,-0.06424,-0.01297,0.00534,-0.03525,-0.01923,0.03876,0.03174
6.7695,0.06393,-0.01953,-0.00092,0.0029,-0.04364,-0.04745,-0.02472,0.02625,-0.03098,-0.0502,-0.01678,0.0032,-0.03479,-0.02182,0.02853,0.01114
6.77,0.03662,-0.03143,0.06989,-0.01266,0.0174,-0.04837,-0.03082,0.02441,-0.0325,-0.03677,-0.01755,0.00076,-0.03357,-0.02335,0.00381,-0.00443
6.7705,-0.00443,-0.04044,0.10544,-0.02487,0.07767,-0.04959,-0.03784,0.02243,-0.03372,-0.02274,-0.01587,0.00061,-0.03174,-0.02228,-0.02655,-0.03433
6.771,-0.03815,-0.04623,0.09842,-0.0267,0.09842,-0.05112,-0.0412,0.02243,-0.03433,-0.00946,-0.01358,0.00214,-0.03113,-0.02045,-0.04333,-0.07385
6.7715,-0.05417,-0.0502,0.05371,-0.02289,0.07462,-0.05524,-0.03891,0.02304,-0.03326,0.00229,-0.0145,0.00504,-0.03128,-0.01892,-0.02914,-0.09613
6.772,-0.0563,-0.056,0.00168,-0.01877,0.01755,-0.06104,-0.03418,0.02289,-0.03082,0.01236,-0.01617,0.01068,-0.03036,-0.01816,-0.00183,-0.08743
6.7725,-0.04868,-0.06256,-0.04013,-0.01282,-0.06653,-0.06775,-0.03006,0.02335,-0.02899,0.01801,-0.0177,0.01541,-0.02869,-0.0177,0.01083,-0.07263
6.773,-0.03525,-0.06348,-0.06393,-0.00504,-0.15244,-0.07156,-0.02701,0.02716,-0.02777,0.01907,-0.01633,0.01755,-0.02441,-0.01694,0.00458,-0.08636
6.7735,-0.02029,-0.05951,-0.0827,-0.00031,-0.18784,-0.07339,-0.02411,0.03021,-0.02594,0.01892,-0.0145,0.01587,-0.01984,-0.01526,-0.00641,-0.13046
6.774,-0.00687,-0.05386,-0.08987,-0.00168,-0.14816,-0.0737,-0.02228,0.02701,-0.02441,0.01755,-0.01343,0.0119,-0.0174,-0.01297,-0.00519,-0.18265
6.7745,0.00427,-0.04562,-0.08163,-0.00534,-0.06592,-0.07828,-0.02243,0.01862,-0.0238,0.01541,-0.01343,0.00977,-0.01801,-0.0119,0.00351,-0.22354
6.775,0.01022,-0.03754,-0.05997,-0.00565,-0.00534,-0.08499,-0.0235,0.01511,-0.02502,0.01053,-0.01282,0.01083,-0.02151,-0.01282,0.01587,-0.24857
6.7755,0.00549,-0.03754,-0.0325,-0.00519,0.00839,-0.09323,-0.02121,0.01801,-0.02533,0.00534,-0.01358,0.01053,-0.02548,-0.01465,0.04395,-0.25665
6.776,-0.01587,-0.05325,-0.01038,-0.00946,-0.00458,-0.09949,-0.01694,0.01541,-0.02594,0.00198,-0.01465,0.00931,-0.0264,-0.01572,0.08255,-0.25345
6.7765,-0.05173,-0.07507,0.00183,-0.01755,-0.01907,-0.10361,-0.01266,-0.0116,-0.02609,0.00015,-0.01511,0.00687,-0.02594,-0.01587,0.10193,-0.25162
6.777,-0.0824,-0.0853,0.00763,-0.02472,-0.02014,-0.10361,-0.01068,-0.06668,-0.02686,-0.00504,-0.01358,0.00702,-0.02502,-0.01587,0.07782,-0.25131
6.7775,-0.09003,-0.07751,-0.00534,-0.02945,-0.00443,-0.09705,-0.01144,-0.10742,-0.02594,-0.01129,-0.01205,0.00809,-0.02533,-0.01633,0.02899,-0.22995
6.778,-0.07507,-0.065,-0.03571,-0.03708,0.01968,-0.08942,-0.0119,-0.08026,-0.02304,-0.01617,-0.01053,0.00946,-0.02579,-0.01526,-0.00443,-0.16037
6.7785,-0.056,-0.05798,-0.09384,-0.04822,0.03693,-0.08804,-0.01175,-0.00214,-0.02136,-0.01709,-0.01007,0.01038,-0.02655,-0.01633,-0.01282,-0.05051
6.779,-0.04272,-0.05585,-0.16541,-0.05539,0.03082,-0.09262,-0.01205,0.04059,-0.02197,-0.01465,-0.0116,0.01068,-0.02655,-0.01831,-0.00839,0.0354
6.7795,-0.0267,-0.05203,-0.22552,-0.05325,0.00275,-0.10071,-0.0116,0.00366,-0.02304,-0.01343,-0.01282,0.00931,-0.02716,-0.0209,-0.00046,0.0412
6.78,-0.00519,-0.04547,-0.25848,-0.0444,-0.03586,-0.10818,-0.00854,-0.05753,-0.02213,-0.01312,-0.01282,0.00839,-0.02792,-0.01999,-0.00397,0.00137
6.7805,0.01617,-0.0415,-0.25757,-0.03555,-0.07324,-0.11307,-0.00519,-0.07095,-0.01999,-0.01602,-0.01205,0.00717,-0.03036,-0.01831,-0.01892,-0.00534
6.781,0.03021,-0.03998,-0.21439,-0.02945,-0.10406,-0.11429,-0.00458,-0.03174,-0.01892,-0.02106,-0.0145,0.00397,-0.03418,-0.0177,-0.04486,0.0322
6.7815,0.04044,-0.03799,-0.12817,-0.02335,-0.12283,-0.11261,-0.00656,0.01694,-0.01923,-0.02808,-0.01953,-0.00076,-0.0386,-0.01953,-0.05035,0.05325
6.782,0.05096,-0.03525,-0.01648,-0.01862,-0.11429,-0.11185,-0.0061,0.04425,-0.0209,-0.03098,-0.02228,-0.00534,-0.04242,-0.02228,-0.03693,0.03235
6.7825,0.05936,-0.03052,0.08423,-0.0174,-0.07462,-0.10971,-0.00366,0.04257,-0.01968,-0.03067,-0.02151,-0.00748,-0.0441,-0.02289,-0.02335,0.01038
6.783,0.06195,-0.02686,0.14481,-0.02335,-0.01999,-0.10803,-0.0029,0.01236,-0.01755,-0.02899,-0.01801,-0.00687,-0.04059,-0.01999,-0.02945,0.02274
6.7835,0.0592,-0.02563,0.16174,-0.03128,0.02426,-0.10788,-0.00641,-0.03616,-0.01541,-0.02838,-0.01587,-0.00351,-0.03418,-0.01617,-0.04913,0.05493
6.784,0.05707,-0.03006,0.14435,-0.03281,0.04959,-0.11185,-0.00977,-0.0827,-0.0148,-0.02777,-0.01556,0.00137,-0.02823,-0.0148,-0.04425,0.07721
6.7845,0.05692,-0.0383,0.10498,-0.02823,0.06485,-0.11642,-0.00946,-0.10788,-0.01648,-0.02792,-0.01389,0.00412,-0.02625,-0.0177,-0.00015,0.08209
6.785,0.05692,-0.04395,0.06256,-0.02411,0.07553,-0.11749,-0.00595,-0.11505,-0.01694,-0.02701,-0.01053,0.00458,-0.02747,-0.02151,0.06638,0.06958
6.7855,0.05157,-0.04471,0.02792,-0.02365,0.07401,-0.11658,-0.00015,-0.12131,-0.01617,-0.02777,-0.009,0.00412,-0.02838,-0.02365,0.11597,0.03372
6.786,0.03616,-0.04196,-0.00061,-0.02106,0.04929,-0.11505,0.00916,-0.13489,-0.01511,-0.02914,-0.00992,0.00427,-0.02823,-0.02213,0.11047,-0.02518
6.7865,0.01007,-0.03815,-0.03036,-0.01038,-0.00427,-0.1123,0.01984,-0.15228,-0.01389,-0.03082,-0.01114,0.00534,-0.02762,-0.01938,0.06104,-0.08636
6.787,-0.01709,-0.03662,-0.0592,0.00519,-0.07187,-0.10681,0.02594,-0.15945,-0.01389,-0.03174,-0.01144,0.00671,-0.02792,-0.01877,0.01266,-0.12009
6.7875,-0.0351,-0.03723,-0.0827,0.01389,-0.13519,-0.10178,0.02243,-0.15228,-0.01511,-0.03143,-0.01114,0.0058,-0.02869,-0.01938,-0.00778,-0.1088
6.788,-0.03693,-0.03876,-0.09995,0.01312,-0.16983,-0.09979,0.01282,-0.13611,-0.01633,-0.03036,-0.01129,0.00366,-0.03036,-0.01938,-0.00519,-0.06607
6.7885,-0.02548,-0.03845,-0.10773,0.01358,-0.15594,-0.1001,0.0029,-0.10651,-0.01709,-0.02869,-0.01205,0.00107,-0.02945,-0.01907,0.00702,-0.02502
6.789,-0.00717,-0.03647,-0.10376,0.02289,-0.10361,-0.09766,-0.00427,-0.05264,-0.01572,-0.02838,-0.01312,-0.00015,-0.02609,-0.01953,0.01678,-0.00259
6.7895,0.01297,-0.03464,-0.09247,0.0322,-0.04684,-0.0943,-0.00931,0.01724,-0.01358,-0.02762,-0.01282,-0.00046,-0.02304,-0.01923,0.0177,0.00931
6.79,0.0322,-0.03387,-0.07553,0.02502,-0.02228,-0.09171,-0.01328,0.07675,-0.0116,-0.02609,-0.01205,-0.00153,-0.02182,-0.01816,0.01007,0.01053
6.7905,0.047,-0.03433,-0.05829,0.00397,-0.02975,-0.09201,-0.01678,0.12253,-0.01205,-0.02396,-0.01175,-0.00641,-0.02228,-0.01617,0.00107,-0.009
6.791,0.05234,-0.03494,-0.04623,-0.00961,-0.03784,-0.09079,-0.01709,0.17487,-0.01297,-0.02304,-0.01297,-0.01068,-0.02274,-0.01587,-0.00122,-0.03922
6.7915,0.04898,-0.03464,-0.03906,-0.00626,-0.02396,-0.08591,-0.01266,0.21667,-0.01373,-0.02258,-0.01389,-0.01083,-0.02228,-0.01633,0.00061,-0.05386
6.792,0.04181,-0.03433,-0.03494,0.00626,-0.00336,-0.07828,-0.00687,0.19394,-0.01373,-0.02182,-0.01526,-0.00778,-0.02274,-0.01617,0.00397,-0.05325
6.7925,0.03387,-0.03632,-0.03052,0.01694,-0.0061,-0.06805,-0.00504,0.10208,-0.01328,-0.0235,-0.0177,-0.0032,-0.02304,-0.01648,0.00809,-0.06378
6.793,0.02319,-0.04196,-0.03006,0.02029,-0.03738,-0.06134,-0.00763,0.01129,-0.01282,-0.02457,-0.02274,-0.00092,-0.02213,-0.01709,0.00824,-0.10086
6.7935,0.00961,-0.05249,-0.03769,0.01755,-0.0621,-0.05814,-0.01465,-0.01007,-0.01328,-0.02457,-0.03128,0.00046,-0.02045,-0.01892,0.00946,-0.1384
6.794,-0.00549,-0.0621,-0.05219,0.01007,-0.04532,-0.05783,-0.02411,0.03357,-0.01404,-0.02167,-0.04074,0.00259,-0.02182,-0.01907,0.00992,-0.14053
6.7945,-0.01923,-0.065,-0.06866,0.00122,0.00305,-0.05859,-0.0296,0.0856,-0.01526,-0.01892,-0.04684,0.00488,-0.02701,-0.01755,0.00809,-0.10422
6.795,-0.02792,-0.06119,-0.08713,-0.00427,0.04532,-0.05936,-0.02777,0.10483,-0.01526,-0.01801,-0.05051,0.0058,-0.03174,-0.01602,0.00671,-0.06241
6.7955,-0.02884,-0.0589,-0.10727,-0.00824,0.06073,-0.06073,-0.02014,0.09018,-0.01511,-0.01831,-0.04913,0.00183,-0.03403,-0.01465,0.00916,-0.04059
6.796,-0.02106,-0.06088,-0.12177,-0.01526,0.06058,-0.06241,-0.01328,0.06241,-0.0148,-0.01816,-0.03876,-0.00397,-0.03464,-0.01495,0.00839,-0.03601
6.7965,-0.00549,-0.0647,-0.12512,-0.02472,0.0531,-0.06165,-0.01221,0.03738,-0.01495,-0.01709,-0.01984,-0.00488,-0.03677,-0.01694,0.00565,-0.03754
6.797,0.01022,-0.06393,-0.11261,-0.03067,0.0238,-0.05951,-0.01526,0.02167,-0.01434,-0.01678,0.00107,-0.00305,-0.03952,-0.01831,0.00198,-0.04211
6.7975,0.01907,-0.05692,-0.08301,-0.02838,-0.03433,-0.05539,-0.0177,0.01846,-0.01251,-0.0174,0.01663,-0.00397,-0.0412,-0.01877,0.00198,-0.04349
6.798,0.01801,-0.04944,-0.0412,-0.02121,-0.09537,-0.05096,-0.01572,0.02106,-0.01068,-0.01648,0.02457,-0.00626,-0.04074,-0.01831,0.00229,-0.03464
6.7985,0.01068,-0.04379,0.00168,-0.01282,-0.12421,-0.04868,-0.01114,0.02167,-0.00839,-0.01343,0.02716,-0.00641,-0.04028,-0.01862,0.00565,-0.01877
6.799,0.00076,-0.03815,0.03082,-0.00671,-0.10681,-0.04654,-0.00809,0.01694,-0.00854,-0.01236,0.02426,-0.0061,-0.03906,-0.01923,0.00504,-0.01053
6.7995,-0.00732,-0.03006,0.04501,-0.00305,-0.06287,-0.04181,-0.00854,0.00763,-0.00931,-0.01129,0.01877,-0.00595,-0.03677,-0.01953,0.00061,-0.01892
6.8,-0.01434,-0.02243,0.05203,-0.00214,-0.01923,-0.03723,-0.01083,-0.00015,-0.01022,-0.01251,0.01297,-0.00626,-0.03326,-0.01923,-0.00443,-0.03632
6.8005,-0.02075,-0.01816,0.05341,-0.00397,-0.00046,-0.0354,-0.01328,-0.0058,-0.00931,-0.0116,0.00916,-0.00488,-0.03021,-0.01923,-0.01038,-0.05173
6.801,-0.02731,-0.01999,0.04578,-0.01038,-0.00198,-0.03555,-0.01389,-0.01007,-0.009,-0.01053,0.00793,-0.00168,-0.02869,-0.01816,-0.01312,-0.06409
6.8015,-0.03296,-0.02396,0.0267,-0.02106,-0.00381,-0.03464,-0.01404,-0.01251,-0.00977,-0.01053,0.00656,0.0,-0.0267,-0.01587,-0.0116,-0.07309
6.802,-0.03677,-0.02853,0.00137,-0.03433,0.00885,-0.03006,-0.01465,-0.0116,-0.01038,-0.0119,0.00412,-0.00046,-0.02502,-0.01373,-0.00275,-0.07965
6.8025,-0.03632,-0.03296,-0.0235,-0.03906,0.03464,-0.02304,-0.0148,-0.00671,-0.00992,-0.01236,0.00153,-0.0029,-0.02411,-0.01373,0.0087,-0.08148
6.803,-0.03189,-0.03769,-0.04227,-0.03174,0.06058,-0.01862,-0.01434,-0.00488,-0.00702,-0.01175,-0.00137,-0.00397,-0.02411,-0.01541,0.01801,-0.07736
6.8035,-0.02396,-0.04318,-0.05768,-0.02014,0.07339,-0.01694,-0.01663,-0.01114,-0.0029,-0.01175,-0.00336,-0.00381,-0.02472,-0.01617,0.01953,-0.06927
6.804,-0.01938,-0.04944,-0.06927,-0.01465,0.06485,-0.01434,-0.0206,-0.01984,0.00092,-0.01282,-0.0061,-0.00412,-0.02594,-0.01602,0.01343,-0.06287
6.8045,-0.02136,-0.05356,-0.07339,-0.01846,0.03738,-0.00931,-0.02441,-0.01923,0.00351,-0.0148,-0.009,-0.00565,-0.02716,-0.01556,0.00839,-0.0592
6.805,-0.03067,-0.05127,-0.07507,-0.02136,-0.00092,-0.00458,-0.02563,-0.00961,0.00275,-0.0148,-0.01038,-0.00595,-0.02609,-0.01511,0.0116,-0.05569
6.8055,-0.04211,-0.04456,-0.07034,-0.01846,-0.04547,-0.00198,-0.02396,-0.0058,-0.00168,-0.01373,-0.00854,-0.00519,-0.02426,-0.01633,0.02411,-0.05295
6.806,-0.05066,-0.04135,-0.06424,-0.01724,-0.0914,-0.00305,-0.02029,-0.02151,-0.0058,-0.01251,-0.00656,-0.00473,-0.02411,-0.01816,0.03479,-0.05676
6.8065,-0.05219,-0.04272,-0.05859,-0.02548,-0.12344,0.00031,-0.01678,-0.056,-0.00961,-0.01083,-0.00717,-0.00504,-0.02609,-0.01755,0.03693,-0.06332
6.807,-0.04456,-0.04654,-0.05402,-0.03799,-0.12161,0.00122,-0.01495,-0.08835,-0.0119,-0.009,-0.009,-0.00671,-0.02808,-0.01556,0.03021,-0.06989
6.8075,-0.0296,-0.04898,-0.05127,-0.04547,-0.08545,0.0058,-0.01297,-0.09674,-0.0148,-0.00977,-0.01266,-0.00778,-0.02838,-0.0148,0.02213,-0.08026
6.808,-0.01083,-0.04791,-0.04974,-0.04318,-0.03616,0.0087,-0.0058,-0.08469,-0.0177,-0.01083,-0.01511,-0.00778,-0.02838,-0.01709,0.01251,-0.09537
6.8085,0.01038,-0.047,-0.04639,-0.03021,-0.00153,0.00916,0.00717,-0.08179,-0.01678,-0.0116,-0.01602,-0.00778,-0.02792,-0.01999,-0.00092,-0.09949
6.809,0.03235,-0.04761,-0.04349,-0.0148,0.00732,0.01068,0.01984,-0.09735,-0.01083,-0.01266,-0.01633,-0.00748,-0.02731,-0.01999,-0.0177,-0.08163
6.8095,0.04486,-0.0473,-0.03998,-0.00717,-0.00717,0.01389,0.02182,-0.09842,-0.00443,-0.01297,-0.01282,-0.00732,-0.02716,-0.01678,-0.02991,-0.05569
6.81,0.04028,-0.04578,-0.03937,-0.01083,-0.04227,0.0174,0.0087,-0.0531,-0.00259,-0.01389,-0.01251,-0.00473,-0.02762,-0.01587,-0.03815,-0.03479
6.8105,0.02029,-0.04211,-0.04059,-0.01846,-0.09598,0.02151,-0.00778,0.01541,-0.0058,-0.01297,-0.01343,-0.00275,-0.02899,-0.01678,-0.04395,-0.01007
6.811,-0.00107,-0.03647,-0.04059,-0.02213,-0.14557,0.02335,-0.01724,0.05737,-0.01053,-0.01205,-0.01587,-0.00366,-0.03082,-0.01968,-0.03876,0.02228
6.8115,-0.01205,-0.0322,-0.04211,-0.02304,-0.14725,0.02441,-0.02121,0.05127,-0.01328,-0.01068,-0.01663,-0.0061,-0.03143,-0.02014,-0.01785,0.03311
6.812,-0.01083,-0.0296,-0.04059,-0.02335,-0.09491,0.02563,-0.02396,0.01511,-0.01755,-0.00977,-0.01587,-0.00992,-0.03174,-0.01999,0.00854,0.00549
6.8125,-0.00824,-0.02823,-0.04028,-0.02274,-0.03708,0.02914,-0.02289,-0.02625,-0.0235,-0.009,-0.01541,-0.01282,-0.03204,-0.01984,0.01831,-0.03113
6.813,-0.00778,-0.02594,-0.03891,-0.01755,-0.02274,0.03326,-0.01984,-0.06042,-0.02884,-0.00946,-0.01633,-0.01205,-0.03387,-0.01999,0.00748,-0.03326
6.8135,-0.01083,-0.02228,-0.0383,-0.00778,-0.05493,0.03113,-0.02121,-0.0827,-0.03189,-0.00946,-0.01755,-0.01007,-0.03571,-0.0206,-0.00305,-0.00519
6.814,-0.01434,-0.02045,-0.03754,-0.00137,-0.10056,0.0264,-0.03174,-0.09048,-0.03571,-0.01068,-0.01801,-0.0087,-0.03555,-0.02167,0.00198,0.01007
6.8145,-0.01694,-0.01999,-0.03326,-0.00122,-0.13046,0.02151,-0.04044,-0.08133,-0.03906,-0.00992,-0.01877,-0.00977,-0.03464,-0.02182,0.02075,-0.00427
6.815,-0.01648,-0.02045,-0.02563,-0.00458,-0.13199,0.02136,-0.03662,-0.05066,-0.04135,-0.00992,-0.0206,-0.01022,-0.03433,-0.02136,0.0412,-0.02762
6.8155,-0.01358,-0.01831,-0.01938,-0.00519,-0.10696,0.02533,-0.02518,-0.00427,-0.04059,-0.0119,-0.01984,-0.00946,-0.03571,-0.01968,0.05432,-0.03387
6.816,-0.01053,-0.01648,-0.01572,-0.00351,-0.07736,0.02975,-0.01617,0.03525,-0.03983,-0.0145,-0.0206,-0.00732,-0.03555,-0.01785,0.05447,-0.02655
6.8165,-0.00824,-0.01617,-0.01465,-0.00107,-0.05615,0.03052,-0.01114,0.04227,-0.0383,-0.01617,-0.02182,-0.00656,-0.03433,-0.01724,0.04349,-0.0238
6.817,-0.009,-0.01572,-0.01526,0.0,-0.04349,0.03052,-0.00549,0.02335,-0.03464,-0.01556,-0.02335,-0.00641,-0.03433,-0.01694,0.02731,-0.03189
6.8175,-0.01022,-0.01602,-0.01465,0.00214,-0.02792,0.02899,-0.00122,0.00519,-0.03067,-0.01572,-0.02243,-0.00732,-0.03387,-0.01709,0.01648,-0.03983
6.818,-0.0116,-0.01938,-0.01694,0.00412,-0.01038,0.02945,-0.00137,-0.00183,-0.02853,-0.01678,-0.02121,-0.00961,-0.03357,-0.01785,0.01144,-0.03616
6.8185,-0.01358,-0.02686,-0.01862,0.00626,0.00168,0.02792,-0.00717,-0.01938,-0.02838,-0.01617,-0.02106,-0.01022,-0.03418,-0.01785,0.00961,-0.02365
6.819,-0.01556,-0.03555,-0.01984,0.00732,0.00687,0.02396,-0.01099,-0.06104,-0.02945,-0.01633,-0.02136,-0.00916,-0.0351,-0.01846,0.00519,-0.01755
6.8195,-0.01419,-0.04135,-0.01709,0.00626,0.00885,0.0206,-0.01068,-0.10696,-0.0296,-0.01358,-0.02136,-0.00809,-0.03464,-0.01846,0.00061,-0.02441
6.82,-0.00916,-0.047,-0.01389,0.00519,0.01297,0.02029,-0.00793,-0.12405,-0.02823,-0.01328,-0.02014,-0.00854,-0.03387,-0.01602,-0.00168,-0.03647
6.8205,-0.00259,-0.05432,-0.01221,0.00565,0.01297,0.01984,-0.01236,-0.10025,-0.02518,-0.01373,-0.0206,-0.00946,-0.03403,-0.01419,-0.00137,-0.04593
6.821,0.0,-0.06775,-0.0174,0.00443,0.00534,0.01236,-0.02457,-0.05157,-0.02136,-0.0145,-0.02075,-0.00977,-0.03479,-0.01282,-0.00214,-0.05325
6.8215,-0.00168,-0.08423,-0.02838,-0.00015,-0.00748,0.00122,-0.03906,-0.00778,-0.0174,-0.0145,-0.02075,-0.00885,-0.03571,-0.01251,-0.00412,-0.05966
6.822,-0.00549,-0.09811,-0.03983,-0.00488,-0.01846,-0.00412,-0.04822,0.01907,-0.01373,-0.01572,-0.01968,-0.00641,-0.03647,-0.01389,-0.00427,-0.06393
6.8225,-0.00534,-0.10101,-0.04517,-0.00656,-0.02487,-0.00702,-0.04227,0.04227,-0.01312,-0.01648,-0.01877,-0.00565,-0.03632,-0.01556,-0.00305,-0.06592
6.823,-0.00153,-0.09155,-0.04944,-0.00412,-0.03403,-0.00534,-0.0267,0.07874,-0.01358,-0.01785,-0.01831,-0.0058,-0.03677,-0.01617,-0.00122,-0.06821
6.8235,0.00275,-0.07339,-0.04929,-0.00397,-0.05249,-0.00748,-0.01755,0.11993,-0.01495,-0.0209,-0.01968,-0.00626,-0.03815,-0.0174,0.00137,-0.07477
6.824,0.00076,-0.05249,-0.04807,-0.01007,-0.07309,-0.01282,-0.02701,0.13657,-0.01785,-0.0209,-0.01938,-0.00381,-0.03952,-0.01801,0.00961,-0.08286
6.8245,-0.00717,-0.03448,-0.04669,-0.01785,-0.08377,-0.0238,-0.04608,0.11703,-0.02121,-0.01846,-0.01755,-0.00046,-0.03998,-0.01907,0.02121,-0.08438
6.825,-0.01831,-0.02121,-0.04517,-0.01678,-0.07919,-0.03006,-0.05615,0.07965,-0.02304,-0.01663,-0.01678,0.00015,-0.04013,-0.01923,0.03128,-0.07568
6.8255,-0.02823,-0.01389,-0.04456,-0.00259,-0.07248,-0.03586,-0.05081,0.05386,-0.02243,-0.01785,-0.01602,-0.00397,-0.03952,-0.01892,0.0293,-0.05142
6.826,-0.0351,-0.00977,-0.0441,0.01617,-0.0795,-0.03937,-0.03952,0.04715,-0.02075,-0.01846,-0.01663,-0.00824,-0.03693,-0.01846,0.01862,-0.01938
6.8265,-0.03464,-0.00793,-0.04395,0.03128,-0.08896,-0.04425,-0.03265,0.04639,-0.01846,-0.01984,-0.01694,-0.01068,-0.03326,-0.01877,0.01175,0.00443
6.827,-0.02563,-0.00641,-0.0441,0.0325,-0.08408,-0.05249,-0.0293,0.04272,-0.01724,-0.02014,-0.01678,-0.00992,-0.03143,-0.01785,0.01053,0.00076
6.8275,-0.01419,-0.00565,-0.04364,0.01709,-0.05783,-0.05844,-0.02426,0.03571,-0.01617,-0.02121,-0.0174,-0.00839,-0.03265,-0.0174,0.01221,-0.02487
6.828,-0.00443,-0.00763,-0.04303,-0.00488,-0.03021,-0.05844,-0.01389,0.02594,-0.01526,-0.02228,-0.01785,-0.0061,-0.03601,-0.01694,0.01175,-0.04547
6.8285,0.00641,-0.01297,-0.03937,-0.02029,-0.01953,-0.06256,0.00504,0.00488,-0.01343,-0.02258,-0.01724,-0.00427,-0.03769,-0.01694,0.00977,-0.03983
6.829,0.02167,-0.02136,-0.03357,-0.02426,-0.02029,-0.06546,0.0293,-0.04074,-0.01038,-0.02182,-0.01663,-0.00305,-0.03723,-0.01755,0.00763,-0.0148
6.8295,0.03632,-0.03143,-0.02914,-0.02243,-0.01999,-0.06577,0.04303,-0.10315,-0.00763,-0.01923,-0.01617,-0.0032,-0.03571,-0.01877,0.0058,0.00198
6.83,0.03815,-0.03967,-0.0296,-0.02258,-0.0148,-0.06607,0.03616,-0.13596,-0.0058,-0.0174,-0.01465,-0.00229,-0.03571,-0.02182,0.00443,-0.00366
6.8305,0.02579,-0.0473,-0.03662,-0.02457,-0.00687,-0.07202,0.01556,-0.0882,-0.00412,-0.01556,-0.01343,-0.00122,-0.03525,-0.02365,0.00275,-0.02396
6.831,0.00717,-0.05264,-0.04883,-0.02502,0.00626,-0.07965,-0.00244,0.01633,-0.00504,-0.01511,-0.0119,-0.00122,-0.03403,-0.02365,0.00336,-0.03891
6.8315,-0.00534,-0.05722,-0.05798,-0.02441,0.02167,-0.08667,-0.01175,0.08774,-0.00565,-0.0148,-0.01266,-0.00168,-0.0325,-0.01968,0.00366,-0.04242
6.832,-0.01099,-0.06195,-0.06073,-0.02716,0.03052,-0.0885,-0.01663,0.07385,-0.00549,-0.01404,-0.01404,-0.00061,-0.03159,-0.01663,0.00473,-0.04272
6.8325,-0.01511,-0.06775,-0.05966,-0.03403,0.02853,-0.08987,-0.01938,0.01709,-0.00504,-0.01343,-0.01511,0.00198,-0.03265,-0.01602,0.00626,-0.04593
6.833,-0.02121,-0.07156,-0.05981,-0.04089,0.02563,-0.09277,-0.0174,-0.01465,-0.00504,-0.01389,-0.01526,0.00488,-0.03693,-0.01801,0.00687,-0.05035
6.8335,-0.02777,-0.06866,-0.06134,-0.04517,0.0325,-0.0943,-0.0116,-0.00443,-0.00488,-0.01419,-0.01297,0.00641,-0.04532,-0.02121,0.00717,-0.05463
6.834,-0.03372,-0.05844,-0.06042,-0.04623,0.04608,-0.09445,-0.01038,0.01312,-0.00488,-0.01465,-0.01083,0.00458,-0.05508,-0.02243,0.00824,-0.06378
6.8345,-0.03799,-0.04547,-0.05432,-0.04547,0.05219,-0.09872,-0.02106,0.01114,-0.00549,-0.01602,-0.01205,0.00259,-0.06058,-0.02396,0.00931,-0.07843
6.835,-0.04288,-0.03632,-0.04913,-0.04257,0.03143,-0.10468,-0.03723,-0.01038,-0.00565,-0.01678,-0.0145,0.00168,-0.0592,-0.02319,0.01083,-0.08636
6.8355,-0.04593,-0.03204,-0.04227,-0.03708,-0.02808,-0.11215,-0.04501,-0.04395,-0.00549,-0.01694,-0.01709,0.00214,-0.05539,-0.02274,0.01022,-0.0737
6.836,-0.04623,-0.02975,-0.03433,-0.02899,-0.12192,-0.11703,-0.03952,-0.07736,-0.00595,-0.01633,-0.01801,0.00275,-0.05371,-0.02182,0.00809,-0.04166
6.8365,-0.03998,-0.02579,-0.02411,-0.02045,-0.1973,-0.11902,-0.03082,-0.09232,-0.00687,-0.01755,-0.01816,0.0032,-0.05463,-0.02182,0.00687,-0.01282
6.837,-0.02502,-0.01984,-0.01434,-0.01587,-0.19348,-0.12039,-0.02808,-0.07858,-0.00687,-0.01816,-0.01678,0.00366,-0.05493,-0.02274,0.00778,-0.00854
6.8375,-0.00427,-0.01648,-0.00809,-0.01236,-0.11169,-0.12085,-0.02808,-0.04578,-0.00732,-0.01953,-0.01556,0.00275,-0.05112,-0.02304,0.00854,-0.02716
6.838,0.01724,-0.01587,-0.00275,-0.00839,-0.02243,-0.11932,-0.02411,-0.01526,-0.00824,-0.02106,-0.0145,0.00046,-0.04623,-0.02182,0.00916,-0.04684
6.8385,0.03311,-0.02121,0.00183,-0.00626,0.01236,-0.11887,-0.01099,0.009,-0.00992,-0.02167,-0.01389,-0.00061,-0.04272,-0.0206,0.00824,-0.05295
6.839,0.03632,-0.03189,0.00412,-0.00885,-0.00092,-0.11658,0.01175,0.03448,-0.01068,-0.02243,-0.01343,-0.00137,-0.03876,-0.01755,0.00626,-0.0473
6.8395,0.02533,-0.04059,0.00076,-0.01266,-0.01755,-0.112,0.03922,0.05936,-0.01099,-0.02304,-0.01266,-0.00061,-0.03235,-0.01144,0.00366,-0.04074
6.84,0.01053,-0.0412,-0.00763,-0.01328,-0.02029,-0.10529,0.05005,0.06836,-0.00916,-0.02243,-0.01297,0.00046,-0.0238,-0.00458,0.00351,-0.03876
6.8405,0.0032,-0.03952,-0.0148,-0.01007,-0.01831,-0.10422,0.0293,0.05585,-0.00702,-0.02304,-0.01389,0.00107,-0.01938,-0.00244,0.00443,-0.04013
6.841,0.00519,-0.03906,-0.01633,-0.00824,-0.02365,-0.10773,-0.00793,0.03357,-0.00519,-0.02304,-0.01541,0.00092,-0.02197,-0.00427,0.00519,-0.04059
6.8415,0.01007,-0.04227,-0.01617,-0.009,-0.04028,-0.1123,-0.02899,0.01251,-0.00595,-0.02243,-0.01709,-0.00122,-0.03113,-0.00839,0.00687,-0.04028
6.842,0.01129,-0.04532,-0.01862,-0.00977,-0.05951,-0.1152,-0.01816,-0.0032,-0.00885,-0.02167,-0.01755,-0.00397,-0.03983,-0.01389,0.00626,-0.04211
6.8425,0.01129,-0.04807,-0.02319,-0.00992,-0.06668,-0.11459,0.00549,-0.01236,-0.01099,-0.02228,-0.01663,-0.00641,-0.04425,-0.0177,0.00565,-0.04486
6.843,0.01053,-0.04913,-0.02335,-0.01205,-0.05096,-0.11429,0.0148,-0.0209,-0.01022,-0.02197,-0.01541,-0.00839,-0.04593,-0.01984,0.00748,-0.04532
6.8435,0.009,-0.04669,-0.01785,-0.01923,-0.01968,-0.11215,0.00549,-0.03922,-0.01007,-0.02106,-0.01526,-0.01175,-0.04623,-0.01907,0.00854,-0.0444
6.844,0.00671,-0.0412,-0.00977,-0.02579,0.00031,-0.10895,-0.00412,-0.06027,-0.01083,-0.02167,-0.01389,-0.01419,-0.04623,-0.01892,0.0087,-0.04349
6.8445,0.00488,-0.0386,-0.00381,-0.02747,-0.00198,-0.10529,0.0061,-0.05432,-0.01205,-0.02213,-0.01144,-0.01465,-0.04486,-0.01846,0.00687,-0.04501
6.845,0.00259,-0.03983,0.00046,-0.0235,-0.01633,-0.10223,0.03387,-0.00549,-0.01236,-0.0238,-0.01068,-0.01312,-0.04272,-0.01877,0.00519,-0.04669
6.8455,0.00046,-0.04211,0.00275,-0.01251,-0.02335,-0.09888,0.05157,0.05325,-0.01251,-0.0235,-0.01266,-0.0087,-0.04211,-0.01938,0.00275,-0.04715
6.846,-0.00107,-0.04196,0.00153,0.00763,-0.02228,-0.09674,0.04105,0.06317,-0.01266,-0.02151,-0.01465,-0.00458,-0.04227,-0.02136,0.00259,-0.04608
6.8465,-0.00336,-0.03998,-0.0058,0.02808,-0.02777,-0.09567,0.01831,0.00931,-0.01297,-0.0206,-0.01389,-0.00168,-0.04379,-0.0238,0.00473,-0.04517
6.847,-0.00595,-0.04105,-0.01572,0.03342,-0.04181,-0.09491,0.00534,-0.0618,-0.01282,-0.02045,-0.0119,-0.00214,-0.04395,-0.02335,0.00702,-0.04562
6.8475,-0.00793,-0.04776,-0.02365,0.01968,-0.05051,-0.09293,0.00015,-0.09552,-0.01236,-0.02045,-0.01099,-0.00259,-0.04257,-0.02045,0.00778,-0.04639
6.848,-0.00793,-0.05646,-0.02899,-0.00092,-0.04532,-0.09155,-0.01343,-0.08026,-0.01282,-0.02167,-0.01205,-0.00015,-0.04242,-0.01831,0.00671,-0.0444
6.8485,-0.00717,-0.06256,-0.03433,-0.01221,-0.03082,-0.08926,-0.04211,-0.03891,-0.01343,-0.02182,-0.01434,0.00427,-0.04517,-0.02045,0.00473,-0.04257
6.849,-0.00565,-0.06226,-0.03906,-0.01236,-0.0235,-0.08774,-0.0766,0.00366,-0.01343,-0.02274,-0.01663,0.00748,-0.04807,-0.02228,0.00443,-0.04211
6.8495,-0.00412,-0.05661,-0.04105,-0.00763,-0.02136,-0.0856,-0.09842,0.02869,-0.01297,-0.02136,-0.01755,0.00992,-0.04776,-0.02167,0.00641,-0.04257
6.85,-0.00137,-0.05096,-0.04059,-0.00473,-0.01328,-0.08438,-0.0856,0.02609,-0.01282,-0.01907,-0.01617,0.01083,-0.04578,-0.01923,0.0087,-0.04257
6.8505,0.00153,-0.04654,-0.03891,-0.00641,0.00412,-0.08118,-0.03784,0.00229,-0.01312,-0.01846,-0.01465,0.01144,-0.04456,-0.01862,0.01007,-0.04105
6.851,0.0032,-0.0441,-0.03876,-0.01007,0.02441,-0.07523,0.00748,-0.01373,-0.01328,-0.01984,-0.01358,0.01038,-0.04501,-0.01984,0.00916,-0.04028
6.8515,0.00092,-0.04303,-0.03952,-0.01297,0.03708,-0.06927,0.01816,-0.00336,-0.01328,-0.02121,-0.01205,0.00687,-0.04532,-0.02075,0.00595,-0.04089
6.852,-0.00214,-0.04196,-0.0412,-0.01312,0.03922,-0.06805,0.00153,0.02014,-0.01373,-0.02151,-0.01358,0.00305,-0.04333,-0.02136,0.00397,-0.04364
6.8525,-0.00412,-0.03723,-0.04471,-0.00961,0.03372,-0.07141,-0.01648,0.03403,-0.01404,-0.02029,-0.01373,0.00092,-0.04089,-0.01923,0.0058,-0.04578
6.853,-0.00412,-0.03326,-0.04486,-0.00305,0.02609,-0.07401,-0.02258,0.02945,-0.01373,-0.02075,-0.01373,0.00076,-0.03906,-0.0206,0.00809,-0.04562
6.8535,-0.0032,-0.0322,-0.04532,0.00351,0.01236,-0.07416,-0.02258,0.01526,-0.01419,-0.01923,-0.01419,0.00214,-0.0386,-0.0209,0.00748,-0.04349
6.854,-0.0032,-0.03235,-0.04486,0.00824,-0.01389,-0.07385,-0.02396,0.00565,-0.0148,-0.01877,-0.01602,0.00244,-0.03815,-0.02304,0.00687,-0.04257
6.8545,-0.00275,-0.03555,-0.04456,0.00565,-0.05646,-0.07431,-0.02472,0.00549,-0.01678,-0.01892,-0.01724,0.00381,-0.03693,-0.0238,0.00763,-0.04211
6.855,-0.00244,-0.03891,-0.04471,-0.00809,-0.10513,-0.07629,-0.02335,0.00916,-0.01724,-0.02014,-0.01556,0.00519,-0.03586,-0.02411,0.00793,-0.04196
6.8555,-0.00061,-0.04074,-0.04288,-0.02579,-0.13657,-0.07874,-0.02197,0.01068,-0.01617,-0.02014,-0.01282,0.00534,-0.03479,-0.02289,0.00763,-0.04105
6.856,0.00153,-0.04105,-0.03815,-0.03693,-0.13138,-0.07965,-0.02075,0.01205,-0.01617,-0.01938,-0.01099,0.00565,-0.03342,-0.02151,0.00732,-0.0412
6.8565,0.00565,-0.03815,-0.03311,-0.03616,-0.09323,-0.07721,-0.01923,0.01495,-0.01709,-0.01862,-0.01205,0.00656,-0.03159,-0.02106,0.00748,-0.04089
6.857,0.00931,-0.03571,-0.03082,-0.02762,-0.04929,-0.07416,-0.01587,0.0174,-0.01755,-0.01831,-0.01511,0.00763,-0.03082,-0.02258,0.00839,-0.04059
6.8575,0.00961,-0.03601,-0.03143,-0.02274,-0.02594,-0.07004,-0.01373,0.01404,-0.01678,-0.01877,-0.0177,0.00839,-0.03113,-0.02335,0.00809,-0.03998
6.858,0.00748,-0.0354,-0.0322,-0.02365,-0.0238,-0.06683,-0.01282,0.00549,-0.01556,-0.01984,-0.01816,0.01053,-0.03082,-0.02365,0.00671,-0.03906
6.8585,0.00427,-0.03387,-0.0296,-0.02502,-0.02502,-0.06454,-0.01297,-0.00214,-0.01465,-0.02075,-0.01648,0.01343,-0.02991,-0.02258,0.00381,-0.0386
6.859,0.00244,-0.03357,-0.02411,-0.02167,-0.01831,-0.06256,-0.0116,-0.01129,-0.01526,-0.02182,-0.01602,0.01221,-0.02914,-0.0209,0.00168,-0.03983
6.8595,0.00183,-0.03387,-0.02167,-0.01404,-0.01343,-0.06165,-0.00977,-0.02258,-0.01663,-0.02182,-0.01312,0.00351,-0.02731,-0.02014,0.00153,-0.04257
6.86,0.00244,-0.0354,-0.02411,-0.00656,-0.02258,-0.05905,-0.00809,-0.0296,-0.0174,-0.0209,-0.0116,-0.01175,-0.02533,-0.01984,0.00259,-0.04532
6.8605,0.0032,-0.03677,-0.02731,-0.00351,-0.0441,-0.05646,-0.00946,-0.02106,-0.01801,-0.02045,-0.01144,-0.02426,-0.02411,-0.02106,0.00504,-0.04639
6.861,0.00397,-0.03845,-0.02808,-0.00427,-0.05783,-0.05402,-0.01587,0.00336,-0.01678,-0.02045,-0.01221,-0.02609,-0.02579,-0.02151,0.00595,-0.04639
6.8615,0.00565,-0.03967,-0.02655,-0.00458,-0.05341,-0.05371,-0.02274,0.0238,-0.01587,-0.01984,-0.01205,-0.01755,-0.02823,-0.02106,0.00809,-0.04639
6.862,0.00702,-0.04089,-0.02686,-0.00336,-0.04318,-0.05463,-0.02335,0.02167,-0.01617,-0.01846,-0.0116,-0.00717,-0.0296,-0.02014,0.00916,-0.04593
6.8625,0.00488,-0.04379,-0.03098,-0.00259,-0.04868,-0.05371,-0.01694,0.00183,-0.01724,-0.01709,-0.01251,0.00275,-0.02869,-0.02045,0.00885,-0.04654
6.863,0.00183,-0.04608,-0.03922,-0.00336,-0.06714,-0.0499,-0.00809,-0.01709,-0.01709,-0.01755,-0.01495,0.01328,-0.02716,-0.02075,0.00931,-0.04684
6.8635,-0.00031,-0.05051,-0.0499,-0.00519,-0.07339,-0.04547,-0.00122,-0.02319,-0.01648,-0.01831,-0.01465,0.02701,-0.02686,-0.02045,0.00946,-0.04639
6.864,-0.00092,-0.05585,-0.06165,-0.00778,-0.05646,-0.04211,0.00214,-0.0145,-0.01572,-0.01938,-0.01312,0.03983,-0.02762,-0.01984,0.01007,-0.0441
6.8645,-0.00107,-0.06088,-0.07278,-0.01068,-0.03204,-0.04181,0.00488,0.00168,-0.01587,-0.02014,-0.0119,0.04837,-0.02899,-0.02045,0.00931,-0.04257
6.865,-0.00351,-0.06653,-0.08469,-0.01343,-0.02167,-0.04135,0.00961,0.00641,-0.01541,-0.0209,-0.01297,0.04883,-0.02945,-0.02121,0.01007,-0.04257
6.8655,-0.00946,-0.07202,-0.09613,-0.01526,-0.02563,-0.03937,0.0177,-0.01389,-0.01419,-0.0209,-0.01419,0.03906,-0.0296,-0.0206,0.01144,-0.04196
6.866,-0.01862,-0.07782,-0.10498,-0.01556,-0.03372,-0.03662,0.02258,-0.06042,-0.01511,-0.02106,-0.01465,0.02319,-0.02899,-0.02136,0.01221,-0.0412
6.8665,-0.02701,-0.07843,-0.10498,-0.01434,-0.03464,-0.03571,0.01404,-0.11566,-0.01526,-0.02213,-0.0148,0.00977,-0.02838,-0.01999,0.01144,-0.04166
6.867,-0.03098,-0.07782,-0.09399,-0.01099,-0.03204,-0.03601,-0.01297,-0.16266,-0.01541,-0.02289,-0.01648,0.00259,-0.02823,-0.02075,0.00961,-0.04242
6.8675,-0.02945,-0.07568,-0.06927,-0.00412,-0.02747,-0.03693,-0.04791,-0.18524,-0.01404,-0.02426,-0.01602,-0.00015,-0.02823,-0.02182,0.00854,-0.04318
6.868,-0.0267,-0.06912,-0.0325,0.00519,-0.02502,-0.03555,-0.06805,-0.17273,-0.01373,-0.02258,-0.0177,-0.0032,-0.02686,-0.02136,0.00656,-0.04227
6.8685,-0.02594,-0.05966,0.00839,0.01572,-0.02365,-0.03403,-0.06607,-0.12436,-0.01526,-0.02014,-0.01755,-0.00443,-0.02594,-0.01984,0.009,-0.04089
6.869,-0.02533,-0.05295,0.03891,0.02304,-0.02502,-0.03494,-0.05295,-0.0415,-0.01587,-0.01999,-0.0148,-0.00427,-0.02411,-0.02014,0.00854,-0.04059
6.8695,-0.01846,-0.0502,0.0528,0.02762,-0.02808,-0.03601,-0.0473,0.08255,-0.0148,-0.02014,-0.01465,-0.009,-0.02197,-0.0209,0.00824,-0.04135
6.87,-0.00229,-0.05035,0.05203,0.03128,-0.02853,-0.0354,-0.05295,0.21667,-0.01434,-0.02029,-0.01419,-0.02563,-0.02197,-0.02106,0.00793,-0.04135
6.8705,0.0148,-0.04791,0.04318,0.0322,-0.02625,-0.03464,-0.05692,0.2832,-0.01526,-0.01877,-0.01556,-0.04684,-0.02319,-0.02197,0.00748,-0.03983
6.871,0.02213,-0.04196,0.0264,0.02457,-0.02457,-0.03387,-0.05005,0.2359,-0.01694,-0.01801,-0.01633,-0.05722,-0.0238,-0.02167,0.00778,-0.04028
6.8715,0.01831,-0.02945,0.00397,0.00885,-0.02487,-0.03265,-0.04929,0.11597,-0.01785,-0.01785,-0.01587,-0.04715,-0.02197,-0.02106,0.00717,-0.04135
6.872,0.00946,-0.01419,-0.01938,-0.009,-0.02731,-0.03052,-0.08224,0.00885,-0.01724,-0.01984,-0.01541,-0.02197,-0.02045,-0.02014,0.00793,-0.04211
6.8725,0.00214,-0.00488,-0.03708,-0.01938,-0.02808,-0.02609,-0.14084,-0.04684,-0.01541,-0.02045,-0.01495,0.00153,-0.02167,-0.02075,0.00595,-0.04227
6.873,-0.0029,-0.00137,-0.04944,-0.02121,-0.02869,-0.0206,-0.17776,-0.0647,-0.01465,-0.02045,-0.01587,0.01038,-0.02197,-0.02136,0.00473,-0.04242
6.8735,-0.00824,-0.0061,-0.056,-0.01923,-0.02884,-0.01785,-0.15579,-0.06561,-0.01465,-0.02045,-0.01694,0.0058,-0.02197,-0.0209,0.00488,-0.04333
6.874,-0.01221,-0.01251,-0.05585,-0.02075,-0.0296,-0.01617,-0.09094,-0.05585,-0.01602,-0.02167,-0.01877,0.00214,-0.02289,-0.02045,0.00626,-0.04303
6.8745,-0.0148,-0.01312,-0.04761,-0.02365,-0.02899,-0.01556,-0.02594,-0.04044,-0.01602,-0.02213,-0.01633,0.00931,-0.02457,-0.02045,0.00961,-0.0412
6.875,-0.01801,-0.01282,-0.03372,-0.02243,-0.02655,-0.01312,0.02228,-0.02625,-0.01556,-0.02136,-0.01465,0.02274,-0.02548,-0.01938,0.01038,-0.0412
6.8755,-0.02167,-0.01068,-0.01862,-0.01587,-0.02609,-0.01083,0.06485,-0.0174,-0.01495,-0.01999,-0.01404,0.04074,-0.02411,-0.01907,0.00778,-0.04364
6.876,-0.02502,-0.01343,-0.00809,-0.01114,-0.02686,-0.01022,0.09476,-0.00824,-0.01572,-0.01907,-0.01236,0.06454,-0.02228,-0.01907,0.00534,-0.04547
6.8765,-0.02914,-0.02335,-0.00458,-0.01053,-0.02792,-0.01038,0.08957,0.00519,-0.01663,-0.01877,-0.0119,0.08759,-0.02075,-0.01938,0.00504,-0.0444
6.877,-0.03448,-0.03708,-0.00702,-0.00793,-0.02716,-0.01068,0.05173,0.01862,-0.01694,-0.01923,-0.01251,0.09201,-0.01923,-0.01862,0.00732,-0.04364
6.8775,-0.04257,-0.05051,-0.01373,-0.00183,-0.02396,-0.0087,0.02045,0.02411,-0.0174,-0.01953,-0.01404,0.06561,-0.01923,-0.01892,0.00916,-0.04318
6.878,-0.04944,-0.05951,-0.02243,0.00031,-0.02106,-0.00641,0.02426,0.01785,-0.01846,-0.02045,-0.01648,0.01831,-0.02121,-0.01663,0.009,-0.04333
6.8785,-0.05234,-0.06622,-0.03326,-0.00748,-0.0209,-0.00702,0.04944,0.00443,-0.01923,-0.01999,-0.01663,-0.03128,-0.02457,-0.01465,0.00732,-0.04288
6.879,-0.0473,-0.06851,-0.04364,-0.02121,-0.02197,-0.01083,0.06241,-0.00732,-0.01953,-0.01862,-0.01343,-0.05478,-0.02701,-0.01511,0.00656,-0.04074
6.8795,-0.03479,-0.06699,-0.05035,-0.02594,-0.02243,-0.01312,0.05234,-0.0119,-0.01907,-0.0174,-0.01328,-0.0473,-0.02502,-0.01556,0.00687,-0.03784
6.88,-0.01724,-0.0621,-0.05356,-0.01938,-0.0235,-0.01068,0.03174,-0.01205,-0.01831,-0.01526,-0.01556,-0.04059,-0.02197,-0.01724,0.00763,-0.03571
6.8805,-0.00122,-0.05844,-0.0528,-0.0116,-0.02411,-0.00656,0.01419,-0.01205,-0.0177,-0.0148,-0.01892,-0.06226,-0.02029,-0.01801,0.00824,-0.03555
6.881,0.00656,-0.05508,-0.04883,-0.01022,-0.02518,-0.00534,0.00259,-0.01236,-0.01785,-0.0148,-0.01862,-0.07446,-0.02213,-0.01801,0.00793,-0.03815
6.8815,0.00671,-0.05066,-0.04562,-0.01343,-0.02975,-0.00732,-0.00443,-0.01282,-0.01663,-0.01511,-0.01434,-0.02151,-0.02426,-0.01663,0.00748,-0.04074
6.882,0.00397,-0.04379,-0.04471,-0.01602,-0.0322,-0.00778,-0.0087,-0.01404,-0.01541,-0.01434,-0.01083,0.0798,-0.02579,-0.01572,0.00504,-0.04288
6.8825,0.00427,-0.03723,-0.04684,-0.01801,-0.03372,-0.0058,-0.00443,-0.01343,-0.01572,-0.0145,-0.0119,0.13428,-0.02625,-0.01556,0.00458,-0.04257
6.883,0.00854,-0.02777,-0.04807,-0.01694,-0.03372,-0.00381,0.01236,-0.01266,-0.01648,-0.0145,-0.01389,0.07996,-0.02701,-0.01602,0.00549,-0.04166
6.8835,0.01312,-0.02136,-0.04684,-0.0116,-0.03143,-0.00259,0.03616,-0.01343,-0.0177,-0.01511,-0.01541,-0.03815,-0.02762,-0.01648,0.00656,-0.04166
6.884,0.01495,-0.02335,-0.04486,-0.00198,-0.02884,-0.00412,0.0499,-0.01282,-0.0174,-0.01556,-0.01724,-0.12695,-0.02945,-0.01862,0.00595,-0.04196
6.8845,0.01358,-0.03067,-0.04135,0.00488,-0.02747,-0.00626,0.0412,-0.01175,-0.01648,-0.01572,-0.01541,-0.13321,-0.03082,-0.01938,0.00412,-0.04196
6.885,0.01053,-0.03448,-0.03784,0.00168,-0.02838,-0.00732,0.01938,-0.009,-0.0148,-0.01602,-0.01434,-0.06577,-0.03159,-0.01892,0.00351,-0.03998
6.8855,0.00992,-0.03174,-0.03586,-0.00885,-0.03006,-0.00626,0.00092,-0.00519,-0.01434,-0.01587,-0.01358,0.03494,-0.0322,-0.0177,0.00534,-0.0383
6.886,0.01251,-0.0264,-0.03769,-0.01999,-0.03082,-0.00381,-0.00626,-0.00183,-0.01556,-0.01541,-0.01511,0.11093,-0.03204,-0.01831,0.00702,-0.03906
6.8865,0.01511,-0.02441,-0.0412,-0.02518,-0.0293,-0.00168,-0.00824,-0.00259,-0.0174,-0.01389,-0.01602,0.12238,-0.03159,-0.01877,0.00702,-0.04227
6.887,0.01556,-0.02594,-0.04333,-0.02426,-0.0235,-0.00031,-0.01175,-0.00443,-0.0177,-0.0148,-0.01663,0.07965,-0.03067,-0.01938,0.00519,-0.04608
6.8875,0.0119,-0.02731,-0.04242,-0.01923,-0.01648,-0.00168,-0.01511,-0.00549,-0.01694,-0.01663,-0.01602,0.02502,-0.03036,-0.02014,0.0029,-0.04807
6.888,0.00519,-0.02701,-0.03723,-0.01328,-0.00916,-0.00504,-0.01678,-0.00458,-0.01602,-0.01846,-0.01511,-0.01419,-0.03021,-0.02167,0.00198,-0.04761
6.8885,0.00122,-0.02762,-0.03082,-0.00977,-0.00534,-0.00656,-0.01862,-0.00504,-0.0174,-0.01862,-0.01678,-0.04089,-0.03189,-0.02228,0.00214,-0.04807
6.889,0.00259,-0.02792,-0.0264,-0.009,-0.00305,-0.00504,-0.02243,-0.00671,-0.01999,-0.01862,-0.02014,-0.06302,-0.03204,-0.02213,0.00198,-0.04944
6.8895,0.00824,-0.02991,-0.0267,-0.00778,-0.00656,-0.00275,-0.02487,-0.00977,-0.02075,-0.01892,-0.01892,-0.07767,-0.03067,-0.0206,0.00137,-0.05051
6.89,0.01266,-0.03052,-0.0296,-0.00412,-0.01678,-0.0032,-0.02396,-0.00854,-0.0177,-0.02045,-0.02029,-0.08362,-0.02731,-0.01968,0.00198,-0.04868
6.8905,0.01175,-0.03052,-0.03067,-0.00626,-0.0351,-0.00565,-0.02335,-0.00656,-0.01572,-0.02121,-0.01816,-0.08438,-0.02747,-0.02014,0.00305,-0.04684
6.891,0.00671,-0.03067,-0.02914,-0.01923,-0.05814,-0.00656,-0.02533,-0.00763,-0.01495,-0.01999,-0.01862,-0.07813,-0.02975,-0.0209,0.00534,-0.0441
6.8915,0.00153,-0.0322,-0.02914,-0.03418,-0.05905,-0.00351,-0.02808,-0.01114,-0.01663,-0.01907,-0.01938,-0.06165,-0.03189,-0.01923,0.00702,-0.04211
6.892,-0.00198,-0.03403,-0.03113,-0.0444,-0.03891,0.00107,-0.02945,-0.01328,-0.01724,-0.01923,-0.01938,-0.03387,-0.0325,-0.01953,0.00854,-0.0412
6.8925,-0.00549,-0.03372,-0.03433,-0.04807,-0.0058,0.00305,-0.03098,-0.01404,-0.01801,-0.0206,-0.01831,0.01053,-0.03174,-0.01785,0.01053,-0.03983
6.893,-0.01007,-0.03357,-0.03769,-0.04929,0.00732,0.00275,-0.03281,-0.01175,-0.01907,-0.02136,-0.01587,0.07645,-0.03204,-0.01633,0.01083,-0.03769
6.8935,-0.01617,-0.03326,-0.04456,-0.04532,-0.00732,0.00244,-0.03281,-0.00671,-0.01923,-0.0206,-0.0145,0.1474,-0.03265,-0.01663,0.0116,-0.03448
6.894,-0.02243,-0.03601,-0.06149,-0.0354,-0.03204,0.00061,-0.02991,-0.00092,-0.01923,-0.01999,-0.01511,0.17914,-0.03342,-0.01709,0.01175,-0.03281
6.8945,-0.02777,-0.0383,-0.09247,-0.02365,-0.04517,-0.00275,-0.02563,0.00275,-0.01862,-0.02014,-0.01617,0.14893,-0.03372,-0.01831,0.01282,-0.03204
6.895,-0.03006,-0.04211,-0.1355,-0.0148,-0.04059,-0.00595,-0.0238,0.00122,-0.0174,-0.0206,-0.01587,0.07599,-0.03326,-0.01892,0.01373,-0.03021
6.8955,-0.02808,-0.04822,-0.18463,-0.01266,-0.0383,-0.00824,-0.02289,-0.00183,-0.01694,-0.01999,-0.01572,-0.0177,-0.03418,-0.01968,0.01266,-0.03006
6.896,-0.02228,-0.05539,-0.23041,-0.0177,-0.0618,-0.01205,-0.02304,-0.00153,-0.01694,-0.01862,-0.01205,-0.12421,-0.03479,-0.01968,0.00961,-0.03098
6.8965,-0.01007,-0.05981,-0.2536,-0.02548,-0.09171,-0.01633,-0.02182,-0.00122,-0.0174,-0.0177,-0.01175,-0.2124,-0.03494,-0.01984,0.00702,-0.03296
6.897,0.00946,-0.05859,-0.23239,-0.02914,-0.10269,-0.01801,-0.01877,0.00015,-0.0174,-0.01831,-0.01358,-0.23148,-0.03433,-0.01877,0.00641,-0.0351
6.8975,0.03372,-0.05432,-0.15991,-0.02701,-0.08591,-0.0174,-0.01602,0.00183,-0.0174,-0.01816,-0.0145,-0.17075,-0.03326,-0.0174,0.00565,-0.03662
6.898,0.04929,-0.05219,-0.05585,-0.02136,-0.05875,-0.01724,-0.01541,0.00366,-0.01648,-0.01846,-0.0148,-0.07523,-0.03265,-0.01694,0.00504,-0.03799
6.8985,0.04227,-0.04868,0.04929,-0.01404,-0.03571,-0.01984,-0.01923,0.00092,-0.01587,-0.01785,-0.01663,-0.00259,-0.03357,-0.01602,0.00336,-0.04059
6.899,0.01389,-0.04745,0.12894,-0.009,-0.01633,-0.02258,-0.0264,-0.00275,-0.01495,-0.0174,-0.01678,0.01938,-0.0351,-0.01724,0.00214,-0.04349
6.8995,-0.01389,-0.04333,0.16815,-0.00412,0.00153,-0.02197,-0.03036,-0.00427,-0.01419,-0.01694,-0.01785,-0.00046,-0.0351,-0.01862,0.00336,-0.04349
6.9,-0.02441,-0.04257,0.16876,0.00351,0.0209,-0.02136,-0.02869,-0.00153,-0.01389,-0.0177,-0.0177,-0.03479,-0.03479,-0.01999,0.00412,-0.04166
6.9005,-0.0174,-0.04425,0.14313,0.01389,0.03357,-0.0206,-0.0235,0.00229,-0.01419,-0.01755,-0.01846,-0.05341,-0.03586,-0.01984,0.00427,-0.04013
6.901,-0.00488,-0.04639,0.10818,0.02014,0.04242,-0.02197,-0.02289,0.00504,-0.01511,-0.01755,-0.01572,-0.04486,-0.03677,-0.02014,0.00397,-0.04059
6.9015,0.0032,-0.04211,0.07446,0.01312,0.03845,-0.02411,-0.02823,0.00412,-0.01572,-0.01709,-0.01419,-0.02029,-0.03464,-0.01999,0.00381,-0.04105
6.902,0.00671,-0.0354,0.04822,0.0,0.00961,-0.0264,-0.03372,0.00229,-0.01572,-0.01633,-0.01343,0.00397,-0.03174,-0.01938,0.00549,-0.04303
6.9025,0.00702,-0.0267,0.02823,-0.00961,-0.0354,-0.0267,-0.0322,0.00336,-0.01541,-0.01678,-0.01282,0.02136,-0.03021,-0.0206,0.00687,-0.04364
6.903,0.00351,-0.02258,0.01617,-0.01251,-0.07385,-0.02609,-0.02655,0.00504,-0.01556,-0.01633,-0.01526,0.03571,-0.03021,-0.02045,0.00839,-0.04303
6.9035,-0.00229,-0.02884,0.01007,-0.01022,-0.09109,-0.02731,-0.02472,0.00549,-0.01556,-0.01663,-0.01556,0.05249,-0.03067,-0.01923,0.009,-0.04166
6.904,-0.0087,-0.04013,0.00778,-0.00504,-0.09415,-0.03143,-0.02701,0.00275,-0.01495,-0.01617,-0.01358,0.06943,-0.03036,-0.01862,0.00977,-0.03937
6.9045,-0.01282,-0.05081,0.00977,-0.00061,-0.09857,-0.03738,-0.0296,-0.00137,-0.01434,-0.01663,-0.01389,0.07446,-0.02975,-0.01801,0.0119,-0.03738
6.905,-0.01541,-0.056,0.0145,-0.00305,-0.10132,-0.03937,-0.02777,-0.00519,-0.01434,-0.01694,-0.01389,0.05783,-0.0296,-0.0177,0.01312,-0.03662
6.9055,-0.01617,-0.05753,0.01846,-0.01419,-0.09384,-0.04028,-0.01953,-0.00351,-0.01541,-0.01678,-0.01602,0.02411,-0.02991,-0.01694,0.01251,-0.03662
6.906,-0.01602,-0.05768,0.01755,-0.02945,-0.08072,-0.04303,-0.01007,-0.00031,-0.01617,-0.01648,-0.01663,-0.00641,-0.03036,-0.01801,0.01068,-0.03555
6.9065,-0.0206,-0.0592,0.00854,-0.04318,-0.06165,-0.04669,-0.00336,0.00153,-0.01678,-0.01724,-0.01617,-0.01587,-0.02991,-0.01831,0.00977,-0.03403
6.907,-0.03616,-0.06989,-0.01007,-0.04868,-0.04745,-0.04898,0.00061,0.00046,-0.01648,-0.01816,-0.01617,-0.00702,-0.02884,-0.01801,0.00992,-0.03204
6.9075,-0.06241,-0.09155,-0.03204,-0.04227,-0.04013,-0.05112,0.00214,-0.00061,-0.01648,-0.01862,-0.01694,0.00427,-0.02655,-0.01938,0.01099,-0.03189
6.908,-0.09583,-0.11932,-0.04929,-0.02472,-0.03525,-0.05478,0.00107,-0.00214,-0.01678,-0.01816,-0.01678,0.00839,-0.02533,-0.02014,0.01068,-0.03281
6.9085,-0.12375,-0.13992,-0.05783,0.00153,-0.03067,-0.0592,-0.00381,-0.0029,-0.01678,-0.01892,-0.01648,0.00641,-0.02731,-0.01892,0.0087,-0.03311
6.909,-0.13397,-0.1474,-0.06317,0.03006,-0.02808,-0.06104,-0.00809,-0.00244,-0.01633,-0.02029,-0.01526,-0.00259,-0.03036,-0.01724,0.00809,-0.0322
6.9095,-0.11642,-0.14069,-0.07156,0.04944,-0.02563,-0.06134,-0.01083,-0.00046,-0.01572,-0.02045,-0.01389,-0.02365,-0.03326,-0.01709,0.01007,-0.03311
6.91,-0.07385,-0.11963,-0.08118,0.05219,-0.02411,-0.05966,-0.01373,0.00168,-0.01434,-0.01801,-0.01434,-0.05844,-0.03372,-0.0177,0.01297,-0.03464
6.9105,-0.02136,-0.09445,-0.08987,0.03891,-0.02197,-0.06165,-0.01816,0.0029,-0.01328,-0.01724,-0.01816,-0.0882,-0.03342,-0.01877,0.01419,-0.03708
6.911,0.03006,-0.06897,-0.09338,0.02274,-0.01755,-0.06638,-0.0235,0.00259,-0.01312,-0.01816,-0.01709,-0.08347,-0.0325,-0.01846,0.01251,-0.03738
6.9115,0.07599,-0.04456,-0.09155,0.01358,-0.01282,-0.07156,-0.02716,0.00351,-0.01312,-0.01999,-0.01328,-0.04074,-0.03296,-0.0174,0.01221,-0.03769
6.912,0.11124,-0.02625,-0.0856,0.01526,-0.00717,-0.07263,-0.02731,0.00397,-0.01373,-0.01831,-0.0119,0.00793,-0.03342,-0.01617,0.01144,-0.03891
6.9125,0.12634,-0.01526,-0.07599,0.02289,0.00336,-0.0708,-0.02243,0.00336,-0.01373,-0.01785,-0.01404,0.03021,-0.03265,-0.01846,0.0116,-0.04059
6.913,0.11826,-0.01022,-0.06744,0.03067,0.01617,-0.0676,-0.01648,0.00107,-0.01434,-0.01755,-0.01678,0.02533,-0.0325,-0.01892,0.01221,-0.04105
6.9135,0.09689,-0.00412,-0.05997,0.03494,0.0293,-0.06622,-0.01297,-0.0032,-0.01465,-0.01801,-0.01633,0.01678,-0.03265,-0.01831,0.01114,-0.0383
6.914,0.07538,0.0,-0.056,0.03342,0.03876,-0.06744,-0.01175,-0.00763,-0.01495,-0.01907,-0.0145,0.02319,-0.0322,-0.01862,0.01129,-0.03662
6.9145,0.05814,0.00656,-0.05814,0.02518,0.04395,-0.07019,-0.01114,-0.00565,-0.01495,-0.01907,-0.01312,0.04562,-0.03357,-0.01831,0.01022,-0.03693
6.915,0.04135,0.01419,-0.07446,0.01099,0.04974,-0.07568,-0.0116,0.00092,-0.01526,-0.01846,-0.01389,0.07019,-0.0354,-0.01801,0.01083,-0.03815
6.9155,0.02655,0.02213,-0.10849,-0.00778,0.04944,-0.08026,-0.01312,0.00381,-0.01587,-0.01755,-0.01343,0.07813,-0.03616,-0.01541,0.01221,-0.03952
6.916,0.01862,0.02838,-0.15198,-0.03036,0.02777,-0.0824,-0.01511,0.00107,-0.01617,-0.01709,-0.01343,0.06271,-0.0351,-0.01541,0.01404,-0.03891
6.9165,0.01556,0.03036,-0.18677,-0.05051,-0.00046,-0.08148,-0.01526,-0.00366,-0.01648,-0.01694,-0.01633,0.0354,-0.03418,-0.01556,0.01541,-0.03662
6.917,0.01419,0.0325,-0.19745,-0.06256,-0.00229,-0.07904,-0.01541,-0.00534,-0.01694,-0.0174,-0.01709,0.01663,-0.03448,-0.01663,0.0145,-0.03525
6.9175,0.01373,0.03281,-0.17838,-0.06897,0.02029,-0.07721,-0.01633,-0.00595,-0.01724,-0.01801,-0.01663,0.01404,-0.03464,-0.01862,0.01282,-0.03418
6.918,0.01328,0.03159,-0.1265,-0.08148,0.02686,-0.07584,-0.01877,-0.01022,-0.01755,-0.01846,-0.01434,0.02121,-0.03372,-0.01907,0.01297,-0.03494
6.9185,0.0119,0.02487,-0.04791,-0.10117,-0.01343,-0.07477,-0.01907,-0.01511,-0.01862,-0.01923,-0.01389,0.02563,-0.03357,-0.01831,0.01541,-0.03677
6.919,0.00854,0.01678,0.03754,-0.11765,-0.06485,-0.07339,-0.01755,-0.01617,-0.01938,-0.01938,-0.0145,0.02197,-0.03616,-0.01724,0.0174,-0.0383
6.9195,0.00244,0.0061,0.11154,-0.12207,-0.08423,-0.07584,-0.01511,-0.01541,-0.01831,-0.01999,-0.01312,0.01617,-0.03784,-0.01648,0.01602,-0.03967
6.92,-0.00427,-0.01312,0.1564,-0.11536,-0.07019,-0.07904,-0.01282,-0.01282,-0.01617,-0.02045,-0.01053,0.01373,-0.03616,-0.01633,0.01419,-0.0412
6.9205,-0.00824,-0.04227,0.16418,-0.103,-0.06683,-0.07965,-0.01099,-0.01114,-0.01465,-0.01938,-0.01205,0.01328,-0.03265,-0.01587,0.01312,-0.04318
6.921,-0.00854,-0.06653,0.14175,-0.0885,-0.09735,-0.07416,-0.01129,-0.01236,-0.01526,-0.01984,-0.01495,0.01205,-0.02945,-0.01617,0.01465,-0.04501
6.9215,-0.00946,-0.07492,0.10315,-0.07462,-0.13992,-0.0676,-0.0145,-0.0148,-0.01587,-0.01953,-0.01724,0.00702,-0.02869,-0.01648,0.01633,-0.04486
6.922,-0.01175,-0.06943,0.06027,-0.06393,-0.1532,-0.06393,-0.01892,-0.01648,-0.01572,-0.02029,-0.01633,0.00397,-0.02975,-0.01663,0.01816,-0.04272
6.9225,-0.01572,-0.05615,0.01755,-0.05478,-0.12878,-0.06287,-0.02014,-0.01495,-0.01526,-0.01953,-0.01251,0.00854,-0.03113,-0.01694,0.01785,-0.04166
6.923,-0.02151,-0.03906,-0.02289,-0.0412,-0.09048,-0.06302,-0.0174,-0.00824,-0.01617,-0.01846,-0.0119,0.02029,-0.03311,-0.01801,0.01602,-0.04227
6.9235,-0.02823,-0.02014,-0.06271,-0.02045,-0.06439,-0.06363,-0.01328,-0.00214,-0.01755,-0.0177,-0.01511,0.03265,-0.03555,-0.0177,0.0148,-0.0444
6.924,-0.03433,-0.00565,-0.10605,0.00732,-0.05249,-0.0647,-0.01083,-0.00061,-0.01724,-0.0174,-0.01694,0.03571,-0.03693,-0.01724,0.0145,-0.04486
6.9245,-0.04181,-0.00092,-0.14679,0.03662,-0.04105,-0.06683,-0.01114,-0.00366,-0.01602,-0.01816,-0.01633,0.02777,-0.03586,-0.01907,0.01572,-0.04318
6.925,-0.0502,-0.00244,-0.16983,0.06058,-0.02823,-0.06927,-0.01343,-0.0058,-0.01419,-0.02014,-0.01404,0.0174,-0.03464,-0.0206,0.01556,-0.04211
6.9255,-0.05585,-0.00656,-0.16556,0.07248,-0.02045,-0.06973,-0.01373,-0.00565,-0.01312,-0.02106,-0.01297,0.00992,-0.03357,-0.02075,0.01373,-0.04349
6.926,-0.05463,-0.01144,-0.13428,0.0737,-0.02045,-0.06897,-0.01205,0.0,-0.01282,-0.02075,-0.01328,0.00504,-0.03326,-0.01877,0.01312,-0.04562
6.9265,-0.04303,-0.01373,-0.08835,0.06973,-0.01862,-0.06805,-0.00946,0.00351,-0.01328,-0.02045,-0.01587,0.00214,-0.03281,-0.01694,0.01404,-0.04852
6.927,-0.02426,-0.01328,-0.03525,0.06378,-0.02121,-0.06714,-0.00885,0.00519,-0.01556,-0.01999,-0.01617,0.0029,-0.03189,-0.01694,0.01419,-0.05005
6.9275,-0.00488,-0.01526,0.01648,0.05249,-0.0351,-0.06454,-0.00992,0.00351,-0.0177,-0.01984,-0.01709,0.00961,-0.03113,-0.01709,0.01328,-0.05051
6.928,0.00809,-0.02319,0.05783,0.03845,-0.05768,-0.06226,-0.01053,0.00244,-0.01846,-0.02106,-0.01556,0.01755,-0.03036,-0.01663,0.01236,-0.0499
6.9285,0.00961,-0.03418,0.08026,0.02411,-0.0705,-0.06058,-0.01129,0.00229,-0.0174,-0.0209,-0.01282,0.02274,-0.03067,-0.01724,0.01266,-0.04791
6.929,0.00076,-0.04349,0.0853,0.00885,-0.06378,-0.05692,-0.01114,0.00244,-0.01617,-0.02182,-0.01236,0.02472,-0.03128,-0.01862,0.01328,-0.04745
6.9295,-0.00793,-0.05112,0.07889,-0.00992,-0.04593,-0.05203,-0.0119,0.00229,-0.01556,-0.02182,-0.01282,0.02625,-0.03098,-0.02014,0.01221,-0.04715
6.93,-0.01205,-0.06165,0.065,-0.03052,-0.03708,-0.0502,-0.01144,0.00229,-0.01541,-0.02075,-0.0145,0.02701,-0.03052,-0.01938,0.01068,-0.0473
6.9305,-0.01144,-0.07904,0.04669,-0.04272,-0.03098,-0.0502,-0.01083,0.00488,-0.01617,-0.01953,-0.01602,0.02579,-0.03067,-0.0177,0.01038,-0.04837
6.931,-0.01266,-0.09766,0.02274,-0.04211,-0.02899,-0.0528,-0.01083,0.00626,-0.01694,-0.01892,-0.01495,0.02167,-0.03098,-0.01694,0.01068,-0.04944
6.9315,-0.01465,-0.1088,-0.00061,-0.0322,-0.02319,-0.05234,-0.01099,0.00488,-0.01556,-0.01801,-0.01328,0.01434,-0.03098,-0.01816,0.01129,-0.04898
6.932,-0.01663,-0.10773,-0.02243,-0.02075,-0.01999,-0.05341,-0.01144,0.00137,-0.01434,-0.01785,-0.01282,0.0087,-0.03174,-0.01984,0.01038,-0.04837
6.9325,-0.01785,-0.09644,-0.0383,-0.01266,-0.02106,-0.05341,-0.01099,-0.00107,-0.01358,-0.0177,-0.01511,0.00748,-0.03387,-0.01968,0.00885,-0.04822
6.933,-0.02075,-0.07889,-0.04974,-0.00931,-0.01923,-0.05356,-0.01083,-0.00061,-0.01404,-0.01724,-0.01343,0.01022,-0.03601,-0.0177,0.01007,-0.04852
6.9335,-0.02594,-0.06134,-0.05981,-0.01007,-0.01495,-0.05417,-0.01144,0.00244,-0.0148,-0.01678,-0.01236,0.01221,-0.03677,-0.01587,0.01236,-0.04822
6.934,-0.03021,-0.04684,-0.07034,-0.01251,-0.01099,-0.05554,-0.01144,0.00244,-0.01389,-0.01617,-0.01068,0.01099,-0.03662,-0.01572,0.01343,-0.04745
6.9345,-0.03235,-0.03754,-0.07858,-0.01129,-0.00992,-0.056,-0.01144,-0.00229,-0.01221,-0.01709,-0.01038,0.01007,-0.03571,-0.01648,0.01205,-0.0473
6.935,-0.03387,-0.03342,-0.08286,-0.00763,-0.00854,-0.05524,-0.01083,-0.00778,-0.01114,-0.0177,-0.01236,0.00961,-0.03464,-0.01678,0.01099,-0.04761
6.9355,-0.0351,-0.03128,-0.08316,-0.00366,-0.00641,-0.05417,-0.01022,-0.00946,-0.01221,-0.01999,-0.01312,0.00946,-0.03448,-0.01694,0.01038,-0.047
6.936,-0.03433,-0.02853,-0.08255,-0.00122,-0.00305,-0.05249,-0.00931,-0.00488,-0.01373,-0.01968,-0.01297,0.00824,-0.03632,-0.01724,0.01221,-0.04486
6.9365,-0.03006,-0.02304,-0.0824,0.00244,0.00366,-0.04913,-0.00854,0.00092,-0.0145,-0.01938,-0.01144,0.00626,-0.03662,-0.01755,0.01266,-0.04349
6.937,-0.02335,-0.01572,-0.08179,0.00595,0.01541,-0.04578,-0.00854,0.00275,-0.01526,-0.01801,-0.01068,0.00565,-0.03586,-0.01938,0.01114,-0.04288
6.9375,-0.01419,-0.0116,-0.07996,0.00641,0.03021,-0.04425,-0.00854,-0.00092,-0.01556,-0.01846,-0.01251,0.00504,-0.03479,-0.02121,0.00824,-0.04288
6.938,0.00015,-0.01633,-0.07553,0.00305,0.03601,-0.04486,-0.00824,-0.00595,-0.01602,-0.01923,-0.01511,0.00458,-0.0351,-0.01968,0.00656,-0.04196
6.9385,0.02563,-0.02777,-0.06866,0.00092,0.02197,-0.04532,-0.00916,-0.00732,-0.01602,-0.01923,-0.01495,0.00351,-0.03586,-0.01755,0.00656,-0.04089
6.939,0.05478,-0.03815,-0.06104,0.00259,-0.00748,-0.04471,-0.01068,-0.00656,-0.01572,-0.01816,-0.01297,0.00259,-0.03647,-0.01556,0.00885,-0.04074
6.9395,0.07477,-0.04578,-0.05615,0.00427,-0.03235,-0.04303,-0.01221,-0.00732,-0.01434,-0.01648,-0.01144,0.00153,-0.0354,-0.01556,0.00961,-0.04089
6.94,0.07446,-0.05234,-0.05386,-0.00198,-0.04333,-0.04395,-0.01236,-0.009,-0.01312,-0.01694,-0.00916,0.00015,-0.03403,-0.01663,0.00809,-0.04028
6.9405,0.05615,-0.06363,-0.05402,-0.01358,-0.04379,-0.04715,-0.01175,-0.0119,-0.01282,-0.01755,-0.00809,-0.00015,-0.03387,-0.01709,0.0058,-0.04135
6.941,0.03387,-0.07751,-0.05646,-0.02319,-0.05142,-0.04929,-0.0119,-0.01038,-0.01358,-0.01801,-0.00931,-0.00076,-0.03311,-0.01816,0.00595,-0.04211
6.9415,0.01907,-0.09094,-0.06134,-0.02945,-0.06332,-0.05112,-0.01251,-0.00732,-0.01465,-0.0174,-0.01038,-0.00046,-0.03174,-0.01831,0.00748,-0.04257
6.942,0.01297,-0.10132,-0.07004,-0.03342,-0.06653,-0.0499,-0.01053,-0.00626,-0.01663,-0.01709,-0.01236,-0.00122,-0.03189,-0.01831,0.00793,-0.04166
6.9425,0.00793,-0.10437,-0.08316,-0.03906,-0.05707,-0.04684,-0.00687,-0.00778,-0.0174,-0.01801,-0.01297,-0.00122,-0.03204,-0.01846,0.00732,-0.0415
6.943,-0.00214,-0.10101,-0.09445,-0.0444,-0.04715,-0.04471,-0.00626,-0.00717,-0.01648,-0.01907,-0.01358,-0.0029,-0.03326,-0.01846,0.00656,-0.03983
6.9435,-0.01709,-0.09232,-0.10284,-0.04379,-0.04807,-0.04623,-0.00809,-0.00336,-0.01617,-0.01816,-0.01312,-0.00443,-0.03403,-0.01801,0.00641,-0.03891
6.944,-0.03113,-0.08255,-0.11032,-0.0325,-0.05234,-0.04959,-0.01007,-0.00046,-0.01694,-0.0177,-0.01114,-0.00473,-0.03387,-0.01678,0.00549,-0.0386
6.9445,-0.03815,-0.07065,-0.11642,-0.01129,-0.05051,-0.05157,-0.01099,-0.00107,-0.0177,-0.01816,-0.00992,-0.00366,-0.03281,-0.01663,0.00351,-0.03967
6.945,-0.03952,-0.05936,-0.11383,0.00916,-0.03296,-0.05112,-0.01083,-0.00443,-0.01663,-0.01617,-0.009,-0.00183,-0.02991,-0.01801,0.0032,-0.04044
6.9455,-0.03952,-0.05264,-0.09705,0.01709,-0.00702,-0.05035,-0.01068,-0.01129,-0.01511,-0.01663,-0.01053,-0.00153,-0.0267,-0.01984,0.00488,-0.04211
6.946,-0.04089,-0.05081,-0.06393,0.01404,0.0209,-0.05142,-0.01007,-0.01297,-0.01419,-0.0206,-0.01205,-0.00351,-0.02441,-0.01999,0.00656,-0.04211
6.9465,-0.04257,-0.04715,-0.01862,0.0119,0.0412,-0.05249,-0.00961,-0.01007,-0.01389,-0.01816,-0.0119,-0.0061,-0.02502,-0.01831,0.00595,-0.04166
6.947,-0.04364,-0.03906,0.0293,0.01556,0.03784,-0.05249,-0.009,-0.00427,-0.01434,-0.01907,-0.01068,-0.00793,-0.02716,-0.01648,0.00443,-0.04135
6.9475,-0.04044,-0.02594,0.06561,0.01328,0.0058,-0.05051,-0.01175,0.00153,-0.01541,-0.02045,-0.01114,-0.00778,-0.02808,-0.01602,0.00336,-0.04181
6.948,-0.03159,-0.01129,0.07797,0.00183,-0.04517,-0.04669,-0.01221,0.00427,-0.01694,-0.0206,-0.01251,-0.00793,-0.02838,-0.01663,0.00305,-0.04227
6.9485,-0.01755,0.00137,0.06836,-0.00763,-0.09094,-0.04684,-0.00992,0.00473,-0.01785,-0.02106,-0.01343,-0.00839,-0.02808,-0.01831,0.00351,-0.0415
6.949,-0.00565,0.00305,0.04974,-0.00763,-0.10223,-0.04883,-0.00763,0.00153,-0.01755,-0.02136,-0.01297,-0.00931,-0.02945,-0.01984,0.00397,-0.04181
6.9495,0.00153,-0.00626,0.03296,-0.00412,-0.06912,-0.04807,-0.009,-0.00397,-0.01572,-0.01968,-0.01312,-0.01022,-0.03098,-0.01968,0.00122,-0.04425
6.95,0.00336,-0.02487,0.01465,-0.00458,-0.01984,-0.0444,-0.01358,-0.0119,-0.01389,-0.01953,-0.01282,-0.01053,-0.03113,-0.01892,-0.00031,-0.04578
6.9505,0.00549,-0.04074,-0.00519,-0.00748,0.00916,-0.03922,-0.01801,-0.01709,-0.01282,-0.02106,-0.01205,-0.01099,-0.03052,-0.01678,-0.00015,-0.04547
6.951,0.00839,-0.04654,-0.02365,-0.00656,0.01144,-0.03647,-0.01984,-0.01938,-0.01358,-0.02243,-0.01022,-0.01114,-0.0293,-0.01404,0.00076,-0.04303
6.9515,0.00961,-0.04349,-0.03464,0.00031,-0.01007,-0.04044,-0.01907,-0.01678,-0.01389,-0.02075,-0.01068,-0.01038,-0.0293,-0.01511,0.00229,-0.04181
6.952,0.00839,-0.03693,-0.03891,0.00854,-0.0531,-0.04471,-0.01846,-0.01236,-0.01465,-0.01923,-0.01266,-0.00961,-0.0325,-0.01755,0.0032,-0.04166
6.9525,0.0058,-0.0296,-0.03845,0.00854,-0.10696,-0.04608,-0.01968,-0.0032,-0.0145,-0.01953,-0.01221,-0.00885,-0.03586,-0.01892,0.00336,-0.04288
6.953,0.00443,-0.02716,-0.03387,-0.00458,-0.12726,-0.04517,-0.02167,0.0061,-0.0148,-0.01953,-0.01038,-0.00916,-0.03677,-0.01938,0.00137,-0.04272
6.9535,0.00717,-0.0293,-0.02777,-0.02609,-0.08865,-0.04333,-0.02274,0.01099,-0.0148,-0.01831,-0.01022,-0.00916,-0.0351,-0.01785,-0.00046,-0.04242
6.954,0.01038,-0.03525,-0.02243,-0.04425,-0.02487,-0.04349,-0.0206,0.00687,-0.01495,-0.02258,-0.01099,-0.00839,-0.03235,-0.01633,-0.00275,-0.04181
6.9545,0.01236,-0.04181,-0.01663,-0.04868,0.0029,-0.04654,-0.01617,-0.00076,-0.01495,-0.02457,-0.0116,-0.00809,-0.03067,-0.0148,-0.0029,-0.04257
6.955,0.00961,-0.04822,-0.0087,-0.03616,-0.0206,-0.04974,-0.01175,-0.00717,-0.01541,-0.02441,-0.01205,-0.00824,-0.03067,-0.01343,-0.00061,-0.04379
6.9555,0.0029,-0.05295,-0.00214,-0.01205,-0.05753,-0.05173,-0.00824,-0.00534,-0.01495,-0.02533,-0.01297,-0.00702,-0.03235,-0.01419,0.00092,-0.04242
6.956,-0.0061,-0.05569,-0.00275,0.01038,-0.07172,-0.04959,-0.00504,0.00046,-0.01556,-0.02472,-0.0145,-0.00519,-0.03418,-0.01556,0.00076,-0.04135
6.9565,-0.01343,-0.05493,-0.0116,0.01984,-0.06226,-0.04547,-0.00458,0.00244,-0.01678,-0.02014,-0.01556,-0.00412,-0.03433,-0.01648,-0.00031,-0.04318
6.957,-0.01526,-0.05249,-0.02701,0.01556,-0.04501,-0.04166,-0.00549,-0.00549,-0.01892,-0.02411,-0.01556,-0.00458,-0.03296,-0.01801,0.00076,-0.04379
6.9575,-0.00961,-0.04791,-0.03876,0.01099,-0.03128,-0.04181,-0.00687,-0.03082,-0.01953,-0.02106,-0.01404,-0.00565,-0.03098,-0.01938,0.00214,-0.04486
6.958,-0.00076,-0.04486,-0.0444,0.0116,-0.02182,-0.04684,-0.00778,-0.07767,-0.01816,-0.0209,-0.01282,-0.0061,-0.03036,-0.02121,0.00168,-0.04395
6.9585,0.00626,-0.04349,-0.04883,0.01266,-0.02045,-0.05325,-0.01099,-0.11536,-0.01648,-0.02029,-0.01221,-0.00549,-0.03113,-0.02029,0.00076,-0.04562
6.959,0.00961,-0.04349,-0.05142,0.0087,-0.02701,-0.05707,-0.01541,-0.09125,-0.01602,-0.01877,-0.01389,-0.00336,-0.03204,-0.01968,0.00137,-0.04547
6.9595,0.01282,-0.04364,-0.0499,0.00397,-0.03601,-0.05417,-0.01846,0.00458,-0.01587,-0.0177,-0.01465,-0.0032,-0.0322,-0.02014,0.0029,-0.04532
6.96,0.01465,-0.04227,-0.04456,0.00397,-0.03708,-0.05051,-0.01709,0.09964,-0.01541,-0.0177,-0.01389,-0.00504,-0.03036,-0.0206,0.00259,-0.04517
6.9605,0.01328,-0.04028,-0.03815,0.00702,-0.03098,-0.04837,-0.01221,0.12115,-0.01389,-0.01862,-0.01328,-0.0058,-0.02853,-0.02151,0.00107,-0.04395
6.961,0.00778,-0.03784,-0.0351,0.00778,-0.02991,-0.04761,-0.00946,0.08057,-0.01343,-0.01892,-0.01282,-0.00549,-0.02838,-0.02182,0.00046,-0.04318
6.9615,-0.00168,-0.03357,-0.03403,0.00275,-0.03586,-0.04684,-0.01068,0.03891,-0.01373,-0.01801,-0.01419,-0.00534,-0.02914,-0.02029,0.00076,-0.04135
6.962,-0.01175,-0.02869,-0.03098,-0.00305,-0.04166,-0.04898,-0.01541,0.02243,-0.01511,-0.01633,-0.01419,-0.00732,-0.02884,-0.01953,0.00259,-0.04196
6.9625,-0.01923,-0.02518,-0.02701,-0.0061,-0.03967,-0.05005,-0.02014,0.01694,-0.01511,-0.01923,-0.01343,-0.01114,-0.02884,-0.01984,0.0032,-0.04303
6.963,-0.02289,-0.02289,-0.02213,-0.00504,-0.03067,-0.05127,-0.02213,0.00763,-0.01465,-0.01938,-0.01205,-0.01221,-0.02869,-0.02075,0.00336,-0.04318
6.9635,-0.02594,-0.02228,-0.01953,-0.0032,-0.02151,-0.05112,-0.02182,0.00046,-0.0145,-0.01999,-0.01205,-0.01022,-0.02899,-0.02274,0.00153,-0.04272
6.964,-0.02792,-0.02258,-0.01892,-0.00702,-0.01801,-0.05219,-0.02075,-0.00015,-0.01434,-0.01938,-0.01266,-0.00702,-0.02914,-0.02335,-0.00061,-0.04288
6.9645,-0.0296,-0.02563,-0.02029,-0.0148,-0.0235,-0.05417,-0.01999,0.00046,-0.01404,-0.01862,-0.01419,-0.00565,-0.02899,-0.02243,-0.00031,-0.0441
6.965,-0.03113,-0.0296,-0.02182,-0.02136,-0.03372,-0.05661,-0.01968,0.00076,-0.01373,-0.02045,-0.01511,-0.00702,-0.03052,-0.01984,0.00015,-0.04578
6.9655,-0.03479,-0.02853,-0.02548,-0.02533,-0.04181,-0.05844,-0.01923,0.00366,-0.01389,-0.02075,-0.01602,-0.00656,-0.03342,-0.02014,0.00275,-0.04578
6.966,-0.04349,-0.02274,-0.03098,-0.0322,-0.04181,-0.05814,-0.0174,0.00763,-0.01389,-0.01663,-0.01495,-0.00183,-0.0351,-0.01999,0.00534,-0.04486
6.9665,-0.05585,-0.01495,-0.03571,-0.0386,-0.03632,-0.05585,-0.01556,0.00748,-0.01434,-0.01724,-0.01419,0.00381,-0.03494,-0.02045,0.00641,-0.04395
6.967,-0.0679,-0.01495,-0.03769,-0.03662,-0.03098,-0.0528,-0.01389,0.00275,-0.0148,-0.01938,-0.01297,0.0058,-0.03464,-0.02197,0.00397,-0.04425
6.9675,-0.07248,-0.02441,-0.04013,-0.02304,-0.02991,-0.04913,-0.01205,-0.00305,-0.01617,-0.0209,-0.01419,0.0032,-0.03326,-0.02274,0.00137,-0.04501
6.968,-0.06973,-0.03601,-0.04456,-0.00656,-0.0293,-0.04578,-0.01175,-0.009,-0.01617,-0.02106,-0.01511,0.00031,-0.03174,-0.02151,-0.00046,-0.04318
6.9685,-0.0647,-0.04318,-0.04791,0.00458,-0.02945,-0.04623,-0.01297,-0.01465,-0.01511,-0.01999,-0.01541,-0.00198,-0.03098,-0.01984,0.00031,-0.04074
6.969,-0.05783,-0.04791,-0.05127,0.00854,-0.02914,-0.04623,-0.01541,-0.01892,-0.01419,-0.01999,-0.0148,-0.00427,-0.03143,-0.01938,0.00244,-0.04059
6.9695,-0.04761,-0.05234,-0.06256,0.00809,-0.02945,-0.04684,-0.01648,-0.01953,-0.01358,-0.01846,-0.01526,-0.00809,-0.03067,-0.01877,0.0032,-0.04196
6.97,-0.03311,-0.05707,-0.09079,0.00488,-0.02899,-0.04807,-0.01602,-0.01434,-0.01434,-0.01602,-0.01541,-0.01236,-0.02792,-0.01953,0.00443,-0.04303
6.9705,-0.01373,-0.05814,-0.13107,0.00015,-0.03067,-0.04868,-0.01709,-0.01099,-0.01587,-0.01785,-0.0145,-0.01526,-0.0267,-0.01923,0.00656,-0.04349
6.971,0.01175,-0.05402,-0.15671,-0.00626,-0.03342,-0.04761,-0.02121,-0.01282,-0.01724,-0.01862,-0.01343,-0.01724,-0.02731,-0.01938,0.00702,-0.04395
6.9715,0.0473,-0.04959,-0.14938,-0.01205,-0.03372,-0.04547,-0.02365,-0.01663,-0.01785,-0.01877,-0.01465,-0.01938,-0.02914,-0.01968,0.00778,-0.04456
6.972,0.0824,-0.0473,-0.11475,-0.01724,-0.02899,-0.047,-0.02213,-0.0177,-0.01663,-0.01678,-0.01556,-0.02136,-0.03052,-0.02106,0.00763,-0.04532
6.9725,0.09888,-0.04684,-0.07355,-0.02045,-0.01541,-0.04822,-0.01678,-0.01648,-0.01511,-0.01541,-0.01572,-0.01953,-0.03159,-0.02411,0.00641,-0.04501
