time,RectFemL,VastusMedL,VastusLatL,TibAntL,HamMedL,HamLatL,GastroMedL,GastroLatL,RectFemR,VastusMedR,VastusLatR,TibAntR,HamMedR,HamLatR,GastroMedR,GastroLatR
6.97,-0.0029,-0.04639,-0.03143,-0.01343,-0.03098,-0.05127,-0.06805,0.00824,-0.13306,-0.0943,0.02014,-0.03128,-0.01419,-0.02151,0.01114,-0.03662
6.9705,-0.00168,-0.04745,-0.03326,-0.01801,-0.02472,-0.05341,-0.06424,-0.00046,-0.14221,-0.10345,-0.01038,-0.03464,-0.00244,-0.0206,0.01266,-0.03998
6.971,-0.00229,-0.0473,-0.03311,-0.02167,-0.01694,-0.05569,-0.04272,-0.01633,-0.1503,-0.11841,-0.04089,-0.02853,0.00336,-0.02014,0.01221,-0.04211
6.9715,-0.00626,-0.04745,-0.03616,-0.0235,-0.00565,-0.05783,-0.0087,-0.02991,-0.1413,-0.13504,-0.06561,-0.01678,0.00015,-0.02274,0.01083,-0.04364
6.972,-0.00977,-0.04822,-0.03754,-0.02411,0.00931,-0.0592,0.02579,-0.03418,-0.09995,-0.14526,-0.07675,-0.00748,-0.00854,-0.02319,0.00946,-0.04623
6.9725,-0.01114,-0.0473,-0.03754,-0.02472,0.02594,-0.06134,0.04898,-0.03098,-0.04898,-0.14572,-0.06668,-0.00122,-0.01862,-0.02029,0.00793,-0.05066
6.973,-0.00992,-0.04578,-0.0383,-0.02365,0.03845,-0.06195,0.05615,-0.02914,-0.02563,-0.1387,-0.03464,0.00519,-0.03616,-0.01587,0.00641,-0.05432
6.9735,-0.0087,-0.0441,-0.03647,-0.01984,0.04593,-0.06271,0.05066,-0.02991,-0.03204,-0.12589,0.00961,0.01236,-0.06042,-0.01465,0.00641,-0.05676
6.974,-0.00854,-0.04517,-0.03342,-0.01495,0.04791,-0.06241,0.03815,-0.01648,-0.03601,-0.11032,0.05005,0.01312,-0.07919,-0.01572,0.0058,-0.05661
6.9745,-0.01007,-0.04852,-0.03189,-0.01144,0.04486,-0.06104,0.02319,0.0209,-0.02899,-0.09811,0.07248,0.00214,-0.07614,-0.01694,0.00046,-0.05234
6.975,-0.01099,-0.04852,-0.02869,-0.01114,0.03296,-0.05768,0.00153,0.05585,-0.04745,-0.09583,0.07095,-0.01648,-0.05737,-0.0177,-0.00381,-0.0473
6.9755,-0.01129,-0.04547,-0.02533,-0.01099,0.01083,-0.05585,-0.02975,0.05447,-0.11444,-0.09613,0.05737,-0.03082,-0.04044,-0.01907,-0.00504,-0.04242
6.976,-0.01083,-0.04196,-0.02625,-0.01129,-0.0206,-0.06042,-0.06531,0.02396,-0.18555,-0.08835,0.04684,-0.03052,-0.03616,-0.02075,-0.00275,-0.03891
6.9765,-0.01129,-0.0412,-0.02808,-0.01343,-0.06042,-0.06821,-0.10437,0.00122,-0.19272,-0.07172,0.0386,-0.0177,-0.03708,-0.02045,0.00381,-0.03845
6.977,-0.01099,-0.04272,-0.02808,-0.01556,-0.1059,-0.07248,-0.14984,0.00366,-0.1329,-0.05554,0.01968,-0.00168,-0.03448,-0.01801,0.00656,-0.04395
6.9775,-0.00885,-0.04517,-0.02808,-0.01556,-0.14679,-0.06882,-0.18677,0.01694,-0.06271,-0.04684,-0.00412,0.01434,-0.03052,-0.0148,0.00732,-0.05539
6.978,-0.00519,-0.04822,-0.02975,-0.01312,-0.17029,-0.06287,-0.1825,0.02182,-0.02319,-0.03632,-0.01755,0.02182,-0.03006,-0.01373,0.00595,-0.06516
6.9785,-0.00275,-0.05035,-0.0293,-0.01083,-0.17288,-0.05859,-0.12375,0.01266,-0.01709,-0.01862,-0.01404,0.00702,-0.0293,-0.01541,0.00595,-0.06989
6.979,-0.00351,-0.05203,-0.03036,-0.00916,-0.16037,-0.05692,-0.03616,-0.01099,-0.03433,0.00412,-0.00046,-0.03815,-0.0264,-0.01984,0.00824,-0.07004
6.9795,-0.00366,-0.05051,-0.03418,-0.00687,-0.14038,-0.05325,0.03494,-0.04684,-0.056,0.02731,0.0029,-0.10162,-0.02335,-0.02121,0.01129,-0.0705
6.98,-0.00305,-0.0499,-0.0386,-0.00397,-0.11505,-0.04807,0.05402,-0.08179,-0.05066,0.04852,-0.01633,-0.16327,-0.02151,-0.01968,0.01129,-0.07187
6.9805,-0.00214,-0.04944,-0.04364,-0.00397,-0.09048,-0.04211,0.02625,-0.09308,-0.00702,0.0647,-0.05569,-0.19409,-0.02182,-0.01709,0.0061,-0.07248
6.981,-0.0029,-0.05005,-0.04471,-0.00671,-0.06943,-0.0386,-0.01099,-0.06622,0.04669,0.07187,-0.08881,-0.15411,-0.02197,-0.01617,0.00107,-0.07294
6.9815,-0.00381,-0.04883,-0.04379,-0.01007,-0.05692,-0.0354,-0.03006,-0.02304,0.08453,0.07309,-0.09781,-0.01129,-0.02304,-0.01663,0.00381,-0.07553
6.982,-0.00504,-0.047,-0.04395,-0.0116,-0.05081,-0.03159,-0.03632,-0.00092,0.10406,0.06561,-0.09186,0.1886,-0.02487,-0.01724,0.00977,-0.07843
6.9825,-0.00259,-0.0444,-0.04379,-0.01114,-0.04623,-0.0267,-0.0383,-0.01587,0.11688,0.05173,-0.08499,0.31525,-0.02487,-0.01755,0.01389,-0.07706
6.983,-0.00183,-0.04379,-0.04257,-0.00931,-0.03983,-0.02167,-0.02197,-0.04959,0.12329,0.03189,-0.08362,0.28015,-0.02213,-0.01968,0.01297,-0.06088
6.9835,-0.00259,-0.0441,-0.04013,-0.00732,-0.03281,-0.01846,0.02121,-0.07339,0.11765,0.01007,-0.08026,0.14832,-0.02106,-0.02396,0.00946,-0.02228
6.984,-0.00458,-0.04471,-0.0415,-0.0061,-0.02457,-0.01801,0.06485,-0.06683,0.10483,-0.01022,-0.07111,0.05981,-0.02243,-0.02884,0.00809,0.03128
6.9845,-0.00763,-0.04547,-0.04028,-0.00488,-0.01465,-0.01877,0.06866,-0.02747,0.0946,-0.02701,-0.06012,0.06149,-0.02197,-0.03357,0.00885,0.06561
6.985,-0.0087,-0.04669,-0.04349,-0.00397,-0.00488,-0.02136,0.03159,0.01892,0.08789,-0.04105,-0.05692,0.0853,-0.02289,-0.03647,0.00839,0.05112
6.9855,-0.0087,-0.04761,-0.04974,-0.00229,0.00488,-0.02274,0.0,0.03571,0.07477,-0.0528,-0.05997,0.06973,-0.02304,-0.03418,0.00626,0.00504
6.986,-0.009,-0.04883,-0.05325,0.0,0.01495,-0.02243,0.01816,0.02029,0.04532,-0.056,-0.05234,0.03098,-0.02258,-0.02716,0.00427,-0.03052
6.9865,-0.01053,-0.04898,-0.05753,0.00168,0.02396,-0.02274,0.08591,0.00107,-0.00381,-0.05127,-0.02472,0.01099,-0.02289,-0.02045,0.00107,-0.03708
6.987,-0.0116,-0.04669,-0.05661,0.00092,0.02594,-0.02365,0.15076,0.00229,-0.06302,-0.03754,0.00885,0.01419,-0.02304,-0.01801,-0.00168,-0.0325
6.9875,-0.0116,-0.04501,-0.05219,-0.00137,0.01862,-0.02411,0.16129,0.01572,-0.10071,-0.02533,0.02304,0.01907,-0.02167,-0.01953,-0.00412,-0.0322
6.988,-0.01022,-0.04395,-0.04837,-0.00381,0.00778,-0.02487,0.11932,0.02304,-0.09384,-0.01389,0.01221,0.01755,-0.02243,-0.0235,-0.00229,-0.03616
6.9885,-0.01007,-0.04349,-0.04684,-0.00534,0.00244,-0.0264,0.07462,0.02228,-0.05219,-0.00626,-0.00244,0.01419,-0.02441,-0.02792,0.00229,-0.03723
6.989,-0.009,-0.04333,-0.04471,-0.0058,0.00153,-0.03128,0.05646,0.02106,-0.01251,-0.01068,-0.00824,0.01114,-0.02869,-0.02991,0.00671,-0.03586
6.9895,-0.00763,-0.04349,-0.04089,-0.0061,-0.00015,-0.03754,0.05096,0.02625,0.00427,-0.04471,-0.00778,0.00763,-0.03128,-0.0296,0.00793,-0.03494
6.99,-0.00519,-0.04379,-0.03647,-0.00702,-0.00641,-0.04135,0.03601,0.03372,-0.00427,-0.09659,-0.01053,0.00122,-0.03357,-0.02686,0.00961,-0.03632
6.9905,-0.00504,-0.04608,-0.02884,-0.00687,-0.01648,-0.04135,0.01373,0.03586,-0.03036,-0.14053,-0.01419,-0.0058,-0.03769,-0.0238,0.00992,-0.03708
6.991,-0.00549,-0.04944,-0.02106,-0.00488,-0.02838,-0.03815,-0.00397,0.0296,-0.05417,-0.14893,-0.00748,-0.01419,-0.0444,-0.0206,0.00992,-0.03815
6.9915,-0.00641,-0.05234,-0.01617,-0.00412,-0.04166,-0.03464,-0.01617,0.01694,-0.05173,-0.12619,0.00259,-0.02869,-0.05005,-0.0177,0.00916,-0.04044
6.992,-0.0029,-0.05249,-0.01282,-0.00458,-0.05066,-0.03189,-0.02701,0.00534,-0.0264,-0.0972,-0.0238,-0.04852,-0.05234,-0.01633,0.00854,-0.04395
6.9925,0.00107,-0.04944,-0.01221,-0.00626,-0.05157,-0.02975,-0.03479,0.00137,-0.00534,-0.06256,-0.13184,-0.06287,-0.05081,-0.01602,0.0087,-0.047
6.993,0.00427,-0.04822,-0.01175,-0.00748,-0.04318,-0.02792,-0.03571,0.0,-0.00061,-0.01266,-0.2832,-0.06042,-0.04608,-0.01572,0.00839,-0.05234
6.9935,0.00458,-0.04913,-0.01007,-0.00793,-0.03372,-0.02762,-0.02914,-0.01892,-0.00412,0.04837,-0.35873,-0.04684,-0.03891,-0.0148,0.00885,-0.0621
6.994,0.00443,-0.05005,-0.01511,-0.00839,-0.03189,-0.02792,-0.01709,-0.06897,-0.00641,0.09506,-0.27252,-0.03204,-0.03021,-0.01373,0.00992,-0.07263
6.9945,0.00275,-0.05005,-0.02319,-0.00839,-0.03967,-0.02686,-0.00458,-0.13275,-0.00671,0.11414,-0.07935,-0.02274,-0.02228,-0.01053,0.01007,-0.07523
6.995,0.0029,-0.04776,-0.03082,-0.00717,-0.0502,-0.02396,0.00534,-0.15625,-0.00946,0.11612,0.07889,-0.01755,-0.01846,-0.00549,0.00885,-0.06943
6.9955,0.00473,-0.04578,-0.03464,-0.00656,-0.05432,-0.02243,0.00702,-0.11154,-0.0177,0.11215,0.13123,-0.01617,-0.02197,-0.0032,0.00824,-0.06012
6.996,0.00671,-0.04333,-0.0354,-0.0061,-0.05142,-0.02274,-0.00793,-0.04272,-0.03616,0.10223,0.1062,-0.01587,-0.02747,-0.00778,0.00885,-0.05417
6.9965,0.00626,-0.04181,-0.0351,-0.00778,-0.04715,-0.02411,-0.0383,-0.02594,-0.05829,0.08865,0.06607,-0.01434,-0.03143,-0.01526,0.00992,-0.05081
6.997,0.00397,-0.03998,-0.0354,-0.00977,-0.04715,-0.02472,-0.06943,-0.06363,-0.06973,0.07126,0.04044,-0.01114,-0.0325,-0.01831,0.009,-0.04471
6.9975,0.00031,-0.03784,-0.03662,-0.00946,-0.04837,-0.02304,-0.08133,-0.09003,-0.05585,0.06073,0.03387,-0.0087,-0.03235,-0.01907,0.00671,-0.03693
6.998,-0.00565,-0.03555,-0.03754,-0.00778,-0.04578,-0.02014,-0.06775,-0.05569,-0.0238,0.06012,0.06149,-0.00992,-0.02853,-0.02075,0.00565,-0.03372
6.9985,-0.01251,-0.03342,-0.03906,-0.00778,-0.04303,-0.01877,-0.03418,0.01923,0.00381,0.06348,0.11246,-0.0119,-0.02533,-0.02472,0.00519,-0.03952
6.999,-0.01648,-0.03204,-0.03967,-0.01205,-0.04669,-0.01785,0.00305,0.08896,0.01297,0.05402,0.1387,-0.01114,-0.02609,-0.02792,0.00702,-0.0499
6.9995,-0.0177,-0.02914,-0.03799,-0.01694,-0.05417,-0.01785,0.02701,0.13382,0.00366,0.02975,0.10803,-0.00732,-0.02563,-0.02701,0.00717,-0.05264
7.0,-0.01831,-0.02426,-0.03433,-0.0174,-0.05905,-0.01892,0.02899,0.15182,-0.01892,-0.00198,0.05112,-0.00015,-0.02457,-0.02182,0.00824,-0.04028
7.0005,-0.02029,-0.01999,-0.03052,-0.01312,-0.05386,-0.01953,0.01465,0.13992,-0.0531,-0.02808,0.03021,0.00839,-0.02289,-0.01678,0.00885,-0.01831
7.001,-0.0209,-0.01831,-0.03052,-0.0061,-0.03906,-0.01938,-0.00198,0.10086,-0.09552,-0.04715,0.05371,0.01465,-0.02213,-0.01511,0.01144,-0.00732
7.0015,-0.01968,-0.01892,-0.0325,0.00259,-0.02228,-0.01724,-0.0174,0.05737,-0.13428,-0.06256,0.07645,0.01541,-0.02228,-0.01572,0.0119,-0.01175
7.002,-0.01846,-0.02029,-0.03403,0.01144,-0.01205,-0.01709,-0.03845,0.03311,-0.14923,-0.07996,0.06607,0.00778,-0.02274,-0.0148,0.01022,-0.02335
7.0025,-0.01968,-0.0235,-0.03464,0.01358,-0.01038,-0.01862,-0.06027,0.02762,-0.13519,-0.09277,0.03479,-0.00168,-0.02197,-0.01099,0.00977,-0.0325
7.003,-0.02045,-0.02975,-0.03357,0.00381,-0.01419,-0.0209,-0.07126,0.02701,-0.10544,-0.10345,0.01419,-0.00671,-0.01999,-0.00916,0.009,-0.03601
7.0035,-0.01953,-0.03784,-0.03128,-0.01251,-0.01724,-0.0238,-0.07568,0.02014,-0.08041,-0.1207,0.01663,-0.00519,-0.02396,-0.01068,0.00854,-0.03418
7.004,-0.01389,-0.04379,-0.02991,-0.02518,-0.02029,-0.02533,-0.08972,0.01007,-0.06897,-0.1355,0.03983,-0.00092,-0.02884,-0.01389,0.009,-0.02945
7.0045,-0.00702,-0.04776,-0.03036,-0.02792,-0.0235,-0.02441,-0.11536,0.00519,-0.06622,-0.14725,0.07858,-0.00015,-0.03464,-0.01572,0.01038,-0.02899
7.005,-0.00275,-0.04868,-0.03342,-0.0264,-0.02808,-0.02518,-0.13321,0.00458,-0.06592,-0.1651,0.10651,-0.00412,-0.03647,-0.01556,0.00946,-0.03433
7.0055,-0.00488,-0.04791,-0.03708,-0.02319,-0.03342,-0.02792,-0.13245,0.00504,-0.06561,-0.18021,0.08575,-0.01007,-0.03693,-0.01465,0.00793,-0.04105
7.006,-0.00763,-0.04562,-0.03799,-0.02197,-0.03723,-0.03143,-0.12054,0.00381,-0.06744,-0.17441,0.01633,-0.01556,-0.03723,-0.01434,0.00519,-0.04562
7.0065,-0.00595,-0.04257,-0.0351,-0.02029,-0.03799,-0.03281,-0.10483,0.00046,-0.06866,-0.13382,-0.04318,-0.01633,-0.04059,-0.01617,0.00305,-0.04837
7.007,-0.00031,-0.04242,-0.03403,-0.01862,-0.0351,-0.03418,-0.07797,-0.0032,-0.06958,-0.0914,-0.05585,-0.01266,-0.0415,-0.02136,0.00214,-0.04929
7.0075,0.0032,-0.04272,-0.0351,-0.01953,-0.03159,-0.0383,-0.0322,-0.00458,-0.07401,-0.04211,-0.04562,-0.009,-0.03891,-0.02594,0.00198,-0.04883
7.008,0.00336,-0.04303,-0.03662,-0.02045,-0.02823,-0.04578,0.01129,-0.00351,-0.07507,-0.02213,-0.05417,-0.00824,-0.03677,-0.02823,0.00229,-0.04868
7.0085,0.00168,-0.0415,-0.03784,-0.01923,-0.02472,-0.05341,0.02441,-0.00244,-0.04898,-0.02274,-0.08377,-0.00824,-0.03555,-0.02716,0.0029,-0.04837
7.009,0.0,-0.04059,-0.03876,-0.01648,-0.01877,-0.05783,0.01251,-0.00381,0.0148,-0.05478,-0.10834,-0.00702,-0.03708,-0.02396,0.00534,-0.04745
7.0095,-0.00061,-0.04395,-0.03952,-0.0145,-0.01221,-0.05753,0.02304,-0.00656,0.08865,-0.09705,-0.11337,-0.00641,-0.0386,-0.01938,0.00839,-0.04471
7.01,0.00046,-0.04898,-0.03815,-0.01343,-0.00534,-0.05753,0.06699,-0.00671,0.13489,-0.10345,-0.10773,-0.00885,-0.0386,-0.01678,0.01099,-0.04318
7.0105,0.00198,-0.05157,-0.03738,-0.01251,-0.00092,-0.06058,0.09552,-0.00519,0.14709,-0.07172,-0.10498,-0.0145,-0.03708,-0.01892,0.0119,-0.04379
7.011,0.00259,-0.04944,-0.03586,-0.00748,0.00259,-0.06393,0.07339,-0.00519,0.14816,-0.01633,-0.11597,-0.0177,-0.03754,-0.02121,0.01114,-0.04684
7.0115,0.00107,-0.04562,-0.0354,-0.00061,0.00443,-0.06561,0.03296,-0.00717,0.15305,0.00961,-0.13779,-0.01587,-0.03906,-0.01953,0.01022,-0.05157
7.012,-0.00229,-0.04227,-0.03311,0.00458,0.00351,-0.06561,0.01755,-0.00595,0.1532,0.00183,-0.16418,-0.00671,-0.03998,-0.01709,0.01175,-0.05264
7.0125,-0.00702,-0.03998,-0.02975,0.0061,0.00031,-0.06668,0.01556,-0.00061,0.13565,0.00458,-0.18677,0.00671,-0.04196,-0.01724,0.01221,-0.04944
7.013,-0.01266,-0.03754,-0.02945,0.00748,0.00137,-0.06927,0.00046,0.0032,0.09537,0.04761,-0.19745,0.02151,-0.04456,-0.02029,0.01144,-0.04578
7.0135,-0.01999,-0.03708,-0.03235,0.0087,0.00763,-0.07004,-0.01495,-0.00107,0.04257,0.10483,-0.186,0.0293,-0.0473,-0.0235,0.00961,-0.04608
7.014,-0.0264,-0.03906,-0.03433,0.00931,0.01328,-0.06943,-0.00778,-0.00931,-0.00031,0.13199,-0.15182,0.02487,-0.0473,-0.02625,0.00839,-0.05081
7.0145,-0.02731,-0.0412,-0.03372,0.00778,0.01389,-0.06775,0.01419,-0.01358,-0.01511,0.121,-0.11429,0.01129,-0.04745,-0.02869,0.009,-0.0563
7.015,-0.02319,-0.04166,-0.03555,0.00443,0.0119,-0.06516,0.02335,-0.01144,-0.0058,0.1062,-0.0972,0.00153,-0.04684,-0.03036,0.00916,-0.0621
7.0155,-0.01663,-0.03922,-0.0415,0.00198,0.00916,-0.0621,0.00809,-0.00839,0.01404,0.10742,-0.10437,0.00275,-0.04807,-0.0296,0.01068,-0.06744
7.016,-0.01144,-0.03616,-0.05295,0.00183,0.00595,-0.05905,-0.0209,-0.00778,0.03265,0.10696,-0.10361,0.00763,-0.047,-0.02609,0.01373,-0.06943
7.0165,-0.00793,-0.03586,-0.06638,0.00153,0.00076,-0.05905,-0.04074,-0.01007,0.04776,0.09094,-0.05768,0.00549,-0.04471,-0.02289,0.01801,-0.0679
7.017,-0.00458,-0.03754,-0.07446,-0.00153,-0.01007,-0.06134,-0.0293,-0.01221,0.05249,0.06516,0.03098,-0.00061,-0.04242,-0.01984,0.02167,-0.06516
7.0175,-0.00153,-0.03784,-0.07278,-0.00839,-0.02258,-0.06119,0.00092,-0.0145,0.04333,0.04486,0.11749,-0.00443,-0.04074,-0.01755,0.02167,-0.06332
7.018,0.00122,-0.03265,-0.06912,-0.01785,-0.03281,-0.05707,0.01358,-0.01419,0.02563,0.03311,0.14572,-0.00549,-0.0412,-0.01709,0.02182,-0.06165
7.0185,0.00397,-0.02365,-0.06256,-0.02289,-0.04593,-0.05386,-0.00458,-0.01221,0.01129,0.02197,0.09583,-0.01221,-0.04089,-0.01862,0.02228,-0.05859
7.019,0.00595,-0.01465,-0.05524,-0.02029,-0.07202,-0.05508,-0.02487,-0.00977,-0.00107,0.00671,0.00412,-0.02899,-0.03754,-0.01862,0.0238,-0.05402
7.0195,0.0061,-0.01099,-0.0444,-0.0119,-0.09933,-0.05783,-0.0235,-0.009,-0.01587,-0.00885,-0.0589,-0.03998,-0.03586,-0.01404,0.02411,-0.04929
7.02,0.00443,-0.01358,-0.03281,-0.00626,-0.10574,-0.05875,-0.01358,-0.01007,-0.04105,-0.01343,-0.04456,-0.0351,-0.03265,-0.00778,0.02487,-0.04532
7.0205,0.00229,-0.02014,-0.02411,-0.01205,-0.0885,-0.05783,-0.01419,-0.01175,-0.09308,-0.00641,0.02365,-0.02121,-0.03235,-0.00427,0.02228,-0.04105
7.021,0.00229,-0.02853,-0.02182,-0.02869,-0.06943,-0.05585,-0.02106,-0.01404,-0.17685,0.00549,0.0769,-0.01022,-0.03143,-0.00504,0.01511,-0.02609
7.0215,0.0029,-0.03525,-0.02518,-0.04837,-0.06393,-0.05478,-0.02518,-0.01541,-0.25421,0.02228,0.08026,-0.00504,-0.02914,-0.00534,0.00275,0.00748
7.022,0.00336,-0.04044,-0.03418,-0.06363,-0.06622,-0.05692,-0.03128,-0.01663,-0.27374,0.04562,0.05859,-0.00153,-0.02716,-0.00397,-0.01022,0.04303
7.0225,0.00183,-0.04532,-0.04791,-0.06653,-0.06317,-0.05829,-0.04669,-0.01953,-0.23788,0.07141,0.0621,0.00092,-0.02563,-0.00198,-0.01663,0.05081
7.023,-0.00168,-0.04929,-0.06378,-0.04929,-0.05386,-0.05692,-0.065,-0.02396,-0.18646,0.08072,0.08438,0.00076,-0.02396,-0.00198,-0.01999,0.02411
7.0235,-0.00366,-0.05112,-0.08148,-0.00961,-0.04211,-0.0528,-0.07309,-0.02777,-0.12665,0.05661,0.09232,-0.00061,-0.02197,-0.00305,-0.01999,-0.01465
7.024,-0.00244,-0.05203,-0.09872,0.03983,-0.03372,-0.04898,-0.06958,-0.0293,-0.0473,0.01251,0.08209,-0.00244,-0.01999,-0.00259,-0.02029,-0.04135
7.0245,0.00351,-0.05173,-0.1062,0.06897,-0.03067,-0.04837,-0.06546,-0.02747,0.02655,-0.02335,0.08148,-0.00107,-0.01877,-0.00519,-0.01587,-0.05096
7.025,0.00839,-0.05203,-0.0972,0.05325,-0.02975,-0.04944,-0.06653,-0.02518,0.05707,-0.0386,0.09598,0.00336,-0.01892,-0.0119,-0.00946,-0.05127
7.0255,0.00977,-0.05264,-0.06989,-0.00702,-0.02777,-0.05081,-0.06668,-0.02258,0.04715,-0.04028,0.10056,0.01419,-0.01862,-0.01892,-0.00305,-0.0502
7.026,0.00626,-0.05325,-0.02869,-0.08331,-0.02579,-0.05203,-0.06073,-0.02167,0.03357,-0.04715,0.07843,0.03006,-0.01938,-0.02289,0.00076,-0.04761
7.0265,0.00443,-0.05356,0.01831,-0.13947,-0.02396,-0.05249,-0.04745,-0.02121,0.03098,-0.05203,0.03876,0.04822,-0.02167,-0.02335,0.00153,-0.04364
7.027,0.0029,-0.05112,0.06165,-0.16205,-0.02365,-0.05264,-0.02335,-0.02075,0.02579,-0.05966,0.00565,0.06226,-0.02258,-0.02289,0.00229,-0.03952
7.0275,0.00168,-0.04517,0.09201,-0.16129,-0.02579,-0.05127,0.01129,-0.01907,0.00809,-0.05661,-0.00778,0.06363,-0.0238,-0.02319,0.00412,-0.03784
7.028,0.00076,-0.03784,0.10239,-0.14297,-0.03159,-0.05051,0.04547,-0.01694,-0.00656,-0.04929,-0.00366,0.04257,-0.02396,-0.02304,0.00626,-0.03876
7.0285,0.00046,-0.03113,0.09491,-0.09964,-0.04196,-0.05219,0.06241,-0.01602,-0.0029,-0.04227,0.01068,-0.0061,-0.02228,-0.02289,0.00717,-0.0383
7.029,0.00076,-0.02914,0.0737,-0.03418,-0.05569,-0.05478,0.05661,-0.01663,0.01343,-0.03693,0.02731,-0.06973,-0.02121,-0.02136,0.009,-0.03998
7.0295,0.0,-0.03021,0.04807,0.03723,-0.0679,-0.05722,0.04105,-0.01755,0.03372,-0.04837,0.04227,-0.11475,-0.01984,-0.02014,0.01358,-0.04364
7.03,-0.00015,-0.03265,0.02304,0.09048,-0.06927,-0.05981,0.02472,-0.0174,0.05066,-0.07324,0.05997,-0.11734,-0.01999,-0.01907,0.01846,-0.0473
7.0305,-0.00137,-0.03693,0.00046,0.10422,-0.05661,-0.06454,0.00824,-0.01678,0.05264,-0.09705,0.08209,-0.09552,-0.02121,-0.0177,0.01907,-0.04822
7.031,-0.0032,-0.04288,-0.01678,0.07141,-0.03922,-0.06943,-0.00519,-0.01389,0.03525,-0.11063,0.09933,-0.0737,-0.02197,-0.01877,0.01923,-0.04623
7.0315,-0.00671,-0.05157,-0.03052,0.01663,-0.02869,-0.07034,-0.0116,-0.01007,0.00916,-0.11215,0.09811,-0.04349,-0.02258,-0.01923,0.01846,-0.04318
7.032,-0.01144,-0.06119,-0.04074,-0.01785,-0.0238,-0.06683,-0.0206,-0.00763,-0.00702,-0.10361,0.07492,0.02548,-0.02243,-0.0209,0.01678,-0.04028
7.0325,-0.01419,-0.07187,-0.04913,-0.0119,-0.01877,-0.06195,-0.0473,-0.00854,-0.00717,-0.09232,0.04807,0.11475,-0.02258,-0.02579,0.0148,-0.03967
7.033,-0.01358,-0.07736,-0.05402,0.01663,-0.01099,-0.05814,-0.08148,-0.01144,-0.00824,-0.08087,0.03906,0.15671,-0.02502,-0.03159,0.01343,-0.04303
7.0335,-0.01205,-0.07568,-0.05768,0.04044,-0.00473,-0.05646,-0.09384,-0.01236,-0.02884,-0.06668,0.04242,0.12329,-0.02884,-0.03448,0.01389,-0.047
7.034,-0.01144,-0.06866,-0.05936,0.05554,-0.00137,-0.05615,-0.07568,-0.0116,-0.05905,-0.04608,0.01831,0.05997,-0.03448,-0.03311,0.01389,-0.04837
7.0345,-0.00626,-0.06317,-0.0618,0.07645,0.00076,-0.05493,-0.05463,-0.01099,-0.07233,-0.02258,-0.0444,0.02716,-0.03754,-0.02777,0.01297,-0.04562
7.035,0.00214,-0.06119,-0.06302,0.10269,0.00519,-0.05203,-0.05493,-0.0119,-0.06226,-0.00336,-0.10956,0.03204,-0.03784,-0.02167,0.01053,-0.04181
7.0355,0.00992,-0.06088,-0.06165,0.11185,0.00946,-0.04959,-0.0705,-0.0119,-0.05661,0.009,-0.14282,0.04227,-0.03906,-0.01923,0.00854,-0.04074
7.036,0.0116,-0.06271,-0.05554,0.09232,0.00687,-0.04761,-0.08224,-0.01617,-0.08636,0.01526,-0.14786,0.03342,-0.03754,-0.02182,0.00732,-0.04181
7.0365,0.00961,-0.06622,-0.04776,0.06363,-0.01053,-0.04684,-0.0856,-0.02701,-0.14191,0.01892,-0.13199,0.00366,-0.03769,-0.02396,0.00748,-0.04395
7.037,0.00626,-0.06943,-0.04242,0.05051,-0.04211,-0.04837,-0.07523,-0.04303,-0.18692,0.0206,-0.09232,-0.03098,-0.03738,-0.0235,0.01068,-0.04501
7.0375,0.00351,-0.06775,-0.04364,0.05386,-0.08057,-0.05081,-0.03876,-0.05508,-0.20569,0.01877,-0.03662,-0.05615,-0.03693,-0.02228,0.01541,-0.04349
7.038,-0.00214,-0.06165,-0.04684,0.05661,-0.10483,-0.05493,0.01556,-0.05478,-0.20126,0.02441,0.00519,-0.06439,-0.03571,-0.02228,0.0174,-0.04181
7.0385,-0.00946,-0.05386,-0.04944,0.05203,-0.10223,-0.05768,0.04837,-0.04623,-0.16846,0.04059,0.01236,-0.06073,-0.03708,-0.0235,0.01541,-0.04272
7.039,-0.01724,-0.04486,-0.0499,0.04776,-0.07538,-0.05905,0.02686,-0.03799,-0.11948,0.06134,-0.00916,-0.04715,-0.03571,-0.02335,0.01221,-0.04532
7.0395,-0.02136,-0.03387,-0.047,0.04654,-0.04532,-0.05875,-0.03204,-0.0293,-0.09995,0.06805,-0.03494,-0.01953,-0.03632,-0.02106,0.01114,-0.04562
7.04,-0.02136,-0.02151,-0.04242,0.04181,-0.02472,-0.0592,-0.0795,-0.01068,-0.11642,0.04776,-0.04745,0.02258,-0.03632,-0.01953,0.01236,-0.04364
7.0405,-0.01831,-0.01053,-0.04013,0.02731,-0.01633,-0.06012,-0.08057,0.02228,-0.10696,-0.00381,-0.04257,0.06714,-0.03403,-0.02045,0.01144,-0.04471
7.041,-0.01511,-0.0032,-0.04105,0.00504,-0.01358,-0.0621,-0.04196,0.05371,-0.02335,-0.07935,-0.03464,0.09415,-0.03632,-0.02304,0.00763,-0.04776
7.0415,-0.01007,0.0,-0.04333,-0.0148,-0.01144,-0.06531,-0.00366,0.06607,0.1033,-0.14221,-0.04501,0.09201,-0.03571,-0.02808,0.00595,-0.05096
7.042,-0.00732,-0.00061,-0.04639,-0.02731,-0.00992,-0.06577,-0.00458,0.05661,0.22171,-0.1593,-0.07767,0.06851,-0.0383,-0.03448,0.00763,-0.04929
7.0425,-0.00717,-0.00427,-0.04807,-0.03571,-0.01038,-0.06256,-0.04333,0.03998,0.31036,-0.13672,-0.12451,0.03845,-0.04074,-0.04166,0.009,-0.04623
7.043,-0.00961,-0.00977,-0.04745,-0.04395,-0.01343,-0.05676,-0.08789,0.02747,0.35934,-0.1178,-0.19699,0.01572,-0.04288,-0.04456,0.01068,-0.04517
7.0435,-0.01266,-0.01221,-0.04486,-0.05478,-0.01709,-0.05325,-0.10941,0.02197,0.36041,-0.13779,-0.30014,0.0119,-0.04181,-0.04242,0.00977,-0.04715
7.044,-0.01251,-0.01099,-0.04059,-0.06683,-0.0235,-0.05432,-0.09369,0.02228,0.3212,-0.18616,-0.36774,0.03021,-0.03998,-0.0386,0.009,-0.04959
7.0445,-0.00839,-0.00977,-0.03677,-0.08041,-0.02884,-0.05692,-0.03418,0.02655,0.26978,-0.22858,-0.30106,0.06454,-0.03922,-0.03418,0.00824,-0.05051
7.045,-0.00305,-0.01266,-0.03357,-0.09308,-0.02899,-0.05646,0.06134,0.03159,0.22003,-0.22827,-0.10025,0.10513,-0.03906,-0.02914,0.00854,-0.05249
7.0455,0.0,-0.01755,-0.03387,-0.09949,-0.02625,-0.05402,0.14526,0.03265,0.16785,-0.17792,0.10941,0.14618,-0.03845,-0.02228,0.00793,-0.05707
7.046,0.00107,-0.0235,-0.03723,-0.09857,-0.02838,-0.05264,0.16327,0.02945,0.11002,-0.11719,0.21622,0.18524,-0.03708,-0.01709,0.00519,-0.06149
7.0465,0.00092,-0.02853,-0.03906,-0.09521,-0.04272,-0.05432,0.12192,0.0264,0.05676,-0.08698,0.22827,0.21545,-0.03571,-0.01495,0.00275,-0.065
7.047,0.00031,-0.03296,-0.03754,-0.08926,-0.06378,-0.05798,0.0824,0.02899,0.01785,-0.08484,0.21576,0.20996,-0.03418,-0.01312,0.00031,-0.06668
7.0475,0.00015,-0.0386,-0.03357,-0.07874,-0.07813,-0.06058,0.08087,0.03616,-0.00748,-0.06714,0.20691,0.12619,-0.03128,-0.00793,0.00092,-0.06638
7.048,-0.00107,-0.04318,-0.03113,-0.0647,-0.07706,-0.06256,0.09201,0.03952,-0.02762,-0.0058,0.17975,-0.04364,-0.02823,-0.00153,0.00534,-0.0647
7.0485,-0.00412,-0.04837,-0.03021,-0.05249,-0.06729,-0.06607,0.08041,0.03281,-0.04684,0.07141,0.12482,-0.24796,-0.02609,0.00198,0.00977,-0.06088
7.049,-0.0087,-0.05524,-0.03189,-0.04501,-0.05508,-0.07187,0.047,0.01724,-0.06989,0.12161,0.06073,-0.40588,-0.02548,0.00168,0.01236,-0.05798
7.0495,-0.01404,-0.06149,-0.03525,-0.03891,-0.04639,-0.07629,0.02075,0.00244,-0.09903,0.14053,0.01205,-0.45197,-0.02579,-0.00061,0.01419,-0.05508
7.05,-0.01816,-0.06287,-0.03983,-0.02884,-0.04028,-0.07523,0.01633,-0.00244,-0.1297,0.14114,-0.01572,-0.37323,-0.02472,-0.00015,0.01419,-0.04959
7.0505,-0.01846,-0.05875,-0.04639,-0.01572,-0.03479,-0.07233,0.02304,-0.00198,-0.14755,0.12878,-0.02655,-0.23422,-0.0235,0.00214,0.01099,-0.03799
7.051,-0.01755,-0.05234,-0.04898,-0.00198,-0.03174,-0.07111,0.02991,-0.00336,-0.14389,0.103,-0.01785,-0.1152,-0.02304,0.00381,0.00641,-0.02579
7.0515,-0.01816,-0.04715,-0.04929,0.00763,-0.02991,-0.07309,0.02457,-0.00687,-0.12756,0.06958,0.00549,-0.03754,-0.02502,0.00153,0.00214,-0.01572
7.052,-0.02121,-0.04486,-0.04807,0.01205,-0.02899,-0.07492,-0.00229,-0.00473,-0.11459,0.04913,0.00626,0.01053,-0.02686,-0.00519,0.00137,-0.00748
7.0525,-0.02365,-0.04211,-0.04562,0.01007,-0.02716,-0.07446,-0.0386,0.01236,-0.10956,0.05417,-0.04486,0.02625,-0.02731,-0.01419,-0.00015,-0.00305
7.053,-0.02258,-0.0383,-0.0412,0.00504,-0.02609,-0.07202,-0.05096,0.03418,-0.10468,0.07599,-0.11444,0.0145,-0.02716,-0.02106,-0.00076,-0.00809
7.0535,-0.02045,-0.03616,-0.0351,-0.00092,-0.02518,-0.06836,-0.03143,0.03769,-0.09109,0.09415,-0.13794,0.00793,-0.02823,-0.0209,0.0,-0.02335
7.054,-0.01877,-0.03601,-0.02747,-0.00702,-0.0238,-0.06454,-0.01144,0.01587,-0.07233,0.0943,-0.1004,0.0264,-0.03098,-0.01587,0.00153,-0.03876
7.0545,-0.01526,-0.03708,-0.02136,-0.01389,-0.02396,-0.06027,-0.01633,-0.01068,-0.05447,0.08377,-0.04059,0.04547,-0.03433,-0.01099,0.00198,-0.04486
7.055,-0.00809,-0.03906,-0.01892,-0.02121,-0.02396,-0.05615,-0.02777,-0.0209,-0.04059,0.06287,-0.00351,0.03189,-0.03555,-0.01053,0.00214,-0.04166
7.0555,0.00153,-0.04257,-0.01831,-0.02701,-0.02563,-0.05447,-0.01587,-0.01328,-0.02853,0.0267,-0.00015,-0.00626,-0.03616,-0.01266,0.00351,-0.03754
7.056,0.01007,-0.04898,-0.02014,-0.03281,-0.02747,-0.05417,0.0119,-0.00259,-0.0174,-0.02213,-0.01831,-0.03311,-0.03754,-0.01389,0.00519,-0.0386
7.0565,0.01602,-0.05524,-0.02274,-0.03891,-0.02686,-0.05234,0.02945,0.00275,-0.01099,-0.05875,-0.04135,-0.03967,-0.03983,-0.01358,0.00519,-0.04272
7.057,0.02106,-0.0592,-0.02838,-0.04791,-0.0267,-0.04929,0.03265,0.00366,-0.00763,-0.05981,-0.06638,-0.05463,-0.04074,-0.01556,0.00198,-0.04593
7.0575,0.02335,-0.05966,-0.03418,-0.05646,-0.02792,-0.04715,0.02762,0.00519,-0.00076,-0.04486,-0.10178,-0.09216,-0.03922,-0.01785,-0.00015,-0.0473
7.058,0.01968,-0.05768,-0.03983,-0.05859,-0.03067,-0.04593,0.01663,0.00397,0.00519,-0.03983,-0.14832,-0.12939,-0.03876,-0.01923,0.00153,-0.04761
7.0585,0.01083,-0.05463,-0.04425,-0.05325,-0.03082,-0.0444,0.0061,0.00137,-0.00153,-0.04257,-0.18204,-0.13702,-0.0386,-0.01724,0.00443,-0.04623
7.059,0.00076,-0.05219,-0.04852,-0.04456,-0.0296,-0.04318,0.01282,-0.00015,-0.02625,-0.02716,-0.1799,-0.11703,-0.03815,-0.01373,0.00763,-0.04517
7.0595,-0.00244,-0.05035,-0.05234,-0.03754,-0.02899,-0.04242,0.02853,0.0,-0.05417,0.00534,-0.1387,-0.08987,-0.03693,-0.0116,0.00717,-0.04425
7.06,0.00107,-0.04761,-0.05463,-0.0351,-0.02869,-0.04059,0.02182,-0.00137,-0.07278,0.03601,-0.08255,-0.06317,-0.03723,-0.0148,0.00427,-0.04501
7.0605,0.00732,-0.04379,-0.05188,-0.03555,-0.02823,-0.03632,-0.01984,-0.0061,-0.08942,0.05203,-0.03098,-0.02914,-0.03784,-0.02045,0.00076,-0.0473
7.061,0.00854,-0.04044,-0.04471,-0.03891,-0.02838,-0.03311,-0.06622,-0.01205,-0.11719,0.06302,0.01541,0.03021,-0.03708,-0.02472,-0.00137,-0.04852
7.0615,0.00488,-0.03967,-0.03586,-0.04211,-0.03036,-0.03189,-0.08636,-0.01526,-0.13519,0.08408,0.05341,0.12787,-0.03464,-0.0264,-0.00046,-0.04776
7.062,0.00122,-0.04105,-0.02609,-0.04379,-0.03021,-0.03326,-0.08743,-0.01648,-0.11108,0.10529,0.06485,0.23804,-0.03311,-0.02686,0.00092,-0.04578
7.0625,0.00153,-0.04318,-0.01892,-0.0415,-0.02899,-0.03632,-0.09384,-0.01648,-0.05325,0.10956,0.03937,0.2887,-0.03479,-0.02533,0.00168,-0.04791
7.063,0.00458,-0.04471,-0.01541,-0.03571,-0.0264,-0.04013,-0.10269,-0.01694,-0.00427,0.08102,-0.00351,0.23392,-0.03815,-0.02335,0.00214,-0.05386
7.0635,0.0061,-0.047,-0.01389,-0.02655,-0.02487,-0.04242,-0.0914,-0.01801,0.0119,0.01892,-0.0293,0.10147,-0.03998,-0.02258,0.00336,-0.05417
7.064,0.0061,-0.04868,-0.01343,-0.01846,-0.02411,-0.04654,-0.05661,-0.01816,0.00824,-0.05859,-0.02792,-0.02838,-0.03952,-0.02075,0.0061,-0.04074
7.0645,0.00412,-0.04974,-0.01297,-0.01556,-0.02426,-0.0528,-0.01282,-0.01617,0.0,-0.12543,-0.01373,-0.09384,-0.0386,-0.01694,0.00763,-0.02136
7.065,0.00076,-0.04913,-0.01617,-0.01892,-0.02594,-0.06058,0.02396,-0.01556,-0.01297,-0.16937,-0.00336,-0.07431,-0.03815,-0.01251,0.00641,-0.01328
7.0655,-0.00229,-0.04745,-0.02167,-0.02151,-0.02625,-0.06638,0.0383,-0.01587,-0.03952,-0.19562,-0.0029,-0.00229,-0.0386,-0.01053,0.00412,-0.02121
7.066,-0.00351,-0.04715,-0.02838,-0.02014,-0.02609,-0.07004,0.0145,-0.01862,-0.07736,-0.20767,-0.00717,0.07248,-0.03922,-0.01221,0.00443,-0.03387
7.0665,-0.0032,-0.04715,-0.03357,-0.01511,-0.02472,-0.07462,-0.04456,-0.02502,-0.10986,-0.1889,-0.01236,0.1207,-0.03876,-0.01526,0.00671,-0.04135
7.067,-0.00443,-0.04776,-0.03754,-0.01053,-0.02579,-0.08133,-0.09216,-0.03357,-0.11871,-0.14084,-0.01678,0.14465,-0.03708,-0.01663,0.00763,-0.04257
7.0675,-0.00687,-0.04745,-0.03555,-0.0087,-0.02884,-0.08987,-0.09293,-0.03799,-0.09918,-0.08179,-0.02151,0.15152,-0.03555,-0.01907,0.00504,-0.04318
7.068,-0.00778,-0.04654,-0.0351,-0.00793,-0.03082,-0.09949,-0.07156,-0.03555,-0.06439,-0.03479,-0.02792,0.13657,-0.03296,-0.02151,0.00366,-0.04639
7.0685,-0.00626,-0.04364,-0.03647,-0.00397,-0.0322,-0.10849,-0.0679,-0.0293,-0.03067,-0.00824,-0.03799,0.10208,-0.03113,-0.02075,0.00488,-0.04959
7.069,-0.0029,-0.04059,-0.0383,0.00076,-0.03342,-0.11688,-0.06531,-0.02518,-0.00443,0.01511,-0.05478,0.06393,-0.03036,-0.02029,0.00793,-0.0502
7.0695,0.00214,-0.03616,-0.03952,0.00412,-0.03372,-0.12177,-0.02563,-0.02457,0.01633,0.04379,-0.06775,0.04059,-0.03159,-0.02014,0.01007,-0.04761
7.07,0.00687,-0.02975,-0.03845,0.0029,-0.03159,-0.1236,0.02777,-0.02563,0.03281,0.07294,-0.06409,0.02975,-0.03311,-0.02258,0.00977,-0.04471
7.0705,0.01053,-0.02289,-0.03754,-0.00061,-0.02975,-0.12619,0.0354,-0.02441,0.04135,0.0853,-0.04227,0.00381,-0.03281,-0.02625,0.009,-0.04196
7.071,0.01099,-0.01617,-0.0351,-0.00458,-0.02731,-0.13138,-0.01007,-0.02533,0.04272,0.07446,-0.01328,-0.04868,-0.0296,-0.02792,0.01099,-0.04227
7.0715,0.00854,-0.01129,-0.03387,-0.00778,-0.0264,-0.13702,-0.05219,-0.0267,0.04654,0.03693,0.00717,-0.10956,-0.02472,-0.0267,0.01358,-0.04349
7.072,0.00763,-0.00992,-0.03296,-0.00717,-0.02731,-0.14053,-0.04974,-0.02029,0.06775,-0.00885,0.00931,-0.1384,-0.02167,-0.02335,0.01312,-0.04547
7.0725,0.01068,-0.01221,-0.0322,-0.00061,-0.0293,-0.14465,-0.03174,-0.00366,0.10345,-0.03891,-0.00748,-0.12573,-0.0209,-0.0206,0.01205,-0.04669
7.073,0.01495,-0.01831,-0.0322,0.00854,-0.03021,-0.15076,-0.03876,0.01099,0.13702,-0.04181,-0.03189,-0.09506,-0.02151,-0.01816,0.0116,-0.04684
7.0735,0.01526,-0.02548,-0.03082,0.01175,-0.02914,-0.15366,-0.0592,0.0119,0.15442,-0.02686,-0.04883,-0.0705,-0.02258,-0.01755,0.01221,-0.04684
7.074,0.00748,-0.03265,-0.03189,0.0058,-0.02731,-0.15427,-0.05676,0.00122,0.15411,-0.0116,-0.04684,-0.04761,-0.02441,-0.01678,0.01129,-0.047
7.0745,-0.00381,-0.03769,-0.03357,-0.0032,-0.0264,-0.15213,-0.02548,-0.00793,0.14114,-0.00397,-0.02106,-0.00961,-0.02625,-0.01602,0.01007,-0.04761
7.075,-0.01373,-0.04074,-0.03586,-0.00763,-0.02609,-0.15198,0.01068,-0.00687,0.11627,0.0032,0.02045,0.03601,-0.02762,-0.01572,0.00839,-0.04745
7.0755,-0.02167,-0.04303,-0.03723,-0.00839,-0.02701,-0.15305,0.04395,-0.00031,0.0824,0.00931,0.06409,0.05676,-0.02853,-0.01526,0.01007,-0.04684
7.076,-0.03052,-0.04471,-0.03601,-0.01129,-0.02625,-0.15533,0.08438,0.00443,0.04272,0.00839,0.09766,0.03723,-0.02853,-0.01678,0.01297,-0.04608
7.0765,-0.0412,-0.04669,-0.03296,-0.01602,-0.02472,-0.15457,0.12878,0.00732,0.00137,0.0032,0.11353,-0.00214,-0.02884,-0.01984,0.01251,-0.04776
7.077,-0.05219,-0.047,-0.02945,-0.01755,-0.02487,-0.15152,0.15472,0.00931,-0.04044,-0.00046,0.10498,-0.03235,-0.0296,-0.02289,0.01038,-0.04974
7.0775,-0.0589,-0.04654,-0.02655,-0.01419,-0.02701,-0.14816,0.13412,0.01083,-0.0798,-0.00076,0.07492,-0.04166,-0.03113,-0.02548,0.00839,-0.04898
7.078,-0.05966,-0.04684,-0.02563,-0.00671,-0.02975,-0.14679,0.05936,0.01434,-0.1088,-0.00092,0.04181,-0.0322,-0.03159,-0.02548,0.00977,-0.04608
7.0785,-0.05371,-0.04639,-0.02609,0.00137,-0.03098,-0.14572,-0.04318,0.01678,-0.12573,-0.00565,0.01801,-0.00534,-0.02991,-0.02396,0.01144,-0.0444
7.079,-0.04456,-0.04395,-0.02792,0.00687,-0.03082,-0.14435,-0.13046,0.01831,-0.13702,-0.01785,-0.00641,0.03052,-0.02838,-0.02319,0.01312,-0.04471
7.0795,-0.03494,-0.04059,-0.02991,0.00809,-0.03067,-0.14221,-0.17288,0.01755,-0.15915,-0.03632,-0.05219,0.05859,-0.0296,-0.02487,0.01434,-0.04517
7.08,-0.02792,-0.03998,-0.03281,0.00946,-0.03159,-0.13443,-0.17517,0.01678,-0.21179,-0.05646,-0.11475,0.05707,-0.03128,-0.02869,0.01419,-0.04333
7.0805,-0.02258,-0.04211,-0.03616,0.0148,-0.03403,-0.10803,-0.1561,0.01953,-0.28381,-0.07401,-0.15259,0.03357,-0.03128,-0.03204,0.00931,-0.04272
7.081,-0.01953,-0.04486,-0.03738,0.02197,-0.03616,-0.06149,-0.12497,0.02197,-0.32822,-0.08179,-0.12451,0.01923,-0.03036,-0.03235,0.00549,-0.04242
7.0815,-0.01846,-0.04654,-0.03738,0.02655,-0.03479,-0.02701,-0.07935,0.02258,-0.30136,-0.08942,-0.04227,0.03235,-0.02731,-0.0296,0.00443,-0.04333
7.082,-0.01907,-0.04776,-0.03601,0.02731,-0.0322,-0.03906,-0.02029,0.02029,-0.2066,-0.09918,0.03754,0.05783,-0.02457,-0.02548,0.00504,-0.04486
7.0825,-0.01694,-0.04776,-0.0351,0.02655,-0.02991,-0.08118,0.03616,0.01724,-0.0885,-0.10803,0.07874,0.06439,-0.02319,-0.02228,0.00717,-0.04639
7.083,-0.01328,-0.04852,-0.03784,0.02274,-0.03082,-0.10544,0.06287,0.01404,0.00961,-0.11078,0.09354,0.02563,-0.02213,-0.01968,0.00793,-0.04623
7.0835,-0.01114,-0.05035,-0.0415,0.01282,-0.03342,-0.09903,0.05005,0.01022,0.0737,-0.11124,0.10788,-0.06348,-0.02167,-0.01877,0.00824,-0.04501
7.084,-0.01083,-0.05264,-0.04517,-0.00153,-0.03494,-0.08789,0.02869,0.0061,0.11581,-0.11215,0.11978,-0.17014,-0.02213,-0.02045,0.00946,-0.04227
7.0845,-0.00885,-0.05508,-0.04776,-0.01312,-0.03448,-0.08865,0.0322,0.00534,0.15182,-0.11169,0.11444,-0.23331,-0.0235,-0.02228,0.00977,-0.03876
7.085,-0.0029,-0.05676,-0.04822,-0.01755,-0.03235,-0.09109,0.04822,0.0087,0.18112,-0.09933,0.09796,-0.22385,-0.02792,-0.02304,0.00839,-0.03677
7.0855,0.0029,-0.0618,-0.04898,-0.01892,-0.03143,-0.08514,0.04059,0.00977,0.19089,-0.07629,0.08759,-0.17212,-0.03204,-0.02136,0.00793,-0.03769
7.086,0.00458,-0.07019,-0.05096,-0.01968,-0.03143,-0.07614,0.00549,0.00839,0.18158,-0.04822,0.08621,-0.12817,-0.03372,-0.01892,0.00763,-0.04181
7.0865,0.0032,-0.0795,-0.05676,-0.01907,-0.03159,-0.07248,-0.02502,0.00626,0.16403,-0.02274,0.08743,-0.10254,-0.0322,-0.01617,0.00748,-0.0441
7.087,0.00366,-0.08682,-0.06577,-0.01648,-0.03311,-0.07172,-0.03113,0.00549,0.14297,-0.01083,0.09918,-0.06683,-0.03021,-0.01373,0.00763,-0.04425
7.0875,0.00534,-0.09079,-0.07538,-0.01175,-0.03357,-0.06897,-0.02853,0.00595,0.11566,-0.02106,0.12497,-0.00504,-0.02914,-0.0119,0.00946,-0.04196
7.088,0.00565,-0.09033,-0.08209,-0.01007,-0.03265,-0.0621,-0.03387,0.00671,0.08652,-0.04959,0.13947,0.05066,-0.02899,-0.01129,0.01022,-0.04196
7.0885,0.00534,-0.08301,-0.08804,-0.01083,-0.03189,-0.05661,-0.04547,0.00778,0.06454,-0.07721,0.11032,0.06546,-0.02914,-0.01175,0.0087,-0.04349
7.089,0.00626,-0.07294,-0.09232,-0.01251,-0.0322,-0.05264,-0.05447,0.00931,0.05249,-0.07858,0.0473,0.05875,-0.03021,-0.0148,0.0061,-0.04669
7.0895,0.00626,-0.06561,-0.09277,-0.01251,-0.0325,-0.0502,-0.05814,0.0087,0.04059,-0.05646,-0.01572,0.08057,-0.03052,-0.01892,0.00549,-0.04913
7.09,0.00656,-0.06561,-0.08316,-0.01541,-0.03296,-0.04532,-0.05371,0.00595,0.01892,-0.03448,-0.06912,0.13687,-0.03052,-0.02167,0.00809,-0.04898
7.0905,0.00488,-0.06714,-0.06271,-0.02029,-0.03403,-0.03983,-0.03494,0.00076,-0.01221,-0.02319,-0.11932,0.1741,-0.03098,-0.02075,0.00717,-0.04837
7.091,0.00198,-0.06271,-0.0386,-0.02228,-0.03448,-0.03632,-0.00732,-0.00366,-0.04501,-0.00656,-0.16266,0.15381,-0.0325,-0.01801,0.00595,-0.04593
7.0915,-0.00183,-0.05188,-0.01663,-0.01938,-0.03387,-0.03265,0.01007,-0.00488,-0.07111,0.01678,-0.18539,0.09079,-0.03403,-0.01724,0.0058,-0.04303
7.092,-0.00504,-0.03891,-0.00168,-0.01343,-0.03372,-0.02808,0.01022,-0.00259,-0.09308,0.03235,-0.18234,0.02838,-0.03586,-0.01648,0.0058,-0.04044
7.0925,-0.00626,-0.02655,0.0061,-0.00671,-0.03357,-0.02426,0.00061,-0.00107,-0.11368,0.03372,-0.15778,-0.0032,-0.03571,-0.01495,0.0058,-0.03937
7.093,-0.00565,-0.01297,0.009,0.00031,-0.03448,-0.01923,-0.0061,-0.00214,-0.12726,0.02029,-0.12238,-0.00336,-0.0386,-0.0119,0.00534,-0.03983
7.0935,-0.0029,0.00183,0.00763,0.01083,-0.03571,-0.01266,-0.00885,-0.00275,-0.12375,0.01266,-0.08713,0.01236,-0.04105,-0.00946,0.00412,-0.04028
7.094,0.00076,0.01801,0.00397,0.02304,-0.03525,-0.00458,-0.00977,-0.00137,-0.10559,0.01236,-0.06332,0.02411,-0.04135,-0.01038,0.0029,-0.04044
7.0945,0.00504,0.03204,0.00015,0.0325,-0.03525,0.00412,-0.01144,-0.00122,-0.0856,0.0174,-0.05081,0.02228,-0.03983,-0.01617,0.00504,-0.03937
7.095,0.0087,0.04105,-0.00381,0.03525,-0.03571,0.01297,-0.01328,-0.00534,-0.07355,0.01877,-0.0473,0.00885,-0.0386,-0.02228,0.00809,-0.0383
7.0955,0.00885,0.0412,-0.009,0.03296,-0.03616,0.01968,-0.0148,-0.01282,-0.0676,0.00626,-0.05219,-0.01144,-0.03937,-0.02441,0.00961,-0.03754
7.096,0.00763,0.03372,-0.01526,0.02808,-0.03525,0.02563,-0.01663,-0.01984,-0.06607,-0.01358,-0.06943,-0.03723,-0.04105,-0.0238,0.00931,-0.0386
7.0965,0.00565,0.02167,-0.01892,0.02121,-0.03433,0.03296,-0.0174,-0.02365,-0.07004,-0.02914,-0.09262,-0.0647,-0.0412,-0.02182,0.00763,-0.04074
7.097,0.00595,0.01053,-0.02045,0.01083,-0.03433,0.04196,-0.01755,-0.02396,-0.07736,-0.03021,-0.10941,-0.08316,-0.03845,-0.02106,0.00748,-0.0441
7.0975,0.00717,-0.00107,-0.02243,-0.00229,-0.03265,0.05157,-0.01541,-0.02396,-0.07782,-0.0174,-0.10696,-0.08514,-0.03586,-0.0206,0.00626,-0.04578
7.098,0.00916,-0.01099,-0.02502,-0.0145,-0.03296,0.05783,-0.01251,-0.0238,-0.06927,-0.00061,-0.09354,-0.06821,-0.03326,-0.02075,0.00458,-0.04547
7.0985,0.01007,-0.01938,-0.02563,-0.0235,-0.03174,0.06378,-0.00961,-0.02167,-0.06119,0.01923,-0.08636,-0.0322,-0.03342,-0.02106,0.00351,-0.04456
7.099,0.00748,-0.02457,-0.0238,-0.03098,-0.03113,0.07355,-0.00702,-0.01831,-0.06271,0.03815,-0.09872,0.02167,-0.03616,-0.02151,0.00336,-0.04318
7.0995,0.00443,-0.03021,-0.02213,-0.03876,-0.03128,0.08453,-0.00412,-0.01648,-0.08804,0.04684,-0.13535,0.08133,-0.03769,-0.02365,0.00473,-0.04166
7.1,0.00214,-0.03586,-0.02533,-0.04791,-0.03128,0.09415,-0.00366,-0.02029,-0.15503,0.03555,-0.19287,0.12909,-0.03799,-0.02686,0.00549,-0.03937
7.1005,0.00137,-0.04196,-0.03052,-0.05051,-0.03159,0.10086,-0.00809,-0.02701,-0.25314,0.01251,-0.24521,0.15533,-0.03525,-0.03082,0.00351,-0.03784
7.101,-0.00015,-0.04578,-0.03357,-0.0415,-0.03204,0.10437,-0.01373,-0.03067,-0.3096,-0.01801,-0.24841,0.16754,-0.03494,-0.03204,0.0029,-0.03952
7.1015,-0.00168,-0.04608,-0.03143,-0.02228,-0.03021,0.10696,-0.01648,-0.02991,-0.24368,-0.03799,-0.17303,0.17624,-0.03265,-0.02777,0.00214,-0.04486
7.102,-0.00351,-0.04242,-0.03006,-0.00412,-0.0296,0.10803,-0.01694,-0.02899,-0.07965,-0.04196,-0.04913,0.17654,-0.0322,-0.02258,0.0029,-0.05219
7.1025,-0.00351,-0.04028,-0.03143,0.0032,-0.02777,0.10864,-0.01602,-0.02914,0.07172,-0.05356,0.06302,0.14786,-0.03433,-0.02167,0.00534,-0.05798
7.103,-0.00229,-0.04242,-0.0354,0.00046,-0.02716,0.10925,-0.01556,-0.02899,0.13229,-0.07538,0.12314,0.07965,-0.03708,-0.02594,0.00839,-0.05981
7.1035,-0.00183,-0.04791,-0.03998,-0.00519,-0.02686,0.11322,-0.01678,-0.02579,0.12451,-0.10651,0.14175,-0.00992,-0.03799,-0.02914,0.00961,-0.05859
7.104,-0.00244,-0.05157,-0.04196,-0.01083,-0.02579,0.12131,-0.02228,-0.01984,0.11047,-0.11902,0.1535,-0.08301,-0.03433,-0.02594,0.01083,-0.05615
7.1045,-0.00244,-0.05325,-0.04044,-0.01633,-0.02502,0.13184,-0.03571,-0.01663,0.10788,-0.103,0.17395,-0.11307,-0.02975,-0.01984,0.00992,-0.05554
7.105,-0.00122,-0.05447,-0.03616,-0.02228,-0.02411,0.14099,-0.0528,-0.0174,0.10742,-0.06271,0.18387,-0.1178,-0.02838,-0.01923,0.0087,-0.05569
7.1055,-0.00107,-0.05524,-0.03143,-0.02518,-0.02319,0.14633,-0.06332,-0.02228,0.11566,-0.01892,0.16525,-0.13168,-0.02991,-0.02274,0.00717,-0.05661
7.106,-0.00534,-0.05646,-0.02945,-0.0238,-0.02136,0.14938,-0.0621,-0.02747,0.14099,0.00992,0.12939,-0.15671,-0.0325,-0.02731,0.00671,-0.0592
7.1065,-0.01297,-0.05646,-0.02655,-0.02045,-0.01846,0.15152,-0.05173,-0.02853,0.16739,0.03098,0.10239,-0.16953,-0.03632,-0.02731,0.00656,-0.06317
7.107,-0.0206,-0.05402,-0.02304,-0.01678,-0.01724,0.15305,-0.03662,-0.02975,0.16602,0.04013,0.09323,-0.1593,-0.03952,-0.02716,0.00656,-0.07004
7.1075,-0.02487,-0.05341,-0.01785,-0.01144,-0.0177,0.15442,-0.01404,-0.03403,0.13123,0.0383,0.09079,-0.13702,-0.04089,-0.02777,0.00671,-0.07462
7.108,-0.02579,-0.05402,-0.01114,-0.00732,-0.0206,0.159,0.01709,-0.03708,0.08301,0.01007,0.0827,-0.10849,-0.04059,-0.02701,0.00671,-0.06805
7.1085,-0.02396,-0.05386,-0.009,-0.00748,-0.02594,0.16571,0.04791,-0.03372,0.0444,-0.02411,0.06622,-0.07507,-0.03967,-0.02274,0.00626,-0.03677
7.109,-0.02487,-0.05524,-0.00992,-0.00885,-0.03571,0.17227,0.06638,-0.02487,0.02411,-0.03265,0.04761,-0.04852,-0.04028,-0.01389,0.00595,0.01419
7.1095,-0.02899,-0.05646,-0.01114,-0.00671,-0.04318,0.17319,0.06531,-0.02075,0.01709,0.00122,0.03128,-0.04623,-0.03769,-0.00458,0.00488,0.0563
7.11,-0.03433,-0.05463,-0.01236,0.00183,-0.04181,0.16083,0.04456,-0.02274,0.01373,0.04425,0.01816,-0.06485,-0.03708,0.00061,0.0032,0.05692
7.1105,-0.03647,-0.05188,-0.01602,0.01328,-0.0351,0.13809,0.01633,-0.02289,0.00671,0.07095,0.00443,-0.08072,-0.03372,-0.00092,0.0032,0.01907
7.111,-0.03326,-0.0499,-0.02182,0.02228,-0.03387,0.11475,-0.00336,-0.01831,-0.0029,0.08423,-0.01266,-0.06912,-0.03174,-0.00854,0.00458,-0.02151
7.1115,-0.02396,-0.04868,-0.0293,0.02487,-0.04135,0.10376,-0.00977,-0.01205,-0.01663,0.0972,-0.03113,-0.02655,-0.03281,-0.01404,0.00549,-0.0354
7.112,-0.0119,-0.04883,-0.03555,0.02151,-0.04929,0.10849,-0.01053,-0.00885,-0.03326,0.11261,-0.04486,0.03159,-0.03082,-0.01373,0.009,-0.0296
7.1125,0.0,-0.04913,-0.04059,0.01114,-0.0499,0.12024,-0.01266,-0.00946,-0.04929,0.12283,-0.05539,0.07736,-0.03082,-0.00885,0.01297,-0.02396
7.113,0.01022,-0.04929,-0.04425,-0.00214,-0.04227,0.1268,-0.01205,-0.00885,-0.05997,0.12497,-0.065,0.09293,-0.03052,-0.00656,0.01389,-0.02396
7.1135,0.01877,-0.04745,-0.04425,-0.01312,-0.03433,0.12512,-0.00748,-0.00626,-0.06393,0.11093,-0.07431,0.07858,-0.03174,-0.00778,0.01129,-0.02762
7.114,0.02701,-0.04135,-0.04257,-0.01663,-0.03113,0.12238,-0.00153,-0.00275,-0.06683,0.08377,-0.08179,0.05188,-0.03357,-0.01038,0.00717,-0.0322
7.1145,0.03464,-0.03311,-0.03998,-0.01389,-0.03326,0.12024,0.00046,0.00061,-0.06866,0.05035,-0.0853,0.02884,-0.03372,-0.01144,0.00549,-0.03662
7.115,0.03906,-0.02701,-0.03937,-0.00443,-0.04028,0.11795,-0.00244,0.00275,-0.06973,0.02029,-0.08652,0.01495,-0.03235,-0.0119,0.00671,-0.04013
7.1155,0.0354,-0.02655,-0.04181,0.0087,-0.047,0.11765,-0.00366,0.00488,-0.06836,-0.00153,-0.08423,0.02106,-0.03143,-0.01236,0.009,-0.0412
7.116,0.02274,-0.03326,-0.04364,0.02106,-0.04852,0.12177,-0.00092,0.0058,-0.06668,-0.0177,-0.07904,0.05997,-0.03036,-0.01251,0.00931,-0.04181
7.1165,0.00793,-0.04242,-0.04501,0.02747,-0.04547,0.12985,0.00244,0.00641,-0.0647,-0.03021,-0.07187,0.1268,-0.02899,-0.0116,0.00885,-0.04318
7.117,-0.00122,-0.0502,-0.04761,0.02579,-0.04059,0.13397,0.00183,0.00519,-0.05966,-0.04089,-0.06165,0.17532,-0.02701,-0.01083,0.00641,-0.04456
7.1175,-0.00168,-0.0528,-0.04898,0.01755,-0.03845,0.12863,-0.00244,0.00244,-0.05203,-0.05112,-0.04913,0.16327,-0.0264,-0.00885,0.00381,-0.04593
7.118,0.00092,-0.05432,-0.05096,0.00732,-0.03922,0.11505,-0.00702,-0.00015,-0.04349,-0.05768,-0.03845,0.09674,-0.02502,-0.00671,0.00443,-0.04654
7.1185,0.00153,-0.05646,-0.05402,0.0,-0.04059,0.09888,-0.01129,-0.00031,-0.03708,-0.06409,-0.03235,0.01984,-0.02686,-0.00702,0.00534,-0.04669
7.119,-0.00107,-0.05814,-0.05508,-0.00381,-0.03906,0.08423,-0.01175,0.00275,-0.03265,-0.06943,-0.03128,-0.03098,-0.02853,-0.01038,0.00565,-0.04608
7.1195,-0.00534,-0.05936,-0.05371,-0.00488,-0.03479,0.0676,-0.00748,0.00763,-0.02716,-0.06683,-0.03296,-0.04578,-0.03082,-0.01389,0.00717,-0.04501
7.12,-0.00824,-0.05798,-0.04929,-0.00305,-0.02991,0.04654,-0.00015,0.01083,-0.01526,-0.06516,-0.03357,-0.04501,-0.03021,-0.01602,0.01038,-0.04379
7.1205,-0.0087,-0.05554,-0.04379,-0.00183,-0.02945,0.01999,0.00336,0.00977,-0.00015,-0.05569,-0.03159,-0.05524,-0.02899,-0.01511,0.01175,-0.04211
7.121,-0.00854,-0.05188,-0.03937,-0.00305,-0.03113,-0.00748,-0.00122,0.00671,0.01007,-0.05157,-0.02457,-0.06729,-0.02808,-0.0148,0.01328,-0.04089
7.1215,-0.0087,-0.04822,-0.03525,-0.00351,-0.03143,-0.02899,-0.01434,0.00458,0.01465,-0.05005,-0.01266,-0.0412,-0.02884,-0.01587,0.01282,-0.04059
7.122,-0.00961,-0.04669,-0.03159,-0.00183,-0.03281,-0.0415,-0.0383,0.0058,0.01129,-0.0473,-0.00229,0.02533,-0.03311,-0.0177,0.01083,-0.04211
7.1225,-0.01236,-0.0444,-0.03036,0.00244,-0.0322,-0.04456,-0.07294,0.00931,-0.00427,-0.04578,0.00214,0.06958,-0.03464,-0.01953,0.00946,-0.04486
7.123,-0.01572,-0.0412,-0.03189,0.00748,-0.03143,-0.04013,-0.10452,0.01236,-0.03891,-0.04288,0.00076,0.04044,-0.03372,-0.02045,0.00839,-0.04593
7.1235,-0.01877,-0.03937,-0.03479,0.0087,-0.03204,-0.03174,-0.1088,0.01663,-0.07141,-0.04318,-0.00046,-0.01892,-0.03357,-0.02228,0.00809,-0.04562
7.124,-0.02167,-0.03906,-0.0354,0.00916,-0.03296,-0.02441,-0.08591,0.01999,-0.07233,-0.04608,0.00122,-0.03387,-0.03372,-0.02441,0.00931,-0.04456
7.1245,-0.02487,-0.03983,-0.03479,0.00992,-0.03326,-0.02502,-0.06104,0.02182,-0.04013,-0.05325,0.00381,-0.03052,-0.03494,-0.02487,0.01038,-0.04379
7.125,-0.02594,-0.04059,-0.03204,0.01266,-0.03143,-0.03418,-0.05081,0.02045,-0.00671,-0.05951,0.00473,-0.10452,-0.0351,-0.02426,0.00885,-0.04318
7.1255,-0.02396,-0.04181,-0.03113,0.01358,-0.02869,-0.0441,-0.04486,0.01724,0.00671,-0.06638,0.00397,-0.24567,-0.0351,-0.02396,0.0058,-0.04318
7.126,-0.01816,-0.04456,-0.03067,0.01007,-0.02625,-0.04929,-0.03082,0.01648,0.00931,-0.07751,0.00397,-0.30426,-0.03525,-0.02502,0.00519,-0.04578
7.1265,-0.00977,-0.04517,-0.03143,0.00214,-0.02502,-0.05127,-0.01236,0.02045,0.01541,-0.09552,0.00595,-0.18677,-0.03357,-0.02625,0.00549,-0.04852
7.127,-0.0029,-0.04364,-0.03876,-0.00473,-0.02487,-0.0563,0.00153,0.02762,0.02808,-0.10925,0.00793,0.00854,-0.03326,-0.02716,0.00641,-0.04974
7.1275,0.00153,-0.0441,-0.05356,-0.00656,-0.02441,-0.06317,0.01038,0.03387,0.0386,-0.10895,0.00778,0.1384,-0.03372,-0.02701,0.00549,-0.0502
7.128,0.0032,-0.04562,-0.07477,-0.00259,-0.02472,-0.07034,0.01724,0.03601,0.04196,-0.09232,0.00534,0.1886,-0.03479,-0.02609,0.00381,-0.05203
7.1285,0.00153,-0.04639,-0.09399,0.00015,-0.02563,-0.08041,0.0238,0.03159,0.03952,-0.06516,0.00351,0.21133,-0.03525,-0.02457,0.00351,-0.05463
7.129,-0.00259,-0.04623,-0.10773,-0.00336,-0.02731,-0.09018,0.03143,0.02335,0.03754,-0.04608,0.00259,0.19119,-0.03479,-0.02274,0.00504,-0.05539
7.1295,-0.00778,-0.04486,-0.11566,-0.00992,-0.02747,-0.09842,0.03906,0.01526,0.03571,-0.03159,-0.00031,0.10254,-0.03464,-0.02106,0.00641,-0.05264
7.13,-0.00977,-0.0441,-0.11475,-0.0145,-0.02533,-0.10681,0.03738,0.00763,0.03204,-0.01678,-0.00504,0.01129,-0.03387,-0.0209,0.009,-0.04807
7.1305,-0.00916,-0.0415,-0.10223,-0.01572,-0.02289,-0.11536,0.01633,0.00137,0.02655,-0.0058,-0.00885,0.00031,-0.03403,-0.02106,0.00946,-0.04501
7.131,-0.00549,-0.03967,-0.07309,-0.01724,-0.01907,-0.121,-0.01221,-0.00137,0.01999,-0.00092,-0.01053,0.04196,-0.03479,-0.01923,0.01114,-0.0441
7.1315,-0.00137,-0.03647,-0.0293,-0.02258,-0.01572,-0.12466,-0.02991,-0.00183,0.01312,0.00168,-0.01389,0.05219,-0.03525,-0.01724,0.01053,-0.04486
7.132,0.00015,-0.03464,0.01968,-0.02823,-0.01419,-0.12863,-0.03098,-0.0058,0.00061,0.00107,-0.01892,0.0145,-0.03464,-0.01587,0.00839,-0.04593
7.1325,-0.00168,-0.03265,0.0621,-0.03281,-0.02121,-0.13229,-0.02441,-0.01755,-0.01404,0.00046,-0.02121,-0.02197,-0.03433,-0.01602,0.00687,-0.04608
7.133,-0.00412,-0.0296,0.09079,-0.03479,-0.03586,-0.13443,-0.02472,-0.03464,-0.02838,0.00214,-0.01907,-0.0293,-0.03357,-0.01694,0.00626,-0.04517
7.1335,-0.00473,-0.0264,0.09888,-0.03387,-0.0528,-0.1355,-0.03296,-0.0499,-0.03876,0.00168,-0.01617,-0.02289,-0.03311,-0.01785,0.00824,-0.0444
7.134,-0.00381,-0.02243,0.08789,-0.03357,-0.06287,-0.1384,-0.03632,-0.06241,-0.04501,0.00031,-0.0148,-0.01617,-0.03189,-0.01923,0.00931,-0.04517
7.1345,-0.00244,-0.01968,0.06561,-0.03265,-0.06012,-0.14206,-0.02502,-0.06851,-0.04517,-0.00275,-0.01465,-0.00259,-0.03159,-0.02029,0.01038,-0.04639
7.135,-0.00443,-0.01923,0.04135,-0.02914,-0.05112,-0.14557,-0.00366,-0.06622,-0.04044,-0.00488,-0.01114,0.01648,-0.03174,-0.0206,0.01083,-0.04654
7.1355,-0.00626,-0.02045,0.0174,-0.01999,-0.04547,-0.14709,0.01572,-0.05722,-0.03265,-0.00565,0.00046,0.02655,-0.0322,-0.02136,0.00931,-0.04501
7.136,-0.00702,-0.02243,-0.00336,-0.00961,-0.0444,-0.14862,0.02838,-0.05234,-0.02579,-0.00473,0.01724,0.0209,-0.03342,-0.02106,0.0061,-0.04471
7.1365,-0.00565,-0.02472,-0.02197,-0.00412,-0.04318,-0.15182,0.03555,-0.05035,-0.01877,-0.00397,0.02975,0.00778,-0.03387,-0.02228,0.00305,-0.04532
7.137,-0.00519,-0.02762,-0.03693,-0.00595,-0.03891,-0.15274,0.03586,-0.03525,-0.00916,-0.00397,0.02914,-0.00351,-0.03357,-0.02457,0.00351,-0.04562
7.1375,-0.00778,-0.03235,-0.04868,-0.01266,-0.03174,-0.15366,0.02029,-0.00259,0.0,-0.00488,0.01862,-0.00595,-0.03281,-0.02594,0.00656,-0.04349
7.138,-0.00946,-0.03632,-0.05722,-0.02243,-0.0235,-0.15915,-0.01663,0.02151,0.00275,-0.00473,0.00992,0.00183,-0.03357,-0.02579,0.00931,-0.04105
7.1385,-0.009,-0.03738,-0.06393,-0.03189,-0.01221,-0.17014,-0.05569,0.01556,0.00061,-0.00366,0.01556,0.0148,-0.03433,-0.02502,0.01007,-0.04013
7.139,-0.00778,-0.03601,-0.06882,-0.0386,0.00092,-0.17807,-0.06393,-0.01251,-0.00214,-0.00504,0.03876,0.02304,-0.03555,-0.02472,0.01099,-0.04196
7.1395,-0.00793,-0.03586,-0.06897,-0.04318,0.01343,-0.18036,-0.03906,-0.03342,-0.0032,-0.00504,0.06256,0.02808,-0.03433,-0.02289,0.01129,-0.04425
7.14,-0.01007,-0.03784,-0.06714,-0.04807,0.02228,-0.17792,-0.01312,-0.03571,-0.00549,-0.00381,0.05295,0.04181,-0.0325,-0.01999,0.01236,-0.04425
7.1405,-0.01221,-0.04059,-0.06241,-0.05112,0.02609,-0.17471,-0.00854,-0.03036,-0.01068,-0.00397,-0.00244,0.05798,-0.03082,-0.01572,0.01205,-0.0412
7.141,-0.01373,-0.04059,-0.05722,-0.04974,0.02441,-0.17197,-0.01373,-0.02731,-0.01877,-0.01968,-0.0737,0.04929,-0.02945,-0.0145,0.01373,-0.03876
7.1415,-0.0148,-0.03845,-0.05264,-0.04562,0.01312,-0.17014,-0.01083,-0.0267,-0.02869,-0.05356,-0.11429,0.00641,-0.0296,-0.01556,0.01785,-0.03983
7.142,-0.01572,-0.03769,-0.04562,-0.04227,-0.0145,-0.16998,-0.00534,-0.02731,-0.0415,-0.08408,-0.11185,-0.03174,-0.0296,-0.01877,0.01755,-0.04166
7.1425,-0.0148,-0.03815,-0.03662,-0.03876,-0.05432,-0.17319,-0.00763,-0.02304,-0.05402,-0.0856,-0.08347,-0.03479,-0.02853,-0.01968,0.01526,-0.04272
7.143,-0.01175,-0.03952,-0.02884,-0.02838,-0.09094,-0.17593,-0.0174,-0.0119,-0.06317,-0.06073,-0.0499,-0.01923,-0.02823,-0.01968,0.01053,-0.04135
7.1435,-0.00961,-0.04013,-0.02472,-0.00961,-0.11429,-0.17517,-0.0296,0.00168,-0.06897,-0.03418,-0.02029,-0.01251,-0.02853,-0.01999,0.00702,-0.04074
7.144,-0.00946,-0.04028,-0.02258,0.01129,-0.12222,-0.1738,-0.04196,0.01053,-0.07095,-0.02151,-0.00183,-0.00732,-0.0296,-0.0209,0.00763,-0.04211
7.1445,-0.01144,-0.04272,-0.02258,0.02731,-0.11383,-0.17288,-0.05417,0.00793,-0.06943,-0.01694,-0.00336,0.01404,-0.03006,-0.02075,0.0087,-0.04196
7.145,-0.01373,-0.05005,-0.0235,0.03357,-0.0882,-0.17273,-0.06302,-0.00046,-0.06577,-0.01068,-0.01999,0.02823,-0.03052,-0.01999,0.00961,-0.04074
7.1455,-0.01495,-0.06088,-0.02289,0.0293,-0.05356,-0.17197,-0.06516,-0.00397,-0.06241,-0.00366,-0.03998,-0.00259,-0.03113,-0.02014,0.00839,-0.03906
7.146,-0.01541,-0.06866,-0.02304,0.01968,-0.02914,-0.17181,-0.06226,0.00336,-0.05966,-0.0032,-0.05142,-0.06332,-0.03067,-0.02075,0.00763,-0.03815
7.1465,-0.01373,-0.07324,-0.02747,0.01282,-0.01724,-0.17441,-0.05844,0.01541,-0.05493,-0.00626,-0.05463,-0.09644,-0.02945,-0.02106,0.00748,-0.03922
7.147,-0.009,-0.07813,-0.03464,0.01343,-0.01282,-0.17746,-0.0502,0.01968,-0.04593,-0.01251,-0.04959,-0.08774,-0.0293,-0.02106,0.00824,-0.03983
7.1475,0.00031,-0.08347,-0.04318,0.01556,-0.009,-0.17868,-0.03357,0.00916,-0.03281,-0.01999,-0.0412,-0.08743,-0.03082,-0.02151,0.00839,-0.03922
7.148,0.01068,-0.08392,-0.04791,0.01114,-0.01022,-0.17792,-0.00153,-0.01022,-0.01526,-0.02869,-0.03647,-0.11841,-0.03174,-0.02243,0.00748,-0.03906
7.1485,0.01831,-0.0766,-0.04654,-0.00198,-0.01724,-0.17639,0.04044,-0.02823,-0.00107,-0.03433,-0.03616,-0.14069,-0.03067,-0.02533,0.0058,-0.03983
7.149,0.02182,-0.06668,-0.04196,-0.02045,-0.02304,-0.17487,0.07126,-0.03433,0.00916,-0.03387,-0.03616,-0.12009,-0.02899,-0.02548,0.00565,-0.04257
7.1495,0.02045,-0.05905,-0.04105,-0.03601,-0.02426,-0.17334,0.0708,-0.0322,0.01907,-0.03082,-0.03128,-0.08209,-0.02747,-0.02243,0.00763,-0.04349
7.15,0.01419,-0.05219,-0.04089,-0.04562,-0.02518,-0.17456,0.04227,-0.02731,0.0351,-0.02853,-0.01999,-0.06454,-0.02686,-0.01633,0.00931,-0.04089
7.1505,0.00534,-0.04837,-0.04181,-0.04669,-0.03571,-0.17654,0.0116,-0.03342,0.05371,-0.02594,-0.0058,-0.06821,-0.02533,-0.01175,0.009,-0.03815
7.151,0.00107,-0.04486,-0.04395,-0.04166,-0.0499,-0.17685,-0.00244,-0.05203,0.06607,-0.02869,0.00732,-0.07507,-0.02228,-0.0087,0.00717,-0.03723
7.1515,0.00244,-0.04364,-0.04715,-0.03235,-0.0528,-0.17181,-0.00412,-0.06714,0.06256,-0.03143,0.01236,-0.0705,-0.02045,-0.00793,0.00473,-0.0383
7.152,0.00702,-0.04211,-0.05203,-0.02182,-0.04013,-0.16678,-0.00458,-0.05981,0.03799,-0.03281,0.00504,-0.05722,-0.02045,-0.00916,0.00549,-0.04211
7.1525,0.01053,-0.03601,-0.05646,-0.01266,-0.02899,-0.15808,-0.00748,-0.03708,-0.00504,-0.0325,-0.00977,-0.05035,-0.02258,-0.01282,0.00534,-0.04532
7.153,0.0116,-0.02518,-0.0592,-0.00626,-0.0322,-0.1506,-0.00732,-0.01862,-0.04532,-0.02655,-0.0206,-0.05829,-0.02533,-0.01602,0.00488,-0.0473
7.1535,0.01205,-0.01511,-0.0589,-0.00259,-0.03586,-0.14343,-0.0029,-0.0029,-0.06104,-0.0174,-0.0209,-0.05264,-0.02777,-0.0174,0.00519,-0.04456
7.154,0.01343,-0.009,-0.05661,-0.00336,-0.02029,-0.1358,0.00885,0.02823,-0.04898,-0.00732,-0.01831,0.01266,-0.02808,-0.01663,0.00534,-0.04303
7.1545,0.01495,-0.00763,-0.05219,-0.00702,0.00717,-0.12848,0.02869,0.07599,-0.02853,-0.00183,-0.02625,0.14542,-0.02731,-0.01572,0.00763,-0.04349
7.155,0.01373,-0.00671,-0.04547,-0.01038,0.02258,-0.12283,0.04044,0.11795,-0.01709,0.00076,-0.04105,0.29083,-0.02563,-0.01541,0.0087,-0.04471
7.1555,0.00961,-0.0061,-0.03723,-0.0116,0.00992,-0.12085,0.01907,0.13382,-0.01892,0.00137,-0.04868,0.36041,-0.02594,-0.01602,0.009,-0.04517
7.156,0.00305,-0.00793,-0.03098,-0.01068,-0.01831,-0.11917,-0.04333,0.12161,-0.02853,0.00259,-0.03738,0.30334,-0.02853,-0.01678,0.00824,-0.04379
7.1565,-0.0032,-0.01251,-0.02808,-0.01175,-0.04471,-0.11642,-0.11566,0.09735,-0.04257,0.009,-0.01572,0.16022,-0.0322,-0.01892,0.00854,-0.04196
7.157,-0.00809,-0.0177,-0.02808,-0.01541,-0.06027,-0.11276,-0.14832,0.07355,-0.0589,0.02075,0.00137,0.02914,-0.0354,-0.01968,0.00916,-0.04074
7.1575,-0.01114,-0.02106,-0.02747,-0.02304,-0.06729,-0.112,-0.13412,0.05142,-0.07233,0.02808,0.00824,-0.02716,-0.03647,-0.0209,0.01022,-0.0415
7.158,-0.01251,-0.0235,-0.02762,-0.03143,-0.07446,-0.1149,-0.1123,0.02823,-0.0798,0.02136,0.00763,-0.01205,-0.03586,-0.01999,0.00977,-0.04318
7.1585,-0.01404,-0.02533,-0.02975,-0.04028,-0.08636,-0.11581,-0.10849,0.0061,-0.08087,0.00305,0.00626,0.04395,-0.03571,-0.0206,0.00931,-0.04288
7.159,-0.01816,-0.0264,-0.03265,-0.04822,-0.09918,-0.11429,-0.10849,-0.00885,-0.07538,-0.00977,0.00595,0.11139,-0.03662,-0.02319,0.009,-0.04166
7.1595,-0.0235,-0.0296,-0.03403,-0.0528,-0.10162,-0.11215,-0.0914,-0.01877,-0.06516,-0.01495,0.00381,0.16846,-0.03647,-0.0235,0.00931,-0.03983
7.16,-0.02609,-0.03494,-0.03662,-0.05234,-0.08972,-0.11063,-0.06119,-0.02533,-0.04944,-0.01205,-0.00259,0.2002,-0.03616,-0.02182,0.00977,-0.03845
7.1605,-0.02411,-0.04074,-0.03876,-0.04684,-0.07706,-0.10818,-0.03021,-0.02884,-0.03189,-0.01114,-0.01266,0.19913,-0.03448,-0.01907,0.01038,-0.03967
7.161,-0.01892,-0.04333,-0.03845,-0.04013,-0.07462,-0.10315,0.00351,-0.02869,-0.01816,-0.01297,-0.02167,0.15839,-0.03571,-0.01968,0.01129,-0.04135
7.1615,-0.0145,-0.04059,-0.03845,-0.03723,-0.07645,-0.09644,0.04242,-0.03036,-0.00977,-0.01602,-0.02716,0.07706,-0.03769,-0.02136,0.01328,-0.04318
7.162,-0.01099,-0.03754,-0.03876,-0.03677,-0.06943,-0.08972,0.07462,-0.03555,-0.00641,-0.01633,-0.02899,-0.0386,-0.04105,-0.02457,0.01434,-0.04257
7.1625,-0.00854,-0.03525,-0.04242,-0.03601,-0.04959,-0.08408,0.08087,-0.03906,-0.00107,-0.01511,-0.0267,-0.15457,-0.04349,-0.02747,0.0145,-0.04074
7.163,-0.00793,-0.03525,-0.04654,-0.02884,-0.02258,-0.0795,0.05661,-0.03372,0.00351,-0.01465,-0.02502,-0.22263,-0.04456,-0.02869,0.01343,-0.03937
7.1635,-0.00778,-0.0386,-0.05096,-0.01648,0.0058,-0.07736,0.02029,-0.02411,0.00351,-0.01373,-0.02319,-0.22263,-0.04486,-0.02731,0.01083,-0.04059
7.164,-0.00717,-0.04303,-0.05371,-0.00504,0.02838,-0.07309,-0.00549,-0.01877,0.00122,-0.01617,-0.01999,-0.18875,-0.04425,-0.02518,0.00854,-0.04288
7.1645,-0.00443,-0.04791,-0.05402,-0.00137,0.03937,-0.0676,-0.00702,-0.0177,0.0,-0.01999,-0.0119,-0.16861,-0.04318,-0.02319,0.00641,-0.04379
7.165,-0.00153,-0.05096,-0.04974,-0.00458,0.03464,-0.06332,0.01617,-0.01648,-0.00061,-0.0264,0.00107,-0.17471,-0.04181,-0.0235,0.00565,-0.0441
7.1655,0.0,-0.05219,-0.04379,-0.00854,0.01953,-0.06256,0.04822,-0.01007,-0.00183,-0.0354,0.01678,-0.18738,-0.04242,-0.0238,0.00366,-0.04181
7.166,-0.00198,-0.05249,-0.03952,-0.0116,0.0087,-0.06424,0.06546,-0.00534,-0.00641,-0.04028,0.03281,-0.18784,-0.04456,-0.0235,0.00259,-0.03799
7.1665,-0.00656,-0.05264,-0.03738,-0.01266,0.00946,-0.06699,0.05814,-0.00824,-0.01266,-0.04196,0.04822,-0.168,-0.04715,-0.02243,0.0029,-0.03662
7.167,-0.00931,-0.05295,-0.03342,-0.01358,0.01129,-0.07004,0.04059,-0.02487,-0.01221,-0.04623,0.05371,-0.12299,-0.04791,-0.0209,0.00366,-0.03952
7.1675,-0.00809,-0.05386,-0.03113,-0.01114,-0.00015,-0.07034,0.02869,-0.05783,0.00198,-0.06241,0.04105,-0.04974,-0.047,-0.02029,0.0029,-0.04333
7.168,-0.00519,-0.05386,-0.03571,-0.00748,-0.02472,-0.06546,0.0206,-0.09033,0.02686,-0.08224,0.01862,0.0383,-0.04471,-0.01953,0.00198,-0.0444
7.1685,-0.00534,-0.05264,-0.04318,-0.00397,-0.04395,-0.05905,0.00778,-0.07919,0.05112,-0.0946,0.00763,0.10208,-0.04074,-0.01846,0.0032,-0.04196
7.169,-0.00595,-0.05005,-0.04745,-0.00092,-0.04578,-0.05463,-0.00641,-0.00427,0.06561,-0.09796,0.01572,0.10849,-0.03708,-0.01801,0.00732,-0.03998
7.1695,-0.00534,-0.04852,-0.047,-0.00275,-0.03967,-0.05035,-0.01373,0.09018,0.06882,-0.10468,0.02823,0.07217,-0.0351,-0.01755,0.00839,-0.04135
7.17,-0.00259,-0.04791,-0.04745,-0.00656,-0.03296,-0.04272,-0.01205,0.12909,0.06439,-0.12131,0.02609,0.04013,-0.03555,-0.01556,0.00687,-0.04257
7.1705,-0.00046,-0.04547,-0.05142,-0.00977,-0.02655,-0.03464,-0.00671,0.09918,0.05829,-0.12604,0.00473,0.03799,-0.03586,-0.01373,0.00519,-0.04272
7.171,0.00076,-0.04257,-0.05096,-0.00961,-0.02396,-0.02533,-0.00198,0.05432,0.05402,-0.1004,-0.02197,0.05096,-0.03448,-0.01328,0.00641,-0.04211
7.1715,0.00061,-0.04105,-0.04089,-0.01022,-0.03036,-0.01984,0.00122,0.03799,0.04654,-0.05112,-0.03723,0.05112,-0.03342,-0.01419,0.00961,-0.04242
7.172,-0.00137,-0.0441,-0.0264,-0.01724,-0.04532,-0.01251,0.00305,0.03891,0.03189,-0.00137,-0.03403,0.03357,-0.03189,-0.01526,0.0116,-0.04303
7.1725,-0.00473,-0.04868,-0.01404,-0.02502,-0.0589,-0.00534,0.00183,0.03708,0.00992,0.04059,-0.02426,0.01038,-0.02975,-0.01587,0.01114,-0.04196
7.173,-0.0087,-0.05066,-0.00778,-0.02319,-0.05997,0.00031,-0.0058,0.02884,-0.01465,0.07233,-0.02243,-0.00092,-0.02777,-0.01663,0.0119,-0.04074
7.1735,-0.01205,-0.05096,-0.00534,-0.01068,-0.04761,0.00519,-0.02121,0.02167,-0.04089,0.09323,-0.03174,-0.00046,-0.02777,-0.0174,0.01312,-0.04135
7.174,-0.01083,-0.05051,-0.00336,0.00137,-0.03189,0.00916,-0.03799,0.01541,-0.06805,0.09995,-0.04181,0.00427,-0.02853,-0.01785,0.01221,-0.04227
7.1745,-0.00763,-0.05142,-0.00336,0.00244,-0.01694,0.01221,-0.04883,0.00458,-0.09567,0.0975,-0.04639,0.00641,-0.02792,-0.01678,0.01022,-0.04349
7.175,-0.00534,-0.05249,-0.00549,-0.00702,-0.00275,0.01205,-0.05814,-0.00351,-0.11703,0.09323,-0.04715,0.00488,-0.02655,-0.0148,0.00885,-0.04333
7.1755,-0.00641,-0.05356,-0.01007,-0.01785,0.00916,0.00671,-0.0769,-0.00717,-0.13306,0.08743,-0.04822,0.00198,-0.02396,-0.01175,0.00946,-0.04517
7.176,-0.00732,-0.05295,-0.01328,-0.02472,0.01602,-0.00183,-0.10239,-0.00961,-0.14252,0.08102,-0.04761,0.00046,-0.02045,-0.01114,0.01068,-0.04822
7.1765,-0.00381,-0.04974,-0.01602,-0.02457,0.01907,-0.01068,-0.11673,-0.01068,-0.14496,0.07111,-0.04501,0.00153,-0.01709,-0.01389,0.01083,-0.04929
7.177,0.00275,-0.04578,-0.01862,-0.0206,0.01892,-0.01709,-0.10864,-0.009,-0.13687,0.06073,-0.04318,0.00412,-0.01648,-0.01907,0.01053,-0.04745
7.1775,0.00717,-0.04333,-0.02213,-0.01617,0.0209,-0.02121,-0.07797,-0.00458,-0.1178,0.05219,-0.04257,0.00702,-0.01907,-0.02258,0.01038,-0.04608
7.178,0.00641,-0.04303,-0.02365,-0.01068,0.0267,-0.02167,-0.02304,-0.00244,-0.09354,0.04059,-0.04257,0.00992,-0.0209,-0.02319,0.00946,-0.04501
7.1785,0.00412,-0.04242,-0.02686,-0.00504,0.02731,-0.01755,0.03998,-0.00305,-0.06866,0.02731,-0.03952,0.01205,-0.02167,-0.02075,0.00671,-0.04425
7.179,0.00397,-0.04013,-0.03113,-0.00046,0.00763,-0.0145,0.07263,-0.00839,-0.04791,0.01328,-0.03571,0.01526,-0.02274,-0.01877,0.0058,-0.04517
7.1795,0.00534,-0.03784,-0.0444,0.00153,-0.03098,-0.01404,0.05417,-0.01175,-0.03082,-0.00122,-0.03174,0.01831,-0.02502,-0.01694,0.00656,-0.04562
7.18,0.00687,-0.03677,-0.07584,0.00366,-0.06744,-0.01312,0.01404,-0.01541,-0.01862,-0.01312,-0.02853,0.02075,-0.0264,-0.01434,0.00778,-0.04456
7.1805,0.00671,-0.03647,-0.12833,0.00671,-0.07721,-0.00916,-0.00626,-0.01678,-0.01007,-0.0235,-0.02686,0.01694,-0.02396,-0.01236,0.00778,-0.04288
7.181,0.00519,-0.03723,-0.18463,0.009,-0.05493,-0.00626,-0.00168,-0.01556,-0.00473,-0.03342,-0.02426,-0.00061,-0.02106,-0.01251,0.00671,-0.04135
7.1815,0.00076,-0.03769,-0.23117,0.00748,-0.02289,-0.00534,0.0061,-0.01495,0.00214,-0.03906,-0.02258,-0.03891,-0.02029,-0.01465,0.00565,-0.0412
7.182,-0.00488,-0.03845,-0.25848,0.00336,-0.0119,-0.0061,0.00519,-0.01953,0.01022,-0.04318,-0.0235,-0.08728,-0.02365,-0.01694,0.00641,-0.04196
7.1825,-0.00977,-0.03754,-0.25406,-0.00427,-0.04013,-0.00565,-0.00076,-0.03281,0.01968,-0.04333,-0.02716,-0.12009,-0.02792,-0.01999,0.00687,-0.04303
7.183,-0.01205,-0.04013,-0.20432,-0.01877,-0.08865,-0.00427,-0.01129,-0.0473,0.02899,-0.04471,-0.02991,-0.12344,-0.03204,-0.02319,0.00702,-0.04471
7.1835,-0.01511,-0.04364,-0.10727,-0.04044,-0.11734,-0.00061,-0.02716,-0.05737,0.03632,-0.0473,-0.02914,-0.1059,-0.03677,-0.02548,0.00641,-0.04562
7.184,-0.02151,-0.04669,0.01144,-0.06332,-0.10666,0.00015,-0.04318,-0.06592,0.04089,-0.04669,-0.02747,-0.07263,-0.04379,-0.02487,0.00656,-0.04517
7.1845,-0.02731,-0.04684,0.12161,-0.07935,-0.07095,0.00046,-0.04807,-0.07843,0.04013,-0.04456,-0.03052,-0.00641,-0.05325,-0.0238,0.00793,-0.04456
7.185,-0.02747,-0.0441,0.20096,-0.08072,-0.0415,0.00076,-0.03845,-0.08926,0.03616,-0.04196,-0.03693,0.0914,-0.06195,-0.02319,0.00702,-0.04349
7.1855,-0.02396,-0.0415,0.23727,-0.06622,-0.03555,0.00198,-0.02487,-0.0798,0.03204,-0.04135,-0.04074,0.17517,-0.06607,-0.02502,0.00519,-0.04303
7.186,-0.02182,-0.04074,0.23254,-0.04272,-0.04074,0.00443,-0.01526,-0.04532,0.02838,-0.03922,-0.03906,0.19379,-0.06439,-0.02487,0.00381,-0.04227
7.1865,-0.02258,-0.04349,0.19958,-0.02075,-0.0444,0.0058,-0.01038,-0.00458,0.02335,-0.03693,-0.03403,0.15457,-0.05859,-0.02243,0.00443,-0.04166
7.187,-0.02319,-0.04761,0.15656,-0.00626,-0.04059,0.00748,-0.00885,0.01556,0.0177,-0.0354,-0.02869,0.10971,-0.05402,-0.01999,0.00656,-0.04028
7.1875,-0.01999,-0.04913,0.11459,0.00061,-0.03296,0.009,-0.00916,0.009,0.01373,-0.03647,-0.02289,0.08331,-0.05249,-0.02136,0.00687,-0.04044
7.188,-0.01541,-0.0473,0.07614,0.00366,-0.02014,0.0087,-0.01297,-0.00076,0.0119,-0.04303,-0.01282,0.04517,-0.05402,-0.02396,0.00671,-0.04166
7.1885,-0.01312,-0.04471,0.03998,0.0032,-0.0029,0.00534,-0.01877,0.00351,0.01144,-0.05707,0.00458,-0.03937,-0.0563,-0.02594,0.00748,-0.04288
7.189,-0.01205,-0.04257,0.00763,-0.00443,0.01373,0.0,-0.02228,0.01984,0.00854,-0.07401,0.02792,-0.15182,-0.05768,-0.02563,0.00778,-0.04364
7.1895,-0.01129,-0.04196,-0.01816,-0.02029,0.02121,-0.00534,-0.02136,0.03113,0.00641,-0.07965,0.04227,-0.24292,-0.05325,-0.02304,0.00671,-0.0441
7.19,-0.00961,-0.04013,-0.03555,-0.03891,0.01801,-0.009,-0.01999,0.0293,0.00763,-0.06592,0.03571,-0.27924,-0.04486,-0.01999,0.00595,-0.04639
7.1905,-0.00763,-0.03876,-0.04669,-0.05142,0.01022,-0.01114,-0.02167,0.02167,0.01251,-0.04272,0.01144,-0.24155,-0.03387,-0.0174,0.00519,-0.05386
7.191,-0.00519,-0.03937,-0.0531,-0.05325,0.00854,-0.0145,-0.02563,0.01785,0.01907,-0.02304,-0.00839,-0.11093,-0.02411,-0.01617,0.0058,-0.06561
7.1915,-0.00244,-0.0412,-0.05798,-0.0499,0.01312,-0.02029,-0.02548,0.01358,0.02014,-0.01038,-0.00992,0.08057,-0.01694,-0.01495,0.00595,-0.07751
7.192,0.00046,-0.04059,-0.06012,-0.04791,0.01709,-0.02655,-0.02274,0.00183,0.0148,0.00137,0.00534,0.22507,-0.0116,-0.01511,0.00641,-0.0853
7.1925,0.00259,-0.03983,-0.05768,-0.04486,0.01312,-0.03448,-0.02151,-0.01419,0.00565,0.01678,0.0206,0.24551,-0.01053,-0.01846,0.00519,-0.08865
7.193,0.00336,-0.03891,-0.05463,-0.03586,-0.00473,-0.04227,-0.02258,-0.02121,-0.00092,0.02823,0.02838,0.19333,-0.01511,-0.02365,0.00534,-0.08698
7.1935,0.00336,-0.03952,-0.05417,-0.01938,-0.03113,-0.04715,-0.02228,-0.01785,0.00015,0.03082,0.03052,0.16068,-0.02243,-0.02502,0.00443,-0.08026
7.194,0.00107,-0.0412,-0.05692,-0.00214,-0.0531,-0.05157,-0.02106,-0.00992,0.00656,0.02609,0.02991,0.1413,-0.02747,-0.02213,0.00519,-0.07172
7.1945,-0.00092,-0.04272,-0.05951,0.01236,-0.06119,-0.05356,-0.0267,-0.00458,0.01175,0.01541,0.02548,0.07721,-0.02731,-0.01862,0.00595,-0.0621
7.195,-0.00122,-0.04333,-0.06027,0.02289,-0.06439,-0.05005,-0.04105,-0.00366,0.01114,0.0032,0.01846,-0.01312,-0.02716,-0.01785,0.00534,-0.05371
7.1955,0.0,-0.04166,-0.06119,0.0267,-0.07507,-0.04349,-0.05539,-0.0029,0.00519,-0.009,0.00961,-0.06119,-0.03159,-0.01846,0.0061,-0.04547
7.196,0.00153,-0.03952,-0.05951,0.02258,-0.08926,-0.03738,-0.05737,0.00107,-0.0029,-0.02136,0.00046,-0.04715,-0.03906,-0.01755,0.00732,-0.03525
7.1965,0.00427,-0.03906,-0.05646,0.01389,-0.09766,-0.03296,-0.05432,0.0087,-0.00916,-0.03189,-0.00687,0.00763,-0.04166,-0.01617,0.00702,-0.01358
7.197,0.00763,-0.04074,-0.05371,0.00656,-0.09644,-0.03113,-0.0679,0.01495,-0.0148,-0.04074,-0.01068,0.06821,-0.04028,-0.01556,0.00641,0.01572
7.1975,0.009,-0.04089,-0.05219,0.00351,-0.08881,-0.02945,-0.10254,0.01602,-0.02335,-0.04562,-0.01114,0.09598,-0.03876,-0.01801,0.0058,0.0351
7.198,0.00946,-0.03937,-0.0528,0.00473,-0.08163,-0.02762,-0.12802,0.01419,-0.03403,-0.05035,-0.01053,0.06454,-0.03906,-0.02014,0.00595,0.02823
7.1985,0.00809,-0.03891,-0.05478,0.00748,-0.07355,-0.02655,-0.11124,0.01312,-0.04318,-0.05127,-0.01205,0.00595,-0.03906,-0.02121,0.00565,-0.00015
7.199,0.00565,-0.03952,-0.05951,0.00809,-0.06165,-0.02625,-0.05219,0.01404,-0.04776,-0.05173,-0.01724,-0.02441,-0.03937,-0.02014,0.00473,-0.02975
7.1995,0.00427,-0.03876,-0.06348,0.00351,-0.04272,-0.0293,0.02075,0.01587,-0.04944,-0.05432,-0.0235,-0.01709,-0.03845,-0.01923,0.00519,-0.04456
7.2,0.00458,-0.03693,-0.06775,-0.00565,-0.02014,-0.03387,0.07843,0.01755,-0.05402,-0.05539,-0.02792,-0.00839,-0.0354,-0.01801,0.00748,-0.04929
7.2005,0.00534,-0.03433,-0.06973,-0.01572,-0.00275,-0.03952,0.11246,0.01938,-0.06409,-0.056,-0.02777,-0.01877,-0.03098,-0.01648,0.01007,-0.04868
7.201,0.00443,-0.03357,-0.06897,-0.02289,0.00778,-0.04333,0.12497,0.01984,-0.07675,-0.05508,-0.02548,-0.02625,-0.02686,-0.01556,0.01038,-0.04242
7.2015,0.00153,-0.03281,-0.06744,-0.02869,0.0174,-0.04486,0.12589,0.01999,-0.08804,-0.05219,-0.02457,-0.01556,-0.02411,-0.01816,0.00961,-0.02808
7.202,-0.00244,-0.03143,-0.06256,-0.03586,0.02762,-0.04272,0.11658,0.01816,-0.09552,-0.0499,-0.0267,-0.00229,-0.02258,-0.02258,0.0087,-0.00916
7.2025,-0.00702,-0.02869,-0.05585,-0.0415,0.03815,-0.04044,0.09003,0.01587,-0.09842,-0.04852,-0.02975,-0.00473,-0.02106,-0.02594,0.00824,0.0
7.203,-0.01114,-0.02792,-0.0444,-0.0412,0.04135,-0.03922,0.0444,0.01389,-0.09811,-0.04776,-0.03265,-0.01678,-0.01923,-0.02716,0.00961,-0.00854
7.2035,-0.01511,-0.03174,-0.03159,-0.03098,0.03067,-0.03983,-0.00687,0.01312,-0.09216,-0.04471,-0.03403,-0.02197,-0.01709,-0.02548,0.01007,-0.03067
7.204,-0.01694,-0.03815,-0.02167,-0.01694,0.00565,-0.03906,-0.04196,0.0119,-0.08118,-0.04044,-0.03494,-0.01663,-0.01297,-0.02014,0.00885,-0.04944
7.2045,-0.01755,-0.04272,-0.02167,-0.01083,-0.02975,-0.0354,-0.05066,0.00778,-0.06882,-0.03525,-0.03571,-0.0119,-0.00916,-0.01419,0.00839,-0.05829
7.205,-0.01801,-0.0444,-0.02731,-0.01251,-0.06424,-0.02655,-0.03922,0.00229,-0.05844,-0.03098,-0.03632,-0.01434,-0.00839,-0.00977,0.00992,-0.05356
7.2055,-0.01984,-0.0444,-0.0354,-0.00961,-0.09628,-0.0119,-0.0235,-0.00244,-0.04898,-0.02777,-0.03632,-0.02213,-0.00977,-0.00839,0.01038,-0.03723
7.206,-0.02014,-0.04456,-0.0441,0.00458,-0.12833,0.00595,-0.01221,-0.00412,-0.03967,-0.02548,-0.03525,-0.03052,-0.01083,-0.00854,0.01022,-0.01877
7.2065,-0.01526,-0.04517,-0.04929,0.02243,-0.14343,0.02563,-0.00809,-0.00671,-0.03021,-0.02487,-0.0325,-0.03387,-0.00824,-0.00793,0.00854,-0.0119
7.207,-0.00732,-0.04501,-0.04929,0.02869,-0.12268,0.03479,-0.009,-0.01129,-0.02289,-0.02213,-0.02914,-0.02762,-0.00427,-0.00793,0.00702,-0.02029
7.2075,-0.0032,-0.0444,-0.0444,0.02365,-0.07553,0.0177,-0.01099,-0.01495,-0.01816,-0.01862,-0.02655,-0.02014,-0.00092,-0.00854,0.00732,-0.03296
7.208,-0.00473,-0.04166,-0.03967,0.01709,-0.04227,-0.02335,-0.01236,-0.01511,-0.01282,-0.01617,-0.02487,-0.01144,0.00076,-0.00824,0.00732,-0.04272
7.2085,-0.00946,-0.03754,-0.03769,0.01297,-0.04227,-0.06104,-0.01343,-0.01266,-0.0058,-0.01343,-0.02457,-0.00549,0.00107,-0.00626,0.00626,-0.05234
7.209,-0.01205,-0.03632,-0.03876,0.00778,-0.06287,-0.06683,-0.01587,-0.01144,-0.00076,-0.01068,-0.02472,-0.00122,0.00092,-0.00656,0.00549,-0.06104
7.2095,-0.01511,-0.03937,-0.03784,0.00259,-0.0737,-0.04837,-0.01801,-0.01144,0.00641,-0.00977,-0.02472,-0.00122,-0.00076,-0.01053,0.00549,-0.06134
7.21,-0.01617,-0.04547,-0.03464,0.00183,-0.06302,-0.03372,-0.01801,-0.01114,0.0116,-0.00961,-0.02151,-0.00656,-0.00122,-0.01358,0.00534,-0.05692
7.2105,-0.01541,-0.04959,-0.0296,0.00565,-0.04395,-0.03464,-0.01602,-0.01068,0.01587,-0.01053,-0.01724,-0.01434,-0.00198,-0.01389,0.00366,-0.05951
7.211,-0.01236,-0.05051,-0.02731,0.00977,-0.02914,-0.04196,-0.01465,-0.01129,0.01709,-0.01083,-0.01358,-0.01755,-0.00336,-0.01297,0.00305,-0.06897
7.2115,-0.01144,-0.04913,-0.02609,0.00809,-0.02457,-0.0441,-0.01511,-0.01282,0.01587,-0.01099,-0.01083,-0.01541,-0.00702,-0.01328,0.00488,-0.07217
7.212,-0.01129,-0.04654,-0.02579,0.00153,-0.02686,-0.04486,-0.01373,-0.01419,0.01282,-0.00916,-0.00946,-0.01099,-0.01556,-0.01617,0.009,-0.06226
7.2125,-0.00916,-0.04395,-0.02319,-0.00595,-0.03632,-0.0473,-0.01221,-0.01572,0.0119,-0.00748,-0.00992,-0.00717,-0.03021,-0.02136,0.01144,-0.04349
7.213,-0.00244,-0.0415,-0.02548,-0.01129,-0.04669,-0.05173,-0.01236,-0.01709,0.01038,-0.00687,-0.01083,-0.00366,-0.04852,-0.02655,0.01068,-0.03067
7.2135,0.00488,-0.03967,-0.03448,-0.01511,-0.04944,-0.05325,-0.01526,-0.01816,0.0087,-0.00504,-0.01328,-0.00336,-0.06485,-0.02884,0.01022,-0.03403
7.214,0.01053,-0.03891,-0.04822,-0.0206,-0.04013,-0.05447,-0.01923,-0.01862,0.00793,-0.00198,-0.01465,-0.00626,-0.07462,-0.02701,0.00916,-0.05142
7.2145,0.01282,-0.03906,-0.06119,-0.02823,-0.02182,-0.05737,-0.02197,-0.0209,0.00748,-0.00259,-0.01495,-0.01114,-0.07629,-0.0238,0.00839,-0.06958
7.215,0.0116,-0.04089,-0.0708,-0.03448,-0.0058,-0.06073,-0.02243,-0.02762,0.00641,-0.0032,-0.01434,-0.01358,-0.07233,-0.02121,0.00549,-0.07935
7.2155,0.00824,-0.04318,-0.0737,-0.03265,0.0032,-0.06256,-0.02075,-0.04074,0.00488,-0.00534,-0.01297,-0.01465,-0.06943,-0.02151,0.00519,-0.08163
7.216,0.00427,-0.04578,-0.07141,-0.02472,0.00778,-0.06302,-0.01953,-0.05463,0.00427,-0.00626,-0.01205,-0.01236,-0.06912,-0.02472,0.00641,-0.0798
7.2165,0.0061,-0.04883,-0.06332,-0.01495,0.01007,-0.06393,-0.01862,-0.06027,0.00381,-0.00824,-0.01205,-0.00793,-0.06744,-0.03021,0.01053,-0.06821
7.217,0.01785,-0.05112,-0.0531,-0.0087,0.01099,-0.06226,-0.01816,-0.05692,0.00351,-0.01053,-0.01144,-0.00046,-0.06256,-0.03403,0.01251,-0.03296
7.2175,0.03632,-0.05249,-0.04242,-0.00534,0.01053,-0.0563,-0.01938,-0.05234,0.00275,-0.00992,-0.01053,0.00534,-0.05707,-0.03204,0.01099,0.0174
7.218,0.05005,-0.056,-0.03433,-0.00305,0.00366,-0.04608,-0.02243,-0.04913,0.00107,-0.00992,-0.01022,0.00885,-0.05783,-0.02716,0.00916,0.05005
7.2185,0.04974,-0.06042,-0.02853,-0.00031,-0.01678,-0.03189,-0.02411,-0.03052,0.00076,-0.01068,-0.01144,0.00717,-0.06195,-0.02457,0.00885,0.03616
7.219,0.03723,-0.0647,-0.02304,0.00214,-0.05371,-0.01938,-0.02228,0.01801,-0.00122,-0.01144,-0.01068,0.00336,-0.06516,-0.02579,0.01007,-0.00824
7.2195,0.02136,-0.065,-0.01663,0.00488,-0.09262,-0.01236,-0.01785,0.07339,-0.0029,-0.01297,-0.00992,-0.00107,-0.06256,-0.02762,0.01114,-0.04318
7.22,0.00977,-0.0621,-0.01068,0.00458,-0.10986,-0.0116,-0.01419,0.09323,-0.00336,-0.01312,-0.01144,-0.0032,-0.05753,-0.02609,0.0116,-0.05112
7.2205,-0.00061,-0.05661,-0.00885,0.00061,-0.09338,-0.01831,-0.01419,0.06577,-0.00305,-0.01221,-0.02014,-0.00305,-0.05264,-0.02106,0.01205,-0.0441
7.221,-0.01297,-0.05096,-0.01007,-0.00443,-0.06058,-0.03616,-0.0174,0.02594,-0.00336,-0.01282,-0.0354,-0.00214,-0.0499,-0.01511,0.01144,-0.03952
7.2215,-0.02686,-0.04608,-0.01328,-0.0087,-0.03616,-0.06332,-0.01999,0.0087,-0.00473,-0.01328,-0.04623,-0.00153,-0.04654,-0.01328,0.00946,-0.04333
7.222,-0.03983,-0.0412,-0.01541,-0.0116,-0.03067,-0.09689,-0.01816,0.01175,-0.00717,-0.01526,-0.04425,-0.00122,-0.04227,-0.01556,0.00854,-0.05096
7.2225,-0.04868,-0.03784,-0.01953,-0.01434,-0.0325,-0.1326,-0.00961,0.01572,-0.00931,-0.01404,-0.03265,-0.00122,-0.03784,-0.01678,0.00854,-0.05966
7.223,-0.05081,-0.03433,-0.0267,-0.01511,-0.03021,-0.16159,0.00244,0.01282,-0.00977,-0.01266,-0.01816,-0.0032,-0.03311,-0.01633,0.00931,-0.06577
7.2235,-0.04776,-0.03189,-0.03433,-0.01038,-0.02335,-0.1767,0.01129,0.01007,-0.00839,-0.0119,-0.00534,-0.00275,-0.02609,-0.01404,0.01022,-0.06866
7.224,-0.04349,-0.02838,-0.03891,-0.00031,-0.01801,-0.17273,0.01068,0.01083,-0.00717,-0.01221,0.00473,-0.00137,-0.01785,-0.01236,0.01022,-0.06912
7.2245,-0.04013,-0.02533,-0.03891,0.01068,-0.01633,-0.15472,0.00381,0.01312,-0.00839,-0.01373,0.01266,-0.00061,-0.00809,-0.01022,0.01007,-0.07065
7.225,-0.03815,-0.02686,-0.03677,0.01343,-0.01694,-0.13062,-0.00793,0.0116,-0.01251,-0.0145,0.01648,-0.00122,0.00214,-0.00931,0.00961,-0.07553
7.2255,-0.03479,-0.03296,-0.03372,0.00351,-0.01755,-0.10529,-0.0238,0.009,-0.01648,-0.01526,0.01511,-0.00259,0.00992,-0.01053,0.00916,-0.08377
7.226,-0.02762,-0.03998,-0.03143,-0.01587,-0.0174,-0.08514,-0.04303,0.00885,-0.0209,-0.01602,0.01129,-0.00305,0.01099,-0.01495,0.00916,-0.0882
7.2265,-0.01587,-0.04211,-0.03342,-0.03235,-0.01495,-0.06897,-0.05676,0.00977,-0.02625,-0.01755,0.00687,-0.00183,0.00351,-0.02289,0.00885,-0.08026
7.227,-0.00092,-0.03998,-0.0441,-0.03998,-0.00992,-0.05356,-0.05539,0.00946,-0.02991,-0.01846,0.0,0.00168,-0.01251,-0.03281,0.01022,-0.05859
7.2275,0.01221,-0.03784,-0.06042,-0.04486,-0.00443,-0.03677,-0.04395,0.0029,-0.03021,-0.01907,-0.00671,0.00275,-0.03494,-0.04089,0.00992,-0.03601
7.228,0.01709,-0.03845,-0.0769,-0.05295,-0.00259,-0.02304,-0.0354,-0.00824,-0.02716,-0.0206,-0.009,0.00183,-0.05875,-0.04425,0.0087,-0.03128
7.2285,0.01205,-0.03906,-0.09003,-0.05585,-0.00336,-0.01389,-0.03265,-0.01938,-0.02258,-0.02014,-0.009,-0.00015,-0.07797,-0.04456,0.00778,-0.05234
7.229,0.00229,-0.03967,-0.09979,-0.04364,-0.00595,-0.00824,-0.02869,-0.02243,-0.01892,-0.01755,-0.00687,-0.00214,-0.08362,-0.04349,0.00748,-0.08011
7.2295,-0.00473,-0.04028,-0.10666,-0.01846,-0.00946,0.00092,-0.02136,-0.01633,-0.01617,-0.01678,-0.00732,-0.0032,-0.07492,-0.03845,0.00641,-0.08835
7.23,-0.01038,-0.04318,-0.10529,0.00473,-0.01343,0.0087,-0.01633,-0.00824,-0.01434,-0.01724,-0.00732,-0.00366,-0.05829,-0.02899,0.00549,-0.06149
7.2305,-0.01831,-0.04822,-0.09094,0.01221,-0.01984,0.00366,-0.01633,-0.00305,-0.01312,-0.01877,-0.00778,-0.00259,-0.04715,-0.02045,0.00458,-0.00534
7.231,-0.03052,-0.05539,-0.06073,0.00504,-0.02991,-0.02243,-0.01617,-0.00137,-0.01328,-0.01831,-0.01022,-0.00092,-0.04501,-0.01617,0.00351,0.05173
7.2315,-0.03998,-0.06195,-0.02014,-0.00473,-0.03799,-0.0589,-0.01617,-0.00153,-0.01419,-0.01785,-0.01266,0.00061,-0.04532,-0.01572,0.00381,0.0766
7.232,-0.0441,-0.06012,0.01862,-0.00793,-0.04242,-0.08957,-0.01663,-0.00198,-0.01419,-0.01938,-0.01328,0.00244,-0.04105,-0.01709,0.00427,0.05554
7.2325,-0.04486,-0.04471,0.04517,-0.00763,-0.04318,-0.10651,-0.01724,-0.00336,-0.01282,-0.02213,-0.01358,0.0032,-0.03311,-0.0177,0.0058,0.00549
7.233,-0.0415,-0.02121,0.05493,-0.00946,-0.03891,-0.11597,-0.01709,-0.00656,-0.01144,-0.02502,-0.0145,0.00214,-0.02655,-0.01694,0.00702,-0.03967
7.2335,-0.03342,0.00122,0.05356,-0.01419,-0.03403,-0.12436,-0.01556,-0.00916,-0.01129,-0.02472,-0.01511,0.00137,-0.02182,-0.01373,0.0087,-0.05569
7.234,-0.01953,0.01862,0.0444,-0.01678,-0.03204,-0.13504,-0.01434,-0.0119,-0.01312,-0.0235,-0.01541,0.00336,-0.01587,-0.00977,0.00885,-0.04501
7.2345,-0.00443,0.03021,0.03021,-0.01678,-0.03113,-0.1535,-0.01282,-0.01419,-0.01389,-0.01953,-0.0145,0.00687,-0.00946,-0.00763,0.009,-0.03159
7.235,0.00992,0.03357,0.01144,-0.01831,-0.02991,-0.17639,-0.01129,-0.01556,-0.01404,-0.01831,-0.01266,0.00931,-0.0061,-0.00793,0.00885,-0.03403
7.2355,0.02213,0.02945,-0.00671,-0.02335,-0.02884,-0.18768,-0.01099,-0.01511,-0.01328,-0.01816,-0.0119,0.00885,-0.00534,-0.009,0.00626,-0.0499
7.236,0.03189,0.01999,-0.02228,-0.02716,-0.0293,-0.17654,-0.01221,-0.01099,-0.01419,-0.01694,-0.01251,0.0058,-0.00488,-0.01068,0.00336,-0.06714
7.2365,0.03525,0.00916,-0.03342,-0.02228,-0.03006,-0.14786,-0.01328,-0.00488,-0.01602,-0.01663,-0.01556,0.00244,-0.00259,-0.01419,0.00305,-0.08224
7.237,0.02991,-0.00122,-0.04364,-0.0087,-0.03036,-0.11566,-0.01221,-0.00107,-0.0177,-0.01678,-0.01801,0.00107,-0.00229,-0.01785,0.00656,-0.09995
7.2375,0.01968,-0.00946,-0.05051,0.00458,-0.03021,-0.08926,-0.01053,0.00031,-0.01907,-0.01831,-0.01846,0.00259,-0.00458,-0.02136,0.01114,-0.12314
7.238,0.01007,-0.01694,-0.05188,0.01175,-0.02579,-0.0708,-0.00977,-0.00229,-0.02029,-0.02045,-0.01953,0.00381,-0.01007,-0.0235,0.01328,-0.14435
7.2385,0.00641,-0.0209,-0.04654,0.01328,-0.01724,-0.05753,-0.01022,-0.0058,-0.0206,-0.02075,-0.02106,0.00336,-0.01831,-0.02274,0.0145,-0.15335
7.239,0.00687,-0.02441,-0.03922,0.01648,-0.00885,-0.0473,-0.01007,-0.01129,-0.02136,-0.0209,-0.02228,0.00458,-0.02792,-0.02197,0.01526,-0.15137
7.2395,0.01022,-0.02777,-0.03342,0.02274,-0.00565,-0.03677,-0.01053,-0.01434,-0.02258,-0.02075,-0.02289,0.00641,-0.0354,-0.02197,0.0148,-0.13992
7.24,0.01282,-0.03372,-0.03326,0.02625,-0.01007,-0.02609,-0.01114,-0.01541,-0.02243,-0.01953,-0.02304,0.00763,-0.03967,-0.02258,0.01068,-0.11032
7.2405,0.0116,-0.04059,-0.03586,0.02289,-0.01923,-0.01785,-0.01144,-0.01282,-0.02167,-0.01923,-0.02151,0.00793,-0.04196,-0.0238,0.00504,-0.05646
7.241,0.009,-0.04379,-0.03723,0.0177,-0.02975,-0.0119,-0.00946,-0.00946,-0.02121,-0.01846,-0.02106,0.00854,-0.0415,-0.02304,0.00214,0.00717
7.2415,0.00702,-0.04486,-0.03799,0.0145,-0.0354,-0.00595,-0.00717,-0.00824,-0.02136,-0.0177,-0.01999,0.00839,-0.03433,-0.02319,0.00275,0.03983
7.242,0.0061,-0.04578,-0.03845,0.01083,-0.03754,0.00031,-0.00504,-0.00885,-0.02167,-0.01801,-0.01938,0.00839,-0.01831,-0.02228,0.00427,0.02151
7.2425,0.00412,-0.04929,-0.03983,0.00305,-0.03891,0.00687,-0.00137,-0.00946,-0.01999,-0.01907,-0.01938,0.00702,-0.00809,-0.02136,0.00412,-0.02228
7.243,0.00076,-0.05295,-0.03998,-0.00687,-0.04562,0.00977,0.00656,-0.00946,-0.01831,-0.01953,-0.01938,0.00488,-0.01541,-0.02121,0.00397,-0.04807
7.2435,-0.00107,-0.05814,-0.03906,-0.01419,-0.05646,0.00168,0.01434,-0.00931,-0.01724,-0.02014,-0.01755,0.00381,-0.03387,-0.02075,0.00259,-0.04196
7.244,0.00244,-0.06149,-0.03723,-0.02029,-0.06805,-0.01709,0.01541,-0.00946,-0.01678,-0.01923,-0.01617,0.00275,-0.04898,-0.01968,0.00366,-0.02853
7.2445,0.00687,-0.0618,-0.03693,-0.03067,-0.06989,-0.0386,0.00931,-0.00946,-0.01556,-0.01846,-0.01663,0.00183,-0.05615,-0.0177,0.00809,-0.02777
7.245,0.00854,-0.06195,-0.03571,-0.0415,-0.06256,-0.04715,0.00046,-0.00961,-0.01404,-0.01907,-0.01892,0.0,-0.05859,-0.01373,0.01221,-0.03235
7.2455,0.00687,-0.0618,-0.03647,-0.04593,-0.05157,-0.03769,-0.00534,-0.00992,-0.01465,-0.01831,-0.02029,-0.0029,-0.06042,-0.00992,0.01373,-0.03265
7.246,0.00656,-0.06226,-0.03891,-0.03998,-0.04547,-0.02258,-0.00839,-0.00961,-0.01602,-0.01846,-0.01877,-0.00351,-0.06073,-0.00687,0.01038,-0.03113
7.2465,0.00671,-0.06378,-0.04379,-0.02869,-0.04181,-0.01556,-0.01266,-0.00626,-0.01678,-0.01999,-0.01694,-0.00168,-0.05966,-0.00504,0.00565,-0.04288
7.247,0.00549,-0.0621,-0.04654,-0.01648,-0.03708,-0.01465,-0.02075,-0.00061,-0.01724,-0.02014,-0.01663,0.00183,-0.05646,-0.00305,0.00198,-0.06302
7.2475,0.00229,-0.05661,-0.04623,-0.00824,-0.03189,-0.01358,-0.03174,0.00153,-0.01694,-0.02228,-0.01663,0.00412,-0.05112,-0.00046,0.00061,-0.07553
7.248,-0.00183,-0.05035,-0.04471,-0.00519,-0.02945,-0.01175,-0.04593,0.00076,-0.01602,-0.02167,-0.01602,0.00519,-0.04227,0.00275,-0.00168,-0.07187
7.2485,-0.00458,-0.04822,-0.04166,-0.00549,-0.02975,-0.009,-0.05981,-0.00198,-0.01419,-0.02014,-0.01465,0.00412,-0.03265,0.00641,-0.00549,-0.0528
7.249,-0.00473,-0.05173,-0.03845,-0.00778,-0.03036,-0.00671,-0.06332,-0.00305,-0.01266,-0.01907,-0.01251,0.0029,-0.02716,0.0087,-0.00931,-0.01617
7.2495,-0.00336,-0.056,-0.03647,-0.00626,-0.0296,-0.00031,-0.05188,-0.00214,-0.01221,-0.01724,-0.01099,0.00244,-0.02792,0.00809,-0.00946,0.04364
7.25,-0.00061,-0.06088,-0.03647,-0.00275,-0.02853,0.01007,-0.03265,0.00046,-0.01312,-0.01617,-0.01053,0.00381,-0.03021,0.00412,-0.00381,0.10162
7.2505,-0.00031,-0.06317,-0.03738,-0.00046,-0.02899,0.01984,-0.01816,0.00305,-0.01312,-0.01556,-0.01221,0.00549,-0.03067,-0.00061,0.00397,0.10864
7.251,-0.00259,-0.06104,-0.03754,-0.00229,-0.03067,0.0206,-0.0119,0.00305,-0.0119,-0.01617,-0.01511,0.0058,-0.02823,-0.00412,0.01038,0.04776
7.2515,-0.00534,-0.05722,-0.03632,-0.0058,-0.03189,0.01617,-0.00885,0.00183,-0.01114,-0.01801,-0.01678,0.00534,-0.02365,-0.00534,0.01358,-0.02884
7.252,-0.00687,-0.05371,-0.03342,-0.00702,-0.03174,0.01907,-0.0061,0.00076,-0.01175,-0.01968,-0.01572,0.00381,-0.01648,-0.0058,0.01617,-0.05402
7.2525,-0.00748,-0.05341,-0.0322,-0.00214,-0.03098,0.03143,-0.00397,0.00198,-0.01434,-0.02304,-0.01511,0.00412,-0.00809,-0.0058,0.01816,-0.02457
7.253,-0.00977,-0.056,-0.0354,0.0058,-0.02991,0.04105,-0.00397,0.00427,-0.01663,-0.02411,-0.0148,0.00443,-0.00351,-0.00809,0.01953,-0.00488
7.2535,-0.01358,-0.05493,-0.04089,0.01099,-0.03036,0.03281,-0.00504,0.00443,-0.01755,-0.0238,-0.01389,0.00473,-0.00397,-0.01114,0.01907,-0.03662
7.254,-0.01938,-0.05371,-0.04456,0.00977,-0.02853,0.00763,-0.00656,0.00076,-0.01785,-0.02182,-0.01266,0.00366,-0.00748,-0.01556,0.01816,-0.08804
7.2545,-0.02457,-0.05142,-0.04257,0.00473,-0.02686,-0.02197,-0.00717,-0.00336,-0.01678,-0.02197,-0.01251,0.00137,-0.01068,-0.01923,0.01907,-0.10971
7.255,-0.02975,-0.05264,-0.04059,0.00061,-0.02502,-0.04593,-0.00946,-0.00458,-0.0145,-0.0209,-0.01389,0.00031,-0.01602,-0.02075,0.01984,-0.09125
7.2555,-0.0354,-0.05386,-0.03876,-0.00412,-0.02487,-0.06668,-0.01083,-0.00458,-0.01404,-0.02014,-0.01465,0.00076,-0.02563,-0.02228,0.01434,-0.06439
7.256,-0.0412,-0.05508,-0.03845,-0.01297,-0.0238,-0.08972,-0.01083,-0.00626,-0.01602,-0.02106,-0.01175,0.00137,-0.03479,-0.02411,0.00748,-0.05295
7.2565,-0.04303,-0.05264,-0.0383,-0.02243,-0.0235,-0.11246,-0.00946,-0.00977,-0.01923,-0.02045,-0.00992,0.00137,-0.03967,-0.02625,0.00214,-0.04974
7.257,-0.04044,-0.04868,-0.03723,-0.02319,-0.02457,-0.12146,-0.00854,-0.01129,-0.02319,-0.01877,-0.01083,0.00168,-0.04166,-0.02975,-0.00427,-0.0412
7.2575,-0.03799,-0.04425,-0.03571,-0.01282,-0.02533,-0.11108,-0.00885,-0.01083,-0.02548,-0.01938,-0.01404,0.0032,-0.04227,-0.0322,-0.01892,-0.02899
7.258,-0.03769,-0.0415,-0.0354,0.00061,-0.02609,-0.09247,-0.01068,-0.00809,-0.02518,-0.0206,-0.01312,0.00488,-0.04135,-0.03387,-0.0325,-0.03052
7.2585,-0.03891,-0.03998,-0.03754,0.00778,-0.02716,-0.07782,-0.01053,-0.00458,-0.0235,-0.02106,-0.00992,0.00443,-0.03464,-0.0322,-0.02029,-0.04684
7.259,-0.03891,-0.04044,-0.04105,0.00488,-0.02823,-0.06973,-0.00992,-0.00504,-0.02228,-0.02182,-0.00946,0.00443,-0.02533,-0.02914,0.01923,-0.05508
7.2595,-0.03479,-0.04349,-0.04608,-0.00443,-0.02884,-0.06104,-0.01007,-0.00778,-0.02213,-0.02151,-0.01053,0.00519,-0.01846,-0.02441,0.05249,-0.03922
7.26,-0.02869,-0.0473,-0.05005,-0.01419,-0.02762,-0.04929,-0.01083,-0.01022,-0.02045,-0.02151,-0.00992,0.0061,-0.01846,-0.02396,0.04898,-0.01389
7.2605,-0.02182,-0.05157,-0.05142,-0.0209,-0.02731,-0.03983,-0.01129,-0.00824,-0.01877,-0.01999,-0.00671,0.0058,-0.02426,-0.02655,0.01831,-0.009
7.261,-0.01465,-0.0528,-0.0473,-0.02136,-0.02838,-0.0354,-0.01099,-0.00366,-0.01678,-0.01907,-0.0058,0.00473,-0.03159,-0.02777,-0.00717,-0.03113
7.2615,-0.00809,-0.05142,-0.04028,-0.01373,-0.03021,-0.03143,-0.01038,-0.00122,-0.01556,-0.01846,-0.00717,0.00381,-0.03494,-0.02441,-0.01434,-0.06592
7.262,-0.00259,-0.0502,-0.03265,-0.00427,-0.03189,-0.0264,-0.01083,-0.00229,-0.01541,-0.01801,-0.01068,0.0032,-0.03571,-0.01862,-0.01617,-0.09415
7.2625,0.00107,-0.04898,-0.02655,-0.00153,-0.03174,-0.02075,-0.01144,-0.00534,-0.01526,-0.01755,-0.01114,0.00275,-0.03891,-0.01541,-0.02487,-0.1059
7.263,0.00488,-0.047,-0.02228,-0.00778,-0.0293,-0.01373,-0.01053,-0.00641,-0.01404,-0.0174,-0.01114,0.00198,-0.04059,-0.01556,-0.0412,-0.09781
7.2635,0.0087,-0.04303,-0.01862,-0.01602,-0.02594,-0.00473,-0.00885,-0.00488,-0.01251,-0.01663,-0.01175,0.00168,-0.03937,-0.01709,-0.06042,-0.08224
7.264,0.01129,-0.03998,-0.01755,-0.01724,-0.02182,0.00626,-0.0058,-0.00198,-0.01328,-0.01648,-0.01343,0.00183,-0.03189,-0.01709,-0.08011,-0.07523
7.2645,0.01297,-0.03922,-0.01892,-0.00824,-0.01877,0.02136,-0.00504,-0.00031,-0.01526,-0.01663,-0.01511,0.00092,-0.02533,-0.01724,-0.08484,-0.08026
7.265,0.01221,-0.04105,-0.02213,0.00427,-0.01404,0.03967,-0.00595,-0.00092,-0.01648,-0.01678,-0.01434,0.00107,-0.02655,-0.01831,-0.05066,-0.07828
7.2655,0.00931,-0.04333,-0.02625,0.01266,-0.00961,0.05768,-0.00824,-0.00381,-0.01663,-0.01801,-0.01312,0.00076,-0.0325,-0.02167,0.02029,-0.05371
7.266,0.00473,-0.04578,-0.0267,0.01068,-0.0087,0.05417,-0.00977,-0.00839,-0.01755,-0.01846,-0.01358,-0.00015,-0.04044,-0.02594,0.07278,-0.00717
7.2665,-0.00031,-0.04868,-0.02441,-0.00031,-0.00626,0.0061,-0.00854,-0.01205,-0.01953,-0.01984,-0.01541,-0.00092,-0.04517,-0.02991,0.06439,0.04425
7.267,-0.00504,-0.05051,-0.02502,-0.01297,-0.00137,-0.07324,-0.00778,-0.01114,-0.02014,-0.01953,-0.01678,-0.00015,-0.04379,-0.03021,0.0296,0.07797
7.2675,-0.00717,-0.05234,-0.03067,-0.01923,0.00214,-0.13596,-0.01022,-0.00839,-0.02075,-0.01923,-0.01816,0.00122,-0.03815,-0.02609,0.0267,0.07751
7.268,-0.00687,-0.05219,-0.0383,-0.01526,-0.00046,-0.14694,-0.01999,-0.00534,-0.0206,-0.01938,-0.0177,0.00229,-0.03021,-0.01892,0.05127,0.04349
7.2685,-0.00504,-0.05127,-0.04639,-0.00397,-0.009,-0.12054,-0.03418,-0.00381,-0.02075,-0.01999,-0.01556,0.00183,-0.02472,-0.01373,0.06882,-0.00977
7.269,-0.00397,-0.04929,-0.05112,0.00214,-0.01419,-0.08865,-0.04471,-0.00381,-0.01892,-0.01923,-0.01343,-0.00046,-0.02853,-0.01343,0.07507,-0.05875
7.2695,-0.00351,-0.047,-0.05203,-0.00763,-0.00824,-0.07156,-0.05112,-0.00519,-0.01755,-0.01877,-0.01389,-0.0029,-0.03632,-0.01907,0.09277,-0.09079
7.27,-0.0029,-0.0441,-0.04776,-0.0296,0.00305,-0.0679,-0.05676,-0.00748,-0.01663,-0.01938,-0.01663,-0.00504,-0.04196,-0.02411,0.11673,-0.11322
7.2705,-0.00275,-0.04181,-0.03998,-0.04761,0.00198,-0.07065,-0.06378,-0.00977,-0.0174,-0.02197,-0.01892,-0.00366,-0.0444,-0.02731,0.1265,-0.13779
7.271,-0.00351,-0.04074,-0.03387,-0.05188,-0.02365,-0.07126,-0.06714,-0.01022,-0.01907,-0.02274,-0.01831,-0.00076,-0.04654,-0.0293,0.11292,-0.15625
7.2715,-0.00412,-0.03967,-0.02625,-0.04715,-0.06378,-0.06897,-0.06714,-0.01022,-0.01984,-0.02045,-0.01755,0.00198,-0.04959,-0.03143,0.08621,-0.13885
7.272,-0.00244,-0.03632,-0.01678,-0.04272,-0.09644,-0.06866,-0.07233,-0.01007,-0.01938,-0.01816,-0.01923,0.00275,-0.0473,-0.0322,0.05676,-0.06317
7.2725,0.00259,-0.02945,-0.00763,-0.04135,-0.10666,-0.07629,-0.08972,-0.00839,-0.01846,-0.0174,-0.02197,0.0032,-0.03799,-0.02899,0.03067,0.04303
7.273,0.00824,-0.02182,-0.00473,-0.03952,-0.09781,-0.08469,-0.10101,-0.00488,-0.01694,-0.01709,-0.02151,0.00275,-0.02655,-0.02182,-0.00031,0.11169
7.2735,0.01236,-0.01587,-0.00748,-0.0354,-0.08133,-0.08347,-0.07462,0.00031,-0.01495,-0.01755,-0.01801,0.00092,-0.0206,-0.01404,-0.04593,0.10971
7.274,0.01404,-0.01236,-0.0145,-0.03204,-0.06378,-0.07141,-0.00549,0.00351,-0.01541,-0.01648,-0.01541,-0.00076,-0.02045,-0.01099,-0.10345,0.0676
7.2745,0.01419,-0.01266,-0.01953,-0.03204,-0.0531,-0.0531,0.07813,0.00473,-0.01617,-0.01495,-0.01648,0.00046,-0.02289,-0.01404,-0.13901,0.03189
7.275,0.01312,-0.01877,-0.02182,-0.03418,-0.05005,-0.04181,0.14465,0.00336,-0.01511,-0.0145,-0.01862,0.00336,-0.02243,-0.01968,-0.12054,0.01251
7.2755,0.01053,-0.02914,-0.02197,-0.0354,-0.05096,-0.03738,0.17731,0.00153,-0.01587,-0.01511,-0.02029,0.0058,-0.01923,-0.02243,-0.05539,-0.00015
7.276,0.00763,-0.03937,-0.02136,-0.03403,-0.05005,-0.03891,0.1683,0.00092,-0.01724,-0.01648,-0.02045,0.00626,-0.01709,-0.0209,0.00351,-0.01099
7.2765,0.00702,-0.04532,-0.0238,-0.0325,-0.047,-0.04059,0.12131,0.00214,-0.01663,-0.01862,-0.02106,0.00534,-0.01892,-0.01907,0.02075,-0.02045
7.277,0.00641,-0.04822,-0.03052,-0.03433,-0.04532,-0.03998,0.06714,0.00275,-0.01633,-0.01984,-0.02106,0.00183,-0.02274,-0.01892,0.00809,-0.03021
7.2775,0.00641,-0.05096,-0.03738,-0.03586,-0.047,-0.03311,0.03647,0.00092,-0.01587,-0.01999,-0.02014,-0.00351,-0.02594,-0.02045,-0.00153,-0.04013
7.278,0.00595,-0.05203,-0.03906,-0.03601,-0.04852,-0.02167,0.02853,-0.00244,-0.01526,-0.02121,-0.01862,-0.00656,-0.02731,-0.0206,0.00122,-0.04425
7.2785,0.00473,-0.05005,-0.03632,-0.03418,-0.04791,-0.00854,0.02075,-0.00671,-0.01389,-0.02182,-0.01755,-0.00595,-0.02991,-0.02258,0.00656,-0.04623
7.279,0.00183,-0.047,-0.03265,-0.02991,-0.04425,0.00076,0.00015,-0.00778,-0.01373,-0.02197,-0.01694,-0.00977,-0.03693,-0.02716,0.0087,-0.05341
7.2795,-0.00198,-0.04593,-0.03189,-0.02182,-0.03754,0.0061,-0.02243,-0.00549,-0.01312,-0.0206,-0.01694,-0.03036,-0.04822,-0.03113,0.01221,-0.06729
7.28,-0.00412,-0.04578,-0.0325,-0.00961,-0.0322,0.00549,-0.04013,-0.00244,-0.01236,-0.01709,-0.01724,-0.06363,-0.05615,-0.03082,0.01648,-0.0679
7.2805,-0.00839,-0.04425,-0.03479,0.00061,-0.02823,0.00107,-0.06104,-0.00305,-0.01236,-0.01419,-0.01602,-0.08606,-0.05707,-0.02747,0.01801,-0.04242
7.281,-0.01495,-0.04318,-0.03983,0.00427,-0.02274,-0.00732,-0.1033,-0.00885,-0.01038,-0.01266,-0.01465,-0.08255,-0.05234,-0.02274,0.01373,-0.00671
7.2815,-0.02121,-0.04272,-0.04761,-0.00046,-0.01556,-0.01877,-0.17426,-0.01511,-0.01114,-0.01404,-0.01419,-0.06516,-0.04379,-0.01755,0.01068,0.01297
7.282,-0.02457,-0.04379,-0.05508,-0.00687,-0.01068,-0.0325,-0.24017,-0.01587,-0.00992,-0.01511,-0.01511,-0.04501,-0.03448,-0.01419,0.01144,0.00961
7.2825,-0.02319,-0.04059,-0.06027,-0.00793,-0.01678,-0.04898,-0.23895,-0.01312,-0.01083,-0.01663,-0.01709,-0.0116,-0.02777,-0.01297,0.01205,-0.00229
7.283,-0.01892,-0.03265,-0.06256,-0.00488,-0.03403,-0.06699,-0.14328,-0.00916,-0.0116,-0.01724,-0.01907,0.04913,-0.0267,-0.01389,0.01099,-0.01358
7.2835,-0.0148,-0.02686,-0.0592,-0.00198,-0.05066,-0.0856,-0.0087,-0.00778,-0.01114,-0.01724,-0.02075,0.11185,-0.03326,-0.01541,0.00885,-0.03311
7.284,-0.01266,-0.02594,-0.0528,-0.00381,-0.05722,-0.09842,0.07767,-0.00977,-0.01297,-0.01831,-0.02075,0.13382,-0.04318,-0.01785,0.00763,-0.06927
7.2845,-0.01083,-0.02945,-0.04211,-0.00504,-0.0563,-0.10071,0.09216,-0.01251,-0.01495,-0.01953,-0.02045,0.10834,-0.04974,-0.0209,0.00946,-0.11673
7.285,-0.00793,-0.03311,-0.03021,0.00214,-0.05524,-0.09308,0.07599,-0.01358,-0.01556,-0.01999,-0.01938,0.07675,-0.05264,-0.02258,0.01434,-0.15518
7.2855,-0.0058,-0.03555,-0.02106,0.01602,-0.05402,-0.07828,0.065,-0.00809,-0.01556,-0.01984,-0.02045,0.06699,-0.05173,-0.02289,0.01907,-0.16968
7.286,-0.0032,-0.03738,-0.01526,0.02472,-0.05035,-0.06332,0.05676,-0.00046,-0.01709,-0.01877,-0.02045,0.06546,-0.04852,-0.02106,0.01541,-0.16449
7.2865,-0.00046,-0.04166,-0.01297,0.02258,-0.0441,-0.04974,0.0386,0.00504,-0.01602,-0.01816,-0.02121,0.04929,-0.04211,-0.01755,0.0,-0.15717
7.287,-0.00015,-0.04868,-0.01465,0.01419,-0.03845,-0.04059,0.01648,0.00366,-0.01602,-0.01785,-0.0209,0.03113,-0.03571,-0.01602,-0.01923,-0.16815
7.2875,-0.00229,-0.05737,-0.02014,0.0087,-0.03525,-0.03418,0.00275,0.00015,-0.01709,-0.01968,-0.02014,0.02853,-0.03418,-0.0177,-0.02914,-0.19989
7.288,-0.00504,-0.06348,-0.02991,0.00763,-0.0293,-0.02594,-0.00031,-0.00076,-0.01831,-0.01999,-0.01846,0.03494,-0.03754,-0.0209,-0.02701,-0.22018
7.2885,-0.00412,-0.06378,-0.03906,0.01068,-0.02136,-0.01495,-0.00443,0.00427,-0.01831,-0.01923,-0.01602,0.03357,-0.04135,-0.02121,-0.01434,-0.17502
7.289,-0.00031,-0.05859,-0.04578,0.01633,-0.01419,-0.00229,-0.01511,0.00839,-0.01617,-0.01755,-0.01511,0.02136,-0.04166,-0.01984,-0.00198,-0.04898
7.2895,0.00397,-0.05066,-0.04898,0.02335,-0.00824,0.00519,-0.0264,0.0061,-0.01541,-0.01602,-0.01541,0.00824,-0.03876,-0.01968,0.00778,0.09308
7.29,0.00519,-0.04318,-0.05035,0.02655,-0.00519,0.00351,-0.02792,0.0,-0.01877,-0.01541,-0.01648,-0.00229,-0.0351,-0.02121,0.02029,0.15671
7.2905,0.00366,-0.03693,-0.05081,0.02258,-0.00229,-0.00473,-0.01709,-0.00183,-0.02151,-0.01373,-0.01755,-0.01465,-0.0325,-0.02213,0.03983,0.11536
7.291,0.00061,-0.03159,-0.04929,0.01434,-0.00076,-0.01556,-0.00046,0.0029,-0.02182,-0.01297,-0.01663,-0.03326,-0.03113,-0.02106,0.05951,0.04166
7.2915,-0.00198,-0.02884,-0.04593,0.00687,-0.00671,-0.03098,0.01266,0.01038,-0.02014,-0.01404,-0.01633,-0.0592,-0.03082,-0.02075,0.06378,0.01816
7.292,-0.00443,-0.02853,-0.04181,0.00214,-0.02197,-0.05356,0.01587,0.0145,-0.01846,-0.01556,-0.01663,-0.08759,-0.03128,-0.02182,0.04639,0.04471
7.2925,-0.00366,-0.02899,-0.03662,0.00046,-0.03906,-0.08087,0.00977,0.01373,-0.01755,-0.0174,-0.01862,-0.09964,-0.03098,-0.02304,0.01892,0.06256
7.293,-0.00061,-0.02838,-0.02808,0.00198,-0.04684,-0.1033,0.00076,0.00992,-0.01785,-0.01907,-0.0206,-0.09003,-0.02914,-0.02243,-0.00351,0.04562
7.2935,0.00214,-0.02731,-0.0206,0.00702,-0.0412,-0.11627,-0.00671,0.00671,-0.01755,-0.0209,-0.02106,-0.07904,-0.02747,-0.02106,-0.009,0.02136
7.294,0.00381,-0.02563,-0.01373,0.0119,-0.03235,-0.11795,-0.01266,0.00504,-0.01648,-0.02151,-0.01938,-0.07904,-0.02579,-0.02045,-0.00229,0.0116
7.2945,0.00412,-0.02289,-0.00854,0.01678,-0.02975,-0.10422,-0.01678,0.00488,-0.01541,-0.01907,-0.01648,-0.07339,-0.02441,-0.0206,0.00641,0.00809
7.295,0.00336,-0.02045,-0.00687,0.0206,-0.03387,-0.07507,-0.01953,0.00214,-0.01404,-0.01648,-0.01419,-0.05478,-0.02258,-0.02121,0.00717,-0.00793
7.2955,0.00137,-0.01999,-0.00687,0.0177,-0.04166,-0.03815,-0.02335,-0.00519,-0.01587,-0.01617,-0.01251,-0.05844,-0.02228,-0.02228,0.00137,-0.03204
7.296,0.0,-0.02487,-0.01038,0.00122,-0.05005,-0.00473,-0.02914,-0.01465,-0.01511,-0.01907,-0.0119,-0.11658,-0.02426,-0.02319,-0.00641,-0.05234
7.2965,0.00031,-0.03128,-0.01541,-0.02441,-0.05859,0.02136,-0.03708,-0.01938,-0.0148,-0.01999,-0.01343,-0.186,-0.02655,-0.02426,-0.0119,-0.0618
7.297,0.00046,-0.03464,-0.02304,-0.04181,-0.06134,0.03784,-0.04166,-0.01877,-0.01556,-0.01984,-0.01495,-0.18723,-0.02945,-0.02594,-0.01282,-0.06454
7.2975,-0.00046,-0.03418,-0.02975,-0.03983,-0.05615,0.04608,-0.04425,-0.01526,-0.01541,-0.01984,-0.01633,-0.11551,-0.03082,-0.02655,-0.00854,-0.06149
7.298,-0.00336,-0.03464,-0.03433,-0.02609,-0.04608,0.04166,-0.04471,-0.01114,-0.01556,-0.02045,-0.01572,-0.03998,-0.03021,-0.02502,-0.00397,-0.05432
7.2985,-0.00702,-0.03723,-0.03494,-0.01816,-0.0351,0.02304,-0.04059,-0.00977,-0.01358,-0.02045,-0.01526,-0.00031,-0.02991,-0.02335,0.00122,-0.04684
7.299,-0.00824,-0.04028,-0.03418,-0.02151,-0.02396,-0.00381,-0.03235,-0.01038,-0.01282,-0.01801,-0.01434,0.03769,-0.03403,-0.02243,0.00488,-0.0441
7.2995,-0.0058,-0.04013,-0.03296,-0.02823,-0.01755,-0.03006,-0.02548,-0.01038,-0.01251,-0.01709,-0.01297,0.12238,-0.04288,-0.02274,0.00809,-0.04837
7.3,-0.00122,-0.03998,-0.03433,-0.02686,-0.01862,-0.05325,-0.01984,-0.00977,-0.01312,-0.01724,-0.01205,0.24689,-0.05325,-0.02274,0.0116,-0.05478
7.3005,0.00275,-0.04166,-0.03708,-0.01633,-0.02518,-0.07675,-0.01282,-0.00488,-0.01389,-0.01907,-0.01312,0.34866,-0.0589,-0.02151,0.01572,-0.05951
7.301,0.00397,-0.04456,-0.04013,-0.00809,-0.02991,-0.09079,0.00092,0.00183,-0.01419,-0.01877,-0.01526,0.35675,-0.05539,-0.0209,0.01862,-0.06027
7.3015,0.0032,-0.047,-0.04593,-0.01022,-0.02914,-0.08179,0.02243,0.0087,-0.01389,-0.01831,-0.0177,0.26642,-0.04608,-0.02075,0.01801,-0.06119
7.302,0.00214,-0.04745,-0.0531,-0.02258,-0.02502,-0.05615,0.03845,0.01282,-0.01389,-0.01785,-0.01801,0.14755,-0.03784,-0.01831,0.01694,-0.06271
7.3025,0.00092,-0.04669,-0.0592,-0.03311,-0.02396,-0.03479,0.03555,0.01129,-0.01419,-0.01892,-0.01694,0.06424,-0.03387,-0.01434,0.01617,-0.06439
7.303,0.00031,-0.04684,-0.06058,-0.03464,-0.02487,-0.02884,0.0119,0.00198,-0.01526,-0.01907,-0.01572,0.00931,-0.03387,-0.01297,0.01633,-0.06363
7.3035,0.0,-0.0473,-0.05859,-0.03067,-0.02518,-0.03128,-0.01801,-0.01541,-0.01572,-0.02014,-0.01587,-0.04425,-0.03494,-0.0148,0.01694,-0.06302
7.304,-0.00046,-0.04807,-0.05493,-0.02792,-0.02472,-0.03464,-0.03098,-0.03265,-0.01617,-0.02167,-0.0148,-0.08209,-0.03662,-0.01816,0.01434,-0.0618
7.3045,-0.00153,-0.04822,-0.05157,-0.02563,-0.0238,-0.03815,-0.0209,-0.03906,-0.01602,-0.02243,-0.0145,-0.08759,-0.03769,-0.01968,0.01221,-0.0621
7.305,-0.00031,-0.04837,-0.04623,-0.02213,-0.02213,-0.0412,-0.01343,-0.03342,-0.01587,-0.02167,-0.01495,-0.08759,-0.03693,-0.01923,0.01129,-0.0621
7.3055,0.00198,-0.047,-0.03967,-0.01755,-0.01984,-0.04532,-0.03601,-0.02533,-0.01648,-0.02075,-0.0148,-0.10864,-0.03571,-0.01633,0.01312,-0.06104
7.306,0.00443,-0.0444,-0.03494,-0.01572,-0.01617,-0.04593,-0.0824,-0.02014,-0.01587,-0.02151,-0.01297,-0.11551,-0.03448,-0.01373,0.01648,-0.06027
7.3065,0.0029,-0.04074,-0.0386,-0.01678,-0.01617,-0.04425,-0.1236,-0.02045,-0.01587,-0.02289,-0.01221,-0.06393,-0.03418,-0.0145,0.01587,-0.0589
7.307,-0.0032,-0.03738,-0.05875,-0.01923,-0.01724,-0.04089,-0.13184,-0.02655,-0.0148,-0.02274,-0.01343,-0.00259,-0.03372,-0.01633,0.01343,-0.05753
7.3075,-0.00946,-0.0351,-0.09399,-0.02121,-0.01923,-0.03952,-0.11444,-0.03647,-0.01495,-0.02243,-0.01602,-0.01923,-0.0325,-0.01831,0.00977,-0.05737
7.308,-0.01343,-0.03265,-0.13687,-0.02304,-0.02243,-0.04074,-0.09354,-0.04333,-0.0148,-0.02258,-0.01663,-0.10254,-0.03189,-0.01984,0.00824,-0.05814
7.3085,-0.01343,-0.03189,-0.17746,-0.02533,-0.02777,-0.04364,-0.08469,-0.0412,-0.01541,-0.02228,-0.01526,-0.14786,-0.03174,-0.01984,0.009,-0.05966
7.309,-0.01022,-0.03189,-0.20844,-0.02518,-0.03525,-0.04547,-0.08133,-0.0325,-0.01572,-0.02304,-0.01312,-0.10483,-0.03265,-0.01999,0.0119,-0.05981
7.3095,-0.00702,-0.03235,-0.21667,-0.02029,-0.04059,-0.04547,-0.07187,-0.02625,-0.01419,-0.02304,-0.00977,-0.03052,-0.03296,-0.02075,0.01099,-0.05768
7.31,-0.00504,-0.03128,-0.18951,-0.01328,-0.03876,-0.04898,-0.05661,-0.01907,-0.01328,-0.02136,-0.00793,0.00046,-0.03143,-0.0209,0.00809,-0.05569
7.3105,-0.00473,-0.03143,-0.12344,-0.01144,-0.03006,-0.05936,-0.05157,-0.00259,-0.01358,-0.01862,-0.00916,-0.02167,-0.02899,-0.01938,0.00565,-0.05554
7.311,-0.00443,-0.03326,-0.03006,-0.01648,-0.0209,-0.07339,-0.07523,0.0238,-0.01526,-0.01694,-0.00946,-0.05646,-0.02716,-0.01755,0.00519,-0.05646
7.3115,-0.00443,-0.03525,0.07111,-0.0174,-0.01266,-0.08499,-0.12268,0.0441,-0.01709,-0.01755,-0.00977,-0.07202,-0.02686,-0.01587,0.0058,-0.05905
7.312,-0.00549,-0.03662,0.15808,-0.00549,-0.00717,-0.09399,-0.15839,0.04395,-0.01801,-0.01877,-0.01007,-0.06317,-0.02762,-0.01663,0.00671,-0.05905
7.3125,-0.00854,-0.03769,0.21194,0.01297,-0.00519,-0.09567,-0.13535,0.02548,-0.01724,-0.01923,-0.01114,-0.03647,-0.02914,-0.01846,0.00778,-0.0563
7.313,-0.01389,-0.03983,0.22293,0.02274,-0.00534,-0.07889,-0.04623,0.00595,-0.0174,-0.01816,-0.01099,-0.00198,-0.02869,-0.01938,0.00839,-0.05264
7.3135,-0.0206,-0.04242,0.2005,0.0177,-0.01114,-0.04166,0.06775,-0.00351,-0.01816,-0.01465,-0.01068,0.01984,-0.02792,-0.01907,0.009,-0.05188
7.314,-0.02762,-0.04333,0.16129,0.01022,-0.02701,0.00214,0.15808,-0.00412,-0.01938,-0.01389,-0.00946,0.00885,-0.02792,-0.01831,0.00748,-0.05249
7.3145,-0.03342,-0.04532,0.12115,0.00946,-0.05173,0.02655,0.20096,-0.00214,-0.02213,-0.0148,-0.00839,-0.02731,-0.02914,-0.01862,0.00641,-0.05203
7.315,-0.03784,-0.04868,0.08072,0.01114,-0.07278,0.02182,0.19073,0.00259,-0.0238,-0.01633,-0.00793,-0.05783,-0.03036,-0.01846,0.00763,-0.05112
7.3155,-0.04044,-0.05463,0.04196,0.0061,-0.07645,-0.00427,0.14114,0.00916,-0.0238,-0.01587,-0.00809,-0.065,-0.02853,-0.01694,0.00977,-0.05142
7.316,-0.03983,-0.05997,0.00641,-0.00549,-0.065,-0.03922,0.08469,0.01053,-0.02136,-0.01511,-0.00946,-0.05493,-0.02731,-0.01694,0.00931,-0.05142
7.3165,-0.03647,-0.06348,-0.02106,-0.01328,-0.05142,-0.07004,0.04898,0.00717,-0.0174,-0.0148,-0.01038,-0.03571,-0.02869,-0.01968,0.00885,-0.05203
7.317,-0.03159,-0.06683,-0.04089,-0.0116,-0.04547,-0.08987,0.03387,0.00351,-0.01648,-0.0174,-0.009,-0.00137,-0.03159,-0.02213,0.00916,-0.05371
7.3175,-0.02777,-0.07111,-0.05219,-0.00275,-0.04288,-0.1004,0.02228,0.00336,-0.01587,-0.01923,-0.00748,0.05356,-0.0322,-0.02304,0.00961,-0.05447
7.318,-0.02579,-0.07538,-0.06027,0.00595,-0.03998,-0.10895,0.01007,0.00366,-0.01663,-0.01801,-0.00717,0.10956,-0.03204,-0.02151,0.00992,-0.05371
7.3185,-0.02548,-0.07492,-0.0621,0.0148,-0.0351,-0.11276,0.00229,0.00061,-0.01816,-0.01556,-0.0087,0.13428,-0.03128,-0.02075,0.00824,-0.05081
7.319,-0.02441,-0.0676,-0.06042,0.01999,-0.03128,-0.10422,0.00076,-0.00229,-0.01862,-0.01541,-0.00977,0.11917,-0.03128,-0.02014,0.00946,-0.04898
7.3195,-0.02304,-0.05692,-0.05753,0.01694,-0.02945,-0.07767,0.00244,-0.00122,-0.01831,-0.01556,-0.01022,0.08347,-0.02991,-0.01846,0.01114,-0.04837
7.32,-0.01785,-0.04974,-0.05615,0.00397,-0.02731,-0.03998,0.00137,0.00198,-0.01755,-0.0177,-0.01083,0.04913,-0.02869,-0.01724,0.01221,-0.04929
7.3205,-0.01022,-0.04578,-0.05722,-0.01205,-0.02655,-0.00275,-0.00305,0.00443,-0.01694,-0.01694,-0.01038,0.02609,-0.02899,-0.0174,0.01053,-0.04868
7.321,-0.00397,-0.04181,-0.05753,-0.02502,-0.02625,0.02747,-0.00931,0.00336,-0.01602,-0.01694,-0.00885,0.01404,-0.03113,-0.01785,0.00824,-0.04898
7.3215,-0.00107,-0.03571,-0.0563,-0.03204,-0.02609,0.04837,-0.01205,-0.00092,-0.01495,-0.01694,-0.00732,0.01297,-0.03281,-0.02014,0.00778,-0.04929
7.322,0.0,-0.03143,-0.05417,-0.03479,-0.02411,0.05417,-0.01434,-0.00488,-0.01358,-0.01755,-0.00671,0.01831,-0.03281,-0.02014,0.01038,-0.04745
7.3225,-0.00046,-0.03036,-0.05249,-0.0322,-0.02304,0.03799,-0.01434,-0.00885,-0.01404,-0.01862,-0.00793,0.02411,-0.03159,-0.01923,0.01205,-0.04333
7.323,-0.00473,-0.03052,-0.05188,-0.02502,-0.02426,0.00885,-0.01266,-0.01083,-0.01617,-0.01907,-0.01007,0.02213,-0.03021,-0.01694,0.01282,-0.04028
7.3235,-0.00977,-0.02975,-0.05157,-0.01907,-0.02655,-0.01755,-0.01114,-0.00961,-0.01801,-0.02151,-0.01266,0.01175,-0.0293,-0.01648,0.01007,-0.03876
7.324,-0.01419,-0.02838,-0.05173,-0.01907,-0.03036,-0.03418,-0.01389,-0.00519,-0.01877,-0.02335,-0.01266,-0.00275,-0.0296,-0.01892,0.00732,-0.0412
7.3245,-0.01709,-0.02747,-0.05157,-0.02197,-0.03372,-0.04684,-0.02045,-0.00244,-0.01862,-0.02502,-0.01221,-0.01785,-0.03006,-0.02075,0.00687,-0.04395
7.325,-0.01938,-0.02823,-0.05219,-0.02472,-0.03571,-0.06393,-0.02625,-0.00534,-0.01862,-0.02518,-0.01266,-0.0293,-0.03082,-0.0209,0.00732,-0.04395
7.3255,-0.02136,-0.02975,-0.05432,-0.02502,-0.03632,-0.08987,-0.02731,-0.01053,-0.01862,-0.02304,-0.01373,-0.0354,-0.03235,-0.02014,0.00717,-0.04471
7.326,-0.02075,-0.02991,-0.05508,-0.02274,-0.03693,-0.12939,-0.02777,-0.0116,-0.0177,-0.02167,-0.01572,-0.04639,-0.03403,-0.01862,0.0058,-0.04379
7.3265,-0.01572,-0.02792,-0.05905,-0.01633,-0.03525,-0.18402,-0.03143,-0.009,-0.01678,-0.02258,-0.01602,-0.08987,-0.03632,-0.01831,0.00427,-0.04303
7.327,-0.00641,-0.02472,-0.06317,-0.01099,-0.03464,-0.23834,-0.04318,-0.00626,-0.01648,-0.02426,-0.01556,-0.17349,-0.03555,-0.01923,0.00366,-0.04074
7.3275,0.00336,-0.02426,-0.06897,-0.01251,-0.03479,-0.26215,-0.05829,-0.00351,-0.01648,-0.02396,-0.01328,-0.26215,-0.03387,-0.02045,0.00519,-0.03906
7.328,0.0148,-0.02792,-0.07217,-0.01968,-0.03662,-0.23773,-0.07034,-0.00046,-0.01633,-0.02319,-0.01373,-0.30075,-0.03403,-0.0209,0.0061,-0.03769
7.3285,0.02777,-0.03372,-0.07233,-0.02808,-0.03799,-0.1825,-0.07065,0.00122,-0.01495,-0.02365,-0.01343,-0.26688,-0.03525,-0.02075,0.0061,-0.03693
7.329,0.04364,-0.03754,-0.07141,-0.03326,-0.0383,-0.13184,-0.0589,0.00031,-0.01419,-0.0235,-0.01266,-0.18646,-0.03555,-0.0206,0.0061,-0.03906
7.3295,0.06317,-0.03998,-0.06851,-0.03296,-0.03708,-0.10574,-0.04517,-0.00168,-0.01312,-0.02258,-0.00946,-0.08865,-0.03555,-0.02014,0.00534,-0.04105
7.33,0.07858,-0.04272,-0.06485,-0.02563,-0.03479,-0.09735,-0.03967,-0.00076,-0.01282,-0.02106,-0.01129,0.0238,-0.03433,-0.01984,0.00626,-0.04105
7.3305,0.0766,-0.04608,-0.06042,-0.01404,-0.03281,-0.09094,-0.03983,-0.00046,-0.01328,-0.0206,-0.01038,0.15411,-0.03357,-0.02136,0.00702,-0.04044
7.331,0.05417,-0.04654,-0.05676,-0.00504,-0.03143,-0.08392,-0.03174,-0.00305,-0.01389,-0.01938,-0.01038,0.27847,-0.03265,-0.02304,0.00778,-0.03922
7.3315,0.02487,-0.0441,-0.05035,-0.00061,-0.02991,-0.08102,-0.00427,-0.009,-0.01328,-0.01923,-0.01312,0.35248,-0.03235,-0.02396,0.00824,-0.03677
7.332,0.0029,-0.04013,-0.04486,0.00397,-0.02777,-0.08316,0.04227,-0.01389,-0.01266,-0.0177,-0.01297,0.34515,-0.03204,-0.02243,0.0087,-0.03372
7.3325,-0.00778,-0.03708,-0.0412,0.01129,-0.02853,-0.08774,0.08575,-0.01434,-0.0116,-0.01801,-0.0148,0.27664,-0.0322,-0.0209,0.00809,-0.03204
7.333,-0.01144,-0.0354,-0.04059,0.01541,-0.0293,-0.08835,0.09109,-0.01373,-0.01144,-0.01892,-0.0116,0.19806,-0.03464,-0.01968,0.00824,-0.03418
7.3335,-0.01236,-0.03357,-0.04166,0.01297,-0.03342,-0.08469,0.04745,-0.01312,-0.01282,-0.02014,-0.00946,0.13855,-0.0354,-0.01999,0.00839,-0.03555
7.334,-0.01343,-0.03311,-0.04517,0.01205,-0.03723,-0.07828,-0.01953,-0.01022,-0.01282,-0.02075,-0.00961,0.08636,-0.03372,-0.02045,0.00748,-0.03662
7.3345,-0.01358,-0.03799,-0.04669,0.02411,-0.0386,-0.06851,-0.0766,-0.00443,-0.01236,-0.02014,-0.01053,0.01892,-0.03326,-0.02106,0.00717,-0.03494
7.335,-0.01282,-0.04929,-0.04669,0.04379,-0.03845,-0.05875,-0.12085,0.00153,-0.01236,-0.01968,-0.00809,-0.05798,-0.03418,-0.02121,0.00656,-0.0351
7.3355,-0.00732,-0.06378,-0.04562,0.05417,-0.03571,-0.04929,-0.15762,0.00473,-0.01297,-0.01907,-0.00839,-0.10712,-0.03601,-0.02014,0.00565,-0.03677
7.336,0.00519,-0.07767,-0.04593,0.05035,-0.03387,-0.03723,-0.16754,0.00427,-0.01282,-0.01785,-0.00824,-0.11063,-0.03601,-0.01923,0.00381,-0.03937
7.3365,0.02106,-0.08499,-0.05234,0.04227,-0.03052,-0.0206,-0.12238,0.00275,-0.01175,-0.01984,-0.01251,-0.09201,-0.03418,-0.01831,0.00198,-0.04074
7.337,0.03128,-0.08316,-0.05966,0.03632,-0.02731,-0.00641,-0.04166,0.00076,-0.01175,-0.0209,-0.01266,-0.0824,-0.03265,-0.01938,0.00031,-0.04196
7.3375,0.02792,-0.07263,-0.06973,0.02151,-0.02563,-0.00732,0.03204,-0.00244,-0.01312,-0.02182,-0.01312,-0.07874,-0.03326,-0.01999,-0.00076,-0.04364
7.338,0.01404,-0.05829,-0.08102,-0.00961,-0.02518,-0.02304,0.07385,-0.00931,-0.01328,-0.0209,-0.01297,-0.06058,-0.03525,-0.02014,0.00015,-0.04562
7.3385,0.00122,-0.0444,-0.09338,-0.04349,-0.02731,-0.04227,0.09567,-0.01587,-0.01389,-0.01907,-0.01205,-0.02731,-0.03555,-0.01984,0.00153,-0.04684
7.339,-0.00168,-0.03433,-0.10468,-0.06134,-0.02914,-0.05341,0.10742,-0.01968,-0.01434,-0.01862,-0.01251,-0.00015,-0.03571,-0.01999,0.00198,-0.04715
7.3395,0.00458,-0.03052,-0.10818,-0.05676,-0.03082,-0.05661,0.103,-0.01801,-0.01526,-0.01953,-0.0119,0.00793,-0.03601,-0.01999,0.00076,-0.04593
7.34,0.01373,-0.0296,-0.09857,-0.04196,-0.03036,-0.05646,0.07553,-0.01389,-0.01511,-0.02014,-0.01282,0.00015,-0.03632,-0.01907,0.00137,-0.04364
7.3405,0.01968,-0.02823,-0.07492,-0.03143,-0.02975,-0.05661,0.04196,-0.01221,-0.01465,-0.02029,-0.0119,-0.02121,-0.03525,-0.0177,0.00031,-0.04364
7.341,0.01892,-0.02731,-0.0412,-0.02563,-0.03082,-0.05783,0.02029,-0.0119,-0.01434,-0.01938,-0.01144,-0.05447,-0.03296,-0.01678,0.00107,-0.04532
7.3415,0.01236,-0.03021,-0.00412,-0.01892,-0.03174,-0.05722,0.00916,-0.01114,-0.01373,-0.01923,-0.0148,-0.0885,-0.03204,-0.01709,0.00244,-0.04593
7.342,0.0029,-0.03876,0.02625,-0.01205,-0.03296,-0.05173,0.00397,-0.00793,-0.01358,-0.02029,-0.01663,-0.09918,-0.03204,-0.01816,0.00427,-0.04562
7.3425,-0.00641,-0.05081,0.04013,-0.00809,-0.03189,-0.04227,0.00061,-0.00275,-0.01373,-0.01892,-0.01678,-0.07614,-0.0325,-0.01907,0.00504,-0.04395
7.343,-0.01663,-0.06287,0.03494,-0.00793,-0.0296,-0.03342,-0.00122,0.00168,-0.01389,-0.01724,-0.01389,-0.03677,-0.03372,-0.01907,0.00458,-0.04166
7.3435,-0.02777,-0.06744,0.01419,-0.00732,-0.02762,-0.02792,-0.00443,0.00519,-0.01434,-0.01556,-0.01266,-0.00397,-0.03464,-0.01877,0.00427,-0.04028
7.344,-0.03571,-0.06348,-0.01114,-0.00732,-0.02655,-0.02716,-0.00961,0.00641,-0.01602,-0.01694,-0.01465,0.02029,-0.0354,-0.01862,0.00412,-0.03815
7.3445,-0.03967,-0.05356,-0.02686,-0.01389,-0.02563,-0.02808,-0.01831,0.00458,-0.0174,-0.01892,-0.01541,0.05096,-0.03479,-0.01999,0.00549,-0.03769
7.345,-0.03937,-0.04517,-0.02563,-0.02945,-0.02441,-0.02945,-0.02182,0.00031,-0.01663,-0.01984,-0.01328,0.09048,-0.03235,-0.01907,0.00702,-0.03708
7.3455,-0.03662,-0.04028,-0.01434,-0.04639,-0.02411,-0.03113,-0.02136,-0.00259,-0.01541,-0.01907,-0.01114,0.10986,-0.03189,-0.01724,0.00854,-0.03616
7.346,-0.0325,-0.0354,0.00046,-0.05447,-0.02396,-0.03296,-0.02106,-0.00076,-0.01389,-0.01846,-0.01205,0.0824,-0.03342,-0.01663,0.009,-0.03571
7.3465,-0.02686,-0.02945,0.01511,-0.05417,-0.02411,-0.03662,-0.02045,0.00336,-0.01434,-0.01785,-0.01434,0.02747,-0.03555,-0.01648,0.00793,-0.03632
7.347,-0.02518,-0.02594,0.02579,-0.05051,-0.02243,-0.03738,-0.02136,0.00488,-0.01465,-0.01846,-0.01724,-0.00839,-0.03677,-0.01572,0.00656,-0.0383
7.3475,-0.02914,-0.02716,0.02792,-0.04807,-0.02228,-0.0386,-0.02197,0.00214,-0.01572,-0.01968,-0.01587,-0.00717,-0.0354,-0.01648,0.00519,-0.03937
7.348,-0.03479,-0.02808,0.02228,-0.04425,-0.02304,-0.0383,-0.02411,-0.00168,-0.01633,-0.02029,-0.01526,0.01389,-0.03357,-0.0174,0.00427,-0.03967
7.3485,-0.03677,-0.02487,0.01556,-0.03571,-0.0264,-0.03632,-0.0238,-0.00275,-0.01465,-0.01984,-0.01419,0.02853,-0.03265,-0.0174,0.00397,-0.04013
7.349,-0.03342,-0.01816,0.01129,-0.02243,-0.02716,-0.03235,-0.02487,-0.00198,-0.0145,-0.01923,-0.01526,0.02228,-0.03342,-0.01755,0.00473,-0.04105
7.3495,-0.02914,-0.01144,0.00732,-0.00671,-0.02457,-0.02884,-0.02609,0.0,-0.01526,-0.01862,-0.01572,-0.00854,-0.03418,-0.01694,0.00687,-0.04105
7.35,-0.02411,-0.00458,0.00076,0.00763,-0.02197,-0.02777,-0.02655,0.00015,-0.01556,-0.01678,-0.0145,-0.05219,-0.0325,-0.01633,0.00885,-0.03876
7.3505,-0.01755,0.00061,-0.00671,0.01587,-0.02136,-0.02365,-0.02716,0.00198,-0.01495,-0.01556,-0.01144,-0.08606,-0.03052,-0.01495,0.00809,-0.03952
7.351,-0.00854,0.00198,-0.01724,0.01099,-0.02289,-0.01282,-0.02838,0.00259,-0.01495,-0.01724,-0.01221,-0.08865,-0.03098,-0.01434,0.00519,-0.04044
7.3515,-0.00046,-0.00214,-0.02884,-0.00336,-0.0238,0.00305,-0.03021,0.00092,-0.01602,-0.01755,-0.01572,-0.06271,-0.03265,-0.01541,0.00259,-0.04105
7.352,0.0032,-0.00793,-0.03632,-0.01663,-0.02472,0.01419,-0.02914,0.00015,-0.01831,-0.01816,-0.01373,-0.03464,-0.0322,-0.01663,0.0029,-0.04166
7.3525,0.00473,-0.01465,-0.03647,-0.01694,-0.02502,0.01389,-0.02502,0.00137,-0.01831,-0.01694,-0.01373,-0.02121,-0.03021,-0.01678,0.00458,-0.04196
7.353,0.0058,-0.02197,-0.03174,-0.00732,-0.02411,0.0029,-0.02106,0.00336,-0.01709,-0.01617,-0.01358,-0.01801,-0.02777,-0.01617,0.00443,-0.04211
7.3535,0.00473,-0.0293,-0.02975,0.00198,-0.02594,-0.009,-0.01999,0.0029,-0.01602,-0.0174,-0.01297,-0.01984,-0.02655,-0.0148,0.00443,-0.04181
7.354,-0.00061,-0.03311,-0.03403,0.00656,-0.0264,-0.01785,-0.02182,0.00046,-0.01724,-0.01907,-0.01328,-0.02625,-0.02655,-0.01373,0.00336,-0.04242
7.3545,-0.00885,-0.03204,-0.04181,0.00732,-0.02563,-0.02396,-0.02304,-0.00259,-0.0174,-0.01953,-0.01572,-0.02579,-0.0267,-0.01236,0.00259,-0.04211
7.355,-0.01709,-0.03052,-0.04623,0.0061,-0.02609,-0.02686,-0.02243,-0.00412,-0.01648,-0.01907,-0.01617,0.00565,-0.02609,-0.01282,0.0029,-0.04135
7.3555,-0.02106,-0.03418,-0.04501,0.00137,-0.02853,-0.02502,-0.02228,-0.00381,-0.01617,-0.01724,-0.0148,0.06317,-0.0264,-0.01358,0.00458,-0.04013
7.356,-0.02197,-0.04257,-0.04288,-0.00809,-0.03082,-0.02075,-0.02274,-0.00412,-0.01755,-0.01678,-0.01419,0.10117,-0.02518,-0.01495,0.00549,-0.04028
7.3565,-0.0209,-0.0502,-0.04425,-0.02045,-0.0322,-0.01831,-0.02426,-0.00458,-0.01892,-0.01801,-0.01175,0.08484,-0.02533,-0.01526,0.00595,-0.04105
7.357,-0.01999,-0.05173,-0.04608,-0.02899,-0.03067,-0.01785,-0.02487,-0.00687,-0.01923,-0.01923,-0.0116,0.03357,-0.02548,-0.01495,0.00641,-0.04272
7.3575,-0.01831,-0.04959,-0.047,-0.02335,-0.02991,-0.02106,-0.02548,-0.00854,-0.01862,-0.02167,-0.01221,-0.00534,-0.02502,-0.01556,0.00671,-0.04364
7.358,-0.0174,-0.04852,-0.04562,-0.00534,-0.03021,-0.02792,-0.02441,-0.01038,-0.01801,-0.02121,-0.01465,-0.01144,-0.02563,-0.01617,0.00717,-0.04196
7.3585,-0.01389,-0.04959,-0.0441,0.00839,-0.0325,-0.0386,-0.02365,-0.00977,-0.0177,-0.02121,-0.0174,-0.00244,-0.02625,-0.01572,0.00671,-0.0415
7.359,-0.00778,-0.05066,-0.04242,0.00961,-0.03479,-0.0499,-0.02167,-0.00839,-0.01724,-0.0206,-0.01434,0.00092,-0.02533,-0.0145,0.0061,-0.04211
7.3595,-0.00259,-0.0502,-0.04089,0.00427,-0.03571,-0.05737,-0.0206,-0.00595,-0.0174,-0.01938,-0.01373,-0.00092,-0.02365,-0.0145,0.00778,-0.04395
7.36,0.00031,-0.04944,-0.04211,0.00412,-0.0354,-0.05676,-0.02014,-0.00671,-0.01694,-0.01785,-0.01602,0.0,-0.02396,-0.01617,0.00748,-0.04471
7.3605,0.00381,-0.04883,-0.04547,0.00702,-0.03586,-0.05264,-0.01923,-0.00931,-0.01617,-0.01694,-0.01572,0.00229,-0.02472,-0.01663,0.00702,-0.04395
7.361,0.00626,-0.04684,-0.04776,0.00397,-0.03799,-0.0473,-0.01938,-0.01251,-0.01541,-0.01755,-0.01343,-0.00305,-0.02441,-0.01572,0.00519,-0.04288
7.3615,0.00916,-0.04318,-0.04852,-0.00519,-0.03937,-0.0444,-0.01923,-0.01282,-0.01404,-0.0177,-0.01297,-0.01648,-0.02289,-0.01404,0.00565,-0.04211
7.362,0.01053,-0.04303,-0.04944,-0.01434,-0.03754,-0.04074,-0.01755,-0.01129,-0.01328,-0.01923,-0.01328,-0.02838,-0.02274,-0.01587,0.00504,-0.04379
7.3625,0.01129,-0.04776,-0.05493,-0.01755,-0.03555,-0.03311,-0.01678,-0.01038,-0.01389,-0.01999,-0.01389,-0.03128,-0.02487,-0.01709,0.00488,-0.04776
7.363,0.01083,-0.05554,-0.065,-0.0174,-0.03525,-0.01724,-0.01801,-0.01053,-0.01511,-0.01801,-0.01419,-0.02747,-0.02655,-0.01663,0.00519,-0.04913
7.3635,0.01007,-0.06027,-0.07309,-0.01724,-0.0351,0.00153,-0.01755,-0.01007,-0.01663,-0.01541,-0.0145,-0.02457,-0.02609,-0.01648,0.00565,-0.0473
7.364,0.00916,-0.05829,-0.07172,-0.01678,-0.03586,0.01495,-0.01495,-0.00549,-0.01602,-0.01526,-0.01312,-0.02029,-0.02487,-0.01755,0.00671,-0.04379
7.3645,0.00854,-0.05386,-0.0621,-0.01587,-0.03662,0.01724,-0.01266,-0.00229,-0.0148,-0.01709,-0.01282,-0.00259,-0.02563,-0.01892,0.00717,-0.04196
7.365,0.00809,-0.04944,-0.0499,-0.01404,-0.03769,0.00793,-0.01129,-0.00366,-0.01572,-0.01785,-0.01205,0.03067,-0.02594,-0.01907,0.00809,-0.04227
7.3655,0.00641,-0.04578,-0.03937,-0.00809,-0.03799,-0.00931,-0.0145,-0.00763,-0.01663,-0.01724,-0.0116,0.06393,-0.02518,-0.01755,0.00778,-0.04379
7.366,0.00153,-0.04288,-0.03113,0.00153,-0.03723,-0.03296,-0.01694,-0.01175,-0.01709,-0.01663,-0.0145,0.0737,-0.02289,-0.01556,0.00702,-0.04471
7.3665,-0.00534,-0.04105,-0.02487,0.01022,-0.03769,-0.06165,-0.01755,-0.01221,-0.01694,-0.01511,-0.01587,0.05707,-0.02243,-0.01511,0.00473,-0.04501
7.367,-0.01328,-0.04074,-0.01587,0.01572,-0.03906,-0.09064,-0.01648,-0.01221,-0.01617,-0.01617,-0.01495,0.03403,-0.02335,-0.01694,0.00427,-0.04532
7.3675,-0.01923,-0.04318,-0.00824,0.0174,-0.03952,-0.11536,-0.0145,-0.00946,-0.01678,-0.01938,-0.01343,0.01785,-0.02533,-0.01801,0.00458,-0.04517
7.368,-0.01984,-0.04669,-0.00458,0.01678,-0.0386,-0.13229,-0.01328,-0.00595,-0.01602,-0.02106,-0.01328,0.00336,-0.02655,-0.01755,0.0061,-0.04532
7.3685,-0.01846,-0.0502,-0.00748,0.01434,-0.03479,-0.13718,-0.01129,-0.00198,-0.01465,-0.02258,-0.01389,-0.01556,-0.02609,-0.01678,0.00687,-0.0473
7.369,-0.0206,-0.05035,-0.01175,0.01434,-0.0325,-0.13,-0.00839,0.00092,-0.01419,-0.02029,-0.01602,-0.02853,-0.02518,-0.01617,0.00595,-0.04868
7.3695,-0.02579,-0.04898,-0.01709,0.0174,-0.03159,-0.10971,-0.00809,0.0,-0.01526,-0.01831,-0.01511,-0.0267,-0.02472,-0.01556,0.00626,-0.04868
7.37,-0.03128,-0.04639,-0.01892,0.02197,-0.03265,-0.07492,-0.00854,-0.00061,-0.01495,-0.01846,-0.01053,-0.01801,-0.02533,-0.01587,0.00565,-0.04791
7.3705,-0.03235,-0.04471,-0.01724,0.01953,-0.03174,-0.03189,-0.00992,-0.00122,-0.01434,-0.02106,-0.01038,-0.01144,-0.02502,-0.01724,0.00595,-0.04608
7.371,-0.02823,-0.04425,-0.01709,0.01083,-0.02808,0.0,-0.01022,0.00153,-0.01389,-0.02213,-0.00992,-0.00412,-0.02274,-0.01831,0.00687,-0.04471
7.3715,-0.0206,-0.04364,-0.01999,0.00397,-0.02594,0.01297,-0.00778,0.0032,-0.01526,-0.02045,-0.00961,0.01434,-0.02167,-0.01862,0.00824,-0.04517
7.372,-0.01007,-0.04425,-0.02533,-0.00229,-0.0267,0.01846,-0.00671,0.00244,-0.01663,-0.01846,-0.01312,0.05035,-0.02243,-0.01816,0.00778,-0.04501
7.3725,-0.00031,-0.04501,-0.03021,-0.01678,-0.02808,0.02747,-0.00977,-0.00031,-0.01678,-0.0174,-0.01587,0.09598,-0.02563,-0.01831,0.0061,-0.04395
7.373,0.00427,-0.04852,-0.03342,-0.0412,-0.02945,0.03204,-0.01495,-0.00275,-0.01511,-0.01617,-0.01678,0.12848,-0.02762,-0.01953,0.00519,-0.04272
7.3735,0.00336,-0.05325,-0.03601,-0.06256,-0.02899,0.01465,-0.01923,-0.00412,-0.01419,-0.01465,-0.01678,0.12634,-0.02625,-0.01953,0.00656,-0.04425
7.374,-0.00015,-0.05615,-0.03906,-0.07339,-0.02914,-0.02075,-0.02121,-0.00412,-0.01511,-0.01343,-0.01572,0.09232,-0.02411,-0.01801,0.00946,-0.047
7.3745,-0.00351,-0.05676,-0.04105,-0.07797,-0.03052,-0.05249,-0.02029,-0.00427,-0.01663,-0.01419,-0.01465,0.0531,-0.02457,-0.01556,0.00931,-0.04868
7.375,-0.0061,-0.05493,-0.04227,-0.08774,-0.03326,-0.06073,-0.01907,-0.00458,-0.01724,-0.01511,-0.01846,0.03006,-0.02716,-0.01633,0.00916,-0.04761
7.3755,-0.00961,-0.05203,-0.04257,-0.09949,-0.03418,-0.047,-0.01831,-0.00336,-0.01801,-0.01602,-0.01984,0.02274,-0.02808,-0.01907,0.00778,-0.04593
7.376,-0.01205,-0.05081,-0.04227,-0.09338,-0.03387,-0.02533,-0.01999,-0.00015,-0.01877,-0.0145,-0.01801,0.02014,-0.02747,-0.0209,0.00671,-0.04425
7.3765,-0.01129,-0.05173,-0.0412,-0.04639,-0.03296,-0.01343,-0.01938,0.00259,-0.01968,-0.01389,-0.01923,0.01526,-0.02853,-0.02075,0.00519,-0.04288
7.377,-0.00641,-0.05493,-0.04395,0.04211,-0.03372,-0.03036,-0.01602,0.00366,-0.01862,-0.01572,-0.01923,0.00839,-0.03006,-0.01907,0.00397,-0.04303
7.3775,-0.00061,-0.05676,-0.04974,0.13107,-0.03586,-0.08362,-0.01297,0.00473,-0.01785,-0.01846,-0.0209,0.00107,-0.02991,-0.01801,0.00671,-0.0441
7.378,0.00504,-0.05478,-0.05585,0.159,-0.03647,-0.15182,-0.01099,0.00534,-0.01709,-0.0209,-0.02075,-0.0061,-0.02975,-0.01877,0.01083,-0.0444
7.3785,0.01053,-0.05005,-0.05554,0.10849,-0.03555,-0.19363,-0.009,0.00565,-0.01877,-0.02182,-0.02121,-0.01007,-0.03082,-0.02014,0.01236,-0.04349
7.379,0.01419,-0.04547,-0.04974,0.02502,-0.03479,-0.19806,-0.00656,0.00519,-0.01938,-0.02197,-0.02335,-0.00809,-0.03174,-0.02213,0.01022,-0.04135
7.3795,0.01587,-0.04303,-0.04028,-0.02747,-0.03342,-0.1799,-0.00504,0.00473,-0.01862,-0.0209,-0.02106,-0.00244,-0.03128,-0.02289,0.00778,-0.04044
7.38,0.01617,-0.04303,-0.03204,-0.03098,-0.03296,-0.16083,-0.00702,0.00244,-0.01633,-0.01953,-0.01785,0.00244,-0.03098,-0.02243,0.00854,-0.04044
7.3805,0.01617,-0.04471,-0.02838,-0.02106,-0.03265,-0.13855,-0.01144,-0.00381,-0.01465,-0.01938,-0.01678,0.00305,-0.03067,-0.01999,0.009,-0.0412
7.381,0.01526,-0.04776,-0.03052,-0.02975,-0.03052,-0.10849,-0.01312,-0.01099,-0.01541,-0.01968,-0.01663,0.00122,-0.03082,-0.01907,0.01175,-0.04059
7.3815,0.01297,-0.05127,-0.0351,-0.04486,-0.03006,-0.06882,-0.009,-0.01389,-0.01785,-0.01923,-0.0148,-0.00046,-0.02991,-0.01846,0.01312,-0.03799
7.382,0.00961,-0.05249,-0.0383,-0.04425,-0.0322,-0.0238,-0.00412,-0.0119,-0.01816,-0.01801,-0.01419,-0.00153,-0.02991,-0.01862,0.01434,-0.03693
7.3825,0.00702,-0.05066,-0.03662,-0.04486,-0.03723,0.02319,-0.00275,-0.01022,-0.01694,-0.01694,-0.01511,-0.00305,-0.03204,-0.01694,0.01297,-0.03662
7.383,0.00565,-0.04684,-0.03326,-0.09415,-0.03906,0.06699,-0.0058,-0.01205,-0.01495,-0.01862,-0.01694,-0.00504,-0.03464,-0.01602,0.00992,-0.03784
